EXPLAIN
TAG	PWR800_DISCHARGE
TITLE	LABEL	PWR Cyclic Charge Discharge (Cell) - Discharge Step	Test &Identifier
DATE	LABEL	7-7-2017	Date
TIME	LABEL	15:59:10	Time
NOTES	NOTES	3	&Notes...
	supercap test cell
	2.8mg
	6M KOH
PSTAT	PSTAT	IFC5000-01520	Potentiostat
CAPACITY	QUANT	1.00000E-003	Capacity (A-hr)
CELLTYPE	SELECTOR	1	&Cell Type
WORKINGCONNECTION	SELECTOR	0	&Working Lead
MAXDISCHARGETIME	VARIABLEANDUNITS	1.00000E+002	s	1.00000E+002	second(s)	Max &Discharge Time
DISCHARGEMODE	MULTIPARAM	0	2.80000E-004	&Discharge Mode	Constant Current	Amp(s)
SAMPLETIME	QUANT	1.00000E-002	Sa&mple Period (s)
DISCHARGESTOPAT1	MULTIPARAM	3	0.00000E+000	Discharge Stop At &1	Voltage < Limit	V
DISCHARGESTOPAT2	MULTIPARAM	0	0.00000E+000	Discharge Stop At &2	None	N/A
AESBHCSELECTOR	TOGGLE	F	Save Both Half Cells
IRCOMP	TOGGLE	F	IR &Measure
EOC	QUANT	0	Open Circuit (V)
SEQUENCER	TOGGLE	TRUE	Run as Sequence
PSTATMODEL	IQUANT	53	Pstat Model
PSTATSECTION	LABEL	IFC5000-01520	Pstat Section
PSTATSERIALNO	LABEL	01520	Pstat Serial Number
CTRLMODE	IQUANT	0	Control Mode
ELECTROMETER	IQUANT	1	RE=0 or CS=1
IESTAB	IQUANT	0	I/E Stability
CASPEED	IQUANT	4	Control Amp Speed
CONVENTION	IQUANT	1	Current Convention
ICHRANGE	IQUANT	2	Ich Range
ICHRANGEMODE	TOGGLE	T	Ich Auto Range
ICHOFFSETENABLE	TOGGLE	F	Ich Offset Enable
ICHOFFSET	QUANT	0	Ich Offset (V)
ICHFILTER	IQUANT	1	Ich Filter
VCHRANGE	IQUANT	2	Vch Range
VCHRANGEMODE	TOGGLE	T	Vch Auto Range
VCHOFFSETENABLE	TOGGLE	F	Vch Offset Enable
VCHOFFSET	QUANT	0	Vch Offset (V)
VCHFILTER	IQUANT	1	Vch Filter
IERANGELOWERLIMIT	IQUANT	9	I/E Range Lower Limit
IERANGEMODE	TOGGLE	F	I/E AutoRange
IERANGE	IQUANT	9	I/E Range
ACHSELECT	IQUANT	1	Ach Select
ACHRANGE	IQUANT	2	Ach Range
ACHOFFSETENABLE	TOGGLE	F	Ach Offset Enable
ACHOFFSET	QUANT	0	Ach Offset (V)
ACHFILTER	IQUANT	1	Ach Filter
CABLEID	IQUANT	14	Cable ID
DCCALDATE	LABEL	5-7-2017	DC Calibration Date
ACCALDATE	LABEL	12/3/2015	AC Calibration Date
FRAMEWORKVERSION	QUANT	7.01	Framework Version
INSTRUMENTVERSION	LABEL	4.00	Instrument Version
CURVE	TABLE	71
	Pt	T	Vf	Im	Vu	Pwr	Sig	Ach	Temp	IERange	Over
	#	s	V	A	V	W	V	V	deg C	#	bits
	0	0.013333	5.21164E-001	-2.78184E-004	0.00000E+000	-1.44980E-004	-1.68088E-001	5.21420E-001	3.57820E+000	9	...........
	1	0.026667	4.89315E-001	-2.79045E-004	0.00000E+000	-1.36541E-004	-1.68088E-001	4.89518E-001	3.57750E+000	9	...........
	2	0.04	4.60520E-001	-2.79655E-004	0.00000E+000	-1.28787E-004	-1.68088E-001	4.60629E-001	3.57750E+000	9	...........
	3	0.053333	4.33763E-001	-2.77503E-004	0.00000E+000	-1.20371E-004	-1.68088E-001	4.33870E-001	3.57750E+000	9	...........
	4	0.066667	4.08958E-001	-2.79823E-004	0.00000E+000	-1.14436E-004	-1.68088E-001	4.09058E-001	3.57750E+000	9	...........
	5	0.08	3.85931E-001	-2.79124E-004	0.00000E+000	-1.07723E-004	-1.68088E-001	3.86022E-001	3.57750E+000	9	...........
	6	0.093333	3.64531E-001	-2.80109E-004	0.00000E+000	-1.02108E-004	-1.68088E-001	3.64628E-001	3.57750E+000	9	...........
	7	0.106667	3.44684E-001	-2.77934E-004	0.00000E+000	-9.57994E-005	-1.68088E-001	3.44770E-001	3.57750E+000	9	...........
	8	0.12	3.26254E-001	-2.78933E-004	0.00000E+000	-9.10032E-005	-1.68088E-001	3.26332E-001	3.57750E+000	9	...........
	9	0.133333	3.09178E-001	-2.78012E-004	0.00000E+000	-8.59553E-005	-1.68088E-001	3.09251E-001	3.57750E+000	9	...........
	10	0.146667	2.93277E-001	-2.78924E-004	0.00000E+000	-8.18021E-005	-1.68088E-001	2.93348E-001	3.57750E+000	9	...........
	11	0.16	2.78535E-001	-2.77888E-004	0.00000E+000	-7.74017E-005	-1.68088E-001	2.78612E-001	3.57750E+000	9	...........
	12	0.173333	2.64902E-001	-2.78685E-004	0.00000E+000	-7.38244E-005	-1.68088E-001	2.64973E-001	3.57750E+000	9	...........
	13	0.186667	2.52206E-001	-2.79217E-004	0.00000E+000	-7.04202E-005	-1.68088E-001	2.52270E-001	3.57750E+000	9	...........
	14	0.2	2.40398E-001	-2.78866E-004	0.00000E+000	-6.70386E-005	-1.68088E-001	2.40458E-001	3.57750E+000	9	...........
	15	0.213333	2.29399E-001	-2.78889E-004	0.00000E+000	-6.39768E-005	-1.68088E-001	2.29453E-001	3.57750E+000	9	...........
	16	0.226667	2.19136E-001	-2.78454E-004	0.00000E+000	-6.10194E-005	-1.68088E-001	2.19185E-001	3.57750E+000	9	...........
	17	0.24	2.09560E-001	-2.78725E-004	0.00000E+000	-5.84097E-005	-1.68088E-001	2.09604E-001	3.57750E+000	9	...........
	18	0.253333	2.00558E-001	-2.78803E-004	0.00000E+000	-5.59162E-005	-1.68088E-001	2.00609E-001	3.57750E+000	9	...........
	19	0.266667	1.92113E-001	-2.79673E-004	0.00000E+000	-5.37289E-005	-1.68088E-001	1.92160E-001	3.57750E+000	9	...........
	20	0.28	1.84201E-001	-2.79090E-004	0.00000E+000	-5.14085E-005	-1.68088E-001	1.84242E-001	3.57750E+000	9	...........
	21	0.293333	1.76726E-001	-2.79055E-004	0.00000E+000	-4.93162E-005	-1.68088E-001	1.76771E-001	3.57750E+000	9	...........
	22	0.306667	1.69670E-001	-2.79645E-004	0.00000E+000	-4.74474E-005	-1.68088E-001	1.69709E-001	3.57750E+000	9	...........
	23	0.32	1.62941E-001	-2.79139E-004	0.00000E+000	-4.54830E-005	-1.68088E-001	1.62983E-001	3.57750E+000	9	...........
	24	0.333333	1.56557E-001	-2.80218E-004	0.00000E+000	-4.38700E-005	-1.68088E-001	1.56593E-001	3.57750E+000	9	...........
	25	0.346667	1.50538E-001	-2.78678E-004	0.00000E+000	-4.19517E-005	-1.68088E-001	1.50573E-001	3.57750E+000	9	...........
	26	0.36	1.44788E-001	-2.78226E-004	0.00000E+000	-4.02837E-005	-1.68088E-001	1.44821E-001	3.57750E+000	9	...........
	27	0.373333	1.39288E-001	-2.78427E-004	0.00000E+000	-3.87815E-005	-1.68088E-001	1.39323E-001	3.57750E+000	9	...........
	28	0.386667	1.34004E-001	-2.78656E-004	0.00000E+000	-3.73409E-005	-1.68088E-001	1.34038E-001	3.57750E+000	9	...........
	29	0.4	1.28957E-001	-2.78479E-004	0.00000E+000	-3.59120E-005	-1.68088E-001	1.28985E-001	3.57750E+000	9	...........
	30	0.413333	1.24104E-001	-2.79284E-004	0.00000E+000	-3.46603E-005	-1.68088E-001	1.24133E-001	3.57750E+000	9	...........
	31	0.426667	1.19436E-001	-2.79917E-004	0.00000E+000	-3.34321E-005	-1.68088E-001	1.19464E-001	3.57750E+000	9	...........
	32	0.44	1.14936E-001	-2.79098E-004	0.00000E+000	-3.20785E-005	-1.68088E-001	1.14965E-001	3.57750E+000	9	...........
	33	0.453333	1.10608E-001	-2.78989E-004	0.00000E+000	-3.08584E-005	-1.68088E-001	1.10631E-001	3.57750E+000	9	...........
	34	0.466667	1.06398E-001	-2.79006E-004	0.00000E+000	-2.96857E-005	-1.68088E-001	1.06424E-001	3.57750E+000	9	...........
	35	0.48	1.02295E-001	-2.78342E-004	0.00000E+000	-2.84731E-005	-1.68088E-001	1.02318E-001	3.57750E+000	9	...........
	36	0.493333	9.83143E-002	-2.78821E-004	0.00000E+000	-2.74121E-005	-1.68088E-001	9.83376E-002	3.57750E+000	9	...........
	37	0.506667	9.44599E-002	-2.79194E-004	0.00000E+000	-2.63726E-005	-1.68088E-001	9.44823E-002	3.57750E+000	9	...........
	38	0.52	9.07231E-002	-2.79071E-004	0.00000E+000	-2.53182E-005	-1.68088E-001	9.07426E-002	3.57750E+000	9	...........
	39	0.533333	8.70396E-002	-2.79010E-004	0.00000E+000	-2.42850E-005	-1.68088E-001	8.70621E-002	3.57750E+000	9	...........
	40	0.546667	8.34757E-002	-2.78860E-004	0.00000E+000	-2.32781E-005	-1.68088E-001	8.34989E-002	3.57750E+000	9	...........
	41	0.56	8.00116E-002	-2.79993E-004	0.00000E+000	-2.24027E-005	-1.68088E-001	8.00247E-002	3.57750E+000	9	...........
	42	0.573333	7.66246E-002	-2.79582E-004	0.00000E+000	-2.14229E-005	-1.68088E-001	7.66376E-002	3.57750E+000	9	...........
	43	0.586667	7.33038E-002	-2.78629E-004	0.00000E+000	-2.04246E-005	-1.68088E-001	7.33212E-002	3.57750E+000	9	...........
	44	0.6	7.00567E-002	-2.78012E-004	0.00000E+000	-1.94766E-005	-1.68088E-001	7.00762E-002	3.57750E+000	9	...........
	45	0.613333	6.68457E-002	-2.79671E-004	0.00000E+000	-1.86948E-005	-1.68088E-001	6.68635E-002	3.57750E+000	9	...........
	46	0.626667	6.37174E-002	-2.79349E-004	0.00000E+000	-1.77994E-005	-1.68088E-001	6.37336E-002	3.57750E+000	9	...........
	47	0.64	6.06117E-002	-2.78824E-004	0.00000E+000	-1.69000E-005	-1.68088E-001	6.06288E-002	3.57750E+000	9	...........
	48	0.653333	5.75449E-002	-2.79815E-004	0.00000E+000	-1.61019E-005	-1.68088E-001	5.75597E-002	3.57750E+000	9	...........
	49	0.666667	5.45759E-002	-2.77404E-004	0.00000E+000	-1.51396E-005	-1.68088E-001	5.45904E-002	3.57750E+000	9	...........
	50	0.68	5.16709E-002	-2.78825E-004	0.00000E+000	-1.44071E-005	-1.68088E-001	5.16860E-002	3.57750E+000	9	...........
	51	0.693333	4.88399E-002	-2.79102E-004	0.00000E+000	-1.36313E-005	-1.68088E-001	4.88490E-002	3.57750E+000	9	...........
	52	0.706667	4.60045E-002	-2.78066E-004	0.00000E+000	-1.27923E-005	-1.68088E-001	4.60188E-002	3.57750E+000	9	...........
	53	0.72	4.32004E-002	-2.78648E-004	0.00000E+000	-1.20377E-005	-1.68088E-001	4.32120E-002	3.57750E+000	9	...........
	54	0.733333	4.04611E-002	-2.78995E-004	0.00000E+000	-1.12884E-005	-1.68088E-001	4.04674E-002	3.57750E+000	9	...........
	55	0.746667	3.77335E-002	-2.79067E-004	0.00000E+000	-1.05302E-005	-1.68088E-001	3.77357E-002	3.57750E+000	9	...........
	56	0.76	3.50444E-002	-2.78717E-004	0.00000E+000	-9.76746E-006	-1.68088E-001	3.50490E-002	3.57750E+000	9	...........
	57	0.773333	3.24098E-002	-2.80125E-004	0.00000E+000	-9.07880E-006	-1.68088E-001	3.24138E-002	3.57750E+000	9	...........
	58	0.786667	2.98229E-002	-2.79199E-004	0.00000E+000	-8.32654E-006	-1.68088E-001	2.98278E-002	3.57750E+000	9	...........
	59	0.8	2.72194E-002	-2.78263E-004	0.00000E+000	-7.57415E-006	-1.68088E-001	2.72158E-002	3.57750E+000	9	...........
	60	0.813333	2.46603E-002	-2.78948E-004	0.00000E+000	-6.87893E-006	-1.68088E-001	2.46574E-002	3.57750E+000	9	...........
	61	0.826667	2.21502E-002	-2.78299E-004	0.00000E+000	-6.16438E-006	-1.68088E-001	2.21494E-002	3.57750E+000	9	...........
	62	0.84	1.96320E-002	-2.79175E-004	0.00000E+000	-5.48075E-006	-1.68088E-001	1.96261E-002	3.57750E+000	9	...........
	63	0.853333	1.71689E-002	-2.79308E-004	0.00000E+000	-4.79542E-006	-1.68088E-001	1.71619E-002	3.57750E+000	9	...........
	64	0.866667	1.47058E-002	-2.79495E-004	0.00000E+000	-4.11021E-006	-1.68088E-001	1.46978E-002	3.57750E+000	9	...........
	65	0.88	1.23011E-002	-2.78909E-004	0.00000E+000	-3.43089E-006	-1.68088E-001	1.22889E-002	3.57750E+000	9	...........
	66	0.893333	9.94123E-003	-2.78742E-004	0.00000E+000	-2.77104E-006	-1.68088E-001	9.92924E-003	3.57750E+000	9	...........
	67	0.906667	7.58646E-003	-2.78700E-004	0.00000E+000	-2.11435E-006	-1.68088E-001	7.57187E-003	3.57750E+000	9	...........
	68	0.92	5.26174E-003	-2.78130E-004	0.00000E+000	-1.46345E-006	-1.68088E-001	5.24951E-003	3.57750E+000	9	...........
	69	0.933333	3.01051E-003	-2.78223E-004	0.00000E+000	-8.37592E-007	-1.68088E-001	2.99662E-003	3.57750E+000	9	...........
	70	0.945	8.37346E-004	-2.78500E-004	0.00000E+000	-2.33201E-007	-1.68088E-001	8.18975E-004	3.57750E+000	9	...........
STARTTIMEOFFSET	QUANT	1073.922	Start Time Offset (s)
