EXPLAIN
TAG	PWR800_DISCHARGE
TITLE	LABEL	PWR Cyclic Charge Discharge (Cell) - Discharge Step	Test &Identifier
DATE	LABEL	7-7-2017	Date
TIME	LABEL	15:52:28	Time
NOTES	NOTES	3	&Notes...
	supercap test cell
	2.8mg
	6M KOH
PSTAT	PSTAT	IFC5000-01520	Potentiostat
CAPACITY	QUANT	1.00000E-003	Capacity (A-hr)
CELLTYPE	SELECTOR	1	&Cell Type
WORKINGCONNECTION	SELECTOR	0	&Working Lead
MAXDISCHARGETIME	VARIABLEANDUNITS	1.00000E+002	s	1.00000E+002	second(s)	Max &Discharge Time
DISCHARGEMODE	MULTIPARAM	0	2.80000E-004	&Discharge Mode	Constant Current	Amp(s)
SAMPLETIME	QUANT	1.00000E-002	Sa&mple Period (s)
DISCHARGESTOPAT1	MULTIPARAM	3	0.00000E+000	Discharge Stop At &1	Voltage < Limit	V
DISCHARGESTOPAT2	MULTIPARAM	0	0.00000E+000	Discharge Stop At &2	None	N/A
AESBHCSELECTOR	TOGGLE	F	Save Both Half Cells
IRCOMP	TOGGLE	F	IR &Measure
EOC	QUANT	0	Open Circuit (V)
SEQUENCER	TOGGLE	TRUE	Run as Sequence
PSTATMODEL	IQUANT	53	Pstat Model
PSTATSECTION	LABEL	IFC5000-01520	Pstat Section
PSTATSERIALNO	LABEL	01520	Pstat Serial Number
CTRLMODE	IQUANT	0	Control Mode
ELECTROMETER	IQUANT	1	RE=0 or CS=1
IESTAB	IQUANT	0	I/E Stability
CASPEED	IQUANT	4	Control Amp Speed
CONVENTION	IQUANT	1	Current Convention
ICHRANGE	IQUANT	2	Ich Range
ICHRANGEMODE	TOGGLE	T	Ich Auto Range
ICHOFFSETENABLE	TOGGLE	F	Ich Offset Enable
ICHOFFSET	QUANT	0	Ich Offset (V)
ICHFILTER	IQUANT	1	Ich Filter
VCHRANGE	IQUANT	2	Vch Range
VCHRANGEMODE	TOGGLE	T	Vch Auto Range
VCHOFFSETENABLE	TOGGLE	F	Vch Offset Enable
VCHOFFSET	QUANT	0	Vch Offset (V)
VCHFILTER	IQUANT	1	Vch Filter
IERANGELOWERLIMIT	IQUANT	9	I/E Range Lower Limit
IERANGEMODE	TOGGLE	F	I/E AutoRange
IERANGE	IQUANT	9	I/E Range
ACHSELECT	IQUANT	1	Ach Select
ACHRANGE	IQUANT	2	Ach Range
ACHOFFSETENABLE	TOGGLE	F	Ach Offset Enable
ACHOFFSET	QUANT	0	Ach Offset (V)
ACHFILTER	IQUANT	1	Ach Filter
CABLEID	IQUANT	14	Cable ID
DCCALDATE	LABEL	5-7-2017	DC Calibration Date
ACCALDATE	LABEL	12/3/2015	AC Calibration Date
FRAMEWORKVERSION	QUANT	7.01	Framework Version
INSTRUMENTVERSION	LABEL	4.00	Instrument Version
CURVE	TABLE	84
	Pt	T	Vf	Im	Vu	Pwr	Sig	Ach	Temp	IERange	Over
	#	s	V	A	V	W	V	V	deg C	#	bits
	0	0.013333	5.44775E-001	-2.78568E-004	0.00000E+000	-1.51757E-004	-1.68088E-001	5.44999E-001	3.57790E+000	9	...........
	1	0.026667	5.13569E-001	-2.78658E-004	0.00000E+000	-1.43110E-004	-1.68088E-001	5.13804E-001	3.57790E+000	9	...........
	2	0.04	4.85340E-001	-2.79216E-004	0.00000E+000	-1.35515E-004	-1.68088E-001	4.85523E-001	3.57790E+000	9	...........
	3	0.053333	4.59440E-001	-2.78952E-004	0.00000E+000	-1.28162E-004	-1.68088E-001	4.59550E-001	3.57790E+000	9	...........
	4	0.066667	4.35252E-001	-2.79378E-004	0.00000E+000	-1.21600E-004	-1.68088E-001	4.35353E-001	3.57790E+000	9	...........
	5	0.08	4.12778E-001	-2.78791E-004	0.00000E+000	-1.15079E-004	-1.68088E-001	4.12867E-001	3.57790E+000	9	...........
	6	0.093333	3.91895E-001	-2.78016E-004	0.00000E+000	-1.08953E-004	-1.68088E-001	3.91979E-001	3.57790E+000	9	...........
	7	0.106667	3.72470E-001	-2.78805E-004	0.00000E+000	-1.03847E-004	-1.68088E-001	3.72554E-001	3.57790E+000	9	...........
	8	0.12	3.54450E-001	-2.78693E-004	0.00000E+000	-9.87826E-005	-1.68088E-001	3.54530E-001	3.57790E+000	9	...........
	9	0.133333	3.37726E-001	-2.79102E-004	0.00000E+000	-9.42600E-005	-1.68088E-001	3.37800E-001	3.57790E+000	9	...........
	10	0.146667	3.22161E-001	-2.78726E-004	0.00000E+000	-8.97946E-005	-1.68088E-001	3.22230E-001	3.57790E+000	9	...........
	11	0.16	3.07669E-001	-2.78562E-004	0.00000E+000	-8.57051E-005	-1.68088E-001	3.07735E-001	3.57790E+000	9	...........
	12	0.173333	2.94193E-001	-2.78452E-004	0.00000E+000	-8.19187E-005	-1.68088E-001	2.94258E-001	3.57790E+000	9	...........
	13	0.186667	2.81670E-001	-2.78970E-004	0.00000E+000	-7.85775E-005	-1.68088E-001	2.81735E-001	3.57790E+000	9	...........
	14	0.2	2.70034E-001	-2.78885E-004	0.00000E+000	-7.53084E-005	-1.68088E-001	2.70095E-001	3.57790E+000	9	...........
	15	0.213333	2.59147E-001	-2.78874E-004	0.00000E+000	-7.22694E-005	-1.68088E-001	2.59218E-001	3.57790E+000	9	...........
	16	0.226667	2.49003E-001	-2.79232E-004	0.00000E+000	-6.95298E-005	-1.68088E-001	2.49064E-001	3.57790E+000	9	...........
	17	0.24	2.39479E-001	-2.78502E-004	0.00000E+000	-6.66953E-005	-1.68088E-001	2.39528E-001	3.57790E+000	9	...........
	18	0.253333	2.30537E-001	-2.78782E-004	0.00000E+000	-6.42697E-005	-1.68088E-001	2.30584E-001	3.57790E+000	9	...........
	19	0.266667	2.22148E-001	-2.78461E-004	0.00000E+000	-6.18597E-005	-1.68088E-001	2.22203E-001	3.57790E+000	9	...........
	20	0.28	2.14208E-001	-2.79425E-004	0.00000E+000	-5.98552E-005	-1.68088E-001	2.14259E-001	3.57790E+000	9	...........
	21	0.293333	2.06740E-001	-2.79566E-004	0.00000E+000	-5.77974E-005	-1.68088E-001	2.06785E-001	3.57790E+000	9	...........
	22	0.306667	1.99705E-001	-2.79177E-004	0.00000E+000	-5.57530E-005	-1.68088E-001	1.99755E-001	3.57790E+000	9	...........
	23	0.32	1.93073E-001	-2.78147E-004	0.00000E+000	-5.37026E-005	-1.68088E-001	1.93118E-001	3.57790E+000	9	...........
	24	0.333333	1.86741E-001	-2.80032E-004	0.00000E+000	-5.22936E-005	-1.68088E-001	1.86788E-001	3.57790E+000	9	...........
	25	0.346667	1.80697E-001	-2.78869E-004	0.00000E+000	-5.03909E-005	-1.68088E-001	1.80745E-001	3.57790E+000	9	...........
	26	0.36	1.74967E-001	-2.77950E-004	0.00000E+000	-4.86322E-005	-1.68088E-001	1.75012E-001	3.57790E+000	9	...........
	27	0.373333	1.69437E-001	-2.79161E-004	0.00000E+000	-4.73002E-005	-1.68088E-001	1.69480E-001	3.57790E+000	9	...........
	28	0.386667	1.64173E-001	-2.79720E-004	0.00000E+000	-4.59226E-005	-1.68088E-001	1.64217E-001	3.57790E+000	9	...........
	29	0.4	1.59102E-001	-2.78859E-004	0.00000E+000	-4.43671E-005	-1.68088E-001	1.59146E-001	3.57790E+000	9	...........
	30	0.413333	1.54215E-001	-2.79129E-004	0.00000E+000	-4.30459E-005	-1.68088E-001	1.54251E-001	3.57790E+000	9	...........
	31	0.426667	1.49487E-001	-2.79254E-004	0.00000E+000	-4.17448E-005	-1.68088E-001	1.49526E-001	3.57790E+000	9	...........
	32	0.44	1.44938E-001	-2.78835E-004	0.00000E+000	-4.04139E-005	-1.68088E-001	1.44975E-001	3.57790E+000	9	...........
	33	0.453333	1.40577E-001	-2.78080E-004	0.00000E+000	-3.90918E-005	-1.68088E-001	1.40608E-001	3.57790E+000	9	...........
	34	0.466667	1.36324E-001	-2.78322E-004	0.00000E+000	-3.79420E-005	-1.68088E-001	1.36358E-001	3.57790E+000	9	...........
	35	0.48	1.32171E-001	-2.79346E-004	0.00000E+000	-3.69214E-005	-1.68088E-001	1.32201E-001	3.57790E+000	9	...........
	36	0.493333	1.28100E-001	-2.78632E-004	0.00000E+000	-3.56928E-005	-1.68088E-001	1.28128E-001	3.57790E+000	9	...........
	37	0.506667	1.24163E-001	-2.79414E-004	0.00000E+000	-3.46929E-005	-1.68088E-001	1.24189E-001	3.57790E+000	9	...........
	38	0.52	1.20358E-001	-2.78967E-004	0.00000E+000	-3.35758E-005	-1.68088E-001	1.20385E-001	3.57790E+000	9	...........
	39	0.533333	1.16674E-001	-2.78152E-004	0.00000E+000	-3.24532E-005	-1.68088E-001	1.16702E-001	3.57790E+000	9	...........
	40	0.546667	1.13055E-001	-2.78457E-004	0.00000E+000	-3.14809E-005	-1.68088E-001	1.13075E-001	3.57790E+000	9	...........
	41	0.56	1.09448E-001	-2.77825E-004	0.00000E+000	-3.04075E-005	-1.68088E-001	1.09474E-001	3.57790E+000	9	...........
	42	0.573333	1.05982E-001	-2.79554E-004	0.00000E+000	-2.96276E-005	-1.68088E-001	1.06006E-001	3.57790E+000	9	...........
	43	0.586667	1.02616E-001	-2.79116E-004	0.00000E+000	-2.86418E-005	-1.68088E-001	1.02642E-001	3.57790E+000	9	...........
	44	0.6	9.93346E-002	-2.78294E-004	0.00000E+000	-2.76442E-005	-1.68088E-001	9.93567E-002	3.57790E+000	9	...........
	45	0.613333	9.60971E-002	-2.78950E-004	0.00000E+000	-2.68063E-005	-1.68088E-001	9.61224E-002	3.57790E+000	9	...........
	46	0.626667	9.29338E-002	-2.79174E-004	0.00000E+000	-2.59447E-005	-1.68088E-001	9.29561E-002	3.57790E+000	9	...........
	47	0.64	8.97846E-002	-2.78676E-004	0.00000E+000	-2.50208E-005	-1.68088E-001	8.98043E-002	3.57790E+000	9	...........
	48	0.653333	8.67588E-002	-2.78836E-004	0.00000E+000	-2.41915E-005	-1.68088E-001	8.67872E-002	3.57790E+000	9	...........
	49	0.666667	8.37737E-002	-2.78084E-004	0.00000E+000	-2.32961E-005	-1.68088E-001	8.37908E-002	3.57790E+000	9	...........
	50	0.68	8.07972E-002	-2.79637E-004	0.00000E+000	-2.25938E-005	-1.68088E-001	8.08170E-002	3.57790E+000	9	...........
	51	0.693333	7.78518E-002	-2.79618E-004	0.00000E+000	-2.17687E-005	-1.68088E-001	7.78668E-002	3.57790E+000	9	...........
	52	0.706667	7.49864E-002	-2.78735E-004	0.00000E+000	-2.09013E-005	-1.68088E-001	7.50004E-002	3.57790E+000	9	...........
	53	0.72	7.21177E-002	-2.79341E-004	0.00000E+000	-2.01454E-005	-1.68088E-001	7.21347E-002	3.57790E+000	9	...........
	54	0.733333	6.93522E-002	-2.78848E-004	0.00000E+000	-1.93387E-005	-1.68088E-001	6.93666E-002	3.57790E+000	9	...........
	55	0.746667	6.66345E-002	-2.78823E-004	0.00000E+000	-1.85792E-005	-1.68088E-001	6.66469E-002	3.57790E+000	9	...........
	56	0.76	6.39368E-002	-2.78871E-004	0.00000E+000	-1.78301E-005	-1.68088E-001	6.39499E-002	3.57790E+000	9	...........
	57	0.773333	6.12484E-002	-2.78918E-004	0.00000E+000	-1.70832E-005	-1.68088E-001	6.12639E-002	3.57917E+000	9	...........
	58	0.786667	5.86385E-002	-2.78978E-004	0.00000E+000	-1.63588E-005	-1.68088E-001	5.86533E-002	3.57930E+000	9	...........
	59	0.8	5.60719E-002	-2.79205E-004	0.00000E+000	-1.56556E-005	-1.68088E-001	5.60828E-002	3.57930E+000	9	...........
	60	0.813333	5.35460E-002	-2.78599E-004	0.00000E+000	-1.49179E-005	-1.68088E-001	5.35589E-002	3.57930E+000	9	...........
	61	0.826667	5.10502E-002	-2.78771E-004	0.00000E+000	-1.42313E-005	-1.68088E-001	5.10587E-002	3.57930E+000	9	...........
	62	0.84	4.86097E-002	-2.79449E-004	0.00000E+000	-1.35839E-005	-1.68088E-001	4.86131E-002	3.57930E+000	9	...........
	63	0.853333	4.61413E-002	-2.77822E-004	0.00000E+000	-1.28191E-005	-1.68088E-001	4.61504E-002	3.57930E+000	9	...........
	64	0.866667	4.36520E-002	-2.78633E-004	0.00000E+000	-1.21629E-005	-1.68088E-001	4.36579E-002	3.57930E+000	9	...........
	65	0.88	4.11827E-002	-2.78964E-004	0.00000E+000	-1.14885E-005	-1.68088E-001	4.11891E-002	3.57930E+000	9	...........
	66	0.893333	3.87940E-002	-2.78749E-004	0.00000E+000	-1.08138E-005	-1.68088E-001	3.88002E-002	3.57930E+000	9	...........
	67	0.906667	3.64007E-002	-2.78209E-004	0.00000E+000	-1.01270E-005	-1.68088E-001	3.64062E-002	3.57930E+000	9	...........
	68	0.92	3.40147E-002	-2.78286E-004	0.00000E+000	-9.46583E-006	-1.68088E-001	3.40155E-002	3.57930E+000	9	...........
	69	0.933333	3.16696E-002	-2.78168E-004	0.00000E+000	-8.80945E-006	-1.68088E-001	3.16686E-002	3.57930E+000	9	...........
	70	0.946667	2.93504E-002	-2.78314E-004	0.00000E+000	-8.16865E-006	-1.68088E-001	2.93505E-002	3.57930E+000	9	...........
	71	0.96	2.70376E-002	-2.78670E-004	0.00000E+000	-7.53455E-006	-1.68088E-001	2.70343E-002	3.57930E+000	9	...........
	72	0.97333	2.47599E-002	-2.78069E-004	0.00000E+000	-6.88494E-006	-1.68088E-001	2.47605E-002	3.57930E+000	9	...........
	73	0.98667	2.24578E-002	-2.78845E-004	0.00000E+000	-6.26225E-006	-1.68088E-001	2.24513E-002	3.57930E+000	9	...........
	74	1	2.02126E-002	-2.78760E-004	0.00000E+000	-5.63447E-006	-1.68088E-001	2.01987E-002	3.57930E+000	9	...........
	75	1.01333	1.80099E-002	-2.78937E-004	0.00000E+000	-5.02363E-006	-1.68088E-001	1.80040E-002	3.57930E+000	9	...........
	76	1.02667	1.58336E-002	-2.78935E-004	0.00000E+000	-4.41654E-006	-1.68088E-001	1.58193E-002	3.57930E+000	9	...........
	77	1.04	1.36330E-002	-2.78179E-004	0.00000E+000	-3.79241E-006	-1.68088E-001	1.36196E-002	3.57930E+000	9	...........
	78	1.05333	1.14841E-002	-2.79126E-004	0.00000E+000	-3.20551E-006	-1.68088E-001	1.14703E-002	3.57930E+000	9	...........
	79	1.06667	9.29841E-003	-2.78750E-004	0.00000E+000	-2.59193E-006	-1.68088E-001	9.28606E-003	3.57930E+000	9	...........
	80	1.08	7.15435E-003	-2.78898E-004	0.00000E+000	-1.99533E-006	-1.68088E-001	7.13720E-003	3.57930E+000	9	...........
	81	1.09333	5.04456E-003	-2.78395E-004	0.00000E+000	-1.40438E-006	-1.68088E-001	5.02674E-003	3.57930E+000	9	...........
	82	1.10667	2.93435E-003	-2.78530E-004	0.00000E+000	-8.17305E-007	-1.68088E-001	2.91659E-003	3.57930E+000	9	...........
	83	1.12	8.75994E-004	-2.78232E-004	0.00000E+000	-2.43730E-007	-1.68088E-001	8.57558E-004	3.57930E+000	9	...........
STARTTIMEOFFSET	QUANT	783.2535	Start Time Offset (s)
