EXPLAIN
TAG	PWR800_DISCHARGE
TITLE	LABEL	PWR Cyclic Charge Discharge (Cell) - Discharge Step	Test &Identifier
DATE	LABEL	7-7-2017	Date
TIME	LABEL	16:09:22	Time
NOTES	NOTES	3	&Notes...
	supercap test cell
	2.8mg
	6M KOH
PSTAT	PSTAT	IFC5000-01520	Potentiostat
CAPACITY	QUANT	1.00000E-003	Capacity (A-hr)
CELLTYPE	SELECTOR	1	&Cell Type
WORKINGCONNECTION	SELECTOR	0	&Working Lead
MAXDISCHARGETIME	VARIABLEANDUNITS	1.00000E+002	s	1.00000E+002	second(s)	Max &Discharge Time
DISCHARGEMODE	MULTIPARAM	0	2.80000E-004	&Discharge Mode	Constant Current	Amp(s)
SAMPLETIME	QUANT	1.00000E-002	Sa&mple Period (s)
DISCHARGESTOPAT1	MULTIPARAM	3	0.00000E+000	Discharge Stop At &1	Voltage < Limit	V
DISCHARGESTOPAT2	MULTIPARAM	0	0.00000E+000	Discharge Stop At &2	None	N/A
AESBHCSELECTOR	TOGGLE	F	Save Both Half Cells
IRCOMP	TOGGLE	F	IR &Measure
EOC	QUANT	0	Open Circuit (V)
SEQUENCER	TOGGLE	TRUE	Run as Sequence
PSTATMODEL	IQUANT	53	Pstat Model
PSTATSECTION	LABEL	IFC5000-01520	Pstat Section
PSTATSERIALNO	LABEL	01520	Pstat Serial Number
CTRLMODE	IQUANT	0	Control Mode
ELECTROMETER	IQUANT	1	RE=0 or CS=1
IESTAB	IQUANT	0	I/E Stability
CASPEED	IQUANT	4	Control Amp Speed
CONVENTION	IQUANT	1	Current Convention
ICHRANGE	IQUANT	2	Ich Range
ICHRANGEMODE	TOGGLE	T	Ich Auto Range
ICHOFFSETENABLE	TOGGLE	F	Ich Offset Enable
ICHOFFSET	QUANT	0	Ich Offset (V)
ICHFILTER	IQUANT	1	Ich Filter
VCHRANGE	IQUANT	2	Vch Range
VCHRANGEMODE	TOGGLE	T	Vch Auto Range
VCHOFFSETENABLE	TOGGLE	F	Vch Offset Enable
VCHOFFSET	QUANT	0	Vch Offset (V)
VCHFILTER	IQUANT	1	Vch Filter
IERANGELOWERLIMIT	IQUANT	9	I/E Range Lower Limit
IERANGEMODE	TOGGLE	F	I/E AutoRange
IERANGE	IQUANT	9	I/E Range
ACHSELECT	IQUANT	1	Ach Select
ACHRANGE	IQUANT	2	Ach Range
ACHOFFSETENABLE	TOGGLE	F	Ach Offset Enable
ACHOFFSET	QUANT	0	Ach Offset (V)
ACHFILTER	IQUANT	1	Ach Filter
CABLEID	IQUANT	14	Cable ID
DCCALDATE	LABEL	5-7-2017	DC Calibration Date
ACCALDATE	LABEL	12/3/2015	AC Calibration Date
FRAMEWORKVERSION	QUANT	7.01	Framework Version
INSTRUMENTVERSION	LABEL	4.00	Instrument Version
CURVE	TABLE	62
	Pt	T	Vf	Im	Vu	Pwr	Sig	Ach	Temp	IERange	Over
	#	s	V	A	V	W	V	V	deg C	#	bits
	0	0.013333	5.29272E-001	-2.78319E-004	0.00000E+000	-1.47306E-004	-1.68088E-001	5.29515E-001	3.57960E+000	9	...........
	1	0.026667	4.96094E-001	-2.78161E-004	0.00000E+000	-1.37994E-004	-1.68088E-001	4.96325E-001	3.57960E+000	9	...........
	2	0.04	4.65964E-001	-2.78178E-004	0.00000E+000	-1.29621E-004	-1.68088E-001	4.66080E-001	3.57960E+000	9	...........
	3	0.053333	4.37675E-001	-2.77687E-004	0.00000E+000	-1.21537E-004	-1.68088E-001	4.37786E-001	3.57960E+000	9	...........
	4	0.066667	4.11288E-001	-2.77897E-004	0.00000E+000	-1.14295E-004	-1.68088E-001	4.11381E-001	3.57960E+000	9	...........
	5	0.08	3.86630E-001	-2.78613E-004	0.00000E+000	-1.07720E-004	-1.68088E-001	3.86719E-001	3.57960E+000	9	...........
	6	0.093333	3.63622E-001	-2.78118E-004	0.00000E+000	-1.01130E-004	-1.68088E-001	3.63712E-001	3.57960E+000	9	...........
	7	0.106667	3.42165E-001	-2.77524E-004	0.00000E+000	-9.49590E-005	-1.68088E-001	3.42246E-001	3.57960E+000	9	...........
	8	0.12	3.22156E-001	-2.77640E-004	0.00000E+000	-8.94435E-005	-1.68088E-001	3.22229E-001	3.57960E+000	9	...........
	9	0.133333	3.03529E-001	-2.78960E-004	0.00000E+000	-8.46726E-005	-1.68088E-001	3.03604E-001	3.57960E+000	9	...........
	10	0.146667	2.86234E-001	-2.79545E-004	0.00000E+000	-8.00152E-005	-1.68088E-001	2.86305E-001	3.57960E+000	9	...........
	11	0.16	2.70137E-001	-2.78506E-004	0.00000E+000	-7.52347E-005	-1.68088E-001	2.70210E-001	3.57960E+000	9	...........
	12	0.173333	2.55182E-001	-2.78549E-004	0.00000E+000	-7.10807E-005	-1.68088E-001	2.55250E-001	3.57960E+000	9	...........
	13	0.186667	2.41315E-001	-2.78929E-004	0.00000E+000	-6.73098E-005	-1.68088E-001	2.41375E-001	3.57960E+000	9	...........
	14	0.2	2.28482E-001	-2.78265E-004	0.00000E+000	-6.35785E-005	-1.68088E-001	2.28536E-001	3.57960E+000	9	...........
	15	0.213333	2.16545E-001	-2.79057E-004	0.00000E+000	-6.04283E-005	-1.68088E-001	2.16597E-001	3.57960E+000	9	...........
	16	0.226667	2.05427E-001	-2.78734E-004	0.00000E+000	-5.72594E-005	-1.68088E-001	2.05479E-001	3.57960E+000	9	...........
	17	0.24	1.95040E-001	-2.78397E-004	0.00000E+000	-5.42984E-005	-1.68088E-001	1.95093E-001	3.57960E+000	9	...........
	18	0.253333	1.85284E-001	-2.77254E-004	0.00000E+000	-5.13707E-005	-1.68088E-001	1.85331E-001	3.57960E+000	9	...........
	19	0.266667	1.76180E-001	-2.80133E-004	0.00000E+000	-4.93536E-005	-1.68088E-001	1.76224E-001	3.57960E+000	9	...........
	20	0.28	1.67663E-001	-2.79534E-004	0.00000E+000	-4.68675E-005	-1.68088E-001	1.67704E-001	3.57960E+000	9	...........
	21	0.293333	1.59670E-001	-2.79538E-004	0.00000E+000	-4.46339E-005	-1.68088E-001	1.59707E-001	3.57960E+000	9	...........
	22	0.306667	1.52110E-001	-2.77771E-004	0.00000E+000	-4.22517E-005	-1.68088E-001	1.52145E-001	3.57960E+000	9	...........
	23	0.32	1.44970E-001	-2.79311E-004	0.00000E+000	-4.04919E-005	-1.68088E-001	1.45006E-001	3.57787E+000	9	...........
	24	0.333333	1.38214E-001	-2.77999E-004	0.00000E+000	-3.84233E-005	-1.68088E-001	1.38246E-001	3.57730E+000	9	...........
	25	0.346667	1.31785E-001	-2.78680E-004	0.00000E+000	-3.67258E-005	-1.68088E-001	1.31817E-001	3.57730E+000	9	...........
	26	0.36	1.25693E-001	-2.79288E-004	0.00000E+000	-3.51046E-005	-1.68088E-001	1.25724E-001	3.57730E+000	9	...........
	27	0.373333	1.19895E-001	-2.78982E-004	0.00000E+000	-3.34486E-005	-1.68088E-001	1.19925E-001	3.57730E+000	9	...........
	28	0.386667	1.14325E-001	-2.78633E-004	0.00000E+000	-3.18547E-005	-1.68088E-001	1.14355E-001	3.57730E+000	9	...........
	29	0.4	1.09044E-001	-2.78949E-004	0.00000E+000	-3.04177E-005	-1.68088E-001	1.09073E-001	3.57730E+000	9	...........
	30	0.413333	1.03986E-001	-2.78009E-004	0.00000E+000	-2.89090E-005	-1.68088E-001	1.04015E-001	3.57730E+000	9	...........
	31	0.426667	9.91191E-002	-2.78728E-004	0.00000E+000	-2.76273E-005	-1.68088E-001	9.91428E-002	3.57730E+000	9	...........
	32	0.44	9.44332E-002	-2.78097E-004	0.00000E+000	-2.62616E-005	-1.68088E-001	9.44545E-002	3.57730E+000	9	...........
	33	0.453333	8.99164E-002	-2.79715E-004	0.00000E+000	-2.51509E-005	-1.68088E-001	8.99384E-002	3.57730E+000	9	...........
	34	0.466667	8.55447E-002	-2.78499E-004	0.00000E+000	-2.38241E-005	-1.68088E-001	8.55698E-002	3.57730E+000	9	...........
	35	0.48	8.13300E-002	-2.77853E-004	0.00000E+000	-2.25978E-005	-1.68088E-001	8.13522E-002	3.57730E+000	9	...........
	36	0.493333	7.72579E-002	-2.78353E-004	0.00000E+000	-2.15050E-005	-1.68088E-001	7.72726E-002	3.57730E+000	9	...........
	37	0.506667	7.32513E-002	-2.78772E-004	0.00000E+000	-2.04204E-005	-1.68088E-001	7.32698E-002	3.57730E+000	9	...........
	38	0.52	6.93338E-002	-2.79436E-004	0.00000E+000	-1.93743E-005	-1.68088E-001	6.93496E-002	3.57730E+000	9	...........
	39	0.533333	6.55538E-002	-2.78879E-004	0.00000E+000	-1.82816E-005	-1.68088E-001	6.55656E-002	3.57730E+000	9	...........
	40	0.546667	6.18893E-002	-2.80164E-004	0.00000E+000	-1.73391E-005	-1.68088E-001	6.18970E-002	3.57730E+000	9	...........
	41	0.56	5.83066E-002	-2.78244E-004	0.00000E+000	-1.62234E-005	-1.68088E-001	5.83112E-002	3.57730E+000	9	...........
	42	0.573333	5.48030E-002	-2.78733E-004	0.00000E+000	-1.52754E-005	-1.68088E-001	5.48168E-002	3.57730E+000	9	...........
	43	0.586667	5.13952E-002	-2.77937E-004	0.00000E+000	-1.42846E-005	-1.68088E-001	5.14025E-002	3.57730E+000	9	...........
	44	0.6	4.80811E-002	-2.78240E-004	0.00000E+000	-1.33781E-005	-1.68088E-001	4.80866E-002	3.57730E+000	9	...........
	45	0.613333	4.48315E-002	-2.78942E-004	0.00000E+000	-1.25054E-005	-1.68088E-001	4.48357E-002	3.57730E+000	9	...........
	46	0.626667	4.16559E-002	-2.79366E-004	0.00000E+000	-1.16372E-005	-1.68088E-001	4.16650E-002	3.57730E+000	9	...........
	47	0.64	3.85408E-002	-2.79069E-004	0.00000E+000	-1.07555E-005	-1.68088E-001	3.85525E-002	3.57730E+000	9	...........
	48	0.653333	3.54783E-002	-2.79601E-004	0.00000E+000	-9.91976E-006	-1.68088E-001	3.54839E-002	3.57730E+000	9	...........
	49	0.666667	3.24430E-002	-2.77875E-004	0.00000E+000	-9.01510E-006	-1.68088E-001	3.24489E-002	3.57730E+000	9	...........
	50	0.68	2.94481E-002	-2.79395E-004	0.00000E+000	-8.22765E-006	-1.68088E-001	2.94520E-002	3.57730E+000	9	...........
	51	0.693333	2.65276E-002	-2.78078E-004	0.00000E+000	-7.37673E-006	-1.68088E-001	2.65279E-002	3.57730E+000	9	...........
	52	0.706667	2.35981E-002	-2.78597E-004	0.00000E+000	-6.57436E-006	-1.68088E-001	2.35956E-002	3.57730E+000	9	...........
	53	0.72	2.07512E-002	-2.78189E-004	0.00000E+000	-5.77277E-006	-1.68088E-001	2.07506E-002	3.57730E+000	9	...........
	54	0.733333	1.79791E-002	-2.78330E-004	0.00000E+000	-5.00411E-006	-1.68088E-001	1.79764E-002	3.57730E+000	9	...........
	55	0.746667	1.52192E-002	-2.78971E-004	0.00000E+000	-4.24570E-006	-1.68088E-001	1.52121E-002	3.57730E+000	9	...........
	56	0.76	1.25210E-002	-2.79768E-004	0.00000E+000	-3.50296E-006	-1.68088E-001	1.25151E-002	3.57730E+000	9	...........
	57	0.773333	9.90499E-003	-2.78350E-004	0.00000E+000	-2.75705E-006	-1.68088E-001	9.89321E-003	3.57730E+000	9	...........
	58	0.786667	7.27080E-003	-2.77853E-004	0.00000E+000	-2.02021E-006	-1.68088E-001	7.25521E-003	3.57730E+000	9	...........
	59	0.8	4.69504E-003	-2.79097E-004	0.00000E+000	-1.31037E-006	-1.68088E-001	4.68641E-003	3.57730E+000	9	...........
	60	0.813333	2.13629E-003	-2.79089E-004	0.00000E+000	-5.96215E-007	-1.68088E-001	2.12430E-003	3.57730E+000	9	...........
	61	0.82	2.41907E-004	-2.78358E-004	0.00000E+000	-6.73369E-008	-1.68088E-001	2.22500E-004	3.57730E+000	9	...........
STARTTIMEOFFSET	QUANT	1499.807	Start Time Offset (s)
