EXPLAIN
TAG	PWR800_DISCHARGE
TITLE	LABEL	PWR Cyclic Charge Discharge (Cell) - Discharge Step	Test &Identifier
DATE	LABEL	7-7-2017	Date
TIME	LABEL	16:00:24	Time
NOTES	NOTES	3	&Notes...
	supercap test cell
	2.8mg
	6M KOH
PSTAT	PSTAT	IFC5000-01520	Potentiostat
CAPACITY	QUANT	1.00000E-003	Capacity (A-hr)
CELLTYPE	SELECTOR	1	&Cell Type
WORKINGCONNECTION	SELECTOR	0	&Working Lead
MAXDISCHARGETIME	VARIABLEANDUNITS	1.00000E+002	s	1.00000E+002	second(s)	Max &Discharge Time
DISCHARGEMODE	MULTIPARAM	0	2.80000E-004	&Discharge Mode	Constant Current	Amp(s)
SAMPLETIME	QUANT	1.00000E-002	Sa&mple Period (s)
DISCHARGESTOPAT1	MULTIPARAM	3	0.00000E+000	Discharge Stop At &1	Voltage < Limit	V
DISCHARGESTOPAT2	MULTIPARAM	0	0.00000E+000	Discharge Stop At &2	None	N/A
AESBHCSELECTOR	TOGGLE	F	Save Both Half Cells
IRCOMP	TOGGLE	F	IR &Measure
EOC	QUANT	0	Open Circuit (V)
SEQUENCER	TOGGLE	TRUE	Run as Sequence
PSTATMODEL	IQUANT	53	Pstat Model
PSTATSECTION	LABEL	IFC5000-01520	Pstat Section
PSTATSERIALNO	LABEL	01520	Pstat Serial Number
CTRLMODE	IQUANT	0	Control Mode
ELECTROMETER	IQUANT	1	RE=0 or CS=1
IESTAB	IQUANT	0	I/E Stability
CASPEED	IQUANT	4	Control Amp Speed
CONVENTION	IQUANT	1	Current Convention
ICHRANGE	IQUANT	2	Ich Range
ICHRANGEMODE	TOGGLE	T	Ich Auto Range
ICHOFFSETENABLE	TOGGLE	F	Ich Offset Enable
ICHOFFSET	QUANT	0	Ich Offset (V)
ICHFILTER	IQUANT	1	Ich Filter
VCHRANGE	IQUANT	2	Vch Range
VCHRANGEMODE	TOGGLE	T	Vch Auto Range
VCHOFFSETENABLE	TOGGLE	F	Vch Offset Enable
VCHOFFSET	QUANT	0	Vch Offset (V)
VCHFILTER	IQUANT	1	Vch Filter
IERANGELOWERLIMIT	IQUANT	9	I/E Range Lower Limit
IERANGEMODE	TOGGLE	F	I/E AutoRange
IERANGE	IQUANT	9	I/E Range
ACHSELECT	IQUANT	1	Ach Select
ACHRANGE	IQUANT	2	Ach Range
ACHOFFSETENABLE	TOGGLE	F	Ach Offset Enable
ACHOFFSET	QUANT	0	Ach Offset (V)
ACHFILTER	IQUANT	1	Ach Filter
CABLEID	IQUANT	14	Cable ID
DCCALDATE	LABEL	5-7-2017	DC Calibration Date
ACCALDATE	LABEL	12/3/2015	AC Calibration Date
FRAMEWORKVERSION	QUANT	7.01	Framework Version
INSTRUMENTVERSION	LABEL	4.00	Instrument Version
CURVE	TABLE	70
	Pt	T	Vf	Im	Vu	Pwr	Sig	Ach	Temp	IERange	Over
	#	s	V	A	V	W	V	V	deg C	#	bits
	0	0.013333	5.25737E-001	-2.79532E-004	0.00000E+000	-1.46961E-004	-1.68088E-001	5.25911E-001	3.57820E+000	9	...........
	1	0.026667	4.93549E-001	-2.78724E-004	0.00000E+000	-1.37564E-004	-1.68088E-001	4.93733E-001	3.57820E+000	9	...........
	2	0.04	4.64462E-001	-2.79944E-004	0.00000E+000	-1.30023E-004	-1.68088E-001	4.64574E-001	3.57820E+000	9	...........
	3	0.053333	4.37339E-001	-2.79133E-004	0.00000E+000	-1.22076E-004	-1.68088E-001	4.37443E-001	3.57811E+000	9	...........
	4	0.066667	4.12160E-001	-2.77758E-004	0.00000E+000	-1.14481E-004	-1.68088E-001	4.12260E-001	3.57750E+000	9	...........
	5	0.08	3.88743E-001	-2.77979E-004	0.00000E+000	-1.08062E-004	-1.68088E-001	3.88831E-001	3.57750E+000	9	...........
	6	0.093333	3.66959E-001	-2.78370E-004	0.00000E+000	-1.02150E-004	-1.68088E-001	3.67051E-001	3.57750E+000	9	...........
	7	0.106667	3.46707E-001	-2.79314E-004	0.00000E+000	-9.68401E-005	-1.68088E-001	3.46797E-001	3.57750E+000	9	...........
	8	0.12	3.27900E-001	-2.77939E-004	0.00000E+000	-9.11364E-005	-1.68088E-001	3.27979E-001	3.57750E+000	9	...........
	9	0.133333	3.10416E-001	-2.79030E-004	0.00000E+000	-8.66155E-005	-1.68088E-001	3.10494E-001	3.57750E+000	9	...........
	10	0.146667	2.94190E-001	-2.79745E-004	0.00000E+000	-8.22983E-005	-1.68088E-001	2.94268E-001	3.57750E+000	9	...........
	11	0.16	2.79142E-001	-2.79305E-004	0.00000E+000	-7.79659E-005	-1.68088E-001	2.79213E-001	3.57750E+000	9	...........
	12	0.173333	2.65157E-001	-2.78634E-004	0.00000E+000	-7.38819E-005	-1.68088E-001	2.65227E-001	3.57750E+000	9	...........
	13	0.186667	2.52218E-001	-2.78364E-004	0.00000E+000	-7.02085E-005	-1.68088E-001	2.52284E-001	3.57750E+000	9	...........
	14	0.2	2.40162E-001	-2.78202E-004	0.00000E+000	-6.68135E-005	-1.68088E-001	2.40219E-001	3.57750E+000	9	...........
	15	0.213333	2.28928E-001	-2.77293E-004	0.00000E+000	-6.34802E-005	-1.68088E-001	2.28982E-001	3.57750E+000	9	...........
	16	0.226667	2.18447E-001	-2.77767E-004	0.00000E+000	-6.06774E-005	-1.68088E-001	2.18504E-001	3.57750E+000	9	...........
	17	0.24	2.08687E-001	-2.78996E-004	0.00000E+000	-5.82228E-005	-1.68088E-001	2.08735E-001	3.57750E+000	9	...........
	18	0.253333	1.99513E-001	-2.79012E-004	0.00000E+000	-5.56667E-005	-1.68088E-001	1.99566E-001	3.57750E+000	9	...........
	19	0.266667	1.90961E-001	-2.78477E-004	0.00000E+000	-5.31784E-005	-1.68088E-001	1.91004E-001	3.57750E+000	9	...........
	20	0.28	1.82891E-001	-2.80010E-004	0.00000E+000	-5.12112E-005	-1.68088E-001	1.82941E-001	3.57750E+000	9	...........
	21	0.293333	1.75276E-001	-2.78388E-004	0.00000E+000	-4.87949E-005	-1.68088E-001	1.75321E-001	3.57750E+000	9	...........
	22	0.306667	1.68105E-001	-2.79793E-004	0.00000E+000	-4.70345E-005	-1.68088E-001	1.68147E-001	3.57750E+000	9	...........
	23	0.32	1.61312E-001	-2.79339E-004	0.00000E+000	-4.50608E-005	-1.68088E-001	1.61351E-001	3.57750E+000	9	...........
	24	0.333333	1.54862E-001	-2.78510E-004	0.00000E+000	-4.31308E-005	-1.68088E-001	1.54899E-001	3.57750E+000	9	...........
	25	0.346667	1.48713E-001	-2.79673E-004	0.00000E+000	-4.15911E-005	-1.68088E-001	1.48750E-001	3.57750E+000	9	...........
	26	0.36	1.42871E-001	-2.78589E-004	0.00000E+000	-3.98025E-005	-1.68088E-001	1.42906E-001	3.57750E+000	9	...........
	27	0.373333	1.37303E-001	-2.79430E-004	0.00000E+000	-3.83665E-005	-1.68088E-001	1.37341E-001	3.57750E+000	9	...........
	28	0.386667	1.31981E-001	-2.78639E-004	0.00000E+000	-3.67752E-005	-1.68088E-001	1.32015E-001	3.57750E+000	9	...........
	29	0.4	1.26837E-001	-2.78375E-004	0.00000E+000	-3.53082E-005	-1.68088E-001	1.26866E-001	3.57750E+000	9	...........
	30	0.413333	1.21929E-001	-2.79458E-004	0.00000E+000	-3.40740E-005	-1.68088E-001	1.21961E-001	3.57750E+000	9	...........
	31	0.426667	1.17242E-001	-2.78958E-004	0.00000E+000	-3.27056E-005	-1.68088E-001	1.17276E-001	3.57750E+000	9	...........
	32	0.44	1.12676E-001	-2.79624E-004	0.00000E+000	-3.15070E-005	-1.68088E-001	1.12710E-001	3.57750E+000	9	...........
	33	0.453333	1.08270E-001	-2.79063E-004	0.00000E+000	-3.02141E-005	-1.68088E-001	1.08296E-001	3.57750E+000	9	...........
	34	0.466667	1.04000E-001	-2.79565E-004	0.00000E+000	-2.90747E-005	-1.68088E-001	1.04021E-001	3.57750E+000	9	...........
	35	0.48	9.98923E-002	-2.78183E-004	0.00000E+000	-2.77883E-005	-1.68088E-001	9.99141E-002	3.57750E+000	9	...........
	36	0.493333	9.59293E-002	-2.79248E-004	0.00000E+000	-2.67881E-005	-1.68088E-001	9.59473E-002	3.57750E+000	9	...........
	37	0.506667	9.20901E-002	-2.78411E-004	0.00000E+000	-2.56389E-005	-1.68088E-001	9.21117E-002	3.57750E+000	9	...........
	38	0.52	8.83509E-002	-2.79796E-004	0.00000E+000	-2.47202E-005	-1.68088E-001	8.83729E-002	3.57750E+000	9	...........
	39	0.533333	8.46823E-002	-2.78689E-004	0.00000E+000	-2.36001E-005	-1.68088E-001	8.47016E-002	3.57750E+000	9	...........
	40	0.546667	8.11100E-002	-2.79440E-004	0.00000E+000	-2.26653E-005	-1.68088E-001	8.11301E-002	3.57750E+000	9	...........
	41	0.56	7.75625E-002	-2.79267E-004	0.00000E+000	-2.16606E-005	-1.68088E-001	7.75778E-002	3.57750E+000	9	...........
	42	0.573333	7.41330E-002	-2.79623E-004	0.00000E+000	-2.07293E-005	-1.68088E-001	7.41493E-002	3.57750E+000	9	...........
	43	0.586667	7.07689E-002	-2.78696E-004	0.00000E+000	-1.97230E-005	-1.68088E-001	7.07873E-002	3.57750E+000	9	...........
	44	0.6	6.74951E-002	-2.79519E-004	0.00000E+000	-1.88661E-005	-1.68088E-001	6.75073E-002	3.57750E+000	9	...........
	45	0.613333	6.42740E-002	-2.77885E-004	0.00000E+000	-1.78608E-005	-1.68088E-001	6.42913E-002	3.57750E+000	9	...........
	46	0.626667	6.10991E-002	-2.78012E-004	0.00000E+000	-1.69863E-005	-1.68088E-001	6.11122E-002	3.57750E+000	9	...........
	47	0.64	5.79500E-002	-2.79407E-004	0.00000E+000	-1.61917E-005	-1.68088E-001	5.79643E-002	3.57750E+000	9	...........
	48	0.653333	5.48680E-002	-2.78848E-004	0.00000E+000	-1.52998E-005	-1.68088E-001	5.48825E-002	3.57750E+000	9	...........
	49	0.666667	5.18717E-002	-2.78939E-004	0.00000E+000	-1.44690E-005	-1.68088E-001	5.18854E-002	3.57750E+000	9	...........
	50	0.68	4.89602E-002	-2.79428E-004	0.00000E+000	-1.36809E-005	-1.68088E-001	4.89657E-002	3.57750E+000	9	...........
	51	0.693333	4.61293E-002	-2.78620E-004	0.00000E+000	-1.28525E-005	-1.68088E-001	4.61447E-002	3.57750E+000	9	...........
	52	0.706667	4.32956E-002	-2.78951E-004	0.00000E+000	-1.20774E-005	-1.68088E-001	4.33018E-002	3.57750E+000	9	...........
	53	0.72	4.05273E-002	-2.78623E-004	0.00000E+000	-1.12918E-005	-1.68088E-001	4.05373E-002	3.57750E+000	9	...........
	54	0.733333	3.77468E-002	-2.78333E-004	0.00000E+000	-1.05062E-005	-1.68088E-001	3.77533E-002	3.57750E+000	9	...........
	55	0.746667	3.50411E-002	-2.79007E-004	0.00000E+000	-9.77671E-006	-1.68088E-001	3.50455E-002	3.57750E+000	9	...........
	56	0.76	3.23670E-002	-2.79233E-004	0.00000E+000	-9.03794E-006	-1.68088E-001	3.23710E-002	3.57750E+000	9	...........
	57	0.773333	2.97075E-002	-2.78478E-004	0.00000E+000	-8.27289E-006	-1.68088E-001	2.97131E-002	3.57750E+000	9	...........
	58	0.786667	2.71077E-002	-2.79449E-004	0.00000E+000	-7.57521E-006	-1.68088E-001	2.70995E-002	3.57750E+000	9	...........
	59	0.8	2.45201E-002	-2.78197E-004	0.00000E+000	-6.82140E-006	-1.68088E-001	2.45183E-002	3.57750E+000	9	...........
	60	0.813333	2.19624E-002	-2.78139E-004	0.00000E+000	-6.10860E-006	-1.68088E-001	2.19631E-002	3.57750E+000	9	...........
	61	0.826667	1.94259E-002	-2.78917E-004	0.00000E+000	-5.41821E-006	-1.68088E-001	1.94217E-002	3.57750E+000	9	...........
	62	0.84	1.69412E-002	-2.77100E-004	0.00000E+000	-4.69441E-006	-1.68088E-001	1.69357E-002	3.57750E+000	9	...........
	63	0.853333	1.44483E-002	-2.79301E-004	0.00000E+000	-4.03542E-006	-1.68088E-001	1.44439E-002	3.57750E+000	9	...........
	64	0.866667	1.19494E-002	-2.78579E-004	0.00000E+000	-3.32886E-006	-1.68088E-001	1.19422E-002	3.57750E+000	9	...........
	65	0.88	9.48418E-003	-2.79785E-004	0.00000E+000	-2.65353E-006	-1.68088E-001	9.47582E-003	3.57750E+000	9	...........
	66	0.893333	7.10526E-003	-2.78305E-004	0.00000E+000	-1.97743E-006	-1.68088E-001	7.08976E-003	3.57750E+000	9	...........
	67	0.906667	4.73222E-003	-2.79199E-004	0.00000E+000	-1.32123E-006	-1.68088E-001	4.71685E-003	3.57750E+000	9	...........
	68	0.92	2.35858E-003	-2.78128E-004	0.00000E+000	-6.55986E-007	-1.68088E-001	2.34226E-003	3.57750E+000	9	...........
	69	0.928333	4.63176E-004	-2.79318E-004	0.00000E+000	-1.29373E-007	-1.68088E-001	4.45114E-004	3.57750E+000	9	...........
STARTTIMEOFFSET	QUANT	1125.983	Start Time Offset (s)
