EXPLAIN
TAG	PWR800_DISCHARGE
TITLE	LABEL	PWR Cyclic Charge Discharge (Cell) - Discharge Step	Test &Identifier
DATE	LABEL	7-7-2017	Date
TIME	LABEL	16:22:55	Time
NOTES	NOTES	3	&Notes...
	supercap test cell
	2.8mg
	6M KOH
PSTAT	PSTAT	IFC5000-01520	Potentiostat
CAPACITY	QUANT	1.00000E-003	Capacity (A-hr)
CELLTYPE	SELECTOR	1	&Cell Type
WORKINGCONNECTION	SELECTOR	0	&Working Lead
MAXDISCHARGETIME	VARIABLEANDUNITS	1.00000E+002	s	1.00000E+002	second(s)	Max &Discharge Time
DISCHARGEMODE	MULTIPARAM	0	2.80000E-004	&Discharge Mode	Constant Current	Amp(s)
SAMPLETIME	QUANT	1.00000E-002	Sa&mple Period (s)
DISCHARGESTOPAT1	MULTIPARAM	3	0.00000E+000	Discharge Stop At &1	Voltage < Limit	V
DISCHARGESTOPAT2	MULTIPARAM	0	0.00000E+000	Discharge Stop At &2	None	N/A
AESBHCSELECTOR	TOGGLE	F	Save Both Half Cells
IRCOMP	TOGGLE	F	IR &Measure
EOC	QUANT	0	Open Circuit (V)
SEQUENCER	TOGGLE	TRUE	Run as Sequence
PSTATMODEL	IQUANT	53	Pstat Model
PSTATSECTION	LABEL	IFC5000-01520	Pstat Section
PSTATSERIALNO	LABEL	01520	Pstat Serial Number
CTRLMODE	IQUANT	0	Control Mode
ELECTROMETER	IQUANT	1	RE=0 or CS=1
IESTAB	IQUANT	0	I/E Stability
CASPEED	IQUANT	4	Control Amp Speed
CONVENTION	IQUANT	1	Current Convention
ICHRANGE	IQUANT	2	Ich Range
ICHRANGEMODE	TOGGLE	T	Ich Auto Range
ICHOFFSETENABLE	TOGGLE	F	Ich Offset Enable
ICHOFFSET	QUANT	0	Ich Offset (V)
ICHFILTER	IQUANT	1	Ich Filter
VCHRANGE	IQUANT	2	Vch Range
VCHRANGEMODE	TOGGLE	T	Vch Auto Range
VCHOFFSETENABLE	TOGGLE	F	Vch Offset Enable
VCHOFFSET	QUANT	0	Vch Offset (V)
VCHFILTER	IQUANT	1	Vch Filter
IERANGELOWERLIMIT	IQUANT	9	I/E Range Lower Limit
IERANGEMODE	TOGGLE	F	I/E AutoRange
IERANGE	IQUANT	9	I/E Range
ACHSELECT	IQUANT	1	Ach Select
ACHRANGE	IQUANT	2	Ach Range
ACHOFFSETENABLE	TOGGLE	F	Ach Offset Enable
ACHOFFSET	QUANT	0	Ach Offset (V)
ACHFILTER	IQUANT	1	Ach Filter
CABLEID	IQUANT	14	Cable ID
DCCALDATE	LABEL	5-7-2017	DC Calibration Date
ACCALDATE	LABEL	12/3/2015	AC Calibration Date
FRAMEWORKVERSION	QUANT	7.01	Framework Version
INSTRUMENTVERSION	LABEL	4.00	Instrument Version
CURVE	TABLE	53
	Pt	T	Vf	Im	Vu	Pwr	Sig	Ach	Temp	IERange	Over
	#	s	V	A	V	W	V	V	deg C	#	bits
	0	0.013333	5.13920E-001	-2.77982E-004	0.00000E+000	-1.42861E-004	-1.68088E-001	5.14103E-001	3.57740E+000	9	...........
	1	0.026667	4.80112E-001	-2.78076E-004	0.00000E+000	-1.33508E-004	-1.68088E-001	4.80259E-001	3.57740E+000	9	...........
	2	0.04	4.49047E-001	-2.79293E-004	0.00000E+000	-1.25415E-004	-1.68088E-001	4.49146E-001	3.57740E+000	9	...........
	3	0.053333	4.20033E-001	-2.78816E-004	0.00000E+000	-1.17112E-004	-1.68088E-001	4.20124E-001	3.57740E+000	9	...........
	4	0.066667	3.92917E-001	-2.78100E-004	0.00000E+000	-1.09270E-004	-1.68088E-001	3.93001E-001	3.57740E+000	9	...........
	5	0.08	3.67560E-001	-2.78481E-004	0.00000E+000	-1.02358E-004	-1.68088E-001	3.67638E-001	3.57740E+000	9	...........
	6	0.093333	3.43862E-001	-2.77835E-004	0.00000E+000	-9.55371E-005	-1.68088E-001	3.43938E-001	3.57740E+000	9	...........
	7	0.106667	3.21714E-001	-2.78663E-004	0.00000E+000	-8.96500E-005	-1.68088E-001	3.21788E-001	3.57740E+000	9	...........
	8	0.12	3.01087E-001	-2.79945E-004	0.00000E+000	-8.42879E-005	-1.68088E-001	3.01162E-001	3.57740E+000	9	...........
	9	0.133333	2.81927E-001	-2.79468E-004	0.00000E+000	-7.87894E-005	-1.68088E-001	2.81994E-001	3.57740E+000	9	...........
	10	0.146667	2.64110E-001	-2.80271E-004	0.00000E+000	-7.40224E-005	-1.68088E-001	2.64174E-001	3.57740E+000	9	...........
	11	0.16	2.47550E-001	-2.78266E-004	0.00000E+000	-6.88849E-005	-1.68088E-001	2.47608E-001	3.57740E+000	9	...........
	12	0.173333	2.32202E-001	-2.79109E-004	0.00000E+000	-6.48099E-005	-1.68088E-001	2.32250E-001	3.57740E+000	9	...........
	13	0.186667	2.17975E-001	-2.78517E-004	0.00000E+000	-6.07096E-005	-1.68088E-001	2.18022E-001	3.57740E+000	9	...........
	14	0.2	2.04776E-001	-2.78676E-004	0.00000E+000	-5.70662E-005	-1.68088E-001	2.04821E-001	3.57740E+000	9	...........
	15	0.213333	1.92527E-001	-2.79056E-004	0.00000E+000	-5.37258E-005	-1.68088E-001	1.92570E-001	3.57740E+000	9	...........
	16	0.226667	1.81128E-001	-2.79133E-004	0.00000E+000	-5.05588E-005	-1.68088E-001	1.81170E-001	3.57740E+000	9	...........
	17	0.24	1.70495E-001	-2.78875E-004	0.00000E+000	-4.75469E-005	-1.68088E-001	1.70533E-001	3.57740E+000	9	...........
	18	0.253333	1.60615E-001	-2.78499E-004	0.00000E+000	-4.47312E-005	-1.68088E-001	1.60651E-001	3.57740E+000	9	...........
	19	0.266667	1.51361E-001	-2.79856E-004	0.00000E+000	-4.23595E-005	-1.68088E-001	1.51391E-001	3.57740E+000	9	...........
	20	0.28	1.42691E-001	-2.78849E-004	0.00000E+000	-3.97892E-005	-1.68088E-001	1.42719E-001	3.57740E+000	9	...........
	21	0.293333	1.34533E-001	-2.78936E-004	0.00000E+000	-3.75262E-005	-1.68088E-001	1.34563E-001	3.57740E+000	9	...........
	22	0.306667	1.26928E-001	-2.80213E-004	0.00000E+000	-3.55669E-005	-1.68088E-001	1.26954E-001	3.57740E+000	9	...........
	23	0.32	1.19700E-001	-2.78990E-004	0.00000E+000	-3.33951E-005	-1.68088E-001	1.19726E-001	3.57740E+000	9	...........
	24	0.333333	1.12850E-001	-2.79353E-004	0.00000E+000	-3.15251E-005	-1.68088E-001	1.12873E-001	3.57740E+000	9	...........
	25	0.346667	1.06372E-001	-2.79391E-004	0.00000E+000	-2.97193E-005	-1.68088E-001	1.06392E-001	3.57740E+000	9	...........
	26	0.36	1.00234E-001	-2.79266E-004	0.00000E+000	-2.79920E-005	-1.68088E-001	1.00254E-001	3.57740E+000	9	...........
	27	0.373333	9.43720E-002	-2.79611E-004	0.00000E+000	-2.63874E-005	-1.68088E-001	9.43899E-002	3.57740E+000	9	...........
	28	0.386667	8.87618E-002	-2.78021E-004	0.00000E+000	-2.46776E-005	-1.68088E-001	8.87799E-002	3.57740E+000	9	...........
	29	0.4	8.34248E-002	-2.79748E-004	0.00000E+000	-2.33379E-005	-1.68088E-001	8.34422E-002	3.57740E+000	9	...........
	30	0.413333	7.83399E-002	-2.78777E-004	0.00000E+000	-2.18394E-005	-1.68088E-001	7.83530E-002	3.57740E+000	9	...........
	31	0.426667	7.34841E-002	-2.79164E-004	0.00000E+000	-2.05141E-005	-1.68088E-001	7.34990E-002	3.57740E+000	9	...........
	32	0.44	6.87747E-002	-2.78219E-004	0.00000E+000	-1.91344E-005	-1.68088E-001	6.87830E-002	3.57740E+000	9	...........
	33	0.453333	6.42200E-002	-2.78871E-004	0.00000E+000	-1.79091E-005	-1.68088E-001	6.42287E-002	3.57740E+000	9	...........
	34	0.466667	5.98858E-002	-2.78245E-004	0.00000E+000	-1.66629E-005	-1.68088E-001	5.98940E-002	3.57740E+000	9	...........
	35	0.48	5.56886E-002	-2.78886E-004	0.00000E+000	-1.55308E-005	-1.68088E-001	5.57012E-002	3.57740E+000	9	...........
	36	0.493333	5.16175E-002	-2.79281E-004	0.00000E+000	-1.44158E-005	-1.68088E-001	5.16221E-002	3.57740E+000	9	...........
	37	0.506667	4.76744E-002	-2.79055E-004	0.00000E+000	-1.33038E-005	-1.68088E-001	4.76780E-002	3.57740E+000	9	...........
	38	0.52	4.38447E-002	-2.78982E-004	0.00000E+000	-1.22319E-005	-1.68088E-001	4.38561E-002	3.57740E+000	9	...........
	39	0.533333	4.00930E-002	-2.78536E-004	0.00000E+000	-1.11674E-005	-1.68088E-001	4.01008E-002	3.57740E+000	9	...........
	40	0.546667	3.64559E-002	-2.79321E-004	0.00000E+000	-1.01829E-005	-1.68088E-001	3.64584E-002	3.57740E+000	9	...........
	41	0.56	3.29474E-002	-2.77354E-004	0.00000E+000	-9.13809E-006	-1.68088E-001	3.29487E-002	3.57740E+000	9	...........
	42	0.573333	2.94873E-002	-2.80397E-004	0.00000E+000	-8.26817E-006	-1.68088E-001	2.94858E-002	3.57740E+000	9	...........
	43	0.586667	2.60956E-002	-2.78492E-004	0.00000E+000	-7.26740E-006	-1.68088E-001	2.60917E-002	3.57740E+000	9	...........
	44	0.6	2.27750E-002	-2.78546E-004	0.00000E+000	-6.34388E-006	-1.68088E-001	2.27722E-002	3.57740E+000	9	...........
	45	0.613333	1.94824E-002	-2.79735E-004	0.00000E+000	-5.44991E-006	-1.68088E-001	1.94757E-002	3.57740E+000	9	...........
	46	0.626667	1.62532E-002	-2.78322E-004	0.00000E+000	-4.52362E-006	-1.68088E-001	1.62484E-002	3.57740E+000	9	...........
	47	0.64	1.31384E-002	-2.79080E-004	0.00000E+000	-3.66667E-006	-1.68088E-001	1.31309E-002	3.57740E+000	9	...........
	48	0.653333	1.01015E-002	-2.78304E-004	0.00000E+000	-2.81130E-006	-1.68088E-001	1.00883E-002	3.57740E+000	9	...........
	49	0.666667	7.10598E-003	-2.78844E-004	0.00000E+000	-1.98146E-006	-1.68088E-001	7.08736E-003	3.57740E+000	9	...........
	50	0.68	4.16314E-003	-2.79285E-004	0.00000E+000	-1.16270E-006	-1.68088E-001	4.14631E-003	3.57740E+000	9	...........
	51	0.693333	1.30962E-003	-2.78557E-004	0.00000E+000	-3.64804E-007	-1.68088E-001	1.29048E-003	3.57740E+000	9	...........
	52	0.695	-2.82946E-004	-2.79648E-004	0.00000E+000	7.91253E-008	-1.68088E-001	-3.02926E-004	3.57740E+000	9	...........
STARTTIMEOFFSET	QUANT	2035.262	Start Time Offset (s)
