EXPLAIN
TAG	PWR800_DISCHARGE
TITLE	LABEL	PWR Cyclic Charge Discharge (Cell) - Discharge Step	Test &Identifier
DATE	LABEL	7-7-2017	Date
TIME	LABEL	15:40:16	Time
NOTES	NOTES	3	&Notes...
	supercap test cell
	2.8mg
	6M KOH
PSTAT	PSTAT	IFC5000-01520	Potentiostat
CAPACITY	QUANT	1.00000E-003	Capacity (A-hr)
CELLTYPE	SELECTOR	1	&Cell Type
WORKINGCONNECTION	SELECTOR	0	&Working Lead
MAXDISCHARGETIME	VARIABLEANDUNITS	1.00000E+002	s	1.00000E+002	second(s)	Max &Discharge Time
DISCHARGEMODE	MULTIPARAM	0	2.80000E-004	&Discharge Mode	Constant Current	Amp(s)
SAMPLETIME	QUANT	1.00000E-002	Sa&mple Period (s)
DISCHARGESTOPAT1	MULTIPARAM	3	0.00000E+000	Discharge Stop At &1	Voltage < Limit	V
DISCHARGESTOPAT2	MULTIPARAM	0	0.00000E+000	Discharge Stop At &2	None	N/A
AESBHCSELECTOR	TOGGLE	F	Save Both Half Cells
IRCOMP	TOGGLE	F	IR &Measure
EOC	QUANT	0	Open Circuit (V)
SEQUENCER	TOGGLE	TRUE	Run as Sequence
PSTATMODEL	IQUANT	53	Pstat Model
PSTATSECTION	LABEL	IFC5000-01520	Pstat Section
PSTATSERIALNO	LABEL	01520	Pstat Serial Number
CTRLMODE	IQUANT	0	Control Mode
ELECTROMETER	IQUANT	1	RE=0 or CS=1
IESTAB	IQUANT	0	I/E Stability
CASPEED	IQUANT	4	Control Amp Speed
CONVENTION	IQUANT	1	Current Convention
ICHRANGE	IQUANT	2	Ich Range
ICHRANGEMODE	TOGGLE	T	Ich Auto Range
ICHOFFSETENABLE	TOGGLE	F	Ich Offset Enable
ICHOFFSET	QUANT	0	Ich Offset (V)
ICHFILTER	IQUANT	1	Ich Filter
VCHRANGE	IQUANT	2	Vch Range
VCHRANGEMODE	TOGGLE	T	Vch Auto Range
VCHOFFSETENABLE	TOGGLE	F	Vch Offset Enable
VCHOFFSET	QUANT	0	Vch Offset (V)
VCHFILTER	IQUANT	1	Vch Filter
IERANGELOWERLIMIT	IQUANT	9	I/E Range Lower Limit
IERANGEMODE	TOGGLE	F	I/E AutoRange
IERANGE	IQUANT	9	I/E Range
ACHSELECT	IQUANT	1	Ach Select
ACHRANGE	IQUANT	2	Ach Range
ACHOFFSETENABLE	TOGGLE	F	Ach Offset Enable
ACHOFFSET	QUANT	0	Ach Offset (V)
ACHFILTER	IQUANT	1	Ach Filter
CABLEID	IQUANT	14	Cable ID
DCCALDATE	LABEL	5-7-2017	DC Calibration Date
ACCALDATE	LABEL	12/3/2015	AC Calibration Date
FRAMEWORKVERSION	QUANT	7.01	Framework Version
INSTRUMENTVERSION	LABEL	4.00	Instrument Version
CURVE	TABLE	132
	Pt	T	Vf	Im	Vu	Pwr	Sig	Ach	Temp	IERange	Over
	#	s	V	A	V	W	V	V	deg C	#	bits
	0	0.013333	5.79886E-001	-2.79545E-004	0.00000E+000	-1.62104E-004	-1.68088E-001	5.80166E-001	3.57810E+000	9	...........
	1	0.026667	5.52092E-001	-2.78716E-004	0.00000E+000	-1.53877E-004	-1.68088E-001	5.52365E-001	3.57810E+000	9	...........
	2	0.04	5.27195E-001	-2.79703E-004	0.00000E+000	-1.47458E-004	-1.68088E-001	5.27462E-001	3.57810E+000	9	...........
	3	0.053333	5.04552E-001	-2.78563E-004	0.00000E+000	-1.40550E-004	-1.68088E-001	5.04803E-001	3.57810E+000	9	...........
	4	0.066667	4.83962E-001	-2.78155E-004	0.00000E+000	-1.34616E-004	-1.68088E-001	4.84117E-001	3.57810E+000	9	...........
	5	0.08	4.65009E-001	-2.79856E-004	0.00000E+000	-1.30136E-004	-1.68088E-001	4.65122E-001	3.57810E+000	9	...........
	6	0.093333	4.47329E-001	-2.78921E-004	0.00000E+000	-1.24769E-004	-1.68088E-001	4.47436E-001	3.57810E+000	9	...........
	7	0.106667	4.30915E-001	-2.79139E-004	0.00000E+000	-1.20285E-004	-1.68088E-001	4.31023E-001	3.57810E+000	9	...........
	8	0.12	4.15683E-001	-2.78976E-004	0.00000E+000	-1.15966E-004	-1.68088E-001	4.15789E-001	3.57810E+000	9	...........
	9	0.133333	4.01517E-001	-2.79127E-004	0.00000E+000	-1.12074E-004	-1.68088E-001	4.01611E-001	3.57810E+000	9	...........
	10	0.146667	3.88291E-001	-2.78498E-004	0.00000E+000	-1.08138E-004	-1.68088E-001	3.88382E-001	3.57810E+000	9	...........
	11	0.16	3.75937E-001	-2.79562E-004	0.00000E+000	-1.05098E-004	-1.68088E-001	3.76021E-001	3.57810E+000	9	...........
	12	0.173333	3.64418E-001	-2.78358E-004	0.00000E+000	-1.01439E-004	-1.68088E-001	3.64502E-001	3.57810E+000	9	...........
	13	0.186667	3.53617E-001	-2.78712E-004	0.00000E+000	-9.85574E-005	-1.68088E-001	3.53696E-001	3.57810E+000	9	...........
	14	0.2	3.43478E-001	-2.78822E-004	0.00000E+000	-9.57692E-005	-1.68088E-001	3.43561E-001	3.57810E+000	9	...........
	15	0.213333	3.33974E-001	-2.78983E-004	0.00000E+000	-9.31731E-005	-1.68088E-001	3.34052E-001	3.57810E+000	9	...........
	16	0.226667	3.25033E-001	-2.79624E-004	0.00000E+000	-9.08870E-005	-1.68088E-001	3.25114E-001	3.57810E+000	9	...........
	17	0.24	3.16543E-001	-2.78813E-004	0.00000E+000	-8.82566E-005	-1.68088E-001	3.16620E-001	3.57810E+000	9	...........
	18	0.253333	3.08545E-001	-2.79153E-004	0.00000E+000	-8.61312E-005	-1.68088E-001	3.08622E-001	3.57810E+000	9	...........
	19	0.266667	3.00956E-001	-2.78876E-004	0.00000E+000	-8.39293E-005	-1.68088E-001	3.01031E-001	3.57810E+000	9	...........
	20	0.28	2.93766E-001	-2.77926E-004	0.00000E+000	-8.16452E-005	-1.68088E-001	2.93842E-001	3.57810E+000	9	...........
	21	0.293333	2.86963E-001	-2.78832E-004	0.00000E+000	-8.00147E-005	-1.68088E-001	2.87034E-001	3.57810E+000	9	...........
	22	0.306667	2.80467E-001	-2.79133E-004	0.00000E+000	-7.82876E-005	-1.68088E-001	2.80539E-001	3.57810E+000	9	...........
	23	0.32	2.74261E-001	-2.79575E-004	0.00000E+000	-7.66766E-005	-1.68088E-001	2.74326E-001	3.57810E+000	9	...........
	24	0.333333	2.68331E-001	-2.79194E-004	0.00000E+000	-7.49163E-005	-1.68088E-001	2.68398E-001	3.57810E+000	9	...........
	25	0.346667	2.62648E-001	-2.79211E-004	0.00000E+000	-7.33345E-005	-1.68088E-001	2.62718E-001	3.57810E+000	9	...........
	26	0.36	2.57215E-001	-2.79505E-004	0.00000E+000	-7.18929E-005	-1.68088E-001	2.57275E-001	3.57810E+000	9	...........
	27	0.373333	2.51999E-001	-2.78294E-004	0.00000E+000	-7.01298E-005	-1.68088E-001	2.52059E-001	3.57810E+000	9	...........
	28	0.386667	2.46949E-001	-2.79584E-004	0.00000E+000	-6.90432E-005	-1.68088E-001	2.47006E-001	3.57810E+000	9	...........
	29	0.4	2.42088E-001	-2.79169E-004	0.00000E+000	-6.75835E-005	-1.68088E-001	2.42151E-001	3.57810E+000	9	...........
	30	0.413333	2.37399E-001	-2.78854E-004	0.00000E+000	-6.61997E-005	-1.68088E-001	2.37452E-001	3.57810E+000	9	...........
	31	0.426667	2.32888E-001	-2.78813E-004	0.00000E+000	-6.49323E-005	-1.68088E-001	2.32938E-001	3.57810E+000	9	...........
	32	0.44	2.28508E-001	-2.79220E-004	0.00000E+000	-6.38038E-005	-1.68088E-001	2.28558E-001	3.57810E+000	9	...........
	33	0.453333	2.24242E-001	-2.78645E-004	0.00000E+000	-6.24839E-005	-1.68088E-001	2.24298E-001	3.57810E+000	9	...........
	34	0.466667	2.20045E-001	-2.78729E-004	0.00000E+000	-6.13331E-005	-1.68088E-001	2.20096E-001	3.57810E+000	9	...........
	35	0.48	2.16079E-001	-2.79058E-004	0.00000E+000	-6.02986E-005	-1.68088E-001	2.16129E-001	3.57810E+000	9	...........
	36	0.493333	2.12202E-001	-2.78141E-004	0.00000E+000	-5.90223E-005	-1.68088E-001	2.12252E-001	3.57810E+000	9	...........
	37	0.506667	2.08398E-001	-2.78787E-004	0.00000E+000	-5.80988E-005	-1.68088E-001	2.08453E-001	3.57810E+000	9	...........
	38	0.52	2.04727E-001	-2.78629E-004	0.00000E+000	-5.70429E-005	-1.68088E-001	2.04775E-001	3.57810E+000	9	...........
	39	0.533333	2.01127E-001	-2.78653E-004	0.00000E+000	-5.60445E-005	-1.68088E-001	2.01178E-001	3.57810E+000	9	...........
	40	0.546667	1.97622E-001	-2.79364E-004	0.00000E+000	-5.52083E-005	-1.68088E-001	1.97670E-001	3.57810E+000	9	...........
	41	0.56	1.94210E-001	-2.79607E-004	0.00000E+000	-5.43026E-005	-1.68088E-001	1.94256E-001	3.57810E+000	9	...........
	42	0.573333	1.90851E-001	-2.78000E-004	0.00000E+000	-5.30566E-005	-1.68088E-001	1.90906E-001	3.57810E+000	9	...........
	43	0.586667	1.87525E-001	-2.78489E-004	0.00000E+000	-5.22237E-005	-1.68088E-001	1.87567E-001	3.57810E+000	9	...........
	44	0.6	1.84268E-001	-2.79169E-004	0.00000E+000	-5.14418E-005	-1.68088E-001	1.84321E-001	3.57810E+000	9	...........
	45	0.613333	1.81086E-001	-2.79214E-004	0.00000E+000	-5.05617E-005	-1.68088E-001	1.81137E-001	3.57810E+000	9	...........
	46	0.626667	1.77966E-001	-2.79433E-004	0.00000E+000	-4.97296E-005	-1.68088E-001	1.78012E-001	3.57810E+000	9	...........
	47	0.64	1.74892E-001	-2.79677E-004	0.00000E+000	-4.89134E-005	-1.68088E-001	1.74938E-001	3.57810E+000	9	...........
	48	0.653333	1.71902E-001	-2.80204E-004	0.00000E+000	-4.81677E-005	-1.68088E-001	1.71947E-001	3.57810E+000	9	...........
	49	0.666667	1.68957E-001	-2.79582E-004	0.00000E+000	-4.72375E-005	-1.68088E-001	1.68998E-001	3.57810E+000	9	...........
	50	0.68	1.66040E-001	-2.78772E-004	0.00000E+000	-4.62873E-005	-1.68088E-001	1.66081E-001	3.57810E+000	9	...........
	51	0.693333	1.63180E-001	-2.78456E-004	0.00000E+000	-4.54383E-005	-1.68088E-001	1.63221E-001	3.57810E+000	9	...........
	52	0.706667	1.60378E-001	-2.78495E-004	0.00000E+000	-4.46644E-005	-1.68088E-001	1.60413E-001	3.57950E+000	9	...........
	53	0.72	1.57588E-001	-2.79541E-004	0.00000E+000	-4.40523E-005	-1.68088E-001	1.57627E-001	3.57950E+000	9	...........
	54	0.733333	1.54805E-001	-2.78813E-004	0.00000E+000	-4.31617E-005	-1.68088E-001	1.54842E-001	3.57950E+000	9	...........
	55	0.746667	1.52146E-001	-2.79366E-004	0.00000E+000	-4.25043E-005	-1.68088E-001	1.52184E-001	3.57950E+000	9	...........
	56	0.76	1.49476E-001	-2.78890E-004	0.00000E+000	-4.16873E-005	-1.68088E-001	1.49512E-001	3.57950E+000	9	...........
	57	0.773333	1.46880E-001	-2.79015E-004	0.00000E+000	-4.09815E-005	-1.68088E-001	1.46910E-001	3.57950E+000	9	...........
	58	0.786667	1.44269E-001	-2.79494E-004	0.00000E+000	-4.03222E-005	-1.68088E-001	1.44298E-001	3.57950E+000	9	...........
	59	0.8	1.41644E-001	-2.78511E-004	0.00000E+000	-3.94496E-005	-1.68088E-001	1.41681E-001	3.57950E+000	9	...........
	60	0.813333	1.39056E-001	-2.79124E-004	0.00000E+000	-3.88138E-005	-1.68088E-001	1.39086E-001	3.57950E+000	9	...........
	61	0.826667	1.36556E-001	-2.78945E-004	0.00000E+000	-3.80917E-005	-1.68088E-001	1.36584E-001	3.57950E+000	9	...........
	62	0.84	1.34086E-001	-2.78485E-004	0.00000E+000	-3.73410E-005	-1.68088E-001	1.34116E-001	3.57950E+000	9	...........
	63	0.853333	1.31613E-001	-2.78896E-004	0.00000E+000	-3.67064E-005	-1.68088E-001	1.31652E-001	3.57950E+000	9	...........
	64	0.866667	1.29188E-001	-2.78865E-004	0.00000E+000	-3.60261E-005	-1.68088E-001	1.29215E-001	3.57950E+000	9	...........
	65	0.88	1.26813E-001	-2.78010E-004	0.00000E+000	-3.52552E-005	-1.68088E-001	1.26836E-001	3.57950E+000	9	...........
	66	0.893333	1.24444E-001	-2.78800E-004	0.00000E+000	-3.46951E-005	-1.68088E-001	1.24475E-001	3.57950E+000	9	...........
	67	0.906667	1.22059E-001	-2.79258E-004	0.00000E+000	-3.40859E-005	-1.68088E-001	1.22093E-001	3.57950E+000	9	...........
	68	0.92	1.19703E-001	-2.77733E-004	0.00000E+000	-3.32455E-005	-1.68088E-001	1.19736E-001	3.57950E+000	9	...........
	69	0.933333	1.17411E-001	-2.79016E-004	0.00000E+000	-3.27596E-005	-1.68088E-001	1.17443E-001	3.57950E+000	9	...........
	70	0.946667	1.15124E-001	-2.78463E-004	0.00000E+000	-3.20578E-005	-1.68088E-001	1.15153E-001	3.57950E+000	9	...........
	71	0.96	1.12809E-001	-2.78624E-004	0.00000E+000	-3.14313E-005	-1.68088E-001	1.12837E-001	3.57950E+000	9	...........
	72	0.97333	1.10513E-001	-2.79280E-004	0.00000E+000	-3.08640E-005	-1.68088E-001	1.10541E-001	3.57950E+000	9	...........
	73	0.98667	1.08281E-001	-2.79380E-004	0.00000E+000	-3.02517E-005	-1.68088E-001	1.08309E-001	3.57950E+000	9	...........
	74	1	1.06097E-001	-2.78103E-004	0.00000E+000	-2.95058E-005	-1.68088E-001	1.06125E-001	3.57950E+000	9	...........
	75	1.01333	1.03923E-001	-2.78522E-004	0.00000E+000	-2.89449E-005	-1.68088E-001	1.03944E-001	3.57950E+000	9	...........
	76	1.02667	1.01737E-001	-2.78261E-004	0.00000E+000	-2.83095E-005	-1.68088E-001	1.01762E-001	3.57950E+000	9	...........
	77	1.04	9.96086E-002	-2.78976E-004	0.00000E+000	-2.77884E-005	-1.68088E-001	9.96375E-002	3.57950E+000	9	...........
	78	1.05333	9.75007E-002	-2.78413E-004	0.00000E+000	-2.71455E-005	-1.68088E-001	9.75305E-002	3.57950E+000	9	...........
	79	1.06667	9.54365E-002	-2.80146E-004	0.00000E+000	-2.67362E-005	-1.68088E-001	9.54565E-002	3.57950E+000	9	...........
	80	1.08	9.32658E-002	-2.79435E-004	0.00000E+000	-2.60618E-005	-1.68088E-001	9.32881E-002	3.57950E+000	9	...........
	81	1.09333	9.11081E-002	-2.78421E-004	0.00000E+000	-2.53664E-005	-1.68088E-001	9.11367E-002	3.57950E+000	9	...........
	82	1.10667	8.89564E-002	-2.79589E-004	0.00000E+000	-2.48712E-005	-1.68088E-001	8.89854E-002	3.57950E+000	9	...........
	83	1.12	8.68904E-002	-2.78402E-004	0.00000E+000	-2.41905E-005	-1.68088E-001	8.69173E-002	3.57950E+000	9	...........
	84	1.13333	8.48284E-002	-2.79380E-004	0.00000E+000	-2.36994E-005	-1.68088E-001	8.48474E-002	3.57950E+000	9	...........
	85	1.14667	8.28071E-002	-2.78657E-004	0.00000E+000	-2.30748E-005	-1.68088E-001	8.28307E-002	3.57950E+000	9	...........
	86	1.16	8.07769E-002	-2.78898E-004	0.00000E+000	-2.25285E-005	-1.68088E-001	8.07918E-002	3.57950E+000	9	...........
	87	1.17333	7.87600E-002	-2.78894E-004	0.00000E+000	-2.19657E-005	-1.68088E-001	7.87765E-002	3.57950E+000	9	...........
	88	1.18667	7.67672E-002	-2.78780E-004	0.00000E+000	-2.14012E-005	-1.68088E-001	7.67906E-002	3.57950E+000	9	...........
	89	1.2	7.48110E-002	-2.80126E-004	0.00000E+000	-2.09565E-005	-1.68088E-001	7.48240E-002	3.57950E+000	9	...........
	90	1.21333	7.28070E-002	-2.79281E-004	0.00000E+000	-2.03336E-005	-1.68088E-001	7.28217E-002	3.57950E+000	9	...........
	91	1.22667	7.07923E-002	-2.79686E-004	0.00000E+000	-1.97996E-005	-1.68088E-001	7.07995E-002	3.57950E+000	9	...........
	92	1.24	6.88667E-002	-2.79771E-004	0.00000E+000	-1.92669E-005	-1.68088E-001	6.88769E-002	3.57950E+000	9	...........
	93	1.25333	6.69421E-002	-2.79031E-004	0.00000E+000	-1.86789E-005	-1.68088E-001	6.69535E-002	3.57950E+000	9	...........
	94	1.26667	6.49760E-002	-2.79354E-004	0.00000E+000	-1.81513E-005	-1.68088E-001	6.49888E-002	3.57950E+000	9	...........
	95	1.28	6.29884E-002	-2.78672E-004	0.00000E+000	-1.75531E-005	-1.68088E-001	6.29965E-002	3.57950E+000	9	...........
	96	1.29333	6.10073E-002	-2.79452E-004	0.00000E+000	-1.70486E-005	-1.68088E-001	6.10169E-002	3.57950E+000	9	...........
	97	1.30667	5.91113E-002	-2.79318E-004	0.00000E+000	-1.65108E-005	-1.68088E-001	5.91175E-002	3.57950E+000	9	...........
	98	1.32	5.72220E-002	-2.78526E-004	0.00000E+000	-1.59378E-005	-1.68088E-001	5.72303E-002	3.57950E+000	9	...........
	99	1.33333	5.53275E-002	-2.78884E-004	0.00000E+000	-1.54300E-005	-1.68088E-001	5.53274E-002	3.57950E+000	9	...........
	100	1.34667	5.34641E-002	-2.78541E-004	0.00000E+000	-1.48919E-005	-1.68088E-001	5.34744E-002	3.57950E+000	9	...........
	101	1.36	5.15890E-002	-2.79131E-004	0.00000E+000	-1.44001E-005	-1.68088E-001	5.15957E-002	3.57950E+000	9	...........
	102	1.37333	4.96914E-002	-2.79328E-004	0.00000E+000	-1.38802E-005	-1.68088E-001	4.97003E-002	3.57950E+000	9	...........
	103	1.38667	4.78935E-002	-2.79071E-004	0.00000E+000	-1.33657E-005	-1.68088E-001	4.78955E-002	3.57950E+000	9	...........
	104	1.4	4.60900E-002	-2.79159E-004	0.00000E+000	-1.28665E-005	-1.68088E-001	4.61006E-002	3.57950E+000	9	...........
	105	1.41333	4.43251E-002	-2.79345E-004	0.00000E+000	-1.23820E-005	-1.68088E-001	4.43315E-002	3.57950E+000	9	...........
	106	1.42667	4.25164E-002	-2.78776E-004	0.00000E+000	-1.18525E-005	-1.68088E-001	4.25225E-002	3.57950E+000	9	...........
	107	1.44	4.06793E-002	-2.79231E-004	0.00000E+000	-1.13589E-005	-1.68088E-001	4.06826E-002	3.57950E+000	9	...........
	108	1.45333	3.88514E-002	-2.78948E-004	0.00000E+000	-1.08375E-005	-1.68088E-001	3.88536E-002	3.57950E+000	9	...........
	109	1.46667	3.70854E-002	-2.80060E-004	0.00000E+000	-1.03861E-005	-1.68088E-001	3.70903E-002	3.57950E+000	9	...........
	110	1.48	3.53156E-002	-2.79270E-004	0.00000E+000	-9.86259E-006	-1.68088E-001	3.53173E-002	3.57950E+000	9	...........
	111	1.49333	3.35795E-002	-2.78830E-004	0.00000E+000	-9.36298E-006	-1.68088E-001	3.35770E-002	3.57950E+000	9	...........
	112	1.50667	3.18137E-002	-2.78723E-004	0.00000E+000	-8.86720E-006	-1.68088E-001	3.18143E-002	3.57950E+000	9	...........
	113	1.52	3.00295E-002	-2.79559E-004	0.00000E+000	-8.39505E-006	-1.68088E-001	3.00267E-002	3.57950E+000	9	...........
	114	1.53333	2.82805E-002	-2.79944E-004	0.00000E+000	-7.91697E-006	-1.68088E-001	2.82782E-002	3.57950E+000	9	...........
	115	1.54667	2.65721E-002	-2.79046E-004	0.00000E+000	-7.41482E-006	-1.68088E-001	2.65688E-002	3.57950E+000	9	...........
	116	1.56	2.48099E-002	-2.79167E-004	0.00000E+000	-6.92610E-006	-1.68088E-001	2.48008E-002	3.57950E+000	9	...........
	117	1.57333	2.31382E-002	-2.79040E-004	0.00000E+000	-6.45646E-006	-1.68088E-001	2.31305E-002	3.57950E+000	9	...........
	118	1.58667	2.14488E-002	-2.79425E-004	0.00000E+000	-5.99333E-006	-1.68088E-001	2.14415E-002	3.57950E+000	9	...........
	119	1.6	1.97245E-002	-2.78974E-004	0.00000E+000	-5.50261E-006	-1.68088E-001	1.97177E-002	3.57950E+000	9	...........
	120	1.61333	1.80155E-002	-2.78947E-004	0.00000E+000	-5.02538E-006	-1.68088E-001	1.80098E-002	3.57950E+000	9	...........
	121	1.62667	1.63308E-002	-2.78647E-004	0.00000E+000	-4.55053E-006	-1.68088E-001	1.63198E-002	3.57950E+000	9	...........
	122	1.64	1.46263E-002	-2.79741E-004	0.00000E+000	-4.09156E-006	-1.68088E-001	1.46186E-002	3.57950E+000	9	...........
	123	1.65333	1.29569E-002	-2.79309E-004	0.00000E+000	-3.61898E-006	-1.68088E-001	1.29504E-002	3.57950E+000	9	...........
	124	1.66667	1.13203E-002	-2.78440E-004	0.00000E+000	-3.15203E-006	-1.68088E-001	1.13092E-002	3.57950E+000	9	...........
	125	1.68	9.70780E-003	-2.78704E-004	0.00000E+000	-2.70560E-006	-1.68088E-001	9.69307E-003	3.57950E+000	9	...........
	126	1.69333	8.07509E-003	-2.78580E-004	0.00000E+000	-2.24956E-006	-1.68088E-001	8.05959E-003	3.57950E+000	9	...........
	127	1.70667	6.44705E-003	-2.79407E-004	0.00000E+000	-1.80135E-006	-1.68088E-001	6.43042E-003	3.57840E+000	9	...........
	128	1.72	4.81515E-003	-2.78629E-004	0.00000E+000	-1.34164E-006	-1.68088E-001	4.79385E-003	3.57840E+000	9	...........
	129	1.73333	3.23805E-003	-2.78144E-004	0.00000E+000	-9.00642E-007	-1.68088E-001	3.21805E-003	3.57840E+000	9	...........
	130	1.74667	1.61291E-003	-2.78820E-004	0.00000E+000	-4.49710E-007	-1.68088E-001	1.58910E-003	3.57840E+000	9	...........
	131	1.755	3.12590E-004	-2.78840E-004	0.00000E+000	-8.71625E-008	-1.68088E-001	2.92306E-004	3.57840E+000	9	...........
STARTTIMEOFFSET	QUANT	214.8067	Start Time Offset (s)
