EXPLAIN
TAG	PWR800_DISCHARGE
TITLE	LABEL	PWR Cyclic Charge Discharge (Cell) - Discharge Step	Test &Identifier
DATE	LABEL	7-7-2017	Date
TIME	LABEL	16:13:08	Time
NOTES	NOTES	3	&Notes...
	supercap test cell
	2.8mg
	6M KOH
PSTAT	PSTAT	IFC5000-01520	Potentiostat
CAPACITY	QUANT	1.00000E-003	Capacity (A-hr)
CELLTYPE	SELECTOR	1	&Cell Type
WORKINGCONNECTION	SELECTOR	0	&Working Lead
MAXDISCHARGETIME	VARIABLEANDUNITS	1.00000E+002	s	1.00000E+002	second(s)	Max &Discharge Time
DISCHARGEMODE	MULTIPARAM	0	2.80000E-004	&Discharge Mode	Constant Current	Amp(s)
SAMPLETIME	QUANT	1.00000E-002	Sa&mple Period (s)
DISCHARGESTOPAT1	MULTIPARAM	3	0.00000E+000	Discharge Stop At &1	Voltage < Limit	V
DISCHARGESTOPAT2	MULTIPARAM	0	0.00000E+000	Discharge Stop At &2	None	N/A
AESBHCSELECTOR	TOGGLE	F	Save Both Half Cells
IRCOMP	TOGGLE	F	IR &Measure
EOC	QUANT	0	Open Circuit (V)
SEQUENCER	TOGGLE	TRUE	Run as Sequence
PSTATMODEL	IQUANT	53	Pstat Model
PSTATSECTION	LABEL	IFC5000-01520	Pstat Section
PSTATSERIALNO	LABEL	01520	Pstat Serial Number
CTRLMODE	IQUANT	0	Control Mode
ELECTROMETER	IQUANT	1	RE=0 or CS=1
IESTAB	IQUANT	0	I/E Stability
CASPEED	IQUANT	4	Control Amp Speed
CONVENTION	IQUANT	1	Current Convention
ICHRANGE	IQUANT	2	Ich Range
ICHRANGEMODE	TOGGLE	T	Ich Auto Range
ICHOFFSETENABLE	TOGGLE	F	Ich Offset Enable
ICHOFFSET	QUANT	0	Ich Offset (V)
ICHFILTER	IQUANT	1	Ich Filter
VCHRANGE	IQUANT	2	Vch Range
VCHRANGEMODE	TOGGLE	T	Vch Auto Range
VCHOFFSETENABLE	TOGGLE	F	Vch Offset Enable
VCHOFFSET	QUANT	0	Vch Offset (V)
VCHFILTER	IQUANT	1	Vch Filter
IERANGELOWERLIMIT	IQUANT	9	I/E Range Lower Limit
IERANGEMODE	TOGGLE	F	I/E AutoRange
IERANGE	IQUANT	9	I/E Range
ACHSELECT	IQUANT	1	Ach Select
ACHRANGE	IQUANT	2	Ach Range
ACHOFFSETENABLE	TOGGLE	F	Ach Offset Enable
ACHOFFSET	QUANT	0	Ach Offset (V)
ACHFILTER	IQUANT	1	Ach Filter
CABLEID	IQUANT	14	Cable ID
DCCALDATE	LABEL	5-7-2017	DC Calibration Date
ACCALDATE	LABEL	12/3/2015	AC Calibration Date
FRAMEWORKVERSION	QUANT	7.01	Framework Version
INSTRUMENTVERSION	LABEL	4.00	Instrument Version
CURVE	TABLE	60
	Pt	T	Vf	Im	Vu	Pwr	Sig	Ach	Temp	IERange	Over
	#	s	V	A	V	W	V	V	deg C	#	bits
	0	0.013333	5.25252E-001	-2.78486E-004	0.00000E+000	-1.46275E-004	-1.68088E-001	5.25510E-001	3.57730E+000	9	...........
	1	0.026667	4.91894E-001	-2.79007E-004	0.00000E+000	-1.37242E-004	-1.68088E-001	4.92123E-001	3.57730E+000	9	...........
	2	0.04	4.61564E-001	-2.77139E-004	0.00000E+000	-1.27917E-004	-1.68088E-001	4.61675E-001	3.57730E+000	9	...........
	3	0.053333	4.33119E-001	-2.79086E-004	0.00000E+000	-1.20878E-004	-1.68088E-001	4.33227E-001	3.57730E+000	9	...........
	4	0.066667	4.06596E-001	-2.78961E-004	0.00000E+000	-1.13424E-004	-1.68088E-001	4.06689E-001	3.57730E+000	9	...........
	5	0.08	3.81798E-001	-2.79020E-004	0.00000E+000	-1.06529E-004	-1.68088E-001	3.81882E-001	3.57730E+000	9	...........
	6	0.093333	3.58662E-001	-2.77764E-004	0.00000E+000	-9.96234E-005	-1.68088E-001	3.58745E-001	3.57730E+000	9	...........
	7	0.106667	3.37052E-001	-2.78894E-004	0.00000E+000	-9.40018E-005	-1.68088E-001	3.37129E-001	3.57730E+000	9	...........
	8	0.12	3.16939E-001	-2.78832E-004	0.00000E+000	-8.83729E-005	-1.68088E-001	3.17009E-001	3.57730E+000	9	...........
	9	0.133333	2.98206E-001	-2.79359E-004	0.00000E+000	-8.33066E-005	-1.68088E-001	2.98273E-001	3.57730E+000	9	...........
	10	0.146667	2.80808E-001	-2.77756E-004	0.00000E+000	-7.79960E-005	-1.68088E-001	2.80875E-001	3.57730E+000	9	...........
	11	0.16	2.64637E-001	-2.80160E-004	0.00000E+000	-7.41407E-005	-1.68088E-001	2.64696E-001	3.57730E+000	9	...........
	12	0.173333	2.49612E-001	-2.78225E-004	0.00000E+000	-6.94481E-005	-1.68088E-001	2.49668E-001	3.57730E+000	9	...........
	13	0.186667	2.35677E-001	-2.79010E-004	0.00000E+000	-6.57564E-005	-1.68088E-001	2.35732E-001	3.57730E+000	9	...........
	14	0.2	2.22732E-001	-2.79502E-004	0.00000E+000	-6.22541E-005	-1.68088E-001	2.22781E-001	3.57730E+000	9	...........
	15	0.213333	2.10681E-001	-2.79520E-004	0.00000E+000	-5.88895E-005	-1.68088E-001	2.10721E-001	3.57730E+000	9	...........
	16	0.226667	1.99468E-001	-2.77638E-004	0.00000E+000	-5.53800E-005	-1.68088E-001	1.99511E-001	3.57730E+000	9	...........
	17	0.24	1.89047E-001	-2.77618E-004	0.00000E+000	-5.24829E-005	-1.68088E-001	1.89087E-001	3.57730E+000	9	...........
	18	0.253333	1.79290E-001	-2.79457E-004	0.00000E+000	-5.01040E-005	-1.68088E-001	1.79329E-001	3.57730E+000	9	...........
	19	0.266667	1.70149E-001	-2.78338E-004	0.00000E+000	-4.73591E-005	-1.68088E-001	1.70186E-001	3.57730E+000	9	...........
	20	0.28	1.61592E-001	-2.79891E-004	0.00000E+000	-4.52282E-005	-1.68088E-001	1.61621E-001	3.57730E+000	9	...........
	21	0.293333	1.53549E-001	-2.79365E-004	0.00000E+000	-4.28962E-005	-1.68088E-001	1.53579E-001	3.57730E+000	9	...........
	22	0.306667	1.45986E-001	-2.79061E-004	0.00000E+000	-4.07390E-005	-1.68088E-001	1.46014E-001	3.57730E+000	9	...........
	23	0.32	1.38808E-001	-2.79452E-004	0.00000E+000	-3.87902E-005	-1.68088E-001	1.38842E-001	3.57730E+000	9	...........
	24	0.333333	1.32030E-001	-2.80959E-004	0.00000E+000	-3.70951E-005	-1.68088E-001	1.32060E-001	3.57730E+000	9	...........
	25	0.346667	1.25593E-001	-2.79910E-004	0.00000E+000	-3.51546E-005	-1.68088E-001	1.25620E-001	3.57730E+000	9	...........
	26	0.36	1.19490E-001	-2.79568E-004	0.00000E+000	-3.34056E-005	-1.68088E-001	1.19526E-001	3.57730E+000	9	...........
	27	0.373333	1.13643E-001	-2.79532E-004	0.00000E+000	-3.17668E-005	-1.68088E-001	1.13674E-001	3.57730E+000	9	...........
	28	0.386667	1.08065E-001	-2.78563E-004	0.00000E+000	-3.01029E-005	-1.68088E-001	1.08097E-001	3.57730E+000	9	...........
	29	0.4	1.02730E-001	-2.80401E-004	0.00000E+000	-2.88055E-005	-1.68088E-001	1.02755E-001	3.57730E+000	9	...........
	30	0.413333	9.76215E-002	-2.79432E-004	0.00000E+000	-2.72786E-005	-1.68088E-001	9.76513E-002	3.57730E+000	9	...........
	31	0.426667	9.27433E-002	-2.79019E-004	0.00000E+000	-2.58771E-005	-1.68088E-001	9.27706E-002	3.57730E+000	9	...........
	32	0.44	8.80599E-002	-2.78933E-004	0.00000E+000	-2.45628E-005	-1.68088E-001	8.80809E-002	3.57730E+000	9	...........
	33	0.453333	8.35828E-002	-2.79671E-004	0.00000E+000	-2.33757E-005	-1.68088E-001	8.36046E-002	3.57730E+000	9	...........
	34	0.466667	7.92394E-002	-2.79563E-004	0.00000E+000	-2.21524E-005	-1.68088E-001	7.92591E-002	3.57730E+000	9	...........
	35	0.48	7.50567E-002	-2.78923E-004	0.00000E+000	-2.09350E-005	-1.68088E-001	7.50738E-002	3.57730E+000	9	...........
	36	0.493333	7.09620E-002	-2.79354E-004	0.00000E+000	-1.98235E-005	-1.68088E-001	7.09774E-002	3.57730E+000	9	...........
	37	0.506667	6.69807E-002	-2.77841E-004	0.00000E+000	-1.86100E-005	-1.68088E-001	6.69979E-002	3.57730E+000	9	...........
	38	0.52	6.31269E-002	-2.79309E-004	0.00000E+000	-1.76319E-005	-1.68088E-001	6.31385E-002	3.57730E+000	9	...........
	39	0.533333	5.93597E-002	-2.79320E-004	0.00000E+000	-1.65803E-005	-1.68088E-001	5.93687E-002	3.57730E+000	9	...........
	40	0.546667	5.56970E-002	-2.79024E-004	0.00000E+000	-1.55408E-005	-1.68088E-001	5.57113E-002	3.57730E+000	9	...........
	41	0.56	5.21353E-002	-2.78946E-004	0.00000E+000	-1.45429E-005	-1.68088E-001	5.21495E-002	3.57730E+000	9	...........
	42	0.573333	4.86935E-002	-2.80482E-004	0.00000E+000	-1.36576E-005	-1.68088E-001	4.87004E-002	3.57730E+000	9	...........
	43	0.586667	4.53187E-002	-2.79832E-004	0.00000E+000	-1.26816E-005	-1.68088E-001	4.53319E-002	3.57730E+000	9	...........
	44	0.6	4.19666E-002	-2.79551E-004	0.00000E+000	-1.17318E-005	-1.68088E-001	4.19763E-002	3.57730E+000	9	...........
	45	0.613333	3.87110E-002	-2.79947E-004	0.00000E+000	-1.08370E-005	-1.68088E-001	3.87193E-002	3.57730E+000	9	...........
	46	0.626667	3.55383E-002	-2.78626E-004	0.00000E+000	-9.90190E-006	-1.68088E-001	3.55416E-002	3.57730E+000	9	...........
	47	0.64	3.23940E-002	-2.79296E-004	0.00000E+000	-9.04751E-006	-1.68088E-001	3.23946E-002	3.57730E+000	9	...........
	48	0.653333	2.93061E-002	-2.78859E-004	0.00000E+000	-8.17228E-006	-1.68088E-001	2.93057E-002	3.57730E+000	9	...........
	49	0.666667	2.62853E-002	-2.78621E-004	0.00000E+000	-7.32362E-006	-1.68088E-001	2.62867E-002	3.57730E+000	9	...........
	50	0.68	2.33431E-002	-2.78655E-004	0.00000E+000	-6.50468E-006	-1.68088E-001	2.33434E-002	3.57730E+000	9	...........
	51	0.693333	2.04135E-002	-2.78931E-004	0.00000E+000	-5.69397E-006	-1.68088E-001	2.04064E-002	3.57730E+000	9	...........
	52	0.706667	1.75538E-002	-2.77226E-004	0.00000E+000	-4.86637E-006	-1.68088E-001	1.75493E-002	3.57730E+000	9	...........
	53	0.72	1.47386E-002	-2.79370E-004	0.00000E+000	-4.11753E-006	-1.68088E-001	1.47304E-002	3.57730E+000	9	...........
	54	0.733333	1.19920E-002	-2.78916E-004	0.00000E+000	-3.34475E-006	-1.68088E-001	1.19822E-002	3.57730E+000	9	...........
	55	0.746667	9.28128E-003	-2.78473E-004	0.00000E+000	-2.58458E-006	-1.68088E-001	9.27273E-003	3.57730E+000	9	...........
	56	0.76	6.60304E-003	-2.79126E-004	0.00000E+000	-1.84308E-006	-1.68088E-001	6.58912E-003	3.57730E+000	9	...........
	57	0.773333	3.91825E-003	-2.79372E-004	0.00000E+000	-1.09465E-006	-1.68088E-001	3.89989E-003	3.57730E+000	9	...........
	58	0.786667	1.25626E-003	-2.79335E-004	0.00000E+000	-3.50919E-007	-1.68088E-001	1.23496E-003	3.57730E+000	9	...........
	59	0.788333	-1.99054E-004	-2.78081E-004	0.00000E+000	5.53531E-008	-1.68088E-001	-2.12427E-004	3.57730E+000	9	...........
STARTTIMEOFFSET	QUANT	1649.672	Start Time Offset (s)
