EXPLAIN
TAG	PWR800_DISCHARGE
TITLE	LABEL	PWR Cyclic Charge Discharge (Cell) - Discharge Step	Test &Identifier
DATE	LABEL	7-7-2017	Date
TIME	LABEL	16:16:53	Time
NOTES	NOTES	3	&Notes...
	supercap test cell
	2.8mg
	6M KOH
PSTAT	PSTAT	IFC5000-01520	Potentiostat
CAPACITY	QUANT	1.00000E-003	Capacity (A-hr)
CELLTYPE	SELECTOR	1	&Cell Type
WORKINGCONNECTION	SELECTOR	0	&Working Lead
MAXDISCHARGETIME	VARIABLEANDUNITS	1.00000E+002	s	1.00000E+002	second(s)	Max &Discharge Time
DISCHARGEMODE	MULTIPARAM	0	2.80000E-004	&Discharge Mode	Constant Current	Amp(s)
SAMPLETIME	QUANT	1.00000E-002	Sa&mple Period (s)
DISCHARGESTOPAT1	MULTIPARAM	3	0.00000E+000	Discharge Stop At &1	Voltage < Limit	V
DISCHARGESTOPAT2	MULTIPARAM	0	0.00000E+000	Discharge Stop At &2	None	N/A
AESBHCSELECTOR	TOGGLE	F	Save Both Half Cells
IRCOMP	TOGGLE	F	IR &Measure
EOC	QUANT	0	Open Circuit (V)
SEQUENCER	TOGGLE	TRUE	Run as Sequence
PSTATMODEL	IQUANT	53	Pstat Model
PSTATSECTION	LABEL	IFC5000-01520	Pstat Section
PSTATSERIALNO	LABEL	01520	Pstat Serial Number
CTRLMODE	IQUANT	0	Control Mode
ELECTROMETER	IQUANT	1	RE=0 or CS=1
IESTAB	IQUANT	0	I/E Stability
CASPEED	IQUANT	4	Control Amp Speed
CONVENTION	IQUANT	1	Current Convention
ICHRANGE	IQUANT	2	Ich Range
ICHRANGEMODE	TOGGLE	T	Ich Auto Range
ICHOFFSETENABLE	TOGGLE	F	Ich Offset Enable
ICHOFFSET	QUANT	0	Ich Offset (V)
ICHFILTER	IQUANT	1	Ich Filter
VCHRANGE	IQUANT	2	Vch Range
VCHRANGEMODE	TOGGLE	T	Vch Auto Range
VCHOFFSETENABLE	TOGGLE	F	Vch Offset Enable
VCHOFFSET	QUANT	0	Vch Offset (V)
VCHFILTER	IQUANT	1	Vch Filter
IERANGELOWERLIMIT	IQUANT	9	I/E Range Lower Limit
IERANGEMODE	TOGGLE	F	I/E AutoRange
IERANGE	IQUANT	9	I/E Range
ACHSELECT	IQUANT	1	Ach Select
ACHRANGE	IQUANT	2	Ach Range
ACHOFFSETENABLE	TOGGLE	F	Ach Offset Enable
ACHOFFSET	QUANT	0	Ach Offset (V)
ACHFILTER	IQUANT	1	Ach Filter
CABLEID	IQUANT	14	Cable ID
DCCALDATE	LABEL	5-7-2017	DC Calibration Date
ACCALDATE	LABEL	12/3/2015	AC Calibration Date
FRAMEWORKVERSION	QUANT	7.01	Framework Version
INSTRUMENTVERSION	LABEL	4.00	Instrument Version
CURVE	TABLE	56
	Pt	T	Vf	Im	Vu	Pwr	Sig	Ach	Temp	IERange	Over
	#	s	V	A	V	W	V	V	deg C	#	bits
	0	0.013333	5.23757E-001	-2.80401E-004	0.00000E+000	-1.46862E-004	-1.68088E-001	5.23965E-001	3.57780E+000	9	...........
	1	0.026667	4.90141E-001	-2.78243E-004	0.00000E+000	-1.36378E-004	-1.68088E-001	4.90312E-001	3.57780E+000	9	...........
	2	0.04	4.59400E-001	-2.79631E-004	0.00000E+000	-1.28463E-004	-1.68088E-001	4.59502E-001	3.57780E+000	9	...........
	3	0.053333	4.30591E-001	-2.80950E-004	0.00000E+000	-1.20975E-004	-1.68088E-001	4.30678E-001	3.57780E+000	9	...........
	4	0.066667	4.03660E-001	-2.78392E-004	0.00000E+000	-1.12376E-004	-1.68088E-001	4.03742E-001	3.57780E+000	9	...........
	5	0.08	3.78442E-001	-2.79712E-004	0.00000E+000	-1.05855E-004	-1.68088E-001	3.78523E-001	3.57780E+000	9	...........
	6	0.093333	3.54883E-001	-2.79303E-004	0.00000E+000	-9.91198E-005	-1.68088E-001	3.54960E-001	3.57780E+000	9	...........
	7	0.106667	3.32888E-001	-2.79944E-004	0.00000E+000	-9.31900E-005	-1.68088E-001	3.32960E-001	3.57780E+000	9	...........
	8	0.12	3.12378E-001	-2.79523E-004	0.00000E+000	-8.73169E-005	-1.68088E-001	3.12448E-001	3.57780E+000	9	...........
	9	0.133333	2.93286E-001	-2.78616E-004	0.00000E+000	-8.17140E-005	-1.68088E-001	2.93352E-001	3.57780E+000	9	...........
	10	0.146667	2.75518E-001	-2.79218E-004	0.00000E+000	-7.69294E-005	-1.68088E-001	2.75577E-001	3.57780E+000	9	...........
	11	0.16	2.59041E-001	-2.78945E-004	0.00000E+000	-7.22581E-005	-1.68088E-001	2.59108E-001	3.57780E+000	9	...........
	12	0.173333	2.43729E-001	-2.80483E-004	0.00000E+000	-6.83617E-005	-1.68088E-001	2.43783E-001	3.57780E+000	9	...........
	13	0.186667	2.29513E-001	-2.79890E-004	0.00000E+000	-6.42383E-005	-1.68088E-001	2.29560E-001	3.57770E+000	9	...........
	14	0.2	2.16317E-001	-2.79614E-004	0.00000E+000	-6.04851E-005	-1.68088E-001	2.16364E-001	3.57740E+000	9	...........
	15	0.213333	2.04035E-001	-2.79022E-004	0.00000E+000	-5.69302E-005	-1.68088E-001	2.04082E-001	3.57740E+000	9	...........
	16	0.226667	1.92578E-001	-2.79413E-004	0.00000E+000	-5.38086E-005	-1.68088E-001	1.92624E-001	3.57740E+000	9	...........
	17	0.24	1.81909E-001	-2.79158E-004	0.00000E+000	-5.07814E-005	-1.68088E-001	1.81956E-001	3.57740E+000	9	...........
	18	0.253333	1.71977E-001	-2.80361E-004	0.00000E+000	-4.82155E-005	-1.68088E-001	1.72018E-001	3.57740E+000	9	...........
	19	0.266667	1.62683E-001	-2.79405E-004	0.00000E+000	-4.54544E-005	-1.68088E-001	1.62721E-001	3.57740E+000	9	...........
	20	0.28	1.53951E-001	-2.80396E-004	0.00000E+000	-4.31673E-005	-1.68088E-001	1.53988E-001	3.57740E+000	9	...........
	21	0.293333	1.45777E-001	-2.77500E-004	0.00000E+000	-4.04531E-005	-1.68088E-001	1.45806E-001	3.57740E+000	9	...........
	22	0.306667	1.38088E-001	-2.79766E-004	0.00000E+000	-3.86322E-005	-1.68088E-001	1.38115E-001	3.57740E+000	9	...........
	23	0.32	1.30858E-001	-2.78556E-004	0.00000E+000	-3.64512E-005	-1.68088E-001	1.30885E-001	3.57740E+000	9	...........
	24	0.333333	1.23997E-001	-2.77879E-004	0.00000E+000	-3.44561E-005	-1.68088E-001	1.24025E-001	3.57740E+000	9	...........
	25	0.346667	1.17516E-001	-2.80909E-004	0.00000E+000	-3.30113E-005	-1.68088E-001	1.17546E-001	3.57740E+000	9	...........
	26	0.36	1.11342E-001	-2.79344E-004	0.00000E+000	-3.11028E-005	-1.68088E-001	1.11374E-001	3.57740E+000	9	...........
	27	0.373333	1.05487E-001	-2.79741E-004	0.00000E+000	-2.95090E-005	-1.68088E-001	1.05513E-001	3.57740E+000	9	...........
	28	0.386667	9.99157E-002	-2.78568E-004	0.00000E+000	-2.78333E-005	-1.68088E-001	9.99461E-002	3.57740E+000	9	...........
	29	0.4	9.45524E-002	-2.78891E-004	0.00000E+000	-2.63698E-005	-1.68088E-001	9.45821E-002	3.57740E+000	9	...........
	30	0.413333	8.94065E-002	-2.78884E-004	0.00000E+000	-2.49341E-005	-1.68088E-001	8.94306E-002	3.57740E+000	9	...........
	31	0.426667	8.44604E-002	-2.79566E-004	0.00000E+000	-2.36122E-005	-1.68088E-001	8.44847E-002	3.57740E+000	9	...........
	32	0.44	7.97394E-002	-2.78526E-004	0.00000E+000	-2.22095E-005	-1.68088E-001	7.97577E-002	3.57740E+000	9	...........
	33	0.453333	7.51670E-002	-2.78544E-004	0.00000E+000	-2.09373E-005	-1.68088E-001	7.51856E-002	3.57740E+000	9	...........
	34	0.466667	7.07189E-002	-2.80177E-004	0.00000E+000	-1.98138E-005	-1.68088E-001	7.07301E-002	3.57740E+000	9	...........
	35	0.48	6.64385E-002	-2.78652E-004	0.00000E+000	-1.85132E-005	-1.68088E-001	6.64461E-002	3.57740E+000	9	...........
	36	0.493333	6.23382E-002	-2.79153E-004	0.00000E+000	-1.74019E-005	-1.68088E-001	6.23426E-002	3.57740E+000	9	...........
	37	0.506667	5.83605E-002	-2.77998E-004	0.00000E+000	-1.62241E-005	-1.68088E-001	5.83716E-002	3.57740E+000	9	...........
	38	0.52	5.44894E-002	-2.79752E-004	0.00000E+000	-1.52435E-005	-1.68088E-001	5.45031E-002	3.57740E+000	9	...........
	39	0.533333	5.07180E-002	-2.79151E-004	0.00000E+000	-1.41580E-005	-1.68088E-001	5.07293E-002	3.57740E+000	9	...........
	40	0.546667	4.70708E-002	-2.79389E-004	0.00000E+000	-1.31510E-005	-1.68088E-001	4.70811E-002	3.57740E+000	9	...........
	41	0.56	4.34949E-002	-2.78836E-004	0.00000E+000	-1.21280E-005	-1.68088E-001	4.35071E-002	3.57740E+000	9	...........
	42	0.573333	3.99773E-002	-2.79889E-004	0.00000E+000	-1.11892E-005	-1.68088E-001	3.99797E-002	3.57740E+000	9	...........
	43	0.586667	3.65093E-002	-2.79513E-004	0.00000E+000	-1.02048E-005	-1.68088E-001	3.65154E-002	3.57740E+000	9	...........
	44	0.6	3.32129E-002	-2.80065E-004	0.00000E+000	-9.30176E-006	-1.68088E-001	3.32184E-002	3.57740E+000	9	...........
	45	0.613333	2.99299E-002	-2.78993E-004	0.00000E+000	-8.35022E-006	-1.68088E-001	2.99311E-002	3.57740E+000	9	...........
	46	0.626667	2.66989E-002	-2.78704E-004	0.00000E+000	-7.44110E-006	-1.68088E-001	2.66921E-002	3.57740E+000	9	...........
	47	0.64	2.35679E-002	-2.78773E-004	0.00000E+000	-6.57010E-006	-1.68088E-001	2.35601E-002	3.57740E+000	9	...........
	48	0.653333	2.04353E-002	-2.80283E-004	0.00000E+000	-5.72765E-006	-1.68088E-001	2.04260E-002	3.57740E+000	9	...........
	49	0.666667	1.73446E-002	-2.79606E-004	0.00000E+000	-4.84966E-006	-1.68088E-001	1.73378E-002	3.57740E+000	9	...........
	50	0.68	1.43767E-002	-2.79349E-004	0.00000E+000	-4.01611E-006	-1.68088E-001	1.43685E-002	3.57740E+000	9	...........
	51	0.693333	1.14855E-002	-2.77905E-004	0.00000E+000	-3.19188E-006	-1.68088E-001	1.14703E-002	3.57740E+000	9	...........
	52	0.706667	8.67172E-003	-2.78770E-004	0.00000E+000	-2.41741E-006	-1.68088E-001	8.65927E-003	3.57740E+000	9	...........
	53	0.72	5.88574E-003	-2.78908E-004	0.00000E+000	-1.64158E-006	-1.68088E-001	5.86893E-003	3.57740E+000	9	...........
	54	0.733333	3.09102E-003	-2.77942E-004	0.00000E+000	-8.59126E-007	-1.68088E-001	3.07584E-003	3.57740E+000	9	...........
	55	0.743333	7.17723E-004	-2.79711E-004	0.00000E+000	-2.00755E-007	-1.68088E-001	6.98505E-004	3.57740E+000	9	...........
STARTTIMEOFFSET	QUANT	1799.774	Start Time Offset (s)
