EXPLAIN
TAG	PWR800_DISCHARGE
TITLE	LABEL	PWR Cyclic Charge Discharge (Cell) - Discharge Step	Test &Identifier
DATE	LABEL	7-7-2017	Date
TIME	LABEL	16:03:47	Time
NOTES	NOTES	3	&Notes...
	supercap test cell
	2.8mg
	6M KOH
PSTAT	PSTAT	IFC5000-01520	Potentiostat
CAPACITY	QUANT	1.00000E-003	Capacity (A-hr)
CELLTYPE	SELECTOR	1	&Cell Type
WORKINGCONNECTION	SELECTOR	0	&Working Lead
MAXDISCHARGETIME	VARIABLEANDUNITS	1.00000E+002	s	1.00000E+002	second(s)	Max &Discharge Time
DISCHARGEMODE	MULTIPARAM	0	2.80000E-004	&Discharge Mode	Constant Current	Amp(s)
SAMPLETIME	QUANT	1.00000E-002	Sa&mple Period (s)
DISCHARGESTOPAT1	MULTIPARAM	3	0.00000E+000	Discharge Stop At &1	Voltage < Limit	V
DISCHARGESTOPAT2	MULTIPARAM	0	0.00000E+000	Discharge Stop At &2	None	N/A
AESBHCSELECTOR	TOGGLE	F	Save Both Half Cells
IRCOMP	TOGGLE	F	IR &Measure
EOC	QUANT	0	Open Circuit (V)
SEQUENCER	TOGGLE	TRUE	Run as Sequence
PSTATMODEL	IQUANT	53	Pstat Model
PSTATSECTION	LABEL	IFC5000-01520	Pstat Section
PSTATSERIALNO	LABEL	01520	Pstat Serial Number
CTRLMODE	IQUANT	0	Control Mode
ELECTROMETER	IQUANT	1	RE=0 or CS=1
IESTAB	IQUANT	0	I/E Stability
CASPEED	IQUANT	4	Control Amp Speed
CONVENTION	IQUANT	1	Current Convention
ICHRANGE	IQUANT	2	Ich Range
ICHRANGEMODE	TOGGLE	T	Ich Auto Range
ICHOFFSETENABLE	TOGGLE	F	Ich Offset Enable
ICHOFFSET	QUANT	0	Ich Offset (V)
ICHFILTER	IQUANT	1	Ich Filter
VCHRANGE	IQUANT	2	Vch Range
VCHRANGEMODE	TOGGLE	T	Vch Auto Range
VCHOFFSETENABLE	TOGGLE	F	Vch Offset Enable
VCHOFFSET	QUANT	0	Vch Offset (V)
VCHFILTER	IQUANT	1	Vch Filter
IERANGELOWERLIMIT	IQUANT	9	I/E Range Lower Limit
IERANGEMODE	TOGGLE	F	I/E AutoRange
IERANGE	IQUANT	9	I/E Range
ACHSELECT	IQUANT	1	Ach Select
ACHRANGE	IQUANT	2	Ach Range
ACHOFFSETENABLE	TOGGLE	F	Ach Offset Enable
ACHOFFSET	QUANT	0	Ach Offset (V)
ACHFILTER	IQUANT	1	Ach Filter
CABLEID	IQUANT	14	Cable ID
DCCALDATE	LABEL	5-7-2017	DC Calibration Date
ACCALDATE	LABEL	12/3/2015	AC Calibration Date
FRAMEWORKVERSION	QUANT	7.01	Framework Version
INSTRUMENTVERSION	LABEL	4.00	Instrument Version
CURVE	TABLE	66
	Pt	T	Vf	Im	Vu	Pwr	Sig	Ach	Temp	IERange	Over
	#	s	V	A	V	W	V	V	deg C	#	bits
	0	0.013333	5.32772E-001	-2.79014E-004	0.00000E+000	-1.48651E-004	-1.68088E-001	5.33047E-001	3.57740E+000	9	...........
	1	0.026667	4.99950E-001	-2.77820E-004	0.00000E+000	-1.38896E-004	-1.68088E-001	5.00215E-001	3.57740E+000	9	...........
	2	0.04	4.70158E-001	-2.79225E-004	0.00000E+000	-1.31280E-004	-1.68088E-001	4.70291E-001	3.57740E+000	9	...........
	3	0.053333	4.42296E-001	-2.78951E-004	0.00000E+000	-1.23379E-004	-1.68088E-001	4.42404E-001	3.57740E+000	9	...........
	4	0.066667	4.16295E-001	-2.79555E-004	0.00000E+000	-1.16378E-004	-1.68088E-001	4.16396E-001	3.57740E+000	9	...........
	5	0.08	3.92034E-001	-2.78374E-004	0.00000E+000	-1.09132E-004	-1.68088E-001	3.92123E-001	3.57740E+000	9	...........
	6	0.093333	3.69409E-001	-2.78691E-004	0.00000E+000	-1.02951E-004	-1.68088E-001	3.69499E-001	3.57740E+000	9	...........
	7	0.106667	3.48297E-001	-2.78443E-004	0.00000E+000	-9.69807E-005	-1.68088E-001	3.48379E-001	3.57740E+000	9	...........
	8	0.12	3.28690E-001	-2.78982E-004	0.00000E+000	-9.16986E-005	-1.68088E-001	3.28774E-001	3.57740E+000	9	...........
	9	0.133333	3.10474E-001	-2.77844E-004	0.00000E+000	-8.62632E-005	-1.68088E-001	3.10550E-001	3.57740E+000	9	...........
	10	0.146667	2.93523E-001	-2.78715E-004	0.00000E+000	-8.18091E-005	-1.68088E-001	2.93599E-001	3.57740E+000	9	...........
	11	0.16	2.77789E-001	-2.79676E-004	0.00000E+000	-7.76909E-005	-1.68088E-001	2.77870E-001	3.57740E+000	9	...........
	12	0.173333	2.63178E-001	-2.76972E-004	0.00000E+000	-7.28930E-005	-1.68088E-001	2.63249E-001	3.57740E+000	9	...........
	13	0.186667	2.49541E-001	-2.78488E-004	0.00000E+000	-6.94942E-005	-1.68088E-001	2.49610E-001	3.57740E+000	9	...........
	14	0.2	2.36856E-001	-2.78325E-004	0.00000E+000	-6.59228E-005	-1.68088E-001	2.36912E-001	3.57740E+000	9	...........
	15	0.213333	2.25073E-001	-2.78823E-004	0.00000E+000	-6.27556E-005	-1.68088E-001	2.25130E-001	3.57740E+000	9	...........
	16	0.226667	2.14131E-001	-2.78513E-004	0.00000E+000	-5.96385E-005	-1.68088E-001	2.14182E-001	3.57740E+000	9	...........
	17	0.24	2.03919E-001	-2.78423E-004	0.00000E+000	-5.67756E-005	-1.68088E-001	2.03973E-001	3.57740E+000	9	...........
	18	0.253333	1.94389E-001	-2.78982E-004	0.00000E+000	-5.42310E-005	-1.68088E-001	1.94444E-001	3.57740E+000	9	...........
	19	0.266667	1.85432E-001	-2.78125E-004	0.00000E+000	-5.15733E-005	-1.68088E-001	1.85487E-001	3.57740E+000	9	...........
	20	0.28	1.77034E-001	-2.78923E-004	0.00000E+000	-4.93788E-005	-1.68088E-001	1.77081E-001	3.57740E+000	9	...........
	21	0.293333	1.69143E-001	-2.77087E-004	0.00000E+000	-4.68675E-005	-1.68088E-001	1.69187E-001	3.57740E+000	9	...........
	22	0.306667	1.61696E-001	-2.78984E-004	0.00000E+000	-4.51107E-005	-1.68088E-001	1.61736E-001	3.57740E+000	9	...........
	23	0.32	1.54648E-001	-2.79801E-004	0.00000E+000	-4.32708E-005	-1.68088E-001	1.54688E-001	3.57740E+000	9	...........
	24	0.333333	1.47968E-001	-2.78748E-004	0.00000E+000	-4.12459E-005	-1.68088E-001	1.48002E-001	3.57740E+000	9	...........
	25	0.346667	1.41621E-001	-2.78408E-004	0.00000E+000	-3.94285E-005	-1.68088E-001	1.41658E-001	3.57740E+000	9	...........
	26	0.36	1.35573E-001	-2.80336E-004	0.00000E+000	-3.80058E-005	-1.68088E-001	1.35609E-001	3.57740E+000	9	...........
	27	0.373333	1.29793E-001	-2.78813E-004	0.00000E+000	-3.61880E-005	-1.68088E-001	1.29829E-001	3.57740E+000	9	...........
	28	0.386667	1.24283E-001	-2.77597E-004	0.00000E+000	-3.45006E-005	-1.68088E-001	1.24314E-001	3.57740E+000	9	...........
	29	0.4	1.19035E-001	-2.78885E-004	0.00000E+000	-3.31972E-005	-1.68088E-001	1.19062E-001	3.57740E+000	9	...........
	30	0.413333	1.13973E-001	-2.78776E-004	0.00000E+000	-3.17730E-005	-1.68088E-001	1.14000E-001	3.57740E+000	9	...........
	31	0.426667	1.09114E-001	-2.78011E-004	0.00000E+000	-3.03351E-005	-1.68088E-001	1.09143E-001	3.57740E+000	9	...........
	32	0.44	1.04475E-001	-2.79176E-004	0.00000E+000	-2.91669E-005	-1.68088E-001	1.04503E-001	3.57740E+000	9	...........
	33	0.453333	9.99901E-002	-2.77236E-004	0.00000E+000	-2.77209E-005	-1.68088E-001	1.00022E-001	3.57740E+000	9	...........
	34	0.466667	9.56195E-002	-2.79043E-004	0.00000E+000	-2.66819E-005	-1.68088E-001	9.56495E-002	3.57740E+000	9	...........
	35	0.48	9.14167E-002	-2.78256E-004	0.00000E+000	-2.54372E-005	-1.68088E-001	9.14446E-002	3.57740E+000	9	...........
	36	0.493333	8.73297E-002	-2.79597E-004	0.00000E+000	-2.44171E-005	-1.68088E-001	8.73524E-002	3.57740E+000	9	...........
	37	0.506667	8.33613E-002	-2.79545E-004	0.00000E+000	-2.33032E-005	-1.68088E-001	8.33830E-002	3.57740E+000	9	...........
	38	0.52	7.94932E-002	-2.78211E-004	0.00000E+000	-2.21159E-005	-1.68088E-001	7.95103E-002	3.57740E+000	9	...........
	39	0.533333	7.57452E-002	-2.80011E-004	0.00000E+000	-2.12095E-005	-1.68088E-001	7.57645E-002	3.57740E+000	9	...........
	40	0.546667	7.20653E-002	-2.78843E-004	0.00000E+000	-2.00949E-005	-1.68088E-001	7.20802E-002	3.57740E+000	9	...........
	41	0.56	6.85104E-002	-2.78926E-004	0.00000E+000	-1.91093E-005	-1.68088E-001	6.85244E-002	3.57740E+000	9	...........
	42	0.573333	6.50260E-002	-2.78654E-004	0.00000E+000	-1.81198E-005	-1.68088E-001	6.50386E-002	3.57740E+000	9	...........
	43	0.586667	6.16052E-002	-2.78908E-004	0.00000E+000	-1.71822E-005	-1.68088E-001	6.16231E-002	3.57740E+000	9	...........
	44	0.6	5.83059E-002	-2.79095E-004	0.00000E+000	-1.62729E-005	-1.68088E-001	5.83232E-002	3.57740E+000	9	...........
	45	0.613333	5.50773E-002	-2.78975E-004	0.00000E+000	-1.53652E-005	-1.68088E-001	5.50902E-002	3.57740E+000	9	...........
	46	0.626667	5.18945E-002	-2.79517E-004	0.00000E+000	-1.45054E-005	-1.68088E-001	5.19121E-002	3.57740E+000	9	...........
	47	0.64	4.87399E-002	-2.79029E-004	0.00000E+000	-1.35999E-005	-1.68088E-001	4.87505E-002	3.57740E+000	9	...........
	48	0.653333	4.56784E-002	-2.78529E-004	0.00000E+000	-1.27228E-005	-1.68088E-001	4.56922E-002	3.57740E+000	9	...........
	49	0.666667	4.26372E-002	-2.77849E-004	0.00000E+000	-1.18467E-005	-1.68088E-001	4.26437E-002	3.57740E+000	9	...........
	50	0.68	3.96544E-002	-2.78962E-004	0.00000E+000	-1.10621E-005	-1.68088E-001	3.96621E-002	3.57740E+000	9	...........
	51	0.693333	3.67516E-002	-2.77799E-004	0.00000E+000	-1.02095E-005	-1.68088E-001	3.67533E-002	3.57740E+000	9	...........
	52	0.706667	3.39199E-002	-2.79696E-004	0.00000E+000	-9.48725E-006	-1.68088E-001	3.39201E-002	3.57740E+000	9	...........
	53	0.72	3.11000E-002	-2.78043E-004	0.00000E+000	-8.64712E-006	-1.68088E-001	3.11082E-002	3.57740E+000	9	...........
	54	0.733333	2.82776E-002	-2.79333E-004	0.00000E+000	-7.89887E-006	-1.68088E-001	2.82802E-002	3.57740E+000	9	...........
	55	0.746667	2.55329E-002	-2.79479E-004	0.00000E+000	-7.13592E-006	-1.68088E-001	2.55336E-002	3.57740E+000	9	...........
	56	0.76	2.28160E-002	-2.78045E-004	0.00000E+000	-6.34388E-006	-1.68088E-001	2.28127E-002	3.57740E+000	9	...........
	57	0.773333	2.01799E-002	-2.78456E-004	0.00000E+000	-5.61921E-006	-1.68088E-001	2.01816E-002	3.57740E+000	9	...........
	58	0.786667	1.75513E-002	-2.78512E-004	0.00000E+000	-4.88826E-006	-1.68088E-001	1.75483E-002	3.57740E+000	9	...........
	59	0.8	1.49710E-002	-2.78397E-004	0.00000E+000	-4.16788E-006	-1.68088E-001	1.49574E-002	3.57740E+000	9	...........
	60	0.813333	1.24179E-002	-2.79653E-004	0.00000E+000	-3.47271E-006	-1.68088E-001	1.24153E-002	3.57740E+000	9	...........
	61	0.826667	9.90884E-003	-2.77376E-004	0.00000E+000	-2.74847E-006	-1.68088E-001	9.90262E-003	3.57846E+000	9	...........
	62	0.84	7.38796E-003	-2.78896E-004	0.00000E+000	-2.06047E-006	-1.68088E-001	7.37574E-003	3.57880E+000	9	...........
	63	0.853333	4.91855E-003	-2.79911E-004	0.00000E+000	-1.37675E-006	-1.68088E-001	4.90278E-003	3.57880E+000	9	...........
	64	0.866667	2.49284E-003	-2.79338E-004	0.00000E+000	-6.96343E-007	-1.68088E-001	2.48041E-003	3.57880E+000	9	...........
	65	0.875	4.89545E-004	-2.79245E-004	0.00000E+000	-1.36703E-007	-1.68088E-001	4.73905E-004	3.57880E+000	9	...........
STARTTIMEOFFSET	QUANT	1267.969	Start Time Offset (s)
