EXPLAIN
TAG	PWR800_DISCHARGE
TITLE	LABEL	PWR Cyclic Charge Discharge (Cell) - Discharge Step	Test &Identifier
DATE	LABEL	7-7-2017	Date
TIME	LABEL	16:12:51	Time
NOTES	NOTES	3	&Notes...
	supercap test cell
	2.8mg
	6M KOH
PSTAT	PSTAT	IFC5000-01520	Potentiostat
CAPACITY	QUANT	1.00000E-003	Capacity (A-hr)
CELLTYPE	SELECTOR	1	&Cell Type
WORKINGCONNECTION	SELECTOR	0	&Working Lead
MAXDISCHARGETIME	VARIABLEANDUNITS	1.00000E+002	s	1.00000E+002	second(s)	Max &Discharge Time
DISCHARGEMODE	MULTIPARAM	0	2.80000E-004	&Discharge Mode	Constant Current	Amp(s)
SAMPLETIME	QUANT	1.00000E-002	Sa&mple Period (s)
DISCHARGESTOPAT1	MULTIPARAM	3	0.00000E+000	Discharge Stop At &1	Voltage < Limit	V
DISCHARGESTOPAT2	MULTIPARAM	0	0.00000E+000	Discharge Stop At &2	None	N/A
AESBHCSELECTOR	TOGGLE	F	Save Both Half Cells
IRCOMP	TOGGLE	F	IR &Measure
EOC	QUANT	0	Open Circuit (V)
SEQUENCER	TOGGLE	TRUE	Run as Sequence
PSTATMODEL	IQUANT	53	Pstat Model
PSTATSECTION	LABEL	IFC5000-01520	Pstat Section
PSTATSERIALNO	LABEL	01520	Pstat Serial Number
CTRLMODE	IQUANT	0	Control Mode
ELECTROMETER	IQUANT	1	RE=0 or CS=1
IESTAB	IQUANT	0	I/E Stability
CASPEED	IQUANT	4	Control Amp Speed
CONVENTION	IQUANT	1	Current Convention
ICHRANGE	IQUANT	2	Ich Range
ICHRANGEMODE	TOGGLE	T	Ich Auto Range
ICHOFFSETENABLE	TOGGLE	F	Ich Offset Enable
ICHOFFSET	QUANT	0	Ich Offset (V)
ICHFILTER	IQUANT	1	Ich Filter
VCHRANGE	IQUANT	2	Vch Range
VCHRANGEMODE	TOGGLE	T	Vch Auto Range
VCHOFFSETENABLE	TOGGLE	F	Vch Offset Enable
VCHOFFSET	QUANT	0	Vch Offset (V)
VCHFILTER	IQUANT	1	Vch Filter
IERANGELOWERLIMIT	IQUANT	9	I/E Range Lower Limit
IERANGEMODE	TOGGLE	F	I/E AutoRange
IERANGE	IQUANT	9	I/E Range
ACHSELECT	IQUANT	1	Ach Select
ACHRANGE	IQUANT	2	Ach Range
ACHOFFSETENABLE	TOGGLE	F	Ach Offset Enable
ACHOFFSET	QUANT	0	Ach Offset (V)
ACHFILTER	IQUANT	1	Ach Filter
CABLEID	IQUANT	14	Cable ID
DCCALDATE	LABEL	5-7-2017	DC Calibration Date
ACCALDATE	LABEL	12/3/2015	AC Calibration Date
FRAMEWORKVERSION	QUANT	7.01	Framework Version
INSTRUMENTVERSION	LABEL	4.00	Instrument Version
CURVE	TABLE	59
	Pt	T	Vf	Im	Vu	Pwr	Sig	Ach	Temp	IERange	Over
	#	s	V	A	V	W	V	V	deg C	#	bits
	0	0.013333	5.21969E-001	-2.77957E-004	0.00000E+000	-1.45085E-004	-1.68088E-001	5.22180E-001	3.57770E+000	9	...........
	1	0.026667	4.88682E-001	-2.79235E-004	0.00000E+000	-1.36457E-004	-1.68088E-001	4.88882E-001	3.57770E+000	9	...........
	2	0.04	4.58362E-001	-2.77082E-004	0.00000E+000	-1.27004E-004	-1.68088E-001	4.58470E-001	3.57770E+000	9	...........
	3	0.053333	4.30010E-001	-2.77249E-004	0.00000E+000	-1.19220E-004	-1.68088E-001	4.30110E-001	3.57760E+000	9	...........
	4	0.066667	4.03583E-001	-2.79057E-004	0.00000E+000	-1.12623E-004	-1.68088E-001	4.03676E-001	3.57730E+000	9	...........
	5	0.08	3.78911E-001	-2.79826E-004	0.00000E+000	-1.06029E-004	-1.68088E-001	3.78992E-001	3.57730E+000	9	...........
	6	0.093333	3.55879E-001	-2.79438E-004	0.00000E+000	-9.94459E-005	-1.68088E-001	3.55957E-001	3.57730E+000	9	...........
	7	0.106667	3.34409E-001	-2.78873E-004	0.00000E+000	-9.32577E-005	-1.68088E-001	3.34484E-001	3.57730E+000	9	...........
	8	0.12	3.14417E-001	-2.79005E-004	0.00000E+000	-8.77240E-005	-1.68088E-001	3.14489E-001	3.57730E+000	9	...........
	9	0.133333	2.95818E-001	-2.78623E-004	0.00000E+000	-8.24217E-005	-1.68088E-001	2.95880E-001	3.57730E+000	9	...........
	10	0.146667	2.78569E-001	-2.78380E-004	0.00000E+000	-7.75481E-005	-1.68088E-001	2.78634E-001	3.57730E+000	9	...........
	11	0.16	2.62534E-001	-2.79108E-004	0.00000E+000	-7.32755E-005	-1.68088E-001	2.62601E-001	3.57730E+000	9	...........
	12	0.173333	2.47652E-001	-2.79819E-004	0.00000E+000	-6.92978E-005	-1.68088E-001	2.47719E-001	3.57730E+000	9	...........
	13	0.186667	2.33849E-001	-2.78795E-004	0.00000E+000	-6.51958E-005	-1.68088E-001	2.33904E-001	3.57730E+000	9	...........
	14	0.2	2.21016E-001	-2.80399E-004	0.00000E+000	-6.19727E-005	-1.68088E-001	2.21061E-001	3.57730E+000	9	...........
	15	0.213333	2.09035E-001	-2.79176E-004	0.00000E+000	-5.83575E-005	-1.68088E-001	2.09082E-001	3.57730E+000	9	...........
	16	0.226667	1.97913E-001	-2.79681E-004	0.00000E+000	-5.53527E-005	-1.68088E-001	1.97966E-001	3.57730E+000	9	...........
	17	0.24	1.87556E-001	-2.78497E-004	0.00000E+000	-5.22338E-005	-1.68088E-001	1.87603E-001	3.57730E+000	9	...........
	18	0.253333	1.77829E-001	-2.79143E-004	0.00000E+000	-4.96397E-005	-1.68088E-001	1.77871E-001	3.57730E+000	9	...........
	19	0.266667	1.68772E-001	-2.78135E-004	0.00000E+000	-4.69413E-005	-1.68088E-001	1.68816E-001	3.57730E+000	9	...........
	20	0.28	1.60275E-001	-2.78878E-004	0.00000E+000	-4.46971E-005	-1.68088E-001	1.60312E-001	3.57730E+000	9	...........
	21	0.293333	1.52294E-001	-2.78404E-004	0.00000E+000	-4.23993E-005	-1.68088E-001	1.52328E-001	3.57730E+000	9	...........
	22	0.306667	1.44776E-001	-2.80474E-004	0.00000E+000	-4.06060E-005	-1.68088E-001	1.44812E-001	3.57730E+000	9	...........
	23	0.32	1.37699E-001	-2.78976E-004	0.00000E+000	-3.84147E-005	-1.68088E-001	1.37731E-001	3.57730E+000	9	...........
	24	0.333333	1.31021E-001	-2.78394E-004	0.00000E+000	-3.64754E-005	-1.68088E-001	1.31048E-001	3.57730E+000	9	...........
	25	0.346667	1.24675E-001	-2.78944E-004	0.00000E+000	-3.47774E-005	-1.68088E-001	1.24711E-001	3.57730E+000	9	...........
	26	0.36	1.18676E-001	-2.79133E-004	0.00000E+000	-3.31265E-005	-1.68088E-001	1.18708E-001	3.57730E+000	9	...........
	27	0.373333	1.12926E-001	-2.79092E-004	0.00000E+000	-3.15166E-005	-1.68088E-001	1.12960E-001	3.57730E+000	9	...........
	28	0.386667	1.07464E-001	-2.78854E-004	0.00000E+000	-2.99669E-005	-1.68088E-001	1.07491E-001	3.57730E+000	9	...........
	29	0.4	1.02248E-001	-2.78505E-004	0.00000E+000	-2.84767E-005	-1.68088E-001	1.02277E-001	3.57730E+000	9	...........
	30	0.413333	9.72247E-002	-2.79330E-004	0.00000E+000	-2.71578E-005	-1.68088E-001	9.72465E-002	3.57730E+000	9	...........
	31	0.426667	9.23357E-002	-2.79681E-004	0.00000E+000	-2.58246E-005	-1.68088E-001	9.23602E-002	3.57730E+000	9	...........
	32	0.44	8.76634E-002	-2.79968E-004	0.00000E+000	-2.45429E-005	-1.68088E-001	8.76860E-002	3.57730E+000	9	...........
	33	0.453333	8.31653E-002	-2.79427E-004	0.00000E+000	-2.32386E-005	-1.68088E-001	8.31811E-002	3.57730E+000	9	...........
	34	0.466667	7.88296E-002	-2.78954E-004	0.00000E+000	-2.19898E-005	-1.68088E-001	7.88434E-002	3.57730E+000	9	...........
	35	0.48	7.46106E-002	-2.79064E-004	0.00000E+000	-2.08211E-005	-1.68088E-001	7.46258E-002	3.57730E+000	9	...........
	36	0.493333	7.05379E-002	-2.79969E-004	0.00000E+000	-1.97484E-005	-1.68088E-001	7.05436E-002	3.57730E+000	9	...........
	37	0.506667	6.66128E-002	-2.79114E-004	0.00000E+000	-1.85925E-005	-1.68088E-001	6.66237E-002	3.57730E+000	9	...........
	38	0.52	6.27394E-002	-2.77753E-004	0.00000E+000	-1.74260E-005	-1.68088E-001	6.27516E-002	3.57730E+000	9	...........
	39	0.533333	5.89633E-002	-2.79047E-004	0.00000E+000	-1.64535E-005	-1.68088E-001	5.89733E-002	3.57730E+000	9	...........
	40	0.546667	5.52963E-002	-2.79446E-004	0.00000E+000	-1.54523E-005	-1.68088E-001	5.53106E-002	3.57730E+000	9	...........
	41	0.56	5.17173E-002	-2.78653E-004	0.00000E+000	-1.44112E-005	-1.68088E-001	5.17223E-002	3.57730E+000	9	...........
	42	0.573333	4.82598E-002	-2.79906E-004	0.00000E+000	-1.35082E-005	-1.68088E-001	4.82686E-002	3.57730E+000	9	...........
	43	0.586667	4.48705E-002	-2.78696E-004	0.00000E+000	-1.25052E-005	-1.68088E-001	4.48779E-002	3.57730E+000	9	...........
	44	0.6	4.15591E-002	-2.79518E-004	0.00000E+000	-1.16165E-005	-1.68088E-001	4.15644E-002	3.57730E+000	9	...........
	45	0.613333	3.83410E-002	-2.78040E-004	0.00000E+000	-1.06604E-005	-1.68088E-001	3.83448E-002	3.57730E+000	9	...........
	46	0.626667	3.51588E-002	-2.78632E-004	0.00000E+000	-9.79637E-006	-1.68088E-001	3.51609E-002	3.57730E+000	9	...........
	47	0.64	3.20676E-002	-2.78605E-004	0.00000E+000	-8.93420E-006	-1.68088E-001	3.20681E-002	3.57730E+000	9	...........
	48	0.653333	2.90277E-002	-2.78444E-004	0.00000E+000	-8.08258E-006	-1.68088E-001	2.90288E-002	3.57730E+000	9	...........
	49	0.666667	2.60231E-002	-2.80014E-004	0.00000E+000	-7.28684E-006	-1.68088E-001	2.60266E-002	3.57730E+000	9	...........
	50	0.68	2.31041E-002	-2.79326E-004	0.00000E+000	-6.45359E-006	-1.68088E-001	2.31031E-002	3.57730E+000	9	...........
	51	0.693333	2.01907E-002	-2.78518E-004	0.00000E+000	-5.62345E-006	-1.68088E-001	2.01864E-002	3.57730E+000	9	...........
	52	0.706667	1.72737E-002	-2.78102E-004	0.00000E+000	-4.80385E-006	-1.68088E-001	1.72655E-002	3.57730E+000	9	...........
	53	0.72	1.44699E-002	-2.78907E-004	0.00000E+000	-4.03576E-006	-1.68088E-001	1.44604E-002	3.57730E+000	9	...........
	54	0.733333	1.17143E-002	-2.79921E-004	0.00000E+000	-3.27908E-006	-1.68088E-001	1.17018E-002	3.57730E+000	9	...........
	55	0.746667	8.97063E-003	-2.77768E-004	0.00000E+000	-2.49176E-006	-1.68088E-001	8.95704E-003	3.57730E+000	9	...........
	56	0.76	6.26459E-003	-2.78155E-004	0.00000E+000	-1.74253E-006	-1.68088E-001	6.25356E-003	3.57730E+000	9	...........
	57	0.773333	3.59398E-003	-2.79242E-004	0.00000E+000	-1.00359E-006	-1.68088E-001	3.58109E-003	3.57730E+000	9	...........
	58	0.786667	1.00531E-003	-2.78653E-004	0.00000E+000	-2.80133E-007	-1.68088E-001	9.85336E-004	3.57730E+000	9	...........
STARTTIMEOFFSET	QUANT	1638.038	Start Time Offset (s)
