EXPLAIN
TAG	PWR800_DISCHARGE
TITLE	LABEL	PWR Cyclic Charge Discharge (Cell) - Discharge Step	Test &Identifier
DATE	LABEL	7-7-2017	Date
TIME	LABEL	16:11:09	Time
NOTES	NOTES	3	&Notes...
	supercap test cell
	2.8mg
	6M KOH
PSTAT	PSTAT	IFC5000-01520	Potentiostat
CAPACITY	QUANT	1.00000E-003	Capacity (A-hr)
CELLTYPE	SELECTOR	1	&Cell Type
WORKINGCONNECTION	SELECTOR	0	&Working Lead
MAXDISCHARGETIME	VARIABLEANDUNITS	1.00000E+002	s	1.00000E+002	second(s)	Max &Discharge Time
DISCHARGEMODE	MULTIPARAM	0	2.80000E-004	&Discharge Mode	Constant Current	Amp(s)
SAMPLETIME	QUANT	1.00000E-002	Sa&mple Period (s)
DISCHARGESTOPAT1	MULTIPARAM	3	0.00000E+000	Discharge Stop At &1	Voltage < Limit	V
DISCHARGESTOPAT2	MULTIPARAM	0	0.00000E+000	Discharge Stop At &2	None	N/A
AESBHCSELECTOR	TOGGLE	F	Save Both Half Cells
IRCOMP	TOGGLE	F	IR &Measure
EOC	QUANT	0	Open Circuit (V)
SEQUENCER	TOGGLE	TRUE	Run as Sequence
PSTATMODEL	IQUANT	53	Pstat Model
PSTATSECTION	LABEL	IFC5000-01520	Pstat Section
PSTATSERIALNO	LABEL	01520	Pstat Serial Number
CTRLMODE	IQUANT	0	Control Mode
ELECTROMETER	IQUANT	1	RE=0 or CS=1
IESTAB	IQUANT	0	I/E Stability
CASPEED	IQUANT	4	Control Amp Speed
CONVENTION	IQUANT	1	Current Convention
ICHRANGE	IQUANT	2	Ich Range
ICHRANGEMODE	TOGGLE	T	Ich Auto Range
ICHOFFSETENABLE	TOGGLE	F	Ich Offset Enable
ICHOFFSET	QUANT	0	Ich Offset (V)
ICHFILTER	IQUANT	1	Ich Filter
VCHRANGE	IQUANT	2	Vch Range
VCHRANGEMODE	TOGGLE	T	Vch Auto Range
VCHOFFSETENABLE	TOGGLE	F	Vch Offset Enable
VCHOFFSET	QUANT	0	Vch Offset (V)
VCHFILTER	IQUANT	1	Vch Filter
IERANGELOWERLIMIT	IQUANT	9	I/E Range Lower Limit
IERANGEMODE	TOGGLE	F	I/E AutoRange
IERANGE	IQUANT	9	I/E Range
ACHSELECT	IQUANT	1	Ach Select
ACHRANGE	IQUANT	2	Ach Range
ACHOFFSETENABLE	TOGGLE	F	Ach Offset Enable
ACHOFFSET	QUANT	0	Ach Offset (V)
ACHFILTER	IQUANT	1	Ach Filter
CABLEID	IQUANT	14	Cable ID
DCCALDATE	LABEL	5-7-2017	DC Calibration Date
ACCALDATE	LABEL	12/3/2015	AC Calibration Date
FRAMEWORKVERSION	QUANT	7.01	Framework Version
INSTRUMENTVERSION	LABEL	4.00	Instrument Version
CURVE	TABLE	60
	Pt	T	Vf	Im	Vu	Pwr	Sig	Ach	Temp	IERange	Over
	#	s	V	A	V	W	V	V	deg C	#	bits
	0	0.013333	5.18794E-001	-2.78303E-004	0.00000E+000	-1.44382E-004	-1.68088E-001	5.19037E-001	3.57820E+000	9	...........
	1	0.026667	4.85767E-001	-2.78059E-004	0.00000E+000	-1.35072E-004	-1.68088E-001	4.85967E-001	3.57820E+000	9	...........
	2	0.04	4.55605E-001	-2.77775E-004	0.00000E+000	-1.26555E-004	-1.68088E-001	4.55715E-001	3.57820E+000	9	...........
	3	0.053333	4.27459E-001	-2.77739E-004	0.00000E+000	-1.18722E-004	-1.68088E-001	4.27565E-001	3.57820E+000	9	...........
	4	0.066667	4.01257E-001	-2.78329E-004	0.00000E+000	-1.11681E-004	-1.68088E-001	4.01346E-001	3.57820E+000	9	...........
	5	0.08	3.76819E-001	-2.79456E-004	0.00000E+000	-1.05305E-004	-1.68088E-001	3.76905E-001	3.57820E+000	9	...........
	6	0.093333	3.54062E-001	-2.77488E-004	0.00000E+000	-9.82480E-005	-1.68088E-001	3.54146E-001	3.57820E+000	9	...........
	7	0.106667	3.32870E-001	-2.78115E-004	0.00000E+000	-9.25761E-005	-1.68088E-001	3.32946E-001	3.57820E+000	9	...........
	8	0.12	3.13137E-001	-2.78481E-004	0.00000E+000	-8.72028E-005	-1.68088E-001	3.13213E-001	3.57820E+000	9	...........
	9	0.133333	2.94783E-001	-2.78549E-004	0.00000E+000	-8.21115E-005	-1.68088E-001	2.94850E-001	3.57812E+000	9	...........
	10	0.146667	2.77776E-001	-2.79873E-004	0.00000E+000	-7.77420E-005	-1.68088E-001	2.77848E-001	3.57800E+000	9	...........
	11	0.16	2.62005E-001	-2.78609E-004	0.00000E+000	-7.29970E-005	-1.68088E-001	2.62070E-001	3.57800E+000	9	...........
	12	0.173333	2.47410E-001	-2.78313E-004	0.00000E+000	-6.88575E-005	-1.68088E-001	2.47468E-001	3.57800E+000	9	...........
	13	0.186667	2.33845E-001	-2.77781E-004	0.00000E+000	-6.49577E-005	-1.68088E-001	2.33898E-001	3.57800E+000	9	...........
	14	0.2	2.21197E-001	-2.78362E-004	0.00000E+000	-6.15730E-005	-1.68088E-001	2.21245E-001	3.57800E+000	9	...........
	15	0.213333	2.09438E-001	-2.79376E-004	0.00000E+000	-5.85120E-005	-1.68088E-001	2.09480E-001	3.57800E+000	9	...........
	16	0.226667	1.98516E-001	-2.79763E-004	0.00000E+000	-5.55374E-005	-1.68088E-001	1.98562E-001	3.57800E+000	9	...........
	17	0.24	1.88323E-001	-2.78685E-004	0.00000E+000	-5.24829E-005	-1.68088E-001	1.88369E-001	3.57800E+000	9	...........
	18	0.253333	1.78845E-001	-2.78195E-004	0.00000E+000	-4.97536E-005	-1.68088E-001	1.78887E-001	3.57800E+000	9	...........
	19	0.266667	1.69949E-001	-2.79266E-004	0.00000E+000	-4.74610E-005	-1.68088E-001	1.69991E-001	3.57800E+000	9	...........
	20	0.28	1.61584E-001	-2.78400E-004	0.00000E+000	-4.49849E-005	-1.68088E-001	1.61620E-001	3.57800E+000	9	...........
	21	0.293333	1.53702E-001	-2.78119E-004	0.00000E+000	-4.27475E-005	-1.68088E-001	1.53735E-001	3.57800E+000	9	...........
	22	0.306667	1.46280E-001	-2.78566E-004	0.00000E+000	-4.07486E-005	-1.68088E-001	1.46309E-001	3.57800E+000	9	...........
	23	0.32	1.39279E-001	-2.79640E-004	0.00000E+000	-3.89480E-005	-1.68088E-001	1.39312E-001	3.57800E+000	9	...........
	24	0.333333	1.32660E-001	-2.79384E-004	0.00000E+000	-3.70631E-005	-1.68088E-001	1.32696E-001	3.57800E+000	9	...........
	25	0.346667	1.26353E-001	-2.79798E-004	0.00000E+000	-3.53534E-005	-1.68088E-001	1.26383E-001	3.57800E+000	9	...........
	26	0.36	1.20384E-001	-2.79512E-004	0.00000E+000	-3.36487E-005	-1.68088E-001	1.20416E-001	3.57800E+000	9	...........
	27	0.373333	1.14655E-001	-2.79325E-004	0.00000E+000	-3.20261E-005	-1.68088E-001	1.14688E-001	3.57800E+000	9	...........
	28	0.386667	1.09177E-001	-2.78291E-004	0.00000E+000	-3.03831E-005	-1.68088E-001	1.09206E-001	3.57800E+000	9	...........
	29	0.4	1.03995E-001	-2.79732E-004	0.00000E+000	-2.90908E-005	-1.68088E-001	1.04023E-001	3.57800E+000	9	...........
	30	0.413333	9.90144E-002	-2.79094E-004	0.00000E+000	-2.76343E-005	-1.68088E-001	9.90359E-002	3.57800E+000	9	...........
	31	0.426667	9.41996E-002	-2.78700E-004	0.00000E+000	-2.62534E-005	-1.68088E-001	9.42212E-002	3.57800E+000	9	...........
	32	0.44	8.95746E-002	-2.78685E-004	0.00000E+000	-2.49631E-005	-1.68088E-001	8.96009E-002	3.57800E+000	9	...........
	33	0.453333	8.51302E-002	-2.78879E-004	0.00000E+000	-2.37410E-005	-1.68088E-001	8.51530E-002	3.57800E+000	9	...........
	34	0.466667	8.08067E-002	-2.79194E-004	0.00000E+000	-2.25607E-005	-1.68088E-001	8.08291E-002	3.57800E+000	9	...........
	35	0.48	7.66430E-002	-2.78686E-004	0.00000E+000	-2.13594E-005	-1.68088E-001	7.66565E-002	3.57800E+000	9	...........
	36	0.493333	7.26535E-002	-2.78758E-004	0.00000E+000	-2.02528E-005	-1.68088E-001	7.26699E-002	3.57800E+000	9	...........
	37	0.506667	6.87416E-002	-2.78806E-004	0.00000E+000	-1.91656E-005	-1.68088E-001	6.87559E-002	3.57800E+000	9	...........
	38	0.52	6.49310E-002	-2.78810E-004	0.00000E+000	-1.81034E-005	-1.68088E-001	6.49392E-002	3.57800E+000	9	...........
	39	0.533333	6.12290E-002	-2.78649E-004	0.00000E+000	-1.70614E-005	-1.68088E-001	6.12421E-002	3.57800E+000	9	...........
	40	0.546667	5.75948E-002	-2.79053E-004	0.00000E+000	-1.60720E-005	-1.68088E-001	5.76055E-002	3.57800E+000	9	...........
	41	0.56	5.40275E-002	-2.78884E-004	0.00000E+000	-1.50674E-005	-1.68088E-001	5.40346E-002	3.57800E+000	9	...........
	42	0.573333	5.05785E-002	-2.79225E-004	0.00000E+000	-1.41228E-005	-1.68088E-001	5.05834E-002	3.57800E+000	9	...........
	43	0.586667	4.72259E-002	-2.79354E-004	0.00000E+000	-1.31928E-005	-1.68088E-001	4.72320E-002	3.57800E+000	9	...........
	44	0.6	4.39434E-002	-2.77308E-004	0.00000E+000	-1.21859E-005	-1.68088E-001	4.39584E-002	3.57800E+000	9	...........
	45	0.613333	4.07357E-002	-2.79057E-004	0.00000E+000	-1.13676E-005	-1.68088E-001	4.07429E-002	3.57800E+000	9	...........
	46	0.626667	3.76250E-002	-2.79110E-004	0.00000E+000	-1.05015E-005	-1.68088E-001	3.76331E-002	3.57800E+000	9	...........
	47	0.64	3.45281E-002	-2.77686E-004	0.00000E+000	-9.58799E-006	-1.68088E-001	3.45304E-002	3.57800E+000	9	...........
	48	0.653333	3.14381E-002	-2.78365E-004	0.00000E+000	-8.75127E-006	-1.68088E-001	3.14448E-002	3.57800E+000	9	...........
	49	0.666667	2.83869E-002	-2.79457E-004	0.00000E+000	-7.93294E-006	-1.68088E-001	2.83932E-002	3.57800E+000	9	...........
	50	0.68	2.54422E-002	-2.78909E-004	0.00000E+000	-7.09608E-006	-1.68088E-001	2.54438E-002	3.57800E+000	9	...........
	51	0.693333	2.25430E-002	-2.78502E-004	0.00000E+000	-6.27827E-006	-1.68088E-001	2.25401E-002	3.57800E+000	9	...........
	52	0.706667	1.96494E-002	-2.78699E-004	0.00000E+000	-5.47626E-006	-1.68088E-001	1.96420E-002	3.57800E+000	9	...........
	53	0.72	1.68379E-002	-2.79000E-004	0.00000E+000	-4.69777E-006	-1.68088E-001	1.68301E-002	3.57800E+000	9	...........
	54	0.733333	1.40712E-002	-2.78602E-004	0.00000E+000	-3.92027E-006	-1.68088E-001	1.40582E-002	3.57800E+000	9	...........
	55	0.746667	1.13319E-002	-2.79566E-004	0.00000E+000	-3.16802E-006	-1.68088E-001	1.13223E-002	3.57800E+000	9	...........
	56	0.76	8.63108E-003	-2.80075E-004	0.00000E+000	-2.41735E-006	-1.68088E-001	8.61544E-003	3.57800E+000	9	...........
	57	0.773333	6.02481E-003	-2.79159E-004	0.00000E+000	-1.68188E-006	-1.68088E-001	6.01537E-003	3.57800E+000	9	...........
	58	0.786667	3.46397E-003	-2.78095E-004	0.00000E+000	-9.63311E-007	-1.68088E-001	3.44723E-003	3.57800E+000	9	...........
	59	0.8	8.85379E-004	-2.78643E-004	0.00000E+000	-2.46704E-007	-1.68088E-001	8.66506E-004	3.57800E+000	9	...........
STARTTIMEOFFSET	QUANT	1569.436	Start Time Offset (s)
