EXPLAIN
TAG	PWR800_DISCHARGE
TITLE	LABEL	PWR Cyclic Charge Discharge (Cell) - Discharge Step	Test &Identifier
DATE	LABEL	7-7-2017	Date
TIME	LABEL	16:02:53	Time
NOTES	NOTES	3	&Notes...
	supercap test cell
	2.8mg
	6M KOH
PSTAT	PSTAT	IFC5000-01520	Potentiostat
CAPACITY	QUANT	1.00000E-003	Capacity (A-hr)
CELLTYPE	SELECTOR	1	&Cell Type
WORKINGCONNECTION	SELECTOR	0	&Working Lead
MAXDISCHARGETIME	VARIABLEANDUNITS	1.00000E+002	s	1.00000E+002	second(s)	Max &Discharge Time
DISCHARGEMODE	MULTIPARAM	0	2.80000E-004	&Discharge Mode	Constant Current	Amp(s)
SAMPLETIME	QUANT	1.00000E-002	Sa&mple Period (s)
DISCHARGESTOPAT1	MULTIPARAM	3	0.00000E+000	Discharge Stop At &1	Voltage < Limit	V
DISCHARGESTOPAT2	MULTIPARAM	0	0.00000E+000	Discharge Stop At &2	None	N/A
AESBHCSELECTOR	TOGGLE	F	Save Both Half Cells
IRCOMP	TOGGLE	F	IR &Measure
EOC	QUANT	0	Open Circuit (V)
SEQUENCER	TOGGLE	TRUE	Run as Sequence
PSTATMODEL	IQUANT	53	Pstat Model
PSTATSECTION	LABEL	IFC5000-01520	Pstat Section
PSTATSERIALNO	LABEL	01520	Pstat Serial Number
CTRLMODE	IQUANT	0	Control Mode
ELECTROMETER	IQUANT	1	RE=0 or CS=1
IESTAB	IQUANT	0	I/E Stability
CASPEED	IQUANT	4	Control Amp Speed
CONVENTION	IQUANT	1	Current Convention
ICHRANGE	IQUANT	2	Ich Range
ICHRANGEMODE	TOGGLE	T	Ich Auto Range
ICHOFFSETENABLE	TOGGLE	F	Ich Offset Enable
ICHOFFSET	QUANT	0	Ich Offset (V)
ICHFILTER	IQUANT	1	Ich Filter
VCHRANGE	IQUANT	2	Vch Range
VCHRANGEMODE	TOGGLE	T	Vch Auto Range
VCHOFFSETENABLE	TOGGLE	F	Vch Offset Enable
VCHOFFSET	QUANT	0	Vch Offset (V)
VCHFILTER	IQUANT	1	Vch Filter
IERANGELOWERLIMIT	IQUANT	9	I/E Range Lower Limit
IERANGEMODE	TOGGLE	F	I/E AutoRange
IERANGE	IQUANT	9	I/E Range
ACHSELECT	IQUANT	1	Ach Select
ACHRANGE	IQUANT	2	Ach Range
ACHOFFSETENABLE	TOGGLE	F	Ach Offset Enable
ACHOFFSET	QUANT	0	Ach Offset (V)
ACHFILTER	IQUANT	1	Ach Filter
CABLEID	IQUANT	14	Cable ID
DCCALDATE	LABEL	5-7-2017	DC Calibration Date
ACCALDATE	LABEL	12/3/2015	AC Calibration Date
FRAMEWORKVERSION	QUANT	7.01	Framework Version
INSTRUMENTVERSION	LABEL	4.00	Instrument Version
CURVE	TABLE	67
	Pt	T	Vf	Im	Vu	Pwr	Sig	Ach	Temp	IERange	Over
	#	s	V	A	V	W	V	V	deg C	#	bits
	0	0.013333	5.32987E-001	-2.79761E-004	0.00000E+000	-1.49109E-004	-1.68088E-001	5.33239E-001	3.57890E+000	9	...........
	1	0.026667	5.00231E-001	-2.78904E-004	0.00000E+000	-1.39517E-004	-1.68088E-001	5.00470E-001	3.57890E+000	9	...........
	2	0.04	4.70520E-001	-2.78507E-004	0.00000E+000	-1.31043E-004	-1.68088E-001	4.70650E-001	3.57890E+000	9	...........
	3	0.053333	4.42745E-001	-2.78229E-004	0.00000E+000	-1.23185E-004	-1.68088E-001	4.42858E-001	3.57890E+000	9	...........
	4	0.066667	4.16817E-001	-2.78860E-004	0.00000E+000	-1.16234E-004	-1.68088E-001	4.16918E-001	3.57890E+000	9	...........
	5	0.08	3.92606E-001	-2.79705E-004	0.00000E+000	-1.09814E-004	-1.68088E-001	3.92700E-001	3.57890E+000	9	...........
	6	0.093333	3.70028E-001	-2.79127E-004	0.00000E+000	-1.03285E-004	-1.68088E-001	3.70116E-001	3.57890E+000	9	...........
	7	0.106667	3.48996E-001	-2.79344E-004	0.00000E+000	-9.74898E-005	-1.68088E-001	3.49087E-001	3.57890E+000	9	...........
	8	0.12	3.29418E-001	-2.78229E-004	0.00000E+000	-9.16537E-005	-1.68088E-001	3.29503E-001	3.57890E+000	9	...........
	9	0.133333	3.11211E-001	-2.78471E-004	0.00000E+000	-8.66631E-005	-1.68088E-001	3.11288E-001	3.57890E+000	9	...........
	10	0.146667	2.94300E-001	-2.78297E-004	0.00000E+000	-8.19027E-005	-1.68088E-001	2.94375E-001	3.57890E+000	9	...........
	11	0.16	2.78631E-001	-2.79650E-004	0.00000E+000	-7.79193E-005	-1.68088E-001	2.78700E-001	3.57890E+000	9	...........
	12	0.173333	2.64090E-001	-2.78455E-004	0.00000E+000	-7.35373E-005	-1.68088E-001	2.64160E-001	3.57890E+000	9	...........
	13	0.186667	2.50597E-001	-2.79057E-004	0.00000E+000	-6.99308E-005	-1.68088E-001	2.50665E-001	3.57890E+000	9	...........
	14	0.2	2.38032E-001	-2.78106E-004	0.00000E+000	-6.61980E-005	-1.68088E-001	2.38094E-001	3.57890E+000	9	...........
	15	0.213333	2.26331E-001	-2.77379E-004	0.00000E+000	-6.27795E-005	-1.68088E-001	2.26390E-001	3.57890E+000	9	...........
	16	0.226667	2.15417E-001	-2.79385E-004	0.00000E+000	-6.01845E-005	-1.68088E-001	2.15473E-001	3.57890E+000	9	...........
	17	0.24	2.05246E-001	-2.78274E-004	0.00000E+000	-5.71146E-005	-1.68088E-001	2.05302E-001	3.57890E+000	9	...........
	18	0.253333	1.95748E-001	-2.79040E-004	0.00000E+000	-5.46213E-005	-1.68088E-001	1.95799E-001	3.57890E+000	9	...........
	19	0.266667	1.86837E-001	-2.78359E-004	0.00000E+000	-5.20079E-005	-1.68088E-001	1.86893E-001	3.57890E+000	9	...........
	20	0.28	1.78507E-001	-2.79047E-004	0.00000E+000	-4.98117E-005	-1.68088E-001	1.78558E-001	3.57890E+000	9	...........
	21	0.293333	1.70610E-001	-2.78951E-004	0.00000E+000	-4.75918E-005	-1.68088E-001	1.70657E-001	3.57890E+000	9	...........
	22	0.306667	1.63184E-001	-2.78430E-004	0.00000E+000	-4.54353E-005	-1.68088E-001	1.63226E-001	3.57890E+000	9	...........
	23	0.32	1.56218E-001	-2.79192E-004	0.00000E+000	-4.36149E-005	-1.68088E-001	1.56254E-001	3.57890E+000	9	...........
	24	0.333333	1.49568E-001	-2.79164E-004	0.00000E+000	-4.17539E-005	-1.68088E-001	1.49607E-001	3.57890E+000	9	...........
	25	0.346667	1.43266E-001	-2.78027E-004	0.00000E+000	-3.98319E-005	-1.68088E-001	1.43303E-001	3.57890E+000	9	...........
	26	0.36	1.37262E-001	-2.79996E-004	0.00000E+000	-3.84327E-005	-1.68088E-001	1.37296E-001	3.57890E+000	9	...........
	27	0.373333	1.31506E-001	-2.79528E-004	0.00000E+000	-3.67597E-005	-1.68088E-001	1.31542E-001	3.57890E+000	9	...........
	28	0.386667	1.26049E-001	-2.78920E-004	0.00000E+000	-3.51576E-005	-1.68088E-001	1.26080E-001	3.57890E+000	9	...........
	29	0.4	1.20785E-001	-2.78608E-004	0.00000E+000	-3.36518E-005	-1.68088E-001	1.20815E-001	3.57890E+000	9	...........
	30	0.413333	1.15780E-001	-2.78371E-004	0.00000E+000	-3.22299E-005	-1.68088E-001	1.15816E-001	3.57890E+000	9	...........
	31	0.426667	1.10940E-001	-2.77976E-004	0.00000E+000	-3.08385E-005	-1.68088E-001	1.10974E-001	3.57890E+000	9	...........
	32	0.44	1.06247E-001	-2.79368E-004	0.00000E+000	-2.96819E-005	-1.68088E-001	1.06278E-001	3.57852E+000	9	...........
	33	0.453333	1.01753E-001	-2.79466E-004	0.00000E+000	-2.84364E-005	-1.68088E-001	1.01785E-001	3.57740E+000	9	...........
	34	0.466667	9.74141E-002	-2.79381E-004	0.00000E+000	-2.72157E-005	-1.68088E-001	9.74406E-002	3.57740E+000	9	...........
	35	0.48	9.32053E-002	-2.79440E-004	0.00000E+000	-2.60452E-005	-1.68088E-001	9.32308E-002	3.57740E+000	9	...........
	36	0.493333	8.90981E-002	-2.79016E-004	0.00000E+000	-2.48598E-005	-1.68088E-001	8.91232E-002	3.57740E+000	9	...........
	37	0.506667	8.51071E-002	-2.79170E-004	0.00000E+000	-2.37593E-005	-1.68088E-001	8.51226E-002	3.57740E+000	9	...........
	38	0.52	8.12560E-002	-2.77581E-004	0.00000E+000	-2.25551E-005	-1.68088E-001	8.12718E-002	3.57740E+000	9	...........
	39	0.533333	7.75371E-002	-2.79090E-004	0.00000E+000	-2.16398E-005	-1.68088E-001	7.75538E-002	3.57740E+000	9	...........
	40	0.546667	7.38730E-002	-2.77635E-004	0.00000E+000	-2.05097E-005	-1.68088E-001	7.38859E-002	3.57740E+000	9	...........
	41	0.56	7.03050E-002	-2.78247E-004	0.00000E+000	-1.95621E-005	-1.68088E-001	7.03240E-002	3.57740E+000	9	...........
	42	0.573333	6.68080E-002	-2.79269E-004	0.00000E+000	-1.86574E-005	-1.68088E-001	6.68204E-002	3.57740E+000	9	...........
	43	0.586667	6.34174E-002	-2.80219E-004	0.00000E+000	-1.77708E-005	-1.68088E-001	6.34291E-002	3.57740E+000	9	...........
	44	0.6	6.01076E-002	-2.78861E-004	0.00000E+000	-1.67617E-005	-1.68088E-001	6.01210E-002	3.57740E+000	9	...........
	45	0.613333	5.68226E-002	-2.77652E-004	0.00000E+000	-1.57769E-005	-1.68088E-001	5.68367E-002	3.57740E+000	9	...........
	46	0.626667	5.36222E-002	-2.77732E-004	0.00000E+000	-1.48926E-005	-1.68088E-001	5.36286E-002	3.57740E+000	9	...........
	47	0.64	5.04586E-002	-2.78058E-004	0.00000E+000	-1.40304E-005	-1.68088E-001	5.04721E-002	3.57740E+000	9	...........
	48	0.653333	4.74008E-002	-2.79276E-004	0.00000E+000	-1.32379E-005	-1.68088E-001	4.74109E-002	3.57740E+000	9	...........
	49	0.666667	4.43911E-002	-2.78853E-004	0.00000E+000	-1.23786E-005	-1.68088E-001	4.44028E-002	3.57740E+000	9	...........
	50	0.68	4.13859E-002	-2.79203E-004	0.00000E+000	-1.15551E-005	-1.68088E-001	4.13961E-002	3.57740E+000	9	...........
	51	0.693333	3.84504E-002	-2.80006E-004	0.00000E+000	-1.07664E-005	-1.68088E-001	3.84555E-002	3.57740E+000	9	...........
	52	0.706667	3.55856E-002	-2.78933E-004	0.00000E+000	-9.92602E-006	-1.68088E-001	3.55911E-002	3.57740E+000	9	...........
	53	0.72	3.27857E-002	-2.78777E-004	0.00000E+000	-9.13991E-006	-1.68088E-001	3.27970E-002	3.57740E+000	9	...........
	54	0.733333	2.99871E-002	-2.79384E-004	0.00000E+000	-8.37793E-006	-1.68088E-001	2.99944E-002	3.57740E+000	9	...........
	55	0.746667	2.72508E-002	-2.78423E-004	0.00000E+000	-7.58725E-006	-1.68088E-001	2.72531E-002	3.57740E+000	9	...........
	56	0.76	2.45614E-002	-2.78374E-004	0.00000E+000	-6.83725E-006	-1.68088E-001	2.45593E-002	3.57740E+000	9	...........
	57	0.773333	2.19097E-002	-2.78603E-004	0.00000E+000	-6.10410E-006	-1.68088E-001	2.19114E-002	3.57740E+000	9	...........
	58	0.786667	1.93212E-002	-2.78679E-004	0.00000E+000	-5.38442E-006	-1.68088E-001	1.93188E-002	3.57740E+000	9	...........
	59	0.8	1.67083E-002	-2.79305E-004	0.00000E+000	-4.66672E-006	-1.68088E-001	1.67046E-002	3.57740E+000	9	...........
	60	0.813333	1.40846E-002	-2.78814E-004	0.00000E+000	-3.92697E-006	-1.68088E-001	1.40784E-002	3.57740E+000	9	...........
	61	0.826667	1.15854E-002	-2.79268E-004	0.00000E+000	-3.23542E-006	-1.68088E-001	1.15775E-002	3.57740E+000	9	...........
	62	0.84	9.10679E-003	-2.77972E-004	0.00000E+000	-2.53143E-006	-1.68088E-001	9.09690E-003	3.57740E+000	9	...........
	63	0.853333	6.69788E-003	-2.77712E-004	0.00000E+000	-1.86008E-006	-1.68088E-001	6.68601E-003	3.57740E+000	9	...........
	64	0.866667	4.29190E-003	-2.78780E-004	0.00000E+000	-1.19650E-006	-1.68088E-001	4.27509E-003	3.57740E+000	9	...........
	65	0.88	1.84674E-003	-2.78399E-004	0.00000E+000	-5.14130E-007	-1.68088E-001	1.83384E-003	3.57740E+000	9	...........
	66	0.885	1.51366E-004	-2.78581E-004	0.00000E+000	-4.21676E-008	-1.68088E-001	1.34220E-004	3.57740E+000	9	...........
STARTTIMEOFFSET	QUANT	1230.574	Start Time Offset (s)
