EXPLAIN
TAG	PWR800_DISCHARGE
TITLE	LABEL	PWR Cyclic Charge Discharge (Cell) - Discharge Step	Test &Identifier
DATE	LABEL	7-7-2017	Date
TIME	LABEL	15:43:43	Time
NOTES	NOTES	3	&Notes...
	supercap test cell
	2.8mg
	6M KOH
PSTAT	PSTAT	IFC5000-01520	Potentiostat
CAPACITY	QUANT	1.00000E-003	Capacity (A-hr)
CELLTYPE	SELECTOR	1	&Cell Type
WORKINGCONNECTION	SELECTOR	0	&Working Lead
MAXDISCHARGETIME	VARIABLEANDUNITS	1.00000E+002	s	1.00000E+002	second(s)	Max &Discharge Time
DISCHARGEMODE	MULTIPARAM	0	2.80000E-004	&Discharge Mode	Constant Current	Amp(s)
SAMPLETIME	QUANT	1.00000E-002	Sa&mple Period (s)
DISCHARGESTOPAT1	MULTIPARAM	3	0.00000E+000	Discharge Stop At &1	Voltage < Limit	V
DISCHARGESTOPAT2	MULTIPARAM	0	0.00000E+000	Discharge Stop At &2	None	N/A
AESBHCSELECTOR	TOGGLE	F	Save Both Half Cells
IRCOMP	TOGGLE	F	IR &Measure
EOC	QUANT	0	Open Circuit (V)
SEQUENCER	TOGGLE	TRUE	Run as Sequence
PSTATMODEL	IQUANT	53	Pstat Model
PSTATSECTION	LABEL	IFC5000-01520	Pstat Section
PSTATSERIALNO	LABEL	01520	Pstat Serial Number
CTRLMODE	IQUANT	0	Control Mode
ELECTROMETER	IQUANT	1	RE=0 or CS=1
IESTAB	IQUANT	0	I/E Stability
CASPEED	IQUANT	4	Control Amp Speed
CONVENTION	IQUANT	1	Current Convention
ICHRANGE	IQUANT	2	Ich Range
ICHRANGEMODE	TOGGLE	T	Ich Auto Range
ICHOFFSETENABLE	TOGGLE	F	Ich Offset Enable
ICHOFFSET	QUANT	0	Ich Offset (V)
ICHFILTER	IQUANT	1	Ich Filter
VCHRANGE	IQUANT	2	Vch Range
VCHRANGEMODE	TOGGLE	T	Vch Auto Range
VCHOFFSETENABLE	TOGGLE	F	Vch Offset Enable
VCHOFFSET	QUANT	0	Vch Offset (V)
VCHFILTER	IQUANT	1	Vch Filter
IERANGELOWERLIMIT	IQUANT	9	I/E Range Lower Limit
IERANGEMODE	TOGGLE	F	I/E AutoRange
IERANGE	IQUANT	9	I/E Range
ACHSELECT	IQUANT	1	Ach Select
ACHRANGE	IQUANT	2	Ach Range
ACHOFFSETENABLE	TOGGLE	F	Ach Offset Enable
ACHOFFSET	QUANT	0	Ach Offset (V)
ACHFILTER	IQUANT	1	Ach Filter
CABLEID	IQUANT	14	Cable ID
DCCALDATE	LABEL	5-7-2017	DC Calibration Date
ACCALDATE	LABEL	12/3/2015	AC Calibration Date
FRAMEWORKVERSION	QUANT	7.01	Framework Version
INSTRUMENTVERSION	LABEL	4.00	Instrument Version
CURVE	TABLE	111
	Pt	T	Vf	Im	Vu	Pwr	Sig	Ach	Temp	IERange	Over
	#	s	V	A	V	W	V	V	deg C	#	bits
	0	0.013333	5.55358E-001	-2.78588E-004	0.00000E+000	-1.54716E-004	-1.68088E-001	5.55622E-001	3.57860E+000	9	...........
	1	0.026667	5.26460E-001	-2.78279E-004	0.00000E+000	-1.46503E-004	-1.68088E-001	5.26700E-001	3.57860E+000	9	...........
	2	0.04	5.00465E-001	-2.78889E-004	0.00000E+000	-1.39574E-004	-1.68088E-001	5.00714E-001	3.57860E+000	9	...........
	3	0.053333	4.77075E-001	-2.78510E-004	0.00000E+000	-1.32870E-004	-1.68088E-001	4.77214E-001	3.57860E+000	9	...........
	4	0.066667	4.55425E-001	-2.78867E-004	0.00000E+000	-1.27003E-004	-1.68088E-001	4.55538E-001	3.57860E+000	9	...........
	5	0.08	4.35346E-001	-2.79446E-004	0.00000E+000	-1.21656E-004	-1.68088E-001	4.35457E-001	3.57860E+000	9	...........
	6	0.093333	4.16812E-001	-2.79573E-004	0.00000E+000	-1.16529E-004	-1.68088E-001	4.16913E-001	3.57860E+000	9	...........
	7	0.106667	3.99635E-001	-2.78247E-004	0.00000E+000	-1.11197E-004	-1.68088E-001	3.99732E-001	3.57860E+000	9	...........
	8	0.12	3.83685E-001	-2.79144E-004	0.00000E+000	-1.07103E-004	-1.68088E-001	3.83774E-001	3.57860E+000	9	...........
	9	0.133333	3.68897E-001	-2.79904E-004	0.00000E+000	-1.03256E-004	-1.68088E-001	3.68985E-001	3.57860E+000	9	...........
	10	0.146667	3.55133E-001	-2.78603E-004	0.00000E+000	-9.89410E-005	-1.68088E-001	3.55217E-001	3.57860E+000	9	...........
	11	0.16	3.42315E-001	-2.79101E-004	0.00000E+000	-9.55404E-005	-1.68088E-001	3.42395E-001	3.57860E+000	9	...........
	12	0.173333	3.30347E-001	-2.78806E-004	0.00000E+000	-9.21027E-005	-1.68088E-001	3.30424E-001	3.57860E+000	9	...........
	13	0.186667	3.19236E-001	-2.79062E-004	0.00000E+000	-8.90868E-005	-1.68088E-001	3.19313E-001	3.57860E+000	9	...........
	14	0.2	3.08806E-001	-2.79472E-004	0.00000E+000	-8.63025E-005	-1.68088E-001	3.08882E-001	3.57860E+000	9	...........
	15	0.213333	2.99031E-001	-2.79811E-004	0.00000E+000	-8.36721E-005	-1.68088E-001	2.99108E-001	3.57860E+000	9	...........
	16	0.226667	2.89870E-001	-2.78837E-004	0.00000E+000	-8.08267E-005	-1.68088E-001	2.89941E-001	3.57860E+000	9	...........
	17	0.24	2.81265E-001	-2.79620E-004	0.00000E+000	-7.86474E-005	-1.68088E-001	2.81329E-001	3.57860E+000	9	...........
	18	0.253333	2.73117E-001	-2.78849E-004	0.00000E+000	-7.61584E-005	-1.68088E-001	2.73182E-001	3.57860E+000	9	...........
	19	0.266667	2.65438E-001	-2.79153E-004	0.00000E+000	-7.40980E-005	-1.68088E-001	2.65508E-001	3.57860E+000	9	...........
	20	0.28	2.58173E-001	-2.79101E-004	0.00000E+000	-7.20564E-005	-1.68088E-001	2.58233E-001	3.57860E+000	9	...........
	21	0.293333	2.51278E-001	-2.78823E-004	0.00000E+000	-7.00621E-005	-1.68088E-001	2.51345E-001	3.57860E+000	9	...........
	22	0.306667	2.44761E-001	-2.78397E-004	0.00000E+000	-6.81407E-005	-1.68088E-001	2.44814E-001	3.57860E+000	9	...........
	23	0.32	2.38532E-001	-2.79358E-004	0.00000E+000	-6.66358E-005	-1.68088E-001	2.38583E-001	3.57860E+000	9	...........
	24	0.333333	2.32606E-001	-2.79329E-004	0.00000E+000	-6.49736E-005	-1.68088E-001	2.32653E-001	3.57860E+000	9	...........
	25	0.346667	2.26898E-001	-2.79179E-004	0.00000E+000	-6.33453E-005	-1.68088E-001	2.26951E-001	3.57860E+000	9	...........
	26	0.36	2.21430E-001	-2.79080E-004	0.00000E+000	-6.17967E-005	-1.68088E-001	2.21483E-001	3.57860E+000	9	...........
	27	0.373333	2.16168E-001	-2.79756E-004	0.00000E+000	-6.04744E-005	-1.68088E-001	2.16216E-001	3.57860E+000	9	...........
	28	0.386667	2.11138E-001	-2.78805E-004	0.00000E+000	-5.88665E-005	-1.68088E-001	2.11189E-001	3.57860E+000	9	...........
	29	0.4	2.06297E-001	-2.79594E-004	0.00000E+000	-5.76794E-005	-1.68088E-001	2.06346E-001	3.57860E+000	9	...........
	30	0.413333	2.01601E-001	-2.79308E-004	0.00000E+000	-5.63089E-005	-1.68088E-001	2.01653E-001	3.57860E+000	9	...........
	31	0.426667	1.97058E-001	-2.78502E-004	0.00000E+000	-5.48812E-005	-1.68088E-001	1.97104E-001	3.57860E+000	9	...........
	32	0.44	1.92739E-001	-2.79241E-004	0.00000E+000	-5.38206E-005	-1.68088E-001	1.92786E-001	3.57860E+000	9	...........
	33	0.453333	1.88495E-001	-2.79536E-004	0.00000E+000	-5.26911E-005	-1.68088E-001	1.88545E-001	3.57860E+000	9	...........
	34	0.466667	1.84443E-001	-2.78613E-004	0.00000E+000	-5.13883E-005	-1.68088E-001	1.84487E-001	3.57860E+000	9	...........
	35	0.48	1.80522E-001	-2.79475E-004	0.00000E+000	-5.04513E-005	-1.68088E-001	1.80572E-001	3.57860E+000	9	...........
	36	0.493333	1.76677E-001	-2.80324E-004	0.00000E+000	-4.95269E-005	-1.68088E-001	1.76719E-001	3.57860E+000	9	...........
	37	0.506667	1.72873E-001	-2.79416E-004	0.00000E+000	-4.83035E-005	-1.68088E-001	1.72918E-001	3.57860E+000	9	...........
	38	0.52	1.69163E-001	-2.79151E-004	0.00000E+000	-4.72220E-005	-1.68088E-001	1.69205E-001	3.57860E+000	9	...........
	39	0.533333	1.65572E-001	-2.78994E-004	0.00000E+000	-4.61936E-005	-1.68088E-001	1.65609E-001	3.57860E+000	9	...........
	40	0.546667	1.62118E-001	-2.79373E-004	0.00000E+000	-4.52913E-005	-1.68088E-001	1.62155E-001	3.57860E+000	9	...........
	41	0.56	1.58758E-001	-2.79110E-004	0.00000E+000	-4.43110E-005	-1.68088E-001	1.58794E-001	3.57860E+000	9	...........
	42	0.573333	1.55403E-001	-2.79078E-004	0.00000E+000	-4.33696E-005	-1.68088E-001	1.55432E-001	3.57860E+000	9	...........
	43	0.586667	1.52087E-001	-2.78556E-004	0.00000E+000	-4.23647E-005	-1.68088E-001	1.52124E-001	3.57860E+000	9	...........
	44	0.6	1.48864E-001	-2.78758E-004	0.00000E+000	-4.14971E-005	-1.68088E-001	1.48902E-001	3.57860E+000	9	...........
	45	0.613333	1.45709E-001	-2.79360E-004	0.00000E+000	-4.07053E-005	-1.68088E-001	1.45741E-001	3.57860E+000	9	...........
	46	0.626667	1.42613E-001	-2.78592E-004	0.00000E+000	-3.97307E-005	-1.68088E-001	1.42645E-001	3.57860E+000	9	...........
	47	0.64	1.39564E-001	-2.79764E-004	0.00000E+000	-3.90450E-005	-1.68088E-001	1.39595E-001	3.57860E+000	9	...........
	48	0.653333	1.36555E-001	-2.79182E-004	0.00000E+000	-3.81238E-005	-1.68088E-001	1.36587E-001	3.57860E+000	9	...........
	49	0.666667	1.33569E-001	-2.79266E-004	0.00000E+000	-3.73011E-005	-1.68088E-001	1.33599E-001	3.57860E+000	9	...........
	50	0.68	1.30655E-001	-2.79101E-004	0.00000E+000	-3.64659E-005	-1.68088E-001	1.30686E-001	3.57860E+000	9	...........
	51	0.693333	1.27793E-001	-2.79073E-004	0.00000E+000	-3.56635E-005	-1.68088E-001	1.27820E-001	3.57860E+000	9	...........
	52	0.706667	1.24926E-001	-2.80115E-004	0.00000E+000	-3.49937E-005	-1.68088E-001	1.24954E-001	3.57860E+000	9	...........
	53	0.72	1.22119E-001	-2.78553E-004	0.00000E+000	-3.40166E-005	-1.68088E-001	1.22148E-001	3.57860E+000	9	...........
	54	0.733333	1.19414E-001	-2.79196E-004	0.00000E+000	-3.33398E-005	-1.68088E-001	1.19449E-001	3.57860E+000	9	...........
	55	0.746667	1.16723E-001	-2.79218E-004	0.00000E+000	-3.25912E-005	-1.68088E-001	1.16748E-001	3.57860E+000	9	...........
	56	0.76	1.14034E-001	-2.79245E-004	0.00000E+000	-3.18433E-005	-1.68088E-001	1.14061E-001	3.57860E+000	9	...........
	57	0.773333	1.11385E-001	-2.78654E-004	0.00000E+000	-3.10378E-005	-1.68088E-001	1.11416E-001	3.57860E+000	9	...........
	58	0.786667	1.08781E-001	-2.79576E-004	0.00000E+000	-3.04126E-005	-1.68088E-001	1.08811E-001	3.57930E+000	9	...........
	59	0.8	1.06168E-001	-2.78951E-004	0.00000E+000	-2.96158E-005	-1.68088E-001	1.06202E-001	3.57940E+000	9	...........
	60	0.813333	1.03548E-001	-2.79198E-004	0.00000E+000	-2.89103E-005	-1.68088E-001	1.03571E-001	3.57940E+000	9	...........
	61	0.826667	1.00965E-001	-2.78924E-004	0.00000E+000	-2.81616E-005	-1.68088E-001	1.00988E-001	3.57940E+000	9	...........
	62	0.84	9.84488E-002	-2.78894E-004	0.00000E+000	-2.74568E-005	-1.68088E-001	9.84809E-002	3.57940E+000	9	...........
	63	0.853333	9.59980E-002	-2.78964E-004	0.00000E+000	-2.67799E-005	-1.68088E-001	9.60255E-002	3.57940E+000	9	...........
	64	0.866667	9.35644E-002	-2.79151E-004	0.00000E+000	-2.61186E-005	-1.68088E-001	9.35922E-002	3.57940E+000	9	...........
	65	0.88	9.10813E-002	-2.78634E-004	0.00000E+000	-2.53784E-005	-1.68088E-001	9.11101E-002	3.57940E+000	9	...........
	66	0.893333	8.86856E-002	-2.79125E-004	0.00000E+000	-2.47544E-005	-1.68088E-001	8.87154E-002	3.57940E+000	9	...........
	67	0.906667	8.63521E-002	-2.78950E-004	0.00000E+000	-2.40879E-005	-1.68088E-001	8.63774E-002	3.57940E+000	9	...........
	68	0.92	8.40488E-002	-2.78939E-004	0.00000E+000	-2.34445E-005	-1.68088E-001	8.40696E-002	3.57940E+000	9	...........
	69	0.933333	8.17524E-002	-2.79183E-004	0.00000E+000	-2.28239E-005	-1.68088E-001	8.17699E-002	3.57940E+000	9	...........
	70	0.946667	7.94938E-002	-2.79355E-004	0.00000E+000	-2.22070E-005	-1.68088E-001	7.95093E-002	3.57940E+000	9	...........
	71	0.96	7.72554E-002	-2.78607E-004	0.00000E+000	-2.15239E-005	-1.68088E-001	7.72707E-002	3.57940E+000	9	...........
	72	0.97333	7.49950E-002	-2.77854E-004	0.00000E+000	-2.08377E-005	-1.68088E-001	7.50136E-002	3.57940E+000	9	...........
	73	0.98667	7.27765E-002	-2.79083E-004	0.00000E+000	-2.03107E-005	-1.68088E-001	7.27904E-002	3.57940E+000	9	...........
	74	1	7.05859E-002	-2.79041E-004	0.00000E+000	-1.96963E-005	-1.68088E-001	7.06019E-002	3.57940E+000	9	...........
	75	1.01333	6.83399E-002	-2.79034E-004	0.00000E+000	-1.90692E-005	-1.68088E-001	6.83555E-002	3.57940E+000	9	...........
	76	1.02667	6.61635E-002	-2.79661E-004	0.00000E+000	-1.85033E-005	-1.68088E-001	6.61771E-002	3.57940E+000	9	...........
	77	1.04	6.40291E-002	-2.79390E-004	0.00000E+000	-1.78891E-005	-1.68088E-001	6.40391E-002	3.57940E+000	9	...........
	78	1.05333	6.18725E-002	-2.79070E-004	0.00000E+000	-1.72668E-005	-1.68088E-001	6.18880E-002	3.57940E+000	9	...........
	79	1.06667	5.97182E-002	-2.79548E-004	0.00000E+000	-1.66941E-005	-1.68088E-001	5.97338E-002	3.57940E+000	9	...........
	80	1.08	5.75866E-002	-2.78332E-004	0.00000E+000	-1.60282E-005	-1.68088E-001	5.75990E-002	3.57940E+000	9	...........
	81	1.09333	5.54700E-002	-2.78901E-004	0.00000E+000	-1.54706E-005	-1.68088E-001	5.54868E-002	3.57940E+000	9	...........
	82	1.10667	5.34036E-002	-2.79461E-004	0.00000E+000	-1.49242E-005	-1.68088E-001	5.34151E-002	3.57940E+000	9	...........
	83	1.12	5.13659E-002	-2.78790E-004	0.00000E+000	-1.43203E-005	-1.68088E-001	5.13808E-002	3.57940E+000	9	...........
	84	1.13333	4.93138E-002	-2.78761E-004	0.00000E+000	-1.37468E-005	-1.68088E-001	4.93179E-002	3.57940E+000	9	...........
	85	1.14667	4.72715E-002	-2.79272E-004	0.00000E+000	-1.32016E-005	-1.68088E-001	4.72828E-002	3.57940E+000	9	...........
	86	1.16	4.52381E-002	-2.78580E-004	0.00000E+000	-1.26024E-005	-1.68088E-001	4.52473E-002	3.57940E+000	9	...........
	87	1.17333	4.32327E-002	-2.79270E-004	0.00000E+000	-1.20736E-005	-1.68088E-001	4.32414E-002	3.57940E+000	9	...........
	88	1.18667	4.12393E-002	-2.79795E-004	0.00000E+000	-1.15385E-005	-1.68088E-001	4.12431E-002	3.57940E+000	9	...........
	89	1.2	3.92356E-002	-2.77519E-004	0.00000E+000	-1.08887E-005	-1.68088E-001	3.92390E-002	3.57940E+000	9	...........
	90	1.21333	3.72379E-002	-2.79494E-004	0.00000E+000	-1.04078E-005	-1.68088E-001	3.72453E-002	3.57940E+000	9	...........
	91	1.22667	3.53177E-002	-2.79374E-004	0.00000E+000	-9.86686E-006	-1.68088E-001	3.53216E-002	3.57940E+000	9	...........
	92	1.24	3.34141E-002	-2.78587E-004	0.00000E+000	-9.30874E-006	-1.68088E-001	3.34183E-002	3.57940E+000	9	...........
	93	1.25333	3.14991E-002	-2.78800E-004	0.00000E+000	-8.78196E-006	-1.68088E-001	3.15006E-002	3.57940E+000	9	...........
	94	1.26667	2.96013E-002	-2.78765E-004	0.00000E+000	-8.25180E-006	-1.68088E-001	2.96054E-002	3.57940E+000	9	...........
	95	1.28	2.77363E-002	-2.79000E-004	0.00000E+000	-7.73842E-006	-1.68088E-001	2.77314E-002	3.57940E+000	9	...........
	96	1.29333	2.58153E-002	-2.79003E-004	0.00000E+000	-7.20254E-006	-1.68088E-001	2.58165E-002	3.57940E+000	9	...........
	97	1.30667	2.39022E-002	-2.79031E-004	0.00000E+000	-6.66947E-006	-1.68088E-001	2.38965E-002	3.57940E+000	9	...........
	98	1.32	2.19897E-002	-2.79817E-004	0.00000E+000	-6.15307E-006	-1.68088E-001	2.19817E-002	3.57940E+000	9	...........
	99	1.33333	2.00943E-002	-2.78980E-004	0.00000E+000	-5.60592E-006	-1.68088E-001	2.00887E-002	3.57940E+000	9	...........
	100	1.34667	1.82264E-002	-2.78736E-004	0.00000E+000	-5.08035E-006	-1.68088E-001	1.82204E-002	3.57940E+000	9	...........
	101	1.36	1.63590E-002	-2.79166E-004	0.00000E+000	-4.56687E-006	-1.68088E-001	1.63521E-002	3.57940E+000	9	...........
	102	1.37333	1.45508E-002	-2.78456E-004	0.00000E+000	-4.05176E-006	-1.68088E-001	1.45360E-002	3.57940E+000	9	...........
	103	1.38667	1.27634E-002	-2.78868E-004	0.00000E+000	-3.55931E-006	-1.68088E-001	1.27504E-002	3.57940E+000	9	...........
	104	1.4	1.10088E-002	-2.78855E-004	0.00000E+000	-3.06985E-006	-1.68088E-001	1.09948E-002	3.57940E+000	9	...........
	105	1.41333	9.26525E-003	-2.79270E-004	0.00000E+000	-2.58751E-006	-1.68088E-001	9.25426E-003	3.57940E+000	9	...........
	106	1.42667	7.47807E-003	-2.79189E-004	0.00000E+000	-2.08779E-006	-1.68088E-001	7.46301E-003	3.57940E+000	9	...........
	107	1.44	5.67247E-003	-2.78606E-004	0.00000E+000	-1.58038E-006	-1.68088E-001	5.65259E-003	3.57940E+000	9	...........
	108	1.45333	3.82581E-003	-2.79201E-004	0.00000E+000	-1.06817E-006	-1.68088E-001	3.80629E-003	3.57940E+000	9	...........
	109	1.46667	2.07141E-003	-2.78727E-004	0.00000E+000	-5.77358E-007	-1.68088E-001	2.04979E-003	3.57940E+000	9	...........
	110	1.47667	5.15200E-004	-2.78849E-004	0.00000E+000	-1.43663E-007	-1.68088E-001	4.95966E-004	3.57940E+000	9	...........
STARTTIMEOFFSET	QUANT	380.7334	Start Time Offset (s)
