EXPLAIN
TAG	PWR800_DISCHARGE
TITLE	LABEL	PWR Cyclic Charge Discharge (Cell) - Discharge Step	Test &Identifier
DATE	LABEL	7-7-2017	Date
TIME	LABEL	16:10:05	Time
NOTES	NOTES	3	&Notes...
	supercap test cell
	2.8mg
	6M KOH
PSTAT	PSTAT	IFC5000-01520	Potentiostat
CAPACITY	QUANT	1.00000E-003	Capacity (A-hr)
CELLTYPE	SELECTOR	1	&Cell Type
WORKINGCONNECTION	SELECTOR	0	&Working Lead
MAXDISCHARGETIME	VARIABLEANDUNITS	1.00000E+002	s	1.00000E+002	second(s)	Max &Discharge Time
DISCHARGEMODE	MULTIPARAM	0	2.80000E-004	&Discharge Mode	Constant Current	Amp(s)
SAMPLETIME	QUANT	1.00000E-002	Sa&mple Period (s)
DISCHARGESTOPAT1	MULTIPARAM	3	0.00000E+000	Discharge Stop At &1	Voltage < Limit	V
DISCHARGESTOPAT2	MULTIPARAM	0	0.00000E+000	Discharge Stop At &2	None	N/A
AESBHCSELECTOR	TOGGLE	F	Save Both Half Cells
IRCOMP	TOGGLE	F	IR &Measure
EOC	QUANT	0	Open Circuit (V)
SEQUENCER	TOGGLE	TRUE	Run as Sequence
PSTATMODEL	IQUANT	53	Pstat Model
PSTATSECTION	LABEL	IFC5000-01520	Pstat Section
PSTATSERIALNO	LABEL	01520	Pstat Serial Number
CTRLMODE	IQUANT	0	Control Mode
ELECTROMETER	IQUANT	1	RE=0 or CS=1
IESTAB	IQUANT	0	I/E Stability
CASPEED	IQUANT	4	Control Amp Speed
CONVENTION	IQUANT	1	Current Convention
ICHRANGE	IQUANT	2	Ich Range
ICHRANGEMODE	TOGGLE	T	Ich Auto Range
ICHOFFSETENABLE	TOGGLE	F	Ich Offset Enable
ICHOFFSET	QUANT	0	Ich Offset (V)
ICHFILTER	IQUANT	1	Ich Filter
VCHRANGE	IQUANT	2	Vch Range
VCHRANGEMODE	TOGGLE	T	Vch Auto Range
VCHOFFSETENABLE	TOGGLE	F	Vch Offset Enable
VCHOFFSET	QUANT	0	Vch Offset (V)
VCHFILTER	IQUANT	1	Vch Filter
IERANGELOWERLIMIT	IQUANT	9	I/E Range Lower Limit
IERANGEMODE	TOGGLE	F	I/E AutoRange
IERANGE	IQUANT	9	I/E Range
ACHSELECT	IQUANT	1	Ach Select
ACHRANGE	IQUANT	2	Ach Range
ACHOFFSETENABLE	TOGGLE	F	Ach Offset Enable
ACHOFFSET	QUANT	0	Ach Offset (V)
ACHFILTER	IQUANT	1	Ach Filter
CABLEID	IQUANT	14	Cable ID
DCCALDATE	LABEL	5-7-2017	DC Calibration Date
ACCALDATE	LABEL	12/3/2015	AC Calibration Date
FRAMEWORKVERSION	QUANT	7.01	Framework Version
INSTRUMENTVERSION	LABEL	4.00	Instrument Version
CURVE	TABLE	58
	Pt	T	Vf	Im	Vu	Pwr	Sig	Ach	Temp	IERange	Over
	#	s	V	A	V	W	V	V	deg C	#	bits
	0	0.013333	4.83357E-001	-2.78528E-004	0.00000E+000	-1.34628E-004	-1.68088E-001	4.83520E-001	3.58210E+000	9	...........
	1	0.026667	4.50712E-001	-2.78204E-004	0.00000E+000	-1.25390E-004	-1.68088E-001	4.50824E-001	3.57888E+000	9	...........
	2	0.04	4.20974E-001	-2.78695E-004	0.00000E+000	-1.17323E-004	-1.68088E-001	4.21080E-001	3.57780E+000	9	...........
	3	0.053333	3.93711E-001	-2.79580E-004	0.00000E+000	-1.10074E-004	-1.68088E-001	3.93804E-001	3.57780E+000	9	...........
	4	0.066667	3.68572E-001	-2.79062E-004	0.00000E+000	-1.02855E-004	-1.68088E-001	3.68662E-001	3.57780E+000	9	...........
	5	0.08	3.45393E-001	-2.78052E-004	0.00000E+000	-9.60371E-005	-1.68088E-001	3.45475E-001	3.57780E+000	9	...........
	6	0.093333	3.24009E-001	-2.79199E-004	0.00000E+000	-9.04629E-005	-1.68088E-001	3.24090E-001	3.57780E+000	9	...........
	7	0.106667	3.04267E-001	-2.79818E-004	0.00000E+000	-8.51395E-005	-1.68088E-001	3.04342E-001	3.57780E+000	9	...........
	8	0.12	2.86010E-001	-2.79545E-004	0.00000E+000	-7.99525E-005	-1.68088E-001	2.86083E-001	3.57780E+000	9	...........
	9	0.133333	2.69147E-001	-2.79694E-004	0.00000E+000	-7.52787E-005	-1.68088E-001	2.69216E-001	3.57780E+000	9	...........
	10	0.146667	2.53578E-001	-2.78187E-004	0.00000E+000	-7.05421E-005	-1.68088E-001	2.53643E-001	3.57780E+000	9	...........
	11	0.16	2.39187E-001	-2.78184E-004	0.00000E+000	-6.65380E-005	-1.68088E-001	2.39246E-001	3.57780E+000	9	...........
	12	0.173333	2.25867E-001	-2.79084E-004	0.00000E+000	-6.30360E-005	-1.68088E-001	2.25913E-001	3.57780E+000	9	...........
	13	0.186667	2.13531E-001	-2.78723E-004	0.00000E+000	-5.95161E-005	-1.68088E-001	2.13578E-001	3.57780E+000	9	...........
	14	0.2	2.02099E-001	-2.78885E-004	0.00000E+000	-5.63626E-005	-1.68088E-001	2.02148E-001	3.57780E+000	9	...........
	15	0.213333	1.91449E-001	-2.79098E-004	0.00000E+000	-5.34331E-005	-1.68088E-001	1.91504E-001	3.57780E+000	9	...........
	16	0.226667	1.81560E-001	-2.78182E-004	0.00000E+000	-5.05067E-005	-1.68088E-001	1.81604E-001	3.57780E+000	9	...........
	17	0.24	1.72359E-001	-2.77435E-004	0.00000E+000	-4.78184E-005	-1.68088E-001	1.72400E-001	3.57780E+000	9	...........
	18	0.253333	1.63690E-001	-2.78904E-004	0.00000E+000	-4.56539E-005	-1.68088E-001	1.63728E-001	3.57780E+000	9	...........
	19	0.266667	1.55559E-001	-2.79197E-004	0.00000E+000	-4.34315E-005	-1.68088E-001	1.55596E-001	3.57780E+000	9	...........
	20	0.28	1.47940E-001	-2.79123E-004	0.00000E+000	-4.12934E-005	-1.68088E-001	1.47980E-001	3.57780E+000	9	...........
	21	0.293333	1.40795E-001	-2.79427E-004	0.00000E+000	-3.93420E-005	-1.68088E-001	1.40827E-001	3.57780E+000	9	...........
	22	0.306667	1.34008E-001	-2.79772E-004	0.00000E+000	-3.74918E-005	-1.68088E-001	1.34031E-001	3.57780E+000	9	...........
	23	0.32	1.27535E-001	-2.78783E-004	0.00000E+000	-3.55546E-005	-1.68088E-001	1.27568E-001	3.57780E+000	9	...........
	24	0.333333	1.21415E-001	-2.79065E-004	0.00000E+000	-3.38826E-005	-1.68088E-001	1.21446E-001	3.57780E+000	9	...........
	25	0.346667	1.15626E-001	-2.79298E-004	0.00000E+000	-3.22941E-005	-1.68088E-001	1.15657E-001	3.57780E+000	9	...........
	26	0.36	1.10087E-001	-2.79515E-004	0.00000E+000	-3.07709E-005	-1.68088E-001	1.10115E-001	3.57780E+000	9	...........
	27	0.373333	1.04725E-001	-2.80343E-004	0.00000E+000	-2.93590E-005	-1.68088E-001	1.04757E-001	3.57780E+000	9	...........
	28	0.386667	9.95803E-002	-2.78773E-004	0.00000E+000	-2.77603E-005	-1.68088E-001	9.96138E-002	3.57780E+000	9	...........
	29	0.4	9.46999E-002	-2.80435E-004	0.00000E+000	-2.65571E-005	-1.68088E-001	9.47230E-002	3.57780E+000	9	...........
	30	0.413333	9.00132E-002	-2.80045E-004	0.00000E+000	-2.52078E-005	-1.68088E-001	9.00427E-002	3.57780E+000	9	...........
	31	0.426667	8.55022E-002	-2.79142E-004	0.00000E+000	-2.38672E-005	-1.68088E-001	8.55340E-002	3.57780E+000	9	...........
	32	0.44	8.11406E-002	-2.78915E-004	0.00000E+000	-2.26313E-005	-1.68088E-001	8.11605E-002	3.57780E+000	9	...........
	33	0.453333	7.68949E-002	-2.78991E-004	0.00000E+000	-2.14530E-005	-1.68088E-001	7.69119E-002	3.57780E+000	9	...........
	34	0.466667	7.27585E-002	-2.79429E-004	0.00000E+000	-2.03308E-005	-1.68088E-001	7.27708E-002	3.57780E+000	9	...........
	35	0.48	6.87903E-002	-2.78547E-004	0.00000E+000	-1.91613E-005	-1.68088E-001	6.88094E-002	3.57780E+000	9	...........
	36	0.493333	6.49714E-002	-2.78818E-004	0.00000E+000	-1.81152E-005	-1.68088E-001	6.49880E-002	3.57780E+000	9	...........
	37	0.506667	6.12771E-002	-2.79091E-004	0.00000E+000	-1.71019E-005	-1.68088E-001	6.12901E-002	3.57780E+000	9	...........
	38	0.52	5.76220E-002	-2.78941E-004	0.00000E+000	-1.60731E-005	-1.68088E-001	5.76360E-002	3.57780E+000	9	...........
	39	0.533333	5.40469E-002	-2.78794E-004	0.00000E+000	-1.50679E-005	-1.68088E-001	5.40592E-002	3.57780E+000	9	...........
	40	0.546667	5.05789E-002	-2.79403E-004	0.00000E+000	-1.41319E-005	-1.68088E-001	5.05959E-002	3.57780E+000	9	...........
	41	0.56	4.71813E-002	-2.77541E-004	0.00000E+000	-1.30948E-005	-1.68088E-001	4.71903E-002	3.57780E+000	9	...........
	42	0.573333	4.38145E-002	-2.78543E-004	0.00000E+000	-1.22042E-005	-1.68088E-001	4.38272E-002	3.57780E+000	9	...........
	43	0.586667	4.05556E-002	-2.78859E-004	0.00000E+000	-1.13093E-005	-1.68088E-001	4.05609E-002	3.57780E+000	9	...........
	44	0.6	3.73679E-002	-2.78951E-004	0.00000E+000	-1.04238E-005	-1.68088E-001	3.73747E-002	3.57780E+000	9	...........
	45	0.613333	3.42564E-002	-2.77588E-004	0.00000E+000	-9.50916E-006	-1.68088E-001	3.42678E-002	3.57780E+000	9	...........
	46	0.626667	3.12003E-002	-2.79348E-004	0.00000E+000	-8.71573E-006	-1.68088E-001	3.12063E-002	3.57780E+000	9	...........
	47	0.64	2.82197E-002	-2.79527E-004	0.00000E+000	-7.88818E-006	-1.68088E-001	2.82232E-002	3.57780E+000	9	...........
	48	0.653333	2.52721E-002	-2.78412E-004	0.00000E+000	-7.03608E-006	-1.68088E-001	2.52728E-002	3.57780E+000	9	...........
	49	0.666667	2.23914E-002	-2.78788E-004	0.00000E+000	-6.24247E-006	-1.68088E-001	2.23923E-002	3.57780E+000	9	...........
	50	0.68	1.95199E-002	-2.79392E-004	0.00000E+000	-5.45370E-006	-1.68088E-001	1.95188E-002	3.57780E+000	9	...........
	51	0.693333	1.67299E-002	-2.78892E-004	0.00000E+000	-4.66583E-006	-1.68088E-001	1.67255E-002	3.57780E+000	9	...........
	52	0.706667	1.39834E-002	-2.79574E-004	0.00000E+000	-3.90938E-006	-1.68088E-001	1.39779E-002	3.57780E+000	9	...........
	53	0.72	1.12707E-002	-2.79993E-004	0.00000E+000	-3.15572E-006	-1.68088E-001	1.12601E-002	3.57780E+000	9	...........
	54	0.733333	8.55546E-003	-2.80080E-004	0.00000E+000	-2.39622E-006	-1.68088E-001	8.54713E-003	3.57780E+000	9	...........
	55	0.746667	5.94289E-003	-2.78562E-004	0.00000E+000	-1.65547E-006	-1.68088E-001	5.92808E-003	3.57780E+000	9	...........
	56	0.76	3.35020E-003	-2.78767E-004	0.00000E+000	-9.33923E-007	-1.68088E-001	3.33686E-003	3.57780E+000	9	...........
	57	0.771667	9.39887E-004	-2.79061E-004	0.00000E+000	-2.62286E-007	-1.68088E-001	9.24705E-004	3.57780E+000	9	...........
STARTTIMEOFFSET	QUANT	1527.203	Start Time Offset (s)
