EXPLAIN
TAG	PWR800_DISCHARGE
TITLE	LABEL	PWR Cyclic Charge Discharge (Cell) - Discharge Step	Test &Identifier
DATE	LABEL	7-7-2017	Date
TIME	LABEL	15:40:11	Time
NOTES	NOTES	3	&Notes...
	supercap test cell
	2.8mg
	6M KOH
PSTAT	PSTAT	IFC5000-01520	Potentiostat
CAPACITY	QUANT	1.00000E-003	Capacity (A-hr)
CELLTYPE	SELECTOR	1	&Cell Type
WORKINGCONNECTION	SELECTOR	0	&Working Lead
MAXDISCHARGETIME	VARIABLEANDUNITS	1.00000E+002	s	1.00000E+002	second(s)	Max &Discharge Time
DISCHARGEMODE	MULTIPARAM	0	2.80000E-004	&Discharge Mode	Constant Current	Amp(s)
SAMPLETIME	QUANT	1.00000E-002	Sa&mple Period (s)
DISCHARGESTOPAT1	MULTIPARAM	3	0.00000E+000	Discharge Stop At &1	Voltage < Limit	V
DISCHARGESTOPAT2	MULTIPARAM	0	0.00000E+000	Discharge Stop At &2	None	N/A
AESBHCSELECTOR	TOGGLE	F	Save Both Half Cells
IRCOMP	TOGGLE	F	IR &Measure
EOC	QUANT	0	Open Circuit (V)
SEQUENCER	TOGGLE	TRUE	Run as Sequence
PSTATMODEL	IQUANT	53	Pstat Model
PSTATSECTION	LABEL	IFC5000-01520	Pstat Section
PSTATSERIALNO	LABEL	01520	Pstat Serial Number
CTRLMODE	IQUANT	0	Control Mode
ELECTROMETER	IQUANT	1	RE=0 or CS=1
IESTAB	IQUANT	0	I/E Stability
CASPEED	IQUANT	4	Control Amp Speed
CONVENTION	IQUANT	1	Current Convention
ICHRANGE	IQUANT	2	Ich Range
ICHRANGEMODE	TOGGLE	T	Ich Auto Range
ICHOFFSETENABLE	TOGGLE	F	Ich Offset Enable
ICHOFFSET	QUANT	0	Ich Offset (V)
ICHFILTER	IQUANT	1	Ich Filter
VCHRANGE	IQUANT	2	Vch Range
VCHRANGEMODE	TOGGLE	T	Vch Auto Range
VCHOFFSETENABLE	TOGGLE	F	Vch Offset Enable
VCHOFFSET	QUANT	0	Vch Offset (V)
VCHFILTER	IQUANT	1	Vch Filter
IERANGELOWERLIMIT	IQUANT	9	I/E Range Lower Limit
IERANGEMODE	TOGGLE	F	I/E AutoRange
IERANGE	IQUANT	9	I/E Range
ACHSELECT	IQUANT	1	Ach Select
ACHRANGE	IQUANT	2	Ach Range
ACHOFFSETENABLE	TOGGLE	F	Ach Offset Enable
ACHOFFSET	QUANT	0	Ach Offset (V)
ACHFILTER	IQUANT	1	Ach Filter
CABLEID	IQUANT	14	Cable ID
DCCALDATE	LABEL	5-7-2017	DC Calibration Date
ACCALDATE	LABEL	12/3/2015	AC Calibration Date
FRAMEWORKVERSION	QUANT	7.01	Framework Version
INSTRUMENTVERSION	LABEL	4.00	Instrument Version
CURVE	TABLE	132
	Pt	T	Vf	Im	Vu	Pwr	Sig	Ach	Temp	IERange	Over
	#	s	V	A	V	W	V	V	deg C	#	bits
	0	0.013333	5.76516E-001	-2.78177E-004	0.00000E+000	-1.60373E-004	-1.68088E-001	5.76793E-001	3.57810E+000	9	...........
	1	0.026667	5.48788E-001	-2.78197E-004	0.00000E+000	-1.52671E-004	-1.68088E-001	5.49060E-001	3.57810E+000	9	...........
	2	0.04	5.23986E-001	-2.79188E-004	0.00000E+000	-1.46290E-004	-1.68088E-001	5.24251E-001	3.57810E+000	9	...........
	3	0.053333	5.01424E-001	-2.79158E-004	0.00000E+000	-1.39977E-004	-1.68088E-001	5.01693E-001	3.57810E+000	9	...........
	4	0.066667	4.80989E-001	-2.79064E-004	0.00000E+000	-1.34227E-004	-1.68088E-001	4.81171E-001	3.57810E+000	9	...........
	5	0.08	4.62101E-001	-2.78689E-004	0.00000E+000	-1.28783E-004	-1.68088E-001	4.62220E-001	3.57810E+000	9	...........
	6	0.093333	4.44519E-001	-2.78903E-004	0.00000E+000	-1.23978E-004	-1.68088E-001	4.44637E-001	3.57810E+000	9	...........
	7	0.106667	4.28219E-001	-2.78856E-004	0.00000E+000	-1.19412E-004	-1.68088E-001	4.28331E-001	3.57810E+000	9	...........
	8	0.12	4.13087E-001	-2.78636E-004	0.00000E+000	-1.15101E-004	-1.68088E-001	4.13197E-001	3.57810E+000	9	...........
	9	0.133333	3.99009E-001	-2.79214E-004	0.00000E+000	-1.11409E-004	-1.68088E-001	3.99106E-001	3.57810E+000	9	...........
	10	0.146667	3.85865E-001	-2.78738E-004	0.00000E+000	-1.07555E-004	-1.68088E-001	3.85955E-001	3.57810E+000	9	...........
	11	0.16	3.73610E-001	-2.79240E-004	0.00000E+000	-1.04327E-004	-1.68088E-001	3.73701E-001	3.57810E+000	9	...........
	12	0.173333	3.62171E-001	-2.79058E-004	0.00000E+000	-1.01067E-004	-1.68088E-001	3.62265E-001	3.57810E+000	9	...........
	13	0.186667	3.51401E-001	-2.78728E-004	0.00000E+000	-9.79454E-005	-1.68088E-001	3.51493E-001	3.57810E+000	9	...........
	14	0.2	3.41321E-001	-2.79132E-004	0.00000E+000	-9.52738E-005	-1.68088E-001	3.41408E-001	3.57810E+000	9	...........
	15	0.213333	3.31911E-001	-2.79573E-004	0.00000E+000	-9.27934E-005	-1.68088E-001	3.31991E-001	3.57810E+000	9	...........
	16	0.226667	3.23049E-001	-2.78476E-004	0.00000E+000	-8.99615E-005	-1.68088E-001	3.23128E-001	3.57810E+000	9	...........
	17	0.24	3.14673E-001	-2.78895E-004	0.00000E+000	-8.77607E-005	-1.68088E-001	3.14749E-001	3.57810E+000	9	...........
	18	0.253333	3.06752E-001	-2.79450E-004	0.00000E+000	-8.57218E-005	-1.68088E-001	3.06835E-001	3.57810E+000	9	...........
	19	0.266667	2.99243E-001	-2.78777E-004	0.00000E+000	-8.34221E-005	-1.68088E-001	2.99319E-001	3.57810E+000	9	...........
	20	0.28	2.92107E-001	-2.78879E-004	0.00000E+000	-8.14625E-005	-1.68088E-001	2.92180E-001	3.57810E+000	9	...........
	21	0.293333	2.85346E-001	-2.79746E-004	0.00000E+000	-7.98244E-005	-1.68088E-001	2.85416E-001	3.57810E+000	9	...........
	22	0.306667	2.78892E-001	-2.78780E-004	0.00000E+000	-7.77496E-005	-1.68088E-001	2.78966E-001	3.57810E+000	9	...........
	23	0.32	2.72748E-001	-2.78502E-004	0.00000E+000	-7.59607E-005	-1.68088E-001	2.72820E-001	3.57810E+000	9	...........
	24	0.333333	2.66886E-001	-2.78545E-004	0.00000E+000	-7.43397E-005	-1.68088E-001	2.66960E-001	3.57810E+000	9	...........
	25	0.346667	2.61260E-001	-2.79218E-004	0.00000E+000	-7.29485E-005	-1.68088E-001	2.61329E-001	3.57810E+000	9	...........
	26	0.36	2.55863E-001	-2.79247E-004	0.00000E+000	-7.14490E-005	-1.68088E-001	2.55927E-001	3.57810E+000	9	...........
	27	0.373333	2.50654E-001	-2.78826E-004	0.00000E+000	-6.98888E-005	-1.68088E-001	2.50727E-001	3.57810E+000	9	...........
	28	0.386667	2.45677E-001	-2.78954E-004	0.00000E+000	-6.85326E-005	-1.68088E-001	2.45734E-001	3.57810E+000	9	...........
	29	0.4	2.40871E-001	-2.79288E-004	0.00000E+000	-6.72723E-005	-1.68088E-001	2.40929E-001	3.57810E+000	9	...........
	30	0.413333	2.36206E-001	-2.79657E-004	0.00000E+000	-6.60567E-005	-1.68088E-001	2.36262E-001	3.57825E+000	9	...........
	31	0.426667	2.31675E-001	-2.78305E-004	0.00000E+000	-6.44765E-005	-1.68088E-001	2.31727E-001	3.57830E+000	9	...........
	32	0.44	2.27308E-001	-2.79358E-004	0.00000E+000	-6.35003E-005	-1.68088E-001	2.27364E-001	3.57830E+000	9	...........
	33	0.453333	2.23077E-001	-2.79242E-004	0.00000E+000	-6.22924E-005	-1.68088E-001	2.23129E-001	3.57830E+000	9	...........
	34	0.466667	2.18973E-001	-2.78820E-004	0.00000E+000	-6.10540E-005	-1.68088E-001	2.19026E-001	3.57830E+000	9	...........
	35	0.48	2.15005E-001	-2.79500E-004	0.00000E+000	-6.00940E-005	-1.68088E-001	2.15057E-001	3.57830E+000	9	...........
	36	0.493333	2.11153E-001	-2.78935E-004	0.00000E+000	-5.88981E-005	-1.68088E-001	2.11207E-001	3.57830E+000	9	...........
	37	0.506667	2.07419E-001	-2.78733E-004	0.00000E+000	-5.78145E-005	-1.68088E-001	2.07465E-001	3.57830E+000	9	...........
	38	0.52	2.03765E-001	-2.79069E-004	0.00000E+000	-5.68644E-005	-1.68088E-001	2.03816E-001	3.57830E+000	9	...........
	39	0.533333	2.00202E-001	-2.78624E-004	0.00000E+000	-5.57810E-005	-1.68088E-001	2.00251E-001	3.57830E+000	9	...........
	40	0.546667	1.96694E-001	-2.79349E-004	0.00000E+000	-5.49463E-005	-1.68088E-001	1.96744E-001	3.57830E+000	9	...........
	41	0.56	1.93301E-001	-2.79406E-004	0.00000E+000	-5.40095E-005	-1.68088E-001	1.93348E-001	3.57830E+000	9	...........
	42	0.573333	1.89976E-001	-2.77988E-004	0.00000E+000	-5.28110E-005	-1.68088E-001	1.90023E-001	3.57830E+000	9	...........
	43	0.586667	1.86700E-001	-2.79266E-004	0.00000E+000	-5.21389E-005	-1.68088E-001	1.86741E-001	3.57830E+000	9	...........
	44	0.6	1.83503E-001	-2.79180E-004	0.00000E+000	-5.12305E-005	-1.68088E-001	1.83552E-001	3.57830E+000	9	...........
	45	0.613333	1.80371E-001	-2.79434E-004	0.00000E+000	-5.04018E-005	-1.68088E-001	1.80417E-001	3.57830E+000	9	...........
	46	0.626667	1.77268E-001	-2.78401E-004	0.00000E+000	-4.93516E-005	-1.68088E-001	1.77305E-001	3.57830E+000	9	...........
	47	0.64	1.74178E-001	-2.79385E-004	0.00000E+000	-4.86627E-005	-1.68088E-001	1.74217E-001	3.57830E+000	9	...........
	48	0.653333	1.71166E-001	-2.78487E-004	0.00000E+000	-4.76675E-005	-1.68088E-001	1.71205E-001	3.57830E+000	9	...........
	49	0.666667	1.68203E-001	-2.78508E-004	0.00000E+000	-4.68460E-005	-1.68088E-001	1.68244E-001	3.57830E+000	9	...........
	50	0.68	1.65306E-001	-2.79624E-004	0.00000E+000	-4.62236E-005	-1.68088E-001	1.65347E-001	3.57830E+000	9	...........
	51	0.693333	1.62455E-001	-2.79238E-004	0.00000E+000	-4.53635E-005	-1.68088E-001	1.62495E-001	3.57830E+000	9	...........
	52	0.706667	1.59658E-001	-2.79156E-004	0.00000E+000	-4.45695E-005	-1.68088E-001	1.59694E-001	3.57830E+000	9	...........
	53	0.72	1.56894E-001	-2.78633E-004	0.00000E+000	-4.37158E-005	-1.68088E-001	1.56930E-001	3.57830E+000	9	...........
	54	0.733333	1.54144E-001	-2.79683E-004	0.00000E+000	-4.31116E-005	-1.68088E-001	1.54180E-001	3.57830E+000	9	...........
	55	0.746667	1.51485E-001	-2.79222E-004	0.00000E+000	-4.22980E-005	-1.68088E-001	1.51519E-001	3.57830E+000	9	...........
	56	0.76	1.48811E-001	-2.79075E-004	0.00000E+000	-4.15294E-005	-1.68088E-001	1.48838E-001	3.57830E+000	9	...........
	57	0.773333	1.46142E-001	-2.79140E-004	0.00000E+000	-4.07941E-005	-1.68088E-001	1.46169E-001	3.57830E+000	9	...........
	58	0.786667	1.43522E-001	-2.78892E-004	0.00000E+000	-4.00272E-005	-1.68088E-001	1.43552E-001	3.57830E+000	9	...........
	59	0.8	1.40954E-001	-2.79030E-004	0.00000E+000	-3.93304E-005	-1.68088E-001	1.40983E-001	3.57830E+000	9	...........
	60	0.813333	1.38414E-001	-2.79198E-004	0.00000E+000	-3.86449E-005	-1.68088E-001	1.38444E-001	3.57830E+000	9	...........
	61	0.826667	1.35878E-001	-2.79455E-004	0.00000E+000	-3.79717E-005	-1.68088E-001	1.35906E-001	3.57830E+000	9	...........
	62	0.84	1.33404E-001	-2.79229E-004	0.00000E+000	-3.72503E-005	-1.68088E-001	1.33428E-001	3.57830E+000	9	...........
	63	0.853333	1.30914E-001	-2.79712E-004	0.00000E+000	-3.66181E-005	-1.68088E-001	1.30937E-001	3.57830E+000	9	...........
	64	0.866667	1.28438E-001	-2.79128E-004	0.00000E+000	-3.58507E-005	-1.68088E-001	1.28464E-001	3.57830E+000	9	...........
	65	0.88	1.25974E-001	-2.79147E-004	0.00000E+000	-3.51652E-005	-1.68088E-001	1.26003E-001	3.57830E+000	9	...........
	66	0.893333	1.23575E-001	-2.79195E-004	0.00000E+000	-3.45014E-005	-1.68088E-001	1.23601E-001	3.57830E+000	9	...........
	67	0.906667	1.21166E-001	-2.79278E-004	0.00000E+000	-3.38389E-005	-1.68088E-001	1.21193E-001	3.57830E+000	9	...........
	68	0.92	1.18821E-001	-2.79296E-004	0.00000E+000	-3.31863E-005	-1.68088E-001	1.18847E-001	3.57830E+000	9	...........
	69	0.933333	1.16524E-001	-2.79213E-004	0.00000E+000	-3.25351E-005	-1.68088E-001	1.16549E-001	3.57830E+000	9	...........
	70	0.946667	1.14272E-001	-2.78910E-004	0.00000E+000	-3.18715E-005	-1.68088E-001	1.14297E-001	3.57830E+000	9	...........
	71	0.96	1.12009E-001	-2.79184E-004	0.00000E+000	-3.12712E-005	-1.68088E-001	1.12040E-001	3.57830E+000	9	...........
	72	0.97333	1.09731E-001	-2.79074E-004	0.00000E+000	-3.06229E-005	-1.68088E-001	1.09753E-001	3.57830E+000	9	...........
	73	0.98667	1.07497E-001	-2.79288E-004	0.00000E+000	-3.00226E-005	-1.68088E-001	1.07525E-001	3.57830E+000	9	...........
	74	1	1.05309E-001	-2.78953E-004	0.00000E+000	-2.93764E-005	-1.68088E-001	1.05333E-001	3.57830E+000	9	...........
	75	1.01333	1.03179E-001	-2.78799E-004	0.00000E+000	-2.87663E-005	-1.68088E-001	1.03202E-001	3.57830E+000	9	...........
	76	1.02667	1.01020E-001	-2.79217E-004	0.00000E+000	-2.82066E-005	-1.68088E-001	1.01048E-001	3.57830E+000	9	...........
	77	1.04	9.88489E-002	-2.78522E-004	0.00000E+000	-2.75316E-005	-1.68088E-001	9.88735E-002	3.57830E+000	9	...........
	78	1.05333	9.66822E-002	-2.79376E-004	0.00000E+000	-2.70107E-005	-1.68088E-001	9.67012E-002	3.57830E+000	9	...........
	79	1.06667	9.45642E-002	-2.79336E-004	0.00000E+000	-2.64152E-005	-1.68088E-001	9.45901E-002	3.57830E+000	9	...........
	80	1.08	9.24500E-002	-2.79430E-004	0.00000E+000	-2.58333E-005	-1.68088E-001	9.24751E-002	3.57830E+000	9	...........
	81	1.09333	9.03786E-002	-2.78535E-004	0.00000E+000	-2.51736E-005	-1.68088E-001	9.04052E-002	3.57830E+000	9	...........
	82	1.10667	8.83163E-002	-2.79290E-004	0.00000E+000	-2.46658E-005	-1.68088E-001	8.83377E-002	3.57830E+000	9	...........
	83	1.12	8.62705E-002	-2.79404E-004	0.00000E+000	-2.41043E-005	-1.68088E-001	8.62950E-002	3.57830E+000	9	...........
	84	1.13333	8.42328E-002	-2.79355E-004	0.00000E+000	-2.35309E-005	-1.68088E-001	8.42542E-002	3.57830E+000	9	...........
	85	1.14667	8.22124E-002	-2.79205E-004	0.00000E+000	-2.29541E-005	-1.68088E-001	8.22326E-002	3.57830E+000	9	...........
	86	1.16	8.01601E-002	-2.79250E-004	0.00000E+000	-2.23847E-005	-1.68088E-001	8.01740E-002	3.57830E+000	9	...........
	87	1.17333	7.81103E-002	-2.78900E-004	0.00000E+000	-2.17850E-005	-1.68088E-001	7.81230E-002	3.57830E+000	9	...........
	88	1.18667	7.61205E-002	-2.78976E-004	0.00000E+000	-2.12358E-005	-1.68088E-001	7.61328E-002	3.57830E+000	9	...........
	89	1.2	7.41387E-002	-2.78816E-004	0.00000E+000	-2.06710E-005	-1.68088E-001	7.41548E-002	3.57830E+000	9	...........
	90	1.21333	7.21558E-002	-2.78845E-004	0.00000E+000	-2.01203E-005	-1.68088E-001	7.21687E-002	3.57830E+000	9	...........
	91	1.22667	7.01662E-002	-2.79914E-004	0.00000E+000	-1.96405E-005	-1.68088E-001	7.01794E-002	3.57830E+000	9	...........
	92	1.24	6.81913E-002	-2.79210E-004	0.00000E+000	-1.90397E-005	-1.68088E-001	6.81964E-002	3.57830E+000	9	...........
	93	1.25333	6.62245E-002	-2.79216E-004	0.00000E+000	-1.84909E-005	-1.68088E-001	6.62344E-002	3.57830E+000	9	...........
	94	1.26667	6.43244E-002	-2.79089E-004	0.00000E+000	-1.79522E-005	-1.68088E-001	6.43298E-002	3.57830E+000	9	...........
	95	1.28	6.24442E-002	-2.78731E-004	0.00000E+000	-1.74051E-005	-1.68088E-001	6.24548E-002	3.57830E+000	9	...........
	96	1.29333	6.05400E-002	-2.79191E-004	0.00000E+000	-1.69022E-005	-1.68088E-001	6.05580E-002	3.57830E+000	9	...........
	97	1.30667	5.86263E-002	-2.79442E-004	0.00000E+000	-1.63826E-005	-1.68088E-001	5.86404E-002	3.57830E+000	9	...........
	98	1.32	5.67887E-002	-2.78761E-004	0.00000E+000	-1.58305E-005	-1.68088E-001	5.67999E-002	3.57830E+000	9	...........
	99	1.33333	5.49848E-002	-2.79891E-004	0.00000E+000	-1.53897E-005	-1.68088E-001	5.49972E-002	3.57830E+000	9	...........
	100	1.34667	5.31615E-002	-2.78858E-004	0.00000E+000	-1.48245E-005	-1.68088E-001	5.31705E-002	3.57830E+000	9	...........
	101	1.36	5.12933E-002	-2.78575E-004	0.00000E+000	-1.42890E-005	-1.68088E-001	5.13056E-002	3.57830E+000	9	...........
	102	1.37333	4.94610E-002	-2.79620E-004	0.00000E+000	-1.38303E-005	-1.68088E-001	4.94741E-002	3.57830E+000	9	...........
	103	1.38667	4.76974E-002	-2.79139E-004	0.00000E+000	-1.33142E-005	-1.68088E-001	4.77049E-002	3.57830E+000	9	...........
	104	1.4	4.58816E-002	-2.79468E-004	0.00000E+000	-1.28224E-005	-1.68088E-001	4.58917E-002	3.57830E+000	9	...........
	105	1.41333	4.40883E-002	-2.79265E-004	0.00000E+000	-1.23123E-005	-1.68088E-001	4.40988E-002	3.57845E+000	9	...........
	106	1.42667	4.22802E-002	-2.79070E-004	0.00000E+000	-1.17991E-005	-1.68088E-001	4.22874E-002	3.57850E+000	9	...........
	107	1.44	4.04972E-002	-2.79030E-004	0.00000E+000	-1.12999E-005	-1.68088E-001	4.05048E-002	3.57850E+000	9	...........
	108	1.45333	3.87514E-002	-2.78631E-004	0.00000E+000	-1.07973E-005	-1.68088E-001	3.87589E-002	3.57850E+000	9	...........
	109	1.46667	3.70394E-002	-2.78008E-004	0.00000E+000	-1.02973E-005	-1.68088E-001	3.70436E-002	3.57850E+000	9	...........
	110	1.48	3.52769E-002	-2.78732E-004	0.00000E+000	-9.83281E-006	-1.68088E-001	3.52811E-002	3.57850E+000	9	...........
	111	1.49333	3.35246E-002	-2.79057E-004	0.00000E+000	-9.35528E-006	-1.68088E-001	3.35248E-002	3.57850E+000	9	...........
	112	1.50667	3.17871E-002	-2.78509E-004	0.00000E+000	-8.85299E-006	-1.68088E-001	3.17901E-002	3.57850E+000	9	...........
	113	1.52	3.00678E-002	-2.78599E-004	0.00000E+000	-8.37685E-006	-1.68088E-001	3.00630E-002	3.57850E+000	9	...........
	114	1.53333	2.83546E-002	-2.79527E-004	0.00000E+000	-7.92589E-006	-1.68088E-001	2.83546E-002	3.57850E+000	9	...........
	115	1.54667	2.66435E-002	-2.79000E-004	0.00000E+000	-7.43354E-006	-1.68088E-001	2.66395E-002	3.57850E+000	9	...........
	116	1.56	2.49027E-002	-2.79427E-004	0.00000E+000	-6.95850E-006	-1.68088E-001	2.48995E-002	3.57850E+000	9	...........
	117	1.57333	2.32074E-002	-2.78839E-004	0.00000E+000	-6.47112E-006	-1.68088E-001	2.32040E-002	3.57850E+000	9	...........
	118	1.58667	2.15378E-002	-2.78977E-004	0.00000E+000	-6.00854E-006	-1.68088E-001	2.15385E-002	3.57850E+000	9	...........
	119	1.6	1.98873E-002	-2.78927E-004	0.00000E+000	-5.54710E-006	-1.68088E-001	1.98812E-002	3.57850E+000	9	...........
	120	1.61333	1.82027E-002	-2.78548E-004	0.00000E+000	-5.07032E-006	-1.68088E-001	1.81942E-002	3.57850E+000	9	...........
	121	1.62667	1.65599E-002	-2.79150E-004	0.00000E+000	-4.62269E-006	-1.68088E-001	1.65502E-002	3.57850E+000	9	...........
	122	1.64	1.48936E-002	-2.78944E-004	0.00000E+000	-4.15447E-006	-1.68088E-001	1.48814E-002	3.57850E+000	9	...........
	123	1.65333	1.32048E-002	-2.78722E-004	0.00000E+000	-3.68045E-006	-1.68088E-001	1.31909E-002	3.57850E+000	9	...........
	124	1.66667	1.15270E-002	-2.79692E-004	0.00000E+000	-3.22400E-006	-1.68088E-001	1.15160E-002	3.57850E+000	9	...........
	125	1.68	9.87904E-003	-2.78853E-004	0.00000E+000	-2.75480E-006	-1.68088E-001	9.86199E-003	3.57850E+000	9	...........
	126	1.69333	8.22989E-003	-2.79553E-004	0.00000E+000	-2.30069E-006	-1.68088E-001	8.21282E-003	3.57850E+000	9	...........
	127	1.70667	6.62510E-003	-2.79476E-004	0.00000E+000	-1.85156E-006	-1.68088E-001	6.60879E-003	3.57850E+000	9	...........
	128	1.72	5.03132E-003	-2.79318E-004	0.00000E+000	-1.40534E-006	-1.68088E-001	5.01774E-003	3.57850E+000	9	...........
	129	1.73333	3.43737E-003	-2.79349E-004	0.00000E+000	-9.60225E-007	-1.68088E-001	3.41820E-003	3.57850E+000	9	...........
	130	1.74667	1.85938E-003	-2.78619E-004	0.00000E+000	-5.18057E-007	-1.68088E-001	1.84415E-003	3.57850E+000	9	...........
	131	1.75667	4.66229E-004	-2.79172E-004	0.00000E+000	-1.30158E-007	-1.68088E-001	4.46896E-004	3.57850E+000	9	...........
STARTTIMEOFFSET	QUANT	210.9183	Start Time Offset (s)
