EXPLAIN
TAG	PWR800_DISCHARGE
TITLE	LABEL	PWR Cyclic Charge Discharge (Cell) - Discharge Step	Test &Identifier
DATE	LABEL	7-7-2017	Date
TIME	LABEL	15:45:47	Time
NOTES	NOTES	3	&Notes...
	supercap test cell
	2.8mg
	6M KOH
PSTAT	PSTAT	IFC5000-01520	Potentiostat
CAPACITY	QUANT	1.00000E-003	Capacity (A-hr)
CELLTYPE	SELECTOR	1	&Cell Type
WORKINGCONNECTION	SELECTOR	0	&Working Lead
MAXDISCHARGETIME	VARIABLEANDUNITS	1.00000E+002	s	1.00000E+002	second(s)	Max &Discharge Time
DISCHARGEMODE	MULTIPARAM	0	2.80000E-004	&Discharge Mode	Constant Current	Amp(s)
SAMPLETIME	QUANT	1.00000E-002	Sa&mple Period (s)
DISCHARGESTOPAT1	MULTIPARAM	3	0.00000E+000	Discharge Stop At &1	Voltage < Limit	V
DISCHARGESTOPAT2	MULTIPARAM	0	0.00000E+000	Discharge Stop At &2	None	N/A
AESBHCSELECTOR	TOGGLE	F	Save Both Half Cells
IRCOMP	TOGGLE	F	IR &Measure
EOC	QUANT	0	Open Circuit (V)
SEQUENCER	TOGGLE	TRUE	Run as Sequence
PSTATMODEL	IQUANT	53	Pstat Model
PSTATSECTION	LABEL	IFC5000-01520	Pstat Section
PSTATSERIALNO	LABEL	01520	Pstat Serial Number
CTRLMODE	IQUANT	0	Control Mode
ELECTROMETER	IQUANT	1	RE=0 or CS=1
IESTAB	IQUANT	0	I/E Stability
CASPEED	IQUANT	4	Control Amp Speed
CONVENTION	IQUANT	1	Current Convention
ICHRANGE	IQUANT	2	Ich Range
ICHRANGEMODE	TOGGLE	T	Ich Auto Range
ICHOFFSETENABLE	TOGGLE	F	Ich Offset Enable
ICHOFFSET	QUANT	0	Ich Offset (V)
ICHFILTER	IQUANT	1	Ich Filter
VCHRANGE	IQUANT	2	Vch Range
VCHRANGEMODE	TOGGLE	T	Vch Auto Range
VCHOFFSETENABLE	TOGGLE	F	Vch Offset Enable
VCHOFFSET	QUANT	0	Vch Offset (V)
VCHFILTER	IQUANT	1	Vch Filter
IERANGELOWERLIMIT	IQUANT	9	I/E Range Lower Limit
IERANGEMODE	TOGGLE	F	I/E AutoRange
IERANGE	IQUANT	9	I/E Range
ACHSELECT	IQUANT	1	Ach Select
ACHRANGE	IQUANT	2	Ach Range
ACHOFFSETENABLE	TOGGLE	F	Ach Offset Enable
ACHOFFSET	QUANT	0	Ach Offset (V)
ACHFILTER	IQUANT	1	Ach Filter
CABLEID	IQUANT	14	Cable ID
DCCALDATE	LABEL	5-7-2017	DC Calibration Date
ACCALDATE	LABEL	12/3/2015	AC Calibration Date
FRAMEWORKVERSION	QUANT	7.01	Framework Version
INSTRUMENTVERSION	LABEL	4.00	Instrument Version
CURVE	TABLE	104
	Pt	T	Vf	Im	Vu	Pwr	Sig	Ach	Temp	IERange	Over
	#	s	V	A	V	W	V	V	deg C	#	bits
	0	0.013333	5.52419E-001	-2.79671E-004	0.00000E+000	-1.54496E-004	-1.68088E-001	5.52660E-001	3.57820E+000	9	...........
	1	0.026667	5.22798E-001	-2.78810E-004	0.00000E+000	-1.45762E-004	-1.68088E-001	5.23012E-001	3.57820E+000	9	...........
	2	0.04	4.96070E-001	-2.78869E-004	0.00000E+000	-1.38338E-004	-1.68088E-001	4.96286E-001	3.57820E+000	9	...........
	3	0.053333	4.72060E-001	-2.79025E-004	0.00000E+000	-1.31717E-004	-1.68088E-001	4.72135E-001	3.57820E+000	9	...........
	4	0.066667	4.49624E-001	-2.78596E-004	0.00000E+000	-1.25263E-004	-1.68088E-001	4.49737E-001	3.57820E+000	9	...........
	5	0.08	4.28895E-001	-2.78276E-004	0.00000E+000	-1.19351E-004	-1.68088E-001	4.29003E-001	3.57820E+000	9	...........
	6	0.093333	4.09703E-001	-2.79492E-004	0.00000E+000	-1.14509E-004	-1.68088E-001	4.09801E-001	3.57820E+000	9	...........
	7	0.106667	3.91946E-001	-2.79897E-004	0.00000E+000	-1.09705E-004	-1.68088E-001	3.92032E-001	3.57820E+000	9	...........
	8	0.12	3.75455E-001	-2.79845E-004	0.00000E+000	-1.05069E-004	-1.68088E-001	3.75544E-001	3.57820E+000	9	...........
	9	0.133333	3.60169E-001	-2.78190E-004	0.00000E+000	-1.00196E-004	-1.68088E-001	3.60261E-001	3.57820E+000	9	...........
	10	0.146667	3.45955E-001	-2.79253E-004	0.00000E+000	-9.66091E-005	-1.68088E-001	3.46036E-001	3.57820E+000	9	...........
	11	0.16	3.32722E-001	-2.78289E-004	0.00000E+000	-9.25930E-005	-1.68088E-001	3.32797E-001	3.57820E+000	9	...........
	12	0.173333	3.20374E-001	-2.78727E-004	0.00000E+000	-8.92970E-005	-1.68088E-001	3.20453E-001	3.57820E+000	9	...........
	13	0.186667	3.08854E-001	-2.78847E-004	0.00000E+000	-8.61228E-005	-1.68088E-001	3.08929E-001	3.57801E+000	9	...........
	14	0.2	2.98128E-001	-2.78308E-004	0.00000E+000	-8.29716E-005	-1.68088E-001	2.98202E-001	3.57800E+000	9	...........
	15	0.213333	2.88106E-001	-2.79044E-004	0.00000E+000	-8.03941E-005	-1.68088E-001	2.88176E-001	3.57800E+000	9	...........
	16	0.226667	2.78715E-001	-2.78568E-004	0.00000E+000	-7.76410E-005	-1.68088E-001	2.78785E-001	3.57800E+000	9	...........
	17	0.24	2.69881E-001	-2.79100E-004	0.00000E+000	-7.53237E-005	-1.68088E-001	2.69945E-001	3.57800E+000	9	...........
	18	0.253333	2.61553E-001	-2.79800E-004	0.00000E+000	-7.31826E-005	-1.68088E-001	2.61619E-001	3.57800E+000	9	...........
	19	0.266667	2.53763E-001	-2.78928E-004	0.00000E+000	-7.07816E-005	-1.68088E-001	2.53825E-001	3.57800E+000	9	...........
	20	0.28	2.46337E-001	-2.79519E-004	0.00000E+000	-6.88559E-005	-1.68088E-001	2.46399E-001	3.57800E+000	9	...........
	21	0.293333	2.39290E-001	-2.78802E-004	0.00000E+000	-6.67146E-005	-1.68088E-001	2.39350E-001	3.57800E+000	9	...........
	22	0.306667	2.32590E-001	-2.79520E-004	0.00000E+000	-6.50134E-005	-1.68088E-001	2.32645E-001	3.57800E+000	9	...........
	23	0.32	2.26232E-001	-2.78639E-004	0.00000E+000	-6.30371E-005	-1.68088E-001	2.26281E-001	3.57800E+000	9	...........
	24	0.333333	2.20206E-001	-2.78726E-004	0.00000E+000	-6.13771E-005	-1.68088E-001	2.20255E-001	3.57800E+000	9	...........
	25	0.346667	2.14450E-001	-2.78667E-004	0.00000E+000	-5.97600E-005	-1.68088E-001	2.14499E-001	3.57800E+000	9	...........
	26	0.36	2.08876E-001	-2.79393E-004	0.00000E+000	-5.83585E-005	-1.68088E-001	2.08922E-001	3.57800E+000	9	...........
	27	0.373333	2.03556E-001	-2.78908E-004	0.00000E+000	-5.67733E-005	-1.68088E-001	2.03606E-001	3.57800E+000	9	...........
	28	0.386667	1.98446E-001	-2.79220E-004	0.00000E+000	-5.54102E-005	-1.68088E-001	1.98498E-001	3.57800E+000	9	...........
	29	0.4	1.93576E-001	-2.79330E-004	0.00000E+000	-5.40716E-005	-1.68088E-001	1.93628E-001	3.57800E+000	9	...........
	30	0.413333	1.88888E-001	-2.79777E-004	0.00000E+000	-5.28465E-005	-1.68088E-001	1.88933E-001	3.57800E+000	9	...........
	31	0.426667	1.84394E-001	-2.79089E-004	0.00000E+000	-5.14624E-005	-1.68088E-001	1.84439E-001	3.57800E+000	9	...........
	32	0.44	1.80044E-001	-2.79194E-004	0.00000E+000	-5.02670E-005	-1.68088E-001	1.80089E-001	3.57800E+000	9	...........
	33	0.453333	1.75796E-001	-2.79231E-004	0.00000E+000	-4.90877E-005	-1.68088E-001	1.75839E-001	3.57800E+000	9	...........
	34	0.466667	1.71724E-001	-2.78876E-004	0.00000E+000	-4.78898E-005	-1.68088E-001	1.71770E-001	3.57800E+000	9	...........
	35	0.48	1.67685E-001	-2.78996E-004	0.00000E+000	-4.67833E-005	-1.68088E-001	1.67727E-001	3.57800E+000	9	...........
	36	0.493333	1.63786E-001	-2.79533E-004	0.00000E+000	-4.57837E-005	-1.68088E-001	1.63824E-001	3.57800E+000	9	...........
	37	0.506667	1.60038E-001	-2.79231E-004	0.00000E+000	-4.46876E-005	-1.68088E-001	1.60078E-001	3.57800E+000	9	...........
	38	0.52	1.56347E-001	-2.79493E-004	0.00000E+000	-4.36979E-005	-1.68088E-001	1.56382E-001	3.57800E+000	9	...........
	39	0.533333	1.52756E-001	-2.79622E-004	0.00000E+000	-4.27139E-005	-1.68088E-001	1.52791E-001	3.57800E+000	9	...........
	40	0.546667	1.49272E-001	-2.79163E-004	0.00000E+000	-4.16710E-005	-1.68088E-001	1.49302E-001	3.57800E+000	9	...........
	41	0.56	1.45787E-001	-2.79351E-004	0.00000E+000	-4.07259E-005	-1.68088E-001	1.45815E-001	3.57800E+000	9	...........
	42	0.573333	1.42416E-001	-2.79274E-004	0.00000E+000	-3.97730E-005	-1.68088E-001	1.42447E-001	3.57800E+000	9	...........
	43	0.586667	1.39128E-001	-2.78709E-004	0.00000E+000	-3.87762E-005	-1.68088E-001	1.39166E-001	3.57800E+000	9	...........
	44	0.6	1.35896E-001	-2.79294E-004	0.00000E+000	-3.79550E-005	-1.68088E-001	1.35926E-001	3.57800E+000	9	...........
	45	0.613333	1.32727E-001	-2.78508E-004	0.00000E+000	-3.69655E-005	-1.68088E-001	1.32755E-001	3.57800E+000	9	...........
	46	0.626667	1.29650E-001	-2.78856E-004	0.00000E+000	-3.61538E-005	-1.68088E-001	1.29680E-001	3.57800E+000	9	...........
	47	0.64	1.26631E-001	-2.78727E-004	0.00000E+000	-3.52955E-005	-1.68088E-001	1.26665E-001	3.57800E+000	9	...........
	48	0.653333	1.23656E-001	-2.80173E-004	0.00000E+000	-3.46451E-005	-1.68088E-001	1.23686E-001	3.57800E+000	9	...........
	49	0.666667	1.20668E-001	-2.79310E-004	0.00000E+000	-3.37037E-005	-1.68088E-001	1.20698E-001	3.57800E+000	9	...........
	50	0.68	1.17738E-001	-2.78091E-004	0.00000E+000	-3.27419E-005	-1.68088E-001	1.17767E-001	3.57800E+000	9	...........
	51	0.693333	1.14840E-001	-2.78483E-004	0.00000E+000	-3.19809E-005	-1.68088E-001	1.14868E-001	3.57800E+000	9	...........
	52	0.706667	1.11988E-001	-2.78994E-004	0.00000E+000	-3.12439E-005	-1.68088E-001	1.12015E-001	3.57800E+000	9	...........
	53	0.72	1.09167E-001	-2.79725E-004	0.00000E+000	-3.05366E-005	-1.68088E-001	1.09193E-001	3.57800E+000	9	...........
	54	0.733333	1.06386E-001	-2.79991E-004	0.00000E+000	-2.97871E-005	-1.68088E-001	1.06406E-001	3.57800E+000	9	...........
	55	0.746667	1.03604E-001	-2.79725E-004	0.00000E+000	-2.89807E-005	-1.68088E-001	1.03631E-001	3.57800E+000	9	...........
	56	0.76	1.00888E-001	-2.79281E-004	0.00000E+000	-2.81762E-005	-1.68088E-001	1.00916E-001	3.57800E+000	9	...........
	57	0.773333	9.82693E-002	-2.78236E-004	0.00000E+000	-2.73421E-005	-1.68088E-001	9.82912E-002	3.57800E+000	9	...........
	58	0.786667	9.56594E-002	-2.79049E-004	0.00000E+000	-2.66937E-005	-1.68088E-001	9.56795E-002	3.57800E+000	9	...........
	59	0.8	9.30498E-002	-2.79654E-004	0.00000E+000	-2.60218E-005	-1.68088E-001	9.30759E-002	3.57800E+000	9	...........
	60	0.813333	9.04973E-002	-2.78826E-004	0.00000E+000	-2.52330E-005	-1.68088E-001	9.05205E-002	3.57800E+000	9	...........
	61	0.826667	8.79591E-002	-2.78982E-004	0.00000E+000	-2.45390E-005	-1.68088E-001	8.79829E-002	3.57800E+000	9	...........
	62	0.84	8.54948E-002	-2.78971E-004	0.00000E+000	-2.38506E-005	-1.68088E-001	8.55163E-002	3.57800E+000	9	...........
	63	0.853333	8.30532E-002	-2.78625E-004	0.00000E+000	-2.31407E-005	-1.68088E-001	8.30708E-002	3.57800E+000	9	...........
	64	0.866667	8.06192E-002	-2.78786E-004	0.00000E+000	-2.24755E-005	-1.68088E-001	8.06374E-002	3.57800E+000	9	...........
	65	0.88	7.81818E-002	-2.79058E-004	0.00000E+000	-2.18173E-005	-1.68088E-001	7.81963E-002	3.57800E+000	9	...........
	66	0.893333	7.58050E-002	-2.79207E-004	0.00000E+000	-2.11653E-005	-1.68088E-001	7.58204E-002	3.57800E+000	9	...........
	67	0.906667	7.34936E-002	-2.79002E-004	0.00000E+000	-2.05049E-005	-1.68088E-001	7.35075E-002	3.57800E+000	9	...........
	68	0.92	7.11688E-002	-2.79065E-004	0.00000E+000	-1.98607E-005	-1.68088E-001	7.11782E-002	3.57800E+000	9	...........
	69	0.933333	6.88857E-002	-2.79057E-004	0.00000E+000	-1.92231E-005	-1.68088E-001	6.88972E-002	3.57800E+000	9	...........
	70	0.946667	6.65717E-002	-2.79352E-004	0.00000E+000	-1.85969E-005	-1.68088E-001	6.65795E-002	3.57800E+000	9	...........
	71	0.96	6.42257E-002	-2.78953E-004	0.00000E+000	-1.79160E-005	-1.68088E-001	6.42318E-002	3.57800E+000	9	...........
	72	0.97333	6.19768E-002	-2.78731E-004	0.00000E+000	-1.72749E-005	-1.68088E-001	6.19885E-002	3.57800E+000	9	...........
	73	0.98667	5.97386E-002	-2.79557E-004	0.00000E+000	-1.67004E-005	-1.68088E-001	5.97496E-002	3.57800E+000	9	...........
	74	1	5.75211E-002	-2.79590E-004	0.00000E+000	-1.60823E-005	-1.68088E-001	5.75243E-002	3.57800E+000	9	...........
	75	1.01333	5.53414E-002	-2.78483E-004	0.00000E+000	-1.54116E-005	-1.68088E-001	5.53468E-002	3.57800E+000	9	...........
	76	1.02667	5.31648E-002	-2.79090E-004	0.00000E+000	-1.48377E-005	-1.68088E-001	5.31678E-002	3.57800E+000	9	...........
	77	1.04	5.09841E-002	-2.79665E-004	0.00000E+000	-1.42584E-005	-1.68088E-001	5.09940E-002	3.57800E+000	9	...........
	78	1.05333	4.88543E-002	-2.79196E-004	0.00000E+000	-1.36399E-005	-1.68088E-001	4.88575E-002	3.57800E+000	9	...........
	79	1.06667	4.67762E-002	-2.79273E-004	0.00000E+000	-1.30633E-005	-1.68088E-001	4.67846E-002	3.57800E+000	9	...........
	80	1.08	4.46231E-002	-2.79715E-004	0.00000E+000	-1.24817E-005	-1.68088E-001	4.46317E-002	3.57800E+000	9	...........
	81	1.09333	4.24900E-002	-2.78892E-004	0.00000E+000	-1.18501E-005	-1.68088E-001	4.25042E-002	3.57800E+000	9	...........
	82	1.10667	4.03817E-002	-2.78867E-004	0.00000E+000	-1.12611E-005	-1.68088E-001	4.03885E-002	3.57800E+000	9	...........
	83	1.12	3.82719E-002	-2.78095E-004	0.00000E+000	-1.06432E-005	-1.68088E-001	3.82766E-002	3.57800E+000	9	...........
	84	1.13333	3.62129E-002	-2.79250E-004	0.00000E+000	-1.01124E-005	-1.68088E-001	3.62153E-002	3.57800E+000	9	...........
	85	1.14667	3.41691E-002	-2.78896E-004	0.00000E+000	-9.52961E-006	-1.68088E-001	3.41715E-002	3.57800E+000	9	...........
	86	1.16	3.20976E-002	-2.78324E-004	0.00000E+000	-8.93352E-006	-1.68088E-001	3.21008E-002	3.57800E+000	9	...........
	87	1.17333	3.00492E-002	-2.79125E-004	0.00000E+000	-8.38747E-006	-1.68088E-001	3.00462E-002	3.57800E+000	9	...........
	88	1.18667	2.80260E-002	-2.79544E-004	0.00000E+000	-7.83450E-006	-1.68088E-001	2.80242E-002	3.57848E+000	9	...........
	89	1.2	2.59784E-002	-2.78895E-004	0.00000E+000	-7.24523E-006	-1.68088E-001	2.59741E-002	3.57850E+000	9	...........
	90	1.21333	2.39594E-002	-2.78983E-004	0.00000E+000	-6.68427E-006	-1.68088E-001	2.39516E-002	3.57850E+000	9	...........
	91	1.22667	2.19845E-002	-2.79149E-004	0.00000E+000	-6.13695E-006	-1.68088E-001	2.19768E-002	3.57850E+000	9	...........
	92	1.24	1.99899E-002	-2.78498E-004	0.00000E+000	-5.56713E-006	-1.68088E-001	1.99832E-002	3.57850E+000	9	...........
	93	1.25333	1.80117E-002	-2.78436E-004	0.00000E+000	-5.01511E-006	-1.68088E-001	1.80011E-002	3.57850E+000	9	...........
	94	1.26667	1.60322E-002	-2.79594E-004	0.00000E+000	-4.48249E-006	-1.68088E-001	1.60184E-002	3.57850E+000	9	...........
	95	1.28	1.40857E-002	-2.78889E-004	0.00000E+000	-3.92834E-006	-1.68088E-001	1.40744E-002	3.57850E+000	9	...........
	96	1.29333	1.22133E-002	-2.78952E-004	0.00000E+000	-3.40692E-006	-1.68088E-001	1.22020E-002	3.57850E+000	9	...........
	97	1.30667	1.03623E-002	-2.79397E-004	0.00000E+000	-2.89518E-006	-1.68088E-001	1.03477E-002	3.57850E+000	9	...........
	98	1.32	8.50364E-003	-2.79000E-004	0.00000E+000	-2.37251E-006	-1.68088E-001	8.48740E-003	3.57850E+000	9	...........
	99	1.33333	6.63786E-003	-2.79421E-004	0.00000E+000	-1.85476E-006	-1.68088E-001	6.61910E-003	3.57850E+000	9	...........
	100	1.34667	4.83696E-003	-2.78778E-004	0.00000E+000	-1.34844E-006	-1.68088E-001	4.81711E-003	3.57850E+000	9	...........
	101	1.36	3.01402E-003	-2.79892E-004	0.00000E+000	-8.43601E-007	-1.68088E-001	2.99647E-003	3.57850E+000	9	...........
	102	1.37333	1.21373E-003	-2.78408E-004	0.00000E+000	-3.37912E-007	-1.68088E-001	1.19651E-003	3.57850E+000	9	...........
	103	1.37667	9.70726E-005	-2.81498E-004	0.00000E+000	-2.73258E-008	-1.68088E-001	7.89424E-005	3.57850E+000	9	...........
STARTTIMEOFFSET	QUANT	477.705	Start Time Offset (s)
