EXPLAIN
TAG	PWR800_DISCHARGE
TITLE	LABEL	PWR Cyclic Charge Discharge (Cell) - Discharge Step	Test &Identifier
DATE	LABEL	7-7-2017	Date
TIME	LABEL	15:46:47	Time
NOTES	NOTES	3	&Notes...
	supercap test cell
	2.8mg
	6M KOH
PSTAT	PSTAT	IFC5000-01520	Potentiostat
CAPACITY	QUANT	1.00000E-003	Capacity (A-hr)
CELLTYPE	SELECTOR	1	&Cell Type
WORKINGCONNECTION	SELECTOR	0	&Working Lead
MAXDISCHARGETIME	VARIABLEANDUNITS	1.00000E+002	s	1.00000E+002	second(s)	Max &Discharge Time
DISCHARGEMODE	MULTIPARAM	0	2.80000E-004	&Discharge Mode	Constant Current	Amp(s)
SAMPLETIME	QUANT	1.00000E-002	Sa&mple Period (s)
DISCHARGESTOPAT1	MULTIPARAM	3	0.00000E+000	Discharge Stop At &1	Voltage < Limit	V
DISCHARGESTOPAT2	MULTIPARAM	0	0.00000E+000	Discharge Stop At &2	None	N/A
AESBHCSELECTOR	TOGGLE	F	Save Both Half Cells
IRCOMP	TOGGLE	F	IR &Measure
EOC	QUANT	0	Open Circuit (V)
SEQUENCER	TOGGLE	TRUE	Run as Sequence
PSTATMODEL	IQUANT	53	Pstat Model
PSTATSECTION	LABEL	IFC5000-01520	Pstat Section
PSTATSERIALNO	LABEL	01520	Pstat Serial Number
CTRLMODE	IQUANT	0	Control Mode
ELECTROMETER	IQUANT	1	RE=0 or CS=1
IESTAB	IQUANT	0	I/E Stability
CASPEED	IQUANT	4	Control Amp Speed
CONVENTION	IQUANT	1	Current Convention
ICHRANGE	IQUANT	2	Ich Range
ICHRANGEMODE	TOGGLE	T	Ich Auto Range
ICHOFFSETENABLE	TOGGLE	F	Ich Offset Enable
ICHOFFSET	QUANT	0	Ich Offset (V)
ICHFILTER	IQUANT	1	Ich Filter
VCHRANGE	IQUANT	2	Vch Range
VCHRANGEMODE	TOGGLE	T	Vch Auto Range
VCHOFFSETENABLE	TOGGLE	F	Vch Offset Enable
VCHOFFSET	QUANT	0	Vch Offset (V)
VCHFILTER	IQUANT	1	Vch Filter
IERANGELOWERLIMIT	IQUANT	9	I/E Range Lower Limit
IERANGEMODE	TOGGLE	F	I/E AutoRange
IERANGE	IQUANT	9	I/E Range
ACHSELECT	IQUANT	1	Ach Select
ACHRANGE	IQUANT	2	Ach Range
ACHOFFSETENABLE	TOGGLE	F	Ach Offset Enable
ACHOFFSET	QUANT	0	Ach Offset (V)
ACHFILTER	IQUANT	1	Ach Filter
CABLEID	IQUANT	14	Cable ID
DCCALDATE	LABEL	5-7-2017	DC Calibration Date
ACCALDATE	LABEL	12/3/2015	AC Calibration Date
FRAMEWORKVERSION	QUANT	7.01	Framework Version
INSTRUMENTVERSION	LABEL	4.00	Instrument Version
CURVE	TABLE	100
	Pt	T	Vf	Im	Vu	Pwr	Sig	Ach	Temp	IERange	Over
	#	s	V	A	V	W	V	V	deg C	#	bits
	0	0.013333	5.48757E-001	-2.79031E-004	0.00000E+000	-1.53120E-004	-1.68088E-001	5.49045E-001	3.57790E+000	9	...........
	1	0.026667	5.18893E-001	-2.79263E-004	0.00000E+000	-1.44907E-004	-1.68088E-001	5.19188E-001	3.57790E+000	9	...........
	2	0.04	4.92009E-001	-2.78570E-004	0.00000E+000	-1.37059E-004	-1.68088E-001	4.92276E-001	3.57790E+000	9	...........
	3	0.053333	4.67709E-001	-2.78806E-004	0.00000E+000	-1.30400E-004	-1.68088E-001	4.67829E-001	3.57790E+000	9	...........
	4	0.066667	4.45063E-001	-2.78842E-004	0.00000E+000	-1.24102E-004	-1.68088E-001	4.45169E-001	3.57790E+000	9	...........
	5	0.08	4.24119E-001	-2.78635E-004	0.00000E+000	-1.18175E-004	-1.68088E-001	4.24229E-001	3.57790E+000	9	...........
	6	0.093333	4.04743E-001	-2.78751E-004	0.00000E+000	-1.12822E-004	-1.68088E-001	4.04841E-001	3.57790E+000	9	...........
	7	0.106667	3.86797E-001	-2.79170E-004	0.00000E+000	-1.07982E-004	-1.68088E-001	3.86889E-001	3.57790E+000	9	...........
	8	0.12	3.70166E-001	-2.78858E-004	0.00000E+000	-1.03224E-004	-1.68088E-001	3.70254E-001	3.57790E+000	9	...........
	9	0.133333	3.54706E-001	-2.78801E-004	0.00000E+000	-9.88924E-005	-1.68088E-001	3.54790E-001	3.57790E+000	9	...........
	10	0.146667	3.40354E-001	-2.78583E-004	0.00000E+000	-9.48169E-005	-1.68088E-001	3.40434E-001	3.57790E+000	9	...........
	11	0.16	3.27046E-001	-2.78834E-004	0.00000E+000	-9.11917E-005	-1.68088E-001	3.27124E-001	3.57790E+000	9	...........
	12	0.173333	3.14626E-001	-2.79456E-004	0.00000E+000	-8.79241E-005	-1.68088E-001	3.14702E-001	3.57790E+000	9	...........
	13	0.186667	3.03061E-001	-2.79139E-004	0.00000E+000	-8.45961E-005	-1.68088E-001	3.03136E-001	3.57790E+000	9	...........
	14	0.2	2.92248E-001	-2.79040E-004	0.00000E+000	-8.15487E-005	-1.68088E-001	2.92317E-001	3.57790E+000	9	...........
	15	0.213333	2.82133E-001	-2.78982E-004	0.00000E+000	-7.87102E-005	-1.68088E-001	2.82213E-001	3.57790E+000	9	...........
	16	0.226667	2.72652E-001	-2.78283E-004	0.00000E+000	-7.58746E-005	-1.68088E-001	2.72725E-001	3.57790E+000	9	...........
	17	0.24	2.63738E-001	-2.78737E-004	0.00000E+000	-7.35138E-005	-1.68088E-001	2.63811E-001	3.57790E+000	9	...........
	18	0.253333	2.55351E-001	-2.79175E-004	0.00000E+000	-7.12876E-005	-1.68088E-001	2.55415E-001	3.57790E+000	9	...........
	19	0.266667	2.47447E-001	-2.79206E-004	0.00000E+000	-6.90887E-005	-1.68088E-001	2.47510E-001	3.57790E+000	9	...........
	20	0.28	2.39993E-001	-2.78792E-004	0.00000E+000	-6.69080E-005	-1.68088E-001	2.40046E-001	3.57790E+000	9	...........
	21	0.293333	2.32937E-001	-2.79666E-004	0.00000E+000	-6.51444E-005	-1.68088E-001	2.32992E-001	3.57790E+000	9	...........
	22	0.306667	2.26273E-001	-2.78823E-004	0.00000E+000	-6.30902E-005	-1.68088E-001	2.26326E-001	3.57790E+000	9	...........
	23	0.32	2.19911E-001	-2.78758E-004	0.00000E+000	-6.13019E-005	-1.68088E-001	2.19959E-001	3.57790E+000	9	...........
	24	0.333333	2.13880E-001	-2.79004E-004	0.00000E+000	-5.96735E-005	-1.68088E-001	2.13927E-001	3.57790E+000	9	...........
	25	0.346667	2.08109E-001	-2.79677E-004	0.00000E+000	-5.82034E-005	-1.68088E-001	2.08158E-001	3.57790E+000	9	...........
	26	0.36	2.02552E-001	-2.78841E-004	0.00000E+000	-5.64796E-005	-1.68088E-001	2.02604E-001	3.57790E+000	9	...........
	27	0.373333	1.97256E-001	-2.78790E-004	0.00000E+000	-5.49929E-005	-1.68088E-001	1.97305E-001	3.57790E+000	9	...........
	28	0.386667	1.92186E-001	-2.78564E-004	0.00000E+000	-5.35363E-005	-1.68088E-001	1.92231E-001	3.57790E+000	9	...........
	29	0.4	1.87313E-001	-2.78592E-004	0.00000E+000	-5.21838E-005	-1.68088E-001	1.87358E-001	3.57790E+000	9	...........
	30	0.413333	1.82587E-001	-2.80265E-004	0.00000E+000	-5.11726E-005	-1.68088E-001	1.82630E-001	3.57790E+000	9	...........
	31	0.426667	1.78059E-001	-2.78591E-004	0.00000E+000	-4.96057E-005	-1.68088E-001	1.78106E-001	3.57790E+000	9	...........
	32	0.44	1.73691E-001	-2.78403E-004	0.00000E+000	-4.83561E-005	-1.68088E-001	1.73734E-001	3.57790E+000	9	...........
	33	0.453333	1.69481E-001	-2.78906E-004	0.00000E+000	-4.72694E-005	-1.68088E-001	1.69520E-001	3.57790E+000	9	...........
	34	0.466667	1.65331E-001	-2.79103E-004	0.00000E+000	-4.61443E-005	-1.68088E-001	1.65370E-001	3.57790E+000	9	...........
	35	0.48	1.61300E-001	-2.79499E-004	0.00000E+000	-4.50833E-005	-1.68088E-001	1.61340E-001	3.57790E+000	9	...........
	36	0.493333	1.57407E-001	-2.79570E-004	0.00000E+000	-4.40062E-005	-1.68088E-001	1.57448E-001	3.57790E+000	9	...........
	37	0.506667	1.53611E-001	-2.78790E-004	0.00000E+000	-4.28252E-005	-1.68088E-001	1.53653E-001	3.57790E+000	9	...........
	38	0.52	1.49911E-001	-2.77949E-004	0.00000E+000	-4.16675E-005	-1.68088E-001	1.49950E-001	3.57790E+000	9	...........
	39	0.533333	1.46283E-001	-2.79256E-004	0.00000E+000	-4.08504E-005	-1.68088E-001	1.46319E-001	3.57790E+000	9	...........
	40	0.546667	1.42726E-001	-2.78362E-004	0.00000E+000	-3.97294E-005	-1.68088E-001	1.42761E-001	3.57790E+000	9	...........
	41	0.56	1.39238E-001	-2.78795E-004	0.00000E+000	-3.88187E-005	-1.68088E-001	1.39275E-001	3.57790E+000	9	...........
	42	0.573333	1.35859E-001	-2.78850E-004	0.00000E+000	-3.78843E-005	-1.68088E-001	1.35893E-001	3.57790E+000	9	...........
	43	0.586667	1.32604E-001	-2.78712E-004	0.00000E+000	-3.69584E-005	-1.68088E-001	1.32634E-001	3.57790E+000	9	...........
	44	0.6	1.29365E-001	-2.79010E-004	0.00000E+000	-3.60941E-005	-1.68088E-001	1.29396E-001	3.57790E+000	9	...........
	45	0.613333	1.26167E-001	-2.79697E-004	0.00000E+000	-3.52886E-005	-1.68088E-001	1.26202E-001	3.57790E+000	9	...........
	46	0.626667	1.23052E-001	-2.78854E-004	0.00000E+000	-3.43135E-005	-1.68088E-001	1.23080E-001	3.57790E+000	9	...........
	47	0.64	1.19953E-001	-2.79886E-004	0.00000E+000	-3.35731E-005	-1.68088E-001	1.19982E-001	3.57790E+000	9	...........
	48	0.653333	1.16901E-001	-2.79114E-004	0.00000E+000	-3.26287E-005	-1.68088E-001	1.16931E-001	3.57790E+000	9	...........
	49	0.666667	1.13907E-001	-2.79206E-004	0.00000E+000	-3.18036E-005	-1.68088E-001	1.13942E-001	3.57790E+000	9	...........
	50	0.68	1.10999E-001	-2.79401E-004	0.00000E+000	-3.10133E-005	-1.68088E-001	1.11027E-001	3.57790E+000	9	...........
	51	0.693333	1.08103E-001	-2.79529E-004	0.00000E+000	-3.02181E-005	-1.68088E-001	1.08128E-001	3.57790E+000	9	...........
	52	0.706667	1.05246E-001	-2.78637E-004	0.00000E+000	-2.93255E-005	-1.68088E-001	1.05275E-001	3.57790E+000	9	...........
	53	0.72	1.02456E-001	-2.78570E-004	0.00000E+000	-2.85412E-005	-1.68088E-001	1.02484E-001	3.57790E+000	9	...........
	54	0.733333	9.96966E-002	-2.79111E-004	0.00000E+000	-2.78265E-005	-1.68088E-001	9.97296E-002	3.57790E+000	9	...........
	55	0.746667	9.69408E-002	-2.79111E-004	0.00000E+000	-2.70573E-005	-1.68088E-001	9.69729E-002	3.57790E+000	9	...........
	56	0.76	9.42251E-002	-2.79330E-004	0.00000E+000	-2.63199E-005	-1.68088E-001	9.42475E-002	3.57790E+000	9	...........
	57	0.773333	9.15545E-002	-2.78747E-004	0.00000E+000	-2.55205E-005	-1.68088E-001	9.15806E-002	3.57790E+000	9	...........
	58	0.786667	8.89348E-002	-2.79186E-004	0.00000E+000	-2.48294E-005	-1.68088E-001	8.89547E-002	3.57790E+000	9	...........
	59	0.8	8.63204E-002	-2.78897E-004	0.00000E+000	-2.40745E-005	-1.68088E-001	8.63444E-002	3.57790E+000	9	...........
	60	0.813333	8.37934E-002	-2.78781E-004	0.00000E+000	-2.33600E-005	-1.68088E-001	8.38085E-002	3.57790E+000	9	...........
	61	0.826667	8.12822E-002	-2.79325E-004	0.00000E+000	-2.27042E-005	-1.68088E-001	8.12968E-002	3.57890E+000	9	...........
	62	0.84	7.87815E-002	-2.79516E-004	0.00000E+000	-2.20207E-005	-1.68088E-001	7.88004E-002	3.57940E+000	9	...........
	63	0.853333	7.63025E-002	-2.79280E-004	0.00000E+000	-2.13098E-005	-1.68088E-001	7.63160E-002	3.57940E+000	9	...........
	64	0.866667	7.38679E-002	-2.79114E-004	0.00000E+000	-2.06175E-005	-1.68088E-001	7.38808E-002	3.57940E+000	9	...........
	65	0.88	7.14619E-002	-2.80142E-004	0.00000E+000	-2.00195E-005	-1.68088E-001	7.14760E-002	3.57940E+000	9	...........
	66	0.893333	6.90640E-002	-2.79354E-004	0.00000E+000	-1.92933E-005	-1.68088E-001	6.90764E-002	3.57940E+000	9	...........
	67	0.906667	6.67153E-002	-2.79383E-004	0.00000E+000	-1.86391E-005	-1.68088E-001	6.67327E-002	3.57940E+000	9	...........
	68	0.92	6.44231E-002	-2.79239E-004	0.00000E+000	-1.79894E-005	-1.68088E-001	6.44405E-002	3.57940E+000	9	...........
	69	0.933333	6.21348E-002	-2.78970E-004	0.00000E+000	-1.73337E-005	-1.68088E-001	6.21548E-002	3.57940E+000	9	...........
	70	0.946667	5.98263E-002	-2.79570E-004	0.00000E+000	-1.67256E-005	-1.68088E-001	5.98462E-002	3.57940E+000	9	...........
	71	0.96	5.75599E-002	-2.78253E-004	0.00000E+000	-1.60162E-005	-1.68088E-001	5.75664E-002	3.57940E+000	9	...........
	72	0.97333	5.52943E-002	-2.79081E-004	0.00000E+000	-1.54316E-005	-1.68088E-001	5.53100E-002	3.57940E+000	9	...........
	73	0.98667	5.30234E-002	-2.78941E-004	0.00000E+000	-1.47904E-005	-1.68088E-001	5.30307E-002	3.57940E+000	9	...........
	74	1	5.08353E-002	-2.79124E-004	0.00000E+000	-1.41894E-005	-1.68088E-001	5.08493E-002	3.57940E+000	9	...........
	75	1.01333	4.86744E-002	-2.78869E-004	0.00000E+000	-1.35738E-005	-1.68088E-001	4.86752E-002	3.57940E+000	9	...........
	76	1.02667	4.64644E-002	-2.79095E-004	0.00000E+000	-1.29680E-005	-1.68088E-001	4.64757E-002	3.57940E+000	9	...........
	77	1.04	4.42948E-002	-2.79221E-004	0.00000E+000	-1.23680E-005	-1.68088E-001	4.43044E-002	3.57940E+000	9	...........
	78	1.05333	4.21441E-002	-2.79458E-004	0.00000E+000	-1.17775E-005	-1.68088E-001	4.21474E-002	3.57940E+000	9	...........
	79	1.06667	4.00059E-002	-2.78577E-004	0.00000E+000	-1.11447E-005	-1.68088E-001	4.00141E-002	3.57940E+000	9	...........
	80	1.08	3.78710E-002	-2.78637E-004	0.00000E+000	-1.05523E-005	-1.68088E-001	3.78731E-002	3.57940E+000	9	...........
	81	1.09333	3.57298E-002	-2.78831E-004	0.00000E+000	-9.96259E-006	-1.68088E-001	3.57320E-002	3.57940E+000	9	...........
	82	1.10667	3.36412E-002	-2.79125E-004	0.00000E+000	-9.39010E-006	-1.68088E-001	3.36472E-002	3.57940E+000	9	...........
	83	1.12	3.16024E-002	-2.79156E-004	0.00000E+000	-8.82201E-006	-1.68088E-001	3.16055E-002	3.57940E+000	9	...........
	84	1.13333	2.95413E-002	-2.79334E-004	0.00000E+000	-8.25190E-006	-1.68088E-001	2.95408E-002	3.57940E+000	9	...........
	85	1.14667	2.75132E-002	-2.79554E-004	0.00000E+000	-7.69143E-006	-1.68088E-001	2.75092E-002	3.57940E+000	9	...........
	86	1.16	2.54868E-002	-2.79032E-004	0.00000E+000	-7.11164E-006	-1.68088E-001	2.54841E-002	3.57940E+000	9	...........
	87	1.17333	2.35098E-002	-2.79474E-004	0.00000E+000	-6.57037E-006	-1.68088E-001	2.35046E-002	3.57940E+000	9	...........
	88	1.18667	2.15243E-002	-2.78472E-004	0.00000E+000	-5.99390E-006	-1.68088E-001	2.15172E-002	3.57940E+000	9	...........
	89	1.2	1.95614E-002	-2.78666E-004	0.00000E+000	-5.45108E-006	-1.68088E-001	1.95513E-002	3.57940E+000	9	...........
	90	1.21333	1.76564E-002	-2.79661E-004	0.00000E+000	-4.93780E-006	-1.68088E-001	1.76465E-002	3.57940E+000	9	...........
	91	1.22667	1.56908E-002	-2.79417E-004	0.00000E+000	-4.38426E-006	-1.68088E-001	1.56887E-002	3.57940E+000	9	...........
	92	1.24	1.36966E-002	-2.79036E-004	0.00000E+000	-3.82186E-006	-1.68088E-001	1.36915E-002	3.57940E+000	9	...........
	93	1.25333	1.17668E-002	-2.78646E-004	0.00000E+000	-3.27877E-006	-1.68088E-001	1.17548E-002	3.57940E+000	9	...........
	94	1.26667	9.88632E-003	-2.78461E-004	0.00000E+000	-2.75296E-006	-1.68088E-001	9.87242E-003	3.57940E+000	9	...........
	95	1.28	7.98965E-003	-2.79891E-004	0.00000E+000	-2.23623E-006	-1.68088E-001	7.97999E-003	3.57940E+000	9	...........
	96	1.29333	6.08397E-003	-2.79669E-004	0.00000E+000	-1.70150E-006	-1.68088E-001	6.06931E-003	3.57940E+000	9	...........
	97	1.30667	4.21382E-003	-2.78973E-004	0.00000E+000	-1.17554E-006	-1.68088E-001	4.19454E-003	3.57940E+000	9	...........
	98	1.32	2.35744E-003	-2.78865E-004	0.00000E+000	-6.57406E-007	-1.68088E-001	2.34057E-003	3.57940E+000	9	...........
	99	1.33167	6.24354E-004	-2.78816E-004	0.00000E+000	-1.74080E-007	-1.68088E-001	6.03911E-004	3.57940E+000	9	...........
STARTTIMEOFFSET	QUANT	524.8634	Start Time Offset (s)
