EXPLAIN
TAG	PWR800_DISCHARGE
TITLE	LABEL	PWR Cyclic Charge Discharge (Cell) - Discharge Step	Test &Identifier
DATE	LABEL	7-7-2017	Date
TIME	LABEL	15:55:40	Time
NOTES	NOTES	3	&Notes...
	supercap test cell
	2.8mg
	6M KOH
PSTAT	PSTAT	IFC5000-01520	Potentiostat
CAPACITY	QUANT	1.00000E-003	Capacity (A-hr)
CELLTYPE	SELECTOR	1	&Cell Type
WORKINGCONNECTION	SELECTOR	0	&Working Lead
MAXDISCHARGETIME	VARIABLEANDUNITS	1.00000E+002	s	1.00000E+002	second(s)	Max &Discharge Time
DISCHARGEMODE	MULTIPARAM	0	2.80000E-004	&Discharge Mode	Constant Current	Amp(s)
SAMPLETIME	QUANT	1.00000E-002	Sa&mple Period (s)
DISCHARGESTOPAT1	MULTIPARAM	3	0.00000E+000	Discharge Stop At &1	Voltage < Limit	V
DISCHARGESTOPAT2	MULTIPARAM	0	0.00000E+000	Discharge Stop At &2	None	N/A
AESBHCSELECTOR	TOGGLE	F	Save Both Half Cells
IRCOMP	TOGGLE	F	IR &Measure
EOC	QUANT	0	Open Circuit (V)
SEQUENCER	TOGGLE	TRUE	Run as Sequence
PSTATMODEL	IQUANT	53	Pstat Model
PSTATSECTION	LABEL	IFC5000-01520	Pstat Section
PSTATSERIALNO	LABEL	01520	Pstat Serial Number
CTRLMODE	IQUANT	0	Control Mode
ELECTROMETER	IQUANT	1	RE=0 or CS=1
IESTAB	IQUANT	0	I/E Stability
CASPEED	IQUANT	4	Control Amp Speed
CONVENTION	IQUANT	1	Current Convention
ICHRANGE	IQUANT	2	Ich Range
ICHRANGEMODE	TOGGLE	T	Ich Auto Range
ICHOFFSETENABLE	TOGGLE	F	Ich Offset Enable
ICHOFFSET	QUANT	0	Ich Offset (V)
ICHFILTER	IQUANT	1	Ich Filter
VCHRANGE	IQUANT	2	Vch Range
VCHRANGEMODE	TOGGLE	T	Vch Auto Range
VCHOFFSETENABLE	TOGGLE	F	Vch Offset Enable
VCHOFFSET	QUANT	0	Vch Offset (V)
VCHFILTER	IQUANT	1	Vch Filter
IERANGELOWERLIMIT	IQUANT	9	I/E Range Lower Limit
IERANGEMODE	TOGGLE	F	I/E AutoRange
IERANGE	IQUANT	9	I/E Range
ACHSELECT	IQUANT	1	Ach Select
ACHRANGE	IQUANT	2	Ach Range
ACHOFFSETENABLE	TOGGLE	F	Ach Offset Enable
ACHOFFSET	QUANT	0	Ach Offset (V)
ACHFILTER	IQUANT	1	Ach Filter
CABLEID	IQUANT	14	Cable ID
DCCALDATE	LABEL	5-7-2017	DC Calibration Date
ACCALDATE	LABEL	12/3/2015	AC Calibration Date
FRAMEWORKVERSION	QUANT	7.01	Framework Version
INSTRUMENTVERSION	LABEL	4.00	Instrument Version
CURVE	TABLE	77
	Pt	T	Vf	Im	Vu	Pwr	Sig	Ach	Temp	IERange	Over
	#	s	V	A	V	W	V	V	deg C	#	bits
	0	0.013333	5.32411E-001	-2.79014E-004	0.00000E+000	-1.48550E-004	-1.68088E-001	5.32665E-001	3.57770E+000	9	...........
	1	0.026667	5.00802E-001	-2.78681E-004	0.00000E+000	-1.39564E-004	-1.68088E-001	5.01054E-001	3.57770E+000	9	...........
	2	0.04	4.72314E-001	-2.79285E-004	0.00000E+000	-1.31911E-004	-1.68088E-001	4.72449E-001	3.57770E+000	9	...........
	3	0.053333	4.45870E-001	-2.78519E-004	0.00000E+000	-1.24183E-004	-1.68088E-001	4.45975E-001	3.57770E+000	9	...........
	4	0.066667	4.21303E-001	-2.77811E-004	0.00000E+000	-1.17043E-004	-1.68088E-001	4.21404E-001	3.57770E+000	9	...........
	5	0.08	3.98486E-001	-2.78658E-004	0.00000E+000	-1.11041E-004	-1.68088E-001	3.98576E-001	3.57770E+000	9	...........
	6	0.093333	3.77308E-001	-2.78760E-004	0.00000E+000	-1.05178E-004	-1.68088E-001	3.77395E-001	3.57770E+000	9	...........
	7	0.106667	3.57632E-001	-2.78463E-004	0.00000E+000	-9.95875E-005	-1.68088E-001	3.57716E-001	3.57770E+000	9	...........
	8	0.12	3.39349E-001	-2.79327E-004	0.00000E+000	-9.47893E-005	-1.68088E-001	3.39427E-001	3.57770E+000	9	...........
	9	0.133333	3.22380E-001	-2.78980E-004	0.00000E+000	-8.99376E-005	-1.68088E-001	3.22452E-001	3.57770E+000	9	...........
	10	0.146667	3.06617E-001	-2.77970E-004	0.00000E+000	-8.52303E-005	-1.68088E-001	3.06691E-001	3.57770E+000	9	...........
	11	0.16	2.92002E-001	-2.78955E-004	0.00000E+000	-8.14554E-005	-1.68088E-001	2.92073E-001	3.57770E+000	9	...........
	12	0.173333	2.78416E-001	-2.79558E-004	0.00000E+000	-7.78336E-005	-1.68088E-001	2.78489E-001	3.57770E+000	9	...........
	13	0.186667	2.65792E-001	-2.78644E-004	0.00000E+000	-7.40613E-005	-1.68088E-001	2.65860E-001	3.57770E+000	9	...........
	14	0.2	2.54017E-001	-2.79273E-004	0.00000E+000	-7.09402E-005	-1.68088E-001	2.54085E-001	3.57770E+000	9	...........
	15	0.213333	2.43073E-001	-2.78904E-004	0.00000E+000	-6.77941E-005	-1.68088E-001	2.43126E-001	3.57770E+000	9	...........
	16	0.226667	2.32855E-001	-2.77752E-004	0.00000E+000	-6.46758E-005	-1.68088E-001	2.32909E-001	3.57770E+000	9	...........
	17	0.24	2.23299E-001	-2.79678E-004	0.00000E+000	-6.24519E-005	-1.68088E-001	2.23354E-001	3.57770E+000	9	...........
	18	0.253333	2.14360E-001	-2.79422E-004	0.00000E+000	-5.98970E-005	-1.68088E-001	2.14415E-001	3.57770E+000	9	...........
	19	0.266667	2.05918E-001	-2.79418E-004	0.00000E+000	-5.75370E-005	-1.68088E-001	2.05965E-001	3.57770E+000	9	...........
	20	0.28	1.97967E-001	-2.79462E-004	0.00000E+000	-5.53242E-005	-1.68088E-001	1.98013E-001	3.57770E+000	9	...........
	21	0.293333	1.90514E-001	-2.78842E-004	0.00000E+000	-5.31233E-005	-1.68088E-001	1.90558E-001	3.57770E+000	9	...........
	22	0.306667	1.83461E-001	-2.79126E-004	0.00000E+000	-5.12088E-005	-1.68088E-001	1.83501E-001	3.57770E+000	9	...........
	23	0.32	1.76779E-001	-2.79591E-004	0.00000E+000	-4.94258E-005	-1.68088E-001	1.76816E-001	3.57770E+000	9	...........
	24	0.333333	1.70436E-001	-2.79564E-004	0.00000E+000	-4.76478E-005	-1.68088E-001	1.70472E-001	3.57770E+000	9	...........
	25	0.346667	1.64402E-001	-2.78184E-004	0.00000E+000	-4.57342E-005	-1.68088E-001	1.64440E-001	3.57770E+000	9	...........
	26	0.36	1.58619E-001	-2.79276E-004	0.00000E+000	-4.42985E-005	-1.68088E-001	1.58655E-001	3.57770E+000	9	...........
	27	0.373333	1.53132E-001	-2.78708E-004	0.00000E+000	-4.26791E-005	-1.68088E-001	1.53165E-001	3.57770E+000	9	...........
	28	0.386667	1.47870E-001	-2.79081E-004	0.00000E+000	-4.12677E-005	-1.68088E-001	1.47894E-001	3.57770E+000	9	...........
	29	0.4	1.42754E-001	-2.79285E-004	0.00000E+000	-3.98691E-005	-1.68088E-001	1.42788E-001	3.57770E+000	9	...........
	30	0.413333	1.37858E-001	-2.77761E-004	0.00000E+000	-3.82915E-005	-1.68088E-001	1.37882E-001	3.57770E+000	9	...........
	31	0.426667	1.33138E-001	-2.79471E-004	0.00000E+000	-3.72083E-005	-1.68088E-001	1.33170E-001	3.57770E+000	9	...........
	32	0.44	1.28593E-001	-2.79896E-004	0.00000E+000	-3.59928E-005	-1.68088E-001	1.28619E-001	3.57770E+000	9	...........
	33	0.453333	1.24193E-001	-2.79110E-004	0.00000E+000	-3.46635E-005	-1.68088E-001	1.24218E-001	3.57770E+000	9	...........
	34	0.466667	1.19981E-001	-2.78900E-004	0.00000E+000	-3.34628E-005	-1.68088E-001	1.20008E-001	3.57770E+000	9	...........
	35	0.48	1.15871E-001	-2.78607E-004	0.00000E+000	-3.22824E-005	-1.68088E-001	1.15901E-001	3.57770E+000	9	...........
	36	0.493333	1.11885E-001	-2.78971E-004	0.00000E+000	-3.12128E-005	-1.68088E-001	1.11912E-001	3.57770E+000	9	...........
	37	0.506667	1.08009E-001	-2.79265E-004	0.00000E+000	-3.01631E-005	-1.68088E-001	1.08031E-001	3.57770E+000	9	...........
	38	0.52	1.04191E-001	-2.78957E-004	0.00000E+000	-2.90648E-005	-1.68088E-001	1.04215E-001	3.57770E+000	9	...........
	39	0.533333	1.00496E-001	-2.79035E-004	0.00000E+000	-2.80419E-005	-1.68088E-001	1.00525E-001	3.57770E+000	9	...........
	40	0.546667	9.69420E-002	-2.78806E-004	0.00000E+000	-2.70280E-005	-1.68088E-001	9.69639E-002	3.57770E+000	9	...........
	41	0.56	9.34574E-002	-2.78649E-004	0.00000E+000	-2.60418E-005	-1.68088E-001	9.34811E-002	3.57770E+000	9	...........
	42	0.573333	9.00345E-002	-2.79096E-004	0.00000E+000	-2.51283E-005	-1.68088E-001	9.00532E-002	3.57770E+000	9	...........
	43	0.586667	8.66923E-002	-2.78920E-004	0.00000E+000	-2.41802E-005	-1.68088E-001	8.67076E-002	3.57770E+000	9	...........
	44	0.6	8.34328E-002	-2.78642E-004	0.00000E+000	-2.32478E-005	-1.68088E-001	8.34489E-002	3.57770E+000	9	...........
	45	0.613333	8.02765E-002	-2.78585E-004	0.00000E+000	-2.23639E-005	-1.68088E-001	8.02859E-002	3.57770E+000	9	...........
	46	0.626667	7.71487E-002	-2.78911E-004	0.00000E+000	-2.15177E-005	-1.68088E-001	7.71627E-002	3.57770E+000	9	...........
	47	0.64	7.40587E-002	-2.78868E-004	0.00000E+000	-2.06526E-005	-1.68088E-001	7.40664E-002	3.57770E+000	9	...........
	48	0.653333	7.10133E-002	-2.79088E-004	0.00000E+000	-1.98189E-005	-1.68088E-001	7.10222E-002	3.57770E+000	9	...........
	49	0.666667	6.79834E-002	-2.79722E-004	0.00000E+000	-1.90165E-005	-1.68088E-001	6.79944E-002	3.57770E+000	9	...........
	50	0.68	6.50229E-002	-2.79615E-004	0.00000E+000	-1.81814E-005	-1.68088E-001	6.50309E-002	3.57770E+000	9	...........
	51	0.693333	6.21653E-002	-2.78964E-004	0.00000E+000	-1.73419E-005	-1.68088E-001	6.21749E-002	3.57770E+000	9	...........
	52	0.706667	5.93417E-002	-2.79397E-004	0.00000E+000	-1.65799E-005	-1.68088E-001	5.93524E-002	3.57770E+000	9	...........
	53	0.72	5.65110E-002	-2.78928E-004	0.00000E+000	-1.57625E-005	-1.68088E-001	5.65184E-002	3.57770E+000	9	...........
	54	0.733333	5.36973E-002	-2.78237E-004	0.00000E+000	-1.49406E-005	-1.68088E-001	5.36995E-002	3.57770E+000	9	...........
	55	0.746667	5.09494E-002	-2.78999E-004	0.00000E+000	-1.42148E-005	-1.68088E-001	5.09515E-002	3.57770E+000	9	...........
	56	0.76	4.82835E-002	-2.79194E-004	0.00000E+000	-1.34805E-005	-1.68088E-001	4.82809E-002	3.57770E+000	9	...........
	57	0.773333	4.56500E-002	-2.78634E-004	0.00000E+000	-1.27196E-005	-1.68088E-001	4.56568E-002	3.57892E+000	9	...........
	58	0.786667	4.30298E-002	-2.78866E-004	0.00000E+000	-1.19995E-005	-1.68088E-001	4.30352E-002	3.57910E+000	9	...........
	59	0.8	4.04432E-002	-2.79371E-004	0.00000E+000	-1.12986E-005	-1.68088E-001	4.04480E-002	3.57910E+000	9	...........
	60	0.813333	3.78580E-002	-2.79032E-004	0.00000E+000	-1.05636E-005	-1.68088E-001	3.78609E-002	3.57910E+000	9	...........
	61	0.826667	3.52567E-002	-2.78997E-004	0.00000E+000	-9.83650E-006	-1.68088E-001	3.52604E-002	3.57910E+000	9	...........
	62	0.84	3.27326E-002	-2.79133E-004	0.00000E+000	-9.13677E-006	-1.68088E-001	3.27319E-002	3.57910E+000	9	...........
	63	0.853333	3.02532E-002	-2.77820E-004	0.00000E+000	-8.40494E-006	-1.68088E-001	3.02513E-002	3.57910E+000	9	...........
	64	0.866667	2.77749E-002	-2.78081E-004	0.00000E+000	-7.72368E-006	-1.68088E-001	2.77739E-002	3.57910E+000	9	...........
	65	0.88	2.53409E-002	-2.80659E-004	0.00000E+000	-7.11213E-006	-1.68088E-001	2.53358E-002	3.57910E+000	9	...........
	66	0.893333	2.29146E-002	-2.78597E-004	0.00000E+000	-6.38393E-006	-1.68088E-001	2.29129E-002	3.57910E+000	9	...........
	67	0.906667	2.05502E-002	-2.79022E-004	0.00000E+000	-5.73396E-006	-1.68088E-001	2.05426E-002	3.57910E+000	9	...........
	68	0.92	1.81861E-002	-2.78583E-004	0.00000E+000	-5.06635E-006	-1.68088E-001	1.81802E-002	3.57910E+000	9	...........
	69	0.933333	1.58062E-002	-2.78902E-004	0.00000E+000	-4.40838E-006	-1.68088E-001	1.57932E-002	3.57910E+000	9	...........
	70	0.946667	1.34793E-002	-2.78962E-004	0.00000E+000	-3.76022E-006	-1.68088E-001	1.34684E-002	3.57910E+000	9	...........
	71	0.96	1.12154E-002	-2.78926E-004	0.00000E+000	-3.12827E-006	-1.68088E-001	1.12052E-002	3.57910E+000	9	...........
	72	0.97333	8.95234E-003	-2.78285E-004	0.00000E+000	-2.49131E-006	-1.68088E-001	8.93808E-003	3.57910E+000	9	...........
	73	0.98667	6.72972E-003	-2.78611E-004	0.00000E+000	-1.87498E-006	-1.68088E-001	6.71346E-003	3.57910E+000	9	...........
	74	1	4.53899E-003	-2.78309E-004	0.00000E+000	-1.26324E-006	-1.68088E-001	4.52351E-003	3.57910E+000	9	...........
	75	1.01333	2.34128E-003	-2.77873E-004	0.00000E+000	-6.50579E-007	-1.68088E-001	2.32234E-003	3.57910E+000	9	...........
	76	1.02333	4.27303E-004	-2.77145E-004	0.00000E+000	-1.18425E-007	-1.68088E-001	4.08370E-004	3.57910E+000	9	...........
STARTTIMEOFFSET	QUANT	923.3218	Start Time Offset (s)
