EXPLAIN
TAG	PWR800_DISCHARGE
TITLE	LABEL	PWR Cyclic Charge Discharge (Cell) - Discharge Step	Test &Identifier
DATE	LABEL	7-7-2017	Date
TIME	LABEL	16:24:03	Time
NOTES	NOTES	3	&Notes...
	supercap test cell
	2.8mg
	6M KOH
PSTAT	PSTAT	IFC5000-01520	Potentiostat
CAPACITY	QUANT	1.00000E-003	Capacity (A-hr)
CELLTYPE	SELECTOR	1	&Cell Type
WORKINGCONNECTION	SELECTOR	0	&Working Lead
MAXDISCHARGETIME	VARIABLEANDUNITS	1.00000E+002	s	1.00000E+002	second(s)	Max &Discharge Time
DISCHARGEMODE	MULTIPARAM	0	2.80000E-004	&Discharge Mode	Constant Current	Amp(s)
SAMPLETIME	QUANT	1.00000E-002	Sa&mple Period (s)
DISCHARGESTOPAT1	MULTIPARAM	3	0.00000E+000	Discharge Stop At &1	Voltage < Limit	V
DISCHARGESTOPAT2	MULTIPARAM	0	0.00000E+000	Discharge Stop At &2	None	N/A
AESBHCSELECTOR	TOGGLE	F	Save Both Half Cells
IRCOMP	TOGGLE	F	IR &Measure
EOC	QUANT	0	Open Circuit (V)
SEQUENCER	TOGGLE	TRUE	Run as Sequence
PSTATMODEL	IQUANT	53	Pstat Model
PSTATSECTION	LABEL	IFC5000-01520	Pstat Section
PSTATSERIALNO	LABEL	01520	Pstat Serial Number
CTRLMODE	IQUANT	0	Control Mode
ELECTROMETER	IQUANT	1	RE=0 or CS=1
IESTAB	IQUANT	0	I/E Stability
CASPEED	IQUANT	4	Control Amp Speed
CONVENTION	IQUANT	1	Current Convention
ICHRANGE	IQUANT	2	Ich Range
ICHRANGEMODE	TOGGLE	T	Ich Auto Range
ICHOFFSETENABLE	TOGGLE	F	Ich Offset Enable
ICHOFFSET	QUANT	0	Ich Offset (V)
ICHFILTER	IQUANT	1	Ich Filter
VCHRANGE	IQUANT	2	Vch Range
VCHRANGEMODE	TOGGLE	T	Vch Auto Range
VCHOFFSETENABLE	TOGGLE	F	Vch Offset Enable
VCHOFFSET	QUANT	0	Vch Offset (V)
VCHFILTER	IQUANT	1	Vch Filter
IERANGELOWERLIMIT	IQUANT	9	I/E Range Lower Limit
IERANGEMODE	TOGGLE	F	I/E AutoRange
IERANGE	IQUANT	9	I/E Range
ACHSELECT	IQUANT	1	Ach Select
ACHRANGE	IQUANT	2	Ach Range
ACHOFFSETENABLE	TOGGLE	F	Ach Offset Enable
ACHOFFSET	QUANT	0	Ach Offset (V)
ACHFILTER	IQUANT	1	Ach Filter
CABLEID	IQUANT	14	Cable ID
DCCALDATE	LABEL	5-7-2017	DC Calibration Date
ACCALDATE	LABEL	12/3/2015	AC Calibration Date
FRAMEWORKVERSION	QUANT	7.01	Framework Version
INSTRUMENTVERSION	LABEL	4.00	Instrument Version
CURVE	TABLE	52
	Pt	T	Vf	Im	Vu	Pwr	Sig	Ach	Temp	IERange	Over
	#	s	V	A	V	W	V	V	deg C	#	bits
	0	0.013333	5.17804E-001	-2.79521E-004	0.00000E+000	-1.44737E-004	-1.68088E-001	5.18016E-001	3.57770E+000	9	...........
	1	0.026667	4.83742E-001	-2.78520E-004	0.00000E+000	-1.34732E-004	-1.68088E-001	4.83884E-001	3.57770E+000	9	...........
	2	0.04	4.52402E-001	-2.78636E-004	0.00000E+000	-1.26056E-004	-1.68088E-001	4.52507E-001	3.57770E+000	9	...........
	3	0.053333	4.23082E-001	-2.78272E-004	0.00000E+000	-1.17732E-004	-1.68088E-001	4.23183E-001	3.57770E+000	9	...........
	4	0.066667	3.95678E-001	-2.79531E-004	0.00000E+000	-1.10605E-004	-1.68088E-001	3.95765E-001	3.57770E+000	9	...........
	5	0.08	3.70002E-001	-2.77814E-004	0.00000E+000	-1.02792E-004	-1.68088E-001	3.70085E-001	3.57770E+000	9	...........
	6	0.093333	3.45981E-001	-2.79384E-004	0.00000E+000	-9.66616E-005	-1.68088E-001	3.46055E-001	3.57770E+000	9	...........
	7	0.106667	3.23551E-001	-2.80502E-004	0.00000E+000	-9.07568E-005	-1.68088E-001	3.23623E-001	3.57770E+000	9	...........
	8	0.12	3.02647E-001	-2.80758E-004	0.00000E+000	-8.49705E-005	-1.68088E-001	3.02718E-001	3.57770E+000	9	...........
	9	0.133333	2.83164E-001	-2.78357E-004	0.00000E+000	-7.88207E-005	-1.68088E-001	2.83229E-001	3.57770E+000	9	...........
	10	0.146667	2.65054E-001	-2.77982E-004	0.00000E+000	-7.36803E-005	-1.68088E-001	2.65113E-001	3.57770E+000	9	...........
	11	0.16	2.48232E-001	-2.78941E-004	0.00000E+000	-6.92420E-005	-1.68088E-001	2.48287E-001	3.57770E+000	9	...........
	12	0.173333	2.32646E-001	-2.78682E-004	0.00000E+000	-6.48344E-005	-1.68088E-001	2.32691E-001	3.57770E+000	9	...........
	13	0.186667	2.18167E-001	-2.79258E-004	0.00000E+000	-6.09250E-005	-1.68088E-001	2.18213E-001	3.57770E+000	9	...........
	14	0.2	2.04739E-001	-2.79124E-004	0.00000E+000	-5.71476E-005	-1.68088E-001	2.04781E-001	3.57770E+000	9	...........
	15	0.213333	1.92265E-001	-2.79401E-004	0.00000E+000	-5.37190E-005	-1.68088E-001	1.92305E-001	3.57770E+000	9	...........
	16	0.226667	1.80675E-001	-2.78732E-004	0.00000E+000	-5.03601E-005	-1.68088E-001	1.80716E-001	3.57750E+000	9	...........
	17	0.24	1.69899E-001	-2.79662E-004	0.00000E+000	-4.75143E-005	-1.68088E-001	1.69936E-001	3.57730E+000	9	...........
	18	0.253333	1.59835E-001	-2.77524E-004	0.00000E+000	-4.43581E-005	-1.68088E-001	1.59872E-001	3.57730E+000	9	...........
	19	0.266667	1.50406E-001	-2.79176E-004	0.00000E+000	-4.19899E-005	-1.68088E-001	1.50443E-001	3.57730E+000	9	...........
	20	0.28	1.41606E-001	-2.78654E-004	0.00000E+000	-3.94590E-005	-1.68088E-001	1.41632E-001	3.57730E+000	9	...........
	21	0.293333	1.33341E-001	-2.78538E-004	0.00000E+000	-3.71406E-005	-1.68088E-001	1.33368E-001	3.57730E+000	9	...........
	22	0.306667	1.25563E-001	-2.78452E-004	0.00000E+000	-3.49634E-005	-1.68088E-001	1.25590E-001	3.57730E+000	9	...........
	23	0.32	1.18212E-001	-2.79710E-004	0.00000E+000	-3.30650E-005	-1.68088E-001	1.18232E-001	3.57730E+000	9	...........
	24	0.333333	1.11279E-001	-2.77969E-004	0.00000E+000	-3.09321E-005	-1.68088E-001	1.11305E-001	3.57730E+000	9	...........
	25	0.346667	1.04731E-001	-2.77059E-004	0.00000E+000	-2.90167E-005	-1.68088E-001	1.04754E-001	3.57730E+000	9	...........
	26	0.36	9.85283E-002	-2.79373E-004	0.00000E+000	-2.75262E-005	-1.68088E-001	9.85501E-002	3.57730E+000	9	...........
	27	0.373333	9.26099E-002	-2.78854E-004	0.00000E+000	-2.58246E-005	-1.68088E-001	9.26265E-002	3.57730E+000	9	...........
	28	0.386667	8.69627E-002	-2.79467E-004	0.00000E+000	-2.43032E-005	-1.68088E-001	8.69868E-002	3.57730E+000	9	...........
	29	0.4	8.15662E-002	-2.79310E-004	0.00000E+000	-2.27823E-005	-1.68088E-001	8.15793E-002	3.57730E+000	9	...........
	30	0.413333	7.64390E-002	-2.78821E-004	0.00000E+000	-2.13128E-005	-1.68088E-001	7.64486E-002	3.57730E+000	9	...........
	31	0.426667	7.15008E-002	-2.78924E-004	0.00000E+000	-1.99433E-005	-1.68088E-001	7.15120E-002	3.57730E+000	9	...........
	32	0.44	6.67688E-002	-2.79003E-004	0.00000E+000	-1.86287E-005	-1.68088E-001	6.67763E-002	3.57730E+000	9	...........
	33	0.453333	6.21980E-002	-2.78243E-004	0.00000E+000	-1.73061E-005	-1.68088E-001	6.22042E-002	3.57730E+000	9	...........
	34	0.466667	5.77706E-002	-2.79948E-004	0.00000E+000	-1.61728E-005	-1.68088E-001	5.77730E-002	3.57730E+000	9	...........
	35	0.48	5.34842E-002	-2.77160E-004	0.00000E+000	-1.48237E-005	-1.68088E-001	5.34898E-002	3.57730E+000	9	...........
	36	0.493333	4.93419E-002	-2.79720E-004	0.00000E+000	-1.38019E-005	-1.68088E-001	4.93396E-002	3.57730E+000	9	...........
	37	0.506667	4.54099E-002	-2.78719E-004	0.00000E+000	-1.26566E-005	-1.68088E-001	4.54142E-002	3.57730E+000	9	...........
	38	0.52	4.15132E-002	-2.79052E-004	0.00000E+000	-1.15843E-005	-1.68088E-001	4.15195E-002	3.57730E+000	9	...........
	39	0.533333	3.76887E-002	-2.78751E-004	0.00000E+000	-1.05058E-005	-1.68088E-001	3.76905E-002	3.57730E+000	9	...........
	40	0.546667	3.39989E-002	-2.77997E-004	0.00000E+000	-9.45159E-006	-1.68088E-001	3.40023E-002	3.57730E+000	9	...........
	41	0.56	3.04499E-002	-2.79624E-004	0.00000E+000	-8.51453E-006	-1.68088E-001	3.04511E-002	3.57730E+000	9	...........
	42	0.573333	2.69732E-002	-2.80378E-004	0.00000E+000	-7.56269E-006	-1.68088E-001	2.69716E-002	3.57730E+000	9	...........
	43	0.586667	2.36081E-002	-2.79752E-004	0.00000E+000	-6.60443E-006	-1.68088E-001	2.36016E-002	3.57730E+000	9	...........
	44	0.6	2.02764E-002	-2.79771E-004	0.00000E+000	-5.67274E-006	-1.68088E-001	2.02697E-002	3.57730E+000	9	...........
	45	0.613333	1.70612E-002	-2.78899E-004	0.00000E+000	-4.75835E-006	-1.68088E-001	1.70522E-002	3.57730E+000	9	...........
	46	0.626667	1.39101E-002	-2.79169E-004	0.00000E+000	-3.88328E-006	-1.68088E-001	1.38997E-002	3.57730E+000	9	...........
	47	0.64	1.07936E-002	-2.78727E-004	0.00000E+000	-3.00846E-006	-1.68088E-001	1.07760E-002	3.57730E+000	9	...........
	48	0.653333	7.70900E-003	-2.79051E-004	0.00000E+000	-2.15120E-006	-1.68088E-001	7.69622E-003	3.57730E+000	9	...........
	49	0.666667	4.72365E-003	-2.79418E-004	0.00000E+000	-1.31987E-006	-1.68088E-001	4.70614E-003	3.57730E+000	9	...........
	50	0.68	1.76541E-003	-2.78895E-004	0.00000E+000	-4.92364E-007	-1.68088E-001	1.74792E-003	3.57730E+000	9	...........
	51	0.683333	-8.74307E-005	-2.79590E-004	0.00000E+000	2.44447E-008	-1.68088E-001	-1.12017E-004	3.57730E+000	9	...........
STARTTIMEOFFSET	QUANT	2078.788	Start Time Offset (s)
