EXPLAIN
TAG	PWR800_DISCHARGE
TITLE	LABEL	PWR Cyclic Charge Discharge (Cell) - Discharge Step	Test &Identifier
DATE	LABEL	7-7-2017	Date
TIME	LABEL	15:54:47	Time
NOTES	NOTES	3	&Notes...
	supercap test cell
	2.8mg
	6M KOH
PSTAT	PSTAT	IFC5000-01520	Potentiostat
CAPACITY	QUANT	1.00000E-003	Capacity (A-hr)
CELLTYPE	SELECTOR	1	&Cell Type
WORKINGCONNECTION	SELECTOR	0	&Working Lead
MAXDISCHARGETIME	VARIABLEANDUNITS	1.00000E+002	s	1.00000E+002	second(s)	Max &Discharge Time
DISCHARGEMODE	MULTIPARAM	0	2.80000E-004	&Discharge Mode	Constant Current	Amp(s)
SAMPLETIME	QUANT	1.00000E-002	Sa&mple Period (s)
DISCHARGESTOPAT1	MULTIPARAM	3	0.00000E+000	Discharge Stop At &1	Voltage < Limit	V
DISCHARGESTOPAT2	MULTIPARAM	0	0.00000E+000	Discharge Stop At &2	None	N/A
AESBHCSELECTOR	TOGGLE	F	Save Both Half Cells
IRCOMP	TOGGLE	F	IR &Measure
EOC	QUANT	0	Open Circuit (V)
SEQUENCER	TOGGLE	TRUE	Run as Sequence
PSTATMODEL	IQUANT	53	Pstat Model
PSTATSECTION	LABEL	IFC5000-01520	Pstat Section
PSTATSERIALNO	LABEL	01520	Pstat Serial Number
CTRLMODE	IQUANT	0	Control Mode
ELECTROMETER	IQUANT	1	RE=0 or CS=1
IESTAB	IQUANT	0	I/E Stability
CASPEED	IQUANT	4	Control Amp Speed
CONVENTION	IQUANT	1	Current Convention
ICHRANGE	IQUANT	2	Ich Range
ICHRANGEMODE	TOGGLE	T	Ich Auto Range
ICHOFFSETENABLE	TOGGLE	F	Ich Offset Enable
ICHOFFSET	QUANT	0	Ich Offset (V)
ICHFILTER	IQUANT	1	Ich Filter
VCHRANGE	IQUANT	2	Vch Range
VCHRANGEMODE	TOGGLE	T	Vch Auto Range
VCHOFFSETENABLE	TOGGLE	F	Vch Offset Enable
VCHOFFSET	QUANT	0	Vch Offset (V)
VCHFILTER	IQUANT	1	Vch Filter
IERANGELOWERLIMIT	IQUANT	9	I/E Range Lower Limit
IERANGEMODE	TOGGLE	F	I/E AutoRange
IERANGE	IQUANT	9	I/E Range
ACHSELECT	IQUANT	1	Ach Select
ACHRANGE	IQUANT	2	Ach Range
ACHOFFSETENABLE	TOGGLE	F	Ach Offset Enable
ACHOFFSET	QUANT	0	Ach Offset (V)
ACHFILTER	IQUANT	1	Ach Filter
CABLEID	IQUANT	14	Cable ID
DCCALDATE	LABEL	5-7-2017	DC Calibration Date
ACCALDATE	LABEL	12/3/2015	AC Calibration Date
FRAMEWORKVERSION	QUANT	7.01	Framework Version
INSTRUMENTVERSION	LABEL	4.00	Instrument Version
CURVE	TABLE	79
	Pt	T	Vf	Im	Vu	Pwr	Sig	Ach	Temp	IERange	Over
	#	s	V	A	V	W	V	V	deg C	#	bits
	0	0.013333	5.32307E-001	-2.79418E-004	0.00000E+000	-1.48736E-004	-1.68088E-001	5.32505E-001	3.57770E+000	9	...........
	1	0.026667	5.00769E-001	-2.78959E-004	0.00000E+000	-1.39694E-004	-1.68088E-001	5.00985E-001	3.57770E+000	9	...........
	2	0.04	4.72424E-001	-2.78530E-004	0.00000E+000	-1.31584E-004	-1.68088E-001	4.72545E-001	3.57770E+000	9	...........
	3	0.053333	4.46115E-001	-2.79613E-004	0.00000E+000	-1.24739E-004	-1.68088E-001	4.46215E-001	3.57770E+000	9	...........
	4	0.066667	4.21754E-001	-2.78486E-004	0.00000E+000	-1.17453E-004	-1.68088E-001	4.21851E-001	3.57770E+000	9	...........
	5	0.08	3.99139E-001	-2.79099E-004	0.00000E+000	-1.11399E-004	-1.68088E-001	3.99224E-001	3.57770E+000	9	...........
	6	0.093333	3.78107E-001	-2.80069E-004	0.00000E+000	-1.05896E-004	-1.68088E-001	3.78190E-001	3.57770E+000	9	...........
	7	0.106667	3.58596E-001	-2.79196E-004	0.00000E+000	-1.00118E-004	-1.68088E-001	3.58681E-001	3.57770E+000	9	...........
	8	0.12	3.40496E-001	-2.79714E-004	0.00000E+000	-9.52413E-005	-1.68088E-001	3.40572E-001	3.57770E+000	9	...........
	9	0.133333	3.23704E-001	-2.77965E-004	0.00000E+000	-8.99786E-005	-1.68088E-001	3.23780E-001	3.57770E+000	9	...........
	10	0.146667	3.08109E-001	-2.79175E-004	0.00000E+000	-8.60163E-005	-1.68088E-001	3.08183E-001	3.57770E+000	9	...........
	11	0.16	2.93632E-001	-2.78588E-004	0.00000E+000	-8.18026E-005	-1.68088E-001	2.93701E-001	3.57770E+000	9	...........
	12	0.173333	2.80203E-001	-2.78664E-004	0.00000E+000	-7.80827E-005	-1.68088E-001	2.80270E-001	3.57770E+000	9	...........
	13	0.186667	2.67675E-001	-2.78375E-004	0.00000E+000	-7.45139E-005	-1.68088E-001	2.67741E-001	3.57770E+000	9	...........
	14	0.2	2.56006E-001	-2.79631E-004	0.00000E+000	-7.15874E-005	-1.68088E-001	2.56065E-001	3.57770E+000	9	...........
	15	0.213333	2.45151E-001	-2.78631E-004	0.00000E+000	-6.83067E-005	-1.68088E-001	2.45206E-001	3.57770E+000	9	...........
	16	0.226667	2.35017E-001	-2.78517E-004	0.00000E+000	-6.54561E-005	-1.68088E-001	2.35068E-001	3.57770E+000	9	...........
	17	0.24	2.25539E-001	-2.78722E-004	0.00000E+000	-6.28626E-005	-1.68088E-001	2.25589E-001	3.57770E+000	9	...........
	18	0.253333	2.16625E-001	-2.78193E-004	0.00000E+000	-6.02634E-005	-1.68088E-001	2.16674E-001	3.57770E+000	9	...........
	19	0.266667	2.08293E-001	-2.80071E-004	0.00000E+000	-5.83368E-005	-1.68088E-001	2.08338E-001	3.57770E+000	9	...........
	20	0.28	2.00429E-001	-2.79459E-004	0.00000E+000	-5.60119E-005	-1.68088E-001	2.00476E-001	3.57770E+000	9	...........
	21	0.293333	1.93030E-001	-2.79064E-004	0.00000E+000	-5.38675E-005	-1.68088E-001	1.93076E-001	3.57770E+000	9	...........
	22	0.306667	1.86083E-001	-2.79189E-004	0.00000E+000	-5.19522E-005	-1.68088E-001	1.86126E-001	3.57770E+000	9	...........
	23	0.32	1.79502E-001	-2.78857E-004	0.00000E+000	-5.00554E-005	-1.68088E-001	1.79546E-001	3.57770E+000	9	...........
	24	0.333333	1.73217E-001	-2.79511E-004	0.00000E+000	-4.84159E-005	-1.68088E-001	1.73257E-001	3.57770E+000	9	...........
	25	0.346667	1.67231E-001	-2.78029E-004	0.00000E+000	-4.64952E-005	-1.68088E-001	1.67273E-001	3.57770E+000	9	...........
	26	0.36	1.61500E-001	-2.78736E-004	0.00000E+000	-4.50159E-005	-1.68088E-001	1.61538E-001	3.57770E+000	9	...........
	27	0.373333	1.56015E-001	-2.78535E-004	0.00000E+000	-4.34557E-005	-1.68088E-001	1.56047E-001	3.57770E+000	9	...........
	28	0.386667	1.50779E-001	-2.78575E-004	0.00000E+000	-4.20034E-005	-1.68088E-001	1.50815E-001	3.57770E+000	9	...........
	29	0.4	1.45735E-001	-2.78753E-004	0.00000E+000	-4.06239E-005	-1.68088E-001	1.45767E-001	3.57770E+000	9	...........
	30	0.413333	1.40905E-001	-2.78831E-004	0.00000E+000	-3.92886E-005	-1.68088E-001	1.40937E-001	3.57770E+000	9	...........
	31	0.426667	1.36287E-001	-2.77581E-004	0.00000E+000	-3.78305E-005	-1.68088E-001	1.36321E-001	3.57800E+000	9	...........
	32	0.44	1.31784E-001	-2.80439E-004	0.00000E+000	-3.69574E-005	-1.68088E-001	1.31811E-001	3.57810E+000	9	...........
	33	0.453333	1.27427E-001	-2.78408E-004	0.00000E+000	-3.54767E-005	-1.68088E-001	1.27461E-001	3.57810E+000	9	...........
	34	0.466667	1.23247E-001	-2.78699E-004	0.00000E+000	-3.43489E-005	-1.68088E-001	1.23279E-001	3.57810E+000	9	...........
	35	0.48	1.19180E-001	-2.78573E-004	0.00000E+000	-3.32004E-005	-1.68088E-001	1.19209E-001	3.57810E+000	9	...........
	36	0.493333	1.15216E-001	-2.78145E-004	0.00000E+000	-3.20468E-005	-1.68088E-001	1.15241E-001	3.57810E+000	9	...........
	37	0.506667	1.11349E-001	-2.78028E-004	0.00000E+000	-3.09580E-005	-1.68088E-001	1.11373E-001	3.57810E+000	9	...........
	38	0.52	1.07610E-001	-2.78748E-004	0.00000E+000	-2.99960E-005	-1.68088E-001	1.07633E-001	3.57810E+000	9	...........
	39	0.533333	1.03937E-001	-2.78703E-004	0.00000E+000	-2.89676E-005	-1.68088E-001	1.03958E-001	3.57810E+000	9	...........
	40	0.546667	1.00325E-001	-2.78268E-004	0.00000E+000	-2.79172E-005	-1.68088E-001	1.00347E-001	3.57810E+000	9	...........
	41	0.56	9.68352E-002	-2.79160E-004	0.00000E+000	-2.70326E-005	-1.68088E-001	9.68580E-002	3.57810E+000	9	...........
	42	0.573333	9.34083E-002	-2.78931E-004	0.00000E+000	-2.60545E-005	-1.68088E-001	9.34259E-002	3.57810E+000	9	...........
	43	0.586667	9.00260E-002	-2.78899E-004	0.00000E+000	-2.51082E-005	-1.68088E-001	9.00462E-002	3.57810E+000	9	...........
	44	0.6	8.67340E-002	-2.79373E-004	0.00000E+000	-2.42311E-005	-1.68088E-001	8.67552E-002	3.57810E+000	9	...........
	45	0.613333	8.35305E-002	-2.78961E-004	0.00000E+000	-2.33018E-005	-1.68088E-001	8.35457E-002	3.57810E+000	9	...........
	46	0.626667	8.03682E-002	-2.78567E-004	0.00000E+000	-2.23879E-005	-1.68088E-001	8.03838E-002	3.57810E+000	9	...........
	47	0.64	7.72281E-002	-2.78287E-004	0.00000E+000	-2.14916E-005	-1.68088E-001	7.72432E-002	3.57810E+000	9	...........
	48	0.653333	7.41657E-002	-2.79278E-004	0.00000E+000	-2.07129E-005	-1.68088E-001	7.41747E-002	3.57810E+000	9	...........
	49	0.666667	7.11363E-002	-2.79782E-004	0.00000E+000	-1.99027E-005	-1.68088E-001	7.11490E-002	3.57810E+000	9	...........
	50	0.68	6.81917E-002	-2.78738E-004	0.00000E+000	-1.90076E-005	-1.68088E-001	6.82111E-002	3.57810E+000	9	...........
	51	0.693333	6.52678E-002	-2.79999E-004	0.00000E+000	-1.82749E-005	-1.68088E-001	6.52770E-002	3.57810E+000	9	...........
	52	0.706667	6.24113E-002	-2.77757E-004	0.00000E+000	-1.73352E-005	-1.68088E-001	6.24209E-002	3.57810E+000	9	...........
	53	0.72	5.95368E-002	-2.78903E-004	0.00000E+000	-1.66050E-005	-1.68088E-001	5.95514E-002	3.57810E+000	9	...........
	54	0.733333	5.67790E-002	-2.78726E-004	0.00000E+000	-1.58258E-005	-1.68088E-001	5.67879E-002	3.57810E+000	9	...........
	55	0.746667	5.40510E-002	-2.79033E-004	0.00000E+000	-1.50820E-005	-1.68088E-001	5.40572E-002	3.57810E+000	9	...........
	56	0.76	5.13469E-002	-2.78341E-004	0.00000E+000	-1.42920E-005	-1.68088E-001	5.13544E-002	3.57810E+000	9	...........
	57	0.773333	4.86922E-002	-2.77526E-004	0.00000E+000	-1.35133E-005	-1.68088E-001	4.87018E-002	3.57810E+000	9	...........
	58	0.786667	4.60696E-002	-2.79455E-004	0.00000E+000	-1.28744E-005	-1.68088E-001	4.60836E-002	3.57810E+000	9	...........
	59	0.8	4.34111E-002	-2.77805E-004	0.00000E+000	-1.20598E-005	-1.68088E-001	4.34194E-002	3.57810E+000	9	...........
	60	0.813333	4.08575E-002	-2.78832E-004	0.00000E+000	-1.13924E-005	-1.68088E-001	4.08666E-002	3.57810E+000	9	...........
	61	0.826667	3.83206E-002	-2.77952E-004	0.00000E+000	-1.06513E-005	-1.68088E-001	3.83222E-002	3.57810E+000	9	...........
	62	0.84	3.57926E-002	-2.79079E-004	0.00000E+000	-9.98897E-006	-1.68088E-001	3.57971E-002	3.57810E+000	9	...........
	63	0.853333	3.33081E-002	-2.79394E-004	0.00000E+000	-9.30607E-006	-1.68088E-001	3.33056E-002	3.57810E+000	9	...........
	64	0.866667	3.08439E-002	-2.79298E-004	0.00000E+000	-8.61465E-006	-1.68088E-001	3.08412E-002	3.57810E+000	9	...........
	65	0.88	2.84391E-002	-2.79041E-004	0.00000E+000	-7.93567E-006	-1.68088E-001	2.84383E-002	3.57810E+000	9	...........
	66	0.893333	2.60696E-002	-2.78564E-004	0.00000E+000	-7.26206E-006	-1.68088E-001	2.60679E-002	3.57810E+000	9	...........
	67	0.906667	2.36987E-002	-2.79044E-004	0.00000E+000	-6.61297E-006	-1.68088E-001	2.36922E-002	3.57810E+000	9	...........
	68	0.92	2.13671E-002	-2.79016E-004	0.00000E+000	-5.96175E-006	-1.68088E-001	2.13636E-002	3.57810E+000	9	...........
	69	0.933333	1.90464E-002	-2.78592E-004	0.00000E+000	-5.30616E-006	-1.68088E-001	1.90395E-002	3.57810E+000	9	...........
	70	0.946667	1.67399E-002	-2.79019E-004	0.00000E+000	-4.67076E-006	-1.68088E-001	1.67290E-002	3.57810E+000	9	...........
	71	0.96	1.44674E-002	-2.78503E-004	0.00000E+000	-4.02921E-006	-1.68088E-001	1.44554E-002	3.57810E+000	9	...........
	72	0.97333	1.22104E-002	-2.77865E-004	0.00000E+000	-3.39284E-006	-1.68088E-001	1.21998E-002	3.57810E+000	9	...........
	73	0.98667	1.00382E-002	-2.78479E-004	0.00000E+000	-2.79542E-006	-1.68088E-001	1.00221E-002	3.57810E+000	9	...........
	74	1	7.81870E-003	-2.78546E-004	0.00000E+000	-2.17786E-006	-1.68088E-001	7.80150E-003	3.57810E+000	9	...........
	75	1.01333	5.64186E-003	-2.78288E-004	0.00000E+000	-1.57006E-006	-1.68088E-001	5.62347E-003	3.57810E+000	9	...........
	76	1.02667	3.48095E-003	-2.80087E-004	0.00000E+000	-9.74968E-007	-1.68088E-001	3.45961E-003	3.57810E+000	9	...........
	77	1.04	1.29568E-003	-2.79297E-004	0.00000E+000	-3.61880E-007	-1.68088E-001	1.27470E-003	3.57810E+000	9	...........
	78	1.04333	-6.07013E-005	-2.79390E-004	0.00000E+000	1.69593E-008	-1.68088E-001	-8.11331E-005	3.57810E+000	9	...........
STARTTIMEOFFSET	QUANT	885.6219	Start Time Offset (s)
