EXPLAIN
TAG	PWR800_DISCHARGE
TITLE	LABEL	PWR Cyclic Charge Discharge (Cell) - Discharge Step	Test &Identifier
DATE	LABEL	7-7-2017	Date
TIME	LABEL	16:16:48	Time
NOTES	NOTES	3	&Notes...
	supercap test cell
	2.8mg
	6M KOH
PSTAT	PSTAT	IFC5000-01520	Potentiostat
CAPACITY	QUANT	1.00000E-003	Capacity (A-hr)
CELLTYPE	SELECTOR	1	&Cell Type
WORKINGCONNECTION	SELECTOR	0	&Working Lead
MAXDISCHARGETIME	VARIABLEANDUNITS	1.00000E+002	s	1.00000E+002	second(s)	Max &Discharge Time
DISCHARGEMODE	MULTIPARAM	0	2.80000E-004	&Discharge Mode	Constant Current	Amp(s)
SAMPLETIME	QUANT	1.00000E-002	Sa&mple Period (s)
DISCHARGESTOPAT1	MULTIPARAM	3	0.00000E+000	Discharge Stop At &1	Voltage < Limit	V
DISCHARGESTOPAT2	MULTIPARAM	0	0.00000E+000	Discharge Stop At &2	None	N/A
AESBHCSELECTOR	TOGGLE	F	Save Both Half Cells
IRCOMP	TOGGLE	F	IR &Measure
EOC	QUANT	0	Open Circuit (V)
SEQUENCER	TOGGLE	TRUE	Run as Sequence
PSTATMODEL	IQUANT	53	Pstat Model
PSTATSECTION	LABEL	IFC5000-01520	Pstat Section
PSTATSERIALNO	LABEL	01520	Pstat Serial Number
CTRLMODE	IQUANT	0	Control Mode
ELECTROMETER	IQUANT	1	RE=0 or CS=1
IESTAB	IQUANT	0	I/E Stability
CASPEED	IQUANT	4	Control Amp Speed
CONVENTION	IQUANT	1	Current Convention
ICHRANGE	IQUANT	2	Ich Range
ICHRANGEMODE	TOGGLE	T	Ich Auto Range
ICHOFFSETENABLE	TOGGLE	F	Ich Offset Enable
ICHOFFSET	QUANT	0	Ich Offset (V)
ICHFILTER	IQUANT	1	Ich Filter
VCHRANGE	IQUANT	2	Vch Range
VCHRANGEMODE	TOGGLE	T	Vch Auto Range
VCHOFFSETENABLE	TOGGLE	F	Vch Offset Enable
VCHOFFSET	QUANT	0	Vch Offset (V)
VCHFILTER	IQUANT	1	Vch Filter
IERANGELOWERLIMIT	IQUANT	9	I/E Range Lower Limit
IERANGEMODE	TOGGLE	F	I/E AutoRange
IERANGE	IQUANT	9	I/E Range
ACHSELECT	IQUANT	1	Ach Select
ACHRANGE	IQUANT	2	Ach Range
ACHOFFSETENABLE	TOGGLE	F	Ach Offset Enable
ACHOFFSET	QUANT	0	Ach Offset (V)
ACHFILTER	IQUANT	1	Ach Filter
CABLEID	IQUANT	14	Cable ID
DCCALDATE	LABEL	5-7-2017	DC Calibration Date
ACCALDATE	LABEL	12/3/2015	AC Calibration Date
FRAMEWORKVERSION	QUANT	7.01	Framework Version
INSTRUMENTVERSION	LABEL	4.00	Instrument Version
CURVE	TABLE	56
	Pt	T	Vf	Im	Vu	Pwr	Sig	Ach	Temp	IERange	Over
	#	s	V	A	V	W	V	V	deg C	#	bits
	0	0.013333	5.18601E-001	-2.79814E-004	0.00000E+000	-1.45112E-004	-1.68088E-001	5.18860E-001	3.57780E+000	9	...........
	1	0.026667	4.85149E-001	-2.77553E-004	0.00000E+000	-1.34654E-004	-1.68088E-001	4.85337E-001	3.57780E+000	9	...........
	2	0.04	4.54523E-001	-2.78394E-004	0.00000E+000	-1.26536E-004	-1.68088E-001	4.54635E-001	3.57780E+000	9	...........
	3	0.053333	4.25895E-001	-2.78872E-004	0.00000E+000	-1.18770E-004	-1.68088E-001	4.25997E-001	3.57780E+000	9	...........
	4	0.066667	3.99190E-001	-2.79890E-004	0.00000E+000	-1.11729E-004	-1.68088E-001	3.99276E-001	3.57780E+000	9	...........
	5	0.08	3.74224E-001	-2.77899E-004	0.00000E+000	-1.03996E-004	-1.68088E-001	3.74307E-001	3.57780E+000	9	...........
	6	0.093333	3.50910E-001	-2.78914E-004	0.00000E+000	-9.78735E-005	-1.68088E-001	3.50985E-001	3.57780E+000	9	...........
	7	0.106667	3.29192E-001	-2.79290E-004	0.00000E+000	-9.19399E-005	-1.68088E-001	3.29267E-001	3.57780E+000	9	...........
	8	0.12	3.08960E-001	-2.78475E-004	0.00000E+000	-8.60375E-005	-1.68088E-001	3.09033E-001	3.57780E+000	9	...........
	9	0.133333	2.90111E-001	-2.79207E-004	0.00000E+000	-8.10012E-005	-1.68088E-001	2.90177E-001	3.57780E+000	9	...........
	10	0.146667	2.72602E-001	-2.78582E-004	0.00000E+000	-7.59420E-005	-1.68088E-001	2.72668E-001	3.57780E+000	9	...........
	11	0.16	2.56327E-001	-2.79505E-004	0.00000E+000	-7.16448E-005	-1.68088E-001	2.56396E-001	3.57780E+000	9	...........
	12	0.173333	2.41234E-001	-2.78053E-004	0.00000E+000	-6.70759E-005	-1.68088E-001	2.41287E-001	3.57780E+000	9	...........
	13	0.186667	2.27210E-001	-2.80096E-004	0.00000E+000	-6.36406E-005	-1.68088E-001	2.27261E-001	3.57780E+000	9	...........
	14	0.2	2.14181E-001	-2.79193E-004	0.00000E+000	-5.97978E-005	-1.68088E-001	2.14230E-001	3.57780E+000	9	...........
	15	0.213333	2.02102E-001	-2.78848E-004	0.00000E+000	-5.63558E-005	-1.68088E-001	2.02150E-001	3.57780E+000	9	...........
	16	0.226667	1.90847E-001	-2.79629E-004	0.00000E+000	-5.33665E-005	-1.68088E-001	1.90893E-001	3.57780E+000	9	...........
	17	0.24	1.80410E-001	-2.76870E-004	0.00000E+000	-4.99501E-005	-1.68088E-001	1.80447E-001	3.57780E+000	9	...........
	18	0.253333	1.70657E-001	-2.77814E-004	0.00000E+000	-4.74108E-005	-1.68088E-001	1.70696E-001	3.57780E+000	9	...........
	19	0.266667	1.61467E-001	-2.79246E-004	0.00000E+000	-4.50889E-005	-1.68088E-001	1.61508E-001	3.57780E+000	9	...........
	20	0.28	1.52872E-001	-2.79041E-004	0.00000E+000	-4.26576E-005	-1.68088E-001	1.52907E-001	3.57780E+000	9	...........
	21	0.293333	1.44814E-001	-2.79646E-004	0.00000E+000	-4.04965E-005	-1.68088E-001	1.44845E-001	3.57780E+000	9	...........
	22	0.306667	1.37256E-001	-2.78693E-004	0.00000E+000	-3.82523E-005	-1.68088E-001	1.37285E-001	3.57780E+000	9	...........
	23	0.32	1.30107E-001	-2.78597E-004	0.00000E+000	-3.62475E-005	-1.68088E-001	1.30132E-001	3.57780E+000	9	...........
	24	0.333333	1.23350E-001	-2.78296E-004	0.00000E+000	-3.43278E-005	-1.68088E-001	1.23377E-001	3.57780E+000	9	...........
	25	0.346667	1.16943E-001	-2.78795E-004	0.00000E+000	-3.26032E-005	-1.68088E-001	1.16968E-001	3.57780E+000	9	...........
	26	0.36	1.10799E-001	-2.78792E-004	0.00000E+000	-3.08897E-005	-1.68088E-001	1.10824E-001	3.57780E+000	9	...........
	27	0.373333	1.04954E-001	-2.77640E-004	0.00000E+000	-2.91395E-005	-1.68088E-001	1.04974E-001	3.57780E+000	9	...........
	28	0.386667	9.94232E-002	-2.78894E-004	0.00000E+000	-2.77285E-005	-1.68088E-001	9.94520E-002	3.57780E+000	9	...........
	29	0.4	9.40990E-002	-2.78576E-004	0.00000E+000	-2.62137E-005	-1.68088E-001	9.41178E-002	3.57780E+000	9	...........
	30	0.413333	8.90069E-002	-2.79954E-004	0.00000E+000	-2.49179E-005	-1.68088E-001	8.90276E-002	3.57780E+000	9	...........
	31	0.426667	8.40860E-002	-2.79947E-004	0.00000E+000	-2.35396E-005	-1.68088E-001	8.41028E-002	3.57780E+000	9	...........
	32	0.44	7.93671E-002	-2.79354E-004	0.00000E+000	-2.21715E-005	-1.68088E-001	7.93839E-002	3.57780E+000	9	...........
	33	0.453333	7.48175E-002	-2.78733E-004	0.00000E+000	-2.08541E-005	-1.68088E-001	7.48279E-002	3.57780E+000	9	...........
	34	0.466667	7.04388E-002	-2.78848E-004	0.00000E+000	-1.96417E-005	-1.68088E-001	7.04513E-002	3.57780E+000	9	...........
	35	0.48	6.62525E-002	-2.79749E-004	0.00000E+000	-1.85341E-005	-1.68088E-001	6.62622E-002	3.57780E+000	9	...........
	36	0.493333	6.21598E-002	-2.79581E-004	0.00000E+000	-1.73787E-005	-1.68088E-001	6.21693E-002	3.57780E+000	9	...........
	37	0.506667	5.81903E-002	-2.77812E-004	0.00000E+000	-1.61660E-005	-1.68088E-001	5.82000E-002	3.57780E+000	9	...........
	38	0.52	5.43822E-002	-2.79800E-004	0.00000E+000	-1.52162E-005	-1.68088E-001	5.43859E-002	3.57780E+000	9	...........
	39	0.533333	5.07012E-002	-2.79546E-004	0.00000E+000	-1.41733E-005	-1.68088E-001	5.07022E-002	3.57780E+000	9	...........
	40	0.546667	4.71403E-002	-2.80343E-004	0.00000E+000	-1.32154E-005	-1.68088E-001	4.71483E-002	3.57780E+000	9	...........
	41	0.56	4.35759E-002	-2.79108E-004	0.00000E+000	-1.21624E-005	-1.68088E-001	4.35864E-002	3.57780E+000	9	...........
	42	0.573333	4.00733E-002	-2.80817E-004	0.00000E+000	-1.12533E-005	-1.68088E-001	4.00784E-002	3.57780E+000	9	...........
	43	0.586667	3.66856E-002	-2.79843E-004	0.00000E+000	-1.02662E-005	-1.68088E-001	3.66868E-002	3.57780E+000	9	...........
	44	0.6	3.33705E-002	-2.79894E-004	0.00000E+000	-9.34019E-006	-1.68088E-001	3.33752E-002	3.57780E+000	9	...........
	45	0.613333	3.01304E-002	-2.78593E-004	0.00000E+000	-8.39411E-006	-1.68088E-001	3.01325E-002	3.57780E+000	9	...........
	46	0.626667	2.69699E-002	-2.78061E-004	0.00000E+000	-7.49929E-006	-1.68088E-001	2.69677E-002	3.57780E+000	9	...........
	47	0.64	2.38699E-002	-2.79963E-004	0.00000E+000	-6.68267E-006	-1.68088E-001	2.38645E-002	3.57780E+000	9	...........
	48	0.653333	2.08129E-002	-2.78484E-004	0.00000E+000	-5.79606E-006	-1.68088E-001	2.08064E-002	3.57780E+000	9	...........
	49	0.666667	1.77444E-002	-2.78517E-004	0.00000E+000	-4.94211E-006	-1.68088E-001	1.77402E-002	3.57780E+000	9	...........
	50	0.68	1.47356E-002	-2.78709E-004	0.00000E+000	-4.10695E-006	-1.68088E-001	1.47259E-002	3.57780E+000	9	...........
	51	0.693333	1.17732E-002	-2.79417E-004	0.00000E+000	-3.28962E-006	-1.68088E-001	1.17593E-002	3.57780E+000	9	...........
	52	0.706667	8.91667E-003	-2.78530E-004	0.00000E+000	-2.48356E-006	-1.68088E-001	8.90409E-003	3.57780E+000	9	...........
	53	0.72	6.12522E-003	-2.79431E-004	0.00000E+000	-1.71158E-006	-1.68088E-001	6.10555E-003	3.57780E+000	9	...........
	54	0.733333	3.41281E-003	-2.78866E-004	0.00000E+000	-9.51717E-007	-1.68088E-001	3.39655E-003	3.57780E+000	9	...........
	55	0.745	8.82910E-004	-2.79983E-004	0.00000E+000	-2.47199E-007	-1.68088E-001	8.66627E-004	3.57780E+000	9	...........
STARTTIMEOFFSET	QUANT	1796.634	Start Time Offset (s)
