EXPLAIN
TAG	PWR800_DISCHARGE
TITLE	LABEL	PWR Cyclic Charge Discharge (Cell) - Discharge Step	Test &Identifier
DATE	LABEL	7-7-2017	Date
TIME	LABEL	15:37:00	Time
NOTES	NOTES	3	&Notes...
	supercap test cell
	2.8mg
	6M KOH
PSTAT	PSTAT	IFC5000-01520	Potentiostat
CAPACITY	QUANT	1.00000E-003	Capacity (A-hr)
CELLTYPE	SELECTOR	1	&Cell Type
WORKINGCONNECTION	SELECTOR	0	&Working Lead
MAXDISCHARGETIME	VARIABLEANDUNITS	1.00000E+002	s	1.00000E+002	second(s)	Max &Discharge Time
DISCHARGEMODE	MULTIPARAM	0	2.80000E-004	&Discharge Mode	Constant Current	Amp(s)
SAMPLETIME	QUANT	1.00000E-002	Sa&mple Period (s)
DISCHARGESTOPAT1	MULTIPARAM	3	0.00000E+000	Discharge Stop At &1	Voltage < Limit	V
DISCHARGESTOPAT2	MULTIPARAM	0	0.00000E+000	Discharge Stop At &2	None	N/A
AESBHCSELECTOR	TOGGLE	F	Save Both Half Cells
IRCOMP	TOGGLE	F	IR &Measure
EOC	QUANT	0	Open Circuit (V)
SEQUENCER	TOGGLE	TRUE	Run as Sequence
PSTATMODEL	IQUANT	53	Pstat Model
PSTATSECTION	LABEL	IFC5000-01520	Pstat Section
PSTATSERIALNO	LABEL	01520	Pstat Serial Number
CTRLMODE	IQUANT	0	Control Mode
ELECTROMETER	IQUANT	1	RE=0 or CS=1
IESTAB	IQUANT	0	I/E Stability
CASPEED	IQUANT	4	Control Amp Speed
CONVENTION	IQUANT	1	Current Convention
ICHRANGE	IQUANT	2	Ich Range
ICHRANGEMODE	TOGGLE	T	Ich Auto Range
ICHOFFSETENABLE	TOGGLE	F	Ich Offset Enable
ICHOFFSET	QUANT	0	Ich Offset (V)
ICHFILTER	IQUANT	1	Ich Filter
VCHRANGE	IQUANT	2	Vch Range
VCHRANGEMODE	TOGGLE	T	Vch Auto Range
VCHOFFSETENABLE	TOGGLE	F	Vch Offset Enable
VCHOFFSET	QUANT	0	Vch Offset (V)
VCHFILTER	IQUANT	1	Vch Filter
IERANGELOWERLIMIT	IQUANT	9	I/E Range Lower Limit
IERANGEMODE	TOGGLE	F	I/E AutoRange
IERANGE	IQUANT	9	I/E Range
ACHSELECT	IQUANT	1	Ach Select
ACHRANGE	IQUANT	2	Ach Range
ACHOFFSETENABLE	TOGGLE	F	Ach Offset Enable
ACHOFFSET	QUANT	0	Ach Offset (V)
ACHFILTER	IQUANT	1	Ach Filter
CABLEID	IQUANT	14	Cable ID
DCCALDATE	LABEL	5-7-2017	DC Calibration Date
ACCALDATE	LABEL	12/3/2015	AC Calibration Date
FRAMEWORKVERSION	QUANT	7.01	Framework Version
INSTRUMENTVERSION	LABEL	4.00	Instrument Version
CURVE	TABLE	159
	Pt	T	Vf	Im	Vu	Pwr	Sig	Ach	Temp	IERange	Over
	#	s	V	A	V	W	V	V	deg C	#	bits
	0	0.013333	5.90175E-001	-2.78227E-004	0.00000E+000	-1.64202E-004	-1.68088E-001	5.90437E-001	3.57860E+000	9	...........
	1	0.026667	5.64614E-001	-2.79125E-004	0.00000E+000	-1.57598E-004	-1.68088E-001	5.64869E-001	3.57860E+000	9	...........
	2	0.04	5.41929E-001	-2.78788E-004	0.00000E+000	-1.51084E-004	-1.68088E-001	5.42166E-001	3.57860E+000	9	...........
	3	0.053333	5.21390E-001	-2.79175E-004	0.00000E+000	-1.45559E-004	-1.68088E-001	5.21645E-001	3.57860E+000	9	...........
	4	0.066667	5.02665E-001	-2.78390E-004	0.00000E+000	-1.39937E-004	-1.68088E-001	5.02911E-001	3.57860E+000	9	...........
	5	0.08	4.85594E-001	-2.79010E-004	0.00000E+000	-1.35486E-004	-1.68088E-001	4.85771E-001	3.57860E+000	9	...........
	6	0.093333	4.69886E-001	-2.79074E-004	0.00000E+000	-1.31133E-004	-1.68088E-001	4.70001E-001	3.57860E+000	9	...........
	7	0.106667	4.55134E-001	-2.79399E-004	0.00000E+000	-1.27164E-004	-1.68088E-001	4.55241E-001	3.57860E+000	9	...........
	8	0.12	4.41390E-001	-2.79064E-004	0.00000E+000	-1.23176E-004	-1.68088E-001	4.41501E-001	3.57860E+000	9	...........
	9	0.133333	4.28616E-001	-2.79698E-004	0.00000E+000	-1.19883E-004	-1.68088E-001	4.28723E-001	3.57860E+000	9	...........
	10	0.146667	4.16640E-001	-2.79448E-004	0.00000E+000	-1.16429E-004	-1.68088E-001	4.16742E-001	3.57860E+000	9	...........
	11	0.16	4.05463E-001	-2.79191E-004	0.00000E+000	-1.13201E-004	-1.68088E-001	4.05555E-001	3.57860E+000	9	...........
	12	0.173333	3.95003E-001	-2.78629E-004	0.00000E+000	-1.10059E-004	-1.68088E-001	3.95095E-001	3.57860E+000	9	...........
	13	0.186667	3.85163E-001	-2.78322E-004	0.00000E+000	-1.07199E-004	-1.68088E-001	3.85259E-001	3.57860E+000	9	...........
	14	0.2	3.75897E-001	-2.78894E-004	0.00000E+000	-1.04835E-004	-1.68088E-001	3.75986E-001	3.57860E+000	9	...........
	15	0.213333	3.67135E-001	-2.78432E-004	0.00000E+000	-1.02222E-004	-1.68088E-001	3.67228E-001	3.57860E+000	9	...........
	16	0.226667	3.58864E-001	-2.78664E-004	0.00000E+000	-1.00003E-004	-1.68088E-001	3.58953E-001	3.57860E+000	9	...........
	17	0.24	3.51003E-001	-2.78298E-004	0.00000E+000	-9.76834E-005	-1.68088E-001	3.51086E-001	3.57860E+000	9	...........
	18	0.253333	3.43542E-001	-2.78780E-004	0.00000E+000	-9.57727E-005	-1.68088E-001	3.43625E-001	3.57860E+000	9	...........
	19	0.266667	3.36455E-001	-2.78719E-004	0.00000E+000	-9.37762E-005	-1.68088E-001	3.36539E-001	3.57860E+000	9	...........
	20	0.28	3.29683E-001	-2.78579E-004	0.00000E+000	-9.18428E-005	-1.68088E-001	3.29759E-001	3.57860E+000	9	...........
	21	0.293333	3.23199E-001	-2.78174E-004	0.00000E+000	-8.99056E-005	-1.68088E-001	3.23276E-001	3.57860E+000	9	...........
	22	0.306667	3.17007E-001	-2.79317E-004	0.00000E+000	-8.85454E-005	-1.68088E-001	3.17085E-001	3.57860E+000	9	...........
	23	0.32	3.11095E-001	-2.78768E-004	0.00000E+000	-8.67232E-005	-1.68088E-001	3.11174E-001	3.57860E+000	9	...........
	24	0.333333	3.05428E-001	-2.78990E-004	0.00000E+000	-8.52112E-005	-1.68088E-001	3.05510E-001	3.57860E+000	9	...........
	25	0.346667	3.00005E-001	-2.79724E-004	0.00000E+000	-8.39187E-005	-1.68088E-001	3.00077E-001	3.57860E+000	9	...........
	26	0.36	2.94773E-001	-2.78982E-004	0.00000E+000	-8.22363E-005	-1.68088E-001	2.94848E-001	3.57860E+000	9	...........
	27	0.373333	2.89701E-001	-2.79140E-004	0.00000E+000	-8.08671E-005	-1.68088E-001	2.89768E-001	3.57860E+000	9	...........
	28	0.386667	2.84777E-001	-2.78495E-004	0.00000E+000	-7.93088E-005	-1.68088E-001	2.84848E-001	3.57860E+000	9	...........
	29	0.4	2.80042E-001	-2.78638E-004	0.00000E+000	-7.80305E-005	-1.68088E-001	2.80110E-001	3.57860E+000	9	...........
	30	0.413333	2.75474E-001	-2.79028E-004	0.00000E+000	-7.68649E-005	-1.68088E-001	2.75548E-001	3.57860E+000	9	...........
	31	0.426667	2.71093E-001	-2.78894E-004	0.00000E+000	-7.56060E-005	-1.68088E-001	2.71153E-001	3.57860E+000	9	...........
	32	0.44	2.66791E-001	-2.79405E-004	0.00000E+000	-7.45429E-005	-1.68088E-001	2.66860E-001	3.57860E+000	9	...........
	33	0.453333	2.62580E-001	-2.78336E-004	0.00000E+000	-7.30855E-005	-1.68088E-001	2.62645E-001	3.57860E+000	9	...........
	34	0.466667	2.58531E-001	-2.78729E-004	0.00000E+000	-7.20601E-005	-1.68088E-001	2.58596E-001	3.57860E+000	9	...........
	35	0.48	2.54588E-001	-2.78916E-004	0.00000E+000	-7.10086E-005	-1.68088E-001	2.54653E-001	3.57860E+000	9	...........
	36	0.493333	2.50778E-001	-2.78216E-004	0.00000E+000	-6.97705E-005	-1.68088E-001	2.50842E-001	3.57860E+000	9	...........
	37	0.506667	2.47035E-001	-2.79349E-004	0.00000E+000	-6.90090E-005	-1.68088E-001	2.47097E-001	3.57860E+000	9	...........
	38	0.52	2.43391E-001	-2.79404E-004	0.00000E+000	-6.80044E-005	-1.68088E-001	2.43443E-001	3.57860E+000	9	...........
	39	0.533333	2.39803E-001	-2.80301E-004	0.00000E+000	-6.72170E-005	-1.68088E-001	2.39860E-001	3.57860E+000	9	...........
	40	0.546667	2.36334E-001	-2.78999E-004	0.00000E+000	-6.59369E-005	-1.68088E-001	2.36386E-001	3.57860E+000	9	...........
	41	0.56	2.32916E-001	-2.78369E-004	0.00000E+000	-6.48365E-005	-1.68088E-001	2.32968E-001	3.57860E+000	9	...........
	42	0.573333	2.29585E-001	-2.78968E-004	0.00000E+000	-6.40467E-005	-1.68088E-001	2.29638E-001	3.57860E+000	9	...........
	43	0.586667	2.26341E-001	-2.79278E-004	0.00000E+000	-6.32121E-005	-1.68088E-001	2.26394E-001	3.57860E+000	9	...........
	44	0.6	2.23098E-001	-2.78489E-004	0.00000E+000	-6.21305E-005	-1.68088E-001	2.23151E-001	3.57860E+000	9	...........
	45	0.613333	2.19932E-001	-2.78791E-004	0.00000E+000	-6.13151E-005	-1.68088E-001	2.19982E-001	3.57860E+000	9	...........
	46	0.626667	2.16879E-001	-2.78732E-004	0.00000E+000	-6.04511E-005	-1.68088E-001	2.16928E-001	3.57860E+000	9	...........
	47	0.64	2.13828E-001	-2.78338E-004	0.00000E+000	-5.95165E-005	-1.68088E-001	2.13874E-001	3.57860E+000	9	...........
	48	0.653333	2.10815E-001	-2.78999E-004	0.00000E+000	-5.88171E-005	-1.68088E-001	2.10864E-001	3.57860E+000	9	...........
	49	0.666667	2.07855E-001	-2.78874E-004	0.00000E+000	-5.79654E-005	-1.68088E-001	2.07901E-001	3.57860E+000	9	...........
	50	0.68	2.04960E-001	-2.79364E-004	0.00000E+000	-5.72582E-005	-1.68088E-001	2.05002E-001	3.57880E+000	9	...........
	51	0.693333	2.02168E-001	-2.78645E-004	0.00000E+000	-5.63331E-005	-1.68088E-001	2.02214E-001	3.57940E+000	9	...........
	52	0.706667	1.99380E-001	-2.79001E-004	0.00000E+000	-5.56274E-005	-1.68088E-001	1.99423E-001	3.57940E+000	9	...........
	53	0.72	1.96619E-001	-2.78958E-004	0.00000E+000	-5.48485E-005	-1.68088E-001	1.96660E-001	3.57940E+000	9	...........
	54	0.733333	1.93929E-001	-2.79238E-004	0.00000E+000	-5.41521E-005	-1.68088E-001	1.93974E-001	3.57940E+000	9	...........
	55	0.746667	1.91276E-001	-2.78311E-004	0.00000E+000	-5.32343E-005	-1.68088E-001	1.91312E-001	3.57940E+000	9	...........
	56	0.76	1.88612E-001	-2.78476E-004	0.00000E+000	-5.25238E-005	-1.68088E-001	1.88658E-001	3.57940E+000	9	...........
	57	0.773333	1.86020E-001	-2.79373E-004	0.00000E+000	-5.19690E-005	-1.68088E-001	1.86066E-001	3.57940E+000	9	...........
	58	0.786667	1.83424E-001	-2.78660E-004	0.00000E+000	-5.11130E-005	-1.68088E-001	1.83472E-001	3.57940E+000	9	...........
	59	0.8	1.80878E-001	-2.78689E-004	0.00000E+000	-5.04089E-005	-1.68088E-001	1.80924E-001	3.57940E+000	9	...........
	60	0.813333	1.78415E-001	-2.78774E-004	0.00000E+000	-4.97374E-005	-1.68088E-001	1.78459E-001	3.57940E+000	9	...........
	61	0.826667	1.75942E-001	-2.78160E-004	0.00000E+000	-4.89401E-005	-1.68088E-001	1.75986E-001	3.57940E+000	9	...........
	62	0.84	1.73460E-001	-2.78621E-004	0.00000E+000	-4.83296E-005	-1.68088E-001	1.73509E-001	3.57940E+000	9	...........
	63	0.853333	1.71020E-001	-2.79077E-004	0.00000E+000	-4.77276E-005	-1.68088E-001	1.71063E-001	3.57940E+000	9	...........
	64	0.866667	1.68635E-001	-2.79546E-004	0.00000E+000	-4.71412E-005	-1.68088E-001	1.68672E-001	3.57940E+000	9	...........
	65	0.88	1.66289E-001	-2.78283E-004	0.00000E+000	-4.62754E-005	-1.68088E-001	1.66328E-001	3.57940E+000	9	...........
	66	0.893333	1.63935E-001	-2.78316E-004	0.00000E+000	-4.56257E-005	-1.68088E-001	1.63976E-001	3.57940E+000	9	...........
	67	0.906667	1.61615E-001	-2.78908E-004	0.00000E+000	-4.50758E-005	-1.68088E-001	1.61657E-001	3.57940E+000	9	...........
	68	0.92	1.59362E-001	-2.79333E-004	0.00000E+000	-4.45150E-005	-1.68088E-001	1.59403E-001	3.57940E+000	9	...........
	69	0.933333	1.57084E-001	-2.78578E-004	0.00000E+000	-4.37601E-005	-1.68088E-001	1.57124E-001	3.57940E+000	9	...........
	70	0.946667	1.54812E-001	-2.78582E-004	0.00000E+000	-4.31279E-005	-1.68088E-001	1.54853E-001	3.57940E+000	9	...........
	71	0.96	1.52561E-001	-2.78826E-004	0.00000E+000	-4.25379E-005	-1.68088E-001	1.52596E-001	3.57940E+000	9	...........
	72	0.97333	1.50333E-001	-2.78953E-004	0.00000E+000	-4.19359E-005	-1.68088E-001	1.50365E-001	3.57940E+000	9	...........
	73	0.98667	1.48092E-001	-2.78547E-004	0.00000E+000	-4.12506E-005	-1.68088E-001	1.48128E-001	3.57940E+000	9	...........
	74	1	1.45874E-001	-2.78747E-004	0.00000E+000	-4.06620E-005	-1.68088E-001	1.45903E-001	3.57940E+000	9	...........
	75	1.01333	1.43731E-001	-2.79104E-004	0.00000E+000	-4.01158E-005	-1.68088E-001	1.43761E-001	3.57940E+000	9	...........
	76	1.02667	1.41584E-001	-2.79165E-004	0.00000E+000	-3.95253E-005	-1.68088E-001	1.41617E-001	3.57940E+000	9	...........
	77	1.04	1.39468E-001	-2.78356E-004	0.00000E+000	-3.88219E-005	-1.68088E-001	1.39503E-001	3.57940E+000	9	...........
	78	1.05333	1.37312E-001	-2.79211E-004	0.00000E+000	-3.83392E-005	-1.68088E-001	1.37344E-001	3.57940E+000	9	...........
	79	1.06667	1.35195E-001	-2.79196E-004	0.00000E+000	-3.77459E-005	-1.68088E-001	1.35222E-001	3.57940E+000	9	...........
	80	1.08	1.33077E-001	-2.79020E-004	0.00000E+000	-3.71312E-005	-1.68088E-001	1.33106E-001	3.57940E+000	9	...........
	81	1.09333	1.30975E-001	-2.78771E-004	0.00000E+000	-3.65119E-005	-1.68088E-001	1.31000E-001	3.57940E+000	9	...........
	82	1.10667	1.28845E-001	-2.78543E-004	0.00000E+000	-3.58889E-005	-1.68088E-001	1.28874E-001	3.57940E+000	9	...........
	83	1.12	1.26784E-001	-2.78971E-004	0.00000E+000	-3.53690E-005	-1.68088E-001	1.26811E-001	3.57940E+000	9	...........
	84	1.13333	1.24781E-001	-2.78336E-004	0.00000E+000	-3.47311E-005	-1.68088E-001	1.24804E-001	3.57940E+000	9	...........
	85	1.14667	1.22768E-001	-2.78862E-004	0.00000E+000	-3.42353E-005	-1.68088E-001	1.22791E-001	3.57940E+000	9	...........
	86	1.16	1.20762E-001	-2.79469E-004	0.00000E+000	-3.37493E-005	-1.68088E-001	1.20786E-001	3.57940E+000	9	...........
	87	1.17333	1.18770E-001	-2.79132E-004	0.00000E+000	-3.31525E-005	-1.68088E-001	1.18803E-001	3.57940E+000	9	...........
	88	1.18667	1.16776E-001	-2.79736E-004	0.00000E+000	-3.26664E-005	-1.68088E-001	1.16803E-001	3.57940E+000	9	...........
	89	1.2	1.14794E-001	-2.79208E-004	0.00000E+000	-3.20514E-005	-1.68088E-001	1.14821E-001	3.57940E+000	9	...........
	90	1.21333	1.12845E-001	-2.78929E-004	0.00000E+000	-3.14759E-005	-1.68088E-001	1.12876E-001	3.57940E+000	9	...........
	91	1.22667	1.10858E-001	-2.79811E-004	0.00000E+000	-3.10191E-005	-1.68088E-001	1.10885E-001	3.57940E+000	9	...........
	92	1.24	1.08883E-001	-2.79336E-004	0.00000E+000	-3.04151E-005	-1.68088E-001	1.08912E-001	3.57940E+000	9	...........
	93	1.25333	1.06989E-001	-2.79849E-004	0.00000E+000	-2.99407E-005	-1.68088E-001	1.07012E-001	3.57940E+000	9	...........
	94	1.26667	1.05083E-001	-2.78105E-004	0.00000E+000	-2.92242E-005	-1.68088E-001	1.05113E-001	3.57940E+000	9	...........
	95	1.28	1.03130E-001	-2.79363E-004	0.00000E+000	-2.88108E-005	-1.68088E-001	1.03158E-001	3.57940E+000	9	...........
	96	1.29333	1.01227E-001	-2.78486E-004	0.00000E+000	-2.81904E-005	-1.68088E-001	1.01255E-001	3.57940E+000	9	...........
	97	1.30667	9.93876E-002	-2.78636E-004	0.00000E+000	-2.76930E-005	-1.68088E-001	9.94089E-002	3.57940E+000	9	...........
	98	1.32	9.75212E-002	-2.78989E-004	0.00000E+000	-2.72073E-005	-1.68088E-001	9.75462E-002	3.57940E+000	9	...........
	99	1.33333	9.56489E-002	-2.78978E-004	0.00000E+000	-2.66840E-005	-1.68088E-001	9.56680E-002	3.57940E+000	9	...........
	100	1.34667	9.38005E-002	-2.79060E-004	0.00000E+000	-2.61760E-005	-1.68088E-001	9.38246E-002	3.57940E+000	9	...........
	101	1.36	9.19622E-002	-2.78439E-004	0.00000E+000	-2.56059E-005	-1.68088E-001	9.19858E-002	3.57940E+000	9	...........
	102	1.37333	9.01708E-002	-2.78910E-004	0.00000E+000	-2.51496E-005	-1.68088E-001	9.01947E-002	3.57940E+000	9	...........
	103	1.38667	8.83672E-002	-2.78842E-004	0.00000E+000	-2.46405E-005	-1.68088E-001	8.83881E-002	3.57940E+000	9	...........
	104	1.4	8.65535E-002	-2.78920E-004	0.00000E+000	-2.41415E-005	-1.68088E-001	8.65711E-002	3.57940E+000	9	...........
	105	1.41333	8.47659E-002	-2.79300E-004	0.00000E+000	-2.36751E-005	-1.68088E-001	8.47859E-002	3.57940E+000	9	...........
	106	1.42667	8.29911E-002	-2.78874E-004	0.00000E+000	-2.31441E-005	-1.68088E-001	8.30123E-002	3.57940E+000	9	...........
	107	1.44	8.11685E-002	-2.79020E-004	0.00000E+000	-2.26476E-005	-1.68088E-001	8.11866E-002	3.57940E+000	9	...........
	108	1.45333	7.94078E-002	-2.79603E-004	0.00000E+000	-2.22027E-005	-1.68088E-001	7.94255E-002	3.57940E+000	9	...........
	109	1.46667	7.76527E-002	-2.78706E-004	0.00000E+000	-2.16423E-005	-1.68088E-001	7.76628E-002	3.57940E+000	9	...........
	110	1.48	7.59061E-002	-2.78927E-004	0.00000E+000	-2.11723E-005	-1.68088E-001	7.59185E-002	3.57940E+000	9	...........
	111	1.49333	7.41522E-002	-2.78474E-004	0.00000E+000	-2.06494E-005	-1.68088E-001	7.41638E-002	3.57940E+000	9	...........
	112	1.50667	7.24104E-002	-2.79861E-004	0.00000E+000	-2.02648E-005	-1.68088E-001	7.24237E-002	3.57940E+000	9	...........
	113	1.52	7.06611E-002	-2.78901E-004	0.00000E+000	-1.97074E-005	-1.68088E-001	7.06724E-002	3.57940E+000	9	...........
	114	1.53333	6.89060E-002	-2.79366E-004	0.00000E+000	-1.92500E-005	-1.68088E-001	6.89109E-002	3.57940E+000	9	...........
	115	1.54667	6.71702E-002	-2.78922E-004	0.00000E+000	-1.87352E-005	-1.68088E-001	6.71786E-002	3.57940E+000	9	...........
	116	1.56	6.54918E-002	-2.79653E-004	0.00000E+000	-1.83150E-005	-1.68088E-001	6.55020E-002	3.57940E+000	9	...........
	117	1.57333	6.37849E-002	-2.78981E-004	0.00000E+000	-1.77948E-005	-1.68088E-001	6.37953E-002	3.57940E+000	9	...........
	118	1.58667	6.21019E-002	-2.79348E-004	0.00000E+000	-1.73480E-005	-1.68088E-001	6.21090E-002	3.57940E+000	9	...........
	119	1.6	6.04330E-002	-2.79219E-004	0.00000E+000	-1.68740E-005	-1.68088E-001	6.04465E-002	3.57940E+000	9	...........
	120	1.61333	5.87314E-002	-2.79240E-004	0.00000E+000	-1.64001E-005	-1.68088E-001	5.87397E-002	3.57940E+000	9	...........
	121	1.62667	5.71027E-002	-2.79026E-004	0.00000E+000	-1.59331E-005	-1.68088E-001	5.71090E-002	3.57940E+000	9	...........
	122	1.64	5.54477E-002	-2.79122E-004	0.00000E+000	-1.54767E-005	-1.68088E-001	5.54578E-002	3.57940E+000	9	...........
	123	1.65333	5.37644E-002	-2.79292E-004	0.00000E+000	-1.50160E-005	-1.68088E-001	5.37756E-002	3.57940E+000	9	...........
	124	1.66667	5.21039E-002	-2.78459E-004	0.00000E+000	-1.45088E-005	-1.68088E-001	5.21059E-002	3.57940E+000	9	...........
	125	1.68	5.04706E-002	-2.78090E-004	0.00000E+000	-1.40354E-005	-1.68088E-001	5.04781E-002	3.57915E+000	9	...........
	126	1.69333	4.88683E-002	-2.79110E-004	0.00000E+000	-1.36396E-005	-1.68088E-001	4.88631E-002	3.57840E+000	9	...........
	127	1.70667	4.72713E-002	-2.79353E-004	0.00000E+000	-1.32054E-005	-1.68088E-001	4.72820E-002	3.57840E+000	9	...........
	128	1.72	4.56639E-002	-2.78338E-004	0.00000E+000	-1.27100E-005	-1.68088E-001	4.56768E-002	3.57840E+000	9	...........
	129	1.73333	4.40744E-002	-2.78752E-004	0.00000E+000	-1.22858E-005	-1.68088E-001	4.40841E-002	3.57840E+000	9	...........
	130	1.74667	4.24647E-002	-2.78418E-004	0.00000E+000	-1.18229E-005	-1.68088E-001	4.24681E-002	3.57840E+000	9	...........
	131	1.76	4.08144E-002	-2.79354E-004	0.00000E+000	-1.14017E-005	-1.68088E-001	4.08198E-002	3.57840E+000	9	...........
	132	1.77333	3.91596E-002	-2.78637E-004	0.00000E+000	-1.09113E-005	-1.68088E-001	3.91616E-002	3.57840E+000	9	...........
	133	1.78667	3.75301E-002	-2.78569E-004	0.00000E+000	-1.04547E-005	-1.68088E-001	3.75333E-002	3.57840E+000	9	...........
	134	1.8	3.59402E-002	-2.79464E-004	0.00000E+000	-1.00440E-005	-1.68088E-001	3.59432E-002	3.57840E+000	9	...........
	135	1.81333	3.44063E-002	-2.78743E-004	0.00000E+000	-9.59050E-006	-1.68088E-001	3.44055E-002	3.57840E+000	9	...........
	136	1.82667	3.28335E-002	-2.79755E-004	0.00000E+000	-9.18536E-006	-1.68088E-001	3.28354E-002	3.57840E+000	9	...........
	137	1.84	3.12375E-002	-2.79843E-004	0.00000E+000	-8.74160E-006	-1.68088E-001	3.12337E-002	3.57840E+000	9	...........
	138	1.85333	2.96817E-002	-2.79080E-004	0.00000E+000	-8.28358E-006	-1.68088E-001	2.96760E-002	3.57840E+000	9	...........
	139	1.86667	2.81151E-002	-2.79210E-004	0.00000E+000	-7.85002E-006	-1.68088E-001	2.81137E-002	3.57840E+000	9	...........
	140	1.88	2.65892E-002	-2.77970E-004	0.00000E+000	-7.39098E-006	-1.68088E-001	2.65823E-002	3.57840E+000	9	...........
	141	1.89333	2.50642E-002	-2.78840E-004	0.00000E+000	-6.98890E-006	-1.68088E-001	2.50615E-002	3.57840E+000	9	...........
	142	1.90667	2.35491E-002	-2.79290E-004	0.00000E+000	-6.57703E-006	-1.68088E-001	2.35369E-002	3.57840E+000	9	...........
	143	1.92	2.19736E-002	-2.80228E-004	0.00000E+000	-6.15763E-006	-1.68088E-001	2.19628E-002	3.57840E+000	9	...........
	144	1.93333	2.04312E-002	-2.78921E-004	0.00000E+000	-5.69869E-006	-1.68088E-001	2.04207E-002	3.57840E+000	9	...........
	145	1.94667	1.89098E-002	-2.79083E-004	0.00000E+000	-5.27741E-006	-1.68088E-001	1.89002E-002	3.57840E+000	9	...........
	146	1.96	1.74085E-002	-2.78894E-004	0.00000E+000	-4.85513E-006	-1.68088E-001	1.73981E-002	3.57840E+000	9	...........
	147	1.97333	1.59074E-002	-2.79466E-004	0.00000E+000	-4.44558E-006	-1.68088E-001	1.58976E-002	3.57840E+000	9	...........
	148	1.98667	1.43924E-002	-2.78824E-004	0.00000E+000	-4.01295E-006	-1.68088E-001	1.43812E-002	3.57840E+000	9	...........
	149	2	1.29122E-002	-2.79499E-004	0.00000E+000	-3.60896E-006	-1.68088E-001	1.29001E-002	3.57840E+000	9	...........
	150	2.01333	1.14623E-002	-2.79886E-004	0.00000E+000	-3.20812E-006	-1.68088E-001	1.14492E-002	3.57840E+000	9	...........
	151	2.02667	9.99645E-003	-2.78766E-004	0.00000E+000	-2.78666E-006	-1.68088E-001	9.98429E-003	3.57840E+000	9	...........
	152	2.04	8.53044E-003	-2.78728E-004	0.00000E+000	-2.37767E-006	-1.68088E-001	8.51597E-003	3.57840E+000	9	...........
	153	2.05333	7.10699E-003	-2.79015E-004	0.00000E+000	-1.98295E-006	-1.68088E-001	7.09207E-003	3.57840E+000	9	...........
	154	2.06667	5.69716E-003	-2.78656E-004	0.00000E+000	-1.58755E-006	-1.68088E-001	5.68352E-003	3.57840E+000	9	...........
	155	2.08	4.25095E-003	-2.78711E-004	0.00000E+000	-1.18479E-006	-1.68088E-001	4.23179E-003	3.57840E+000	9	...........
	156	2.09333	2.76080E-003	-2.79164E-004	0.00000E+000	-7.70714E-007	-1.68088E-001	2.73917E-003	3.57840E+000	9	...........
	157	2.10667	1.33337E-003	-2.79145E-004	0.00000E+000	-3.72204E-007	-1.68088E-001	1.31352E-003	3.57840E+000	9	...........
	158	2.115	1.81005E-004	-2.79341E-004	0.00000E+000	-5.05622E-008	-1.68088E-001	1.55356E-004	3.57840E+000	9	...........
STARTTIMEOFFSET	QUANT	52.3	Start Time Offset (s)
