EXPLAIN
TAG	PWR800_DISCHARGE
TITLE	LABEL	PWR Cyclic Charge Discharge (Cell) - Discharge Step	Test &Identifier
DATE	LABEL	7-7-2017	Date
TIME	LABEL	16:06:43	Time
NOTES	NOTES	3	&Notes...
	supercap test cell
	2.8mg
	6M KOH
PSTAT	PSTAT	IFC5000-01520	Potentiostat
CAPACITY	QUANT	1.00000E-003	Capacity (A-hr)
CELLTYPE	SELECTOR	1	&Cell Type
WORKINGCONNECTION	SELECTOR	0	&Working Lead
MAXDISCHARGETIME	VARIABLEANDUNITS	1.00000E+002	s	1.00000E+002	second(s)	Max &Discharge Time
DISCHARGEMODE	MULTIPARAM	0	2.80000E-004	&Discharge Mode	Constant Current	Amp(s)
SAMPLETIME	QUANT	1.00000E-002	Sa&mple Period (s)
DISCHARGESTOPAT1	MULTIPARAM	3	0.00000E+000	Discharge Stop At &1	Voltage < Limit	V
DISCHARGESTOPAT2	MULTIPARAM	0	0.00000E+000	Discharge Stop At &2	None	N/A
AESBHCSELECTOR	TOGGLE	F	Save Both Half Cells
IRCOMP	TOGGLE	F	IR &Measure
EOC	QUANT	0	Open Circuit (V)
SEQUENCER	TOGGLE	TRUE	Run as Sequence
PSTATMODEL	IQUANT	53	Pstat Model
PSTATSECTION	LABEL	IFC5000-01520	Pstat Section
PSTATSERIALNO	LABEL	01520	Pstat Serial Number
CTRLMODE	IQUANT	0	Control Mode
ELECTROMETER	IQUANT	1	RE=0 or CS=1
IESTAB	IQUANT	0	I/E Stability
CASPEED	IQUANT	4	Control Amp Speed
CONVENTION	IQUANT	1	Current Convention
ICHRANGE	IQUANT	2	Ich Range
ICHRANGEMODE	TOGGLE	T	Ich Auto Range
ICHOFFSETENABLE	TOGGLE	F	Ich Offset Enable
ICHOFFSET	QUANT	0	Ich Offset (V)
ICHFILTER	IQUANT	1	Ich Filter
VCHRANGE	IQUANT	2	Vch Range
VCHRANGEMODE	TOGGLE	T	Vch Auto Range
VCHOFFSETENABLE	TOGGLE	F	Vch Offset Enable
VCHOFFSET	QUANT	0	Vch Offset (V)
VCHFILTER	IQUANT	1	Vch Filter
IERANGELOWERLIMIT	IQUANT	9	I/E Range Lower Limit
IERANGEMODE	TOGGLE	F	I/E AutoRange
IERANGE	IQUANT	9	I/E Range
ACHSELECT	IQUANT	1	Ach Select
ACHRANGE	IQUANT	2	Ach Range
ACHOFFSETENABLE	TOGGLE	F	Ach Offset Enable
ACHOFFSET	QUANT	0	Ach Offset (V)
ACHFILTER	IQUANT	1	Ach Filter
CABLEID	IQUANT	14	Cable ID
DCCALDATE	LABEL	5-7-2017	DC Calibration Date
ACCALDATE	LABEL	12/3/2015	AC Calibration Date
FRAMEWORKVERSION	QUANT	7.01	Framework Version
INSTRUMENTVERSION	LABEL	4.00	Instrument Version
CURVE	TABLE	64
	Pt	T	Vf	Im	Vu	Pwr	Sig	Ach	Temp	IERange	Over
	#	s	V	A	V	W	V	V	deg C	#	bits
	0	0.013333	5.28245E-001	-2.77612E-004	0.00000E+000	-1.46647E-004	-1.68088E-001	5.28467E-001	3.57740E+000	9	...........
	1	0.026667	4.95385E-001	-2.79476E-004	0.00000E+000	-1.38448E-004	-1.68088E-001	4.95614E-001	3.57740E+000	9	...........
	2	0.04	4.65661E-001	-2.79251E-004	0.00000E+000	-1.30036E-004	-1.68088E-001	4.65772E-001	3.57740E+000	9	...........
	3	0.053333	4.37789E-001	-2.79332E-004	0.00000E+000	-1.22289E-004	-1.68088E-001	4.37899E-001	3.57740E+000	9	...........
	4	0.066667	4.11830E-001	-2.79266E-004	0.00000E+000	-1.15010E-004	-1.68088E-001	4.11929E-001	3.57740E+000	9	...........
	5	0.08	3.87605E-001	-2.79673E-004	0.00000E+000	-1.08403E-004	-1.68088E-001	3.87699E-001	3.57740E+000	9	...........
	6	0.093333	3.65008E-001	-2.79602E-004	0.00000E+000	-1.02057E-004	-1.68088E-001	3.65091E-001	3.57740E+000	9	...........
	7	0.106667	3.43929E-001	-2.78688E-004	0.00000E+000	-9.58489E-005	-1.68088E-001	3.44012E-001	3.57740E+000	9	...........
	8	0.12	3.24323E-001	-2.78775E-004	0.00000E+000	-9.04130E-005	-1.68088E-001	3.24399E-001	3.57740E+000	9	...........
	9	0.133333	3.06120E-001	-2.78798E-004	0.00000E+000	-8.53456E-005	-1.68088E-001	3.06188E-001	3.57740E+000	9	...........
	10	0.146667	2.89172E-001	-2.78000E-004	0.00000E+000	-8.03897E-005	-1.68088E-001	2.89252E-001	3.57740E+000	9	...........
	11	0.16	2.73466E-001	-2.78576E-004	0.00000E+000	-7.61811E-005	-1.68088E-001	2.73535E-001	3.57740E+000	9	...........
	12	0.173333	2.58911E-001	-2.79453E-004	0.00000E+000	-7.23535E-005	-1.68088E-001	2.58977E-001	3.57740E+000	9	...........
	13	0.186667	2.45380E-001	-2.78502E-004	0.00000E+000	-6.83387E-005	-1.68088E-001	2.45432E-001	3.57740E+000	9	...........
	14	0.2	2.32755E-001	-2.78671E-004	0.00000E+000	-6.48621E-005	-1.68088E-001	2.32803E-001	3.57740E+000	9	...........
	15	0.213333	2.21001E-001	-2.78915E-004	0.00000E+000	-6.16403E-005	-1.68088E-001	2.21050E-001	3.57740E+000	9	...........
	16	0.226667	2.10070E-001	-2.78636E-004	0.00000E+000	-5.85330E-005	-1.68088E-001	2.10122E-001	3.57740E+000	9	...........
	17	0.24	1.99848E-001	-2.78892E-004	0.00000E+000	-5.57359E-005	-1.68088E-001	1.99902E-001	3.57740E+000	9	...........
	18	0.253333	1.90320E-001	-2.78134E-004	0.00000E+000	-5.29346E-005	-1.68088E-001	1.90372E-001	3.57740E+000	9	...........
	19	0.266667	1.81432E-001	-2.79011E-004	0.00000E+000	-5.06217E-005	-1.68088E-001	1.81480E-001	3.57740E+000	9	...........
	20	0.28	1.73035E-001	-2.78492E-004	0.00000E+000	-4.81888E-005	-1.68088E-001	1.73082E-001	3.57740E+000	9	...........
	21	0.293333	1.65115E-001	-2.78752E-004	0.00000E+000	-4.60261E-005	-1.68088E-001	1.65160E-001	3.57740E+000	9	...........
	22	0.306667	1.57644E-001	-2.78382E-004	0.00000E+000	-4.38854E-005	-1.68088E-001	1.57689E-001	3.57740E+000	9	...........
	23	0.32	1.50606E-001	-2.77750E-004	0.00000E+000	-4.18307E-005	-1.68088E-001	1.50644E-001	3.57740E+000	9	...........
	24	0.333333	1.43953E-001	-2.79159E-004	0.00000E+000	-4.01860E-005	-1.68088E-001	1.43993E-001	3.57740E+000	9	...........
	25	0.346667	1.37626E-001	-2.78221E-004	0.00000E+000	-3.82903E-005	-1.68088E-001	1.37662E-001	3.57740E+000	9	...........
	26	0.36	1.31600E-001	-2.79173E-004	0.00000E+000	-3.67391E-005	-1.68088E-001	1.31634E-001	3.57740E+000	9	...........
	27	0.373333	1.25877E-001	-2.79306E-004	0.00000E+000	-3.51582E-005	-1.68088E-001	1.25909E-001	3.57740E+000	9	...........
	28	0.386667	1.20397E-001	-2.79907E-004	0.00000E+000	-3.36999E-005	-1.68088E-001	1.20435E-001	3.57740E+000	9	...........
	29	0.4	1.15149E-001	-2.78589E-004	0.00000E+000	-3.20793E-005	-1.68088E-001	1.15186E-001	3.57740E+000	9	...........
	30	0.413333	1.10173E-001	-2.78157E-004	0.00000E+000	-3.06454E-005	-1.68088E-001	1.10209E-001	3.57740E+000	9	...........
	31	0.426667	1.05346E-001	-2.79780E-004	0.00000E+000	-2.94738E-005	-1.68088E-001	1.05374E-001	3.57740E+000	9	...........
	32	0.44	1.00677E-001	-2.79478E-004	0.00000E+000	-2.81371E-005	-1.68088E-001	1.00712E-001	3.57740E+000	9	...........
	33	0.453333	9.62208E-002	-2.79873E-004	0.00000E+000	-2.69296E-005	-1.68088E-001	9.62477E-002	3.57740E+000	9	...........
	34	0.466667	9.18771E-002	-2.80305E-004	0.00000E+000	-2.57537E-005	-1.68088E-001	9.19109E-002	3.57740E+000	9	...........
	35	0.48	8.76987E-002	-2.78860E-004	0.00000E+000	-2.44557E-005	-1.68088E-001	8.77279E-002	3.57740E+000	9	...........
	36	0.493333	8.36414E-002	-2.79457E-004	0.00000E+000	-2.33742E-005	-1.68088E-001	8.36610E-002	3.57740E+000	9	...........
	37	0.506667	7.96758E-002	-2.79549E-004	0.00000E+000	-2.22733E-005	-1.68088E-001	7.96952E-002	3.57740E+000	9	...........
	38	0.52	7.58115E-002	-2.78584E-004	0.00000E+000	-2.11199E-005	-1.68088E-001	7.58296E-002	3.57740E+000	9	...........
	39	0.533333	7.20011E-002	-2.78806E-004	0.00000E+000	-2.00744E-005	-1.68088E-001	7.20183E-002	3.57740E+000	9	...........
	40	0.546667	6.82955E-002	-2.78709E-004	0.00000E+000	-1.90346E-005	-1.68088E-001	6.83111E-002	3.57740E+000	9	...........
	41	0.56	6.46903E-002	-2.78419E-004	0.00000E+000	-1.80110E-005	-1.68088E-001	6.46983E-002	3.57740E+000	9	...........
	42	0.573333	6.11655E-002	-2.78851E-004	0.00000E+000	-1.70561E-005	-1.68088E-001	6.11785E-002	3.57740E+000	9	...........
	43	0.586667	5.77385E-002	-2.79654E-004	0.00000E+000	-1.61468E-005	-1.68088E-001	5.77574E-002	3.57740E+000	9	...........
	44	0.6	5.44177E-002	-2.77602E-004	0.00000E+000	-1.51065E-005	-1.68088E-001	5.44296E-002	3.57740E+000	9	...........
	45	0.613333	5.11912E-002	-2.77810E-004	0.00000E+000	-1.42214E-005	-1.68088E-001	5.12001E-002	3.57740E+000	9	...........
	46	0.626667	4.80622E-002	-2.77850E-004	0.00000E+000	-1.33541E-005	-1.68088E-001	4.80654E-002	3.57740E+000	9	...........
	47	0.64	4.50070E-002	-2.78686E-004	0.00000E+000	-1.25428E-005	-1.68088E-001	4.50208E-002	3.57740E+000	9	...........
	48	0.653333	4.19173E-002	-2.79536E-004	0.00000E+000	-1.17174E-005	-1.68088E-001	4.19282E-002	3.57740E+000	9	...........
	49	0.666667	3.88917E-002	-2.78528E-004	0.00000E+000	-1.08324E-005	-1.68088E-001	3.89003E-002	3.57740E+000	9	...........
	50	0.68	3.59385E-002	-2.78772E-004	0.00000E+000	-1.00186E-005	-1.68088E-001	3.59443E-002	3.57740E+000	9	...........
	51	0.693333	3.29960E-002	-2.78484E-004	0.00000E+000	-9.18888E-006	-1.68088E-001	3.30046E-002	3.57740E+000	9	...........
	52	0.706667	3.00809E-002	-2.79189E-004	0.00000E+000	-8.39825E-006	-1.68088E-001	3.00850E-002	3.57740E+000	9	...........
	53	0.72	2.72103E-002	-2.79108E-004	0.00000E+000	-7.59461E-006	-1.68088E-001	2.72113E-002	3.57740E+000	9	...........
	54	0.733333	2.44393E-002	-2.78013E-004	0.00000E+000	-6.79445E-006	-1.68088E-001	2.44366E-002	3.57740E+000	9	...........
	55	0.746667	2.17176E-002	-2.78347E-004	0.00000E+000	-6.04503E-006	-1.68088E-001	2.17178E-002	3.57740E+000	9	...........
	56	0.76	1.90491E-002	-2.79392E-004	0.00000E+000	-5.32216E-006	-1.68088E-001	1.90472E-002	3.57740E+000	9	...........
	57	0.773333	1.63565E-002	-2.79486E-004	0.00000E+000	-4.57141E-006	-1.68088E-001	1.63491E-002	3.57740E+000	9	...........
	58	0.786667	1.37235E-002	-2.79732E-004	0.00000E+000	-3.83890E-006	-1.68088E-001	1.37146E-002	3.57740E+000	9	...........
	59	0.8	1.11292E-002	-2.78882E-004	0.00000E+000	-3.10373E-006	-1.68088E-001	1.11223E-002	3.57740E+000	9	...........
	60	0.813333	8.54890E-003	-2.78526E-004	0.00000E+000	-2.38109E-006	-1.68088E-001	8.53636E-003	3.57740E+000	9	...........
	61	0.826667	6.01069E-003	-2.78817E-004	0.00000E+000	-1.67588E-006	-1.68088E-001	6.00056E-003	3.57740E+000	9	...........
	62	0.84	3.52539E-003	-2.77971E-004	0.00000E+000	-9.79954E-007	-1.68088E-001	3.50973E-003	3.57740E+000	9	...........
	63	0.853333	1.04722E-003	-2.77736E-004	0.00000E+000	-2.90851E-007	-1.68088E-001	1.03039E-003	3.57740E+000	9	...........
STARTTIMEOFFSET	QUANT	1390.088	Start Time Offset (s)
