EXPLAIN
TAG	PWR800_DISCHARGE
TITLE	LABEL	PWR Cyclic Charge Discharge (Cell) - Discharge Step	Test &Identifier
DATE	LABEL	7-7-2017	Date
TIME	LABEL	16:06:45	Time
NOTES	NOTES	3	&Notes...
	supercap test cell
	2.8mg
	6M KOH
PSTAT	PSTAT	IFC5000-01520	Potentiostat
CAPACITY	QUANT	1.00000E-003	Capacity (A-hr)
CELLTYPE	SELECTOR	1	&Cell Type
WORKINGCONNECTION	SELECTOR	0	&Working Lead
MAXDISCHARGETIME	VARIABLEANDUNITS	1.00000E+002	s	1.00000E+002	second(s)	Max &Discharge Time
DISCHARGEMODE	MULTIPARAM	0	2.80000E-004	&Discharge Mode	Constant Current	Amp(s)
SAMPLETIME	QUANT	1.00000E-002	Sa&mple Period (s)
DISCHARGESTOPAT1	MULTIPARAM	3	0.00000E+000	Discharge Stop At &1	Voltage < Limit	V
DISCHARGESTOPAT2	MULTIPARAM	0	0.00000E+000	Discharge Stop At &2	None	N/A
AESBHCSELECTOR	TOGGLE	F	Save Both Half Cells
IRCOMP	TOGGLE	F	IR &Measure
EOC	QUANT	0	Open Circuit (V)
SEQUENCER	TOGGLE	TRUE	Run as Sequence
PSTATMODEL	IQUANT	53	Pstat Model
PSTATSECTION	LABEL	IFC5000-01520	Pstat Section
PSTATSERIALNO	LABEL	01520	Pstat Serial Number
CTRLMODE	IQUANT	0	Control Mode
ELECTROMETER	IQUANT	1	RE=0 or CS=1
IESTAB	IQUANT	0	I/E Stability
CASPEED	IQUANT	4	Control Amp Speed
CONVENTION	IQUANT	1	Current Convention
ICHRANGE	IQUANT	2	Ich Range
ICHRANGEMODE	TOGGLE	T	Ich Auto Range
ICHOFFSETENABLE	TOGGLE	F	Ich Offset Enable
ICHOFFSET	QUANT	0	Ich Offset (V)
ICHFILTER	IQUANT	1	Ich Filter
VCHRANGE	IQUANT	2	Vch Range
VCHRANGEMODE	TOGGLE	T	Vch Auto Range
VCHOFFSETENABLE	TOGGLE	F	Vch Offset Enable
VCHOFFSET	QUANT	0	Vch Offset (V)
VCHFILTER	IQUANT	1	Vch Filter
IERANGELOWERLIMIT	IQUANT	9	I/E Range Lower Limit
IERANGEMODE	TOGGLE	F	I/E AutoRange
IERANGE	IQUANT	9	I/E Range
ACHSELECT	IQUANT	1	Ach Select
ACHRANGE	IQUANT	2	Ach Range
ACHOFFSETENABLE	TOGGLE	F	Ach Offset Enable
ACHOFFSET	QUANT	0	Ach Offset (V)
ACHFILTER	IQUANT	1	Ach Filter
CABLEID	IQUANT	14	Cable ID
DCCALDATE	LABEL	5-7-2017	DC Calibration Date
ACCALDATE	LABEL	12/3/2015	AC Calibration Date
FRAMEWORKVERSION	QUANT	7.01	Framework Version
INSTRUMENTVERSION	LABEL	4.00	Instrument Version
CURVE	TABLE	64
	Pt	T	Vf	Im	Vu	Pwr	Sig	Ach	Temp	IERange	Over
	#	s	V	A	V	W	V	V	deg C	#	bits
	0	0.013333	5.31522E-001	-2.77976E-004	0.00000E+000	-1.47750E-004	-1.68088E-001	5.31766E-001	3.57880E+000	9	...........
	1	0.026667	4.98629E-001	-2.78417E-004	0.00000E+000	-1.38827E-004	-1.68088E-001	4.98899E-001	3.57880E+000	9	...........
	2	0.04	4.68802E-001	-2.78839E-004	0.00000E+000	-1.30720E-004	-1.68088E-001	4.68888E-001	3.57880E+000	9	...........
	3	0.053333	4.40814E-001	-2.78221E-004	0.00000E+000	-1.22644E-004	-1.68088E-001	4.40923E-001	3.57880E+000	9	...........
	4	0.066667	4.14712E-001	-2.79178E-004	0.00000E+000	-1.15779E-004	-1.68088E-001	4.14818E-001	3.57880E+000	9	...........
	5	0.08	3.90367E-001	-2.78059E-004	0.00000E+000	-1.08545E-004	-1.68088E-001	3.90459E-001	3.57880E+000	9	...........
	6	0.093333	3.67616E-001	-2.77930E-004	0.00000E+000	-1.02172E-004	-1.68088E-001	3.67704E-001	3.57880E+000	9	...........
	7	0.106667	3.46391E-001	-2.78389E-004	0.00000E+000	-9.64317E-005	-1.68088E-001	3.46471E-001	3.57880E+000	9	...........
	8	0.12	3.26620E-001	-2.79146E-004	0.00000E+000	-9.11746E-005	-1.68088E-001	3.26701E-001	3.57880E+000	9	...........
	9	0.133333	3.08242E-001	-2.78926E-004	0.00000E+000	-8.59766E-005	-1.68088E-001	3.08319E-001	3.57880E+000	9	...........
	10	0.146667	2.91137E-001	-2.78723E-004	0.00000E+000	-8.11464E-005	-1.68088E-001	2.91207E-001	3.57880E+000	9	...........
	11	0.16	2.75232E-001	-2.78851E-004	0.00000E+000	-7.67486E-005	-1.68088E-001	2.75303E-001	3.57880E+000	9	...........
	12	0.173333	2.60465E-001	-2.77724E-004	0.00000E+000	-7.23372E-005	-1.68088E-001	2.60537E-001	3.57880E+000	9	...........
	13	0.186667	2.46758E-001	-2.78181E-004	0.00000E+000	-6.86433E-005	-1.68088E-001	2.46819E-001	3.57880E+000	9	...........
	14	0.2	2.34000E-001	-2.78290E-004	0.00000E+000	-6.51201E-005	-1.68088E-001	2.34057E-001	3.57880E+000	9	...........
	15	0.213333	2.22147E-001	-2.78567E-004	0.00000E+000	-6.18827E-005	-1.68088E-001	2.22203E-001	3.57880E+000	9	...........
	16	0.226667	2.11121E-001	-2.78833E-004	0.00000E+000	-5.88676E-005	-1.68088E-001	2.11168E-001	3.57880E+000	9	...........
	17	0.24	2.00824E-001	-2.79281E-004	0.00000E+000	-5.60863E-005	-1.68088E-001	2.00875E-001	3.57880E+000	9	...........
	18	0.253333	1.91222E-001	-2.80413E-004	0.00000E+000	-5.36210E-005	-1.68088E-001	1.91273E-001	3.57880E+000	9	...........
	19	0.266667	1.82174E-001	-2.78110E-004	0.00000E+000	-5.06645E-005	-1.68088E-001	1.82223E-001	3.57880E+000	9	...........
	20	0.28	1.73623E-001	-2.78660E-004	0.00000E+000	-4.83818E-005	-1.68088E-001	1.73678E-001	3.57880E+000	9	...........
	21	0.293333	1.65649E-001	-2.78212E-004	0.00000E+000	-4.60857E-005	-1.68088E-001	1.65693E-001	3.57880E+000	9	...........
	22	0.306667	1.58155E-001	-2.78407E-004	0.00000E+000	-4.40314E-005	-1.68088E-001	1.58198E-001	3.57880E+000	9	...........
	23	0.32	1.51078E-001	-2.78548E-004	0.00000E+000	-4.20823E-005	-1.68088E-001	1.51123E-001	3.57880E+000	9	...........
	24	0.333333	1.44359E-001	-2.78953E-004	0.00000E+000	-4.02695E-005	-1.68088E-001	1.44401E-001	3.57880E+000	9	...........
	25	0.346667	1.37994E-001	-2.80231E-004	0.00000E+000	-3.86703E-005	-1.68088E-001	1.38038E-001	3.57880E+000	9	...........
	26	0.36	1.31944E-001	-2.79697E-004	0.00000E+000	-3.69043E-005	-1.68088E-001	1.31978E-001	3.57880E+000	9	...........
	27	0.373333	1.26153E-001	-2.77598E-004	0.00000E+000	-3.50199E-005	-1.68088E-001	1.26194E-001	3.57880E+000	9	...........
	28	0.386667	1.20610E-001	-2.78033E-004	0.00000E+000	-3.35336E-005	-1.68088E-001	1.20649E-001	3.57880E+000	9	...........
	29	0.4	1.15314E-001	-2.79384E-004	0.00000E+000	-3.22168E-005	-1.68088E-001	1.15346E-001	3.57792E+000	9	...........
	30	0.413333	1.10203E-001	-2.78433E-004	0.00000E+000	-3.06841E-005	-1.68088E-001	1.10237E-001	3.57730E+000	9	...........
	31	0.426667	1.05295E-001	-2.79101E-004	0.00000E+000	-2.93880E-005	-1.68088E-001	1.05327E-001	3.57730E+000	9	...........
	32	0.44	1.00606E-001	-2.78983E-004	0.00000E+000	-2.80674E-005	-1.68088E-001	1.00642E-001	3.57730E+000	9	...........
	33	0.453333	9.60703E-002	-2.79046E-004	0.00000E+000	-2.68080E-005	-1.68088E-001	9.60980E-002	3.57730E+000	9	...........
	34	0.466667	9.16977E-002	-2.79055E-004	0.00000E+000	-2.55887E-005	-1.68088E-001	9.17283E-002	3.57730E+000	9	...........
	35	0.48	8.75134E-002	-2.78078E-004	0.00000E+000	-2.43356E-005	-1.68088E-001	8.75376E-002	3.57730E+000	9	...........
	36	0.493333	8.34209E-002	-2.78745E-004	0.00000E+000	-2.32531E-005	-1.68088E-001	8.34469E-002	3.57730E+000	9	...........
	37	0.506667	7.94595E-002	-2.78654E-004	0.00000E+000	-2.21417E-005	-1.68088E-001	7.94808E-002	3.57730E+000	9	...........
	38	0.52	7.56275E-002	-2.78874E-004	0.00000E+000	-2.10905E-005	-1.68088E-001	7.56460E-002	3.57730E+000	9	...........
	39	0.533333	7.18968E-002	-2.78473E-004	0.00000E+000	-2.00213E-005	-1.68088E-001	7.19117E-002	3.57730E+000	9	...........
	40	0.546667	6.82212E-002	-2.78839E-004	0.00000E+000	-1.90227E-005	-1.68088E-001	6.82333E-002	3.57730E+000	9	...........
	41	0.56	6.46067E-002	-2.80081E-004	0.00000E+000	-1.80952E-005	-1.68088E-001	6.46232E-002	3.57730E+000	9	...........
	42	0.573333	6.10959E-002	-2.79397E-004	0.00000E+000	-1.70700E-005	-1.68088E-001	6.11056E-002	3.57730E+000	9	...........
	43	0.586667	5.76890E-002	-2.78057E-004	0.00000E+000	-1.60408E-005	-1.68088E-001	5.77025E-002	3.57730E+000	9	...........
	44	0.6	5.43632E-002	-2.78390E-004	0.00000E+000	-1.51342E-005	-1.68088E-001	5.43709E-002	3.57730E+000	9	...........
	45	0.613333	5.11153E-002	-2.78723E-004	0.00000E+000	-1.42470E-005	-1.68088E-001	5.11241E-002	3.57730E+000	9	...........
	46	0.626667	4.79598E-002	-2.78569E-004	0.00000E+000	-1.33601E-005	-1.68088E-001	4.79650E-002	3.57730E+000	9	...........
	47	0.64	4.48280E-002	-2.78810E-004	0.00000E+000	-1.24985E-005	-1.68088E-001	4.48386E-002	3.57730E+000	9	...........
	48	0.653333	4.17331E-002	-2.79134E-004	0.00000E+000	-1.16491E-005	-1.68088E-001	4.17407E-002	3.57730E+000	9	...........
	49	0.666667	3.87235E-002	-2.79554E-004	0.00000E+000	-1.08253E-005	-1.68088E-001	3.87355E-002	3.57730E+000	9	...........
	50	0.68	3.57380E-002	-2.79052E-004	0.00000E+000	-9.97275E-006	-1.68088E-001	3.57385E-002	3.57730E+000	9	...........
	51	0.693333	3.27958E-002	-2.79008E-004	0.00000E+000	-9.15031E-006	-1.68088E-001	3.27975E-002	3.57730E+000	9	...........
	52	0.706667	2.99150E-002	-2.79346E-004	0.00000E+000	-8.35663E-006	-1.68088E-001	2.99187E-002	3.57730E+000	9	...........
	53	0.72	2.70849E-002	-2.79242E-004	0.00000E+000	-7.56323E-006	-1.68088E-001	2.70853E-002	3.57730E+000	9	...........
	54	0.733333	2.43227E-002	-2.78144E-004	0.00000E+000	-6.76520E-006	-1.68088E-001	2.43224E-002	3.57730E+000	9	...........
	55	0.746667	2.15898E-002	-2.79035E-004	0.00000E+000	-6.02433E-006	-1.68088E-001	2.15857E-002	3.57730E+000	9	...........
	56	0.76	1.89048E-002	-2.78856E-004	0.00000E+000	-5.27171E-006	-1.68088E-001	1.89010E-002	3.57730E+000	9	...........
	57	0.773333	1.62490E-002	-2.77853E-004	0.00000E+000	-4.51483E-006	-1.68088E-001	1.62420E-002	3.57730E+000	9	...........
	58	0.786667	1.36381E-002	-2.78773E-004	0.00000E+000	-3.80193E-006	-1.68088E-001	1.36302E-002	3.57730E+000	9	...........
	59	0.8	1.10603E-002	-2.79084E-004	0.00000E+000	-3.08674E-006	-1.68088E-001	1.10507E-002	3.57730E+000	9	...........
	60	0.813333	8.51012E-003	-2.78877E-004	0.00000E+000	-2.37328E-006	-1.68088E-001	8.49753E-003	3.57730E+000	9	...........
	61	0.826667	6.02184E-003	-2.77249E-004	0.00000E+000	-1.66955E-006	-1.68088E-001	6.00991E-003	3.57730E+000	9	...........
	62	0.84	3.55806E-003	-2.78494E-004	0.00000E+000	-9.90898E-007	-1.68088E-001	3.54270E-003	3.57730E+000	9	...........
	63	0.853333	1.07122E-003	-2.78603E-004	0.00000E+000	-2.98445E-007	-1.68088E-001	1.05166E-003	3.57730E+000	9	...........
STARTTIMEOFFSET	QUANT	1391.896	Start Time Offset (s)
