EXPLAIN
TAG	PWR800_DISCHARGE
TITLE	LABEL	PWR Cyclic Charge Discharge (Cell) - Discharge Step	Test &Identifier
DATE	LABEL	7-7-2017	Date
TIME	LABEL	15:49:19	Time
NOTES	NOTES	3	&Notes...
	supercap test cell
	2.8mg
	6M KOH
PSTAT	PSTAT	IFC5000-01520	Potentiostat
CAPACITY	QUANT	1.00000E-003	Capacity (A-hr)
CELLTYPE	SELECTOR	1	&Cell Type
WORKINGCONNECTION	SELECTOR	0	&Working Lead
MAXDISCHARGETIME	VARIABLEANDUNITS	1.00000E+002	s	1.00000E+002	second(s)	Max &Discharge Time
DISCHARGEMODE	MULTIPARAM	0	2.80000E-004	&Discharge Mode	Constant Current	Amp(s)
SAMPLETIME	QUANT	1.00000E-002	Sa&mple Period (s)
DISCHARGESTOPAT1	MULTIPARAM	3	0.00000E+000	Discharge Stop At &1	Voltage < Limit	V
DISCHARGESTOPAT2	MULTIPARAM	0	0.00000E+000	Discharge Stop At &2	None	N/A
AESBHCSELECTOR	TOGGLE	F	Save Both Half Cells
IRCOMP	TOGGLE	F	IR &Measure
EOC	QUANT	0	Open Circuit (V)
SEQUENCER	TOGGLE	TRUE	Run as Sequence
PSTATMODEL	IQUANT	53	Pstat Model
PSTATSECTION	LABEL	IFC5000-01520	Pstat Section
PSTATSERIALNO	LABEL	01520	Pstat Serial Number
CTRLMODE	IQUANT	0	Control Mode
ELECTROMETER	IQUANT	1	RE=0 or CS=1
IESTAB	IQUANT	0	I/E Stability
CASPEED	IQUANT	4	Control Amp Speed
CONVENTION	IQUANT	1	Current Convention
ICHRANGE	IQUANT	2	Ich Range
ICHRANGEMODE	TOGGLE	T	Ich Auto Range
ICHOFFSETENABLE	TOGGLE	F	Ich Offset Enable
ICHOFFSET	QUANT	0	Ich Offset (V)
ICHFILTER	IQUANT	1	Ich Filter
VCHRANGE	IQUANT	2	Vch Range
VCHRANGEMODE	TOGGLE	T	Vch Auto Range
VCHOFFSETENABLE	TOGGLE	F	Vch Offset Enable
VCHOFFSET	QUANT	0	Vch Offset (V)
VCHFILTER	IQUANT	1	Vch Filter
IERANGELOWERLIMIT	IQUANT	9	I/E Range Lower Limit
IERANGEMODE	TOGGLE	F	I/E AutoRange
IERANGE	IQUANT	9	I/E Range
ACHSELECT	IQUANT	1	Ach Select
ACHRANGE	IQUANT	2	Ach Range
ACHOFFSETENABLE	TOGGLE	F	Ach Offset Enable
ACHOFFSET	QUANT	0	Ach Offset (V)
ACHFILTER	IQUANT	1	Ach Filter
CABLEID	IQUANT	14	Cable ID
DCCALDATE	LABEL	5-7-2017	DC Calibration Date
ACCALDATE	LABEL	12/3/2015	AC Calibration Date
FRAMEWORKVERSION	QUANT	7.01	Framework Version
INSTRUMENTVERSION	LABEL	4.00	Instrument Version
CURVE	TABLE	92
	Pt	T	Vf	Im	Vu	Pwr	Sig	Ach	Temp	IERange	Over
	#	s	V	A	V	W	V	V	deg C	#	bits
	0	0.013333	5.48839E-001	-2.78769E-004	0.00000E+000	-1.52999E-004	-1.68088E-001	5.49026E-001	3.57790E+000	9	...........
	1	0.026667	5.18295E-001	-2.79297E-004	0.00000E+000	-1.44758E-004	-1.68088E-001	5.18504E-001	3.57790E+000	9	...........
	2	0.04	4.90678E-001	-2.78094E-004	0.00000E+000	-1.36454E-004	-1.68088E-001	4.90887E-001	3.57790E+000	9	...........
	3	0.053333	4.65585E-001	-2.78771E-004	0.00000E+000	-1.29792E-004	-1.68088E-001	4.65695E-001	3.57790E+000	9	...........
	4	0.066667	4.42094E-001	-2.78237E-004	0.00000E+000	-1.23007E-004	-1.68088E-001	4.42207E-001	3.57790E+000	9	...........
	5	0.08	4.20319E-001	-2.79023E-004	0.00000E+000	-1.17279E-004	-1.68088E-001	4.20423E-001	3.57790E+000	9	...........
	6	0.093333	4.00131E-001	-2.78835E-004	0.00000E+000	-1.11571E-004	-1.68088E-001	4.00227E-001	3.57790E+000	9	...........
	7	0.106667	3.81408E-001	-2.78488E-004	0.00000E+000	-1.06218E-004	-1.68088E-001	3.81504E-001	3.57790E+000	9	...........
	8	0.12	3.64006E-001	-2.78990E-004	0.00000E+000	-1.01554E-004	-1.68088E-001	3.64096E-001	3.57790E+000	9	...........
	9	0.133333	3.47826E-001	-2.78649E-004	0.00000E+000	-9.69215E-005	-1.68088E-001	3.47908E-001	3.57790E+000	9	...........
	10	0.146667	3.32798E-001	-2.79216E-004	0.00000E+000	-9.29225E-005	-1.68088E-001	3.32880E-001	3.57790E+000	9	...........
	11	0.16	3.18856E-001	-2.78704E-004	0.00000E+000	-8.88665E-005	-1.68088E-001	3.18937E-001	3.57790E+000	9	...........
	12	0.173333	3.05874E-001	-2.79199E-004	0.00000E+000	-8.53996E-005	-1.68088E-001	3.05948E-001	3.57790E+000	9	...........
	13	0.186667	2.93766E-001	-2.78505E-004	0.00000E+000	-8.18153E-005	-1.68088E-001	2.93843E-001	3.57790E+000	9	...........
	14	0.2	2.82489E-001	-2.79773E-004	0.00000E+000	-7.90328E-005	-1.68088E-001	2.82560E-001	3.57790E+000	9	...........
	15	0.213333	2.71964E-001	-2.78729E-004	0.00000E+000	-7.58044E-005	-1.68088E-001	2.72036E-001	3.57790E+000	9	...........
	16	0.226667	2.62106E-001	-2.77793E-004	0.00000E+000	-7.28114E-005	-1.68088E-001	2.62172E-001	3.57790E+000	9	...........
	17	0.24	2.52866E-001	-2.78705E-004	0.00000E+000	-7.04752E-005	-1.68088E-001	2.52930E-001	3.57790E+000	9	...........
	18	0.253333	2.44192E-001	-2.79180E-004	0.00000E+000	-6.81735E-005	-1.68088E-001	2.44251E-001	3.57790E+000	9	...........
	19	0.266667	2.36014E-001	-2.78278E-004	0.00000E+000	-6.56774E-005	-1.68088E-001	2.36067E-001	3.57790E+000	9	...........
	20	0.28	2.28299E-001	-2.78647E-004	0.00000E+000	-6.36147E-005	-1.68088E-001	2.28354E-001	3.57790E+000	9	...........
	21	0.293333	2.20986E-001	-2.78508E-004	0.00000E+000	-6.15463E-005	-1.68088E-001	2.21041E-001	3.57790E+000	9	...........
	22	0.306667	2.14090E-001	-2.78195E-004	0.00000E+000	-5.95587E-005	-1.68088E-001	2.14138E-001	3.57790E+000	9	...........
	23	0.32	2.07538E-001	-2.79122E-004	0.00000E+000	-5.79284E-005	-1.68088E-001	2.07585E-001	3.57790E+000	9	...........
	24	0.333333	2.01303E-001	-2.79924E-004	0.00000E+000	-5.63497E-005	-1.68088E-001	2.01357E-001	3.57790E+000	9	...........
	25	0.346667	1.95398E-001	-2.79324E-004	0.00000E+000	-5.45794E-005	-1.68088E-001	1.95449E-001	3.57790E+000	9	...........
	26	0.36	1.89782E-001	-2.79258E-004	0.00000E+000	-5.29982E-005	-1.68088E-001	1.89825E-001	3.57790E+000	9	...........
	27	0.373333	1.84359E-001	-2.79249E-004	0.00000E+000	-5.14819E-005	-1.68088E-001	1.84407E-001	3.57790E+000	9	...........
	28	0.386667	1.79161E-001	-2.78585E-004	0.00000E+000	-4.99116E-005	-1.68088E-001	1.79208E-001	3.57790E+000	9	...........
	29	0.4	1.74172E-001	-2.79278E-004	0.00000E+000	-4.86424E-005	-1.68088E-001	1.74210E-001	3.57790E+000	9	...........
	30	0.413333	1.69360E-001	-2.78399E-004	0.00000E+000	-4.71495E-005	-1.68088E-001	1.69404E-001	3.57790E+000	9	...........
	31	0.426667	1.64708E-001	-2.78886E-004	0.00000E+000	-4.59347E-005	-1.68088E-001	1.64742E-001	3.57790E+000	9	...........
	32	0.44	1.60199E-001	-2.78725E-004	0.00000E+000	-4.46514E-005	-1.68088E-001	1.60235E-001	3.57790E+000	9	...........
	33	0.453333	1.55851E-001	-2.79133E-004	0.00000E+000	-4.35033E-005	-1.68088E-001	1.55884E-001	3.57790E+000	9	...........
	34	0.466667	1.51642E-001	-2.79705E-004	0.00000E+000	-4.24152E-005	-1.68088E-001	1.51677E-001	3.57790E+000	9	...........
	35	0.48	1.47571E-001	-2.79261E-004	0.00000E+000	-4.12108E-005	-1.68088E-001	1.47606E-001	3.57790E+000	9	...........
	36	0.493333	1.43615E-001	-2.79224E-004	0.00000E+000	-4.01007E-005	-1.68088E-001	1.43650E-001	3.57790E+000	9	...........
	37	0.506667	1.39717E-001	-2.79286E-004	0.00000E+000	-3.90211E-005	-1.68088E-001	1.39756E-001	3.57790E+000	9	...........
	38	0.52	1.35934E-001	-2.78626E-004	0.00000E+000	-3.78748E-005	-1.68088E-001	1.35969E-001	3.57790E+000	9	...........
	39	0.533333	1.32248E-001	-2.79487E-004	0.00000E+000	-3.69614E-005	-1.68088E-001	1.32283E-001	3.57790E+000	9	...........
	40	0.546667	1.28615E-001	-2.79060E-004	0.00000E+000	-3.58912E-005	-1.68088E-001	1.28642E-001	3.57790E+000	9	...........
	41	0.56	1.25081E-001	-2.79073E-004	0.00000E+000	-3.49066E-005	-1.68088E-001	1.25108E-001	3.57790E+000	9	...........
	42	0.573333	1.21618E-001	-2.79194E-004	0.00000E+000	-3.39549E-005	-1.68088E-001	1.21647E-001	3.57790E+000	9	...........
	43	0.586667	1.18225E-001	-2.78600E-004	0.00000E+000	-3.29375E-005	-1.68088E-001	1.18253E-001	3.57790E+000	9	...........
	44	0.6	1.14911E-001	-2.78795E-004	0.00000E+000	-3.20365E-005	-1.68088E-001	1.14943E-001	3.57790E+000	9	...........
	45	0.613333	1.11673E-001	-2.79084E-004	0.00000E+000	-3.11662E-005	-1.68088E-001	1.11700E-001	3.57790E+000	9	...........
	46	0.626667	1.08471E-001	-2.79209E-004	0.00000E+000	-3.02861E-005	-1.68088E-001	1.08500E-001	3.57790E+000	9	...........
	47	0.64	1.05361E-001	-2.79109E-004	0.00000E+000	-2.94073E-005	-1.68088E-001	1.05389E-001	3.57790E+000	9	...........
	48	0.653333	1.02278E-001	-2.78363E-004	0.00000E+000	-2.84704E-005	-1.68088E-001	1.02301E-001	3.57790E+000	9	...........
	49	0.666667	9.92163E-002	-2.79355E-004	0.00000E+000	-2.77166E-005	-1.68088E-001	9.92408E-002	3.57790E+000	9	...........
	50	0.68	9.62905E-002	-2.78382E-004	0.00000E+000	-2.68055E-005	-1.68088E-001	9.63146E-002	3.57790E+000	9	...........
	51	0.693333	9.33894E-002	-2.79025E-004	0.00000E+000	-2.60580E-005	-1.68088E-001	9.34127E-002	3.57790E+000	9	...........
	52	0.706667	9.05695E-002	-2.78182E-004	0.00000E+000	-2.51948E-005	-1.68088E-001	9.05930E-002	3.57790E+000	9	...........
	53	0.72	8.77401E-002	-2.79198E-004	0.00000E+000	-2.44968E-005	-1.68088E-001	8.77616E-002	3.57790E+000	9	...........
	54	0.733333	8.49685E-002	-2.79168E-004	0.00000E+000	-2.37205E-005	-1.68088E-001	8.49906E-002	3.57790E+000	9	...........
	55	0.746667	8.22205E-002	-2.79673E-004	0.00000E+000	-2.29949E-005	-1.68088E-001	8.22399E-002	3.57790E+000	9	...........
	56	0.76	7.94888E-002	-2.78331E-004	0.00000E+000	-2.21242E-005	-1.68088E-001	7.95023E-002	3.57790E+000	9	...........
	57	0.773333	7.68250E-002	-2.78964E-004	0.00000E+000	-2.14314E-005	-1.68088E-001	7.68416E-002	3.57790E+000	9	...........
	58	0.786667	7.41938E-002	-2.79001E-004	0.00000E+000	-2.07002E-005	-1.68088E-001	7.42120E-002	3.57790E+000	9	...........
	59	0.8	7.16263E-002	-2.78945E-004	0.00000E+000	-1.99798E-005	-1.68088E-001	7.16405E-002	3.57790E+000	9	...........
	60	0.813333	6.91358E-002	-2.79612E-004	0.00000E+000	-1.93312E-005	-1.68088E-001	6.91493E-002	3.57790E+000	9	...........
	61	0.826667	6.65933E-002	-2.79820E-004	0.00000E+000	-1.86341E-005	-1.68088E-001	6.66051E-002	3.57790E+000	9	...........
	62	0.84	6.40380E-002	-2.79495E-004	0.00000E+000	-1.78983E-005	-1.68088E-001	6.40520E-002	3.57790E+000	9	...........
	63	0.853333	6.15798E-002	-2.79032E-004	0.00000E+000	-1.71828E-005	-1.68088E-001	6.15929E-002	3.57790E+000	9	...........
	64	0.866667	5.91023E-002	-2.79213E-004	0.00000E+000	-1.65021E-005	-1.68088E-001	5.91195E-002	3.57790E+000	9	...........
	65	0.88	5.66535E-002	-2.78759E-004	0.00000E+000	-1.57927E-005	-1.68088E-001	5.66609E-002	3.57790E+000	9	...........
	66	0.893333	5.42311E-002	-2.79055E-004	0.00000E+000	-1.51335E-005	-1.68088E-001	5.42401E-002	3.57790E+000	9	...........
	67	0.906667	5.18551E-002	-2.78871E-004	0.00000E+000	-1.44609E-005	-1.68088E-001	5.18564E-002	3.57807E+000	9	...........
	68	0.92	4.94658E-002	-2.78831E-004	0.00000E+000	-1.37926E-005	-1.68088E-001	4.94731E-002	3.57930E+000	9	...........
	69	0.933333	4.72115E-002	-2.79029E-004	0.00000E+000	-1.31734E-005	-1.68088E-001	4.72205E-002	3.57930E+000	9	...........
	70	0.946667	4.49735E-002	-2.79002E-004	0.00000E+000	-1.25477E-005	-1.68088E-001	4.49830E-002	3.57930E+000	9	...........
	71	0.96	4.26920E-002	-2.78324E-004	0.00000E+000	-1.18822E-005	-1.68088E-001	4.27015E-002	3.57930E+000	9	...........
	72	0.97333	4.04156E-002	-2.79632E-004	0.00000E+000	-1.13015E-005	-1.68088E-001	4.04201E-002	3.57930E+000	9	...........
	73	0.98667	3.81089E-002	-2.78993E-004	0.00000E+000	-1.06321E-005	-1.68088E-001	3.81155E-002	3.57930E+000	9	...........
	74	1	3.58074E-002	-2.78396E-004	0.00000E+000	-9.96864E-006	-1.68088E-001	3.58110E-002	3.57930E+000	9	...........
	75	1.01333	3.35744E-002	-2.79118E-004	0.00000E+000	-9.37120E-006	-1.68088E-001	3.35718E-002	3.57930E+000	9	...........
	76	1.02667	3.13470E-002	-2.78916E-004	0.00000E+000	-8.74317E-006	-1.68088E-001	3.13461E-002	3.57930E+000	9	...........
	77	1.04	2.91771E-002	-2.78731E-004	0.00000E+000	-8.13257E-006	-1.68088E-001	2.91779E-002	3.57930E+000	9	...........
	78	1.05333	2.70362E-002	-2.78586E-004	0.00000E+000	-7.53193E-006	-1.68088E-001	2.70362E-002	3.57930E+000	9	...........
	79	1.06667	2.49014E-002	-2.78739E-004	0.00000E+000	-6.94100E-006	-1.68088E-001	2.48971E-002	3.57930E+000	9	...........
	80	1.08	2.28004E-002	-2.79151E-004	0.00000E+000	-6.36476E-006	-1.68088E-001	2.28019E-002	3.57930E+000	9	...........
	81	1.09333	2.06976E-002	-2.79060E-004	0.00000E+000	-5.77587E-006	-1.68088E-001	2.06877E-002	3.57930E+000	9	...........
	82	1.10667	1.86361E-002	-2.78469E-004	0.00000E+000	-5.18958E-006	-1.68088E-001	1.86278E-002	3.57930E+000	9	...........
	83	1.12	1.65872E-002	-2.79532E-004	0.00000E+000	-4.63665E-006	-1.68088E-001	1.65813E-002	3.57930E+000	9	...........
	84	1.13333	1.45397E-002	-2.79458E-004	0.00000E+000	-4.06325E-006	-1.68088E-001	1.45306E-002	3.57930E+000	9	...........
	85	1.14667	1.24977E-002	-2.78823E-004	0.00000E+000	-3.48465E-006	-1.68088E-001	1.24904E-002	3.57930E+000	9	...........
	86	1.16	1.05095E-002	-2.78732E-004	0.00000E+000	-2.92934E-006	-1.68088E-001	1.04974E-002	3.57930E+000	9	...........
	87	1.17333	8.55328E-003	-2.78424E-004	0.00000E+000	-2.38144E-006	-1.68088E-001	8.54009E-003	3.57930E+000	9	...........
	88	1.18667	6.49306E-003	-2.78575E-004	0.00000E+000	-1.80880E-006	-1.68088E-001	6.48027E-003	3.57930E+000	9	...........
	89	1.2	4.48979E-003	-2.78011E-004	0.00000E+000	-1.24821E-006	-1.68088E-001	4.47252E-003	3.57930E+000	9	...........
	90	1.21333	2.48153E-003	-2.79686E-004	0.00000E+000	-6.94047E-007	-1.68088E-001	2.46423E-003	3.57930E+000	9	...........
	91	1.225	6.45720E-004	-2.78681E-004	0.00000E+000	-1.79950E-007	-1.68088E-001	6.29053E-004	3.57930E+000	9	...........
STARTTIMEOFFSET	QUANT	641.6118	Start Time Offset (s)
