EXPLAIN
TAG	PWR800_DISCHARGE
TITLE	LABEL	PWR Cyclic Charge Discharge (Cell) - Discharge Step	Test &Identifier
DATE	LABEL	7-7-2017	Date
TIME	LABEL	16:15:08	Time
NOTES	NOTES	3	&Notes...
	supercap test cell
	2.8mg
	6M KOH
PSTAT	PSTAT	IFC5000-01520	Potentiostat
CAPACITY	QUANT	1.00000E-003	Capacity (A-hr)
CELLTYPE	SELECTOR	1	&Cell Type
WORKINGCONNECTION	SELECTOR	0	&Working Lead
MAXDISCHARGETIME	VARIABLEANDUNITS	1.00000E+002	s	1.00000E+002	second(s)	Max &Discharge Time
DISCHARGEMODE	MULTIPARAM	0	2.80000E-004	&Discharge Mode	Constant Current	Amp(s)
SAMPLETIME	QUANT	1.00000E-002	Sa&mple Period (s)
DISCHARGESTOPAT1	MULTIPARAM	3	0.00000E+000	Discharge Stop At &1	Voltage < Limit	V
DISCHARGESTOPAT2	MULTIPARAM	0	0.00000E+000	Discharge Stop At &2	None	N/A
AESBHCSELECTOR	TOGGLE	F	Save Both Half Cells
IRCOMP	TOGGLE	F	IR &Measure
EOC	QUANT	0	Open Circuit (V)
SEQUENCER	TOGGLE	TRUE	Run as Sequence
PSTATMODEL	IQUANT	53	Pstat Model
PSTATSECTION	LABEL	IFC5000-01520	Pstat Section
PSTATSERIALNO	LABEL	01520	Pstat Serial Number
CTRLMODE	IQUANT	0	Control Mode
ELECTROMETER	IQUANT	1	RE=0 or CS=1
IESTAB	IQUANT	0	I/E Stability
CASPEED	IQUANT	4	Control Amp Speed
CONVENTION	IQUANT	1	Current Convention
ICHRANGE	IQUANT	2	Ich Range
ICHRANGEMODE	TOGGLE	T	Ich Auto Range
ICHOFFSETENABLE	TOGGLE	F	Ich Offset Enable
ICHOFFSET	QUANT	0	Ich Offset (V)
ICHFILTER	IQUANT	1	Ich Filter
VCHRANGE	IQUANT	2	Vch Range
VCHRANGEMODE	TOGGLE	T	Vch Auto Range
VCHOFFSETENABLE	TOGGLE	F	Vch Offset Enable
VCHOFFSET	QUANT	0	Vch Offset (V)
VCHFILTER	IQUANT	1	Vch Filter
IERANGELOWERLIMIT	IQUANT	9	I/E Range Lower Limit
IERANGEMODE	TOGGLE	F	I/E AutoRange
IERANGE	IQUANT	9	I/E Range
ACHSELECT	IQUANT	1	Ach Select
ACHRANGE	IQUANT	2	Ach Range
ACHOFFSETENABLE	TOGGLE	F	Ach Offset Enable
ACHOFFSET	QUANT	0	Ach Offset (V)
ACHFILTER	IQUANT	1	Ach Filter
CABLEID	IQUANT	14	Cable ID
DCCALDATE	LABEL	5-7-2017	DC Calibration Date
ACCALDATE	LABEL	12/3/2015	AC Calibration Date
FRAMEWORKVERSION	QUANT	7.01	Framework Version
INSTRUMENTVERSION	LABEL	4.00	Instrument Version
CURVE	TABLE	58
	Pt	T	Vf	Im	Vu	Pwr	Sig	Ach	Temp	IERange	Over
	#	s	V	A	V	W	V	V	deg C	#	bits
	0	0.013333	5.20498E-001	-2.79674E-004	0.00000E+000	-1.45570E-004	-1.68088E-001	5.20709E-001	3.57850E+000	9	...........
	1	0.026667	4.87157E-001	-2.78850E-004	0.00000E+000	-1.35844E-004	-1.68088E-001	4.87337E-001	3.57850E+000	9	...........
	2	0.04	4.56661E-001	-2.79202E-004	0.00000E+000	-1.27501E-004	-1.68088E-001	4.56768E-001	3.57850E+000	9	...........
	3	0.053333	4.28161E-001	-2.80184E-004	0.00000E+000	-1.19964E-004	-1.68088E-001	4.28259E-001	3.57850E+000	9	...........
	4	0.066667	4.01582E-001	-2.79056E-004	0.00000E+000	-1.12064E-004	-1.68088E-001	4.01677E-001	3.57850E+000	9	...........
	5	0.08	3.76758E-001	-2.79490E-004	0.00000E+000	-1.05300E-004	-1.68088E-001	3.76839E-001	3.57850E+000	9	...........
	6	0.093333	3.53574E-001	-2.78067E-004	0.00000E+000	-9.83174E-005	-1.68088E-001	3.53652E-001	3.57850E+000	9	...........
	7	0.106667	3.31967E-001	-2.79144E-004	0.00000E+000	-9.26666E-005	-1.68088E-001	3.32046E-001	3.57850E+000	9	...........
	8	0.12	3.11820E-001	-2.79967E-004	0.00000E+000	-8.72994E-005	-1.68088E-001	3.11893E-001	3.57850E+000	9	...........
	9	0.133333	2.93080E-001	-2.79829E-004	0.00000E+000	-8.20123E-005	-1.68088E-001	2.93149E-001	3.57815E+000	9	...........
	10	0.146667	2.75648E-001	-2.80061E-004	0.00000E+000	-7.71981E-005	-1.68088E-001	2.75720E-001	3.57780E+000	9	...........
	11	0.16	2.59470E-001	-2.78914E-004	0.00000E+000	-7.23696E-005	-1.68088E-001	2.59541E-001	3.57780E+000	9	...........
	12	0.173333	2.44479E-001	-2.79439E-004	0.00000E+000	-6.83170E-005	-1.68088E-001	2.44537E-001	3.57780E+000	9	...........
	13	0.186667	2.30592E-001	-2.79300E-004	0.00000E+000	-6.44043E-005	-1.68088E-001	2.30643E-001	3.57780E+000	9	...........
	14	0.2	2.17697E-001	-2.77625E-004	0.00000E+000	-6.04381E-005	-1.68088E-001	2.17745E-001	3.57780E+000	9	...........
	15	0.213333	2.05686E-001	-2.78375E-004	0.00000E+000	-5.72579E-005	-1.68088E-001	2.05734E-001	3.57780E+000	9	...........
	16	0.226667	1.94489E-001	-2.79228E-004	0.00000E+000	-5.43067E-005	-1.68088E-001	1.94535E-001	3.57780E+000	9	...........
	17	0.24	1.84077E-001	-2.78259E-004	0.00000E+000	-5.12211E-005	-1.68088E-001	1.84119E-001	3.57780E+000	9	...........
	18	0.253333	1.74371E-001	-2.79307E-004	0.00000E+000	-4.87030E-005	-1.68088E-001	1.74415E-001	3.57780E+000	9	...........
	19	0.266667	1.65294E-001	-2.78589E-004	0.00000E+000	-4.60493E-005	-1.68088E-001	1.65327E-001	3.57780E+000	9	...........
	20	0.28	1.56786E-001	-2.79813E-004	0.00000E+000	-4.38706E-005	-1.68088E-001	1.56818E-001	3.57780E+000	9	...........
	21	0.293333	1.48753E-001	-2.78438E-004	0.00000E+000	-4.14185E-005	-1.68088E-001	1.48784E-001	3.57780E+000	9	...........
	22	0.306667	1.41189E-001	-2.78638E-004	0.00000E+000	-3.93408E-005	-1.68088E-001	1.41218E-001	3.57780E+000	9	...........
	23	0.32	1.34077E-001	-2.78062E-004	0.00000E+000	-3.72817E-005	-1.68088E-001	1.34102E-001	3.57780E+000	9	...........
	24	0.333333	1.27328E-001	-2.78771E-004	0.00000E+000	-3.54953E-005	-1.68088E-001	1.27358E-001	3.57780E+000	9	...........
	25	0.346667	1.20929E-001	-2.79963E-004	0.00000E+000	-3.38555E-005	-1.68088E-001	1.20950E-001	3.57780E+000	9	...........
	26	0.36	1.14857E-001	-2.78561E-004	0.00000E+000	-3.19948E-005	-1.68088E-001	1.14877E-001	3.57780E+000	9	...........
	27	0.373333	1.09070E-001	-2.80466E-004	0.00000E+000	-3.05905E-005	-1.68088E-001	1.09094E-001	3.57780E+000	9	...........
	28	0.386667	1.03513E-001	-2.78915E-004	0.00000E+000	-2.88713E-005	-1.68088E-001	1.03536E-001	3.57780E+000	9	...........
	29	0.4	9.82074E-002	-2.78670E-004	0.00000E+000	-2.73674E-005	-1.68088E-001	9.82310E-002	3.57780E+000	9	...........
	30	0.413333	9.31208E-002	-2.80094E-004	0.00000E+000	-2.60826E-005	-1.68088E-001	9.31453E-002	3.57780E+000	9	...........
	31	0.426667	8.82492E-002	-2.79792E-004	0.00000E+000	-2.46914E-005	-1.68088E-001	8.82689E-002	3.57780E+000	9	...........
	32	0.44	8.35713E-002	-2.77809E-004	0.00000E+000	-2.32169E-005	-1.68088E-001	8.35898E-002	3.57780E+000	9	...........
	33	0.453333	7.90993E-002	-2.78086E-004	0.00000E+000	-2.19964E-005	-1.68088E-001	7.91143E-002	3.57780E+000	9	...........
	34	0.466667	7.47583E-002	-2.79062E-004	0.00000E+000	-2.08622E-005	-1.68088E-001	7.47759E-002	3.57780E+000	9	...........
	35	0.48	7.05319E-002	-2.79934E-004	0.00000E+000	-1.97442E-005	-1.68088E-001	7.05490E-002	3.57780E+000	9	...........
	36	0.493333	6.64721E-002	-2.77631E-004	0.00000E+000	-1.84547E-005	-1.68088E-001	6.64814E-002	3.57780E+000	9	...........
	37	0.506667	6.24628E-002	-2.79286E-004	0.00000E+000	-1.74450E-005	-1.68088E-001	6.24722E-002	3.57780E+000	9	...........
	38	0.52	5.85816E-002	-2.77339E-004	0.00000E+000	-1.62470E-005	-1.68088E-001	5.85870E-002	3.57780E+000	9	...........
	39	0.533333	5.48578E-002	-2.78904E-004	0.00000E+000	-1.53001E-005	-1.68088E-001	5.48651E-002	3.57780E+000	9	...........
	40	0.546667	5.12157E-002	-2.79453E-004	0.00000E+000	-1.43124E-005	-1.68088E-001	5.12168E-002	3.57780E+000	9	...........
	41	0.56	4.77401E-002	-2.78571E-004	0.00000E+000	-1.32990E-005	-1.68088E-001	4.77423E-002	3.57780E+000	9	...........
	42	0.573333	4.43349E-002	-2.78017E-004	0.00000E+000	-1.23259E-005	-1.68088E-001	4.43503E-002	3.57780E+000	9	...........
	43	0.586667	4.09579E-002	-2.80136E-004	0.00000E+000	-1.14738E-005	-1.68088E-001	4.09679E-002	3.57780E+000	9	...........
	44	0.6	3.76437E-002	-2.80225E-004	0.00000E+000	-1.05487E-005	-1.68088E-001	3.76486E-002	3.57780E+000	9	...........
	45	0.613333	3.44112E-002	-2.79491E-004	0.00000E+000	-9.61762E-006	-1.68088E-001	3.44147E-002	3.57780E+000	9	...........
	46	0.626667	3.12370E-002	-2.78545E-004	0.00000E+000	-8.70090E-006	-1.68088E-001	3.12360E-002	3.57780E+000	9	...........
	47	0.64	2.81003E-002	-2.78799E-004	0.00000E+000	-7.83435E-006	-1.68088E-001	2.80992E-002	3.57780E+000	9	...........
	48	0.653333	2.50158E-002	-2.79768E-004	0.00000E+000	-6.99861E-006	-1.68088E-001	2.50096E-002	3.57780E+000	9	...........
	49	0.666667	2.20128E-002	-2.78669E-004	0.00000E+000	-6.13429E-006	-1.68088E-001	2.20099E-002	3.57780E+000	9	...........
	50	0.68	1.90361E-002	-2.79086E-004	0.00000E+000	-5.31273E-006	-1.68088E-001	1.90304E-002	3.57780E+000	9	...........
	51	0.693333	1.60946E-002	-2.77957E-004	0.00000E+000	-4.47362E-006	-1.68088E-001	1.60885E-002	3.57780E+000	9	...........
	52	0.706667	1.31993E-002	-2.79056E-004	0.00000E+000	-3.68334E-006	-1.68088E-001	1.31907E-002	3.57780E+000	9	...........
	53	0.72	1.03493E-002	-2.80143E-004	0.00000E+000	-2.89928E-006	-1.68088E-001	1.03384E-002	3.57780E+000	9	...........
	54	0.733333	7.58385E-003	-2.79125E-004	0.00000E+000	-2.11684E-006	-1.68088E-001	7.57258E-003	3.57780E+000	9	...........
	55	0.746667	4.88153E-003	-2.78825E-004	0.00000E+000	-1.36109E-006	-1.68088E-001	4.86808E-003	3.57780E+000	9	...........
	56	0.76	2.20930E-003	-2.79275E-004	0.00000E+000	-6.17002E-007	-1.68088E-001	2.19310E-003	3.57780E+000	9	...........
	57	0.766667	2.12925E-004	-2.80748E-004	0.00000E+000	-5.97784E-008	-1.68088E-001	1.98098E-004	3.57780E+000	9	...........
STARTTIMEOFFSET	QUANT	1729.735	Start Time Offset (s)
