EXPLAIN
TAG	PWR800_DISCHARGE
TITLE	LABEL	PWR Cyclic Charge Discharge (Cell) - Discharge Step	Test &Identifier
DATE	LABEL	7-7-2017	Date
TIME	LABEL	16:21:02	Time
NOTES	NOTES	3	&Notes...
	supercap test cell
	2.8mg
	6M KOH
PSTAT	PSTAT	IFC5000-01520	Potentiostat
CAPACITY	QUANT	1.00000E-003	Capacity (A-hr)
CELLTYPE	SELECTOR	1	&Cell Type
WORKINGCONNECTION	SELECTOR	0	&Working Lead
MAXDISCHARGETIME	VARIABLEANDUNITS	1.00000E+002	s	1.00000E+002	second(s)	Max &Discharge Time
DISCHARGEMODE	MULTIPARAM	0	2.80000E-004	&Discharge Mode	Constant Current	Amp(s)
SAMPLETIME	QUANT	1.00000E-002	Sa&mple Period (s)
DISCHARGESTOPAT1	MULTIPARAM	3	0.00000E+000	Discharge Stop At &1	Voltage < Limit	V
DISCHARGESTOPAT2	MULTIPARAM	0	0.00000E+000	Discharge Stop At &2	None	N/A
AESBHCSELECTOR	TOGGLE	F	Save Both Half Cells
IRCOMP	TOGGLE	F	IR &Measure
EOC	QUANT	0	Open Circuit (V)
SEQUENCER	TOGGLE	TRUE	Run as Sequence
PSTATMODEL	IQUANT	53	Pstat Model
PSTATSECTION	LABEL	IFC5000-01520	Pstat Section
PSTATSERIALNO	LABEL	01520	Pstat Serial Number
CTRLMODE	IQUANT	0	Control Mode
ELECTROMETER	IQUANT	1	RE=0 or CS=1
IESTAB	IQUANT	0	I/E Stability
CASPEED	IQUANT	4	Control Amp Speed
CONVENTION	IQUANT	1	Current Convention
ICHRANGE	IQUANT	2	Ich Range
ICHRANGEMODE	TOGGLE	T	Ich Auto Range
ICHOFFSETENABLE	TOGGLE	F	Ich Offset Enable
ICHOFFSET	QUANT	0	Ich Offset (V)
ICHFILTER	IQUANT	1	Ich Filter
VCHRANGE	IQUANT	2	Vch Range
VCHRANGEMODE	TOGGLE	T	Vch Auto Range
VCHOFFSETENABLE	TOGGLE	F	Vch Offset Enable
VCHOFFSET	QUANT	0	Vch Offset (V)
VCHFILTER	IQUANT	1	Vch Filter
IERANGELOWERLIMIT	IQUANT	9	I/E Range Lower Limit
IERANGEMODE	TOGGLE	F	I/E AutoRange
IERANGE	IQUANT	9	I/E Range
ACHSELECT	IQUANT	1	Ach Select
ACHRANGE	IQUANT	2	Ach Range
ACHOFFSETENABLE	TOGGLE	F	Ach Offset Enable
ACHOFFSET	QUANT	0	Ach Offset (V)
ACHFILTER	IQUANT	1	Ach Filter
CABLEID	IQUANT	14	Cable ID
DCCALDATE	LABEL	5-7-2017	DC Calibration Date
ACCALDATE	LABEL	12/3/2015	AC Calibration Date
FRAMEWORKVERSION	QUANT	7.01	Framework Version
INSTRUMENTVERSION	LABEL	4.00	Instrument Version
CURVE	TABLE	54
	Pt	T	Vf	Im	Vu	Pwr	Sig	Ach	Temp	IERange	Over
	#	s	V	A	V	W	V	V	deg C	#	bits
	0	0.013333	5.15633E-001	-2.78479E-004	0.00000E+000	-1.43593E-004	-1.68088E-001	5.15853E-001	3.57880E+000	9	...........
	1	0.026667	4.81944E-001	-2.77960E-004	0.00000E+000	-1.33961E-004	-1.68088E-001	4.82114E-001	3.57880E+000	9	...........
	2	0.04	4.50988E-001	-2.79319E-004	0.00000E+000	-1.25969E-004	-1.68088E-001	4.51091E-001	3.57880E+000	9	...........
	3	0.053333	4.22056E-001	-2.79010E-004	0.00000E+000	-1.17758E-004	-1.68088E-001	4.22154E-001	3.57880E+000	9	...........
	4	0.066667	3.95050E-001	-2.78717E-004	0.00000E+000	-1.10107E-004	-1.68088E-001	3.95144E-001	3.57880E+000	9	...........
	5	0.08	3.69799E-001	-2.79214E-004	0.00000E+000	-1.03253E-004	-1.68088E-001	3.69881E-001	3.57880E+000	9	...........
	6	0.093333	3.46195E-001	-2.78925E-004	0.00000E+000	-9.65625E-005	-1.68088E-001	3.46274E-001	3.57880E+000	9	...........
	7	0.106667	3.24170E-001	-2.80548E-004	0.00000E+000	-9.09454E-005	-1.68088E-001	3.24252E-001	3.57880E+000	9	...........
	8	0.12	3.03668E-001	-2.79094E-004	0.00000E+000	-8.47519E-005	-1.68088E-001	3.03744E-001	3.57880E+000	9	...........
	9	0.133333	2.84613E-001	-2.79156E-004	0.00000E+000	-7.94515E-005	-1.68088E-001	2.84678E-001	3.57880E+000	9	...........
	10	0.146667	2.66872E-001	-2.78982E-004	0.00000E+000	-7.44525E-005	-1.68088E-001	2.66938E-001	3.57880E+000	9	...........
	11	0.16	2.50410E-001	-2.78296E-004	0.00000E+000	-6.96880E-005	-1.68088E-001	2.50466E-001	3.57880E+000	9	...........
	12	0.173333	2.35120E-001	-2.77518E-004	0.00000E+000	-6.52501E-005	-1.68088E-001	2.35173E-001	3.57880E+000	9	...........
	13	0.186667	2.20915E-001	-2.79329E-004	0.00000E+000	-6.17080E-005	-1.68088E-001	2.20965E-001	3.57880E+000	9	...........
	14	0.2	2.07808E-001	-2.80250E-004	0.00000E+000	-5.82381E-005	-1.68088E-001	2.07853E-001	3.57880E+000	9	...........
	15	0.213333	1.95588E-001	-2.79053E-004	0.00000E+000	-5.45795E-005	-1.68088E-001	1.95635E-001	3.57880E+000	9	...........
	16	0.226667	1.84243E-001	-2.79367E-004	0.00000E+000	-5.14712E-005	-1.68088E-001	1.84290E-001	3.57880E+000	9	...........
	17	0.24	1.73686E-001	-2.78444E-004	0.00000E+000	-4.83617E-005	-1.68088E-001	1.73725E-001	3.57880E+000	9	...........
	18	0.253333	1.63798E-001	-2.79040E-004	0.00000E+000	-4.57062E-005	-1.68088E-001	1.63830E-001	3.57880E+000	9	...........
	19	0.266667	1.54541E-001	-2.78856E-004	0.00000E+000	-4.30947E-005	-1.68088E-001	1.54577E-001	3.57880E+000	9	...........
	20	0.28	1.45905E-001	-2.78030E-004	0.00000E+000	-4.05660E-005	-1.68088E-001	1.45937E-001	3.57880E+000	9	...........
	21	0.293333	1.37795E-001	-2.77849E-004	0.00000E+000	-3.82862E-005	-1.68088E-001	1.37824E-001	3.57880E+000	9	...........
	22	0.306667	1.30188E-001	-2.79373E-004	0.00000E+000	-3.63709E-005	-1.68088E-001	1.30212E-001	3.57880E+000	9	...........
	23	0.32	1.22999E-001	-2.79199E-004	0.00000E+000	-3.43412E-005	-1.68088E-001	1.23030E-001	3.57880E+000	9	...........
	24	0.333333	1.16166E-001	-2.78525E-004	0.00000E+000	-3.23552E-005	-1.68088E-001	1.16195E-001	3.57880E+000	9	...........
	25	0.346667	1.09723E-001	-2.78584E-004	0.00000E+000	-3.05671E-005	-1.68088E-001	1.09749E-001	3.57880E+000	9	...........
	26	0.36	1.03607E-001	-2.78035E-004	0.00000E+000	-2.88064E-005	-1.68088E-001	1.03630E-001	3.57880E+000	9	...........
	27	0.373333	9.78049E-002	-2.79014E-004	0.00000E+000	-2.72889E-005	-1.68088E-001	9.78283E-002	3.57880E+000	9	...........
	28	0.386667	9.22582E-002	-2.79903E-004	0.00000E+000	-2.58234E-005	-1.68088E-001	9.22796E-002	3.57880E+000	9	...........
	29	0.4	8.69382E-002	-2.77945E-004	0.00000E+000	-2.41640E-005	-1.68088E-001	8.69521E-002	3.57880E+000	9	...........
	30	0.413333	8.18556E-002	-2.78991E-004	0.00000E+000	-2.28369E-005	-1.68088E-001	8.18717E-002	3.57880E+000	9	...........
	31	0.426667	7.69577E-002	-2.78794E-004	0.00000E+000	-2.14553E-005	-1.68088E-001	7.69765E-002	3.57880E+000	9	...........
	32	0.44	7.22483E-002	-2.79358E-004	0.00000E+000	-2.01832E-005	-1.68088E-001	7.22649E-002	3.57880E+000	9	...........
	33	0.453333	6.76972E-002	-2.78199E-004	0.00000E+000	-1.88333E-005	-1.68088E-001	6.77114E-002	3.57880E+000	9	...........
	34	0.466667	6.32906E-002	-2.79467E-004	0.00000E+000	-1.76876E-005	-1.68088E-001	6.32995E-002	3.57880E+000	9	...........
	35	0.48	5.90207E-002	-2.78967E-004	0.00000E+000	-1.64648E-005	-1.68088E-001	5.90282E-002	3.57880E+000	9	...........
	36	0.493333	5.49318E-002	-2.80502E-004	0.00000E+000	-1.54085E-005	-1.68088E-001	5.49413E-002	3.57880E+000	9	...........
	37	0.506667	5.09784E-002	-2.78634E-004	0.00000E+000	-1.42043E-005	-1.68088E-001	5.09858E-002	3.57880E+000	9	...........
	38	0.52	4.72174E-002	-2.78618E-004	0.00000E+000	-1.31556E-005	-1.68088E-001	4.72200E-002	3.57880E+000	9	...........
	39	0.533333	4.34692E-002	-2.79938E-004	0.00000E+000	-1.21687E-005	-1.68088E-001	4.34777E-002	3.57880E+000	9	...........
	40	0.546667	3.98306E-002	-2.79636E-004	0.00000E+000	-1.11381E-005	-1.68088E-001	3.98350E-002	3.57757E+000	9	...........
	41	0.56	3.63071E-002	-2.78015E-004	0.00000E+000	-1.00939E-005	-1.68088E-001	3.63116E-002	3.57740E+000	9	...........
	42	0.573333	3.28474E-002	-2.78978E-004	0.00000E+000	-9.16370E-006	-1.68088E-001	3.28483E-002	3.57740E+000	9	...........
	43	0.586667	2.94746E-002	-2.78684E-004	0.00000E+000	-8.21411E-006	-1.68088E-001	2.94756E-002	3.57740E+000	9	...........
	44	0.6	2.61666E-002	-2.79452E-004	0.00000E+000	-7.31230E-006	-1.68088E-001	2.61576E-002	3.57740E+000	9	...........
	45	0.613333	2.29156E-002	-2.79243E-004	0.00000E+000	-6.39901E-006	-1.68088E-001	2.29120E-002	3.57740E+000	9	...........
	46	0.626667	1.97094E-002	-2.79566E-004	0.00000E+000	-5.51007E-006	-1.68088E-001	1.97063E-002	3.57740E+000	9	...........
	47	0.64	1.66054E-002	-2.79340E-004	0.00000E+000	-4.63853E-006	-1.68088E-001	1.65929E-002	3.57740E+000	9	...........
	48	0.653333	1.35926E-002	-2.78770E-004	0.00000E+000	-3.78922E-006	-1.68088E-001	1.35780E-002	3.57740E+000	9	...........
	49	0.666667	1.05420E-002	-2.79177E-004	0.00000E+000	-2.94308E-006	-1.68088E-001	1.05290E-002	3.57740E+000	9	...........
	50	0.68	7.55358E-003	-2.79706E-004	0.00000E+000	-2.11278E-006	-1.68088E-001	7.53632E-003	3.57740E+000	9	...........
	51	0.693333	4.60915E-003	-2.78820E-004	0.00000E+000	-1.28512E-006	-1.68088E-001	4.59228E-003	3.57740E+000	9	...........
	52	0.706667	1.76764E-003	-2.79376E-004	0.00000E+000	-4.93836E-007	-1.68088E-001	1.75108E-003	3.57740E+000	9	...........
	53	0.71	-2.08667E-006	-2.81027E-004	0.00000E+000	5.86412E-010	-1.68088E-001	-2.36701E-005	3.57740E+000	9	...........
STARTTIMEOFFSET	QUANT	1962.771	Start Time Offset (s)
