EXPLAIN
TAG	PWR800_DISCHARGE
TITLE	LABEL	PWR Cyclic Charge Discharge (Cell) - Discharge Step	Test &Identifier
DATE	LABEL	7-7-2017	Date
TIME	LABEL	16:05:22	Time
NOTES	NOTES	3	&Notes...
	supercap test cell
	2.8mg
	6M KOH
PSTAT	PSTAT	IFC5000-01520	Potentiostat
CAPACITY	QUANT	1.00000E-003	Capacity (A-hr)
CELLTYPE	SELECTOR	1	&Cell Type
WORKINGCONNECTION	SELECTOR	0	&Working Lead
MAXDISCHARGETIME	VARIABLEANDUNITS	1.00000E+002	s	1.00000E+002	second(s)	Max &Discharge Time
DISCHARGEMODE	MULTIPARAM	0	2.80000E-004	&Discharge Mode	Constant Current	Amp(s)
SAMPLETIME	QUANT	1.00000E-002	Sa&mple Period (s)
DISCHARGESTOPAT1	MULTIPARAM	3	0.00000E+000	Discharge Stop At &1	Voltage < Limit	V
DISCHARGESTOPAT2	MULTIPARAM	0	0.00000E+000	Discharge Stop At &2	None	N/A
AESBHCSELECTOR	TOGGLE	F	Save Both Half Cells
IRCOMP	TOGGLE	F	IR &Measure
EOC	QUANT	0	Open Circuit (V)
SEQUENCER	TOGGLE	TRUE	Run as Sequence
PSTATMODEL	IQUANT	53	Pstat Model
PSTATSECTION	LABEL	IFC5000-01520	Pstat Section
PSTATSERIALNO	LABEL	01520	Pstat Serial Number
CTRLMODE	IQUANT	0	Control Mode
ELECTROMETER	IQUANT	1	RE=0 or CS=1
IESTAB	IQUANT	0	I/E Stability
CASPEED	IQUANT	4	Control Amp Speed
CONVENTION	IQUANT	1	Current Convention
ICHRANGE	IQUANT	2	Ich Range
ICHRANGEMODE	TOGGLE	T	Ich Auto Range
ICHOFFSETENABLE	TOGGLE	F	Ich Offset Enable
ICHOFFSET	QUANT	0	Ich Offset (V)
ICHFILTER	IQUANT	1	Ich Filter
VCHRANGE	IQUANT	2	Vch Range
VCHRANGEMODE	TOGGLE	T	Vch Auto Range
VCHOFFSETENABLE	TOGGLE	F	Vch Offset Enable
VCHOFFSET	QUANT	0	Vch Offset (V)
VCHFILTER	IQUANT	1	Vch Filter
IERANGELOWERLIMIT	IQUANT	9	I/E Range Lower Limit
IERANGEMODE	TOGGLE	F	I/E AutoRange
IERANGE	IQUANT	9	I/E Range
ACHSELECT	IQUANT	1	Ach Select
ACHRANGE	IQUANT	2	Ach Range
ACHOFFSETENABLE	TOGGLE	F	Ach Offset Enable
ACHOFFSET	QUANT	0	Ach Offset (V)
ACHFILTER	IQUANT	1	Ach Filter
CABLEID	IQUANT	14	Cable ID
DCCALDATE	LABEL	5-7-2017	DC Calibration Date
ACCALDATE	LABEL	12/3/2015	AC Calibration Date
FRAMEWORKVERSION	QUANT	7.01	Framework Version
INSTRUMENTVERSION	LABEL	4.00	Instrument Version
CURVE	TABLE	65
	Pt	T	Vf	Im	Vu	Pwr	Sig	Ach	Temp	IERange	Over
	#	s	V	A	V	W	V	V	deg C	#	bits
	0	0.013333	5.28466E-001	-2.78674E-004	0.00000E+000	-1.47270E-004	-1.68088E-001	5.28724E-001	3.57740E+000	9	...........
	1	0.026667	4.95547E-001	-2.79284E-004	0.00000E+000	-1.38399E-004	-1.68088E-001	4.95816E-001	3.57740E+000	9	...........
	2	0.04	4.65741E-001	-2.77952E-004	0.00000E+000	-1.29453E-004	-1.68088E-001	4.65857E-001	3.57740E+000	9	...........
	3	0.053333	4.37804E-001	-2.77997E-004	0.00000E+000	-1.21708E-004	-1.68088E-001	4.37912E-001	3.57740E+000	9	...........
	4	0.066667	4.11766E-001	-2.78832E-004	0.00000E+000	-1.14814E-004	-1.68088E-001	4.11871E-001	3.57740E+000	9	...........
	5	0.08	3.87478E-001	-2.78858E-004	0.00000E+000	-1.08051E-004	-1.68088E-001	3.87572E-001	3.57740E+000	9	...........
	6	0.093333	3.64843E-001	-2.78253E-004	0.00000E+000	-1.01519E-004	-1.68088E-001	3.64933E-001	3.57740E+000	9	...........
	7	0.106667	3.43757E-001	-2.78312E-004	0.00000E+000	-9.56718E-005	-1.68088E-001	3.43840E-001	3.57740E+000	9	...........
	8	0.12	3.24126E-001	-2.77607E-004	0.00000E+000	-8.99797E-005	-1.68088E-001	3.24206E-001	3.57740E+000	9	...........
	9	0.133333	3.05859E-001	-2.79094E-004	0.00000E+000	-8.53634E-005	-1.68088E-001	3.05933E-001	3.57740E+000	9	...........
	10	0.146667	2.88902E-001	-2.78593E-004	0.00000E+000	-8.04858E-005	-1.68088E-001	2.88980E-001	3.57740E+000	9	...........
	11	0.16	2.73160E-001	-2.78971E-004	0.00000E+000	-7.62035E-005	-1.68088E-001	2.73232E-001	3.57740E+000	9	...........
	12	0.173333	2.58561E-001	-2.79216E-004	0.00000E+000	-7.21944E-005	-1.68088E-001	2.58626E-001	3.57740E+000	9	...........
	13	0.186667	2.44966E-001	-2.78293E-004	0.00000E+000	-6.81721E-005	-1.68088E-001	2.45024E-001	3.57740E+000	9	...........
	14	0.2	2.32341E-001	-2.78681E-004	0.00000E+000	-6.47491E-005	-1.68088E-001	2.32398E-001	3.57740E+000	9	...........
	15	0.213333	2.20618E-001	-2.78052E-004	0.00000E+000	-6.13434E-005	-1.68088E-001	2.20672E-001	3.57740E+000	9	...........
	16	0.226667	2.09737E-001	-2.78526E-004	0.00000E+000	-5.84172E-005	-1.68088E-001	2.09789E-001	3.57740E+000	9	...........
	17	0.24	1.99546E-001	-2.80253E-004	0.00000E+000	-5.59234E-005	-1.68088E-001	1.99595E-001	3.57740E+000	9	...........
	18	0.253333	1.90018E-001	-2.79841E-004	0.00000E+000	-5.31746E-005	-1.68088E-001	1.90066E-001	3.57740E+000	9	...........
	19	0.266667	1.81086E-001	-2.78015E-004	0.00000E+000	-5.03446E-005	-1.68088E-001	1.81124E-001	3.57740E+000	9	...........
	20	0.28	1.72678E-001	-2.80721E-004	0.00000E+000	-4.84745E-005	-1.68088E-001	1.72726E-001	3.57740E+000	9	...........
	21	0.293333	1.64777E-001	-2.78400E-004	0.00000E+000	-4.58738E-005	-1.68088E-001	1.64820E-001	3.57740E+000	9	...........
	22	0.306667	1.57336E-001	-2.78699E-004	0.00000E+000	-4.38494E-005	-1.68088E-001	1.57370E-001	3.57740E+000	9	...........
	23	0.32	1.50305E-001	-2.78973E-004	0.00000E+000	-4.19312E-005	-1.68088E-001	1.50346E-001	3.57740E+000	9	...........
	24	0.333333	1.43667E-001	-2.78650E-004	0.00000E+000	-4.00328E-005	-1.68088E-001	1.43702E-001	3.57740E+000	9	...........
	25	0.346667	1.37373E-001	-2.78972E-004	0.00000E+000	-3.83232E-005	-1.68088E-001	1.37404E-001	3.57740E+000	9	...........
	26	0.36	1.31380E-001	-2.79161E-004	0.00000E+000	-3.66762E-005	-1.68088E-001	1.31413E-001	3.57740E+000	9	...........
	27	0.373333	1.25621E-001	-2.79570E-004	0.00000E+000	-3.51198E-005	-1.68088E-001	1.25655E-001	3.57740E+000	9	...........
	28	0.386667	1.20194E-001	-2.78962E-004	0.00000E+000	-3.35297E-005	-1.68088E-001	1.20226E-001	3.57740E+000	9	...........
	29	0.4	1.14977E-001	-2.79157E-004	0.00000E+000	-3.20966E-005	-1.68088E-001	1.15001E-001	3.57740E+000	9	...........
	30	0.413333	1.09938E-001	-2.79493E-004	0.00000E+000	-3.07269E-005	-1.68088E-001	1.09961E-001	3.57740E+000	9	...........
	31	0.426667	1.05118E-001	-2.78874E-004	0.00000E+000	-2.93147E-005	-1.68088E-001	1.05141E-001	3.57740E+000	9	...........
	32	0.44	1.00483E-001	-2.79363E-004	0.00000E+000	-2.80711E-005	-1.68088E-001	1.00503E-001	3.57740E+000	9	...........
	33	0.453333	9.60274E-002	-2.79428E-004	0.00000E+000	-2.68328E-005	-1.68088E-001	9.60536E-002	3.57740E+000	9	...........
	34	0.466667	9.16995E-002	-2.78875E-004	0.00000E+000	-2.55727E-005	-1.68088E-001	9.17231E-002	3.57740E+000	9	...........
	35	0.48	8.74747E-002	-2.77754E-004	0.00000E+000	-2.42964E-005	-1.68088E-001	8.75000E-002	3.57740E+000	9	...........
	36	0.493333	8.34232E-002	-2.78979E-004	0.00000E+000	-2.32733E-005	-1.68088E-001	8.34479E-002	3.57740E+000	9	...........
	37	0.506667	7.94834E-002	-2.79534E-004	0.00000E+000	-2.22183E-005	-1.68088E-001	7.94960E-002	3.57740E+000	9	...........
	38	0.52	7.56244E-002	-2.78791E-004	0.00000E+000	-2.10834E-005	-1.68088E-001	7.56384E-002	3.57740E+000	9	...........
	39	0.533333	7.18659E-002	-2.78231E-004	0.00000E+000	-1.99953E-005	-1.68088E-001	7.18782E-002	3.57740E+000	9	...........
	40	0.546667	6.82217E-002	-2.79024E-004	0.00000E+000	-1.90355E-005	-1.68088E-001	6.82357E-002	3.57740E+000	9	...........
	41	0.56	6.46560E-002	-2.78330E-004	0.00000E+000	-1.79957E-005	-1.68088E-001	6.46709E-002	3.57740E+000	9	...........
	42	0.573333	6.11488E-002	-2.77814E-004	0.00000E+000	-1.69880E-005	-1.68088E-001	6.11586E-002	3.57740E+000	9	...........
	43	0.586667	5.77225E-002	-2.78152E-004	0.00000E+000	-1.60556E-005	-1.68088E-001	5.77381E-002	3.57740E+000	9	...........
	44	0.6	5.44066E-002	-2.78876E-004	0.00000E+000	-1.51727E-005	-1.68088E-001	5.44251E-002	3.57740E+000	9	...........
	45	0.613333	5.11564E-002	-2.77896E-004	0.00000E+000	-1.42161E-005	-1.68088E-001	5.11687E-002	3.57740E+000	9	...........
	46	0.626667	4.80135E-002	-2.79036E-004	0.00000E+000	-1.33975E-005	-1.68088E-001	4.80178E-002	3.57740E+000	9	...........
	47	0.64	4.49090E-002	-2.79297E-004	0.00000E+000	-1.25429E-005	-1.68088E-001	4.49232E-002	3.57740E+000	9	...........
	48	0.653333	4.18781E-002	-2.78825E-004	0.00000E+000	-1.16767E-005	-1.68088E-001	4.18914E-002	3.57740E+000	9	...........
	49	0.666667	3.89056E-002	-2.77168E-004	0.00000E+000	-1.07834E-005	-1.68088E-001	3.89159E-002	3.57740E+000	9	...........
	50	0.68	3.60118E-002	-2.78420E-004	0.00000E+000	-1.00264E-005	-1.68088E-001	3.60198E-002	3.57740E+000	9	...........
	51	0.693333	3.30750E-002	-2.78481E-004	0.00000E+000	-9.21076E-006	-1.68088E-001	3.30834E-002	3.57740E+000	9	...........
	52	0.706667	3.02190E-002	-2.78448E-004	0.00000E+000	-8.41441E-006	-1.68088E-001	3.02195E-002	3.57740E+000	9	...........
	53	0.72	2.73563E-002	-2.78455E-004	0.00000E+000	-7.61750E-006	-1.68088E-001	2.73570E-002	3.57740E+000	9	...........
	54	0.733333	2.45505E-002	-2.78583E-004	0.00000E+000	-6.83936E-006	-1.68088E-001	2.45502E-002	3.57740E+000	9	...........
	55	0.746667	2.17884E-002	-2.79134E-004	0.00000E+000	-6.08189E-006	-1.68088E-001	2.17855E-002	3.57740E+000	9	...........
	56	0.76	1.90530E-002	-2.79023E-004	0.00000E+000	-5.31622E-006	-1.68088E-001	1.90518E-002	3.57740E+000	9	...........
	57	0.773333	1.63893E-002	-2.78304E-004	0.00000E+000	-4.56121E-006	-1.68088E-001	1.63851E-002	3.57740E+000	9	...........
	58	0.786667	1.37635E-002	-2.79213E-004	0.00000E+000	-3.84294E-006	-1.68088E-001	1.37516E-002	3.57740E+000	9	...........
	59	0.8	1.11959E-002	-2.78754E-004	0.00000E+000	-3.12090E-006	-1.68088E-001	1.11881E-002	3.57740E+000	9	...........
	60	0.813333	8.68117E-003	-2.79277E-004	0.00000E+000	-2.42445E-006	-1.68088E-001	8.67550E-003	3.57740E+000	9	...........
	61	0.826667	6.18889E-003	-2.77972E-004	0.00000E+000	-1.72033E-006	-1.68088E-001	6.17610E-003	3.57740E+000	9	...........
	62	0.84	3.67479E-003	-2.79722E-004	0.00000E+000	-1.02792E-006	-1.68088E-001	3.65869E-003	3.57740E+000	9	...........
	63	0.853333	1.21281E-003	-2.80407E-004	0.00000E+000	-3.40081E-007	-1.68088E-001	1.19769E-003	3.57740E+000	9	...........
	64	0.855	-1.31479E-004	-2.79748E-004	0.00000E+000	3.67811E-008	-1.68088E-001	-1.45153E-004	3.57740E+000	9	...........
STARTTIMEOFFSET	QUANT	1334.056	Start Time Offset (s)
