EXPLAIN
TAG	PWR800_DISCHARGE
TITLE	LABEL	PWR Cyclic Charge Discharge (Cell) - Discharge Step	Test &Identifier
DATE	LABEL	7-7-2017	Date
TIME	LABEL	16:17:21	Time
NOTES	NOTES	3	&Notes...
	supercap test cell
	2.8mg
	6M KOH
PSTAT	PSTAT	IFC5000-01520	Potentiostat
CAPACITY	QUANT	1.00000E-003	Capacity (A-hr)
CELLTYPE	SELECTOR	1	&Cell Type
WORKINGCONNECTION	SELECTOR	0	&Working Lead
MAXDISCHARGETIME	VARIABLEANDUNITS	1.00000E+002	s	1.00000E+002	second(s)	Max &Discharge Time
DISCHARGEMODE	MULTIPARAM	0	2.80000E-004	&Discharge Mode	Constant Current	Amp(s)
SAMPLETIME	QUANT	1.00000E-002	Sa&mple Period (s)
DISCHARGESTOPAT1	MULTIPARAM	3	0.00000E+000	Discharge Stop At &1	Voltage < Limit	V
DISCHARGESTOPAT2	MULTIPARAM	0	0.00000E+000	Discharge Stop At &2	None	N/A
AESBHCSELECTOR	TOGGLE	F	Save Both Half Cells
IRCOMP	TOGGLE	F	IR &Measure
EOC	QUANT	0	Open Circuit (V)
SEQUENCER	TOGGLE	TRUE	Run as Sequence
PSTATMODEL	IQUANT	53	Pstat Model
PSTATSECTION	LABEL	IFC5000-01520	Pstat Section
PSTATSERIALNO	LABEL	01520	Pstat Serial Number
CTRLMODE	IQUANT	0	Control Mode
ELECTROMETER	IQUANT	1	RE=0 or CS=1
IESTAB	IQUANT	0	I/E Stability
CASPEED	IQUANT	4	Control Amp Speed
CONVENTION	IQUANT	1	Current Convention
ICHRANGE	IQUANT	2	Ich Range
ICHRANGEMODE	TOGGLE	T	Ich Auto Range
ICHOFFSETENABLE	TOGGLE	F	Ich Offset Enable
ICHOFFSET	QUANT	0	Ich Offset (V)
ICHFILTER	IQUANT	1	Ich Filter
VCHRANGE	IQUANT	2	Vch Range
VCHRANGEMODE	TOGGLE	T	Vch Auto Range
VCHOFFSETENABLE	TOGGLE	F	Vch Offset Enable
VCHOFFSET	QUANT	0	Vch Offset (V)
VCHFILTER	IQUANT	1	Vch Filter
IERANGELOWERLIMIT	IQUANT	9	I/E Range Lower Limit
IERANGEMODE	TOGGLE	F	I/E AutoRange
IERANGE	IQUANT	9	I/E Range
ACHSELECT	IQUANT	1	Ach Select
ACHRANGE	IQUANT	2	Ach Range
ACHOFFSETENABLE	TOGGLE	F	Ach Offset Enable
ACHOFFSET	QUANT	0	Ach Offset (V)
ACHFILTER	IQUANT	1	Ach Filter
CABLEID	IQUANT	14	Cable ID
DCCALDATE	LABEL	5-7-2017	DC Calibration Date
ACCALDATE	LABEL	12/3/2015	AC Calibration Date
FRAMEWORKVERSION	QUANT	7.01	Framework Version
INSTRUMENTVERSION	LABEL	4.00	Instrument Version
CURVE	TABLE	56
	Pt	T	Vf	Im	Vu	Pwr	Sig	Ach	Temp	IERange	Over
	#	s	V	A	V	W	V	V	deg C	#	bits
	0	0.013333	5.18492E-001	-2.77491E-004	0.00000E+000	-1.43877E-004	-1.68088E-001	5.18708E-001	3.57770E+000	9	...........
	1	0.026667	4.84938E-001	-2.79800E-004	0.00000E+000	-1.35686E-004	-1.68088E-001	4.85122E-001	3.57730E+000	9	...........
	2	0.04	4.54241E-001	-2.78544E-004	0.00000E+000	-1.26526E-004	-1.68088E-001	4.54343E-001	3.57730E+000	9	...........
	3	0.053333	4.25523E-001	-2.77949E-004	0.00000E+000	-1.18274E-004	-1.68088E-001	4.25615E-001	3.57730E+000	9	...........
	4	0.066667	3.98726E-001	-2.79957E-004	0.00000E+000	-1.11626E-004	-1.68088E-001	3.98813E-001	3.57730E+000	9	...........
	5	0.08	3.73676E-001	-2.78250E-004	0.00000E+000	-1.03975E-004	-1.68088E-001	3.73760E-001	3.57730E+000	9	...........
	6	0.093333	3.50294E-001	-2.78504E-004	0.00000E+000	-9.75582E-005	-1.68088E-001	3.50365E-001	3.57730E+000	9	...........
	7	0.106667	3.28480E-001	-2.79304E-004	0.00000E+000	-9.17457E-005	-1.68088E-001	3.28555E-001	3.57730E+000	9	...........
	8	0.12	3.08132E-001	-2.78545E-004	0.00000E+000	-8.58284E-005	-1.68088E-001	3.08206E-001	3.57730E+000	9	...........
	9	0.133333	2.89185E-001	-2.78990E-004	0.00000E+000	-8.06797E-005	-1.68088E-001	2.89251E-001	3.57730E+000	9	...........
	10	0.146667	2.71558E-001	-2.77958E-004	0.00000E+000	-7.54818E-005	-1.68088E-001	2.71622E-001	3.57730E+000	9	...........
	11	0.16	2.55203E-001	-2.80092E-004	0.00000E+000	-7.14804E-005	-1.68088E-001	2.55263E-001	3.57730E+000	9	...........
	12	0.173333	2.40032E-001	-2.78730E-004	0.00000E+000	-6.69042E-005	-1.68088E-001	2.40085E-001	3.57730E+000	9	...........
	13	0.186667	2.25955E-001	-2.79169E-004	0.00000E+000	-6.30795E-005	-1.68088E-001	2.26009E-001	3.57730E+000	9	...........
	14	0.2	2.12861E-001	-2.78771E-004	0.00000E+000	-5.93393E-005	-1.68088E-001	2.12908E-001	3.57730E+000	9	...........
	15	0.213333	2.00660E-001	-2.78648E-004	0.00000E+000	-5.59136E-005	-1.68088E-001	2.00705E-001	3.57730E+000	9	...........
	16	0.226667	1.89295E-001	-2.79475E-004	0.00000E+000	-5.29033E-005	-1.68088E-001	1.89346E-001	3.57730E+000	9	...........
	17	0.24	1.78716E-001	-2.78710E-004	0.00000E+000	-4.98100E-005	-1.68088E-001	1.78761E-001	3.57730E+000	9	...........
	18	0.253333	1.68820E-001	-2.80439E-004	0.00000E+000	-4.73436E-005	-1.68088E-001	1.68862E-001	3.57730E+000	9	...........
	19	0.266667	1.59596E-001	-2.78870E-004	0.00000E+000	-4.45064E-005	-1.68088E-001	1.59630E-001	3.57730E+000	9	...........
	20	0.28	1.51001E-001	-2.77767E-004	0.00000E+000	-4.19432E-005	-1.68088E-001	1.51033E-001	3.57730E+000	9	...........
	21	0.293333	1.42917E-001	-2.78943E-004	0.00000E+000	-3.98655E-005	-1.68088E-001	1.42955E-001	3.57730E+000	9	...........
	22	0.306667	1.35322E-001	-2.77876E-004	0.00000E+000	-3.76026E-005	-1.68088E-001	1.35351E-001	3.57730E+000	9	...........
	23	0.32	1.28136E-001	-2.77935E-004	0.00000E+000	-3.56136E-005	-1.68088E-001	1.28163E-001	3.57730E+000	9	...........
	24	0.333333	1.21374E-001	-2.79419E-004	0.00000E+000	-3.39142E-005	-1.68088E-001	1.21402E-001	3.57730E+000	9	...........
	25	0.346667	1.14954E-001	-2.80636E-004	0.00000E+000	-3.22603E-005	-1.68088E-001	1.14987E-001	3.57730E+000	9	...........
	26	0.36	1.08821E-001	-2.79927E-004	0.00000E+000	-3.04621E-005	-1.68088E-001	1.08851E-001	3.57730E+000	9	...........
	27	0.373333	1.02970E-001	-2.79383E-004	0.00000E+000	-2.87681E-005	-1.68088E-001	1.02994E-001	3.57730E+000	9	...........
	28	0.386667	9.74256E-002	-2.78170E-004	0.00000E+000	-2.71008E-005	-1.68088E-001	9.74451E-002	3.57730E+000	9	...........
	29	0.4	9.21561E-002	-2.79471E-004	0.00000E+000	-2.57549E-005	-1.68088E-001	9.21736E-002	3.57730E+000	9	...........
	30	0.413333	8.71052E-002	-2.79971E-004	0.00000E+000	-2.43869E-005	-1.68088E-001	8.71263E-002	3.57730E+000	9	...........
	31	0.426667	8.22938E-002	-2.79015E-004	0.00000E+000	-2.29612E-005	-1.68088E-001	8.23089E-002	3.57730E+000	9	...........
	32	0.44	7.76286E-002	-2.79020E-004	0.00000E+000	-2.16599E-005	-1.68088E-001	7.76452E-002	3.57730E+000	9	...........
	33	0.453333	7.31209E-002	-2.80038E-004	0.00000E+000	-2.04766E-005	-1.68088E-001	7.31367E-002	3.57730E+000	9	...........
	34	0.466667	6.87490E-002	-2.78826E-004	0.00000E+000	-1.91690E-005	-1.68088E-001	6.87654E-002	3.57730E+000	9	...........
	35	0.48	6.45109E-002	-2.79010E-004	0.00000E+000	-1.79992E-005	-1.68088E-001	6.45188E-002	3.57730E+000	9	...........
	36	0.493333	6.04123E-002	-2.78906E-004	0.00000E+000	-1.68494E-005	-1.68088E-001	6.04223E-002	3.57730E+000	9	...........
	37	0.506667	5.64091E-002	-2.79273E-004	0.00000E+000	-1.57535E-005	-1.68088E-001	5.64210E-002	3.57730E+000	9	...........
	38	0.52	5.25437E-002	-2.79042E-004	0.00000E+000	-1.46619E-005	-1.68088E-001	5.25508E-002	3.57730E+000	9	...........
	39	0.533333	4.88217E-002	-2.78554E-004	0.00000E+000	-1.35995E-005	-1.68088E-001	4.88276E-002	3.57730E+000	9	...........
	40	0.546667	4.52248E-002	-2.78098E-004	0.00000E+000	-1.25769E-005	-1.68088E-001	4.52352E-002	3.57730E+000	9	...........
	41	0.56	4.16762E-002	-2.78166E-004	0.00000E+000	-1.15929E-005	-1.68088E-001	4.16853E-002	3.57730E+000	9	...........
	42	0.573333	3.82145E-002	-2.78950E-004	0.00000E+000	-1.06599E-005	-1.68088E-001	3.82179E-002	3.57730E+000	9	...........
	43	0.586667	3.48191E-002	-2.77690E-004	0.00000E+000	-9.66892E-006	-1.68088E-001	3.48275E-002	3.57730E+000	9	...........
	44	0.6	3.15281E-002	-2.79393E-004	0.00000E+000	-8.80871E-006	-1.68088E-001	3.15256E-002	3.57730E+000	9	...........
	45	0.613333	2.82547E-002	-2.79614E-004	0.00000E+000	-7.90039E-006	-1.68088E-001	2.82555E-002	3.57730E+000	9	...........
	46	0.626667	2.50611E-002	-2.79158E-004	0.00000E+000	-6.99602E-006	-1.68088E-001	2.50579E-002	3.57730E+000	9	...........
	47	0.64	2.19357E-002	-2.78751E-004	0.00000E+000	-6.11459E-006	-1.68088E-001	2.19288E-002	3.57730E+000	9	...........
	48	0.653333	1.88239E-002	-2.78346E-004	0.00000E+000	-5.23954E-006	-1.68088E-001	1.88140E-002	3.57730E+000	9	...........
	49	0.666667	1.58204E-002	-2.79193E-004	0.00000E+000	-4.41694E-006	-1.68088E-001	1.58064E-002	3.57730E+000	9	...........
	50	0.68	1.28617E-002	-2.80100E-004	0.00000E+000	-3.60258E-006	-1.68088E-001	1.28528E-002	3.57730E+000	9	...........
	51	0.693333	9.98458E-003	-2.78862E-004	0.00000E+000	-2.78433E-006	-1.68088E-001	9.97349E-003	3.57730E+000	9	...........
	52	0.706667	7.12731E-003	-2.79738E-004	0.00000E+000	-1.99378E-006	-1.68088E-001	7.11185E-003	3.57730E+000	9	...........
	53	0.72	4.32164E-003	-2.78181E-004	0.00000E+000	-1.20220E-006	-1.68088E-001	4.30504E-003	3.57730E+000	9	...........
	54	0.733333	1.52044E-003	-2.78077E-004	0.00000E+000	-4.22800E-007	-1.68088E-001	1.49872E-003	3.57730E+000	9	...........
	55	0.735	-3.14690E-005	-2.80006E-004	0.00000E+000	8.81153E-009	-1.68088E-001	-5.61557E-005	3.57730E+000	9	...........
STARTTIMEOFFSET	QUANT	1818.502	Start Time Offset (s)
