EXPLAIN
TAG	PWR800_DISCHARGE
TITLE	LABEL	PWR Cyclic Charge Discharge (Cell) - Discharge Step	Test &Identifier
DATE	LABEL	7-7-2017	Date
TIME	LABEL	16:15:48	Time
NOTES	NOTES	3	&Notes...
	supercap test cell
	2.8mg
	6M KOH
PSTAT	PSTAT	IFC5000-01520	Potentiostat
CAPACITY	QUANT	1.00000E-003	Capacity (A-hr)
CELLTYPE	SELECTOR	1	&Cell Type
WORKINGCONNECTION	SELECTOR	0	&Working Lead
MAXDISCHARGETIME	VARIABLEANDUNITS	1.00000E+002	s	1.00000E+002	second(s)	Max &Discharge Time
DISCHARGEMODE	MULTIPARAM	0	2.80000E-004	&Discharge Mode	Constant Current	Amp(s)
SAMPLETIME	QUANT	1.00000E-002	Sa&mple Period (s)
DISCHARGESTOPAT1	MULTIPARAM	3	0.00000E+000	Discharge Stop At &1	Voltage < Limit	V
DISCHARGESTOPAT2	MULTIPARAM	0	0.00000E+000	Discharge Stop At &2	None	N/A
AESBHCSELECTOR	TOGGLE	F	Save Both Half Cells
IRCOMP	TOGGLE	F	IR &Measure
EOC	QUANT	0	Open Circuit (V)
SEQUENCER	TOGGLE	TRUE	Run as Sequence
PSTATMODEL	IQUANT	53	Pstat Model
PSTATSECTION	LABEL	IFC5000-01520	Pstat Section
PSTATSERIALNO	LABEL	01520	Pstat Serial Number
CTRLMODE	IQUANT	0	Control Mode
ELECTROMETER	IQUANT	1	RE=0 or CS=1
IESTAB	IQUANT	0	I/E Stability
CASPEED	IQUANT	4	Control Amp Speed
CONVENTION	IQUANT	1	Current Convention
ICHRANGE	IQUANT	2	Ich Range
ICHRANGEMODE	TOGGLE	T	Ich Auto Range
ICHOFFSETENABLE	TOGGLE	F	Ich Offset Enable
ICHOFFSET	QUANT	0	Ich Offset (V)
ICHFILTER	IQUANT	1	Ich Filter
VCHRANGE	IQUANT	2	Vch Range
VCHRANGEMODE	TOGGLE	T	Vch Auto Range
VCHOFFSETENABLE	TOGGLE	F	Vch Offset Enable
VCHOFFSET	QUANT	0	Vch Offset (V)
VCHFILTER	IQUANT	1	Vch Filter
IERANGELOWERLIMIT	IQUANT	9	I/E Range Lower Limit
IERANGEMODE	TOGGLE	F	I/E AutoRange
IERANGE	IQUANT	9	I/E Range
ACHSELECT	IQUANT	1	Ach Select
ACHRANGE	IQUANT	2	Ach Range
ACHOFFSETENABLE	TOGGLE	F	Ach Offset Enable
ACHOFFSET	QUANT	0	Ach Offset (V)
ACHFILTER	IQUANT	1	Ach Filter
CABLEID	IQUANT	14	Cable ID
DCCALDATE	LABEL	5-7-2017	DC Calibration Date
ACCALDATE	LABEL	12/3/2015	AC Calibration Date
FRAMEWORKVERSION	QUANT	7.01	Framework Version
INSTRUMENTVERSION	LABEL	4.00	Instrument Version
CURVE	TABLE	57
	Pt	T	Vf	Im	Vu	Pwr	Sig	Ach	Temp	IERange	Over
	#	s	V	A	V	W	V	V	deg C	#	bits
	0	0.013333	5.23761E-001	-2.78578E-004	0.00000E+000	-1.45908E-004	-1.68088E-001	5.23995E-001	3.57850E+000	9	...........
	1	0.026667	4.90249E-001	-2.78648E-004	0.00000E+000	-1.36607E-004	-1.68088E-001	4.90452E-001	3.57850E+000	9	...........
	2	0.04	4.59647E-001	-2.78803E-004	0.00000E+000	-1.28151E-004	-1.68088E-001	4.59754E-001	3.57850E+000	9	...........
	3	0.053333	4.30980E-001	-2.79002E-004	0.00000E+000	-1.20244E-004	-1.68088E-001	4.31085E-001	3.57850E+000	9	...........
	4	0.066667	4.04216E-001	-2.79053E-004	0.00000E+000	-1.12798E-004	-1.68088E-001	4.04305E-001	3.57850E+000	9	...........
	5	0.08	3.79166E-001	-2.77422E-004	0.00000E+000	-1.05189E-004	-1.68088E-001	3.79247E-001	3.57850E+000	9	...........
	6	0.093333	3.55749E-001	-2.77875E-004	0.00000E+000	-9.88537E-005	-1.68088E-001	3.55824E-001	3.57850E+000	9	...........
	7	0.106667	3.33901E-001	-2.79229E-004	0.00000E+000	-9.32350E-005	-1.68088E-001	3.33979E-001	3.57850E+000	9	...........
	8	0.12	3.13568E-001	-2.79877E-004	0.00000E+000	-8.77605E-005	-1.68088E-001	3.13635E-001	3.57850E+000	9	...........
	9	0.133333	2.94622E-001	-2.79444E-004	0.00000E+000	-8.23303E-005	-1.68088E-001	2.94686E-001	3.57850E+000	9	...........
	10	0.146667	2.77010E-001	-2.79047E-004	0.00000E+000	-7.72988E-005	-1.68088E-001	2.77074E-001	3.57850E+000	9	...........
	11	0.16	2.60623E-001	-2.79396E-004	0.00000E+000	-7.28171E-005	-1.68088E-001	2.60688E-001	3.57850E+000	9	...........
	12	0.173333	2.45415E-001	-2.79323E-004	0.00000E+000	-6.85499E-005	-1.68088E-001	2.45478E-001	3.57850E+000	9	...........
	13	0.186667	2.31315E-001	-2.78241E-004	0.00000E+000	-6.43614E-005	-1.68088E-001	2.31366E-001	3.57850E+000	9	...........
	14	0.2	2.18226E-001	-2.78333E-004	0.00000E+000	-6.07395E-005	-1.68088E-001	2.18279E-001	3.57850E+000	9	...........
	15	0.213333	2.06059E-001	-2.77432E-004	0.00000E+000	-5.71673E-005	-1.68088E-001	2.06106E-001	3.57850E+000	9	...........
	16	0.226667	1.94734E-001	-2.78263E-004	0.00000E+000	-5.41873E-005	-1.68088E-001	1.94777E-001	3.57850E+000	9	...........
	17	0.24	1.84127E-001	-2.79189E-004	0.00000E+000	-5.14061E-005	-1.68088E-001	1.84168E-001	3.57850E+000	9	...........
	18	0.253333	1.74232E-001	-2.77526E-004	0.00000E+000	-4.83539E-005	-1.68088E-001	1.74268E-001	3.57850E+000	9	...........
	19	0.266667	1.64974E-001	-2.79577E-004	0.00000E+000	-4.61230E-005	-1.68088E-001	1.65013E-001	3.57850E+000	9	...........
	20	0.28	1.56314E-001	-2.79179E-004	0.00000E+000	-4.36396E-005	-1.68088E-001	1.56346E-001	3.57850E+000	9	...........
	21	0.293333	1.48215E-001	-2.78607E-004	0.00000E+000	-4.12938E-005	-1.68088E-001	1.48249E-001	3.57850E+000	9	...........
	22	0.306667	1.40588E-001	-2.79192E-004	0.00000E+000	-3.92509E-005	-1.68088E-001	1.40622E-001	3.57850E+000	9	...........
	23	0.32	1.33391E-001	-2.80165E-004	0.00000E+000	-3.73716E-005	-1.68088E-001	1.33427E-001	3.57850E+000	9	...........
	24	0.333333	1.26632E-001	-2.79846E-004	0.00000E+000	-3.54375E-005	-1.68088E-001	1.26658E-001	3.57835E+000	9	...........
	25	0.346667	1.20173E-001	-2.79055E-004	0.00000E+000	-3.35349E-005	-1.68088E-001	1.20204E-001	3.57810E+000	9	...........
	26	0.36	1.14079E-001	-2.79208E-004	0.00000E+000	-3.18519E-005	-1.68088E-001	1.14101E-001	3.57810E+000	9	...........
	27	0.373333	1.08194E-001	-2.79136E-004	0.00000E+000	-3.02010E-005	-1.68088E-001	1.08217E-001	3.57810E+000	9	...........
	28	0.386667	1.02564E-001	-2.80072E-004	0.00000E+000	-2.87253E-005	-1.68088E-001	1.02588E-001	3.57810E+000	9	...........
	29	0.4	9.72252E-002	-2.78185E-004	0.00000E+000	-2.70466E-005	-1.68088E-001	9.72495E-002	3.57810E+000	9	...........
	30	0.413333	9.20661E-002	-2.79502E-004	0.00000E+000	-2.57327E-005	-1.68088E-001	9.20854E-002	3.57810E+000	9	...........
	31	0.426667	8.71488E-002	-2.78258E-004	0.00000E+000	-2.42499E-005	-1.68088E-001	8.71653E-002	3.57810E+000	9	...........
	32	0.44	8.24663E-002	-2.80018E-004	0.00000E+000	-2.30920E-005	-1.68088E-001	8.24822E-002	3.57810E+000	9	...........
	33	0.453333	7.79386E-002	-2.79300E-004	0.00000E+000	-2.17683E-005	-1.68088E-001	7.79494E-002	3.57810E+000	9	...........
	34	0.466667	7.35409E-002	-2.79328E-004	0.00000E+000	-2.05420E-005	-1.68088E-001	7.35553E-002	3.57810E+000	9	...........
	35	0.48	6.92898E-002	-2.79758E-004	0.00000E+000	-1.93844E-005	-1.68088E-001	6.92977E-002	3.57810E+000	9	...........
	36	0.493333	6.51691E-002	-2.78791E-004	0.00000E+000	-1.81685E-005	-1.68088E-001	6.51806E-002	3.57810E+000	9	...........
	37	0.506667	6.11450E-002	-2.79707E-004	0.00000E+000	-1.71027E-005	-1.68088E-001	6.11537E-002	3.57810E+000	9	...........
	38	0.52	5.72540E-002	-2.78980E-004	0.00000E+000	-1.59727E-005	-1.68088E-001	5.72665E-002	3.57810E+000	9	...........
	39	0.533333	5.34714E-002	-2.78648E-004	0.00000E+000	-1.48997E-005	-1.68088E-001	5.34785E-002	3.57810E+000	9	...........
	40	0.546667	4.98875E-002	-2.78372E-004	0.00000E+000	-1.38873E-005	-1.68088E-001	4.98946E-002	3.57810E+000	9	...........
	41	0.56	4.63709E-002	-2.78231E-004	0.00000E+000	-1.29018E-005	-1.68088E-001	4.63822E-002	3.57810E+000	9	...........
	42	0.573333	4.28868E-002	-2.77608E-004	0.00000E+000	-1.19057E-005	-1.68088E-001	4.28953E-002	3.57810E+000	9	...........
	43	0.586667	3.94963E-002	-2.78484E-004	0.00000E+000	-1.09991E-005	-1.68088E-001	3.95021E-002	3.57810E+000	9	...........
	44	0.6	3.61643E-002	-2.79357E-004	0.00000E+000	-1.01028E-005	-1.68088E-001	3.61715E-002	3.57810E+000	9	...........
	45	0.613333	3.28847E-002	-2.78442E-004	0.00000E+000	-9.15646E-006	-1.68088E-001	3.28884E-002	3.57810E+000	9	...........
	46	0.626667	2.96730E-002	-2.79602E-004	0.00000E+000	-8.29663E-006	-1.68088E-001	2.96733E-002	3.57810E+000	9	...........
	47	0.64	2.65302E-002	-2.77915E-004	0.00000E+000	-7.37316E-006	-1.68088E-001	2.65285E-002	3.57810E+000	9	...........
	48	0.653333	2.34191E-002	-2.78769E-004	0.00000E+000	-6.52850E-006	-1.68088E-001	2.34167E-002	3.57810E+000	9	...........
	49	0.666667	2.03549E-002	-2.80383E-004	0.00000E+000	-5.70716E-006	-1.68088E-001	2.03534E-002	3.57810E+000	9	...........
	50	0.68	1.73442E-002	-2.79014E-004	0.00000E+000	-4.83926E-006	-1.68088E-001	1.73412E-002	3.57810E+000	9	...........
	51	0.693333	1.44320E-002	-2.79044E-004	0.00000E+000	-4.02717E-006	-1.68088E-001	1.44251E-002	3.57810E+000	9	...........
	52	0.706667	1.16083E-002	-2.79346E-004	0.00000E+000	-3.24274E-006	-1.68088E-001	1.15985E-002	3.57810E+000	9	...........
	53	0.72	8.79772E-003	-2.79518E-004	0.00000E+000	-2.45912E-006	-1.68088E-001	8.78591E-003	3.57810E+000	9	...........
	54	0.733333	6.00093E-003	-2.80666E-004	0.00000E+000	-1.68426E-006	-1.68088E-001	5.98778E-003	3.57810E+000	9	...........
	55	0.746667	3.29129E-003	-2.79049E-004	0.00000E+000	-9.18432E-007	-1.68088E-001	3.27264E-003	3.57810E+000	9	...........
	56	0.758333	7.96272E-004	-2.80543E-004	0.00000E+000	-2.23389E-007	-1.68088E-001	7.74512E-004	3.57810E+000	9	...........
STARTTIMEOFFSET	QUANT	1757.003	Start Time Offset (s)
