EXPLAIN
TAG	PWR800_DISCHARGE
TITLE	LABEL	PWR Cyclic Charge Discharge (Cell) - Discharge Step	Test &Identifier
DATE	LABEL	7-7-2017	Date
TIME	LABEL	16:12:16	Time
NOTES	NOTES	3	&Notes...
	supercap test cell
	2.8mg
	6M KOH
PSTAT	PSTAT	IFC5000-01520	Potentiostat
CAPACITY	QUANT	1.00000E-003	Capacity (A-hr)
CELLTYPE	SELECTOR	1	&Cell Type
WORKINGCONNECTION	SELECTOR	0	&Working Lead
MAXDISCHARGETIME	VARIABLEANDUNITS	1.00000E+002	s	1.00000E+002	second(s)	Max &Discharge Time
DISCHARGEMODE	MULTIPARAM	0	2.80000E-004	&Discharge Mode	Constant Current	Amp(s)
SAMPLETIME	QUANT	1.00000E-002	Sa&mple Period (s)
DISCHARGESTOPAT1	MULTIPARAM	3	0.00000E+000	Discharge Stop At &1	Voltage < Limit	V
DISCHARGESTOPAT2	MULTIPARAM	0	0.00000E+000	Discharge Stop At &2	None	N/A
AESBHCSELECTOR	TOGGLE	F	Save Both Half Cells
IRCOMP	TOGGLE	F	IR &Measure
EOC	QUANT	0	Open Circuit (V)
SEQUENCER	TOGGLE	TRUE	Run as Sequence
PSTATMODEL	IQUANT	53	Pstat Model
PSTATSECTION	LABEL	IFC5000-01520	Pstat Section
PSTATSERIALNO	LABEL	01520	Pstat Serial Number
CTRLMODE	IQUANT	0	Control Mode
ELECTROMETER	IQUANT	1	RE=0 or CS=1
IESTAB	IQUANT	0	I/E Stability
CASPEED	IQUANT	4	Control Amp Speed
CONVENTION	IQUANT	1	Current Convention
ICHRANGE	IQUANT	2	Ich Range
ICHRANGEMODE	TOGGLE	T	Ich Auto Range
ICHOFFSETENABLE	TOGGLE	F	Ich Offset Enable
ICHOFFSET	QUANT	0	Ich Offset (V)
ICHFILTER	IQUANT	1	Ich Filter
VCHRANGE	IQUANT	2	Vch Range
VCHRANGEMODE	TOGGLE	T	Vch Auto Range
VCHOFFSETENABLE	TOGGLE	F	Vch Offset Enable
VCHOFFSET	QUANT	0	Vch Offset (V)
VCHFILTER	IQUANT	1	Vch Filter
IERANGELOWERLIMIT	IQUANT	9	I/E Range Lower Limit
IERANGEMODE	TOGGLE	F	I/E AutoRange
IERANGE	IQUANT	9	I/E Range
ACHSELECT	IQUANT	1	Ach Select
ACHRANGE	IQUANT	2	Ach Range
ACHOFFSETENABLE	TOGGLE	F	Ach Offset Enable
ACHOFFSET	QUANT	0	Ach Offset (V)
ACHFILTER	IQUANT	1	Ach Filter
CABLEID	IQUANT	14	Cable ID
DCCALDATE	LABEL	5-7-2017	DC Calibration Date
ACCALDATE	LABEL	12/3/2015	AC Calibration Date
FRAMEWORKVERSION	QUANT	7.01	Framework Version
INSTRUMENTVERSION	LABEL	4.00	Instrument Version
CURVE	TABLE	60
	Pt	T	Vf	Im	Vu	Pwr	Sig	Ach	Temp	IERange	Over
	#	s	V	A	V	W	V	V	deg C	#	bits
	0	0.013333	5.16142E-001	-2.77945E-004	0.00000E+000	-1.43459E-004	-1.68088E-001	5.16385E-001	3.57880E+000	9	...........
	1	0.026667	4.83099E-001	-2.78401E-004	0.00000E+000	-1.34495E-004	-1.68088E-001	4.83276E-001	3.57880E+000	9	...........
	2	0.04	4.52863E-001	-2.79404E-004	0.00000E+000	-1.26532E-004	-1.68088E-001	4.52969E-001	3.57880E+000	9	...........
	3	0.053333	4.24735E-001	-2.79813E-004	0.00000E+000	-1.18846E-004	-1.68088E-001	4.24838E-001	3.57880E+000	9	...........
	4	0.066667	3.98549E-001	-2.78639E-004	0.00000E+000	-1.11051E-004	-1.68088E-001	3.98638E-001	3.57880E+000	9	...........
	5	0.08	3.74134E-001	-2.79296E-004	0.00000E+000	-1.04494E-004	-1.68088E-001	3.74215E-001	3.57880E+000	9	...........
	6	0.093333	3.51389E-001	-2.79068E-004	0.00000E+000	-9.80614E-005	-1.68088E-001	3.51469E-001	3.57880E+000	9	...........
	7	0.106667	3.30201E-001	-2.79154E-004	0.00000E+000	-9.21770E-005	-1.68088E-001	3.30281E-001	3.57880E+000	9	...........
	8	0.12	3.10510E-001	-2.77998E-004	0.00000E+000	-8.63212E-005	-1.68088E-001	3.10582E-001	3.57880E+000	9	...........
	9	0.133333	2.92223E-001	-2.79520E-004	0.00000E+000	-8.16821E-005	-1.68088E-001	2.92289E-001	3.57880E+000	9	...........
	10	0.146667	2.75243E-001	-2.79379E-004	0.00000E+000	-7.68972E-005	-1.68088E-001	2.75310E-001	3.57880E+000	9	...........
	11	0.16	2.59464E-001	-2.79920E-004	0.00000E+000	-7.26292E-005	-1.68088E-001	2.59530E-001	3.57880E+000	9	...........
	12	0.173333	2.44845E-001	-2.78646E-004	0.00000E+000	-6.82250E-005	-1.68088E-001	2.44904E-001	3.57880E+000	9	...........
	13	0.186667	2.31327E-001	-2.78501E-004	0.00000E+000	-6.44249E-005	-1.68088E-001	2.31382E-001	3.57880E+000	9	...........
	14	0.2	2.18738E-001	-2.78141E-004	0.00000E+000	-6.08400E-005	-1.68088E-001	2.18787E-001	3.57880E+000	9	...........
	15	0.213333	2.07016E-001	-2.79980E-004	0.00000E+000	-5.79604E-005	-1.68088E-001	2.07063E-001	3.57880E+000	9	...........
	16	0.226667	1.96126E-001	-2.79376E-004	0.00000E+000	-5.47929E-005	-1.68088E-001	1.96173E-001	3.57880E+000	9	...........
	17	0.24	1.85986E-001	-2.78424E-004	0.00000E+000	-5.17830E-005	-1.68088E-001	1.86033E-001	3.57880E+000	9	...........
	18	0.253333	1.76504E-001	-2.78631E-004	0.00000E+000	-4.91795E-005	-1.68088E-001	1.76549E-001	3.57880E+000	9	...........
	19	0.266667	1.67612E-001	-2.79405E-004	0.00000E+000	-4.68317E-005	-1.68088E-001	1.67659E-001	3.57880E+000	9	...........
	20	0.28	1.59294E-001	-2.78274E-004	0.00000E+000	-4.43273E-005	-1.68088E-001	1.59328E-001	3.57880E+000	9	...........
	21	0.293333	1.51456E-001	-2.78924E-004	0.00000E+000	-4.22446E-005	-1.68088E-001	1.51491E-001	3.57880E+000	9	...........
	22	0.306667	1.44066E-001	-2.78972E-004	0.00000E+000	-4.01903E-005	-1.68088E-001	1.44101E-001	3.57880E+000	9	...........
	23	0.32	1.37056E-001	-2.77910E-004	0.00000E+000	-3.80892E-005	-1.68088E-001	1.37089E-001	3.57880E+000	9	...........
	24	0.333333	1.30436E-001	-2.79054E-004	0.00000E+000	-3.63986E-005	-1.68088E-001	1.30465E-001	3.57880E+000	9	...........
	25	0.346667	1.24164E-001	-2.78858E-004	0.00000E+000	-3.46242E-005	-1.68088E-001	1.24193E-001	3.57880E+000	9	...........
	26	0.36	1.18183E-001	-2.77872E-004	0.00000E+000	-3.28398E-005	-1.68088E-001	1.18216E-001	3.57880E+000	9	...........
	27	0.373333	1.12463E-001	-2.79474E-004	0.00000E+000	-3.14306E-005	-1.68088E-001	1.12494E-001	3.57880E+000	9	...........
	28	0.386667	1.07041E-001	-2.79131E-004	0.00000E+000	-2.98785E-005	-1.68088E-001	1.07070E-001	3.57880E+000	9	...........
	29	0.4	1.01852E-001	-2.79134E-004	0.00000E+000	-2.84305E-005	-1.68088E-001	1.01879E-001	3.57880E+000	9	...........
	30	0.413333	9.68726E-002	-2.79569E-004	0.00000E+000	-2.70826E-005	-1.68088E-001	9.68956E-002	3.57880E+000	9	...........
	31	0.426667	9.20556E-002	-2.79465E-004	0.00000E+000	-2.57263E-005	-1.68088E-001	9.20776E-002	3.57880E+000	9	...........
	32	0.44	8.74227E-002	-2.78309E-004	0.00000E+000	-2.43306E-005	-1.68088E-001	8.74443E-002	3.57880E+000	9	...........
	33	0.453333	8.29702E-002	-2.79165E-004	0.00000E+000	-2.31624E-005	-1.68088E-001	8.29892E-002	3.57880E+000	9	...........
	34	0.466667	7.86748E-002	-2.78828E-004	0.00000E+000	-2.19368E-005	-1.68088E-001	7.86954E-002	3.57880E+000	9	...........
	35	0.48	7.45437E-002	-2.78103E-004	0.00000E+000	-2.07308E-005	-1.68088E-001	7.45578E-002	3.57880E+000	9	...........
	36	0.493333	7.05060E-002	-2.79022E-004	0.00000E+000	-1.96727E-005	-1.68088E-001	7.05146E-002	3.57880E+000	9	...........
	37	0.506667	6.65544E-002	-2.78976E-004	0.00000E+000	-1.85671E-005	-1.68088E-001	6.65653E-002	3.57880E+000	9	...........
	38	0.52	6.27057E-002	-2.79820E-004	0.00000E+000	-1.75463E-005	-1.68088E-001	6.27141E-002	3.57880E+000	9	...........
	39	0.533333	5.89857E-002	-2.78383E-004	0.00000E+000	-1.64206E-005	-1.68088E-001	5.89962E-002	3.57880E+000	9	...........
	40	0.546667	5.53516E-002	-2.79035E-004	0.00000E+000	-1.54451E-005	-1.68088E-001	5.53648E-002	3.57880E+000	9	...........
	41	0.56	5.17810E-002	-2.78971E-004	0.00000E+000	-1.44454E-005	-1.68088E-001	5.17912E-002	3.57880E+000	9	...........
	42	0.573333	4.83476E-002	-2.79052E-004	0.00000E+000	-1.34915E-005	-1.68088E-001	4.83503E-002	3.57880E+000	9	...........
	43	0.586667	4.49789E-002	-2.78962E-004	0.00000E+000	-1.25474E-005	-1.68088E-001	4.49894E-002	3.57880E+000	9	...........
	44	0.6	4.16551E-002	-2.78509E-004	0.00000E+000	-1.16013E-005	-1.68088E-001	4.16665E-002	3.57880E+000	9	...........
	45	0.613333	3.84260E-002	-2.78728E-004	0.00000E+000	-1.07104E-005	-1.68088E-001	3.84329E-002	3.57870E+000	9	...........
	46	0.626667	3.52560E-002	-2.78240E-004	0.00000E+000	-9.80963E-006	-1.68088E-001	3.52628E-002	3.57870E+000	9	...........
	47	0.64	3.21010E-002	-2.80040E-004	0.00000E+000	-8.98957E-006	-1.68088E-001	3.21038E-002	3.57870E+000	9	...........
	48	0.653333	2.90589E-002	-2.79369E-004	0.00000E+000	-8.11814E-006	-1.68088E-001	2.90544E-002	3.57870E+000	9	...........
	49	0.666667	2.60521E-002	-2.78662E-004	0.00000E+000	-7.25975E-006	-1.68088E-001	2.60528E-002	3.57870E+000	9	...........
	50	0.68	2.31124E-002	-2.78244E-004	0.00000E+000	-6.43086E-006	-1.68088E-001	2.31088E-002	3.57870E+000	9	...........
	51	0.693333	2.01999E-002	-2.78948E-004	0.00000E+000	-5.63473E-006	-1.68088E-001	2.01974E-002	3.57870E+000	9	...........
	52	0.706667	1.73532E-002	-2.78602E-004	0.00000E+000	-4.83465E-006	-1.68088E-001	1.73476E-002	3.57870E+000	9	...........
	53	0.72	1.45413E-002	-2.77693E-004	0.00000E+000	-4.03801E-006	-1.68088E-001	1.45359E-002	3.57870E+000	9	...........
	54	0.733333	1.17739E-002	-2.78765E-004	0.00000E+000	-3.28214E-006	-1.68088E-001	1.17625E-002	3.57870E+000	9	...........
	55	0.746667	9.08478E-003	-2.79278E-004	0.00000E+000	-2.53718E-006	-1.68088E-001	9.07149E-003	3.57870E+000	9	...........
	56	0.76	6.45096E-003	-2.77130E-004	0.00000E+000	-1.78775E-006	-1.68088E-001	6.44048E-003	3.57870E+000	9	...........
	57	0.773333	3.87087E-003	-2.78110E-004	0.00000E+000	-1.07653E-006	-1.68088E-001	3.85459E-003	3.57870E+000	9	...........
	58	0.786667	1.32631E-003	-2.78105E-004	0.00000E+000	-3.68855E-007	-1.68088E-001	1.30431E-003	3.57870E+000	9	...........
	59	0.788333	-9.90435E-005	-2.79981E-004	0.00000E+000	2.77303E-008	-1.68088E-001	-1.14119E-004	3.57870E+000	9	...........
STARTTIMEOFFSET	QUANT	1614.705	Start Time Offset (s)
