EXPLAIN
TAG	PWR800_DISCHARGE
TITLE	LABEL	PWR Cyclic Charge Discharge (Cell) - Discharge Step	Test &Identifier
DATE	LABEL	7-7-2017	Date
TIME	LABEL	16:04:58	Time
NOTES	NOTES	3	&Notes...
	supercap test cell
	2.8mg
	6M KOH
PSTAT	PSTAT	IFC5000-01520	Potentiostat
CAPACITY	QUANT	1.00000E-003	Capacity (A-hr)
CELLTYPE	SELECTOR	1	&Cell Type
WORKINGCONNECTION	SELECTOR	0	&Working Lead
MAXDISCHARGETIME	VARIABLEANDUNITS	1.00000E+002	s	1.00000E+002	second(s)	Max &Discharge Time
DISCHARGEMODE	MULTIPARAM	0	2.80000E-004	&Discharge Mode	Constant Current	Amp(s)
SAMPLETIME	QUANT	1.00000E-002	Sa&mple Period (s)
DISCHARGESTOPAT1	MULTIPARAM	3	0.00000E+000	Discharge Stop At &1	Voltage < Limit	V
DISCHARGESTOPAT2	MULTIPARAM	0	0.00000E+000	Discharge Stop At &2	None	N/A
AESBHCSELECTOR	TOGGLE	F	Save Both Half Cells
IRCOMP	TOGGLE	F	IR &Measure
EOC	QUANT	0	Open Circuit (V)
SEQUENCER	TOGGLE	TRUE	Run as Sequence
PSTATMODEL	IQUANT	53	Pstat Model
PSTATSECTION	LABEL	IFC5000-01520	Pstat Section
PSTATSERIALNO	LABEL	01520	Pstat Serial Number
CTRLMODE	IQUANT	0	Control Mode
ELECTROMETER	IQUANT	1	RE=0 or CS=1
IESTAB	IQUANT	0	I/E Stability
CASPEED	IQUANT	4	Control Amp Speed
CONVENTION	IQUANT	1	Current Convention
ICHRANGE	IQUANT	2	Ich Range
ICHRANGEMODE	TOGGLE	T	Ich Auto Range
ICHOFFSETENABLE	TOGGLE	F	Ich Offset Enable
ICHOFFSET	QUANT	0	Ich Offset (V)
ICHFILTER	IQUANT	1	Ich Filter
VCHRANGE	IQUANT	2	Vch Range
VCHRANGEMODE	TOGGLE	T	Vch Auto Range
VCHOFFSETENABLE	TOGGLE	F	Vch Offset Enable
VCHOFFSET	QUANT	0	Vch Offset (V)
VCHFILTER	IQUANT	1	Vch Filter
IERANGELOWERLIMIT	IQUANT	9	I/E Range Lower Limit
IERANGEMODE	TOGGLE	F	I/E AutoRange
IERANGE	IQUANT	9	I/E Range
ACHSELECT	IQUANT	1	Ach Select
ACHRANGE	IQUANT	2	Ach Range
ACHOFFSETENABLE	TOGGLE	F	Ach Offset Enable
ACHOFFSET	QUANT	0	Ach Offset (V)
ACHFILTER	IQUANT	1	Ach Filter
CABLEID	IQUANT	14	Cable ID
DCCALDATE	LABEL	5-7-2017	DC Calibration Date
ACCALDATE	LABEL	12/3/2015	AC Calibration Date
FRAMEWORKVERSION	QUANT	7.01	Framework Version
INSTRUMENTVERSION	LABEL	4.00	Instrument Version
CURVE	TABLE	65
	Pt	T	Vf	Im	Vu	Pwr	Sig	Ach	Temp	IERange	Over
	#	s	V	A	V	W	V	V	deg C	#	bits
	0	0.013333	5.28474E-001	-2.79496E-004	0.00000E+000	-1.47706E-004	-1.68088E-001	5.28727E-001	3.57880E+000	9	...........
	1	0.026667	4.95597E-001	-2.78411E-004	0.00000E+000	-1.37980E-004	-1.68088E-001	4.95849E-001	3.57880E+000	9	...........
	2	0.04	4.65826E-001	-2.78905E-004	0.00000E+000	-1.29921E-004	-1.68088E-001	4.65940E-001	3.57880E+000	9	...........
	3	0.053333	4.37910E-001	-2.79244E-004	0.00000E+000	-1.22284E-004	-1.68088E-001	4.38018E-001	3.57880E+000	9	...........
	4	0.066667	4.11898E-001	-2.79102E-004	0.00000E+000	-1.14962E-004	-1.68088E-001	4.11998E-001	3.57880E+000	9	...........
	5	0.08	3.87663E-001	-2.78051E-004	0.00000E+000	-1.07790E-004	-1.68088E-001	3.87757E-001	3.57880E+000	9	...........
	6	0.093333	3.65073E-001	-2.78334E-004	0.00000E+000	-1.01612E-004	-1.68088E-001	3.65155E-001	3.57880E+000	9	...........
	7	0.106667	3.44003E-001	-2.78182E-004	0.00000E+000	-9.56956E-005	-1.68088E-001	3.44089E-001	3.57880E+000	9	...........
	8	0.12	3.24391E-001	-2.78815E-004	0.00000E+000	-9.04450E-005	-1.68088E-001	3.24471E-001	3.57880E+000	9	...........
	9	0.133333	3.06154E-001	-2.78649E-004	0.00000E+000	-8.53094E-005	-1.68088E-001	3.06232E-001	3.57880E+000	9	...........
	10	0.146667	2.89216E-001	-2.78171E-004	0.00000E+000	-8.04513E-005	-1.68088E-001	2.89286E-001	3.57880E+000	9	...........
	11	0.16	2.73486E-001	-2.78282E-004	0.00000E+000	-7.61063E-005	-1.68088E-001	2.73559E-001	3.57880E+000	9	...........
	12	0.173333	2.58870E-001	-2.79263E-004	0.00000E+000	-7.22928E-005	-1.68088E-001	2.58936E-001	3.57880E+000	9	...........
	13	0.186667	2.45323E-001	-2.78463E-004	0.00000E+000	-6.83134E-005	-1.68088E-001	2.45383E-001	3.57880E+000	9	...........
	14	0.2	2.32702E-001	-2.79273E-004	0.00000E+000	-6.49875E-005	-1.68088E-001	2.32766E-001	3.57880E+000	9	...........
	15	0.213333	2.20982E-001	-2.79111E-004	0.00000E+000	-6.16785E-005	-1.68088E-001	2.21038E-001	3.57880E+000	9	...........
	16	0.226667	2.10068E-001	-2.77814E-004	0.00000E+000	-5.83600E-005	-1.68088E-001	2.10122E-001	3.57880E+000	9	...........
	17	0.24	1.99892E-001	-2.79233E-004	0.00000E+000	-5.58164E-005	-1.68088E-001	1.99941E-001	3.57880E+000	9	...........
	18	0.253333	1.90400E-001	-2.79657E-004	0.00000E+000	-5.32466E-005	-1.68088E-001	1.90446E-001	3.57880E+000	9	...........
	19	0.266667	1.81477E-001	-2.78210E-004	0.00000E+000	-5.04888E-005	-1.68088E-001	1.81524E-001	3.57880E+000	9	...........
	20	0.28	1.73097E-001	-2.79393E-004	0.00000E+000	-4.83621E-005	-1.68088E-001	1.73141E-001	3.57880E+000	9	...........
	21	0.293333	1.65189E-001	-2.79116E-004	0.00000E+000	-4.61069E-005	-1.68088E-001	1.65227E-001	3.57880E+000	9	...........
	22	0.306667	1.57756E-001	-2.79817E-004	0.00000E+000	-4.41427E-005	-1.68088E-001	1.57794E-001	3.57880E+000	9	...........
	23	0.32	1.50772E-001	-2.78987E-004	0.00000E+000	-4.20636E-005	-1.68088E-001	1.50808E-001	3.57880E+000	9	...........
	24	0.333333	1.44149E-001	-2.79231E-004	0.00000E+000	-4.02509E-005	-1.68088E-001	1.44183E-001	3.57880E+000	9	...........
	25	0.346667	1.37881E-001	-2.79551E-004	0.00000E+000	-3.85449E-005	-1.68088E-001	1.37917E-001	3.57880E+000	9	...........
	26	0.36	1.31911E-001	-2.79406E-004	0.00000E+000	-3.68567E-005	-1.68088E-001	1.31943E-001	3.57880E+000	9	...........
	27	0.373333	1.26253E-001	-2.78332E-004	0.00000E+000	-3.51404E-005	-1.68088E-001	1.26282E-001	3.57880E+000	9	...........
	28	0.386667	1.20811E-001	-2.79044E-004	0.00000E+000	-3.37116E-005	-1.68088E-001	1.20852E-001	3.57880E+000	9	...........
	29	0.4	1.15566E-001	-2.80330E-004	0.00000E+000	-3.23968E-005	-1.68088E-001	1.15595E-001	3.57880E+000	9	...........
	30	0.413333	1.10502E-001	-2.79974E-004	0.00000E+000	-3.09377E-005	-1.68088E-001	1.10542E-001	3.57880E+000	9	...........
	31	0.426667	1.05707E-001	-2.79051E-004	0.00000E+000	-2.94976E-005	-1.68088E-001	1.05739E-001	3.57757E+000	9	...........
	32	0.44	1.01060E-001	-2.78180E-004	0.00000E+000	-2.81130E-005	-1.68088E-001	1.01087E-001	3.57740E+000	9	...........
	33	0.453333	9.65729E-002	-2.79200E-004	0.00000E+000	-2.69632E-005	-1.68088E-001	9.66017E-002	3.57740E+000	9	...........
	34	0.466667	9.22152E-002	-2.79503E-004	0.00000E+000	-2.57744E-005	-1.68088E-001	9.22382E-002	3.57740E+000	9	...........
	35	0.48	8.79705E-002	-2.78867E-004	0.00000E+000	-2.45320E-005	-1.68088E-001	8.80006E-002	3.57740E+000	9	...........
	36	0.493333	8.38435E-002	-2.78210E-004	0.00000E+000	-2.33261E-005	-1.68088E-001	8.38704E-002	3.57740E+000	9	...........
	37	0.506667	7.98885E-002	-2.80189E-004	0.00000E+000	-2.23839E-005	-1.68088E-001	7.99045E-002	3.57740E+000	9	...........
	38	0.52	7.60558E-002	-2.78578E-004	0.00000E+000	-2.11875E-005	-1.68088E-001	7.60692E-002	3.57740E+000	9	...........
	39	0.533333	7.22843E-002	-2.79102E-004	0.00000E+000	-2.01747E-005	-1.68088E-001	7.23027E-002	3.57740E+000	9	...........
	40	0.546667	6.86388E-002	-2.79224E-004	0.00000E+000	-1.91656E-005	-1.68088E-001	6.86547E-002	3.57740E+000	9	...........
	41	0.56	6.50948E-002	-2.79348E-004	0.00000E+000	-1.81841E-005	-1.68088E-001	6.51078E-002	3.57740E+000	9	...........
	42	0.573333	6.16800E-002	-2.79966E-004	0.00000E+000	-1.72683E-005	-1.68088E-001	6.16949E-002	3.57740E+000	9	...........
	43	0.586667	5.83336E-002	-2.78729E-004	0.00000E+000	-1.62593E-005	-1.68088E-001	5.83482E-002	3.57740E+000	9	...........
	44	0.6	5.50489E-002	-2.79666E-004	0.00000E+000	-1.53953E-005	-1.68088E-001	5.50593E-002	3.57740E+000	9	...........
	45	0.613333	5.18130E-002	-2.79801E-004	0.00000E+000	-1.44973E-005	-1.68088E-001	5.18204E-002	3.57740E+000	9	...........
	46	0.626667	4.86389E-002	-2.80404E-004	0.00000E+000	-1.36386E-005	-1.68088E-001	4.86473E-002	3.57740E+000	9	...........
	47	0.64	4.55107E-002	-2.77759E-004	0.00000E+000	-1.26410E-005	-1.68088E-001	4.55256E-002	3.57740E+000	9	...........
	48	0.653333	4.24540E-002	-2.77523E-004	0.00000E+000	-1.17819E-005	-1.68088E-001	4.24621E-002	3.57740E+000	9	...........
	49	0.666667	3.94340E-002	-2.79050E-004	0.00000E+000	-1.10041E-005	-1.68088E-001	3.94447E-002	3.57740E+000	9	...........
	50	0.68	3.64593E-002	-2.80040E-004	0.00000E+000	-1.02101E-005	-1.68088E-001	3.64612E-002	3.57740E+000	9	...........
	51	0.693333	3.35953E-002	-2.78791E-004	0.00000E+000	-9.36605E-006	-1.68088E-001	3.36033E-002	3.57740E+000	9	...........
	52	0.706667	3.07306E-002	-2.78737E-004	0.00000E+000	-8.56576E-006	-1.68088E-001	3.07358E-002	3.57740E+000	9	...........
	53	0.72	2.79166E-002	-2.78843E-004	0.00000E+000	-7.78434E-006	-1.68088E-001	2.79199E-002	3.57740E+000	9	...........
	54	0.733333	2.51364E-002	-2.78829E-004	0.00000E+000	-7.00877E-006	-1.68088E-001	2.51387E-002	3.57740E+000	9	...........
	55	0.746667	2.23876E-002	-2.77874E-004	0.00000E+000	-6.22092E-006	-1.68088E-001	2.23815E-002	3.57740E+000	9	...........
	56	0.76	1.96902E-002	-2.80483E-004	0.00000E+000	-5.52277E-006	-1.68088E-001	1.96878E-002	3.57740E+000	9	...........
	57	0.773333	1.70649E-002	-2.79169E-004	0.00000E+000	-4.76399E-006	-1.68088E-001	1.70594E-002	3.57740E+000	9	...........
	58	0.786667	1.44796E-002	-2.78275E-004	0.00000E+000	-4.02931E-006	-1.68088E-001	1.44703E-002	3.57740E+000	9	...........
	59	0.8	1.18803E-002	-2.79374E-004	0.00000E+000	-3.31906E-006	-1.68088E-001	1.18730E-002	3.57740E+000	9	...........
	60	0.813333	9.28298E-003	-2.79068E-004	0.00000E+000	-2.59058E-006	-1.68088E-001	9.27605E-003	3.57740E+000	9	...........
	61	0.826667	6.75385E-003	-2.78626E-004	0.00000E+000	-1.88180E-006	-1.68088E-001	6.74402E-003	3.57740E+000	9	...........
	62	0.84	4.30282E-003	-2.77776E-004	0.00000E+000	-1.19522E-006	-1.68088E-001	4.28921E-003	3.57740E+000	9	...........
	63	0.853333	1.87504E-003	-2.79407E-004	0.00000E+000	-5.23901E-007	-1.68088E-001	1.86105E-003	3.57740E+000	9	...........
	64	0.858333	2.26515E-004	-2.78223E-004	0.00000E+000	-6.30217E-008	-1.68088E-001	2.12806E-004	3.57740E+000	9	...........
STARTTIMEOFFSET	QUANT	1317.681	Start Time Offset (s)
