EXPLAIN
TAG	PWR800_DISCHARGE
TITLE	LABEL	PWR Cyclic Charge Discharge (Cell) - Discharge Step	Test &Identifier
DATE	LABEL	7-7-2017	Date
TIME	LABEL	16:07:48	Time
NOTES	NOTES	3	&Notes...
	supercap test cell
	2.8mg
	6M KOH
PSTAT	PSTAT	IFC5000-01520	Potentiostat
CAPACITY	QUANT	1.00000E-003	Capacity (A-hr)
CELLTYPE	SELECTOR	1	&Cell Type
WORKINGCONNECTION	SELECTOR	0	&Working Lead
MAXDISCHARGETIME	VARIABLEANDUNITS	1.00000E+002	s	1.00000E+002	second(s)	Max &Discharge Time
DISCHARGEMODE	MULTIPARAM	0	2.80000E-004	&Discharge Mode	Constant Current	Amp(s)
SAMPLETIME	QUANT	1.00000E-002	Sa&mple Period (s)
DISCHARGESTOPAT1	MULTIPARAM	3	0.00000E+000	Discharge Stop At &1	Voltage < Limit	V
DISCHARGESTOPAT2	MULTIPARAM	0	0.00000E+000	Discharge Stop At &2	None	N/A
AESBHCSELECTOR	TOGGLE	F	Save Both Half Cells
IRCOMP	TOGGLE	F	IR &Measure
EOC	QUANT	0	Open Circuit (V)
SEQUENCER	TOGGLE	TRUE	Run as Sequence
PSTATMODEL	IQUANT	53	Pstat Model
PSTATSECTION	LABEL	IFC5000-01520	Pstat Section
PSTATSERIALNO	LABEL	01520	Pstat Serial Number
CTRLMODE	IQUANT	0	Control Mode
ELECTROMETER	IQUANT	1	RE=0 or CS=1
IESTAB	IQUANT	0	I/E Stability
CASPEED	IQUANT	4	Control Amp Speed
CONVENTION	IQUANT	1	Current Convention
ICHRANGE	IQUANT	2	Ich Range
ICHRANGEMODE	TOGGLE	T	Ich Auto Range
ICHOFFSETENABLE	TOGGLE	F	Ich Offset Enable
ICHOFFSET	QUANT	0	Ich Offset (V)
ICHFILTER	IQUANT	1	Ich Filter
VCHRANGE	IQUANT	2	Vch Range
VCHRANGEMODE	TOGGLE	T	Vch Auto Range
VCHOFFSETENABLE	TOGGLE	F	Vch Offset Enable
VCHOFFSET	QUANT	0	Vch Offset (V)
VCHFILTER	IQUANT	1	Vch Filter
IERANGELOWERLIMIT	IQUANT	9	I/E Range Lower Limit
IERANGEMODE	TOGGLE	F	I/E AutoRange
IERANGE	IQUANT	9	I/E Range
ACHSELECT	IQUANT	1	Ach Select
ACHRANGE	IQUANT	2	Ach Range
ACHOFFSETENABLE	TOGGLE	F	Ach Offset Enable
ACHOFFSET	QUANT	0	Ach Offset (V)
ACHFILTER	IQUANT	1	Ach Filter
CABLEID	IQUANT	14	Cable ID
DCCALDATE	LABEL	5-7-2017	DC Calibration Date
ACCALDATE	LABEL	12/3/2015	AC Calibration Date
FRAMEWORKVERSION	QUANT	7.01	Framework Version
INSTRUMENTVERSION	LABEL	4.00	Instrument Version
CURVE	TABLE	63
	Pt	T	Vf	Im	Vu	Pwr	Sig	Ach	Temp	IERange	Over
	#	s	V	A	V	W	V	V	deg C	#	bits
	0	0.013333	5.25089E-001	-2.77928E-004	0.00000E+000	-1.45937E-004	-1.68088E-001	5.25305E-001	3.57880E+000	9	...........
	1	0.026667	4.92056E-001	-2.77698E-004	0.00000E+000	-1.36643E-004	-1.68088E-001	4.92293E-001	3.57880E+000	9	...........
	2	0.04	4.62077E-001	-2.78071E-004	0.00000E+000	-1.28490E-004	-1.68088E-001	4.62189E-001	3.57880E+000	9	...........
	3	0.053333	4.34028E-001	-2.77883E-004	0.00000E+000	-1.20609E-004	-1.68088E-001	4.34134E-001	3.57880E+000	9	...........
	4	0.066667	4.07912E-001	-2.78306E-004	0.00000E+000	-1.13524E-004	-1.68088E-001	4.08005E-001	3.57880E+000	9	...........
	5	0.08	3.83539E-001	-2.78502E-004	0.00000E+000	-1.06816E-004	-1.68088E-001	3.83628E-001	3.57880E+000	9	...........
	6	0.093333	3.60835E-001	-2.78437E-004	0.00000E+000	-1.00470E-004	-1.68088E-001	3.60913E-001	3.57880E+000	9	...........
	7	0.106667	3.39656E-001	-2.79288E-004	0.00000E+000	-9.48617E-005	-1.68088E-001	3.39734E-001	3.57880E+000	9	...........
	8	0.12	3.19980E-001	-2.78278E-004	0.00000E+000	-8.90434E-005	-1.68088E-001	3.20054E-001	3.57880E+000	9	...........
	9	0.133333	3.01674E-001	-2.78288E-004	0.00000E+000	-8.39523E-005	-1.68088E-001	3.01743E-001	3.57880E+000	9	...........
	10	0.146667	2.84673E-001	-2.77828E-004	0.00000E+000	-7.90900E-005	-1.68088E-001	2.84742E-001	3.57880E+000	9	...........
	11	0.16	2.68856E-001	-2.80276E-004	0.00000E+000	-7.53540E-005	-1.68088E-001	2.68924E-001	3.57880E+000	9	...........
	12	0.173333	2.54157E-001	-2.79230E-004	0.00000E+000	-7.09684E-005	-1.68088E-001	2.54223E-001	3.57880E+000	9	...........
	13	0.186667	2.40532E-001	-2.77928E-004	0.00000E+000	-6.68504E-005	-1.68088E-001	2.40595E-001	3.57880E+000	9	...........
	14	0.2	2.27881E-001	-2.79774E-004	0.00000E+000	-6.37552E-005	-1.68088E-001	2.27939E-001	3.57880E+000	9	...........
	15	0.213333	2.16132E-001	-2.79157E-004	0.00000E+000	-6.03350E-005	-1.68088E-001	2.16178E-001	3.57880E+000	9	...........
	16	0.226667	2.05163E-001	-2.79469E-004	0.00000E+000	-5.73366E-005	-1.68088E-001	2.05213E-001	3.57880E+000	9	...........
	17	0.24	1.94968E-001	-2.78263E-004	0.00000E+000	-5.42523E-005	-1.68088E-001	1.95014E-001	3.57880E+000	9	...........
	18	0.253333	1.85475E-001	-2.78488E-004	0.00000E+000	-5.16526E-005	-1.68088E-001	1.85521E-001	3.57880E+000	9	...........
	19	0.266667	1.76526E-001	-2.79217E-004	0.00000E+000	-4.92891E-005	-1.68088E-001	1.76573E-001	3.57880E+000	9	...........
	20	0.28	1.68105E-001	-2.78973E-004	0.00000E+000	-4.68967E-005	-1.68088E-001	1.68154E-001	3.57880E+000	9	...........
	21	0.293333	1.60172E-001	-2.78842E-004	0.00000E+000	-4.46627E-005	-1.68088E-001	1.60215E-001	3.57880E+000	9	...........
	22	0.306667	1.52752E-001	-2.79106E-004	0.00000E+000	-4.26339E-005	-1.68088E-001	1.52788E-001	3.57880E+000	9	...........
	23	0.32	1.45729E-001	-2.78847E-004	0.00000E+000	-4.06362E-005	-1.68088E-001	1.45766E-001	3.57880E+000	9	...........
	24	0.333333	1.39034E-001	-2.80009E-004	0.00000E+000	-3.89306E-005	-1.68088E-001	1.39075E-001	3.57880E+000	9	...........
	25	0.346667	1.32725E-001	-2.77978E-004	0.00000E+000	-3.68946E-005	-1.68088E-001	1.32757E-001	3.57880E+000	9	...........
	26	0.36	1.26689E-001	-2.80021E-004	0.00000E+000	-3.54755E-005	-1.68088E-001	1.26725E-001	3.57880E+000	9	...........
	27	0.373333	1.20970E-001	-2.78936E-004	0.00000E+000	-3.37429E-005	-1.68088E-001	1.21004E-001	3.57880E+000	9	...........
	28	0.386667	1.15489E-001	-2.78129E-004	0.00000E+000	-3.21207E-005	-1.68088E-001	1.15528E-001	3.57880E+000	9	...........
	29	0.4	1.10312E-001	-2.78407E-004	0.00000E+000	-3.07116E-005	-1.68088E-001	1.10350E-001	3.57880E+000	9	...........
	30	0.413333	1.05299E-001	-2.77816E-004	0.00000E+000	-2.92537E-005	-1.68088E-001	1.05334E-001	3.57880E+000	9	...........
	31	0.426667	1.00424E-001	-2.79088E-004	0.00000E+000	-2.80271E-005	-1.68088E-001	1.00460E-001	3.57749E+000	9	...........
	32	0.44	9.57784E-002	-2.78932E-004	0.00000E+000	-2.67157E-005	-1.68088E-001	9.58081E-002	3.57730E+000	9	...........
	33	0.453333	9.12807E-002	-2.78372E-004	0.00000E+000	-2.54100E-005	-1.68088E-001	9.13089E-002	3.57730E+000	9	...........
	34	0.466667	8.69215E-002	-2.79626E-004	0.00000E+000	-2.43055E-005	-1.68088E-001	8.69485E-002	3.57730E+000	9	...........
	35	0.48	8.27570E-002	-2.79481E-004	0.00000E+000	-2.31290E-005	-1.68088E-001	8.27816E-002	3.57730E+000	9	...........
	36	0.493333	7.87249E-002	-2.77938E-004	0.00000E+000	-2.18807E-005	-1.68088E-001	7.87490E-002	3.57730E+000	9	...........
	37	0.506667	7.47351E-002	-2.77873E-004	0.00000E+000	-2.07668E-005	-1.68088E-001	7.47482E-002	3.57730E+000	9	...........
	38	0.52	7.08766E-002	-2.80056E-004	0.00000E+000	-1.98494E-005	-1.68088E-001	7.08897E-002	3.57730E+000	9	...........
	39	0.533333	6.71721E-002	-2.79613E-004	0.00000E+000	-1.87822E-005	-1.68088E-001	6.71824E-002	3.57730E+000	9	...........
	40	0.546667	6.35403E-002	-2.78937E-004	0.00000E+000	-1.77238E-005	-1.68088E-001	6.35522E-002	3.57730E+000	9	...........
	41	0.56	5.99676E-002	-2.78965E-004	0.00000E+000	-1.67288E-005	-1.68088E-001	5.99790E-002	3.57730E+000	9	...........
	42	0.573333	5.64899E-002	-2.78654E-004	0.00000E+000	-1.57411E-005	-1.68088E-001	5.64968E-002	3.57730E+000	9	...........
	43	0.586667	5.31259E-002	-2.77796E-004	0.00000E+000	-1.47581E-005	-1.68088E-001	5.31318E-002	3.57730E+000	9	...........
	44	0.6	4.98328E-002	-2.78431E-004	0.00000E+000	-1.38750E-005	-1.68088E-001	4.98392E-002	3.57730E+000	9	...........
	45	0.613333	4.66483E-002	-2.78731E-004	0.00000E+000	-1.30023E-005	-1.68088E-001	4.66629E-002	3.57730E+000	9	...........
	46	0.626667	4.35065E-002	-2.79261E-004	0.00000E+000	-1.21497E-005	-1.68088E-001	4.35160E-002	3.57730E+000	9	...........
	47	0.64	4.04100E-002	-2.77777E-004	0.00000E+000	-1.12250E-005	-1.68088E-001	4.04148E-002	3.57730E+000	9	...........
	48	0.653333	3.73366E-002	-2.78679E-004	0.00000E+000	-1.04049E-005	-1.68088E-001	3.73470E-002	3.57730E+000	9	...........
	49	0.666667	3.42864E-002	-2.79017E-004	0.00000E+000	-9.56647E-006	-1.68088E-001	3.42943E-002	3.57730E+000	9	...........
	50	0.68	3.13416E-002	-2.78826E-004	0.00000E+000	-8.73885E-006	-1.68088E-001	3.13460E-002	3.57730E+000	9	...........
	51	0.693333	2.84602E-002	-2.78145E-004	0.00000E+000	-7.91606E-006	-1.68088E-001	2.84634E-002	3.57730E+000	9	...........
	52	0.706667	2.56305E-002	-2.79683E-004	0.00000E+000	-7.16844E-006	-1.68088E-001	2.56260E-002	3.57730E+000	9	...........
	53	0.72	2.28523E-002	-2.78576E-004	0.00000E+000	-6.36610E-006	-1.68088E-001	2.28491E-002	3.57730E+000	9	...........
	54	0.733333	2.00922E-002	-2.79309E-004	0.00000E+000	-5.61195E-006	-1.68088E-001	2.00890E-002	3.57730E+000	9	...........
	55	0.746667	1.74062E-002	-2.78758E-004	0.00000E+000	-4.85214E-006	-1.68088E-001	1.73993E-002	3.57730E+000	9	...........
	56	0.76	1.47081E-002	-2.78660E-004	0.00000E+000	-4.09856E-006	-1.68088E-001	1.47008E-002	3.57730E+000	9	...........
	57	0.773333	1.20607E-002	-2.77872E-004	0.00000E+000	-3.35134E-006	-1.68088E-001	1.20523E-002	3.57730E+000	9	...........
	58	0.786667	9.45275E-003	-2.78314E-004	0.00000E+000	-2.63084E-006	-1.68088E-001	9.44291E-003	3.57730E+000	9	...........
	59	0.8	6.83474E-003	-2.79706E-004	0.00000E+000	-1.91172E-006	-1.68088E-001	6.82414E-003	3.57730E+000	9	...........
	60	0.813333	4.25666E-003	-2.77851E-004	0.00000E+000	-1.18272E-006	-1.68088E-001	4.24142E-003	3.57730E+000	9	...........
	61	0.826667	1.71163E-003	-2.78345E-004	0.00000E+000	-4.76422E-007	-1.68088E-001	1.69269E-003	3.57730E+000	9	...........
	62	0.83	1.51232E-004	-2.78944E-004	0.00000E+000	-4.21853E-008	-1.68088E-001	1.42162E-004	3.57730E+000	9	...........
STARTTIMEOFFSET	QUANT	1434.962	Start Time Offset (s)
