EXPLAIN
TAG	PWR800_DISCHARGE
TITLE	LABEL	PWR Cyclic Charge Discharge (Cell) - Discharge Step	Test &Identifier
DATE	LABEL	7-7-2017	Date
TIME	LABEL	16:17:37	Time
NOTES	NOTES	3	&Notes...
	supercap test cell
	2.8mg
	6M KOH
PSTAT	PSTAT	IFC5000-01520	Potentiostat
CAPACITY	QUANT	1.00000E-003	Capacity (A-hr)
CELLTYPE	SELECTOR	1	&Cell Type
WORKINGCONNECTION	SELECTOR	0	&Working Lead
MAXDISCHARGETIME	VARIABLEANDUNITS	1.00000E+002	s	1.00000E+002	second(s)	Max &Discharge Time
DISCHARGEMODE	MULTIPARAM	0	2.80000E-004	&Discharge Mode	Constant Current	Amp(s)
SAMPLETIME	QUANT	1.00000E-002	Sa&mple Period (s)
DISCHARGESTOPAT1	MULTIPARAM	3	0.00000E+000	Discharge Stop At &1	Voltage < Limit	V
DISCHARGESTOPAT2	MULTIPARAM	0	0.00000E+000	Discharge Stop At &2	None	N/A
AESBHCSELECTOR	TOGGLE	F	Save Both Half Cells
IRCOMP	TOGGLE	F	IR &Measure
EOC	QUANT	0	Open Circuit (V)
SEQUENCER	TOGGLE	TRUE	Run as Sequence
PSTATMODEL	IQUANT	53	Pstat Model
PSTATSECTION	LABEL	IFC5000-01520	Pstat Section
PSTATSERIALNO	LABEL	01520	Pstat Serial Number
CTRLMODE	IQUANT	0	Control Mode
ELECTROMETER	IQUANT	1	RE=0 or CS=1
IESTAB	IQUANT	0	I/E Stability
CASPEED	IQUANT	4	Control Amp Speed
CONVENTION	IQUANT	1	Current Convention
ICHRANGE	IQUANT	2	Ich Range
ICHRANGEMODE	TOGGLE	T	Ich Auto Range
ICHOFFSETENABLE	TOGGLE	F	Ich Offset Enable
ICHOFFSET	QUANT	0	Ich Offset (V)
ICHFILTER	IQUANT	1	Ich Filter
VCHRANGE	IQUANT	2	Vch Range
VCHRANGEMODE	TOGGLE	T	Vch Auto Range
VCHOFFSETENABLE	TOGGLE	F	Vch Offset Enable
VCHOFFSET	QUANT	0	Vch Offset (V)
VCHFILTER	IQUANT	1	Vch Filter
IERANGELOWERLIMIT	IQUANT	9	I/E Range Lower Limit
IERANGEMODE	TOGGLE	F	I/E AutoRange
IERANGE	IQUANT	9	I/E Range
ACHSELECT	IQUANT	1	Ach Select
ACHRANGE	IQUANT	2	Ach Range
ACHOFFSETENABLE	TOGGLE	F	Ach Offset Enable
ACHOFFSET	QUANT	0	Ach Offset (V)
ACHFILTER	IQUANT	1	Ach Filter
CABLEID	IQUANT	14	Cable ID
DCCALDATE	LABEL	5-7-2017	DC Calibration Date
ACCALDATE	LABEL	12/3/2015	AC Calibration Date
FRAMEWORKVERSION	QUANT	7.01	Framework Version
INSTRUMENTVERSION	LABEL	4.00	Instrument Version
CURVE	TABLE	55
	Pt	T	Vf	Im	Vu	Pwr	Sig	Ach	Temp	IERange	Over
	#	s	V	A	V	W	V	V	deg C	#	bits
	0	0.013333	5.16681E-001	-2.78202E-004	0.00000E+000	-1.43742E-004	-1.68088E-001	5.16924E-001	3.57880E+000	9	...........
	1	0.026667	4.83175E-001	-2.79168E-004	0.00000E+000	-1.34887E-004	-1.68088E-001	4.83342E-001	3.57880E+000	9	...........
	2	0.04	4.52402E-001	-2.78295E-004	0.00000E+000	-1.25901E-004	-1.68088E-001	4.52510E-001	3.57880E+000	9	...........
	3	0.053333	4.23684E-001	-2.78379E-004	0.00000E+000	-1.17945E-004	-1.68088E-001	4.23780E-001	3.57880E+000	9	...........
	4	0.066667	3.96876E-001	-2.77900E-004	0.00000E+000	-1.10292E-004	-1.68088E-001	3.96964E-001	3.57880E+000	9	...........
	5	0.08	3.71800E-001	-2.79655E-004	0.00000E+000	-1.03976E-004	-1.68088E-001	3.71881E-001	3.57880E+000	9	...........
	6	0.093333	3.48377E-001	-2.78121E-004	0.00000E+000	-9.68910E-005	-1.68088E-001	3.48452E-001	3.57880E+000	9	...........
	7	0.106667	3.26542E-001	-2.79341E-004	0.00000E+000	-9.12163E-005	-1.68088E-001	3.26618E-001	3.57880E+000	9	...........
	8	0.12	3.06197E-001	-2.79832E-004	0.00000E+000	-8.56839E-005	-1.68088E-001	3.06264E-001	3.57880E+000	9	...........
	9	0.133333	2.87297E-001	-2.78908E-004	0.00000E+000	-8.01294E-005	-1.68088E-001	2.87363E-001	3.57880E+000	9	...........
	10	0.146667	2.69741E-001	-2.78563E-004	0.00000E+000	-7.51401E-005	-1.68088E-001	2.69804E-001	3.57880E+000	9	...........
	11	0.16	2.53449E-001	-2.78641E-004	0.00000E+000	-7.06211E-005	-1.68088E-001	2.53514E-001	3.57880E+000	9	...........
	12	0.173333	2.38315E-001	-2.77924E-004	0.00000E+000	-6.62334E-005	-1.68088E-001	2.38364E-001	3.57880E+000	9	...........
	13	0.186667	2.24262E-001	-2.78385E-004	0.00000E+000	-6.24312E-005	-1.68088E-001	2.24309E-001	3.57880E+000	9	...........
	14	0.2	2.11222E-001	-2.79611E-004	0.00000E+000	-5.90598E-005	-1.68088E-001	2.11270E-001	3.57880E+000	9	...........
	15	0.213333	1.99064E-001	-2.79341E-004	0.00000E+000	-5.56066E-005	-1.68088E-001	1.99120E-001	3.57880E+000	9	...........
	16	0.226667	1.87781E-001	-2.79639E-004	0.00000E+000	-5.25109E-005	-1.68088E-001	1.87826E-001	3.57880E+000	9	...........
	17	0.24	1.77210E-001	-2.80052E-004	0.00000E+000	-4.96282E-005	-1.68088E-001	1.77254E-001	3.57880E+000	9	...........
	18	0.253333	1.67364E-001	-2.77881E-004	0.00000E+000	-4.65072E-005	-1.68088E-001	1.67405E-001	3.57880E+000	9	...........
	19	0.266667	1.58150E-001	-2.79014E-004	0.00000E+000	-4.41261E-005	-1.68088E-001	1.58182E-001	3.57880E+000	9	...........
	20	0.28	1.49537E-001	-2.77410E-004	0.00000E+000	-4.14832E-005	-1.68088E-001	1.49565E-001	3.57880E+000	9	...........
	21	0.293333	1.41442E-001	-2.78697E-004	0.00000E+000	-3.94194E-005	-1.68088E-001	1.41470E-001	3.57880E+000	9	...........
	22	0.306667	1.33834E-001	-2.78504E-004	0.00000E+000	-3.72734E-005	-1.68088E-001	1.33862E-001	3.57880E+000	9	...........
	23	0.32	1.26669E-001	-2.79600E-004	0.00000E+000	-3.54168E-005	-1.68088E-001	1.26694E-001	3.57880E+000	9	...........
	24	0.333333	1.19875E-001	-2.78855E-004	0.00000E+000	-3.34277E-005	-1.68088E-001	1.19902E-001	3.57880E+000	9	...........
	25	0.346667	1.13472E-001	-2.78751E-004	0.00000E+000	-3.16304E-005	-1.68088E-001	1.13498E-001	3.57880E+000	9	...........
	26	0.36	1.07390E-001	-2.77738E-004	0.00000E+000	-2.98263E-005	-1.68088E-001	1.07416E-001	3.57880E+000	9	...........
	27	0.373333	1.01576E-001	-2.79302E-004	0.00000E+000	-2.83703E-005	-1.68088E-001	1.01599E-001	3.57880E+000	9	...........
	28	0.386667	9.60656E-002	-2.78827E-004	0.00000E+000	-2.67857E-005	-1.68088E-001	9.60865E-002	3.57880E+000	9	...........
	29	0.4	9.07810E-002	-2.80017E-004	0.00000E+000	-2.54202E-005	-1.68088E-001	9.08025E-002	3.57880E+000	9	...........
	30	0.413333	8.56766E-002	-2.80093E-004	0.00000E+000	-2.39974E-005	-1.68088E-001	8.56954E-002	3.57880E+000	9	...........
	31	0.426667	8.07658E-002	-2.79043E-004	0.00000E+000	-2.25371E-005	-1.68088E-001	8.07795E-002	3.57880E+000	9	...........
	32	0.44	7.60590E-002	-2.78363E-004	0.00000E+000	-2.11720E-005	-1.68088E-001	7.60719E-002	3.57880E+000	9	...........
	33	0.453333	7.15292E-002	-2.79389E-004	0.00000E+000	-1.99844E-005	-1.68088E-001	7.15376E-002	3.57880E+000	9	...........
	34	0.466667	6.71727E-002	-2.79963E-004	0.00000E+000	-1.88059E-005	-1.68088E-001	6.71816E-002	3.57730E+000	9	...........
	35	0.48	6.30617E-002	-2.79466E-004	0.00000E+000	-1.76236E-005	-1.68088E-001	6.30647E-002	3.57730E+000	9	...........
	36	0.493333	5.90664E-002	-2.78365E-004	0.00000E+000	-1.64420E-005	-1.68088E-001	5.90715E-002	3.57730E+000	9	...........
	37	0.506667	5.51201E-002	-2.78886E-004	0.00000E+000	-1.53722E-005	-1.68088E-001	5.51257E-002	3.57730E+000	9	...........
	38	0.52	5.12973E-002	-2.77997E-004	0.00000E+000	-1.42605E-005	-1.68088E-001	5.13067E-002	3.57730E+000	9	...........
	39	0.533333	4.75721E-002	-2.79624E-004	0.00000E+000	-1.33023E-005	-1.68088E-001	4.75732E-002	3.57730E+000	9	...........
	40	0.546667	4.39015E-002	-2.78491E-004	0.00000E+000	-1.22261E-005	-1.68088E-001	4.39117E-002	3.57730E+000	9	...........
	41	0.56	4.03458E-002	-2.77316E-004	0.00000E+000	-1.11885E-005	-1.68088E-001	4.03530E-002	3.57730E+000	9	...........
	42	0.573333	3.68886E-002	-2.79055E-004	0.00000E+000	-1.02940E-005	-1.68088E-001	3.68917E-002	3.57730E+000	9	...........
	43	0.586667	3.35338E-002	-2.79318E-004	0.00000E+000	-9.36657E-006	-1.68088E-001	3.35323E-002	3.57730E+000	9	...........
	44	0.6	3.02302E-002	-2.79400E-004	0.00000E+000	-8.44632E-006	-1.68088E-001	3.02269E-002	3.57730E+000	9	...........
	45	0.613333	2.69376E-002	-2.77360E-004	0.00000E+000	-7.47142E-006	-1.68088E-001	2.69425E-002	3.57730E+000	9	...........
	46	0.626667	2.37366E-002	-2.79961E-004	0.00000E+000	-6.64531E-006	-1.68088E-001	2.37328E-002	3.57730E+000	9	...........
	47	0.64	2.06574E-002	-2.78907E-004	0.00000E+000	-5.76149E-006	-1.68088E-001	2.06472E-002	3.57730E+000	9	...........
	48	0.653333	1.76210E-002	-2.79612E-004	0.00000E+000	-4.92703E-006	-1.68088E-001	1.76125E-002	3.57730E+000	9	...........
	49	0.666667	1.46347E-002	-2.77749E-004	0.00000E+000	-4.06477E-006	-1.68088E-001	1.46225E-002	3.57730E+000	9	...........
	50	0.68	1.16513E-002	-2.79186E-004	0.00000E+000	-3.25288E-006	-1.68088E-001	1.16402E-002	3.57730E+000	9	...........
	51	0.693333	8.74042E-003	-2.79573E-004	0.00000E+000	-2.44359E-006	-1.68088E-001	8.72307E-003	3.57730E+000	9	...........
	52	0.706667	5.87796E-003	-2.79640E-004	0.00000E+000	-1.64371E-006	-1.68088E-001	5.86067E-003	3.57730E+000	9	...........
	53	0.72	3.07415E-003	-2.77840E-004	0.00000E+000	-8.54124E-007	-1.68088E-001	3.05823E-003	3.57730E+000	9	...........
	54	0.73	6.07468E-004	-2.78608E-004	0.00000E+000	-1.69245E-007	-1.68088E-001	5.90436E-004	3.57730E+000	9	...........
STARTTIMEOFFSET	QUANT	1829.354	Start Time Offset (s)
