EXPLAIN
TAG	PWR800_DISCHARGE
TITLE	LABEL	PWR Cyclic Charge Discharge (Cell) - Discharge Step	Test &Identifier
DATE	LABEL	7-7-2017	Date
TIME	LABEL	16:19:15	Time
NOTES	NOTES	3	&Notes...
	supercap test cell
	2.8mg
	6M KOH
PSTAT	PSTAT	IFC5000-01520	Potentiostat
CAPACITY	QUANT	1.00000E-003	Capacity (A-hr)
CELLTYPE	SELECTOR	1	&Cell Type
WORKINGCONNECTION	SELECTOR	0	&Working Lead
MAXDISCHARGETIME	VARIABLEANDUNITS	1.00000E+002	s	1.00000E+002	second(s)	Max &Discharge Time
DISCHARGEMODE	MULTIPARAM	0	2.80000E-004	&Discharge Mode	Constant Current	Amp(s)
SAMPLETIME	QUANT	1.00000E-002	Sa&mple Period (s)
DISCHARGESTOPAT1	MULTIPARAM	3	0.00000E+000	Discharge Stop At &1	Voltage < Limit	V
DISCHARGESTOPAT2	MULTIPARAM	0	0.00000E+000	Discharge Stop At &2	None	N/A
AESBHCSELECTOR	TOGGLE	F	Save Both Half Cells
IRCOMP	TOGGLE	F	IR &Measure
EOC	QUANT	0	Open Circuit (V)
SEQUENCER	TOGGLE	TRUE	Run as Sequence
PSTATMODEL	IQUANT	53	Pstat Model
PSTATSECTION	LABEL	IFC5000-01520	Pstat Section
PSTATSERIALNO	LABEL	01520	Pstat Serial Number
CTRLMODE	IQUANT	0	Control Mode
ELECTROMETER	IQUANT	1	RE=0 or CS=1
IESTAB	IQUANT	0	I/E Stability
CASPEED	IQUANT	4	Control Amp Speed
CONVENTION	IQUANT	1	Current Convention
ICHRANGE	IQUANT	2	Ich Range
ICHRANGEMODE	TOGGLE	T	Ich Auto Range
ICHOFFSETENABLE	TOGGLE	F	Ich Offset Enable
ICHOFFSET	QUANT	0	Ich Offset (V)
ICHFILTER	IQUANT	1	Ich Filter
VCHRANGE	IQUANT	2	Vch Range
VCHRANGEMODE	TOGGLE	T	Vch Auto Range
VCHOFFSETENABLE	TOGGLE	F	Vch Offset Enable
VCHOFFSET	QUANT	0	Vch Offset (V)
VCHFILTER	IQUANT	1	Vch Filter
IERANGELOWERLIMIT	IQUANT	9	I/E Range Lower Limit
IERANGEMODE	TOGGLE	F	I/E AutoRange
IERANGE	IQUANT	9	I/E Range
ACHSELECT	IQUANT	1	Ach Select
ACHRANGE	IQUANT	2	Ach Range
ACHOFFSETENABLE	TOGGLE	F	Ach Offset Enable
ACHOFFSET	QUANT	0	Ach Offset (V)
ACHFILTER	IQUANT	1	Ach Filter
CABLEID	IQUANT	14	Cable ID
DCCALDATE	LABEL	5-7-2017	DC Calibration Date
ACCALDATE	LABEL	12/3/2015	AC Calibration Date
FRAMEWORKVERSION	QUANT	7.01	Framework Version
INSTRUMENTVERSION	LABEL	4.00	Instrument Version
CURVE	TABLE	54
	Pt	T	Vf	Im	Vu	Pwr	Sig	Ach	Temp	IERange	Over
	#	s	V	A	V	W	V	V	deg C	#	bits
	0	0.013333	5.21169E-001	-2.79277E-004	0.00000E+000	-1.45551E-004	-1.68088E-001	5.21405E-001	3.57880E+000	9	...........
	1	0.026667	4.87331E-001	-2.78577E-004	0.00000E+000	-1.35759E-004	-1.68088E-001	4.87509E-001	3.57880E+000	9	...........
	2	0.04	4.56313E-001	-2.79368E-004	0.00000E+000	-1.27479E-004	-1.68088E-001	4.56422E-001	3.57880E+000	9	...........
	3	0.053333	4.27276E-001	-2.78740E-004	0.00000E+000	-1.19099E-004	-1.68088E-001	4.27377E-001	3.57880E+000	9	...........
	4	0.066667	4.00132E-001	-2.77812E-004	0.00000E+000	-1.11161E-004	-1.68088E-001	4.00218E-001	3.57880E+000	9	...........
	5	0.08	3.74720E-001	-2.77967E-004	0.00000E+000	-1.04160E-004	-1.68088E-001	3.74804E-001	3.57880E+000	9	...........
	6	0.093333	3.50943E-001	-2.80358E-004	0.00000E+000	-9.83895E-005	-1.68088E-001	3.51019E-001	3.57880E+000	9	...........
	7	0.106667	3.28736E-001	-2.79183E-004	0.00000E+000	-9.17777E-005	-1.68088E-001	3.28813E-001	3.57880E+000	9	...........
	8	0.12	3.08063E-001	-2.78817E-004	0.00000E+000	-8.58931E-005	-1.68088E-001	3.08134E-001	3.57880E+000	9	...........
	9	0.133333	2.88849E-001	-2.78996E-004	0.00000E+000	-8.05876E-005	-1.68088E-001	2.88915E-001	3.57880E+000	9	...........
	10	0.146667	2.70975E-001	-2.79710E-004	0.00000E+000	-7.57943E-005	-1.68088E-001	2.71034E-001	3.57880E+000	9	...........
	11	0.16	2.54367E-001	-2.77477E-004	0.00000E+000	-7.05808E-005	-1.68088E-001	2.54420E-001	3.57880E+000	9	...........
	12	0.173333	2.38939E-001	-2.79047E-004	0.00000E+000	-6.66752E-005	-1.68088E-001	2.38989E-001	3.57880E+000	9	...........
	13	0.186667	2.24648E-001	-2.79057E-004	0.00000E+000	-6.26897E-005	-1.68088E-001	2.24698E-001	3.57880E+000	9	...........
	14	0.2	2.11383E-001	-2.78652E-004	0.00000E+000	-5.89023E-005	-1.68088E-001	2.11428E-001	3.57880E+000	9	...........
	15	0.213333	1.99055E-001	-2.78481E-004	0.00000E+000	-5.54331E-005	-1.68088E-001	1.99098E-001	3.57880E+000	9	...........
	16	0.226667	1.87566E-001	-2.80318E-004	0.00000E+000	-5.25783E-005	-1.68088E-001	1.87609E-001	3.57880E+000	9	...........
	17	0.24	1.76906E-001	-2.79065E-004	0.00000E+000	-4.93683E-005	-1.68088E-001	1.76944E-001	3.57880E+000	9	...........
	18	0.253333	1.66926E-001	-2.79419E-004	0.00000E+000	-4.66423E-005	-1.68088E-001	1.66963E-001	3.57880E+000	9	...........
	19	0.266667	1.57626E-001	-2.79270E-004	0.00000E+000	-4.40203E-005	-1.68088E-001	1.57657E-001	3.57880E+000	9	...........
	20	0.28	1.48884E-001	-2.78472E-004	0.00000E+000	-4.14600E-005	-1.68088E-001	1.48913E-001	3.57880E+000	9	...........
	21	0.293333	1.40707E-001	-2.79419E-004	0.00000E+000	-3.93161E-005	-1.68088E-001	1.40734E-001	3.57880E+000	9	...........
	22	0.306667	1.32992E-001	-2.79855E-004	0.00000E+000	-3.72185E-005	-1.68088E-001	1.33015E-001	3.57880E+000	9	...........
	23	0.32	1.25719E-001	-2.78678E-004	0.00000E+000	-3.50350E-005	-1.68088E-001	1.25741E-001	3.57880E+000	9	...........
	24	0.333333	1.18847E-001	-2.79220E-004	0.00000E+000	-3.31843E-005	-1.68088E-001	1.18870E-001	3.57880E+000	9	...........
	25	0.346667	1.12377E-001	-2.79752E-004	0.00000E+000	-3.14378E-005	-1.68088E-001	1.12397E-001	3.57880E+000	9	...........
	26	0.36	1.06236E-001	-2.77839E-004	0.00000E+000	-2.95164E-005	-1.68088E-001	1.06260E-001	3.57880E+000	9	...........
	27	0.373333	1.00404E-001	-2.79481E-004	0.00000E+000	-2.80612E-005	-1.68088E-001	1.00425E-001	3.57880E+000	9	...........
	28	0.386667	9.48474E-002	-2.78526E-004	0.00000E+000	-2.64175E-005	-1.68088E-001	9.48707E-002	3.57880E+000	9	...........
	29	0.4	8.95128E-002	-2.78113E-004	0.00000E+000	-2.48947E-005	-1.68088E-001	8.95342E-002	3.57880E+000	9	...........
	30	0.413333	8.43606E-002	-2.78567E-004	0.00000E+000	-2.35000E-005	-1.68088E-001	8.43805E-002	3.57880E+000	9	...........
	31	0.426667	7.94287E-002	-2.80277E-004	0.00000E+000	-2.22621E-005	-1.68088E-001	7.94400E-002	3.57880E+000	9	...........
	32	0.44	7.46980E-002	-2.79440E-004	0.00000E+000	-2.08736E-005	-1.68088E-001	7.47127E-002	3.57880E+000	9	...........
	33	0.453333	7.01652E-002	-2.77302E-004	0.00000E+000	-1.94569E-005	-1.68088E-001	7.01822E-002	3.57880E+000	9	...........
	34	0.466667	6.57754E-002	-2.79053E-004	0.00000E+000	-1.83548E-005	-1.68088E-001	6.57863E-002	3.57880E+000	9	...........
	35	0.48	6.15468E-002	-2.79432E-004	0.00000E+000	-1.71982E-005	-1.68088E-001	6.15603E-002	3.57880E+000	9	...........
	36	0.493333	5.74265E-002	-2.78338E-004	0.00000E+000	-1.59840E-005	-1.68088E-001	5.74373E-002	3.57880E+000	9	...........
	37	0.506667	5.34385E-002	-2.78915E-004	0.00000E+000	-1.49048E-005	-1.68088E-001	5.34475E-002	3.57880E+000	9	...........
	38	0.52	4.95898E-002	-2.78420E-004	0.00000E+000	-1.38068E-005	-1.68088E-001	4.95916E-002	3.57880E+000	9	...........
	39	0.533333	4.58227E-002	-2.78617E-004	0.00000E+000	-1.27670E-005	-1.68088E-001	4.58313E-002	3.57880E+000	9	...........
	40	0.546667	4.21306E-002	-2.78864E-004	0.00000E+000	-1.17487E-005	-1.68088E-001	4.21378E-002	3.57880E+000	9	...........
	41	0.56	3.85124E-002	-2.77886E-004	0.00000E+000	-1.07021E-005	-1.68088E-001	3.85180E-002	3.57880E+000	9	...........
	42	0.573333	3.50131E-002	-2.78509E-004	0.00000E+000	-9.75148E-006	-1.68088E-001	3.50155E-002	3.57880E+000	9	...........
	43	0.586667	3.16376E-002	-2.78282E-004	0.00000E+000	-8.80419E-006	-1.68088E-001	3.16388E-002	3.57880E+000	9	...........
	44	0.6	2.83438E-002	-2.78398E-004	0.00000E+000	-7.89086E-006	-1.68088E-001	2.83399E-002	3.57880E+000	9	...........
	45	0.613333	2.50960E-002	-2.78580E-004	0.00000E+000	-6.99124E-006	-1.68088E-001	2.50927E-002	3.57880E+000	9	...........
	46	0.626667	2.18657E-002	-2.79180E-004	0.00000E+000	-6.10446E-006	-1.68088E-001	2.18587E-002	3.57880E+000	9	...........
	47	0.64	1.86998E-002	-2.78861E-004	0.00000E+000	-5.21465E-006	-1.68088E-001	1.86944E-002	3.57880E+000	9	...........
	48	0.653333	1.56042E-002	-2.79527E-004	0.00000E+000	-4.36180E-006	-1.68088E-001	1.55933E-002	3.57880E+000	9	...........
	49	0.666667	1.26095E-002	-2.78773E-004	0.00000E+000	-3.51518E-006	-1.68088E-001	1.25983E-002	3.57880E+000	9	...........
	50	0.68	9.67787E-003	-2.79340E-004	0.00000E+000	-2.70341E-006	-1.68088E-001	9.66276E-003	3.57880E+000	9	...........
	51	0.693333	6.79249E-003	-2.78368E-004	0.00000E+000	-1.89081E-006	-1.68088E-001	6.77456E-003	3.57880E+000	9	...........
	52	0.706667	3.93909E-003	-2.80539E-004	0.00000E+000	-1.10507E-006	-1.68088E-001	3.91939E-003	3.57880E+000	9	...........
	53	0.72	1.12644E-003	-2.78719E-004	0.00000E+000	-3.13961E-007	-1.68088E-001	1.11121E-003	3.57880E+000	9	...........
STARTTIMEOFFSET	QUANT	1893.481	Start Time Offset (s)
