EXPLAIN
TAG	PWR800_DISCHARGE
TITLE	LABEL	PWR Cyclic Charge Discharge (Cell) - Discharge Step	Test &Identifier
DATE	LABEL	7-7-2017	Date
TIME	LABEL	15:56:43	Time
NOTES	NOTES	3	&Notes...
	supercap test cell
	2.8mg
	6M KOH
PSTAT	PSTAT	IFC5000-01520	Potentiostat
CAPACITY	QUANT	1.00000E-003	Capacity (A-hr)
CELLTYPE	SELECTOR	1	&Cell Type
WORKINGCONNECTION	SELECTOR	0	&Working Lead
MAXDISCHARGETIME	VARIABLEANDUNITS	1.00000E+002	s	1.00000E+002	second(s)	Max &Discharge Time
DISCHARGEMODE	MULTIPARAM	0	2.80000E-004	&Discharge Mode	Constant Current	Amp(s)
SAMPLETIME	QUANT	1.00000E-002	Sa&mple Period (s)
DISCHARGESTOPAT1	MULTIPARAM	3	0.00000E+000	Discharge Stop At &1	Voltage < Limit	V
DISCHARGESTOPAT2	MULTIPARAM	0	0.00000E+000	Discharge Stop At &2	None	N/A
AESBHCSELECTOR	TOGGLE	F	Save Both Half Cells
IRCOMP	TOGGLE	F	IR &Measure
EOC	QUANT	0	Open Circuit (V)
SEQUENCER	TOGGLE	TRUE	Run as Sequence
PSTATMODEL	IQUANT	53	Pstat Model
PSTATSECTION	LABEL	IFC5000-01520	Pstat Section
PSTATSERIALNO	LABEL	01520	Pstat Serial Number
CTRLMODE	IQUANT	0	Control Mode
ELECTROMETER	IQUANT	1	RE=0 or CS=1
IESTAB	IQUANT	0	I/E Stability
CASPEED	IQUANT	4	Control Amp Speed
CONVENTION	IQUANT	1	Current Convention
ICHRANGE	IQUANT	2	Ich Range
ICHRANGEMODE	TOGGLE	T	Ich Auto Range
ICHOFFSETENABLE	TOGGLE	F	Ich Offset Enable
ICHOFFSET	QUANT	0	Ich Offset (V)
ICHFILTER	IQUANT	1	Ich Filter
VCHRANGE	IQUANT	2	Vch Range
VCHRANGEMODE	TOGGLE	T	Vch Auto Range
VCHOFFSETENABLE	TOGGLE	F	Vch Offset Enable
VCHOFFSET	QUANT	0	Vch Offset (V)
VCHFILTER	IQUANT	1	Vch Filter
IERANGELOWERLIMIT	IQUANT	9	I/E Range Lower Limit
IERANGEMODE	TOGGLE	F	I/E AutoRange
IERANGE	IQUANT	9	I/E Range
ACHSELECT	IQUANT	1	Ach Select
ACHRANGE	IQUANT	2	Ach Range
ACHOFFSETENABLE	TOGGLE	F	Ach Offset Enable
ACHOFFSET	QUANT	0	Ach Offset (V)
ACHFILTER	IQUANT	1	Ach Filter
CABLEID	IQUANT	14	Cable ID
DCCALDATE	LABEL	5-7-2017	DC Calibration Date
ACCALDATE	LABEL	12/3/2015	AC Calibration Date
FRAMEWORKVERSION	QUANT	7.01	Framework Version
INSTRUMENTVERSION	LABEL	4.00	Instrument Version
CURVE	TABLE	76
	Pt	T	Vf	Im	Vu	Pwr	Sig	Ach	Temp	IERange	Over
	#	s	V	A	V	W	V	V	deg C	#	bits
	0	0.013333	5.32423E-001	-2.78536E-004	0.00000E+000	-1.48299E-004	-1.68088E-001	5.32672E-001	3.57770E+000	9	...........
	1	0.026667	5.00733E-001	-2.78188E-004	0.00000E+000	-1.39298E-004	-1.68088E-001	5.00966E-001	3.57770E+000	9	...........
	2	0.04	4.72200E-001	-2.78642E-004	0.00000E+000	-1.31575E-004	-1.68088E-001	4.72334E-001	3.57770E+000	9	...........
	3	0.053333	4.45679E-001	-2.78835E-004	0.00000E+000	-1.24271E-004	-1.68088E-001	4.45782E-001	3.57770E+000	9	...........
	4	0.066667	4.21028E-001	-2.78718E-004	0.00000E+000	-1.17348E-004	-1.68088E-001	4.21122E-001	3.57770E+000	9	...........
	5	0.08	3.98145E-001	-2.79214E-004	0.00000E+000	-1.11167E-004	-1.68088E-001	3.98232E-001	3.57770E+000	9	...........
	6	0.093333	3.76901E-001	-2.78492E-004	0.00000E+000	-1.04964E-004	-1.68088E-001	3.76986E-001	3.57770E+000	9	...........
	7	0.106667	3.57155E-001	-2.78621E-004	0.00000E+000	-9.95108E-005	-1.68088E-001	3.57235E-001	3.57770E+000	9	...........
	8	0.12	3.38789E-001	-2.78166E-004	0.00000E+000	-9.42399E-005	-1.68088E-001	3.38870E-001	3.57770E+000	9	...........
	9	0.133333	3.21754E-001	-2.79536E-004	0.00000E+000	-8.99417E-005	-1.68088E-001	3.21827E-001	3.57770E+000	9	...........
	10	0.146667	3.05937E-001	-2.79967E-004	0.00000E+000	-8.56523E-005	-1.68088E-001	3.06006E-001	3.57770E+000	9	...........
	11	0.16	2.91256E-001	-2.77664E-004	0.00000E+000	-8.08715E-005	-1.68088E-001	2.91328E-001	3.57770E+000	9	...........
	12	0.173333	2.77581E-001	-2.78575E-004	0.00000E+000	-7.73270E-005	-1.68088E-001	2.77649E-001	3.57770E+000	9	...........
	13	0.186667	2.64860E-001	-2.78794E-004	0.00000E+000	-7.38412E-005	-1.68088E-001	2.64930E-001	3.57770E+000	9	...........
	14	0.2	2.53082E-001	-2.78127E-004	0.00000E+000	-7.03889E-005	-1.68088E-001	2.53143E-001	3.57770E+000	9	...........
	15	0.213333	2.42046E-001	-2.78917E-004	0.00000E+000	-6.75106E-005	-1.68088E-001	2.42103E-001	3.57770E+000	9	...........
	16	0.226667	2.31747E-001	-2.78856E-004	0.00000E+000	-6.46239E-005	-1.68088E-001	2.31797E-001	3.57770E+000	9	...........
	17	0.24	2.22106E-001	-2.79198E-004	0.00000E+000	-6.20114E-005	-1.68088E-001	2.22160E-001	3.57770E+000	9	...........
	18	0.253333	2.13101E-001	-2.79258E-004	0.00000E+000	-5.95104E-005	-1.68088E-001	2.13145E-001	3.57770E+000	9	...........
	19	0.266667	2.04633E-001	-2.78422E-004	0.00000E+000	-5.69743E-005	-1.68088E-001	2.04682E-001	3.57770E+000	9	...........
	20	0.28	1.96664E-001	-2.79015E-004	0.00000E+000	-5.48722E-005	-1.68088E-001	1.96709E-001	3.57770E+000	9	...........
	21	0.293333	1.89169E-001	-2.78123E-004	0.00000E+000	-5.26121E-005	-1.68088E-001	1.89213E-001	3.57770E+000	9	...........
	22	0.306667	1.82079E-001	-2.78889E-004	0.00000E+000	-5.07798E-005	-1.68088E-001	1.82123E-001	3.57770E+000	9	...........
	23	0.32	1.75322E-001	-2.78175E-004	0.00000E+000	-4.87703E-005	-1.68088E-001	1.75359E-001	3.57770E+000	9	...........
	24	0.333333	1.68956E-001	-2.79120E-004	0.00000E+000	-4.71590E-005	-1.68088E-001	1.68993E-001	3.57770E+000	9	...........
	25	0.346667	1.62893E-001	-2.78934E-004	0.00000E+000	-4.54363E-005	-1.68088E-001	1.62930E-001	3.57770E+000	9	...........
	26	0.36	1.57110E-001	-2.79765E-004	0.00000E+000	-4.39538E-005	-1.68088E-001	1.57148E-001	3.57770E+000	9	...........
	27	0.373333	1.51590E-001	-2.79092E-004	0.00000E+000	-4.23074E-005	-1.68088E-001	1.51629E-001	3.57770E+000	9	...........
	28	0.386667	1.46296E-001	-2.77909E-004	0.00000E+000	-4.06570E-005	-1.68088E-001	1.46326E-001	3.57770E+000	9	...........
	29	0.4	1.41140E-001	-2.78675E-004	0.00000E+000	-3.93322E-005	-1.68088E-001	1.41175E-001	3.57770E+000	9	...........
	30	0.413333	1.36247E-001	-2.78628E-004	0.00000E+000	-3.79622E-005	-1.68088E-001	1.36287E-001	3.57770E+000	9	...........
	31	0.426667	1.31553E-001	-2.79044E-004	0.00000E+000	-3.67090E-005	-1.68088E-001	1.31583E-001	3.57770E+000	9	...........
	32	0.44	1.27014E-001	-2.79066E-004	0.00000E+000	-3.54453E-005	-1.68088E-001	1.27047E-001	3.57770E+000	9	...........
	33	0.453333	1.22599E-001	-2.78433E-004	0.00000E+000	-3.41358E-005	-1.68088E-001	1.22634E-001	3.57770E+000	9	...........
	34	0.466667	1.18349E-001	-2.78046E-004	0.00000E+000	-3.29065E-005	-1.68088E-001	1.18379E-001	3.57770E+000	9	...........
	35	0.48	1.14220E-001	-2.80112E-004	0.00000E+000	-3.19943E-005	-1.68088E-001	1.14252E-001	3.57765E+000	9	...........
	36	0.493333	1.10169E-001	-2.78162E-004	0.00000E+000	-3.06447E-005	-1.68088E-001	1.10195E-001	3.57760E+000	9	...........
	37	0.506667	1.06266E-001	-2.79954E-004	0.00000E+000	-2.97497E-005	-1.68088E-001	1.06296E-001	3.57760E+000	9	...........
	38	0.52	1.02480E-001	-2.79258E-004	0.00000E+000	-2.86184E-005	-1.68088E-001	1.02506E-001	3.57760E+000	9	...........
	39	0.533333	9.88308E-002	-2.79377E-004	0.00000E+000	-2.76111E-005	-1.68088E-001	9.88532E-002	3.57760E+000	9	...........
	40	0.546667	9.52559E-002	-2.79326E-004	0.00000E+000	-2.66075E-005	-1.68088E-001	9.52798E-002	3.57760E+000	9	...........
	41	0.56	9.17284E-002	-2.79340E-004	0.00000E+000	-2.56234E-005	-1.68088E-001	9.17506E-002	3.57760E+000	9	...........
	42	0.573333	8.82599E-002	-2.79678E-004	0.00000E+000	-2.46844E-005	-1.68088E-001	8.82817E-002	3.57760E+000	9	...........
	43	0.586667	8.49127E-002	-2.79397E-004	0.00000E+000	-2.37243E-005	-1.68088E-001	8.49313E-002	3.57760E+000	9	...........
	44	0.6	8.16326E-002	-2.79410E-004	0.00000E+000	-2.28090E-005	-1.68088E-001	8.16510E-002	3.57760E+000	9	...........
	45	0.613333	7.84017E-002	-2.78538E-004	0.00000E+000	-2.18379E-005	-1.68088E-001	7.84139E-002	3.57760E+000	9	...........
	46	0.626667	7.52116E-002	-2.78403E-004	0.00000E+000	-2.09391E-005	-1.68088E-001	7.52210E-002	3.57760E+000	9	...........
	47	0.64	7.20959E-002	-2.78952E-004	0.00000E+000	-2.01113E-005	-1.68088E-001	7.21009E-002	3.57760E+000	9	...........
	48	0.653333	6.90308E-002	-2.79378E-004	0.00000E+000	-1.92857E-005	-1.68088E-001	6.90382E-002	3.57760E+000	9	...........
	49	0.666667	6.60556E-002	-2.78896E-004	0.00000E+000	-1.84226E-005	-1.68088E-001	6.60629E-002	3.57760E+000	9	...........
	50	0.68	6.31425E-002	-2.77870E-004	0.00000E+000	-1.75454E-005	-1.68088E-001	6.31504E-002	3.57760E+000	9	...........
	51	0.693333	6.02473E-002	-2.78200E-004	0.00000E+000	-1.67608E-005	-1.68088E-001	6.02605E-002	3.57760E+000	9	...........
	52	0.706667	5.73966E-002	-2.78567E-004	0.00000E+000	-1.59888E-005	-1.68088E-001	5.74085E-002	3.57760E+000	9	...........
	53	0.72	5.45403E-002	-2.79209E-004	0.00000E+000	-1.52282E-005	-1.68088E-001	5.45516E-002	3.57760E+000	9	...........
	54	0.733333	5.17611E-002	-2.77838E-004	0.00000E+000	-1.43812E-005	-1.68088E-001	5.17708E-002	3.57760E+000	9	...........
	55	0.746667	4.90472E-002	-2.78598E-004	0.00000E+000	-1.36644E-005	-1.68088E-001	4.90536E-002	3.57760E+000	9	...........
	56	0.76	4.63610E-002	-2.79471E-004	0.00000E+000	-1.29565E-005	-1.68088E-001	4.63711E-002	3.57760E+000	9	...........
	57	0.773333	4.36951E-002	-2.79894E-004	0.00000E+000	-1.22300E-005	-1.68088E-001	4.37033E-002	3.57760E+000	9	...........
	58	0.786667	4.10910E-002	-2.78883E-004	0.00000E+000	-1.14596E-005	-1.68088E-001	4.10977E-002	3.57760E+000	9	...........
	59	0.8	3.85029E-002	-2.77598E-004	0.00000E+000	-1.06883E-005	-1.68088E-001	3.85096E-002	3.57760E+000	9	...........
	60	0.813333	3.59488E-002	-2.79167E-004	0.00000E+000	-1.00357E-005	-1.68088E-001	3.59514E-002	3.57760E+000	9	...........
	61	0.826667	3.34596E-002	-2.79704E-004	0.00000E+000	-9.35878E-006	-1.68088E-001	3.34608E-002	3.57760E+000	9	...........
	62	0.84	3.09919E-002	-2.79005E-004	0.00000E+000	-8.64691E-006	-1.68088E-001	3.09934E-002	3.57760E+000	9	...........
	63	0.853333	2.85260E-002	-2.78792E-004	0.00000E+000	-7.95280E-006	-1.68088E-001	2.85240E-002	3.57760E+000	9	...........
	64	0.866667	2.60653E-002	-2.78793E-004	0.00000E+000	-7.26681E-006	-1.68088E-001	2.60671E-002	3.57760E+000	9	...........
	65	0.88	2.36499E-002	-2.78993E-004	0.00000E+000	-6.59815E-006	-1.68088E-001	2.36425E-002	3.57760E+000	9	...........
	66	0.893333	2.12724E-002	-2.78495E-004	0.00000E+000	-5.92426E-006	-1.68088E-001	2.12625E-002	3.57760E+000	9	...........
	67	0.906667	1.88728E-002	-2.77880E-004	0.00000E+000	-5.24438E-006	-1.68088E-001	1.88660E-002	3.57760E+000	9	...........
	68	0.92	1.64812E-002	-2.78918E-004	0.00000E+000	-4.59690E-006	-1.68088E-001	1.64696E-002	3.57760E+000	9	...........
	69	0.933333	1.41418E-002	-2.77874E-004	0.00000E+000	-3.92962E-006	-1.68088E-001	1.41336E-002	3.57760E+000	9	...........
	70	0.946667	1.18006E-002	-2.78805E-004	0.00000E+000	-3.29008E-006	-1.68088E-001	1.17896E-002	3.57760E+000	9	...........
	71	0.96	9.47281E-003	-2.78692E-004	0.00000E+000	-2.63999E-006	-1.68088E-001	9.46338E-003	3.57760E+000	9	...........
	72	0.97333	7.20901E-003	-2.77741E-004	0.00000E+000	-2.00224E-006	-1.68088E-001	7.19546E-003	3.57760E+000	9	...........
	73	0.98667	4.99830E-003	-2.78353E-004	0.00000E+000	-1.39129E-006	-1.68088E-001	4.98408E-003	3.57760E+000	9	...........
	74	1	2.80114E-003	-2.79059E-004	0.00000E+000	-7.81684E-007	-1.68088E-001	2.77805E-003	3.57760E+000	9	...........
	75	1.01167	7.52695E-004	-2.78366E-004	0.00000E+000	-2.09524E-007	-1.68088E-001	7.31207E-004	3.57760E+000	9	...........
STARTTIMEOFFSET	QUANT	969.077	Start Time Offset (s)
