EXPLAIN
TAG	PWR800_DISCHARGE
TITLE	LABEL	PWR Cyclic Charge Discharge (Cell) - Discharge Step	Test &Identifier
DATE	LABEL	7-7-2017	Date
TIME	LABEL	16:12:01	Time
NOTES	NOTES	3	&Notes...
	supercap test cell
	2.8mg
	6M KOH
PSTAT	PSTAT	IFC5000-01520	Potentiostat
CAPACITY	QUANT	1.00000E-003	Capacity (A-hr)
CELLTYPE	SELECTOR	1	&Cell Type
WORKINGCONNECTION	SELECTOR	0	&Working Lead
MAXDISCHARGETIME	VARIABLEANDUNITS	1.00000E+002	s	1.00000E+002	second(s)	Max &Discharge Time
DISCHARGEMODE	MULTIPARAM	0	2.80000E-004	&Discharge Mode	Constant Current	Amp(s)
SAMPLETIME	QUANT	1.00000E-002	Sa&mple Period (s)
DISCHARGESTOPAT1	MULTIPARAM	3	0.00000E+000	Discharge Stop At &1	Voltage < Limit	V
DISCHARGESTOPAT2	MULTIPARAM	0	0.00000E+000	Discharge Stop At &2	None	N/A
AESBHCSELECTOR	TOGGLE	F	Save Both Half Cells
IRCOMP	TOGGLE	F	IR &Measure
EOC	QUANT	0	Open Circuit (V)
SEQUENCER	TOGGLE	TRUE	Run as Sequence
PSTATMODEL	IQUANT	53	Pstat Model
PSTATSECTION	LABEL	IFC5000-01520	Pstat Section
PSTATSERIALNO	LABEL	01520	Pstat Serial Number
CTRLMODE	IQUANT	0	Control Mode
ELECTROMETER	IQUANT	1	RE=0 or CS=1
IESTAB	IQUANT	0	I/E Stability
CASPEED	IQUANT	4	Control Amp Speed
CONVENTION	IQUANT	1	Current Convention
ICHRANGE	IQUANT	2	Ich Range
ICHRANGEMODE	TOGGLE	T	Ich Auto Range
ICHOFFSETENABLE	TOGGLE	F	Ich Offset Enable
ICHOFFSET	QUANT	0	Ich Offset (V)
ICHFILTER	IQUANT	1	Ich Filter
VCHRANGE	IQUANT	2	Vch Range
VCHRANGEMODE	TOGGLE	T	Vch Auto Range
VCHOFFSETENABLE	TOGGLE	F	Vch Offset Enable
VCHOFFSET	QUANT	0	Vch Offset (V)
VCHFILTER	IQUANT	1	Vch Filter
IERANGELOWERLIMIT	IQUANT	9	I/E Range Lower Limit
IERANGEMODE	TOGGLE	F	I/E AutoRange
IERANGE	IQUANT	9	I/E Range
ACHSELECT	IQUANT	1	Ach Select
ACHRANGE	IQUANT	2	Ach Range
ACHOFFSETENABLE	TOGGLE	F	Ach Offset Enable
ACHOFFSET	QUANT	0	Ach Offset (V)
ACHFILTER	IQUANT	1	Ach Filter
CABLEID	IQUANT	14	Cable ID
DCCALDATE	LABEL	5-7-2017	DC Calibration Date
ACCALDATE	LABEL	12/3/2015	AC Calibration Date
FRAMEWORKVERSION	QUANT	7.01	Framework Version
INSTRUMENTVERSION	LABEL	4.00	Instrument Version
CURVE	TABLE	60
	Pt	T	Vf	Im	Vu	Pwr	Sig	Ach	Temp	IERange	Over
	#	s	V	A	V	W	V	V	deg C	#	bits
	0	0.013333	5.22663E-001	-2.79931E-004	0.00000E+000	-1.46310E-004	-1.68088E-001	5.22899E-001	3.57880E+000	9	...........
	1	0.026667	4.89439E-001	-2.78470E-004	0.00000E+000	-1.36294E-004	-1.68088E-001	4.89633E-001	3.57880E+000	9	...........
	2	0.04	4.59132E-001	-2.79483E-004	0.00000E+000	-1.28320E-004	-1.68088E-001	4.59240E-001	3.57880E+000	9	...........
	3	0.053333	4.30754E-001	-2.78002E-004	0.00000E+000	-1.19750E-004	-1.68088E-001	4.30854E-001	3.57880E+000	9	...........
	4	0.066667	4.04291E-001	-2.78870E-004	0.00000E+000	-1.12744E-004	-1.68088E-001	4.04387E-001	3.57880E+000	9	...........
	5	0.08	3.79590E-001	-2.79506E-004	0.00000E+000	-1.06098E-004	-1.68088E-001	3.79674E-001	3.57880E+000	9	...........
	6	0.093333	3.56530E-001	-2.77892E-004	0.00000E+000	-9.90771E-005	-1.68088E-001	3.56612E-001	3.57880E+000	9	...........
	7	0.106667	3.35009E-001	-2.78246E-004	0.00000E+000	-9.32149E-005	-1.68088E-001	3.35088E-001	3.57880E+000	9	...........
	8	0.12	3.15004E-001	-2.78037E-004	0.00000E+000	-8.75828E-005	-1.68088E-001	3.15081E-001	3.57880E+000	9	...........
	9	0.133333	2.96397E-001	-2.79103E-004	0.00000E+000	-8.27254E-005	-1.68088E-001	2.96470E-001	3.57880E+000	9	...........
	10	0.146667	2.79148E-001	-2.78856E-004	0.00000E+000	-7.78421E-005	-1.68088E-001	2.79218E-001	3.57880E+000	9	...........
	11	0.16	2.63128E-001	-2.80609E-004	0.00000E+000	-7.38360E-005	-1.68088E-001	2.63195E-001	3.57880E+000	9	...........
	12	0.173333	2.48254E-001	-2.79107E-004	0.00000E+000	-6.92895E-005	-1.68088E-001	2.48316E-001	3.57880E+000	9	...........
	13	0.186667	2.34443E-001	-2.79775E-004	0.00000E+000	-6.55913E-005	-1.68088E-001	2.34496E-001	3.57880E+000	9	...........
	14	0.2	2.21592E-001	-2.78918E-004	0.00000E+000	-6.18060E-005	-1.68088E-001	2.21644E-001	3.57880E+000	9	...........
	15	0.213333	2.09650E-001	-2.79153E-004	0.00000E+000	-5.85244E-005	-1.68088E-001	2.09696E-001	3.57880E+000	9	...........
	16	0.226667	1.98554E-001	-2.79745E-004	0.00000E+000	-5.55444E-005	-1.68088E-001	1.98592E-001	3.57880E+000	9	...........
	17	0.24	1.88198E-001	-2.79292E-004	0.00000E+000	-5.25622E-005	-1.68088E-001	1.88244E-001	3.57880E+000	9	...........
	18	0.253333	1.78542E-001	-2.78528E-004	0.00000E+000	-4.97289E-005	-1.68088E-001	1.78582E-001	3.57880E+000	9	...........
	19	0.266667	1.69512E-001	-2.78823E-004	0.00000E+000	-4.72639E-005	-1.68088E-001	1.69556E-001	3.57880E+000	9	...........
	20	0.28	1.61074E-001	-2.78327E-004	0.00000E+000	-4.48311E-005	-1.68088E-001	1.61106E-001	3.57880E+000	9	...........
	21	0.293333	1.53138E-001	-2.78815E-004	0.00000E+000	-4.26970E-005	-1.68088E-001	1.53176E-001	3.57880E+000	9	...........
	22	0.306667	1.45698E-001	-2.79029E-004	0.00000E+000	-4.06541E-005	-1.68088E-001	1.45727E-001	3.57880E+000	9	...........
	23	0.32	1.38652E-001	-2.78723E-004	0.00000E+000	-3.86456E-005	-1.68088E-001	1.38680E-001	3.57880E+000	9	...........
	24	0.333333	1.31941E-001	-2.78011E-004	0.00000E+000	-3.66812E-005	-1.68088E-001	1.31969E-001	3.57880E+000	9	...........
	25	0.346667	1.25584E-001	-2.78877E-004	0.00000E+000	-3.50224E-005	-1.68088E-001	1.25609E-001	3.57880E+000	9	...........
	26	0.36	1.19508E-001	-2.79365E-004	0.00000E+000	-3.33862E-005	-1.68088E-001	1.19540E-001	3.57880E+000	9	...........
	27	0.373333	1.13706E-001	-2.79145E-004	0.00000E+000	-3.17404E-005	-1.68088E-001	1.13741E-001	3.57880E+000	9	...........
	28	0.386667	1.08162E-001	-2.78033E-004	0.00000E+000	-3.00726E-005	-1.68088E-001	1.08191E-001	3.57880E+000	9	...........
	29	0.4	1.02897E-001	-2.78700E-004	0.00000E+000	-2.86773E-005	-1.68088E-001	1.02920E-001	3.57880E+000	9	...........
	30	0.413333	9.78436E-002	-2.78309E-004	0.00000E+000	-2.72308E-005	-1.68088E-001	9.78732E-002	3.57880E+000	9	...........
	31	0.426667	9.30001E-002	-2.79014E-004	0.00000E+000	-2.59483E-005	-1.68088E-001	9.30264E-002	3.57880E+000	9	...........
	32	0.44	8.83231E-002	-2.78194E-004	0.00000E+000	-2.45709E-005	-1.68088E-001	8.83451E-002	3.57880E+000	9	...........
	33	0.453333	8.38216E-002	-2.79224E-004	0.00000E+000	-2.34050E-005	-1.68088E-001	8.38437E-002	3.57880E+000	9	...........
	34	0.466667	7.94945E-002	-2.78843E-004	0.00000E+000	-2.21665E-005	-1.68088E-001	7.95103E-002	3.57880E+000	9	...........
	35	0.48	7.52982E-002	-2.78166E-004	0.00000E+000	-2.09454E-005	-1.68088E-001	7.53164E-002	3.57880E+000	9	...........
	36	0.493333	7.12340E-002	-2.78976E-004	0.00000E+000	-1.98726E-005	-1.68088E-001	7.12511E-002	3.57839E+000	9	...........
	37	0.506667	6.73084E-002	-2.77967E-004	0.00000E+000	-1.87096E-005	-1.68088E-001	6.73212E-002	3.57770E+000	9	...........
	38	0.52	6.34428E-002	-2.78261E-004	0.00000E+000	-1.76537E-005	-1.68088E-001	6.34499E-002	3.57770E+000	9	...........
	39	0.533333	5.96715E-002	-2.77344E-004	0.00000E+000	-1.65496E-005	-1.68088E-001	5.96861E-002	3.57770E+000	9	...........
	40	0.546667	5.60462E-002	-2.79646E-004	0.00000E+000	-1.56731E-005	-1.68088E-001	5.60570E-002	3.57770E+000	9	...........
	41	0.56	5.25208E-002	-2.80005E-004	0.00000E+000	-1.47061E-005	-1.68088E-001	5.25288E-002	3.57770E+000	9	...........
	42	0.573333	4.90670E-002	-2.79693E-004	0.00000E+000	-1.37237E-005	-1.68088E-001	4.90685E-002	3.57770E+000	9	...........
	43	0.586667	4.57017E-002	-2.77199E-004	0.00000E+000	-1.26684E-005	-1.68088E-001	4.57087E-002	3.57770E+000	9	...........
	44	0.6	4.23710E-002	-2.79892E-004	0.00000E+000	-1.18593E-005	-1.68088E-001	4.23834E-002	3.57770E+000	9	...........
	45	0.613333	3.90676E-002	-2.78298E-004	0.00000E+000	-1.08724E-005	-1.68088E-001	3.90764E-002	3.57770E+000	9	...........
	46	0.626667	3.58585E-002	-2.79127E-004	0.00000E+000	-1.00091E-005	-1.68088E-001	3.58621E-002	3.57770E+000	9	...........
	47	0.64	3.27057E-002	-2.78989E-004	0.00000E+000	-9.12452E-006	-1.68088E-001	3.27092E-002	3.57770E+000	9	...........
	48	0.653333	2.96165E-002	-2.79760E-004	0.00000E+000	-8.28550E-006	-1.68088E-001	2.96216E-002	3.57770E+000	9	...........
	49	0.666667	2.66054E-002	-2.78826E-004	0.00000E+000	-7.41827E-006	-1.68088E-001	2.66054E-002	3.57770E+000	9	...........
	50	0.68	2.36603E-002	-2.78529E-004	0.00000E+000	-6.59008E-006	-1.68088E-001	2.36599E-002	3.57770E+000	9	...........
	51	0.693333	2.07560E-002	-2.79426E-004	0.00000E+000	-5.79977E-006	-1.68088E-001	2.07547E-002	3.57770E+000	9	...........
	52	0.706667	1.79111E-002	-2.79982E-004	0.00000E+000	-5.01479E-006	-1.68088E-001	1.79077E-002	3.57770E+000	9	...........
	53	0.72	1.50593E-002	-2.76647E-004	0.00000E+000	-4.16612E-006	-1.68088E-001	1.50513E-002	3.57770E+000	9	...........
	54	0.733333	1.22744E-002	-2.78220E-004	0.00000E+000	-3.41497E-006	-1.68088E-001	1.22659E-002	3.57770E+000	9	...........
	55	0.746667	9.54886E-003	-2.79260E-004	0.00000E+000	-2.66662E-006	-1.68088E-001	9.53619E-003	3.57770E+000	9	...........
	56	0.76	6.89871E-003	-2.78762E-004	0.00000E+000	-1.92310E-006	-1.68088E-001	6.88568E-003	3.57770E+000	9	...........
	57	0.773333	4.28394E-003	-2.78684E-004	0.00000E+000	-1.19387E-006	-1.68088E-001	4.26747E-003	3.57770E+000	9	...........
	58	0.786667	1.67386E-003	-2.78705E-004	0.00000E+000	-4.66513E-007	-1.68088E-001	1.65457E-003	3.57770E+000	9	...........
	59	0.79	4.60163E-005	-2.78544E-004	0.00000E+000	-1.28176E-008	-1.68088E-001	3.58952E-005	3.57770E+000	9	...........
STARTTIMEOFFSET	QUANT	1604.698	Start Time Offset (s)
