EXPLAIN
TAG	PWR800_DISCHARGE
TITLE	LABEL	PWR Cyclic Charge Discharge (Cell) - Discharge Step	Test &Identifier
DATE	LABEL	7-7-2017	Date
TIME	LABEL	15:50:31	Time
NOTES	NOTES	3	&Notes...
	supercap test cell
	2.8mg
	6M KOH
PSTAT	PSTAT	IFC5000-01520	Potentiostat
CAPACITY	QUANT	1.00000E-003	Capacity (A-hr)
CELLTYPE	SELECTOR	1	&Cell Type
WORKINGCONNECTION	SELECTOR	0	&Working Lead
MAXDISCHARGETIME	VARIABLEANDUNITS	1.00000E+002	s	1.00000E+002	second(s)	Max &Discharge Time
DISCHARGEMODE	MULTIPARAM	0	2.80000E-004	&Discharge Mode	Constant Current	Amp(s)
SAMPLETIME	QUANT	1.00000E-002	Sa&mple Period (s)
DISCHARGESTOPAT1	MULTIPARAM	3	0.00000E+000	Discharge Stop At &1	Voltage < Limit	V
DISCHARGESTOPAT2	MULTIPARAM	0	0.00000E+000	Discharge Stop At &2	None	N/A
AESBHCSELECTOR	TOGGLE	F	Save Both Half Cells
IRCOMP	TOGGLE	F	IR &Measure
EOC	QUANT	0	Open Circuit (V)
SEQUENCER	TOGGLE	TRUE	Run as Sequence
PSTATMODEL	IQUANT	53	Pstat Model
PSTATSECTION	LABEL	IFC5000-01520	Pstat Section
PSTATSERIALNO	LABEL	01520	Pstat Serial Number
CTRLMODE	IQUANT	0	Control Mode
ELECTROMETER	IQUANT	1	RE=0 or CS=1
IESTAB	IQUANT	0	I/E Stability
CASPEED	IQUANT	4	Control Amp Speed
CONVENTION	IQUANT	1	Current Convention
ICHRANGE	IQUANT	2	Ich Range
ICHRANGEMODE	TOGGLE	T	Ich Auto Range
ICHOFFSETENABLE	TOGGLE	F	Ich Offset Enable
ICHOFFSET	QUANT	0	Ich Offset (V)
ICHFILTER	IQUANT	1	Ich Filter
VCHRANGE	IQUANT	2	Vch Range
VCHRANGEMODE	TOGGLE	T	Vch Auto Range
VCHOFFSETENABLE	TOGGLE	F	Vch Offset Enable
VCHOFFSET	QUANT	0	Vch Offset (V)
VCHFILTER	IQUANT	1	Vch Filter
IERANGELOWERLIMIT	IQUANT	9	I/E Range Lower Limit
IERANGEMODE	TOGGLE	F	I/E AutoRange
IERANGE	IQUANT	9	I/E Range
ACHSELECT	IQUANT	1	Ach Select
ACHRANGE	IQUANT	2	Ach Range
ACHOFFSETENABLE	TOGGLE	F	Ach Offset Enable
ACHOFFSET	QUANT	0	Ach Offset (V)
ACHFILTER	IQUANT	1	Ach Filter
CABLEID	IQUANT	14	Cable ID
DCCALDATE	LABEL	5-7-2017	DC Calibration Date
ACCALDATE	LABEL	12/3/2015	AC Calibration Date
FRAMEWORKVERSION	QUANT	7.01	Framework Version
INSTRUMENTVERSION	LABEL	4.00	Instrument Version
CURVE	TABLE	89
	Pt	T	Vf	Im	Vu	Pwr	Sig	Ach	Temp	IERange	Over
	#	s	V	A	V	W	V	V	deg C	#	bits
	0	0.013333	5.44564E-001	-2.78731E-004	0.00000E+000	-1.51787E-004	-1.68088E-001	5.44827E-001	3.57780E+000	9	...........
	1	0.026667	5.13855E-001	-2.79331E-004	0.00000E+000	-1.43536E-004	-1.68088E-001	5.14103E-001	3.57780E+000	9	...........
	2	0.04	4.86121E-001	-2.78802E-004	0.00000E+000	-1.35531E-004	-1.68088E-001	4.86346E-001	3.57780E+000	9	...........
	3	0.053333	4.60773E-001	-2.78901E-004	0.00000E+000	-1.28510E-004	-1.68088E-001	4.60882E-001	3.57780E+000	9	...........
	4	0.066667	4.37123E-001	-2.79427E-004	0.00000E+000	-1.22144E-004	-1.68088E-001	4.37228E-001	3.57780E+000	9	...........
	5	0.08	4.15203E-001	-2.78553E-004	0.00000E+000	-1.15656E-004	-1.68088E-001	4.15302E-001	3.57780E+000	9	...........
	6	0.093333	3.94847E-001	-2.78624E-004	0.00000E+000	-1.10014E-004	-1.68088E-001	3.94939E-001	3.57780E+000	9	...........
	7	0.106667	3.75954E-001	-2.79103E-004	0.00000E+000	-1.04930E-004	-1.68088E-001	3.76047E-001	3.57780E+000	9	...........
	8	0.12	3.58419E-001	-2.79733E-004	0.00000E+000	-1.00262E-004	-1.68088E-001	3.58508E-001	3.57780E+000	9	...........
	9	0.133333	3.42122E-001	-2.78581E-004	0.00000E+000	-9.53088E-005	-1.68088E-001	3.42203E-001	3.57780E+000	9	...........
	10	0.146667	3.27011E-001	-2.78933E-004	0.00000E+000	-9.12142E-005	-1.68088E-001	3.27088E-001	3.57780E+000	9	...........
	11	0.16	3.12982E-001	-2.79316E-004	0.00000E+000	-8.74207E-005	-1.68088E-001	3.13060E-001	3.57780E+000	9	...........
	12	0.173333	2.99927E-001	-2.78678E-004	0.00000E+000	-8.35831E-005	-1.68088E-001	3.00004E-001	3.57780E+000	9	...........
	13	0.186667	2.87745E-001	-2.79148E-004	0.00000E+000	-8.03235E-005	-1.68088E-001	2.87820E-001	3.57780E+000	9	...........
	14	0.2	2.76417E-001	-2.78629E-004	0.00000E+000	-7.70179E-005	-1.68088E-001	2.76490E-001	3.57780E+000	9	...........
	15	0.213333	2.65854E-001	-2.78956E-004	0.00000E+000	-7.41617E-005	-1.68088E-001	2.65930E-001	3.57780E+000	9	...........
	16	0.226667	2.55937E-001	-2.78840E-004	0.00000E+000	-7.13654E-005	-1.68088E-001	2.56002E-001	3.57780E+000	9	...........
	17	0.24	2.46651E-001	-2.78711E-004	0.00000E+000	-6.87444E-005	-1.68088E-001	2.46711E-001	3.57780E+000	9	...........
	18	0.253333	2.37895E-001	-2.78915E-004	0.00000E+000	-6.63524E-005	-1.68088E-001	2.37955E-001	3.57780E+000	9	...........
	19	0.266667	2.29661E-001	-2.79717E-004	0.00000E+000	-6.42401E-005	-1.68088E-001	2.29712E-001	3.57780E+000	9	...........
	20	0.28	2.21922E-001	-2.78556E-004	0.00000E+000	-6.18177E-005	-1.68088E-001	2.21980E-001	3.57780E+000	9	...........
	21	0.293333	2.14610E-001	-2.79426E-004	0.00000E+000	-5.99677E-005	-1.68088E-001	2.14665E-001	3.57780E+000	9	...........
	22	0.306667	2.07721E-001	-2.78386E-004	0.00000E+000	-5.78267E-005	-1.68088E-001	2.07772E-001	3.57780E+000	9	...........
	23	0.32	2.01143E-001	-2.78183E-004	0.00000E+000	-5.59546E-005	-1.68088E-001	2.01195E-001	3.57780E+000	9	...........
	24	0.333333	1.94922E-001	-2.78994E-004	0.00000E+000	-5.43820E-005	-1.68088E-001	1.94969E-001	3.57780E+000	9	...........
	25	0.346667	1.88954E-001	-2.78737E-004	0.00000E+000	-5.26687E-005	-1.68088E-001	1.88997E-001	3.57780E+000	9	...........
	26	0.36	1.83264E-001	-2.79263E-004	0.00000E+000	-5.11788E-005	-1.68088E-001	1.83311E-001	3.57780E+000	9	...........
	27	0.373333	1.77811E-001	-2.79351E-004	0.00000E+000	-4.96716E-005	-1.68088E-001	1.77854E-001	3.57780E+000	9	...........
	28	0.386667	1.72578E-001	-2.78466E-004	0.00000E+000	-4.80570E-005	-1.68088E-001	1.72620E-001	3.57780E+000	9	...........
	29	0.4	1.67523E-001	-2.78808E-004	0.00000E+000	-4.67067E-005	-1.68088E-001	1.67564E-001	3.57780E+000	9	...........
	30	0.413333	1.62641E-001	-2.79119E-004	0.00000E+000	-4.53962E-005	-1.68088E-001	1.62673E-001	3.57780E+000	9	...........
	31	0.426667	1.57949E-001	-2.79159E-004	0.00000E+000	-4.40930E-005	-1.68088E-001	1.57986E-001	3.57780E+000	9	...........
	32	0.44	1.53446E-001	-2.79844E-004	0.00000E+000	-4.29411E-005	-1.68088E-001	1.53477E-001	3.57780E+000	9	...........
	33	0.453333	1.49100E-001	-2.79115E-004	0.00000E+000	-4.16160E-005	-1.68088E-001	1.49132E-001	3.57780E+000	9	...........
	34	0.466667	1.44909E-001	-2.78029E-004	0.00000E+000	-4.02890E-005	-1.68088E-001	1.44946E-001	3.57780E+000	9	...........
	35	0.48	1.40865E-001	-2.78706E-004	0.00000E+000	-3.92598E-005	-1.68088E-001	1.40899E-001	3.57780E+000	9	...........
	36	0.493333	1.36853E-001	-2.79114E-004	0.00000E+000	-3.81976E-005	-1.68088E-001	1.36887E-001	3.57780E+000	9	...........
	37	0.506667	1.32992E-001	-2.79937E-004	0.00000E+000	-3.72292E-005	-1.68088E-001	1.33021E-001	3.57780E+000	9	...........
	38	0.52	1.29266E-001	-2.78235E-004	0.00000E+000	-3.59665E-005	-1.68088E-001	1.29301E-001	3.57780E+000	9	...........
	39	0.533333	1.25596E-001	-2.78987E-004	0.00000E+000	-3.50398E-005	-1.68088E-001	1.25622E-001	3.57780E+000	9	...........
	40	0.546667	1.22060E-001	-2.78911E-004	0.00000E+000	-3.40440E-005	-1.68088E-001	1.22090E-001	3.57780E+000	9	...........
	41	0.56	1.18594E-001	-2.78557E-004	0.00000E+000	-3.30353E-005	-1.68088E-001	1.18631E-001	3.57780E+000	9	...........
	42	0.573333	1.15174E-001	-2.79144E-004	0.00000E+000	-3.21500E-005	-1.68088E-001	1.15201E-001	3.57780E+000	9	...........
	43	0.586667	1.11820E-001	-2.78986E-004	0.00000E+000	-3.11963E-005	-1.68088E-001	1.11844E-001	3.57780E+000	9	...........
	44	0.6	1.08516E-001	-2.79567E-004	0.00000E+000	-3.03374E-005	-1.68088E-001	1.08543E-001	3.57780E+000	9	...........
	45	0.613333	1.05253E-001	-2.78810E-004	0.00000E+000	-2.93455E-005	-1.68088E-001	1.05276E-001	3.57780E+000	9	...........
	46	0.626667	1.02074E-001	-2.79121E-004	0.00000E+000	-2.84911E-005	-1.68088E-001	1.02093E-001	3.57780E+000	9	...........
	47	0.64	9.89356E-002	-2.78280E-004	0.00000E+000	-2.75318E-005	-1.68088E-001	9.89562E-002	3.57780E+000	9	...........
	48	0.653333	9.58666E-002	-2.78124E-004	0.00000E+000	-2.66628E-005	-1.68088E-001	9.58938E-002	3.57780E+000	9	...........
	49	0.666667	9.29142E-002	-2.78905E-004	0.00000E+000	-2.59143E-005	-1.68088E-001	9.29339E-002	3.57780E+000	9	...........
	50	0.68	8.99867E-002	-2.79242E-004	0.00000E+000	-2.51280E-005	-1.68088E-001	9.00116E-002	3.57780E+000	9	...........
	51	0.693333	8.71114E-002	-2.78168E-004	0.00000E+000	-2.42316E-005	-1.68088E-001	8.71363E-002	3.57780E+000	9	...........
	52	0.706667	8.42567E-002	-2.78644E-004	0.00000E+000	-2.34776E-005	-1.68088E-001	8.42730E-002	3.57780E+000	9	...........
	53	0.72	8.14436E-002	-2.78463E-004	0.00000E+000	-2.26791E-005	-1.68088E-001	8.14617E-002	3.57780E+000	9	...........
	54	0.733333	7.86394E-002	-2.78527E-004	0.00000E+000	-2.19032E-005	-1.68088E-001	7.86574E-002	3.57780E+000	9	...........
	55	0.746667	7.59002E-002	-2.78646E-004	0.00000E+000	-2.11493E-005	-1.68088E-001	7.59148E-002	3.57780E+000	9	...........
	56	0.76	7.31997E-002	-2.79490E-004	0.00000E+000	-2.04585E-005	-1.68088E-001	7.32189E-002	3.57780E+000	9	...........
	57	0.773333	7.05512E-002	-2.78571E-004	0.00000E+000	-1.96535E-005	-1.68088E-001	7.05665E-002	3.57780E+000	9	...........
	58	0.786667	6.78661E-002	-2.78455E-004	0.00000E+000	-1.88976E-005	-1.68088E-001	6.78836E-002	3.57780E+000	9	...........
	59	0.8	6.52106E-002	-2.79385E-004	0.00000E+000	-1.82189E-005	-1.68088E-001	6.52223E-002	3.57780E+000	9	...........
	60	0.813333	6.26182E-002	-2.78503E-004	0.00000E+000	-1.74393E-005	-1.68088E-001	6.26302E-002	3.57780E+000	9	...........
	61	0.826667	6.00782E-002	-2.79266E-004	0.00000E+000	-1.67778E-005	-1.68088E-001	6.00997E-002	3.57799E+000	9	...........
	62	0.84	5.75918E-002	-2.78668E-004	0.00000E+000	-1.60490E-005	-1.68088E-001	5.76028E-002	3.57930E+000	9	...........
	63	0.853333	5.50697E-002	-2.78970E-004	0.00000E+000	-1.53628E-005	-1.68088E-001	5.50806E-002	3.57930E+000	9	...........
	64	0.866667	5.25858E-002	-2.79085E-004	0.00000E+000	-1.46759E-005	-1.68088E-001	5.25906E-002	3.57930E+000	9	...........
	65	0.88	5.01317E-002	-2.78616E-004	0.00000E+000	-1.39675E-005	-1.68088E-001	5.01401E-002	3.57930E+000	9	...........
	66	0.893333	4.77265E-002	-2.78787E-004	0.00000E+000	-1.33056E-005	-1.68088E-001	4.77317E-002	3.57930E+000	9	...........
	67	0.906667	4.53662E-002	-2.79463E-004	0.00000E+000	-1.26782E-005	-1.68088E-001	4.53783E-002	3.57930E+000	9	...........
	68	0.92	4.29616E-002	-2.78437E-004	0.00000E+000	-1.19621E-005	-1.68088E-001	4.29689E-002	3.57930E+000	9	...........
	69	0.933333	4.05711E-002	-2.80312E-004	0.00000E+000	-1.13726E-005	-1.68088E-001	4.05785E-002	3.57930E+000	9	...........
	70	0.946667	3.82331E-002	-2.79231E-004	0.00000E+000	-1.06759E-005	-1.68088E-001	3.82413E-002	3.57930E+000	9	...........
	71	0.96	3.59229E-002	-2.78709E-004	0.00000E+000	-1.00120E-005	-1.68088E-001	3.59311E-002	3.57930E+000	9	...........
	72	0.97333	3.36458E-002	-2.78973E-004	0.00000E+000	-9.38626E-006	-1.68088E-001	3.36479E-002	3.57930E+000	9	...........
	73	0.98667	3.14171E-002	-2.78813E-004	0.00000E+000	-8.75951E-006	-1.68088E-001	3.14178E-002	3.57930E+000	9	...........
	74	1	2.92148E-002	-2.79026E-004	0.00000E+000	-8.15169E-006	-1.68088E-001	2.92133E-002	3.57930E+000	9	...........
	75	1.01333	2.70359E-002	-2.79435E-004	0.00000E+000	-7.55480E-006	-1.68088E-001	2.70333E-002	3.57930E+000	9	...........
	76	1.02667	2.48514E-002	-2.77848E-004	0.00000E+000	-6.90490E-006	-1.68088E-001	2.48471E-002	3.57930E+000	9	...........
	77	1.04	2.26607E-002	-2.79554E-004	0.00000E+000	-6.33489E-006	-1.68088E-001	2.26556E-002	3.57930E+000	9	...........
	78	1.05333	2.05324E-002	-2.79472E-004	0.00000E+000	-5.73822E-006	-1.68088E-001	2.05300E-002	3.57930E+000	9	...........
	79	1.06667	1.83900E-002	-2.79704E-004	0.00000E+000	-5.14376E-006	-1.68088E-001	1.83828E-002	3.57930E+000	9	...........
	80	1.08	1.62549E-002	-2.79860E-004	0.00000E+000	-4.54910E-006	-1.68088E-001	1.62446E-002	3.57930E+000	9	...........
	81	1.09333	1.41321E-002	-2.78978E-004	0.00000E+000	-3.94255E-006	-1.68088E-001	1.41226E-002	3.57930E+000	9	...........
	82	1.10667	1.20638E-002	-2.79666E-004	0.00000E+000	-3.37385E-006	-1.68088E-001	1.20530E-002	3.57930E+000	9	...........
	83	1.12	1.00417E-002	-2.78866E-004	0.00000E+000	-2.80027E-006	-1.68088E-001	1.00274E-002	3.57930E+000	9	...........
	84	1.13333	8.00540E-003	-2.79232E-004	0.00000E+000	-2.23537E-006	-1.68088E-001	7.99183E-003	3.57930E+000	9	...........
	85	1.14667	5.97828E-003	-2.79385E-004	0.00000E+000	-1.67024E-006	-1.68088E-001	5.96444E-003	3.57930E+000	9	...........
	86	1.16	3.93224E-003	-2.79028E-004	0.00000E+000	-1.09720E-006	-1.68088E-001	3.91373E-003	3.57930E+000	9	...........
	87	1.17333	1.86376E-003	-2.79392E-004	0.00000E+000	-5.20718E-007	-1.68088E-001	1.84777E-003	3.57930E+000	9	...........
	88	1.18	3.36411E-004	-2.78712E-004	0.00000E+000	-9.37620E-008	-1.68088E-001	3.15477E-004	3.57930E+000	9	...........
STARTTIMEOFFSET	QUANT	696.3035	Start Time Offset (s)
