EXPLAIN
TAG	PWR800_DISCHARGE
TITLE	LABEL	PWR Cyclic Charge Discharge (Cell) - Discharge Step	Test &Identifier
DATE	LABEL	7-7-2017	Date
TIME	LABEL	16:06:58	Time
NOTES	NOTES	3	&Notes...
	supercap test cell
	2.8mg
	6M KOH
PSTAT	PSTAT	IFC5000-01520	Potentiostat
CAPACITY	QUANT	1.00000E-003	Capacity (A-hr)
CELLTYPE	SELECTOR	1	&Cell Type
WORKINGCONNECTION	SELECTOR	0	&Working Lead
MAXDISCHARGETIME	VARIABLEANDUNITS	1.00000E+002	s	1.00000E+002	second(s)	Max &Discharge Time
DISCHARGEMODE	MULTIPARAM	0	2.80000E-004	&Discharge Mode	Constant Current	Amp(s)
SAMPLETIME	QUANT	1.00000E-002	Sa&mple Period (s)
DISCHARGESTOPAT1	MULTIPARAM	3	0.00000E+000	Discharge Stop At &1	Voltage < Limit	V
DISCHARGESTOPAT2	MULTIPARAM	0	0.00000E+000	Discharge Stop At &2	None	N/A
AESBHCSELECTOR	TOGGLE	F	Save Both Half Cells
IRCOMP	TOGGLE	F	IR &Measure
EOC	QUANT	0	Open Circuit (V)
SEQUENCER	TOGGLE	TRUE	Run as Sequence
PSTATMODEL	IQUANT	53	Pstat Model
PSTATSECTION	LABEL	IFC5000-01520	Pstat Section
PSTATSERIALNO	LABEL	01520	Pstat Serial Number
CTRLMODE	IQUANT	0	Control Mode
ELECTROMETER	IQUANT	1	RE=0 or CS=1
IESTAB	IQUANT	0	I/E Stability
CASPEED	IQUANT	4	Control Amp Speed
CONVENTION	IQUANT	1	Current Convention
ICHRANGE	IQUANT	2	Ich Range
ICHRANGEMODE	TOGGLE	T	Ich Auto Range
ICHOFFSETENABLE	TOGGLE	F	Ich Offset Enable
ICHOFFSET	QUANT	0	Ich Offset (V)
ICHFILTER	IQUANT	1	Ich Filter
VCHRANGE	IQUANT	2	Vch Range
VCHRANGEMODE	TOGGLE	T	Vch Auto Range
VCHOFFSETENABLE	TOGGLE	F	Vch Offset Enable
VCHOFFSET	QUANT	0	Vch Offset (V)
VCHFILTER	IQUANT	1	Vch Filter
IERANGELOWERLIMIT	IQUANT	9	I/E Range Lower Limit
IERANGEMODE	TOGGLE	F	I/E AutoRange
IERANGE	IQUANT	9	I/E Range
ACHSELECT	IQUANT	1	Ach Select
ACHRANGE	IQUANT	2	Ach Range
ACHOFFSETENABLE	TOGGLE	F	Ach Offset Enable
ACHOFFSET	QUANT	0	Ach Offset (V)
ACHFILTER	IQUANT	1	Ach Filter
CABLEID	IQUANT	14	Cable ID
DCCALDATE	LABEL	5-7-2017	DC Calibration Date
ACCALDATE	LABEL	12/3/2015	AC Calibration Date
FRAMEWORKVERSION	QUANT	7.01	Framework Version
INSTRUMENTVERSION	LABEL	4.00	Instrument Version
CURVE	TABLE	64
	Pt	T	Vf	Im	Vu	Pwr	Sig	Ach	Temp	IERange	Over
	#	s	V	A	V	W	V	V	deg C	#	bits
	0	0.013333	5.32586E-001	-2.80470E-004	0.00000E+000	-1.49374E-004	-1.68088E-001	5.32861E-001	3.57880E+000	9	...........
	1	0.026667	4.99664E-001	-2.78208E-004	0.00000E+000	-1.39010E-004	-1.68088E-001	4.99901E-001	3.57880E+000	9	...........
	2	0.04	4.69734E-001	-2.78636E-004	0.00000E+000	-1.30885E-004	-1.68088E-001	4.69875E-001	3.57880E+000	9	...........
	3	0.053333	4.41727E-001	-2.78944E-004	0.00000E+000	-1.23217E-004	-1.68088E-001	4.41840E-001	3.57880E+000	9	...........
	4	0.066667	4.15564E-001	-2.78948E-004	0.00000E+000	-1.15921E-004	-1.68088E-001	4.15665E-001	3.57880E+000	9	...........
	5	0.08	3.91098E-001	-2.79339E-004	0.00000E+000	-1.09249E-004	-1.68088E-001	3.91193E-001	3.57880E+000	9	...........
	6	0.093333	3.68248E-001	-2.79188E-004	0.00000E+000	-1.02810E-004	-1.68088E-001	3.68341E-001	3.57880E+000	9	...........
	7	0.106667	3.46938E-001	-2.77276E-004	0.00000E+000	-9.61976E-005	-1.68088E-001	3.47027E-001	3.57880E+000	9	...........
	8	0.12	3.27104E-001	-2.78698E-004	0.00000E+000	-9.11632E-005	-1.68088E-001	3.27185E-001	3.57880E+000	9	...........
	9	0.133333	3.08627E-001	-2.78068E-004	0.00000E+000	-8.58192E-005	-1.68088E-001	3.08706E-001	3.57880E+000	9	...........
	10	0.146667	2.91461E-001	-2.78828E-004	0.00000E+000	-8.12675E-005	-1.68088E-001	2.91536E-001	3.57880E+000	9	...........
	11	0.16	2.75500E-001	-2.78542E-004	0.00000E+000	-7.67382E-005	-1.68088E-001	2.75568E-001	3.57880E+000	9	...........
	12	0.173333	2.60685E-001	-2.77867E-004	0.00000E+000	-7.24359E-005	-1.68088E-001	2.60755E-001	3.57880E+000	9	...........
	13	0.186667	2.46921E-001	-2.79454E-004	0.00000E+000	-6.90032E-005	-1.68088E-001	2.46986E-001	3.57880E+000	9	...........
	14	0.2	2.34172E-001	-2.78432E-004	0.00000E+000	-6.52009E-005	-1.68088E-001	2.34231E-001	3.57880E+000	9	...........
	15	0.213333	2.22273E-001	-2.79417E-004	0.00000E+000	-6.21067E-005	-1.68088E-001	2.22326E-001	3.57880E+000	9	...........
	16	0.226667	2.11194E-001	-2.77980E-004	0.00000E+000	-5.87076E-005	-1.68088E-001	2.11246E-001	3.57880E+000	9	...........
	17	0.24	2.00845E-001	-2.79249E-004	0.00000E+000	-5.60857E-005	-1.68088E-001	2.00889E-001	3.57880E+000	9	...........
	18	0.253333	1.91176E-001	-2.77959E-004	0.00000E+000	-5.31391E-005	-1.68088E-001	1.91224E-001	3.57880E+000	9	...........
	19	0.266667	1.82139E-001	-2.78201E-004	0.00000E+000	-5.06712E-005	-1.68088E-001	1.82187E-001	3.57880E+000	9	...........
	20	0.28	1.73641E-001	-2.79062E-004	0.00000E+000	-4.84568E-005	-1.68088E-001	1.73687E-001	3.57880E+000	9	...........
	21	0.293333	1.65644E-001	-2.78632E-004	0.00000E+000	-4.61538E-005	-1.68088E-001	1.65688E-001	3.57880E+000	9	...........
	22	0.306667	1.58098E-001	-2.78599E-004	0.00000E+000	-4.40460E-005	-1.68088E-001	1.58133E-001	3.57880E+000	9	...........
	23	0.32	1.50949E-001	-2.77465E-004	0.00000E+000	-4.18832E-005	-1.68088E-001	1.50990E-001	3.57880E+000	9	...........
	24	0.333333	1.44226E-001	-2.79570E-004	0.00000E+000	-4.03212E-005	-1.68088E-001	1.44262E-001	3.57880E+000	9	...........
	25	0.346667	1.37816E-001	-2.79316E-004	0.00000E+000	-3.84941E-005	-1.68088E-001	1.37851E-001	3.57880E+000	9	...........
	26	0.36	1.31724E-001	-2.78718E-004	0.00000E+000	-3.67137E-005	-1.68088E-001	1.31761E-001	3.57880E+000	9	...........
	27	0.373333	1.25929E-001	-2.78180E-004	0.00000E+000	-3.50309E-005	-1.68088E-001	1.25962E-001	3.57880E+000	9	...........
	28	0.386667	1.20390E-001	-2.78660E-004	0.00000E+000	-3.35479E-005	-1.68088E-001	1.20421E-001	3.57880E+000	9	...........
	29	0.4	1.15075E-001	-2.79217E-004	0.00000E+000	-3.21307E-005	-1.68088E-001	1.15104E-001	3.57880E+000	9	...........
	30	0.413333	1.09995E-001	-2.78299E-004	0.00000E+000	-3.06115E-005	-1.68088E-001	1.10022E-001	3.57880E+000	9	...........
	31	0.426667	1.05079E-001	-2.77439E-004	0.00000E+000	-2.91531E-005	-1.68088E-001	1.05108E-001	3.57880E+000	9	...........
	32	0.44	1.00385E-001	-2.79043E-004	0.00000E+000	-2.80117E-005	-1.68088E-001	1.00416E-001	3.57880E+000	9	...........
	33	0.453333	9.58623E-002	-2.78622E-004	0.00000E+000	-2.67093E-005	-1.68088E-001	9.58898E-002	3.57880E+000	9	...........
	34	0.466667	9.14999E-002	-2.79945E-004	0.00000E+000	-2.56149E-005	-1.68088E-001	9.15241E-002	3.57880E+000	9	...........
	35	0.48	8.73019E-002	-2.78303E-004	0.00000E+000	-2.42964E-005	-1.68088E-001	8.73225E-002	3.57880E+000	9	...........
	36	0.493333	8.32143E-002	-2.79797E-004	0.00000E+000	-2.32831E-005	-1.68088E-001	8.32375E-002	3.57880E+000	9	...........
	37	0.506667	7.92900E-002	-2.77710E-004	0.00000E+000	-2.20196E-005	-1.68088E-001	7.93120E-002	3.57880E+000	9	...........
	38	0.52	7.54394E-002	-2.78790E-004	0.00000E+000	-2.10317E-005	-1.68088E-001	7.54636E-002	3.57880E+000	9	...........
	39	0.533333	7.16630E-002	-2.77814E-004	0.00000E+000	-1.99090E-005	-1.68088E-001	7.16776E-002	3.57827E+000	9	...........
	40	0.546667	6.79978E-002	-2.78902E-004	0.00000E+000	-1.89647E-005	-1.68088E-001	6.80140E-002	3.57820E+000	9	...........
	41	0.56	6.44245E-002	-2.78970E-004	0.00000E+000	-1.79725E-005	-1.68088E-001	6.44400E-002	3.57820E+000	9	...........
	42	0.573333	6.09184E-002	-2.78745E-004	0.00000E+000	-1.69807E-005	-1.68088E-001	6.09317E-002	3.57820E+000	9	...........
	43	0.586667	5.75018E-002	-2.79746E-004	0.00000E+000	-1.60859E-005	-1.68088E-001	5.75133E-002	3.57820E+000	9	...........
	44	0.6	5.41195E-002	-2.79149E-004	0.00000E+000	-1.51074E-005	-1.68088E-001	5.41352E-002	3.57820E+000	9	...........
	45	0.613333	5.08540E-002	-2.78257E-004	0.00000E+000	-1.41505E-005	-1.68088E-001	5.08620E-002	3.57820E+000	9	...........
	46	0.626667	4.76716E-002	-2.78859E-004	0.00000E+000	-1.32937E-005	-1.68088E-001	4.76804E-002	3.57820E+000	9	...........
	47	0.64	4.45026E-002	-2.78864E-004	0.00000E+000	-1.24101E-005	-1.68088E-001	4.45169E-002	3.57820E+000	9	...........
	48	0.653333	4.14258E-002	-2.78035E-004	0.00000E+000	-1.15178E-005	-1.68088E-001	4.14347E-002	3.57820E+000	9	...........
	49	0.666667	3.84296E-002	-2.78299E-004	0.00000E+000	-1.06949E-005	-1.68088E-001	3.84390E-002	3.57820E+000	9	...........
	50	0.68	3.54203E-002	-2.78713E-004	0.00000E+000	-9.87212E-006	-1.68088E-001	3.54307E-002	3.57820E+000	9	...........
	51	0.693333	3.24777E-002	-2.79538E-004	0.00000E+000	-9.07873E-006	-1.68088E-001	3.24827E-002	3.57820E+000	9	...........
	52	0.706667	2.96136E-002	-2.78525E-004	0.00000E+000	-8.24812E-006	-1.68088E-001	2.96200E-002	3.57820E+000	9	...........
	53	0.72	2.67790E-002	-2.79318E-004	0.00000E+000	-7.47985E-006	-1.68088E-001	2.67850E-002	3.57820E+000	9	...........
	54	0.733333	2.39921E-002	-2.79105E-004	0.00000E+000	-6.69633E-006	-1.68088E-001	2.39912E-002	3.57820E+000	9	...........
	55	0.746667	2.12263E-002	-2.78732E-004	0.00000E+000	-5.91645E-006	-1.68088E-001	2.12281E-002	3.57820E+000	9	...........
	56	0.76	1.85487E-002	-2.78461E-004	0.00000E+000	-5.16510E-006	-1.68088E-001	1.85434E-002	3.57820E+000	9	...........
	57	0.773333	1.58855E-002	-2.80668E-004	0.00000E+000	-4.45856E-006	-1.68088E-001	1.58826E-002	3.57820E+000	9	...........
	58	0.786667	1.32648E-002	-2.79353E-004	0.00000E+000	-3.70556E-006	-1.68088E-001	1.32576E-002	3.57820E+000	9	...........
	59	0.8	1.06684E-002	-2.77960E-004	0.00000E+000	-2.96540E-006	-1.68088E-001	1.06624E-002	3.57820E+000	9	...........
	60	0.813333	8.10197E-003	-2.78248E-004	0.00000E+000	-2.25435E-006	-1.68088E-001	8.09424E-003	3.57820E+000	9	...........
	61	0.826667	5.55317E-003	-2.78209E-004	0.00000E+000	-1.54494E-006	-1.68088E-001	5.54675E-003	3.57820E+000	9	...........
	62	0.84	3.05577E-003	-2.80061E-004	0.00000E+000	-8.55801E-007	-1.68088E-001	3.03994E-003	3.57820E+000	9	...........
	63	0.851667	7.51780E-004	-2.79178E-004	0.00000E+000	-2.09880E-007	-1.68088E-001	7.33710E-004	3.57820E+000	9	...........
STARTTIMEOFFSET	QUANT	1400.928	Start Time Offset (s)
