EXPLAIN
TAG	PWR800_DISCHARGE
TITLE	LABEL	PWR Cyclic Charge Discharge (Cell) - Discharge Step	Test &Identifier
DATE	LABEL	7-7-2017	Date
TIME	LABEL	15:56:58	Time
NOTES	NOTES	3	&Notes...
	supercap test cell
	2.8mg
	6M KOH
PSTAT	PSTAT	IFC5000-01520	Potentiostat
CAPACITY	QUANT	1.00000E-003	Capacity (A-hr)
CELLTYPE	SELECTOR	1	&Cell Type
WORKINGCONNECTION	SELECTOR	0	&Working Lead
MAXDISCHARGETIME	VARIABLEANDUNITS	1.00000E+002	s	1.00000E+002	second(s)	Max &Discharge Time
DISCHARGEMODE	MULTIPARAM	0	2.80000E-004	&Discharge Mode	Constant Current	Amp(s)
SAMPLETIME	QUANT	1.00000E-002	Sa&mple Period (s)
DISCHARGESTOPAT1	MULTIPARAM	3	0.00000E+000	Discharge Stop At &1	Voltage < Limit	V
DISCHARGESTOPAT2	MULTIPARAM	0	0.00000E+000	Discharge Stop At &2	None	N/A
AESBHCSELECTOR	TOGGLE	F	Save Both Half Cells
IRCOMP	TOGGLE	F	IR &Measure
EOC	QUANT	0	Open Circuit (V)
SEQUENCER	TOGGLE	TRUE	Run as Sequence
PSTATMODEL	IQUANT	53	Pstat Model
PSTATSECTION	LABEL	IFC5000-01520	Pstat Section
PSTATSERIALNO	LABEL	01520	Pstat Serial Number
CTRLMODE	IQUANT	0	Control Mode
ELECTROMETER	IQUANT	1	RE=0 or CS=1
IESTAB	IQUANT	0	I/E Stability
CASPEED	IQUANT	4	Control Amp Speed
CONVENTION	IQUANT	1	Current Convention
ICHRANGE	IQUANT	2	Ich Range
ICHRANGEMODE	TOGGLE	T	Ich Auto Range
ICHOFFSETENABLE	TOGGLE	F	Ich Offset Enable
ICHOFFSET	QUANT	0	Ich Offset (V)
ICHFILTER	IQUANT	1	Ich Filter
VCHRANGE	IQUANT	2	Vch Range
VCHRANGEMODE	TOGGLE	T	Vch Auto Range
VCHOFFSETENABLE	TOGGLE	F	Vch Offset Enable
VCHOFFSET	QUANT	0	Vch Offset (V)
VCHFILTER	IQUANT	1	Vch Filter
IERANGELOWERLIMIT	IQUANT	9	I/E Range Lower Limit
IERANGEMODE	TOGGLE	F	I/E AutoRange
IERANGE	IQUANT	9	I/E Range
ACHSELECT	IQUANT	1	Ach Select
ACHRANGE	IQUANT	2	Ach Range
ACHOFFSETENABLE	TOGGLE	F	Ach Offset Enable
ACHOFFSET	QUANT	0	Ach Offset (V)
ACHFILTER	IQUANT	1	Ach Filter
CABLEID	IQUANT	14	Cable ID
DCCALDATE	LABEL	5-7-2017	DC Calibration Date
ACCALDATE	LABEL	12/3/2015	AC Calibration Date
FRAMEWORKVERSION	QUANT	7.01	Framework Version
INSTRUMENTVERSION	LABEL	4.00	Instrument Version
CURVE	TABLE	76
	Pt	T	Vf	Im	Vu	Pwr	Sig	Ach	Temp	IERange	Over
	#	s	V	A	V	W	V	V	deg C	#	bits
	0	0.013333	5.34807E-001	-2.79184E-004	0.00000E+000	-1.49310E-004	-1.68088E-001	5.35046E-001	3.57800E+000	9	...........
	1	0.026667	5.03017E-001	-2.78869E-004	0.00000E+000	-1.40276E-004	-1.68088E-001	5.03255E-001	3.57800E+000	9	...........
	2	0.04	4.74280E-001	-2.79263E-004	0.00000E+000	-1.32449E-004	-1.68088E-001	4.74422E-001	3.57800E+000	9	...........
	3	0.053333	4.47600E-001	-2.77907E-004	0.00000E+000	-1.24391E-004	-1.68088E-001	4.47710E-001	3.57800E+000	9	...........
	4	0.066667	4.22765E-001	-2.79172E-004	0.00000E+000	-1.18024E-004	-1.68088E-001	4.22873E-001	3.57800E+000	9	...........
	5	0.08	3.99692E-001	-2.78940E-004	0.00000E+000	-1.11490E-004	-1.68088E-001	3.99785E-001	3.57800E+000	9	...........
	6	0.093333	3.78237E-001	-2.79581E-004	0.00000E+000	-1.05748E-004	-1.68088E-001	3.78325E-001	3.57800E+000	9	...........
	7	0.106667	3.58275E-001	-2.77492E-004	0.00000E+000	-9.94186E-005	-1.68088E-001	3.58360E-001	3.57800E+000	9	...........
	8	0.12	3.39705E-001	-2.78629E-004	0.00000E+000	-9.46517E-005	-1.68088E-001	3.39787E-001	3.57800E+000	9	...........
	9	0.133333	3.22461E-001	-2.78664E-004	0.00000E+000	-8.98585E-005	-1.68088E-001	3.22547E-001	3.57800E+000	9	...........
	10	0.146667	3.06458E-001	-2.78610E-004	0.00000E+000	-8.53823E-005	-1.68088E-001	3.06534E-001	3.57800E+000	9	...........
	11	0.16	2.91599E-001	-2.78327E-004	0.00000E+000	-8.11598E-005	-1.68088E-001	2.91670E-001	3.57800E+000	9	...........
	12	0.173333	2.77785E-001	-2.79347E-004	0.00000E+000	-7.75984E-005	-1.68088E-001	2.77852E-001	3.57800E+000	9	...........
	13	0.186667	2.64909E-001	-2.79258E-004	0.00000E+000	-7.39782E-005	-1.68088E-001	2.64973E-001	3.57800E+000	9	...........
	14	0.2	2.52968E-001	-2.79365E-004	0.00000E+000	-7.06703E-005	-1.68088E-001	2.53031E-001	3.57800E+000	9	...........
	15	0.213333	2.41842E-001	-2.78766E-004	0.00000E+000	-6.74172E-005	-1.68088E-001	2.41900E-001	3.57800E+000	9	...........
	16	0.226667	2.31429E-001	-2.79994E-004	0.00000E+000	-6.47988E-005	-1.68088E-001	2.31479E-001	3.57800E+000	9	...........
	17	0.24	2.21665E-001	-2.79184E-004	0.00000E+000	-6.18855E-005	-1.68088E-001	2.21716E-001	3.57800E+000	9	...........
	18	0.253333	2.12497E-001	-2.78606E-004	0.00000E+000	-5.92031E-005	-1.68088E-001	2.12544E-001	3.57800E+000	9	...........
	19	0.266667	2.03916E-001	-2.78824E-004	0.00000E+000	-5.68567E-005	-1.68088E-001	2.03964E-001	3.57800E+000	9	...........
	20	0.28	1.95884E-001	-2.79482E-004	0.00000E+000	-5.47461E-005	-1.68088E-001	1.95934E-001	3.57800E+000	9	...........
	21	0.293333	1.88339E-001	-2.78258E-004	0.00000E+000	-5.24068E-005	-1.68088E-001	1.88380E-001	3.57800E+000	9	...........
	22	0.306667	1.81172E-001	-2.79227E-004	0.00000E+000	-5.05880E-005	-1.68088E-001	1.81221E-001	3.57800E+000	9	...........
	23	0.32	1.74420E-001	-2.78998E-004	0.00000E+000	-4.86629E-005	-1.68088E-001	1.74465E-001	3.57800E+000	9	...........
	24	0.333333	1.67974E-001	-2.78123E-004	0.00000E+000	-4.67174E-005	-1.68088E-001	1.68019E-001	3.57800E+000	9	...........
	25	0.346667	1.61890E-001	-2.77558E-004	0.00000E+000	-4.49338E-005	-1.68088E-001	1.61934E-001	3.57800E+000	9	...........
	26	0.36	1.56122E-001	-2.79233E-004	0.00000E+000	-4.35944E-005	-1.68088E-001	1.56158E-001	3.57800E+000	9	...........
	27	0.373333	1.50492E-001	-2.78889E-004	0.00000E+000	-4.19706E-005	-1.68088E-001	1.50530E-001	3.57800E+000	9	...........
	28	0.386667	1.45145E-001	-2.80115E-004	0.00000E+000	-4.06573E-005	-1.68088E-001	1.45183E-001	3.57800E+000	9	...........
	29	0.4	1.40053E-001	-2.78816E-004	0.00000E+000	-3.90491E-005	-1.68088E-001	1.40085E-001	3.57800E+000	9	...........
	30	0.413333	1.35119E-001	-2.79245E-004	0.00000E+000	-3.77311E-005	-1.68088E-001	1.35149E-001	3.57800E+000	9	...........
	31	0.426667	1.30405E-001	-2.77606E-004	0.00000E+000	-3.62013E-005	-1.68088E-001	1.30435E-001	3.57800E+000	9	...........
	32	0.44	1.25868E-001	-2.78424E-004	0.00000E+000	-3.50446E-005	-1.68088E-001	1.25893E-001	3.57800E+000	9	...........
	33	0.453333	1.21451E-001	-2.79449E-004	0.00000E+000	-3.39395E-005	-1.68088E-001	1.21484E-001	3.57800E+000	9	...........
	34	0.466667	1.17198E-001	-2.78841E-004	0.00000E+000	-3.26796E-005	-1.68088E-001	1.17220E-001	3.57800E+000	9	...........
	35	0.48	1.13070E-001	-2.78464E-004	0.00000E+000	-3.14860E-005	-1.68088E-001	1.13100E-001	3.57800E+000	9	...........
	36	0.493333	1.09044E-001	-2.80076E-004	0.00000E+000	-3.05405E-005	-1.68088E-001	1.09069E-001	3.57800E+000	9	...........
	37	0.506667	1.05107E-001	-2.79659E-004	0.00000E+000	-2.93940E-005	-1.68088E-001	1.05135E-001	3.57800E+000	9	...........
	38	0.52	1.01305E-001	-2.78761E-004	0.00000E+000	-2.82398E-005	-1.68088E-001	1.01329E-001	3.57800E+000	9	...........
	39	0.533333	9.75798E-002	-2.78484E-004	0.00000E+000	-2.71744E-005	-1.68088E-001	9.76065E-002	3.57800E+000	9	...........
	40	0.546667	9.39790E-002	-2.78852E-004	0.00000E+000	-2.62062E-005	-1.68088E-001	9.39941E-002	3.57800E+000	9	...........
	41	0.56	9.04454E-002	-2.79581E-004	0.00000E+000	-2.52868E-005	-1.68088E-001	9.04694E-002	3.57765E+000	9	...........
	42	0.573333	8.70122E-002	-2.78973E-004	0.00000E+000	-2.42740E-005	-1.68088E-001	8.70299E-002	3.57760E+000	9	...........
	43	0.586667	8.36256E-002	-2.78106E-004	0.00000E+000	-2.32568E-005	-1.68088E-001	8.36451E-002	3.57760E+000	9	...........
	44	0.6	8.03111E-002	-2.79364E-004	0.00000E+000	-2.24360E-005	-1.68088E-001	8.03277E-002	3.57760E+000	9	...........
	45	0.613333	7.70814E-002	-2.79628E-004	0.00000E+000	-2.15541E-005	-1.68088E-001	7.70999E-002	3.57760E+000	9	...........
	46	0.626667	7.39485E-002	-2.78382E-004	0.00000E+000	-2.05860E-005	-1.68088E-001	7.39668E-002	3.57760E+000	9	...........
	47	0.64	7.07999E-002	-2.79558E-004	0.00000E+000	-1.97927E-005	-1.68088E-001	7.08086E-002	3.57760E+000	9	...........
	48	0.653333	6.77037E-002	-2.78347E-004	0.00000E+000	-1.88451E-005	-1.68088E-001	6.77128E-002	3.57760E+000	9	...........
	49	0.666667	6.46719E-002	-2.80359E-004	0.00000E+000	-1.81313E-005	-1.68088E-001	6.46807E-002	3.57760E+000	9	...........
	50	0.68	6.17259E-002	-2.78350E-004	0.00000E+000	-1.71814E-005	-1.68088E-001	6.17342E-002	3.57760E+000	9	...........
	51	0.693333	5.87932E-002	-2.78577E-004	0.00000E+000	-1.63784E-005	-1.68088E-001	5.88054E-002	3.57760E+000	9	...........
	52	0.706667	5.59543E-002	-2.79483E-004	0.00000E+000	-1.56383E-005	-1.68088E-001	5.59639E-002	3.57760E+000	9	...........
	53	0.72	5.31298E-002	-2.78400E-004	0.00000E+000	-1.47913E-005	-1.68088E-001	5.31371E-002	3.57760E+000	9	...........
	54	0.733333	5.03873E-002	-2.79439E-004	0.00000E+000	-1.40802E-005	-1.68088E-001	5.04022E-002	3.57760E+000	9	...........
	55	0.746667	4.76971E-002	-2.78281E-004	0.00000E+000	-1.32732E-005	-1.68088E-001	4.77082E-002	3.57760E+000	9	...........
	56	0.76	4.50130E-002	-2.79165E-004	0.00000E+000	-1.25660E-005	-1.68088E-001	4.50208E-002	3.57760E+000	9	...........
	57	0.773333	4.23660E-002	-2.79214E-004	0.00000E+000	-1.18292E-005	-1.68088E-001	4.23771E-002	3.57760E+000	9	...........
	58	0.786667	3.97061E-002	-2.79404E-004	0.00000E+000	-1.10941E-005	-1.68088E-001	3.97139E-002	3.57760E+000	9	...........
	59	0.8	3.70884E-002	-2.79233E-004	0.00000E+000	-1.03563E-005	-1.68088E-001	3.70903E-002	3.57760E+000	9	...........
	60	0.813333	3.44971E-002	-2.79090E-004	0.00000E+000	-9.62777E-006	-1.68088E-001	3.44991E-002	3.57760E+000	9	...........
	61	0.826667	3.19349E-002	-2.78438E-004	0.00000E+000	-8.89190E-006	-1.68088E-001	3.19344E-002	3.57760E+000	9	...........
	62	0.84	2.93736E-002	-2.77774E-004	0.00000E+000	-8.15921E-006	-1.68088E-001	2.93743E-002	3.57760E+000	9	...........
	63	0.853333	2.68688E-002	-2.78920E-004	0.00000E+000	-7.49425E-006	-1.68088E-001	2.68672E-002	3.57760E+000	9	...........
	64	0.866667	2.44138E-002	-2.79203E-004	0.00000E+000	-6.81640E-006	-1.68088E-001	2.44120E-002	3.57760E+000	9	...........
	65	0.88	2.19743E-002	-2.78724E-004	0.00000E+000	-6.12478E-006	-1.68088E-001	2.19718E-002	3.57760E+000	9	...........
	66	0.893333	1.95643E-002	-2.79744E-004	0.00000E+000	-5.47300E-006	-1.68088E-001	1.95563E-002	3.57760E+000	9	...........
	67	0.906667	1.71965E-002	-2.78118E-004	0.00000E+000	-4.78265E-006	-1.68088E-001	1.71887E-002	3.57760E+000	9	...........
	68	0.92	1.49132E-002	-2.79899E-004	0.00000E+000	-4.17418E-006	-1.68088E-001	1.49024E-002	3.57760E+000	9	...........
	69	0.933333	1.26350E-002	-2.78812E-004	0.00000E+000	-3.52279E-006	-1.68088E-001	1.26211E-002	3.57760E+000	9	...........
	70	0.946667	1.03333E-002	-2.78131E-004	0.00000E+000	-2.87400E-006	-1.68088E-001	1.03240E-002	3.57760E+000	9	...........
	71	0.96	8.10505E-003	-2.78957E-004	0.00000E+000	-2.26096E-006	-1.68088E-001	8.09088E-003	3.57760E+000	9	...........
	72	0.97333	5.90689E-003	-2.78901E-004	0.00000E+000	-1.64744E-006	-1.68088E-001	5.88685E-003	3.57760E+000	9	...........
	73	0.98667	3.68572E-003	-2.79550E-004	0.00000E+000	-1.03034E-006	-1.68088E-001	3.66836E-003	3.57760E+000	9	...........
	74	1	1.49521E-003	-2.78532E-004	0.00000E+000	-4.16465E-007	-1.68088E-001	1.47749E-003	3.57760E+000	9	...........
	75	1.005	8.37485E-006	-2.78378E-004	0.00000E+000	-2.33138E-009	-1.68088E-001	-1.88148E-005	3.57760E+000	9	...........
STARTTIMEOFFSET	QUANT	979.84	Start Time Offset (s)
