EXPLAIN
TAG	PWR800_DISCHARGE
TITLE	LABEL	PWR Cyclic Charge Discharge (Cell) - Discharge Step	Test &Identifier
DATE	LABEL	7-7-2017	Date
TIME	LABEL	16:09:42	Time
NOTES	NOTES	3	&Notes...
	supercap test cell
	2.8mg
	6M KOH
PSTAT	PSTAT	IFC5000-01520	Potentiostat
CAPACITY	QUANT	1.00000E-003	Capacity (A-hr)
CELLTYPE	SELECTOR	1	&Cell Type
WORKINGCONNECTION	SELECTOR	0	&Working Lead
MAXDISCHARGETIME	VARIABLEANDUNITS	1.00000E+002	s	1.00000E+002	second(s)	Max &Discharge Time
DISCHARGEMODE	MULTIPARAM	0	2.80000E-004	&Discharge Mode	Constant Current	Amp(s)
SAMPLETIME	QUANT	1.00000E-002	Sa&mple Period (s)
DISCHARGESTOPAT1	MULTIPARAM	3	0.00000E+000	Discharge Stop At &1	Voltage < Limit	V
DISCHARGESTOPAT2	MULTIPARAM	0	0.00000E+000	Discharge Stop At &2	None	N/A
AESBHCSELECTOR	TOGGLE	F	Save Both Half Cells
IRCOMP	TOGGLE	F	IR &Measure
EOC	QUANT	0	Open Circuit (V)
SEQUENCER	TOGGLE	TRUE	Run as Sequence
PSTATMODEL	IQUANT	53	Pstat Model
PSTATSECTION	LABEL	IFC5000-01520	Pstat Section
PSTATSERIALNO	LABEL	01520	Pstat Serial Number
CTRLMODE	IQUANT	0	Control Mode
ELECTROMETER	IQUANT	1	RE=0 or CS=1
IESTAB	IQUANT	0	I/E Stability
CASPEED	IQUANT	4	Control Amp Speed
CONVENTION	IQUANT	1	Current Convention
ICHRANGE	IQUANT	2	Ich Range
ICHRANGEMODE	TOGGLE	T	Ich Auto Range
ICHOFFSETENABLE	TOGGLE	F	Ich Offset Enable
ICHOFFSET	QUANT	0	Ich Offset (V)
ICHFILTER	IQUANT	1	Ich Filter
VCHRANGE	IQUANT	2	Vch Range
VCHRANGEMODE	TOGGLE	T	Vch Auto Range
VCHOFFSETENABLE	TOGGLE	F	Vch Offset Enable
VCHOFFSET	QUANT	0	Vch Offset (V)
VCHFILTER	IQUANT	1	Vch Filter
IERANGELOWERLIMIT	IQUANT	9	I/E Range Lower Limit
IERANGEMODE	TOGGLE	F	I/E AutoRange
IERANGE	IQUANT	9	I/E Range
ACHSELECT	IQUANT	1	Ach Select
ACHRANGE	IQUANT	2	Ach Range
ACHOFFSETENABLE	TOGGLE	F	Ach Offset Enable
ACHOFFSET	QUANT	0	Ach Offset (V)
ACHFILTER	IQUANT	1	Ach Filter
CABLEID	IQUANT	14	Cable ID
DCCALDATE	LABEL	5-7-2017	DC Calibration Date
ACCALDATE	LABEL	12/3/2015	AC Calibration Date
FRAMEWORKVERSION	QUANT	7.01	Framework Version
INSTRUMENTVERSION	LABEL	4.00	Instrument Version
CURVE	TABLE	61
	Pt	T	Vf	Im	Vu	Pwr	Sig	Ach	Temp	IERange	Over
	#	s	V	A	V	W	V	V	deg C	#	bits
	0	0.013333	5.28072E-001	-2.78624E-004	0.00000E+000	-1.47133E-004	-1.68088E-001	5.28284E-001	3.57820E+000	9	...........
	1	0.026667	4.94862E-001	-2.79062E-004	0.00000E+000	-1.38097E-004	-1.68088E-001	4.95078E-001	3.57820E+000	9	...........
	2	0.04	4.64674E-001	-2.78462E-004	0.00000E+000	-1.29394E-004	-1.68088E-001	4.64787E-001	3.57820E+000	9	...........
	3	0.053333	4.36392E-001	-2.78086E-004	0.00000E+000	-1.21355E-004	-1.68088E-001	4.36496E-001	3.57820E+000	9	...........
	4	0.066667	4.09968E-001	-2.79085E-004	0.00000E+000	-1.14416E-004	-1.68088E-001	4.10066E-001	3.57820E+000	9	...........
	5	0.08	3.85309E-001	-2.77936E-004	0.00000E+000	-1.07091E-004	-1.68088E-001	3.85401E-001	3.57820E+000	9	...........
	6	0.093333	3.62266E-001	-2.79079E-004	0.00000E+000	-1.01101E-004	-1.68088E-001	3.62355E-001	3.57820E+000	9	...........
	7	0.106667	3.40799E-001	-2.79727E-004	0.00000E+000	-9.53309E-005	-1.68088E-001	3.40880E-001	3.57820E+000	9	...........
	8	0.12	3.20831E-001	-2.79216E-004	0.00000E+000	-8.95809E-005	-1.68088E-001	3.20913E-001	3.57820E+000	9	...........
	9	0.133333	3.02242E-001	-2.78944E-004	0.00000E+000	-8.43085E-005	-1.68088E-001	3.02319E-001	3.57820E+000	9	...........
	10	0.146667	2.84957E-001	-2.77806E-004	0.00000E+000	-7.91629E-005	-1.68088E-001	2.85028E-001	3.57820E+000	9	...........
	11	0.16	2.68907E-001	-2.79073E-004	0.00000E+000	-7.50446E-005	-1.68088E-001	2.68975E-001	3.57820E+000	9	...........
	12	0.173333	2.54037E-001	-2.78699E-004	0.00000E+000	-7.07998E-005	-1.68088E-001	2.54101E-001	3.57820E+000	9	...........
	13	0.186667	2.40192E-001	-2.79500E-004	0.00000E+000	-6.71338E-005	-1.68088E-001	2.40254E-001	3.57820E+000	9	...........
	14	0.2	2.27329E-001	-2.78638E-004	0.00000E+000	-6.33425E-005	-1.68088E-001	2.27386E-001	3.57820E+000	9	...........
	15	0.213333	2.15372E-001	-2.78598E-004	0.00000E+000	-6.00022E-005	-1.68088E-001	2.15428E-001	3.57820E+000	9	...........
	16	0.226667	2.04210E-001	-2.78658E-004	0.00000E+000	-5.69047E-005	-1.68088E-001	2.04261E-001	3.57820E+000	9	...........
	17	0.24	1.93811E-001	-2.78563E-004	0.00000E+000	-5.39886E-005	-1.68088E-001	1.93862E-001	3.57820E+000	9	...........
	18	0.253333	1.84096E-001	-2.79118E-004	0.00000E+000	-5.13845E-005	-1.68088E-001	1.84140E-001	3.57820E+000	9	...........
	19	0.266667	1.74961E-001	-2.79408E-004	0.00000E+000	-4.88857E-005	-1.68088E-001	1.75012E-001	3.57807E+000	9	...........
	20	0.28	1.66401E-001	-2.78871E-004	0.00000E+000	-4.64044E-005	-1.68088E-001	1.66443E-001	3.57800E+000	9	...........
	21	0.293333	1.58396E-001	-2.78754E-004	0.00000E+000	-4.41535E-005	-1.68088E-001	1.58433E-001	3.57800E+000	9	...........
	22	0.306667	1.50892E-001	-2.80280E-004	0.00000E+000	-4.22920E-005	-1.68088E-001	1.50927E-001	3.57800E+000	9	...........
	23	0.32	1.43802E-001	-2.78813E-004	0.00000E+000	-4.00940E-005	-1.68088E-001	1.43835E-001	3.57800E+000	9	...........
	24	0.333333	1.37124E-001	-2.78420E-004	0.00000E+000	-3.81780E-005	-1.68088E-001	1.37154E-001	3.57800E+000	9	...........
	25	0.346667	1.30795E-001	-2.78827E-004	0.00000E+000	-3.64692E-005	-1.68088E-001	1.30829E-001	3.57800E+000	9	...........
	26	0.36	1.24766E-001	-2.78779E-004	0.00000E+000	-3.47821E-005	-1.68088E-001	1.24803E-001	3.57800E+000	9	...........
	27	0.373333	1.18961E-001	-2.80378E-004	0.00000E+000	-3.33541E-005	-1.68088E-001	1.18994E-001	3.57800E+000	9	...........
	28	0.386667	1.13425E-001	-2.79078E-004	0.00000E+000	-3.16543E-005	-1.68088E-001	1.13451E-001	3.57800E+000	9	...........
	29	0.4	1.08124E-001	-2.80218E-004	0.00000E+000	-3.02982E-005	-1.68088E-001	1.08156E-001	3.57800E+000	9	...........
	30	0.413333	1.03077E-001	-2.78176E-004	0.00000E+000	-2.86736E-005	-1.68088E-001	1.03101E-001	3.57800E+000	9	...........
	31	0.426667	9.82279E-002	-2.77887E-004	0.00000E+000	-2.72963E-005	-1.68088E-001	9.82621E-002	3.57800E+000	9	...........
	32	0.44	9.35690E-002	-2.80153E-004	0.00000E+000	-2.62137E-005	-1.68088E-001	9.35970E-002	3.57800E+000	9	...........
	33	0.453333	8.90660E-002	-2.78903E-004	0.00000E+000	-2.48408E-005	-1.68088E-001	8.90911E-002	3.57800E+000	9	...........
	34	0.466667	8.46834E-002	-2.79291E-004	0.00000E+000	-2.36513E-005	-1.68088E-001	8.47025E-002	3.57800E+000	9	...........
	35	0.48	8.04691E-002	-2.79684E-004	0.00000E+000	-2.25059E-005	-1.68088E-001	8.04865E-002	3.57800E+000	9	...........
	36	0.493333	7.63778E-002	-2.80261E-004	0.00000E+000	-2.14057E-005	-1.68088E-001	7.63927E-002	3.57800E+000	9	...........
	37	0.506667	7.24042E-002	-2.79091E-004	0.00000E+000	-2.02073E-005	-1.68088E-001	7.24167E-002	3.57800E+000	9	...........
	38	0.52	6.85313E-002	-2.78627E-004	0.00000E+000	-1.90947E-005	-1.68088E-001	6.85427E-002	3.57800E+000	9	...........
	39	0.533333	6.47401E-002	-2.79917E-004	0.00000E+000	-1.81218E-005	-1.68088E-001	6.47565E-002	3.57800E+000	9	...........
	40	0.546667	6.10490E-002	-2.78273E-004	0.00000E+000	-1.69883E-005	-1.68088E-001	6.10642E-002	3.57800E+000	9	...........
	41	0.56	5.74075E-002	-2.79308E-004	0.00000E+000	-1.60344E-005	-1.68088E-001	5.74210E-002	3.57800E+000	9	...........
	42	0.573333	5.39322E-002	-2.79417E-004	0.00000E+000	-1.50696E-005	-1.68088E-001	5.39414E-002	3.57800E+000	9	...........
	43	0.586667	5.05130E-002	-2.78208E-004	0.00000E+000	-1.40531E-005	-1.68088E-001	5.05236E-002	3.57800E+000	9	...........
	44	0.6	4.71935E-002	-2.78061E-004	0.00000E+000	-1.31227E-005	-1.68088E-001	4.72011E-002	3.57800E+000	9	...........
	45	0.613333	4.39093E-002	-2.78561E-004	0.00000E+000	-1.22314E-005	-1.68088E-001	4.39237E-002	3.57800E+000	9	...........
	46	0.626667	4.06797E-002	-2.78872E-004	0.00000E+000	-1.13444E-005	-1.68088E-001	4.06937E-002	3.57800E+000	9	...........
	47	0.64	3.75216E-002	-2.78976E-004	0.00000E+000	-1.04676E-005	-1.68088E-001	3.75269E-002	3.57800E+000	9	...........
	48	0.653333	3.43962E-002	-2.79386E-004	0.00000E+000	-9.60982E-006	-1.68088E-001	3.44020E-002	3.57800E+000	9	...........
	49	0.666667	3.13418E-002	-2.79285E-004	0.00000E+000	-8.75332E-006	-1.68088E-001	3.13456E-002	3.57800E+000	9	...........
	50	0.68	2.83240E-002	-2.79768E-004	0.00000E+000	-7.92415E-006	-1.68088E-001	2.83281E-002	3.57800E+000	9	...........
	51	0.693333	2.53979E-002	-2.79470E-004	0.00000E+000	-7.09795E-006	-1.68088E-001	2.53944E-002	3.57800E+000	9	...........
	52	0.706667	2.25400E-002	-2.78812E-004	0.00000E+000	-6.28442E-006	-1.68088E-001	2.25359E-002	3.57800E+000	9	...........
	53	0.72	1.96827E-002	-2.80570E-004	0.00000E+000	-5.52237E-006	-1.68088E-001	1.96828E-002	3.57800E+000	9	...........
	54	0.733333	1.68770E-002	-2.78087E-004	0.00000E+000	-4.69329E-006	-1.68088E-001	1.68748E-002	3.57800E+000	9	...........
	55	0.746667	1.41425E-002	-2.78990E-004	0.00000E+000	-3.94561E-006	-1.68088E-001	1.41372E-002	3.57800E+000	9	...........
	56	0.76	1.14011E-002	-2.79184E-004	0.00000E+000	-3.18301E-006	-1.68088E-001	1.13927E-002	3.57800E+000	9	...........
	57	0.773333	8.70991E-003	-2.80072E-004	0.00000E+000	-2.43940E-006	-1.68088E-001	8.70472E-003	3.57800E+000	9	...........
	58	0.786667	6.10259E-003	-2.78473E-004	0.00000E+000	-1.69941E-006	-1.68088E-001	6.09162E-003	3.57800E+000	9	...........
	59	0.8	3.47734E-003	-2.79506E-004	0.00000E+000	-9.71937E-007	-1.68088E-001	3.46667E-003	3.57800E+000	9	...........
	60	0.813333	8.89646E-004	-2.79529E-004	0.00000E+000	-2.48682E-007	-1.68088E-001	8.72813E-004	3.57800E+000	9	...........
STARTTIMEOFFSET	QUANT	1513.556	Start Time Offset (s)
