EXPLAIN
TAG	PWR800_DISCHARGE
TITLE	LABEL	PWR Cyclic Charge Discharge (Cell) - Discharge Step	Test &Identifier
DATE	LABEL	7-7-2017	Date
TIME	LABEL	15:58:03	Time
NOTES	NOTES	3	&Notes...
	supercap test cell
	2.8mg
	6M KOH
PSTAT	PSTAT	IFC5000-01520	Potentiostat
CAPACITY	QUANT	1.00000E-003	Capacity (A-hr)
CELLTYPE	SELECTOR	1	&Cell Type
WORKINGCONNECTION	SELECTOR	0	&Working Lead
MAXDISCHARGETIME	VARIABLEANDUNITS	1.00000E+002	s	1.00000E+002	second(s)	Max &Discharge Time
DISCHARGEMODE	MULTIPARAM	0	2.80000E-004	&Discharge Mode	Constant Current	Amp(s)
SAMPLETIME	QUANT	1.00000E-002	Sa&mple Period (s)
DISCHARGESTOPAT1	MULTIPARAM	3	0.00000E+000	Discharge Stop At &1	Voltage < Limit	V
DISCHARGESTOPAT2	MULTIPARAM	0	0.00000E+000	Discharge Stop At &2	None	N/A
AESBHCSELECTOR	TOGGLE	F	Save Both Half Cells
IRCOMP	TOGGLE	F	IR &Measure
EOC	QUANT	0	Open Circuit (V)
SEQUENCER	TOGGLE	TRUE	Run as Sequence
PSTATMODEL	IQUANT	53	Pstat Model
PSTATSECTION	LABEL	IFC5000-01520	Pstat Section
PSTATSERIALNO	LABEL	01520	Pstat Serial Number
CTRLMODE	IQUANT	0	Control Mode
ELECTROMETER	IQUANT	1	RE=0 or CS=1
IESTAB	IQUANT	0	I/E Stability
CASPEED	IQUANT	4	Control Amp Speed
CONVENTION	IQUANT	1	Current Convention
ICHRANGE	IQUANT	2	Ich Range
ICHRANGEMODE	TOGGLE	T	Ich Auto Range
ICHOFFSETENABLE	TOGGLE	F	Ich Offset Enable
ICHOFFSET	QUANT	0	Ich Offset (V)
ICHFILTER	IQUANT	1	Ich Filter
VCHRANGE	IQUANT	2	Vch Range
VCHRANGEMODE	TOGGLE	T	Vch Auto Range
VCHOFFSETENABLE	TOGGLE	F	Vch Offset Enable
VCHOFFSET	QUANT	0	Vch Offset (V)
VCHFILTER	IQUANT	1	Vch Filter
IERANGELOWERLIMIT	IQUANT	9	I/E Range Lower Limit
IERANGEMODE	TOGGLE	F	I/E AutoRange
IERANGE	IQUANT	9	I/E Range
ACHSELECT	IQUANT	1	Ach Select
ACHRANGE	IQUANT	2	Ach Range
ACHOFFSETENABLE	TOGGLE	F	Ach Offset Enable
ACHOFFSET	QUANT	0	Ach Offset (V)
ACHFILTER	IQUANT	1	Ach Filter
CABLEID	IQUANT	14	Cable ID
DCCALDATE	LABEL	5-7-2017	DC Calibration Date
ACCALDATE	LABEL	12/3/2015	AC Calibration Date
FRAMEWORKVERSION	QUANT	7.01	Framework Version
INSTRUMENTVERSION	LABEL	4.00	Instrument Version
CURVE	TABLE	74
	Pt	T	Vf	Im	Vu	Pwr	Sig	Ach	Temp	IERange	Over
	#	s	V	A	V	W	V	V	deg C	#	bits
	0	0.013333	5.31926E-001	-2.79508E-004	0.00000E+000	-1.48678E-004	-1.68088E-001	5.32167E-001	3.57830E+000	9	...........
	1	0.026667	4.99994E-001	-2.78848E-004	0.00000E+000	-1.39422E-004	-1.68088E-001	5.00274E-001	3.57830E+000	9	...........
	2	0.04	4.71229E-001	-2.78144E-004	0.00000E+000	-1.31069E-004	-1.68088E-001	4.71360E-001	3.57830E+000	9	...........
	3	0.053333	4.44437E-001	-2.79731E-004	0.00000E+000	-1.24323E-004	-1.68088E-001	4.44546E-001	3.57830E+000	9	...........
	4	0.066667	4.19526E-001	-2.78800E-004	0.00000E+000	-1.16964E-004	-1.68088E-001	4.19629E-001	3.57830E+000	9	...........
	5	0.08	3.96374E-001	-2.78542E-004	0.00000E+000	-1.10407E-004	-1.68088E-001	3.96466E-001	3.57830E+000	9	...........
	6	0.093333	3.74823E-001	-2.78502E-004	0.00000E+000	-1.04389E-004	-1.68088E-001	3.74914E-001	3.57830E+000	9	...........
	7	0.106667	3.54790E-001	-2.79040E-004	0.00000E+000	-9.90004E-005	-1.68088E-001	3.54880E-001	3.57830E+000	9	...........
	8	0.12	3.36163E-001	-2.79127E-004	0.00000E+000	-9.38321E-005	-1.68088E-001	3.36244E-001	3.57830E+000	9	...........
	9	0.133333	3.18864E-001	-2.79541E-004	0.00000E+000	-8.91354E-005	-1.68088E-001	3.18940E-001	3.57830E+000	9	...........
	10	0.146667	3.02816E-001	-2.79598E-004	0.00000E+000	-8.46668E-005	-1.68088E-001	3.02895E-001	3.57830E+000	9	...........
	11	0.16	2.87914E-001	-2.79161E-004	0.00000E+000	-8.03745E-005	-1.68088E-001	2.87980E-001	3.57830E+000	9	...........
	12	0.173333	2.74092E-001	-2.79060E-004	0.00000E+000	-7.64882E-005	-1.68088E-001	2.74159E-001	3.57830E+000	9	...........
	13	0.186667	2.61213E-001	-2.79002E-004	0.00000E+000	-7.28791E-005	-1.68088E-001	2.61278E-001	3.57830E+000	9	...........
	14	0.2	2.49241E-001	-2.79781E-004	0.00000E+000	-6.97331E-005	-1.68088E-001	2.49308E-001	3.57830E+000	9	...........
	15	0.213333	2.38100E-001	-2.78886E-004	0.00000E+000	-6.64028E-005	-1.68088E-001	2.38154E-001	3.57830E+000	9	...........
	16	0.226667	2.27698E-001	-2.78984E-004	0.00000E+000	-6.35243E-005	-1.68088E-001	2.27749E-001	3.57830E+000	9	...........
	17	0.24	2.17970E-001	-2.78972E-004	0.00000E+000	-6.08076E-005	-1.68088E-001	2.18019E-001	3.57830E+000	9	...........
	18	0.253333	2.08871E-001	-2.79427E-004	0.00000E+000	-5.83642E-005	-1.68088E-001	2.08917E-001	3.57830E+000	9	...........
	19	0.266667	2.00349E-001	-2.78588E-004	0.00000E+000	-5.58149E-005	-1.68088E-001	2.00393E-001	3.57830E+000	9	...........
	20	0.28	1.92311E-001	-2.79694E-004	0.00000E+000	-5.37883E-005	-1.68088E-001	1.92354E-001	3.57830E+000	9	...........
	21	0.293333	1.84755E-001	-2.79502E-004	0.00000E+000	-5.16395E-005	-1.68088E-001	1.84801E-001	3.57830E+000	9	...........
	22	0.306667	1.77594E-001	-2.78517E-004	0.00000E+000	-4.94629E-005	-1.68088E-001	1.77638E-001	3.57830E+000	9	...........
	23	0.32	1.70782E-001	-2.79121E-004	0.00000E+000	-4.76688E-005	-1.68088E-001	1.70823E-001	3.57830E+000	9	...........
	24	0.333333	1.64386E-001	-2.78680E-004	0.00000E+000	-4.58111E-005	-1.68088E-001	1.64422E-001	3.57830E+000	9	...........
	25	0.346667	1.58276E-001	-2.79148E-004	0.00000E+000	-4.41824E-005	-1.68088E-001	1.58316E-001	3.57830E+000	9	...........
	26	0.36	1.52459E-001	-2.80184E-004	0.00000E+000	-4.27164E-005	-1.68088E-001	1.52493E-001	3.57830E+000	9	...........
	27	0.373333	1.46929E-001	-2.79223E-004	0.00000E+000	-4.10259E-005	-1.68088E-001	1.46962E-001	3.57830E+000	9	...........
	28	0.386667	1.41594E-001	-2.77861E-004	0.00000E+000	-3.93436E-005	-1.68088E-001	1.41625E-001	3.57830E+000	9	...........
	29	0.4	1.36471E-001	-2.78862E-004	0.00000E+000	-3.80568E-005	-1.68088E-001	1.36504E-001	3.57830E+000	9	...........
	30	0.413333	1.31569E-001	-2.78962E-004	0.00000E+000	-3.67028E-005	-1.68088E-001	1.31601E-001	3.57830E+000	9	...........
	31	0.426667	1.26881E-001	-2.79278E-004	0.00000E+000	-3.54350E-005	-1.68088E-001	1.26909E-001	3.57830E+000	9	...........
	32	0.44	1.22343E-001	-2.79322E-004	0.00000E+000	-3.41732E-005	-1.68088E-001	1.22374E-001	3.57830E+000	9	...........
	33	0.453333	1.17956E-001	-2.79054E-004	0.00000E+000	-3.29161E-005	-1.68088E-001	1.17985E-001	3.57830E+000	9	...........
	34	0.466667	1.13685E-001	-2.79516E-004	0.00000E+000	-3.17769E-005	-1.68088E-001	1.13716E-001	3.57830E+000	9	...........
	35	0.48	1.09533E-001	-2.78634E-004	0.00000E+000	-3.05195E-005	-1.68088E-001	1.09561E-001	3.57830E+000	9	...........
	36	0.493333	1.05534E-001	-2.79043E-004	0.00000E+000	-2.94485E-005	-1.68088E-001	1.05559E-001	3.57830E+000	9	...........
	37	0.506667	1.01618E-001	-2.78251E-004	0.00000E+000	-2.82754E-005	-1.68088E-001	1.01650E-001	3.57830E+000	9	...........
	38	0.52	9.78126E-002	-2.78602E-004	0.00000E+000	-2.72508E-005	-1.68088E-001	9.78358E-002	3.57830E+000	9	...........
	39	0.533333	9.41176E-002	-2.79159E-004	0.00000E+000	-2.62738E-005	-1.68088E-001	9.41377E-002	3.57830E+000	9	...........
	40	0.546667	9.04991E-002	-2.78840E-004	0.00000E+000	-2.52347E-005	-1.68088E-001	9.05245E-002	3.57830E+000	9	...........
	41	0.56	8.69682E-002	-2.79223E-004	0.00000E+000	-2.42835E-005	-1.68088E-001	8.69875E-002	3.57830E+000	9	...........
	42	0.573333	8.34808E-002	-2.78209E-004	0.00000E+000	-2.32251E-005	-1.68088E-001	8.35009E-002	3.57830E+000	9	...........
	43	0.586667	8.01094E-002	-2.78787E-004	0.00000E+000	-2.23335E-005	-1.68088E-001	8.01207E-002	3.57830E+000	9	...........
	44	0.6	7.68085E-002	-2.79116E-004	0.00000E+000	-2.14384E-005	-1.68088E-001	7.68192E-002	3.57830E+000	9	...........
	45	0.613333	7.35758E-002	-2.78425E-004	0.00000E+000	-2.04853E-005	-1.68088E-001	7.35817E-002	3.57830E+000	9	...........
	46	0.626667	7.03790E-002	-2.77784E-004	0.00000E+000	-1.95502E-005	-1.68088E-001	7.03874E-002	3.57830E+000	9	...........
	47	0.64	6.72643E-002	-2.79831E-004	0.00000E+000	-1.88227E-005	-1.68088E-001	6.72676E-002	3.57830E+000	9	...........
	48	0.653333	6.42068E-002	-2.77989E-004	0.00000E+000	-1.78488E-005	-1.68088E-001	6.42168E-002	3.57830E+000	9	...........
	49	0.666667	6.11821E-002	-2.78436E-004	0.00000E+000	-1.70353E-005	-1.68088E-001	6.11952E-002	3.57830E+000	9	...........
	50	0.68	5.82151E-002	-2.79019E-004	0.00000E+000	-1.62431E-005	-1.68088E-001	5.82244E-002	3.57830E+000	9	...........
	51	0.693333	5.53117E-002	-2.79346E-004	0.00000E+000	-1.54511E-005	-1.68088E-001	5.53176E-002	3.57830E+000	9	...........
	52	0.706667	5.24548E-002	-2.79072E-004	0.00000E+000	-1.46387E-005	-1.68088E-001	5.24645E-002	3.57830E+000	9	...........
	53	0.72	4.96425E-002	-2.78915E-004	0.00000E+000	-1.38460E-005	-1.68088E-001	4.96464E-002	3.57830E+000	9	...........
	54	0.733333	4.69023E-002	-2.79354E-004	0.00000E+000	-1.31023E-005	-1.68088E-001	4.69180E-002	3.57848E+000	9	...........
	55	0.746667	4.41106E-002	-2.79425E-004	0.00000E+000	-1.23256E-005	-1.68088E-001	4.41244E-002	3.57900E+000	9	...........
	56	0.76	4.14314E-002	-2.78495E-004	0.00000E+000	-1.15384E-005	-1.68088E-001	4.14378E-002	3.57900E+000	9	...........
	57	0.773333	3.88102E-002	-2.78542E-004	0.00000E+000	-1.08103E-005	-1.68088E-001	3.88170E-002	3.57900E+000	9	...........
	58	0.786667	3.61594E-002	-2.79576E-004	0.00000E+000	-1.01093E-005	-1.68088E-001	3.61671E-002	3.57900E+000	9	...........
	59	0.8	3.35536E-002	-2.78688E-004	0.00000E+000	-9.35100E-006	-1.68088E-001	3.35626E-002	3.57900E+000	9	...........
	60	0.813333	3.10150E-002	-2.78245E-004	0.00000E+000	-8.62977E-006	-1.68088E-001	3.10146E-002	3.57900E+000	9	...........
	61	0.826667	2.85377E-002	-2.77914E-004	0.00000E+000	-7.93104E-006	-1.68088E-001	2.85419E-002	3.57900E+000	9	...........
	62	0.84	2.60413E-002	-2.79494E-004	0.00000E+000	-7.27839E-006	-1.68088E-001	2.60392E-002	3.57900E+000	9	...........
	63	0.853333	2.35252E-002	-2.79384E-004	0.00000E+000	-6.57257E-006	-1.68088E-001	2.35178E-002	3.57900E+000	9	...........
	64	0.866667	2.10826E-002	-2.78910E-004	0.00000E+000	-5.88016E-006	-1.68088E-001	2.10738E-002	3.57900E+000	9	...........
	65	0.88	1.86678E-002	-2.78524E-004	0.00000E+000	-5.19941E-006	-1.68088E-001	1.86612E-002	3.57900E+000	9	...........
	66	0.893333	1.62781E-002	-2.78817E-004	0.00000E+000	-4.53859E-006	-1.68088E-001	1.62729E-002	3.57900E+000	9	...........
	67	0.906667	1.39542E-002	-2.78776E-004	0.00000E+000	-3.89011E-006	-1.68088E-001	1.39443E-002	3.57900E+000	9	...........
	68	0.92	1.16730E-002	-2.78214E-004	0.00000E+000	-3.24760E-006	-1.68088E-001	1.16623E-002	3.57900E+000	9	...........
	69	0.933333	9.39983E-003	-2.78412E-004	0.00000E+000	-2.61703E-006	-1.68088E-001	9.39395E-003	3.57900E+000	9	...........
	70	0.946667	7.10702E-003	-2.79511E-004	0.00000E+000	-1.98649E-006	-1.68088E-001	7.09207E-003	3.57900E+000	9	...........
	71	0.96	4.85834E-003	-2.78925E-004	0.00000E+000	-1.35511E-006	-1.68088E-001	4.84551E-003	3.57900E+000	9	...........
	72	0.97333	2.63576E-003	-2.79371E-004	0.00000E+000	-7.36354E-007	-1.68088E-001	2.62114E-003	3.57900E+000	9	...........
	73	0.985	5.59968E-004	-2.78370E-004	0.00000E+000	-1.55879E-007	-1.68088E-001	5.42072E-004	3.57900E+000	9	...........
STARTTIMEOFFSET	QUANT	1026.472	Start Time Offset (s)
