EXPLAIN
TAG	PWR800_DISCHARGE
TITLE	LABEL	PWR Cyclic Charge Discharge (Cell) - Discharge Step	Test &Identifier
DATE	LABEL	7-7-2017	Date
TIME	LABEL	16:08:44	Time
NOTES	NOTES	3	&Notes...
	supercap test cell
	2.8mg
	6M KOH
PSTAT	PSTAT	IFC5000-01520	Potentiostat
CAPACITY	QUANT	1.00000E-003	Capacity (A-hr)
CELLTYPE	SELECTOR	1	&Cell Type
WORKINGCONNECTION	SELECTOR	0	&Working Lead
MAXDISCHARGETIME	VARIABLEANDUNITS	1.00000E+002	s	1.00000E+002	second(s)	Max &Discharge Time
DISCHARGEMODE	MULTIPARAM	0	2.80000E-004	&Discharge Mode	Constant Current	Amp(s)
SAMPLETIME	QUANT	1.00000E-002	Sa&mple Period (s)
DISCHARGESTOPAT1	MULTIPARAM	3	0.00000E+000	Discharge Stop At &1	Voltage < Limit	V
DISCHARGESTOPAT2	MULTIPARAM	0	0.00000E+000	Discharge Stop At &2	None	N/A
AESBHCSELECTOR	TOGGLE	F	Save Both Half Cells
IRCOMP	TOGGLE	F	IR &Measure
EOC	QUANT	0	Open Circuit (V)
SEQUENCER	TOGGLE	TRUE	Run as Sequence
PSTATMODEL	IQUANT	53	Pstat Model
PSTATSECTION	LABEL	IFC5000-01520	Pstat Section
PSTATSERIALNO	LABEL	01520	Pstat Serial Number
CTRLMODE	IQUANT	0	Control Mode
ELECTROMETER	IQUANT	1	RE=0 or CS=1
IESTAB	IQUANT	0	I/E Stability
CASPEED	IQUANT	4	Control Amp Speed
CONVENTION	IQUANT	1	Current Convention
ICHRANGE	IQUANT	2	Ich Range
ICHRANGEMODE	TOGGLE	T	Ich Auto Range
ICHOFFSETENABLE	TOGGLE	F	Ich Offset Enable
ICHOFFSET	QUANT	0	Ich Offset (V)
ICHFILTER	IQUANT	1	Ich Filter
VCHRANGE	IQUANT	2	Vch Range
VCHRANGEMODE	TOGGLE	T	Vch Auto Range
VCHOFFSETENABLE	TOGGLE	F	Vch Offset Enable
VCHOFFSET	QUANT	0	Vch Offset (V)
VCHFILTER	IQUANT	1	Vch Filter
IERANGELOWERLIMIT	IQUANT	9	I/E Range Lower Limit
IERANGEMODE	TOGGLE	F	I/E AutoRange
IERANGE	IQUANT	9	I/E Range
ACHSELECT	IQUANT	1	Ach Select
ACHRANGE	IQUANT	2	Ach Range
ACHOFFSETENABLE	TOGGLE	F	Ach Offset Enable
ACHOFFSET	QUANT	0	Ach Offset (V)
ACHFILTER	IQUANT	1	Ach Filter
CABLEID	IQUANT	14	Cable ID
DCCALDATE	LABEL	5-7-2017	DC Calibration Date
ACCALDATE	LABEL	12/3/2015	AC Calibration Date
FRAMEWORKVERSION	QUANT	7.01	Framework Version
INSTRUMENTVERSION	LABEL	4.00	Instrument Version
CURVE	TABLE	62
	Pt	T	Vf	Im	Vu	Pwr	Sig	Ach	Temp	IERange	Over
	#	s	V	A	V	W	V	V	deg C	#	bits
	0	0.013333	5.24710E-001	-2.79135E-004	0.00000E+000	-1.46465E-004	-1.68088E-001	5.24961E-001	3.57810E+000	9	...........
	1	0.026667	4.91643E-001	-2.78969E-004	0.00000E+000	-1.37153E-004	-1.68088E-001	4.91875E-001	3.57810E+000	9	...........
	2	0.04	4.61628E-001	-2.78566E-004	0.00000E+000	-1.28594E-004	-1.68088E-001	4.61742E-001	3.57810E+000	9	...........
	3	0.053333	4.33527E-001	-2.78418E-004	0.00000E+000	-1.20702E-004	-1.68088E-001	4.33637E-001	3.57810E+000	9	...........
	4	0.066667	4.07358E-001	-2.79114E-004	0.00000E+000	-1.13699E-004	-1.68088E-001	4.07455E-001	3.57810E+000	9	...........
	5	0.08	3.82947E-001	-2.78587E-004	0.00000E+000	-1.06684E-004	-1.68088E-001	3.83037E-001	3.57810E+000	9	...........
	6	0.093333	3.60168E-001	-2.79267E-004	0.00000E+000	-1.00583E-004	-1.68088E-001	3.60254E-001	3.57810E+000	9	...........
	7	0.106667	3.38922E-001	-2.79464E-004	0.00000E+000	-9.47163E-005	-1.68088E-001	3.39003E-001	3.57810E+000	9	...........
	8	0.12	3.19176E-001	-2.78918E-004	0.00000E+000	-8.90238E-005	-1.68088E-001	3.19256E-001	3.57810E+000	9	...........
	9	0.133333	3.00820E-001	-2.77699E-004	0.00000E+000	-8.35373E-005	-1.68088E-001	3.00890E-001	3.57810E+000	9	...........
	10	0.146667	2.83761E-001	-2.78304E-004	0.00000E+000	-7.89717E-005	-1.68088E-001	2.83833E-001	3.57810E+000	9	...........
	11	0.16	2.67912E-001	-2.78756E-004	0.00000E+000	-7.46821E-005	-1.68088E-001	2.67983E-001	3.57810E+000	9	...........
	12	0.173333	2.53209E-001	-2.77327E-004	0.00000E+000	-7.02215E-005	-1.68088E-001	2.53275E-001	3.57810E+000	9	...........
	13	0.186667	2.39575E-001	-2.80214E-004	0.00000E+000	-6.71323E-005	-1.68088E-001	2.39636E-001	3.57810E+000	9	...........
	14	0.2	2.26925E-001	-2.79656E-004	0.00000E+000	-6.34610E-005	-1.68088E-001	2.26978E-001	3.57810E+000	9	...........
	15	0.213333	2.15182E-001	-2.78641E-004	0.00000E+000	-5.99586E-005	-1.68088E-001	2.15234E-001	3.57810E+000	9	...........
	16	0.226667	2.04191E-001	-2.79540E-004	0.00000E+000	-5.70795E-005	-1.68088E-001	2.04240E-001	3.57810E+000	9	...........
	17	0.24	1.93952E-001	-2.79018E-004	0.00000E+000	-5.41162E-005	-1.68088E-001	1.93999E-001	3.57810E+000	9	...........
	18	0.253333	1.84397E-001	-2.79348E-004	0.00000E+000	-5.15109E-005	-1.68088E-001	1.84442E-001	3.57810E+000	9	...........
	19	0.266667	1.75404E-001	-2.79314E-004	0.00000E+000	-4.89927E-005	-1.68088E-001	1.75446E-001	3.57800E+000	9	...........
	20	0.28	1.66977E-001	-2.79849E-004	0.00000E+000	-4.67283E-005	-1.68088E-001	1.67014E-001	3.57730E+000	9	...........
	21	0.293333	1.59104E-001	-2.78480E-004	0.00000E+000	-4.43073E-005	-1.68088E-001	1.59145E-001	3.57730E+000	9	...........
	22	0.306667	1.51675E-001	-2.78991E-004	0.00000E+000	-4.23159E-005	-1.68088E-001	1.51710E-001	3.57730E+000	9	...........
	23	0.32	1.44634E-001	-2.79034E-004	0.00000E+000	-4.03579E-005	-1.68088E-001	1.44670E-001	3.57730E+000	9	...........
	24	0.333333	1.37994E-001	-2.79184E-004	0.00000E+000	-3.85257E-005	-1.68088E-001	1.38034E-001	3.57730E+000	9	...........
	25	0.346667	1.31654E-001	-2.78570E-004	0.00000E+000	-3.66749E-005	-1.68088E-001	1.31692E-001	3.57730E+000	9	...........
	26	0.36	1.25625E-001	-2.78965E-004	0.00000E+000	-3.50450E-005	-1.68088E-001	1.25656E-001	3.57730E+000	9	...........
	27	0.373333	1.19889E-001	-2.79150E-004	0.00000E+000	-3.34671E-005	-1.68088E-001	1.19925E-001	3.57730E+000	9	...........
	28	0.386667	1.14408E-001	-2.77885E-004	0.00000E+000	-3.17924E-005	-1.68088E-001	1.14441E-001	3.57730E+000	9	...........
	29	0.4	1.09140E-001	-2.78959E-004	0.00000E+000	-3.04457E-005	-1.68088E-001	1.09168E-001	3.57730E+000	9	...........
	30	0.413333	1.04143E-001	-2.78833E-004	0.00000E+000	-2.90385E-005	-1.68088E-001	1.04166E-001	3.57730E+000	9	...........
	31	0.426667	9.93478E-002	-2.78884E-004	0.00000E+000	-2.77065E-005	-1.68088E-001	9.93701E-002	3.57730E+000	9	...........
	32	0.44	9.47179E-002	-2.78870E-004	0.00000E+000	-2.64140E-005	-1.68088E-001	9.47429E-002	3.57730E+000	9	...........
	33	0.453333	9.02582E-002	-2.79627E-004	0.00000E+000	-2.52386E-005	-1.68088E-001	9.02832E-002	3.57730E+000	9	...........
	34	0.466667	8.59320E-002	-2.78215E-004	0.00000E+000	-2.39076E-005	-1.68088E-001	8.59604E-002	3.57730E+000	9	...........
	35	0.48	8.17343E-002	-2.78773E-004	0.00000E+000	-2.27853E-005	-1.68088E-001	8.17541E-002	3.57730E+000	9	...........
	36	0.493333	7.76612E-002	-2.79766E-004	0.00000E+000	-2.17269E-005	-1.68088E-001	7.76795E-002	3.57730E+000	9	...........
	37	0.506667	7.37255E-002	-2.79328E-004	0.00000E+000	-2.05936E-005	-1.68088E-001	7.37411E-002	3.57730E+000	9	...........
	38	0.52	6.98678E-002	-2.79146E-004	0.00000E+000	-1.95033E-005	-1.68088E-001	6.98881E-002	3.57730E+000	9	...........
	39	0.533333	6.61518E-002	-2.79308E-004	0.00000E+000	-1.84767E-005	-1.68088E-001	6.61686E-002	3.57730E+000	9	...........
	40	0.546667	6.25529E-002	-2.78456E-004	0.00000E+000	-1.74182E-005	-1.68088E-001	6.25658E-002	3.57730E+000	9	...........
	41	0.56	5.89918E-002	-2.79334E-004	0.00000E+000	-1.64784E-005	-1.68088E-001	5.90088E-002	3.57730E+000	9	...........
	42	0.573333	5.55185E-002	-2.78204E-004	0.00000E+000	-1.54455E-005	-1.68088E-001	5.55292E-002	3.57730E+000	9	...........
	43	0.586667	5.21313E-002	-2.78796E-004	0.00000E+000	-1.45340E-005	-1.68088E-001	5.21408E-002	3.57730E+000	9	...........
	44	0.6	4.88190E-002	-2.78081E-004	0.00000E+000	-1.35756E-005	-1.68088E-001	4.88344E-002	3.57730E+000	9	...........
	45	0.613333	4.55947E-002	-2.77544E-004	0.00000E+000	-1.26546E-005	-1.68088E-001	4.56101E-002	3.57730E+000	9	...........
	46	0.626667	4.24410E-002	-2.79086E-004	0.00000E+000	-1.18447E-005	-1.68088E-001	4.24486E-002	3.57730E+000	9	...........
	47	0.64	3.93039E-002	-2.78917E-004	0.00000E+000	-1.09625E-005	-1.68088E-001	3.93111E-002	3.57730E+000	9	...........
	48	0.653333	3.62381E-002	-2.78508E-004	0.00000E+000	-1.00926E-005	-1.68088E-001	3.62463E-002	3.57730E+000	9	...........
	49	0.666667	3.32294E-002	-2.80085E-004	0.00000E+000	-9.30703E-006	-1.68088E-001	3.32349E-002	3.57730E+000	9	...........
	50	0.68	3.02976E-002	-2.79173E-004	0.00000E+000	-8.45826E-006	-1.68088E-001	3.02997E-002	3.57730E+000	9	...........
	51	0.693333	2.74234E-002	-2.78852E-004	0.00000E+000	-7.64708E-006	-1.68088E-001	2.74207E-002	3.57730E+000	9	...........
	52	0.706667	2.46011E-002	-2.78727E-004	0.00000E+000	-6.85700E-006	-1.68088E-001	2.45998E-002	3.57730E+000	9	...........
	53	0.72	2.17973E-002	-2.78604E-004	0.00000E+000	-6.07282E-006	-1.68088E-001	2.17975E-002	3.57730E+000	9	...........
	54	0.733333	1.90307E-002	-2.79007E-004	0.00000E+000	-5.30971E-006	-1.68088E-001	1.90227E-002	3.57730E+000	9	...........
	55	0.746667	1.62992E-002	-2.77530E-004	0.00000E+000	-4.52352E-006	-1.68088E-001	1.62905E-002	3.57730E+000	9	...........
	56	0.76	1.35769E-002	-2.79451E-004	0.00000E+000	-3.79408E-006	-1.68088E-001	1.35668E-002	3.57730E+000	9	...........
	57	0.773333	1.08788E-002	-2.78591E-004	0.00000E+000	-3.03073E-006	-1.68088E-001	1.08713E-002	3.57730E+000	9	...........
	58	0.786667	8.24663E-003	-2.79227E-004	0.00000E+000	-2.30268E-006	-1.68088E-001	8.23666E-003	3.57730E+000	9	...........
	59	0.8	5.66659E-003	-2.78521E-004	0.00000E+000	-1.57826E-006	-1.68088E-001	5.65611E-003	3.57730E+000	9	...........
	60	0.813333	3.11828E-003	-2.79445E-004	0.00000E+000	-8.71387E-007	-1.68088E-001	3.10727E-003	3.57730E+000	9	...........
	61	0.825	8.09572E-004	-2.79111E-004	0.00000E+000	-2.25960E-007	-1.68088E-001	7.92074E-004	3.57730E+000	9	...........
STARTTIMEOFFSET	QUANT	1473.64	Start Time Offset (s)
