EXPLAIN
TAG	PWR800_DISCHARGE
TITLE	LABEL	PWR Cyclic Charge Discharge (Cell) - Discharge Step	Test &Identifier
DATE	LABEL	7-7-2017	Date
TIME	LABEL	16:15:17	Time
NOTES	NOTES	3	&Notes...
	supercap test cell
	2.8mg
	6M KOH
PSTAT	PSTAT	IFC5000-01520	Potentiostat
CAPACITY	QUANT	1.00000E-003	Capacity (A-hr)
CELLTYPE	SELECTOR	1	&Cell Type
WORKINGCONNECTION	SELECTOR	0	&Working Lead
MAXDISCHARGETIME	VARIABLEANDUNITS	1.00000E+002	s	1.00000E+002	second(s)	Max &Discharge Time
DISCHARGEMODE	MULTIPARAM	0	2.80000E-004	&Discharge Mode	Constant Current	Amp(s)
SAMPLETIME	QUANT	1.00000E-002	Sa&mple Period (s)
DISCHARGESTOPAT1	MULTIPARAM	3	0.00000E+000	Discharge Stop At &1	Voltage < Limit	V
DISCHARGESTOPAT2	MULTIPARAM	0	0.00000E+000	Discharge Stop At &2	None	N/A
AESBHCSELECTOR	TOGGLE	F	Save Both Half Cells
IRCOMP	TOGGLE	F	IR &Measure
EOC	QUANT	0	Open Circuit (V)
SEQUENCER	TOGGLE	TRUE	Run as Sequence
PSTATMODEL	IQUANT	53	Pstat Model
PSTATSECTION	LABEL	IFC5000-01520	Pstat Section
PSTATSERIALNO	LABEL	01520	Pstat Serial Number
CTRLMODE	IQUANT	0	Control Mode
ELECTROMETER	IQUANT	1	RE=0 or CS=1
IESTAB	IQUANT	0	I/E Stability
CASPEED	IQUANT	4	Control Amp Speed
CONVENTION	IQUANT	1	Current Convention
ICHRANGE	IQUANT	2	Ich Range
ICHRANGEMODE	TOGGLE	T	Ich Auto Range
ICHOFFSETENABLE	TOGGLE	F	Ich Offset Enable
ICHOFFSET	QUANT	0	Ich Offset (V)
ICHFILTER	IQUANT	1	Ich Filter
VCHRANGE	IQUANT	2	Vch Range
VCHRANGEMODE	TOGGLE	T	Vch Auto Range
VCHOFFSETENABLE	TOGGLE	F	Vch Offset Enable
VCHOFFSET	QUANT	0	Vch Offset (V)
VCHFILTER	IQUANT	1	Vch Filter
IERANGELOWERLIMIT	IQUANT	9	I/E Range Lower Limit
IERANGEMODE	TOGGLE	F	I/E AutoRange
IERANGE	IQUANT	9	I/E Range
ACHSELECT	IQUANT	1	Ach Select
ACHRANGE	IQUANT	2	Ach Range
ACHOFFSETENABLE	TOGGLE	F	Ach Offset Enable
ACHOFFSET	QUANT	0	Ach Offset (V)
ACHFILTER	IQUANT	1	Ach Filter
CABLEID	IQUANT	14	Cable ID
DCCALDATE	LABEL	5-7-2017	DC Calibration Date
ACCALDATE	LABEL	12/3/2015	AC Calibration Date
FRAMEWORKVERSION	QUANT	7.01	Framework Version
INSTRUMENTVERSION	LABEL	4.00	Instrument Version
CURVE	TABLE	57
	Pt	T	Vf	Im	Vu	Pwr	Sig	Ach	Temp	IERange	Over
	#	s	V	A	V	W	V	V	deg C	#	bits
	0	0.013333	5.19263E-001	-2.78599E-004	0.00000E+000	-1.44666E-004	-1.68088E-001	5.19474E-001	3.57880E+000	9	...........
	1	0.026667	4.85895E-001	-2.79230E-004	0.00000E+000	-1.35677E-004	-1.68088E-001	4.86086E-001	3.57880E+000	9	...........
	2	0.04	4.55382E-001	-2.77911E-004	0.00000E+000	-1.26556E-004	-1.68088E-001	4.55487E-001	3.57880E+000	9	...........
	3	0.053333	4.26879E-001	-2.78285E-004	0.00000E+000	-1.18794E-004	-1.68088E-001	4.26975E-001	3.57880E+000	9	...........
	4	0.066667	4.00275E-001	-2.79733E-004	0.00000E+000	-1.11970E-004	-1.68088E-001	4.00359E-001	3.57880E+000	9	...........
	5	0.08	3.75414E-001	-2.78931E-004	0.00000E+000	-1.04715E-004	-1.68088E-001	3.75499E-001	3.57880E+000	9	...........
	6	0.093333	3.52227E-001	-2.79244E-004	0.00000E+000	-9.83571E-005	-1.68088E-001	3.52305E-001	3.57880E+000	9	...........
	7	0.106667	3.30593E-001	-2.78761E-004	0.00000E+000	-9.21565E-005	-1.68088E-001	3.30666E-001	3.57880E+000	9	...........
	8	0.12	3.10465E-001	-2.80127E-004	0.00000E+000	-8.69696E-005	-1.68088E-001	3.10535E-001	3.57880E+000	9	...........
	9	0.133333	2.91725E-001	-2.78541E-004	0.00000E+000	-8.12571E-005	-1.68088E-001	2.91790E-001	3.57880E+000	9	...........
	10	0.146667	2.74321E-001	-2.78908E-004	0.00000E+000	-7.65105E-005	-1.68088E-001	2.74383E-001	3.57880E+000	9	...........
	11	0.16	2.58203E-001	-2.79492E-004	0.00000E+000	-7.21656E-005	-1.68088E-001	2.58267E-001	3.57880E+000	9	...........
	12	0.173333	2.43246E-001	-2.78157E-004	0.00000E+000	-6.76605E-005	-1.68088E-001	2.43302E-001	3.57880E+000	9	...........
	13	0.186667	2.29329E-001	-2.79536E-004	0.00000E+000	-6.41055E-005	-1.68088E-001	2.29380E-001	3.57880E+000	9	...........
	14	0.2	2.16397E-001	-2.79762E-004	0.00000E+000	-6.05395E-005	-1.68088E-001	2.16444E-001	3.57880E+000	9	...........
	15	0.213333	2.04362E-001	-2.78060E-004	0.00000E+000	-5.68249E-005	-1.68088E-001	2.04413E-001	3.57880E+000	9	...........
	16	0.226667	1.93161E-001	-2.79014E-004	0.00000E+000	-5.38945E-005	-1.68088E-001	1.93208E-001	3.57880E+000	9	...........
	17	0.24	1.82728E-001	-2.79324E-004	0.00000E+000	-5.10403E-005	-1.68088E-001	1.82770E-001	3.57880E+000	9	...........
	18	0.253333	1.73015E-001	-2.79481E-004	0.00000E+000	-4.83543E-005	-1.68088E-001	1.73054E-001	3.57880E+000	9	...........
	19	0.266667	1.63930E-001	-2.80587E-004	0.00000E+000	-4.59966E-005	-1.68088E-001	1.63962E-001	3.57880E+000	9	...........
	20	0.28	1.55449E-001	-2.79147E-004	0.00000E+000	-4.33932E-005	-1.68088E-001	1.55479E-001	3.57880E+000	9	...........
	21	0.293333	1.47437E-001	-2.79927E-004	0.00000E+000	-4.12717E-005	-1.68088E-001	1.47460E-001	3.57880E+000	9	...........
	22	0.306667	1.39944E-001	-2.79402E-004	0.00000E+000	-3.91007E-005	-1.68088E-001	1.39971E-001	3.57880E+000	9	...........
	23	0.32	1.32862E-001	-2.78255E-004	0.00000E+000	-3.69696E-005	-1.68088E-001	1.32893E-001	3.57880E+000	9	...........
	24	0.333333	1.26154E-001	-2.78151E-004	0.00000E+000	-3.50899E-005	-1.68088E-001	1.26178E-001	3.57880E+000	9	...........
	25	0.346667	1.19799E-001	-2.78976E-004	0.00000E+000	-3.34211E-005	-1.68088E-001	1.19826E-001	3.57880E+000	9	...........
	26	0.36	1.13752E-001	-2.79198E-004	0.00000E+000	-3.17592E-005	-1.68088E-001	1.13779E-001	3.57880E+000	9	...........
	27	0.373333	1.07944E-001	-2.79935E-004	0.00000E+000	-3.02173E-005	-1.68088E-001	1.07966E-001	3.57880E+000	9	...........
	28	0.386667	1.02434E-001	-2.80184E-004	0.00000E+000	-2.87005E-005	-1.68088E-001	1.02456E-001	3.57880E+000	9	...........
	29	0.4	9.71304E-002	-2.79491E-004	0.00000E+000	-2.71470E-005	-1.68088E-001	9.71557E-002	3.57880E+000	9	...........
	30	0.413333	9.20980E-002	-2.79380E-004	0.00000E+000	-2.57304E-005	-1.68088E-001	9.21211E-002	3.57880E+000	9	...........
	31	0.426667	8.72434E-002	-2.79681E-004	0.00000E+000	-2.44003E-005	-1.68088E-001	8.72627E-002	3.57880E+000	9	...........
	32	0.44	8.25926E-002	-2.77903E-004	0.00000E+000	-2.29527E-005	-1.68088E-001	8.26091E-002	3.57880E+000	9	...........
	33	0.453333	7.80987E-002	-2.78607E-004	0.00000E+000	-2.17589E-005	-1.68088E-001	7.81152E-002	3.57880E+000	9	...........
	34	0.466667	7.37030E-002	-2.80089E-004	0.00000E+000	-2.06434E-005	-1.68088E-001	7.37159E-002	3.57880E+000	9	...........
	35	0.48	6.94952E-002	-2.79143E-004	0.00000E+000	-1.93991E-005	-1.68088E-001	6.95063E-002	3.57880E+000	9	...........
	36	0.493333	6.54248E-002	-2.78369E-004	0.00000E+000	-1.82122E-005	-1.68088E-001	6.54336E-002	3.57880E+000	9	...........
	37	0.506667	6.14492E-002	-2.77691E-004	0.00000E+000	-1.70639E-005	-1.68088E-001	6.14653E-002	3.57805E+000	9	...........
	38	0.52	5.75714E-002	-2.78774E-004	0.00000E+000	-1.60494E-005	-1.68088E-001	5.75832E-002	3.57780E+000	9	...........
	39	0.533333	5.38092E-002	-2.79382E-004	0.00000E+000	-1.50333E-005	-1.68088E-001	5.38149E-002	3.57780E+000	9	...........
	40	0.546667	5.01703E-002	-2.80050E-004	0.00000E+000	-1.40502E-005	-1.68088E-001	5.01753E-002	3.57780E+000	9	...........
	41	0.56	4.66817E-002	-2.78836E-004	0.00000E+000	-1.30165E-005	-1.68088E-001	4.66910E-002	3.57780E+000	9	...........
	42	0.573333	4.32021E-002	-2.78726E-004	0.00000E+000	-1.20415E-005	-1.68088E-001	4.32059E-002	3.57780E+000	9	...........
	43	0.586667	3.98159E-002	-2.80377E-004	0.00000E+000	-1.11635E-005	-1.68088E-001	3.98153E-002	3.57780E+000	9	...........
	44	0.6	3.64711E-002	-2.78895E-004	0.00000E+000	-1.01716E-005	-1.68088E-001	3.64791E-002	3.57780E+000	9	...........
	45	0.613333	3.31995E-002	-2.79899E-004	0.00000E+000	-9.29252E-006	-1.68088E-001	3.32033E-002	3.57780E+000	9	...........
	46	0.626667	3.00171E-002	-2.79295E-004	0.00000E+000	-8.38362E-006	-1.68088E-001	3.00200E-002	3.57780E+000	9	...........
	47	0.64	2.69213E-002	-2.79632E-004	0.00000E+000	-7.52807E-006	-1.68088E-001	2.69237E-002	3.57780E+000	9	...........
	48	0.653333	2.39138E-002	-2.79351E-004	0.00000E+000	-6.68034E-006	-1.68088E-001	2.39102E-002	3.57780E+000	9	...........
	49	0.666667	2.09116E-002	-2.79219E-004	0.00000E+000	-5.83892E-006	-1.68088E-001	2.09114E-002	3.57780E+000	9	...........
	50	0.68	1.79575E-002	-2.79084E-004	0.00000E+000	-5.01167E-006	-1.68088E-001	1.79481E-002	3.57780E+000	9	...........
	51	0.693333	1.50613E-002	-2.79854E-004	0.00000E+000	-4.21498E-006	-1.68088E-001	1.50526E-002	3.57780E+000	9	...........
	52	0.706667	1.21861E-002	-2.79340E-004	0.00000E+000	-3.40405E-006	-1.68088E-001	1.21750E-002	3.57780E+000	9	...........
	53	0.72	9.35869E-003	-2.78760E-004	0.00000E+000	-2.60883E-006	-1.68088E-001	9.34549E-003	3.57780E+000	9	...........
	54	0.733333	6.54854E-003	-2.79693E-004	0.00000E+000	-1.83158E-006	-1.68088E-001	6.53487E-003	3.57780E+000	9	...........
	55	0.746667	3.81722E-003	-2.78820E-004	0.00000E+000	-1.06432E-006	-1.68088E-001	3.80020E-003	3.57780E+000	9	...........
	56	0.76	1.13679E-003	-2.79362E-004	0.00000E+000	-3.17576E-007	-1.68088E-001	1.11429E-003	3.57780E+000	9	...........
STARTTIMEOFFSET	QUANT	1736.197	Start Time Offset (s)
