EXPLAIN
TAG	PWR800_DISCHARGE
TITLE	LABEL	PWR Cyclic Charge Discharge (Cell) - Discharge Step	Test &Identifier
DATE	LABEL	7-7-2017	Date
TIME	LABEL	16:03:50	Time
NOTES	NOTES	3	&Notes...
	supercap test cell
	2.8mg
	6M KOH
PSTAT	PSTAT	IFC5000-01520	Potentiostat
CAPACITY	QUANT	1.00000E-003	Capacity (A-hr)
CELLTYPE	SELECTOR	1	&Cell Type
WORKINGCONNECTION	SELECTOR	0	&Working Lead
MAXDISCHARGETIME	VARIABLEANDUNITS	1.00000E+002	s	1.00000E+002	second(s)	Max &Discharge Time
DISCHARGEMODE	MULTIPARAM	0	2.80000E-004	&Discharge Mode	Constant Current	Amp(s)
SAMPLETIME	QUANT	1.00000E-002	Sa&mple Period (s)
DISCHARGESTOPAT1	MULTIPARAM	3	0.00000E+000	Discharge Stop At &1	Voltage < Limit	V
DISCHARGESTOPAT2	MULTIPARAM	0	0.00000E+000	Discharge Stop At &2	None	N/A
AESBHCSELECTOR	TOGGLE	F	Save Both Half Cells
IRCOMP	TOGGLE	F	IR &Measure
EOC	QUANT	0	Open Circuit (V)
SEQUENCER	TOGGLE	TRUE	Run as Sequence
PSTATMODEL	IQUANT	53	Pstat Model
PSTATSECTION	LABEL	IFC5000-01520	Pstat Section
PSTATSERIALNO	LABEL	01520	Pstat Serial Number
CTRLMODE	IQUANT	0	Control Mode
ELECTROMETER	IQUANT	1	RE=0 or CS=1
IESTAB	IQUANT	0	I/E Stability
CASPEED	IQUANT	4	Control Amp Speed
CONVENTION	IQUANT	1	Current Convention
ICHRANGE	IQUANT	2	Ich Range
ICHRANGEMODE	TOGGLE	T	Ich Auto Range
ICHOFFSETENABLE	TOGGLE	F	Ich Offset Enable
ICHOFFSET	QUANT	0	Ich Offset (V)
ICHFILTER	IQUANT	1	Ich Filter
VCHRANGE	IQUANT	2	Vch Range
VCHRANGEMODE	TOGGLE	T	Vch Auto Range
VCHOFFSETENABLE	TOGGLE	F	Vch Offset Enable
VCHOFFSET	QUANT	0	Vch Offset (V)
VCHFILTER	IQUANT	1	Vch Filter
IERANGELOWERLIMIT	IQUANT	9	I/E Range Lower Limit
IERANGEMODE	TOGGLE	F	I/E AutoRange
IERANGE	IQUANT	9	I/E Range
ACHSELECT	IQUANT	1	Ach Select
ACHRANGE	IQUANT	2	Ach Range
ACHOFFSETENABLE	TOGGLE	F	Ach Offset Enable
ACHOFFSET	QUANT	0	Ach Offset (V)
ACHFILTER	IQUANT	1	Ach Filter
CABLEID	IQUANT	14	Cable ID
DCCALDATE	LABEL	5-7-2017	DC Calibration Date
ACCALDATE	LABEL	12/3/2015	AC Calibration Date
FRAMEWORKVERSION	QUANT	7.01	Framework Version
INSTRUMENTVERSION	LABEL	4.00	Instrument Version
CURVE	TABLE	66
	Pt	T	Vf	Im	Vu	Pwr	Sig	Ach	Temp	IERange	Over
	#	s	V	A	V	W	V	V	deg C	#	bits
	0	0.013333	5.29572E-001	-2.79647E-004	0.00000E+000	-1.48093E-004	-1.68088E-001	5.29830E-001	3.57900E+000	9	...........
	1	0.026667	4.96835E-001	-2.78178E-004	0.00000E+000	-1.38209E-004	-1.68088E-001	4.97100E-001	3.57900E+000	9	...........
	2	0.04	4.67202E-001	-2.78506E-004	0.00000E+000	-1.30119E-004	-1.68088E-001	4.67324E-001	3.57900E+000	9	...........
	3	0.053333	4.39437E-001	-2.78051E-004	0.00000E+000	-1.22186E-004	-1.68088E-001	4.39542E-001	3.57900E+000	9	...........
	4	0.066667	4.13569E-001	-2.78496E-004	0.00000E+000	-1.15177E-004	-1.68088E-001	4.13664E-001	3.57900E+000	9	...........
	5	0.08	3.89435E-001	-2.79157E-004	0.00000E+000	-1.08714E-004	-1.68088E-001	3.89524E-001	3.57900E+000	9	...........
	6	0.093333	3.66951E-001	-2.79472E-004	0.00000E+000	-1.02552E-004	-1.68088E-001	3.67041E-001	3.57900E+000	9	...........
	7	0.106667	3.46011E-001	-2.77883E-004	0.00000E+000	-9.61507E-005	-1.68088E-001	3.46092E-001	3.57900E+000	9	...........
	8	0.12	3.26532E-001	-2.79054E-004	0.00000E+000	-9.11202E-005	-1.68088E-001	3.26617E-001	3.57900E+000	9	...........
	9	0.133333	3.08435E-001	-2.79417E-004	0.00000E+000	-8.61818E-005	-1.68088E-001	3.08511E-001	3.57900E+000	9	...........
	10	0.146667	2.91595E-001	-2.78607E-004	0.00000E+000	-8.12404E-005	-1.68088E-001	2.91671E-001	3.57900E+000	9	...........
	11	0.16	2.75975E-001	-2.79100E-004	0.00000E+000	-7.70247E-005	-1.68088E-001	2.76051E-001	3.57900E+000	9	...........
	12	0.173333	2.61483E-001	-2.77917E-004	0.00000E+000	-7.26706E-005	-1.68088E-001	2.61547E-001	3.57900E+000	9	...........
	13	0.186667	2.48016E-001	-2.78759E-004	0.00000E+000	-6.91367E-005	-1.68088E-001	2.48077E-001	3.57825E+000	9	...........
	14	0.2	2.35495E-001	-2.79388E-004	0.00000E+000	-6.57944E-005	-1.68088E-001	2.35549E-001	3.57780E+000	9	...........
	15	0.213333	2.23829E-001	-2.79506E-004	0.00000E+000	-6.25617E-005	-1.68088E-001	2.23882E-001	3.57780E+000	9	...........
	16	0.226667	2.12982E-001	-2.78994E-004	0.00000E+000	-5.94207E-005	-1.68088E-001	2.13031E-001	3.57780E+000	9	...........
	17	0.24	2.02854E-001	-2.78184E-004	0.00000E+000	-5.64309E-005	-1.68088E-001	2.02907E-001	3.57780E+000	9	...........
	18	0.253333	1.93359E-001	-2.78464E-004	0.00000E+000	-5.38436E-005	-1.68088E-001	1.93405E-001	3.57780E+000	9	...........
	19	0.266667	1.84436E-001	-2.78547E-004	0.00000E+000	-5.13740E-005	-1.68088E-001	1.84483E-001	3.57780E+000	9	...........
	20	0.28	1.76065E-001	-2.79090E-004	0.00000E+000	-4.91378E-005	-1.68088E-001	1.76108E-001	3.57780E+000	9	...........
	21	0.293333	1.68234E-001	-2.79346E-004	0.00000E+000	-4.69955E-005	-1.68088E-001	1.68273E-001	3.57780E+000	9	...........
	22	0.306667	1.60790E-001	-2.79041E-004	0.00000E+000	-4.48670E-005	-1.68088E-001	1.60831E-001	3.57780E+000	9	...........
	23	0.32	1.53750E-001	-2.79993E-004	0.00000E+000	-4.30489E-005	-1.68088E-001	1.53789E-001	3.57780E+000	9	...........
	24	0.333333	1.47101E-001	-2.78567E-004	0.00000E+000	-4.09773E-005	-1.68088E-001	1.47133E-001	3.57780E+000	9	...........
	25	0.346667	1.40787E-001	-2.78811E-004	0.00000E+000	-3.92531E-005	-1.68088E-001	1.40828E-001	3.57780E+000	9	...........
	26	0.36	1.34799E-001	-2.78446E-004	0.00000E+000	-3.75341E-005	-1.68088E-001	1.34829E-001	3.57780E+000	9	...........
	27	0.373333	1.29098E-001	-2.79693E-004	0.00000E+000	-3.61077E-005	-1.68088E-001	1.29134E-001	3.57780E+000	9	...........
	28	0.386667	1.23627E-001	-2.78201E-004	0.00000E+000	-3.43931E-005	-1.68088E-001	1.23659E-001	3.57780E+000	9	...........
	29	0.4	1.18363E-001	-2.79218E-004	0.00000E+000	-3.30492E-005	-1.68088E-001	1.18396E-001	3.57780E+000	9	...........
	30	0.413333	1.13299E-001	-2.78513E-004	0.00000E+000	-3.15553E-005	-1.68088E-001	1.13333E-001	3.57780E+000	9	...........
	31	0.426667	1.08471E-001	-2.78630E-004	0.00000E+000	-3.02233E-005	-1.68088E-001	1.08504E-001	3.57780E+000	9	...........
	32	0.44	1.03838E-001	-2.77889E-004	0.00000E+000	-2.88554E-005	-1.68088E-001	1.03864E-001	3.57780E+000	9	...........
	33	0.453333	9.93559E-002	-2.78474E-004	0.00000E+000	-2.76680E-005	-1.68088E-001	9.93838E-002	3.57780E+000	9	...........
	34	0.466667	9.50419E-002	-2.77349E-004	0.00000E+000	-2.63597E-005	-1.68088E-001	9.50732E-002	3.57780E+000	9	...........
	35	0.48	9.08662E-002	-2.80473E-004	0.00000E+000	-2.54855E-005	-1.68088E-001	9.08945E-002	3.57780E+000	9	...........
	36	0.493333	8.68155E-002	-2.79219E-004	0.00000E+000	-2.42405E-005	-1.68088E-001	8.68382E-002	3.57780E+000	9	...........
	37	0.506667	8.28833E-002	-2.79087E-004	0.00000E+000	-2.31317E-005	-1.68088E-001	8.29050E-002	3.57780E+000	9	...........
	38	0.52	7.90817E-002	-2.79913E-004	0.00000E+000	-2.21360E-005	-1.68088E-001	7.91060E-002	3.57780E+000	9	...........
	39	0.533333	7.53764E-002	-2.78017E-004	0.00000E+000	-2.09559E-005	-1.68088E-001	7.53915E-002	3.57780E+000	9	...........
	40	0.546667	7.17147E-002	-2.79372E-004	0.00000E+000	-2.00351E-005	-1.68088E-001	7.17318E-002	3.57780E+000	9	...........
	41	0.56	6.81887E-002	-2.78379E-004	0.00000E+000	-1.89823E-005	-1.68088E-001	6.82044E-002	3.57780E+000	9	...........
	42	0.573333	6.47199E-002	-2.78824E-004	0.00000E+000	-1.80455E-005	-1.68088E-001	6.47365E-002	3.57780E+000	9	...........
	43	0.586667	6.13357E-002	-2.79352E-004	0.00000E+000	-1.71342E-005	-1.68088E-001	6.13489E-002	3.57780E+000	9	...........
	44	0.6	5.80411E-002	-2.79014E-004	0.00000E+000	-1.61942E-005	-1.68088E-001	5.80532E-002	3.57780E+000	9	...........
	45	0.613333	5.48123E-002	-2.80557E-004	0.00000E+000	-1.53779E-005	-1.68088E-001	5.48237E-002	3.57780E+000	9	...........
	46	0.626667	5.16827E-002	-2.79151E-004	0.00000E+000	-1.44273E-005	-1.68088E-001	5.16946E-002	3.57780E+000	9	...........
	47	0.64	4.86266E-002	-2.79263E-004	0.00000E+000	-1.35796E-005	-1.68088E-001	4.86357E-002	3.57780E+000	9	...........
	48	0.653333	4.55949E-002	-2.79673E-004	0.00000E+000	-1.27517E-005	-1.68088E-001	4.56074E-002	3.57780E+000	9	...........
	49	0.666667	4.25987E-002	-2.78417E-004	0.00000E+000	-1.18602E-005	-1.68088E-001	4.26095E-002	3.57780E+000	9	...........
	50	0.68	3.96251E-002	-2.78815E-004	0.00000E+000	-1.10480E-005	-1.68088E-001	3.96324E-002	3.57780E+000	9	...........
	51	0.693333	3.67052E-002	-2.78439E-004	0.00000E+000	-1.02202E-005	-1.68088E-001	3.67111E-002	3.57780E+000	9	...........
	52	0.706667	3.38383E-002	-2.79517E-004	0.00000E+000	-9.45838E-006	-1.68088E-001	3.38452E-002	3.57780E+000	9	...........
	53	0.72	3.10184E-002	-2.78293E-004	0.00000E+000	-8.63219E-006	-1.68088E-001	3.10289E-002	3.57780E+000	9	...........
	54	0.733333	2.82580E-002	-2.79499E-004	0.00000E+000	-7.89810E-006	-1.68088E-001	2.82643E-002	3.57780E+000	9	...........
	55	0.746667	2.55251E-002	-2.77873E-004	0.00000E+000	-7.09272E-006	-1.68088E-001	2.55266E-002	3.57780E+000	9	...........
	56	0.76	2.28022E-002	-2.79498E-004	0.00000E+000	-6.37316E-006	-1.68088E-001	2.27990E-002	3.57780E+000	9	...........
	57	0.773333	2.01428E-002	-2.79391E-004	0.00000E+000	-5.62771E-006	-1.68088E-001	2.01406E-002	3.57780E+000	9	...........
	58	0.786667	1.75057E-002	-2.78858E-004	0.00000E+000	-4.88162E-006	-1.68088E-001	1.74979E-002	3.57780E+000	9	...........
	59	0.8	1.48830E-002	-2.80042E-004	0.00000E+000	-4.16786E-006	-1.68088E-001	1.48775E-002	3.57780E+000	9	...........
	60	0.813333	1.23341E-002	-2.78891E-004	0.00000E+000	-3.43986E-006	-1.68088E-001	1.23310E-002	3.57780E+000	9	...........
	61	0.826667	9.76423E-003	-2.78843E-004	0.00000E+000	-2.72268E-006	-1.68088E-001	9.75574E-003	3.57780E+000	9	...........
	62	0.84	7.27263E-003	-2.78087E-004	0.00000E+000	-2.02243E-006	-1.68088E-001	7.25706E-003	3.57780E+000	9	...........
	63	0.853333	4.80997E-003	-2.77864E-004	0.00000E+000	-1.33652E-006	-1.68088E-001	4.79721E-003	3.57780E+000	9	...........
	64	0.866667	2.40004E-003	-2.78305E-004	0.00000E+000	-6.67942E-007	-1.68088E-001	2.38461E-003	3.57780E+000	9	...........
	65	0.875	4.23713E-004	-2.79801E-004	0.00000E+000	-1.18555E-007	-1.68088E-001	4.05090E-004	3.57780E+000	9	...........
STARTTIMEOFFSET	QUANT	1269.829	Start Time Offset (s)
