EXPLAIN
TAG	PWR800_DISCHARGE
TITLE	LABEL	PWR Cyclic Charge Discharge (Cell) - Discharge Step	Test &Identifier
DATE	LABEL	7-7-2017	Date
TIME	LABEL	15:46:17	Time
NOTES	NOTES	3	&Notes...
	supercap test cell
	2.8mg
	6M KOH
PSTAT	PSTAT	IFC5000-01520	Potentiostat
CAPACITY	QUANT	1.00000E-003	Capacity (A-hr)
CELLTYPE	SELECTOR	1	&Cell Type
WORKINGCONNECTION	SELECTOR	0	&Working Lead
MAXDISCHARGETIME	VARIABLEANDUNITS	1.00000E+002	s	1.00000E+002	second(s)	Max &Discharge Time
DISCHARGEMODE	MULTIPARAM	0	2.80000E-004	&Discharge Mode	Constant Current	Amp(s)
SAMPLETIME	QUANT	1.00000E-002	Sa&mple Period (s)
DISCHARGESTOPAT1	MULTIPARAM	3	0.00000E+000	Discharge Stop At &1	Voltage < Limit	V
DISCHARGESTOPAT2	MULTIPARAM	0	0.00000E+000	Discharge Stop At &2	None	N/A
AESBHCSELECTOR	TOGGLE	F	Save Both Half Cells
IRCOMP	TOGGLE	F	IR &Measure
EOC	QUANT	0	Open Circuit (V)
SEQUENCER	TOGGLE	TRUE	Run as Sequence
PSTATMODEL	IQUANT	53	Pstat Model
PSTATSECTION	LABEL	IFC5000-01520	Pstat Section
PSTATSERIALNO	LABEL	01520	Pstat Serial Number
CTRLMODE	IQUANT	0	Control Mode
ELECTROMETER	IQUANT	1	RE=0 or CS=1
IESTAB	IQUANT	0	I/E Stability
CASPEED	IQUANT	4	Control Amp Speed
CONVENTION	IQUANT	1	Current Convention
ICHRANGE	IQUANT	2	Ich Range
ICHRANGEMODE	TOGGLE	T	Ich Auto Range
ICHOFFSETENABLE	TOGGLE	F	Ich Offset Enable
ICHOFFSET	QUANT	0	Ich Offset (V)
ICHFILTER	IQUANT	1	Ich Filter
VCHRANGE	IQUANT	2	Vch Range
VCHRANGEMODE	TOGGLE	T	Vch Auto Range
VCHOFFSETENABLE	TOGGLE	F	Vch Offset Enable
VCHOFFSET	QUANT	0	Vch Offset (V)
VCHFILTER	IQUANT	1	Vch Filter
IERANGELOWERLIMIT	IQUANT	9	I/E Range Lower Limit
IERANGEMODE	TOGGLE	F	I/E AutoRange
IERANGE	IQUANT	9	I/E Range
ACHSELECT	IQUANT	1	Ach Select
ACHRANGE	IQUANT	2	Ach Range
ACHOFFSETENABLE	TOGGLE	F	Ach Offset Enable
ACHOFFSET	QUANT	0	Ach Offset (V)
ACHFILTER	IQUANT	1	Ach Filter
CABLEID	IQUANT	14	Cable ID
DCCALDATE	LABEL	5-7-2017	DC Calibration Date
ACCALDATE	LABEL	12/3/2015	AC Calibration Date
FRAMEWORKVERSION	QUANT	7.01	Framework Version
INSTRUMENTVERSION	LABEL	4.00	Instrument Version
CURVE	TABLE	102
	Pt	T	Vf	Im	Vu	Pwr	Sig	Ach	Temp	IERange	Over
	#	s	V	A	V	W	V	V	deg C	#	bits
	0	0.013333	5.49238E-001	-2.79198E-004	0.00000E+000	-1.53346E-004	-1.68088E-001	5.49477E-001	3.57800E+000	9	...........
	1	0.026667	5.19556E-001	-2.79423E-004	0.00000E+000	-1.45176E-004	-1.68088E-001	5.19808E-001	3.57800E+000	9	...........
	2	0.04	4.92818E-001	-2.79380E-004	0.00000E+000	-1.37684E-004	-1.68088E-001	4.93054E-001	3.57800E+000	9	...........
	3	0.053333	4.68673E-001	-2.79420E-004	0.00000E+000	-1.30957E-004	-1.68088E-001	4.68790E-001	3.57800E+000	9	...........
	4	0.066667	4.46171E-001	-2.79443E-004	0.00000E+000	-1.24679E-004	-1.68088E-001	4.46278E-001	3.57800E+000	9	...........
	5	0.08	4.25374E-001	-2.79366E-004	0.00000E+000	-1.18835E-004	-1.68088E-001	4.25485E-001	3.57800E+000	9	...........
	6	0.093333	4.06157E-001	-2.78898E-004	0.00000E+000	-1.13276E-004	-1.68088E-001	4.06258E-001	3.57800E+000	9	...........
	7	0.106667	3.88344E-001	-2.78360E-004	0.00000E+000	-1.08099E-004	-1.68088E-001	3.88431E-001	3.57800E+000	9	...........
	8	0.12	3.71798E-001	-2.78741E-004	0.00000E+000	-1.03635E-004	-1.68088E-001	3.71892E-001	3.57800E+000	9	...........
	9	0.133333	3.56466E-001	-2.77677E-004	0.00000E+000	-9.89823E-005	-1.68088E-001	3.56547E-001	3.57800E+000	9	...........
	10	0.146667	3.42181E-001	-2.79322E-004	0.00000E+000	-9.55787E-005	-1.68088E-001	3.42265E-001	3.57800E+000	9	...........
	11	0.16	3.28928E-001	-2.79372E-004	0.00000E+000	-9.18932E-005	-1.68088E-001	3.29003E-001	3.57800E+000	9	...........
	12	0.173333	3.16590E-001	-2.79032E-004	0.00000E+000	-8.83387E-005	-1.68088E-001	3.16660E-001	3.57800E+000	9	...........
	13	0.186667	3.05118E-001	-2.79336E-004	0.00000E+000	-8.52307E-005	-1.68088E-001	3.05189E-001	3.57800E+000	9	...........
	14	0.2	2.94425E-001	-2.79027E-004	0.00000E+000	-8.21526E-005	-1.68088E-001	2.94497E-001	3.57800E+000	9	...........
	15	0.213333	2.84406E-001	-2.77931E-004	0.00000E+000	-7.90454E-005	-1.68088E-001	2.84480E-001	3.57800E+000	9	...........
	16	0.226667	2.74980E-001	-2.79076E-004	0.00000E+000	-7.67404E-005	-1.68088E-001	2.75049E-001	3.57800E+000	9	...........
	17	0.24	2.66129E-001	-2.78956E-004	0.00000E+000	-7.42384E-005	-1.68088E-001	2.66200E-001	3.57800E+000	9	...........
	18	0.253333	2.57824E-001	-2.78829E-004	0.00000E+000	-7.18888E-005	-1.68088E-001	2.57892E-001	3.57800E+000	9	...........
	19	0.266667	2.50007E-001	-2.79241E-004	0.00000E+000	-6.98122E-005	-1.68088E-001	2.50072E-001	3.57800E+000	9	...........
	20	0.28	2.42624E-001	-2.79415E-004	0.00000E+000	-6.77927E-005	-1.68088E-001	2.42684E-001	3.57800E+000	9	...........
	21	0.293333	2.35615E-001	-2.79806E-004	0.00000E+000	-6.59267E-005	-1.68088E-001	2.35668E-001	3.57800E+000	9	...........
	22	0.306667	2.28966E-001	-2.78427E-004	0.00000E+000	-6.37502E-005	-1.68088E-001	2.29020E-001	3.57800E+000	9	...........
	23	0.32	2.22682E-001	-2.79294E-004	0.00000E+000	-6.21938E-005	-1.68088E-001	2.22734E-001	3.57800E+000	9	...........
	24	0.333333	2.16627E-001	-2.78574E-004	0.00000E+000	-6.03467E-005	-1.68088E-001	2.16678E-001	3.57800E+000	9	...........
	25	0.346667	2.10873E-001	-2.79020E-004	0.00000E+000	-5.88376E-005	-1.68088E-001	2.10924E-001	3.57800E+000	9	...........
	26	0.36	2.05431E-001	-2.79232E-004	0.00000E+000	-5.73628E-005	-1.68088E-001	2.05477E-001	3.57800E+000	9	...........
	27	0.373333	2.00175E-001	-2.78940E-004	0.00000E+000	-5.58366E-005	-1.68088E-001	2.00221E-001	3.57800E+000	9	...........
	28	0.386667	1.95116E-001	-2.78768E-004	0.00000E+000	-5.43921E-005	-1.68088E-001	1.95160E-001	3.57800E+000	9	...........
	29	0.4	1.90246E-001	-2.78616E-004	0.00000E+000	-5.30055E-005	-1.68088E-001	1.90285E-001	3.57800E+000	9	...........
	30	0.413333	1.85568E-001	-2.79159E-004	0.00000E+000	-5.18032E-005	-1.68088E-001	1.85610E-001	3.57800E+000	9	...........
	31	0.426667	1.81056E-001	-2.79295E-004	0.00000E+000	-5.05681E-005	-1.68088E-001	1.81097E-001	3.57800E+000	9	...........
	32	0.44	1.76654E-001	-2.79454E-004	0.00000E+000	-4.93668E-005	-1.68088E-001	1.76693E-001	3.57800E+000	9	...........
	33	0.453333	1.72435E-001	-2.79080E-004	0.00000E+000	-4.81233E-005	-1.68088E-001	1.72475E-001	3.57800E+000	9	...........
	34	0.466667	1.68324E-001	-2.78438E-004	0.00000E+000	-4.68679E-005	-1.68088E-001	1.68365E-001	3.57800E+000	9	...........
	35	0.48	1.64290E-001	-2.79744E-004	0.00000E+000	-4.59591E-005	-1.68088E-001	1.64328E-001	3.57800E+000	9	...........
	36	0.493333	1.60411E-001	-2.78557E-004	0.00000E+000	-4.46835E-005	-1.68088E-001	1.60446E-001	3.57800E+000	9	...........
	37	0.506667	1.56633E-001	-2.78667E-004	0.00000E+000	-4.36485E-005	-1.68088E-001	1.56667E-001	3.57800E+000	9	...........
	38	0.52	1.52958E-001	-2.79969E-004	0.00000E+000	-4.28234E-005	-1.68088E-001	1.52990E-001	3.57800E+000	9	...........
	39	0.533333	1.49349E-001	-2.79841E-004	0.00000E+000	-4.17939E-005	-1.68088E-001	1.49383E-001	3.57800E+000	9	...........
	40	0.546667	1.45822E-001	-2.79713E-004	0.00000E+000	-4.07883E-005	-1.68088E-001	1.45856E-001	3.57800E+000	9	...........
	41	0.56	1.42330E-001	-2.79240E-004	0.00000E+000	-3.97442E-005	-1.68088E-001	1.42364E-001	3.57800E+000	9	...........
	42	0.573333	1.38921E-001	-2.79398E-004	0.00000E+000	-3.88143E-005	-1.68088E-001	1.38951E-001	3.57800E+000	9	...........
	43	0.586667	1.35584E-001	-2.78823E-004	0.00000E+000	-3.78040E-005	-1.68088E-001	1.35614E-001	3.57800E+000	9	...........
	44	0.6	1.32303E-001	-2.79145E-004	0.00000E+000	-3.69317E-005	-1.68088E-001	1.32330E-001	3.57800E+000	9	...........
	45	0.613333	1.29122E-001	-2.78885E-004	0.00000E+000	-3.60102E-005	-1.68088E-001	1.29149E-001	3.57800E+000	9	...........
	46	0.626667	1.26001E-001	-2.79665E-004	0.00000E+000	-3.52380E-005	-1.68088E-001	1.26030E-001	3.57800E+000	9	...........
	47	0.64	1.22925E-001	-2.79457E-004	0.00000E+000	-3.43522E-005	-1.68088E-001	1.22954E-001	3.57800E+000	9	...........
	48	0.653333	1.19901E-001	-2.78965E-004	0.00000E+000	-3.34482E-005	-1.68088E-001	1.19922E-001	3.57800E+000	9	...........
	49	0.666667	1.16915E-001	-2.78273E-004	0.00000E+000	-3.25343E-005	-1.68088E-001	1.16944E-001	3.57800E+000	9	...........
	50	0.68	1.13973E-001	-2.79025E-004	0.00000E+000	-3.18014E-005	-1.68088E-001	1.14006E-001	3.57800E+000	9	...........
	51	0.693333	1.11057E-001	-2.79214E-004	0.00000E+000	-3.10085E-005	-1.68088E-001	1.11082E-001	3.57800E+000	9	...........
	52	0.706667	1.08190E-001	-2.79760E-004	0.00000E+000	-3.02672E-005	-1.68088E-001	1.08212E-001	3.57800E+000	9	...........
	53	0.72	1.05356E-001	-2.78493E-004	0.00000E+000	-2.93408E-005	-1.68088E-001	1.05378E-001	3.57800E+000	9	...........
	54	0.733333	1.02580E-001	-2.79279E-004	0.00000E+000	-2.86486E-005	-1.68088E-001	1.02600E-001	3.57800E+000	9	...........
	55	0.746667	9.98900E-002	-2.78344E-004	0.00000E+000	-2.78037E-005	-1.68088E-001	9.99137E-002	3.57800E+000	9	...........
	56	0.76	9.72222E-002	-2.78982E-004	0.00000E+000	-2.71233E-005	-1.68088E-001	9.72436E-002	3.57800E+000	9	...........
	57	0.773333	9.45975E-002	-2.78272E-004	0.00000E+000	-2.63238E-005	-1.68088E-001	9.46193E-002	3.57800E+000	9	...........
	58	0.786667	9.19808E-002	-2.79491E-004	0.00000E+000	-2.57078E-005	-1.68088E-001	9.20028E-002	3.57800E+000	9	...........
	59	0.8	8.93728E-002	-2.78753E-004	0.00000E+000	-2.49129E-005	-1.68088E-001	8.93982E-002	3.57800E+000	9	...........
	60	0.813333	8.67667E-002	-2.79534E-004	0.00000E+000	-2.42543E-005	-1.68088E-001	8.67843E-002	3.57800E+000	9	...........
	61	0.826667	8.42795E-002	-2.79064E-004	0.00000E+000	-2.35193E-005	-1.68088E-001	8.42973E-002	3.57800E+000	9	...........
	62	0.84	8.17697E-002	-2.80037E-004	0.00000E+000	-2.28985E-005	-1.68088E-001	8.17827E-002	3.57835E+000	9	...........
	63	0.853333	7.93051E-002	-2.79123E-004	0.00000E+000	-2.21359E-005	-1.68088E-001	7.93212E-002	3.57940E+000	9	...........
	64	0.866667	7.68382E-002	-2.79155E-004	0.00000E+000	-2.14498E-005	-1.68088E-001	7.68525E-002	3.57940E+000	9	...........
	65	0.88	7.43933E-002	-2.79299E-004	0.00000E+000	-2.07780E-005	-1.68088E-001	7.44105E-002	3.57940E+000	9	...........
	66	0.893333	7.19927E-002	-2.79157E-004	0.00000E+000	-2.00973E-005	-1.68088E-001	7.20121E-002	3.57940E+000	9	...........
	67	0.906667	6.96170E-002	-2.79155E-004	0.00000E+000	-1.94339E-005	-1.68088E-001	6.96260E-002	3.57940E+000	9	...........
	68	0.92	6.72624E-002	-2.78820E-004	0.00000E+000	-1.87541E-005	-1.68088E-001	6.72701E-002	3.57940E+000	9	...........
	69	0.933333	6.48903E-002	-2.79234E-004	0.00000E+000	-1.81196E-005	-1.68088E-001	6.49031E-002	3.57940E+000	9	...........
	70	0.946667	6.25151E-002	-2.79701E-004	0.00000E+000	-1.74855E-005	-1.68088E-001	6.25274E-002	3.57940E+000	9	...........
	71	0.96	6.02232E-002	-2.78745E-004	0.00000E+000	-1.67869E-005	-1.68088E-001	6.02339E-002	3.57940E+000	9	...........
	72	0.97333	5.79535E-002	-2.80002E-004	0.00000E+000	-1.62271E-005	-1.68088E-001	5.79680E-002	3.57940E+000	9	...........
	73	0.98667	5.56813E-002	-2.79278E-004	0.00000E+000	-1.55506E-005	-1.68088E-001	5.56888E-002	3.57940E+000	9	...........
	74	1	5.34202E-002	-2.78748E-004	0.00000E+000	-1.48908E-005	-1.68088E-001	5.34309E-002	3.57940E+000	9	...........
	75	1.01333	5.12238E-002	-2.78813E-004	0.00000E+000	-1.42819E-005	-1.68088E-001	5.12302E-002	3.57940E+000	9	...........
	76	1.02667	4.90514E-002	-2.79321E-004	0.00000E+000	-1.37011E-005	-1.68088E-001	4.90475E-002	3.57940E+000	9	...........
	77	1.04	4.69489E-002	-2.79683E-004	0.00000E+000	-1.31308E-005	-1.68088E-001	4.69592E-002	3.57940E+000	9	...........
	78	1.05333	4.47961E-002	-2.78874E-004	0.00000E+000	-1.24925E-005	-1.68088E-001	4.48029E-002	3.57940E+000	9	...........
	79	1.06667	4.26667E-002	-2.79251E-004	0.00000E+000	-1.19147E-005	-1.68088E-001	4.26694E-002	3.57940E+000	9	...........
	80	1.08	4.05892E-002	-2.78983E-004	0.00000E+000	-1.13237E-005	-1.68088E-001	4.05955E-002	3.57940E+000	9	...........
	81	1.09333	3.84842E-002	-2.79048E-004	0.00000E+000	-1.07389E-005	-1.68088E-001	3.84915E-002	3.57940E+000	9	...........
	82	1.10667	3.63751E-002	-2.79461E-004	0.00000E+000	-1.01654E-005	-1.68088E-001	3.63773E-002	3.57940E+000	9	...........
	83	1.12	3.43176E-002	-2.79184E-004	0.00000E+000	-9.58093E-006	-1.68088E-001	3.43195E-002	3.57940E+000	9	...........
	84	1.13333	3.23013E-002	-2.79314E-004	0.00000E+000	-9.02219E-006	-1.68088E-001	3.23002E-002	3.57940E+000	9	...........
	85	1.14667	3.02433E-002	-2.78731E-004	0.00000E+000	-8.42976E-006	-1.68088E-001	3.02381E-002	3.57940E+000	9	...........
	86	1.16	2.82448E-002	-2.79335E-004	0.00000E+000	-7.88979E-006	-1.68088E-001	2.82463E-002	3.57940E+000	9	...........
	87	1.17333	2.62846E-002	-2.79285E-004	0.00000E+000	-7.34092E-006	-1.68088E-001	2.62805E-002	3.57940E+000	9	...........
	88	1.18667	2.42975E-002	-2.79367E-004	0.00000E+000	-6.78790E-006	-1.68088E-001	2.42937E-002	3.57940E+000	9	...........
	89	1.2	2.22880E-002	-2.79452E-004	0.00000E+000	-6.22843E-006	-1.68088E-001	2.22868E-002	3.57940E+000	9	...........
	90	1.21333	2.02865E-002	-2.79060E-004	0.00000E+000	-5.66115E-006	-1.68088E-001	2.02789E-002	3.57940E+000	9	...........
	91	1.22667	1.83122E-002	-2.78885E-004	0.00000E+000	-5.10702E-006	-1.68088E-001	1.83027E-002	3.57940E+000	9	...........
	92	1.24	1.63172E-002	-2.78951E-004	0.00000E+000	-4.55170E-006	-1.68088E-001	1.63081E-002	3.57940E+000	9	...........
	93	1.25333	1.43515E-002	-2.79031E-004	0.00000E+000	-4.00451E-006	-1.68088E-001	1.43395E-002	3.57940E+000	9	...........
	94	1.26667	1.24106E-002	-2.78014E-004	0.00000E+000	-3.45034E-006	-1.68088E-001	1.23979E-002	3.57940E+000	9	...........
	95	1.28	1.05072E-002	-2.79101E-004	0.00000E+000	-2.93258E-006	-1.68088E-001	1.04896E-002	3.57940E+000	9	...........
	96	1.29333	8.64163E-003	-2.78744E-004	0.00000E+000	-2.40880E-006	-1.68088E-001	8.62770E-003	3.57940E+000	9	...........
	97	1.30667	6.77117E-003	-2.79392E-004	0.00000E+000	-1.89181E-006	-1.68088E-001	6.75645E-003	3.57940E+000	9	...........
	98	1.32	4.85633E-003	-2.79553E-004	0.00000E+000	-1.35760E-006	-1.68088E-001	4.83845E-003	3.57940E+000	9	...........
	99	1.33333	2.96573E-003	-2.79390E-004	0.00000E+000	-8.28595E-007	-1.68088E-001	2.95023E-003	3.57940E+000	9	...........
	100	1.34667	1.13467E-003	-2.79422E-004	0.00000E+000	-3.17051E-007	-1.68088E-001	1.12164E-003	3.57940E+000	9	...........
	101	1.35	-4.03789E-005	-2.78260E-004	0.00000E+000	1.12358E-008	-1.68088E-001	-6.20121E-005	3.57940E+000	9	...........
STARTTIMEOFFSET	QUANT	501.465	Start Time Offset (s)
