EXPLAIN
TAG	PWR800_DISCHARGE
TITLE	LABEL	PWR Cyclic Charge Discharge (Cell) - Discharge Step	Test &Identifier
DATE	LABEL	7-7-2017	Date
TIME	LABEL	16:23:56	Time
NOTES	NOTES	3	&Notes...
	supercap test cell
	2.8mg
	6M KOH
PSTAT	PSTAT	IFC5000-01520	Potentiostat
CAPACITY	QUANT	1.00000E-003	Capacity (A-hr)
CELLTYPE	SELECTOR	1	&Cell Type
WORKINGCONNECTION	SELECTOR	0	&Working Lead
MAXDISCHARGETIME	VARIABLEANDUNITS	1.00000E+002	s	1.00000E+002	second(s)	Max &Discharge Time
DISCHARGEMODE	MULTIPARAM	0	2.80000E-004	&Discharge Mode	Constant Current	Amp(s)
SAMPLETIME	QUANT	1.00000E-002	Sa&mple Period (s)
DISCHARGESTOPAT1	MULTIPARAM	3	0.00000E+000	Discharge Stop At &1	Voltage < Limit	V
DISCHARGESTOPAT2	MULTIPARAM	0	0.00000E+000	Discharge Stop At &2	None	N/A
AESBHCSELECTOR	TOGGLE	F	Save Both Half Cells
IRCOMP	TOGGLE	F	IR &Measure
EOC	QUANT	0	Open Circuit (V)
SEQUENCER	TOGGLE	TRUE	Run as Sequence
PSTATMODEL	IQUANT	53	Pstat Model
PSTATSECTION	LABEL	IFC5000-01520	Pstat Section
PSTATSERIALNO	LABEL	01520	Pstat Serial Number
CTRLMODE	IQUANT	0	Control Mode
ELECTROMETER	IQUANT	1	RE=0 or CS=1
IESTAB	IQUANT	0	I/E Stability
CASPEED	IQUANT	4	Control Amp Speed
CONVENTION	IQUANT	1	Current Convention
ICHRANGE	IQUANT	2	Ich Range
ICHRANGEMODE	TOGGLE	T	Ich Auto Range
ICHOFFSETENABLE	TOGGLE	F	Ich Offset Enable
ICHOFFSET	QUANT	0	Ich Offset (V)
ICHFILTER	IQUANT	1	Ich Filter
VCHRANGE	IQUANT	2	Vch Range
VCHRANGEMODE	TOGGLE	T	Vch Auto Range
VCHOFFSETENABLE	TOGGLE	F	Vch Offset Enable
VCHOFFSET	QUANT	0	Vch Offset (V)
VCHFILTER	IQUANT	1	Vch Filter
IERANGELOWERLIMIT	IQUANT	9	I/E Range Lower Limit
IERANGEMODE	TOGGLE	F	I/E AutoRange
IERANGE	IQUANT	9	I/E Range
ACHSELECT	IQUANT	1	Ach Select
ACHRANGE	IQUANT	2	Ach Range
ACHOFFSETENABLE	TOGGLE	F	Ach Offset Enable
ACHOFFSET	QUANT	0	Ach Offset (V)
ACHFILTER	IQUANT	1	Ach Filter
CABLEID	IQUANT	14	Cable ID
DCCALDATE	LABEL	5-7-2017	DC Calibration Date
ACCALDATE	LABEL	12/3/2015	AC Calibration Date
FRAMEWORKVERSION	QUANT	7.01	Framework Version
INSTRUMENTVERSION	LABEL	4.00	Instrument Version
CURVE	TABLE	52
	Pt	T	Vf	Im	Vu	Pwr	Sig	Ach	Temp	IERange	Over
	#	s	V	A	V	W	V	V	deg C	#	bits
	0	0.013333	5.18893E-001	-2.77505E-004	0.00000E+000	-1.43995E-004	-1.68088E-001	5.19095E-001	3.57740E+000	9	...........
	1	0.026667	4.84842E-001	-2.79396E-004	0.00000E+000	-1.35463E-004	-1.68088E-001	4.85002E-001	3.57740E+000	9	...........
	2	0.04	4.53596E-001	-2.79097E-004	0.00000E+000	-1.26597E-004	-1.68088E-001	4.53694E-001	3.57740E+000	9	...........
	3	0.053333	4.24317E-001	-2.78521E-004	0.00000E+000	-1.18181E-004	-1.68088E-001	4.24411E-001	3.57740E+000	9	...........
	4	0.066667	3.96927E-001	-2.77636E-004	0.00000E+000	-1.10201E-004	-1.68088E-001	3.97012E-001	3.57740E+000	9	...........
	5	0.08	3.71272E-001	-2.78953E-004	0.00000E+000	-1.03568E-004	-1.68088E-001	3.71347E-001	3.57740E+000	9	...........
	6	0.093333	3.47272E-001	-2.78742E-004	0.00000E+000	-9.67993E-005	-1.68088E-001	3.47345E-001	3.57740E+000	9	...........
	7	0.106667	3.24823E-001	-2.78639E-004	0.00000E+000	-9.05087E-005	-1.68088E-001	3.24892E-001	3.57740E+000	9	...........
	8	0.12	3.03920E-001	-2.79705E-004	0.00000E+000	-8.50082E-005	-1.68088E-001	3.03983E-001	3.57740E+000	9	...........
	9	0.133333	2.84433E-001	-2.79282E-004	0.00000E+000	-7.94372E-005	-1.68088E-001	2.84497E-001	3.57740E+000	9	...........
	10	0.146667	2.66293E-001	-2.77957E-004	0.00000E+000	-7.40180E-005	-1.68088E-001	2.66357E-001	3.57740E+000	9	...........
	11	0.16	2.49482E-001	-2.79119E-004	0.00000E+000	-6.96351E-005	-1.68088E-001	2.49536E-001	3.57740E+000	9	...........
	12	0.173333	2.33838E-001	-2.78791E-004	0.00000E+000	-6.51918E-005	-1.68088E-001	2.33890E-001	3.57740E+000	9	...........
	13	0.186667	2.19341E-001	-2.79060E-004	0.00000E+000	-6.12094E-005	-1.68088E-001	2.19389E-001	3.57740E+000	9	...........
	14	0.2	2.05860E-001	-2.78504E-004	0.00000E+000	-5.73328E-005	-1.68088E-001	2.05899E-001	3.57740E+000	9	...........
	15	0.213333	1.93352E-001	-2.79309E-004	0.00000E+000	-5.40050E-005	-1.68088E-001	1.93397E-001	3.57740E+000	9	...........
	16	0.226667	1.81744E-001	-2.79288E-004	0.00000E+000	-5.07589E-005	-1.68088E-001	1.81782E-001	3.57740E+000	9	...........
	17	0.24	1.70916E-001	-2.79576E-004	0.00000E+000	-4.77839E-005	-1.68088E-001	1.70952E-001	3.57740E+000	9	...........
	18	0.253333	1.60862E-001	-2.80019E-004	0.00000E+000	-4.50445E-005	-1.68088E-001	1.60900E-001	3.57740E+000	9	...........
	19	0.266667	1.51461E-001	-2.78147E-004	0.00000E+000	-4.21283E-005	-1.68088E-001	1.51490E-001	3.57740E+000	9	...........
	20	0.28	1.42572E-001	-2.78077E-004	0.00000E+000	-3.96461E-005	-1.68088E-001	1.42600E-001	3.57740E+000	9	...........
	21	0.293333	1.34278E-001	-2.78742E-004	0.00000E+000	-3.74290E-005	-1.68088E-001	1.34302E-001	3.57740E+000	9	...........
	22	0.306667	1.26474E-001	-2.78081E-004	0.00000E+000	-3.51700E-005	-1.68088E-001	1.26494E-001	3.57740E+000	9	...........
	23	0.32	1.19090E-001	-2.79959E-004	0.00000E+000	-3.33402E-005	-1.68088E-001	1.19118E-001	3.57740E+000	9	...........
	24	0.333333	1.12158E-001	-2.80195E-004	0.00000E+000	-3.14262E-005	-1.68088E-001	1.12184E-001	3.57740E+000	9	...........
	25	0.346667	1.05619E-001	-2.78228E-004	0.00000E+000	-2.93862E-005	-1.68088E-001	1.05639E-001	3.57740E+000	9	...........
	26	0.36	9.94270E-002	-2.79483E-004	0.00000E+000	-2.77882E-005	-1.68088E-001	9.94472E-002	3.57740E+000	9	...........
	27	0.373333	9.35120E-002	-2.79083E-004	0.00000E+000	-2.60976E-005	-1.68088E-001	9.35346E-002	3.57740E+000	9	...........
	28	0.386667	8.78785E-002	-2.78811E-004	0.00000E+000	-2.45015E-005	-1.68088E-001	8.79007E-002	3.57740E+000	9	...........
	29	0.4	8.24960E-002	-2.79422E-004	0.00000E+000	-2.30512E-005	-1.68088E-001	8.25112E-002	3.57740E+000	9	...........
	30	0.413333	7.73770E-002	-2.78592E-004	0.00000E+000	-2.15566E-005	-1.68088E-001	7.73869E-002	3.57740E+000	9	...........
	31	0.426667	7.24219E-002	-2.78488E-004	0.00000E+000	-2.01687E-005	-1.68088E-001	7.24282E-002	3.57740E+000	9	...........
	32	0.44	6.76831E-002	-2.78631E-004	0.00000E+000	-1.88586E-005	-1.68088E-001	6.76932E-002	3.57740E+000	9	...........
	33	0.453333	6.31380E-002	-2.78536E-004	0.00000E+000	-1.75862E-005	-1.68088E-001	6.31454E-002	3.57740E+000	9	...........
	34	0.466667	5.87090E-002	-2.79483E-004	0.00000E+000	-1.64082E-005	-1.68088E-001	5.87132E-002	3.57740E+000	9	...........
	35	0.48	5.44207E-002	-2.78531E-004	0.00000E+000	-1.51579E-005	-1.68088E-001	5.44271E-002	3.57740E+000	9	...........
	36	0.493333	5.03351E-002	-2.78884E-004	0.00000E+000	-1.40377E-005	-1.68088E-001	5.03426E-002	3.57740E+000	9	...........
	37	0.506667	4.63824E-002	-2.79729E-004	0.00000E+000	-1.29745E-005	-1.68088E-001	4.63808E-002	3.57740E+000	9	...........
	38	0.52	4.24842E-002	-2.78673E-004	0.00000E+000	-1.18392E-005	-1.68088E-001	4.24842E-002	3.57740E+000	9	...........
	39	0.533333	3.87422E-002	-2.78652E-004	0.00000E+000	-1.07956E-005	-1.68088E-001	3.87452E-002	3.57740E+000	9	...........
	40	0.546667	3.51189E-002	-2.77739E-004	0.00000E+000	-9.75390E-006	-1.68088E-001	3.51197E-002	3.57740E+000	9	...........
	41	0.56	3.15611E-002	-2.79139E-004	0.00000E+000	-8.80991E-006	-1.68088E-001	3.15583E-002	3.57740E+000	9	...........
	42	0.573333	2.80397E-002	-2.78956E-004	0.00000E+000	-7.82184E-006	-1.68088E-001	2.80342E-002	3.57740E+000	9	...........
	43	0.586667	2.45725E-002	-2.78972E-004	0.00000E+000	-6.85503E-006	-1.68088E-001	2.45668E-002	3.57740E+000	9	...........
	44	0.6	2.12323E-002	-2.79192E-004	0.00000E+000	-5.92787E-006	-1.68088E-001	2.12277E-002	3.57740E+000	9	...........
	45	0.613333	1.79628E-002	-2.78756E-004	0.00000E+000	-5.00725E-006	-1.68088E-001	1.79533E-002	3.57740E+000	9	...........
	46	0.626667	1.47929E-002	-2.79429E-004	0.00000E+000	-4.13356E-006	-1.68088E-001	1.47872E-002	3.57740E+000	9	...........
	47	0.64	1.16925E-002	-2.80095E-004	0.00000E+000	-3.27502E-006	-1.68088E-001	1.16758E-002	3.57740E+000	9	...........
	48	0.653333	8.66960E-003	-2.79961E-004	0.00000E+000	-2.42715E-006	-1.68088E-001	8.65588E-003	3.57740E+000	9	...........
	49	0.666667	5.73079E-003	-2.79375E-004	0.00000E+000	-1.60104E-006	-1.68088E-001	5.71429E-003	3.57740E+000	9	...........
	50	0.68	2.79466E-003	-2.79220E-004	0.00000E+000	-7.80324E-007	-1.68088E-001	2.77281E-003	3.57740E+000	9	...........
	51	0.688333	4.42253E-004	-2.78459E-004	0.00000E+000	-1.23150E-007	-1.68088E-001	4.27354E-004	3.57740E+000	9	...........
STARTTIMEOFFSET	QUANT	2074.455	Start Time Offset (s)
