EXPLAIN
TAG	PWR800_DISCHARGE
TITLE	LABEL	PWR Cyclic Charge Discharge (Cell) - Discharge Step	Test &Identifier
DATE	LABEL	7-7-2017	Date
TIME	LABEL	16:01:53	Time
NOTES	NOTES	3	&Notes...
	supercap test cell
	2.8mg
	6M KOH
PSTAT	PSTAT	IFC5000-01520	Potentiostat
CAPACITY	QUANT	1.00000E-003	Capacity (A-hr)
CELLTYPE	SELECTOR	1	&Cell Type
WORKINGCONNECTION	SELECTOR	0	&Working Lead
MAXDISCHARGETIME	VARIABLEANDUNITS	1.00000E+002	s	1.00000E+002	second(s)	Max &Discharge Time
DISCHARGEMODE	MULTIPARAM	0	2.80000E-004	&Discharge Mode	Constant Current	Amp(s)
SAMPLETIME	QUANT	1.00000E-002	Sa&mple Period (s)
DISCHARGESTOPAT1	MULTIPARAM	3	0.00000E+000	Discharge Stop At &1	Voltage < Limit	V
DISCHARGESTOPAT2	MULTIPARAM	0	0.00000E+000	Discharge Stop At &2	None	N/A
AESBHCSELECTOR	TOGGLE	F	Save Both Half Cells
IRCOMP	TOGGLE	F	IR &Measure
EOC	QUANT	0	Open Circuit (V)
SEQUENCER	TOGGLE	TRUE	Run as Sequence
PSTATMODEL	IQUANT	53	Pstat Model
PSTATSECTION	LABEL	IFC5000-01520	Pstat Section
PSTATSERIALNO	LABEL	01520	Pstat Serial Number
CTRLMODE	IQUANT	0	Control Mode
ELECTROMETER	IQUANT	1	RE=0 or CS=1
IESTAB	IQUANT	0	I/E Stability
CASPEED	IQUANT	4	Control Amp Speed
CONVENTION	IQUANT	1	Current Convention
ICHRANGE	IQUANT	2	Ich Range
ICHRANGEMODE	TOGGLE	T	Ich Auto Range
ICHOFFSETENABLE	TOGGLE	F	Ich Offset Enable
ICHOFFSET	QUANT	0	Ich Offset (V)
ICHFILTER	IQUANT	1	Ich Filter
VCHRANGE	IQUANT	2	Vch Range
VCHRANGEMODE	TOGGLE	T	Vch Auto Range
VCHOFFSETENABLE	TOGGLE	F	Vch Offset Enable
VCHOFFSET	QUANT	0	Vch Offset (V)
VCHFILTER	IQUANT	1	Vch Filter
IERANGELOWERLIMIT	IQUANT	9	I/E Range Lower Limit
IERANGEMODE	TOGGLE	F	I/E AutoRange
IERANGE	IQUANT	9	I/E Range
ACHSELECT	IQUANT	1	Ach Select
ACHRANGE	IQUANT	2	Ach Range
ACHOFFSETENABLE	TOGGLE	F	Ach Offset Enable
ACHOFFSET	QUANT	0	Ach Offset (V)
ACHFILTER	IQUANT	1	Ach Filter
CABLEID	IQUANT	14	Cable ID
DCCALDATE	LABEL	5-7-2017	DC Calibration Date
ACCALDATE	LABEL	12/3/2015	AC Calibration Date
FRAMEWORKVERSION	QUANT	7.01	Framework Version
INSTRUMENTVERSION	LABEL	4.00	Instrument Version
CURVE	TABLE	69
	Pt	T	Vf	Im	Vu	Pwr	Sig	Ach	Temp	IERange	Over
	#	s	V	A	V	W	V	V	deg C	#	bits
	0	0.013333	5.33237E-001	-2.79008E-004	0.00000E+000	-1.48778E-004	-1.68088E-001	5.33476E-001	3.57800E+000	9	...........
	1	0.026667	5.00648E-001	-2.78012E-004	0.00000E+000	-1.39186E-004	-1.68088E-001	5.00879E-001	3.57800E+000	9	...........
	2	0.04	4.71127E-001	-2.79176E-004	0.00000E+000	-1.31527E-004	-1.68088E-001	4.71252E-001	3.57800E+000	9	...........
	3	0.053333	4.43554E-001	-2.79806E-004	0.00000E+000	-1.24109E-004	-1.68088E-001	4.43660E-001	3.57800E+000	9	...........
	4	0.066667	4.17840E-001	-2.78724E-004	0.00000E+000	-1.16462E-004	-1.68088E-001	4.17945E-001	3.57800E+000	9	...........
	5	0.08	3.93851E-001	-2.79523E-004	0.00000E+000	-1.10090E-004	-1.68088E-001	3.93942E-001	3.57800E+000	9	...........
	6	0.093333	3.71479E-001	-2.78652E-004	0.00000E+000	-1.03513E-004	-1.68088E-001	3.71566E-001	3.57800E+000	9	...........
	7	0.106667	3.50653E-001	-2.79193E-004	0.00000E+000	-9.78999E-005	-1.68088E-001	3.50733E-001	3.57800E+000	9	...........
	8	0.12	3.31257E-001	-2.80155E-004	0.00000E+000	-9.28036E-005	-1.68088E-001	3.31337E-001	3.57800E+000	9	...........
	9	0.133333	3.13256E-001	-2.80291E-004	0.00000E+000	-8.78027E-005	-1.68088E-001	3.13333E-001	3.57800E+000	9	...........
	10	0.146667	2.96515E-001	-2.78960E-004	0.00000E+000	-8.27159E-005	-1.68088E-001	2.96589E-001	3.57800E+000	9	...........
	11	0.16	2.80950E-001	-2.79346E-004	0.00000E+000	-7.84822E-005	-1.68088E-001	2.81019E-001	3.57800E+000	9	...........
	12	0.173333	2.66498E-001	-2.79234E-004	0.00000E+000	-7.44155E-005	-1.68088E-001	2.66569E-001	3.57800E+000	9	...........
	13	0.186667	2.53083E-001	-2.78692E-004	0.00000E+000	-7.05321E-005	-1.68088E-001	2.53147E-001	3.57800E+000	9	...........
	14	0.2	2.40625E-001	-2.78798E-004	0.00000E+000	-6.70857E-005	-1.68088E-001	2.40686E-001	3.57800E+000	9	...........
	15	0.213333	2.29043E-001	-2.78453E-004	0.00000E+000	-6.37778E-005	-1.68088E-001	2.29099E-001	3.57800E+000	9	...........
	16	0.226667	2.18213E-001	-2.78994E-004	0.00000E+000	-6.08799E-005	-1.68088E-001	2.18267E-001	3.57800E+000	9	...........
	17	0.24	2.08086E-001	-2.78832E-004	0.00000E+000	-5.80212E-005	-1.68088E-001	2.08140E-001	3.57800E+000	9	...........
	18	0.253333	1.98614E-001	-2.79296E-004	0.00000E+000	-5.54722E-005	-1.68088E-001	1.98667E-001	3.57800E+000	9	...........
	19	0.266667	1.89790E-001	-2.77935E-004	0.00000E+000	-5.27492E-005	-1.68088E-001	1.89833E-001	3.57800E+000	9	...........
	20	0.28	1.81504E-001	-2.78968E-004	0.00000E+000	-5.06336E-005	-1.68088E-001	1.81552E-001	3.57800E+000	9	...........
	21	0.293333	1.73731E-001	-2.78951E-004	0.00000E+000	-4.84624E-005	-1.68088E-001	1.73774E-001	3.57800E+000	9	...........
	22	0.306667	1.66420E-001	-2.79039E-004	0.00000E+000	-4.64377E-005	-1.68088E-001	1.66461E-001	3.57800E+000	9	...........
	23	0.32	1.59460E-001	-2.78555E-004	0.00000E+000	-4.44184E-005	-1.68088E-001	1.59500E-001	3.57800E+000	9	...........
	24	0.333333	1.52871E-001	-2.78683E-004	0.00000E+000	-4.26027E-005	-1.68088E-001	1.52904E-001	3.57800E+000	9	...........
	25	0.346667	1.46646E-001	-2.78859E-004	0.00000E+000	-4.08935E-005	-1.68088E-001	1.46678E-001	3.57800E+000	9	...........
	26	0.36	1.40703E-001	-2.79274E-004	0.00000E+000	-3.92946E-005	-1.68088E-001	1.40734E-001	3.57800E+000	9	...........
	27	0.373333	1.34993E-001	-2.77994E-004	0.00000E+000	-3.75271E-005	-1.68088E-001	1.35020E-001	3.57800E+000	9	...........
	28	0.386667	1.29512E-001	-2.79025E-004	0.00000E+000	-3.61371E-005	-1.68088E-001	1.29544E-001	3.57800E+000	9	...........
	29	0.4	1.24275E-001	-2.77467E-004	0.00000E+000	-3.44824E-005	-1.68088E-001	1.24304E-001	3.57800E+000	9	...........
	30	0.413333	1.19238E-001	-2.79109E-004	0.00000E+000	-3.32804E-005	-1.68088E-001	1.19274E-001	3.57800E+000	9	...........
	31	0.426667	1.14419E-001	-2.78137E-004	0.00000E+000	-3.18242E-005	-1.68088E-001	1.14449E-001	3.57800E+000	9	...........
	32	0.44	1.09807E-001	-2.79314E-004	0.00000E+000	-3.06705E-005	-1.68088E-001	1.09839E-001	3.57800E+000	9	...........
	33	0.453333	1.05338E-001	-2.78650E-004	0.00000E+000	-2.93524E-005	-1.68088E-001	1.05368E-001	3.57800E+000	9	...........
	34	0.466667	1.01046E-001	-2.78853E-004	0.00000E+000	-2.81770E-005	-1.68088E-001	1.01076E-001	3.57800E+000	9	...........
	35	0.48	9.68285E-002	-2.79997E-004	0.00000E+000	-2.71117E-005	-1.68088E-001	9.68551E-002	3.57800E+000	9	...........
	36	0.493333	9.27526E-002	-2.79511E-004	0.00000E+000	-2.59253E-005	-1.68088E-001	9.27826E-002	3.57800E+000	9	...........
	37	0.506667	8.88154E-002	-2.78180E-004	0.00000E+000	-2.47067E-005	-1.68088E-001	8.88392E-002	3.57800E+000	9	...........
	38	0.52	8.49936E-002	-2.78330E-004	0.00000E+000	-2.36563E-005	-1.68088E-001	8.50183E-002	3.57800E+000	9	...........
	39	0.533333	8.12991E-002	-2.78369E-004	0.00000E+000	-2.26311E-005	-1.68088E-001	8.13190E-002	3.57800E+000	9	...........
	40	0.546667	7.76946E-002	-2.78741E-004	0.00000E+000	-2.16566E-005	-1.68088E-001	7.77105E-002	3.57800E+000	9	...........
	41	0.56	7.42020E-002	-2.79113E-004	0.00000E+000	-2.07107E-005	-1.68088E-001	7.42179E-002	3.57800E+000	9	...........
	42	0.573333	7.07595E-002	-2.78854E-004	0.00000E+000	-1.97316E-005	-1.68088E-001	7.07748E-002	3.57800E+000	9	...........
	43	0.586667	6.73603E-002	-2.79135E-004	0.00000E+000	-1.88027E-005	-1.68088E-001	6.73791E-002	3.57800E+000	9	...........
	44	0.6	6.40571E-002	-2.79398E-004	0.00000E+000	-1.78974E-005	-1.68088E-001	6.40737E-002	3.57800E+000	9	...........
	45	0.613333	6.08014E-002	-2.79542E-004	0.00000E+000	-1.69965E-005	-1.68088E-001	6.08121E-002	3.57800E+000	9	...........
	46	0.626667	5.76631E-002	-2.79907E-004	0.00000E+000	-1.61403E-005	-1.68088E-001	5.76735E-002	3.57800E+000	9	...........
	47	0.64	5.45643E-002	-2.79400E-004	0.00000E+000	-1.52453E-005	-1.68088E-001	5.45738E-002	3.57800E+000	9	...........
	48	0.653333	5.15426E-002	-2.79125E-004	0.00000E+000	-1.43868E-005	-1.68088E-001	5.15511E-002	3.57800E+000	9	...........
	49	0.666667	4.85496E-002	-2.78953E-004	0.00000E+000	-1.35431E-005	-1.68088E-001	4.85566E-002	3.57800E+000	9	...........
	50	0.68	4.56175E-002	-2.79952E-004	0.00000E+000	-1.27707E-005	-1.68088E-001	4.56292E-002	3.57800E+000	9	...........
	51	0.693333	4.27377E-002	-2.78970E-004	0.00000E+000	-1.19225E-005	-1.68088E-001	4.27494E-002	3.57800E+000	9	...........
	52	0.706667	3.98875E-002	-2.77501E-004	0.00000E+000	-1.10688E-005	-1.68088E-001	3.98950E-002	3.57800E+000	9	...........
	53	0.72	3.70762E-002	-2.79639E-004	0.00000E+000	-1.03679E-005	-1.68088E-001	3.70838E-002	3.57867E+000	9	...........
	54	0.733333	3.42834E-002	-2.79880E-004	0.00000E+000	-9.59524E-006	-1.68088E-001	3.42885E-002	3.57890E+000	9	...........
	55	0.746667	3.15526E-002	-2.78063E-004	0.00000E+000	-8.77362E-006	-1.68088E-001	3.15524E-002	3.57890E+000	9	...........
	56	0.76	2.88659E-002	-2.78634E-004	0.00000E+000	-8.04302E-006	-1.68088E-001	2.88676E-002	3.57890E+000	9	...........
	57	0.773333	2.62175E-002	-2.79021E-004	0.00000E+000	-7.31524E-006	-1.68088E-001	2.62150E-002	3.57890E+000	9	...........
	58	0.786667	2.36526E-002	-2.76825E-004	0.00000E+000	-6.54762E-006	-1.68088E-001	2.36492E-002	3.57890E+000	9	...........
	59	0.8	2.10986E-002	-2.77842E-004	0.00000E+000	-5.86209E-006	-1.68088E-001	2.10947E-002	3.57890E+000	9	...........
	60	0.813333	1.85268E-002	-2.78685E-004	0.00000E+000	-5.16316E-006	-1.68088E-001	1.85273E-002	3.57890E+000	9	...........
	61	0.826667	1.60177E-002	-2.79289E-004	0.00000E+000	-4.47356E-006	-1.68088E-001	1.60073E-002	3.57890E+000	9	...........
	62	0.84	1.35312E-002	-2.78756E-004	0.00000E+000	-3.77191E-006	-1.68088E-001	1.35252E-002	3.57890E+000	9	...........
	63	0.853333	1.10633E-002	-2.78771E-004	0.00000E+000	-3.08412E-006	-1.68088E-001	1.10587E-002	3.57890E+000	9	...........
	64	0.866667	8.65333E-003	-2.78564E-004	0.00000E+000	-2.41051E-006	-1.68088E-001	8.63712E-003	3.57890E+000	9	...........
	65	0.88	6.22051E-003	-2.78748E-004	0.00000E+000	-1.73395E-006	-1.68088E-001	6.20411E-003	3.57890E+000	9	...........
	66	0.893333	3.83787E-003	-2.79027E-004	0.00000E+000	-1.07087E-006	-1.68088E-001	3.82590E-003	3.57890E+000	9	...........
	67	0.906667	1.48867E-003	-2.78820E-004	0.00000E+000	-4.15070E-007	-1.68088E-001	1.47610E-003	3.57890E+000	9	...........
	68	0.91	5.61775E-005	-2.77969E-004	0.00000E+000	-1.56156E-008	-1.68088E-001	4.57060E-005	3.57890E+000	9	...........
STARTTIMEOFFSET	QUANT	1188.718	Start Time Offset (s)
