EXPLAIN
TAG	PWR800_DISCHARGE
TITLE	LABEL	PWR Cyclic Charge Discharge (Cell) - Discharge Step	Test &Identifier
DATE	LABEL	7-7-2017	Date
TIME	LABEL	16:12:26	Time
NOTES	NOTES	3	&Notes...
	supercap test cell
	2.8mg
	6M KOH
PSTAT	PSTAT	IFC5000-01520	Potentiostat
CAPACITY	QUANT	1.00000E-003	Capacity (A-hr)
CELLTYPE	SELECTOR	1	&Cell Type
WORKINGCONNECTION	SELECTOR	0	&Working Lead
MAXDISCHARGETIME	VARIABLEANDUNITS	1.00000E+002	s	1.00000E+002	second(s)	Max &Discharge Time
DISCHARGEMODE	MULTIPARAM	0	2.80000E-004	&Discharge Mode	Constant Current	Amp(s)
SAMPLETIME	QUANT	1.00000E-002	Sa&mple Period (s)
DISCHARGESTOPAT1	MULTIPARAM	3	0.00000E+000	Discharge Stop At &1	Voltage < Limit	V
DISCHARGESTOPAT2	MULTIPARAM	0	0.00000E+000	Discharge Stop At &2	None	N/A
AESBHCSELECTOR	TOGGLE	F	Save Both Half Cells
IRCOMP	TOGGLE	F	IR &Measure
EOC	QUANT	0	Open Circuit (V)
SEQUENCER	TOGGLE	TRUE	Run as Sequence
PSTATMODEL	IQUANT	53	Pstat Model
PSTATSECTION	LABEL	IFC5000-01520	Pstat Section
PSTATSERIALNO	LABEL	01520	Pstat Serial Number
CTRLMODE	IQUANT	0	Control Mode
ELECTROMETER	IQUANT	1	RE=0 or CS=1
IESTAB	IQUANT	0	I/E Stability
CASPEED	IQUANT	4	Control Amp Speed
CONVENTION	IQUANT	1	Current Convention
ICHRANGE	IQUANT	2	Ich Range
ICHRANGEMODE	TOGGLE	T	Ich Auto Range
ICHOFFSETENABLE	TOGGLE	F	Ich Offset Enable
ICHOFFSET	QUANT	0	Ich Offset (V)
ICHFILTER	IQUANT	1	Ich Filter
VCHRANGE	IQUANT	2	Vch Range
VCHRANGEMODE	TOGGLE	T	Vch Auto Range
VCHOFFSETENABLE	TOGGLE	F	Vch Offset Enable
VCHOFFSET	QUANT	0	Vch Offset (V)
VCHFILTER	IQUANT	1	Vch Filter
IERANGELOWERLIMIT	IQUANT	9	I/E Range Lower Limit
IERANGEMODE	TOGGLE	F	I/E AutoRange
IERANGE	IQUANT	9	I/E Range
ACHSELECT	IQUANT	1	Ach Select
ACHRANGE	IQUANT	2	Ach Range
ACHOFFSETENABLE	TOGGLE	F	Ach Offset Enable
ACHOFFSET	QUANT	0	Ach Offset (V)
ACHFILTER	IQUANT	1	Ach Filter
CABLEID	IQUANT	14	Cable ID
DCCALDATE	LABEL	5-7-2017	DC Calibration Date
ACCALDATE	LABEL	12/3/2015	AC Calibration Date
FRAMEWORKVERSION	QUANT	7.01	Framework Version
INSTRUMENTVERSION	LABEL	4.00	Instrument Version
CURVE	TABLE	59
	Pt	T	Vf	Im	Vu	Pwr	Sig	Ach	Temp	IERange	Over
	#	s	V	A	V	W	V	V	deg C	#	bits
	0	0.013333	5.20080E-001	-2.78653E-004	0.00000E+000	-1.44922E-004	-1.68088E-001	5.20317E-001	3.57740E+000	9	...........
	1	0.026667	4.86962E-001	-2.78253E-004	0.00000E+000	-1.35499E-004	-1.68088E-001	4.87163E-001	3.57740E+000	9	...........
	2	0.04	4.56698E-001	-2.79317E-004	0.00000E+000	-1.27564E-004	-1.68088E-001	4.56805E-001	3.57740E+000	9	...........
	3	0.053333	4.28446E-001	-2.78923E-004	0.00000E+000	-1.19503E-004	-1.68088E-001	4.28546E-001	3.57740E+000	9	...........
	4	0.066667	4.02109E-001	-2.79451E-004	0.00000E+000	-1.12370E-004	-1.68088E-001	4.02196E-001	3.57740E+000	9	...........
	5	0.08	3.77518E-001	-2.77904E-004	0.00000E+000	-1.04914E-004	-1.68088E-001	3.77602E-001	3.57740E+000	9	...........
	6	0.093333	3.54589E-001	-2.79343E-004	0.00000E+000	-9.90519E-005	-1.68088E-001	3.54666E-001	3.57740E+000	9	...........
	7	0.106667	3.33238E-001	-2.78482E-004	0.00000E+000	-9.28008E-005	-1.68088E-001	3.33314E-001	3.57740E+000	9	...........
	8	0.12	3.13374E-001	-2.79491E-004	0.00000E+000	-8.75851E-005	-1.68088E-001	3.13453E-001	3.57740E+000	9	...........
	9	0.133333	2.94869E-001	-2.80053E-004	0.00000E+000	-8.25792E-005	-1.68088E-001	2.94939E-001	3.57740E+000	9	...........
	10	0.146667	2.77691E-001	-2.79771E-004	0.00000E+000	-7.76898E-005	-1.68088E-001	2.77757E-001	3.57740E+000	9	...........
	11	0.16	2.61739E-001	-2.79422E-004	0.00000E+000	-7.31356E-005	-1.68088E-001	2.61803E-001	3.57740E+000	9	...........
	12	0.173333	2.46945E-001	-2.78813E-004	0.00000E+000	-6.88516E-005	-1.68088E-001	2.47007E-001	3.57740E+000	9	...........
	13	0.186667	2.33235E-001	-2.78522E-004	0.00000E+000	-6.49611E-005	-1.68088E-001	2.33287E-001	3.57740E+000	9	...........
	14	0.2	2.20470E-001	-2.79057E-004	0.00000E+000	-6.15237E-005	-1.68088E-001	2.20515E-001	3.57740E+000	9	...........
	15	0.213333	2.08606E-001	-2.77847E-004	0.00000E+000	-5.79604E-005	-1.68088E-001	2.08653E-001	3.57740E+000	9	...........
	16	0.226667	1.97536E-001	-2.79150E-004	0.00000E+000	-5.51421E-005	-1.68088E-001	1.97586E-001	3.57740E+000	9	...........
	17	0.24	1.87211E-001	-2.80071E-004	0.00000E+000	-5.24324E-005	-1.68088E-001	1.87264E-001	3.57740E+000	9	...........
	18	0.253333	1.77625E-001	-2.79706E-004	0.00000E+000	-4.96827E-005	-1.68088E-001	1.77669E-001	3.57740E+000	9	...........
	19	0.266667	1.68593E-001	-2.78288E-004	0.00000E+000	-4.69174E-005	-1.68088E-001	1.68633E-001	3.57740E+000	9	...........
	20	0.28	1.60150E-001	-2.78345E-004	0.00000E+000	-4.45770E-005	-1.68088E-001	1.60188E-001	3.57740E+000	9	...........
	21	0.293333	1.52213E-001	-2.78253E-004	0.00000E+000	-4.23537E-005	-1.68088E-001	1.52243E-001	3.57740E+000	9	...........
	22	0.306667	1.44758E-001	-2.79680E-004	0.00000E+000	-4.04861E-005	-1.68088E-001	1.44788E-001	3.57740E+000	9	...........
	23	0.32	1.37713E-001	-2.78974E-004	0.00000E+000	-3.84184E-005	-1.68088E-001	1.37751E-001	3.57740E+000	9	...........
	24	0.333333	1.31053E-001	-2.78161E-004	0.00000E+000	-3.64538E-005	-1.68088E-001	1.31086E-001	3.57740E+000	9	...........
	25	0.346667	1.24723E-001	-2.78333E-004	0.00000E+000	-3.47146E-005	-1.68088E-001	1.24747E-001	3.57740E+000	9	...........
	26	0.36	1.18724E-001	-2.79395E-004	0.00000E+000	-3.31708E-005	-1.68088E-001	1.18754E-001	3.57740E+000	9	...........
	27	0.373333	1.12981E-001	-2.78681E-004	0.00000E+000	-3.14856E-005	-1.68088E-001	1.13003E-001	3.57740E+000	9	...........
	28	0.386667	1.07486E-001	-2.78519E-004	0.00000E+000	-2.99368E-005	-1.68088E-001	1.07510E-001	3.57740E+000	9	...........
	29	0.4	1.02187E-001	-2.79374E-004	0.00000E+000	-2.85484E-005	-1.68088E-001	1.02212E-001	3.57740E+000	9	...........
	30	0.413333	9.71053E-002	-2.78560E-004	0.00000E+000	-2.70497E-005	-1.68088E-001	9.71322E-002	3.57740E+000	9	...........
	31	0.426667	9.22826E-002	-2.79363E-004	0.00000E+000	-2.57803E-005	-1.68088E-001	9.23020E-002	3.57740E+000	9	...........
	32	0.44	8.76581E-002	-2.79842E-004	0.00000E+000	-2.45304E-005	-1.68088E-001	8.76779E-002	3.57740E+000	9	...........
	33	0.453333	8.32209E-002	-2.78531E-004	0.00000E+000	-2.31796E-005	-1.68088E-001	8.32375E-002	3.57740E+000	9	...........
	34	0.466667	7.89326E-002	-2.78374E-004	0.00000E+000	-2.19728E-005	-1.68088E-001	7.89455E-002	3.57740E+000	9	...........
	35	0.48	7.47402E-002	-2.78838E-004	0.00000E+000	-2.08404E-005	-1.68088E-001	7.47501E-002	3.57740E+000	9	...........
	36	0.493333	7.06522E-002	-2.77877E-004	0.00000E+000	-1.96326E-005	-1.68088E-001	7.06614E-002	3.57740E+000	9	...........
	37	0.506667	6.66900E-002	-2.78972E-004	0.00000E+000	-1.86046E-005	-1.68088E-001	6.66989E-002	3.57740E+000	9	...........
	38	0.52	6.28175E-002	-2.78360E-004	0.00000E+000	-1.74859E-005	-1.68088E-001	6.28258E-002	3.57740E+000	9	...........
	39	0.533333	5.90591E-002	-2.78521E-004	0.00000E+000	-1.64492E-005	-1.68088E-001	5.90681E-002	3.57740E+000	9	...........
	40	0.546667	5.53929E-002	-2.79451E-004	0.00000E+000	-1.54796E-005	-1.68088E-001	5.54022E-002	3.57740E+000	9	...........
	41	0.56	5.18359E-002	-2.79673E-004	0.00000E+000	-1.44971E-005	-1.68088E-001	5.18468E-002	3.57740E+000	9	...........
	42	0.573333	4.84211E-002	-2.78322E-004	0.00000E+000	-1.34766E-005	-1.68088E-001	4.84294E-002	3.57740E+000	9	...........
	43	0.586667	4.50538E-002	-2.79176E-004	0.00000E+000	-1.25779E-005	-1.68088E-001	4.50641E-002	3.57740E+000	9	...........
	44	0.6	4.17324E-002	-2.78174E-004	0.00000E+000	-1.16089E-005	-1.68088E-001	4.17430E-002	3.57740E+000	9	...........
	45	0.613333	3.84846E-002	-2.79315E-004	0.00000E+000	-1.07493E-005	-1.68088E-001	3.84878E-002	3.57740E+000	9	...........
	46	0.626667	3.53281E-002	-2.79043E-004	0.00000E+000	-9.85806E-006	-1.68088E-001	3.53294E-002	3.57740E+000	9	...........
	47	0.64	3.22115E-002	-2.78350E-004	0.00000E+000	-8.96606E-006	-1.68088E-001	3.22188E-002	3.57740E+000	9	...........
	48	0.653333	2.91765E-002	-2.79786E-004	0.00000E+000	-8.16316E-006	-1.68088E-001	2.91785E-002	3.57740E+000	9	...........
	49	0.666667	2.61484E-002	-2.79323E-004	0.00000E+000	-7.30384E-006	-1.68088E-001	2.61443E-002	3.57740E+000	9	...........
	50	0.68	2.31867E-002	-2.78111E-004	0.00000E+000	-6.44848E-006	-1.68088E-001	2.31803E-002	3.57740E+000	9	...........
	51	0.693333	2.02339E-002	-2.78163E-004	0.00000E+000	-5.62833E-006	-1.68088E-001	2.02318E-002	3.57740E+000	9	...........
	52	0.706667	1.73459E-002	-2.79916E-004	0.00000E+000	-4.85539E-006	-1.68088E-001	1.73390E-002	3.57740E+000	9	...........
	53	0.72	1.45045E-002	-2.79571E-004	0.00000E+000	-4.05504E-006	-1.68088E-001	1.44957E-002	3.57789E+000	9	...........
	54	0.733333	1.17831E-002	-2.78409E-004	0.00000E+000	-3.28051E-006	-1.68088E-001	1.17739E-002	3.57870E+000	9	...........
	55	0.746667	9.04930E-003	-2.78805E-004	0.00000E+000	-2.52299E-006	-1.68088E-001	9.03738E-003	3.57870E+000	9	...........
	56	0.76	6.34095E-003	-2.79062E-004	0.00000E+000	-1.76952E-006	-1.68088E-001	6.32610E-003	3.57870E+000	9	...........
	57	0.773333	3.67159E-003	-2.78892E-004	0.00000E+000	-1.02397E-006	-1.68088E-001	3.65386E-003	3.57870E+000	9	...........
	58	0.786667	1.03686E-003	-2.77954E-004	0.00000E+000	-2.88199E-007	-1.68088E-001	1.01775E-003	3.57870E+000	9	...........
STARTTIMEOFFSET	QUANT	1621.39	Start Time Offset (s)
