EXPLAIN
TAG	PWR800_DISCHARGE
TITLE	LABEL	PWR Cyclic Charge Discharge (Cell) - Discharge Step	Test &Identifier
DATE	LABEL	7-7-2017	Date
TIME	LABEL	15:44:56	Time
NOTES	NOTES	3	&Notes...
	supercap test cell
	2.8mg
	6M KOH
PSTAT	PSTAT	IFC5000-01520	Potentiostat
CAPACITY	QUANT	1.00000E-003	Capacity (A-hr)
CELLTYPE	SELECTOR	1	&Cell Type
WORKINGCONNECTION	SELECTOR	0	&Working Lead
MAXDISCHARGETIME	VARIABLEANDUNITS	1.00000E+002	s	1.00000E+002	second(s)	Max &Discharge Time
DISCHARGEMODE	MULTIPARAM	0	2.80000E-004	&Discharge Mode	Constant Current	Amp(s)
SAMPLETIME	QUANT	1.00000E-002	Sa&mple Period (s)
DISCHARGESTOPAT1	MULTIPARAM	3	0.00000E+000	Discharge Stop At &1	Voltage < Limit	V
DISCHARGESTOPAT2	MULTIPARAM	0	0.00000E+000	Discharge Stop At &2	None	N/A
AESBHCSELECTOR	TOGGLE	F	Save Both Half Cells
IRCOMP	TOGGLE	F	IR &Measure
EOC	QUANT	0	Open Circuit (V)
SEQUENCER	TOGGLE	TRUE	Run as Sequence
PSTATMODEL	IQUANT	53	Pstat Model
PSTATSECTION	LABEL	IFC5000-01520	Pstat Section
PSTATSERIALNO	LABEL	01520	Pstat Serial Number
CTRLMODE	IQUANT	0	Control Mode
ELECTROMETER	IQUANT	1	RE=0 or CS=1
IESTAB	IQUANT	0	I/E Stability
CASPEED	IQUANT	4	Control Amp Speed
CONVENTION	IQUANT	1	Current Convention
ICHRANGE	IQUANT	2	Ich Range
ICHRANGEMODE	TOGGLE	T	Ich Auto Range
ICHOFFSETENABLE	TOGGLE	F	Ich Offset Enable
ICHOFFSET	QUANT	0	Ich Offset (V)
ICHFILTER	IQUANT	1	Ich Filter
VCHRANGE	IQUANT	2	Vch Range
VCHRANGEMODE	TOGGLE	T	Vch Auto Range
VCHOFFSETENABLE	TOGGLE	F	Vch Offset Enable
VCHOFFSET	QUANT	0	Vch Offset (V)
VCHFILTER	IQUANT	1	Vch Filter
IERANGELOWERLIMIT	IQUANT	9	I/E Range Lower Limit
IERANGEMODE	TOGGLE	F	I/E AutoRange
IERANGE	IQUANT	9	I/E Range
ACHSELECT	IQUANT	1	Ach Select
ACHRANGE	IQUANT	2	Ach Range
ACHOFFSETENABLE	TOGGLE	F	Ach Offset Enable
ACHOFFSET	QUANT	0	Ach Offset (V)
ACHFILTER	IQUANT	1	Ach Filter
CABLEID	IQUANT	14	Cable ID
DCCALDATE	LABEL	5-7-2017	DC Calibration Date
ACCALDATE	LABEL	12/3/2015	AC Calibration Date
FRAMEWORKVERSION	QUANT	7.01	Framework Version
INSTRUMENTVERSION	LABEL	4.00	Instrument Version
CURVE	TABLE	108
	Pt	T	Vf	Im	Vu	Pwr	Sig	Ach	Temp	IERange	Over
	#	s	V	A	V	W	V	V	deg C	#	bits
	0	0.013333	5.59927E-001	-2.78919E-004	0.00000E+000	-1.56174E-004	-1.68088E-001	5.60194E-001	3.57850E+000	9	...........
	1	0.026667	5.30512E-001	-2.79599E-004	0.00000E+000	-1.48331E-004	-1.68088E-001	5.30750E-001	3.57850E+000	9	...........
	2	0.04	5.03973E-001	-2.78619E-004	0.00000E+000	-1.40416E-004	-1.68088E-001	5.04243E-001	3.57850E+000	9	...........
	3	0.053333	4.79955E-001	-2.79150E-004	0.00000E+000	-1.33979E-004	-1.68088E-001	4.80118E-001	3.57850E+000	9	...........
	4	0.066667	4.57773E-001	-2.79578E-004	0.00000E+000	-1.27983E-004	-1.68088E-001	4.57884E-001	3.57850E+000	9	...........
	5	0.08	4.37171E-001	-2.78374E-004	0.00000E+000	-1.21697E-004	-1.68088E-001	4.37280E-001	3.57850E+000	9	...........
	6	0.093333	4.18091E-001	-2.78783E-004	0.00000E+000	-1.16557E-004	-1.68088E-001	4.18198E-001	3.57850E+000	9	...........
	7	0.106667	4.00395E-001	-2.78840E-004	0.00000E+000	-1.11646E-004	-1.68088E-001	4.00490E-001	3.57850E+000	9	...........
	8	0.12	3.83949E-001	-2.78896E-004	0.00000E+000	-1.07082E-004	-1.68088E-001	3.84044E-001	3.57850E+000	9	...........
	9	0.133333	3.68656E-001	-2.78472E-004	0.00000E+000	-1.02660E-004	-1.68088E-001	3.68744E-001	3.57850E+000	9	...........
	10	0.146667	3.54455E-001	-2.79007E-004	0.00000E+000	-9.88955E-005	-1.68088E-001	3.54540E-001	3.57850E+000	9	...........
	11	0.16	3.41285E-001	-2.79180E-004	0.00000E+000	-9.52801E-005	-1.68088E-001	3.41363E-001	3.57850E+000	9	...........
	12	0.173333	3.28992E-001	-2.78650E-004	0.00000E+000	-9.16735E-005	-1.68088E-001	3.29061E-001	3.57850E+000	9	...........
	13	0.186667	3.17543E-001	-2.78629E-004	0.00000E+000	-8.84768E-005	-1.68088E-001	3.17613E-001	3.57850E+000	9	...........
	14	0.2	3.06828E-001	-2.79602E-004	0.00000E+000	-8.57899E-005	-1.68088E-001	3.06900E-001	3.57850E+000	9	...........
	15	0.213333	2.96773E-001	-2.79234E-004	0.00000E+000	-8.28694E-005	-1.68088E-001	2.96842E-001	3.57850E+000	9	...........
	16	0.226667	2.87348E-001	-2.79176E-004	0.00000E+000	-8.02206E-005	-1.68088E-001	2.87417E-001	3.57850E+000	9	...........
	17	0.24	2.78508E-001	-2.78887E-004	0.00000E+000	-7.76723E-005	-1.68088E-001	2.78577E-001	3.57850E+000	9	...........
	18	0.253333	2.70164E-001	-2.79959E-004	0.00000E+000	-7.56347E-005	-1.68088E-001	2.70236E-001	3.57850E+000	9	...........
	19	0.266667	2.62273E-001	-2.79185E-004	0.00000E+000	-7.32229E-005	-1.68088E-001	2.62341E-001	3.57850E+000	9	...........
	20	0.28	2.54833E-001	-2.79265E-004	0.00000E+000	-7.11659E-005	-1.68088E-001	2.54894E-001	3.57850E+000	9	...........
	21	0.293333	2.47767E-001	-2.79083E-004	0.00000E+000	-6.91477E-005	-1.68088E-001	2.47829E-001	3.57850E+000	9	...........
	22	0.306667	2.41049E-001	-2.79296E-004	0.00000E+000	-6.73240E-005	-1.68088E-001	2.41101E-001	3.57850E+000	9	...........
	23	0.32	2.34678E-001	-2.78372E-004	0.00000E+000	-6.53279E-005	-1.68088E-001	2.34731E-001	3.57850E+000	9	...........
	24	0.333333	2.28614E-001	-2.79484E-004	0.00000E+000	-6.38940E-005	-1.68088E-001	2.28670E-001	3.57850E+000	9	...........
	25	0.346667	2.22788E-001	-2.78623E-004	0.00000E+000	-6.20739E-005	-1.68088E-001	2.22840E-001	3.57850E+000	9	...........
	26	0.36	2.17265E-001	-2.79525E-004	0.00000E+000	-6.07309E-005	-1.68088E-001	2.17316E-001	3.57850E+000	9	...........
	27	0.373333	2.12005E-001	-2.78213E-004	0.00000E+000	-5.89825E-005	-1.68088E-001	2.12058E-001	3.57850E+000	9	...........
	28	0.386667	2.06928E-001	-2.77948E-004	0.00000E+000	-5.75151E-005	-1.68088E-001	2.06976E-001	3.57850E+000	9	...........
	29	0.4	2.02026E-001	-2.80222E-004	0.00000E+000	-5.66120E-005	-1.68088E-001	2.02075E-001	3.57850E+000	9	...........
	30	0.413333	1.97250E-001	-2.79418E-004	0.00000E+000	-5.51151E-005	-1.68088E-001	1.97301E-001	3.57850E+000	9	...........
	31	0.426667	1.92674E-001	-2.78102E-004	0.00000E+000	-5.35830E-005	-1.68088E-001	1.92719E-001	3.57850E+000	9	...........
	32	0.44	1.88235E-001	-2.79349E-004	0.00000E+000	-5.25834E-005	-1.68088E-001	1.88283E-001	3.57850E+000	9	...........
	33	0.453333	1.83964E-001	-2.78833E-004	0.00000E+000	-5.12954E-005	-1.68088E-001	1.84005E-001	3.57850E+000	9	...........
	34	0.466667	1.79793E-001	-2.78724E-004	0.00000E+000	-5.01126E-005	-1.68088E-001	1.79840E-001	3.57850E+000	9	...........
	35	0.48	1.75695E-001	-2.79075E-004	0.00000E+000	-4.90321E-005	-1.68088E-001	1.75740E-001	3.57850E+000	9	...........
	36	0.493333	1.71743E-001	-2.79317E-004	0.00000E+000	-4.79708E-005	-1.68088E-001	1.71793E-001	3.57850E+000	9	...........
	37	0.506667	1.67929E-001	-2.78890E-004	0.00000E+000	-4.68336E-005	-1.68088E-001	1.67973E-001	3.57850E+000	9	...........
	38	0.52	1.64193E-001	-2.79361E-004	0.00000E+000	-4.58693E-005	-1.68088E-001	1.64232E-001	3.57850E+000	9	...........
	39	0.533333	1.60600E-001	-2.79381E-004	0.00000E+000	-4.48685E-005	-1.68088E-001	1.60636E-001	3.57850E+000	9	...........
	40	0.546667	1.57082E-001	-2.78882E-004	0.00000E+000	-4.38074E-005	-1.68088E-001	1.57120E-001	3.57850E+000	9	...........
	41	0.56	1.53613E-001	-2.79563E-004	0.00000E+000	-4.29443E-005	-1.68088E-001	1.53647E-001	3.57850E+000	9	...........
	42	0.573333	1.50199E-001	-2.78710E-004	0.00000E+000	-4.18620E-005	-1.68088E-001	1.50235E-001	3.57850E+000	9	...........
	43	0.586667	1.46866E-001	-2.79130E-004	0.00000E+000	-4.09948E-005	-1.68088E-001	1.46898E-001	3.57850E+000	9	...........
	44	0.6	1.43617E-001	-2.78925E-004	0.00000E+000	-4.00585E-005	-1.68088E-001	1.43651E-001	3.57850E+000	9	...........
	45	0.613333	1.40420E-001	-2.78953E-004	0.00000E+000	-3.91705E-005	-1.68088E-001	1.40448E-001	3.57850E+000	9	...........
	46	0.626667	1.37249E-001	-2.78619E-004	0.00000E+000	-3.82401E-005	-1.68088E-001	1.37283E-001	3.57850E+000	9	...........
	47	0.64	1.34167E-001	-2.78526E-004	0.00000E+000	-3.73691E-005	-1.68088E-001	1.34194E-001	3.57850E+000	9	...........
	48	0.653333	1.31176E-001	-2.78969E-004	0.00000E+000	-3.65941E-005	-1.68088E-001	1.31205E-001	3.57850E+000	9	...........
	49	0.666667	1.28222E-001	-2.78850E-004	0.00000E+000	-3.57548E-005	-1.68088E-001	1.28256E-001	3.57850E+000	9	...........
	50	0.68	1.25252E-001	-2.80205E-004	0.00000E+000	-3.50963E-005	-1.68088E-001	1.25279E-001	3.57850E+000	9	...........
	51	0.693333	1.22393E-001	-2.78296E-004	0.00000E+000	-3.40614E-005	-1.68088E-001	1.22425E-001	3.57850E+000	9	...........
	52	0.706667	1.19564E-001	-2.78970E-004	0.00000E+000	-3.33547E-005	-1.68088E-001	1.19592E-001	3.57850E+000	9	...........
	53	0.72	1.16735E-001	-2.79083E-004	0.00000E+000	-3.25787E-005	-1.68088E-001	1.16760E-001	3.57850E+000	9	...........
	54	0.733333	1.13971E-001	-2.78813E-004	0.00000E+000	-3.17767E-005	-1.68088E-001	1.14001E-001	3.57850E+000	9	...........
	55	0.746667	1.11292E-001	-2.79258E-004	0.00000E+000	-3.10793E-005	-1.68088E-001	1.11317E-001	3.57850E+000	9	...........
	56	0.76	1.08587E-001	-2.79217E-004	0.00000E+000	-3.03194E-005	-1.68088E-001	1.08615E-001	3.57850E+000	9	...........
	57	0.773333	1.05884E-001	-2.79486E-004	0.00000E+000	-2.95930E-005	-1.68088E-001	1.05907E-001	3.57850E+000	9	...........
	58	0.786667	1.03251E-001	-2.79008E-004	0.00000E+000	-2.88078E-005	-1.68088E-001	1.03272E-001	3.57850E+000	9	...........
	59	0.8	1.00643E-001	-2.79424E-004	0.00000E+000	-2.81221E-005	-1.68088E-001	1.00668E-001	3.57850E+000	9	...........
	60	0.813333	9.81115E-002	-2.78841E-004	0.00000E+000	-2.73575E-005	-1.68088E-001	9.81372E-002	3.57850E+000	9	...........
	61	0.826667	9.55790E-002	-2.77894E-004	0.00000E+000	-2.65608E-005	-1.68088E-001	9.56024E-002	3.57850E+000	9	...........
	62	0.84	9.31341E-002	-2.79238E-004	0.00000E+000	-2.60065E-005	-1.68088E-001	9.31504E-002	3.57850E+000	9	...........
	63	0.853333	9.06699E-002	-2.78119E-004	0.00000E+000	-2.52170E-005	-1.68088E-001	9.06980E-002	3.57850E+000	9	...........
	64	0.866667	8.82462E-002	-2.79004E-004	0.00000E+000	-2.46210E-005	-1.68088E-001	8.82646E-002	3.57850E+000	9	...........
	65	0.88	8.58449E-002	-2.78499E-004	0.00000E+000	-2.39077E-005	-1.68088E-001	8.58660E-002	3.57938E+000	9	...........
	66	0.893333	8.34346E-002	-2.78966E-004	0.00000E+000	-2.32754E-005	-1.68088E-001	8.34539E-002	3.57950E+000	9	...........
	67	0.906667	8.10511E-002	-2.79457E-004	0.00000E+000	-2.26503E-005	-1.68088E-001	8.10723E-002	3.57950E+000	9	...........
	68	0.92	7.86691E-002	-2.79214E-004	0.00000E+000	-2.19655E-005	-1.68088E-001	7.86834E-002	3.57950E+000	9	...........
	69	0.933333	7.63418E-002	-2.79147E-004	0.00000E+000	-2.13106E-005	-1.68088E-001	7.63579E-002	3.57950E+000	9	...........
	70	0.946667	7.40805E-002	-2.79732E-004	0.00000E+000	-2.07227E-005	-1.68088E-001	7.40965E-002	3.57950E+000	9	...........
	71	0.96	7.18172E-002	-2.79023E-004	0.00000E+000	-2.00386E-005	-1.68088E-001	7.18286E-002	3.57950E+000	9	...........
	72	0.97333	6.95177E-002	-2.79556E-004	0.00000E+000	-1.94341E-005	-1.68088E-001	6.95334E-002	3.57950E+000	9	...........
	73	0.98667	6.72662E-002	-2.79255E-004	0.00000E+000	-1.87844E-005	-1.68088E-001	6.72809E-002	3.57950E+000	9	...........
	74	1	6.50848E-002	-2.78908E-004	0.00000E+000	-1.81527E-005	-1.68088E-001	6.50975E-002	3.57950E+000	9	...........
	75	1.01333	6.29199E-002	-2.78991E-004	0.00000E+000	-1.75540E-005	-1.68088E-001	6.29261E-002	3.57950E+000	9	...........
	76	1.02667	6.07600E-002	-2.79577E-004	0.00000E+000	-1.69871E-005	-1.68088E-001	6.07712E-002	3.57950E+000	9	...........
	77	1.04	5.85777E-002	-2.79106E-004	0.00000E+000	-1.63494E-005	-1.68088E-001	5.85837E-002	3.57950E+000	9	...........
	78	1.05333	5.64192E-002	-2.79976E-004	0.00000E+000	-1.57960E-005	-1.68088E-001	5.64354E-002	3.57950E+000	9	...........
	79	1.06667	5.42539E-002	-2.78990E-004	0.00000E+000	-1.51363E-005	-1.68088E-001	5.42594E-002	3.57950E+000	9	...........
	80	1.08	5.21088E-002	-2.78973E-004	0.00000E+000	-1.45369E-005	-1.68088E-001	5.21160E-002	3.57950E+000	9	...........
	81	1.09333	4.99850E-002	-2.78476E-004	0.00000E+000	-1.39196E-005	-1.68088E-001	4.99990E-002	3.57950E+000	9	...........
	82	1.10667	4.79607E-002	-2.79304E-004	0.00000E+000	-1.33956E-005	-1.68088E-001	4.79612E-002	3.57950E+000	9	...........
	83	1.12	4.59077E-002	-2.79541E-004	0.00000E+000	-1.28331E-005	-1.68088E-001	4.59163E-002	3.57950E+000	9	...........
	84	1.13333	4.38282E-002	-2.78394E-004	0.00000E+000	-1.22015E-005	-1.68088E-001	4.38358E-002	3.57950E+000	9	...........
	85	1.14667	4.17830E-002	-2.78877E-004	0.00000E+000	-1.16523E-005	-1.68088E-001	4.17934E-002	3.57950E+000	9	...........
	86	1.16	3.97722E-002	-2.79544E-004	0.00000E+000	-1.11181E-005	-1.68088E-001	3.97809E-002	3.57950E+000	9	...........
	87	1.17333	3.78505E-002	-2.78691E-004	0.00000E+000	-1.05486E-005	-1.68088E-001	3.78537E-002	3.57950E+000	9	...........
	88	1.18667	3.58647E-002	-2.79341E-004	0.00000E+000	-1.00185E-005	-1.68088E-001	3.58679E-002	3.57950E+000	9	...........
	89	1.2	3.38716E-002	-2.79297E-004	0.00000E+000	-9.46024E-006	-1.68088E-001	3.38720E-002	3.57950E+000	9	...........
	90	1.21333	3.19335E-002	-2.79742E-004	0.00000E+000	-8.93315E-006	-1.68088E-001	3.19332E-002	3.57950E+000	9	...........
	91	1.22667	2.99797E-002	-2.79138E-004	0.00000E+000	-8.36846E-006	-1.68088E-001	2.99812E-002	3.57950E+000	9	...........
	92	1.24	2.80314E-002	-2.79377E-004	0.00000E+000	-7.83134E-006	-1.68088E-001	2.80312E-002	3.57950E+000	9	...........
	93	1.25333	2.60376E-002	-2.78808E-004	0.00000E+000	-7.25949E-006	-1.68088E-001	2.60363E-002	3.57950E+000	9	...........
	94	1.26667	2.40550E-002	-2.80326E-004	0.00000E+000	-6.74324E-006	-1.68088E-001	2.40514E-002	3.57950E+000	9	...........
	95	1.28	2.21716E-002	-2.79337E-004	0.00000E+000	-6.19333E-006	-1.68088E-001	2.21646E-002	3.57950E+000	9	...........
	96	1.29333	2.02669E-002	-2.79263E-004	0.00000E+000	-5.65977E-006	-1.68088E-001	2.02537E-002	3.57950E+000	9	...........
	97	1.30667	1.83514E-002	-2.79042E-004	0.00000E+000	-5.12081E-006	-1.68088E-001	1.83419E-002	3.57950E+000	9	...........
	98	1.32	1.64449E-002	-2.78432E-004	0.00000E+000	-4.57880E-006	-1.68088E-001	1.64325E-002	3.57950E+000	9	...........
	99	1.33333	1.45686E-002	-2.79021E-004	0.00000E+000	-4.06495E-006	-1.68088E-001	1.45637E-002	3.57950E+000	9	...........
	100	1.34667	1.27191E-002	-2.78706E-004	0.00000E+000	-3.54488E-006	-1.68088E-001	1.27065E-002	3.57950E+000	9	...........
	101	1.36	1.08854E-002	-2.79447E-004	0.00000E+000	-3.04190E-006	-1.68088E-001	1.08710E-002	3.57950E+000	9	...........
	102	1.37333	9.05150E-003	-2.78917E-004	0.00000E+000	-2.52461E-006	-1.68088E-001	9.03667E-003	3.57950E+000	9	...........
	103	1.38667	7.18851E-003	-2.79102E-004	0.00000E+000	-2.00633E-006	-1.68088E-001	7.16805E-003	3.57950E+000	9	...........
	104	1.4	5.34136E-003	-2.78587E-004	0.00000E+000	-1.48804E-006	-1.68088E-001	5.32619E-003	3.57950E+000	9	...........
	105	1.41333	3.55249E-003	-2.79244E-004	0.00000E+000	-9.92012E-007	-1.68088E-001	3.53558E-003	3.57950E+000	9	...........
	106	1.42667	1.75016E-003	-2.79040E-004	0.00000E+000	-4.88363E-007	-1.68088E-001	1.73098E-003	3.57950E+000	9	...........
	107	1.435	3.23903E-004	-2.78868E-004	0.00000E+000	-9.03260E-008	-1.68088E-001	3.10346E-004	3.57950E+000	9	...........
STARTTIMEOFFSET	QUANT	437.8701	Start Time Offset (s)
