EXPLAIN
TAG	PWR800_DISCHARGE
TITLE	LABEL	PWR Cyclic Charge Discharge (Cell) - Discharge Step	Test &Identifier
DATE	LABEL	7-7-2017	Date
TIME	LABEL	15:59:13	Time
NOTES	NOTES	3	&Notes...
	supercap test cell
	2.8mg
	6M KOH
PSTAT	PSTAT	IFC5000-01520	Potentiostat
CAPACITY	QUANT	1.00000E-003	Capacity (A-hr)
CELLTYPE	SELECTOR	1	&Cell Type
WORKINGCONNECTION	SELECTOR	0	&Working Lead
MAXDISCHARGETIME	VARIABLEANDUNITS	1.00000E+002	s	1.00000E+002	second(s)	Max &Discharge Time
DISCHARGEMODE	MULTIPARAM	0	2.80000E-004	&Discharge Mode	Constant Current	Amp(s)
SAMPLETIME	QUANT	1.00000E-002	Sa&mple Period (s)
DISCHARGESTOPAT1	MULTIPARAM	3	0.00000E+000	Discharge Stop At &1	Voltage < Limit	V
DISCHARGESTOPAT2	MULTIPARAM	0	0.00000E+000	Discharge Stop At &2	None	N/A
AESBHCSELECTOR	TOGGLE	F	Save Both Half Cells
IRCOMP	TOGGLE	F	IR &Measure
EOC	QUANT	0	Open Circuit (V)
SEQUENCER	TOGGLE	TRUE	Run as Sequence
PSTATMODEL	IQUANT	53	Pstat Model
PSTATSECTION	LABEL	IFC5000-01520	Pstat Section
PSTATSERIALNO	LABEL	01520	Pstat Serial Number
CTRLMODE	IQUANT	0	Control Mode
ELECTROMETER	IQUANT	1	RE=0 or CS=1
IESTAB	IQUANT	0	I/E Stability
CASPEED	IQUANT	4	Control Amp Speed
CONVENTION	IQUANT	1	Current Convention
ICHRANGE	IQUANT	2	Ich Range
ICHRANGEMODE	TOGGLE	T	Ich Auto Range
ICHOFFSETENABLE	TOGGLE	F	Ich Offset Enable
ICHOFFSET	QUANT	0	Ich Offset (V)
ICHFILTER	IQUANT	1	Ich Filter
VCHRANGE	IQUANT	2	Vch Range
VCHRANGEMODE	TOGGLE	T	Vch Auto Range
VCHOFFSETENABLE	TOGGLE	F	Vch Offset Enable
VCHOFFSET	QUANT	0	Vch Offset (V)
VCHFILTER	IQUANT	1	Vch Filter
IERANGELOWERLIMIT	IQUANT	9	I/E Range Lower Limit
IERANGEMODE	TOGGLE	F	I/E AutoRange
IERANGE	IQUANT	9	I/E Range
ACHSELECT	IQUANT	1	Ach Select
ACHRANGE	IQUANT	2	Ach Range
ACHOFFSETENABLE	TOGGLE	F	Ach Offset Enable
ACHOFFSET	QUANT	0	Ach Offset (V)
ACHFILTER	IQUANT	1	Ach Filter
CABLEID	IQUANT	14	Cable ID
DCCALDATE	LABEL	5-7-2017	DC Calibration Date
ACCALDATE	LABEL	12/3/2015	AC Calibration Date
FRAMEWORKVERSION	QUANT	7.01	Framework Version
INSTRUMENTVERSION	LABEL	4.00	Instrument Version
CURVE	TABLE	72
	Pt	T	Vf	Im	Vu	Pwr	Sig	Ach	Temp	IERange	Over
	#	s	V	A	V	W	V	V	deg C	#	bits
	0	0.013333	5.28557E-001	-2.78835E-004	0.00000E+000	-1.47380E-004	-1.68088E-001	5.28817E-001	3.57900E+000	9	...........
	1	0.026667	4.96534E-001	-2.78268E-004	0.00000E+000	-1.38169E-004	-1.68088E-001	4.96809E-001	3.57900E+000	9	...........
	2	0.04	4.67705E-001	-2.78627E-004	0.00000E+000	-1.30315E-004	-1.68088E-001	4.67813E-001	3.57900E+000	9	...........
	3	0.053333	4.40725E-001	-2.79157E-004	0.00000E+000	-1.23032E-004	-1.68088E-001	4.40834E-001	3.57900E+000	9	...........
	4	0.066667	4.15682E-001	-2.79118E-004	0.00000E+000	-1.16024E-004	-1.68088E-001	4.15783E-001	3.57900E+000	9	...........
	5	0.08	3.92421E-001	-2.78637E-004	0.00000E+000	-1.09343E-004	-1.68088E-001	3.92511E-001	3.57900E+000	9	...........
	6	0.093333	3.70742E-001	-2.79552E-004	0.00000E+000	-1.03642E-004	-1.68088E-001	3.70829E-001	3.57900E+000	9	...........
	7	0.106667	3.50579E-001	-2.77293E-004	0.00000E+000	-9.72133E-005	-1.68088E-001	3.50654E-001	3.57900E+000	9	...........
	8	0.12	3.31840E-001	-2.78423E-004	0.00000E+000	-9.23917E-005	-1.68088E-001	3.31919E-001	3.57900E+000	9	...........
	9	0.133333	3.14431E-001	-2.79354E-004	0.00000E+000	-8.78377E-005	-1.68088E-001	3.14506E-001	3.57900E+000	9	...........
	10	0.146667	2.98274E-001	-2.79260E-004	0.00000E+000	-8.32961E-005	-1.68088E-001	2.98346E-001	3.57900E+000	9	...........
	11	0.16	2.83261E-001	-2.78453E-004	0.00000E+000	-7.88750E-005	-1.68088E-001	2.83328E-001	3.57900E+000	9	...........
	12	0.173333	2.69280E-001	-2.79548E-004	0.00000E+000	-7.52767E-005	-1.68088E-001	2.69352E-001	3.57900E+000	9	...........
	13	0.186667	2.56301E-001	-2.79398E-004	0.00000E+000	-7.16101E-005	-1.68088E-001	2.56367E-001	3.57751E+000	9	...........
	14	0.2	2.44249E-001	-2.77970E-004	0.00000E+000	-6.78938E-005	-1.68088E-001	2.44306E-001	3.57750E+000	9	...........
	15	0.213333	2.33044E-001	-2.78854E-004	0.00000E+000	-6.49854E-005	-1.68088E-001	2.33095E-001	3.57750E+000	9	...........
	16	0.226667	2.22541E-001	-2.78451E-004	0.00000E+000	-6.19667E-005	-1.68088E-001	2.22593E-001	3.57750E+000	9	...........
	17	0.24	2.12715E-001	-2.79134E-004	0.00000E+000	-5.93760E-005	-1.68088E-001	2.12766E-001	3.57750E+000	9	...........
	18	0.253333	2.03547E-001	-2.79796E-004	0.00000E+000	-5.69517E-005	-1.68088E-001	2.03599E-001	3.57750E+000	9	...........
	19	0.266667	1.94975E-001	-2.79502E-004	0.00000E+000	-5.44959E-005	-1.68088E-001	1.95022E-001	3.57750E+000	9	...........
	20	0.28	1.86938E-001	-2.78133E-004	0.00000E+000	-5.19936E-005	-1.68088E-001	1.86988E-001	3.57750E+000	9	...........
	21	0.293333	1.79363E-001	-2.79352E-004	0.00000E+000	-5.01054E-005	-1.68088E-001	1.79411E-001	3.57750E+000	9	...........
	22	0.306667	1.72205E-001	-2.79484E-004	0.00000E+000	-4.81287E-005	-1.68088E-001	1.72248E-001	3.57750E+000	9	...........
	23	0.32	1.65417E-001	-2.78426E-004	0.00000E+000	-4.60564E-005	-1.68088E-001	1.65459E-001	3.57750E+000	9	...........
	24	0.333333	1.58978E-001	-2.79062E-004	0.00000E+000	-4.43648E-005	-1.68088E-001	1.59011E-001	3.57750E+000	9	...........
	25	0.346667	1.52862E-001	-2.78668E-004	0.00000E+000	-4.25978E-005	-1.68088E-001	1.52903E-001	3.57750E+000	9	...........
	26	0.36	1.47064E-001	-2.79419E-004	0.00000E+000	-4.10925E-005	-1.68088E-001	1.47090E-001	3.57750E+000	9	...........
	27	0.373333	1.41484E-001	-2.78447E-004	0.00000E+000	-3.93957E-005	-1.68088E-001	1.41517E-001	3.57750E+000	9	...........
	28	0.386667	1.36129E-001	-2.77873E-004	0.00000E+000	-3.78265E-005	-1.68088E-001	1.36156E-001	3.57750E+000	9	...........
	29	0.4	1.31001E-001	-2.80226E-004	0.00000E+000	-3.67098E-005	-1.68088E-001	1.31027E-001	3.57750E+000	9	...........
	30	0.413333	1.26114E-001	-2.78892E-004	0.00000E+000	-3.51722E-005	-1.68088E-001	1.26136E-001	3.57750E+000	9	...........
	31	0.426667	1.21363E-001	-2.78179E-004	0.00000E+000	-3.37607E-005	-1.68088E-001	1.21393E-001	3.57750E+000	9	...........
	32	0.44	1.16780E-001	-2.78234E-004	0.00000E+000	-3.24923E-005	-1.68088E-001	1.16805E-001	3.57750E+000	9	...........
	33	0.453333	1.12352E-001	-2.79084E-004	0.00000E+000	-3.13557E-005	-1.68088E-001	1.12378E-001	3.57750E+000	9	...........
	34	0.466667	1.08098E-001	-2.78286E-004	0.00000E+000	-3.00821E-005	-1.68088E-001	1.08122E-001	3.57750E+000	9	...........
	35	0.48	1.03950E-001	-2.79000E-004	0.00000E+000	-2.90019E-005	-1.68088E-001	1.03976E-001	3.57750E+000	9	...........
	36	0.493333	9.99289E-002	-2.78980E-004	0.00000E+000	-2.78782E-005	-1.68088E-001	9.99575E-002	3.57750E+000	9	...........
	37	0.506667	9.60244E-002	-2.77978E-004	0.00000E+000	-2.66927E-005	-1.68088E-001	9.60472E-002	3.57750E+000	9	...........
	38	0.52	9.21981E-002	-2.79102E-004	0.00000E+000	-2.57327E-005	-1.68088E-001	9.22235E-002	3.57750E+000	9	...........
	39	0.533333	8.84995E-002	-2.79362E-004	0.00000E+000	-2.47233E-005	-1.68088E-001	8.85213E-002	3.57750E+000	9	...........
	40	0.546667	8.48872E-002	-2.78723E-004	0.00000E+000	-2.36600E-005	-1.68088E-001	8.49105E-002	3.57750E+000	9	...........
	41	0.56	8.14400E-002	-2.78500E-004	0.00000E+000	-2.26810E-005	-1.68088E-001	8.14628E-002	3.57750E+000	9	...........
	42	0.573333	7.80035E-002	-2.79004E-004	0.00000E+000	-2.17633E-005	-1.68088E-001	7.80255E-002	3.57750E+000	9	...........
	43	0.586667	7.45847E-002	-2.78866E-004	0.00000E+000	-2.07991E-005	-1.68088E-001	7.45973E-002	3.57750E+000	9	...........
	44	0.6	7.13095E-002	-2.79015E-004	0.00000E+000	-1.98964E-005	-1.68088E-001	7.13260E-002	3.57750E+000	9	...........
	45	0.613333	6.81220E-002	-2.78904E-004	0.00000E+000	-1.89995E-005	-1.68088E-001	6.81333E-002	3.57750E+000	9	...........
	46	0.626667	6.49792E-002	-2.77766E-004	0.00000E+000	-1.80490E-005	-1.68088E-001	6.49912E-002	3.57750E+000	9	...........
	47	0.64	6.19088E-002	-2.79020E-004	0.00000E+000	-1.72738E-005	-1.68088E-001	6.19250E-002	3.57750E+000	9	...........
	48	0.653333	5.88686E-002	-2.79619E-004	0.00000E+000	-1.64608E-005	-1.68088E-001	5.88850E-002	3.57750E+000	9	...........
	49	0.666667	5.58243E-002	-2.78329E-004	0.00000E+000	-1.55375E-005	-1.68088E-001	5.58358E-002	3.57750E+000	9	...........
	50	0.68	5.28331E-002	-2.79167E-004	0.00000E+000	-1.47492E-005	-1.68088E-001	5.28390E-002	3.57750E+000	9	...........
	51	0.693333	4.99208E-002	-2.78929E-004	0.00000E+000	-1.39244E-005	-1.68088E-001	4.99316E-002	3.57750E+000	9	...........
	52	0.706667	4.70987E-002	-2.77019E-004	0.00000E+000	-1.30473E-005	-1.68088E-001	4.71035E-002	3.57750E+000	9	...........
	53	0.72	4.42793E-002	-2.78605E-004	0.00000E+000	-1.23364E-005	-1.68088E-001	4.42897E-002	3.57750E+000	9	...........
	54	0.733333	4.14499E-002	-2.78062E-004	0.00000E+000	-1.15257E-005	-1.68088E-001	4.14574E-002	3.57750E+000	9	...........
	55	0.746667	3.87046E-002	-2.79470E-004	0.00000E+000	-1.08168E-005	-1.68088E-001	3.87137E-002	3.57750E+000	9	...........
	56	0.76	3.60532E-002	-2.78584E-004	0.00000E+000	-1.00438E-005	-1.68088E-001	3.60555E-002	3.57750E+000	9	...........
	57	0.773333	3.34427E-002	-2.79880E-004	0.00000E+000	-9.35994E-006	-1.68088E-001	3.34431E-002	3.57750E+000	9	...........
	58	0.786667	3.07982E-002	-2.79686E-004	0.00000E+000	-8.61380E-006	-1.68088E-001	3.07987E-002	3.57750E+000	9	...........
	59	0.8	2.82190E-002	-2.79110E-004	0.00000E+000	-7.87621E-006	-1.68088E-001	2.82210E-002	3.57750E+000	9	...........
	60	0.813333	2.56361E-002	-2.79481E-004	0.00000E+000	-7.16480E-006	-1.68088E-001	2.56342E-002	3.57750E+000	9	...........
	61	0.826667	2.30811E-002	-2.78909E-004	0.00000E+000	-6.43753E-006	-1.68088E-001	2.30791E-002	3.57750E+000	9	...........
	62	0.84	2.05421E-002	-2.78425E-004	0.00000E+000	-5.71942E-006	-1.68088E-001	2.05383E-002	3.57750E+000	9	...........
	63	0.853333	1.80556E-002	-2.78444E-004	0.00000E+000	-5.02746E-006	-1.68088E-001	1.80468E-002	3.57750E+000	9	...........
	64	0.866667	1.56177E-002	-2.78544E-004	0.00000E+000	-4.35022E-006	-1.68088E-001	1.56073E-002	3.57750E+000	9	...........
	65	0.88	1.31780E-002	-2.78000E-004	0.00000E+000	-3.66347E-006	-1.68088E-001	1.31686E-002	3.57750E+000	9	...........
	66	0.893333	1.07608E-002	-2.77980E-004	0.00000E+000	-2.99128E-006	-1.68088E-001	1.07477E-002	3.57750E+000	9	...........
	67	0.906667	8.40244E-003	-2.80174E-004	0.00000E+000	-2.35415E-006	-1.68088E-001	8.39291E-003	3.57750E+000	9	...........
	68	0.92	6.04107E-003	-2.78962E-004	0.00000E+000	-1.68523E-006	-1.68088E-001	6.02984E-003	3.57750E+000	9	...........
	69	0.933333	3.67558E-003	-2.79695E-004	0.00000E+000	-1.02804E-006	-1.68088E-001	3.65983E-003	3.57750E+000	9	...........
	70	0.946667	1.38046E-003	-2.78958E-004	0.00000E+000	-3.85091E-007	-1.68088E-001	1.36311E-003	3.57750E+000	9	...........
	71	0.95	-5.15912E-005	-2.78244E-004	0.00000E+000	1.43549E-008	-1.68088E-001	-7.47761E-005	3.57750E+000	9	...........
STARTTIMEOFFSET	QUANT	1075.946	Start Time Offset (s)
