EXPLAIN
TAG	PWR800_DISCHARGE
TITLE	LABEL	PWR Cyclic Charge Discharge (Cell) - Discharge Step	Test &Identifier
DATE	LABEL	7-7-2017	Date
TIME	LABEL	15:47:02	Time
NOTES	NOTES	3	&Notes...
	supercap test cell
	2.8mg
	6M KOH
PSTAT	PSTAT	IFC5000-01520	Potentiostat
CAPACITY	QUANT	1.00000E-003	Capacity (A-hr)
CELLTYPE	SELECTOR	1	&Cell Type
WORKINGCONNECTION	SELECTOR	0	&Working Lead
MAXDISCHARGETIME	VARIABLEANDUNITS	1.00000E+002	s	1.00000E+002	second(s)	Max &Discharge Time
DISCHARGEMODE	MULTIPARAM	0	2.80000E-004	&Discharge Mode	Constant Current	Amp(s)
SAMPLETIME	QUANT	1.00000E-002	Sa&mple Period (s)
DISCHARGESTOPAT1	MULTIPARAM	3	0.00000E+000	Discharge Stop At &1	Voltage < Limit	V
DISCHARGESTOPAT2	MULTIPARAM	0	0.00000E+000	Discharge Stop At &2	None	N/A
AESBHCSELECTOR	TOGGLE	F	Save Both Half Cells
IRCOMP	TOGGLE	F	IR &Measure
EOC	QUANT	0	Open Circuit (V)
SEQUENCER	TOGGLE	TRUE	Run as Sequence
PSTATMODEL	IQUANT	53	Pstat Model
PSTATSECTION	LABEL	IFC5000-01520	Pstat Section
PSTATSERIALNO	LABEL	01520	Pstat Serial Number
CTRLMODE	IQUANT	0	Control Mode
ELECTROMETER	IQUANT	1	RE=0 or CS=1
IESTAB	IQUANT	0	I/E Stability
CASPEED	IQUANT	4	Control Amp Speed
CONVENTION	IQUANT	1	Current Convention
ICHRANGE	IQUANT	2	Ich Range
ICHRANGEMODE	TOGGLE	T	Ich Auto Range
ICHOFFSETENABLE	TOGGLE	F	Ich Offset Enable
ICHOFFSET	QUANT	0	Ich Offset (V)
ICHFILTER	IQUANT	1	Ich Filter
VCHRANGE	IQUANT	2	Vch Range
VCHRANGEMODE	TOGGLE	T	Vch Auto Range
VCHOFFSETENABLE	TOGGLE	F	Vch Offset Enable
VCHOFFSET	QUANT	0	Vch Offset (V)
VCHFILTER	IQUANT	1	Vch Filter
IERANGELOWERLIMIT	IQUANT	9	I/E Range Lower Limit
IERANGEMODE	TOGGLE	F	I/E AutoRange
IERANGE	IQUANT	9	I/E Range
ACHSELECT	IQUANT	1	Ach Select
ACHRANGE	IQUANT	2	Ach Range
ACHOFFSETENABLE	TOGGLE	F	Ach Offset Enable
ACHOFFSET	QUANT	0	Ach Offset (V)
ACHFILTER	IQUANT	1	Ach Filter
CABLEID	IQUANT	14	Cable ID
DCCALDATE	LABEL	5-7-2017	DC Calibration Date
ACCALDATE	LABEL	12/3/2015	AC Calibration Date
FRAMEWORKVERSION	QUANT	7.01	Framework Version
INSTRUMENTVERSION	LABEL	4.00	Instrument Version
CURVE	TABLE	100
	Pt	T	Vf	Im	Vu	Pwr	Sig	Ach	Temp	IERange	Over
	#	s	V	A	V	W	V	V	deg C	#	bits
	0	0.013333	5.52266E-001	-2.78451E-004	0.00000E+000	-1.53779E-004	-1.68088E-001	5.52522E-001	3.57790E+000	9	...........
	1	0.026667	5.22347E-001	-2.78867E-004	0.00000E+000	-1.45665E-004	-1.68088E-001	5.22581E-001	3.57790E+000	9	...........
	2	0.04	4.95301E-001	-2.78709E-004	0.00000E+000	-1.38045E-004	-1.68088E-001	4.95538E-001	3.57790E+000	9	...........
	3	0.053333	4.70914E-001	-2.79490E-004	0.00000E+000	-1.31616E-004	-1.68088E-001	4.71027E-001	3.57790E+000	9	...........
	4	0.066667	4.48111E-001	-2.78914E-004	0.00000E+000	-1.24984E-004	-1.68088E-001	4.48216E-001	3.57790E+000	9	...........
	5	0.08	4.27019E-001	-2.78213E-004	0.00000E+000	-1.18802E-004	-1.68088E-001	4.27125E-001	3.57790E+000	9	...........
	6	0.093333	4.07509E-001	-2.78709E-004	0.00000E+000	-1.13576E-004	-1.68088E-001	4.07603E-001	3.57790E+000	9	...........
	7	0.106667	3.89422E-001	-2.79049E-004	0.00000E+000	-1.08668E-004	-1.68088E-001	3.89515E-001	3.57790E+000	9	...........
	8	0.12	3.72629E-001	-2.78804E-004	0.00000E+000	-1.03890E-004	-1.68088E-001	3.72718E-001	3.57790E+000	9	...........
	9	0.133333	3.57032E-001	-2.79165E-004	0.00000E+000	-9.96708E-005	-1.68088E-001	3.57116E-001	3.57790E+000	9	...........
	10	0.146667	3.42543E-001	-2.79443E-004	0.00000E+000	-9.57213E-005	-1.68088E-001	3.42627E-001	3.57790E+000	9	...........
	11	0.16	3.29045E-001	-2.78478E-004	0.00000E+000	-9.16319E-005	-1.68088E-001	3.29126E-001	3.57790E+000	9	...........
	12	0.173333	3.16492E-001	-2.78469E-004	0.00000E+000	-8.81332E-005	-1.68088E-001	3.16567E-001	3.57790E+000	9	...........
	13	0.186667	3.04774E-001	-2.80020E-004	0.00000E+000	-8.53429E-005	-1.68088E-001	3.04845E-001	3.57790E+000	9	...........
	14	0.2	2.93895E-001	-2.79210E-004	0.00000E+000	-8.20585E-005	-1.68088E-001	2.93958E-001	3.57790E+000	9	...........
	15	0.213333	2.83707E-001	-2.78273E-004	0.00000E+000	-7.89480E-005	-1.68088E-001	2.83774E-001	3.57790E+000	9	...........
	16	0.226667	2.74152E-001	-2.79338E-004	0.00000E+000	-7.65810E-005	-1.68088E-001	2.74219E-001	3.57790E+000	9	...........
	17	0.24	2.65208E-001	-2.78981E-004	0.00000E+000	-7.39881E-005	-1.68088E-001	2.65278E-001	3.57790E+000	9	...........
	18	0.253333	2.56769E-001	-2.78609E-004	0.00000E+000	-7.15383E-005	-1.68088E-001	2.56832E-001	3.57790E+000	9	...........
	19	0.266667	2.48798E-001	-2.78398E-004	0.00000E+000	-6.92648E-005	-1.68088E-001	2.48855E-001	3.57790E+000	9	...........
	20	0.28	2.41293E-001	-2.79125E-004	0.00000E+000	-6.73508E-005	-1.68088E-001	2.41352E-001	3.57790E+000	9	...........
	21	0.293333	2.34189E-001	-2.79559E-004	0.00000E+000	-6.54696E-005	-1.68088E-001	2.34243E-001	3.57790E+000	9	...........
	22	0.306667	2.27448E-001	-2.79533E-004	0.00000E+000	-6.35792E-005	-1.68088E-001	2.27500E-001	3.57790E+000	9	...........
	23	0.32	2.21026E-001	-2.78482E-004	0.00000E+000	-6.15517E-005	-1.68088E-001	2.21081E-001	3.57790E+000	9	...........
	24	0.333333	2.14897E-001	-2.78733E-004	0.00000E+000	-5.98989E-005	-1.68088E-001	2.14945E-001	3.57790E+000	9	...........
	25	0.346667	2.09023E-001	-2.78806E-004	0.00000E+000	-5.82769E-005	-1.68088E-001	2.09070E-001	3.57790E+000	9	...........
	26	0.36	2.03416E-001	-2.79353E-004	0.00000E+000	-5.68250E-005	-1.68088E-001	2.03467E-001	3.57790E+000	9	...........
	27	0.373333	1.98038E-001	-2.78736E-004	0.00000E+000	-5.52003E-005	-1.68088E-001	1.98082E-001	3.57790E+000	9	...........
	28	0.386667	1.92897E-001	-2.79136E-004	0.00000E+000	-5.38445E-005	-1.68088E-001	1.92936E-001	3.57790E+000	9	...........
	29	0.4	1.87939E-001	-2.78952E-004	0.00000E+000	-5.24260E-005	-1.68088E-001	1.87986E-001	3.57790E+000	9	...........
	30	0.413333	1.83227E-001	-2.79094E-004	0.00000E+000	-5.11375E-005	-1.68088E-001	1.83266E-001	3.57790E+000	9	...........
	31	0.426667	1.78657E-001	-2.78735E-004	0.00000E+000	-4.97981E-005	-1.68088E-001	1.78700E-001	3.57790E+000	9	...........
	32	0.44	1.74229E-001	-2.79135E-004	0.00000E+000	-4.86335E-005	-1.68088E-001	1.74269E-001	3.57790E+000	9	...........
	33	0.453333	1.69950E-001	-2.79530E-004	0.00000E+000	-4.75061E-005	-1.68088E-001	1.69992E-001	3.57790E+000	9	...........
	34	0.466667	1.65784E-001	-2.78648E-004	0.00000E+000	-4.61954E-005	-1.68088E-001	1.65821E-001	3.57790E+000	9	...........
	35	0.48	1.61685E-001	-2.79749E-004	0.00000E+000	-4.52311E-005	-1.68088E-001	1.61722E-001	3.57790E+000	9	...........
	36	0.493333	1.57710E-001	-2.78979E-004	0.00000E+000	-4.39979E-005	-1.68088E-001	1.57742E-001	3.57790E+000	9	...........
	37	0.506667	1.53836E-001	-2.79214E-004	0.00000E+000	-4.29530E-005	-1.68088E-001	1.53870E-001	3.57790E+000	9	...........
	38	0.52	1.50104E-001	-2.78337E-004	0.00000E+000	-4.17797E-005	-1.68088E-001	1.50134E-001	3.57790E+000	9	...........
	39	0.533333	1.46446E-001	-2.79171E-004	0.00000E+000	-4.08834E-005	-1.68088E-001	1.46476E-001	3.57790E+000	9	...........
	40	0.546667	1.42910E-001	-2.79139E-004	0.00000E+000	-3.98917E-005	-1.68088E-001	1.42943E-001	3.57790E+000	9	...........
	41	0.56	1.39475E-001	-2.79164E-004	0.00000E+000	-3.89364E-005	-1.68088E-001	1.39503E-001	3.57790E+000	9	...........
	42	0.573333	1.36037E-001	-2.79328E-004	0.00000E+000	-3.79990E-005	-1.68088E-001	1.36067E-001	3.57790E+000	9	...........
	43	0.586667	1.32721E-001	-2.78797E-004	0.00000E+000	-3.70023E-005	-1.68088E-001	1.32749E-001	3.57790E+000	9	...........
	44	0.6	1.29464E-001	-2.78910E-004	0.00000E+000	-3.61089E-005	-1.68088E-001	1.29496E-001	3.57790E+000	9	...........
	45	0.613333	1.26272E-001	-2.79573E-004	0.00000E+000	-3.53022E-005	-1.68088E-001	1.26303E-001	3.57790E+000	9	...........
	46	0.626667	1.23149E-001	-2.78782E-004	0.00000E+000	-3.43318E-005	-1.68088E-001	1.23181E-001	3.57790E+000	9	...........
	47	0.64	1.20078E-001	-2.79461E-004	0.00000E+000	-3.35570E-005	-1.68088E-001	1.20105E-001	3.57790E+000	9	...........
	48	0.653333	1.17052E-001	-2.79241E-004	0.00000E+000	-3.26856E-005	-1.68088E-001	1.17084E-001	3.57790E+000	9	...........
	49	0.666667	1.14063E-001	-2.79707E-004	0.00000E+000	-3.19043E-005	-1.68088E-001	1.14094E-001	3.57790E+000	9	...........
	50	0.68	1.11097E-001	-2.78302E-004	0.00000E+000	-3.09186E-005	-1.68088E-001	1.11131E-001	3.57790E+000	9	...........
	51	0.693333	1.08215E-001	-2.78635E-004	0.00000E+000	-3.01526E-005	-1.68088E-001	1.08243E-001	3.57790E+000	9	...........
	52	0.706667	1.05354E-001	-2.78990E-004	0.00000E+000	-2.93926E-005	-1.68088E-001	1.05380E-001	3.57790E+000	9	...........
	53	0.72	1.02512E-001	-2.79129E-004	0.00000E+000	-2.86141E-005	-1.68088E-001	1.02539E-001	3.57790E+000	9	...........
	54	0.733333	9.97628E-002	-2.78716E-004	0.00000E+000	-2.78054E-005	-1.68088E-001	9.97892E-002	3.57790E+000	9	...........
	55	0.746667	9.70036E-002	-2.79016E-004	0.00000E+000	-2.70655E-005	-1.68088E-001	9.70318E-002	3.57790E+000	9	...........
	56	0.76	9.43037E-002	-2.79263E-004	0.00000E+000	-2.63355E-005	-1.68088E-001	9.43280E-002	3.57940E+000	9	...........
	57	0.773333	9.16386E-002	-2.79118E-004	0.00000E+000	-2.55780E-005	-1.68088E-001	9.16619E-002	3.57940E+000	9	...........
	58	0.786667	8.90448E-002	-2.79244E-004	0.00000E+000	-2.48652E-005	-1.68088E-001	8.90669E-002	3.57940E+000	9	...........
	59	0.8	8.64601E-002	-2.79244E-004	0.00000E+000	-2.41434E-005	-1.68088E-001	8.64874E-002	3.57940E+000	9	...........
	60	0.813333	8.38701E-002	-2.77974E-004	0.00000E+000	-2.33137E-005	-1.68088E-001	8.38901E-002	3.57940E+000	9	...........
	61	0.826667	8.13346E-002	-2.79341E-004	0.00000E+000	-2.27201E-005	-1.68088E-001	8.13493E-002	3.57940E+000	9	...........
	62	0.84	7.88012E-002	-2.79580E-004	0.00000E+000	-2.20313E-005	-1.68088E-001	7.88130E-002	3.57940E+000	9	...........
	63	0.853333	7.63001E-002	-2.79022E-004	0.00000E+000	-2.12894E-005	-1.68088E-001	7.63134E-002	3.57940E+000	9	...........
	64	0.866667	7.38307E-002	-2.79277E-004	0.00000E+000	-2.06192E-005	-1.68088E-001	7.38455E-002	3.57940E+000	9	...........
	65	0.88	7.13827E-002	-2.79438E-004	0.00000E+000	-1.99470E-005	-1.68088E-001	7.13957E-002	3.57940E+000	9	...........
	66	0.893333	6.89917E-002	-2.78785E-004	0.00000E+000	-1.92339E-005	-1.68088E-001	6.90072E-002	3.57940E+000	9	...........
	67	0.906667	6.66454E-002	-2.79730E-004	0.00000E+000	-1.86427E-005	-1.68088E-001	6.66570E-002	3.57940E+000	9	...........
	68	0.92	6.43013E-002	-2.79382E-004	0.00000E+000	-1.79646E-005	-1.68088E-001	6.43092E-002	3.57940E+000	9	...........
	69	0.933333	6.19560E-002	-2.78895E-004	0.00000E+000	-1.72792E-005	-1.68088E-001	6.19656E-002	3.57940E+000	9	...........
	70	0.946667	5.96609E-002	-2.77994E-004	0.00000E+000	-1.65853E-005	-1.68088E-001	5.96642E-002	3.57940E+000	9	...........
	71	0.96	5.73580E-002	-2.78610E-004	0.00000E+000	-1.59805E-005	-1.68088E-001	5.73680E-002	3.57940E+000	9	...........
	72	0.97333	5.49989E-002	-2.79797E-004	0.00000E+000	-1.53885E-005	-1.68088E-001	5.50054E-002	3.57940E+000	9	...........
	73	0.98667	5.27445E-002	-2.79182E-004	0.00000E+000	-1.47253E-005	-1.68088E-001	5.27447E-002	3.57940E+000	9	...........
	74	1	5.04662E-002	-2.79508E-004	0.00000E+000	-1.41057E-005	-1.68088E-001	5.04738E-002	3.57940E+000	9	...........
	75	1.01333	4.82674E-002	-2.79172E-004	0.00000E+000	-1.34749E-005	-1.68088E-001	4.82695E-002	3.57940E+000	9	...........
	76	1.02667	4.60661E-002	-2.78851E-004	0.00000E+000	-1.28456E-005	-1.68088E-001	4.60762E-002	3.57940E+000	9	...........
	77	1.04	4.39201E-002	-2.78639E-004	0.00000E+000	-1.22379E-005	-1.68088E-001	4.39319E-002	3.57940E+000	9	...........
	78	1.05333	4.18019E-002	-2.78407E-004	0.00000E+000	-1.16380E-005	-1.68088E-001	4.18113E-002	3.57940E+000	9	...........
	79	1.06667	3.96528E-002	-2.78438E-004	0.00000E+000	-1.10409E-005	-1.68088E-001	3.96519E-002	3.57940E+000	9	...........
	80	1.08	3.75408E-002	-2.79413E-004	0.00000E+000	-1.04894E-005	-1.68088E-001	3.75427E-002	3.57940E+000	9	...........
	81	1.09333	3.54133E-002	-2.79256E-004	0.00000E+000	-9.88940E-006	-1.68088E-001	3.54144E-002	3.57940E+000	9	...........
	82	1.10667	3.33095E-002	-2.79166E-004	0.00000E+000	-9.29887E-006	-1.68088E-001	3.33092E-002	3.57940E+000	9	...........
	83	1.12	3.12330E-002	-2.78678E-004	0.00000E+000	-8.70396E-006	-1.68088E-001	3.12321E-002	3.57940E+000	9	...........
	84	1.13333	2.91354E-002	-2.79079E-004	0.00000E+000	-8.13108E-006	-1.68088E-001	2.91369E-002	3.57940E+000	9	...........
	85	1.14667	2.70600E-002	-2.79552E-004	0.00000E+000	-7.56468E-006	-1.68088E-001	2.70540E-002	3.57940E+000	9	...........
	86	1.16	2.49770E-002	-2.79800E-004	0.00000E+000	-6.98856E-006	-1.68088E-001	2.49730E-002	3.57940E+000	9	...........
	87	1.17333	2.29581E-002	-2.78771E-004	0.00000E+000	-6.40004E-006	-1.68088E-001	2.29510E-002	3.57940E+000	9	...........
	88	1.18667	2.09438E-002	-2.79266E-004	0.00000E+000	-5.84889E-006	-1.68088E-001	2.09381E-002	3.57940E+000	9	...........
	89	1.2	1.89861E-002	-2.79611E-004	0.00000E+000	-5.30870E-006	-1.68088E-001	1.89780E-002	3.57940E+000	9	...........
	90	1.21333	1.70382E-002	-2.79789E-004	0.00000E+000	-4.76709E-006	-1.68088E-001	1.70292E-002	3.57940E+000	9	...........
	91	1.22667	1.51185E-002	-2.78723E-004	0.00000E+000	-4.21388E-006	-1.68088E-001	1.51035E-002	3.57940E+000	9	...........
	92	1.24	1.31677E-002	-2.79182E-004	0.00000E+000	-3.67619E-006	-1.68088E-001	1.31555E-002	3.57940E+000	9	...........
	93	1.25333	1.12330E-002	-2.79460E-004	0.00000E+000	-3.13918E-006	-1.68088E-001	1.12221E-002	3.57940E+000	9	...........
	94	1.26667	9.27983E-003	-2.79362E-004	0.00000E+000	-2.59243E-006	-1.68088E-001	9.26387E-003	3.57940E+000	9	...........
	95	1.28	7.31520E-003	-2.79302E-004	0.00000E+000	-2.04315E-006	-1.68088E-001	7.30265E-003	3.57940E+000	9	...........
	96	1.29333	5.41751E-003	-2.79384E-004	0.00000E+000	-1.51357E-006	-1.68088E-001	5.39881E-003	3.57940E+000	9	...........
	97	1.30667	3.51565E-003	-2.79030E-004	0.00000E+000	-9.80973E-007	-1.68088E-001	3.49735E-003	3.57940E+000	9	...........
	98	1.32	1.60801E-003	-2.79284E-004	0.00000E+000	-4.49093E-007	-1.68088E-001	1.58707E-003	3.57940E+000	9	...........
	99	1.32667	1.97583E-004	-2.78904E-004	0.00000E+000	-5.51068E-008	-1.68088E-001	1.77826E-004	3.57940E+000	9	...........
STARTTIMEOFFSET	QUANT	536.4318	Start Time Offset (s)
