EXPLAIN
TAG	PWR800_DISCHARGE
TITLE	LABEL	PWR Cyclic Charge Discharge (Cell) - Discharge Step	Test &Identifier
DATE	LABEL	7-7-2017	Date
TIME	LABEL	16:01:09	Time
NOTES	NOTES	3	&Notes...
	supercap test cell
	2.8mg
	6M KOH
PSTAT	PSTAT	IFC5000-01520	Potentiostat
CAPACITY	QUANT	1.00000E-003	Capacity (A-hr)
CELLTYPE	SELECTOR	1	&Cell Type
WORKINGCONNECTION	SELECTOR	0	&Working Lead
MAXDISCHARGETIME	VARIABLEANDUNITS	1.00000E+002	s	1.00000E+002	second(s)	Max &Discharge Time
DISCHARGEMODE	MULTIPARAM	0	2.80000E-004	&Discharge Mode	Constant Current	Amp(s)
SAMPLETIME	QUANT	1.00000E-002	Sa&mple Period (s)
DISCHARGESTOPAT1	MULTIPARAM	3	0.00000E+000	Discharge Stop At &1	Voltage < Limit	V
DISCHARGESTOPAT2	MULTIPARAM	0	0.00000E+000	Discharge Stop At &2	None	N/A
AESBHCSELECTOR	TOGGLE	F	Save Both Half Cells
IRCOMP	TOGGLE	F	IR &Measure
EOC	QUANT	0	Open Circuit (V)
SEQUENCER	TOGGLE	TRUE	Run as Sequence
PSTATMODEL	IQUANT	53	Pstat Model
PSTATSECTION	LABEL	IFC5000-01520	Pstat Section
PSTATSERIALNO	LABEL	01520	Pstat Serial Number
CTRLMODE	IQUANT	0	Control Mode
ELECTROMETER	IQUANT	1	RE=0 or CS=1
IESTAB	IQUANT	0	I/E Stability
CASPEED	IQUANT	4	Control Amp Speed
CONVENTION	IQUANT	1	Current Convention
ICHRANGE	IQUANT	2	Ich Range
ICHRANGEMODE	TOGGLE	T	Ich Auto Range
ICHOFFSETENABLE	TOGGLE	F	Ich Offset Enable
ICHOFFSET	QUANT	0	Ich Offset (V)
ICHFILTER	IQUANT	1	Ich Filter
VCHRANGE	IQUANT	2	Vch Range
VCHRANGEMODE	TOGGLE	T	Vch Auto Range
VCHOFFSETENABLE	TOGGLE	F	Vch Offset Enable
VCHOFFSET	QUANT	0	Vch Offset (V)
VCHFILTER	IQUANT	1	Vch Filter
IERANGELOWERLIMIT	IQUANT	9	I/E Range Lower Limit
IERANGEMODE	TOGGLE	F	I/E AutoRange
IERANGE	IQUANT	9	I/E Range
ACHSELECT	IQUANT	1	Ach Select
ACHRANGE	IQUANT	2	Ach Range
ACHOFFSETENABLE	TOGGLE	F	Ach Offset Enable
ACHOFFSET	QUANT	0	Ach Offset (V)
ACHFILTER	IQUANT	1	Ach Filter
CABLEID	IQUANT	14	Cable ID
DCCALDATE	LABEL	5-7-2017	DC Calibration Date
ACCALDATE	LABEL	12/3/2015	AC Calibration Date
FRAMEWORKVERSION	QUANT	7.01	Framework Version
INSTRUMENTVERSION	LABEL	4.00	Instrument Version
CURVE	TABLE	70
	Pt	T	Vf	Im	Vu	Pwr	Sig	Ach	Temp	IERange	Over
	#	s	V	A	V	W	V	V	deg C	#	bits
	0	0.013333	5.33289E-001	-2.78843E-004	0.00000E+000	-1.48704E-004	-1.68088E-001	5.33486E-001	3.58150E+000	9	...........
	1	0.026667	5.00840E-001	-2.78933E-004	0.00000E+000	-1.39701E-004	-1.68088E-001	5.01045E-001	3.58150E+000	9	...........
	2	0.04	4.71463E-001	-2.79489E-004	0.00000E+000	-1.31768E-004	-1.68088E-001	4.71584E-001	3.58150E+000	9	...........
	3	0.053333	4.44049E-001	-2.79132E-004	0.00000E+000	-1.23948E-004	-1.68088E-001	4.44154E-001	3.58150E+000	9	...........
	4	0.066667	4.18519E-001	-2.79473E-004	0.00000E+000	-1.16965E-004	-1.68088E-001	4.18619E-001	3.58150E+000	9	...........
	5	0.08	3.94703E-001	-2.77743E-004	0.00000E+000	-1.09626E-004	-1.68088E-001	3.94793E-001	3.58150E+000	9	...........
	6	0.093333	3.72499E-001	-2.79736E-004	0.00000E+000	-1.04201E-004	-1.68088E-001	3.72586E-001	3.58150E+000	9	...........
	7	0.106667	3.51855E-001	-2.79188E-004	0.00000E+000	-9.82336E-005	-1.68088E-001	3.51939E-001	3.58150E+000	9	...........
	8	0.12	3.32644E-001	-2.79259E-004	0.00000E+000	-9.28939E-005	-1.68088E-001	3.32722E-001	3.58150E+000	9	...........
	9	0.133333	3.14774E-001	-2.78536E-004	0.00000E+000	-8.76761E-005	-1.68088E-001	3.14853E-001	3.58150E+000	9	...........
	10	0.146667	2.98171E-001	-2.78765E-004	0.00000E+000	-8.31195E-005	-1.68088E-001	2.98242E-001	3.58150E+000	9	...........
	11	0.16	2.82748E-001	-2.78498E-004	0.00000E+000	-7.87448E-005	-1.68088E-001	2.82824E-001	3.58150E+000	9	...........
	12	0.173333	2.68396E-001	-2.79408E-004	0.00000E+000	-7.49921E-005	-1.68088E-001	2.68464E-001	3.58150E+000	9	...........
	13	0.186667	2.55078E-001	-2.78636E-004	0.00000E+000	-7.10741E-005	-1.68088E-001	2.55142E-001	3.58150E+000	9	...........
	14	0.2	2.42714E-001	-2.78768E-004	0.00000E+000	-6.76607E-005	-1.68088E-001	2.42771E-001	3.58150E+000	9	...........
	15	0.213333	2.31190E-001	-2.78293E-004	0.00000E+000	-6.43385E-005	-1.68088E-001	2.31246E-001	3.57787E+000	9	...........
	16	0.226667	2.20452E-001	-2.78015E-004	0.00000E+000	-6.12890E-005	-1.68088E-001	2.20502E-001	3.57780E+000	9	...........
	17	0.24	2.10403E-001	-2.78722E-004	0.00000E+000	-5.86440E-005	-1.68088E-001	2.10454E-001	3.57780E+000	9	...........
	18	0.253333	2.01026E-001	-2.78737E-004	0.00000E+000	-5.60336E-005	-1.68088E-001	2.01074E-001	3.57780E+000	9	...........
	19	0.266667	1.92256E-001	-2.77976E-004	0.00000E+000	-5.34426E-005	-1.68088E-001	1.92302E-001	3.57780E+000	9	...........
	20	0.28	1.84021E-001	-2.78962E-004	0.00000E+000	-5.13350E-005	-1.68088E-001	1.84066E-001	3.57780E+000	9	...........
	21	0.293333	1.76247E-001	-2.79163E-004	0.00000E+000	-4.92017E-005	-1.68088E-001	1.76294E-001	3.57780E+000	9	...........
	22	0.306667	1.68945E-001	-2.79304E-004	0.00000E+000	-4.71870E-005	-1.68088E-001	1.68982E-001	3.57780E+000	9	...........
	23	0.32	1.62011E-001	-2.78284E-004	0.00000E+000	-4.50851E-005	-1.68088E-001	1.62049E-001	3.57780E+000	9	...........
	24	0.333333	1.55426E-001	-2.79030E-004	0.00000E+000	-4.33685E-005	-1.68088E-001	1.55460E-001	3.57780E+000	9	...........
	25	0.346667	1.49165E-001	-2.77481E-004	0.00000E+000	-4.13905E-005	-1.68088E-001	1.49201E-001	3.57780E+000	9	...........
	26	0.36	1.43238E-001	-2.78744E-004	0.00000E+000	-3.99267E-005	-1.68088E-001	1.43276E-001	3.57780E+000	9	...........
	27	0.373333	1.37583E-001	-2.78767E-004	0.00000E+000	-3.83535E-005	-1.68088E-001	1.37625E-001	3.57780E+000	9	...........
	28	0.386667	1.32141E-001	-2.80094E-004	0.00000E+000	-3.70119E-005	-1.68088E-001	1.32181E-001	3.57780E+000	9	...........
	29	0.4	1.26927E-001	-2.78212E-004	0.00000E+000	-3.53126E-005	-1.68088E-001	1.26965E-001	3.57780E+000	9	...........
	30	0.413333	1.21931E-001	-2.78451E-004	0.00000E+000	-3.39517E-005	-1.68088E-001	1.21972E-001	3.57780E+000	9	...........
	31	0.426667	1.17133E-001	-2.77720E-004	0.00000E+000	-3.25302E-005	-1.68088E-001	1.17165E-001	3.57780E+000	9	...........
	32	0.44	1.12482E-001	-2.78790E-004	0.00000E+000	-3.13587E-005	-1.68088E-001	1.12514E-001	3.57780E+000	9	...........
	33	0.453333	1.08048E-001	-2.78611E-004	0.00000E+000	-3.01034E-005	-1.68088E-001	1.08086E-001	3.57780E+000	9	...........
	34	0.466667	1.03770E-001	-2.77912E-004	0.00000E+000	-2.88389E-005	-1.68088E-001	1.03803E-001	3.57780E+000	9	...........
	35	0.48	9.95672E-002	-2.76965E-004	0.00000E+000	-2.75766E-005	-1.68088E-001	9.95980E-002	3.57780E+000	9	...........
	36	0.493333	9.54855E-002	-2.79153E-004	0.00000E+000	-2.66551E-005	-1.68088E-001	9.55169E-002	3.57780E+000	9	...........
	37	0.506667	9.15261E-002	-2.78746E-004	0.00000E+000	-2.55125E-005	-1.68088E-001	9.15509E-002	3.57780E+000	9	...........
	38	0.52	8.77064E-002	-2.80367E-004	0.00000E+000	-2.45900E-005	-1.68088E-001	8.77303E-002	3.57780E+000	9	...........
	39	0.533333	8.39668E-002	-2.78433E-004	0.00000E+000	-2.33791E-005	-1.68088E-001	8.39861E-002	3.57780E+000	9	...........
	40	0.546667	8.03614E-002	-2.78547E-004	0.00000E+000	-2.23844E-005	-1.68088E-001	8.03816E-002	3.57780E+000	9	...........
	41	0.56	7.68317E-002	-2.78689E-004	0.00000E+000	-2.14122E-005	-1.68088E-001	7.68490E-002	3.57780E+000	9	...........
	42	0.573333	7.33899E-002	-2.79444E-004	0.00000E+000	-2.05084E-005	-1.68088E-001	7.34025E-002	3.57780E+000	9	...........
	43	0.586667	7.00321E-002	-2.78990E-004	0.00000E+000	-1.95382E-005	-1.68088E-001	7.00457E-002	3.57780E+000	9	...........
	44	0.6	6.67691E-002	-2.78848E-004	0.00000E+000	-1.86184E-005	-1.68088E-001	6.67816E-002	3.57780E+000	9	...........
	45	0.613333	6.35677E-002	-2.78917E-004	0.00000E+000	-1.77301E-005	-1.68088E-001	6.35791E-002	3.57780E+000	9	...........
	46	0.626667	6.03661E-002	-2.79360E-004	0.00000E+000	-1.68639E-005	-1.68088E-001	6.03828E-002	3.57780E+000	9	...........
	47	0.64	5.72549E-002	-2.79246E-004	0.00000E+000	-1.59882E-005	-1.68088E-001	5.72668E-002	3.57780E+000	9	...........
	48	0.653333	5.41848E-002	-2.78543E-004	0.00000E+000	-1.50928E-005	-1.68088E-001	5.41929E-002	3.57780E+000	9	...........
	49	0.666667	5.11324E-002	-2.78930E-004	0.00000E+000	-1.42624E-005	-1.68088E-001	5.11447E-002	3.57780E+000	9	...........
	50	0.68	4.81965E-002	-2.78235E-004	0.00000E+000	-1.34100E-005	-1.68088E-001	4.82035E-002	3.57780E+000	9	...........
	51	0.693333	4.53091E-002	-2.78743E-004	0.00000E+000	-1.26296E-005	-1.68088E-001	4.53226E-002	3.57780E+000	9	...........
	52	0.706667	4.24126E-002	-2.79264E-004	0.00000E+000	-1.18443E-005	-1.68088E-001	4.24233E-002	3.57780E+000	9	...........
	53	0.72	3.95892E-002	-2.79342E-004	0.00000E+000	-1.10589E-005	-1.68088E-001	3.95961E-002	3.57780E+000	9	...........
	54	0.733333	3.68698E-002	-2.78387E-004	0.00000E+000	-1.02641E-005	-1.68088E-001	3.68744E-002	3.57780E+000	9	...........
	55	0.746667	3.41433E-002	-2.78829E-004	0.00000E+000	-9.52014E-006	-1.68088E-001	3.41471E-002	3.57780E+000	9	...........
	56	0.76	3.14570E-002	-2.78862E-004	0.00000E+000	-8.77218E-006	-1.68088E-001	3.14637E-002	3.57780E+000	9	...........
	57	0.773333	2.87904E-002	-2.77571E-004	0.00000E+000	-7.99137E-006	-1.68088E-001	2.87903E-002	3.57780E+000	9	...........
	58	0.786667	2.61577E-002	-2.78480E-004	0.00000E+000	-7.28440E-006	-1.68088E-001	2.61546E-002	3.57780E+000	9	...........
	59	0.8	2.35500E-002	-2.80054E-004	0.00000E+000	-6.59528E-006	-1.68088E-001	2.35463E-002	3.57780E+000	9	...........
	60	0.813333	2.09967E-002	-2.79000E-004	0.00000E+000	-5.85809E-006	-1.68088E-001	2.09957E-002	3.57780E+000	9	...........
	61	0.826667	1.84102E-002	-2.78189E-004	0.00000E+000	-5.12151E-006	-1.68088E-001	1.84028E-002	3.57780E+000	9	...........
	62	0.84	1.58821E-002	-2.79083E-004	0.00000E+000	-4.43242E-006	-1.68088E-001	1.58763E-002	3.57780E+000	9	...........
	63	0.853333	1.34058E-002	-2.77519E-004	0.00000E+000	-3.72038E-006	-1.68088E-001	1.33941E-002	3.57780E+000	9	...........
	64	0.866667	1.09489E-002	-2.79207E-004	0.00000E+000	-3.05701E-006	-1.68088E-001	1.09403E-002	3.57780E+000	9	...........
	65	0.88	8.49540E-003	-2.78763E-004	0.00000E+000	-2.36821E-006	-1.68088E-001	8.48049E-003	3.57780E+000	9	...........
	66	0.893333	6.13937E-003	-2.79899E-004	0.00000E+000	-1.71840E-006	-1.68088E-001	6.12214E-003	3.57780E+000	9	...........
	67	0.906667	3.76465E-003	-2.78229E-004	0.00000E+000	-1.04744E-006	-1.68088E-001	3.75023E-003	3.57780E+000	9	...........
	68	0.92	1.39789E-003	-2.77925E-004	0.00000E+000	-3.88509E-007	-1.68088E-001	1.38447E-003	3.57780E+000	9	...........
	69	0.923333	-6.50561E-005	-2.81332E-004	0.00000E+000	1.83023E-008	-1.68088E-001	-7.85302E-005	3.57780E+000	9	...........
STARTTIMEOFFSET	QUANT	1157.561	Start Time Offset (s)
