EXPLAIN
TAG	PWR800_DISCHARGE
TITLE	LABEL	PWR Cyclic Charge Discharge (Cell) - Discharge Step	Test &Identifier
DATE	LABEL	7-7-2017	Date
TIME	LABEL	16:13:00	Time
NOTES	NOTES	3	&Notes...
	supercap test cell
	2.8mg
	6M KOH
PSTAT	PSTAT	IFC5000-01520	Potentiostat
CAPACITY	QUANT	1.00000E-003	Capacity (A-hr)
CELLTYPE	SELECTOR	1	&Cell Type
WORKINGCONNECTION	SELECTOR	0	&Working Lead
MAXDISCHARGETIME	VARIABLEANDUNITS	1.00000E+002	s	1.00000E+002	second(s)	Max &Discharge Time
DISCHARGEMODE	MULTIPARAM	0	2.80000E-004	&Discharge Mode	Constant Current	Amp(s)
SAMPLETIME	QUANT	1.00000E-002	Sa&mple Period (s)
DISCHARGESTOPAT1	MULTIPARAM	3	0.00000E+000	Discharge Stop At &1	Voltage < Limit	V
DISCHARGESTOPAT2	MULTIPARAM	0	0.00000E+000	Discharge Stop At &2	None	N/A
AESBHCSELECTOR	TOGGLE	F	Save Both Half Cells
IRCOMP	TOGGLE	F	IR &Measure
EOC	QUANT	0	Open Circuit (V)
SEQUENCER	TOGGLE	TRUE	Run as Sequence
PSTATMODEL	IQUANT	53	Pstat Model
PSTATSECTION	LABEL	IFC5000-01520	Pstat Section
PSTATSERIALNO	LABEL	01520	Pstat Serial Number
CTRLMODE	IQUANT	0	Control Mode
ELECTROMETER	IQUANT	1	RE=0 or CS=1
IESTAB	IQUANT	0	I/E Stability
CASPEED	IQUANT	4	Control Amp Speed
CONVENTION	IQUANT	1	Current Convention
ICHRANGE	IQUANT	2	Ich Range
ICHRANGEMODE	TOGGLE	T	Ich Auto Range
ICHOFFSETENABLE	TOGGLE	F	Ich Offset Enable
ICHOFFSET	QUANT	0	Ich Offset (V)
ICHFILTER	IQUANT	1	Ich Filter
VCHRANGE	IQUANT	2	Vch Range
VCHRANGEMODE	TOGGLE	T	Vch Auto Range
VCHOFFSETENABLE	TOGGLE	F	Vch Offset Enable
VCHOFFSET	QUANT	0	Vch Offset (V)
VCHFILTER	IQUANT	1	Vch Filter
IERANGELOWERLIMIT	IQUANT	9	I/E Range Lower Limit
IERANGEMODE	TOGGLE	F	I/E AutoRange
IERANGE	IQUANT	9	I/E Range
ACHSELECT	IQUANT	1	Ach Select
ACHRANGE	IQUANT	2	Ach Range
ACHOFFSETENABLE	TOGGLE	F	Ach Offset Enable
ACHOFFSET	QUANT	0	Ach Offset (V)
ACHFILTER	IQUANT	1	Ach Filter
CABLEID	IQUANT	14	Cable ID
DCCALDATE	LABEL	5-7-2017	DC Calibration Date
ACCALDATE	LABEL	12/3/2015	AC Calibration Date
FRAMEWORKVERSION	QUANT	7.01	Framework Version
INSTRUMENTVERSION	LABEL	4.00	Instrument Version
CURVE	TABLE	59
	Pt	T	Vf	Im	Vu	Pwr	Sig	Ach	Temp	IERange	Over
	#	s	V	A	V	W	V	V	deg C	#	bits
	0	0.013333	5.25900E-001	-2.79003E-004	0.00000E+000	-1.46728E-004	-1.68088E-001	5.26132E-001	3.57810E+000	9	...........
	1	0.026667	4.92462E-001	-2.78974E-004	0.00000E+000	-1.37384E-004	-1.68088E-001	4.92698E-001	3.57810E+000	9	...........
	2	0.04	4.62065E-001	-2.79862E-004	0.00000E+000	-1.29314E-004	-1.68088E-001	4.62173E-001	3.57810E+000	9	...........
	3	0.053333	4.33573E-001	-2.79191E-004	0.00000E+000	-1.21050E-004	-1.68088E-001	4.33680E-001	3.57810E+000	9	...........
	4	0.066667	4.06991E-001	-2.79416E-004	0.00000E+000	-1.13720E-004	-1.68088E-001	4.07086E-001	3.57810E+000	9	...........
	5	0.08	3.82151E-001	-2.77628E-004	0.00000E+000	-1.06096E-004	-1.68088E-001	3.82232E-001	3.57810E+000	9	...........
	6	0.093333	3.58937E-001	-2.78719E-004	0.00000E+000	-1.00043E-004	-1.68088E-001	3.59022E-001	3.57810E+000	9	...........
	7	0.106667	3.37251E-001	-2.79698E-004	0.00000E+000	-9.43285E-005	-1.68088E-001	3.37326E-001	3.57810E+000	9	...........
	8	0.12	3.17044E-001	-2.78840E-004	0.00000E+000	-8.84045E-005	-1.68088E-001	3.17126E-001	3.57810E+000	9	...........
	9	0.133333	2.98253E-001	-2.79693E-004	0.00000E+000	-8.34193E-005	-1.68088E-001	2.98327E-001	3.57810E+000	9	...........
	10	0.146667	2.80817E-001	-2.78793E-004	0.00000E+000	-7.82897E-005	-1.68088E-001	2.80885E-001	3.57810E+000	9	...........
	11	0.16	2.64608E-001	-2.78833E-004	0.00000E+000	-7.37815E-005	-1.68088E-001	2.64678E-001	3.57810E+000	9	...........
	12	0.173333	2.49568E-001	-2.78698E-004	0.00000E+000	-6.95539E-005	-1.68088E-001	2.49632E-001	3.57810E+000	9	...........
	13	0.186667	2.35619E-001	-2.77991E-004	0.00000E+000	-6.55002E-005	-1.68088E-001	2.35677E-001	3.57810E+000	9	...........
	14	0.2	2.22679E-001	-2.78851E-004	0.00000E+000	-6.20942E-005	-1.68088E-001	2.22728E-001	3.57810E+000	9	...........
	15	0.213333	2.10603E-001	-2.79562E-004	0.00000E+000	-5.88764E-005	-1.68088E-001	2.10652E-001	3.57810E+000	9	...........
	16	0.226667	1.99382E-001	-2.78008E-004	0.00000E+000	-5.54298E-005	-1.68088E-001	1.99422E-001	3.57810E+000	9	...........
	17	0.24	1.88891E-001	-2.79046E-004	0.00000E+000	-5.27092E-005	-1.68088E-001	1.88935E-001	3.57810E+000	9	...........
	18	0.253333	1.79113E-001	-2.79812E-004	0.00000E+000	-5.01180E-005	-1.68088E-001	1.79152E-001	3.57810E+000	9	...........
	19	0.266667	1.69945E-001	-2.79028E-004	0.00000E+000	-4.74195E-005	-1.68088E-001	1.69987E-001	3.57810E+000	9	...........
	20	0.28	1.61321E-001	-2.79296E-004	0.00000E+000	-4.50564E-005	-1.68088E-001	1.61354E-001	3.57810E+000	9	...........
	21	0.293333	1.53211E-001	-2.79303E-004	0.00000E+000	-4.27923E-005	-1.68088E-001	1.53242E-001	3.57780E+000	9	...........
	22	0.306667	1.45625E-001	-2.79694E-004	0.00000E+000	-4.07305E-005	-1.68088E-001	1.45659E-001	3.57730E+000	9	...........
	23	0.32	1.38484E-001	-2.78553E-004	0.00000E+000	-3.85752E-005	-1.68088E-001	1.38520E-001	3.57730E+000	9	...........
	24	0.333333	1.31755E-001	-2.78104E-004	0.00000E+000	-3.66416E-005	-1.68088E-001	1.31783E-001	3.57730E+000	9	...........
	25	0.346667	1.25285E-001	-2.77962E-004	0.00000E+000	-3.48244E-005	-1.68088E-001	1.25310E-001	3.57730E+000	9	...........
	26	0.36	1.19223E-001	-2.79391E-004	0.00000E+000	-3.33098E-005	-1.68088E-001	1.19254E-001	3.57730E+000	9	...........
	27	0.373333	1.13443E-001	-2.78040E-004	0.00000E+000	-3.15416E-005	-1.68088E-001	1.13474E-001	3.57730E+000	9	...........
	28	0.386667	1.07890E-001	-2.79125E-004	0.00000E+000	-3.01149E-005	-1.68088E-001	1.07913E-001	3.57730E+000	9	...........
	29	0.4	1.02564E-001	-2.78675E-004	0.00000E+000	-2.85821E-005	-1.68088E-001	1.02591E-001	3.57730E+000	9	...........
	30	0.413333	9.74222E-002	-2.79225E-004	0.00000E+000	-2.72027E-005	-1.68088E-001	9.74503E-002	3.57730E+000	9	...........
	31	0.426667	9.25324E-002	-2.78645E-004	0.00000E+000	-2.57837E-005	-1.68088E-001	9.25597E-002	3.57730E+000	9	...........
	32	0.44	8.78450E-002	-2.78123E-004	0.00000E+000	-2.44317E-005	-1.68088E-001	8.78726E-002	3.57730E+000	9	...........
	33	0.453333	8.33307E-002	-2.78935E-004	0.00000E+000	-2.32439E-005	-1.68088E-001	8.33559E-002	3.57730E+000	9	...........
	34	0.466667	7.89439E-002	-2.79750E-004	0.00000E+000	-2.20846E-005	-1.68088E-001	7.89681E-002	3.57730E+000	9	...........
	35	0.48	7.47334E-002	-2.79823E-004	0.00000E+000	-2.09121E-005	-1.68088E-001	7.47472E-002	3.57730E+000	9	...........
	36	0.493333	7.06618E-002	-2.79175E-004	0.00000E+000	-1.97270E-005	-1.68088E-001	7.06774E-002	3.57730E+000	9	...........
	37	0.506667	6.66764E-002	-2.78190E-004	0.00000E+000	-1.85487E-005	-1.68088E-001	6.66866E-002	3.57730E+000	9	...........
	38	0.52	6.28147E-002	-2.78934E-004	0.00000E+000	-1.75212E-005	-1.68088E-001	6.28249E-002	3.57730E+000	9	...........
	39	0.533333	5.90628E-002	-2.78415E-004	0.00000E+000	-1.64440E-005	-1.68088E-001	5.90793E-002	3.57730E+000	9	...........
	40	0.546667	5.54050E-002	-2.79813E-004	0.00000E+000	-1.55030E-005	-1.68088E-001	5.54173E-002	3.57730E+000	9	...........
	41	0.56	5.17948E-002	-2.79054E-004	0.00000E+000	-1.44536E-005	-1.68088E-001	5.18055E-002	3.57730E+000	9	...........
	42	0.573333	4.83045E-002	-2.78368E-004	0.00000E+000	-1.34464E-005	-1.68088E-001	4.83179E-002	3.57730E+000	9	...........
	43	0.586667	4.49244E-002	-2.78626E-004	0.00000E+000	-1.25171E-005	-1.68088E-001	4.49345E-002	3.57730E+000	9	...........
	44	0.6	4.15709E-002	-2.80586E-004	0.00000E+000	-1.16642E-005	-1.68088E-001	4.15761E-002	3.57730E+000	9	...........
	45	0.613333	3.82981E-002	-2.78269E-004	0.00000E+000	-1.06572E-005	-1.68088E-001	3.83066E-002	3.57730E+000	9	...........
	46	0.626667	3.50842E-002	-2.78047E-004	0.00000E+000	-9.75504E-006	-1.68088E-001	3.50849E-002	3.57730E+000	9	...........
	47	0.64	3.19429E-002	-2.78493E-004	0.00000E+000	-8.89585E-006	-1.68088E-001	3.19409E-002	3.57730E+000	9	...........
	48	0.653333	2.88604E-002	-2.79252E-004	0.00000E+000	-8.05933E-006	-1.68088E-001	2.88583E-002	3.57730E+000	9	...........
	49	0.666667	2.58825E-002	-2.78098E-004	0.00000E+000	-7.19787E-006	-1.68088E-001	2.58803E-002	3.57730E+000	9	...........
	50	0.68	2.29683E-002	-2.79342E-004	0.00000E+000	-6.41600E-006	-1.68088E-001	2.29661E-002	3.57730E+000	9	...........
	51	0.693333	2.01274E-002	-2.78653E-004	0.00000E+000	-5.60856E-006	-1.68088E-001	2.01236E-002	3.57730E+000	9	...........
	52	0.706667	1.72435E-002	-2.77722E-004	0.00000E+000	-4.78890E-006	-1.68088E-001	1.72371E-002	3.57730E+000	9	...........
	53	0.72	1.43932E-002	-2.78882E-004	0.00000E+000	-4.01401E-006	-1.68088E-001	1.43824E-002	3.57730E+000	9	...........
	54	0.733333	1.15900E-002	-2.80317E-004	0.00000E+000	-3.24888E-006	-1.68088E-001	1.15788E-002	3.57730E+000	9	...........
	55	0.746667	8.83378E-003	-2.78949E-004	0.00000E+000	-2.46417E-006	-1.68088E-001	8.81630E-003	3.57730E+000	9	...........
	56	0.76	6.10985E-003	-2.79926E-004	0.00000E+000	-1.71031E-006	-1.68088E-001	6.09645E-003	3.57730E+000	9	...........
	57	0.773333	3.49384E-003	-2.79158E-004	0.00000E+000	-9.75335E-007	-1.68088E-001	3.47908E-003	3.57730E+000	9	...........
	58	0.786667	9.06627E-004	-2.80198E-004	0.00000E+000	-2.54035E-007	-1.68088E-001	8.87116E-004	3.57730E+000	9	...........
STARTTIMEOFFSET	QUANT	1644.685	Start Time Offset (s)
