EXPLAIN
TAG	PWR800_DISCHARGE
TITLE	LABEL	PWR Cyclic Charge Discharge (Cell) - Discharge Step	Test &Identifier
DATE	LABEL	7-7-2017	Date
TIME	LABEL	15:59:04	Time
NOTES	NOTES	3	&Notes...
	supercap test cell
	2.8mg
	6M KOH
PSTAT	PSTAT	IFC5000-01520	Potentiostat
CAPACITY	QUANT	1.00000E-003	Capacity (A-hr)
CELLTYPE	SELECTOR	1	&Cell Type
WORKINGCONNECTION	SELECTOR	0	&Working Lead
MAXDISCHARGETIME	VARIABLEANDUNITS	1.00000E+002	s	1.00000E+002	second(s)	Max &Discharge Time
DISCHARGEMODE	MULTIPARAM	0	2.80000E-004	&Discharge Mode	Constant Current	Amp(s)
SAMPLETIME	QUANT	1.00000E-002	Sa&mple Period (s)
DISCHARGESTOPAT1	MULTIPARAM	3	0.00000E+000	Discharge Stop At &1	Voltage < Limit	V
DISCHARGESTOPAT2	MULTIPARAM	0	0.00000E+000	Discharge Stop At &2	None	N/A
AESBHCSELECTOR	TOGGLE	F	Save Both Half Cells
IRCOMP	TOGGLE	F	IR &Measure
EOC	QUANT	0	Open Circuit (V)
SEQUENCER	TOGGLE	TRUE	Run as Sequence
PSTATMODEL	IQUANT	53	Pstat Model
PSTATSECTION	LABEL	IFC5000-01520	Pstat Section
PSTATSERIALNO	LABEL	01520	Pstat Serial Number
CTRLMODE	IQUANT	0	Control Mode
ELECTROMETER	IQUANT	1	RE=0 or CS=1
IESTAB	IQUANT	0	I/E Stability
CASPEED	IQUANT	4	Control Amp Speed
CONVENTION	IQUANT	1	Current Convention
ICHRANGE	IQUANT	2	Ich Range
ICHRANGEMODE	TOGGLE	T	Ich Auto Range
ICHOFFSETENABLE	TOGGLE	F	Ich Offset Enable
ICHOFFSET	QUANT	0	Ich Offset (V)
ICHFILTER	IQUANT	1	Ich Filter
VCHRANGE	IQUANT	2	Vch Range
VCHRANGEMODE	TOGGLE	T	Vch Auto Range
VCHOFFSETENABLE	TOGGLE	F	Vch Offset Enable
VCHOFFSET	QUANT	0	Vch Offset (V)
VCHFILTER	IQUANT	1	Vch Filter
IERANGELOWERLIMIT	IQUANT	9	I/E Range Lower Limit
IERANGEMODE	TOGGLE	F	I/E AutoRange
IERANGE	IQUANT	9	I/E Range
ACHSELECT	IQUANT	1	Ach Select
ACHRANGE	IQUANT	2	Ach Range
ACHOFFSETENABLE	TOGGLE	F	Ach Offset Enable
ACHOFFSET	QUANT	0	Ach Offset (V)
ACHFILTER	IQUANT	1	Ach Filter
CABLEID	IQUANT	14	Cable ID
DCCALDATE	LABEL	5-7-2017	DC Calibration Date
ACCALDATE	LABEL	12/3/2015	AC Calibration Date
FRAMEWORKVERSION	QUANT	7.01	Framework Version
INSTRUMENTVERSION	LABEL	4.00	Instrument Version
CURVE	TABLE	72
	Pt	T	Vf	Im	Vu	Pwr	Sig	Ach	Temp	IERange	Over
	#	s	V	A	V	W	V	V	deg C	#	bits
	0	0.013333	5.24657E-001	-2.78154E-004	0.00000E+000	-1.45935E-004	-1.68088E-001	5.24891E-001	3.57790E+000	9	...........
	1	0.026667	4.92707E-001	-2.78544E-004	0.00000E+000	-1.37241E-004	-1.68088E-001	4.92926E-001	3.57790E+000	9	...........
	2	0.04	4.63874E-001	-2.79069E-004	0.00000E+000	-1.29453E-004	-1.68088E-001	4.63985E-001	3.57790E+000	9	...........
	3	0.053333	4.37009E-001	-2.78411E-004	0.00000E+000	-1.21668E-004	-1.68088E-001	4.37114E-001	3.57790E+000	9	...........
	4	0.066667	4.12087E-001	-2.79146E-004	0.00000E+000	-1.15032E-004	-1.68088E-001	4.12182E-001	3.57790E+000	9	...........
	5	0.08	3.88941E-001	-2.77898E-004	0.00000E+000	-1.08086E-004	-1.68088E-001	3.89027E-001	3.57790E+000	9	...........
	6	0.093333	3.67444E-001	-2.78447E-004	0.00000E+000	-1.02314E-004	-1.68088E-001	3.67533E-001	3.57790E+000	9	...........
	7	0.106667	3.47458E-001	-2.78497E-004	0.00000E+000	-9.67661E-005	-1.68088E-001	3.47541E-001	3.57790E+000	9	...........
	8	0.12	3.28902E-001	-2.78816E-004	0.00000E+000	-9.17031E-005	-1.68088E-001	3.28981E-001	3.57790E+000	9	...........
	9	0.133333	3.11678E-001	-2.79582E-004	0.00000E+000	-8.71397E-005	-1.68088E-001	3.11751E-001	3.57790E+000	9	...........
	10	0.146667	2.95673E-001	-2.78516E-004	0.00000E+000	-8.23495E-005	-1.68088E-001	2.95745E-001	3.57790E+000	9	...........
	11	0.16	2.80828E-001	-2.78399E-004	0.00000E+000	-7.81822E-005	-1.68088E-001	2.80901E-001	3.57790E+000	9	...........
	12	0.173333	2.67003E-001	-2.80464E-004	0.00000E+000	-7.48846E-005	-1.68088E-001	2.67075E-001	3.57790E+000	9	...........
	13	0.186667	2.54175E-001	-2.79158E-004	0.00000E+000	-7.09550E-005	-1.68088E-001	2.54235E-001	3.57790E+000	9	...........
	14	0.2	2.42267E-001	-2.78462E-004	0.00000E+000	-6.74622E-005	-1.68088E-001	2.42321E-001	3.57790E+000	9	...........
	15	0.213333	2.31154E-001	-2.78425E-004	0.00000E+000	-6.43589E-005	-1.68088E-001	2.31207E-001	3.57790E+000	9	...........
	16	0.226667	2.20754E-001	-2.78536E-004	0.00000E+000	-6.14881E-005	-1.68088E-001	2.20808E-001	3.57790E+000	9	...........
	17	0.24	2.11052E-001	-2.79193E-004	0.00000E+000	-5.89242E-005	-1.68088E-001	2.11101E-001	3.57790E+000	9	...........
	18	0.253333	2.01996E-001	-2.78187E-004	0.00000E+000	-5.61927E-005	-1.68088E-001	2.02043E-001	3.57790E+000	9	...........
	19	0.266667	1.93478E-001	-2.79611E-004	0.00000E+000	-5.40984E-005	-1.68088E-001	1.93524E-001	3.57790E+000	9	...........
	20	0.28	1.85504E-001	-2.78687E-004	0.00000E+000	-5.16977E-005	-1.68088E-001	1.85551E-001	3.57790E+000	9	...........
	21	0.293333	1.77988E-001	-2.78970E-004	0.00000E+000	-4.96533E-005	-1.68088E-001	1.78027E-001	3.57790E+000	9	...........
	22	0.306667	1.70907E-001	-2.78877E-004	0.00000E+000	-4.76621E-005	-1.68088E-001	1.70954E-001	3.57790E+000	9	...........
	23	0.32	1.64202E-001	-2.79486E-004	0.00000E+000	-4.58920E-005	-1.68088E-001	1.64238E-001	3.57790E+000	9	...........
	24	0.333333	1.57808E-001	-2.78302E-004	0.00000E+000	-4.39182E-005	-1.68088E-001	1.57845E-001	3.57790E+000	9	...........
	25	0.346667	1.51718E-001	-2.78688E-004	0.00000E+000	-4.22819E-005	-1.68088E-001	1.51754E-001	3.57790E+000	9	...........
	26	0.36	1.45947E-001	-2.78592E-004	0.00000E+000	-4.06596E-005	-1.68088E-001	1.45984E-001	3.57790E+000	9	...........
	27	0.373333	1.40424E-001	-2.77801E-004	0.00000E+000	-3.90098E-005	-1.68088E-001	1.40458E-001	3.57790E+000	9	...........
	28	0.386667	1.35113E-001	-2.79437E-004	0.00000E+000	-3.77556E-005	-1.68088E-001	1.35150E-001	3.57790E+000	9	...........
	29	0.4	1.30013E-001	-2.78507E-004	0.00000E+000	-3.62096E-005	-1.68088E-001	1.30046E-001	3.57790E+000	9	...........
	30	0.413333	1.25118E-001	-2.79442E-004	0.00000E+000	-3.49633E-005	-1.68088E-001	1.25152E-001	3.57790E+000	9	...........
	31	0.426667	1.20372E-001	-2.77995E-004	0.00000E+000	-3.34629E-005	-1.68088E-001	1.20408E-001	3.57790E+000	9	...........
	32	0.44	1.15788E-001	-2.78593E-004	0.00000E+000	-3.22577E-005	-1.68088E-001	1.15819E-001	3.57790E+000	9	...........
	33	0.453333	1.11391E-001	-2.78470E-004	0.00000E+000	-3.10189E-005	-1.68088E-001	1.11424E-001	3.57790E+000	9	...........
	34	0.466667	1.07200E-001	-2.78441E-004	0.00000E+000	-2.98488E-005	-1.68088E-001	1.07231E-001	3.57790E+000	9	...........
	35	0.48	1.03067E-001	-2.78956E-004	0.00000E+000	-2.87513E-005	-1.68088E-001	1.03092E-001	3.57790E+000	9	...........
	36	0.493333	9.90841E-002	-2.77690E-004	0.00000E+000	-2.75147E-005	-1.68088E-001	9.91080E-002	3.57790E+000	9	...........
	37	0.506667	9.51678E-002	-2.78102E-004	0.00000E+000	-2.64664E-005	-1.68088E-001	9.51909E-002	3.57790E+000	9	...........
	38	0.52	9.13721E-002	-2.78619E-004	0.00000E+000	-2.54580E-005	-1.68088E-001	9.13946E-002	3.57790E+000	9	...........
	39	0.533333	8.76563E-002	-2.79174E-004	0.00000E+000	-2.44714E-005	-1.68088E-001	8.76789E-002	3.57790E+000	9	...........
	40	0.546667	8.40662E-002	-2.78718E-004	0.00000E+000	-2.34307E-005	-1.68088E-001	8.40914E-002	3.57790E+000	9	...........
	41	0.56	8.05720E-002	-2.78685E-004	0.00000E+000	-2.24542E-005	-1.68088E-001	8.05959E-002	3.57790E+000	9	...........
	42	0.573333	7.71437E-002	-2.77411E-004	0.00000E+000	-2.14005E-005	-1.68088E-001	7.71643E-002	3.57790E+000	9	...........
	43	0.586667	7.37628E-002	-2.77009E-004	0.00000E+000	-2.04329E-005	-1.68088E-001	7.37764E-002	3.57790E+000	9	...........
	44	0.6	7.04664E-002	-2.78593E-004	0.00000E+000	-1.96314E-005	-1.68088E-001	7.04854E-002	3.57790E+000	9	...........
	45	0.613333	6.72704E-002	-2.79375E-004	0.00000E+000	-1.87937E-005	-1.68088E-001	6.72784E-002	3.57790E+000	9	...........
	46	0.626667	6.41143E-002	-2.78562E-004	0.00000E+000	-1.78598E-005	-1.68088E-001	6.41256E-002	3.57790E+000	9	...........
	47	0.64	6.10711E-002	-2.78757E-004	0.00000E+000	-1.70240E-005	-1.68088E-001	6.10828E-002	3.57790E+000	9	...........
	48	0.653333	5.80728E-002	-2.79295E-004	0.00000E+000	-1.62194E-005	-1.68088E-001	5.80845E-002	3.57790E+000	9	...........
	49	0.666667	5.51067E-002	-2.79327E-004	0.00000E+000	-1.53928E-005	-1.68088E-001	5.51208E-002	3.57790E+000	9	...........
	50	0.68	5.21995E-002	-2.78639E-004	0.00000E+000	-1.45448E-005	-1.68088E-001	5.22121E-002	3.57790E+000	9	...........
	51	0.693333	4.93381E-002	-2.78376E-004	0.00000E+000	-1.37345E-005	-1.68088E-001	4.93474E-002	3.57790E+000	9	...........
	52	0.706667	4.65418E-002	-2.79810E-004	0.00000E+000	-1.30228E-005	-1.68088E-001	4.65533E-002	3.57790E+000	9	...........
	53	0.72	4.37496E-002	-2.79521E-004	0.00000E+000	-1.22289E-005	-1.68088E-001	4.37615E-002	3.57790E+000	9	...........
	54	0.733333	4.09787E-002	-2.78654E-004	0.00000E+000	-1.14189E-005	-1.68088E-001	4.09831E-002	3.57790E+000	9	...........
	55	0.746667	3.82434E-002	-2.77401E-004	0.00000E+000	-1.06087E-005	-1.68088E-001	3.82469E-002	3.57790E+000	9	...........
	56	0.76	3.55343E-002	-2.79188E-004	0.00000E+000	-9.92073E-006	-1.68088E-001	3.55382E-002	3.57859E+000	9	...........
	57	0.773333	3.28679E-002	-2.78646E-004	0.00000E+000	-9.15851E-006	-1.68088E-001	3.28698E-002	3.57900E+000	9	...........
	58	0.786667	3.02319E-002	-2.79036E-004	0.00000E+000	-8.43581E-006	-1.68088E-001	3.02331E-002	3.57900E+000	9	...........
	59	0.8	2.76486E-002	-2.79468E-004	0.00000E+000	-7.72690E-006	-1.68088E-001	2.76498E-002	3.57900E+000	9	...........
	60	0.813333	2.50646E-002	-2.77940E-004	0.00000E+000	-6.96647E-006	-1.68088E-001	2.50613E-002	3.57900E+000	9	...........
	61	0.826667	2.25650E-002	-2.78539E-004	0.00000E+000	-6.28525E-006	-1.68088E-001	2.25633E-002	3.57900E+000	9	...........
	62	0.84	2.01372E-002	-2.78545E-004	0.00000E+000	-5.60911E-006	-1.68088E-001	2.01304E-002	3.57900E+000	9	...........
	63	0.853333	1.77405E-002	-2.78850E-004	0.00000E+000	-4.94695E-006	-1.68088E-001	1.77354E-002	3.57900E+000	9	...........
	64	0.866667	1.53234E-002	-2.79051E-004	0.00000E+000	-4.27600E-006	-1.68088E-001	1.53150E-002	3.57900E+000	9	...........
	65	0.88	1.28901E-002	-2.80030E-004	0.00000E+000	-3.60961E-006	-1.68088E-001	1.28804E-002	3.57900E+000	9	...........
	66	0.893333	1.05356E-002	-2.78180E-004	0.00000E+000	-2.93078E-006	-1.68088E-001	1.05229E-002	3.57900E+000	9	...........
	67	0.906667	8.18819E-003	-2.78926E-004	0.00000E+000	-2.28390E-006	-1.68088E-001	8.17301E-003	3.57900E+000	9	...........
	68	0.92	5.82317E-003	-2.78284E-004	0.00000E+000	-1.62050E-006	-1.68088E-001	5.81365E-003	3.57900E+000	9	...........
	69	0.933333	3.54851E-003	-2.78318E-004	0.00000E+000	-9.87614E-007	-1.68088E-001	3.53198E-003	3.57900E+000	9	...........
	70	0.946667	1.27214E-003	-2.78747E-004	0.00000E+000	-3.54606E-007	-1.68088E-001	1.25547E-003	3.57900E+000	9	...........
	71	0.948333	-3.13783E-006	-2.79640E-004	0.00000E+000	8.77462E-010	-1.68088E-001	-2.01162E-005	3.57900E+000	9	...........
STARTTIMEOFFSET	QUANT	1069.856	Start Time Offset (s)
