EXPLAIN
TAG	PWR800_DISCHARGE
TITLE	LABEL	PWR Cyclic Charge Discharge (Cell) - Discharge Step	Test &Identifier
DATE	LABEL	7-7-2017	Date
TIME	LABEL	15:49:05	Time
NOTES	NOTES	3	&Notes...
	supercap test cell
	2.8mg
	6M KOH
PSTAT	PSTAT	IFC5000-01520	Potentiostat
CAPACITY	QUANT	1.00000E-003	Capacity (A-hr)
CELLTYPE	SELECTOR	1	&Cell Type
WORKINGCONNECTION	SELECTOR	0	&Working Lead
MAXDISCHARGETIME	VARIABLEANDUNITS	1.00000E+002	s	1.00000E+002	second(s)	Max &Discharge Time
DISCHARGEMODE	MULTIPARAM	0	2.80000E-004	&Discharge Mode	Constant Current	Amp(s)
SAMPLETIME	QUANT	1.00000E-002	Sa&mple Period (s)
DISCHARGESTOPAT1	MULTIPARAM	3	0.00000E+000	Discharge Stop At &1	Voltage < Limit	V
DISCHARGESTOPAT2	MULTIPARAM	0	0.00000E+000	Discharge Stop At &2	None	N/A
AESBHCSELECTOR	TOGGLE	F	Save Both Half Cells
IRCOMP	TOGGLE	F	IR &Measure
EOC	QUANT	0	Open Circuit (V)
SEQUENCER	TOGGLE	TRUE	Run as Sequence
PSTATMODEL	IQUANT	53	Pstat Model
PSTATSECTION	LABEL	IFC5000-01520	Pstat Section
PSTATSERIALNO	LABEL	01520	Pstat Serial Number
CTRLMODE	IQUANT	0	Control Mode
ELECTROMETER	IQUANT	1	RE=0 or CS=1
IESTAB	IQUANT	0	I/E Stability
CASPEED	IQUANT	4	Control Amp Speed
CONVENTION	IQUANT	1	Current Convention
ICHRANGE	IQUANT	2	Ich Range
ICHRANGEMODE	TOGGLE	T	Ich Auto Range
ICHOFFSETENABLE	TOGGLE	F	Ich Offset Enable
ICHOFFSET	QUANT	0	Ich Offset (V)
ICHFILTER	IQUANT	1	Ich Filter
VCHRANGE	IQUANT	2	Vch Range
VCHRANGEMODE	TOGGLE	T	Vch Auto Range
VCHOFFSETENABLE	TOGGLE	F	Vch Offset Enable
VCHOFFSET	QUANT	0	Vch Offset (V)
VCHFILTER	IQUANT	1	Vch Filter
IERANGELOWERLIMIT	IQUANT	9	I/E Range Lower Limit
IERANGEMODE	TOGGLE	F	I/E AutoRange
IERANGE	IQUANT	9	I/E Range
ACHSELECT	IQUANT	1	Ach Select
ACHRANGE	IQUANT	2	Ach Range
ACHOFFSETENABLE	TOGGLE	F	Ach Offset Enable
ACHOFFSET	QUANT	0	Ach Offset (V)
ACHFILTER	IQUANT	1	Ach Filter
CABLEID	IQUANT	14	Cable ID
DCCALDATE	LABEL	5-7-2017	DC Calibration Date
ACCALDATE	LABEL	12/3/2015	AC Calibration Date
FRAMEWORKVERSION	QUANT	7.01	Framework Version
INSTRUMENTVERSION	LABEL	4.00	Instrument Version
CURVE	TABLE	93
	Pt	T	Vf	Im	Vu	Pwr	Sig	Ach	Temp	IERange	Over
	#	s	V	A	V	W	V	V	deg C	#	bits
	0	0.013333	5.46550E-001	-2.78577E-004	0.00000E+000	-1.52256E-004	-1.68088E-001	5.46844E-001	3.57790E+000	9	...........
	1	0.026667	5.16175E-001	-2.79125E-004	0.00000E+000	-1.44077E-004	-1.68088E-001	5.16446E-001	3.57790E+000	9	...........
	2	0.04	4.88754E-001	-2.79223E-004	0.00000E+000	-1.36471E-004	-1.68088E-001	4.88996E-001	3.57790E+000	9	...........
	3	0.053333	4.63800E-001	-2.79130E-004	0.00000E+000	-1.29461E-004	-1.68088E-001	4.63919E-001	3.57790E+000	9	...........
	4	0.066667	4.40488E-001	-2.79553E-004	0.00000E+000	-1.23140E-004	-1.68088E-001	4.40592E-001	3.57790E+000	9	...........
	5	0.08	4.18908E-001	-2.79306E-004	0.00000E+000	-1.17004E-004	-1.68088E-001	4.19012E-001	3.57790E+000	9	...........
	6	0.093333	3.98884E-001	-2.78618E-004	0.00000E+000	-1.11136E-004	-1.68088E-001	3.98978E-001	3.57790E+000	9	...........
	7	0.106667	3.80314E-001	-2.79550E-004	0.00000E+000	-1.06317E-004	-1.68088E-001	3.80396E-001	3.57790E+000	9	...........
	8	0.12	3.63063E-001	-2.79241E-004	0.00000E+000	-1.01382E-004	-1.68088E-001	3.63150E-001	3.57790E+000	9	...........
	9	0.133333	3.47042E-001	-2.78937E-004	0.00000E+000	-9.68029E-005	-1.68088E-001	3.47126E-001	3.57790E+000	9	...........
	10	0.146667	3.32131E-001	-2.79019E-004	0.00000E+000	-9.26709E-005	-1.68088E-001	3.32210E-001	3.57790E+000	9	...........
	11	0.16	3.18299E-001	-2.79155E-004	0.00000E+000	-8.88548E-005	-1.68088E-001	3.18376E-001	3.57790E+000	9	...........
	12	0.173333	3.05423E-001	-2.78649E-004	0.00000E+000	-8.51059E-005	-1.68088E-001	3.05499E-001	3.57790E+000	9	...........
	13	0.186667	2.93443E-001	-2.79131E-004	0.00000E+000	-8.19092E-005	-1.68088E-001	2.93516E-001	3.57790E+000	9	...........
	14	0.2	2.82276E-001	-2.79022E-004	0.00000E+000	-7.87612E-005	-1.68088E-001	2.82347E-001	3.57790E+000	9	...........
	15	0.213333	2.71847E-001	-2.79091E-004	0.00000E+000	-7.58699E-005	-1.68088E-001	2.71912E-001	3.57790E+000	9	...........
	16	0.226667	2.62097E-001	-2.78985E-004	0.00000E+000	-7.31212E-005	-1.68088E-001	2.62167E-001	3.57790E+000	9	...........
	17	0.24	2.52944E-001	-2.79745E-004	0.00000E+000	-7.07598E-005	-1.68088E-001	2.53012E-001	3.57790E+000	9	...........
	18	0.253333	2.44360E-001	-2.78382E-004	0.00000E+000	-6.80255E-005	-1.68088E-001	2.44415E-001	3.57790E+000	9	...........
	19	0.266667	2.36255E-001	-2.78451E-004	0.00000E+000	-6.57855E-005	-1.68088E-001	2.36311E-001	3.57790E+000	9	...........
	20	0.28	2.28594E-001	-2.79161E-004	0.00000E+000	-6.38147E-005	-1.68088E-001	2.28649E-001	3.57790E+000	9	...........
	21	0.293333	2.21370E-001	-2.78639E-004	0.00000E+000	-6.16823E-005	-1.68088E-001	2.21427E-001	3.57790E+000	9	...........
	22	0.306667	2.14507E-001	-2.79621E-004	0.00000E+000	-5.99807E-005	-1.68088E-001	2.14557E-001	3.57790E+000	9	...........
	23	0.32	2.08019E-001	-2.78567E-004	0.00000E+000	-5.79472E-005	-1.68088E-001	2.08063E-001	3.57790E+000	9	...........
	24	0.333333	2.01856E-001	-2.78768E-004	0.00000E+000	-5.62710E-005	-1.68088E-001	2.01902E-001	3.57790E+000	9	...........
	25	0.346667	1.95966E-001	-2.79385E-004	0.00000E+000	-5.47499E-005	-1.68088E-001	1.96012E-001	3.57790E+000	9	...........
	26	0.36	1.90339E-001	-2.79084E-004	0.00000E+000	-5.31205E-005	-1.68088E-001	1.90390E-001	3.57790E+000	9	...........
	27	0.373333	1.84930E-001	-2.78634E-004	0.00000E+000	-5.15279E-005	-1.68088E-001	1.84977E-001	3.57790E+000	9	...........
	28	0.386667	1.79794E-001	-2.79216E-004	0.00000E+000	-5.02013E-005	-1.68088E-001	1.79838E-001	3.57790E+000	9	...........
	29	0.4	1.74835E-001	-2.79188E-004	0.00000E+000	-4.88118E-005	-1.68088E-001	1.74882E-001	3.57790E+000	9	...........
	30	0.413333	1.70044E-001	-2.78972E-004	0.00000E+000	-4.74375E-005	-1.68088E-001	1.70084E-001	3.57790E+000	9	...........
	31	0.426667	1.65446E-001	-2.79997E-004	0.00000E+000	-4.63243E-005	-1.68088E-001	1.65483E-001	3.57790E+000	9	...........
	32	0.44	1.61009E-001	-2.78659E-004	0.00000E+000	-4.48667E-005	-1.68088E-001	1.61047E-001	3.57790E+000	9	...........
	33	0.453333	1.56711E-001	-2.79180E-004	0.00000E+000	-4.37507E-005	-1.68088E-001	1.56751E-001	3.57790E+000	9	...........
	34	0.466667	1.52508E-001	-2.78726E-004	0.00000E+000	-4.25078E-005	-1.68088E-001	1.52550E-001	3.57790E+000	9	...........
	35	0.48	1.48445E-001	-2.79017E-004	0.00000E+000	-4.14186E-005	-1.68088E-001	1.48485E-001	3.57790E+000	9	...........
	36	0.493333	1.44484E-001	-2.78600E-004	0.00000E+000	-4.02531E-005	-1.68088E-001	1.44515E-001	3.57790E+000	9	...........
	37	0.506667	1.40641E-001	-2.78843E-004	0.00000E+000	-3.92167E-005	-1.68088E-001	1.40676E-001	3.57790E+000	9	...........
	38	0.52	1.36896E-001	-2.78653E-004	0.00000E+000	-3.81464E-005	-1.68088E-001	1.36925E-001	3.57790E+000	9	...........
	39	0.533333	1.33255E-001	-2.77691E-004	0.00000E+000	-3.70039E-005	-1.68088E-001	1.33279E-001	3.57790E+000	9	...........
	40	0.546667	1.29649E-001	-2.79089E-004	0.00000E+000	-3.61834E-005	-1.68088E-001	1.29671E-001	3.57790E+000	9	...........
	41	0.56	1.26162E-001	-2.78071E-004	0.00000E+000	-3.50820E-005	-1.68088E-001	1.26192E-001	3.57790E+000	9	...........
	42	0.573333	1.22793E-001	-2.79174E-004	0.00000E+000	-3.42807E-005	-1.68088E-001	1.22821E-001	3.57790E+000	9	...........
	43	0.586667	1.19462E-001	-2.79035E-004	0.00000E+000	-3.33343E-005	-1.68088E-001	1.19493E-001	3.57790E+000	9	...........
	44	0.6	1.16154E-001	-2.78812E-004	0.00000E+000	-3.23851E-005	-1.68088E-001	1.16183E-001	3.57790E+000	9	...........
	45	0.613333	1.12961E-001	-2.79407E-004	0.00000E+000	-3.15621E-005	-1.68088E-001	1.12988E-001	3.57790E+000	9	...........
	46	0.626667	1.09832E-001	-2.78922E-004	0.00000E+000	-3.06346E-005	-1.68088E-001	1.09858E-001	3.57790E+000	9	...........
	47	0.64	1.06734E-001	-2.78923E-004	0.00000E+000	-2.97705E-005	-1.68088E-001	1.06758E-001	3.57790E+000	9	...........
	48	0.653333	1.03662E-001	-2.78862E-004	0.00000E+000	-2.89076E-005	-1.68088E-001	1.03685E-001	3.57790E+000	9	...........
	49	0.666667	1.00643E-001	-2.79274E-004	0.00000E+000	-2.81070E-005	-1.68088E-001	1.00667E-001	3.57790E+000	9	...........
	50	0.68	9.76954E-002	-2.79257E-004	0.00000E+000	-2.72822E-005	-1.68088E-001	9.77170E-002	3.57790E+000	9	...........
	51	0.693333	9.47529E-002	-2.78874E-004	0.00000E+000	-2.64241E-005	-1.68088E-001	9.47734E-002	3.57790E+000	9	...........
	52	0.706667	9.18903E-002	-2.78944E-004	0.00000E+000	-2.56322E-005	-1.68088E-001	9.19123E-002	3.57790E+000	9	...........
	53	0.72	8.91248E-002	-2.79232E-004	0.00000E+000	-2.48865E-005	-1.68088E-001	8.91503E-002	3.57790E+000	9	...........
	54	0.733333	8.63762E-002	-2.79588E-004	0.00000E+000	-2.41497E-005	-1.68088E-001	8.63922E-002	3.57790E+000	9	...........
	55	0.746667	8.36502E-002	-2.78646E-004	0.00000E+000	-2.33088E-005	-1.68088E-001	8.36650E-002	3.57790E+000	9	...........
	56	0.76	8.09789E-002	-2.78216E-004	0.00000E+000	-2.25297E-005	-1.68088E-001	8.09897E-002	3.57790E+000	9	...........
	57	0.773333	7.83540E-002	-2.79082E-004	0.00000E+000	-2.18672E-005	-1.68088E-001	7.83671E-002	3.57790E+000	9	...........
	58	0.786667	7.57162E-002	-2.78882E-004	0.00000E+000	-2.11159E-005	-1.68088E-001	7.57294E-002	3.57790E+000	9	...........
	59	0.8	7.31088E-002	-2.79129E-004	0.00000E+000	-2.04068E-005	-1.68088E-001	7.31164E-002	3.57790E+000	9	...........
	60	0.813333	7.05696E-002	-2.79461E-004	0.00000E+000	-1.97214E-005	-1.68088E-001	7.05781E-002	3.57790E+000	9	...........
	61	0.826667	6.80002E-002	-2.79300E-004	0.00000E+000	-1.89924E-005	-1.68088E-001	6.80096E-002	3.57790E+000	9	...........
	62	0.84	6.54895E-002	-2.79143E-004	0.00000E+000	-1.82809E-005	-1.68088E-001	6.54952E-002	3.57790E+000	9	...........
	63	0.853333	6.30232E-002	-2.79711E-004	0.00000E+000	-1.76282E-005	-1.68088E-001	6.30287E-002	3.57790E+000	9	...........
	64	0.866667	6.05858E-002	-2.79030E-004	0.00000E+000	-1.69053E-005	-1.68088E-001	6.05985E-002	3.57790E+000	9	...........
	65	0.88	5.81307E-002	-2.78917E-004	0.00000E+000	-1.62136E-005	-1.68088E-001	5.81391E-002	3.57790E+000	9	...........
	66	0.893333	5.57344E-002	-2.78390E-004	0.00000E+000	-1.55159E-005	-1.68088E-001	5.57405E-002	3.57790E+000	9	...........
	67	0.906667	5.33773E-002	-2.79509E-004	0.00000E+000	-1.49195E-005	-1.68088E-001	5.33866E-002	3.57790E+000	9	...........
	68	0.92	5.10647E-002	-2.79128E-004	0.00000E+000	-1.42536E-005	-1.68088E-001	5.10745E-002	3.57790E+000	9	...........
	69	0.933333	4.87350E-002	-2.78322E-004	0.00000E+000	-1.35640E-005	-1.68088E-001	4.87374E-002	3.57790E+000	9	...........
	70	0.946667	4.64288E-002	-2.78380E-004	0.00000E+000	-1.29248E-005	-1.68088E-001	4.64402E-002	3.57790E+000	9	...........
	71	0.96	4.41933E-002	-2.78326E-004	0.00000E+000	-1.23001E-005	-1.68088E-001	4.42019E-002	3.57812E+000	9	...........
	72	0.97333	4.19599E-002	-2.79599E-004	0.00000E+000	-1.17320E-005	-1.68088E-001	4.19693E-002	3.57880E+000	9	...........
	73	0.98667	3.96662E-002	-2.78984E-004	0.00000E+000	-1.10663E-005	-1.68088E-001	3.96735E-002	3.57880E+000	9	...........
	74	1	3.74374E-002	-2.78054E-004	0.00000E+000	-1.04096E-005	-1.68088E-001	3.74373E-002	3.57880E+000	9	...........
	75	1.01333	3.51957E-002	-2.79042E-004	0.00000E+000	-9.82105E-006	-1.68088E-001	3.51991E-002	3.57880E+000	9	...........
	76	1.02667	3.29972E-002	-2.78556E-004	0.00000E+000	-9.19157E-006	-1.68088E-001	3.30010E-002	3.57880E+000	9	...........
	77	1.04	3.07973E-002	-2.79048E-004	0.00000E+000	-8.59391E-006	-1.68088E-001	3.07962E-002	3.57880E+000	9	...........
	78	1.05333	2.86128E-002	-2.79123E-004	0.00000E+000	-7.98648E-006	-1.68088E-001	2.86097E-002	3.57880E+000	9	...........
	79	1.06667	2.65127E-002	-2.79416E-004	0.00000E+000	-7.40805E-006	-1.68088E-001	2.65101E-002	3.57880E+000	9	...........
	80	1.08	2.43621E-002	-2.78537E-004	0.00000E+000	-6.78577E-006	-1.68088E-001	2.43569E-002	3.57880E+000	9	...........
	81	1.09333	2.22661E-002	-2.79330E-004	0.00000E+000	-6.21960E-006	-1.68088E-001	2.22624E-002	3.57880E+000	9	...........
	82	1.10667	2.01531E-002	-2.79358E-004	0.00000E+000	-5.62994E-006	-1.68088E-001	2.01472E-002	3.57880E+000	9	...........
	83	1.12	1.80598E-002	-2.79302E-004	0.00000E+000	-5.04414E-006	-1.68088E-001	1.80525E-002	3.57880E+000	9	...........
	84	1.13333	1.59969E-002	-2.79052E-004	0.00000E+000	-4.46396E-006	-1.68088E-001	1.59871E-002	3.57880E+000	9	...........
	85	1.14667	1.39915E-002	-2.78667E-004	0.00000E+000	-3.89895E-006	-1.68088E-001	1.39799E-002	3.57880E+000	9	...........
	86	1.16	1.19405E-002	-2.78792E-004	0.00000E+000	-3.32891E-006	-1.68088E-001	1.19328E-002	3.57880E+000	9	...........
	87	1.17333	9.96970E-003	-2.78800E-004	0.00000E+000	-2.77955E-006	-1.68088E-001	9.95602E-003	3.57880E+000	9	...........
	88	1.18667	7.95453E-003	-2.79254E-004	0.00000E+000	-2.22134E-006	-1.68088E-001	7.93663E-003	3.57880E+000	9	...........
	89	1.2	5.97681E-003	-2.78800E-004	0.00000E+000	-1.66634E-006	-1.68088E-001	5.96108E-003	3.57880E+000	9	...........
	90	1.21333	4.04566E-003	-2.79288E-004	0.00000E+000	-1.12990E-006	-1.68088E-001	4.02946E-003	3.57880E+000	9	...........
	91	1.22667	2.09754E-003	-2.79686E-004	0.00000E+000	-5.86652E-007	-1.68088E-001	2.07967E-003	3.57880E+000	9	...........
	92	1.23667	3.99489E-004	-2.78369E-004	0.00000E+000	-1.11205E-007	-1.68088E-001	3.77653E-004	3.57880E+000	9	...........
STARTTIMEOFFSET	QUANT	630.9701	Start Time Offset (s)
