EXPLAIN
TAG	PWR800_DISCHARGE
TITLE	LABEL	PWR Cyclic Charge Discharge (Cell) - Discharge Step	Test &Identifier
DATE	LABEL	7-7-2017	Date
TIME	LABEL	16:11:54	Time
NOTES	NOTES	3	&Notes...
	supercap test cell
	2.8mg
	6M KOH
PSTAT	PSTAT	IFC5000-01520	Potentiostat
CAPACITY	QUANT	1.00000E-003	Capacity (A-hr)
CELLTYPE	SELECTOR	1	&Cell Type
WORKINGCONNECTION	SELECTOR	0	&Working Lead
MAXDISCHARGETIME	VARIABLEANDUNITS	1.00000E+002	s	1.00000E+002	second(s)	Max &Discharge Time
DISCHARGEMODE	MULTIPARAM	0	2.80000E-004	&Discharge Mode	Constant Current	Amp(s)
SAMPLETIME	QUANT	1.00000E-002	Sa&mple Period (s)
DISCHARGESTOPAT1	MULTIPARAM	3	0.00000E+000	Discharge Stop At &1	Voltage < Limit	V
DISCHARGESTOPAT2	MULTIPARAM	0	0.00000E+000	Discharge Stop At &2	None	N/A
AESBHCSELECTOR	TOGGLE	F	Save Both Half Cells
IRCOMP	TOGGLE	F	IR &Measure
EOC	QUANT	0	Open Circuit (V)
SEQUENCER	TOGGLE	TRUE	Run as Sequence
PSTATMODEL	IQUANT	53	Pstat Model
PSTATSECTION	LABEL	IFC5000-01520	Pstat Section
PSTATSERIALNO	LABEL	01520	Pstat Serial Number
CTRLMODE	IQUANT	0	Control Mode
ELECTROMETER	IQUANT	1	RE=0 or CS=1
IESTAB	IQUANT	0	I/E Stability
CASPEED	IQUANT	4	Control Amp Speed
CONVENTION	IQUANT	1	Current Convention
ICHRANGE	IQUANT	2	Ich Range
ICHRANGEMODE	TOGGLE	T	Ich Auto Range
ICHOFFSETENABLE	TOGGLE	F	Ich Offset Enable
ICHOFFSET	QUANT	0	Ich Offset (V)
ICHFILTER	IQUANT	1	Ich Filter
VCHRANGE	IQUANT	2	Vch Range
VCHRANGEMODE	TOGGLE	T	Vch Auto Range
VCHOFFSETENABLE	TOGGLE	F	Vch Offset Enable
VCHOFFSET	QUANT	0	Vch Offset (V)
VCHFILTER	IQUANT	1	Vch Filter
IERANGELOWERLIMIT	IQUANT	9	I/E Range Lower Limit
IERANGEMODE	TOGGLE	F	I/E AutoRange
IERANGE	IQUANT	9	I/E Range
ACHSELECT	IQUANT	1	Ach Select
ACHRANGE	IQUANT	2	Ach Range
ACHOFFSETENABLE	TOGGLE	F	Ach Offset Enable
ACHOFFSET	QUANT	0	Ach Offset (V)
ACHFILTER	IQUANT	1	Ach Filter
CABLEID	IQUANT	14	Cable ID
DCCALDATE	LABEL	5-7-2017	DC Calibration Date
ACCALDATE	LABEL	12/3/2015	AC Calibration Date
FRAMEWORKVERSION	QUANT	7.01	Framework Version
INSTRUMENTVERSION	LABEL	4.00	Instrument Version
CURVE	TABLE	60
	Pt	T	Vf	Im	Vu	Pwr	Sig	Ach	Temp	IERange	Over
	#	s	V	A	V	W	V	V	deg C	#	bits
	0	0.013333	5.24179E-001	-2.78840E-004	0.00000E+000	-1.46162E-004	-1.68088E-001	5.24431E-001	3.57830E+000	9	...........
	1	0.026667	4.90863E-001	-2.78703E-004	0.00000E+000	-1.36805E-004	-1.68088E-001	4.91075E-001	3.57830E+000	9	...........
	2	0.04	4.60501E-001	-2.77614E-004	0.00000E+000	-1.27842E-004	-1.68088E-001	4.60612E-001	3.57830E+000	9	...........
	3	0.053333	4.32067E-001	-2.79618E-004	0.00000E+000	-1.20814E-004	-1.68088E-001	4.32170E-001	3.57830E+000	9	...........
	4	0.066667	4.05562E-001	-2.79306E-004	0.00000E+000	-1.13276E-004	-1.68088E-001	4.05657E-001	3.57830E+000	9	...........
	5	0.08	3.80819E-001	-2.78227E-004	0.00000E+000	-1.05954E-004	-1.68088E-001	3.80906E-001	3.57830E+000	9	...........
	6	0.093333	3.57702E-001	-2.79834E-004	0.00000E+000	-1.00097E-004	-1.68088E-001	3.57790E-001	3.57830E+000	9	...........
	7	0.106667	3.36178E-001	-2.79323E-004	0.00000E+000	-9.39022E-005	-1.68088E-001	3.36258E-001	3.57830E+000	9	...........
	8	0.12	3.16151E-001	-2.78170E-004	0.00000E+000	-8.79436E-005	-1.68088E-001	3.16230E-001	3.57830E+000	9	...........
	9	0.133333	2.97518E-001	-2.79233E-004	0.00000E+000	-8.30770E-005	-1.68088E-001	2.97594E-001	3.57830E+000	9	...........
	10	0.146667	2.80201E-001	-2.78674E-004	0.00000E+000	-7.80848E-005	-1.68088E-001	2.80269E-001	3.57830E+000	9	...........
	11	0.16	2.64125E-001	-2.77942E-004	0.00000E+000	-7.34114E-005	-1.68088E-001	2.64189E-001	3.57830E+000	9	...........
	12	0.173333	2.49210E-001	-2.79799E-004	0.00000E+000	-6.97287E-005	-1.68088E-001	2.49266E-001	3.57830E+000	9	...........
	13	0.186667	2.35374E-001	-2.79292E-004	0.00000E+000	-6.57381E-005	-1.68088E-001	2.35426E-001	3.57830E+000	9	...........
	14	0.2	2.22501E-001	-2.77898E-004	0.00000E+000	-6.18326E-005	-1.68088E-001	2.22551E-001	3.57830E+000	9	...........
	15	0.213333	2.10538E-001	-2.77849E-004	0.00000E+000	-5.84978E-005	-1.68088E-001	2.10585E-001	3.57830E+000	9	...........
	16	0.226667	1.99384E-001	-2.79115E-004	0.00000E+000	-5.56509E-005	-1.68088E-001	1.99431E-001	3.57830E+000	9	...........
	17	0.24	1.89003E-001	-2.78184E-004	0.00000E+000	-5.25776E-005	-1.68088E-001	1.89052E-001	3.57830E+000	9	...........
	18	0.253333	1.79336E-001	-2.79490E-004	0.00000E+000	-5.01225E-005	-1.68088E-001	1.79383E-001	3.57830E+000	9	...........
	19	0.266667	1.70299E-001	-2.78559E-004	0.00000E+000	-4.74383E-005	-1.68088E-001	1.70348E-001	3.57830E+000	9	...........
	20	0.28	1.61862E-001	-2.79204E-004	0.00000E+000	-4.51924E-005	-1.68088E-001	1.61902E-001	3.57830E+000	9	...........
	21	0.293333	1.53910E-001	-2.79588E-004	0.00000E+000	-4.30314E-005	-1.68088E-001	1.53953E-001	3.57830E+000	9	...........
	22	0.306667	1.46400E-001	-2.77224E-004	0.00000E+000	-4.05855E-005	-1.68088E-001	1.46434E-001	3.57830E+000	9	...........
	23	0.32	1.39308E-001	-2.79711E-004	0.00000E+000	-3.89660E-005	-1.68088E-001	1.39344E-001	3.57830E+000	9	...........
	24	0.333333	1.32593E-001	-2.78287E-004	0.00000E+000	-3.68990E-005	-1.68088E-001	1.32623E-001	3.57830E+000	9	...........
	25	0.346667	1.26253E-001	-2.78517E-004	0.00000E+000	-3.51636E-005	-1.68088E-001	1.26284E-001	3.57830E+000	9	...........
	26	0.36	1.20222E-001	-2.79252E-004	0.00000E+000	-3.35722E-005	-1.68088E-001	1.20257E-001	3.57830E+000	9	...........
	27	0.373333	1.14492E-001	-2.78007E-004	0.00000E+000	-3.18296E-005	-1.68088E-001	1.14522E-001	3.57830E+000	9	...........
	28	0.386667	1.09020E-001	-2.78882E-004	0.00000E+000	-3.04037E-005	-1.68088E-001	1.09047E-001	3.57830E+000	9	...........
	29	0.4	1.03765E-001	-2.78593E-004	0.00000E+000	-2.89083E-005	-1.68088E-001	1.03791E-001	3.57830E+000	9	...........
	30	0.413333	9.87201E-002	-2.78404E-004	0.00000E+000	-2.74841E-005	-1.68088E-001	9.87462E-002	3.57830E+000	9	...........
	31	0.426667	9.38537E-002	-2.79726E-004	0.00000E+000	-2.62533E-005	-1.68088E-001	9.38807E-002	3.57830E+000	9	...........
	32	0.44	8.91600E-002	-2.79449E-004	0.00000E+000	-2.49157E-005	-1.68088E-001	8.91856E-002	3.57830E+000	9	...........
	33	0.453333	8.46126E-002	-2.79949E-004	0.00000E+000	-2.36872E-005	-1.68088E-001	8.46390E-002	3.57830E+000	9	...........
	34	0.466667	8.02744E-002	-2.78510E-004	0.00000E+000	-2.23573E-005	-1.68088E-001	8.02938E-002	3.57830E+000	9	...........
	35	0.48	7.60737E-002	-2.80154E-004	0.00000E+000	-2.13124E-005	-1.68088E-001	7.60937E-002	3.57830E+000	9	...........
	36	0.493333	7.19960E-002	-2.79475E-004	0.00000E+000	-2.01211E-005	-1.68088E-001	7.20136E-002	3.57830E+000	9	...........
	37	0.506667	6.80283E-002	-2.77869E-004	0.00000E+000	-1.89029E-005	-1.68088E-001	6.80377E-002	3.57830E+000	9	...........
	38	0.52	6.41893E-002	-2.78699E-004	0.00000E+000	-1.78895E-005	-1.68088E-001	6.41988E-002	3.57830E+000	9	...........
	39	0.533333	6.04966E-002	-2.78648E-004	0.00000E+000	-1.68572E-005	-1.68088E-001	6.05048E-002	3.57830E+000	9	...........
	40	0.546667	5.68626E-002	-2.78848E-004	0.00000E+000	-1.58560E-005	-1.68088E-001	5.68686E-002	3.57830E+000	9	...........
	41	0.56	5.32910E-002	-2.78439E-004	0.00000E+000	-1.48383E-005	-1.68088E-001	5.32992E-002	3.57830E+000	9	...........
	42	0.573333	4.97962E-002	-2.78241E-004	0.00000E+000	-1.38554E-005	-1.68088E-001	4.97990E-002	3.57830E+000	9	...........
	43	0.586667	4.64105E-002	-2.79038E-004	0.00000E+000	-1.29503E-005	-1.68088E-001	4.64207E-002	3.57830E+000	9	...........
	44	0.6	4.30751E-002	-2.79540E-004	0.00000E+000	-1.20412E-005	-1.68088E-001	4.30837E-002	3.57830E+000	9	...........
	45	0.613333	3.98113E-002	-2.78554E-004	0.00000E+000	-1.10896E-005	-1.68088E-001	3.98211E-002	3.57830E+000	9	...........
	46	0.626667	3.65693E-002	-2.79694E-004	0.00000E+000	-1.02282E-005	-1.68088E-001	3.65744E-002	3.57830E+000	9	...........
	47	0.64	3.34411E-002	-2.79012E-004	0.00000E+000	-9.33047E-006	-1.68088E-001	3.34458E-002	3.57830E+000	9	...........
	48	0.653333	3.03690E-002	-2.78799E-004	0.00000E+000	-8.46685E-006	-1.68088E-001	3.03743E-002	3.57830E+000	9	...........
	49	0.666667	2.72942E-002	-2.77775E-004	0.00000E+000	-7.58163E-006	-1.68088E-001	2.72957E-002	3.57830E+000	9	...........
	50	0.68	2.43079E-002	-2.78251E-004	0.00000E+000	-6.76370E-006	-1.68088E-001	2.43058E-002	3.57830E+000	9	...........
	51	0.693333	2.13878E-002	-2.78780E-004	0.00000E+000	-5.96249E-006	-1.68088E-001	2.13836E-002	3.57830E+000	9	...........
	52	0.706667	1.85268E-002	-2.78566E-004	0.00000E+000	-5.16092E-006	-1.68088E-001	1.85231E-002	3.57830E+000	9	...........
	53	0.72	1.57245E-002	-2.77717E-004	0.00000E+000	-4.36698E-006	-1.68088E-001	1.57223E-002	3.57830E+000	9	...........
	54	0.733333	1.29666E-002	-2.77550E-004	0.00000E+000	-3.59888E-006	-1.68088E-001	1.29628E-002	3.57830E+000	9	...........
	55	0.746667	1.02760E-002	-2.79607E-004	0.00000E+000	-2.87323E-006	-1.68088E-001	1.02623E-002	3.57830E+000	9	...........
	56	0.76	7.61891E-003	-2.78820E-004	0.00000E+000	-2.12430E-006	-1.68088E-001	7.61126E-003	3.57830E+000	9	...........
	57	0.773333	4.99289E-003	-2.78723E-004	0.00000E+000	-1.39163E-006	-1.68088E-001	4.97810E-003	3.57830E+000	9	...........
	58	0.786667	2.38199E-003	-2.78947E-004	0.00000E+000	-6.64449E-007	-1.68088E-001	2.36542E-003	3.57830E+000	9	...........
	59	0.793333	4.06213E-004	-2.78825E-004	0.00000E+000	-1.13262E-007	-1.68088E-001	3.89082E-004	3.57830E+000	9	...........
STARTTIMEOFFSET	QUANT	1599.675	Start Time Offset (s)
