EXPLAIN
TAG	PWR800_DISCHARGE
TITLE	LABEL	PWR Cyclic Charge Discharge (Cell) - Discharge Step	Test &Identifier
DATE	LABEL	7-7-2017	Date
TIME	LABEL	16:00:01	Time
NOTES	NOTES	3	&Notes...
	supercap test cell
	2.8mg
	6M KOH
PSTAT	PSTAT	IFC5000-01520	Potentiostat
CAPACITY	QUANT	1.00000E-003	Capacity (A-hr)
CELLTYPE	SELECTOR	1	&Cell Type
WORKINGCONNECTION	SELECTOR	0	&Working Lead
MAXDISCHARGETIME	VARIABLEANDUNITS	1.00000E+002	s	1.00000E+002	second(s)	Max &Discharge Time
DISCHARGEMODE	MULTIPARAM	0	2.80000E-004	&Discharge Mode	Constant Current	Amp(s)
SAMPLETIME	QUANT	1.00000E-002	Sa&mple Period (s)
DISCHARGESTOPAT1	MULTIPARAM	3	0.00000E+000	Discharge Stop At &1	Voltage < Limit	V
DISCHARGESTOPAT2	MULTIPARAM	0	0.00000E+000	Discharge Stop At &2	None	N/A
AESBHCSELECTOR	TOGGLE	F	Save Both Half Cells
IRCOMP	TOGGLE	F	IR &Measure
EOC	QUANT	0	Open Circuit (V)
SEQUENCER	TOGGLE	TRUE	Run as Sequence
PSTATMODEL	IQUANT	53	Pstat Model
PSTATSECTION	LABEL	IFC5000-01520	Pstat Section
PSTATSERIALNO	LABEL	01520	Pstat Serial Number
CTRLMODE	IQUANT	0	Control Mode
ELECTROMETER	IQUANT	1	RE=0 or CS=1
IESTAB	IQUANT	0	I/E Stability
CASPEED	IQUANT	4	Control Amp Speed
CONVENTION	IQUANT	1	Current Convention
ICHRANGE	IQUANT	2	Ich Range
ICHRANGEMODE	TOGGLE	T	Ich Auto Range
ICHOFFSETENABLE	TOGGLE	F	Ich Offset Enable
ICHOFFSET	QUANT	0	Ich Offset (V)
ICHFILTER	IQUANT	1	Ich Filter
VCHRANGE	IQUANT	2	Vch Range
VCHRANGEMODE	TOGGLE	T	Vch Auto Range
VCHOFFSETENABLE	TOGGLE	F	Vch Offset Enable
VCHOFFSET	QUANT	0	Vch Offset (V)
VCHFILTER	IQUANT	1	Vch Filter
IERANGELOWERLIMIT	IQUANT	9	I/E Range Lower Limit
IERANGEMODE	TOGGLE	F	I/E AutoRange
IERANGE	IQUANT	9	I/E Range
ACHSELECT	IQUANT	1	Ach Select
ACHRANGE	IQUANT	2	Ach Range
ACHOFFSETENABLE	TOGGLE	F	Ach Offset Enable
ACHOFFSET	QUANT	0	Ach Offset (V)
ACHFILTER	IQUANT	1	Ach Filter
CABLEID	IQUANT	14	Cable ID
DCCALDATE	LABEL	5-7-2017	DC Calibration Date
ACCALDATE	LABEL	12/3/2015	AC Calibration Date
FRAMEWORKVERSION	QUANT	7.01	Framework Version
INSTRUMENTVERSION	LABEL	4.00	Instrument Version
CURVE	TABLE	70
	Pt	T	Vf	Im	Vu	Pwr	Sig	Ach	Temp	IERange	Over
	#	s	V	A	V	W	V	V	deg C	#	bits
	0	0.013333	5.22973E-001	-2.78829E-004	0.00000E+000	-1.45820E-004	-1.68088E-001	5.23201E-001	3.57750E+000	9	...........
	1	0.026667	4.90871E-001	-2.78602E-004	0.00000E+000	-1.36758E-004	-1.68088E-001	4.91066E-001	3.57750E+000	9	...........
	2	0.04	4.61847E-001	-2.79282E-004	0.00000E+000	-1.28986E-004	-1.68088E-001	4.61952E-001	3.57750E+000	9	...........
	3	0.053333	4.34839E-001	-2.78994E-004	0.00000E+000	-1.21317E-004	-1.68088E-001	4.34943E-001	3.57750E+000	9	...........
	4	0.066667	4.09801E-001	-2.78258E-004	0.00000E+000	-1.14031E-004	-1.68088E-001	4.09899E-001	3.57750E+000	9	...........
	5	0.08	3.86520E-001	-2.78886E-004	0.00000E+000	-1.07795E-004	-1.68088E-001	3.86606E-001	3.57750E+000	9	...........
	6	0.093333	3.64879E-001	-2.77633E-004	0.00000E+000	-1.01302E-004	-1.68088E-001	3.64968E-001	3.57750E+000	9	...........
	7	0.106667	3.44770E-001	-2.79522E-004	0.00000E+000	-9.63709E-005	-1.68088E-001	3.44856E-001	3.57750E+000	9	...........
	8	0.12	3.26081E-001	-2.79020E-004	0.00000E+000	-9.09831E-005	-1.68088E-001	3.26162E-001	3.57750E+000	9	...........
	9	0.133333	3.08716E-001	-2.78787E-004	0.00000E+000	-8.60661E-005	-1.68088E-001	3.08796E-001	3.57750E+000	9	...........
	10	0.146667	2.92615E-001	-2.79180E-004	0.00000E+000	-8.16922E-005	-1.68088E-001	2.92686E-001	3.57750E+000	9	...........
	11	0.16	2.77676E-001	-2.78880E-004	0.00000E+000	-7.74383E-005	-1.68088E-001	2.77746E-001	3.57750E+000	9	...........
	12	0.173333	2.63790E-001	-2.78062E-004	0.00000E+000	-7.33500E-005	-1.68088E-001	2.63858E-001	3.57750E+000	9	...........
	13	0.186667	2.50886E-001	-2.79340E-004	0.00000E+000	-7.00823E-005	-1.68088E-001	2.50949E-001	3.57750E+000	9	...........
	14	0.2	2.38878E-001	-2.78066E-004	0.00000E+000	-6.64240E-005	-1.68088E-001	2.38937E-001	3.57750E+000	9	...........
	15	0.213333	2.27720E-001	-2.78915E-004	0.00000E+000	-6.35143E-005	-1.68088E-001	2.27770E-001	3.57750E+000	9	...........
	16	0.226667	2.17325E-001	-2.78699E-004	0.00000E+000	-6.05682E-005	-1.68088E-001	2.17381E-001	3.57750E+000	9	...........
	17	0.24	2.07632E-001	-2.78164E-004	0.00000E+000	-5.77558E-005	-1.68088E-001	2.07684E-001	3.57750E+000	9	...........
	18	0.253333	1.98556E-001	-2.77878E-004	0.00000E+000	-5.51743E-005	-1.68088E-001	1.98604E-001	3.57750E+000	9	...........
	19	0.266667	1.90081E-001	-2.78230E-004	0.00000E+000	-5.28863E-005	-1.68088E-001	1.90128E-001	3.57750E+000	9	...........
	20	0.28	1.82055E-001	-2.78744E-004	0.00000E+000	-5.07468E-005	-1.68088E-001	1.82097E-001	3.57750E+000	9	...........
	21	0.293333	1.74514E-001	-2.78683E-004	0.00000E+000	-4.86342E-005	-1.68088E-001	1.74559E-001	3.57750E+000	9	...........
	22	0.306667	1.67348E-001	-2.79603E-004	0.00000E+000	-4.67911E-005	-1.68088E-001	1.67389E-001	3.57750E+000	9	...........
	23	0.32	1.60565E-001	-2.78401E-004	0.00000E+000	-4.47013E-005	-1.68088E-001	1.60604E-001	3.57750E+000	9	...........
	24	0.333333	1.54169E-001	-2.78568E-004	0.00000E+000	-4.29465E-005	-1.68088E-001	1.54210E-001	3.57750E+000	9	...........
	25	0.346667	1.48117E-001	-2.78909E-004	0.00000E+000	-4.13113E-005	-1.68088E-001	1.48153E-001	3.57750E+000	9	...........
	26	0.36	1.42339E-001	-2.79439E-004	0.00000E+000	-3.97750E-005	-1.68088E-001	1.42375E-001	3.57750E+000	9	...........
	27	0.373333	1.36808E-001	-2.78387E-004	0.00000E+000	-3.80856E-005	-1.68088E-001	1.36845E-001	3.57750E+000	9	...........
	28	0.386667	1.31513E-001	-2.78761E-004	0.00000E+000	-3.66607E-005	-1.68088E-001	1.31547E-001	3.57750E+000	9	...........
	29	0.4	1.26432E-001	-2.79542E-004	0.00000E+000	-3.53430E-005	-1.68088E-001	1.26462E-001	3.57750E+000	9	...........
	30	0.413333	1.21557E-001	-2.79160E-004	0.00000E+000	-3.39340E-005	-1.68088E-001	1.21592E-001	3.57750E+000	9	...........
	31	0.426667	1.16857E-001	-2.78911E-004	0.00000E+000	-3.25929E-005	-1.68088E-001	1.16891E-001	3.57750E+000	9	...........
	32	0.44	1.12334E-001	-2.79340E-004	0.00000E+000	-3.13795E-005	-1.68088E-001	1.12370E-001	3.57750E+000	9	...........
	33	0.453333	1.08006E-001	-2.79360E-004	0.00000E+000	-3.01727E-005	-1.68088E-001	1.08034E-001	3.57750E+000	9	...........
	34	0.466667	1.03757E-001	-2.78289E-004	0.00000E+000	-2.88744E-005	-1.68088E-001	1.03783E-001	3.57750E+000	9	...........
	35	0.48	9.96535E-002	-2.78668E-004	0.00000E+000	-2.77702E-005	-1.68088E-001	9.96770E-002	3.57750E+000	9	...........
	36	0.493333	9.56842E-002	-2.78129E-004	0.00000E+000	-2.66125E-005	-1.68088E-001	9.57056E-002	3.57750E+000	9	...........
	37	0.506667	9.17988E-002	-2.78891E-004	0.00000E+000	-2.56018E-005	-1.68088E-001	9.18207E-002	3.57750E+000	9	...........
	38	0.52	8.80069E-002	-2.78915E-004	0.00000E+000	-2.45464E-005	-1.68088E-001	8.80275E-002	3.57750E+000	9	...........
	39	0.533333	8.43324E-002	-2.78881E-004	0.00000E+000	-2.35187E-005	-1.68088E-001	8.43537E-002	3.57750E+000	9	...........
	40	0.546667	8.07511E-002	-2.78263E-004	0.00000E+000	-2.24701E-005	-1.68088E-001	8.07746E-002	3.57750E+000	9	...........
	41	0.56	7.73093E-002	-2.79495E-004	0.00000E+000	-2.16076E-005	-1.68088E-001	7.73224E-002	3.57750E+000	9	...........
	42	0.573333	7.39464E-002	-2.78102E-004	0.00000E+000	-2.05646E-005	-1.68088E-001	7.39598E-002	3.57750E+000	9	...........
	43	0.586667	7.06314E-002	-2.79215E-004	0.00000E+000	-1.97213E-005	-1.68088E-001	7.06544E-002	3.57750E+000	9	...........
	44	0.6	6.73396E-002	-2.78990E-004	0.00000E+000	-1.87870E-005	-1.68088E-001	6.73553E-002	3.57750E+000	9	...........
	45	0.613333	6.40786E-002	-2.78896E-004	0.00000E+000	-1.78713E-005	-1.68088E-001	6.40910E-002	3.57875E+000	9	...........
	46	0.626667	6.09253E-002	-2.79850E-004	0.00000E+000	-1.70499E-005	-1.68088E-001	6.09416E-002	3.58000E+000	9	...........
	47	0.64	5.78338E-002	-2.79140E-004	0.00000E+000	-1.61437E-005	-1.68088E-001	5.78522E-002	3.58000E+000	9	...........
	48	0.653333	5.48001E-002	-2.80047E-004	0.00000E+000	-1.53466E-005	-1.68088E-001	5.48118E-002	3.58000E+000	9	...........
	49	0.666667	5.18266E-002	-2.79438E-004	0.00000E+000	-1.44823E-005	-1.68088E-001	5.18432E-002	3.58000E+000	9	...........
	50	0.68	4.89200E-002	-2.79513E-004	0.00000E+000	-1.36738E-005	-1.68088E-001	4.89235E-002	3.58000E+000	9	...........
	51	0.693333	4.60916E-002	-2.79267E-004	0.00000E+000	-1.28718E-005	-1.68088E-001	4.60995E-002	3.58000E+000	9	...........
	52	0.706667	4.32682E-002	-2.78545E-004	0.00000E+000	-1.20521E-005	-1.68088E-001	4.32774E-002	3.58000E+000	9	...........
	53	0.72	4.04757E-002	-2.79951E-004	0.00000E+000	-1.13312E-005	-1.68088E-001	4.04785E-002	3.58000E+000	9	...........
	54	0.733333	3.76938E-002	-2.79180E-004	0.00000E+000	-1.05234E-005	-1.68088E-001	3.76984E-002	3.58000E+000	9	...........
	55	0.746667	3.49950E-002	-2.78158E-004	0.00000E+000	-9.73416E-006	-1.68088E-001	3.49963E-002	3.58000E+000	9	...........
	56	0.76	3.23562E-002	-2.78919E-004	0.00000E+000	-9.02476E-006	-1.68088E-001	3.23563E-002	3.58000E+000	9	...........
	57	0.773333	2.97240E-002	-2.78929E-004	0.00000E+000	-8.29090E-006	-1.68088E-001	2.97294E-002	3.58000E+000	9	...........
	58	0.786667	2.70892E-002	-2.78902E-004	0.00000E+000	-7.55524E-006	-1.68088E-001	2.70866E-002	3.58000E+000	9	...........
	59	0.8	2.45026E-002	-2.79143E-004	0.00000E+000	-6.83972E-006	-1.68088E-001	2.44995E-002	3.58000E+000	9	...........
	60	0.813333	2.19603E-002	-2.78845E-004	0.00000E+000	-6.12352E-006	-1.68088E-001	2.19558E-002	3.58000E+000	9	...........
	61	0.826667	1.94371E-002	-2.78368E-004	0.00000E+000	-5.41065E-006	-1.68088E-001	1.94324E-002	3.58000E+000	9	...........
	62	0.84	1.69808E-002	-2.77701E-004	0.00000E+000	-4.71559E-006	-1.68088E-001	1.69702E-002	3.58000E+000	9	...........
	63	0.853333	1.45140E-002	-2.78546E-004	0.00000E+000	-4.04281E-006	-1.68088E-001	1.45043E-002	3.58000E+000	9	...........
	64	0.866667	1.20978E-002	-2.78446E-004	0.00000E+000	-3.36858E-006	-1.68088E-001	1.20866E-002	3.58000E+000	9	...........
	65	0.88	9.70088E-003	-2.77786E-004	0.00000E+000	-2.69477E-006	-1.68088E-001	9.69413E-003	3.58000E+000	9	...........
	66	0.893333	7.34983E-003	-2.79906E-004	0.00000E+000	-2.05726E-006	-1.68088E-001	7.33396E-003	3.58000E+000	9	...........
	67	0.906667	4.98226E-003	-2.78710E-004	0.00000E+000	-1.38861E-006	-1.68088E-001	4.96227E-003	3.58000E+000	9	...........
	68	0.92	2.64451E-003	-2.79795E-004	0.00000E+000	-7.39919E-007	-1.68088E-001	2.63056E-003	3.58000E+000	9	...........
	69	0.93	6.19832E-004	-2.78709E-004	0.00000E+000	-1.72753E-007	-1.68088E-001	6.03134E-004	3.58000E+000	9	...........
STARTTIMEOFFSET	QUANT	1110.091	Start Time Offset (s)
