EXPLAIN
TAG	PWR800_DISCHARGE
TITLE	LABEL	PWR Cyclic Charge Discharge (Cell) - Discharge Step	Test &Identifier
DATE	LABEL	7-7-2017	Date
TIME	LABEL	15:56:01	Time
NOTES	NOTES	3	&Notes...
	supercap test cell
	2.8mg
	6M KOH
PSTAT	PSTAT	IFC5000-01520	Potentiostat
CAPACITY	QUANT	1.00000E-003	Capacity (A-hr)
CELLTYPE	SELECTOR	1	&Cell Type
WORKINGCONNECTION	SELECTOR	0	&Working Lead
MAXDISCHARGETIME	VARIABLEANDUNITS	1.00000E+002	s	1.00000E+002	second(s)	Max &Discharge Time
DISCHARGEMODE	MULTIPARAM	0	2.80000E-004	&Discharge Mode	Constant Current	Amp(s)
SAMPLETIME	QUANT	1.00000E-002	Sa&mple Period (s)
DISCHARGESTOPAT1	MULTIPARAM	3	0.00000E+000	Discharge Stop At &1	Voltage < Limit	V
DISCHARGESTOPAT2	MULTIPARAM	0	0.00000E+000	Discharge Stop At &2	None	N/A
AESBHCSELECTOR	TOGGLE	F	Save Both Half Cells
IRCOMP	TOGGLE	F	IR &Measure
EOC	QUANT	0	Open Circuit (V)
SEQUENCER	TOGGLE	TRUE	Run as Sequence
PSTATMODEL	IQUANT	53	Pstat Model
PSTATSECTION	LABEL	IFC5000-01520	Pstat Section
PSTATSERIALNO	LABEL	01520	Pstat Serial Number
CTRLMODE	IQUANT	0	Control Mode
ELECTROMETER	IQUANT	1	RE=0 or CS=1
IESTAB	IQUANT	0	I/E Stability
CASPEED	IQUANT	4	Control Amp Speed
CONVENTION	IQUANT	1	Current Convention
ICHRANGE	IQUANT	2	Ich Range
ICHRANGEMODE	TOGGLE	T	Ich Auto Range
ICHOFFSETENABLE	TOGGLE	F	Ich Offset Enable
ICHOFFSET	QUANT	0	Ich Offset (V)
ICHFILTER	IQUANT	1	Ich Filter
VCHRANGE	IQUANT	2	Vch Range
VCHRANGEMODE	TOGGLE	T	Vch Auto Range
VCHOFFSETENABLE	TOGGLE	F	Vch Offset Enable
VCHOFFSET	QUANT	0	Vch Offset (V)
VCHFILTER	IQUANT	1	Vch Filter
IERANGELOWERLIMIT	IQUANT	9	I/E Range Lower Limit
IERANGEMODE	TOGGLE	F	I/E AutoRange
IERANGE	IQUANT	9	I/E Range
ACHSELECT	IQUANT	1	Ach Select
ACHRANGE	IQUANT	2	Ach Range
ACHOFFSETENABLE	TOGGLE	F	Ach Offset Enable
ACHOFFSET	QUANT	0	Ach Offset (V)
ACHFILTER	IQUANT	1	Ach Filter
CABLEID	IQUANT	14	Cable ID
DCCALDATE	LABEL	5-7-2017	DC Calibration Date
ACCALDATE	LABEL	12/3/2015	AC Calibration Date
FRAMEWORKVERSION	QUANT	7.01	Framework Version
INSTRUMENTVERSION	LABEL	4.00	Instrument Version
CURVE	TABLE	77
	Pt	T	Vf	Im	Vu	Pwr	Sig	Ach	Temp	IERange	Over
	#	s	V	A	V	W	V	V	deg C	#	bits
	0	0.013333	5.33762E-001	-2.79196E-004	0.00000E+000	-1.49024E-004	-1.68088E-001	5.34000E-001	3.57770E+000	9	...........
	1	0.026667	5.02152E-001	-2.77508E-004	0.00000E+000	-1.39351E-004	-1.68088E-001	5.02386E-001	3.57770E+000	9	...........
	2	0.04	4.73602E-001	-2.78319E-004	0.00000E+000	-1.31812E-004	-1.68088E-001	4.73750E-001	3.57770E+000	9	...........
	3	0.053333	4.47130E-001	-2.79285E-004	0.00000E+000	-1.24877E-004	-1.68088E-001	4.47236E-001	3.57770E+000	9	...........
	4	0.066667	4.22503E-001	-2.78559E-004	0.00000E+000	-1.17692E-004	-1.68088E-001	4.22605E-001	3.57770E+000	9	...........
	5	0.08	3.99641E-001	-2.77742E-004	0.00000E+000	-1.10997E-004	-1.68088E-001	3.99731E-001	3.57770E+000	9	...........
	6	0.093333	3.78386E-001	-2.78796E-004	0.00000E+000	-1.05492E-004	-1.68088E-001	3.78477E-001	3.57770E+000	9	...........
	7	0.106667	3.58649E-001	-2.78175E-004	0.00000E+000	-9.97671E-005	-1.68088E-001	3.58724E-001	3.57770E+000	9	...........
	8	0.12	3.40294E-001	-2.78404E-004	0.00000E+000	-9.47392E-005	-1.68088E-001	3.40372E-001	3.57770E+000	9	...........
	9	0.133333	3.23218E-001	-2.79538E-004	0.00000E+000	-9.03516E-005	-1.68088E-001	3.23287E-001	3.57770E+000	9	...........
	10	0.146667	3.07377E-001	-2.79105E-004	0.00000E+000	-8.57907E-005	-1.68088E-001	3.07446E-001	3.57770E+000	9	...........
	11	0.16	2.92649E-001	-2.78482E-004	0.00000E+000	-8.14976E-005	-1.68088E-001	2.92721E-001	3.57770E+000	9	...........
	12	0.173333	2.78970E-001	-2.79317E-004	0.00000E+000	-7.79210E-005	-1.68088E-001	2.79038E-001	3.57770E+000	9	...........
	13	0.186667	2.66245E-001	-2.79916E-004	0.00000E+000	-7.45263E-005	-1.68088E-001	2.66313E-001	3.57770E+000	9	...........
	14	0.2	2.54401E-001	-2.78728E-004	0.00000E+000	-7.09086E-005	-1.68088E-001	2.54460E-001	3.57770E+000	9	...........
	15	0.213333	2.43387E-001	-2.79679E-004	0.00000E+000	-6.80703E-005	-1.68088E-001	2.43438E-001	3.57770E+000	9	...........
	16	0.226667	2.33098E-001	-2.79119E-004	0.00000E+000	-6.50620E-005	-1.68088E-001	2.33150E-001	3.57770E+000	9	...........
	17	0.24	2.23483E-001	-2.79219E-004	0.00000E+000	-6.24007E-005	-1.68088E-001	2.23535E-001	3.57770E+000	9	...........
	18	0.253333	2.14470E-001	-2.77659E-004	0.00000E+000	-5.95494E-005	-1.68088E-001	2.14516E-001	3.57770E+000	9	...........
	19	0.266667	2.05990E-001	-2.79486E-004	0.00000E+000	-5.75713E-005	-1.68088E-001	2.06030E-001	3.57770E+000	9	...........
	20	0.28	1.98034E-001	-2.79621E-004	0.00000E+000	-5.53744E-005	-1.68088E-001	1.98080E-001	3.57770E+000	9	...........
	21	0.293333	1.90510E-001	-2.78648E-004	0.00000E+000	-5.30852E-005	-1.68088E-001	1.90551E-001	3.57770E+000	9	...........
	22	0.306667	1.83357E-001	-2.78923E-004	0.00000E+000	-5.11425E-005	-1.68088E-001	1.83400E-001	3.57770E+000	9	...........
	23	0.32	1.76616E-001	-2.78307E-004	0.00000E+000	-4.91534E-005	-1.68088E-001	1.76658E-001	3.57770E+000	9	...........
	24	0.333333	1.70231E-001	-2.77406E-004	0.00000E+000	-4.72231E-005	-1.68088E-001	1.70272E-001	3.57770E+000	9	...........
	25	0.346667	1.64195E-001	-2.79404E-004	0.00000E+000	-4.58768E-005	-1.68088E-001	1.64233E-001	3.57770E+000	9	...........
	26	0.36	1.58400E-001	-2.77658E-004	0.00000E+000	-4.39810E-005	-1.68088E-001	1.58434E-001	3.57770E+000	9	...........
	27	0.373333	1.52881E-001	-2.78725E-004	0.00000E+000	-4.26118E-005	-1.68088E-001	1.52915E-001	3.57770E+000	9	...........
	28	0.386667	1.47591E-001	-2.79270E-004	0.00000E+000	-4.12176E-005	-1.68088E-001	1.47628E-001	3.57770E+000	9	...........
	29	0.4	1.42522E-001	-2.78919E-004	0.00000E+000	-3.97522E-005	-1.68088E-001	1.42553E-001	3.57770E+000	9	...........
	30	0.413333	1.37709E-001	-2.78889E-004	0.00000E+000	-3.84055E-005	-1.68088E-001	1.37743E-001	3.57770E+000	9	...........
	31	0.426667	1.33020E-001	-2.78579E-004	0.00000E+000	-3.70566E-005	-1.68088E-001	1.33048E-001	3.57770E+000	9	...........
	32	0.44	1.28460E-001	-2.79297E-004	0.00000E+000	-3.58785E-005	-1.68088E-001	1.28488E-001	3.57770E+000	9	...........
	33	0.453333	1.24076E-001	-2.79107E-004	0.00000E+000	-3.46306E-005	-1.68088E-001	1.24108E-001	3.57770E+000	9	...........
	34	0.466667	1.19816E-001	-2.78964E-004	0.00000E+000	-3.34244E-005	-1.68088E-001	1.19851E-001	3.57770E+000	9	...........
	35	0.48	1.15671E-001	-2.79849E-004	0.00000E+000	-3.23705E-005	-1.68088E-001	1.15700E-001	3.57770E+000	9	...........
	36	0.493333	1.11677E-001	-2.79020E-004	0.00000E+000	-3.11602E-005	-1.68088E-001	1.11701E-001	3.57770E+000	9	...........
	37	0.506667	1.07813E-001	-2.78629E-004	0.00000E+000	-3.00397E-005	-1.68088E-001	1.07843E-001	3.57770E+000	9	...........
	38	0.52	1.04024E-001	-2.78541E-004	0.00000E+000	-2.89748E-005	-1.68088E-001	1.04050E-001	3.57770E+000	9	...........
	39	0.533333	1.00327E-001	-2.78853E-004	0.00000E+000	-2.79765E-005	-1.68088E-001	1.00351E-001	3.57770E+000	9	...........
	40	0.546667	9.67289E-002	-2.78721E-004	0.00000E+000	-2.69603E-005	-1.68088E-001	9.67545E-002	3.57770E+000	9	...........
	41	0.56	9.32437E-002	-2.79102E-004	0.00000E+000	-2.60245E-005	-1.68088E-001	9.32599E-002	3.57770E+000	9	...........
	42	0.573333	8.98644E-002	-2.79322E-004	0.00000E+000	-2.51011E-005	-1.68088E-001	8.98790E-002	3.57760E+000	9	...........
	43	0.586667	8.65160E-002	-2.78825E-004	0.00000E+000	-2.41228E-005	-1.68088E-001	8.65339E-002	3.57760E+000	9	...........
	44	0.6	8.32477E-002	-2.79348E-004	0.00000E+000	-2.32551E-005	-1.68088E-001	8.32640E-002	3.57760E+000	9	...........
	45	0.613333	8.00196E-002	-2.78084E-004	0.00000E+000	-2.22522E-005	-1.68088E-001	8.00340E-002	3.57760E+000	9	...........
	46	0.626667	7.68266E-002	-2.79546E-004	0.00000E+000	-2.14766E-005	-1.68088E-001	7.68378E-002	3.57760E+000	9	...........
	47	0.64	7.36892E-002	-2.78957E-004	0.00000E+000	-2.05561E-005	-1.68088E-001	7.37004E-002	3.57760E+000	9	...........
	48	0.653333	7.06419E-002	-2.78869E-004	0.00000E+000	-1.96998E-005	-1.68088E-001	7.06535E-002	3.57760E+000	9	...........
	49	0.666667	6.76224E-002	-2.78793E-004	0.00000E+000	-1.88526E-005	-1.68088E-001	6.76364E-002	3.57760E+000	9	...........
	50	0.68	6.46650E-002	-2.79057E-004	0.00000E+000	-1.80452E-005	-1.68088E-001	6.46788E-002	3.57760E+000	9	...........
	51	0.693333	6.17302E-002	-2.79442E-004	0.00000E+000	-1.72500E-005	-1.68088E-001	6.17407E-002	3.57760E+000	9	...........
	52	0.706667	5.88360E-002	-2.79031E-004	0.00000E+000	-1.64171E-005	-1.68088E-001	5.88503E-002	3.57760E+000	9	...........
	53	0.72	5.59699E-002	-2.79600E-004	0.00000E+000	-1.56492E-005	-1.68088E-001	5.59819E-002	3.57760E+000	9	...........
	54	0.733333	5.31620E-002	-2.79536E-004	0.00000E+000	-1.48607E-005	-1.68088E-001	5.31694E-002	3.57760E+000	9	...........
	55	0.746667	5.03864E-002	-2.78808E-004	0.00000E+000	-1.40481E-005	-1.68088E-001	5.03953E-002	3.57760E+000	9	...........
	56	0.76	4.77336E-002	-2.80134E-004	0.00000E+000	-1.33718E-005	-1.68088E-001	4.77417E-002	3.57760E+000	9	...........
	57	0.773333	4.50968E-002	-2.78734E-004	0.00000E+000	-1.25700E-005	-1.68088E-001	4.51080E-002	3.57760E+000	9	...........
	58	0.786667	4.24476E-002	-2.78169E-004	0.00000E+000	-1.18076E-005	-1.68088E-001	4.24503E-002	3.57760E+000	9	...........
	59	0.8	3.98114E-002	-2.78725E-004	0.00000E+000	-1.10964E-005	-1.68088E-001	3.98152E-002	3.57760E+000	9	...........
	60	0.813333	3.72554E-002	-2.79099E-004	0.00000E+000	-1.03979E-005	-1.68088E-001	3.72635E-002	3.57760E+000	9	...........
	61	0.826667	3.47124E-002	-2.79203E-004	0.00000E+000	-9.69180E-006	-1.68088E-001	3.47148E-002	3.57760E+000	9	...........
	62	0.84	3.22135E-002	-2.78468E-004	0.00000E+000	-8.97041E-006	-1.68088E-001	3.22148E-002	3.57760E+000	9	...........
	63	0.853333	2.97152E-002	-2.78344E-004	0.00000E+000	-8.27104E-006	-1.68088E-001	2.97144E-002	3.57760E+000	9	...........
	64	0.866667	2.72713E-002	-2.78266E-004	0.00000E+000	-7.58870E-006	-1.68088E-001	2.72674E-002	3.57760E+000	9	...........
	65	0.88	2.48020E-002	-2.77411E-004	0.00000E+000	-6.88035E-006	-1.68088E-001	2.48017E-002	3.57760E+000	9	...........
	66	0.893333	2.24081E-002	-2.79624E-004	0.00000E+000	-6.26585E-006	-1.68088E-001	2.24047E-002	3.57760E+000	9	...........
	67	0.906667	2.00223E-002	-2.78289E-004	0.00000E+000	-5.57199E-006	-1.68088E-001	2.00134E-002	3.57760E+000	9	...........
	68	0.92	1.76892E-002	-2.78652E-004	0.00000E+000	-4.92914E-006	-1.68088E-001	1.76754E-002	3.57760E+000	9	...........
	69	0.933333	1.53908E-002	-2.78026E-004	0.00000E+000	-4.27904E-006	-1.68088E-001	1.53831E-002	3.57760E+000	9	...........
	70	0.946667	1.31070E-002	-2.78582E-004	0.00000E+000	-3.65138E-006	-1.68088E-001	1.30924E-002	3.57760E+000	9	...........
	71	0.96	1.08346E-002	-2.79056E-004	0.00000E+000	-3.02348E-006	-1.68088E-001	1.08256E-002	3.57760E+000	9	...........
	72	0.97333	8.57618E-003	-2.78361E-004	0.00000E+000	-2.38728E-006	-1.68088E-001	8.56047E-003	3.57760E+000	9	...........
	73	0.98667	6.34635E-003	-2.79001E-004	0.00000E+000	-1.77064E-006	-1.68088E-001	6.32984E-003	3.57760E+000	9	...........
	74	1	4.12668E-003	-2.78529E-004	0.00000E+000	-1.14940E-006	-1.68088E-001	4.11034E-003	3.57760E+000	9	...........
	75	1.01333	1.89176E-003	-2.78085E-004	0.00000E+000	-5.26071E-007	-1.68088E-001	1.87357E-003	3.57760E+000	9	...........
	76	1.02	2.31671E-004	-2.78750E-004	0.00000E+000	-6.45783E-008	-1.68088E-001	2.13515E-004	3.57760E+000	9	...........
STARTTIMEOFFSET	QUANT	938.6586	Start Time Offset (s)
