EXPLAIN
TAG	PWR800_DISCHARGE
TITLE	LABEL	PWR Cyclic Charge Discharge (Cell) - Discharge Step	Test &Identifier
DATE	LABEL	7-7-2017	Date
TIME	LABEL	16:10:26	Time
NOTES	NOTES	3	&Notes...
	supercap test cell
	2.8mg
	6M KOH
PSTAT	PSTAT	IFC5000-01520	Potentiostat
CAPACITY	QUANT	1.00000E-003	Capacity (A-hr)
CELLTYPE	SELECTOR	1	&Cell Type
WORKINGCONNECTION	SELECTOR	0	&Working Lead
MAXDISCHARGETIME	VARIABLEANDUNITS	1.00000E+002	s	1.00000E+002	second(s)	Max &Discharge Time
DISCHARGEMODE	MULTIPARAM	0	2.80000E-004	&Discharge Mode	Constant Current	Amp(s)
SAMPLETIME	QUANT	1.00000E-002	Sa&mple Period (s)
DISCHARGESTOPAT1	MULTIPARAM	3	0.00000E+000	Discharge Stop At &1	Voltage < Limit	V
DISCHARGESTOPAT2	MULTIPARAM	0	0.00000E+000	Discharge Stop At &2	None	N/A
AESBHCSELECTOR	TOGGLE	F	Save Both Half Cells
IRCOMP	TOGGLE	F	IR &Measure
EOC	QUANT	0	Open Circuit (V)
SEQUENCER	TOGGLE	TRUE	Run as Sequence
PSTATMODEL	IQUANT	53	Pstat Model
PSTATSECTION	LABEL	IFC5000-01520	Pstat Section
PSTATSERIALNO	LABEL	01520	Pstat Serial Number
CTRLMODE	IQUANT	0	Control Mode
ELECTROMETER	IQUANT	1	RE=0 or CS=1
IESTAB	IQUANT	0	I/E Stability
CASPEED	IQUANT	4	Control Amp Speed
CONVENTION	IQUANT	1	Current Convention
ICHRANGE	IQUANT	2	Ich Range
ICHRANGEMODE	TOGGLE	T	Ich Auto Range
ICHOFFSETENABLE	TOGGLE	F	Ich Offset Enable
ICHOFFSET	QUANT	0	Ich Offset (V)
ICHFILTER	IQUANT	1	Ich Filter
VCHRANGE	IQUANT	2	Vch Range
VCHRANGEMODE	TOGGLE	T	Vch Auto Range
VCHOFFSETENABLE	TOGGLE	F	Vch Offset Enable
VCHOFFSET	QUANT	0	Vch Offset (V)
VCHFILTER	IQUANT	1	Vch Filter
IERANGELOWERLIMIT	IQUANT	9	I/E Range Lower Limit
IERANGEMODE	TOGGLE	F	I/E AutoRange
IERANGE	IQUANT	9	I/E Range
ACHSELECT	IQUANT	1	Ach Select
ACHRANGE	IQUANT	2	Ach Range
ACHOFFSETENABLE	TOGGLE	F	Ach Offset Enable
ACHOFFSET	QUANT	0	Ach Offset (V)
ACHFILTER	IQUANT	1	Ach Filter
CABLEID	IQUANT	14	Cable ID
DCCALDATE	LABEL	5-7-2017	DC Calibration Date
ACCALDATE	LABEL	12/3/2015	AC Calibration Date
FRAMEWORKVERSION	QUANT	7.01	Framework Version
INSTRUMENTVERSION	LABEL	4.00	Instrument Version
CURVE	TABLE	60
	Pt	T	Vf	Im	Vu	Pwr	Sig	Ach	Temp	IERange	Over
	#	s	V	A	V	W	V	V	deg C	#	bits
	0	0.013333	5.16762E-001	-2.78771E-004	0.00000E+000	-1.44058E-004	-1.68088E-001	5.16979E-001	3.58160E+000	9	...........
	1	0.026667	4.83768E-001	-2.78058E-004	0.00000E+000	-1.34516E-004	-1.68088E-001	4.83902E-001	3.58160E+000	9	...........
	2	0.04	4.53604E-001	-2.78871E-004	0.00000E+000	-1.26497E-004	-1.68088E-001	4.53707E-001	3.58160E+000	9	...........
	3	0.053333	4.25530E-001	-2.78627E-004	0.00000E+000	-1.18564E-004	-1.68088E-001	4.25625E-001	3.58160E+000	9	...........
	4	0.066667	3.99383E-001	-2.79401E-004	0.00000E+000	-1.11588E-004	-1.68088E-001	3.99476E-001	3.58160E+000	9	...........
	5	0.08	3.75014E-001	-2.77739E-004	0.00000E+000	-1.04156E-004	-1.68088E-001	3.75095E-001	3.58160E+000	9	...........
	6	0.093333	3.52337E-001	-2.78559E-004	0.00000E+000	-9.81467E-005	-1.68088E-001	3.52417E-001	3.58160E+000	9	...........
	7	0.106667	3.31230E-001	-2.77983E-004	0.00000E+000	-9.20762E-005	-1.68088E-001	3.31304E-001	3.58160E+000	9	...........
	8	0.12	3.11606E-001	-2.79032E-004	0.00000E+000	-8.69482E-005	-1.68088E-001	3.11678E-001	3.58160E+000	9	...........
	9	0.133333	2.93386E-001	-2.79599E-004	0.00000E+000	-8.20304E-005	-1.68088E-001	2.93455E-001	3.58160E+000	9	...........
	10	0.146667	2.76440E-001	-2.79282E-004	0.00000E+000	-7.72047E-005	-1.68088E-001	2.76509E-001	3.58160E+000	9	...........
	11	0.16	2.60732E-001	-2.79099E-004	0.00000E+000	-7.27700E-005	-1.68088E-001	2.60799E-001	3.58160E+000	9	...........
	12	0.173333	2.46183E-001	-2.78932E-004	0.00000E+000	-6.86683E-005	-1.68088E-001	2.46236E-001	3.58160E+000	9	...........
	13	0.186667	2.32671E-001	-2.79255E-004	0.00000E+000	-6.49747E-005	-1.68088E-001	2.32729E-001	3.58160E+000	9	...........
	14	0.2	2.20137E-001	-2.78735E-004	0.00000E+000	-6.13599E-005	-1.68088E-001	2.20189E-001	3.58160E+000	9	...........
	15	0.213333	2.08490E-001	-2.78047E-004	0.00000E+000	-5.79698E-005	-1.68088E-001	2.08544E-001	3.57730E+000	9	...........
	16	0.226667	1.97651E-001	-2.79285E-004	0.00000E+000	-5.52010E-005	-1.68088E-001	1.97705E-001	3.57730E+000	9	...........
	17	0.24	1.87502E-001	-2.78209E-004	0.00000E+000	-5.21648E-005	-1.68088E-001	1.87550E-001	3.57730E+000	9	...........
	18	0.253333	1.78037E-001	-2.79744E-004	0.00000E+000	-4.98047E-005	-1.68088E-001	1.78085E-001	3.57730E+000	9	...........
	19	0.266667	1.69187E-001	-2.79956E-004	0.00000E+000	-4.73649E-005	-1.68088E-001	1.69238E-001	3.57730E+000	9	...........
	20	0.28	1.60842E-001	-2.78818E-004	0.00000E+000	-4.48456E-005	-1.68088E-001	1.60883E-001	3.57730E+000	9	...........
	21	0.293333	1.53025E-001	-2.78842E-004	0.00000E+000	-4.26696E-005	-1.68088E-001	1.53063E-001	3.57730E+000	9	...........
	22	0.306667	1.45689E-001	-2.77790E-004	0.00000E+000	-4.04711E-005	-1.68088E-001	1.45724E-001	3.57730E+000	9	...........
	23	0.32	1.38780E-001	-2.78793E-004	0.00000E+000	-3.86909E-005	-1.68088E-001	1.38813E-001	3.57730E+000	9	...........
	24	0.333333	1.32217E-001	-2.79891E-004	0.00000E+000	-3.70063E-005	-1.68088E-001	1.32248E-001	3.57730E+000	9	...........
	25	0.346667	1.25958E-001	-2.79288E-004	0.00000E+000	-3.51785E-005	-1.68088E-001	1.25989E-001	3.57730E+000	9	...........
	26	0.36	1.20014E-001	-2.79299E-004	0.00000E+000	-3.35198E-005	-1.68088E-001	1.20045E-001	3.57730E+000	9	...........
	27	0.373333	1.14322E-001	-2.79445E-004	0.00000E+000	-3.19467E-005	-1.68088E-001	1.14358E-001	3.57730E+000	9	...........
	28	0.386667	1.08913E-001	-2.79003E-004	0.00000E+000	-3.03872E-005	-1.68088E-001	1.08944E-001	3.57730E+000	9	...........
	29	0.4	1.03732E-001	-2.79127E-004	0.00000E+000	-2.89545E-005	-1.68088E-001	1.03755E-001	3.57730E+000	9	...........
	30	0.413333	9.87466E-002	-2.79596E-004	0.00000E+000	-2.76092E-005	-1.68088E-001	9.87779E-002	3.57730E+000	9	...........
	31	0.426667	9.40174E-002	-2.77988E-004	0.00000E+000	-2.61357E-005	-1.68088E-001	9.40419E-002	3.57730E+000	9	...........
	32	0.44	8.94577E-002	-2.78851E-004	0.00000E+000	-2.49454E-005	-1.68088E-001	8.94858E-002	3.57730E+000	9	...........
	33	0.453333	8.50266E-002	-2.78900E-004	0.00000E+000	-2.37139E-005	-1.68088E-001	8.50505E-002	3.57730E+000	9	...........
	34	0.466667	8.07188E-002	-2.78477E-004	0.00000E+000	-2.24783E-005	-1.68088E-001	8.07440E-002	3.57730E+000	9	...........
	35	0.48	7.65549E-002	-2.79176E-004	0.00000E+000	-2.13723E-005	-1.68088E-001	7.65736E-002	3.57730E+000	9	...........
	36	0.493333	7.25401E-002	-2.79548E-004	0.00000E+000	-2.02784E-005	-1.68088E-001	7.25582E-002	3.57730E+000	9	...........
	37	0.506667	6.85942E-002	-2.79427E-004	0.00000E+000	-1.91671E-005	-1.68088E-001	6.86093E-002	3.57730E+000	9	...........
	38	0.52	6.48156E-002	-2.77277E-004	0.00000E+000	-1.79719E-005	-1.68088E-001	6.48351E-002	3.57730E+000	9	...........
	39	0.533333	6.11397E-002	-2.79077E-004	0.00000E+000	-1.70627E-005	-1.68088E-001	6.11553E-002	3.57730E+000	9	...........
	40	0.546667	5.75356E-002	-2.79296E-004	0.00000E+000	-1.60695E-005	-1.68088E-001	5.75493E-002	3.57730E+000	9	...........
	41	0.56	5.40040E-002	-2.78805E-004	0.00000E+000	-1.50566E-005	-1.68088E-001	5.40202E-002	3.57730E+000	9	...........
	42	0.573333	5.05774E-002	-2.80352E-004	0.00000E+000	-1.41795E-005	-1.68088E-001	5.05894E-002	3.57730E+000	9	...........
	43	0.586667	4.72463E-002	-2.78994E-004	0.00000E+000	-1.31814E-005	-1.68088E-001	4.72510E-002	3.57730E+000	9	...........
	44	0.6	4.39693E-002	-2.79869E-004	0.00000E+000	-1.23056E-005	-1.68088E-001	4.39746E-002	3.57730E+000	9	...........
	45	0.613333	4.07538E-002	-2.78954E-004	0.00000E+000	-1.13685E-005	-1.68088E-001	4.07620E-002	3.57730E+000	9	...........
	46	0.626667	3.76113E-002	-2.78663E-004	0.00000E+000	-1.04809E-005	-1.68088E-001	3.76199E-002	3.57730E+000	9	...........
	47	0.64	3.45099E-002	-2.78719E-004	0.00000E+000	-9.61856E-006	-1.68088E-001	3.45157E-002	3.57730E+000	9	...........
	48	0.653333	3.14619E-002	-2.78197E-004	0.00000E+000	-8.75261E-006	-1.68088E-001	3.14687E-002	3.57730E+000	9	...........
	49	0.666667	2.85074E-002	-2.79060E-004	0.00000E+000	-7.95530E-006	-1.68088E-001	2.85067E-002	3.57730E+000	9	...........
	50	0.68	2.55798E-002	-2.79093E-004	0.00000E+000	-7.13912E-006	-1.68088E-001	2.55805E-002	3.57730E+000	9	...........
	51	0.693333	2.26720E-002	-2.79236E-004	0.00000E+000	-6.33086E-006	-1.68088E-001	2.26718E-002	3.57730E+000	9	...........
	52	0.706667	1.98228E-002	-2.79755E-004	0.00000E+000	-5.54554E-006	-1.68088E-001	1.98166E-002	3.57730E+000	9	...........
	53	0.72	1.69953E-002	-2.79484E-004	0.00000E+000	-4.74993E-006	-1.68088E-001	1.69904E-002	3.57730E+000	9	...........
	54	0.733333	1.42304E-002	-2.79408E-004	0.00000E+000	-3.97611E-006	-1.68088E-001	1.42232E-002	3.57730E+000	9	...........
	55	0.746667	1.15138E-002	-2.78419E-004	0.00000E+000	-3.20566E-006	-1.68088E-001	1.15054E-002	3.57730E+000	9	...........
	56	0.76	8.82774E-003	-2.78235E-004	0.00000E+000	-2.45619E-006	-1.68088E-001	8.81682E-003	3.57730E+000	9	...........
	57	0.773333	6.22136E-003	-2.78718E-004	0.00000E+000	-1.73400E-006	-1.68088E-001	6.20920E-003	3.57730E+000	9	...........
	58	0.786667	3.62605E-003	-2.78358E-004	0.00000E+000	-1.00934E-006	-1.68088E-001	3.60914E-003	3.57730E+000	9	...........
	59	0.8	1.03061E-003	-2.79450E-004	0.00000E+000	-2.88005E-007	-1.68088E-001	1.01651E-003	3.57730E+000	9	...........
STARTTIMEOFFSET	QUANT	1540.723	Start Time Offset (s)
