EXPLAIN
TAG	PWR800_DISCHARGE
TITLE	LABEL	PWR Cyclic Charge Discharge (Cell) - Discharge Step	Test &Identifier
DATE	LABEL	7-7-2017	Date
TIME	LABEL	16:05:43	Time
NOTES	NOTES	3	&Notes...
	supercap test cell
	2.8mg
	6M KOH
PSTAT	PSTAT	IFC5000-01520	Potentiostat
CAPACITY	QUANT	1.00000E-003	Capacity (A-hr)
CELLTYPE	SELECTOR	1	&Cell Type
WORKINGCONNECTION	SELECTOR	0	&Working Lead
MAXDISCHARGETIME	VARIABLEANDUNITS	1.00000E+002	s	1.00000E+002	second(s)	Max &Discharge Time
DISCHARGEMODE	MULTIPARAM	0	2.80000E-004	&Discharge Mode	Constant Current	Amp(s)
SAMPLETIME	QUANT	1.00000E-002	Sa&mple Period (s)
DISCHARGESTOPAT1	MULTIPARAM	3	0.00000E+000	Discharge Stop At &1	Voltage < Limit	V
DISCHARGESTOPAT2	MULTIPARAM	0	0.00000E+000	Discharge Stop At &2	None	N/A
AESBHCSELECTOR	TOGGLE	F	Save Both Half Cells
IRCOMP	TOGGLE	F	IR &Measure
EOC	QUANT	0	Open Circuit (V)
SEQUENCER	TOGGLE	TRUE	Run as Sequence
PSTATMODEL	IQUANT	53	Pstat Model
PSTATSECTION	LABEL	IFC5000-01520	Pstat Section
PSTATSERIALNO	LABEL	01520	Pstat Serial Number
CTRLMODE	IQUANT	0	Control Mode
ELECTROMETER	IQUANT	1	RE=0 or CS=1
IESTAB	IQUANT	0	I/E Stability
CASPEED	IQUANT	4	Control Amp Speed
CONVENTION	IQUANT	1	Current Convention
ICHRANGE	IQUANT	2	Ich Range
ICHRANGEMODE	TOGGLE	T	Ich Auto Range
ICHOFFSETENABLE	TOGGLE	F	Ich Offset Enable
ICHOFFSET	QUANT	0	Ich Offset (V)
ICHFILTER	IQUANT	1	Ich Filter
VCHRANGE	IQUANT	2	Vch Range
VCHRANGEMODE	TOGGLE	T	Vch Auto Range
VCHOFFSETENABLE	TOGGLE	F	Vch Offset Enable
VCHOFFSET	QUANT	0	Vch Offset (V)
VCHFILTER	IQUANT	1	Vch Filter
IERANGELOWERLIMIT	IQUANT	9	I/E Range Lower Limit
IERANGEMODE	TOGGLE	F	I/E AutoRange
IERANGE	IQUANT	9	I/E Range
ACHSELECT	IQUANT	1	Ach Select
ACHRANGE	IQUANT	2	Ach Range
ACHOFFSETENABLE	TOGGLE	F	Ach Offset Enable
ACHOFFSET	QUANT	0	Ach Offset (V)
ACHFILTER	IQUANT	1	Ach Filter
CABLEID	IQUANT	14	Cable ID
DCCALDATE	LABEL	5-7-2017	DC Calibration Date
ACCALDATE	LABEL	12/3/2015	AC Calibration Date
FRAMEWORKVERSION	QUANT	7.01	Framework Version
INSTRUMENTVERSION	LABEL	4.00	Instrument Version
CURVE	TABLE	65
	Pt	T	Vf	Im	Vu	Pwr	Sig	Ach	Temp	IERange	Over
	#	s	V	A	V	W	V	V	deg C	#	bits
	0	0.013333	5.26582E-001	-2.79661E-004	0.00000E+000	-1.47264E-004	-1.68088E-001	5.26816E-001	3.57850E+000	9	...........
	1	0.026667	4.93775E-001	-2.79420E-004	0.00000E+000	-1.37971E-004	-1.68088E-001	4.94011E-001	3.57850E+000	9	...........
	2	0.04	4.64029E-001	-2.78538E-004	0.00000E+000	-1.29250E-004	-1.68088E-001	4.64141E-001	3.57850E+000	9	...........
	3	0.053333	4.36175E-001	-2.77801E-004	0.00000E+000	-1.21170E-004	-1.68088E-001	4.36282E-001	3.57850E+000	9	...........
	4	0.066667	4.10230E-001	-2.78333E-004	0.00000E+000	-1.14181E-004	-1.68088E-001	4.10334E-001	3.57850E+000	9	...........
	5	0.08	3.86027E-001	-2.79900E-004	0.00000E+000	-1.08049E-004	-1.68088E-001	3.86119E-001	3.57850E+000	9	...........
	6	0.093333	3.63494E-001	-2.78715E-004	0.00000E+000	-1.01311E-004	-1.68088E-001	3.63578E-001	3.57850E+000	9	...........
	7	0.106667	3.42505E-001	-2.79899E-004	0.00000E+000	-9.58668E-005	-1.68088E-001	3.42581E-001	3.57850E+000	9	...........
	8	0.12	3.22973E-001	-2.78489E-004	0.00000E+000	-8.99445E-005	-1.68088E-001	3.23047E-001	3.57843E+000	9	...........
	9	0.133333	3.04823E-001	-2.78542E-004	0.00000E+000	-8.49059E-005	-1.68088E-001	3.04895E-001	3.57790E+000	9	...........
	10	0.146667	2.87986E-001	-2.78329E-004	0.00000E+000	-8.01549E-005	-1.68088E-001	2.88057E-001	3.57790E+000	9	...........
	11	0.16	2.72331E-001	-2.78753E-004	0.00000E+000	-7.59130E-005	-1.68088E-001	2.72396E-001	3.57790E+000	9	...........
	12	0.173333	2.57785E-001	-2.78158E-004	0.00000E+000	-7.17050E-005	-1.68088E-001	2.57851E-001	3.57790E+000	9	...........
	13	0.186667	2.44285E-001	-2.77018E-004	0.00000E+000	-6.76715E-005	-1.68088E-001	2.44341E-001	3.57790E+000	9	...........
	14	0.2	2.31735E-001	-2.78833E-004	0.00000E+000	-6.46156E-005	-1.68088E-001	2.31795E-001	3.57790E+000	9	...........
	15	0.213333	2.20039E-001	-2.79333E-004	0.00000E+000	-6.14642E-005	-1.68088E-001	2.20098E-001	3.57790E+000	9	...........
	16	0.226667	2.09166E-001	-2.78134E-004	0.00000E+000	-5.81761E-005	-1.68088E-001	2.09216E-001	3.57790E+000	9	...........
	17	0.24	1.99012E-001	-2.78933E-004	0.00000E+000	-5.55110E-005	-1.68088E-001	1.99065E-001	3.57790E+000	9	...........
	18	0.253333	1.89523E-001	-2.79319E-004	0.00000E+000	-5.29374E-005	-1.68088E-001	1.89569E-001	3.57790E+000	9	...........
	19	0.266667	1.80587E-001	-2.78219E-004	0.00000E+000	-5.02425E-005	-1.68088E-001	1.80637E-001	3.57790E+000	9	...........
	20	0.28	1.72254E-001	-2.78204E-004	0.00000E+000	-4.79217E-005	-1.68088E-001	1.72295E-001	3.57790E+000	9	...........
	21	0.293333	1.64444E-001	-2.79950E-004	0.00000E+000	-4.60362E-005	-1.68088E-001	1.64483E-001	3.57790E+000	9	...........
	22	0.306667	1.57077E-001	-2.78747E-004	0.00000E+000	-4.37847E-005	-1.68088E-001	1.57119E-001	3.57790E+000	9	...........
	23	0.32	1.50084E-001	-2.78175E-004	0.00000E+000	-4.17496E-005	-1.68088E-001	1.50121E-001	3.57790E+000	9	...........
	24	0.333333	1.43483E-001	-2.78331E-004	0.00000E+000	-3.99358E-005	-1.68088E-001	1.43518E-001	3.57790E+000	9	...........
	25	0.346667	1.37177E-001	-2.78944E-004	0.00000E+000	-3.82645E-005	-1.68088E-001	1.37214E-001	3.57790E+000	9	...........
	26	0.36	1.31205E-001	-2.78927E-004	0.00000E+000	-3.65965E-005	-1.68088E-001	1.31238E-001	3.57790E+000	9	...........
	27	0.373333	1.25492E-001	-2.78694E-004	0.00000E+000	-3.49739E-005	-1.68088E-001	1.25525E-001	3.57790E+000	9	...........
	28	0.386667	1.20036E-001	-2.79246E-004	0.00000E+000	-3.35194E-005	-1.68088E-001	1.20067E-001	3.57790E+000	9	...........
	29	0.4	1.14793E-001	-2.78868E-004	0.00000E+000	-3.20120E-005	-1.68088E-001	1.14821E-001	3.57790E+000	9	...........
	30	0.413333	1.09756E-001	-2.79548E-004	0.00000E+000	-3.06820E-005	-1.68088E-001	1.09783E-001	3.57790E+000	9	...........
	31	0.426667	1.04945E-001	-2.79518E-004	0.00000E+000	-2.93339E-005	-1.68088E-001	1.04972E-001	3.57790E+000	9	...........
	32	0.44	1.00298E-001	-2.79099E-004	0.00000E+000	-2.79932E-005	-1.68088E-001	1.00324E-001	3.57790E+000	9	...........
	33	0.453333	9.58178E-002	-2.78096E-004	0.00000E+000	-2.66465E-005	-1.68088E-001	9.58410E-002	3.57790E+000	9	...........
	34	0.466667	9.15046E-002	-2.79664E-004	0.00000E+000	-2.55905E-005	-1.68088E-001	9.15260E-002	3.57790E+000	9	...........
	35	0.48	8.73457E-002	-2.78424E-004	0.00000E+000	-2.43191E-005	-1.68088E-001	8.73684E-002	3.57790E+000	9	...........
	36	0.493333	8.33075E-002	-2.78778E-004	0.00000E+000	-2.32243E-005	-1.68088E-001	8.33311E-002	3.57790E+000	9	...........
	37	0.506667	7.93443E-002	-2.78300E-004	0.00000E+000	-2.20815E-005	-1.68088E-001	7.93626E-002	3.57790E+000	9	...........
	38	0.52	7.54823E-002	-2.79590E-004	0.00000E+000	-2.11041E-005	-1.68088E-001	7.55024E-002	3.57790E+000	9	...........
	39	0.533333	7.17024E-002	-2.79987E-004	0.00000E+000	-2.00757E-005	-1.68088E-001	7.17195E-002	3.57790E+000	9	...........
	40	0.546667	6.80327E-002	-2.79104E-004	0.00000E+000	-1.89882E-005	-1.68088E-001	6.80500E-002	3.57790E+000	9	...........
	41	0.56	6.44805E-002	-2.78458E-004	0.00000E+000	-1.79551E-005	-1.68088E-001	6.45018E-002	3.57790E+000	9	...........
	42	0.573333	6.10269E-002	-2.78612E-004	0.00000E+000	-1.70029E-005	-1.68088E-001	6.10444E-002	3.57790E+000	9	...........
	43	0.586667	5.76274E-002	-2.78423E-004	0.00000E+000	-1.60448E-005	-1.68088E-001	5.76407E-002	3.57790E+000	9	...........
	44	0.6	5.43392E-002	-2.79836E-004	0.00000E+000	-1.52060E-005	-1.68088E-001	5.43563E-002	3.57790E+000	9	...........
	45	0.613333	5.11288E-002	-2.79020E-004	0.00000E+000	-1.42659E-005	-1.68088E-001	5.11414E-002	3.57790E+000	9	...........
	46	0.626667	4.79816E-002	-2.80095E-004	0.00000E+000	-1.34394E-005	-1.68088E-001	4.79931E-002	3.57790E+000	9	...........
	47	0.64	4.49004E-002	-2.79879E-004	0.00000E+000	-1.25667E-005	-1.68088E-001	4.49127E-002	3.57790E+000	9	...........
	48	0.653333	4.18518E-002	-2.78427E-004	0.00000E+000	-1.16527E-005	-1.68088E-001	4.18629E-002	3.57790E+000	9	...........
	49	0.666667	3.88375E-002	-2.77625E-004	0.00000E+000	-1.07823E-005	-1.68088E-001	3.88475E-002	3.57790E+000	9	...........
	50	0.68	3.58422E-002	-2.79633E-004	0.00000E+000	-1.00227E-005	-1.68088E-001	3.58461E-002	3.57790E+000	9	...........
	51	0.693333	3.29075E-002	-2.78404E-004	0.00000E+000	-9.16157E-006	-1.68088E-001	3.29118E-002	3.57790E+000	9	...........
	52	0.706667	3.00850E-002	-2.78815E-004	0.00000E+000	-8.38815E-006	-1.68088E-001	3.00838E-002	3.57790E+000	9	...........
	53	0.72	2.72784E-002	-2.78006E-004	0.00000E+000	-7.58355E-006	-1.68088E-001	2.72770E-002	3.57790E+000	9	...........
	54	0.733333	2.44916E-002	-2.78927E-004	0.00000E+000	-6.83138E-006	-1.68088E-001	2.44914E-002	3.57790E+000	9	...........
	55	0.746667	2.17636E-002	-2.78889E-004	0.00000E+000	-6.06961E-006	-1.68088E-001	2.17582E-002	3.57790E+000	9	...........
	56	0.76	1.90781E-002	-2.78135E-004	0.00000E+000	-5.30630E-006	-1.68088E-001	1.90758E-002	3.57790E+000	9	...........
	57	0.773333	1.63984E-002	-2.78191E-004	0.00000E+000	-4.56189E-006	-1.68088E-001	1.63885E-002	3.57790E+000	9	...........
	58	0.786667	1.37816E-002	-2.79577E-004	0.00000E+000	-3.85303E-006	-1.68088E-001	1.37731E-002	3.57790E+000	9	...........
	59	0.8	1.11628E-002	-2.79395E-004	0.00000E+000	-3.11883E-006	-1.68088E-001	1.11557E-002	3.57790E+000	9	...........
	60	0.813333	8.61312E-003	-2.79075E-004	0.00000E+000	-2.40371E-006	-1.68088E-001	8.59674E-003	3.57790E+000	9	...........
	61	0.826667	6.08467E-003	-2.79714E-004	0.00000E+000	-1.70197E-006	-1.68088E-001	6.06783E-003	3.57790E+000	9	...........
	62	0.84	3.58137E-003	-2.79410E-004	0.00000E+000	-1.00067E-006	-1.68088E-001	3.56598E-003	3.57790E+000	9	...........
	63	0.853333	1.08250E-003	-2.79654E-004	0.00000E+000	-3.02725E-007	-1.68088E-001	1.06624E-003	3.57790E+000	9	...........
	64	0.855	-2.69932E-004	-2.77264E-004	0.00000E+000	7.48425E-008	-1.68088E-001	-2.86308E-004	3.57790E+000	9	...........
STARTTIMEOFFSET	QUANT	1348.561	Start Time Offset (s)
