EXPLAIN
TAG	PWR800_DISCHARGE
TITLE	LABEL	PWR Cyclic Charge Discharge (Cell) - Discharge Step	Test &Identifier
DATE	LABEL	7-7-2017	Date
TIME	LABEL	16:06:14	Time
NOTES	NOTES	3	&Notes...
	supercap test cell
	2.8mg
	6M KOH
PSTAT	PSTAT	IFC5000-01520	Potentiostat
CAPACITY	QUANT	1.00000E-003	Capacity (A-hr)
CELLTYPE	SELECTOR	1	&Cell Type
WORKINGCONNECTION	SELECTOR	0	&Working Lead
MAXDISCHARGETIME	VARIABLEANDUNITS	1.00000E+002	s	1.00000E+002	second(s)	Max &Discharge Time
DISCHARGEMODE	MULTIPARAM	0	2.80000E-004	&Discharge Mode	Constant Current	Amp(s)
SAMPLETIME	QUANT	1.00000E-002	Sa&mple Period (s)
DISCHARGESTOPAT1	MULTIPARAM	3	0.00000E+000	Discharge Stop At &1	Voltage < Limit	V
DISCHARGESTOPAT2	MULTIPARAM	0	0.00000E+000	Discharge Stop At &2	None	N/A
AESBHCSELECTOR	TOGGLE	F	Save Both Half Cells
IRCOMP	TOGGLE	F	IR &Measure
EOC	QUANT	0	Open Circuit (V)
SEQUENCER	TOGGLE	TRUE	Run as Sequence
PSTATMODEL	IQUANT	53	Pstat Model
PSTATSECTION	LABEL	IFC5000-01520	Pstat Section
PSTATSERIALNO	LABEL	01520	Pstat Serial Number
CTRLMODE	IQUANT	0	Control Mode
ELECTROMETER	IQUANT	1	RE=0 or CS=1
IESTAB	IQUANT	0	I/E Stability
CASPEED	IQUANT	4	Control Amp Speed
CONVENTION	IQUANT	1	Current Convention
ICHRANGE	IQUANT	2	Ich Range
ICHRANGEMODE	TOGGLE	T	Ich Auto Range
ICHOFFSETENABLE	TOGGLE	F	Ich Offset Enable
ICHOFFSET	QUANT	0	Ich Offset (V)
ICHFILTER	IQUANT	1	Ich Filter
VCHRANGE	IQUANT	2	Vch Range
VCHRANGEMODE	TOGGLE	T	Vch Auto Range
VCHOFFSETENABLE	TOGGLE	F	Vch Offset Enable
VCHOFFSET	QUANT	0	Vch Offset (V)
VCHFILTER	IQUANT	1	Vch Filter
IERANGELOWERLIMIT	IQUANT	9	I/E Range Lower Limit
IERANGEMODE	TOGGLE	F	I/E AutoRange
IERANGE	IQUANT	9	I/E Range
ACHSELECT	IQUANT	1	Ach Select
ACHRANGE	IQUANT	2	Ach Range
ACHOFFSETENABLE	TOGGLE	F	Ach Offset Enable
ACHOFFSET	QUANT	0	Ach Offset (V)
ACHFILTER	IQUANT	1	Ach Filter
CABLEID	IQUANT	14	Cable ID
DCCALDATE	LABEL	5-7-2017	DC Calibration Date
ACCALDATE	LABEL	12/3/2015	AC Calibration Date
FRAMEWORKVERSION	QUANT	7.01	Framework Version
INSTRUMENTVERSION	LABEL	4.00	Instrument Version
CURVE	TABLE	64
	Pt	T	Vf	Im	Vu	Pwr	Sig	Ach	Temp	IERange	Over
	#	s	V	A	V	W	V	V	deg C	#	bits
	0	0.013333	5.27428E-001	-2.78775E-004	0.00000E+000	-1.47034E-004	-1.68088E-001	5.27662E-001	3.57790E+000	9	...........
	1	0.026667	4.94538E-001	-2.77874E-004	0.00000E+000	-1.37419E-004	-1.68088E-001	4.94777E-001	3.57790E+000	9	...........
	2	0.04	4.64707E-001	-2.78306E-004	0.00000E+000	-1.29331E-004	-1.68088E-001	4.64819E-001	3.57790E+000	9	...........
	3	0.053333	4.36766E-001	-2.79154E-004	0.00000E+000	-1.21925E-004	-1.68088E-001	4.36870E-001	3.57790E+000	9	...........
	4	0.066667	4.10729E-001	-2.79985E-004	0.00000E+000	-1.14998E-004	-1.68088E-001	4.10830E-001	3.57790E+000	9	...........
	5	0.08	3.86466E-001	-2.77572E-004	0.00000E+000	-1.07272E-004	-1.68088E-001	3.86555E-001	3.57790E+000	9	...........
	6	0.093333	3.63815E-001	-2.78960E-004	0.00000E+000	-1.01490E-004	-1.68088E-001	3.63900E-001	3.57790E+000	9	...........
	7	0.106667	3.42715E-001	-2.78497E-004	0.00000E+000	-9.54449E-005	-1.68088E-001	3.42793E-001	3.57790E+000	9	...........
	8	0.12	3.23073E-001	-2.79117E-004	0.00000E+000	-9.01750E-005	-1.68088E-001	3.23150E-001	3.57790E+000	9	...........
	9	0.133333	3.04801E-001	-2.78714E-004	0.00000E+000	-8.49526E-005	-1.68088E-001	3.04879E-001	3.57790E+000	9	...........
	10	0.146667	2.87830E-001	-2.78869E-004	0.00000E+000	-8.02668E-005	-1.68088E-001	2.87904E-001	3.57790E+000	9	...........
	11	0.16	2.72092E-001	-2.79409E-004	0.00000E+000	-7.60251E-005	-1.68088E-001	2.72163E-001	3.57790E+000	9	...........
	12	0.173333	2.57471E-001	-2.78596E-004	0.00000E+000	-7.17305E-005	-1.68088E-001	2.57536E-001	3.57790E+000	9	...........
	13	0.186667	2.43921E-001	-2.79844E-004	0.00000E+000	-6.82599E-005	-1.68088E-001	2.43989E-001	3.57790E+000	9	...........
	14	0.2	2.31349E-001	-2.79023E-004	0.00000E+000	-6.45518E-005	-1.68088E-001	2.31407E-001	3.57790E+000	9	...........
	15	0.213333	2.19615E-001	-2.78959E-004	0.00000E+000	-6.12637E-005	-1.68088E-001	2.19671E-001	3.57790E+000	9	...........
	16	0.226667	2.08664E-001	-2.78129E-004	0.00000E+000	-5.80356E-005	-1.68088E-001	2.08720E-001	3.57790E+000	9	...........
	17	0.24	1.98452E-001	-2.78810E-004	0.00000E+000	-5.53304E-005	-1.68088E-001	1.98506E-001	3.57790E+000	9	...........
	18	0.253333	1.88905E-001	-2.78716E-004	0.00000E+000	-5.26507E-005	-1.68088E-001	1.88954E-001	3.57790E+000	9	...........
	19	0.266667	1.79958E-001	-2.78468E-004	0.00000E+000	-5.01126E-005	-1.68088E-001	1.80006E-001	3.57790E+000	9	...........
	20	0.28	1.71603E-001	-2.77185E-004	0.00000E+000	-4.75659E-005	-1.68088E-001	1.71645E-001	3.57790E+000	9	...........
	21	0.293333	1.63711E-001	-2.78945E-004	0.00000E+000	-4.56663E-005	-1.68088E-001	1.63758E-001	3.57790E+000	9	...........
	22	0.306667	1.56265E-001	-2.78939E-004	0.00000E+000	-4.35884E-005	-1.68088E-001	1.56305E-001	3.57790E+000	9	...........
	23	0.32	1.49224E-001	-2.78700E-004	0.00000E+000	-4.15888E-005	-1.68088E-001	1.49256E-001	3.57790E+000	9	...........
	24	0.333333	1.42532E-001	-2.79725E-004	0.00000E+000	-3.98698E-005	-1.68088E-001	1.42563E-001	3.57790E+000	9	...........
	25	0.346667	1.36195E-001	-2.79230E-004	0.00000E+000	-3.80299E-005	-1.68088E-001	1.36223E-001	3.57790E+000	9	...........
	26	0.36	1.30169E-001	-2.79105E-004	0.00000E+000	-3.63308E-005	-1.68088E-001	1.30200E-001	3.57790E+000	9	...........
	27	0.373333	1.24436E-001	-2.78673E-004	0.00000E+000	-3.46768E-005	-1.68088E-001	1.24465E-001	3.57790E+000	9	...........
	28	0.386667	1.18948E-001	-2.79758E-004	0.00000E+000	-3.32766E-005	-1.68088E-001	1.18981E-001	3.57790E+000	9	...........
	29	0.4	1.13699E-001	-2.79773E-004	0.00000E+000	-3.18099E-005	-1.68088E-001	1.13726E-001	3.57790E+000	9	...........
	30	0.413333	1.08718E-001	-2.78539E-004	0.00000E+000	-3.02822E-005	-1.68088E-001	1.08745E-001	3.57790E+000	9	...........
	31	0.426667	1.03896E-001	-2.79899E-004	0.00000E+000	-2.90805E-005	-1.68088E-001	1.03924E-001	3.57790E+000	9	...........
	32	0.44	9.92318E-002	-2.80310E-004	0.00000E+000	-2.78156E-005	-1.68088E-001	9.92581E-002	3.57790E+000	9	...........
	33	0.453333	9.47703E-002	-2.78233E-004	0.00000E+000	-2.63682E-005	-1.68088E-001	9.47953E-002	3.57790E+000	9	...........
	34	0.466667	9.04379E-002	-2.78019E-004	0.00000E+000	-2.51434E-005	-1.68088E-001	9.04610E-002	3.57790E+000	9	...........
	35	0.48	8.62113E-002	-2.78496E-004	0.00000E+000	-2.40095E-005	-1.68088E-001	8.62351E-002	3.57790E+000	9	...........
	36	0.493333	8.21117E-002	-2.79492E-004	0.00000E+000	-2.29495E-005	-1.68088E-001	8.21314E-002	3.57790E+000	9	...........
	37	0.506667	7.81581E-002	-2.78165E-004	0.00000E+000	-2.17409E-005	-1.68088E-001	7.81741E-002	3.57790E+000	9	...........
	38	0.52	7.42810E-002	-2.79843E-004	0.00000E+000	-2.07870E-005	-1.68088E-001	7.42911E-002	3.57790E+000	9	...........
	39	0.533333	7.05963E-002	-2.78757E-004	0.00000E+000	-1.96792E-005	-1.68088E-001	7.06160E-002	3.57790E+000	9	...........
	40	0.546667	6.70099E-002	-2.78752E-004	0.00000E+000	-1.86791E-005	-1.68088E-001	6.70214E-002	3.57790E+000	9	...........
	41	0.56	6.34791E-002	-2.79072E-004	0.00000E+000	-1.77152E-005	-1.68088E-001	6.34880E-002	3.57790E+000	9	...........
	42	0.573333	6.00367E-002	-2.78588E-004	0.00000E+000	-1.67255E-005	-1.68088E-001	6.00476E-002	3.57790E+000	9	...........
	43	0.586667	5.66533E-002	-2.78089E-004	0.00000E+000	-1.57547E-005	-1.68088E-001	5.66611E-002	3.57790E+000	9	...........
	44	0.6	5.33335E-002	-2.78028E-004	0.00000E+000	-1.48282E-005	-1.68088E-001	5.33403E-002	3.57790E+000	9	...........
	45	0.613333	5.00831E-002	-2.78607E-004	0.00000E+000	-1.39535E-005	-1.68088E-001	5.00877E-002	3.57790E+000	9	...........
	46	0.626667	4.69375E-002	-2.78153E-004	0.00000E+000	-1.30558E-005	-1.68088E-001	4.69487E-002	3.57790E+000	9	...........
	47	0.64	4.38532E-002	-2.79047E-004	0.00000E+000	-1.22371E-005	-1.68088E-001	4.38659E-002	3.57790E+000	9	...........
	48	0.653333	4.08065E-002	-2.77755E-004	0.00000E+000	-1.13342E-005	-1.68088E-001	4.08139E-002	3.57790E+000	9	...........
	49	0.666667	3.77845E-002	-2.79074E-004	0.00000E+000	-1.05447E-005	-1.68088E-001	3.77903E-002	3.57790E+000	9	...........
	50	0.68	3.47979E-002	-2.78620E-004	0.00000E+000	-9.69538E-006	-1.68088E-001	3.48018E-002	3.57790E+000	9	...........
	51	0.693333	3.18288E-002	-2.78197E-004	0.00000E+000	-8.85468E-006	-1.68088E-001	3.18324E-002	3.57790E+000	9	...........
	52	0.706667	2.89462E-002	-2.78556E-004	0.00000E+000	-8.06315E-006	-1.68088E-001	2.89431E-002	3.57790E+000	9	...........
	53	0.72	2.61637E-002	-2.79354E-004	0.00000E+000	-7.30895E-006	-1.68088E-001	2.61633E-002	3.57790E+000	9	...........
	54	0.733333	2.33908E-002	-2.78454E-004	0.00000E+000	-6.51325E-006	-1.68088E-001	2.33898E-002	3.57790E+000	9	...........
	55	0.746667	2.06561E-002	-2.79565E-004	0.00000E+000	-5.77471E-006	-1.68088E-001	2.06569E-002	3.57790E+000	9	...........
	56	0.76	1.79667E-002	-2.77216E-004	0.00000E+000	-4.98066E-006	-1.68088E-001	1.79625E-002	3.57790E+000	9	...........
	57	0.773333	1.53645E-002	-2.79220E-004	0.00000E+000	-4.29008E-006	-1.68088E-001	1.53548E-002	3.57790E+000	9	...........
	58	0.786667	1.27992E-002	-2.79327E-004	0.00000E+000	-3.57516E-006	-1.68088E-001	1.27916E-002	3.57790E+000	9	...........
	59	0.8	1.02431E-002	-2.78403E-004	0.00000E+000	-2.85172E-006	-1.68088E-001	1.02350E-002	3.57790E+000	9	...........
	60	0.813333	7.73454E-003	-2.80592E-004	0.00000E+000	-2.17025E-006	-1.68088E-001	7.72142E-003	3.57790E+000	9	...........
	61	0.826667	5.16648E-003	-2.79096E-004	0.00000E+000	-1.44194E-006	-1.68088E-001	5.15635E-003	3.57790E+000	9	...........
	62	0.84	2.69728E-003	-2.79249E-004	0.00000E+000	-7.53212E-007	-1.68088E-001	2.68120E-003	3.57790E+000	9	...........
	63	0.85	5.66256E-004	-2.79781E-004	0.00000E+000	-1.58428E-007	-1.68088E-001	5.48924E-004	3.57790E+000	9	...........
STARTTIMEOFFSET	QUANT	1370.217	Start Time Offset (s)
