EXPLAIN
TAG	PWR800_DISCHARGE
TITLE	LABEL	PWR Cyclic Charge Discharge (Cell) - Discharge Step	Test &Identifier
DATE	LABEL	7-7-2017	Date
TIME	LABEL	16:18:33	Time
NOTES	NOTES	3	&Notes...
	supercap test cell
	2.8mg
	6M KOH
PSTAT	PSTAT	IFC5000-01520	Potentiostat
CAPACITY	QUANT	1.00000E-003	Capacity (A-hr)
CELLTYPE	SELECTOR	1	&Cell Type
WORKINGCONNECTION	SELECTOR	0	&Working Lead
MAXDISCHARGETIME	VARIABLEANDUNITS	1.00000E+002	s	1.00000E+002	second(s)	Max &Discharge Time
DISCHARGEMODE	MULTIPARAM	0	2.80000E-004	&Discharge Mode	Constant Current	Amp(s)
SAMPLETIME	QUANT	1.00000E-002	Sa&mple Period (s)
DISCHARGESTOPAT1	MULTIPARAM	3	0.00000E+000	Discharge Stop At &1	Voltage < Limit	V
DISCHARGESTOPAT2	MULTIPARAM	0	0.00000E+000	Discharge Stop At &2	None	N/A
AESBHCSELECTOR	TOGGLE	F	Save Both Half Cells
IRCOMP	TOGGLE	F	IR &Measure
EOC	QUANT	0	Open Circuit (V)
SEQUENCER	TOGGLE	TRUE	Run as Sequence
PSTATMODEL	IQUANT	53	Pstat Model
PSTATSECTION	LABEL	IFC5000-01520	Pstat Section
PSTATSERIALNO	LABEL	01520	Pstat Serial Number
CTRLMODE	IQUANT	0	Control Mode
ELECTROMETER	IQUANT	1	RE=0 or CS=1
IESTAB	IQUANT	0	I/E Stability
CASPEED	IQUANT	4	Control Amp Speed
CONVENTION	IQUANT	1	Current Convention
ICHRANGE	IQUANT	2	Ich Range
ICHRANGEMODE	TOGGLE	T	Ich Auto Range
ICHOFFSETENABLE	TOGGLE	F	Ich Offset Enable
ICHOFFSET	QUANT	0	Ich Offset (V)
ICHFILTER	IQUANT	1	Ich Filter
VCHRANGE	IQUANT	2	Vch Range
VCHRANGEMODE	TOGGLE	T	Vch Auto Range
VCHOFFSETENABLE	TOGGLE	F	Vch Offset Enable
VCHOFFSET	QUANT	0	Vch Offset (V)
VCHFILTER	IQUANT	1	Vch Filter
IERANGELOWERLIMIT	IQUANT	9	I/E Range Lower Limit
IERANGEMODE	TOGGLE	F	I/E AutoRange
IERANGE	IQUANT	9	I/E Range
ACHSELECT	IQUANT	1	Ach Select
ACHRANGE	IQUANT	2	Ach Range
ACHOFFSETENABLE	TOGGLE	F	Ach Offset Enable
ACHOFFSET	QUANT	0	Ach Offset (V)
ACHFILTER	IQUANT	1	Ach Filter
CABLEID	IQUANT	14	Cable ID
DCCALDATE	LABEL	5-7-2017	DC Calibration Date
ACCALDATE	LABEL	12/3/2015	AC Calibration Date
FRAMEWORKVERSION	QUANT	7.01	Framework Version
INSTRUMENTVERSION	LABEL	4.00	Instrument Version
CURVE	TABLE	55
	Pt	T	Vf	Im	Vu	Pwr	Sig	Ach	Temp	IERange	Over
	#	s	V	A	V	W	V	V	deg C	#	bits
	0	0.013333	5.18072E-001	-2.78295E-004	0.00000E+000	-1.44177E-004	-1.68088E-001	5.18280E-001	3.57880E+000	9	...........
	1	0.026667	4.84327E-001	-2.78732E-004	0.00000E+000	-1.34997E-004	-1.68088E-001	4.84505E-001	3.57880E+000	9	...........
	2	0.04	4.53409E-001	-2.79226E-004	0.00000E+000	-1.26604E-004	-1.68088E-001	4.53514E-001	3.57880E+000	9	...........
	3	0.053333	4.24491E-001	-2.78304E-004	0.00000E+000	-1.18138E-004	-1.68088E-001	4.24590E-001	3.57880E+000	9	...........
	4	0.066667	3.97486E-001	-2.80341E-004	0.00000E+000	-1.11431E-004	-1.68088E-001	3.97574E-001	3.57880E+000	9	...........
	5	0.08	3.72237E-001	-2.79316E-004	0.00000E+000	-1.03972E-004	-1.68088E-001	3.72317E-001	3.57880E+000	9	...........
	6	0.093333	3.48648E-001	-2.78623E-004	0.00000E+000	-9.71413E-005	-1.68088E-001	3.48725E-001	3.57880E+000	9	...........
	7	0.106667	3.26644E-001	-2.78120E-004	0.00000E+000	-9.08460E-005	-1.68088E-001	3.26716E-001	3.57880E+000	9	...........
	8	0.12	3.06160E-001	-2.79530E-004	0.00000E+000	-8.55811E-005	-1.68088E-001	3.06229E-001	3.57880E+000	9	...........
	9	0.133333	2.87114E-001	-2.79227E-004	0.00000E+000	-8.01701E-005	-1.68088E-001	2.87173E-001	3.57880E+000	9	...........
	10	0.146667	2.69397E-001	-2.79134E-004	0.00000E+000	-7.51980E-005	-1.68088E-001	2.69459E-001	3.57880E+000	9	...........
	11	0.16	2.52964E-001	-2.79122E-004	0.00000E+000	-7.06079E-005	-1.68088E-001	2.53021E-001	3.57880E+000	9	...........
	12	0.173333	2.37696E-001	-2.78295E-004	0.00000E+000	-6.61494E-005	-1.68088E-001	2.37746E-001	3.57880E+000	9	...........
	13	0.186667	2.23530E-001	-2.80094E-004	0.00000E+000	-6.26093E-005	-1.68088E-001	2.23582E-001	3.57880E+000	9	...........
	14	0.2	2.10389E-001	-2.79552E-004	0.00000E+000	-5.88147E-005	-1.68088E-001	2.10438E-001	3.57880E+000	9	...........
	15	0.213333	1.98150E-001	-2.78221E-004	0.00000E+000	-5.51293E-005	-1.68088E-001	1.98198E-001	3.57880E+000	9	...........
	16	0.226667	1.86802E-001	-2.77347E-004	0.00000E+000	-5.18089E-005	-1.68088E-001	1.86840E-001	3.57880E+000	9	...........
	17	0.24	1.76269E-001	-2.79076E-004	0.00000E+000	-4.91925E-005	-1.68088E-001	1.76310E-001	3.57880E+000	9	...........
	18	0.253333	1.66390E-001	-2.78762E-004	0.00000E+000	-4.63834E-005	-1.68088E-001	1.66426E-001	3.57880E+000	9	...........
	19	0.266667	1.57142E-001	-2.80284E-004	0.00000E+000	-4.40443E-005	-1.68088E-001	1.57173E-001	3.57880E+000	9	...........
	20	0.28	1.48559E-001	-2.80606E-004	0.00000E+000	-4.16866E-005	-1.68088E-001	1.48588E-001	3.57880E+000	9	...........
	21	0.293333	1.40442E-001	-2.79795E-004	0.00000E+000	-3.92950E-005	-1.68088E-001	1.40469E-001	3.57880E+000	9	...........
	22	0.306667	1.32813E-001	-2.79641E-004	0.00000E+000	-3.71400E-005	-1.68088E-001	1.32839E-001	3.57880E+000	9	...........
	23	0.32	1.25633E-001	-2.78970E-004	0.00000E+000	-3.50478E-005	-1.68088E-001	1.25664E-001	3.57880E+000	9	...........
	24	0.333333	1.18854E-001	-2.78904E-004	0.00000E+000	-3.31488E-005	-1.68088E-001	1.18876E-001	3.57880E+000	9	...........
	25	0.346667	1.12428E-001	-2.77799E-004	0.00000E+000	-3.12324E-005	-1.68088E-001	1.12449E-001	3.57880E+000	9	...........
	26	0.36	1.06258E-001	-2.79025E-004	0.00000E+000	-2.96486E-005	-1.68088E-001	1.06285E-001	3.57880E+000	9	...........
	27	0.373333	1.00425E-001	-2.78823E-004	0.00000E+000	-2.80008E-005	-1.68088E-001	1.00448E-001	3.57880E+000	9	...........
	28	0.386667	9.48775E-002	-2.79491E-004	0.00000E+000	-2.65174E-005	-1.68088E-001	9.49021E-002	3.57880E+000	9	...........
	29	0.4	8.95623E-002	-2.79701E-004	0.00000E+000	-2.50507E-005	-1.68088E-001	8.95857E-002	3.57880E+000	9	...........
	30	0.413333	8.44913E-002	-2.79443E-004	0.00000E+000	-2.36105E-005	-1.68088E-001	8.45084E-002	3.57880E+000	9	...........
	31	0.426667	7.96126E-002	-2.79896E-004	0.00000E+000	-2.22832E-005	-1.68088E-001	7.96289E-002	3.57880E+000	9	...........
	32	0.44	7.49152E-002	-2.79446E-004	0.00000E+000	-2.09347E-005	-1.68088E-001	7.49302E-002	3.57880E+000	9	...........
	33	0.453333	7.03380E-002	-2.79339E-004	0.00000E+000	-1.96481E-005	-1.68088E-001	7.03511E-002	3.57880E+000	9	...........
	34	0.466667	6.59558E-002	-2.78982E-004	0.00000E+000	-1.84005E-005	-1.68088E-001	6.59626E-002	3.57880E+000	9	...........
	35	0.48	6.17347E-002	-2.79341E-004	0.00000E+000	-1.72450E-005	-1.68088E-001	6.17409E-002	3.57880E+000	9	...........
	36	0.493333	5.76589E-002	-2.77567E-004	0.00000E+000	-1.60042E-005	-1.68088E-001	5.76687E-002	3.57880E+000	9	...........
	37	0.506667	5.36650E-002	-2.78994E-004	0.00000E+000	-1.49722E-005	-1.68088E-001	5.36671E-002	3.57880E+000	9	...........
	38	0.52	4.98230E-002	-2.78013E-004	0.00000E+000	-1.38515E-005	-1.68088E-001	4.98195E-002	3.57880E+000	9	...........
	39	0.533333	4.61485E-002	-2.80342E-004	0.00000E+000	-1.29374E-005	-1.68088E-001	4.61576E-002	3.57880E+000	9	...........
	40	0.546667	4.25258E-002	-2.77976E-004	0.00000E+000	-1.18211E-005	-1.68088E-001	4.25315E-002	3.57880E+000	9	...........
	41	0.56	3.89707E-002	-2.80039E-004	0.00000E+000	-1.09133E-005	-1.68088E-001	3.89756E-002	3.57880E+000	9	...........
	42	0.573333	3.55150E-002	-2.79787E-004	0.00000E+000	-9.93662E-006	-1.68088E-001	3.55177E-002	3.57880E+000	9	...........
	43	0.586667	3.21494E-002	-2.78492E-004	0.00000E+000	-8.95333E-006	-1.68088E-001	3.21511E-002	3.57880E+000	9	...........
	44	0.6	2.88738E-002	-2.78755E-004	0.00000E+000	-8.04871E-006	-1.68088E-001	2.88752E-002	3.57880E+000	9	...........
	45	0.613333	2.56503E-002	-2.78311E-004	0.00000E+000	-7.13878E-006	-1.68088E-001	2.56487E-002	3.57880E+000	9	...........
	46	0.626667	2.24876E-002	-2.78495E-004	0.00000E+000	-6.26268E-006	-1.68088E-001	2.24820E-002	3.57880E+000	9	...........
	47	0.64	1.93229E-002	-2.78865E-004	0.00000E+000	-5.38847E-006	-1.68088E-001	1.93121E-002	3.57880E+000	9	...........
	48	0.653333	1.62546E-002	-2.78832E-004	0.00000E+000	-4.53230E-006	-1.68088E-001	1.62495E-002	3.57880E+000	9	...........
	49	0.666667	1.32585E-002	-2.79760E-004	0.00000E+000	-3.70920E-006	-1.68088E-001	1.32440E-002	3.57880E+000	9	...........
	50	0.68	1.03476E-002	-2.79412E-004	0.00000E+000	-2.89124E-006	-1.68088E-001	1.03364E-002	3.57880E+000	9	...........
	51	0.693333	7.46302E-003	-2.79152E-004	0.00000E+000	-2.08332E-006	-1.68088E-001	7.44777E-003	3.57880E+000	9	...........
	52	0.706667	4.59866E-003	-2.79326E-004	0.00000E+000	-1.28453E-006	-1.68088E-001	4.58124E-003	3.57880E+000	9	...........
	53	0.72	1.79193E-003	-2.77933E-004	0.00000E+000	-4.98036E-007	-1.68088E-001	1.77623E-003	3.57880E+000	9	...........
	54	0.723333	1.03770E-005	-2.79056E-004	0.00000E+000	-2.89578E-009	-1.68088E-001	-7.70258E-006	3.57880E+000	9	...........
STARTTIMEOFFSET	QUANT	1866.123	Start Time Offset (s)
