EXPLAIN
TAG	PWR800_DISCHARGE
TITLE	LABEL	PWR Cyclic Charge Discharge (Cell) - Discharge Step	Test &Identifier
DATE	LABEL	7-7-2017	Date
TIME	LABEL	16:09:40	Time
NOTES	NOTES	3	&Notes...
	supercap test cell
	2.8mg
	6M KOH
PSTAT	PSTAT	IFC5000-01520	Potentiostat
CAPACITY	QUANT	1.00000E-003	Capacity (A-hr)
CELLTYPE	SELECTOR	1	&Cell Type
WORKINGCONNECTION	SELECTOR	0	&Working Lead
MAXDISCHARGETIME	VARIABLEANDUNITS	1.00000E+002	s	1.00000E+002	second(s)	Max &Discharge Time
DISCHARGEMODE	MULTIPARAM	0	2.80000E-004	&Discharge Mode	Constant Current	Amp(s)
SAMPLETIME	QUANT	1.00000E-002	Sa&mple Period (s)
DISCHARGESTOPAT1	MULTIPARAM	3	0.00000E+000	Discharge Stop At &1	Voltage < Limit	V
DISCHARGESTOPAT2	MULTIPARAM	0	0.00000E+000	Discharge Stop At &2	None	N/A
AESBHCSELECTOR	TOGGLE	F	Save Both Half Cells
IRCOMP	TOGGLE	F	IR &Measure
EOC	QUANT	0	Open Circuit (V)
SEQUENCER	TOGGLE	TRUE	Run as Sequence
PSTATMODEL	IQUANT	53	Pstat Model
PSTATSECTION	LABEL	IFC5000-01520	Pstat Section
PSTATSERIALNO	LABEL	01520	Pstat Serial Number
CTRLMODE	IQUANT	0	Control Mode
ELECTROMETER	IQUANT	1	RE=0 or CS=1
IESTAB	IQUANT	0	I/E Stability
CASPEED	IQUANT	4	Control Amp Speed
CONVENTION	IQUANT	1	Current Convention
ICHRANGE	IQUANT	2	Ich Range
ICHRANGEMODE	TOGGLE	T	Ich Auto Range
ICHOFFSETENABLE	TOGGLE	F	Ich Offset Enable
ICHOFFSET	QUANT	0	Ich Offset (V)
ICHFILTER	IQUANT	1	Ich Filter
VCHRANGE	IQUANT	2	Vch Range
VCHRANGEMODE	TOGGLE	T	Vch Auto Range
VCHOFFSETENABLE	TOGGLE	F	Vch Offset Enable
VCHOFFSET	QUANT	0	Vch Offset (V)
VCHFILTER	IQUANT	1	Vch Filter
IERANGELOWERLIMIT	IQUANT	9	I/E Range Lower Limit
IERANGEMODE	TOGGLE	F	I/E AutoRange
IERANGE	IQUANT	9	I/E Range
ACHSELECT	IQUANT	1	Ach Select
ACHRANGE	IQUANT	2	Ach Range
ACHOFFSETENABLE	TOGGLE	F	Ach Offset Enable
ACHOFFSET	QUANT	0	Ach Offset (V)
ACHFILTER	IQUANT	1	Ach Filter
CABLEID	IQUANT	14	Cable ID
DCCALDATE	LABEL	5-7-2017	DC Calibration Date
ACCALDATE	LABEL	12/3/2015	AC Calibration Date
FRAMEWORKVERSION	QUANT	7.01	Framework Version
INSTRUMENTVERSION	LABEL	4.00	Instrument Version
CURVE	TABLE	61
	Pt	T	Vf	Im	Vu	Pwr	Sig	Ach	Temp	IERange	Over
	#	s	V	A	V	W	V	V	deg C	#	bits
	0	0.013333	5.25298E-001	-2.77218E-004	0.00000E+000	-1.45622E-004	-1.68088E-001	5.25556E-001	3.57730E+000	9	...........
	1	0.026667	4.92095E-001	-2.78636E-004	0.00000E+000	-1.37115E-004	-1.68088E-001	4.92362E-001	3.57730E+000	9	...........
	2	0.04	4.61961E-001	-2.79916E-004	0.00000E+000	-1.29310E-004	-1.68088E-001	4.62076E-001	3.57730E+000	9	...........
	3	0.053333	4.33720E-001	-2.79079E-004	0.00000E+000	-1.21042E-004	-1.68088E-001	4.33828E-001	3.57730E+000	9	...........
	4	0.066667	4.07404E-001	-2.78911E-004	0.00000E+000	-1.13630E-004	-1.68088E-001	4.07507E-001	3.57730E+000	9	...........
	5	0.08	3.82838E-001	-2.78868E-004	0.00000E+000	-1.06761E-004	-1.68088E-001	3.82934E-001	3.57730E+000	9	...........
	6	0.093333	3.59888E-001	-2.79550E-004	0.00000E+000	-1.00607E-004	-1.68088E-001	3.59978E-001	3.57730E+000	9	...........
	7	0.106667	3.38526E-001	-2.79134E-004	0.00000E+000	-9.44944E-005	-1.68088E-001	3.38603E-001	3.57730E+000	9	...........
	8	0.12	3.18617E-001	-2.79084E-004	0.00000E+000	-8.89209E-005	-1.68088E-001	3.18691E-001	3.57730E+000	9	...........
	9	0.133333	3.00103E-001	-2.78684E-004	0.00000E+000	-8.36339E-005	-1.68088E-001	3.00174E-001	3.57730E+000	9	...........
	10	0.146667	2.82892E-001	-2.79454E-004	0.00000E+000	-7.90554E-005	-1.68088E-001	2.82960E-001	3.57730E+000	9	...........
	11	0.16	2.66976E-001	-2.77740E-004	0.00000E+000	-7.41499E-005	-1.68088E-001	2.67045E-001	3.57730E+000	9	...........
	12	0.173333	2.52227E-001	-2.78218E-004	0.00000E+000	-7.01739E-005	-1.68088E-001	2.52287E-001	3.57730E+000	9	...........
	13	0.186667	2.38484E-001	-2.78073E-004	0.00000E+000	-6.63159E-005	-1.68088E-001	2.38536E-001	3.57730E+000	9	...........
	14	0.2	2.25698E-001	-2.79180E-004	0.00000E+000	-6.30105E-005	-1.68088E-001	2.25751E-001	3.57730E+000	9	...........
	15	0.213333	2.13806E-001	-2.78157E-004	0.00000E+000	-5.94716E-005	-1.68088E-001	2.13857E-001	3.57730E+000	9	...........
	16	0.226667	2.02746E-001	-2.79008E-004	0.00000E+000	-5.65678E-005	-1.68088E-001	2.02791E-001	3.57730E+000	9	...........
	17	0.24	1.92433E-001	-2.79445E-004	0.00000E+000	-5.37744E-005	-1.68088E-001	1.92485E-001	3.57730E+000	9	...........
	18	0.253333	1.82778E-001	-2.78716E-004	0.00000E+000	-5.09431E-005	-1.68088E-001	1.82824E-001	3.57730E+000	9	...........
	19	0.266667	1.73757E-001	-2.78259E-004	0.00000E+000	-4.83495E-005	-1.68088E-001	1.73807E-001	3.57730E+000	9	...........
	20	0.28	1.65333E-001	-2.77753E-004	0.00000E+000	-4.59217E-005	-1.68088E-001	1.65377E-001	3.57730E+000	9	...........
	21	0.293333	1.57347E-001	-2.78835E-004	0.00000E+000	-4.38739E-005	-1.68088E-001	1.57386E-001	3.57730E+000	9	...........
	22	0.306667	1.49823E-001	-2.78957E-004	0.00000E+000	-4.17943E-005	-1.68088E-001	1.49858E-001	3.57730E+000	9	...........
	23	0.32	1.42778E-001	-2.78926E-004	0.00000E+000	-3.98244E-005	-1.68088E-001	1.42807E-001	3.57730E+000	9	...........
	24	0.333333	1.36051E-001	-2.78806E-004	0.00000E+000	-3.79318E-005	-1.68088E-001	1.36084E-001	3.57730E+000	9	...........
	25	0.346667	1.29729E-001	-2.79578E-004	0.00000E+000	-3.62694E-005	-1.68088E-001	1.29761E-001	3.57730E+000	9	...........
	26	0.36	1.23698E-001	-2.78687E-004	0.00000E+000	-3.44731E-005	-1.68088E-001	1.23730E-001	3.57730E+000	9	...........
	27	0.373333	1.17921E-001	-2.78536E-004	0.00000E+000	-3.28453E-005	-1.68088E-001	1.17951E-001	3.57730E+000	9	...........
	28	0.386667	1.12440E-001	-2.78774E-004	0.00000E+000	-3.13454E-005	-1.68088E-001	1.12469E-001	3.57730E+000	9	...........
	29	0.4	1.07248E-001	-2.79498E-004	0.00000E+000	-2.99757E-005	-1.68088E-001	1.07278E-001	3.57730E+000	9	...........
	30	0.413333	1.02227E-001	-2.79351E-004	0.00000E+000	-2.85572E-005	-1.68088E-001	1.02252E-001	3.57730E+000	9	...........
	31	0.426667	9.73922E-002	-2.79322E-004	0.00000E+000	-2.72038E-005	-1.68088E-001	9.74136E-002	3.57730E+000	9	...........
	32	0.44	9.26837E-002	-2.78829E-004	0.00000E+000	-2.58429E-005	-1.68088E-001	9.27062E-002	3.57730E+000	9	...........
	33	0.453333	8.81567E-002	-2.79355E-004	0.00000E+000	-2.46270E-005	-1.68088E-001	8.81814E-002	3.57730E+000	9	...........
	34	0.466667	8.37690E-002	-2.79919E-004	0.00000E+000	-2.34485E-005	-1.68088E-001	8.37868E-002	3.57730E+000	9	...........
	35	0.48	7.95220E-002	-2.77796E-004	0.00000E+000	-2.20909E-005	-1.68088E-001	7.95385E-002	3.57730E+000	9	...........
	36	0.493333	7.54071E-002	-2.78874E-004	0.00000E+000	-2.10291E-005	-1.68088E-001	7.54268E-002	3.57730E+000	9	...........
	37	0.506667	7.14190E-002	-2.78384E-004	0.00000E+000	-1.98819E-005	-1.68088E-001	7.14337E-002	3.57730E+000	9	...........
	38	0.52	6.75704E-002	-2.79152E-004	0.00000E+000	-1.88624E-005	-1.68088E-001	6.75868E-002	3.57730E+000	9	...........
	39	0.533333	6.38585E-002	-2.78630E-004	0.00000E+000	-1.77929E-005	-1.68088E-001	6.38739E-002	3.57730E+000	9	...........
	40	0.546667	6.02232E-002	-2.78577E-004	0.00000E+000	-1.67768E-005	-1.68088E-001	6.02396E-002	3.57730E+000	9	...........
	41	0.56	5.67098E-002	-2.79587E-004	0.00000E+000	-1.58553E-005	-1.68088E-001	5.67216E-002	3.57730E+000	9	...........
	42	0.573333	5.31940E-002	-2.79671E-004	0.00000E+000	-1.48768E-005	-1.68088E-001	5.32062E-002	3.57730E+000	9	...........
	43	0.586667	4.98216E-002	-2.77788E-004	0.00000E+000	-1.38399E-005	-1.68088E-001	4.98302E-002	3.57730E+000	9	...........
	44	0.6	4.65511E-002	-2.77795E-004	0.00000E+000	-1.29316E-005	-1.68088E-001	4.65652E-002	3.57730E+000	9	...........
	45	0.613333	4.32867E-002	-2.79527E-004	0.00000E+000	-1.20998E-005	-1.68088E-001	4.32968E-002	3.57730E+000	9	...........
	46	0.626667	4.01144E-002	-2.79218E-004	0.00000E+000	-1.12006E-005	-1.68088E-001	4.01245E-002	3.57730E+000	9	...........
	47	0.64	3.70203E-002	-2.77983E-004	0.00000E+000	-1.02910E-005	-1.68088E-001	3.70244E-002	3.57730E+000	9	...........
	48	0.653333	3.40167E-002	-2.77707E-004	0.00000E+000	-9.44666E-006	-1.68088E-001	3.40236E-002	3.57730E+000	9	...........
	49	0.666667	3.10186E-002	-2.78266E-004	0.00000E+000	-8.63144E-006	-1.68088E-001	3.10209E-002	3.57730E+000	9	...........
	50	0.68	2.80555E-002	-2.77895E-004	0.00000E+000	-7.79648E-006	-1.68088E-001	2.80554E-002	3.57730E+000	9	...........
	51	0.693333	2.51230E-002	-2.78779E-004	0.00000E+000	-7.00377E-006	-1.68088E-001	2.51202E-002	3.57730E+000	9	...........
	52	0.706667	2.22554E-002	-2.78894E-004	0.00000E+000	-6.20689E-006	-1.68088E-001	2.22515E-002	3.57730E+000	9	...........
	53	0.72	1.94239E-002	-2.76860E-004	0.00000E+000	-5.37770E-006	-1.68088E-001	1.94195E-002	3.57730E+000	9	...........
	54	0.733333	1.66609E-002	-2.79302E-004	0.00000E+000	-4.65343E-006	-1.68088E-001	1.66559E-002	3.57730E+000	9	...........
	55	0.746667	1.39563E-002	-2.78127E-004	0.00000E+000	-3.88162E-006	-1.68088E-001	1.39477E-002	3.57730E+000	9	...........
	56	0.76	1.12269E-002	-2.78393E-004	0.00000E+000	-3.12548E-006	-1.68088E-001	1.12177E-002	3.57870E+000	9	...........
	57	0.773333	8.53866E-003	-2.80872E-004	0.00000E+000	-2.39827E-006	-1.68088E-001	8.52828E-003	3.57870E+000	9	...........
	58	0.786667	5.90102E-003	-2.78122E-004	0.00000E+000	-1.64120E-006	-1.68088E-001	5.89110E-003	3.57870E+000	9	...........
	59	0.8	3.29958E-003	-2.78130E-004	0.00000E+000	-9.17711E-007	-1.68088E-001	3.28826E-003	3.57870E+000	9	...........
	60	0.811667	9.10140E-004	-2.79355E-004	0.00000E+000	-2.54252E-007	-1.68088E-001	8.95073E-004	3.57870E+000	9	...........
STARTTIMEOFFSET	QUANT	1511.836	Start Time Offset (s)
