EXPLAIN
TAG	PWR800_DISCHARGE
TITLE	LABEL	PWR Cyclic Charge Discharge (Cell) - Discharge Step	Test &Identifier
DATE	LABEL	7-7-2017	Date
TIME	LABEL	16:19:57	Time
NOTES	NOTES	3	&Notes...
	supercap test cell
	2.8mg
	6M KOH
PSTAT	PSTAT	IFC5000-01520	Potentiostat
CAPACITY	QUANT	1.00000E-003	Capacity (A-hr)
CELLTYPE	SELECTOR	1	&Cell Type
WORKINGCONNECTION	SELECTOR	0	&Working Lead
MAXDISCHARGETIME	VARIABLEANDUNITS	1.00000E+002	s	1.00000E+002	second(s)	Max &Discharge Time
DISCHARGEMODE	MULTIPARAM	0	2.80000E-004	&Discharge Mode	Constant Current	Amp(s)
SAMPLETIME	QUANT	1.00000E-002	Sa&mple Period (s)
DISCHARGESTOPAT1	MULTIPARAM	3	0.00000E+000	Discharge Stop At &1	Voltage < Limit	V
DISCHARGESTOPAT2	MULTIPARAM	0	0.00000E+000	Discharge Stop At &2	None	N/A
AESBHCSELECTOR	TOGGLE	F	Save Both Half Cells
IRCOMP	TOGGLE	F	IR &Measure
EOC	QUANT	0	Open Circuit (V)
SEQUENCER	TOGGLE	TRUE	Run as Sequence
PSTATMODEL	IQUANT	53	Pstat Model
PSTATSECTION	LABEL	IFC5000-01520	Pstat Section
PSTATSERIALNO	LABEL	01520	Pstat Serial Number
CTRLMODE	IQUANT	0	Control Mode
ELECTROMETER	IQUANT	1	RE=0 or CS=1
IESTAB	IQUANT	0	I/E Stability
CASPEED	IQUANT	4	Control Amp Speed
CONVENTION	IQUANT	1	Current Convention
ICHRANGE	IQUANT	2	Ich Range
ICHRANGEMODE	TOGGLE	T	Ich Auto Range
ICHOFFSETENABLE	TOGGLE	F	Ich Offset Enable
ICHOFFSET	QUANT	0	Ich Offset (V)
ICHFILTER	IQUANT	1	Ich Filter
VCHRANGE	IQUANT	2	Vch Range
VCHRANGEMODE	TOGGLE	T	Vch Auto Range
VCHOFFSETENABLE	TOGGLE	F	Vch Offset Enable
VCHOFFSET	QUANT	0	Vch Offset (V)
VCHFILTER	IQUANT	1	Vch Filter
IERANGELOWERLIMIT	IQUANT	9	I/E Range Lower Limit
IERANGEMODE	TOGGLE	F	I/E AutoRange
IERANGE	IQUANT	9	I/E Range
ACHSELECT	IQUANT	1	Ach Select
ACHRANGE	IQUANT	2	Ach Range
ACHOFFSETENABLE	TOGGLE	F	Ach Offset Enable
ACHOFFSET	QUANT	0	Ach Offset (V)
ACHFILTER	IQUANT	1	Ach Filter
CABLEID	IQUANT	14	Cable ID
DCCALDATE	LABEL	5-7-2017	DC Calibration Date
ACCALDATE	LABEL	12/3/2015	AC Calibration Date
FRAMEWORKVERSION	QUANT	7.01	Framework Version
INSTRUMENTVERSION	LABEL	4.00	Instrument Version
CURVE	TABLE	54
	Pt	T	Vf	Im	Vu	Pwr	Sig	Ach	Temp	IERange	Over
	#	s	V	A	V	W	V	V	deg C	#	bits
	0	0.013333	5.18427E-001	-2.77576E-004	0.00000E+000	-1.43903E-004	-1.68088E-001	5.18626E-001	3.57740E+000	9	...........
	1	0.026667	4.84695E-001	-2.78326E-004	0.00000E+000	-1.34903E-004	-1.68088E-001	4.84876E-001	3.57740E+000	9	...........
	2	0.04	4.53810E-001	-2.78556E-004	0.00000E+000	-1.26412E-004	-1.68088E-001	4.53906E-001	3.57740E+000	9	...........
	3	0.053333	4.24906E-001	-2.79686E-004	0.00000E+000	-1.18840E-004	-1.68088E-001	4.25000E-001	3.57740E+000	9	...........
	4	0.066667	3.97890E-001	-2.79016E-004	0.00000E+000	-1.11018E-004	-1.68088E-001	3.97977E-001	3.57740E+000	9	...........
	5	0.08	3.72616E-001	-2.79421E-004	0.00000E+000	-1.04117E-004	-1.68088E-001	3.72695E-001	3.57740E+000	9	...........
	6	0.093333	3.48989E-001	-2.78753E-004	0.00000E+000	-9.72818E-005	-1.68088E-001	3.49068E-001	3.57740E+000	9	...........
	7	0.106667	3.26951E-001	-2.79797E-004	0.00000E+000	-9.14799E-005	-1.68088E-001	3.27018E-001	3.57740E+000	9	...........
	8	0.12	3.06411E-001	-2.77803E-004	0.00000E+000	-8.51219E-005	-1.68088E-001	3.06479E-001	3.57740E+000	9	...........
	9	0.133333	2.87301E-001	-2.79099E-004	0.00000E+000	-8.01854E-005	-1.68088E-001	2.87372E-001	3.57740E+000	9	...........
	10	0.146667	2.69548E-001	-2.78603E-004	0.00000E+000	-7.50968E-005	-1.68088E-001	2.69612E-001	3.57740E+000	9	...........
	11	0.16	2.53067E-001	-2.78475E-004	0.00000E+000	-7.04728E-005	-1.68088E-001	2.53128E-001	3.57740E+000	9	...........
	12	0.173333	2.37793E-001	-2.78667E-004	0.00000E+000	-6.62650E-005	-1.68088E-001	2.37846E-001	3.57740E+000	9	...........
	13	0.186667	2.23608E-001	-2.79259E-004	0.00000E+000	-6.24445E-005	-1.68088E-001	2.23658E-001	3.57740E+000	9	...........
	14	0.2	2.10397E-001	-2.79595E-004	0.00000E+000	-5.88258E-005	-1.68088E-001	2.10442E-001	3.57740E+000	9	...........
	15	0.213333	1.98163E-001	-2.76639E-004	0.00000E+000	-5.48195E-005	-1.68088E-001	1.98210E-001	3.57740E+000	9	...........
	16	0.226667	1.86771E-001	-2.79555E-004	0.00000E+000	-5.22127E-005	-1.68088E-001	1.86812E-001	3.57740E+000	9	...........
	17	0.24	1.76187E-001	-2.79418E-004	0.00000E+000	-4.92297E-005	-1.68088E-001	1.76227E-001	3.57740E+000	9	...........
	18	0.253333	1.66314E-001	-2.78662E-004	0.00000E+000	-4.63453E-005	-1.68088E-001	1.66344E-001	3.57740E+000	9	...........
	19	0.266667	1.57070E-001	-2.78244E-004	0.00000E+000	-4.37037E-005	-1.68088E-001	1.57108E-001	3.57740E+000	9	...........
	20	0.28	1.48422E-001	-2.79341E-004	0.00000E+000	-4.14603E-005	-1.68088E-001	1.48454E-001	3.57740E+000	9	...........
	21	0.293333	1.40299E-001	-2.78866E-004	0.00000E+000	-3.91245E-005	-1.68088E-001	1.40333E-001	3.57740E+000	9	...........
	22	0.306667	1.32640E-001	-2.79082E-004	0.00000E+000	-3.70175E-005	-1.68088E-001	1.32669E-001	3.57740E+000	9	...........
	23	0.32	1.25409E-001	-2.79750E-004	0.00000E+000	-3.50832E-005	-1.68088E-001	1.25436E-001	3.57740E+000	9	...........
	24	0.333333	1.18584E-001	-2.80809E-004	0.00000E+000	-3.32993E-005	-1.68088E-001	1.18611E-001	3.57740E+000	9	...........
	25	0.346667	1.12121E-001	-2.78846E-004	0.00000E+000	-3.12643E-005	-1.68088E-001	1.12143E-001	3.57740E+000	9	...........
	26	0.36	1.05993E-001	-2.79046E-004	0.00000E+000	-2.95769E-005	-1.68088E-001	1.06015E-001	3.57740E+000	9	...........
	27	0.373333	1.00097E-001	-2.79246E-004	0.00000E+000	-2.79516E-005	-1.68088E-001	1.00126E-001	3.57740E+000	9	...........
	28	0.386667	9.45065E-002	-2.78792E-004	0.00000E+000	-2.63476E-005	-1.68088E-001	9.45361E-002	3.57740E+000	9	...........
	29	0.4	8.91658E-002	-2.80183E-004	0.00000E+000	-2.49827E-005	-1.68088E-001	8.91887E-002	3.57740E+000	9	...........
	30	0.413333	8.40667E-002	-2.77768E-004	0.00000E+000	-2.33511E-005	-1.68088E-001	8.40943E-002	3.57740E+000	9	...........
	31	0.426667	7.91787E-002	-2.77711E-004	0.00000E+000	-2.19888E-005	-1.68088E-001	7.91984E-002	3.57740E+000	9	...........
	32	0.44	7.44835E-002	-2.79248E-004	0.00000E+000	-2.07994E-005	-1.68088E-001	7.44995E-002	3.57740E+000	9	...........
	33	0.453333	6.99889E-002	-2.80587E-004	0.00000E+000	-1.96380E-005	-1.68088E-001	7.00052E-002	3.57740E+000	9	...........
	34	0.466667	6.55954E-002	-2.78704E-004	0.00000E+000	-1.82817E-005	-1.68088E-001	6.56100E-002	3.57740E+000	9	...........
	35	0.48	6.13638E-002	-2.79186E-004	0.00000E+000	-1.71319E-005	-1.68088E-001	6.13740E-002	3.57740E+000	9	...........
	36	0.493333	5.72804E-002	-2.79537E-004	0.00000E+000	-1.60120E-005	-1.68088E-001	5.72882E-002	3.57740E+000	9	...........
	37	0.506667	5.32801E-002	-2.80140E-004	0.00000E+000	-1.49259E-005	-1.68088E-001	5.32877E-002	3.57740E+000	9	...........
	38	0.52	4.94543E-002	-2.77478E-004	0.00000E+000	-1.37225E-005	-1.68088E-001	4.94590E-002	3.57740E+000	9	...........
	39	0.533333	4.56851E-002	-2.77694E-004	0.00000E+000	-1.26865E-005	-1.68088E-001	4.56969E-002	3.57740E+000	9	...........
	40	0.546667	4.20159E-002	-2.78324E-004	0.00000E+000	-1.16940E-005	-1.68088E-001	4.20253E-002	3.57740E+000	9	...........
	41	0.56	3.84338E-002	-2.78897E-004	0.00000E+000	-1.07191E-005	-1.68088E-001	3.84372E-002	3.57740E+000	9	...........
	42	0.573333	3.49684E-002	-2.78777E-004	0.00000E+000	-9.74838E-006	-1.68088E-001	3.49720E-002	3.57740E+000	9	...........
	43	0.586667	3.15888E-002	-2.78907E-004	0.00000E+000	-8.81036E-006	-1.68088E-001	3.15922E-002	3.57740E+000	9	...........
	44	0.6	2.82532E-002	-2.78750E-004	0.00000E+000	-7.87558E-006	-1.68088E-001	2.82510E-002	3.57740E+000	9	...........
	45	0.613333	2.49025E-002	-2.78512E-004	0.00000E+000	-6.93565E-006	-1.68088E-001	2.49035E-002	3.57740E+000	9	...........
	46	0.626667	2.16791E-002	-2.79488E-004	0.00000E+000	-6.05903E-006	-1.68088E-001	2.16730E-002	3.57740E+000	9	...........
	47	0.64	1.85499E-002	-2.78405E-004	0.00000E+000	-5.16440E-006	-1.68088E-001	1.85399E-002	3.57740E+000	9	...........
	48	0.653333	1.54911E-002	-2.79144E-004	0.00000E+000	-4.32425E-006	-1.68088E-001	1.54841E-002	3.57740E+000	9	...........
	49	0.666667	1.24429E-002	-2.79051E-004	0.00000E+000	-3.47221E-006	-1.68088E-001	1.24359E-002	3.57740E+000	9	...........
	50	0.68	9.48013E-003	-2.79628E-004	0.00000E+000	-2.65091E-006	-1.68088E-001	9.46476E-003	3.57740E+000	9	...........
	51	0.693333	6.54349E-003	-2.78926E-004	0.00000E+000	-1.82515E-006	-1.68088E-001	6.52343E-003	3.57740E+000	9	...........
	52	0.706667	3.69898E-003	-2.78725E-004	0.00000E+000	-1.03100E-006	-1.68088E-001	3.68015E-003	3.57740E+000	9	...........
	53	0.718333	1.02731E-003	-2.79602E-004	0.00000E+000	-2.87238E-007	-1.68088E-001	1.00366E-003	3.57740E+000	9	...........
STARTTIMEOFFSET	QUANT	1920.788	Start Time Offset (s)
