EXPLAIN
TAG	PWR800_DISCHARGE
TITLE	LABEL	PWR Cyclic Charge Discharge (Cell) - Discharge Step	Test &Identifier
DATE	LABEL	7-7-2017	Date
TIME	LABEL	15:48:51	Time
NOTES	NOTES	3	&Notes...
	supercap test cell
	2.8mg
	6M KOH
PSTAT	PSTAT	IFC5000-01520	Potentiostat
CAPACITY	QUANT	1.00000E-003	Capacity (A-hr)
CELLTYPE	SELECTOR	1	&Cell Type
WORKINGCONNECTION	SELECTOR	0	&Working Lead
MAXDISCHARGETIME	VARIABLEANDUNITS	1.00000E+002	s	1.00000E+002	second(s)	Max &Discharge Time
DISCHARGEMODE	MULTIPARAM	0	2.80000E-004	&Discharge Mode	Constant Current	Amp(s)
SAMPLETIME	QUANT	1.00000E-002	Sa&mple Period (s)
DISCHARGESTOPAT1	MULTIPARAM	3	0.00000E+000	Discharge Stop At &1	Voltage < Limit	V
DISCHARGESTOPAT2	MULTIPARAM	0	0.00000E+000	Discharge Stop At &2	None	N/A
AESBHCSELECTOR	TOGGLE	F	Save Both Half Cells
IRCOMP	TOGGLE	F	IR &Measure
EOC	QUANT	0	Open Circuit (V)
SEQUENCER	TOGGLE	TRUE	Run as Sequence
PSTATMODEL	IQUANT	53	Pstat Model
PSTATSECTION	LABEL	IFC5000-01520	Pstat Section
PSTATSERIALNO	LABEL	01520	Pstat Serial Number
CTRLMODE	IQUANT	0	Control Mode
ELECTROMETER	IQUANT	1	RE=0 or CS=1
IESTAB	IQUANT	0	I/E Stability
CASPEED	IQUANT	4	Control Amp Speed
CONVENTION	IQUANT	1	Current Convention
ICHRANGE	IQUANT	2	Ich Range
ICHRANGEMODE	TOGGLE	T	Ich Auto Range
ICHOFFSETENABLE	TOGGLE	F	Ich Offset Enable
ICHOFFSET	QUANT	0	Ich Offset (V)
ICHFILTER	IQUANT	1	Ich Filter
VCHRANGE	IQUANT	2	Vch Range
VCHRANGEMODE	TOGGLE	T	Vch Auto Range
VCHOFFSETENABLE	TOGGLE	F	Vch Offset Enable
VCHOFFSET	QUANT	0	Vch Offset (V)
VCHFILTER	IQUANT	1	Vch Filter
IERANGELOWERLIMIT	IQUANT	9	I/E Range Lower Limit
IERANGEMODE	TOGGLE	F	I/E AutoRange
IERANGE	IQUANT	9	I/E Range
ACHSELECT	IQUANT	1	Ach Select
ACHRANGE	IQUANT	2	Ach Range
ACHOFFSETENABLE	TOGGLE	F	Ach Offset Enable
ACHOFFSET	QUANT	0	Ach Offset (V)
ACHFILTER	IQUANT	1	Ach Filter
CABLEID	IQUANT	14	Cable ID
DCCALDATE	LABEL	5-7-2017	DC Calibration Date
ACCALDATE	LABEL	12/3/2015	AC Calibration Date
FRAMEWORKVERSION	QUANT	7.01	Framework Version
INSTRUMENTVERSION	LABEL	4.00	Instrument Version
CURVE	TABLE	93
	Pt	T	Vf	Im	Vu	Pwr	Sig	Ach	Temp	IERange	Over
	#	s	V	A	V	W	V	V	deg C	#	bits
	0	0.013333	5.49998E-001	-2.79034E-004	0.00000E+000	-1.53468E-004	-1.68088E-001	5.50256E-001	3.57902E+000	9	...........
	1	0.026667	5.19580E-001	-2.79016E-004	0.00000E+000	-1.44971E-004	-1.68088E-001	5.19809E-001	3.57790E+000	9	...........
	2	0.04	4.92029E-001	-2.79493E-004	0.00000E+000	-1.37519E-004	-1.68088E-001	4.92265E-001	3.57790E+000	9	...........
	3	0.053333	4.67001E-001	-2.79214E-004	0.00000E+000	-1.30393E-004	-1.68088E-001	4.67111E-001	3.57790E+000	9	...........
	4	0.066667	4.43539E-001	-2.79247E-004	0.00000E+000	-1.23857E-004	-1.68088E-001	4.43653E-001	3.57790E+000	9	...........
	5	0.08	4.21835E-001	-2.78164E-004	0.00000E+000	-1.17340E-004	-1.68088E-001	4.21938E-001	3.57790E+000	9	...........
	6	0.093333	4.01710E-001	-2.79443E-004	0.00000E+000	-1.12255E-004	-1.68088E-001	4.01798E-001	3.57790E+000	9	...........
	7	0.106667	3.83030E-001	-2.78437E-004	0.00000E+000	-1.06650E-004	-1.68088E-001	3.83121E-001	3.57790E+000	9	...........
	8	0.12	3.65696E-001	-2.78707E-004	0.00000E+000	-1.01922E-004	-1.68088E-001	3.65786E-001	3.57790E+000	9	...........
	9	0.133333	3.49601E-001	-2.79270E-004	0.00000E+000	-9.76331E-005	-1.68088E-001	3.49682E-001	3.57790E+000	9	...........
	10	0.146667	3.34629E-001	-2.79562E-004	0.00000E+000	-9.35495E-005	-1.68088E-001	3.34707E-001	3.57790E+000	9	...........
	11	0.16	3.20733E-001	-2.77983E-004	0.00000E+000	-8.91584E-005	-1.68088E-001	3.20813E-001	3.57790E+000	9	...........
	12	0.173333	3.07793E-001	-2.78617E-004	0.00000E+000	-8.57561E-005	-1.68088E-001	3.07865E-001	3.57790E+000	9	...........
	13	0.186667	2.95734E-001	-2.79147E-004	0.00000E+000	-8.25531E-005	-1.68088E-001	2.95802E-001	3.57790E+000	9	...........
	14	0.2	2.84459E-001	-2.79124E-004	0.00000E+000	-7.93992E-005	-1.68088E-001	2.84530E-001	3.57790E+000	9	...........
	15	0.213333	2.73962E-001	-2.78954E-004	0.00000E+000	-7.64228E-005	-1.68088E-001	2.74026E-001	3.57790E+000	9	...........
	16	0.226667	2.64123E-001	-2.78886E-004	0.00000E+000	-7.36603E-005	-1.68088E-001	2.64191E-001	3.57790E+000	9	...........
	17	0.24	2.54909E-001	-2.79518E-004	0.00000E+000	-7.12515E-005	-1.68088E-001	2.54974E-001	3.57790E+000	9	...........
	18	0.253333	2.46277E-001	-2.79126E-004	0.00000E+000	-6.87422E-005	-1.68088E-001	2.46335E-001	3.57790E+000	9	...........
	19	0.266667	2.38088E-001	-2.79608E-004	0.00000E+000	-6.65715E-005	-1.68088E-001	2.38144E-001	3.57790E+000	9	...........
	20	0.28	2.30385E-001	-2.78846E-004	0.00000E+000	-6.42419E-005	-1.68088E-001	2.30433E-001	3.57790E+000	9	...........
	21	0.293333	2.23127E-001	-2.79554E-004	0.00000E+000	-6.23761E-005	-1.68088E-001	2.23177E-001	3.57790E+000	9	...........
	22	0.306667	2.16263E-001	-2.79046E-004	0.00000E+000	-6.03474E-005	-1.68088E-001	2.16313E-001	3.57790E+000	9	...........
	23	0.32	2.09742E-001	-2.79078E-004	0.00000E+000	-5.85343E-005	-1.68088E-001	2.09788E-001	3.57790E+000	9	...........
	24	0.333333	2.03497E-001	-2.79006E-004	0.00000E+000	-5.67770E-005	-1.68088E-001	2.03544E-001	3.57790E+000	9	...........
	25	0.346667	1.97537E-001	-2.79255E-004	0.00000E+000	-5.51631E-005	-1.68088E-001	1.97581E-001	3.57790E+000	9	...........
	26	0.36	1.91803E-001	-2.79483E-004	0.00000E+000	-5.36058E-005	-1.68088E-001	1.91849E-001	3.57790E+000	9	...........
	27	0.373333	1.86344E-001	-2.78209E-004	0.00000E+000	-5.18426E-005	-1.68088E-001	1.86385E-001	3.57790E+000	9	...........
	28	0.386667	1.81167E-001	-2.79094E-004	0.00000E+000	-5.05624E-005	-1.68088E-001	1.81210E-001	3.57790E+000	9	...........
	29	0.4	1.76179E-001	-2.79488E-004	0.00000E+000	-4.92398E-005	-1.68088E-001	1.76217E-001	3.57790E+000	9	...........
	30	0.413333	1.71329E-001	-2.78967E-004	0.00000E+000	-4.77951E-005	-1.68088E-001	1.71374E-001	3.57790E+000	9	...........
	31	0.426667	1.66670E-001	-2.79638E-004	0.00000E+000	-4.66071E-005	-1.68088E-001	1.66714E-001	3.57790E+000	9	...........
	32	0.44	1.62162E-001	-2.78940E-004	0.00000E+000	-4.52333E-005	-1.68088E-001	1.62200E-001	3.57790E+000	9	...........
	33	0.453333	1.57795E-001	-2.79156E-004	0.00000E+000	-4.40494E-005	-1.68088E-001	1.57827E-001	3.57790E+000	9	...........
	34	0.466667	1.53588E-001	-2.79787E-004	0.00000E+000	-4.29718E-005	-1.68088E-001	1.53619E-001	3.57790E+000	9	...........
	35	0.48	1.49493E-001	-2.79670E-004	0.00000E+000	-4.18088E-005	-1.68088E-001	1.49523E-001	3.57790E+000	9	...........
	36	0.493333	1.45551E-001	-2.78607E-004	0.00000E+000	-4.05516E-005	-1.68088E-001	1.45579E-001	3.57790E+000	9	...........
	37	0.506667	1.41712E-001	-2.79023E-004	0.00000E+000	-3.95409E-005	-1.68088E-001	1.41743E-001	3.57790E+000	9	...........
	38	0.52	1.37946E-001	-2.78737E-004	0.00000E+000	-3.84507E-005	-1.68088E-001	1.37977E-001	3.57790E+000	9	...........
	39	0.533333	1.34307E-001	-2.79617E-004	0.00000E+000	-3.75544E-005	-1.68088E-001	1.34332E-001	3.57790E+000	9	...........
	40	0.546667	1.30756E-001	-2.80189E-004	0.00000E+000	-3.66365E-005	-1.68088E-001	1.30784E-001	3.57790E+000	9	...........
	41	0.56	1.27258E-001	-2.79699E-004	0.00000E+000	-3.55939E-005	-1.68088E-001	1.27283E-001	3.57790E+000	9	...........
	42	0.573333	1.23878E-001	-2.78822E-004	0.00000E+000	-3.45400E-005	-1.68088E-001	1.23910E-001	3.57790E+000	9	...........
	43	0.586667	1.20528E-001	-2.78968E-004	0.00000E+000	-3.36235E-005	-1.68088E-001	1.20555E-001	3.57790E+000	9	...........
	44	0.6	1.17278E-001	-2.79422E-004	0.00000E+000	-3.27700E-005	-1.68088E-001	1.17300E-001	3.57790E+000	9	...........
	45	0.613333	1.14050E-001	-2.78917E-004	0.00000E+000	-3.18104E-005	-1.68088E-001	1.14072E-001	3.57790E+000	9	...........
	46	0.626667	1.10889E-001	-2.78647E-004	0.00000E+000	-3.08987E-005	-1.68088E-001	1.10913E-001	3.57790E+000	9	...........
	47	0.64	1.07807E-001	-2.79330E-004	0.00000E+000	-3.01137E-005	-1.68088E-001	1.07827E-001	3.57790E+000	9	...........
	48	0.653333	1.04775E-001	-2.78766E-004	0.00000E+000	-2.92077E-005	-1.68088E-001	1.04799E-001	3.57790E+000	9	...........
	49	0.666667	1.01731E-001	-2.79230E-004	0.00000E+000	-2.84063E-005	-1.68088E-001	1.01760E-001	3.57790E+000	9	...........
	50	0.68	9.87246E-002	-2.79673E-004	0.00000E+000	-2.76106E-005	-1.68088E-001	9.87483E-002	3.57790E+000	9	...........
	51	0.693333	9.57630E-002	-2.79028E-004	0.00000E+000	-2.67206E-005	-1.68088E-001	9.57889E-002	3.57790E+000	9	...........
	52	0.706667	9.28844E-002	-2.78904E-004	0.00000E+000	-2.59058E-005	-1.68088E-001	9.29080E-002	3.57790E+000	9	...........
	53	0.72	9.00852E-002	-2.78829E-004	0.00000E+000	-2.51184E-005	-1.68088E-001	9.01086E-002	3.57790E+000	9	...........
	54	0.733333	8.72959E-002	-2.79461E-004	0.00000E+000	-2.43958E-005	-1.68088E-001	8.73180E-002	3.57790E+000	9	...........
	55	0.746667	8.45021E-002	-2.79296E-004	0.00000E+000	-2.36011E-005	-1.68088E-001	8.45293E-002	3.57790E+000	9	...........
	56	0.76	8.17626E-002	-2.78924E-004	0.00000E+000	-2.28055E-005	-1.68088E-001	8.17812E-002	3.57790E+000	9	...........
	57	0.773333	7.90970E-002	-2.78929E-004	0.00000E+000	-2.20625E-005	-1.68088E-001	7.91144E-002	3.57790E+000	9	...........
	58	0.786667	7.64842E-002	-2.79362E-004	0.00000E+000	-2.13668E-005	-1.68088E-001	7.65030E-002	3.57790E+000	9	...........
	59	0.8	7.38959E-002	-2.79704E-004	0.00000E+000	-2.06690E-005	-1.68088E-001	7.39057E-002	3.57790E+000	9	...........
	60	0.813333	7.13035E-002	-2.78723E-004	0.00000E+000	-1.98739E-005	-1.68088E-001	7.13193E-002	3.57790E+000	9	...........
	61	0.826667	6.87495E-002	-2.79018E-004	0.00000E+000	-1.91823E-005	-1.68088E-001	6.87634E-002	3.57790E+000	9	...........
	62	0.84	6.62306E-002	-2.79192E-004	0.00000E+000	-1.84910E-005	-1.68088E-001	6.62444E-002	3.57790E+000	9	...........
	63	0.853333	6.36945E-002	-2.80065E-004	0.00000E+000	-1.78386E-005	-1.68088E-001	6.37101E-002	3.57790E+000	9	...........
	64	0.866667	6.12145E-002	-2.78825E-004	0.00000E+000	-1.70681E-005	-1.68088E-001	6.12235E-002	3.57790E+000	9	...........
	65	0.88	5.87687E-002	-2.78777E-004	0.00000E+000	-1.63834E-005	-1.68088E-001	5.87771E-002	3.57790E+000	9	...........
	66	0.893333	5.63816E-002	-2.79421E-004	0.00000E+000	-1.57542E-005	-1.68088E-001	5.63863E-002	3.57790E+000	9	...........
	67	0.906667	5.40170E-002	-2.79090E-004	0.00000E+000	-1.50756E-005	-1.68088E-001	5.40202E-002	3.57790E+000	9	...........
	68	0.92	5.16913E-002	-2.78906E-004	0.00000E+000	-1.44170E-005	-1.68088E-001	5.17009E-002	3.57790E+000	9	...........
	69	0.933333	4.93746E-002	-2.79565E-004	0.00000E+000	-1.38034E-005	-1.68088E-001	4.93758E-002	3.57790E+000	9	...........
	70	0.946667	4.70619E-002	-2.79375E-004	0.00000E+000	-1.31479E-005	-1.68088E-001	4.70744E-002	3.57790E+000	9	...........
	71	0.96	4.47734E-002	-2.79252E-004	0.00000E+000	-1.25031E-005	-1.68088E-001	4.47874E-002	3.57790E+000	9	...........
	72	0.97333	4.25308E-002	-2.78601E-004	0.00000E+000	-1.18491E-005	-1.68088E-001	4.25389E-002	3.57790E+000	9	...........
	73	0.98667	4.02908E-002	-2.79025E-004	0.00000E+000	-1.12421E-005	-1.68088E-001	4.03003E-002	3.57790E+000	9	...........
	74	1	3.80825E-002	-2.78897E-004	0.00000E+000	-1.06211E-005	-1.68088E-001	3.80865E-002	3.57790E+000	9	...........
	75	1.01333	3.59078E-002	-2.78932E-004	0.00000E+000	-1.00158E-005	-1.68088E-001	3.59126E-002	3.57792E+000	9	...........
	76	1.02667	3.37364E-002	-2.78328E-004	0.00000E+000	-9.38978E-006	-1.68088E-001	3.37337E-002	3.57800E+000	9	...........
	77	1.04	3.15189E-002	-2.79587E-004	0.00000E+000	-8.81225E-006	-1.68088E-001	3.15133E-002	3.57800E+000	9	...........
	78	1.05333	2.94276E-002	-2.79456E-004	0.00000E+000	-8.22372E-006	-1.68088E-001	2.94267E-002	3.57800E+000	9	...........
	79	1.06667	2.73517E-002	-2.79159E-004	0.00000E+000	-7.63549E-006	-1.68088E-001	2.73496E-002	3.57800E+000	9	...........
	80	1.08	2.52622E-002	-2.79456E-004	0.00000E+000	-7.05968E-006	-1.68088E-001	2.52633E-002	3.57800E+000	9	...........
	81	1.09333	2.31402E-002	-2.78960E-004	0.00000E+000	-6.45521E-006	-1.68088E-001	2.31361E-002	3.57800E+000	9	...........
	82	1.10667	2.10385E-002	-2.79484E-004	0.00000E+000	-5.87993E-006	-1.68088E-001	2.10281E-002	3.57800E+000	9	...........
	83	1.12	1.89760E-002	-2.78959E-004	0.00000E+000	-5.29353E-006	-1.68088E-001	1.89698E-002	3.57800E+000	9	...........
	84	1.13333	1.68610E-002	-2.77849E-004	0.00000E+000	-4.68480E-006	-1.68088E-001	1.68537E-002	3.57800E+000	9	...........
	85	1.14667	1.47626E-002	-2.78476E-004	0.00000E+000	-4.11104E-006	-1.68088E-001	1.47478E-002	3.57800E+000	9	...........
	86	1.16	1.27044E-002	-2.79185E-004	0.00000E+000	-3.54690E-006	-1.68088E-001	1.26935E-002	3.57800E+000	9	...........
	87	1.17333	1.06954E-002	-2.79122E-004	0.00000E+000	-2.98532E-006	-1.68088E-001	1.06787E-002	3.57800E+000	9	...........
	88	1.18667	8.70741E-003	-2.78753E-004	0.00000E+000	-2.42722E-006	-1.68088E-001	8.69446E-003	3.57800E+000	9	...........
	89	1.2	6.66798E-003	-2.80148E-004	0.00000E+000	-1.86802E-006	-1.68088E-001	6.64544E-003	3.57800E+000	9	...........
	90	1.21333	4.68265E-003	-2.78645E-004	0.00000E+000	-1.30480E-006	-1.68088E-001	4.66538E-003	3.57800E+000	9	...........
	91	1.22667	2.72193E-003	-2.78498E-004	0.00000E+000	-7.58051E-007	-1.68088E-001	2.69909E-003	3.57800E+000	9	...........
	92	1.24	7.43235E-004	-2.78650E-004	0.00000E+000	-2.07102E-007	-1.68088E-001	7.20971E-004	3.57800E+000	9	...........
STARTTIMEOFFSET	QUANT	620.2617	Start Time Offset (s)
