EXPLAIN
TAG	PWR800_DISCHARGE
TITLE	LABEL	PWR Cyclic Charge Discharge (Cell) - Discharge Step	Test &Identifier
DATE	LABEL	7-7-2017	Date
TIME	LABEL	16:14:27	Time
NOTES	NOTES	3	&Notes...
	supercap test cell
	2.8mg
	6M KOH
PSTAT	PSTAT	IFC5000-01520	Potentiostat
CAPACITY	QUANT	1.00000E-003	Capacity (A-hr)
CELLTYPE	SELECTOR	1	&Cell Type
WORKINGCONNECTION	SELECTOR	0	&Working Lead
MAXDISCHARGETIME	VARIABLEANDUNITS	1.00000E+002	s	1.00000E+002	second(s)	Max &Discharge Time
DISCHARGEMODE	MULTIPARAM	0	2.80000E-004	&Discharge Mode	Constant Current	Amp(s)
SAMPLETIME	QUANT	1.00000E-002	Sa&mple Period (s)
DISCHARGESTOPAT1	MULTIPARAM	3	0.00000E+000	Discharge Stop At &1	Voltage < Limit	V
DISCHARGESTOPAT2	MULTIPARAM	0	0.00000E+000	Discharge Stop At &2	None	N/A
AESBHCSELECTOR	TOGGLE	F	Save Both Half Cells
IRCOMP	TOGGLE	F	IR &Measure
EOC	QUANT	0	Open Circuit (V)
SEQUENCER	TOGGLE	TRUE	Run as Sequence
PSTATMODEL	IQUANT	53	Pstat Model
PSTATSECTION	LABEL	IFC5000-01520	Pstat Section
PSTATSERIALNO	LABEL	01520	Pstat Serial Number
CTRLMODE	IQUANT	0	Control Mode
ELECTROMETER	IQUANT	1	RE=0 or CS=1
IESTAB	IQUANT	0	I/E Stability
CASPEED	IQUANT	4	Control Amp Speed
CONVENTION	IQUANT	1	Current Convention
ICHRANGE	IQUANT	2	Ich Range
ICHRANGEMODE	TOGGLE	T	Ich Auto Range
ICHOFFSETENABLE	TOGGLE	F	Ich Offset Enable
ICHOFFSET	QUANT	0	Ich Offset (V)
ICHFILTER	IQUANT	1	Ich Filter
VCHRANGE	IQUANT	2	Vch Range
VCHRANGEMODE	TOGGLE	T	Vch Auto Range
VCHOFFSETENABLE	TOGGLE	F	Vch Offset Enable
VCHOFFSET	QUANT	0	Vch Offset (V)
VCHFILTER	IQUANT	1	Vch Filter
IERANGELOWERLIMIT	IQUANT	9	I/E Range Lower Limit
IERANGEMODE	TOGGLE	F	I/E AutoRange
IERANGE	IQUANT	9	I/E Range
ACHSELECT	IQUANT	1	Ach Select
ACHRANGE	IQUANT	2	Ach Range
ACHOFFSETENABLE	TOGGLE	F	Ach Offset Enable
ACHOFFSET	QUANT	0	Ach Offset (V)
ACHFILTER	IQUANT	1	Ach Filter
CABLEID	IQUANT	14	Cable ID
DCCALDATE	LABEL	5-7-2017	DC Calibration Date
ACCALDATE	LABEL	12/3/2015	AC Calibration Date
FRAMEWORKVERSION	QUANT	7.01	Framework Version
INSTRUMENTVERSION	LABEL	4.00	Instrument Version
CURVE	TABLE	58
	Pt	T	Vf	Im	Vu	Pwr	Sig	Ach	Temp	IERange	Over
	#	s	V	A	V	W	V	V	deg C	#	bits
	0	0.013333	5.26522E-001	-2.78841E-004	0.00000E+000	-1.46816E-004	-1.68088E-001	5.26714E-001	3.57840E+000	9	...........
	1	0.026667	4.92926E-001	-2.79063E-004	0.00000E+000	-1.37557E-004	-1.68088E-001	4.93106E-001	3.57840E+000	9	...........
	2	0.04	4.62309E-001	-2.79980E-004	0.00000E+000	-1.29438E-004	-1.68088E-001	4.62416E-001	3.57840E+000	9	...........
	3	0.053333	4.33573E-001	-2.79225E-004	0.00000E+000	-1.21064E-004	-1.68088E-001	4.33668E-001	3.57840E+000	9	...........
	4	0.066667	4.06725E-001	-2.79415E-004	0.00000E+000	-1.13645E-004	-1.68088E-001	4.06814E-001	3.57840E+000	9	...........
	5	0.08	3.81627E-001	-2.79158E-004	0.00000E+000	-1.06534E-004	-1.68088E-001	3.81708E-001	3.57840E+000	9	...........
	6	0.093333	3.58183E-001	-2.78468E-004	0.00000E+000	-9.97423E-005	-1.68088E-001	3.58263E-001	3.57840E+000	9	...........
	7	0.106667	3.36301E-001	-2.78499E-004	0.00000E+000	-9.36596E-005	-1.68088E-001	3.36380E-001	3.57840E+000	9	...........
	8	0.12	3.15905E-001	-2.79413E-004	0.00000E+000	-8.82679E-005	-1.68088E-001	3.15982E-001	3.57840E+000	9	...........
	9	0.133333	2.96893E-001	-2.79249E-004	0.00000E+000	-8.29071E-005	-1.68088E-001	2.96967E-001	3.57840E+000	9	...........
	10	0.146667	2.79229E-001	-2.78869E-004	0.00000E+000	-7.78681E-005	-1.68088E-001	2.79301E-001	3.57840E+000	9	...........
	11	0.16	2.62845E-001	-2.77622E-004	0.00000E+000	-7.29714E-005	-1.68088E-001	2.62916E-001	3.57840E+000	9	...........
	12	0.173333	2.47621E-001	-2.78645E-004	0.00000E+000	-6.89983E-005	-1.68088E-001	2.47686E-001	3.57840E+000	9	...........
	13	0.186667	2.33486E-001	-2.78254E-004	0.00000E+000	-6.49685E-005	-1.68088E-001	2.33542E-001	3.57840E+000	9	...........
	14	0.2	2.20358E-001	-2.79045E-004	0.00000E+000	-6.14897E-005	-1.68088E-001	2.20405E-001	3.57840E+000	9	...........
	15	0.213333	2.08165E-001	-2.79472E-004	0.00000E+000	-5.81762E-005	-1.68088E-001	2.08210E-001	3.57840E+000	9	...........
	16	0.226667	1.96811E-001	-2.79288E-004	0.00000E+000	-5.49669E-005	-1.68088E-001	1.96855E-001	3.57744E+000	9	...........
	17	0.24	1.86230E-001	-2.78129E-004	0.00000E+000	-5.17961E-005	-1.68088E-001	1.86281E-001	3.57730E+000	9	...........
	18	0.253333	1.76339E-001	-2.79922E-004	0.00000E+000	-4.93611E-005	-1.68088E-001	1.76379E-001	3.57730E+000	9	...........
	19	0.266667	1.67106E-001	-2.78922E-004	0.00000E+000	-4.66096E-005	-1.68088E-001	1.67151E-001	3.57730E+000	9	...........
	20	0.28	1.58420E-001	-2.79463E-004	0.00000E+000	-4.42726E-005	-1.68088E-001	1.58460E-001	3.57730E+000	9	...........
	21	0.293333	1.50289E-001	-2.79524E-004	0.00000E+000	-4.20095E-005	-1.68088E-001	1.50327E-001	3.57730E+000	9	...........
	22	0.306667	1.42621E-001	-2.79593E-004	0.00000E+000	-3.98758E-005	-1.68088E-001	1.42654E-001	3.57730E+000	9	...........
	23	0.32	1.35416E-001	-2.78411E-004	0.00000E+000	-3.77014E-005	-1.68088E-001	1.35450E-001	3.57730E+000	9	...........
	24	0.333333	1.28610E-001	-2.78510E-004	0.00000E+000	-3.58191E-005	-1.68088E-001	1.28639E-001	3.57730E+000	9	...........
	25	0.346667	1.22151E-001	-2.79529E-004	0.00000E+000	-3.41449E-005	-1.68088E-001	1.22185E-001	3.57730E+000	9	...........
	26	0.36	1.16001E-001	-2.79756E-004	0.00000E+000	-3.24521E-005	-1.68088E-001	1.16034E-001	3.57730E+000	9	...........
	27	0.373333	1.10146E-001	-2.77248E-004	0.00000E+000	-3.05378E-005	-1.68088E-001	1.10179E-001	3.57730E+000	9	...........
	28	0.386667	1.04594E-001	-2.79341E-004	0.00000E+000	-2.92175E-005	-1.68088E-001	1.04624E-001	3.57730E+000	9	...........
	29	0.4	9.93320E-002	-2.78776E-004	0.00000E+000	-2.76914E-005	-1.68088E-001	9.93585E-002	3.57730E+000	9	...........
	30	0.413333	9.42745E-002	-2.79171E-004	0.00000E+000	-2.63187E-005	-1.68088E-001	9.42988E-002	3.57730E+000	9	...........
	31	0.426667	8.93796E-002	-2.79136E-004	0.00000E+000	-2.49491E-005	-1.68088E-001	8.94058E-002	3.57730E+000	9	...........
	32	0.44	8.46603E-002	-2.78404E-004	0.00000E+000	-2.35698E-005	-1.68088E-001	8.46843E-002	3.57730E+000	9	...........
	33	0.453333	8.01620E-002	-2.79174E-004	0.00000E+000	-2.23791E-005	-1.68088E-001	8.01828E-002	3.57730E+000	9	...........
	34	0.466667	7.57755E-002	-2.79222E-004	0.00000E+000	-2.11582E-005	-1.68088E-001	7.57920E-002	3.57730E+000	9	...........
	35	0.48	7.15509E-002	-2.79799E-004	0.00000E+000	-2.00199E-005	-1.68088E-001	7.15669E-002	3.57730E+000	9	...........
	36	0.493333	6.73989E-002	-2.78780E-004	0.00000E+000	-1.87895E-005	-1.68088E-001	6.74086E-002	3.57730E+000	9	...........
	37	0.506667	6.33648E-002	-2.78246E-004	0.00000E+000	-1.76310E-005	-1.68088E-001	6.33761E-002	3.57730E+000	9	...........
	38	0.52	5.94794E-002	-2.79135E-004	0.00000E+000	-1.66028E-005	-1.68088E-001	5.94916E-002	3.57730E+000	9	...........
	39	0.533333	5.56960E-002	-2.79619E-004	0.00000E+000	-1.55736E-005	-1.68088E-001	5.57080E-002	3.57730E+000	9	...........
	40	0.546667	5.20119E-002	-2.79797E-004	0.00000E+000	-1.45528E-005	-1.68088E-001	5.20271E-002	3.57730E+000	9	...........
	41	0.56	4.84587E-002	-2.78539E-004	0.00000E+000	-1.34977E-005	-1.68088E-001	4.84658E-002	3.57730E+000	9	...........
	42	0.573333	4.50078E-002	-2.78511E-004	0.00000E+000	-1.25352E-005	-1.68088E-001	4.50207E-002	3.57730E+000	9	...........
	43	0.586667	4.16418E-002	-2.78635E-004	0.00000E+000	-1.16029E-005	-1.68088E-001	4.16467E-002	3.57730E+000	9	...........
	44	0.6	3.83376E-002	-2.79012E-004	0.00000E+000	-1.06967E-005	-1.68088E-001	3.83424E-002	3.57730E+000	9	...........
	45	0.613333	3.51375E-002	-2.78658E-004	0.00000E+000	-9.79137E-006	-1.68088E-001	3.51429E-002	3.57730E+000	9	...........
	46	0.626667	3.19397E-002	-2.79942E-004	0.00000E+000	-8.94125E-006	-1.68088E-001	3.19396E-002	3.57730E+000	9	...........
	47	0.64	2.87403E-002	-2.79952E-004	0.00000E+000	-8.04592E-006	-1.68088E-001	2.87404E-002	3.57730E+000	9	...........
	48	0.653333	2.56189E-002	-2.78477E-004	0.00000E+000	-7.13427E-006	-1.68088E-001	2.56186E-002	3.57730E+000	9	...........
	49	0.666667	2.26056E-002	-2.79561E-004	0.00000E+000	-6.31964E-006	-1.68088E-001	2.26025E-002	3.57730E+000	9	...........
	50	0.68	1.96602E-002	-2.78748E-004	0.00000E+000	-5.48024E-006	-1.68088E-001	1.96506E-002	3.57730E+000	9	...........
	51	0.693333	1.67583E-002	-2.78080E-004	0.00000E+000	-4.66014E-006	-1.68088E-001	1.67504E-002	3.57730E+000	9	...........
	52	0.706667	1.38680E-002	-2.79479E-004	0.00000E+000	-3.87583E-006	-1.68088E-001	1.38577E-002	3.57730E+000	9	...........
	53	0.72	1.10496E-002	-2.78680E-004	0.00000E+000	-3.07930E-006	-1.68088E-001	1.10423E-002	3.57730E+000	9	...........
	54	0.733333	8.22977E-003	-2.78830E-004	0.00000E+000	-2.29471E-006	-1.68088E-001	8.21502E-003	3.57730E+000	9	...........
	55	0.746667	5.44599E-003	-2.79120E-004	0.00000E+000	-1.52008E-006	-1.68088E-001	5.43136E-003	3.57730E+000	9	...........
	56	0.76	2.72635E-003	-2.79659E-004	0.00000E+000	-7.62448E-007	-1.68088E-001	2.71090E-003	3.57730E+000	9	...........
	57	0.768333	5.49731E-004	-2.79321E-004	0.00000E+000	-1.53552E-007	-1.68088E-001	5.32730E-004	3.57730E+000	9	...........
STARTTIMEOFFSET	QUANT	1702.292	Start Time Offset (s)
