EXPLAIN
TAG	PWR800_DISCHARGE
TITLE	LABEL	PWR Cyclic Charge Discharge (Cell) - Discharge Step	Test &Identifier
DATE	LABEL	7-7-2017	Date
TIME	LABEL	16:22:14	Time
NOTES	NOTES	3	&Notes...
	supercap test cell
	2.8mg
	6M KOH
PSTAT	PSTAT	IFC5000-01520	Potentiostat
CAPACITY	QUANT	1.00000E-003	Capacity (A-hr)
CELLTYPE	SELECTOR	1	&Cell Type
WORKINGCONNECTION	SELECTOR	0	&Working Lead
MAXDISCHARGETIME	VARIABLEANDUNITS	1.00000E+002	s	1.00000E+002	second(s)	Max &Discharge Time
DISCHARGEMODE	MULTIPARAM	0	2.80000E-004	&Discharge Mode	Constant Current	Amp(s)
SAMPLETIME	QUANT	1.00000E-002	Sa&mple Period (s)
DISCHARGESTOPAT1	MULTIPARAM	3	0.00000E+000	Discharge Stop At &1	Voltage < Limit	V
DISCHARGESTOPAT2	MULTIPARAM	0	0.00000E+000	Discharge Stop At &2	None	N/A
AESBHCSELECTOR	TOGGLE	F	Save Both Half Cells
IRCOMP	TOGGLE	F	IR &Measure
EOC	QUANT	0	Open Circuit (V)
SEQUENCER	TOGGLE	TRUE	Run as Sequence
PSTATMODEL	IQUANT	53	Pstat Model
PSTATSECTION	LABEL	IFC5000-01520	Pstat Section
PSTATSERIALNO	LABEL	01520	Pstat Serial Number
CTRLMODE	IQUANT	0	Control Mode
ELECTROMETER	IQUANT	1	RE=0 or CS=1
IESTAB	IQUANT	0	I/E Stability
CASPEED	IQUANT	4	Control Amp Speed
CONVENTION	IQUANT	1	Current Convention
ICHRANGE	IQUANT	2	Ich Range
ICHRANGEMODE	TOGGLE	T	Ich Auto Range
ICHOFFSETENABLE	TOGGLE	F	Ich Offset Enable
ICHOFFSET	QUANT	0	Ich Offset (V)
ICHFILTER	IQUANT	1	Ich Filter
VCHRANGE	IQUANT	2	Vch Range
VCHRANGEMODE	TOGGLE	T	Vch Auto Range
VCHOFFSETENABLE	TOGGLE	F	Vch Offset Enable
VCHOFFSET	QUANT	0	Vch Offset (V)
VCHFILTER	IQUANT	1	Vch Filter
IERANGELOWERLIMIT	IQUANT	9	I/E Range Lower Limit
IERANGEMODE	TOGGLE	F	I/E AutoRange
IERANGE	IQUANT	9	I/E Range
ACHSELECT	IQUANT	1	Ach Select
ACHRANGE	IQUANT	2	Ach Range
ACHOFFSETENABLE	TOGGLE	F	Ach Offset Enable
ACHOFFSET	QUANT	0	Ach Offset (V)
ACHFILTER	IQUANT	1	Ach Filter
CABLEID	IQUANT	14	Cable ID
DCCALDATE	LABEL	5-7-2017	DC Calibration Date
ACCALDATE	LABEL	12/3/2015	AC Calibration Date
FRAMEWORKVERSION	QUANT	7.01	Framework Version
INSTRUMENTVERSION	LABEL	4.00	Instrument Version
CURVE	TABLE	53
	Pt	T	Vf	Im	Vu	Pwr	Sig	Ach	Temp	IERange	Over
	#	s	V	A	V	W	V	V	deg C	#	bits
	0	0.013333	5.20541E-001	-2.77878E-004	0.00000E+000	-1.44647E-004	-1.68088E-001	5.20790E-001	3.57780E+000	9	...........
	1	0.026667	4.86558E-001	-2.78058E-004	0.00000E+000	-1.35291E-004	-1.68088E-001	4.86765E-001	3.57780E+000	9	...........
	2	0.04	4.55396E-001	-2.78585E-004	0.00000E+000	-1.26867E-004	-1.68088E-001	4.55500E-001	3.57780E+000	9	...........
	3	0.053333	4.26210E-001	-2.77940E-004	0.00000E+000	-1.18461E-004	-1.68088E-001	4.26306E-001	3.57780E+000	9	...........
	4	0.066667	3.98937E-001	-2.77650E-004	0.00000E+000	-1.10765E-004	-1.68088E-001	3.99028E-001	3.57780E+000	9	...........
	5	0.08	3.73401E-001	-2.77651E-004	0.00000E+000	-1.03675E-004	-1.68088E-001	3.73487E-001	3.57780E+000	9	...........
	6	0.093333	3.49508E-001	-2.78287E-004	0.00000E+000	-9.72637E-005	-1.68088E-001	3.49585E-001	3.57780E+000	9	...........
	7	0.106667	3.27195E-001	-2.79419E-004	0.00000E+000	-9.14244E-005	-1.68088E-001	3.27268E-001	3.57780E+000	9	...........
	8	0.12	3.06388E-001	-2.80206E-004	0.00000E+000	-8.58518E-005	-1.68088E-001	3.06451E-001	3.57775E+000	9	...........
	9	0.133333	2.87005E-001	-2.80277E-004	0.00000E+000	-8.04409E-005	-1.68088E-001	2.87065E-001	3.57740E+000	9	...........
	10	0.146667	2.69019E-001	-2.78982E-004	0.00000E+000	-7.50515E-005	-1.68088E-001	2.69080E-001	3.57740E+000	9	...........
	11	0.16	2.52307E-001	-2.78853E-004	0.00000E+000	-7.03566E-005	-1.68088E-001	2.52364E-001	3.57740E+000	9	...........
	12	0.173333	2.36828E-001	-2.78709E-004	0.00000E+000	-6.60063E-005	-1.68088E-001	2.36881E-001	3.57740E+000	9	...........
	13	0.186667	2.22442E-001	-2.78951E-004	0.00000E+000	-6.20503E-005	-1.68088E-001	2.22486E-001	3.57740E+000	9	...........
	14	0.2	2.09058E-001	-2.79306E-004	0.00000E+000	-5.83912E-005	-1.68088E-001	2.09107E-001	3.57740E+000	9	...........
	15	0.213333	1.96635E-001	-2.79099E-004	0.00000E+000	-5.48807E-005	-1.68088E-001	1.96682E-001	3.57740E+000	9	...........
	16	0.226667	1.85090E-001	-2.80136E-004	0.00000E+000	-5.18503E-005	-1.68088E-001	1.85136E-001	3.57740E+000	9	...........
	17	0.24	1.74334E-001	-2.79984E-004	0.00000E+000	-4.88106E-005	-1.68088E-001	1.74371E-001	3.57740E+000	9	...........
	18	0.253333	1.64313E-001	-2.78721E-004	0.00000E+000	-4.57975E-005	-1.68088E-001	1.64351E-001	3.57740E+000	9	...........
	19	0.266667	1.54961E-001	-2.79332E-004	0.00000E+000	-4.32856E-005	-1.68088E-001	1.54995E-001	3.57740E+000	9	...........
	20	0.28	1.46228E-001	-2.79192E-004	0.00000E+000	-4.08257E-005	-1.68088E-001	1.46262E-001	3.57740E+000	9	...........
	21	0.293333	1.37979E-001	-2.78705E-004	0.00000E+000	-3.84555E-005	-1.68088E-001	1.38005E-001	3.57740E+000	9	...........
	22	0.306667	1.30222E-001	-2.79369E-004	0.00000E+000	-3.63800E-005	-1.68088E-001	1.30250E-001	3.57740E+000	9	...........
	23	0.32	1.22952E-001	-2.77856E-004	0.00000E+000	-3.41629E-005	-1.68088E-001	1.22984E-001	3.57740E+000	9	...........
	24	0.333333	1.16030E-001	-2.79079E-004	0.00000E+000	-3.23817E-005	-1.68088E-001	1.16068E-001	3.57740E+000	9	...........
	25	0.346667	1.09502E-001	-2.78662E-004	0.00000E+000	-3.05141E-005	-1.68088E-001	1.09531E-001	3.57740E+000	9	...........
	26	0.36	1.03318E-001	-2.78939E-004	0.00000E+000	-2.88193E-005	-1.68088E-001	1.03340E-001	3.57740E+000	9	...........
	27	0.373333	9.74419E-002	-2.79551E-004	0.00000E+000	-2.72400E-005	-1.68088E-001	9.74653E-002	3.57740E+000	9	...........
	28	0.386667	9.18039E-002	-2.79297E-004	0.00000E+000	-2.56406E-005	-1.68088E-001	9.18259E-002	3.57740E+000	9	...........
	29	0.4	8.64380E-002	-2.79119E-004	0.00000E+000	-2.41265E-005	-1.68088E-001	8.64566E-002	3.57740E+000	9	...........
	30	0.413333	8.13087E-002	-2.78001E-004	0.00000E+000	-2.26039E-005	-1.68088E-001	8.13244E-002	3.57740E+000	9	...........
	31	0.426667	7.64092E-002	-2.78696E-004	0.00000E+000	-2.12949E-005	-1.68088E-001	7.64189E-002	3.57740E+000	9	...........
	32	0.44	7.16741E-002	-2.78987E-004	0.00000E+000	-1.99962E-005	-1.68088E-001	7.16826E-002	3.57740E+000	9	...........
	33	0.453333	6.70877E-002	-2.78116E-004	0.00000E+000	-1.86582E-005	-1.68088E-001	6.71019E-002	3.57740E+000	9	...........
	34	0.466667	6.26843E-002	-2.78107E-004	0.00000E+000	-1.74330E-005	-1.68088E-001	6.26969E-002	3.57740E+000	9	...........
	35	0.48	5.84333E-002	-2.78684E-004	0.00000E+000	-1.62844E-005	-1.68088E-001	5.84405E-002	3.57740E+000	9	...........
	36	0.493333	5.43033E-002	-2.79054E-004	0.00000E+000	-1.51536E-005	-1.68088E-001	5.43065E-002	3.57740E+000	9	...........
	37	0.506667	5.03796E-002	-2.78111E-004	0.00000E+000	-1.40111E-005	-1.68088E-001	5.03843E-002	3.57740E+000	9	...........
	38	0.52	4.65649E-002	-2.78445E-004	0.00000E+000	-1.29658E-005	-1.68088E-001	4.65700E-002	3.57740E+000	9	...........
	39	0.533333	4.27777E-002	-2.79105E-004	0.00000E+000	-1.19395E-005	-1.68088E-001	4.27857E-002	3.57740E+000	9	...........
	40	0.546667	3.90882E-002	-2.78026E-004	0.00000E+000	-1.08675E-005	-1.68088E-001	3.90940E-002	3.57740E+000	9	...........
	41	0.56	3.55044E-002	-2.79473E-004	0.00000E+000	-9.92253E-006	-1.68088E-001	3.55075E-002	3.57740E+000	9	...........
	42	0.573333	3.20613E-002	-2.78093E-004	0.00000E+000	-8.91600E-006	-1.68088E-001	3.20628E-002	3.57740E+000	9	...........
	43	0.586667	2.86651E-002	-2.77726E-004	0.00000E+000	-7.96104E-006	-1.68088E-001	2.86658E-002	3.57740E+000	9	...........
	44	0.6	2.53462E-002	-2.79744E-004	0.00000E+000	-7.09044E-006	-1.68088E-001	2.53383E-002	3.57740E+000	9	...........
	45	0.613333	2.20699E-002	-2.79272E-004	0.00000E+000	-6.16351E-006	-1.68088E-001	2.20645E-002	3.57740E+000	9	...........
	46	0.626667	1.88769E-002	-2.77747E-004	0.00000E+000	-5.24300E-006	-1.68088E-001	1.88679E-002	3.57740E+000	9	...........
	47	0.64	1.57172E-002	-2.78369E-004	0.00000E+000	-4.37517E-006	-1.68088E-001	1.57167E-002	3.57740E+000	9	...........
	48	0.653333	1.26154E-002	-2.79375E-004	0.00000E+000	-3.52442E-006	-1.68088E-001	1.26042E-002	3.57740E+000	9	...........
	49	0.666667	9.56391E-003	-2.79640E-004	0.00000E+000	-2.67445E-006	-1.68088E-001	9.54962E-003	3.57740E+000	9	...........
	50	0.68	6.65091E-003	-2.77214E-004	0.00000E+000	-1.84373E-006	-1.68088E-001	6.63290E-003	3.57740E+000	9	...........
	51	0.693333	3.76464E-003	-2.78462E-004	0.00000E+000	-1.04831E-006	-1.68088E-001	3.75059E-003	3.57740E+000	9	...........
	52	0.705	1.06258E-003	-2.79053E-004	0.00000E+000	-2.96516E-007	-1.68088E-001	1.04216E-003	3.57740E+000	9	...........
STARTTIMEOFFSET	QUANT	2008.704	Start Time Offset (s)
