EXPLAIN
TAG	PWR800_DISCHARGE
TITLE	LABEL	PWR Cyclic Charge Discharge (Cell) - Discharge Step	Test &Identifier
DATE	LABEL	7-7-2017	Date
TIME	LABEL	16:00:52	Time
NOTES	NOTES	3	&Notes...
	supercap test cell
	2.8mg
	6M KOH
PSTAT	PSTAT	IFC5000-01520	Potentiostat
CAPACITY	QUANT	1.00000E-003	Capacity (A-hr)
CELLTYPE	SELECTOR	1	&Cell Type
WORKINGCONNECTION	SELECTOR	0	&Working Lead
MAXDISCHARGETIME	VARIABLEANDUNITS	1.00000E+002	s	1.00000E+002	second(s)	Max &Discharge Time
DISCHARGEMODE	MULTIPARAM	0	2.80000E-004	&Discharge Mode	Constant Current	Amp(s)
SAMPLETIME	QUANT	1.00000E-002	Sa&mple Period (s)
DISCHARGESTOPAT1	MULTIPARAM	3	0.00000E+000	Discharge Stop At &1	Voltage < Limit	V
DISCHARGESTOPAT2	MULTIPARAM	0	0.00000E+000	Discharge Stop At &2	None	N/A
AESBHCSELECTOR	TOGGLE	F	Save Both Half Cells
IRCOMP	TOGGLE	F	IR &Measure
EOC	QUANT	0	Open Circuit (V)
SEQUENCER	TOGGLE	TRUE	Run as Sequence
PSTATMODEL	IQUANT	53	Pstat Model
PSTATSECTION	LABEL	IFC5000-01520	Pstat Section
PSTATSERIALNO	LABEL	01520	Pstat Serial Number
CTRLMODE	IQUANT	0	Control Mode
ELECTROMETER	IQUANT	1	RE=0 or CS=1
IESTAB	IQUANT	0	I/E Stability
CASPEED	IQUANT	4	Control Amp Speed
CONVENTION	IQUANT	1	Current Convention
ICHRANGE	IQUANT	2	Ich Range
ICHRANGEMODE	TOGGLE	T	Ich Auto Range
ICHOFFSETENABLE	TOGGLE	F	Ich Offset Enable
ICHOFFSET	QUANT	0	Ich Offset (V)
ICHFILTER	IQUANT	1	Ich Filter
VCHRANGE	IQUANT	2	Vch Range
VCHRANGEMODE	TOGGLE	T	Vch Auto Range
VCHOFFSETENABLE	TOGGLE	F	Vch Offset Enable
VCHOFFSET	QUANT	0	Vch Offset (V)
VCHFILTER	IQUANT	1	Vch Filter
IERANGELOWERLIMIT	IQUANT	9	I/E Range Lower Limit
IERANGEMODE	TOGGLE	F	I/E AutoRange
IERANGE	IQUANT	9	I/E Range
ACHSELECT	IQUANT	1	Ach Select
ACHRANGE	IQUANT	2	Ach Range
ACHOFFSETENABLE	TOGGLE	F	Ach Offset Enable
ACHOFFSET	QUANT	0	Ach Offset (V)
ACHFILTER	IQUANT	1	Ach Filter
CABLEID	IQUANT	14	Cable ID
DCCALDATE	LABEL	5-7-2017	DC Calibration Date
ACCALDATE	LABEL	12/3/2015	AC Calibration Date
FRAMEWORKVERSION	QUANT	7.01	Framework Version
INSTRUMENTVERSION	LABEL	4.00	Instrument Version
CURVE	TABLE	70
	Pt	T	Vf	Im	Vu	Pwr	Sig	Ach	Temp	IERange	Over
	#	s	V	A	V	W	V	V	deg C	#	bits
	0	0.013333	5.30919E-001	-2.78527E-004	0.00000E+000	-1.47875E-004	-1.68088E-001	5.31179E-001	3.57770E+000	9	...........
	1	0.026667	4.98601E-001	-2.80079E-004	0.00000E+000	-1.39648E-004	-1.68088E-001	4.98865E-001	3.57770E+000	9	...........
	2	0.04	4.69427E-001	-2.79407E-004	0.00000E+000	-1.31161E-004	-1.68088E-001	4.69518E-001	3.57770E+000	9	...........
	3	0.053333	4.42123E-001	-2.78597E-004	0.00000E+000	-1.23174E-004	-1.68088E-001	4.42232E-001	3.57770E+000	9	...........
	4	0.066667	4.16734E-001	-2.79055E-004	0.00000E+000	-1.16292E-004	-1.68088E-001	4.16836E-001	3.57770E+000	9	...........
	5	0.08	3.93095E-001	-2.78829E-004	0.00000E+000	-1.09606E-004	-1.68088E-001	3.93182E-001	3.57770E+000	9	...........
	6	0.093333	3.71072E-001	-2.78395E-004	0.00000E+000	-1.03304E-004	-1.68088E-001	3.71163E-001	3.57770E+000	9	...........
	7	0.106667	3.50593E-001	-2.78813E-004	0.00000E+000	-9.77500E-005	-1.68088E-001	3.50673E-001	3.57770E+000	9	...........
	8	0.12	3.31525E-001	-2.78599E-004	0.00000E+000	-9.23625E-005	-1.68088E-001	3.31608E-001	3.57770E+000	9	...........
	9	0.133333	3.13811E-001	-2.79599E-004	0.00000E+000	-8.77412E-005	-1.68088E-001	3.13891E-001	3.57770E+000	9	...........
	10	0.146667	2.97336E-001	-2.78927E-004	0.00000E+000	-8.29352E-005	-1.68088E-001	2.97416E-001	3.57770E+000	9	...........
	11	0.16	2.82055E-001	-2.79799E-004	0.00000E+000	-7.89186E-005	-1.68088E-001	2.82128E-001	3.57770E+000	9	...........
	12	0.173333	2.67822E-001	-2.79743E-004	0.00000E+000	-7.49213E-005	-1.68088E-001	2.67889E-001	3.57770E+000	9	...........
	13	0.186667	2.54617E-001	-2.79478E-004	0.00000E+000	-7.11600E-005	-1.68088E-001	2.54682E-001	3.57770E+000	9	...........
	14	0.2	2.42354E-001	-2.79423E-004	0.00000E+000	-6.77194E-005	-1.68088E-001	2.42417E-001	3.57770E+000	9	...........
	15	0.213333	2.30959E-001	-2.78860E-004	0.00000E+000	-6.44054E-005	-1.68088E-001	2.31016E-001	3.57770E+000	9	...........
	16	0.226667	2.20330E-001	-2.79802E-004	0.00000E+000	-6.16487E-005	-1.68088E-001	2.20382E-001	3.57770E+000	9	...........
	17	0.24	2.10390E-001	-2.79334E-004	0.00000E+000	-5.87693E-005	-1.68088E-001	2.10440E-001	3.57770E+000	9	...........
	18	0.253333	2.01072E-001	-2.78606E-004	0.00000E+000	-5.60198E-005	-1.68088E-001	2.01123E-001	3.57770E+000	9	...........
	19	0.266667	1.92306E-001	-2.78300E-004	0.00000E+000	-5.35188E-005	-1.68088E-001	1.92357E-001	3.57770E+000	9	...........
	20	0.28	1.84086E-001	-2.78707E-004	0.00000E+000	-5.13060E-005	-1.68088E-001	1.84133E-001	3.57770E+000	9	...........
	21	0.293333	1.76354E-001	-2.79065E-004	0.00000E+000	-4.92143E-005	-1.68088E-001	1.76398E-001	3.57770E+000	9	...........
	22	0.306667	1.69065E-001	-2.78767E-004	0.00000E+000	-4.71296E-005	-1.68088E-001	1.69105E-001	3.57770E+000	9	...........
	23	0.32	1.62184E-001	-2.79729E-004	0.00000E+000	-4.53676E-005	-1.68088E-001	1.62225E-001	3.57770E+000	9	...........
	24	0.333333	1.55654E-001	-2.78293E-004	0.00000E+000	-4.33173E-005	-1.68088E-001	1.55687E-001	3.57770E+000	9	...........
	25	0.346667	1.49408E-001	-2.79291E-004	0.00000E+000	-4.17284E-005	-1.68088E-001	1.49434E-001	3.57770E+000	9	...........
	26	0.36	1.43460E-001	-2.78072E-004	0.00000E+000	-3.98921E-005	-1.68088E-001	1.43489E-001	3.57770E+000	9	...........
	27	0.373333	1.37831E-001	-2.79583E-004	0.00000E+000	-3.85353E-005	-1.68088E-001	1.37859E-001	3.57770E+000	9	...........
	28	0.386667	1.32429E-001	-2.79027E-004	0.00000E+000	-3.69514E-005	-1.68088E-001	1.32457E-001	3.57770E+000	9	...........
	29	0.4	1.27211E-001	-2.78971E-004	0.00000E+000	-3.54882E-005	-1.68088E-001	1.27241E-001	3.57770E+000	9	...........
	30	0.413333	1.22248E-001	-2.78306E-004	0.00000E+000	-3.40224E-005	-1.68088E-001	1.22273E-001	3.57770E+000	9	...........
	31	0.426667	1.17430E-001	-2.79415E-004	0.00000E+000	-3.28116E-005	-1.68088E-001	1.17460E-001	3.57770E+000	9	...........
	32	0.44	1.12798E-001	-2.78979E-004	0.00000E+000	-3.14682E-005	-1.68088E-001	1.12828E-001	3.57770E+000	9	...........
	33	0.453333	1.08326E-001	-2.79534E-004	0.00000E+000	-3.02808E-005	-1.68088E-001	1.08353E-001	3.57770E+000	9	...........
	34	0.466667	1.04001E-001	-2.78131E-004	0.00000E+000	-2.89260E-005	-1.68088E-001	1.04026E-001	3.57770E+000	9	...........
	35	0.48	9.98474E-002	-2.78404E-004	0.00000E+000	-2.77979E-005	-1.68088E-001	9.98719E-002	3.57770E+000	9	...........
	36	0.493333	9.58400E-002	-2.78728E-004	0.00000E+000	-2.67133E-005	-1.68088E-001	9.58649E-002	3.57770E+000	9	...........
	37	0.506667	9.19360E-002	-2.79054E-004	0.00000E+000	-2.56551E-005	-1.68088E-001	9.19584E-002	3.57770E+000	9	...........
	38	0.52	8.81293E-002	-2.78109E-004	0.00000E+000	-2.45096E-005	-1.68088E-001	8.81534E-002	3.57770E+000	9	...........
	39	0.533333	8.44210E-002	-2.77410E-004	0.00000E+000	-2.34192E-005	-1.68088E-001	8.44451E-002	3.57770E+000	9	...........
	40	0.546667	8.07753E-002	-2.77847E-004	0.00000E+000	-2.24431E-005	-1.68088E-001	8.07898E-002	3.57770E+000	9	...........
	41	0.56	7.71942E-002	-2.78941E-004	0.00000E+000	-2.15326E-005	-1.68088E-001	7.72146E-002	3.57770E+000	9	...........
	42	0.573333	7.37092E-002	-2.79374E-004	0.00000E+000	-2.05924E-005	-1.68088E-001	7.37236E-002	3.57770E+000	9	...........
	43	0.586667	7.03165E-002	-2.78450E-004	0.00000E+000	-1.95796E-005	-1.68088E-001	7.03372E-002	3.57770E+000	9	...........
	44	0.6	6.70175E-002	-2.79575E-004	0.00000E+000	-1.87364E-005	-1.68088E-001	6.70276E-002	3.57770E+000	9	...........
	45	0.613333	6.37721E-002	-2.79482E-004	0.00000E+000	-1.78232E-005	-1.68088E-001	6.37886E-002	3.57770E+000	9	...........
	46	0.626667	6.06391E-002	-2.79081E-004	0.00000E+000	-1.69232E-005	-1.68088E-001	6.06509E-002	3.57770E+000	9	...........
	47	0.64	5.75270E-002	-2.78352E-004	0.00000E+000	-1.60127E-005	-1.68088E-001	5.75367E-002	3.57770E+000	9	...........
	48	0.653333	5.44483E-002	-2.79695E-004	0.00000E+000	-1.52289E-005	-1.68088E-001	5.44624E-002	3.57770E+000	9	...........
	49	0.666667	5.14477E-002	-2.78596E-004	0.00000E+000	-1.43331E-005	-1.68088E-001	5.14618E-002	3.57770E+000	9	...........
	50	0.68	4.85358E-002	-2.78288E-004	0.00000E+000	-1.35070E-005	-1.68088E-001	4.85389E-002	3.57770E+000	9	...........
	51	0.693333	4.56888E-002	-2.78546E-004	0.00000E+000	-1.27264E-005	-1.68088E-001	4.57014E-002	3.57770E+000	9	...........
	52	0.706667	4.27929E-002	-2.77540E-004	0.00000E+000	-1.18768E-005	-1.68088E-001	4.28001E-002	3.57770E+000	9	...........
	53	0.72	3.99448E-002	-2.79915E-004	0.00000E+000	-1.11811E-005	-1.68088E-001	3.99472E-002	3.57770E+000	9	...........
	54	0.733333	3.71258E-002	-2.79451E-004	0.00000E+000	-1.03748E-005	-1.68088E-001	3.71271E-002	3.57770E+000	9	...........
	55	0.746667	3.43536E-002	-2.79583E-004	0.00000E+000	-9.60471E-006	-1.68088E-001	3.43562E-002	3.57770E+000	9	...........
	56	0.76	3.16647E-002	-2.79149E-004	0.00000E+000	-8.83916E-006	-1.68088E-001	3.16700E-002	3.57770E+000	9	...........
	57	0.773333	2.90490E-002	-2.79359E-004	0.00000E+000	-8.11512E-006	-1.68088E-001	2.90515E-002	3.57770E+000	9	...........
	58	0.786667	2.64506E-002	-2.78629E-004	0.00000E+000	-7.36991E-006	-1.68088E-001	2.64526E-002	3.57770E+000	9	...........
	59	0.8	2.38443E-002	-2.79082E-004	0.00000E+000	-6.65452E-006	-1.68088E-001	2.38422E-002	3.57770E+000	9	...........
	60	0.813333	2.13086E-002	-2.78316E-004	0.00000E+000	-5.93054E-006	-1.68088E-001	2.13072E-002	3.57770E+000	9	...........
	61	0.826667	1.87782E-002	-2.77989E-004	0.00000E+000	-5.22014E-006	-1.68088E-001	1.87715E-002	3.57770E+000	9	...........
	62	0.84	1.62279E-002	-2.78549E-004	0.00000E+000	-4.52027E-006	-1.68088E-001	1.62184E-002	3.57770E+000	9	...........
	63	0.853333	1.37161E-002	-2.79241E-004	0.00000E+000	-3.83009E-006	-1.68088E-001	1.37090E-002	3.57815E+000	9	...........
	64	0.866667	1.12413E-002	-2.79513E-004	0.00000E+000	-3.14208E-006	-1.68088E-001	1.12289E-002	3.57890E+000	9	...........
	65	0.88	8.83859E-003	-2.78362E-004	0.00000E+000	-2.46033E-006	-1.68088E-001	8.83080E-003	3.57890E+000	9	...........
	66	0.893333	6.45180E-003	-2.79194E-004	0.00000E+000	-1.80130E-006	-1.68088E-001	6.43800E-003	3.57890E+000	9	...........
	67	0.906667	4.08601E-003	-2.78639E-004	0.00000E+000	-1.13852E-006	-1.68088E-001	4.06789E-003	3.57890E+000	9	...........
	68	0.92	1.70596E-003	-2.79148E-004	0.00000E+000	-4.76215E-007	-1.68088E-001	1.69136E-003	3.57890E+000	9	...........
	69	0.925	9.21672E-005	-2.80318E-004	0.00000E+000	-2.58361E-008	-1.68088E-001	7.37534E-005	3.57890E+000	9	...........
STARTTIMEOFFSET	QUANT	1145.753	Start Time Offset (s)
