EXPLAIN
TAG	PWR800_DISCHARGE
TITLE	LABEL	PWR Cyclic Charge Discharge (Cell) - Discharge Step	Test &Identifier
DATE	LABEL	7-7-2017	Date
TIME	LABEL	16:09:32	Time
NOTES	NOTES	3	&Notes...
	supercap test cell
	2.8mg
	6M KOH
PSTAT	PSTAT	IFC5000-01520	Potentiostat
CAPACITY	QUANT	1.00000E-003	Capacity (A-hr)
CELLTYPE	SELECTOR	1	&Cell Type
WORKINGCONNECTION	SELECTOR	0	&Working Lead
MAXDISCHARGETIME	VARIABLEANDUNITS	1.00000E+002	s	1.00000E+002	second(s)	Max &Discharge Time
DISCHARGEMODE	MULTIPARAM	0	2.80000E-004	&Discharge Mode	Constant Current	Amp(s)
SAMPLETIME	QUANT	1.00000E-002	Sa&mple Period (s)
DISCHARGESTOPAT1	MULTIPARAM	3	0.00000E+000	Discharge Stop At &1	Voltage < Limit	V
DISCHARGESTOPAT2	MULTIPARAM	0	0.00000E+000	Discharge Stop At &2	None	N/A
AESBHCSELECTOR	TOGGLE	F	Save Both Half Cells
IRCOMP	TOGGLE	F	IR &Measure
EOC	QUANT	0	Open Circuit (V)
SEQUENCER	TOGGLE	TRUE	Run as Sequence
PSTATMODEL	IQUANT	53	Pstat Model
PSTATSECTION	LABEL	IFC5000-01520	Pstat Section
PSTATSERIALNO	LABEL	01520	Pstat Serial Number
CTRLMODE	IQUANT	0	Control Mode
ELECTROMETER	IQUANT	1	RE=0 or CS=1
IESTAB	IQUANT	0	I/E Stability
CASPEED	IQUANT	4	Control Amp Speed
CONVENTION	IQUANT	1	Current Convention
ICHRANGE	IQUANT	2	Ich Range
ICHRANGEMODE	TOGGLE	T	Ich Auto Range
ICHOFFSETENABLE	TOGGLE	F	Ich Offset Enable
ICHOFFSET	QUANT	0	Ich Offset (V)
ICHFILTER	IQUANT	1	Ich Filter
VCHRANGE	IQUANT	2	Vch Range
VCHRANGEMODE	TOGGLE	T	Vch Auto Range
VCHOFFSETENABLE	TOGGLE	F	Vch Offset Enable
VCHOFFSET	QUANT	0	Vch Offset (V)
VCHFILTER	IQUANT	1	Vch Filter
IERANGELOWERLIMIT	IQUANT	9	I/E Range Lower Limit
IERANGEMODE	TOGGLE	F	I/E AutoRange
IERANGE	IQUANT	9	I/E Range
ACHSELECT	IQUANT	1	Ach Select
ACHRANGE	IQUANT	2	Ach Range
ACHOFFSETENABLE	TOGGLE	F	Ach Offset Enable
ACHOFFSET	QUANT	0	Ach Offset (V)
ACHFILTER	IQUANT	1	Ach Filter
CABLEID	IQUANT	14	Cable ID
DCCALDATE	LABEL	5-7-2017	DC Calibration Date
ACCALDATE	LABEL	12/3/2015	AC Calibration Date
FRAMEWORKVERSION	QUANT	7.01	Framework Version
INSTRUMENTVERSION	LABEL	4.00	Instrument Version
CURVE	TABLE	61
	Pt	T	Vf	Im	Vu	Pwr	Sig	Ach	Temp	IERange	Over
	#	s	V	A	V	W	V	V	deg C	#	bits
	0	0.013333	5.29595E-001	-2.78237E-004	0.00000E+000	-1.47353E-004	-1.68088E-001	5.29827E-001	3.57800E+000	9	...........
	1	0.026667	4.96219E-001	-2.77652E-004	0.00000E+000	-1.37776E-004	-1.68088E-001	4.96441E-001	3.57800E+000	9	...........
	2	0.04	4.65914E-001	-2.78525E-004	0.00000E+000	-1.29769E-004	-1.68088E-001	4.66021E-001	3.57800E+000	9	...........
	3	0.053333	4.37482E-001	-2.79693E-004	0.00000E+000	-1.22361E-004	-1.68088E-001	4.37578E-001	3.57800E+000	9	...........
	4	0.066667	4.10957E-001	-2.78297E-004	0.00000E+000	-1.14368E-004	-1.68088E-001	4.11050E-001	3.57800E+000	9	...........
	5	0.08	3.86142E-001	-2.79664E-004	0.00000E+000	-1.07990E-004	-1.68088E-001	3.86230E-001	3.57800E+000	9	...........
	6	0.093333	3.62932E-001	-2.80018E-004	0.00000E+000	-1.01628E-004	-1.68088E-001	3.63024E-001	3.57800E+000	9	...........
	7	0.106667	3.41303E-001	-2.78732E-004	0.00000E+000	-9.51321E-005	-1.68088E-001	3.41381E-001	3.57800E+000	9	...........
	8	0.12	3.21190E-001	-2.77978E-004	0.00000E+000	-8.92836E-005	-1.68088E-001	3.21267E-001	3.57800E+000	9	...........
	9	0.133333	3.02486E-001	-2.78622E-004	0.00000E+000	-8.42792E-005	-1.68088E-001	3.02562E-001	3.57800E+000	9	...........
	10	0.146667	2.85109E-001	-2.78909E-004	0.00000E+000	-7.95195E-005	-1.68088E-001	2.85182E-001	3.57800E+000	9	...........
	11	0.16	2.68947E-001	-2.78909E-004	0.00000E+000	-7.50118E-005	-1.68088E-001	2.69022E-001	3.57800E+000	9	...........
	12	0.173333	2.53932E-001	-2.78387E-004	0.00000E+000	-7.06916E-005	-1.68088E-001	2.53994E-001	3.57800E+000	9	...........
	13	0.186667	2.40010E-001	-2.77084E-004	0.00000E+000	-6.65030E-005	-1.68088E-001	2.40071E-001	3.57800E+000	9	...........
	14	0.2	2.27076E-001	-2.77011E-004	0.00000E+000	-6.29026E-005	-1.68088E-001	2.27130E-001	3.57800E+000	9	...........
	15	0.213333	2.15048E-001	-2.79246E-004	0.00000E+000	-6.00513E-005	-1.68088E-001	2.15101E-001	3.57800E+000	9	...........
	16	0.226667	2.03855E-001	-2.78689E-004	0.00000E+000	-5.68124E-005	-1.68088E-001	2.03906E-001	3.57800E+000	9	...........
	17	0.24	1.93415E-001	-2.78539E-004	0.00000E+000	-5.38737E-005	-1.68088E-001	1.93461E-001	3.57800E+000	9	...........
	18	0.253333	1.83680E-001	-2.78998E-004	0.00000E+000	-5.12464E-005	-1.68088E-001	1.83729E-001	3.57800E+000	9	...........
	19	0.266667	1.74594E-001	-2.78862E-004	0.00000E+000	-4.86876E-005	-1.68088E-001	1.74637E-001	3.57739E+000	9	...........
	20	0.28	1.66088E-001	-2.79155E-004	0.00000E+000	-4.63643E-005	-1.68088E-001	1.66125E-001	3.57730E+000	9	...........
	21	0.293333	1.58063E-001	-2.78638E-004	0.00000E+000	-4.40424E-005	-1.68088E-001	1.58099E-001	3.57730E+000	9	...........
	22	0.306667	1.50502E-001	-2.78434E-004	0.00000E+000	-4.19048E-005	-1.68088E-001	1.50535E-001	3.57730E+000	9	...........
	23	0.32	1.43351E-001	-2.78522E-004	0.00000E+000	-3.99263E-005	-1.68088E-001	1.43385E-001	3.57730E+000	9	...........
	24	0.333333	1.36603E-001	-2.78607E-004	0.00000E+000	-3.80587E-005	-1.68088E-001	1.36639E-001	3.57730E+000	9	...........
	25	0.346667	1.30211E-001	-2.77362E-004	0.00000E+000	-3.61155E-005	-1.68088E-001	1.30244E-001	3.57730E+000	9	...........
	26	0.36	1.24101E-001	-2.77764E-004	0.00000E+000	-3.44707E-005	-1.68088E-001	1.24136E-001	3.57730E+000	9	...........
	27	0.373333	1.18314E-001	-2.79670E-004	0.00000E+000	-3.30889E-005	-1.68088E-001	1.18347E-001	3.57730E+000	9	...........
	28	0.386667	1.12817E-001	-2.79083E-004	0.00000E+000	-3.14853E-005	-1.68088E-001	1.12845E-001	3.57730E+000	9	...........
	29	0.4	1.07550E-001	-2.78319E-004	0.00000E+000	-2.99333E-005	-1.68088E-001	1.07578E-001	3.57730E+000	9	...........
	30	0.413333	1.02449E-001	-2.78398E-004	0.00000E+000	-2.85215E-005	-1.68088E-001	1.02471E-001	3.57730E+000	9	...........
	31	0.426667	9.75358E-002	-2.80180E-004	0.00000E+000	-2.73276E-005	-1.68088E-001	9.75572E-002	3.57730E+000	9	...........
	32	0.44	9.28534E-002	-2.79046E-004	0.00000E+000	-2.59104E-005	-1.68088E-001	9.28815E-002	3.57730E+000	9	...........
	33	0.453333	8.83651E-002	-2.79569E-004	0.00000E+000	-2.47041E-005	-1.68088E-001	8.83868E-002	3.57730E+000	9	...........
	34	0.466667	8.39825E-002	-2.78570E-004	0.00000E+000	-2.33950E-005	-1.68088E-001	8.40016E-002	3.57730E+000	9	...........
	35	0.48	7.97428E-002	-2.79222E-004	0.00000E+000	-2.22659E-005	-1.68088E-001	7.97589E-002	3.57730E+000	9	...........
	36	0.493333	7.56436E-002	-2.78641E-004	0.00000E+000	-2.10774E-005	-1.68088E-001	7.56549E-002	3.57730E+000	9	...........
	37	0.506667	7.16427E-002	-2.78433E-004	0.00000E+000	-1.99477E-005	-1.68088E-001	7.16548E-002	3.57730E+000	9	...........
	38	0.52	6.78597E-002	-2.78257E-004	0.00000E+000	-1.88824E-005	-1.68088E-001	6.78733E-002	3.57730E+000	9	...........
	39	0.533333	6.41109E-002	-2.78548E-004	0.00000E+000	-1.78580E-005	-1.68088E-001	6.41232E-002	3.57730E+000	9	...........
	40	0.546667	6.04537E-002	-2.78048E-004	0.00000E+000	-1.68090E-005	-1.68088E-001	6.04720E-002	3.57730E+000	9	...........
	41	0.56	5.68514E-002	-2.78447E-004	0.00000E+000	-1.58301E-005	-1.68088E-001	5.68634E-002	3.57730E+000	9	...........
	42	0.573333	5.33359E-002	-2.78909E-004	0.00000E+000	-1.48759E-005	-1.68088E-001	5.33448E-002	3.57730E+000	9	...........
	43	0.586667	4.99338E-002	-2.78340E-004	0.00000E+000	-1.38986E-005	-1.68088E-001	4.99416E-002	3.57730E+000	9	...........
	44	0.6	4.66455E-002	-2.79377E-004	0.00000E+000	-1.30317E-005	-1.68088E-001	4.66588E-002	3.57730E+000	9	...........
	45	0.613333	4.33801E-002	-2.78014E-004	0.00000E+000	-1.20603E-005	-1.68088E-001	4.33923E-002	3.57730E+000	9	...........
	46	0.626667	4.01637E-002	-2.78864E-004	0.00000E+000	-1.12002E-005	-1.68088E-001	4.01763E-002	3.57730E+000	9	...........
	47	0.64	3.70362E-002	-2.78145E-004	0.00000E+000	-1.03014E-005	-1.68088E-001	3.70433E-002	3.57730E+000	9	...........
	48	0.653333	3.39850E-002	-2.78867E-004	0.00000E+000	-9.47729E-006	-1.68088E-001	3.39888E-002	3.57730E+000	9	...........
	49	0.666667	3.09760E-002	-2.79688E-004	0.00000E+000	-8.66361E-006	-1.68088E-001	3.09774E-002	3.57730E+000	9	...........
	50	0.68	2.80430E-002	-2.78803E-004	0.00000E+000	-7.81848E-006	-1.68088E-001	2.80436E-002	3.57730E+000	9	...........
	51	0.693333	2.51141E-002	-2.79376E-004	0.00000E+000	-7.01627E-006	-1.68088E-001	2.51124E-002	3.57730E+000	9	...........
	52	0.706667	2.22575E-002	-2.77040E-004	0.00000E+000	-6.16622E-006	-1.68088E-001	2.22540E-002	3.57730E+000	9	...........
	53	0.72	1.94226E-002	-2.80296E-004	0.00000E+000	-5.44407E-006	-1.68088E-001	1.94179E-002	3.57730E+000	9	...........
	54	0.733333	1.66205E-002	-2.79042E-004	0.00000E+000	-4.63782E-006	-1.68088E-001	1.66127E-002	3.57730E+000	9	...........
	55	0.746667	1.38428E-002	-2.79937E-004	0.00000E+000	-3.87511E-006	-1.68088E-001	1.38317E-002	3.57730E+000	9	...........
	56	0.76	1.11483E-002	-2.78652E-004	0.00000E+000	-3.10648E-006	-1.68088E-001	1.11431E-002	3.57730E+000	9	...........
	57	0.773333	8.44908E-003	-2.78794E-004	0.00000E+000	-2.35555E-006	-1.68088E-001	8.44095E-003	3.57730E+000	9	...........
	58	0.786667	5.82655E-003	-2.77983E-004	0.00000E+000	-1.61968E-006	-1.68088E-001	5.81373E-003	3.57730E+000	9	...........
	59	0.8	3.23715E-003	-2.79037E-004	0.00000E+000	-9.03285E-007	-1.68088E-001	3.21867E-003	3.57730E+000	9	...........
	60	0.811667	8.09343E-004	-2.79040E-004	0.00000E+000	-2.25839E-007	-1.68088E-001	7.94734E-004	3.57730E+000	9	...........
STARTTIMEOFFSET	QUANT	1506.67	Start Time Offset (s)
