EXPLAIN
TAG	PWR800_DISCHARGE
TITLE	LABEL	PWR Cyclic Charge Discharge (Cell) - Discharge Step	Test &Identifier
DATE	LABEL	7-7-2017	Date
TIME	LABEL	15:45:27	Time
NOTES	NOTES	3	&Notes...
	supercap test cell
	2.8mg
	6M KOH
PSTAT	PSTAT	IFC5000-01520	Potentiostat
CAPACITY	QUANT	1.00000E-003	Capacity (A-hr)
CELLTYPE	SELECTOR	1	&Cell Type
WORKINGCONNECTION	SELECTOR	0	&Working Lead
MAXDISCHARGETIME	VARIABLEANDUNITS	1.00000E+002	s	1.00000E+002	second(s)	Max &Discharge Time
DISCHARGEMODE	MULTIPARAM	0	2.80000E-004	&Discharge Mode	Constant Current	Amp(s)
SAMPLETIME	QUANT	1.00000E-002	Sa&mple Period (s)
DISCHARGESTOPAT1	MULTIPARAM	3	0.00000E+000	Discharge Stop At &1	Voltage < Limit	V
DISCHARGESTOPAT2	MULTIPARAM	0	0.00000E+000	Discharge Stop At &2	None	N/A
AESBHCSELECTOR	TOGGLE	F	Save Both Half Cells
IRCOMP	TOGGLE	F	IR &Measure
EOC	QUANT	0	Open Circuit (V)
SEQUENCER	TOGGLE	TRUE	Run as Sequence
PSTATMODEL	IQUANT	53	Pstat Model
PSTATSECTION	LABEL	IFC5000-01520	Pstat Section
PSTATSERIALNO	LABEL	01520	Pstat Serial Number
CTRLMODE	IQUANT	0	Control Mode
ELECTROMETER	IQUANT	1	RE=0 or CS=1
IESTAB	IQUANT	0	I/E Stability
CASPEED	IQUANT	4	Control Amp Speed
CONVENTION	IQUANT	1	Current Convention
ICHRANGE	IQUANT	2	Ich Range
ICHRANGEMODE	TOGGLE	T	Ich Auto Range
ICHOFFSETENABLE	TOGGLE	F	Ich Offset Enable
ICHOFFSET	QUANT	0	Ich Offset (V)
ICHFILTER	IQUANT	1	Ich Filter
VCHRANGE	IQUANT	2	Vch Range
VCHRANGEMODE	TOGGLE	T	Vch Auto Range
VCHOFFSETENABLE	TOGGLE	F	Vch Offset Enable
VCHOFFSET	QUANT	0	Vch Offset (V)
VCHFILTER	IQUANT	1	Vch Filter
IERANGELOWERLIMIT	IQUANT	9	I/E Range Lower Limit
IERANGEMODE	TOGGLE	F	I/E AutoRange
IERANGE	IQUANT	9	I/E Range
ACHSELECT	IQUANT	1	Ach Select
ACHRANGE	IQUANT	2	Ach Range
ACHOFFSETENABLE	TOGGLE	F	Ach Offset Enable
ACHOFFSET	QUANT	0	Ach Offset (V)
ACHFILTER	IQUANT	1	Ach Filter
CABLEID	IQUANT	14	Cable ID
DCCALDATE	LABEL	5-7-2017	DC Calibration Date
ACCALDATE	LABEL	12/3/2015	AC Calibration Date
FRAMEWORKVERSION	QUANT	7.01	Framework Version
INSTRUMENTVERSION	LABEL	4.00	Instrument Version
CURVE	TABLE	105
	Pt	T	Vf	Im	Vu	Pwr	Sig	Ach	Temp	IERange	Over
	#	s	V	A	V	W	V	V	deg C	#	bits
	0	0.013333	5.55467E-001	-2.78657E-004	0.00000E+000	-1.54785E-004	-1.68088E-001	5.55736E-001	3.57800E+000	9	...........
	1	0.026667	5.25896E-001	-2.77870E-004	0.00000E+000	-1.46130E-004	-1.68088E-001	5.26144E-001	3.57800E+000	9	...........
	2	0.04	4.99208E-001	-2.78622E-004	0.00000E+000	-1.39090E-004	-1.68088E-001	4.99455E-001	3.57800E+000	9	...........
	3	0.053333	4.75152E-001	-2.78510E-004	0.00000E+000	-1.32335E-004	-1.68088E-001	4.75259E-001	3.57800E+000	9	...........
	4	0.066667	4.52771E-001	-2.78688E-004	0.00000E+000	-1.26182E-004	-1.68088E-001	4.52876E-001	3.57800E+000	9	...........
	5	0.08	4.32082E-001	-2.78644E-004	0.00000E+000	-1.20397E-004	-1.68088E-001	4.32190E-001	3.57800E+000	9	...........
	6	0.093333	4.12904E-001	-2.79028E-004	0.00000E+000	-1.15212E-004	-1.68088E-001	4.13005E-001	3.57800E+000	9	...........
	7	0.106667	3.95134E-001	-2.79111E-004	0.00000E+000	-1.10286E-004	-1.68088E-001	3.95221E-001	3.57800E+000	9	...........
	8	0.12	3.78644E-001	-2.79209E-004	0.00000E+000	-1.05721E-004	-1.68088E-001	3.78732E-001	3.57800E+000	9	...........
	9	0.133333	3.63354E-001	-2.78762E-004	0.00000E+000	-1.01289E-004	-1.68088E-001	3.63437E-001	3.57800E+000	9	...........
	10	0.146667	3.49151E-001	-2.79267E-004	0.00000E+000	-9.75062E-005	-1.68088E-001	3.49232E-001	3.57800E+000	9	...........
	11	0.16	3.35936E-001	-2.78921E-004	0.00000E+000	-9.36995E-005	-1.68088E-001	3.36016E-001	3.57800E+000	9	...........
	12	0.173333	3.23630E-001	-2.78266E-004	0.00000E+000	-9.00554E-005	-1.68088E-001	3.23709E-001	3.57800E+000	9	...........
	13	0.186667	3.12154E-001	-2.78802E-004	0.00000E+000	-8.70292E-005	-1.68088E-001	3.12222E-001	3.57800E+000	9	...........
	14	0.2	3.01396E-001	-2.79475E-004	0.00000E+000	-8.42326E-005	-1.68088E-001	3.01467E-001	3.57800E+000	9	...........
	15	0.213333	2.91366E-001	-2.79090E-004	0.00000E+000	-8.13173E-005	-1.68088E-001	2.91438E-001	3.57800E+000	9	...........
	16	0.226667	2.82038E-001	-2.79193E-004	0.00000E+000	-7.87430E-005	-1.68088E-001	2.82108E-001	3.57800E+000	9	...........
	17	0.24	2.73238E-001	-2.79648E-004	0.00000E+000	-7.64104E-005	-1.68088E-001	2.73304E-001	3.57800E+000	9	...........
	18	0.253333	2.64949E-001	-2.79178E-004	0.00000E+000	-7.39679E-005	-1.68088E-001	2.65012E-001	3.57800E+000	9	...........
	19	0.266667	2.57093E-001	-2.78972E-004	0.00000E+000	-7.17218E-005	-1.68088E-001	2.57156E-001	3.57800E+000	9	...........
	20	0.28	2.49704E-001	-2.79055E-004	0.00000E+000	-6.96812E-005	-1.68088E-001	2.49763E-001	3.57800E+000	9	...........
	21	0.293333	2.42708E-001	-2.79506E-004	0.00000E+000	-6.78384E-005	-1.68088E-001	2.42762E-001	3.57800E+000	9	...........
	22	0.306667	2.36043E-001	-2.79260E-004	0.00000E+000	-6.59175E-005	-1.68088E-001	2.36093E-001	3.57800E+000	9	...........
	23	0.32	2.29698E-001	-2.79409E-004	0.00000E+000	-6.41798E-005	-1.68088E-001	2.29749E-001	3.57800E+000	9	...........
	24	0.333333	2.23645E-001	-2.78582E-004	0.00000E+000	-6.23034E-005	-1.68088E-001	2.23696E-001	3.57800E+000	9	...........
	25	0.346667	2.17919E-001	-2.78179E-004	0.00000E+000	-6.06206E-005	-1.68088E-001	2.17969E-001	3.57800E+000	9	...........
	26	0.36	2.12419E-001	-2.80039E-004	0.00000E+000	-5.94854E-005	-1.68088E-001	2.12465E-001	3.57800E+000	9	...........
	27	0.373333	2.07100E-001	-2.78881E-004	0.00000E+000	-5.77562E-005	-1.68088E-001	2.07147E-001	3.57800E+000	9	...........
	28	0.386667	2.02026E-001	-2.77845E-004	0.00000E+000	-5.61320E-005	-1.68088E-001	2.02068E-001	3.57800E+000	9	...........
	29	0.4	1.97134E-001	-2.79090E-004	0.00000E+000	-5.50182E-005	-1.68088E-001	1.97182E-001	3.57800E+000	9	...........
	30	0.413333	1.92458E-001	-2.79033E-004	0.00000E+000	-5.37022E-005	-1.68088E-001	1.92505E-001	3.57800E+000	9	...........
	31	0.426667	1.87913E-001	-2.78937E-004	0.00000E+000	-5.24160E-005	-1.68088E-001	1.87957E-001	3.57800E+000	9	...........
	32	0.44	1.83505E-001	-2.78546E-004	0.00000E+000	-5.11146E-005	-1.68088E-001	1.83555E-001	3.57800E+000	9	...........
	33	0.453333	1.79239E-001	-2.78914E-004	0.00000E+000	-4.99923E-005	-1.68088E-001	1.79280E-001	3.57800E+000	9	...........
	34	0.466667	1.75088E-001	-2.79793E-004	0.00000E+000	-4.89885E-005	-1.68088E-001	1.75130E-001	3.57800E+000	9	...........
	35	0.48	1.71109E-001	-2.79083E-004	0.00000E+000	-4.77536E-005	-1.68088E-001	1.71148E-001	3.57800E+000	9	...........
	36	0.493333	1.67230E-001	-2.79792E-004	0.00000E+000	-4.67895E-005	-1.68088E-001	1.67268E-001	3.57800E+000	9	...........
	37	0.506667	1.63412E-001	-2.79450E-004	0.00000E+000	-4.56656E-005	-1.68088E-001	1.63449E-001	3.57800E+000	9	...........
	38	0.52	1.59742E-001	-2.79699E-004	0.00000E+000	-4.46798E-005	-1.68088E-001	1.59780E-001	3.57800E+000	9	...........
	39	0.533333	1.56131E-001	-2.79286E-004	0.00000E+000	-4.36052E-005	-1.68088E-001	1.56166E-001	3.57800E+000	9	...........
	40	0.546667	1.52568E-001	-2.79061E-004	0.00000E+000	-4.25758E-005	-1.68088E-001	1.52595E-001	3.57800E+000	9	...........
	41	0.56	1.49131E-001	-2.78572E-004	0.00000E+000	-4.15438E-005	-1.68088E-001	1.49168E-001	3.57800E+000	9	...........
	42	0.573333	1.45750E-001	-2.79514E-004	0.00000E+000	-4.07390E-005	-1.68088E-001	1.45777E-001	3.57800E+000	9	...........
	43	0.586667	1.42400E-001	-2.79546E-004	0.00000E+000	-3.98074E-005	-1.68088E-001	1.42429E-001	3.57800E+000	9	...........
	44	0.6	1.39179E-001	-2.79070E-004	0.00000E+000	-3.88407E-005	-1.68088E-001	1.39212E-001	3.57800E+000	9	...........
	45	0.613333	1.35998E-001	-2.78224E-004	0.00000E+000	-3.78379E-005	-1.68088E-001	1.36024E-001	3.57800E+000	9	...........
	46	0.626667	1.32872E-001	-2.78455E-004	0.00000E+000	-3.69988E-005	-1.68088E-001	1.32899E-001	3.57800E+000	9	...........
	47	0.64	1.29763E-001	-2.79350E-004	0.00000E+000	-3.62493E-005	-1.68088E-001	1.29790E-001	3.57800E+000	9	...........
	48	0.653333	1.26726E-001	-2.79505E-004	0.00000E+000	-3.54205E-005	-1.68088E-001	1.26753E-001	3.57800E+000	9	...........
	49	0.666667	1.23831E-001	-2.79415E-004	0.00000E+000	-3.46003E-005	-1.68088E-001	1.23858E-001	3.57800E+000	9	...........
	50	0.68	1.20920E-001	-2.79178E-004	0.00000E+000	-3.37583E-005	-1.68088E-001	1.20951E-001	3.57800E+000	9	...........
	51	0.693333	1.18049E-001	-2.79602E-004	0.00000E+000	-3.30068E-005	-1.68088E-001	1.18079E-001	3.57800E+000	9	...........
	52	0.706667	1.15221E-001	-2.78293E-004	0.00000E+000	-3.20651E-005	-1.68088E-001	1.15247E-001	3.57800E+000	9	...........
	53	0.72	1.12438E-001	-2.79146E-004	0.00000E+000	-3.13867E-005	-1.68088E-001	1.12462E-001	3.57800E+000	9	...........
	54	0.733333	1.09651E-001	-2.78186E-004	0.00000E+000	-3.05035E-005	-1.68088E-001	1.09677E-001	3.57800E+000	9	...........
	55	0.746667	1.06918E-001	-2.78839E-004	0.00000E+000	-2.98130E-005	-1.68088E-001	1.06940E-001	3.57800E+000	9	...........
	56	0.76	1.04199E-001	-2.78791E-004	0.00000E+000	-2.90496E-005	-1.68088E-001	1.04223E-001	3.57800E+000	9	...........
	57	0.773333	1.01502E-001	-2.79407E-004	0.00000E+000	-2.83603E-005	-1.68088E-001	1.01525E-001	3.57800E+000	9	...........
	58	0.786667	9.88621E-002	-2.79374E-004	0.00000E+000	-2.76195E-005	-1.68088E-001	9.88865E-002	3.57800E+000	9	...........
	59	0.8	9.62609E-002	-2.79677E-004	0.00000E+000	-2.69220E-005	-1.68088E-001	9.62870E-002	3.57800E+000	9	...........
	60	0.813333	9.36602E-002	-2.79241E-004	0.00000E+000	-2.61537E-005	-1.68088E-001	9.36808E-002	3.57800E+000	9	...........
	61	0.826667	9.11215E-002	-2.79818E-004	0.00000E+000	-2.54974E-005	-1.68088E-001	9.11424E-002	3.57800E+000	9	...........
	62	0.84	8.86261E-002	-2.78927E-004	0.00000E+000	-2.47202E-005	-1.68088E-001	8.86510E-002	3.57800E+000	9	...........
	63	0.853333	8.61549E-002	-2.79341E-004	0.00000E+000	-2.40666E-005	-1.68088E-001	8.61824E-002	3.57800E+000	9	...........
	64	0.866667	8.36670E-002	-2.79657E-004	0.00000E+000	-2.33981E-005	-1.68088E-001	8.36887E-002	3.57800E+000	9	...........
	65	0.88	8.12348E-002	-2.79630E-004	0.00000E+000	-2.27157E-005	-1.68088E-001	8.12518E-002	3.57800E+000	9	...........
	66	0.893333	7.88462E-002	-2.79026E-004	0.00000E+000	-2.20001E-005	-1.68088E-001	7.88653E-002	3.57800E+000	9	...........
	67	0.906667	7.65118E-002	-2.79357E-004	0.00000E+000	-2.13741E-005	-1.68088E-001	7.65275E-002	3.57800E+000	9	...........
	68	0.92	7.41607E-002	-2.79048E-004	0.00000E+000	-2.06944E-005	-1.68088E-001	7.41759E-002	3.57800E+000	9	...........
	69	0.933333	7.17886E-002	-2.79622E-004	0.00000E+000	-2.00737E-005	-1.68088E-001	7.17998E-002	3.57800E+000	9	...........
	70	0.946667	6.94063E-002	-2.79124E-004	0.00000E+000	-1.93730E-005	-1.68088E-001	6.94190E-002	3.57800E+000	9	...........
	71	0.96	6.70501E-002	-2.78894E-004	0.00000E+000	-1.86999E-005	-1.68088E-001	6.70623E-002	3.57800E+000	9	...........
	72	0.97333	6.48394E-002	-2.80114E-004	0.00000E+000	-1.81624E-005	-1.68088E-001	6.48470E-002	3.57800E+000	9	...........
	73	0.98667	6.26013E-002	-2.78821E-004	0.00000E+000	-1.74545E-005	-1.68088E-001	6.26103E-002	3.57800E+000	9	...........
	74	1	6.03295E-002	-2.79232E-004	0.00000E+000	-1.68459E-005	-1.68088E-001	6.03365E-002	3.57800E+000	9	...........
	75	1.01333	5.81026E-002	-2.78827E-004	0.00000E+000	-1.62006E-005	-1.68088E-001	5.81099E-002	3.57800E+000	9	...........
	76	1.02667	5.59011E-002	-2.80255E-004	0.00000E+000	-1.56666E-005	-1.68088E-001	5.59077E-002	3.57800E+000	9	...........
	77	1.04	5.37323E-002	-2.79602E-004	0.00000E+000	-1.50237E-005	-1.68088E-001	5.37371E-002	3.57800E+000	9	...........
	78	1.05333	5.15673E-002	-2.79410E-004	0.00000E+000	-1.44085E-005	-1.68088E-001	5.15785E-002	3.57800E+000	9	...........
	79	1.06667	4.93687E-002	-2.79498E-004	0.00000E+000	-1.37984E-005	-1.68088E-001	4.93706E-002	3.57800E+000	9	...........
	80	1.08	4.72896E-002	-2.78822E-004	0.00000E+000	-1.31854E-005	-1.68088E-001	4.73011E-002	3.57800E+000	9	...........
	81	1.09333	4.51853E-002	-2.78926E-004	0.00000E+000	-1.26033E-005	-1.68088E-001	4.51948E-002	3.57800E+000	9	...........
	82	1.10667	4.30543E-002	-2.79508E-004	0.00000E+000	-1.20340E-005	-1.68088E-001	4.30602E-002	3.57800E+000	9	...........
	83	1.12	4.09201E-002	-2.78745E-004	0.00000E+000	-1.14063E-005	-1.68088E-001	4.09282E-002	3.57800E+000	9	...........
	84	1.13333	3.88766E-002	-2.78553E-004	0.00000E+000	-1.08292E-005	-1.68088E-001	3.88815E-002	3.57800E+000	9	...........
	85	1.14667	3.68235E-002	-2.78869E-004	0.00000E+000	-1.02689E-005	-1.68088E-001	3.68252E-002	3.57800E+000	9	...........
	86	1.16	3.47637E-002	-2.79166E-004	0.00000E+000	-9.70484E-006	-1.68088E-001	3.47597E-002	3.57800E+000	9	...........
	87	1.17333	3.27595E-002	-2.78608E-004	0.00000E+000	-9.12707E-006	-1.68088E-001	3.27598E-002	3.57800E+000	9	...........
	88	1.18667	3.07256E-002	-2.78785E-004	0.00000E+000	-8.56585E-006	-1.68088E-001	3.07274E-002	3.57800E+000	9	...........
	89	1.2	2.87860E-002	-2.79273E-004	0.00000E+000	-8.03916E-006	-1.68088E-001	2.87849E-002	3.57800E+000	9	...........
	90	1.21333	2.68627E-002	-2.79127E-004	0.00000E+000	-7.49810E-006	-1.68088E-001	2.68589E-002	3.57800E+000	9	...........
	91	1.22667	2.48948E-002	-2.78828E-004	0.00000E+000	-6.94135E-006	-1.68088E-001	2.48903E-002	3.57800E+000	9	...........
	92	1.24	2.29410E-002	-2.79100E-004	0.00000E+000	-6.40285E-006	-1.68088E-001	2.29334E-002	3.57800E+000	9	...........
	93	1.25333	2.09959E-002	-2.79779E-004	0.00000E+000	-5.87422E-006	-1.68088E-001	2.09929E-002	3.57800E+000	9	...........
	94	1.26667	1.90917E-002	-2.79017E-004	0.00000E+000	-5.32691E-006	-1.68088E-001	1.90836E-002	3.57800E+000	9	...........
	95	1.28	1.71872E-002	-2.79862E-004	0.00000E+000	-4.81003E-006	-1.68088E-001	1.71783E-002	3.57800E+000	9	...........
	96	1.29333	1.53066E-002	-2.78153E-004	0.00000E+000	-4.25758E-006	-1.68088E-001	1.52970E-002	3.57800E+000	9	...........
	97	1.30667	1.33517E-002	-2.78955E-004	0.00000E+000	-3.72452E-006	-1.68088E-001	1.33408E-002	3.57800E+000	9	...........
	98	1.32	1.14424E-002	-2.79496E-004	0.00000E+000	-3.19810E-006	-1.68088E-001	1.14302E-002	3.57800E+000	9	...........
	99	1.33333	9.59179E-003	-2.79690E-004	0.00000E+000	-2.68272E-006	-1.68088E-001	9.57767E-003	3.57800E+000	9	...........
	100	1.34667	7.74916E-003	-2.79201E-004	0.00000E+000	-2.16357E-006	-1.68088E-001	7.73331E-003	3.57800E+000	9	...........
	101	1.36	5.89545E-003	-2.79634E-004	0.00000E+000	-1.64857E-006	-1.68088E-001	5.87636E-003	3.57800E+000	9	...........
	102	1.37333	4.03243E-003	-2.79442E-004	0.00000E+000	-1.12683E-006	-1.68088E-001	4.01104E-003	3.57800E+000	9	...........
	103	1.38667	2.22284E-003	-2.79584E-004	0.00000E+000	-6.21472E-007	-1.68088E-001	2.20037E-003	3.57800E+000	9	...........
	104	1.39833	5.47469E-004	-2.79149E-004	0.00000E+000	-1.52825E-007	-1.68088E-001	5.25911E-004	3.57800E+000	9	...........
STARTTIMEOFFSET	QUANT	462.5667	Start Time Offset (s)
