EXPLAIN
TAG	PWR800_DISCHARGE
TITLE	LABEL	PWR Cyclic Charge Discharge (Cell) - Discharge Step	Test &Identifier
DATE	LABEL	7-7-2017	Date
TIME	LABEL	15:58:24	Time
NOTES	NOTES	3	&Notes...
	supercap test cell
	2.8mg
	6M KOH
PSTAT	PSTAT	IFC5000-01520	Potentiostat
CAPACITY	QUANT	1.00000E-003	Capacity (A-hr)
CELLTYPE	SELECTOR	1	&Cell Type
WORKINGCONNECTION	SELECTOR	0	&Working Lead
MAXDISCHARGETIME	VARIABLEANDUNITS	1.00000E+002	s	1.00000E+002	second(s)	Max &Discharge Time
DISCHARGEMODE	MULTIPARAM	0	2.80000E-004	&Discharge Mode	Constant Current	Amp(s)
SAMPLETIME	QUANT	1.00000E-002	Sa&mple Period (s)
DISCHARGESTOPAT1	MULTIPARAM	3	0.00000E+000	Discharge Stop At &1	Voltage < Limit	V
DISCHARGESTOPAT2	MULTIPARAM	0	0.00000E+000	Discharge Stop At &2	None	N/A
AESBHCSELECTOR	TOGGLE	F	Save Both Half Cells
IRCOMP	TOGGLE	F	IR &Measure
EOC	QUANT	0	Open Circuit (V)
SEQUENCER	TOGGLE	TRUE	Run as Sequence
PSTATMODEL	IQUANT	53	Pstat Model
PSTATSECTION	LABEL	IFC5000-01520	Pstat Section
PSTATSERIALNO	LABEL	01520	Pstat Serial Number
CTRLMODE	IQUANT	0	Control Mode
ELECTROMETER	IQUANT	1	RE=0 or CS=1
IESTAB	IQUANT	0	I/E Stability
CASPEED	IQUANT	4	Control Amp Speed
CONVENTION	IQUANT	1	Current Convention
ICHRANGE	IQUANT	2	Ich Range
ICHRANGEMODE	TOGGLE	T	Ich Auto Range
ICHOFFSETENABLE	TOGGLE	F	Ich Offset Enable
ICHOFFSET	QUANT	0	Ich Offset (V)
ICHFILTER	IQUANT	1	Ich Filter
VCHRANGE	IQUANT	2	Vch Range
VCHRANGEMODE	TOGGLE	T	Vch Auto Range
VCHOFFSETENABLE	TOGGLE	F	Vch Offset Enable
VCHOFFSET	QUANT	0	Vch Offset (V)
VCHFILTER	IQUANT	1	Vch Filter
IERANGELOWERLIMIT	IQUANT	9	I/E Range Lower Limit
IERANGEMODE	TOGGLE	F	I/E AutoRange
IERANGE	IQUANT	9	I/E Range
ACHSELECT	IQUANT	1	Ach Select
ACHRANGE	IQUANT	2	Ach Range
ACHOFFSETENABLE	TOGGLE	F	Ach Offset Enable
ACHOFFSET	QUANT	0	Ach Offset (V)
ACHFILTER	IQUANT	1	Ach Filter
CABLEID	IQUANT	14	Cable ID
DCCALDATE	LABEL	5-7-2017	DC Calibration Date
ACCALDATE	LABEL	12/3/2015	AC Calibration Date
FRAMEWORKVERSION	QUANT	7.01	Framework Version
INSTRUMENTVERSION	LABEL	4.00	Instrument Version
CURVE	TABLE	73
	Pt	T	Vf	Im	Vu	Pwr	Sig	Ach	Temp	IERange	Over
	#	s	V	A	V	W	V	V	deg C	#	bits
	0	0.013333	5.28617E-001	-2.78917E-004	0.00000E+000	-1.47440E-004	-1.68088E-001	5.28901E-001	3.57950E+000	9	...........
	1	0.026667	4.96614E-001	-2.78472E-004	0.00000E+000	-1.38293E-004	-1.68088E-001	4.96928E-001	3.57950E+000	9	...........
	2	0.04	4.67860E-001	-2.77704E-004	0.00000E+000	-1.29926E-004	-1.68088E-001	4.67979E-001	3.57950E+000	9	...........
	3	0.053333	4.40997E-001	-2.79384E-004	0.00000E+000	-1.23208E-004	-1.68088E-001	4.41110E-001	3.57950E+000	9	...........
	4	0.066667	4.16065E-001	-2.79042E-004	0.00000E+000	-1.16099E-004	-1.68088E-001	4.16172E-001	3.57950E+000	9	...........
	5	0.08	3.92911E-001	-2.78813E-004	0.00000E+000	-1.09549E-004	-1.68088E-001	3.93001E-001	3.57950E+000	9	...........
	6	0.093333	3.71394E-001	-2.78308E-004	0.00000E+000	-1.03362E-004	-1.68088E-001	3.71479E-001	3.57950E+000	9	...........
	7	0.106667	3.51387E-001	-2.78594E-004	0.00000E+000	-9.78942E-005	-1.68088E-001	3.51465E-001	3.57950E+000	9	...........
	8	0.12	3.32826E-001	-2.78484E-004	0.00000E+000	-9.26869E-005	-1.68088E-001	3.32899E-001	3.57950E+000	9	...........
	9	0.133333	3.15616E-001	-2.80131E-004	0.00000E+000	-8.84141E-005	-1.68088E-001	3.15692E-001	3.57950E+000	9	...........
	10	0.146667	2.99625E-001	-2.78623E-004	0.00000E+000	-8.34824E-005	-1.68088E-001	2.99700E-001	3.57925E+000	9	...........
	11	0.16	2.84754E-001	-2.79228E-004	0.00000E+000	-7.95115E-005	-1.68088E-001	2.84825E-001	3.57750E+000	9	...........
	12	0.173333	2.70988E-001	-2.79745E-004	0.00000E+000	-7.58076E-005	-1.68088E-001	2.71055E-001	3.57750E+000	9	...........
	13	0.186667	2.58178E-001	-2.79092E-004	0.00000E+000	-7.20554E-005	-1.68088E-001	2.58243E-001	3.57750E+000	9	...........
	14	0.2	2.46267E-001	-2.78642E-004	0.00000E+000	-6.86203E-005	-1.68088E-001	2.46327E-001	3.57750E+000	9	...........
	15	0.213333	2.35171E-001	-2.78759E-004	0.00000E+000	-6.55562E-005	-1.68088E-001	2.35228E-001	3.57750E+000	9	...........
	16	0.226667	2.24820E-001	-2.78474E-004	0.00000E+000	-6.26064E-005	-1.68088E-001	2.24877E-001	3.57750E+000	9	...........
	17	0.24	2.15182E-001	-2.79344E-004	0.00000E+000	-6.01098E-005	-1.68088E-001	2.15234E-001	3.57750E+000	9	...........
	18	0.253333	2.06131E-001	-2.79181E-004	0.00000E+000	-5.75479E-005	-1.68088E-001	2.06181E-001	3.57750E+000	9	...........
	19	0.266667	1.97591E-001	-2.77759E-004	0.00000E+000	-5.48827E-005	-1.68088E-001	1.97638E-001	3.57750E+000	9	...........
	20	0.28	1.89566E-001	-2.78593E-004	0.00000E+000	-5.28117E-005	-1.68088E-001	1.89612E-001	3.57750E+000	9	...........
	21	0.293333	1.82031E-001	-2.79235E-004	0.00000E+000	-5.08295E-005	-1.68088E-001	1.82078E-001	3.57750E+000	9	...........
	22	0.306667	1.74922E-001	-2.78243E-004	0.00000E+000	-4.86708E-005	-1.68088E-001	1.74968E-001	3.57750E+000	9	...........
	23	0.32	1.68162E-001	-2.79603E-004	0.00000E+000	-4.70185E-005	-1.68088E-001	1.68205E-001	3.57750E+000	9	...........
	24	0.333333	1.61772E-001	-2.78262E-004	0.00000E+000	-4.50151E-005	-1.68088E-001	1.61805E-001	3.57750E+000	9	...........
	25	0.346667	1.55744E-001	-2.78129E-004	0.00000E+000	-4.33169E-005	-1.68088E-001	1.55784E-001	3.57750E+000	9	...........
	26	0.36	1.49976E-001	-2.78964E-004	0.00000E+000	-4.18378E-005	-1.68088E-001	1.50007E-001	3.57750E+000	9	...........
	27	0.373333	1.44447E-001	-2.78593E-004	0.00000E+000	-4.02418E-005	-1.68088E-001	1.44478E-001	3.57750E+000	9	...........
	28	0.386667	1.39142E-001	-2.78271E-004	0.00000E+000	-3.87190E-005	-1.68088E-001	1.39176E-001	3.57750E+000	9	...........
	29	0.4	1.34052E-001	-2.78308E-004	0.00000E+000	-3.73078E-005	-1.68088E-001	1.34084E-001	3.57750E+000	9	...........
	30	0.413333	1.29152E-001	-2.78749E-004	0.00000E+000	-3.60010E-005	-1.68088E-001	1.29181E-001	3.57750E+000	9	...........
	31	0.426667	1.24451E-001	-2.78709E-004	0.00000E+000	-3.46856E-005	-1.68088E-001	1.24478E-001	3.57750E+000	9	...........
	32	0.44	1.19931E-001	-2.78529E-004	0.00000E+000	-3.34042E-005	-1.68088E-001	1.19959E-001	3.57750E+000	9	...........
	33	0.453333	1.15556E-001	-2.78438E-004	0.00000E+000	-3.21754E-005	-1.68088E-001	1.15584E-001	3.57750E+000	9	...........
	34	0.466667	1.11321E-001	-2.78905E-004	0.00000E+000	-3.10481E-005	-1.68088E-001	1.11354E-001	3.57750E+000	9	...........
	35	0.48	1.07188E-001	-2.79189E-004	0.00000E+000	-2.99257E-005	-1.68088E-001	1.07215E-001	3.57750E+000	9	...........
	36	0.493333	1.03188E-001	-2.79238E-004	0.00000E+000	-2.88141E-005	-1.68088E-001	1.03213E-001	3.57750E+000	9	...........
	37	0.506667	9.93016E-002	-2.78918E-004	0.00000E+000	-2.76970E-005	-1.68088E-001	9.93295E-002	3.57750E+000	9	...........
	38	0.52	9.55219E-002	-2.78830E-004	0.00000E+000	-2.66344E-005	-1.68088E-001	9.55465E-002	3.57750E+000	9	...........
	39	0.533333	9.18231E-002	-2.78404E-004	0.00000E+000	-2.55639E-005	-1.68088E-001	9.18457E-002	3.57750E+000	9	...........
	40	0.546667	8.82218E-002	-2.80063E-004	0.00000E+000	-2.47076E-005	-1.68088E-001	8.82492E-002	3.57750E+000	9	...........
	41	0.56	8.47174E-002	-2.78220E-004	0.00000E+000	-2.35700E-005	-1.68088E-001	8.47395E-002	3.57750E+000	9	...........
	42	0.573333	8.13016E-002	-2.78301E-004	0.00000E+000	-2.26263E-005	-1.68088E-001	8.13159E-002	3.57750E+000	9	...........
	43	0.586667	7.79507E-002	-2.79369E-004	0.00000E+000	-2.17770E-005	-1.68088E-001	7.79676E-002	3.57750E+000	9	...........
	44	0.6	7.46913E-002	-2.78215E-004	0.00000E+000	-2.07803E-005	-1.68088E-001	7.47007E-002	3.57750E+000	9	...........
	45	0.613333	7.14690E-002	-2.79778E-004	0.00000E+000	-1.99955E-005	-1.68088E-001	7.14785E-002	3.57750E+000	9	...........
	46	0.626667	6.83013E-002	-2.77784E-004	0.00000E+000	-1.89730E-005	-1.68088E-001	6.83172E-002	3.57750E+000	9	...........
	47	0.64	6.52380E-002	-2.79344E-004	0.00000E+000	-1.82238E-005	-1.68088E-001	6.52508E-002	3.57750E+000	9	...........
	48	0.653333	6.21515E-002	-2.79134E-004	0.00000E+000	-1.73486E-005	-1.68088E-001	6.21638E-002	3.57750E+000	9	...........
	49	0.666667	5.91508E-002	-2.79437E-004	0.00000E+000	-1.65289E-005	-1.68088E-001	5.91590E-002	3.57750E+000	9	...........
	50	0.68	5.62185E-002	-2.78350E-004	0.00000E+000	-1.56484E-005	-1.68088E-001	5.62315E-002	3.57750E+000	9	...........
	51	0.693333	5.33006E-002	-2.79320E-004	0.00000E+000	-1.48879E-005	-1.68088E-001	5.33086E-002	3.57750E+000	9	...........
	52	0.706667	5.04423E-002	-2.79392E-004	0.00000E+000	-1.40932E-005	-1.68088E-001	5.04521E-002	3.57750E+000	9	...........
	53	0.72	4.76073E-002	-2.78796E-004	0.00000E+000	-1.32727E-005	-1.68088E-001	4.76124E-002	3.57750E+000	9	...........
	54	0.733333	4.48116E-002	-2.80214E-004	0.00000E+000	-1.25568E-005	-1.68088E-001	4.48220E-002	3.57750E+000	9	...........
	55	0.746667	4.20530E-002	-2.78824E-004	0.00000E+000	-1.17254E-005	-1.68088E-001	4.20622E-002	3.57750E+000	9	...........
	56	0.76	3.93550E-002	-2.78782E-004	0.00000E+000	-1.09715E-005	-1.68088E-001	3.93587E-002	3.57750E+000	9	...........
	57	0.773333	3.67191E-002	-2.78709E-004	0.00000E+000	-1.02340E-005	-1.68088E-001	3.67235E-002	3.57750E+000	9	...........
	58	0.786667	3.41282E-002	-2.78561E-004	0.00000E+000	-9.50678E-006	-1.68088E-001	3.41283E-002	3.57750E+000	9	...........
	59	0.8	3.15460E-002	-2.79272E-004	0.00000E+000	-8.80991E-006	-1.68088E-001	3.15455E-002	3.57750E+000	9	...........
	60	0.813333	2.90205E-002	-2.78317E-004	0.00000E+000	-8.07689E-006	-1.68088E-001	2.90201E-002	3.57750E+000	9	...........
	61	0.826667	2.64781E-002	-2.78994E-004	0.00000E+000	-7.38722E-006	-1.68088E-001	2.64748E-002	3.57750E+000	9	...........
	62	0.84	2.39834E-002	-2.78672E-004	0.00000E+000	-6.68350E-006	-1.68088E-001	2.39816E-002	3.57750E+000	9	...........
	63	0.853333	2.14665E-002	-2.78732E-004	0.00000E+000	-5.98340E-006	-1.68088E-001	2.14627E-002	3.57750E+000	9	...........
	64	0.866667	1.89817E-002	-2.79416E-004	0.00000E+000	-5.30380E-006	-1.68088E-001	1.89777E-002	3.57750E+000	9	...........
	65	0.88	1.65461E-002	-2.78691E-004	0.00000E+000	-4.61124E-006	-1.68088E-001	1.65395E-002	3.57750E+000	9	...........
	66	0.893333	1.41183E-002	-2.79523E-004	0.00000E+000	-3.94639E-006	-1.68088E-001	1.41120E-002	3.57750E+000	9	...........
	67	0.906667	1.17162E-002	-2.78389E-004	0.00000E+000	-3.26167E-006	-1.68088E-001	1.17015E-002	3.57750E+000	9	...........
	68	0.92	9.40527E-003	-2.77768E-004	0.00000E+000	-2.61249E-006	-1.68088E-001	9.39059E-003	3.57750E+000	9	...........
	69	0.933333	7.10670E-003	-2.78400E-004	0.00000E+000	-1.97850E-006	-1.68088E-001	7.09118E-003	3.57750E+000	9	...........
	70	0.946667	4.81144E-003	-2.79562E-004	0.00000E+000	-1.34509E-006	-1.68088E-001	4.79603E-003	3.57750E+000	9	...........
	71	0.96	2.54698E-003	-2.79327E-004	0.00000E+000	-7.11442E-007	-1.68088E-001	2.52870E-003	3.57750E+000	9	...........
	72	0.97	5.57130E-004	-2.78744E-004	0.00000E+000	-1.55296E-007	-1.68088E-001	5.44069E-004	3.57750E+000	9	...........
STARTTIMEOFFSET	QUANT	1041.104	Start Time Offset (s)
