EXPLAIN
TAG	PWR800_DISCHARGE
TITLE	LABEL	PWR Cyclic Charge Discharge (Cell) - Discharge Step	Test &Identifier
DATE	LABEL	7-7-2017	Date
TIME	LABEL	16:18:17	Time
NOTES	NOTES	3	&Notes...
	supercap test cell
	2.8mg
	6M KOH
PSTAT	PSTAT	IFC5000-01520	Potentiostat
CAPACITY	QUANT	1.00000E-003	Capacity (A-hr)
CELLTYPE	SELECTOR	1	&Cell Type
WORKINGCONNECTION	SELECTOR	0	&Working Lead
MAXDISCHARGETIME	VARIABLEANDUNITS	1.00000E+002	s	1.00000E+002	second(s)	Max &Discharge Time
DISCHARGEMODE	MULTIPARAM	0	2.80000E-004	&Discharge Mode	Constant Current	Amp(s)
SAMPLETIME	QUANT	1.00000E-002	Sa&mple Period (s)
DISCHARGESTOPAT1	MULTIPARAM	3	0.00000E+000	Discharge Stop At &1	Voltage < Limit	V
DISCHARGESTOPAT2	MULTIPARAM	0	0.00000E+000	Discharge Stop At &2	None	N/A
AESBHCSELECTOR	TOGGLE	F	Save Both Half Cells
IRCOMP	TOGGLE	F	IR &Measure
EOC	QUANT	0	Open Circuit (V)
SEQUENCER	TOGGLE	TRUE	Run as Sequence
PSTATMODEL	IQUANT	53	Pstat Model
PSTATSECTION	LABEL	IFC5000-01520	Pstat Section
PSTATSERIALNO	LABEL	01520	Pstat Serial Number
CTRLMODE	IQUANT	0	Control Mode
ELECTROMETER	IQUANT	1	RE=0 or CS=1
IESTAB	IQUANT	0	I/E Stability
CASPEED	IQUANT	4	Control Amp Speed
CONVENTION	IQUANT	1	Current Convention
ICHRANGE	IQUANT	2	Ich Range
ICHRANGEMODE	TOGGLE	T	Ich Auto Range
ICHOFFSETENABLE	TOGGLE	F	Ich Offset Enable
ICHOFFSET	QUANT	0	Ich Offset (V)
ICHFILTER	IQUANT	1	Ich Filter
VCHRANGE	IQUANT	2	Vch Range
VCHRANGEMODE	TOGGLE	T	Vch Auto Range
VCHOFFSETENABLE	TOGGLE	F	Vch Offset Enable
VCHOFFSET	QUANT	0	Vch Offset (V)
VCHFILTER	IQUANT	1	Vch Filter
IERANGELOWERLIMIT	IQUANT	9	I/E Range Lower Limit
IERANGEMODE	TOGGLE	F	I/E AutoRange
IERANGE	IQUANT	9	I/E Range
ACHSELECT	IQUANT	1	Ach Select
ACHRANGE	IQUANT	2	Ach Range
ACHOFFSETENABLE	TOGGLE	F	Ach Offset Enable
ACHOFFSET	QUANT	0	Ach Offset (V)
ACHFILTER	IQUANT	1	Ach Filter
CABLEID	IQUANT	14	Cable ID
DCCALDATE	LABEL	5-7-2017	DC Calibration Date
ACCALDATE	LABEL	12/3/2015	AC Calibration Date
FRAMEWORKVERSION	QUANT	7.01	Framework Version
INSTRUMENTVERSION	LABEL	4.00	Instrument Version
CURVE	TABLE	55
	Pt	T	Vf	Im	Vu	Pwr	Sig	Ach	Temp	IERange	Over
	#	s	V	A	V	W	V	V	deg C	#	bits
	0	0.013333	5.17409E-001	-2.78219E-004	0.00000E+000	-1.43953E-004	-1.68088E-001	5.17650E-001	3.57770E+000	9	...........
	1	0.026667	4.83770E-001	-2.79001E-004	0.00000E+000	-1.34972E-004	-1.68088E-001	4.83922E-001	3.57770E+000	9	...........
	2	0.04	4.52901E-001	-2.79641E-004	0.00000E+000	-1.26650E-004	-1.68088E-001	4.53006E-001	3.57770E+000	9	...........
	3	0.053333	4.24056E-001	-2.79328E-004	0.00000E+000	-1.18451E-004	-1.68088E-001	4.24155E-001	3.57770E+000	9	...........
	4	0.066667	3.97125E-001	-2.78823E-004	0.00000E+000	-1.10727E-004	-1.68088E-001	3.97210E-001	3.57770E+000	9	...........
	5	0.08	3.71927E-001	-2.79339E-004	0.00000E+000	-1.03893E-004	-1.68088E-001	3.72010E-001	3.57770E+000	9	...........
	6	0.093333	3.48425E-001	-2.79423E-004	0.00000E+000	-9.73578E-005	-1.68088E-001	3.48505E-001	3.57770E+000	9	...........
	7	0.106667	3.26490E-001	-2.78617E-004	0.00000E+000	-9.09655E-005	-1.68088E-001	3.26563E-001	3.57770E+000	9	...........
	8	0.12	3.06041E-001	-2.79780E-004	0.00000E+000	-8.56243E-005	-1.68088E-001	3.06113E-001	3.57770E+000	9	...........
	9	0.133333	2.87055E-001	-2.80149E-004	0.00000E+000	-8.04182E-005	-1.68088E-001	2.87120E-001	3.57770E+000	9	...........
	10	0.146667	2.69434E-001	-2.79066E-004	0.00000E+000	-7.51898E-005	-1.68088E-001	2.69493E-001	3.57770E+000	9	...........
	11	0.16	2.53027E-001	-2.78639E-004	0.00000E+000	-7.05032E-005	-1.68088E-001	2.53090E-001	3.57770E+000	9	...........
	12	0.173333	2.37814E-001	-2.78424E-004	0.00000E+000	-6.62130E-005	-1.68088E-001	2.37869E-001	3.57770E+000	9	...........
	13	0.186667	2.23661E-001	-2.79729E-004	0.00000E+000	-6.25645E-005	-1.68088E-001	2.23713E-001	3.57770E+000	9	...........
	14	0.2	2.10532E-001	-2.78676E-004	0.00000E+000	-5.86702E-005	-1.68088E-001	2.10580E-001	3.57770E+000	9	...........
	15	0.213333	1.98359E-001	-2.78452E-004	0.00000E+000	-5.52335E-005	-1.68088E-001	1.98407E-001	3.57770E+000	9	...........
	16	0.226667	1.87007E-001	-2.78745E-004	0.00000E+000	-5.21272E-005	-1.68088E-001	1.87047E-001	3.57770E+000	9	...........
	17	0.24	1.76406E-001	-2.78278E-004	0.00000E+000	-4.90900E-005	-1.68088E-001	1.76450E-001	3.57770E+000	9	...........
	18	0.253333	1.66553E-001	-2.77747E-004	0.00000E+000	-4.62594E-005	-1.68088E-001	1.66590E-001	3.57770E+000	9	...........
	19	0.266667	1.57350E-001	-2.80474E-004	0.00000E+000	-4.41328E-005	-1.68088E-001	1.57390E-001	3.57770E+000	9	...........
	20	0.28	1.48707E-001	-2.78779E-004	0.00000E+000	-4.14564E-005	-1.68088E-001	1.48739E-001	3.57770E+000	9	...........
	21	0.293333	1.40622E-001	-2.79393E-004	0.00000E+000	-3.92889E-005	-1.68088E-001	1.40657E-001	3.57770E+000	9	...........
	22	0.306667	1.33001E-001	-2.78513E-004	0.00000E+000	-3.70427E-005	-1.68088E-001	1.33030E-001	3.57770E+000	9	...........
	23	0.32	1.25825E-001	-2.80194E-004	0.00000E+000	-3.52553E-005	-1.68088E-001	1.25850E-001	3.57770E+000	9	...........
	24	0.333333	1.19042E-001	-2.77876E-004	0.00000E+000	-3.30788E-005	-1.68088E-001	1.19067E-001	3.57770E+000	9	...........
	25	0.346667	1.12609E-001	-2.80374E-004	0.00000E+000	-3.15727E-005	-1.68088E-001	1.12635E-001	3.57770E+000	9	...........
	26	0.36	1.06553E-001	-2.78621E-004	0.00000E+000	-2.96878E-005	-1.68088E-001	1.06578E-001	3.57770E+000	9	...........
	27	0.373333	1.00751E-001	-2.79486E-004	0.00000E+000	-2.81586E-005	-1.68088E-001	1.00771E-001	3.57770E+000	9	...........
	28	0.386667	9.52288E-002	-2.80186E-004	0.00000E+000	-2.66817E-005	-1.68088E-001	9.52483E-002	3.57770E+000	9	...........
	29	0.4	8.99612E-002	-2.79010E-004	0.00000E+000	-2.51001E-005	-1.68088E-001	8.99842E-002	3.57770E+000	9	...........
	30	0.413333	8.49077E-002	-2.78710E-004	0.00000E+000	-2.36646E-005	-1.68088E-001	8.49222E-002	3.57770E+000	9	...........
	31	0.426667	8.00579E-002	-2.78841E-004	0.00000E+000	-2.23234E-005	-1.68088E-001	8.00716E-002	3.57770E+000	9	...........
	32	0.44	7.53584E-002	-2.79153E-004	0.00000E+000	-2.10365E-005	-1.68088E-001	7.53702E-002	3.57770E+000	9	...........
	33	0.453333	7.08418E-002	-2.79065E-004	0.00000E+000	-1.97694E-005	-1.68088E-001	7.08530E-002	3.57770E+000	9	...........
	34	0.466667	6.65197E-002	-2.79413E-004	0.00000E+000	-1.85864E-005	-1.68088E-001	6.65222E-002	3.57770E+000	9	...........
	35	0.48	6.23083E-002	-2.77731E-004	0.00000E+000	-1.73049E-005	-1.68088E-001	6.23241E-002	3.57770E+000	9	...........
	36	0.493333	5.82261E-002	-2.79207E-004	0.00000E+000	-1.62571E-005	-1.68088E-001	5.82337E-002	3.57770E+000	9	...........
	37	0.506667	5.42297E-002	-2.79752E-004	0.00000E+000	-1.51709E-005	-1.68088E-001	5.42364E-002	3.57770E+000	9	...........
	38	0.52	5.03443E-002	-2.78425E-004	0.00000E+000	-1.40171E-005	-1.68088E-001	5.03579E-002	3.57770E+000	9	...........
	39	0.533333	4.65936E-002	-2.79770E-004	0.00000E+000	-1.30355E-005	-1.68088E-001	4.65970E-002	3.57770E+000	9	...........
	40	0.546667	4.29631E-002	-2.78272E-004	0.00000E+000	-1.19554E-005	-1.68088E-001	4.29772E-002	3.57770E+000	9	...........
	41	0.56	3.94133E-002	-2.79126E-004	0.00000E+000	-1.10013E-005	-1.68088E-001	3.94203E-002	3.57770E+000	9	...........
	42	0.573333	3.59554E-002	-2.78325E-004	0.00000E+000	-1.00073E-005	-1.68088E-001	3.59570E-002	3.57770E+000	9	...........
	43	0.586667	3.25371E-002	-2.80151E-004	0.00000E+000	-9.11532E-006	-1.68088E-001	3.25373E-002	3.57770E+000	9	...........
	44	0.6	2.91893E-002	-2.78301E-004	0.00000E+000	-8.12340E-006	-1.68088E-001	2.91877E-002	3.57770E+000	9	...........
	45	0.613333	2.58914E-002	-2.78294E-004	0.00000E+000	-7.20541E-006	-1.68088E-001	2.58874E-002	3.57770E+000	9	...........
	46	0.626667	2.26780E-002	-2.79043E-004	0.00000E+000	-6.32813E-006	-1.68088E-001	2.26726E-002	3.57770E+000	9	...........
	47	0.64	1.96076E-002	-2.79251E-004	0.00000E+000	-5.47545E-006	-1.68088E-001	1.96012E-002	3.57770E+000	9	...........
	48	0.653333	1.65788E-002	-2.79136E-004	0.00000E+000	-4.62776E-006	-1.68088E-001	1.65699E-002	3.57770E+000	9	...........
	49	0.666667	1.35848E-002	-2.78385E-004	0.00000E+000	-3.78182E-006	-1.68088E-001	1.35739E-002	3.57770E+000	9	...........
	50	0.68	1.06464E-002	-2.78610E-004	0.00000E+000	-2.96620E-006	-1.68088E-001	1.06357E-002	3.57770E+000	9	...........
	51	0.693333	7.75986E-003	-2.80066E-004	0.00000E+000	-2.17327E-006	-1.68088E-001	7.74333E-003	3.57770E+000	9	...........
	52	0.706667	4.90874E-003	-2.78457E-004	0.00000E+000	-1.36687E-006	-1.68088E-001	4.89547E-003	3.57770E+000	9	...........
	53	0.72	2.09122E-003	-2.78194E-004	0.00000E+000	-5.81764E-007	-1.68088E-001	2.07214E-003	3.57770E+000	9	...........
	54	0.725	1.61110E-004	-2.78237E-004	0.00000E+000	-4.48267E-008	-1.68088E-001	1.42929E-004	3.57770E+000	9	...........
STARTTIMEOFFSET	QUANT	1855.439	Start Time Offset (s)
