EXPLAIN
TAG	PWR800_DISCHARGE
TITLE	LABEL	PWR Cyclic Charge Discharge (Cell) - Discharge Step	Test &Identifier
DATE	LABEL	7-7-2017	Date
TIME	LABEL	16:08:32	Time
NOTES	NOTES	3	&Notes...
	supercap test cell
	2.8mg
	6M KOH
PSTAT	PSTAT	IFC5000-01520	Potentiostat
CAPACITY	QUANT	1.00000E-003	Capacity (A-hr)
CELLTYPE	SELECTOR	1	&Cell Type
WORKINGCONNECTION	SELECTOR	0	&Working Lead
MAXDISCHARGETIME	VARIABLEANDUNITS	1.00000E+002	s	1.00000E+002	second(s)	Max &Discharge Time
DISCHARGEMODE	MULTIPARAM	0	2.80000E-004	&Discharge Mode	Constant Current	Amp(s)
SAMPLETIME	QUANT	1.00000E-002	Sa&mple Period (s)
DISCHARGESTOPAT1	MULTIPARAM	3	0.00000E+000	Discharge Stop At &1	Voltage < Limit	V
DISCHARGESTOPAT2	MULTIPARAM	0	0.00000E+000	Discharge Stop At &2	None	N/A
AESBHCSELECTOR	TOGGLE	F	Save Both Half Cells
IRCOMP	TOGGLE	F	IR &Measure
EOC	QUANT	0	Open Circuit (V)
SEQUENCER	TOGGLE	TRUE	Run as Sequence
PSTATMODEL	IQUANT	53	Pstat Model
PSTATSECTION	LABEL	IFC5000-01520	Pstat Section
PSTATSERIALNO	LABEL	01520	Pstat Serial Number
CTRLMODE	IQUANT	0	Control Mode
ELECTROMETER	IQUANT	1	RE=0 or CS=1
IESTAB	IQUANT	0	I/E Stability
CASPEED	IQUANT	4	Control Amp Speed
CONVENTION	IQUANT	1	Current Convention
ICHRANGE	IQUANT	2	Ich Range
ICHRANGEMODE	TOGGLE	T	Ich Auto Range
ICHOFFSETENABLE	TOGGLE	F	Ich Offset Enable
ICHOFFSET	QUANT	0	Ich Offset (V)
ICHFILTER	IQUANT	1	Ich Filter
VCHRANGE	IQUANT	2	Vch Range
VCHRANGEMODE	TOGGLE	T	Vch Auto Range
VCHOFFSETENABLE	TOGGLE	F	Vch Offset Enable
VCHOFFSET	QUANT	0	Vch Offset (V)
VCHFILTER	IQUANT	1	Vch Filter
IERANGELOWERLIMIT	IQUANT	9	I/E Range Lower Limit
IERANGEMODE	TOGGLE	F	I/E AutoRange
IERANGE	IQUANT	9	I/E Range
ACHSELECT	IQUANT	1	Ach Select
ACHRANGE	IQUANT	2	Ach Range
ACHOFFSETENABLE	TOGGLE	F	Ach Offset Enable
ACHOFFSET	QUANT	0	Ach Offset (V)
ACHFILTER	IQUANT	1	Ach Filter
CABLEID	IQUANT	14	Cable ID
DCCALDATE	LABEL	5-7-2017	DC Calibration Date
ACCALDATE	LABEL	12/3/2015	AC Calibration Date
FRAMEWORKVERSION	QUANT	7.01	Framework Version
INSTRUMENTVERSION	LABEL	4.00	Instrument Version
CURVE	TABLE	62
	Pt	T	Vf	Im	Vu	Pwr	Sig	Ach	Temp	IERange	Over
	#	s	V	A	V	W	V	V	deg C	#	bits
	0	0.013333	5.30009E-001	-2.78772E-004	0.00000E+000	-1.47751E-004	-1.68088E-001	5.30257E-001	3.57780E+000	9	...........
	1	0.026667	4.96745E-001	-2.79960E-004	0.00000E+000	-1.39069E-004	-1.68088E-001	4.97006E-001	3.57780E+000	9	...........
	2	0.04	4.66607E-001	-2.77857E-004	0.00000E+000	-1.29650E-004	-1.68088E-001	4.66727E-001	3.57780E+000	9	...........
	3	0.053333	4.38319E-001	-2.78907E-004	0.00000E+000	-1.22250E-004	-1.68088E-001	4.38426E-001	3.57780E+000	9	...........
	4	0.066667	4.11934E-001	-2.77665E-004	0.00000E+000	-1.14380E-004	-1.68088E-001	4.12034E-001	3.57780E+000	9	...........
	5	0.08	3.87285E-001	-2.78718E-004	0.00000E+000	-1.07943E-004	-1.68088E-001	3.87374E-001	3.57780E+000	9	...........
	6	0.093333	3.64273E-001	-2.80187E-004	0.00000E+000	-1.02065E-004	-1.68088E-001	3.64359E-001	3.57780E+000	9	...........
	7	0.106667	3.42811E-001	-2.78576E-004	0.00000E+000	-9.54990E-005	-1.68088E-001	3.42893E-001	3.57780E+000	9	...........
	8	0.12	3.22833E-001	-2.79135E-004	0.00000E+000	-9.01141E-005	-1.68088E-001	3.22911E-001	3.57780E+000	9	...........
	9	0.133333	3.04231E-001	-2.78333E-004	0.00000E+000	-8.46775E-005	-1.68088E-001	3.04307E-001	3.57780E+000	9	...........
	10	0.146667	2.86955E-001	-2.79855E-004	0.00000E+000	-8.03060E-005	-1.68088E-001	2.87031E-001	3.57780E+000	9	...........
	11	0.16	2.70927E-001	-2.78717E-004	0.00000E+000	-7.55120E-005	-1.68088E-001	2.70999E-001	3.57780E+000	9	...........
	12	0.173333	2.56049E-001	-2.78001E-004	0.00000E+000	-7.11817E-005	-1.68088E-001	2.56115E-001	3.57780E+000	9	...........
	13	0.186667	2.42257E-001	-2.78819E-004	0.00000E+000	-6.75459E-005	-1.68088E-001	2.42317E-001	3.57780E+000	9	...........
	14	0.2	2.29398E-001	-2.79805E-004	0.00000E+000	-6.41868E-005	-1.68088E-001	2.29461E-001	3.57780E+000	9	...........
	15	0.213333	2.17432E-001	-2.79544E-004	0.00000E+000	-6.07819E-005	-1.68088E-001	2.17486E-001	3.57780E+000	9	...........
	16	0.226667	2.06290E-001	-2.78809E-004	0.00000E+000	-5.75155E-005	-1.68088E-001	2.06335E-001	3.57780E+000	9	...........
	17	0.24	1.95895E-001	-2.79673E-004	0.00000E+000	-5.47865E-005	-1.68088E-001	1.95941E-001	3.57780E+000	9	...........
	18	0.253333	1.86172E-001	-2.78584E-004	0.00000E+000	-5.18646E-005	-1.68088E-001	1.86222E-001	3.57780E+000	9	...........
	19	0.266667	1.77051E-001	-2.79340E-004	0.00000E+000	-4.94573E-005	-1.68088E-001	1.77095E-001	3.57780E+000	9	...........
	20	0.28	1.68526E-001	-2.77791E-004	0.00000E+000	-4.68151E-005	-1.68088E-001	1.68569E-001	3.57780E+000	9	...........
	21	0.293333	1.60534E-001	-2.79440E-004	0.00000E+000	-4.48597E-005	-1.68088E-001	1.60576E-001	3.57780E+000	9	...........
	22	0.306667	1.52984E-001	-2.77877E-004	0.00000E+000	-4.25108E-005	-1.68088E-001	1.53022E-001	3.57780E+000	9	...........
	23	0.32	1.45825E-001	-2.78845E-004	0.00000E+000	-4.06625E-005	-1.68088E-001	1.45861E-001	3.57780E+000	9	...........
	24	0.333333	1.39062E-001	-2.79395E-004	0.00000E+000	-3.88532E-005	-1.68088E-001	1.39094E-001	3.57780E+000	9	...........
	25	0.346667	1.32692E-001	-2.79015E-004	0.00000E+000	-3.70229E-005	-1.68088E-001	1.32727E-001	3.57780E+000	9	...........
	26	0.36	1.26627E-001	-2.77866E-004	0.00000E+000	-3.51853E-005	-1.68088E-001	1.26662E-001	3.57780E+000	9	...........
	27	0.373333	1.20823E-001	-2.79048E-004	0.00000E+000	-3.37154E-005	-1.68088E-001	1.20855E-001	3.57780E+000	9	...........
	28	0.386667	1.15270E-001	-2.80123E-004	0.00000E+000	-3.22897E-005	-1.68088E-001	1.15300E-001	3.57780E+000	9	...........
	29	0.4	1.09986E-001	-2.78154E-004	0.00000E+000	-3.05932E-005	-1.68088E-001	1.10021E-001	3.57780E+000	9	...........
	30	0.413333	1.04947E-001	-2.77846E-004	0.00000E+000	-2.91591E-005	-1.68088E-001	1.04975E-001	3.57780E+000	9	...........
	31	0.426667	1.00088E-001	-2.78524E-004	0.00000E+000	-2.78770E-005	-1.68088E-001	1.00120E-001	3.57780E+000	9	...........
	32	0.44	9.53889E-002	-2.79387E-004	0.00000E+000	-2.66504E-005	-1.68088E-001	9.54162E-002	3.57780E+000	9	...........
	33	0.453333	9.08719E-002	-2.78368E-004	0.00000E+000	-2.52958E-005	-1.68088E-001	9.08964E-002	3.57780E+000	9	...........
	34	0.466667	8.65022E-002	-2.78949E-004	0.00000E+000	-2.41297E-005	-1.68088E-001	8.65207E-002	3.57780E+000	9	...........
	35	0.48	8.22629E-002	-2.78375E-004	0.00000E+000	-2.28999E-005	-1.68088E-001	8.22814E-002	3.57780E+000	9	...........
	36	0.493333	7.81993E-002	-2.78449E-004	0.00000E+000	-2.17745E-005	-1.68088E-001	7.82151E-002	3.57780E+000	9	...........
	37	0.506667	7.42355E-002	-2.79174E-004	0.00000E+000	-2.07246E-005	-1.68088E-001	7.42569E-002	3.57780E+000	9	...........
	38	0.52	7.04184E-002	-2.79257E-004	0.00000E+000	-1.96649E-005	-1.68088E-001	7.04380E-002	3.57780E+000	9	...........
	39	0.533333	6.66359E-002	-2.79794E-004	0.00000E+000	-1.86443E-005	-1.68088E-001	6.66515E-002	3.57780E+000	9	...........
	40	0.546667	6.29755E-002	-2.79581E-004	0.00000E+000	-1.76068E-005	-1.68088E-001	6.29983E-002	3.57780E+000	9	...........
	41	0.56	5.94864E-002	-2.78532E-004	0.00000E+000	-1.65689E-005	-1.68088E-001	5.95010E-002	3.57780E+000	9	...........
	42	0.573333	5.60272E-002	-2.78654E-004	0.00000E+000	-1.56122E-005	-1.68088E-001	5.60382E-002	3.57780E+000	9	...........
	43	0.586667	5.25985E-002	-2.78795E-004	0.00000E+000	-1.46642E-005	-1.68088E-001	5.26148E-002	3.57780E+000	9	...........
	44	0.6	4.92741E-002	-2.80110E-004	0.00000E+000	-1.38021E-005	-1.68088E-001	4.92845E-002	3.57780E+000	9	...........
	45	0.613333	4.60507E-002	-2.79059E-004	0.00000E+000	-1.28509E-005	-1.68088E-001	4.60633E-002	3.57780E+000	9	...........
	46	0.626667	4.28838E-002	-2.79270E-004	0.00000E+000	-1.19761E-005	-1.68088E-001	4.28905E-002	3.57780E+000	9	...........
	47	0.64	3.97442E-002	-2.78974E-004	0.00000E+000	-1.10876E-005	-1.68088E-001	3.97513E-002	3.57780E+000	9	...........
	48	0.653333	3.66897E-002	-2.79760E-004	0.00000E+000	-1.02643E-005	-1.68088E-001	3.66896E-002	3.57780E+000	9	...........
	49	0.666667	3.37147E-002	-2.77788E-004	0.00000E+000	-9.36555E-006	-1.68088E-001	3.37188E-002	3.57780E+000	9	...........
	50	0.68	3.07419E-002	-2.78062E-004	0.00000E+000	-8.54816E-006	-1.68088E-001	3.07434E-002	3.57780E+000	9	...........
	51	0.693333	2.78476E-002	-2.78706E-004	0.00000E+000	-7.76131E-006	-1.68088E-001	2.78508E-002	3.57780E+000	9	...........
	52	0.706667	2.49616E-002	-2.78754E-004	0.00000E+000	-6.95816E-006	-1.68088E-001	2.49619E-002	3.57780E+000	9	...........
	53	0.72	2.20948E-002	-2.78683E-004	0.00000E+000	-6.15744E-006	-1.68088E-001	2.20936E-002	3.57780E+000	9	...........
	54	0.733333	1.92815E-002	-2.80067E-004	0.00000E+000	-5.40011E-006	-1.68088E-001	1.92783E-002	3.57780E+000	9	...........
	55	0.746667	1.65564E-002	-2.77847E-004	0.00000E+000	-4.60015E-006	-1.68088E-001	1.65501E-002	3.57780E+000	9	...........
	56	0.76	1.38340E-002	-2.79513E-004	0.00000E+000	-3.86677E-006	-1.68088E-001	1.38280E-002	3.57780E+000	9	...........
	57	0.773333	1.11679E-002	-2.79261E-004	0.00000E+000	-3.11877E-006	-1.68088E-001	1.11585E-002	3.57780E+000	9	...........
	58	0.786667	8.56389E-003	-2.78629E-004	0.00000E+000	-2.38615E-006	-1.68088E-001	8.55622E-003	3.57780E+000	9	...........
	59	0.8	5.97262E-003	-2.78867E-004	0.00000E+000	-1.66557E-006	-1.68088E-001	5.96059E-003	3.57780E+000	9	...........
	60	0.813333	3.43038E-003	-2.78464E-004	0.00000E+000	-9.55240E-007	-1.68088E-001	3.42318E-003	3.57780E+000	9	...........
	61	0.826667	9.57809E-004	-2.78759E-004	0.00000E+000	-2.66998E-007	-1.68088E-001	9.42664E-004	3.57780E+000	9	...........
STARTTIMEOFFSET	QUANT	1464.905	Start Time Offset (s)
