EXPLAIN
TAG	PWR800_DISCHARGE
TITLE	LABEL	PWR Cyclic Charge Discharge (Cell) - Discharge Step	Test &Identifier
DATE	LABEL	7-7-2017	Date
TIME	LABEL	16:08:57	Time
NOTES	NOTES	3	&Notes...
	supercap test cell
	2.8mg
	6M KOH
PSTAT	PSTAT	IFC5000-01520	Potentiostat
CAPACITY	QUANT	1.00000E-003	Capacity (A-hr)
CELLTYPE	SELECTOR	1	&Cell Type
WORKINGCONNECTION	SELECTOR	0	&Working Lead
MAXDISCHARGETIME	VARIABLEANDUNITS	1.00000E+002	s	1.00000E+002	second(s)	Max &Discharge Time
DISCHARGEMODE	MULTIPARAM	0	2.80000E-004	&Discharge Mode	Constant Current	Amp(s)
SAMPLETIME	QUANT	1.00000E-002	Sa&mple Period (s)
DISCHARGESTOPAT1	MULTIPARAM	3	0.00000E+000	Discharge Stop At &1	Voltage < Limit	V
DISCHARGESTOPAT2	MULTIPARAM	0	0.00000E+000	Discharge Stop At &2	None	N/A
AESBHCSELECTOR	TOGGLE	F	Save Both Half Cells
IRCOMP	TOGGLE	F	IR &Measure
EOC	QUANT	0	Open Circuit (V)
SEQUENCER	TOGGLE	TRUE	Run as Sequence
PSTATMODEL	IQUANT	53	Pstat Model
PSTATSECTION	LABEL	IFC5000-01520	Pstat Section
PSTATSERIALNO	LABEL	01520	Pstat Serial Number
CTRLMODE	IQUANT	0	Control Mode
ELECTROMETER	IQUANT	1	RE=0 or CS=1
IESTAB	IQUANT	0	I/E Stability
CASPEED	IQUANT	4	Control Amp Speed
CONVENTION	IQUANT	1	Current Convention
ICHRANGE	IQUANT	2	Ich Range
ICHRANGEMODE	TOGGLE	T	Ich Auto Range
ICHOFFSETENABLE	TOGGLE	F	Ich Offset Enable
ICHOFFSET	QUANT	0	Ich Offset (V)
ICHFILTER	IQUANT	1	Ich Filter
VCHRANGE	IQUANT	2	Vch Range
VCHRANGEMODE	TOGGLE	T	Vch Auto Range
VCHOFFSETENABLE	TOGGLE	F	Vch Offset Enable
VCHOFFSET	QUANT	0	Vch Offset (V)
VCHFILTER	IQUANT	1	Vch Filter
IERANGELOWERLIMIT	IQUANT	9	I/E Range Lower Limit
IERANGEMODE	TOGGLE	F	I/E AutoRange
IERANGE	IQUANT	9	I/E Range
ACHSELECT	IQUANT	1	Ach Select
ACHRANGE	IQUANT	2	Ach Range
ACHOFFSETENABLE	TOGGLE	F	Ach Offset Enable
ACHOFFSET	QUANT	0	Ach Offset (V)
ACHFILTER	IQUANT	1	Ach Filter
CABLEID	IQUANT	14	Cable ID
DCCALDATE	LABEL	5-7-2017	DC Calibration Date
ACCALDATE	LABEL	12/3/2015	AC Calibration Date
FRAMEWORKVERSION	QUANT	7.01	Framework Version
INSTRUMENTVERSION	LABEL	4.00	Instrument Version
CURVE	TABLE	62
	Pt	T	Vf	Im	Vu	Pwr	Sig	Ach	Temp	IERange	Over
	#	s	V	A	V	W	V	V	deg C	#	bits
	0	0.013333	5.18704E-001	-2.78130E-004	0.00000E+000	-1.44267E-004	-1.68088E-001	5.18925E-001	3.57880E+000	9	...........
	1	0.026667	4.85851E-001	-2.80634E-004	0.00000E+000	-1.36346E-004	-1.68088E-001	4.86054E-001	3.57880E+000	9	...........
	2	0.04	4.55935E-001	-2.78559E-004	0.00000E+000	-1.27005E-004	-1.68088E-001	4.56045E-001	3.57880E+000	9	...........
	3	0.053333	4.28025E-001	-2.78734E-004	0.00000E+000	-1.19305E-004	-1.68088E-001	4.28129E-001	3.57880E+000	9	...........
	4	0.066667	4.02071E-001	-2.78343E-004	0.00000E+000	-1.11914E-004	-1.68088E-001	4.02168E-001	3.57880E+000	9	...........
	5	0.08	3.77886E-001	-2.78320E-004	0.00000E+000	-1.05173E-004	-1.68088E-001	3.77971E-001	3.57880E+000	9	...........
	6	0.093333	3.55367E-001	-2.78434E-004	0.00000E+000	-9.89462E-005	-1.68088E-001	3.55445E-001	3.57880E+000	9	...........
	7	0.106667	3.34412E-001	-2.78279E-004	0.00000E+000	-9.30599E-005	-1.68088E-001	3.34496E-001	3.57880E+000	9	...........
	8	0.12	3.14965E-001	-2.78349E-004	0.00000E+000	-8.76701E-005	-1.68088E-001	3.15044E-001	3.57880E+000	9	...........
	9	0.133333	2.96869E-001	-2.77348E-004	0.00000E+000	-8.23358E-005	-1.68088E-001	2.96940E-001	3.57880E+000	9	...........
	10	0.146667	2.80094E-001	-2.79512E-004	0.00000E+000	-7.82894E-005	-1.68088E-001	2.80170E-001	3.57880E+000	9	...........
	11	0.16	2.64511E-001	-2.78912E-004	0.00000E+000	-7.37755E-005	-1.68088E-001	2.64583E-001	3.57880E+000	9	...........
	12	0.173333	2.50073E-001	-2.78839E-004	0.00000E+000	-6.97299E-005	-1.68088E-001	2.50140E-001	3.57880E+000	9	...........
	13	0.186667	2.36683E-001	-2.79263E-004	0.00000E+000	-6.60967E-005	-1.68088E-001	2.36740E-001	3.57880E+000	9	...........
	14	0.2	2.24206E-001	-2.79945E-004	0.00000E+000	-6.27654E-005	-1.68088E-001	2.24262E-001	3.57880E+000	9	...........
	15	0.213333	2.12647E-001	-2.78710E-004	0.00000E+000	-5.92670E-005	-1.68088E-001	2.12701E-001	3.57880E+000	9	...........
	16	0.226667	2.01860E-001	-2.80485E-004	0.00000E+000	-5.66187E-005	-1.68088E-001	2.01915E-001	3.57880E+000	9	...........
	17	0.24	1.91802E-001	-2.79715E-004	0.00000E+000	-5.36500E-005	-1.68088E-001	1.91849E-001	3.57880E+000	9	...........
	18	0.253333	1.82414E-001	-2.79176E-004	0.00000E+000	-5.09255E-005	-1.68088E-001	1.82457E-001	3.57880E+000	9	...........
	19	0.266667	1.73647E-001	-2.77558E-004	0.00000E+000	-4.81972E-005	-1.68088E-001	1.73690E-001	3.57880E+000	9	...........
	20	0.28	1.65443E-001	-2.78528E-004	0.00000E+000	-4.60806E-005	-1.68088E-001	1.65483E-001	3.57880E+000	9	...........
	21	0.293333	1.57704E-001	-2.78335E-004	0.00000E+000	-4.38947E-005	-1.68088E-001	1.57739E-001	3.57880E+000	9	...........
	22	0.306667	1.50366E-001	-2.78116E-004	0.00000E+000	-4.18193E-005	-1.68088E-001	1.50411E-001	3.57880E+000	9	...........
	23	0.32	1.43480E-001	-2.79169E-004	0.00000E+000	-4.00552E-005	-1.68088E-001	1.43516E-001	3.57880E+000	9	...........
	24	0.333333	1.36936E-001	-2.78380E-004	0.00000E+000	-3.81202E-005	-1.68088E-001	1.36971E-001	3.57880E+000	9	...........
	25	0.346667	1.30675E-001	-2.77434E-004	0.00000E+000	-3.62538E-005	-1.68088E-001	1.30710E-001	3.57880E+000	9	...........
	26	0.36	1.24748E-001	-2.78134E-004	0.00000E+000	-3.46968E-005	-1.68088E-001	1.24776E-001	3.57880E+000	9	...........
	27	0.373333	1.19101E-001	-2.78448E-004	0.00000E+000	-3.31634E-005	-1.68088E-001	1.19135E-001	3.57880E+000	9	...........
	28	0.386667	1.13700E-001	-2.78856E-004	0.00000E+000	-3.17058E-005	-1.68088E-001	1.13731E-001	3.57880E+000	9	...........
	29	0.4	1.08547E-001	-2.79431E-004	0.00000E+000	-3.03313E-005	-1.68088E-001	1.08579E-001	3.57880E+000	9	...........
	30	0.413333	1.03608E-001	-2.78852E-004	0.00000E+000	-2.88912E-005	-1.68088E-001	1.03634E-001	3.57880E+000	9	...........
	31	0.426667	9.88676E-002	-2.79488E-004	0.00000E+000	-2.76323E-005	-1.68088E-001	9.88981E-002	3.57880E+000	9	...........
	32	0.44	9.42815E-002	-2.79323E-004	0.00000E+000	-2.63350E-005	-1.68088E-001	9.42976E-002	3.57880E+000	9	...........
	33	0.453333	8.98249E-002	-2.79425E-004	0.00000E+000	-2.50993E-005	-1.68088E-001	8.98412E-002	3.57880E+000	9	...........
	34	0.466667	8.55207E-002	-2.80678E-004	0.00000E+000	-2.40038E-005	-1.68088E-001	8.55356E-002	3.57880E+000	9	...........
	35	0.48	8.13418E-002	-2.78364E-004	0.00000E+000	-2.26427E-005	-1.68088E-001	8.13578E-002	3.57880E+000	9	...........
	36	0.493333	7.73035E-002	-2.79592E-004	0.00000E+000	-2.16134E-005	-1.68088E-001	7.73178E-002	3.57880E+000	9	...........
	37	0.506667	7.33648E-002	-2.79665E-004	0.00000E+000	-2.05175E-005	-1.68088E-001	7.33795E-002	3.57880E+000	9	...........
	38	0.52	6.95830E-002	-2.79815E-004	0.00000E+000	-1.94703E-005	-1.68088E-001	6.95964E-002	3.57880E+000	9	...........
	39	0.533333	6.59157E-002	-2.78600E-004	0.00000E+000	-1.83641E-005	-1.68088E-001	6.59285E-002	3.57880E+000	9	...........
	40	0.546667	6.22490E-002	-2.77739E-004	0.00000E+000	-1.72890E-005	-1.68088E-001	6.22641E-002	3.57880E+000	9	...........
	41	0.56	5.86827E-002	-2.78432E-004	0.00000E+000	-1.63392E-005	-1.68088E-001	5.86958E-002	3.57880E+000	9	...........
	42	0.573333	5.52303E-002	-2.79758E-004	0.00000E+000	-1.54511E-005	-1.68088E-001	5.52446E-002	3.57880E+000	9	...........
	43	0.586667	5.18576E-002	-2.78414E-004	0.00000E+000	-1.44379E-005	-1.68088E-001	5.18732E-002	3.57880E+000	9	...........
	44	0.6	4.85904E-002	-2.78213E-004	0.00000E+000	-1.35185E-005	-1.68088E-001	4.86025E-002	3.57951E+000	9	...........
	45	0.613333	4.53747E-002	-2.77983E-004	0.00000E+000	-1.26134E-005	-1.68088E-001	4.53882E-002	3.57970E+000	9	...........
	46	0.626667	4.22191E-002	-2.79042E-004	0.00000E+000	-1.17809E-005	-1.68088E-001	4.22305E-002	3.57970E+000	9	...........
	47	0.64	3.90813E-002	-2.79177E-004	0.00000E+000	-1.09106E-005	-1.68088E-001	3.90941E-002	3.57970E+000	9	...........
	48	0.653333	3.60188E-002	-2.78571E-004	0.00000E+000	-1.00338E-005	-1.68088E-001	3.60258E-002	3.57970E+000	9	...........
	49	0.666667	3.30106E-002	-2.79713E-004	0.00000E+000	-9.23348E-006	-1.68088E-001	3.30201E-002	3.57970E+000	9	...........
	50	0.68	3.01025E-002	-2.77945E-004	0.00000E+000	-8.36683E-006	-1.68088E-001	3.01060E-002	3.57970E+000	9	...........
	51	0.693333	2.72406E-002	-2.78674E-004	0.00000E+000	-7.59123E-006	-1.68088E-001	2.72419E-002	3.57970E+000	9	...........
	52	0.706667	2.44313E-002	-2.77616E-004	0.00000E+000	-6.78252E-006	-1.68088E-001	2.44340E-002	3.57970E+000	9	...........
	53	0.72	2.16590E-002	-2.78097E-004	0.00000E+000	-6.02331E-006	-1.68088E-001	2.16613E-002	3.57970E+000	9	...........
	54	0.733333	1.89241E-002	-2.77588E-004	0.00000E+000	-5.25310E-006	-1.68088E-001	1.89238E-002	3.57970E+000	9	...........
	55	0.746667	1.62005E-002	-2.79716E-004	0.00000E+000	-4.53153E-006	-1.68088E-001	1.61945E-002	3.57970E+000	9	...........
	56	0.76	1.35773E-002	-2.78487E-004	0.00000E+000	-3.78111E-006	-1.68088E-001	1.35674E-002	3.57970E+000	9	...........
	57	0.773333	1.09822E-002	-2.79057E-004	0.00000E+000	-3.06465E-006	-1.68088E-001	1.09703E-002	3.57970E+000	9	...........
	58	0.786667	8.35152E-003	-2.78899E-004	0.00000E+000	-2.32923E-006	-1.68088E-001	8.33815E-003	3.57970E+000	9	...........
	59	0.8	5.78900E-003	-2.79507E-004	0.00000E+000	-1.61807E-006	-1.68088E-001	5.78146E-003	3.57970E+000	9	...........
	60	0.813333	3.29204E-003	-2.79122E-004	0.00000E+000	-9.18881E-007	-1.68088E-001	3.28177E-003	3.57970E+000	9	...........
	61	0.826667	8.24049E-004	-2.78738E-004	0.00000E+000	-2.29694E-007	-1.68088E-001	8.07891E-004	3.57970E+000	9	...........
STARTTIMEOFFSET	QUANT	1482.377	Start Time Offset (s)
