EXPLAIN
TAG	PWR800_DISCHARGE
TITLE	LABEL	PWR Cyclic Charge Discharge (Cell) - Discharge Step	Test &Identifier
DATE	LABEL	7-7-2017	Date
TIME	LABEL	15:55:28	Time
NOTES	NOTES	3	&Notes...
	supercap test cell
	2.8mg
	6M KOH
PSTAT	PSTAT	IFC5000-01520	Potentiostat
CAPACITY	QUANT	1.00000E-003	Capacity (A-hr)
CELLTYPE	SELECTOR	1	&Cell Type
WORKINGCONNECTION	SELECTOR	0	&Working Lead
MAXDISCHARGETIME	VARIABLEANDUNITS	1.00000E+002	s	1.00000E+002	second(s)	Max &Discharge Time
DISCHARGEMODE	MULTIPARAM	0	2.80000E-004	&Discharge Mode	Constant Current	Amp(s)
SAMPLETIME	QUANT	1.00000E-002	Sa&mple Period (s)
DISCHARGESTOPAT1	MULTIPARAM	3	0.00000E+000	Discharge Stop At &1	Voltage < Limit	V
DISCHARGESTOPAT2	MULTIPARAM	0	0.00000E+000	Discharge Stop At &2	None	N/A
AESBHCSELECTOR	TOGGLE	F	Save Both Half Cells
IRCOMP	TOGGLE	F	IR &Measure
EOC	QUANT	0	Open Circuit (V)
SEQUENCER	TOGGLE	TRUE	Run as Sequence
PSTATMODEL	IQUANT	53	Pstat Model
PSTATSECTION	LABEL	IFC5000-01520	Pstat Section
PSTATSERIALNO	LABEL	01520	Pstat Serial Number
CTRLMODE	IQUANT	0	Control Mode
ELECTROMETER	IQUANT	1	RE=0 or CS=1
IESTAB	IQUANT	0	I/E Stability
CASPEED	IQUANT	4	Control Amp Speed
CONVENTION	IQUANT	1	Current Convention
ICHRANGE	IQUANT	2	Ich Range
ICHRANGEMODE	TOGGLE	T	Ich Auto Range
ICHOFFSETENABLE	TOGGLE	F	Ich Offset Enable
ICHOFFSET	QUANT	0	Ich Offset (V)
ICHFILTER	IQUANT	1	Ich Filter
VCHRANGE	IQUANT	2	Vch Range
VCHRANGEMODE	TOGGLE	T	Vch Auto Range
VCHOFFSETENABLE	TOGGLE	F	Vch Offset Enable
VCHOFFSET	QUANT	0	Vch Offset (V)
VCHFILTER	IQUANT	1	Vch Filter
IERANGELOWERLIMIT	IQUANT	9	I/E Range Lower Limit
IERANGEMODE	TOGGLE	F	I/E AutoRange
IERANGE	IQUANT	9	I/E Range
ACHSELECT	IQUANT	1	Ach Select
ACHRANGE	IQUANT	2	Ach Range
ACHOFFSETENABLE	TOGGLE	F	Ach Offset Enable
ACHOFFSET	QUANT	0	Ach Offset (V)
ACHFILTER	IQUANT	1	Ach Filter
CABLEID	IQUANT	14	Cable ID
DCCALDATE	LABEL	5-7-2017	DC Calibration Date
ACCALDATE	LABEL	12/3/2015	AC Calibration Date
FRAMEWORKVERSION	QUANT	7.01	Framework Version
INSTRUMENTVERSION	LABEL	4.00	Instrument Version
CURVE	TABLE	78
	Pt	T	Vf	Im	Vu	Pwr	Sig	Ach	Temp	IERange	Over
	#	s	V	A	V	W	V	V	deg C	#	bits
	0	0.013333	5.35782E-001	-2.78974E-004	0.00000E+000	-1.49469E-004	-1.68088E-001	5.36041E-001	3.57920E+000	9	...........
	1	0.026667	5.04175E-001	-2.78506E-004	0.00000E+000	-1.40416E-004	-1.68088E-001	5.04446E-001	3.57920E+000	9	...........
	2	0.04	4.75650E-001	-2.78709E-004	0.00000E+000	-1.32568E-004	-1.68088E-001	4.75808E-001	3.57920E+000	9	...........
	3	0.053333	4.49206E-001	-2.78783E-004	0.00000E+000	-1.25231E-004	-1.68088E-001	4.49310E-001	3.57920E+000	9	...........
	4	0.066667	4.24596E-001	-2.79530E-004	0.00000E+000	-1.18688E-004	-1.68088E-001	4.24691E-001	3.57920E+000	9	...........
	5	0.08	4.01719E-001	-2.78528E-004	0.00000E+000	-1.11890E-004	-1.68088E-001	4.01809E-001	3.57920E+000	9	...........
	6	0.093333	3.80470E-001	-2.79331E-004	0.00000E+000	-1.06277E-004	-1.68088E-001	3.80558E-001	3.57920E+000	9	...........
	7	0.106667	3.60722E-001	-2.78834E-004	0.00000E+000	-1.00582E-004	-1.68088E-001	3.60808E-001	3.57845E+000	9	...........
	8	0.12	3.42340E-001	-2.79236E-004	0.00000E+000	-9.55938E-005	-1.68088E-001	3.42422E-001	3.57820E+000	9	...........
	9	0.133333	3.25290E-001	-2.79044E-004	0.00000E+000	-9.07702E-005	-1.68088E-001	3.25366E-001	3.57820E+000	9	...........
	10	0.146667	3.09465E-001	-2.79170E-004	0.00000E+000	-8.63932E-005	-1.68088E-001	3.09532E-001	3.57820E+000	9	...........
	11	0.16	2.94723E-001	-2.79507E-004	0.00000E+000	-8.23772E-005	-1.68088E-001	2.94795E-001	3.57820E+000	9	...........
	12	0.173333	2.81027E-001	-2.78245E-004	0.00000E+000	-7.81944E-005	-1.68088E-001	2.81094E-001	3.57820E+000	9	...........
	13	0.186667	2.68301E-001	-2.79389E-004	0.00000E+000	-7.49601E-005	-1.68088E-001	2.68362E-001	3.57820E+000	9	...........
	14	0.2	2.56444E-001	-2.79885E-004	0.00000E+000	-7.17748E-005	-1.68088E-001	2.56510E-001	3.57820E+000	9	...........
	15	0.213333	2.45429E-001	-2.79815E-004	0.00000E+000	-6.86746E-005	-1.68088E-001	2.45487E-001	3.57820E+000	9	...........
	16	0.226667	2.35153E-001	-2.78798E-004	0.00000E+000	-6.55601E-005	-1.68088E-001	2.35203E-001	3.57820E+000	9	...........
	17	0.24	2.25472E-001	-2.79448E-004	0.00000E+000	-6.30078E-005	-1.68088E-001	2.25519E-001	3.57820E+000	9	...........
	18	0.253333	2.16388E-001	-2.79004E-004	0.00000E+000	-6.03732E-005	-1.68088E-001	2.16432E-001	3.57820E+000	9	...........
	19	0.266667	2.07884E-001	-2.77724E-004	0.00000E+000	-5.77342E-005	-1.68088E-001	2.07930E-001	3.57820E+000	9	...........
	20	0.28	1.99915E-001	-2.77779E-004	0.00000E+000	-5.55321E-005	-1.68088E-001	1.99959E-001	3.57820E+000	9	...........
	21	0.293333	1.92385E-001	-2.78646E-004	0.00000E+000	-5.36072E-005	-1.68088E-001	1.92423E-001	3.57820E+000	9	...........
	22	0.306667	1.85309E-001	-2.78830E-004	0.00000E+000	-5.16698E-005	-1.68088E-001	1.85347E-001	3.57820E+000	9	...........
	23	0.32	1.78599E-001	-2.78594E-004	0.00000E+000	-4.97566E-005	-1.68088E-001	1.78638E-001	3.57820E+000	9	...........
	24	0.333333	1.72243E-001	-2.78002E-004	0.00000E+000	-4.78838E-005	-1.68088E-001	1.72278E-001	3.57820E+000	9	...........
	25	0.346667	1.66198E-001	-2.78440E-004	0.00000E+000	-4.62762E-005	-1.68088E-001	1.66235E-001	3.57820E+000	9	...........
	26	0.36	1.60394E-001	-2.79280E-004	0.00000E+000	-4.47950E-005	-1.68088E-001	1.60428E-001	3.57820E+000	9	...........
	27	0.373333	1.54876E-001	-2.79290E-004	0.00000E+000	-4.32554E-005	-1.68088E-001	1.54906E-001	3.57820E+000	9	...........
	28	0.386667	1.49561E-001	-2.78952E-004	0.00000E+000	-4.17203E-005	-1.68088E-001	1.49591E-001	3.57820E+000	9	...........
	29	0.4	1.44496E-001	-2.78896E-004	0.00000E+000	-4.02993E-005	-1.68088E-001	1.44528E-001	3.57820E+000	9	...........
	30	0.413333	1.39646E-001	-2.78593E-004	0.00000E+000	-3.89044E-005	-1.68088E-001	1.39677E-001	3.57820E+000	9	...........
	31	0.426667	1.34987E-001	-2.78546E-004	0.00000E+000	-3.76001E-005	-1.68088E-001	1.35014E-001	3.57820E+000	9	...........
	32	0.44	1.30446E-001	-2.79155E-004	0.00000E+000	-3.64146E-005	-1.68088E-001	1.30472E-001	3.57820E+000	9	...........
	33	0.453333	1.26067E-001	-2.78955E-004	0.00000E+000	-3.51670E-005	-1.68088E-001	1.26094E-001	3.57820E+000	9	...........
	34	0.466667	1.21836E-001	-2.78772E-004	0.00000E+000	-3.39644E-005	-1.68088E-001	1.21870E-001	3.57820E+000	9	...........
	35	0.48	1.17730E-001	-2.79144E-004	0.00000E+000	-3.28636E-005	-1.68088E-001	1.17757E-001	3.57820E+000	9	...........
	36	0.493333	1.13742E-001	-2.78635E-004	0.00000E+000	-3.16925E-005	-1.68088E-001	1.13768E-001	3.57820E+000	9	...........
	37	0.506667	1.09839E-001	-2.78510E-004	0.00000E+000	-3.05914E-005	-1.68088E-001	1.09871E-001	3.57820E+000	9	...........
	38	0.52	1.06047E-001	-2.79123E-004	0.00000E+000	-2.96002E-005	-1.68088E-001	1.06068E-001	3.57820E+000	9	...........
	39	0.533333	1.02387E-001	-2.78808E-004	0.00000E+000	-2.85463E-005	-1.68088E-001	1.02411E-001	3.57820E+000	9	...........
	40	0.546667	9.87867E-002	-2.78606E-004	0.00000E+000	-2.75226E-005	-1.68088E-001	9.88069E-002	3.57820E+000	9	...........
	41	0.56	9.52401E-002	-2.78144E-004	0.00000E+000	-2.64904E-005	-1.68088E-001	9.52574E-002	3.57820E+000	9	...........
	42	0.573333	9.18082E-002	-2.78568E-004	0.00000E+000	-2.55748E-005	-1.68088E-001	9.18295E-002	3.57820E+000	9	...........
	43	0.586667	8.84531E-002	-2.78726E-004	0.00000E+000	-2.46542E-005	-1.68088E-001	8.84705E-002	3.57820E+000	9	...........
	44	0.6	8.51316E-002	-2.79345E-004	0.00000E+000	-2.37811E-005	-1.68088E-001	8.51465E-002	3.57820E+000	9	...........
	45	0.613333	8.19387E-002	-2.78903E-004	0.00000E+000	-2.28529E-005	-1.68088E-001	8.19550E-002	3.57820E+000	9	...........
	46	0.626667	7.87882E-002	-2.79118E-004	0.00000E+000	-2.19912E-005	-1.68088E-001	7.88053E-002	3.57820E+000	9	...........
	47	0.64	7.56750E-002	-2.79588E-004	0.00000E+000	-2.11578E-005	-1.68088E-001	7.56834E-002	3.57820E+000	9	...........
	48	0.653333	7.26045E-002	-2.78786E-004	0.00000E+000	-2.02412E-005	-1.68088E-001	7.26135E-002	3.57820E+000	9	...........
	49	0.666667	6.95743E-002	-2.78461E-004	0.00000E+000	-1.93738E-005	-1.68088E-001	6.95833E-002	3.57820E+000	9	...........
	50	0.68	6.66153E-002	-2.79599E-004	0.00000E+000	-1.86256E-005	-1.68088E-001	6.66269E-002	3.57820E+000	9	...........
	51	0.693333	6.37315E-002	-2.78575E-004	0.00000E+000	-1.77540E-005	-1.68088E-001	6.37426E-002	3.57820E+000	9	...........
	52	0.706667	6.08815E-002	-2.78060E-004	0.00000E+000	-1.69287E-005	-1.68088E-001	6.08885E-002	3.57820E+000	9	...........
	53	0.72	5.80696E-002	-2.77995E-004	0.00000E+000	-1.61430E-005	-1.68088E-001	5.80796E-002	3.57820E+000	9	...........
	54	0.733333	5.52791E-002	-2.79250E-004	0.00000E+000	-1.54367E-005	-1.68088E-001	5.52943E-002	3.57820E+000	9	...........
	55	0.746667	5.25103E-002	-2.78562E-004	0.00000E+000	-1.46274E-005	-1.68088E-001	5.25178E-002	3.57820E+000	9	...........
	56	0.76	4.97914E-002	-2.78631E-004	0.00000E+000	-1.38734E-005	-1.68088E-001	4.97981E-002	3.57820E+000	9	...........
	57	0.773333	4.71902E-002	-2.78786E-004	0.00000E+000	-1.31560E-005	-1.68088E-001	4.71948E-002	3.57820E+000	9	...........
	58	0.786667	4.46083E-002	-2.78852E-004	0.00000E+000	-1.24391E-005	-1.68088E-001	4.46152E-002	3.57820E+000	9	...........
	59	0.8	4.20375E-002	-2.79254E-004	0.00000E+000	-1.17392E-005	-1.68088E-001	4.20403E-002	3.57820E+000	9	...........
	60	0.813333	3.94932E-002	-2.77758E-004	0.00000E+000	-1.09696E-005	-1.68088E-001	3.94955E-002	3.57820E+000	9	...........
	61	0.826667	3.69557E-002	-2.78821E-004	0.00000E+000	-1.03040E-005	-1.68088E-001	3.69552E-002	3.57820E+000	9	...........
	62	0.84	3.44422E-002	-2.79144E-004	0.00000E+000	-9.61434E-006	-1.68088E-001	3.44413E-002	3.57820E+000	9	...........
	63	0.853333	3.19580E-002	-2.78493E-004	0.00000E+000	-8.90006E-006	-1.68088E-001	3.19580E-002	3.57820E+000	9	...........
	64	0.866667	2.94699E-002	-2.79177E-004	0.00000E+000	-8.22732E-006	-1.68088E-001	2.94660E-002	3.57820E+000	9	...........
	65	0.88	2.70485E-002	-2.79104E-004	0.00000E+000	-7.54936E-006	-1.68088E-001	2.70496E-002	3.57820E+000	9	...........
	66	0.893333	2.46457E-002	-2.78935E-004	0.00000E+000	-6.87457E-006	-1.68088E-001	2.46427E-002	3.57820E+000	9	...........
	67	0.906667	2.22790E-002	-2.78971E-004	0.00000E+000	-6.21519E-006	-1.68088E-001	2.22767E-002	3.57820E+000	9	...........
	68	0.92	1.98963E-002	-2.78065E-004	0.00000E+000	-5.53248E-006	-1.68088E-001	1.98889E-002	3.57820E+000	9	...........
	69	0.933333	1.75601E-002	-2.78608E-004	0.00000E+000	-4.89238E-006	-1.68088E-001	1.75463E-002	3.57820E+000	9	...........
	70	0.946667	1.52468E-002	-2.79042E-004	0.00000E+000	-4.25450E-006	-1.68088E-001	1.52339E-002	3.57820E+000	9	...........
	71	0.96	1.29766E-002	-2.78420E-004	0.00000E+000	-3.61294E-006	-1.68088E-001	1.29632E-002	3.57820E+000	9	...........
	72	0.97333	1.07455E-002	-2.79417E-004	0.00000E+000	-3.00246E-006	-1.68088E-001	1.07323E-002	3.57820E+000	9	...........
	73	0.98667	8.57533E-003	-2.78620E-004	0.00000E+000	-2.38926E-006	-1.68088E-001	8.56376E-003	3.57820E+000	9	...........
	74	1	6.37344E-003	-2.79115E-004	0.00000E+000	-1.77892E-006	-1.68088E-001	6.35496E-003	3.57820E+000	9	...........
	75	1.01333	4.18062E-003	-2.78985E-004	0.00000E+000	-1.16633E-006	-1.68088E-001	4.16624E-003	3.57820E+000	9	...........
	76	1.02667	2.03363E-003	-2.78345E-004	0.00000E+000	-5.66051E-007	-1.68088E-001	2.01553E-003	3.57820E+000	9	...........
	77	1.03333	4.04837E-004	-2.79519E-004	0.00000E+000	-1.13160E-007	-1.68088E-001	3.87656E-004	3.57820E+000	9	...........
STARTTIMEOFFSET	QUANT	914.4985	Start Time Offset (s)
