EXPLAIN
TAG	PWR800_DISCHARGE
TITLE	LABEL	PWR Cyclic Charge Discharge (Cell) - Discharge Step	Test &Identifier
DATE	LABEL	7-7-2017	Date
TIME	LABEL	16:21:09	Time
NOTES	NOTES	3	&Notes...
	supercap test cell
	2.8mg
	6M KOH
PSTAT	PSTAT	IFC5000-01520	Potentiostat
CAPACITY	QUANT	1.00000E-003	Capacity (A-hr)
CELLTYPE	SELECTOR	1	&Cell Type
WORKINGCONNECTION	SELECTOR	0	&Working Lead
MAXDISCHARGETIME	VARIABLEANDUNITS	1.00000E+002	s	1.00000E+002	second(s)	Max &Discharge Time
DISCHARGEMODE	MULTIPARAM	0	2.80000E-004	&Discharge Mode	Constant Current	Amp(s)
SAMPLETIME	QUANT	1.00000E-002	Sa&mple Period (s)
DISCHARGESTOPAT1	MULTIPARAM	3	0.00000E+000	Discharge Stop At &1	Voltage < Limit	V
DISCHARGESTOPAT2	MULTIPARAM	0	0.00000E+000	Discharge Stop At &2	None	N/A
AESBHCSELECTOR	TOGGLE	F	Save Both Half Cells
IRCOMP	TOGGLE	F	IR &Measure
EOC	QUANT	0	Open Circuit (V)
SEQUENCER	TOGGLE	TRUE	Run as Sequence
PSTATMODEL	IQUANT	53	Pstat Model
PSTATSECTION	LABEL	IFC5000-01520	Pstat Section
PSTATSERIALNO	LABEL	01520	Pstat Serial Number
CTRLMODE	IQUANT	0	Control Mode
ELECTROMETER	IQUANT	1	RE=0 or CS=1
IESTAB	IQUANT	0	I/E Stability
CASPEED	IQUANT	4	Control Amp Speed
CONVENTION	IQUANT	1	Current Convention
ICHRANGE	IQUANT	2	Ich Range
ICHRANGEMODE	TOGGLE	T	Ich Auto Range
ICHOFFSETENABLE	TOGGLE	F	Ich Offset Enable
ICHOFFSET	QUANT	0	Ich Offset (V)
ICHFILTER	IQUANT	1	Ich Filter
VCHRANGE	IQUANT	2	Vch Range
VCHRANGEMODE	TOGGLE	T	Vch Auto Range
VCHOFFSETENABLE	TOGGLE	F	Vch Offset Enable
VCHOFFSET	QUANT	0	Vch Offset (V)
VCHFILTER	IQUANT	1	Vch Filter
IERANGELOWERLIMIT	IQUANT	9	I/E Range Lower Limit
IERANGEMODE	TOGGLE	F	I/E AutoRange
IERANGE	IQUANT	9	I/E Range
ACHSELECT	IQUANT	1	Ach Select
ACHRANGE	IQUANT	2	Ach Range
ACHOFFSETENABLE	TOGGLE	F	Ach Offset Enable
ACHOFFSET	QUANT	0	Ach Offset (V)
ACHFILTER	IQUANT	1	Ach Filter
CABLEID	IQUANT	14	Cable ID
DCCALDATE	LABEL	5-7-2017	DC Calibration Date
ACCALDATE	LABEL	12/3/2015	AC Calibration Date
FRAMEWORKVERSION	QUANT	7.01	Framework Version
INSTRUMENTVERSION	LABEL	4.00	Instrument Version
CURVE	TABLE	53
	Pt	T	Vf	Im	Vu	Pwr	Sig	Ach	Temp	IERange	Over
	#	s	V	A	V	W	V	V	deg C	#	bits
	0	0.013333	5.15478E-001	-2.78409E-004	0.00000E+000	-1.43514E-004	-1.68088E-001	5.15745E-001	3.57880E+000	9	...........
	1	0.026667	4.81696E-001	-2.77982E-004	0.00000E+000	-1.33903E-004	-1.68088E-001	4.81889E-001	3.57880E+000	9	...........
	2	0.04	4.50677E-001	-2.77914E-004	0.00000E+000	-1.25249E-004	-1.68088E-001	4.50788E-001	3.57880E+000	9	...........
	3	0.053333	4.21689E-001	-2.79106E-004	0.00000E+000	-1.17696E-004	-1.68088E-001	4.21789E-001	3.57880E+000	9	...........
	4	0.066667	3.94640E-001	-2.78837E-004	0.00000E+000	-1.10040E-004	-1.68088E-001	3.94728E-001	3.57880E+000	9	...........
	5	0.08	3.69331E-001	-2.79711E-004	0.00000E+000	-1.03306E-004	-1.68088E-001	3.69415E-001	3.57880E+000	9	...........
	6	0.093333	3.45693E-001	-2.79037E-004	0.00000E+000	-9.64613E-005	-1.68088E-001	3.45771E-001	3.57880E+000	9	...........
	7	0.106667	3.23619E-001	-2.79002E-004	0.00000E+000	-9.02905E-005	-1.68088E-001	3.23696E-001	3.57880E+000	9	...........
	8	0.12	3.03040E-001	-2.78163E-004	0.00000E+000	-8.42947E-005	-1.68088E-001	3.03115E-001	3.57880E+000	9	...........
	9	0.133333	2.83894E-001	-2.79884E-004	0.00000E+000	-7.94573E-005	-1.68088E-001	2.83963E-001	3.57880E+000	9	...........
	10	0.146667	2.66096E-001	-2.79169E-004	0.00000E+000	-7.42856E-005	-1.68088E-001	2.66167E-001	3.57880E+000	9	...........
	11	0.16	2.49597E-001	-2.78162E-004	0.00000E+000	-6.94284E-005	-1.68088E-001	2.49658E-001	3.57880E+000	9	...........
	12	0.173333	2.34279E-001	-2.79104E-004	0.00000E+000	-6.53882E-005	-1.68088E-001	2.34338E-001	3.57880E+000	9	...........
	13	0.186667	2.20101E-001	-2.79668E-004	0.00000E+000	-6.15552E-005	-1.68088E-001	2.20152E-001	3.57880E+000	9	...........
	14	0.2	2.06914E-001	-2.78682E-004	0.00000E+000	-5.76632E-005	-1.68088E-001	2.06960E-001	3.57880E+000	9	...........
	15	0.213333	1.94683E-001	-2.79672E-004	0.00000E+000	-5.44473E-005	-1.68088E-001	1.94734E-001	3.57880E+000	9	...........
	16	0.226667	1.83292E-001	-2.79968E-004	0.00000E+000	-5.13159E-005	-1.68088E-001	1.83337E-001	3.57880E+000	9	...........
	17	0.24	1.72732E-001	-2.80653E-004	0.00000E+000	-4.84778E-005	-1.68088E-001	1.72772E-001	3.57880E+000	9	...........
	18	0.253333	1.62880E-001	-2.78990E-004	0.00000E+000	-4.54419E-005	-1.68088E-001	1.62918E-001	3.57880E+000	9	...........
	19	0.266667	1.53639E-001	-2.79523E-004	0.00000E+000	-4.29456E-005	-1.68088E-001	1.53673E-001	3.57880E+000	9	...........
	20	0.28	1.44934E-001	-2.78854E-004	0.00000E+000	-4.04155E-005	-1.68088E-001	1.44971E-001	3.57880E+000	9	...........
	21	0.293333	1.36819E-001	-2.78607E-004	0.00000E+000	-3.81188E-005	-1.68088E-001	1.36852E-001	3.57880E+000	9	...........
	22	0.306667	1.29195E-001	-2.79144E-004	0.00000E+000	-3.60640E-005	-1.68088E-001	1.29225E-001	3.57880E+000	9	...........
	23	0.32	1.21997E-001	-2.78879E-004	0.00000E+000	-3.40225E-005	-1.68088E-001	1.22026E-001	3.57880E+000	9	...........
	24	0.333333	1.15182E-001	-2.79004E-004	0.00000E+000	-3.21363E-005	-1.68088E-001	1.15209E-001	3.57880E+000	9	...........
	25	0.346667	1.08715E-001	-2.77347E-004	0.00000E+000	-3.01518E-005	-1.68088E-001	1.08743E-001	3.57880E+000	9	...........
	26	0.36	1.02616E-001	-2.78823E-004	0.00000E+000	-2.86118E-005	-1.68088E-001	1.02639E-001	3.57880E+000	9	...........
	27	0.373333	9.68193E-002	-2.79521E-004	0.00000E+000	-2.70630E-005	-1.68088E-001	9.68417E-002	3.57880E+000	9	...........
	28	0.386667	9.12563E-002	-2.79421E-004	0.00000E+000	-2.54989E-005	-1.68088E-001	9.12775E-002	3.57880E+000	9	...........
	29	0.4	8.58906E-002	-2.78976E-004	0.00000E+000	-2.39614E-005	-1.68088E-001	8.59130E-002	3.57880E+000	9	...........
	30	0.413333	8.08015E-002	-2.79160E-004	0.00000E+000	-2.25566E-005	-1.68088E-001	8.08171E-002	3.57880E+000	9	...........
	31	0.426667	7.59471E-002	-2.78807E-004	0.00000E+000	-2.11746E-005	-1.68088E-001	7.59592E-002	3.57880E+000	9	...........
	32	0.44	7.12495E-002	-2.78060E-004	0.00000E+000	-1.98116E-005	-1.68088E-001	7.12555E-002	3.57880E+000	9	...........
	33	0.453333	6.67255E-002	-2.79186E-004	0.00000E+000	-1.86289E-005	-1.68088E-001	6.67372E-002	3.57880E+000	9	...........
	34	0.466667	6.23442E-002	-2.78073E-004	0.00000E+000	-1.73362E-005	-1.68088E-001	6.23517E-002	3.57880E+000	9	...........
	35	0.48	5.80911E-002	-2.78371E-004	0.00000E+000	-1.61709E-005	-1.68088E-001	5.80970E-002	3.57880E+000	9	...........
	36	0.493333	5.39549E-002	-2.78703E-004	0.00000E+000	-1.50374E-005	-1.68088E-001	5.39584E-002	3.57880E+000	9	...........
	37	0.506667	4.99515E-002	-2.78981E-004	0.00000E+000	-1.39355E-005	-1.68088E-001	4.99561E-002	3.57880E+000	9	...........
	38	0.52	4.61568E-002	-2.79481E-004	0.00000E+000	-1.29000E-005	-1.68088E-001	4.61672E-002	3.57880E+000	9	...........
	39	0.533333	4.24036E-002	-2.78885E-004	0.00000E+000	-1.18257E-005	-1.68088E-001	4.24119E-002	3.57880E+000	9	...........
	40	0.546667	3.87201E-002	-2.78981E-004	0.00000E+000	-1.08022E-005	-1.68088E-001	3.87288E-002	3.57880E+000	9	...........
	41	0.56	3.51205E-002	-2.79744E-004	0.00000E+000	-9.82474E-006	-1.68088E-001	3.51254E-002	3.57880E+000	9	...........
	42	0.573333	3.16634E-002	-2.79547E-004	0.00000E+000	-8.85140E-006	-1.68088E-001	3.16682E-002	3.57880E+000	9	...........
	43	0.586667	2.82869E-002	-2.79501E-004	0.00000E+000	-7.90621E-006	-1.68088E-001	2.82885E-002	3.57880E+000	9	...........
	44	0.6	2.49938E-002	-2.79182E-004	0.00000E+000	-6.97784E-006	-1.68088E-001	2.49920E-002	3.57880E+000	9	...........
	45	0.613333	2.17303E-002	-2.78702E-004	0.00000E+000	-6.05629E-006	-1.68088E-001	2.17261E-002	3.57880E+000	9	...........
	46	0.626667	1.85297E-002	-2.79713E-004	0.00000E+000	-5.18300E-006	-1.68088E-001	1.85171E-002	3.57880E+000	9	...........
	47	0.64	1.54816E-002	-2.78718E-004	0.00000E+000	-4.31500E-006	-1.68088E-001	1.54735E-002	3.57880E+000	9	...........
	48	0.653333	1.24743E-002	-2.78182E-004	0.00000E+000	-3.47014E-006	-1.68088E-001	1.24588E-002	3.57880E+000	9	...........
	49	0.666667	9.47448E-003	-2.78777E-004	0.00000E+000	-2.64127E-006	-1.68088E-001	9.46411E-003	3.57880E+000	9	...........
	50	0.68	6.56575E-003	-2.78384E-004	0.00000E+000	-1.82780E-006	-1.68088E-001	6.55047E-003	3.57880E+000	9	...........
	51	0.693333	3.65324E-003	-2.79718E-004	0.00000E+000	-1.02188E-006	-1.68088E-001	3.63741E-003	3.57880E+000	9	...........
	52	0.705	9.73438E-004	-2.80230E-004	0.00000E+000	-2.72787E-007	-1.68088E-001	9.52021E-004	3.57880E+000	9	...........
STARTTIMEOFFSET	QUANT	1967.253	Start Time Offset (s)
