EXPLAIN
TAG	PWR800_DISCHARGE
TITLE	LABEL	PWR Cyclic Charge Discharge (Cell) - Discharge Step	Test &Identifier
DATE	LABEL	7-7-2017	Date
TIME	LABEL	15:41:21	Time
NOTES	NOTES	3	&Notes...
	supercap test cell
	2.8mg
	6M KOH
PSTAT	PSTAT	IFC5000-01520	Potentiostat
CAPACITY	QUANT	1.00000E-003	Capacity (A-hr)
CELLTYPE	SELECTOR	1	&Cell Type
WORKINGCONNECTION	SELECTOR	0	&Working Lead
MAXDISCHARGETIME	VARIABLEANDUNITS	1.00000E+002	s	1.00000E+002	second(s)	Max &Discharge Time
DISCHARGEMODE	MULTIPARAM	0	2.80000E-004	&Discharge Mode	Constant Current	Amp(s)
SAMPLETIME	QUANT	1.00000E-002	Sa&mple Period (s)
DISCHARGESTOPAT1	MULTIPARAM	3	0.00000E+000	Discharge Stop At &1	Voltage < Limit	V
DISCHARGESTOPAT2	MULTIPARAM	0	0.00000E+000	Discharge Stop At &2	None	N/A
AESBHCSELECTOR	TOGGLE	F	Save Both Half Cells
IRCOMP	TOGGLE	F	IR &Measure
EOC	QUANT	0	Open Circuit (V)
SEQUENCER	TOGGLE	TRUE	Run as Sequence
PSTATMODEL	IQUANT	53	Pstat Model
PSTATSECTION	LABEL	IFC5000-01520	Pstat Section
PSTATSERIALNO	LABEL	01520	Pstat Serial Number
CTRLMODE	IQUANT	0	Control Mode
ELECTROMETER	IQUANT	1	RE=0 or CS=1
IESTAB	IQUANT	0	I/E Stability
CASPEED	IQUANT	4	Control Amp Speed
CONVENTION	IQUANT	1	Current Convention
ICHRANGE	IQUANT	2	Ich Range
ICHRANGEMODE	TOGGLE	T	Ich Auto Range
ICHOFFSETENABLE	TOGGLE	F	Ich Offset Enable
ICHOFFSET	QUANT	0	Ich Offset (V)
ICHFILTER	IQUANT	1	Ich Filter
VCHRANGE	IQUANT	2	Vch Range
VCHRANGEMODE	TOGGLE	T	Vch Auto Range
VCHOFFSETENABLE	TOGGLE	F	Vch Offset Enable
VCHOFFSET	QUANT	0	Vch Offset (V)
VCHFILTER	IQUANT	1	Vch Filter
IERANGELOWERLIMIT	IQUANT	9	I/E Range Lower Limit
IERANGEMODE	TOGGLE	F	I/E AutoRange
IERANGE	IQUANT	9	I/E Range
ACHSELECT	IQUANT	1	Ach Select
ACHRANGE	IQUANT	2	Ach Range
ACHOFFSETENABLE	TOGGLE	F	Ach Offset Enable
ACHOFFSET	QUANT	0	Ach Offset (V)
ACHFILTER	IQUANT	1	Ach Filter
CABLEID	IQUANT	14	Cable ID
DCCALDATE	LABEL	5-7-2017	DC Calibration Date
ACCALDATE	LABEL	12/3/2015	AC Calibration Date
FRAMEWORKVERSION	QUANT	7.01	Framework Version
INSTRUMENTVERSION	LABEL	4.00	Instrument Version
CURVE	TABLE	124
	Pt	T	Vf	Im	Vu	Pwr	Sig	Ach	Temp	IERange	Over
	#	s	V	A	V	W	V	V	deg C	#	bits
	0	0.013333	5.71178E-001	-2.78407E-004	0.00000E+000	-1.59020E-004	-1.68088E-001	5.71465E-001	3.57830E+000	9	...........
	1	0.026667	5.42945E-001	-2.79145E-004	0.00000E+000	-1.51560E-004	-1.68088E-001	5.43227E-001	3.57830E+000	9	...........
	2	0.04	5.17609E-001	-2.78371E-004	0.00000E+000	-1.44087E-004	-1.68088E-001	5.17890E-001	3.57830E+000	9	...........
	3	0.053333	4.94545E-001	-2.78306E-004	0.00000E+000	-1.37635E-004	-1.68088E-001	4.94846E-001	3.57830E+000	9	...........
	4	0.066667	4.73767E-001	-2.78742E-004	0.00000E+000	-1.32059E-004	-1.68088E-001	4.73856E-001	3.57830E+000	9	...........
	5	0.08	4.54263E-001	-2.79417E-004	0.00000E+000	-1.26929E-004	-1.68088E-001	4.54380E-001	3.57830E+000	9	...........
	6	0.093333	4.36245E-001	-2.79084E-004	0.00000E+000	-1.21749E-004	-1.68088E-001	4.36355E-001	3.57830E+000	9	...........
	7	0.106667	4.19531E-001	-2.78040E-004	0.00000E+000	-1.16647E-004	-1.68088E-001	4.19637E-001	3.57830E+000	9	...........
	8	0.12	4.04014E-001	-2.79457E-004	0.00000E+000	-1.12905E-004	-1.68088E-001	4.04115E-001	3.57830E+000	9	...........
	9	0.133333	3.89594E-001	-2.78806E-004	0.00000E+000	-1.08621E-004	-1.68088E-001	3.89690E-001	3.57830E+000	9	...........
	10	0.146667	3.76157E-001	-2.78773E-004	0.00000E+000	-1.04862E-004	-1.68088E-001	3.76249E-001	3.57830E+000	9	...........
	11	0.16	3.63668E-001	-2.79414E-004	0.00000E+000	-1.01614E-004	-1.68088E-001	3.63758E-001	3.57830E+000	9	...........
	12	0.173333	3.51990E-001	-2.79221E-004	0.00000E+000	-9.82831E-005	-1.68088E-001	3.52079E-001	3.57830E+000	9	...........
	13	0.186667	3.41059E-001	-2.79105E-004	0.00000E+000	-9.51912E-005	-1.68088E-001	3.41142E-001	3.57822E+000	9	...........
	14	0.2	3.30819E-001	-2.78390E-004	0.00000E+000	-9.20968E-005	-1.68088E-001	3.30903E-001	3.57800E+000	9	...........
	15	0.213333	3.21190E-001	-2.79150E-004	0.00000E+000	-8.96602E-005	-1.68088E-001	3.21269E-001	3.57800E+000	9	...........
	16	0.226667	3.12123E-001	-2.78365E-004	0.00000E+000	-8.68842E-005	-1.68088E-001	3.12202E-001	3.57800E+000	9	...........
	17	0.24	3.03554E-001	-2.79025E-004	0.00000E+000	-8.46991E-005	-1.68088E-001	3.03635E-001	3.57800E+000	9	...........
	18	0.253333	2.95484E-001	-2.79368E-004	0.00000E+000	-8.25488E-005	-1.68088E-001	2.95558E-001	3.57800E+000	9	...........
	19	0.266667	2.87853E-001	-2.78953E-004	0.00000E+000	-8.02974E-005	-1.68088E-001	2.87925E-001	3.57800E+000	9	...........
	20	0.28	2.80621E-001	-2.79023E-004	0.00000E+000	-7.82996E-005	-1.68088E-001	2.80694E-001	3.57800E+000	9	...........
	21	0.293333	2.73762E-001	-2.78624E-004	0.00000E+000	-7.62765E-005	-1.68088E-001	2.73836E-001	3.57800E+000	9	...........
	22	0.306667	2.67243E-001	-2.78999E-004	0.00000E+000	-7.45605E-005	-1.68088E-001	2.67310E-001	3.57800E+000	9	...........
	23	0.32	2.61054E-001	-2.79528E-004	0.00000E+000	-7.29720E-005	-1.68088E-001	2.61125E-001	3.57800E+000	9	...........
	24	0.333333	2.55144E-001	-2.79406E-004	0.00000E+000	-7.12889E-005	-1.68088E-001	2.55211E-001	3.57800E+000	9	...........
	25	0.346667	2.49478E-001	-2.79791E-004	0.00000E+000	-6.98017E-005	-1.68088E-001	2.49535E-001	3.57800E+000	9	...........
	26	0.36	2.44047E-001	-2.79241E-004	0.00000E+000	-6.81480E-005	-1.68088E-001	2.44106E-001	3.57800E+000	9	...........
	27	0.373333	2.38827E-001	-2.78957E-004	0.00000E+000	-6.66225E-005	-1.68088E-001	2.38879E-001	3.57800E+000	9	...........
	28	0.386667	2.33801E-001	-2.78293E-004	0.00000E+000	-6.50650E-005	-1.68088E-001	2.33854E-001	3.57800E+000	9	...........
	29	0.4	2.28952E-001	-2.79022E-004	0.00000E+000	-6.38827E-005	-1.68088E-001	2.29012E-001	3.57800E+000	9	...........
	30	0.413333	2.24274E-001	-2.78088E-004	0.00000E+000	-6.23680E-005	-1.68088E-001	2.24324E-001	3.57800E+000	9	...........
	31	0.426667	2.19729E-001	-2.78726E-004	0.00000E+000	-6.12443E-005	-1.68088E-001	2.19780E-001	3.57800E+000	9	...........
	32	0.44	2.15310E-001	-2.78538E-004	0.00000E+000	-5.99722E-005	-1.68088E-001	2.15360E-001	3.57800E+000	9	...........
	33	0.453333	2.11043E-001	-2.78507E-004	0.00000E+000	-5.87770E-005	-1.68088E-001	2.11090E-001	3.57800E+000	9	...........
	34	0.466667	2.06909E-001	-2.79238E-004	0.00000E+000	-5.77767E-005	-1.68088E-001	2.06956E-001	3.57800E+000	9	...........
	35	0.48	2.02875E-001	-2.79138E-004	0.00000E+000	-5.66300E-005	-1.68088E-001	2.02921E-001	3.57800E+000	9	...........
	36	0.493333	1.98987E-001	-2.78620E-004	0.00000E+000	-5.54417E-005	-1.68088E-001	1.99031E-001	3.57800E+000	9	...........
	37	0.506667	1.95239E-001	-2.78505E-004	0.00000E+000	-5.43749E-005	-1.68088E-001	1.95279E-001	3.57800E+000	9	...........
	38	0.52	1.91558E-001	-2.78859E-004	0.00000E+000	-5.34176E-005	-1.68088E-001	1.91611E-001	3.57800E+000	9	...........
	39	0.533333	1.87906E-001	-2.78869E-004	0.00000E+000	-5.24011E-005	-1.68088E-001	1.87947E-001	3.57800E+000	9	...........
	40	0.546667	1.84347E-001	-2.78394E-004	0.00000E+000	-5.13210E-005	-1.68088E-001	1.84388E-001	3.57800E+000	9	...........
	41	0.56	1.80911E-001	-2.78716E-004	0.00000E+000	-5.04228E-005	-1.68088E-001	1.80957E-001	3.57800E+000	9	...........
	42	0.573333	1.77563E-001	-2.78412E-004	0.00000E+000	-4.94359E-005	-1.68088E-001	1.77607E-001	3.57800E+000	9	...........
	43	0.586667	1.74289E-001	-2.78397E-004	0.00000E+000	-4.85216E-005	-1.68088E-001	1.74332E-001	3.57800E+000	9	...........
	44	0.6	1.71012E-001	-2.78744E-004	0.00000E+000	-4.76686E-005	-1.68088E-001	1.71057E-001	3.57800E+000	9	...........
	45	0.613333	1.67854E-001	-2.78496E-004	0.00000E+000	-4.67465E-005	-1.68088E-001	1.67893E-001	3.57800E+000	9	...........
	46	0.626667	1.64766E-001	-2.79067E-004	0.00000E+000	-4.59806E-005	-1.68088E-001	1.64802E-001	3.57800E+000	9	...........
	47	0.64	1.61706E-001	-2.79383E-004	0.00000E+000	-4.51779E-005	-1.68088E-001	1.61745E-001	3.57800E+000	9	...........
	48	0.653333	1.58764E-001	-2.79174E-004	0.00000E+000	-4.43229E-005	-1.68088E-001	1.58799E-001	3.57800E+000	9	...........
	49	0.666667	1.55847E-001	-2.78733E-004	0.00000E+000	-4.34397E-005	-1.68088E-001	1.55877E-001	3.57800E+000	9	...........
	50	0.68	1.52932E-001	-2.78141E-004	0.00000E+000	-4.25367E-005	-1.68088E-001	1.52965E-001	3.57800E+000	9	...........
	51	0.693333	1.50085E-001	-2.78911E-004	0.00000E+000	-4.18604E-005	-1.68088E-001	1.50117E-001	3.57800E+000	9	...........
	52	0.706667	1.47289E-001	-2.78555E-004	0.00000E+000	-4.10282E-005	-1.68088E-001	1.47324E-001	3.57800E+000	9	...........
	53	0.72	1.44502E-001	-2.78798E-004	0.00000E+000	-4.02868E-005	-1.68088E-001	1.44542E-001	3.57800E+000	9	...........
	54	0.733333	1.41754E-001	-2.78577E-004	0.00000E+000	-3.94895E-005	-1.68088E-001	1.41788E-001	3.57800E+000	9	...........
	55	0.746667	1.39052E-001	-2.79672E-004	0.00000E+000	-3.88890E-005	-1.68088E-001	1.39087E-001	3.57800E+000	9	...........
	56	0.76	1.36390E-001	-2.79724E-004	0.00000E+000	-3.81516E-005	-1.68088E-001	1.36428E-001	3.57800E+000	9	...........
	57	0.773333	1.33754E-001	-2.78613E-004	0.00000E+000	-3.72657E-005	-1.68088E-001	1.33791E-001	3.57800E+000	9	...........
	58	0.786667	1.31143E-001	-2.78903E-004	0.00000E+000	-3.65762E-005	-1.68088E-001	1.31174E-001	3.57800E+000	9	...........
	59	0.8	1.28516E-001	-2.79423E-004	0.00000E+000	-3.59104E-005	-1.68088E-001	1.28546E-001	3.57800E+000	9	...........
	60	0.813333	1.25941E-001	-2.78906E-004	0.00000E+000	-3.51257E-005	-1.68088E-001	1.25975E-001	3.57800E+000	9	...........
	61	0.826667	1.23420E-001	-2.79031E-004	0.00000E+000	-3.44380E-005	-1.68088E-001	1.23453E-001	3.57800E+000	9	...........
	62	0.84	1.20951E-001	-2.78570E-004	0.00000E+000	-3.36932E-005	-1.68088E-001	1.20981E-001	3.57800E+000	9	...........
	63	0.853333	1.18500E-001	-2.79857E-004	0.00000E+000	-3.31630E-005	-1.68088E-001	1.18531E-001	3.57800E+000	9	...........
	64	0.866667	1.16053E-001	-2.78580E-004	0.00000E+000	-3.23301E-005	-1.68088E-001	1.16088E-001	3.57800E+000	9	...........
	65	0.88	1.13666E-001	-2.79514E-004	0.00000E+000	-3.17712E-005	-1.68088E-001	1.13700E-001	3.57800E+000	9	...........
	66	0.893333	1.11256E-001	-2.79846E-004	0.00000E+000	-3.11344E-005	-1.68088E-001	1.11285E-001	3.57800E+000	9	...........
	67	0.906667	1.08912E-001	-2.78844E-004	0.00000E+000	-3.03693E-005	-1.68088E-001	1.08939E-001	3.57800E+000	9	...........
	68	0.92	1.06599E-001	-2.78656E-004	0.00000E+000	-2.97044E-005	-1.68088E-001	1.06626E-001	3.57800E+000	9	...........
	69	0.933333	1.04218E-001	-2.78572E-004	0.00000E+000	-2.90322E-005	-1.68088E-001	1.04243E-001	3.57800E+000	9	...........
	70	0.946667	1.01868E-001	-2.78475E-004	0.00000E+000	-2.83677E-005	-1.68088E-001	1.01898E-001	3.57800E+000	9	...........
	71	0.96	9.96040E-002	-2.78971E-004	0.00000E+000	-2.77866E-005	-1.68088E-001	9.96320E-002	3.57800E+000	9	...........
	72	0.97333	9.73828E-002	-2.78463E-004	0.00000E+000	-2.71176E-005	-1.68088E-001	9.74113E-002	3.57800E+000	9	...........
	73	0.98667	9.51233E-002	-2.79179E-004	0.00000E+000	-2.65564E-005	-1.68088E-001	9.51483E-002	3.57800E+000	9	...........
	74	1	9.28904E-002	-2.79182E-004	0.00000E+000	-2.59334E-005	-1.68088E-001	9.29141E-002	3.57800E+000	9	...........
	75	1.01333	9.06769E-002	-2.79126E-004	0.00000E+000	-2.53103E-005	-1.68088E-001	9.07042E-002	3.57800E+000	9	...........
	76	1.02667	8.84330E-002	-2.78359E-004	0.00000E+000	-2.46162E-005	-1.68088E-001	8.84588E-002	3.57800E+000	9	...........
	77	1.04	8.62137E-002	-2.78696E-004	0.00000E+000	-2.40274E-005	-1.68088E-001	8.62381E-002	3.57800E+000	9	...........
	78	1.05333	8.40674E-002	-2.79197E-004	0.00000E+000	-2.34713E-005	-1.68088E-001	8.40903E-002	3.57800E+000	9	...........
	79	1.06667	8.19713E-002	-2.78975E-004	0.00000E+000	-2.28679E-005	-1.68088E-001	8.19946E-002	3.57800E+000	9	...........
	80	1.08	7.98770E-002	-2.78331E-004	0.00000E+000	-2.22323E-005	-1.68088E-001	7.98959E-002	3.57800E+000	9	...........
	81	1.09333	7.77326E-002	-2.78680E-004	0.00000E+000	-2.16625E-005	-1.68088E-001	7.77462E-002	3.57800E+000	9	...........
	82	1.10667	7.55954E-002	-2.79531E-004	0.00000E+000	-2.11313E-005	-1.68088E-001	7.56079E-002	3.57800E+000	9	...........
	83	1.12	7.35035E-002	-2.78973E-004	0.00000E+000	-2.05055E-005	-1.68088E-001	7.35147E-002	3.57800E+000	9	...........
	84	1.13333	7.14371E-002	-2.79390E-004	0.00000E+000	-1.99588E-005	-1.68088E-001	7.14498E-002	3.57800E+000	9	...........
	85	1.14667	6.93796E-002	-2.78709E-004	0.00000E+000	-1.93367E-005	-1.68088E-001	6.93980E-002	3.57800E+000	9	...........
	86	1.16	6.73216E-002	-2.79042E-004	0.00000E+000	-1.87855E-005	-1.68088E-001	6.73312E-002	3.57800E+000	9	...........
	87	1.17333	6.52713E-002	-2.78756E-004	0.00000E+000	-1.81948E-005	-1.68088E-001	6.52814E-002	3.57800E+000	9	...........
	88	1.18667	6.32427E-002	-2.79236E-004	0.00000E+000	-1.76597E-005	-1.68088E-001	6.32546E-002	3.57812E+000	9	...........
	89	1.2	6.12719E-002	-2.78597E-004	0.00000E+000	-1.70701E-005	-1.68088E-001	6.12857E-002	3.57850E+000	9	...........
	90	1.21333	5.93228E-002	-2.79258E-004	0.00000E+000	-1.65664E-005	-1.68088E-001	5.93306E-002	3.57850E+000	9	...........
	91	1.22667	5.73966E-002	-2.78920E-004	0.00000E+000	-1.60091E-005	-1.68088E-001	5.74134E-002	3.57850E+000	9	...........
	92	1.24	5.54389E-002	-2.78564E-004	0.00000E+000	-1.54433E-005	-1.68088E-001	5.54504E-002	3.57850E+000	9	...........
	93	1.25333	5.35507E-002	-2.79096E-004	0.00000E+000	-1.49458E-005	-1.68088E-001	5.35604E-002	3.57850E+000	9	...........
	94	1.26667	5.16478E-002	-2.78458E-004	0.00000E+000	-1.43817E-005	-1.68088E-001	5.16517E-002	3.57850E+000	9	...........
	95	1.28	4.97028E-002	-2.78620E-004	0.00000E+000	-1.38482E-005	-1.68088E-001	4.97148E-002	3.57850E+000	9	...........
	96	1.29333	4.78328E-002	-2.78835E-004	0.00000E+000	-1.33375E-005	-1.68088E-001	4.78342E-002	3.57850E+000	9	...........
	97	1.30667	4.59181E-002	-2.79180E-004	0.00000E+000	-1.28194E-005	-1.68088E-001	4.59287E-002	3.57850E+000	9	...........
	98	1.32	4.40154E-002	-2.79107E-004	0.00000E+000	-1.22850E-005	-1.68088E-001	4.40209E-002	3.57850E+000	9	...........
	99	1.33333	4.21608E-002	-2.79547E-004	0.00000E+000	-1.17859E-005	-1.68088E-001	4.21677E-002	3.57850E+000	9	...........
	100	1.34667	4.02967E-002	-2.78808E-004	0.00000E+000	-1.12351E-005	-1.68088E-001	4.03007E-002	3.57850E+000	9	...........
	101	1.36	3.84029E-002	-2.78446E-004	0.00000E+000	-1.06931E-005	-1.68088E-001	3.84075E-002	3.57850E+000	9	...........
	102	1.37333	3.65319E-002	-2.79207E-004	0.00000E+000	-1.02000E-005	-1.68088E-001	3.65304E-002	3.57850E+000	9	...........
	103	1.38667	3.46954E-002	-2.78551E-004	0.00000E+000	-9.66444E-006	-1.68088E-001	3.46994E-002	3.57850E+000	9	...........
	104	1.4	3.29055E-002	-2.79173E-004	0.00000E+000	-9.18632E-006	-1.68088E-001	3.29034E-002	3.57850E+000	9	...........
	105	1.41333	3.11089E-002	-2.78526E-004	0.00000E+000	-8.66464E-006	-1.68088E-001	3.11098E-002	3.57850E+000	9	...........
	106	1.42667	2.93124E-002	-2.79183E-004	0.00000E+000	-8.18352E-006	-1.68088E-001	2.93112E-002	3.57850E+000	9	...........
	107	1.44	2.75562E-002	-2.78335E-004	0.00000E+000	-7.66988E-006	-1.68088E-001	2.75613E-002	3.57850E+000	9	...........
	108	1.45333	2.57622E-002	-2.78728E-004	0.00000E+000	-7.18065E-006	-1.68088E-001	2.57597E-002	3.57850E+000	9	...........
	109	1.46667	2.39613E-002	-2.78858E-004	0.00000E+000	-6.68180E-006	-1.68088E-001	2.39504E-002	3.57850E+000	9	...........
	110	1.48	2.22265E-002	-2.78677E-004	0.00000E+000	-6.19402E-006	-1.68088E-001	2.22224E-002	3.57850E+000	9	...........
	111	1.49333	2.04823E-002	-2.78725E-004	0.00000E+000	-5.70893E-006	-1.68088E-001	2.04741E-002	3.57850E+000	9	...........
	112	1.50667	1.87776E-002	-2.78472E-004	0.00000E+000	-5.22904E-006	-1.68088E-001	1.87721E-002	3.57850E+000	9	...........
	113	1.52	1.70776E-002	-2.79840E-004	0.00000E+000	-4.77898E-006	-1.68088E-001	1.70694E-002	3.57850E+000	9	...........
	114	1.53333	1.53706E-002	-2.78364E-004	0.00000E+000	-4.27863E-006	-1.68088E-001	1.53577E-002	3.57850E+000	9	...........
	115	1.54667	1.36668E-002	-2.79245E-004	0.00000E+000	-3.81637E-006	-1.68088E-001	1.36528E-002	3.57850E+000	9	...........
	116	1.56	1.19993E-002	-2.79231E-004	0.00000E+000	-3.35059E-006	-1.68088E-001	1.19858E-002	3.57850E+000	9	...........
	117	1.57333	1.03367E-002	-2.78896E-004	0.00000E+000	-2.88287E-006	-1.68088E-001	1.03164E-002	3.57850E+000	9	...........
	118	1.58667	8.61524E-003	-2.78844E-004	0.00000E+000	-2.40230E-006	-1.68088E-001	8.59777E-003	3.57850E+000	9	...........
	119	1.6	6.90634E-003	-2.79395E-004	0.00000E+000	-1.92960E-006	-1.68088E-001	6.89065E-003	3.57850E+000	9	...........
	120	1.61333	5.25066E-003	-2.79354E-004	0.00000E+000	-1.46680E-006	-1.68088E-001	5.23333E-003	3.57850E+000	9	...........
	121	1.62667	3.59341E-003	-2.79297E-004	0.00000E+000	-1.00363E-006	-1.68088E-001	3.57435E-003	3.57850E+000	9	...........
	122	1.64	1.92057E-003	-2.79119E-004	0.00000E+000	-5.36067E-007	-1.68088E-001	1.90412E-003	3.57850E+000	9	...........
	123	1.65	4.38999E-004	-2.78376E-004	0.00000E+000	-1.22207E-007	-1.68088E-001	4.17630E-004	3.57850E+000	9	...........
STARTTIMEOFFSET	QUANT	267.2534	Start Time Offset (s)
