EXPLAIN
TAG	PWR800_DISCHARGE
TITLE	LABEL	PWR Cyclic Charge Discharge (Cell) - Discharge Step	Test &Identifier
DATE	LABEL	7-7-2017	Date
TIME	LABEL	16:07:56	Time
NOTES	NOTES	3	&Notes...
	supercap test cell
	2.8mg
	6M KOH
PSTAT	PSTAT	IFC5000-01520	Potentiostat
CAPACITY	QUANT	1.00000E-003	Capacity (A-hr)
CELLTYPE	SELECTOR	1	&Cell Type
WORKINGCONNECTION	SELECTOR	0	&Working Lead
MAXDISCHARGETIME	VARIABLEANDUNITS	1.00000E+002	s	1.00000E+002	second(s)	Max &Discharge Time
DISCHARGEMODE	MULTIPARAM	0	2.80000E-004	&Discharge Mode	Constant Current	Amp(s)
SAMPLETIME	QUANT	1.00000E-002	Sa&mple Period (s)
DISCHARGESTOPAT1	MULTIPARAM	3	0.00000E+000	Discharge Stop At &1	Voltage < Limit	V
DISCHARGESTOPAT2	MULTIPARAM	0	0.00000E+000	Discharge Stop At &2	None	N/A
AESBHCSELECTOR	TOGGLE	F	Save Both Half Cells
IRCOMP	TOGGLE	F	IR &Measure
EOC	QUANT	0	Open Circuit (V)
SEQUENCER	TOGGLE	TRUE	Run as Sequence
PSTATMODEL	IQUANT	53	Pstat Model
PSTATSECTION	LABEL	IFC5000-01520	Pstat Section
PSTATSERIALNO	LABEL	01520	Pstat Serial Number
CTRLMODE	IQUANT	0	Control Mode
ELECTROMETER	IQUANT	1	RE=0 or CS=1
IESTAB	IQUANT	0	I/E Stability
CASPEED	IQUANT	4	Control Amp Speed
CONVENTION	IQUANT	1	Current Convention
ICHRANGE	IQUANT	2	Ich Range
ICHRANGEMODE	TOGGLE	T	Ich Auto Range
ICHOFFSETENABLE	TOGGLE	F	Ich Offset Enable
ICHOFFSET	QUANT	0	Ich Offset (V)
ICHFILTER	IQUANT	1	Ich Filter
VCHRANGE	IQUANT	2	Vch Range
VCHRANGEMODE	TOGGLE	T	Vch Auto Range
VCHOFFSETENABLE	TOGGLE	F	Vch Offset Enable
VCHOFFSET	QUANT	0	Vch Offset (V)
VCHFILTER	IQUANT	1	Vch Filter
IERANGELOWERLIMIT	IQUANT	9	I/E Range Lower Limit
IERANGEMODE	TOGGLE	F	I/E AutoRange
IERANGE	IQUANT	9	I/E Range
ACHSELECT	IQUANT	1	Ach Select
ACHRANGE	IQUANT	2	Ach Range
ACHOFFSETENABLE	TOGGLE	F	Ach Offset Enable
ACHOFFSET	QUANT	0	Ach Offset (V)
ACHFILTER	IQUANT	1	Ach Filter
CABLEID	IQUANT	14	Cable ID
DCCALDATE	LABEL	5-7-2017	DC Calibration Date
ACCALDATE	LABEL	12/3/2015	AC Calibration Date
FRAMEWORKVERSION	QUANT	7.01	Framework Version
INSTRUMENTVERSION	LABEL	4.00	Instrument Version
CURVE	TABLE	63
	Pt	T	Vf	Im	Vu	Pwr	Sig	Ach	Temp	IERange	Over
	#	s	V	A	V	W	V	V	deg C	#	bits
	0	0.013333	5.20278E-001	-2.77824E-004	0.00000E+000	-1.44545E-004	-1.68088E-001	5.20514E-001	3.57730E+000	9	...........
	1	0.026667	4.87451E-001	-2.79008E-004	0.00000E+000	-1.36003E-004	-1.68088E-001	4.87608E-001	3.57730E+000	9	...........
	2	0.04	4.57557E-001	-2.79105E-004	0.00000E+000	-1.27707E-004	-1.68088E-001	4.57661E-001	3.57730E+000	9	...........
	3	0.053333	4.29674E-001	-2.78631E-004	0.00000E+000	-1.19720E-004	-1.68088E-001	4.29775E-001	3.57730E+000	9	...........
	4	0.066667	4.03742E-001	-2.78041E-004	0.00000E+000	-1.12257E-004	-1.68088E-001	4.03835E-001	3.57730E+000	9	...........
	5	0.08	3.79582E-001	-2.79647E-004	0.00000E+000	-1.06149E-004	-1.68088E-001	3.79667E-001	3.57730E+000	9	...........
	6	0.093333	3.57079E-001	-2.79062E-004	0.00000E+000	-9.96474E-005	-1.68088E-001	3.57167E-001	3.57730E+000	9	...........
	7	0.106667	3.36129E-001	-2.78493E-004	0.00000E+000	-9.36095E-005	-1.68088E-001	3.36208E-001	3.57730E+000	9	...........
	8	0.12	3.16659E-001	-2.78669E-004	0.00000E+000	-8.82430E-005	-1.68088E-001	3.16738E-001	3.57730E+000	9	...........
	9	0.133333	2.98576E-001	-2.79281E-004	0.00000E+000	-8.33867E-005	-1.68088E-001	2.98650E-001	3.57730E+000	9	...........
	10	0.146667	2.81778E-001	-2.78488E-004	0.00000E+000	-7.84718E-005	-1.68088E-001	2.81855E-001	3.57730E+000	9	...........
	11	0.16	2.66215E-001	-2.79345E-004	0.00000E+000	-7.43658E-005	-1.68088E-001	2.66284E-001	3.57730E+000	9	...........
	12	0.173333	2.51717E-001	-2.78838E-004	0.00000E+000	-7.01885E-005	-1.68088E-001	2.51783E-001	3.57730E+000	9	...........
	13	0.186667	2.38284E-001	-2.79404E-004	0.00000E+000	-6.65776E-005	-1.68088E-001	2.38343E-001	3.57730E+000	9	...........
	14	0.2	2.25799E-001	-2.78369E-004	0.00000E+000	-6.28552E-005	-1.68088E-001	2.25860E-001	3.57730E+000	9	...........
	15	0.213333	2.14192E-001	-2.78297E-004	0.00000E+000	-5.96089E-005	-1.68088E-001	2.14246E-001	3.57730E+000	9	...........
	16	0.226667	2.03393E-001	-2.78666E-004	0.00000E+000	-5.66786E-005	-1.68088E-001	2.03443E-001	3.57730E+000	9	...........
	17	0.24	1.93305E-001	-2.77458E-004	0.00000E+000	-5.36339E-005	-1.68088E-001	1.93355E-001	3.57730E+000	9	...........
	18	0.253333	1.83870E-001	-2.77998E-004	0.00000E+000	-5.11153E-005	-1.68088E-001	1.83924E-001	3.57730E+000	9	...........
	19	0.266667	1.75075E-001	-2.78985E-004	0.00000E+000	-4.88433E-005	-1.68088E-001	1.75121E-001	3.57730E+000	9	...........
	20	0.28	1.66784E-001	-2.78034E-004	0.00000E+000	-4.63717E-005	-1.68088E-001	1.66829E-001	3.57730E+000	9	...........
	21	0.293333	1.58980E-001	-2.79097E-004	0.00000E+000	-4.43709E-005	-1.68088E-001	1.59024E-001	3.57730E+000	9	...........
	22	0.306667	1.51616E-001	-2.77696E-004	0.00000E+000	-4.21030E-005	-1.68088E-001	1.51655E-001	3.57730E+000	9	...........
	23	0.32	1.44671E-001	-2.78301E-004	0.00000E+000	-4.02622E-005	-1.68088E-001	1.44710E-001	3.57730E+000	9	...........
	24	0.333333	1.38060E-001	-2.77960E-004	0.00000E+000	-3.83752E-005	-1.68088E-001	1.38101E-001	3.57730E+000	9	...........
	25	0.346667	1.31863E-001	-2.79869E-004	0.00000E+000	-3.69044E-005	-1.68088E-001	1.31895E-001	3.57730E+000	9	...........
	26	0.36	1.25920E-001	-2.78695E-004	0.00000E+000	-3.50933E-005	-1.68088E-001	1.25956E-001	3.57730E+000	9	...........
	27	0.373333	1.20223E-001	-2.78737E-004	0.00000E+000	-3.35106E-005	-1.68088E-001	1.20260E-001	3.57730E+000	9	...........
	28	0.386667	1.14779E-001	-2.78824E-004	0.00000E+000	-3.20031E-005	-1.68088E-001	1.14812E-001	3.57730E+000	9	...........
	29	0.4	1.09578E-001	-2.78983E-004	0.00000E+000	-3.05704E-005	-1.68088E-001	1.09606E-001	3.57730E+000	9	...........
	30	0.413333	1.04616E-001	-2.79980E-004	0.00000E+000	-2.92904E-005	-1.68088E-001	1.04645E-001	3.57730E+000	9	...........
	31	0.426667	9.98240E-002	-2.79242E-004	0.00000E+000	-2.78750E-005	-1.68088E-001	9.98522E-002	3.57730E+000	9	...........
	32	0.44	9.51944E-002	-2.78228E-004	0.00000E+000	-2.64857E-005	-1.68088E-001	9.52187E-002	3.57730E+000	9	...........
	33	0.453333	9.07261E-002	-2.79859E-004	0.00000E+000	-2.53905E-005	-1.68088E-001	9.07491E-002	3.57730E+000	9	...........
	34	0.466667	8.64378E-002	-2.79315E-004	0.00000E+000	-2.41434E-005	-1.68088E-001	8.64647E-002	3.57730E+000	9	...........
	35	0.48	8.22980E-002	-2.78610E-004	0.00000E+000	-2.29291E-005	-1.68088E-001	8.23204E-002	3.57730E+000	9	...........
	36	0.493333	7.82701E-002	-2.78955E-004	0.00000E+000	-2.18338E-005	-1.68088E-001	7.82902E-002	3.57730E+000	9	...........
	37	0.506667	7.43355E-002	-2.79612E-004	0.00000E+000	-2.07851E-005	-1.68088E-001	7.43516E-002	3.57730E+000	9	...........
	38	0.52	7.05245E-002	-2.79772E-004	0.00000E+000	-1.97308E-005	-1.68088E-001	7.05414E-002	3.57730E+000	9	...........
	39	0.533333	6.67966E-002	-2.79105E-004	0.00000E+000	-1.86433E-005	-1.68088E-001	6.68151E-002	3.57730E+000	9	...........
	40	0.546667	6.31664E-002	-2.78551E-004	0.00000E+000	-1.75951E-005	-1.68088E-001	6.31815E-002	3.57730E+000	9	...........
	41	0.56	5.96323E-002	-2.78227E-004	0.00000E+000	-1.65913E-005	-1.68088E-001	5.96430E-002	3.57730E+000	9	...........
	42	0.573333	5.62348E-002	-2.79994E-004	0.00000E+000	-1.57454E-005	-1.68088E-001	5.62465E-002	3.57730E+000	9	...........
	43	0.586667	5.28787E-002	-2.79347E-004	0.00000E+000	-1.47715E-005	-1.68088E-001	5.28947E-002	3.57730E+000	9	...........
	44	0.6	4.95760E-002	-2.79684E-004	0.00000E+000	-1.38656E-005	-1.68088E-001	4.95849E-002	3.57730E+000	9	...........
	45	0.613333	4.63498E-002	-2.79757E-004	0.00000E+000	-1.29667E-005	-1.68088E-001	4.63625E-002	3.57730E+000	9	...........
	46	0.626667	4.31517E-002	-2.79337E-004	0.00000E+000	-1.20539E-005	-1.68088E-001	4.31621E-002	3.57730E+000	9	...........
	47	0.64	4.00053E-002	-2.78527E-004	0.00000E+000	-1.11425E-005	-1.68088E-001	4.00113E-002	3.57730E+000	9	...........
	48	0.653333	3.69230E-002	-2.78349E-004	0.00000E+000	-1.02775E-005	-1.68088E-001	3.69306E-002	3.57730E+000	9	...........
	49	0.666667	3.39496E-002	-2.78015E-004	0.00000E+000	-9.43852E-006	-1.68088E-001	3.39560E-002	3.57730E+000	9	...........
	50	0.68	3.09991E-002	-2.79193E-004	0.00000E+000	-8.65474E-006	-1.68088E-001	3.10027E-002	3.57730E+000	9	...........
	51	0.693333	2.80712E-002	-2.77071E-004	0.00000E+000	-7.77773E-006	-1.68088E-001	2.80767E-002	3.57730E+000	9	...........
	52	0.706667	2.52456E-002	-2.79856E-004	0.00000E+000	-7.06514E-006	-1.68088E-001	2.52480E-002	3.57730E+000	9	...........
	53	0.72	2.24367E-002	-2.78876E-004	0.00000E+000	-6.25706E-006	-1.68088E-001	2.24360E-002	3.57798E+000	9	...........
	54	0.733333	1.96491E-002	-2.80036E-004	0.00000E+000	-5.50244E-006	-1.68088E-001	1.96446E-002	3.57870E+000	9	...........
	55	0.746667	1.69091E-002	-2.77696E-004	0.00000E+000	-4.69558E-006	-1.68088E-001	1.69046E-002	3.57870E+000	9	...........
	56	0.76	1.42334E-002	-2.77391E-004	0.00000E+000	-3.94823E-006	-1.68088E-001	1.42289E-002	3.57870E+000	9	...........
	57	0.773333	1.16085E-002	-2.78804E-004	0.00000E+000	-3.23649E-006	-1.68088E-001	1.16007E-002	3.57870E+000	9	...........
	58	0.786667	9.05909E-003	-2.78718E-004	0.00000E+000	-2.52493E-006	-1.68088E-001	9.05356E-003	3.57870E+000	9	...........
	59	0.8	6.44738E-003	-2.78759E-004	0.00000E+000	-1.79727E-006	-1.68088E-001	6.43403E-003	3.57870E+000	9	...........
	60	0.813333	3.92255E-003	-2.78117E-004	0.00000E+000	-1.09093E-006	-1.68088E-001	3.90611E-003	3.57870E+000	9	...........
	61	0.826667	1.45936E-003	-2.79902E-004	0.00000E+000	-4.08479E-007	-1.68088E-001	1.44723E-003	3.57870E+000	9	...........
	62	0.83	-5.19416E-005	-2.77906E-004	0.00000E+000	1.44349E-008	-1.68088E-001	-7.63779E-005	3.57870E+000	9	...........
STARTTIMEOFFSET	QUANT	1440.273	Start Time Offset (s)
