EXPLAIN
TAG	PWR800_DISCHARGE
TITLE	LABEL	PWR Cyclic Charge Discharge (Cell) - Discharge Step	Test &Identifier
DATE	LABEL	7-7-2017	Date
TIME	LABEL	15:36:36	Time
NOTES	NOTES	3	&Notes...
	supercap test cell
	2.8mg
	6M KOH
PSTAT	PSTAT	IFC5000-01520	Potentiostat
CAPACITY	QUANT	1.00000E-003	Capacity (A-hr)
CELLTYPE	SELECTOR	1	&Cell Type
WORKINGCONNECTION	SELECTOR	0	&Working Lead
MAXDISCHARGETIME	VARIABLEANDUNITS	1.00000E+002	s	1.00000E+002	second(s)	Max &Discharge Time
DISCHARGEMODE	MULTIPARAM	0	2.80000E-004	&Discharge Mode	Constant Current	Amp(s)
SAMPLETIME	QUANT	1.00000E-002	Sa&mple Period (s)
DISCHARGESTOPAT1	MULTIPARAM	3	0.00000E+000	Discharge Stop At &1	Voltage < Limit	V
DISCHARGESTOPAT2	MULTIPARAM	0	0.00000E+000	Discharge Stop At &2	None	N/A
AESBHCSELECTOR	TOGGLE	F	Save Both Half Cells
IRCOMP	TOGGLE	F	IR &Measure
EOC	QUANT	0	Open Circuit (V)
SEQUENCER	TOGGLE	TRUE	Run as Sequence
PSTATMODEL	IQUANT	53	Pstat Model
PSTATSECTION	LABEL	IFC5000-01520	Pstat Section
PSTATSERIALNO	LABEL	01520	Pstat Serial Number
CTRLMODE	IQUANT	0	Control Mode
ELECTROMETER	IQUANT	1	RE=0 or CS=1
IESTAB	IQUANT	0	I/E Stability
CASPEED	IQUANT	4	Control Amp Speed
CONVENTION	IQUANT	1	Current Convention
ICHRANGE	IQUANT	2	Ich Range
ICHRANGEMODE	TOGGLE	T	Ich Auto Range
ICHOFFSETENABLE	TOGGLE	F	Ich Offset Enable
ICHOFFSET	QUANT	0	Ich Offset (V)
ICHFILTER	IQUANT	1	Ich Filter
VCHRANGE	IQUANT	2	Vch Range
VCHRANGEMODE	TOGGLE	T	Vch Auto Range
VCHOFFSETENABLE	TOGGLE	F	Vch Offset Enable
VCHOFFSET	QUANT	0	Vch Offset (V)
VCHFILTER	IQUANT	1	Vch Filter
IERANGELOWERLIMIT	IQUANT	9	I/E Range Lower Limit
IERANGEMODE	TOGGLE	F	I/E AutoRange
IERANGE	IQUANT	9	I/E Range
ACHSELECT	IQUANT	1	Ach Select
ACHRANGE	IQUANT	2	Ach Range
ACHOFFSETENABLE	TOGGLE	F	Ach Offset Enable
ACHOFFSET	QUANT	0	Ach Offset (V)
ACHFILTER	IQUANT	1	Ach Filter
CABLEID	IQUANT	14	Cable ID
DCCALDATE	LABEL	5-7-2017	DC Calibration Date
ACCALDATE	LABEL	12/3/2015	AC Calibration Date
FRAMEWORKVERSION	QUANT	7.01	Framework Version
INSTRUMENTVERSION	LABEL	4.00	Instrument Version
CURVE	TABLE	163
	Pt	T	Vf	Im	Vu	Pwr	Sig	Ach	Temp	IERange	Over
	#	s	V	A	V	W	V	V	deg C	#	bits
	0	0.013333	5.96143E-001	-2.79043E-004	0.00000E+000	-1.66349E-004	-1.68088E-001	5.96415E-001	3.57830E+000	9	...........
	1	0.026667	5.70959E-001	-2.78606E-004	0.00000E+000	-1.59073E-004	-1.68088E-001	5.71218E-001	3.57830E+000	9	...........
	2	0.04	5.48550E-001	-2.78821E-004	0.00000E+000	-1.52947E-004	-1.68088E-001	5.48796E-001	3.57830E+000	9	...........
	3	0.053333	5.28300E-001	-2.78931E-004	0.00000E+000	-1.47359E-004	-1.68088E-001	5.28547E-001	3.57830E+000	9	...........
	4	0.066667	5.09807E-001	-2.78518E-004	0.00000E+000	-1.41990E-004	-1.68088E-001	5.10033E-001	3.57830E+000	9	...........
	5	0.08	4.92777E-001	-2.79430E-004	0.00000E+000	-1.37697E-004	-1.68088E-001	4.93003E-001	3.57830E+000	9	...........
	6	0.093333	4.77340E-001	-2.80162E-004	0.00000E+000	-1.33732E-004	-1.68088E-001	4.77472E-001	3.57830E+000	9	...........
	7	0.106667	4.62787E-001	-2.78319E-004	0.00000E+000	-1.28802E-004	-1.68088E-001	4.62893E-001	3.57830E+000	9	...........
	8	0.12	4.49203E-001	-2.78301E-004	0.00000E+000	-1.25014E-004	-1.68088E-001	4.49309E-001	3.57830E+000	9	...........
	9	0.133333	4.36501E-001	-2.78153E-004	0.00000E+000	-1.21414E-004	-1.68088E-001	4.36602E-001	3.57830E+000	9	...........
	10	0.146667	4.24605E-001	-2.79357E-004	0.00000E+000	-1.18616E-004	-1.68088E-001	4.24714E-001	3.57830E+000	9	...........
	11	0.16	4.13453E-001	-2.79160E-004	0.00000E+000	-1.15420E-004	-1.68088E-001	4.13552E-001	3.57830E+000	9	...........
	12	0.173333	4.02973E-001	-2.79022E-004	0.00000E+000	-1.12438E-004	-1.68088E-001	4.03066E-001	3.57830E+000	9	...........
	13	0.186667	3.93092E-001	-2.79075E-004	0.00000E+000	-1.09702E-004	-1.68088E-001	3.93180E-001	3.57830E+000	9	...........
	14	0.2	3.83810E-001	-2.79136E-004	0.00000E+000	-1.07135E-004	-1.68088E-001	3.83894E-001	3.57830E+000	9	...........
	15	0.213333	3.75028E-001	-2.79251E-004	0.00000E+000	-1.04727E-004	-1.68088E-001	3.75111E-001	3.57830E+000	9	...........
	16	0.226667	3.66733E-001	-2.79285E-004	0.00000E+000	-1.02423E-004	-1.68088E-001	3.66815E-001	3.57830E+000	9	...........
	17	0.24	3.58803E-001	-2.79565E-004	0.00000E+000	-1.00309E-004	-1.68088E-001	3.58887E-001	3.57830E+000	9	...........
	18	0.253333	3.51293E-001	-2.79153E-004	0.00000E+000	-9.80646E-005	-1.68088E-001	3.51375E-001	3.57830E+000	9	...........
	19	0.266667	3.44118E-001	-2.78830E-004	0.00000E+000	-9.59504E-005	-1.68088E-001	3.44205E-001	3.57830E+000	9	...........
	20	0.28	3.37296E-001	-2.78928E-004	0.00000E+000	-9.40812E-005	-1.68088E-001	3.37375E-001	3.57830E+000	9	...........
	21	0.293333	3.30811E-001	-2.78302E-004	0.00000E+000	-9.20653E-005	-1.68088E-001	3.30890E-001	3.57795E+000	9	...........
	22	0.306667	3.24596E-001	-2.78509E-004	0.00000E+000	-9.04031E-005	-1.68088E-001	3.24671E-001	3.57790E+000	9	...........
	23	0.32	3.18609E-001	-2.78379E-004	0.00000E+000	-8.86941E-005	-1.68088E-001	3.18687E-001	3.57790E+000	9	...........
	24	0.333333	3.12880E-001	-2.78215E-004	0.00000E+000	-8.70480E-005	-1.68088E-001	3.12953E-001	3.57790E+000	9	...........
	25	0.346667	3.07389E-001	-2.78177E-004	0.00000E+000	-8.55085E-005	-1.68088E-001	3.07463E-001	3.57790E+000	9	...........
	26	0.36	3.02155E-001	-2.79646E-004	0.00000E+000	-8.44966E-005	-1.68088E-001	3.02226E-001	3.57790E+000	9	...........
	27	0.373333	2.97050E-001	-2.79637E-004	0.00000E+000	-8.30662E-005	-1.68088E-001	2.97128E-001	3.57790E+000	9	...........
	28	0.386667	2.92151E-001	-2.78815E-004	0.00000E+000	-8.14558E-005	-1.68088E-001	2.92219E-001	3.57790E+000	9	...........
	29	0.4	2.87383E-001	-2.78750E-004	0.00000E+000	-8.01080E-005	-1.68088E-001	2.87453E-001	3.57790E+000	9	...........
	30	0.413333	2.82766E-001	-2.78777E-004	0.00000E+000	-7.88286E-005	-1.68088E-001	2.82831E-001	3.57790E+000	9	...........
	31	0.426667	2.78296E-001	-2.78987E-004	0.00000E+000	-7.76410E-005	-1.68088E-001	2.78364E-001	3.57790E+000	9	...........
	32	0.44	2.73967E-001	-2.79172E-004	0.00000E+000	-7.64840E-005	-1.68088E-001	2.74036E-001	3.57790E+000	9	...........
	33	0.453333	2.69733E-001	-2.78450E-004	0.00000E+000	-7.51070E-005	-1.68088E-001	2.69799E-001	3.57790E+000	9	...........
	34	0.466667	2.65660E-001	-2.78896E-004	0.00000E+000	-7.40914E-005	-1.68088E-001	2.65727E-001	3.57790E+000	9	...........
	35	0.48	2.61694E-001	-2.79638E-004	0.00000E+000	-7.31794E-005	-1.68088E-001	2.61763E-001	3.57790E+000	9	...........
	36	0.493333	2.57839E-001	-2.78675E-004	0.00000E+000	-7.18534E-005	-1.68088E-001	2.57904E-001	3.57790E+000	9	...........
	37	0.506667	2.54041E-001	-2.78993E-004	0.00000E+000	-7.08755E-005	-1.68088E-001	2.54103E-001	3.57790E+000	9	...........
	38	0.52	2.50357E-001	-2.78463E-004	0.00000E+000	-6.97153E-005	-1.68088E-001	2.50420E-001	3.57790E+000	9	...........
	39	0.533333	2.46806E-001	-2.79123E-004	0.00000E+000	-6.88892E-005	-1.68088E-001	2.46868E-001	3.57790E+000	9	...........
	40	0.546667	2.43311E-001	-2.78412E-004	0.00000E+000	-6.77407E-005	-1.68088E-001	2.43373E-001	3.57790E+000	9	...........
	41	0.56	2.39840E-001	-2.78847E-004	0.00000E+000	-6.68787E-005	-1.68088E-001	2.39898E-001	3.57790E+000	9	...........
	42	0.573333	2.36472E-001	-2.78583E-004	0.00000E+000	-6.58772E-005	-1.68088E-001	2.36527E-001	3.57790E+000	9	...........
	43	0.586667	2.33168E-001	-2.78426E-004	0.00000E+000	-6.49200E-005	-1.68088E-001	2.33218E-001	3.57790E+000	9	...........
	44	0.6	2.29945E-001	-2.79979E-004	0.00000E+000	-6.43798E-005	-1.68088E-001	2.29996E-001	3.57790E+000	9	...........
	45	0.613333	2.26763E-001	-2.78639E-004	0.00000E+000	-6.31852E-005	-1.68088E-001	2.26819E-001	3.57790E+000	9	...........
	46	0.626667	2.23620E-001	-2.78947E-004	0.00000E+000	-6.23780E-005	-1.68088E-001	2.23673E-001	3.57790E+000	9	...........
	47	0.64	2.20528E-001	-2.79329E-004	0.00000E+000	-6.15999E-005	-1.68088E-001	2.20581E-001	3.57790E+000	9	...........
	48	0.653333	2.17542E-001	-2.79445E-004	0.00000E+000	-6.07910E-005	-1.68088E-001	2.17592E-001	3.57790E+000	9	...........
	49	0.666667	2.14577E-001	-2.79800E-004	0.00000E+000	-6.00388E-005	-1.68088E-001	2.14626E-001	3.57790E+000	9	...........
	50	0.68	2.11647E-001	-2.79322E-004	0.00000E+000	-5.91177E-005	-1.68088E-001	2.11699E-001	3.57790E+000	9	...........
	51	0.693333	2.08737E-001	-2.79309E-004	0.00000E+000	-5.83021E-005	-1.68088E-001	2.08791E-001	3.57790E+000	9	...........
	52	0.706667	2.05895E-001	-2.78746E-004	0.00000E+000	-5.73923E-005	-1.68088E-001	2.05941E-001	3.57790E+000	9	...........
	53	0.72	2.03119E-001	-2.78824E-004	0.00000E+000	-5.66345E-005	-1.68088E-001	2.03171E-001	3.57790E+000	9	...........
	54	0.733333	2.00404E-001	-2.79437E-004	0.00000E+000	-5.60002E-005	-1.68088E-001	2.00455E-001	3.57790E+000	9	...........
	55	0.746667	1.97737E-001	-2.79086E-004	0.00000E+000	-5.51856E-005	-1.68088E-001	1.97784E-001	3.57790E+000	9	...........
	56	0.76	1.95056E-001	-2.78122E-004	0.00000E+000	-5.42492E-005	-1.68088E-001	1.95102E-001	3.57790E+000	9	...........
	57	0.773333	1.92376E-001	-2.79256E-004	0.00000E+000	-5.37221E-005	-1.68088E-001	1.92423E-001	3.57790E+000	9	...........
	58	0.786667	1.89807E-001	-2.78706E-004	0.00000E+000	-5.29004E-005	-1.68088E-001	1.89848E-001	3.57790E+000	9	...........
	59	0.8	1.87242E-001	-2.78955E-004	0.00000E+000	-5.22322E-005	-1.68088E-001	1.87287E-001	3.57790E+000	9	...........
	60	0.813333	1.84709E-001	-2.78697E-004	0.00000E+000	-5.14778E-005	-1.68088E-001	1.84754E-001	3.57790E+000	9	...........
	61	0.826667	1.82232E-001	-2.79098E-004	0.00000E+000	-5.08606E-005	-1.68088E-001	1.82273E-001	3.57790E+000	9	...........
	62	0.84	1.79745E-001	-2.79436E-004	0.00000E+000	-5.02271E-005	-1.68088E-001	1.79789E-001	3.57790E+000	9	...........
	63	0.853333	1.77290E-001	-2.78935E-004	0.00000E+000	-4.94525E-005	-1.68088E-001	1.77328E-001	3.57790E+000	9	...........
	64	0.866667	1.74861E-001	-2.79062E-004	0.00000E+000	-4.87971E-005	-1.68088E-001	1.74908E-001	3.57790E+000	9	...........
	65	0.88	1.72499E-001	-2.79097E-004	0.00000E+000	-4.81439E-005	-1.68088E-001	1.72548E-001	3.57790E+000	9	...........
	66	0.893333	1.70150E-001	-2.78710E-004	0.00000E+000	-4.74226E-005	-1.68088E-001	1.70191E-001	3.57790E+000	9	...........
	67	0.906667	1.67776E-001	-2.78040E-004	0.00000E+000	-4.66484E-005	-1.68088E-001	1.67815E-001	3.57790E+000	9	...........
	68	0.92	1.65405E-001	-2.79211E-004	0.00000E+000	-4.61830E-005	-1.68088E-001	1.65442E-001	3.57790E+000	9	...........
	69	0.933333	1.63081E-001	-2.79422E-004	0.00000E+000	-4.55684E-005	-1.68088E-001	1.63120E-001	3.57790E+000	9	...........
	70	0.946667	1.60777E-001	-2.78970E-004	0.00000E+000	-4.48519E-005	-1.68088E-001	1.60810E-001	3.57790E+000	9	...........
	71	0.96	1.58533E-001	-2.78965E-004	0.00000E+000	-4.42251E-005	-1.68088E-001	1.58568E-001	3.57790E+000	9	...........
	72	0.97333	1.56330E-001	-2.79003E-004	0.00000E+000	-4.36166E-005	-1.68088E-001	1.56359E-001	3.57790E+000	9	...........
	73	0.98667	1.54147E-001	-2.78860E-004	0.00000E+000	-4.29854E-005	-1.68088E-001	1.54175E-001	3.57790E+000	9	...........
	74	1	1.51984E-001	-2.79350E-004	0.00000E+000	-4.24566E-005	-1.68088E-001	1.52011E-001	3.57790E+000	9	...........
	75	1.01333	1.49839E-001	-2.79782E-004	0.00000E+000	-4.19223E-005	-1.68088E-001	1.49868E-001	3.57790E+000	9	...........
	76	1.02667	1.47745E-001	-2.79381E-004	0.00000E+000	-4.12771E-005	-1.68088E-001	1.47778E-001	3.57790E+000	9	...........
	77	1.04	1.45634E-001	-2.79414E-004	0.00000E+000	-4.06921E-005	-1.68088E-001	1.45657E-001	3.57790E+000	9	...........
	78	1.05333	1.43483E-001	-2.78916E-004	0.00000E+000	-4.00197E-005	-1.68088E-001	1.43516E-001	3.57790E+000	9	...........
	79	1.06667	1.41348E-001	-2.78148E-004	0.00000E+000	-3.93157E-005	-1.68088E-001	1.41382E-001	3.57790E+000	9	...........
	80	1.08	1.39284E-001	-2.79055E-004	0.00000E+000	-3.88679E-005	-1.68088E-001	1.39317E-001	3.57790E+000	9	...........
	81	1.09333	1.37194E-001	-2.79267E-004	0.00000E+000	-3.83137E-005	-1.68088E-001	1.37222E-001	3.57790E+000	9	...........
	82	1.10667	1.35135E-001	-2.78921E-004	0.00000E+000	-3.76918E-005	-1.68088E-001	1.35165E-001	3.57790E+000	9	...........
	83	1.12	1.33069E-001	-2.79486E-004	0.00000E+000	-3.71909E-005	-1.68088E-001	1.33097E-001	3.57790E+000	9	...........
	84	1.13333	1.31025E-001	-2.78852E-004	0.00000E+000	-3.65365E-005	-1.68088E-001	1.31050E-001	3.57790E+000	9	...........
	85	1.14667	1.29037E-001	-2.78793E-004	0.00000E+000	-3.59747E-005	-1.68088E-001	1.29062E-001	3.57790E+000	9	...........
	86	1.16	1.27017E-001	-2.79265E-004	0.00000E+000	-3.54714E-005	-1.68088E-001	1.27047E-001	3.57790E+000	9	...........
	87	1.17333	1.25016E-001	-2.78753E-004	0.00000E+000	-3.48487E-005	-1.68088E-001	1.25043E-001	3.57790E+000	9	...........
	88	1.18667	1.23008E-001	-2.78445E-004	0.00000E+000	-3.42511E-005	-1.68088E-001	1.23034E-001	3.57790E+000	9	...........
	89	1.2	1.21029E-001	-2.79158E-004	0.00000E+000	-3.37863E-005	-1.68088E-001	1.21060E-001	3.57790E+000	9	...........
	90	1.21333	1.19033E-001	-2.78579E-004	0.00000E+000	-3.31601E-005	-1.68088E-001	1.19060E-001	3.57790E+000	9	...........
	91	1.22667	1.17050E-001	-2.79136E-004	0.00000E+000	-3.26729E-005	-1.68088E-001	1.17076E-001	3.57790E+000	9	...........
	92	1.24	1.15103E-001	-2.78716E-004	0.00000E+000	-3.20811E-005	-1.68088E-001	1.15123E-001	3.57790E+000	9	...........
	93	1.25333	1.13151E-001	-2.78116E-004	0.00000E+000	-3.14691E-005	-1.68088E-001	1.13177E-001	3.57790E+000	9	...........
	94	1.26667	1.11217E-001	-2.78076E-004	0.00000E+000	-3.09269E-005	-1.68088E-001	1.11242E-001	3.57790E+000	9	...........
	95	1.28	1.09310E-001	-2.78698E-004	0.00000E+000	-3.04646E-005	-1.68088E-001	1.09330E-001	3.57790E+000	9	...........
	96	1.29333	1.07413E-001	-2.78868E-004	0.00000E+000	-2.99540E-005	-1.68088E-001	1.07438E-001	3.57843E+000	9	...........
	97	1.30667	1.05562E-001	-2.79319E-004	0.00000E+000	-2.94855E-005	-1.68088E-001	1.05586E-001	3.57850E+000	9	...........
	98	1.32	1.03726E-001	-2.78695E-004	0.00000E+000	-2.89078E-005	-1.68088E-001	1.03744E-001	3.57850E+000	9	...........
	99	1.33333	1.01872E-001	-2.79345E-004	0.00000E+000	-2.84574E-005	-1.68088E-001	1.01890E-001	3.57850E+000	9	...........
	100	1.34667	9.99963E-002	-2.78969E-004	0.00000E+000	-2.78958E-005	-1.68088E-001	1.00017E-001	3.57850E+000	9	...........
	101	1.36	9.81258E-002	-2.78978E-004	0.00000E+000	-2.73750E-005	-1.68088E-001	9.81483E-002	3.57850E+000	9	...........
	102	1.37333	9.62803E-002	-2.78428E-004	0.00000E+000	-2.68071E-005	-1.68088E-001	9.63027E-002	3.57850E+000	9	...........
	103	1.38667	9.44631E-002	-2.79003E-004	0.00000E+000	-2.63555E-005	-1.68088E-001	9.44828E-002	3.57850E+000	9	...........
	104	1.4	9.26027E-002	-2.79131E-004	0.00000E+000	-2.58483E-005	-1.68088E-001	9.26179E-002	3.57850E+000	9	...........
	105	1.41333	9.07956E-002	-2.79095E-004	0.00000E+000	-2.53406E-005	-1.68088E-001	9.08120E-002	3.57850E+000	9	...........
	106	1.42667	8.89685E-002	-2.79879E-004	0.00000E+000	-2.49005E-005	-1.68088E-001	8.89827E-002	3.57850E+000	9	...........
	107	1.44	8.71965E-002	-2.78472E-004	0.00000E+000	-2.42817E-005	-1.68088E-001	8.72126E-002	3.57850E+000	9	...........
	108	1.45333	8.53900E-002	-2.79003E-004	0.00000E+000	-2.38241E-005	-1.68088E-001	8.54042E-002	3.57850E+000	9	...........
	109	1.46667	8.35546E-002	-2.79257E-004	0.00000E+000	-2.33332E-005	-1.68088E-001	8.35756E-002	3.57850E+000	9	...........
	110	1.48	8.17781E-002	-2.78720E-004	0.00000E+000	-2.27932E-005	-1.68088E-001	8.17873E-002	3.57850E+000	9	...........
	111	1.49333	7.99650E-002	-2.79358E-004	0.00000E+000	-2.23389E-005	-1.68088E-001	7.99764E-002	3.57850E+000	9	...........
	112	1.50667	7.82204E-002	-2.78757E-004	0.00000E+000	-2.18045E-005	-1.68088E-001	7.82348E-002	3.57850E+000	9	...........
	113	1.52	7.65014E-002	-2.79072E-004	0.00000E+000	-2.13494E-005	-1.68088E-001	7.65105E-002	3.57850E+000	9	...........
	114	1.53333	7.47865E-002	-2.78642E-004	0.00000E+000	-2.08386E-005	-1.68088E-001	7.47957E-002	3.57850E+000	9	...........
	115	1.54667	7.30790E-002	-2.79250E-004	0.00000E+000	-2.04073E-005	-1.68088E-001	7.30915E-002	3.57850E+000	9	...........
	116	1.56	7.13419E-002	-2.79680E-004	0.00000E+000	-1.99529E-005	-1.68088E-001	7.13515E-002	3.57850E+000	9	...........
	117	1.57333	6.95860E-002	-2.79845E-004	0.00000E+000	-1.94733E-005	-1.68088E-001	6.95934E-002	3.57850E+000	9	...........
	118	1.58667	6.79060E-002	-2.78335E-004	0.00000E+000	-1.89006E-005	-1.68088E-001	6.79192E-002	3.57850E+000	9	...........
	119	1.6	6.62336E-002	-2.78103E-004	0.00000E+000	-1.84198E-005	-1.68088E-001	6.62441E-002	3.57850E+000	9	...........
	120	1.61333	6.45519E-002	-2.78681E-004	0.00000E+000	-1.79894E-005	-1.68088E-001	6.45572E-002	3.57850E+000	9	...........
	121	1.62667	6.29040E-002	-2.78656E-004	0.00000E+000	-1.75286E-005	-1.68088E-001	6.29061E-002	3.57850E+000	9	...........
	122	1.64	6.12792E-002	-2.79118E-004	0.00000E+000	-1.71041E-005	-1.68088E-001	6.12919E-002	3.57850E+000	9	...........
	123	1.65333	5.96478E-002	-2.79325E-004	0.00000E+000	-1.66611E-005	-1.68088E-001	5.96584E-002	3.57850E+000	9	...........
	124	1.66667	5.80184E-002	-2.79015E-004	0.00000E+000	-1.61880E-005	-1.68088E-001	5.80284E-002	3.57850E+000	9	...........
	125	1.68	5.63801E-002	-2.78548E-004	0.00000E+000	-1.57045E-005	-1.68088E-001	5.63952E-002	3.57850E+000	9	...........
	126	1.69333	5.47590E-002	-2.79251E-004	0.00000E+000	-1.52915E-005	-1.68088E-001	5.47650E-002	3.57850E+000	9	...........
	127	1.70667	5.31220E-002	-2.78986E-004	0.00000E+000	-1.48203E-005	-1.68088E-001	5.31353E-002	3.57850E+000	9	...........
	128	1.72	5.14569E-002	-2.79104E-004	0.00000E+000	-1.43618E-005	-1.68088E-001	5.14623E-002	3.57850E+000	9	...........
	129	1.73333	4.97885E-002	-2.78817E-004	0.00000E+000	-1.38819E-005	-1.68088E-001	4.97947E-002	3.57850E+000	9	...........
	130	1.74667	4.82309E-002	-2.79388E-004	0.00000E+000	-1.34751E-005	-1.68088E-001	4.82361E-002	3.57850E+000	9	...........
	131	1.76	4.66423E-002	-2.79503E-004	0.00000E+000	-1.30367E-005	-1.68088E-001	4.66531E-002	3.57850E+000	9	...........
	132	1.77333	4.50601E-002	-2.78900E-004	0.00000E+000	-1.25673E-005	-1.68088E-001	4.50682E-002	3.57850E+000	9	...........
	133	1.78667	4.34516E-002	-2.78245E-004	0.00000E+000	-1.20902E-005	-1.68088E-001	4.34586E-002	3.57850E+000	9	...........
	134	1.8	4.18763E-002	-2.78658E-004	0.00000E+000	-1.16692E-005	-1.68088E-001	4.18906E-002	3.57850E+000	9	...........
	135	1.81333	4.02878E-002	-2.78956E-004	0.00000E+000	-1.12385E-005	-1.68088E-001	4.02858E-002	3.57850E+000	9	...........
	136	1.82667	3.86737E-002	-2.79314E-004	0.00000E+000	-1.08021E-005	-1.68088E-001	3.86796E-002	3.57850E+000	9	...........
	137	1.84	3.70908E-002	-2.78983E-004	0.00000E+000	-1.03477E-005	-1.68088E-001	3.70955E-002	3.57850E+000	9	...........
	138	1.85333	3.54912E-002	-2.79782E-004	0.00000E+000	-9.92980E-006	-1.68088E-001	3.54938E-002	3.57850E+000	9	...........
	139	1.86667	3.38973E-002	-2.78624E-004	0.00000E+000	-9.44460E-006	-1.68088E-001	3.39005E-002	3.57850E+000	9	...........
	140	1.88	3.23195E-002	-2.79216E-004	0.00000E+000	-9.02412E-006	-1.68088E-001	3.23192E-002	3.57850E+000	9	...........
	141	1.89333	3.07633E-002	-2.78354E-004	0.00000E+000	-8.56310E-006	-1.68088E-001	3.07605E-002	3.57850E+000	9	...........
	142	1.90667	2.92153E-002	-2.79110E-004	0.00000E+000	-8.15429E-006	-1.68088E-001	2.92138E-002	3.57850E+000	9	...........
	143	1.92	2.76909E-002	-2.79256E-004	0.00000E+000	-7.73286E-006	-1.68088E-001	2.76894E-002	3.57850E+000	9	...........
	144	1.93333	2.61682E-002	-2.78768E-004	0.00000E+000	-7.29485E-006	-1.68088E-001	2.61670E-002	3.57850E+000	9	...........
	145	1.94667	2.46678E-002	-2.78655E-004	0.00000E+000	-6.87379E-006	-1.68088E-001	2.46664E-002	3.57850E+000	9	...........
	146	1.96	2.31843E-002	-2.78078E-004	0.00000E+000	-6.44705E-006	-1.68088E-001	2.31751E-002	3.57850E+000	9	...........
	147	1.97333	2.16245E-002	-2.77880E-004	0.00000E+000	-6.00902E-006	-1.68088E-001	2.16152E-002	3.57850E+000	9	...........
	148	1.98667	2.01097E-002	-2.78275E-004	0.00000E+000	-5.59603E-006	-1.68088E-001	2.01056E-002	3.57850E+000	9	...........
	149	2	1.86224E-002	-2.79310E-004	0.00000E+000	-5.20143E-006	-1.68088E-001	1.86157E-002	3.57850E+000	9	...........
	150	2.01333	1.70748E-002	-2.79082E-004	0.00000E+000	-4.76528E-006	-1.68088E-001	1.70687E-002	3.57850E+000	9	...........
	151	2.02667	1.55447E-002	-2.79433E-004	0.00000E+000	-4.34372E-006	-1.68088E-001	1.55338E-002	3.57850E+000	9	...........
	152	2.04	1.39840E-002	-2.79045E-004	0.00000E+000	-3.90215E-006	-1.68088E-001	1.39725E-002	3.57850E+000	9	...........
	153	2.05333	1.24895E-002	-2.79211E-004	0.00000E+000	-3.48721E-006	-1.68088E-001	1.24801E-002	3.57850E+000	9	...........
	154	2.06667	1.10157E-002	-2.78502E-004	0.00000E+000	-3.06791E-006	-1.68088E-001	1.10000E-002	3.57850E+000	9	...........
	155	2.08	9.54373E-003	-2.78427E-004	0.00000E+000	-2.65723E-006	-1.68088E-001	9.53138E-003	3.57850E+000	9	...........
	156	2.09333	8.01804E-003	-2.78571E-004	0.00000E+000	-2.23359E-006	-1.68088E-001	8.00189E-003	3.57850E+000	9	...........
	157	2.10667	6.54743E-003	-2.78399E-004	0.00000E+000	-1.82280E-006	-1.68088E-001	6.52984E-003	3.57850E+000	9	...........
	158	2.12	5.10509E-003	-2.78084E-004	0.00000E+000	-1.41965E-006	-1.68088E-001	5.09040E-003	3.57850E+000	9	...........
	159	2.13333	3.66551E-003	-2.79401E-004	0.00000E+000	-1.02415E-006	-1.68088E-001	3.64655E-003	3.57850E+000	9	...........
	160	2.14667	2.19740E-003	-2.78753E-004	0.00000E+000	-6.12532E-007	-1.68088E-001	2.18060E-003	3.57850E+000	9	...........
	161	2.16	7.21110E-004	-2.78710E-004	0.00000E+000	-2.00981E-007	-1.68088E-001	7.01200E-004	3.57850E+000	9	...........
	162	2.16167	-6.22029E-005	-2.78039E-004	0.00000E+000	1.72949E-008	-1.68088E-001	-8.08828E-005	3.57850E+000	9	...........
STARTTIMEOFFSET	QUANT	32.25	Start Time Offset (s)
