EXPLAIN
TAG	PWR800_DISCHARGE
TITLE	LABEL	PWR Cyclic Charge Discharge (Cell) - Discharge Step	Test &Identifier
DATE	LABEL	7-7-2017	Date
TIME	LABEL	15:56:37	Time
NOTES	NOTES	3	&Notes...
	supercap test cell
	2.8mg
	6M KOH
PSTAT	PSTAT	IFC5000-01520	Potentiostat
CAPACITY	QUANT	1.00000E-003	Capacity (A-hr)
CELLTYPE	SELECTOR	1	&Cell Type
WORKINGCONNECTION	SELECTOR	0	&Working Lead
MAXDISCHARGETIME	VARIABLEANDUNITS	1.00000E+002	s	1.00000E+002	second(s)	Max &Discharge Time
DISCHARGEMODE	MULTIPARAM	0	2.80000E-004	&Discharge Mode	Constant Current	Amp(s)
SAMPLETIME	QUANT	1.00000E-002	Sa&mple Period (s)
DISCHARGESTOPAT1	MULTIPARAM	3	0.00000E+000	Discharge Stop At &1	Voltage < Limit	V
DISCHARGESTOPAT2	MULTIPARAM	0	0.00000E+000	Discharge Stop At &2	None	N/A
AESBHCSELECTOR	TOGGLE	F	Save Both Half Cells
IRCOMP	TOGGLE	F	IR &Measure
EOC	QUANT	0	Open Circuit (V)
SEQUENCER	TOGGLE	TRUE	Run as Sequence
PSTATMODEL	IQUANT	53	Pstat Model
PSTATSECTION	LABEL	IFC5000-01520	Pstat Section
PSTATSERIALNO	LABEL	01520	Pstat Serial Number
CTRLMODE	IQUANT	0	Control Mode
ELECTROMETER	IQUANT	1	RE=0 or CS=1
IESTAB	IQUANT	0	I/E Stability
CASPEED	IQUANT	4	Control Amp Speed
CONVENTION	IQUANT	1	Current Convention
ICHRANGE	IQUANT	2	Ich Range
ICHRANGEMODE	TOGGLE	T	Ich Auto Range
ICHOFFSETENABLE	TOGGLE	F	Ich Offset Enable
ICHOFFSET	QUANT	0	Ich Offset (V)
ICHFILTER	IQUANT	1	Ich Filter
VCHRANGE	IQUANT	2	Vch Range
VCHRANGEMODE	TOGGLE	T	Vch Auto Range
VCHOFFSETENABLE	TOGGLE	F	Vch Offset Enable
VCHOFFSET	QUANT	0	Vch Offset (V)
VCHFILTER	IQUANT	1	Vch Filter
IERANGELOWERLIMIT	IQUANT	9	I/E Range Lower Limit
IERANGEMODE	TOGGLE	F	I/E AutoRange
IERANGE	IQUANT	9	I/E Range
ACHSELECT	IQUANT	1	Ach Select
ACHRANGE	IQUANT	2	Ach Range
ACHOFFSETENABLE	TOGGLE	F	Ach Offset Enable
ACHOFFSET	QUANT	0	Ach Offset (V)
ACHFILTER	IQUANT	1	Ach Filter
CABLEID	IQUANT	14	Cable ID
DCCALDATE	LABEL	5-7-2017	DC Calibration Date
ACCALDATE	LABEL	12/3/2015	AC Calibration Date
FRAMEWORKVERSION	QUANT	7.01	Framework Version
INSTRUMENTVERSION	LABEL	4.00	Instrument Version
CURVE	TABLE	76
	Pt	T	Vf	Im	Vu	Pwr	Sig	Ach	Temp	IERange	Over
	#	s	V	A	V	W	V	V	deg C	#	bits
	0	0.013333	5.33312E-001	-2.78682E-004	0.00000E+000	-1.48625E-004	-1.68088E-001	5.33555E-001	3.57840E+000	9	...........
	1	0.026667	5.01624E-001	-2.79076E-004	0.00000E+000	-1.39991E-004	-1.68088E-001	5.01875E-001	3.57840E+000	9	...........
	2	0.04	4.73054E-001	-2.78084E-004	0.00000E+000	-1.31549E-004	-1.68088E-001	4.73153E-001	3.57840E+000	9	...........
	3	0.053333	4.46468E-001	-2.79295E-004	0.00000E+000	-1.24696E-004	-1.68088E-001	4.46577E-001	3.57840E+000	9	...........
	4	0.066667	4.21781E-001	-2.78659E-004	0.00000E+000	-1.17533E-004	-1.68088E-001	4.21877E-001	3.57840E+000	9	...........
	5	0.08	3.98839E-001	-2.78946E-004	0.00000E+000	-1.11254E-004	-1.68088E-001	3.98929E-001	3.57840E+000	9	...........
	6	0.093333	3.77507E-001	-2.79085E-004	0.00000E+000	-1.05357E-004	-1.68088E-001	3.77591E-001	3.57840E+000	9	...........
	7	0.106667	3.57689E-001	-2.79034E-004	0.00000E+000	-9.98074E-005	-1.68088E-001	3.57768E-001	3.57840E+000	9	...........
	8	0.12	3.39278E-001	-2.77563E-004	0.00000E+000	-9.41712E-005	-1.68088E-001	3.39352E-001	3.57840E+000	9	...........
	9	0.133333	3.22146E-001	-2.78772E-004	0.00000E+000	-8.98053E-005	-1.68088E-001	3.22218E-001	3.57840E+000	9	...........
	10	0.146667	3.06259E-001	-2.79567E-004	0.00000E+000	-8.56198E-005	-1.68088E-001	3.06331E-001	3.57840E+000	9	...........
	11	0.16	2.91525E-001	-2.78340E-004	0.00000E+000	-8.11431E-005	-1.68088E-001	2.91596E-001	3.57840E+000	9	...........
	12	0.173333	2.77846E-001	-2.79183E-004	0.00000E+000	-7.75701E-005	-1.68088E-001	2.77913E-001	3.57840E+000	9	...........
	13	0.186667	2.65110E-001	-2.78340E-004	0.00000E+000	-7.37908E-005	-1.68088E-001	2.65176E-001	3.57840E+000	9	...........
	14	0.2	2.53244E-001	-2.78190E-004	0.00000E+000	-7.04501E-005	-1.68088E-001	2.53311E-001	3.57840E+000	9	...........
	15	0.213333	2.42220E-001	-2.78895E-004	0.00000E+000	-6.75540E-005	-1.68088E-001	2.42276E-001	3.57840E+000	9	...........
	16	0.226667	2.31955E-001	-2.78782E-004	0.00000E+000	-6.46649E-005	-1.68088E-001	2.32002E-001	3.57840E+000	9	...........
	17	0.24	2.22315E-001	-2.79292E-004	0.00000E+000	-6.20907E-005	-1.68088E-001	2.22370E-001	3.57840E+000	9	...........
	18	0.253333	2.13242E-001	-2.78377E-004	0.00000E+000	-5.93616E-005	-1.68088E-001	2.13288E-001	3.57840E+000	9	...........
	19	0.266667	2.04759E-001	-2.79018E-004	0.00000E+000	-5.71314E-005	-1.68088E-001	2.04802E-001	3.57840E+000	9	...........
	20	0.28	1.96785E-001	-2.78770E-004	0.00000E+000	-5.48577E-005	-1.68088E-001	1.96829E-001	3.57840E+000	9	...........
	21	0.293333	1.89284E-001	-2.79409E-004	0.00000E+000	-5.28878E-005	-1.68088E-001	1.89330E-001	3.57840E+000	9	...........
	22	0.306667	1.82194E-001	-2.77394E-004	0.00000E+000	-5.05396E-005	-1.68088E-001	1.82235E-001	3.57840E+000	9	...........
	23	0.32	1.75487E-001	-2.79537E-004	0.00000E+000	-4.90550E-005	-1.68088E-001	1.75529E-001	3.57840E+000	9	...........
	24	0.333333	1.69122E-001	-2.77885E-004	0.00000E+000	-4.69964E-005	-1.68088E-001	1.69160E-001	3.57840E+000	9	...........
	25	0.346667	1.63016E-001	-2.78413E-004	0.00000E+000	-4.53858E-005	-1.68088E-001	1.63051E-001	3.57840E+000	9	...........
	26	0.36	1.57191E-001	-2.78838E-004	0.00000E+000	-4.38308E-005	-1.68088E-001	1.57227E-001	3.57840E+000	9	...........
	27	0.373333	1.51652E-001	-2.78467E-004	0.00000E+000	-4.22301E-005	-1.68088E-001	1.51687E-001	3.57840E+000	9	...........
	28	0.386667	1.46342E-001	-2.78753E-004	0.00000E+000	-4.07932E-005	-1.68088E-001	1.46368E-001	3.57840E+000	9	...........
	29	0.4	1.41232E-001	-2.79898E-004	0.00000E+000	-3.95306E-005	-1.68088E-001	1.41268E-001	3.57840E+000	9	...........
	30	0.413333	1.36341E-001	-2.78753E-004	0.00000E+000	-3.80055E-005	-1.68088E-001	1.36366E-001	3.57840E+000	9	...........
	31	0.426667	1.31590E-001	-2.78756E-004	0.00000E+000	-3.66815E-005	-1.68088E-001	1.31615E-001	3.57840E+000	9	...........
	32	0.44	1.27065E-001	-2.78164E-004	0.00000E+000	-3.53449E-005	-1.68088E-001	1.27091E-001	3.57840E+000	9	...........
	33	0.453333	1.22690E-001	-2.79091E-004	0.00000E+000	-3.42416E-005	-1.68088E-001	1.22715E-001	3.57840E+000	9	...........
	34	0.466667	1.18447E-001	-2.79231E-004	0.00000E+000	-3.30741E-005	-1.68088E-001	1.18473E-001	3.57840E+000	9	...........
	35	0.48	1.14338E-001	-2.78876E-004	0.00000E+000	-3.18860E-005	-1.68088E-001	1.14362E-001	3.57840E+000	9	...........
	36	0.493333	1.10350E-001	-2.78887E-004	0.00000E+000	-3.07751E-005	-1.68088E-001	1.10380E-001	3.57840E+000	9	...........
	37	0.506667	1.06475E-001	-2.78959E-004	0.00000E+000	-2.97023E-005	-1.68088E-001	1.06503E-001	3.57840E+000	9	...........
	38	0.52	1.02682E-001	-2.78892E-004	0.00000E+000	-2.86370E-005	-1.68088E-001	1.02708E-001	3.57840E+000	9	...........
	39	0.533333	9.89838E-002	-2.79628E-004	0.00000E+000	-2.76787E-005	-1.68088E-001	9.90076E-002	3.57840E+000	9	...........
	40	0.546667	9.53580E-002	-2.79269E-004	0.00000E+000	-2.66305E-005	-1.68088E-001	9.53841E-002	3.57770E+000	9	...........
	41	0.56	9.18181E-002	-2.79058E-004	0.00000E+000	-2.56226E-005	-1.68088E-001	9.18436E-002	3.57760E+000	9	...........
	42	0.573333	8.84075E-002	-2.78957E-004	0.00000E+000	-2.46619E-005	-1.68088E-001	8.84324E-002	3.57760E+000	9	...........
	43	0.586667	8.50795E-002	-2.78846E-004	0.00000E+000	-2.37241E-005	-1.68088E-001	8.51026E-002	3.57760E+000	9	...........
	44	0.6	8.18187E-002	-2.79821E-004	0.00000E+000	-2.28946E-005	-1.68088E-001	8.18380E-002	3.57760E+000	9	...........
	45	0.613333	7.86127E-002	-2.78918E-004	0.00000E+000	-2.19265E-005	-1.68088E-001	7.86267E-002	3.57760E+000	9	...........
	46	0.626667	7.54626E-002	-2.79270E-004	0.00000E+000	-2.10744E-005	-1.68088E-001	7.54776E-002	3.57760E+000	9	...........
	47	0.64	7.23382E-002	-2.79146E-004	0.00000E+000	-2.01929E-005	-1.68088E-001	7.23530E-002	3.57760E+000	9	...........
	48	0.653333	6.93054E-002	-2.78767E-004	0.00000E+000	-1.93200E-005	-1.68088E-001	6.93211E-002	3.57760E+000	9	...........
	49	0.666667	6.62932E-002	-2.80118E-004	0.00000E+000	-1.85699E-005	-1.68088E-001	6.63080E-002	3.57760E+000	9	...........
	50	0.68	6.33328E-002	-2.78696E-004	0.00000E+000	-1.76506E-005	-1.68088E-001	6.33448E-002	3.57760E+000	9	...........
	51	0.693333	6.03829E-002	-2.78891E-004	0.00000E+000	-1.68402E-005	-1.68088E-001	6.03957E-002	3.57760E+000	9	...........
	52	0.706667	5.74986E-002	-2.78727E-004	0.00000E+000	-1.60264E-005	-1.68088E-001	5.75142E-002	3.57760E+000	9	...........
	53	0.72	5.46345E-002	-2.79253E-004	0.00000E+000	-1.52569E-005	-1.68088E-001	5.46403E-002	3.57760E+000	9	...........
	54	0.733333	5.18575E-002	-2.79420E-004	0.00000E+000	-1.44900E-005	-1.68088E-001	5.18677E-002	3.57760E+000	9	...........
	55	0.746667	4.91278E-002	-2.77785E-004	0.00000E+000	-1.36470E-005	-1.68088E-001	4.91335E-002	3.57760E+000	9	...........
	56	0.76	4.64532E-002	-2.79432E-004	0.00000E+000	-1.29805E-005	-1.68088E-001	4.64676E-002	3.57760E+000	9	...........
	57	0.773333	4.38104E-002	-2.78695E-004	0.00000E+000	-1.22097E-005	-1.68088E-001	4.38145E-002	3.57760E+000	9	...........
	58	0.786667	4.11772E-002	-2.79104E-004	0.00000E+000	-1.14927E-005	-1.68088E-001	4.11874E-002	3.57760E+000	9	...........
	59	0.8	3.85728E-002	-2.78700E-004	0.00000E+000	-1.07502E-005	-1.68088E-001	3.85809E-002	3.57760E+000	9	...........
	60	0.813333	3.60172E-002	-2.79854E-004	0.00000E+000	-1.00796E-005	-1.68088E-001	3.60175E-002	3.57760E+000	9	...........
	61	0.826667	3.34711E-002	-2.78798E-004	0.00000E+000	-9.33167E-006	-1.68088E-001	3.34748E-002	3.57760E+000	9	...........
	62	0.84	3.09674E-002	-2.78581E-004	0.00000E+000	-8.62694E-006	-1.68088E-001	3.09633E-002	3.57760E+000	9	...........
	63	0.853333	2.85087E-002	-2.77798E-004	0.00000E+000	-7.91966E-006	-1.68088E-001	2.85051E-002	3.57760E+000	9	...........
	64	0.866667	2.60196E-002	-2.79305E-004	0.00000E+000	-7.26740E-006	-1.68088E-001	2.60125E-002	3.57760E+000	9	...........
	65	0.88	2.35596E-002	-2.79921E-004	0.00000E+000	-6.59483E-006	-1.68088E-001	2.35576E-002	3.57760E+000	9	...........
	66	0.893333	2.11234E-002	-2.79068E-004	0.00000E+000	-5.89486E-006	-1.68088E-001	2.11147E-002	3.57760E+000	9	...........
	67	0.906667	1.87343E-002	-2.78323E-004	0.00000E+000	-5.21417E-006	-1.68088E-001	1.87229E-002	3.57760E+000	9	...........
	68	0.92	1.64207E-002	-2.79352E-004	0.00000E+000	-4.58717E-006	-1.68088E-001	1.64064E-002	3.57760E+000	9	...........
	69	0.933333	1.41307E-002	-2.78597E-004	0.00000E+000	-3.93676E-006	-1.68088E-001	1.41230E-002	3.57760E+000	9	...........
	70	0.946667	1.18504E-002	-2.79930E-004	0.00000E+000	-3.31729E-006	-1.68088E-001	1.18402E-002	3.57760E+000	9	...........
	71	0.96	9.60025E-003	-2.78619E-004	0.00000E+000	-2.67481E-006	-1.68088E-001	9.58732E-003	3.57760E+000	9	...........
	72	0.97333	7.32286E-003	-2.78835E-004	0.00000E+000	-2.04187E-006	-1.68088E-001	7.30724E-003	3.57760E+000	9	...........
	73	0.98667	5.08074E-003	-2.78792E-004	0.00000E+000	-1.41647E-006	-1.68088E-001	5.06314E-003	3.57760E+000	9	...........
	74	1	2.88377E-003	-2.78807E-004	0.00000E+000	-8.04016E-007	-1.68088E-001	2.86656E-003	3.57760E+000	9	...........
	75	1.01333	7.26379E-004	-2.78624E-004	0.00000E+000	-2.02386E-007	-1.68088E-001	7.08270E-004	3.57760E+000	9	...........
STARTTIMEOFFSET	QUANT	964.745	Start Time Offset (s)
