EXPLAIN
TAG	PWR800_DISCHARGE
TITLE	LABEL	PWR Cyclic Charge Discharge (Cell) - Discharge Step	Test &Identifier
DATE	LABEL	7-7-2017	Date
TIME	LABEL	16:02:12	Time
NOTES	NOTES	3	&Notes...
	supercap test cell
	2.8mg
	6M KOH
PSTAT	PSTAT	IFC5000-01520	Potentiostat
CAPACITY	QUANT	1.00000E-003	Capacity (A-hr)
CELLTYPE	SELECTOR	1	&Cell Type
WORKINGCONNECTION	SELECTOR	0	&Working Lead
MAXDISCHARGETIME	VARIABLEANDUNITS	1.00000E+002	s	1.00000E+002	second(s)	Max &Discharge Time
DISCHARGEMODE	MULTIPARAM	0	2.80000E-004	&Discharge Mode	Constant Current	Amp(s)
SAMPLETIME	QUANT	1.00000E-002	Sa&mple Period (s)
DISCHARGESTOPAT1	MULTIPARAM	3	0.00000E+000	Discharge Stop At &1	Voltage < Limit	V
DISCHARGESTOPAT2	MULTIPARAM	0	0.00000E+000	Discharge Stop At &2	None	N/A
AESBHCSELECTOR	TOGGLE	F	Save Both Half Cells
IRCOMP	TOGGLE	F	IR &Measure
EOC	QUANT	0	Open Circuit (V)
SEQUENCER	TOGGLE	TRUE	Run as Sequence
PSTATMODEL	IQUANT	53	Pstat Model
PSTATSECTION	LABEL	IFC5000-01520	Pstat Section
PSTATSERIALNO	LABEL	01520	Pstat Serial Number
CTRLMODE	IQUANT	0	Control Mode
ELECTROMETER	IQUANT	1	RE=0 or CS=1
IESTAB	IQUANT	0	I/E Stability
CASPEED	IQUANT	4	Control Amp Speed
CONVENTION	IQUANT	1	Current Convention
ICHRANGE	IQUANT	2	Ich Range
ICHRANGEMODE	TOGGLE	T	Ich Auto Range
ICHOFFSETENABLE	TOGGLE	F	Ich Offset Enable
ICHOFFSET	QUANT	0	Ich Offset (V)
ICHFILTER	IQUANT	1	Ich Filter
VCHRANGE	IQUANT	2	Vch Range
VCHRANGEMODE	TOGGLE	T	Vch Auto Range
VCHOFFSETENABLE	TOGGLE	F	Vch Offset Enable
VCHOFFSET	QUANT	0	Vch Offset (V)
VCHFILTER	IQUANT	1	Vch Filter
IERANGELOWERLIMIT	IQUANT	9	I/E Range Lower Limit
IERANGEMODE	TOGGLE	F	I/E AutoRange
IERANGE	IQUANT	9	I/E Range
ACHSELECT	IQUANT	1	Ach Select
ACHRANGE	IQUANT	2	Ach Range
ACHOFFSETENABLE	TOGGLE	F	Ach Offset Enable
ACHOFFSET	QUANT	0	Ach Offset (V)
ACHFILTER	IQUANT	1	Ach Filter
CABLEID	IQUANT	14	Cable ID
DCCALDATE	LABEL	5-7-2017	DC Calibration Date
ACCALDATE	LABEL	12/3/2015	AC Calibration Date
FRAMEWORKVERSION	QUANT	7.01	Framework Version
INSTRUMENTVERSION	LABEL	4.00	Instrument Version
CURVE	TABLE	68
	Pt	T	Vf	Im	Vu	Pwr	Sig	Ach	Temp	IERange	Over
	#	s	V	A	V	W	V	V	deg C	#	bits
	0	0.013333	5.30347E-001	-2.78703E-004	0.00000E+000	-1.47809E-004	-1.68088E-001	5.30557E-001	3.57890E+000	9	...........
	1	0.026667	4.97828E-001	-2.79720E-004	0.00000E+000	-1.39252E-004	-1.68088E-001	4.98070E-001	3.57890E+000	9	...........
	2	0.04	4.68424E-001	-2.80808E-004	0.00000E+000	-1.31537E-004	-1.68088E-001	4.68532E-001	3.57890E+000	9	...........
	3	0.053333	4.40858E-001	-2.77652E-004	0.00000E+000	-1.22405E-004	-1.68088E-001	4.40960E-001	3.57890E+000	9	...........
	4	0.066667	4.15200E-001	-2.78454E-004	0.00000E+000	-1.15614E-004	-1.68088E-001	4.15297E-001	3.57890E+000	9	...........
	5	0.08	3.91278E-001	-2.78165E-004	0.00000E+000	-1.08840E-004	-1.68088E-001	3.91367E-001	3.57890E+000	9	...........
	6	0.093333	3.68984E-001	-2.78435E-004	0.00000E+000	-1.02738E-004	-1.68088E-001	3.69066E-001	3.57890E+000	9	...........
	7	0.106667	3.48220E-001	-2.79431E-004	0.00000E+000	-9.73037E-005	-1.68088E-001	3.48301E-001	3.57890E+000	9	...........
	8	0.12	3.28906E-001	-2.78537E-004	0.00000E+000	-9.16127E-005	-1.68088E-001	3.28981E-001	3.57890E+000	9	...........
	9	0.133333	3.10963E-001	-2.77745E-004	0.00000E+000	-8.63683E-005	-1.68088E-001	3.11036E-001	3.57890E+000	9	...........
	10	0.146667	2.94334E-001	-2.78823E-004	0.00000E+000	-8.20669E-005	-1.68088E-001	2.94406E-001	3.57890E+000	9	...........
	11	0.16	2.78893E-001	-2.78429E-004	0.00000E+000	-7.76519E-005	-1.68088E-001	2.78959E-001	3.57890E+000	9	...........
	12	0.173333	2.64565E-001	-2.79010E-004	0.00000E+000	-7.38165E-005	-1.68088E-001	2.64632E-001	3.57890E+000	9	...........
	13	0.186667	2.51238E-001	-2.79029E-004	0.00000E+000	-7.01026E-005	-1.68088E-001	2.51297E-001	3.57890E+000	9	...........
	14	0.2	2.38869E-001	-2.78198E-004	0.00000E+000	-6.64529E-005	-1.68088E-001	2.38926E-001	3.57890E+000	9	...........
	15	0.213333	2.27373E-001	-2.79935E-004	0.00000E+000	-6.36494E-005	-1.68088E-001	2.27426E-001	3.57890E+000	9	...........
	16	0.226667	2.16621E-001	-2.79751E-004	0.00000E+000	-6.05999E-005	-1.68088E-001	2.16669E-001	3.57890E+000	9	...........
	17	0.24	2.06557E-001	-2.79015E-004	0.00000E+000	-5.76324E-005	-1.68088E-001	2.06604E-001	3.57890E+000	9	...........
	18	0.253333	1.97139E-001	-2.79040E-004	0.00000E+000	-5.50095E-005	-1.68088E-001	1.97184E-001	3.57890E+000	9	...........
	19	0.266667	1.88318E-001	-2.79329E-004	0.00000E+000	-5.26028E-005	-1.68088E-001	1.88364E-001	3.57890E+000	9	...........
	20	0.28	1.80072E-001	-2.78363E-004	0.00000E+000	-5.01253E-005	-1.68088E-001	1.80118E-001	3.57890E+000	9	...........
	21	0.293333	1.72278E-001	-2.78887E-004	0.00000E+000	-4.80462E-005	-1.68088E-001	1.72316E-001	3.57890E+000	9	...........
	22	0.306667	1.64966E-001	-2.79895E-004	0.00000E+000	-4.61731E-005	-1.68088E-001	1.65010E-001	3.57890E+000	9	...........
	23	0.32	1.58036E-001	-2.78004E-004	0.00000E+000	-4.39347E-005	-1.68088E-001	1.58076E-001	3.57890E+000	9	...........
	24	0.333333	1.51467E-001	-2.79526E-004	0.00000E+000	-4.23389E-005	-1.68088E-001	1.51506E-001	3.57890E+000	9	...........
	25	0.346667	1.45255E-001	-2.78423E-004	0.00000E+000	-4.04424E-005	-1.68088E-001	1.45292E-001	3.57834E+000	9	...........
	26	0.36	1.39339E-001	-2.78081E-004	0.00000E+000	-3.87477E-005	-1.68088E-001	1.39369E-001	3.57740E+000	9	...........
	27	0.373333	1.33717E-001	-2.78147E-004	0.00000E+000	-3.71928E-005	-1.68088E-001	1.33749E-001	3.57740E+000	9	...........
	28	0.386667	1.28263E-001	-2.79153E-004	0.00000E+000	-3.58050E-005	-1.68088E-001	1.28292E-001	3.57740E+000	9	...........
	29	0.4	1.23032E-001	-2.78211E-004	0.00000E+000	-3.42289E-005	-1.68088E-001	1.23061E-001	3.57740E+000	9	...........
	30	0.413333	1.18063E-001	-2.78538E-004	0.00000E+000	-3.28850E-005	-1.68088E-001	1.18096E-001	3.57740E+000	9	...........
	31	0.426667	1.13252E-001	-2.78970E-004	0.00000E+000	-3.15939E-005	-1.68088E-001	1.13284E-001	3.57740E+000	9	...........
	32	0.44	1.08658E-001	-2.79376E-004	0.00000E+000	-3.03564E-005	-1.68088E-001	1.08689E-001	3.57740E+000	9	...........
	33	0.453333	1.04226E-001	-2.77501E-004	0.00000E+000	-2.89229E-005	-1.68088E-001	1.04255E-001	3.57740E+000	9	...........
	34	0.466667	9.99179E-002	-2.77572E-004	0.00000E+000	-2.77344E-005	-1.68088E-001	9.99488E-002	3.57740E+000	9	...........
	35	0.48	9.57531E-002	-2.79379E-004	0.00000E+000	-2.67514E-005	-1.68088E-001	9.57825E-002	3.57740E+000	9	...........
	36	0.493333	9.17480E-002	-2.78168E-004	0.00000E+000	-2.55213E-005	-1.68088E-001	9.17741E-002	3.57740E+000	9	...........
	37	0.506667	8.77840E-002	-2.78504E-004	0.00000E+000	-2.44482E-005	-1.68088E-001	8.78068E-002	3.57740E+000	9	...........
	38	0.52	8.39763E-002	-2.79158E-004	0.00000E+000	-2.34427E-005	-1.68088E-001	8.40015E-002	3.57740E+000	9	...........
	39	0.533333	8.02131E-002	-2.78573E-004	0.00000E+000	-2.23452E-005	-1.68088E-001	8.02317E-002	3.57740E+000	9	...........
	40	0.546667	7.65575E-002	-2.78856E-004	0.00000E+000	-2.13485E-005	-1.68088E-001	7.65757E-002	3.57740E+000	9	...........
	41	0.56	7.29996E-002	-2.77988E-004	0.00000E+000	-2.02930E-005	-1.68088E-001	7.30179E-002	3.57740E+000	9	...........
	42	0.573333	6.95701E-002	-2.78570E-004	0.00000E+000	-1.93801E-005	-1.68088E-001	6.95852E-002	3.57740E+000	9	...........
	43	0.586667	6.61972E-002	-2.79283E-004	0.00000E+000	-1.84878E-005	-1.68088E-001	6.62145E-002	3.57740E+000	9	...........
	44	0.6	6.28294E-002	-2.78769E-004	0.00000E+000	-1.75149E-005	-1.68088E-001	6.28439E-002	3.57740E+000	9	...........
	45	0.613333	5.95123E-002	-2.79129E-004	0.00000E+000	-1.66116E-005	-1.68088E-001	5.95270E-002	3.57740E+000	9	...........
	46	0.626667	5.62801E-002	-2.78383E-004	0.00000E+000	-1.56674E-005	-1.68088E-001	5.62945E-002	3.57740E+000	9	...........
	47	0.64	5.31315E-002	-2.79289E-004	0.00000E+000	-1.48390E-005	-1.68088E-001	5.31409E-002	3.57740E+000	9	...........
	48	0.653333	5.00739E-002	-2.78882E-004	0.00000E+000	-1.39647E-005	-1.68088E-001	5.00832E-002	3.57740E+000	9	...........
	49	0.666667	4.70966E-002	-2.79247E-004	0.00000E+000	-1.31516E-005	-1.68088E-001	4.71066E-002	3.57740E+000	9	...........
	50	0.68	4.41552E-002	-2.79132E-004	0.00000E+000	-1.23251E-005	-1.68088E-001	4.41615E-002	3.57740E+000	9	...........
	51	0.693333	4.12341E-002	-2.79010E-004	0.00000E+000	-1.15047E-005	-1.68088E-001	4.12432E-002	3.57740E+000	9	...........
	52	0.706667	3.84231E-002	-2.78253E-004	0.00000E+000	-1.06913E-005	-1.68088E-001	3.84249E-002	3.57740E+000	9	...........
	53	0.72	3.56501E-002	-2.77449E-004	0.00000E+000	-9.89107E-006	-1.68088E-001	3.56601E-002	3.57740E+000	9	...........
	54	0.733333	3.28626E-002	-2.78976E-004	0.00000E+000	-9.16787E-006	-1.68088E-001	3.28673E-002	3.57740E+000	9	...........
	55	0.746667	3.01244E-002	-2.78916E-004	0.00000E+000	-8.40215E-006	-1.68088E-001	3.01285E-002	3.57740E+000	9	...........
	56	0.76	2.74050E-002	-2.77929E-004	0.00000E+000	-7.61665E-006	-1.68088E-001	2.74085E-002	3.57740E+000	9	...........
	57	0.773333	2.47204E-002	-2.78520E-004	0.00000E+000	-6.88511E-006	-1.68088E-001	2.47179E-002	3.57740E+000	9	...........
	58	0.786667	2.20979E-002	-2.78617E-004	0.00000E+000	-6.15685E-006	-1.68088E-001	2.20949E-002	3.57740E+000	9	...........
	59	0.8	1.95511E-002	-2.79082E-004	0.00000E+000	-5.45637E-006	-1.68088E-001	1.95455E-002	3.57740E+000	9	...........
	60	0.813333	1.69936E-002	-2.78788E-004	0.00000E+000	-4.73763E-006	-1.68088E-001	1.69856E-002	3.57740E+000	9	...........
	61	0.826667	1.44405E-002	-2.78230E-004	0.00000E+000	-4.01779E-006	-1.68088E-001	1.44280E-002	3.57740E+000	9	...........
	62	0.84	1.19052E-002	-2.78774E-004	0.00000E+000	-3.31886E-006	-1.68088E-001	1.18964E-002	3.57740E+000	9	...........
	63	0.853333	9.43068E-003	-2.78322E-004	0.00000E+000	-2.62476E-006	-1.68088E-001	9.42486E-003	3.57740E+000	9	...........
	64	0.866667	6.96210E-003	-2.78742E-004	0.00000E+000	-1.94063E-006	-1.68088E-001	6.94641E-003	3.57740E+000	9	...........
	65	0.88	4.57871E-003	-2.78175E-004	0.00000E+000	-1.27368E-006	-1.68088E-001	4.56375E-003	3.57740E+000	9	...........
	66	0.893333	2.21045E-003	-2.79108E-004	0.00000E+000	-6.16956E-007	-1.68088E-001	2.19519E-003	3.57740E+000	9	...........
	67	0.9	4.02159E-004	-2.79025E-004	0.00000E+000	-1.12212E-007	-1.68088E-001	3.83151E-004	3.57740E+000	9	...........
STARTTIMEOFFSET	QUANT	1202.209	Start Time Offset (s)
