EXPLAIN
TAG	PWR800_DISCHARGE
TITLE	LABEL	PWR Cyclic Charge Discharge (Cell) - Discharge Step	Test &Identifier
DATE	LABEL	7-7-2017	Date
TIME	LABEL	16:13:13	Time
NOTES	NOTES	3	&Notes...
	supercap test cell
	2.8mg
	6M KOH
PSTAT	PSTAT	IFC5000-01520	Potentiostat
CAPACITY	QUANT	1.00000E-003	Capacity (A-hr)
CELLTYPE	SELECTOR	1	&Cell Type
WORKINGCONNECTION	SELECTOR	0	&Working Lead
MAXDISCHARGETIME	VARIABLEANDUNITS	1.00000E+002	s	1.00000E+002	second(s)	Max &Discharge Time
DISCHARGEMODE	MULTIPARAM	0	2.80000E-004	&Discharge Mode	Constant Current	Amp(s)
SAMPLETIME	QUANT	1.00000E-002	Sa&mple Period (s)
DISCHARGESTOPAT1	MULTIPARAM	3	0.00000E+000	Discharge Stop At &1	Voltage < Limit	V
DISCHARGESTOPAT2	MULTIPARAM	0	0.00000E+000	Discharge Stop At &2	None	N/A
AESBHCSELECTOR	TOGGLE	F	Save Both Half Cells
IRCOMP	TOGGLE	F	IR &Measure
EOC	QUANT	0	Open Circuit (V)
SEQUENCER	TOGGLE	TRUE	Run as Sequence
PSTATMODEL	IQUANT	53	Pstat Model
PSTATSECTION	LABEL	IFC5000-01520	Pstat Section
PSTATSERIALNO	LABEL	01520	Pstat Serial Number
CTRLMODE	IQUANT	0	Control Mode
ELECTROMETER	IQUANT	1	RE=0 or CS=1
IESTAB	IQUANT	0	I/E Stability
CASPEED	IQUANT	4	Control Amp Speed
CONVENTION	IQUANT	1	Current Convention
ICHRANGE	IQUANT	2	Ich Range
ICHRANGEMODE	TOGGLE	T	Ich Auto Range
ICHOFFSETENABLE	TOGGLE	F	Ich Offset Enable
ICHOFFSET	QUANT	0	Ich Offset (V)
ICHFILTER	IQUANT	1	Ich Filter
VCHRANGE	IQUANT	2	Vch Range
VCHRANGEMODE	TOGGLE	T	Vch Auto Range
VCHOFFSETENABLE	TOGGLE	F	Vch Offset Enable
VCHOFFSET	QUANT	0	Vch Offset (V)
VCHFILTER	IQUANT	1	Vch Filter
IERANGELOWERLIMIT	IQUANT	9	I/E Range Lower Limit
IERANGEMODE	TOGGLE	F	I/E AutoRange
IERANGE	IQUANT	9	I/E Range
ACHSELECT	IQUANT	1	Ach Select
ACHRANGE	IQUANT	2	Ach Range
ACHOFFSETENABLE	TOGGLE	F	Ach Offset Enable
ACHOFFSET	QUANT	0	Ach Offset (V)
ACHFILTER	IQUANT	1	Ach Filter
CABLEID	IQUANT	14	Cable ID
DCCALDATE	LABEL	5-7-2017	DC Calibration Date
ACCALDATE	LABEL	12/3/2015	AC Calibration Date
FRAMEWORKVERSION	QUANT	7.01	Framework Version
INSTRUMENTVERSION	LABEL	4.00	Instrument Version
CURVE	TABLE	57
	Pt	T	Vf	Im	Vu	Pwr	Sig	Ach	Temp	IERange	Over
	#	s	V	A	V	W	V	V	deg C	#	bits
	0	0.013333	4.58147E-001	-2.79120E-004	0.00000E+000	-1.27878E-004	-1.68088E-001	4.58259E-001	3.57730E+000	9	...........
	1	0.026667	4.29669E-001	-2.77846E-004	0.00000E+000	-1.19382E-004	-1.68088E-001	4.29772E-001	3.57730E+000	9	...........
	2	0.04	4.03109E-001	-2.79314E-004	0.00000E+000	-1.12594E-004	-1.68088E-001	4.03199E-001	3.57730E+000	9	...........
	3	0.053333	3.78320E-001	-2.78837E-004	0.00000E+000	-1.05490E-004	-1.68088E-001	3.78406E-001	3.57730E+000	9	...........
	4	0.066667	3.55199E-001	-2.78088E-004	0.00000E+000	-9.87766E-005	-1.68088E-001	3.55280E-001	3.57730E+000	9	...........
	5	0.08	3.33661E-001	-2.78867E-004	0.00000E+000	-9.30470E-005	-1.68088E-001	3.33734E-001	3.57730E+000	9	...........
	6	0.093333	3.13656E-001	-2.79830E-004	0.00000E+000	-8.77706E-005	-1.68088E-001	3.13729E-001	3.57730E+000	9	...........
	7	0.106667	2.95062E-001	-2.77700E-004	0.00000E+000	-8.19386E-005	-1.68088E-001	2.95135E-001	3.57730E+000	9	...........
	8	0.12	2.77770E-001	-2.78633E-004	0.00000E+000	-7.73960E-005	-1.68088E-001	2.77836E-001	3.57730E+000	9	...........
	9	0.133333	2.61696E-001	-2.79423E-004	0.00000E+000	-7.31238E-005	-1.68088E-001	2.61762E-001	3.57730E+000	9	...........
	10	0.146667	2.46789E-001	-2.79412E-004	0.00000E+000	-6.89557E-005	-1.68088E-001	2.46848E-001	3.57730E+000	9	...........
	11	0.16	2.32969E-001	-2.78970E-004	0.00000E+000	-6.49914E-005	-1.68088E-001	2.33025E-001	3.57730E+000	9	...........
	12	0.173333	2.20127E-001	-2.78910E-004	0.00000E+000	-6.13957E-005	-1.68088E-001	2.20178E-001	3.57730E+000	9	...........
	13	0.186667	2.08194E-001	-2.77964E-004	0.00000E+000	-5.78705E-005	-1.68088E-001	2.08240E-001	3.57730E+000	9	...........
	14	0.2	1.97059E-001	-2.80263E-004	0.00000E+000	-5.52283E-005	-1.68088E-001	1.97105E-001	3.57730E+000	9	...........
	15	0.213333	1.86691E-001	-2.77885E-004	0.00000E+000	-5.18786E-005	-1.68088E-001	1.86738E-001	3.57730E+000	9	...........
	16	0.226667	1.77030E-001	-2.77776E-004	0.00000E+000	-4.91746E-005	-1.68088E-001	1.77074E-001	3.57730E+000	9	...........
	17	0.24	1.67982E-001	-2.79500E-004	0.00000E+000	-4.69509E-005	-1.68088E-001	1.68024E-001	3.57730E+000	9	...........
	18	0.253333	1.59487E-001	-2.78608E-004	0.00000E+000	-4.44344E-005	-1.68088E-001	1.59522E-001	3.57730E+000	9	...........
	19	0.266667	1.51527E-001	-2.79180E-004	0.00000E+000	-4.23034E-005	-1.68088E-001	1.51562E-001	3.57730E+000	9	...........
	20	0.28	1.44059E-001	-2.79702E-004	0.00000E+000	-4.02937E-005	-1.68088E-001	1.44095E-001	3.57730E+000	9	...........
	21	0.293333	1.36960E-001	-2.80303E-004	0.00000E+000	-3.83904E-005	-1.68088E-001	1.36994E-001	3.57730E+000	9	...........
	22	0.306667	1.30302E-001	-2.79975E-004	0.00000E+000	-3.64812E-005	-1.68088E-001	1.30334E-001	3.57730E+000	9	...........
	23	0.32	1.23957E-001	-2.78690E-004	0.00000E+000	-3.45457E-005	-1.68088E-001	1.23987E-001	3.57730E+000	9	...........
	24	0.333333	1.17925E-001	-2.79855E-004	0.00000E+000	-3.30020E-005	-1.68088E-001	1.17955E-001	3.57730E+000	9	...........
	25	0.346667	1.12201E-001	-2.79721E-004	0.00000E+000	-3.13849E-005	-1.68088E-001	1.12237E-001	3.57730E+000	9	...........
	26	0.36	1.06701E-001	-2.78539E-004	0.00000E+000	-2.97205E-005	-1.68088E-001	1.06736E-001	3.57730E+000	9	...........
	27	0.373333	1.01434E-001	-2.78933E-004	0.00000E+000	-2.82932E-005	-1.68088E-001	1.01457E-001	3.57730E+000	9	...........
	28	0.386667	9.64010E-002	-2.79417E-004	0.00000E+000	-2.69361E-005	-1.68088E-001	9.64263E-002	3.57730E+000	9	...........
	29	0.4	9.15370E-002	-2.79016E-004	0.00000E+000	-2.55403E-005	-1.68088E-001	9.15573E-002	3.57730E+000	9	...........
	30	0.413333	8.68911E-002	-2.77949E-004	0.00000E+000	-2.41513E-005	-1.68088E-001	8.69115E-002	3.57730E+000	9	...........
	31	0.426667	8.23935E-002	-2.79592E-004	0.00000E+000	-2.30365E-005	-1.68088E-001	8.24129E-002	3.57730E+000	9	...........
	32	0.44	7.80309E-002	-2.79026E-004	0.00000E+000	-2.17727E-005	-1.68088E-001	7.80423E-002	3.57730E+000	9	...........
	33	0.453333	7.38073E-002	-2.78698E-004	0.00000E+000	-2.05699E-005	-1.68088E-001	7.38169E-002	3.57730E+000	9	...........
	34	0.466667	6.97287E-002	-2.79525E-004	0.00000E+000	-1.94909E-005	-1.68088E-001	6.97395E-002	3.57730E+000	9	...........
	35	0.48	6.57882E-002	-2.78259E-004	0.00000E+000	-1.83062E-005	-1.68088E-001	6.58007E-002	3.57730E+000	9	...........
	36	0.493333	6.19178E-002	-2.79012E-004	0.00000E+000	-1.72758E-005	-1.68088E-001	6.19300E-002	3.57730E+000	9	...........
	37	0.506667	5.81882E-002	-2.78403E-004	0.00000E+000	-1.61998E-005	-1.68088E-001	5.81978E-002	3.57730E+000	9	...........
	38	0.52	5.45725E-002	-2.79101E-004	0.00000E+000	-1.52312E-005	-1.68088E-001	5.45780E-002	3.57730E+000	9	...........
	39	0.533333	5.10036E-002	-2.80114E-004	0.00000E+000	-1.42868E-005	-1.68088E-001	5.10074E-002	3.57730E+000	9	...........
	40	0.546667	4.75743E-002	-2.78774E-004	0.00000E+000	-1.32625E-005	-1.68088E-001	4.75795E-002	3.57730E+000	9	...........
	41	0.56	4.42005E-002	-2.79651E-004	0.00000E+000	-1.23607E-005	-1.68088E-001	4.42070E-002	3.57730E+000	9	...........
	42	0.573333	4.08640E-002	-2.79603E-004	0.00000E+000	-1.14257E-005	-1.68088E-001	4.08726E-002	3.57730E+000	9	...........
	43	0.586667	3.76301E-002	-2.77674E-004	0.00000E+000	-1.04489E-005	-1.68088E-001	3.76384E-002	3.57730E+000	9	...........
	44	0.6	3.43714E-002	-2.78174E-004	0.00000E+000	-9.56122E-006	-1.68088E-001	3.43760E-002	3.57730E+000	9	...........
	45	0.613333	3.12521E-002	-2.79424E-004	0.00000E+000	-8.73259E-006	-1.68088E-001	3.12512E-002	3.57730E+000	9	...........
	46	0.626667	2.82244E-002	-2.78358E-004	0.00000E+000	-7.85649E-006	-1.68088E-001	2.82245E-002	3.57730E+000	9	...........
	47	0.64	2.52234E-002	-2.78403E-004	0.00000E+000	-7.02226E-006	-1.68088E-001	2.52214E-002	3.57730E+000	9	...........
	48	0.653333	2.22826E-002	-2.78620E-004	0.00000E+000	-6.20839E-006	-1.68088E-001	2.22788E-002	3.57730E+000	9	...........
	49	0.666667	1.94199E-002	-2.79318E-004	0.00000E+000	-5.42432E-006	-1.68088E-001	1.94139E-002	3.57730E+000	9	...........
	50	0.68	1.65946E-002	-2.79752E-004	0.00000E+000	-4.64238E-006	-1.68088E-001	1.65848E-002	3.57730E+000	9	...........
	51	0.693333	1.37643E-002	-2.78892E-004	0.00000E+000	-3.83876E-006	-1.68088E-001	1.37559E-002	3.57730E+000	9	...........
	52	0.706667	1.10390E-002	-2.79988E-004	0.00000E+000	-3.09078E-006	-1.68088E-001	1.10252E-002	3.57730E+000	9	...........
	53	0.72	8.31842E-003	-2.77730E-004	0.00000E+000	-2.31027E-006	-1.68088E-001	8.30586E-003	3.57730E+000	9	...........
	54	0.733333	5.63939E-003	-2.78257E-004	0.00000E+000	-1.56920E-006	-1.68088E-001	5.62630E-003	3.57730E+000	9	...........
	55	0.746667	2.98338E-003	-2.78047E-004	0.00000E+000	-8.29518E-007	-1.68088E-001	2.96652E-003	3.57730E+000	9	...........
	56	0.756667	6.81500E-004	-2.79292E-004	0.00000E+000	-1.90338E-007	-1.68088E-001	6.62616E-004	3.57730E+000	9	...........
STARTTIMEOFFSET	QUANT	1652.988	Start Time Offset (s)
