EXPLAIN
TAG	PWR800_DISCHARGE
TITLE	LABEL	PWR Cyclic Charge Discharge (Cell) - Discharge Step	Test &Identifier
DATE	LABEL	7-7-2017	Date
TIME	LABEL	16:07:38	Time
NOTES	NOTES	3	&Notes...
	supercap test cell
	2.8mg
	6M KOH
PSTAT	PSTAT	IFC5000-01520	Potentiostat
CAPACITY	QUANT	1.00000E-003	Capacity (A-hr)
CELLTYPE	SELECTOR	1	&Cell Type
WORKINGCONNECTION	SELECTOR	0	&Working Lead
MAXDISCHARGETIME	VARIABLEANDUNITS	1.00000E+002	s	1.00000E+002	second(s)	Max &Discharge Time
DISCHARGEMODE	MULTIPARAM	0	2.80000E-004	&Discharge Mode	Constant Current	Amp(s)
SAMPLETIME	QUANT	1.00000E-002	Sa&mple Period (s)
DISCHARGESTOPAT1	MULTIPARAM	3	0.00000E+000	Discharge Stop At &1	Voltage < Limit	V
DISCHARGESTOPAT2	MULTIPARAM	0	0.00000E+000	Discharge Stop At &2	None	N/A
AESBHCSELECTOR	TOGGLE	F	Save Both Half Cells
IRCOMP	TOGGLE	F	IR &Measure
EOC	QUANT	0	Open Circuit (V)
SEQUENCER	TOGGLE	TRUE	Run as Sequence
PSTATMODEL	IQUANT	53	Pstat Model
PSTATSECTION	LABEL	IFC5000-01520	Pstat Section
PSTATSERIALNO	LABEL	01520	Pstat Serial Number
CTRLMODE	IQUANT	0	Control Mode
ELECTROMETER	IQUANT	1	RE=0 or CS=1
IESTAB	IQUANT	0	I/E Stability
CASPEED	IQUANT	4	Control Amp Speed
CONVENTION	IQUANT	1	Current Convention
ICHRANGE	IQUANT	2	Ich Range
ICHRANGEMODE	TOGGLE	T	Ich Auto Range
ICHOFFSETENABLE	TOGGLE	F	Ich Offset Enable
ICHOFFSET	QUANT	0	Ich Offset (V)
ICHFILTER	IQUANT	1	Ich Filter
VCHRANGE	IQUANT	2	Vch Range
VCHRANGEMODE	TOGGLE	T	Vch Auto Range
VCHOFFSETENABLE	TOGGLE	F	Vch Offset Enable
VCHOFFSET	QUANT	0	Vch Offset (V)
VCHFILTER	IQUANT	1	Vch Filter
IERANGELOWERLIMIT	IQUANT	9	I/E Range Lower Limit
IERANGEMODE	TOGGLE	F	I/E AutoRange
IERANGE	IQUANT	9	I/E Range
ACHSELECT	IQUANT	1	Ach Select
ACHRANGE	IQUANT	2	Ach Range
ACHOFFSETENABLE	TOGGLE	F	Ach Offset Enable
ACHOFFSET	QUANT	0	Ach Offset (V)
ACHFILTER	IQUANT	1	Ach Filter
CABLEID	IQUANT	14	Cable ID
DCCALDATE	LABEL	5-7-2017	DC Calibration Date
ACCALDATE	LABEL	12/3/2015	AC Calibration Date
FRAMEWORKVERSION	QUANT	7.01	Framework Version
INSTRUMENTVERSION	LABEL	4.00	Instrument Version
CURVE	TABLE	64
	Pt	T	Vf	Im	Vu	Pwr	Sig	Ach	Temp	IERange	Over
	#	s	V	A	V	W	V	V	deg C	#	bits
	0	0.013333	5.27804E-001	-2.77767E-004	0.00000E+000	-1.46607E-004	-1.68088E-001	5.28067E-001	3.57810E+000	9	...........
	1	0.026667	4.94888E-001	-2.78811E-004	0.00000E+000	-1.37980E-004	-1.68088E-001	4.95129E-001	3.57810E+000	9	...........
	2	0.04	4.65043E-001	-2.77721E-004	0.00000E+000	-1.29152E-004	-1.68088E-001	4.65160E-001	3.57810E+000	9	...........
	3	0.053333	4.37071E-001	-2.79279E-004	0.00000E+000	-1.22065E-004	-1.68088E-001	4.37185E-001	3.57810E+000	9	...........
	4	0.066667	4.11032E-001	-2.77916E-004	0.00000E+000	-1.14233E-004	-1.68088E-001	4.11138E-001	3.57800E+000	9	...........
	5	0.08	3.86722E-001	-2.78392E-004	0.00000E+000	-1.07660E-004	-1.68088E-001	3.86820E-001	3.57730E+000	9	...........
	6	0.093333	3.64049E-001	-2.78744E-004	0.00000E+000	-1.01476E-004	-1.68088E-001	3.64140E-001	3.57730E+000	9	...........
	7	0.106667	3.42911E-001	-2.78645E-004	0.00000E+000	-9.55505E-005	-1.68088E-001	3.43003E-001	3.57730E+000	9	...........
	8	0.12	3.23220E-001	-2.78286E-004	0.00000E+000	-8.99477E-005	-1.68088E-001	3.23303E-001	3.57730E+000	9	...........
	9	0.133333	3.04945E-001	-2.78584E-004	0.00000E+000	-8.49528E-005	-1.68088E-001	3.05025E-001	3.57730E+000	9	...........
	10	0.146667	2.87963E-001	-2.79113E-004	0.00000E+000	-8.03740E-005	-1.68088E-001	2.88040E-001	3.57730E+000	9	...........
	11	0.16	2.72218E-001	-2.79746E-004	0.00000E+000	-7.61518E-005	-1.68088E-001	2.72289E-001	3.57730E+000	9	...........
	12	0.173333	2.57566E-001	-2.78430E-004	0.00000E+000	-7.17142E-005	-1.68088E-001	2.57636E-001	3.57730E+000	9	...........
	13	0.186667	2.43959E-001	-2.79089E-004	0.00000E+000	-6.80863E-005	-1.68088E-001	2.44021E-001	3.57730E+000	9	...........
	14	0.2	2.31292E-001	-2.78439E-004	0.00000E+000	-6.44009E-005	-1.68088E-001	2.31349E-001	3.57730E+000	9	...........
	15	0.213333	2.19508E-001	-2.79400E-004	0.00000E+000	-6.13307E-005	-1.68088E-001	2.19559E-001	3.57730E+000	9	...........
	16	0.226667	2.08517E-001	-2.79144E-004	0.00000E+000	-5.82064E-005	-1.68088E-001	2.08570E-001	3.57730E+000	9	...........
	17	0.24	1.98261E-001	-2.78323E-004	0.00000E+000	-5.51805E-005	-1.68088E-001	1.98317E-001	3.57730E+000	9	...........
	18	0.253333	1.88725E-001	-2.78630E-004	0.00000E+000	-5.25844E-005	-1.68088E-001	1.88774E-001	3.57730E+000	9	...........
	19	0.266667	1.79779E-001	-2.78430E-004	0.00000E+000	-5.00558E-005	-1.68088E-001	1.79823E-001	3.57730E+000	9	...........
	20	0.28	1.71371E-001	-2.79173E-004	0.00000E+000	-4.78421E-005	-1.68088E-001	1.71418E-001	3.57730E+000	9	...........
	21	0.293333	1.63505E-001	-2.78488E-004	0.00000E+000	-4.55343E-005	-1.68088E-001	1.63551E-001	3.57730E+000	9	...........
	22	0.306667	1.56117E-001	-2.78604E-004	0.00000E+000	-4.34949E-005	-1.68088E-001	1.56152E-001	3.57730E+000	9	...........
	23	0.32	1.49080E-001	-2.79325E-004	0.00000E+000	-4.16419E-005	-1.68088E-001	1.49114E-001	3.57730E+000	9	...........
	24	0.333333	1.42386E-001	-2.78875E-004	0.00000E+000	-3.97079E-005	-1.68088E-001	1.42418E-001	3.57730E+000	9	...........
	25	0.346667	1.36063E-001	-2.79761E-004	0.00000E+000	-3.80652E-005	-1.68088E-001	1.36097E-001	3.57730E+000	9	...........
	26	0.36	1.30074E-001	-2.79309E-004	0.00000E+000	-3.63310E-005	-1.68088E-001	1.30098E-001	3.57730E+000	9	...........
	27	0.373333	1.24382E-001	-2.78983E-004	0.00000E+000	-3.47004E-005	-1.68088E-001	1.24411E-001	3.57730E+000	9	...........
	28	0.386667	1.18912E-001	-2.80227E-004	0.00000E+000	-3.33225E-005	-1.68088E-001	1.18943E-001	3.57730E+000	9	...........
	29	0.4	1.13683E-001	-2.78931E-004	0.00000E+000	-3.17098E-005	-1.68088E-001	1.13712E-001	3.57730E+000	9	...........
	30	0.413333	1.08633E-001	-2.79028E-004	0.00000E+000	-3.03118E-005	-1.68088E-001	1.08665E-001	3.57730E+000	9	...........
	31	0.426667	1.03791E-001	-2.79096E-004	0.00000E+000	-2.89676E-005	-1.68088E-001	1.03816E-001	3.57730E+000	9	...........
	32	0.44	9.91269E-002	-2.77292E-004	0.00000E+000	-2.74871E-005	-1.68088E-001	9.91543E-002	3.57730E+000	9	...........
	33	0.453333	9.46103E-002	-2.79029E-004	0.00000E+000	-2.63990E-005	-1.68088E-001	9.46363E-002	3.57730E+000	9	...........
	34	0.466667	9.02881E-002	-2.77481E-004	0.00000E+000	-2.50532E-005	-1.68088E-001	9.03134E-002	3.57730E+000	9	...........
	35	0.48	8.60623E-002	-2.78699E-004	0.00000E+000	-2.39855E-005	-1.68088E-001	8.60906E-002	3.57730E+000	9	...........
	36	0.493333	8.20244E-002	-2.77863E-004	0.00000E+000	-2.27916E-005	-1.68088E-001	8.20475E-002	3.57730E+000	9	...........
	37	0.506667	7.80789E-002	-2.78680E-004	0.00000E+000	-2.17590E-005	-1.68088E-001	7.80979E-002	3.57730E+000	9	...........
	38	0.52	7.42223E-002	-2.78036E-004	0.00000E+000	-2.06365E-005	-1.68088E-001	7.42389E-002	3.57730E+000	9	...........
	39	0.533333	7.04692E-002	-2.78308E-004	0.00000E+000	-1.96122E-005	-1.68088E-001	7.04951E-002	3.57730E+000	9	...........
	40	0.546667	6.67960E-002	-2.78709E-004	0.00000E+000	-1.86167E-005	-1.68088E-001	6.68164E-002	3.57730E+000	9	...........
	41	0.56	6.32123E-002	-2.78461E-004	0.00000E+000	-1.76022E-005	-1.68088E-001	6.32302E-002	3.57730E+000	9	...........
	42	0.573333	5.97246E-002	-2.78810E-004	0.00000E+000	-1.66518E-005	-1.68088E-001	5.97432E-002	3.57730E+000	9	...........
	43	0.586667	5.62936E-002	-2.78467E-004	0.00000E+000	-1.56759E-005	-1.68088E-001	5.63128E-002	3.57730E+000	9	...........
	44	0.6	5.29960E-002	-2.79662E-004	0.00000E+000	-1.48210E-005	-1.68088E-001	5.30112E-002	3.57730E+000	9	...........
	45	0.613333	4.97311E-002	-2.79547E-004	0.00000E+000	-1.39022E-005	-1.68088E-001	4.97374E-002	3.57730E+000	9	...........
	46	0.626667	4.65798E-002	-2.79856E-004	0.00000E+000	-1.30356E-005	-1.68088E-001	4.65961E-002	3.57730E+000	9	...........
	47	0.64	4.34330E-002	-2.78079E-004	0.00000E+000	-1.20778E-005	-1.68088E-001	4.34467E-002	3.57730E+000	9	...........
	48	0.653333	4.03271E-002	-2.78801E-004	0.00000E+000	-1.12432E-005	-1.68088E-001	4.03343E-002	3.57730E+000	9	...........
	49	0.666667	3.73140E-002	-2.79369E-004	0.00000E+000	-1.04244E-005	-1.68088E-001	3.73207E-002	3.57730E+000	9	...........
	50	0.68	3.43601E-002	-2.78785E-004	0.00000E+000	-9.57909E-006	-1.68088E-001	3.43658E-002	3.57730E+000	9	...........
	51	0.693333	3.14018E-002	-2.78254E-004	0.00000E+000	-8.73767E-006	-1.68088E-001	3.14055E-002	3.57730E+000	9	...........
	52	0.706667	2.85093E-002	-2.77393E-004	0.00000E+000	-7.90829E-006	-1.68088E-001	2.85150E-002	3.57730E+000	9	...........
	53	0.72	2.56782E-002	-2.78220E-004	0.00000E+000	-7.14419E-006	-1.68088E-001	2.56790E-002	3.57730E+000	9	...........
	54	0.733333	2.29084E-002	-2.80210E-004	0.00000E+000	-6.41914E-006	-1.68088E-001	2.29071E-002	3.57730E+000	9	...........
	55	0.746667	2.02042E-002	-2.78586E-004	0.00000E+000	-5.62861E-006	-1.68088E-001	2.02011E-002	3.57730E+000	9	...........
	56	0.76	1.75033E-002	-2.78872E-004	0.00000E+000	-4.88118E-006	-1.68088E-001	1.75002E-002	3.57730E+000	9	...........
	57	0.773333	1.48818E-002	-2.78089E-004	0.00000E+000	-4.13847E-006	-1.68088E-001	1.48732E-002	3.57730E+000	9	...........
	58	0.786667	1.22466E-002	-2.77676E-004	0.00000E+000	-3.40059E-006	-1.68088E-001	1.22395E-002	3.57730E+000	9	...........
	59	0.8	9.62094E-003	-2.78118E-004	0.00000E+000	-2.67575E-006	-1.68088E-001	9.60919E-003	3.57730E+000	9	...........
	60	0.813333	7.00325E-003	-2.79710E-004	0.00000E+000	-1.95887E-006	-1.68088E-001	6.99185E-003	3.57730E+000	9	...........
	61	0.826667	4.46587E-003	-2.77891E-004	0.00000E+000	-1.24103E-006	-1.68088E-001	4.45216E-003	3.57730E+000	9	...........
	62	0.84	1.95914E-003	-2.79116E-004	0.00000E+000	-5.46826E-007	-1.68088E-001	1.94357E-003	3.57730E+000	9	...........
	63	0.845	2.55714E-004	-2.79040E-004	0.00000E+000	-7.13544E-008	-1.68088E-001	2.34496E-004	3.57730E+000	9	...........
STARTTIMEOFFSET	QUANT	1427.838	Start Time Offset (s)
