EXPLAIN
TAG	PWR800_DISCHARGE
TITLE	LABEL	PWR Cyclic Charge Discharge (Cell) - Discharge Step	Test &Identifier
DATE	LABEL	7-7-2017	Date
TIME	LABEL	15:44:28	Time
NOTES	NOTES	3	&Notes...
	supercap test cell
	2.8mg
	6M KOH
PSTAT	PSTAT	IFC5000-01520	Potentiostat
CAPACITY	QUANT	1.00000E-003	Capacity (A-hr)
CELLTYPE	SELECTOR	1	&Cell Type
WORKINGCONNECTION	SELECTOR	0	&Working Lead
MAXDISCHARGETIME	VARIABLEANDUNITS	1.00000E+002	s	1.00000E+002	second(s)	Max &Discharge Time
DISCHARGEMODE	MULTIPARAM	0	2.80000E-004	&Discharge Mode	Constant Current	Amp(s)
SAMPLETIME	QUANT	1.00000E-002	Sa&mple Period (s)
DISCHARGESTOPAT1	MULTIPARAM	3	0.00000E+000	Discharge Stop At &1	Voltage < Limit	V
DISCHARGESTOPAT2	MULTIPARAM	0	0.00000E+000	Discharge Stop At &2	None	N/A
AESBHCSELECTOR	TOGGLE	F	Save Both Half Cells
IRCOMP	TOGGLE	F	IR &Measure
EOC	QUANT	0	Open Circuit (V)
SEQUENCER	TOGGLE	TRUE	Run as Sequence
PSTATMODEL	IQUANT	53	Pstat Model
PSTATSECTION	LABEL	IFC5000-01520	Pstat Section
PSTATSERIALNO	LABEL	01520	Pstat Serial Number
CTRLMODE	IQUANT	0	Control Mode
ELECTROMETER	IQUANT	1	RE=0 or CS=1
IESTAB	IQUANT	0	I/E Stability
CASPEED	IQUANT	4	Control Amp Speed
CONVENTION	IQUANT	1	Current Convention
ICHRANGE	IQUANT	2	Ich Range
ICHRANGEMODE	TOGGLE	T	Ich Auto Range
ICHOFFSETENABLE	TOGGLE	F	Ich Offset Enable
ICHOFFSET	QUANT	0	Ich Offset (V)
ICHFILTER	IQUANT	1	Ich Filter
VCHRANGE	IQUANT	2	Vch Range
VCHRANGEMODE	TOGGLE	T	Vch Auto Range
VCHOFFSETENABLE	TOGGLE	F	Vch Offset Enable
VCHOFFSET	QUANT	0	Vch Offset (V)
VCHFILTER	IQUANT	1	Vch Filter
IERANGELOWERLIMIT	IQUANT	9	I/E Range Lower Limit
IERANGEMODE	TOGGLE	F	I/E AutoRange
IERANGE	IQUANT	9	I/E Range
ACHSELECT	IQUANT	1	Ach Select
ACHRANGE	IQUANT	2	Ach Range
ACHOFFSETENABLE	TOGGLE	F	Ach Offset Enable
ACHOFFSET	QUANT	0	Ach Offset (V)
ACHFILTER	IQUANT	1	Ach Filter
CABLEID	IQUANT	14	Cable ID
DCCALDATE	LABEL	5-7-2017	DC Calibration Date
ACCALDATE	LABEL	12/3/2015	AC Calibration Date
FRAMEWORKVERSION	QUANT	7.01	Framework Version
INSTRUMENTVERSION	LABEL	4.00	Instrument Version
CURVE	TABLE	109
	Pt	T	Vf	Im	Vu	Pwr	Sig	Ach	Temp	IERange	Over
	#	s	V	A	V	W	V	V	deg C	#	bits
	0	0.013333	5.55197E-001	-2.78947E-004	0.00000E+000	-1.54870E-004	-1.68088E-001	5.55482E-001	3.57810E+000	9	...........
	1	0.026667	5.26017E-001	-2.78998E-004	0.00000E+000	-1.46758E-004	-1.68088E-001	5.26274E-001	3.57810E+000	9	...........
	2	0.04	4.99721E-001	-2.79214E-004	0.00000E+000	-1.39529E-004	-1.68088E-001	5.00026E-001	3.57810E+000	9	...........
	3	0.053333	4.76061E-001	-2.78776E-004	0.00000E+000	-1.32714E-004	-1.68088E-001	4.76219E-001	3.57810E+000	9	...........
	4	0.066667	4.54104E-001	-2.78911E-004	0.00000E+000	-1.26655E-004	-1.68088E-001	4.54217E-001	3.57810E+000	9	...........
	5	0.08	4.33774E-001	-2.79114E-004	0.00000E+000	-1.21072E-004	-1.68088E-001	4.33883E-001	3.57810E+000	9	...........
	6	0.093333	4.14935E-001	-2.79408E-004	0.00000E+000	-1.15936E-004	-1.68088E-001	4.15039E-001	3.57810E+000	9	...........
	7	0.106667	3.97463E-001	-2.78881E-004	0.00000E+000	-1.10845E-004	-1.68088E-001	3.97561E-001	3.57810E+000	9	...........
	8	0.12	3.81280E-001	-2.79173E-004	0.00000E+000	-1.06443E-004	-1.68088E-001	3.81374E-001	3.57810E+000	9	...........
	9	0.133333	3.66258E-001	-2.78952E-004	0.00000E+000	-1.02168E-004	-1.68088E-001	3.66347E-001	3.57810E+000	9	...........
	10	0.146667	3.52331E-001	-2.78547E-004	0.00000E+000	-9.81405E-005	-1.68088E-001	3.52414E-001	3.57810E+000	9	...........
	11	0.16	3.39354E-001	-2.78732E-004	0.00000E+000	-9.45890E-005	-1.68088E-001	3.39435E-001	3.57810E+000	9	...........
	12	0.173333	3.27230E-001	-2.78596E-004	0.00000E+000	-9.11650E-005	-1.68088E-001	3.27313E-001	3.57810E+000	9	...........
	13	0.186667	3.15925E-001	-2.79888E-004	0.00000E+000	-8.84236E-005	-1.68088E-001	3.16000E-001	3.57810E+000	9	...........
	14	0.2	3.05334E-001	-2.79373E-004	0.00000E+000	-8.53020E-005	-1.68088E-001	3.05412E-001	3.57810E+000	9	...........
	15	0.213333	2.95445E-001	-2.78729E-004	0.00000E+000	-8.23490E-005	-1.68088E-001	2.95520E-001	3.57810E+000	9	...........
	16	0.226667	2.86190E-001	-2.79600E-004	0.00000E+000	-8.00186E-005	-1.68088E-001	2.86257E-001	3.57810E+000	9	...........
	17	0.24	2.77485E-001	-2.79281E-004	0.00000E+000	-7.74964E-005	-1.68088E-001	2.77557E-001	3.57810E+000	9	...........
	18	0.253333	2.69299E-001	-2.78990E-004	0.00000E+000	-7.51317E-005	-1.68088E-001	2.69367E-001	3.57810E+000	9	...........
	19	0.266667	2.61528E-001	-2.78887E-004	0.00000E+000	-7.29368E-005	-1.68088E-001	2.61597E-001	3.57810E+000	9	...........
	20	0.28	2.54180E-001	-2.78852E-004	0.00000E+000	-7.08785E-005	-1.68088E-001	2.54242E-001	3.57810E+000	9	...........
	21	0.293333	2.47242E-001	-2.79456E-004	0.00000E+000	-6.90933E-005	-1.68088E-001	2.47307E-001	3.57810E+000	9	...........
	22	0.306667	2.40631E-001	-2.79359E-004	0.00000E+000	-6.72227E-005	-1.68088E-001	2.40685E-001	3.57810E+000	9	...........
	23	0.32	2.34324E-001	-2.79215E-004	0.00000E+000	-6.54267E-005	-1.68088E-001	2.34380E-001	3.57810E+000	9	...........
	24	0.333333	2.28346E-001	-2.78657E-004	0.00000E+000	-6.36303E-005	-1.68088E-001	2.28406E-001	3.57810E+000	9	...........
	25	0.346667	2.22660E-001	-2.79195E-004	0.00000E+000	-6.21654E-005	-1.68088E-001	2.22721E-001	3.57810E+000	9	...........
	26	0.36	2.17221E-001	-2.79854E-004	0.00000E+000	-6.07903E-005	-1.68088E-001	2.17278E-001	3.57810E+000	9	...........
	27	0.373333	2.11978E-001	-2.79657E-004	0.00000E+000	-5.92813E-005	-1.68088E-001	2.12025E-001	3.57810E+000	9	...........
	28	0.386667	2.06923E-001	-2.79950E-004	0.00000E+000	-5.79282E-005	-1.68088E-001	2.06972E-001	3.57810E+000	9	...........
	29	0.4	2.02052E-001	-2.79527E-004	0.00000E+000	-5.64792E-005	-1.68088E-001	2.02104E-001	3.57810E+000	9	...........
	30	0.413333	1.97325E-001	-2.78795E-004	0.00000E+000	-5.50131E-005	-1.68088E-001	1.97369E-001	3.57810E+000	9	...........
	31	0.426667	1.92767E-001	-2.79190E-004	0.00000E+000	-5.38186E-005	-1.68088E-001	1.92810E-001	3.57810E+000	9	...........
	32	0.44	1.88377E-001	-2.79681E-004	0.00000E+000	-5.26854E-005	-1.68088E-001	1.88418E-001	3.57810E+000	9	...........
	33	0.453333	1.84089E-001	-2.78875E-004	0.00000E+000	-5.13379E-005	-1.68088E-001	1.84132E-001	3.57810E+000	9	...........
	34	0.466667	1.79962E-001	-2.78691E-004	0.00000E+000	-5.01537E-005	-1.68088E-001	1.80004E-001	3.57810E+000	9	...........
	35	0.48	1.75991E-001	-2.79944E-004	0.00000E+000	-4.92677E-005	-1.68088E-001	1.76032E-001	3.57810E+000	9	...........
	36	0.493333	1.72104E-001	-2.79264E-004	0.00000E+000	-4.80625E-005	-1.68088E-001	1.72149E-001	3.57810E+000	9	...........
	37	0.506667	1.68330E-001	-2.78996E-004	0.00000E+000	-4.69635E-005	-1.68088E-001	1.68369E-001	3.57810E+000	9	...........
	38	0.52	1.64655E-001	-2.79342E-004	0.00000E+000	-4.59949E-005	-1.68088E-001	1.64694E-001	3.57810E+000	9	...........
	39	0.533333	1.61043E-001	-2.78872E-004	0.00000E+000	-4.49102E-005	-1.68088E-001	1.61079E-001	3.57810E+000	9	...........
	40	0.546667	1.57482E-001	-2.78992E-004	0.00000E+000	-4.39362E-005	-1.68088E-001	1.57514E-001	3.57810E+000	9	...........
	41	0.56	1.54036E-001	-2.79195E-004	0.00000E+000	-4.30060E-005	-1.68088E-001	1.54070E-001	3.57810E+000	9	...........
	42	0.573333	1.50701E-001	-2.80311E-004	0.00000E+000	-4.22431E-005	-1.68088E-001	1.50732E-001	3.57802E+000	9	...........
	43	0.586667	1.47426E-001	-2.79230E-004	0.00000E+000	-4.11658E-005	-1.68088E-001	1.47455E-001	3.57800E+000	9	...........
	44	0.6	1.44203E-001	-2.79824E-004	0.00000E+000	-4.03514E-005	-1.68088E-001	1.44234E-001	3.57800E+000	9	...........
	45	0.613333	1.41027E-001	-2.79308E-004	0.00000E+000	-3.93900E-005	-1.68088E-001	1.41059E-001	3.57800E+000	9	...........
	46	0.626667	1.37926E-001	-2.78729E-004	0.00000E+000	-3.84439E-005	-1.68088E-001	1.37953E-001	3.57800E+000	9	...........
	47	0.64	1.34884E-001	-2.79055E-004	0.00000E+000	-3.76401E-005	-1.68088E-001	1.34913E-001	3.57800E+000	9	...........
	48	0.653333	1.31884E-001	-2.78585E-004	0.00000E+000	-3.67409E-005	-1.68088E-001	1.31913E-001	3.57800E+000	9	...........
	49	0.666667	1.28939E-001	-2.78643E-004	0.00000E+000	-3.59279E-005	-1.68088E-001	1.28962E-001	3.57800E+000	9	...........
	50	0.68	1.25973E-001	-2.79404E-004	0.00000E+000	-3.51973E-005	-1.68088E-001	1.25997E-001	3.57800E+000	9	...........
	51	0.693333	1.23077E-001	-2.78686E-004	0.00000E+000	-3.42999E-005	-1.68088E-001	1.23103E-001	3.57800E+000	9	...........
	52	0.706667	1.20230E-001	-2.79339E-004	0.00000E+000	-3.35849E-005	-1.68088E-001	1.20256E-001	3.57800E+000	9	...........
	53	0.72	1.17443E-001	-2.79409E-004	0.00000E+000	-3.28146E-005	-1.68088E-001	1.17467E-001	3.57800E+000	9	...........
	54	0.733333	1.14710E-001	-2.79145E-004	0.00000E+000	-3.20206E-005	-1.68088E-001	1.14734E-001	3.57800E+000	9	...........
	55	0.746667	1.12010E-001	-2.78534E-004	0.00000E+000	-3.11987E-005	-1.68088E-001	1.12039E-001	3.57800E+000	9	...........
	56	0.76	1.09317E-001	-2.78957E-004	0.00000E+000	-3.04947E-005	-1.68088E-001	1.09343E-001	3.57800E+000	9	...........
	57	0.773333	1.06698E-001	-2.79769E-004	0.00000E+000	-2.98508E-005	-1.68088E-001	1.06720E-001	3.57800E+000	9	...........
	58	0.786667	1.04087E-001	-2.79819E-004	0.00000E+000	-2.91255E-005	-1.68088E-001	1.04114E-001	3.57800E+000	9	...........
	59	0.8	1.01468E-001	-2.79238E-004	0.00000E+000	-2.83337E-005	-1.68088E-001	1.01497E-001	3.57800E+000	9	...........
	60	0.813333	9.89481E-002	-2.78199E-004	0.00000E+000	-2.75273E-005	-1.68088E-001	9.89762E-002	3.57800E+000	9	...........
	61	0.826667	9.64464E-002	-2.79155E-004	0.00000E+000	-2.69235E-005	-1.68088E-001	9.64694E-002	3.57800E+000	9	...........
	62	0.84	9.39725E-002	-2.79040E-004	0.00000E+000	-2.62221E-005	-1.68088E-001	9.39961E-002	3.57800E+000	9	...........
	63	0.853333	9.14731E-002	-2.78506E-004	0.00000E+000	-2.54758E-005	-1.68088E-001	9.15015E-002	3.57800E+000	9	...........
	64	0.866667	8.89884E-002	-2.79252E-004	0.00000E+000	-2.48502E-005	-1.68088E-001	8.90145E-002	3.57800E+000	9	...........
	65	0.88	8.66074E-002	-2.78260E-004	0.00000E+000	-2.40994E-005	-1.68088E-001	8.66249E-002	3.57800E+000	9	...........
	66	0.893333	8.42450E-002	-2.79167E-004	0.00000E+000	-2.35184E-005	-1.68088E-001	8.42666E-002	3.57800E+000	9	...........
	67	0.906667	8.19010E-002	-2.78581E-004	0.00000E+000	-2.28161E-005	-1.68088E-001	8.19197E-002	3.57800E+000	9	...........
	68	0.92	7.95542E-002	-2.79518E-004	0.00000E+000	-2.22368E-005	-1.68088E-001	7.95688E-002	3.57800E+000	9	...........
	69	0.933333	7.71781E-002	-2.78738E-004	0.00000E+000	-2.15125E-005	-1.68088E-001	7.71907E-002	3.57800E+000	9	...........
	70	0.946667	7.48206E-002	-2.79408E-004	0.00000E+000	-2.09055E-005	-1.68088E-001	7.48348E-002	3.57800E+000	9	...........
	71	0.96	7.25321E-002	-2.79081E-004	0.00000E+000	-2.02423E-005	-1.68088E-001	7.25467E-002	3.57800E+000	9	...........
	72	0.97333	7.02693E-002	-2.79114E-004	0.00000E+000	-1.96131E-005	-1.68088E-001	7.02847E-002	3.57800E+000	9	...........
	73	0.98667	6.80422E-002	-2.78598E-004	0.00000E+000	-1.89564E-005	-1.68088E-001	6.80512E-002	3.57800E+000	9	...........
	74	1	6.57854E-002	-2.79229E-004	0.00000E+000	-1.83692E-005	-1.68088E-001	6.57943E-002	3.57800E+000	9	...........
	75	1.01333	6.35459E-002	-2.78936E-004	0.00000E+000	-1.77253E-005	-1.68088E-001	6.35590E-002	3.57800E+000	9	...........
	76	1.02667	6.13616E-002	-2.79074E-004	0.00000E+000	-1.71244E-005	-1.68088E-001	6.13727E-002	3.57800E+000	9	...........
	77	1.04	5.92349E-002	-2.79587E-004	0.00000E+000	-1.65613E-005	-1.68088E-001	5.92474E-002	3.57800E+000	9	...........
	78	1.05333	5.70787E-002	-2.79643E-004	0.00000E+000	-1.59616E-005	-1.68088E-001	5.70891E-002	3.57800E+000	9	...........
	79	1.06667	5.49716E-002	-2.79246E-004	0.00000E+000	-1.53506E-005	-1.68088E-001	5.49809E-002	3.57800E+000	9	...........
	80	1.08	5.28234E-002	-2.78661E-004	0.00000E+000	-1.47198E-005	-1.68088E-001	5.28327E-002	3.57800E+000	9	...........
	81	1.09333	5.06921E-002	-2.78060E-004	0.00000E+000	-1.40955E-005	-1.68088E-001	5.07074E-002	3.57800E+000	9	...........
	82	1.10667	4.86007E-002	-2.78082E-004	0.00000E+000	-1.35150E-005	-1.68088E-001	4.86021E-002	3.57800E+000	9	...........
	83	1.12	4.65617E-002	-2.78982E-004	0.00000E+000	-1.29899E-005	-1.68088E-001	4.65668E-002	3.57800E+000	9	...........
	84	1.13333	4.44819E-002	-2.79264E-004	0.00000E+000	-1.24222E-005	-1.68088E-001	4.44889E-002	3.57800E+000	9	...........
	85	1.14667	4.24353E-002	-2.79248E-004	0.00000E+000	-1.18500E-005	-1.68088E-001	4.24420E-002	3.57800E+000	9	...........
	86	1.16	4.04161E-002	-2.78757E-004	0.00000E+000	-1.12663E-005	-1.68088E-001	4.04226E-002	3.57800E+000	9	...........
	87	1.17333	3.83906E-002	-2.79420E-004	0.00000E+000	-1.07271E-005	-1.68088E-001	3.83969E-002	3.57800E+000	9	...........
	88	1.18667	3.63663E-002	-2.79005E-004	0.00000E+000	-1.01464E-005	-1.68088E-001	3.63702E-002	3.57800E+000	9	...........
	89	1.2	3.43569E-002	-2.79603E-004	0.00000E+000	-9.60631E-006	-1.68088E-001	3.43562E-002	3.57800E+000	9	...........
	90	1.21333	3.23753E-002	-2.78616E-004	0.00000E+000	-9.02027E-006	-1.68088E-001	3.23802E-002	3.57800E+000	9	...........
	91	1.22667	3.04224E-002	-2.78974E-004	0.00000E+000	-8.48707E-006	-1.68088E-001	3.04237E-002	3.57800E+000	9	...........
	92	1.24	2.84739E-002	-2.79199E-004	0.00000E+000	-7.94989E-006	-1.68088E-001	2.84749E-002	3.57800E+000	9	...........
	93	1.25333	2.65106E-002	-2.79294E-004	0.00000E+000	-7.40424E-006	-1.68088E-001	2.65109E-002	3.57800E+000	9	...........
	94	1.26667	2.45679E-002	-2.79238E-004	0.00000E+000	-6.86027E-006	-1.68088E-001	2.45626E-002	3.57800E+000	9	...........
	95	1.28	2.26225E-002	-2.79699E-004	0.00000E+000	-6.32750E-006	-1.68088E-001	2.26092E-002	3.57800E+000	9	...........
	96	1.29333	2.07138E-002	-2.79028E-004	0.00000E+000	-5.77974E-006	-1.68088E-001	2.07112E-002	3.57800E+000	9	...........
	97	1.30667	1.88665E-002	-2.79362E-004	0.00000E+000	-5.27057E-006	-1.68088E-001	1.88588E-002	3.57800E+000	9	...........
	98	1.32	1.70167E-002	-2.79118E-004	0.00000E+000	-4.74967E-006	-1.68088E-001	1.70077E-002	3.57800E+000	9	...........
	99	1.33333	1.51748E-002	-2.78969E-004	0.00000E+000	-4.23331E-006	-1.68088E-001	1.51615E-002	3.57800E+000	9	...........
	100	1.34667	1.33270E-002	-2.78641E-004	0.00000E+000	-3.71345E-006	-1.68088E-001	1.33131E-002	3.57800E+000	9	...........
	101	1.36	1.14880E-002	-2.79683E-004	0.00000E+000	-3.21300E-006	-1.68088E-001	1.14759E-002	3.57800E+000	9	...........
	102	1.37333	9.70917E-003	-2.78749E-004	0.00000E+000	-2.70642E-006	-1.68088E-001	9.69699E-003	3.57800E+000	9	...........
	103	1.38667	7.96101E-003	-2.79371E-004	0.00000E+000	-2.22408E-006	-1.68088E-001	7.94799E-003	3.57800E+000	9	...........
	104	1.4	6.17516E-003	-2.80464E-004	0.00000E+000	-1.73191E-006	-1.68088E-001	6.15975E-003	3.57800E+000	9	...........
	105	1.41333	4.34990E-003	-2.79440E-004	0.00000E+000	-1.21553E-006	-1.68088E-001	4.33228E-003	3.57800E+000	9	...........
	106	1.42667	2.60018E-003	-2.79076E-004	0.00000E+000	-7.25648E-007	-1.68088E-001	2.58207E-003	3.57800E+000	9	...........
	107	1.44	8.60652E-004	-2.79369E-004	0.00000E+000	-2.40439E-007	-1.68088E-001	8.42855E-004	3.57800E+000	9	...........
	108	1.44167	-1.19566E-004	-2.79206E-004	0.00000E+000	3.33836E-008	-1.68088E-001	-1.46355E-004	3.57800E+000	9	...........
STARTTIMEOFFSET	QUANT	416.0268	Start Time Offset (s)
