EXPLAIN
TAG	PWR800_DISCHARGE
TITLE	LABEL	PWR Cyclic Charge Discharge (Cell) - Discharge Step	Test &Identifier
DATE	LABEL	7-7-2017	Date
TIME	LABEL	15:53:35	Time
NOTES	NOTES	3	&Notes...
	supercap test cell
	2.8mg
	6M KOH
PSTAT	PSTAT	IFC5000-01520	Potentiostat
CAPACITY	QUANT	1.00000E-003	Capacity (A-hr)
CELLTYPE	SELECTOR	1	&Cell Type
WORKINGCONNECTION	SELECTOR	0	&Working Lead
MAXDISCHARGETIME	VARIABLEANDUNITS	1.00000E+002	s	1.00000E+002	second(s)	Max &Discharge Time
DISCHARGEMODE	MULTIPARAM	0	2.80000E-004	&Discharge Mode	Constant Current	Amp(s)
SAMPLETIME	QUANT	1.00000E-002	Sa&mple Period (s)
DISCHARGESTOPAT1	MULTIPARAM	3	0.00000E+000	Discharge Stop At &1	Voltage < Limit	V
DISCHARGESTOPAT2	MULTIPARAM	0	0.00000E+000	Discharge Stop At &2	None	N/A
AESBHCSELECTOR	TOGGLE	F	Save Both Half Cells
IRCOMP	TOGGLE	F	IR &Measure
EOC	QUANT	0	Open Circuit (V)
SEQUENCER	TOGGLE	TRUE	Run as Sequence
PSTATMODEL	IQUANT	53	Pstat Model
PSTATSECTION	LABEL	IFC5000-01520	Pstat Section
PSTATSERIALNO	LABEL	01520	Pstat Serial Number
CTRLMODE	IQUANT	0	Control Mode
ELECTROMETER	IQUANT	1	RE=0 or CS=1
IESTAB	IQUANT	0	I/E Stability
CASPEED	IQUANT	4	Control Amp Speed
CONVENTION	IQUANT	1	Current Convention
ICHRANGE	IQUANT	2	Ich Range
ICHRANGEMODE	TOGGLE	T	Ich Auto Range
ICHOFFSETENABLE	TOGGLE	F	Ich Offset Enable
ICHOFFSET	QUANT	0	Ich Offset (V)
ICHFILTER	IQUANT	1	Ich Filter
VCHRANGE	IQUANT	2	Vch Range
VCHRANGEMODE	TOGGLE	T	Vch Auto Range
VCHOFFSETENABLE	TOGGLE	F	Vch Offset Enable
VCHOFFSET	QUANT	0	Vch Offset (V)
VCHFILTER	IQUANT	1	Vch Filter
IERANGELOWERLIMIT	IQUANT	9	I/E Range Lower Limit
IERANGEMODE	TOGGLE	F	I/E AutoRange
IERANGE	IQUANT	9	I/E Range
ACHSELECT	IQUANT	1	Ach Select
ACHRANGE	IQUANT	2	Ach Range
ACHOFFSETENABLE	TOGGLE	F	Ach Offset Enable
ACHOFFSET	QUANT	0	Ach Offset (V)
ACHFILTER	IQUANT	1	Ach Filter
CABLEID	IQUANT	14	Cable ID
DCCALDATE	LABEL	5-7-2017	DC Calibration Date
ACCALDATE	LABEL	12/3/2015	AC Calibration Date
FRAMEWORKVERSION	QUANT	7.01	Framework Version
INSTRUMENTVERSION	LABEL	4.00	Instrument Version
CURVE	TABLE	82
	Pt	T	Vf	Im	Vu	Pwr	Sig	Ach	Temp	IERange	Over
	#	s	V	A	V	W	V	V	deg C	#	bits
	0	0.013333	5.43706E-001	-2.78721E-004	0.00000E+000	-1.51542E-004	-1.68088E-001	5.43986E-001	3.57820E+000	9	...........
	1	0.026667	5.12348E-001	-2.78660E-004	0.00000E+000	-1.42771E-004	-1.68088E-001	5.12638E-001	3.57820E+000	9	...........
	2	0.04	4.83965E-001	-2.78603E-004	0.00000E+000	-1.34834E-004	-1.68088E-001	4.84146E-001	3.57820E+000	9	...........
	3	0.053333	4.57792E-001	-2.78256E-004	0.00000E+000	-1.27384E-004	-1.68088E-001	4.57902E-001	3.57820E+000	9	...........
	4	0.066667	4.33341E-001	-2.79834E-004	0.00000E+000	-1.21263E-004	-1.68088E-001	4.33451E-001	3.57820E+000	9	...........
	5	0.08	4.10617E-001	-2.78236E-004	0.00000E+000	-1.14249E-004	-1.68088E-001	4.10715E-001	3.57820E+000	9	...........
	6	0.093333	3.89493E-001	-2.78020E-004	0.00000E+000	-1.08287E-004	-1.68088E-001	3.89580E-001	3.57820E+000	9	...........
	7	0.106667	3.69833E-001	-2.78554E-004	0.00000E+000	-1.03018E-004	-1.68088E-001	3.69919E-001	3.57820E+000	9	...........
	8	0.12	3.51568E-001	-2.78672E-004	0.00000E+000	-9.79721E-005	-1.68088E-001	3.51648E-001	3.57820E+000	9	...........
	9	0.133333	3.34612E-001	-2.78990E-004	0.00000E+000	-9.33534E-005	-1.68088E-001	3.34692E-001	3.57820E+000	9	...........
	10	0.146667	3.18869E-001	-2.78654E-004	0.00000E+000	-8.88543E-005	-1.68088E-001	3.18946E-001	3.57820E+000	9	...........
	11	0.16	3.04219E-001	-2.78924E-004	0.00000E+000	-8.48539E-005	-1.68088E-001	3.04289E-001	3.57820E+000	9	...........
	12	0.173333	2.90614E-001	-2.78551E-004	0.00000E+000	-8.09507E-005	-1.68088E-001	2.90690E-001	3.57820E+000	9	...........
	13	0.186667	2.77930E-001	-2.79101E-004	0.00000E+000	-7.75706E-005	-1.68088E-001	2.77999E-001	3.57820E+000	9	...........
	14	0.2	2.66097E-001	-2.79240E-004	0.00000E+000	-7.43049E-005	-1.68088E-001	2.66167E-001	3.57820E+000	9	...........
	15	0.213333	2.55035E-001	-2.78897E-004	0.00000E+000	-7.11284E-005	-1.68088E-001	2.55095E-001	3.57820E+000	9	...........
	16	0.226667	2.44728E-001	-2.79777E-004	0.00000E+000	-6.84693E-005	-1.68088E-001	2.44784E-001	3.57820E+000	9	...........
	17	0.24	2.35056E-001	-2.78455E-004	0.00000E+000	-6.54526E-005	-1.68088E-001	2.35111E-001	3.57820E+000	9	...........
	18	0.253333	2.26039E-001	-2.78994E-004	0.00000E+000	-6.30635E-005	-1.68088E-001	2.26094E-001	3.57820E+000	9	...........
	19	0.266667	2.17591E-001	-2.79026E-004	0.00000E+000	-6.07136E-005	-1.68088E-001	2.17640E-001	3.57820E+000	9	...........
	20	0.28	2.09618E-001	-2.79449E-004	0.00000E+000	-5.85775E-005	-1.68088E-001	2.09666E-001	3.57820E+000	9	...........
	21	0.293333	2.02087E-001	-2.78398E-004	0.00000E+000	-5.62607E-005	-1.68088E-001	2.02136E-001	3.57820E+000	9	...........
	22	0.306667	1.94948E-001	-2.79621E-004	0.00000E+000	-5.45114E-005	-1.68088E-001	1.94996E-001	3.57820E+000	9	...........
	23	0.32	1.88195E-001	-2.79175E-004	0.00000E+000	-5.25392E-005	-1.68088E-001	1.88240E-001	3.57820E+000	9	...........
	24	0.333333	1.81756E-001	-2.78755E-004	0.00000E+000	-5.06655E-005	-1.68088E-001	1.81797E-001	3.57820E+000	9	...........
	25	0.346667	1.75662E-001	-2.79306E-004	0.00000E+000	-4.90635E-005	-1.68088E-001	1.75702E-001	3.57820E+000	9	...........
	26	0.36	1.69845E-001	-2.78381E-004	0.00000E+000	-4.72818E-005	-1.68088E-001	1.69888E-001	3.57820E+000	9	...........
	27	0.373333	1.64260E-001	-2.79199E-004	0.00000E+000	-4.58613E-005	-1.68088E-001	1.64302E-001	3.57820E+000	9	...........
	28	0.386667	1.58931E-001	-2.78326E-004	0.00000E+000	-4.42346E-005	-1.68088E-001	1.58966E-001	3.57820E+000	9	...........
	29	0.4	1.53848E-001	-2.78917E-004	0.00000E+000	-4.29108E-005	-1.68088E-001	1.53881E-001	3.57820E+000	9	...........
	30	0.413333	1.48967E-001	-2.79517E-004	0.00000E+000	-4.16389E-005	-1.68088E-001	1.48999E-001	3.57820E+000	9	...........
	31	0.426667	1.44231E-001	-2.78925E-004	0.00000E+000	-4.02297E-005	-1.68088E-001	1.44266E-001	3.57820E+000	9	...........
	32	0.44	1.39645E-001	-2.77973E-004	0.00000E+000	-3.88175E-005	-1.68088E-001	1.39670E-001	3.57820E+000	9	...........
	33	0.453333	1.35212E-001	-2.78998E-004	0.00000E+000	-3.77238E-005	-1.68088E-001	1.35237E-001	3.57820E+000	9	...........
	34	0.466667	1.30948E-001	-2.78197E-004	0.00000E+000	-3.64292E-005	-1.68088E-001	1.30971E-001	3.57820E+000	9	...........
	35	0.48	1.26772E-001	-2.79054E-004	0.00000E+000	-3.53764E-005	-1.68088E-001	1.26798E-001	3.57820E+000	9	...........
	36	0.493333	1.22736E-001	-2.78943E-004	0.00000E+000	-3.42362E-005	-1.68088E-001	1.22757E-001	3.57815E+000	9	...........
	37	0.506667	1.18785E-001	-2.78098E-004	0.00000E+000	-3.30339E-005	-1.68088E-001	1.18811E-001	3.57810E+000	9	...........
	38	0.52	1.14943E-001	-2.78333E-004	0.00000E+000	-3.19923E-005	-1.68088E-001	1.14963E-001	3.57810E+000	9	...........
	39	0.533333	1.11189E-001	-2.79329E-004	0.00000E+000	-3.10584E-005	-1.68088E-001	1.11207E-001	3.57810E+000	9	...........
	40	0.546667	1.07554E-001	-2.78363E-004	0.00000E+000	-2.99392E-005	-1.68088E-001	1.07574E-001	3.57810E+000	9	...........
	41	0.56	1.04028E-001	-2.79755E-004	0.00000E+000	-2.91025E-005	-1.68088E-001	1.04050E-001	3.57810E+000	9	...........
	42	0.573333	1.00588E-001	-2.78898E-004	0.00000E+000	-2.80537E-005	-1.68088E-001	1.00605E-001	3.57810E+000	9	...........
	43	0.586667	9.72243E-002	-2.79121E-004	0.00000E+000	-2.71373E-005	-1.68088E-001	9.72424E-002	3.57810E+000	9	...........
	44	0.6	9.39458E-002	-2.78772E-004	0.00000E+000	-2.61894E-005	-1.68088E-001	9.39702E-002	3.57810E+000	9	...........
	45	0.613333	9.07308E-002	-2.79632E-004	0.00000E+000	-2.53713E-005	-1.68088E-001	9.07563E-002	3.57810E+000	9	...........
	46	0.626667	8.75940E-002	-2.78446E-004	0.00000E+000	-2.43902E-005	-1.68088E-001	8.76125E-002	3.57810E+000	9	...........
	47	0.64	8.44485E-002	-2.79445E-004	0.00000E+000	-2.35987E-005	-1.68088E-001	8.44668E-002	3.57810E+000	9	...........
	48	0.653333	8.14001E-002	-2.79467E-004	0.00000E+000	-2.27486E-005	-1.68088E-001	8.14188E-002	3.57810E+000	9	...........
	49	0.666667	7.84032E-002	-2.78453E-004	0.00000E+000	-2.18316E-005	-1.68088E-001	7.84156E-002	3.57810E+000	9	...........
	50	0.68	7.54330E-002	-2.79195E-004	0.00000E+000	-2.10605E-005	-1.68088E-001	7.54505E-002	3.57810E+000	9	...........
	51	0.693333	7.25356E-002	-2.78169E-004	0.00000E+000	-2.01771E-005	-1.68088E-001	7.25547E-002	3.57810E+000	9	...........
	52	0.706667	6.96585E-002	-2.79280E-004	0.00000E+000	-1.94542E-005	-1.68088E-001	6.96731E-002	3.57810E+000	9	...........
	53	0.72	6.68194E-002	-2.79173E-004	0.00000E+000	-1.86542E-005	-1.68088E-001	6.68313E-002	3.57810E+000	9	...........
	54	0.733333	6.39540E-002	-2.80056E-004	0.00000E+000	-1.79107E-005	-1.68088E-001	6.39696E-002	3.57810E+000	9	...........
	55	0.746667	6.11165E-002	-2.78295E-004	0.00000E+000	-1.70084E-005	-1.68088E-001	6.11264E-002	3.57810E+000	9	...........
	56	0.76	5.83329E-002	-2.78387E-004	0.00000E+000	-1.62391E-005	-1.68088E-001	5.83377E-002	3.57810E+000	9	...........
	57	0.773333	5.56527E-002	-2.79118E-004	0.00000E+000	-1.55337E-005	-1.68088E-001	5.56653E-002	3.57810E+000	9	...........
	58	0.786667	5.30025E-002	-2.79003E-004	0.00000E+000	-1.47879E-005	-1.68088E-001	5.30121E-002	3.57810E+000	9	...........
	59	0.8	5.03604E-002	-2.79113E-004	0.00000E+000	-1.40562E-005	-1.68088E-001	5.03677E-002	3.57810E+000	9	...........
	60	0.813333	4.78230E-002	-2.79478E-004	0.00000E+000	-1.33655E-005	-1.68088E-001	4.78243E-002	3.57810E+000	9	...........
	61	0.826667	4.53018E-002	-2.79072E-004	0.00000E+000	-1.26425E-005	-1.68088E-001	4.53089E-002	3.57810E+000	9	...........
	62	0.84	4.27958E-002	-2.79062E-004	0.00000E+000	-1.19427E-005	-1.68088E-001	4.28047E-002	3.57810E+000	9	...........
	63	0.853333	4.03687E-002	-2.79398E-004	0.00000E+000	-1.12789E-005	-1.68088E-001	4.03763E-002	3.57810E+000	9	...........
	64	0.866667	3.79529E-002	-2.79330E-004	0.00000E+000	-1.06014E-005	-1.68088E-001	3.79526E-002	3.57810E+000	9	...........
	65	0.88	3.55139E-002	-2.79476E-004	0.00000E+000	-9.92529E-006	-1.68088E-001	3.55175E-002	3.57810E+000	9	...........
	66	0.893333	3.31529E-002	-2.78417E-004	0.00000E+000	-9.23032E-006	-1.68088E-001	3.31540E-002	3.57810E+000	9	...........
	67	0.906667	3.07738E-002	-2.78121E-004	0.00000E+000	-8.55883E-006	-1.68088E-001	3.07681E-002	3.57810E+000	9	...........
	68	0.92	2.84130E-002	-2.79901E-004	0.00000E+000	-7.95284E-006	-1.68088E-001	2.84104E-002	3.57810E+000	9	...........
	69	0.933333	2.60638E-002	-2.78811E-004	0.00000E+000	-7.26688E-006	-1.68088E-001	2.60642E-002	3.57810E+000	9	...........
	70	0.946667	2.37554E-002	-2.78328E-004	0.00000E+000	-6.61178E-006	-1.68088E-001	2.37522E-002	3.57810E+000	9	...........
	71	0.96	2.14655E-002	-2.77507E-004	0.00000E+000	-5.95682E-006	-1.68088E-001	2.14605E-002	3.57810E+000	9	...........
	72	0.97333	1.92175E-002	-2.78620E-004	0.00000E+000	-5.35439E-006	-1.68088E-001	1.92047E-002	3.57810E+000	9	...........
	73	0.98667	1.69778E-002	-2.78563E-004	0.00000E+000	-4.72938E-006	-1.68088E-001	1.69663E-002	3.57810E+000	9	...........
	74	1	1.47682E-002	-2.78980E-004	0.00000E+000	-4.12005E-006	-1.68088E-001	1.47544E-002	3.57810E+000	9	...........
	75	1.01333	1.25556E-002	-2.78296E-004	0.00000E+000	-3.49417E-006	-1.68088E-001	1.25464E-002	3.57810E+000	9	...........
	76	1.02667	1.03545E-002	-2.79464E-004	0.00000E+000	-2.89370E-006	-1.68088E-001	1.03395E-002	3.57810E+000	9	...........
	77	1.04	8.21248E-003	-2.79466E-004	0.00000E+000	-2.29511E-006	-1.68088E-001	8.19643E-003	3.57810E+000	9	...........
	78	1.05333	6.05760E-003	-2.77809E-004	0.00000E+000	-1.68286E-006	-1.68088E-001	6.03923E-003	3.57810E+000	9	...........
	79	1.06667	3.94285E-003	-2.77710E-004	0.00000E+000	-1.09497E-006	-1.68088E-001	3.92468E-003	3.57810E+000	9	...........
	80	1.08	1.83196E-003	-2.78930E-004	0.00000E+000	-5.10989E-007	-1.68088E-001	1.81308E-003	3.57810E+000	9	...........
	81	1.08667	2.24138E-004	-2.78883E-004	0.00000E+000	-6.25082E-008	-1.68088E-001	2.01277E-004	3.57810E+000	9	...........
STARTTIMEOFFSET	QUANT	833.1152	Start Time Offset (s)
