EXPLAIN
TAG	PWR800_DISCHARGE
TITLE	LABEL	PWR Cyclic Charge Discharge (Cell) - Discharge Step	Test &Identifier
DATE	LABEL	7-7-2017	Date
TIME	LABEL	15:57:51	Time
NOTES	NOTES	3	&Notes...
	supercap test cell
	2.8mg
	6M KOH
PSTAT	PSTAT	IFC5000-01520	Potentiostat
CAPACITY	QUANT	1.00000E-003	Capacity (A-hr)
CELLTYPE	SELECTOR	1	&Cell Type
WORKINGCONNECTION	SELECTOR	0	&Working Lead
MAXDISCHARGETIME	VARIABLEANDUNITS	1.00000E+002	s	1.00000E+002	second(s)	Max &Discharge Time
DISCHARGEMODE	MULTIPARAM	0	2.80000E-004	&Discharge Mode	Constant Current	Amp(s)
SAMPLETIME	QUANT	1.00000E-002	Sa&mple Period (s)
DISCHARGESTOPAT1	MULTIPARAM	3	0.00000E+000	Discharge Stop At &1	Voltage < Limit	V
DISCHARGESTOPAT2	MULTIPARAM	0	0.00000E+000	Discharge Stop At &2	None	N/A
AESBHCSELECTOR	TOGGLE	F	Save Both Half Cells
IRCOMP	TOGGLE	F	IR &Measure
EOC	QUANT	0	Open Circuit (V)
SEQUENCER	TOGGLE	TRUE	Run as Sequence
PSTATMODEL	IQUANT	53	Pstat Model
PSTATSECTION	LABEL	IFC5000-01520	Pstat Section
PSTATSERIALNO	LABEL	01520	Pstat Serial Number
CTRLMODE	IQUANT	0	Control Mode
ELECTROMETER	IQUANT	1	RE=0 or CS=1
IESTAB	IQUANT	0	I/E Stability
CASPEED	IQUANT	4	Control Amp Speed
CONVENTION	IQUANT	1	Current Convention
ICHRANGE	IQUANT	2	Ich Range
ICHRANGEMODE	TOGGLE	T	Ich Auto Range
ICHOFFSETENABLE	TOGGLE	F	Ich Offset Enable
ICHOFFSET	QUANT	0	Ich Offset (V)
ICHFILTER	IQUANT	1	Ich Filter
VCHRANGE	IQUANT	2	Vch Range
VCHRANGEMODE	TOGGLE	T	Vch Auto Range
VCHOFFSETENABLE	TOGGLE	F	Vch Offset Enable
VCHOFFSET	QUANT	0	Vch Offset (V)
VCHFILTER	IQUANT	1	Vch Filter
IERANGELOWERLIMIT	IQUANT	9	I/E Range Lower Limit
IERANGEMODE	TOGGLE	F	I/E AutoRange
IERANGE	IQUANT	9	I/E Range
ACHSELECT	IQUANT	1	Ach Select
ACHRANGE	IQUANT	2	Ach Range
ACHOFFSETENABLE	TOGGLE	F	Ach Offset Enable
ACHOFFSET	QUANT	0	Ach Offset (V)
ACHFILTER	IQUANT	1	Ach Filter
CABLEID	IQUANT	14	Cable ID
DCCALDATE	LABEL	5-7-2017	DC Calibration Date
ACCALDATE	LABEL	12/3/2015	AC Calibration Date
FRAMEWORKVERSION	QUANT	7.01	Framework Version
INSTRUMENTVERSION	LABEL	4.00	Instrument Version
CURVE	TABLE	74
	Pt	T	Vf	Im	Vu	Pwr	Sig	Ach	Temp	IERange	Over
	#	s	V	A	V	W	V	V	deg C	#	bits
	0	0.013333	5.37856E-001	-2.78537E-004	0.00000E+000	-1.49813E-004	-1.68088E-001	5.38115E-001	3.57900E+000	9	...........
	1	0.026667	5.05750E-001	-2.78720E-004	0.00000E+000	-1.40962E-004	-1.68088E-001	5.06034E-001	3.57900E+000	9	...........
	2	0.04	4.76718E-001	-2.79115E-004	0.00000E+000	-1.33059E-004	-1.68088E-001	4.76851E-001	3.57900E+000	9	...........
	3	0.053333	4.49744E-001	-2.78373E-004	0.00000E+000	-1.25196E-004	-1.68088E-001	4.49848E-001	3.57900E+000	9	...........
	4	0.066667	4.24610E-001	-2.79509E-004	0.00000E+000	-1.18683E-004	-1.68088E-001	4.24714E-001	3.57900E+000	9	...........
	5	0.08	4.01227E-001	-2.78220E-004	0.00000E+000	-1.11629E-004	-1.68088E-001	4.01322E-001	3.57900E+000	9	...........
	6	0.093333	3.79444E-001	-2.78513E-004	0.00000E+000	-1.05680E-004	-1.68088E-001	3.79528E-001	3.57900E+000	9	...........
	7	0.106667	3.59159E-001	-2.77742E-004	0.00000E+000	-9.97538E-005	-1.68088E-001	3.59245E-001	3.57900E+000	9	...........
	8	0.12	3.40287E-001	-2.79453E-004	0.00000E+000	-9.50944E-005	-1.68088E-001	3.40366E-001	3.57900E+000	9	...........
	9	0.133333	3.22763E-001	-2.78811E-004	0.00000E+000	-8.99899E-005	-1.68088E-001	3.22840E-001	3.57900E+000	9	...........
	10	0.146667	3.06494E-001	-2.78090E-004	0.00000E+000	-8.52331E-005	-1.68088E-001	3.06570E-001	3.57900E+000	9	...........
	11	0.16	2.91371E-001	-2.78723E-004	0.00000E+000	-8.12116E-005	-1.68088E-001	2.91442E-001	3.57900E+000	9	...........
	12	0.173333	2.77304E-001	-2.78327E-004	0.00000E+000	-7.71813E-005	-1.68088E-001	2.77377E-001	3.57900E+000	9	...........
	13	0.186667	2.64236E-001	-2.78666E-004	0.00000E+000	-7.36336E-005	-1.68088E-001	2.64300E-001	3.57900E+000	9	...........
	14	0.2	2.52080E-001	-2.77910E-004	0.00000E+000	-7.00556E-005	-1.68088E-001	2.52139E-001	3.57900E+000	9	...........
	15	0.213333	2.40746E-001	-2.78605E-004	0.00000E+000	-6.70732E-005	-1.68088E-001	2.40802E-001	3.57900E+000	9	...........
	16	0.226667	2.30167E-001	-2.79002E-004	0.00000E+000	-6.42171E-005	-1.68088E-001	2.30223E-001	3.57900E+000	9	...........
	17	0.24	2.20275E-001	-2.79051E-004	0.00000E+000	-6.14680E-005	-1.68088E-001	2.20321E-001	3.57900E+000	9	...........
	18	0.253333	2.11043E-001	-2.79487E-004	0.00000E+000	-5.89838E-005	-1.68088E-001	2.11094E-001	3.57900E+000	9	...........
	19	0.266667	2.02425E-001	-2.78035E-004	0.00000E+000	-5.62812E-005	-1.68088E-001	2.02474E-001	3.57900E+000	9	...........
	20	0.28	1.94316E-001	-2.78755E-004	0.00000E+000	-5.41667E-005	-1.68088E-001	1.94358E-001	3.57900E+000	9	...........
	21	0.293333	1.86640E-001	-2.79010E-004	0.00000E+000	-5.20746E-005	-1.68088E-001	1.86682E-001	3.57900E+000	9	...........
	22	0.306667	1.79423E-001	-2.78600E-004	0.00000E+000	-4.99871E-005	-1.68088E-001	1.79459E-001	3.57900E+000	9	...........
	23	0.32	1.72586E-001	-2.79598E-004	0.00000E+000	-4.82547E-005	-1.68088E-001	1.72628E-001	3.57900E+000	9	...........
	24	0.333333	1.66101E-001	-2.78593E-004	0.00000E+000	-4.62746E-005	-1.68088E-001	1.66140E-001	3.57900E+000	9	...........
	25	0.346667	1.59893E-001	-2.79020E-004	0.00000E+000	-4.46133E-005	-1.68088E-001	1.59933E-001	3.57900E+000	9	...........
	26	0.36	1.53969E-001	-2.77420E-004	0.00000E+000	-4.27143E-005	-1.68088E-001	1.54003E-001	3.57900E+000	9	...........
	27	0.373333	1.48332E-001	-2.77504E-004	0.00000E+000	-4.11628E-005	-1.68088E-001	1.48365E-001	3.57900E+000	9	...........
	28	0.386667	1.42941E-001	-2.80094E-004	0.00000E+000	-4.00368E-005	-1.68088E-001	1.42972E-001	3.57830E+000	9	...........
	29	0.4	1.37777E-001	-2.78809E-004	0.00000E+000	-3.84135E-005	-1.68088E-001	1.37812E-001	3.57760E+000	9	...........
	30	0.413333	1.32815E-001	-2.78576E-004	0.00000E+000	-3.69989E-005	-1.68088E-001	1.32846E-001	3.57760E+000	9	...........
	31	0.426667	1.28026E-001	-2.79772E-004	0.00000E+000	-3.58181E-005	-1.68088E-001	1.28059E-001	3.57760E+000	9	...........
	32	0.44	1.23427E-001	-2.78659E-004	0.00000E+000	-3.43940E-005	-1.68088E-001	1.23459E-001	3.57760E+000	9	...........
	33	0.453333	1.18968E-001	-2.79618E-004	0.00000E+000	-3.32656E-005	-1.68088E-001	1.18998E-001	3.57760E+000	9	...........
	34	0.466667	1.14692E-001	-2.78184E-004	0.00000E+000	-3.19054E-005	-1.68088E-001	1.14721E-001	3.57760E+000	9	...........
	35	0.48	1.10507E-001	-2.78897E-004	0.00000E+000	-3.08200E-005	-1.68088E-001	1.10537E-001	3.57760E+000	9	...........
	36	0.493333	1.06473E-001	-2.79754E-004	0.00000E+000	-2.97862E-005	-1.68088E-001	1.06500E-001	3.57760E+000	9	...........
	37	0.506667	1.02556E-001	-2.78566E-004	0.00000E+000	-2.85685E-005	-1.68088E-001	1.02587E-001	3.57760E+000	9	...........
	38	0.52	9.87281E-002	-2.78103E-004	0.00000E+000	-2.74566E-005	-1.68088E-001	9.87533E-002	3.57760E+000	9	...........
	39	0.533333	9.50104E-002	-2.78511E-004	0.00000E+000	-2.64615E-005	-1.68088E-001	9.50302E-002	3.57760E+000	9	...........
	40	0.546667	9.13710E-002	-2.79881E-004	0.00000E+000	-2.55731E-005	-1.68088E-001	9.13975E-002	3.57760E+000	9	...........
	41	0.56	8.78050E-002	-2.79232E-004	0.00000E+000	-2.45180E-005	-1.68088E-001	8.78246E-002	3.57760E+000	9	...........
	42	0.573333	8.43205E-002	-2.78692E-004	0.00000E+000	-2.34994E-005	-1.68088E-001	8.43415E-002	3.57760E+000	9	...........
	43	0.586667	8.09209E-002	-2.79557E-004	0.00000E+000	-2.26220E-005	-1.68088E-001	8.09385E-002	3.57760E+000	9	...........
	44	0.6	7.75790E-002	-2.79108E-004	0.00000E+000	-2.16529E-005	-1.68088E-001	7.75956E-002	3.57760E+000	9	...........
	45	0.613333	7.43408E-002	-2.77988E-004	0.00000E+000	-2.06659E-005	-1.68088E-001	7.43550E-002	3.57760E+000	9	...........
	46	0.626667	7.11120E-002	-2.79704E-004	0.00000E+000	-1.98903E-005	-1.68088E-001	7.11247E-002	3.57760E+000	9	...........
	47	0.64	6.79604E-002	-2.77883E-004	0.00000E+000	-1.88850E-005	-1.68088E-001	6.79749E-002	3.57760E+000	9	...........
	48	0.653333	6.48855E-002	-2.77741E-004	0.00000E+000	-1.80214E-005	-1.68088E-001	6.48970E-002	3.57760E+000	9	...........
	49	0.666667	6.18435E-002	-2.78313E-004	0.00000E+000	-1.72119E-005	-1.68088E-001	6.18574E-002	3.57760E+000	9	...........
	50	0.68	5.88391E-002	-2.78205E-004	0.00000E+000	-1.63693E-005	-1.68088E-001	5.88523E-002	3.57760E+000	9	...........
	51	0.693333	5.59260E-002	-2.78426E-004	0.00000E+000	-1.55713E-005	-1.68088E-001	5.59380E-002	3.57760E+000	9	...........
	52	0.706667	5.30438E-002	-2.78523E-004	0.00000E+000	-1.47739E-005	-1.68088E-001	5.30551E-002	3.57760E+000	9	...........
	53	0.72	5.01830E-002	-2.78202E-004	0.00000E+000	-1.39610E-005	-1.68088E-001	5.01898E-002	3.57760E+000	9	...........
	54	0.733333	4.73983E-002	-2.79413E-004	0.00000E+000	-1.32437E-005	-1.68088E-001	4.74087E-002	3.57760E+000	9	...........
	55	0.746667	4.46244E-002	-2.77056E-004	0.00000E+000	-1.23635E-005	-1.68088E-001	4.46321E-002	3.57760E+000	9	...........
	56	0.76	4.18875E-002	-2.79599E-004	0.00000E+000	-1.17117E-005	-1.68088E-001	4.18973E-002	3.57760E+000	9	...........
	57	0.773333	3.92245E-002	-2.79960E-004	0.00000E+000	-1.09813E-005	-1.68088E-001	3.92265E-002	3.57760E+000	9	...........
	58	0.786667	3.65867E-002	-2.78820E-004	0.00000E+000	-1.02011E-005	-1.68088E-001	3.65920E-002	3.57760E+000	9	...........
	59	0.8	3.39581E-002	-2.78347E-004	0.00000E+000	-9.45212E-006	-1.68088E-001	3.39610E-002	3.57760E+000	9	...........
	60	0.813333	3.13814E-002	-2.79455E-004	0.00000E+000	-8.76970E-006	-1.68088E-001	3.13792E-002	3.57760E+000	9	...........
	61	0.826667	2.88389E-002	-2.79023E-004	0.00000E+000	-8.04671E-006	-1.68088E-001	2.88357E-002	3.57760E+000	9	...........
	62	0.84	2.63237E-002	-2.78312E-004	0.00000E+000	-7.32622E-006	-1.68088E-001	2.63202E-002	3.57760E+000	9	...........
	63	0.853333	2.38274E-002	-2.79214E-004	0.00000E+000	-6.65293E-006	-1.68088E-001	2.38267E-002	3.57760E+000	9	...........
	64	0.866667	2.13591E-002	-2.79681E-004	0.00000E+000	-5.97375E-006	-1.68088E-001	2.13524E-002	3.57760E+000	9	...........
	65	0.88	1.89236E-002	-2.78755E-004	0.00000E+000	-5.27506E-006	-1.68088E-001	1.89146E-002	3.57760E+000	9	...........
	66	0.893333	1.65234E-002	-2.79466E-004	0.00000E+000	-4.61771E-006	-1.68088E-001	1.65136E-002	3.57760E+000	9	...........
	67	0.906667	1.41756E-002	-2.77728E-004	0.00000E+000	-3.93696E-006	-1.68088E-001	1.41630E-002	3.57760E+000	9	...........
	68	0.92	1.18498E-002	-2.79288E-004	0.00000E+000	-3.30949E-006	-1.68088E-001	1.18345E-002	3.57760E+000	9	...........
	69	0.933333	9.54441E-003	-2.78849E-004	0.00000E+000	-2.66145E-006	-1.68088E-001	9.52808E-003	3.57760E+000	9	...........
	70	0.946667	7.24929E-003	-2.78768E-004	0.00000E+000	-2.02087E-006	-1.68088E-001	7.23749E-003	3.57760E+000	9	...........
	71	0.96	4.98655E-003	-2.77604E-004	0.00000E+000	-1.38429E-006	-1.68088E-001	4.96927E-003	3.57760E+000	9	...........
	72	0.97333	2.72859E-003	-2.79572E-004	0.00000E+000	-7.62836E-007	-1.68088E-001	2.70642E-003	3.57760E+000	9	...........
	73	0.985	5.79733E-004	-2.78737E-004	0.00000E+000	-1.61593E-007	-1.68088E-001	5.61722E-004	3.57760E+000	9	...........
STARTTIMEOFFSET	QUANT	1018.072	Start Time Offset (s)
