EXPLAIN
TAG	PWR800_DISCHARGE
TITLE	LABEL	PWR Cyclic Charge Discharge (Cell) - Discharge Step	Test &Identifier
DATE	LABEL	7-7-2017	Date
TIME	LABEL	16:22:11	Time
NOTES	NOTES	3	&Notes...
	supercap test cell
	2.8mg
	6M KOH
PSTAT	PSTAT	IFC5000-01520	Potentiostat
CAPACITY	QUANT	1.00000E-003	Capacity (A-hr)
CELLTYPE	SELECTOR	1	&Cell Type
WORKINGCONNECTION	SELECTOR	0	&Working Lead
MAXDISCHARGETIME	VARIABLEANDUNITS	1.00000E+002	s	1.00000E+002	second(s)	Max &Discharge Time
DISCHARGEMODE	MULTIPARAM	0	2.80000E-004	&Discharge Mode	Constant Current	Amp(s)
SAMPLETIME	QUANT	1.00000E-002	Sa&mple Period (s)
DISCHARGESTOPAT1	MULTIPARAM	3	0.00000E+000	Discharge Stop At &1	Voltage < Limit	V
DISCHARGESTOPAT2	MULTIPARAM	0	0.00000E+000	Discharge Stop At &2	None	N/A
AESBHCSELECTOR	TOGGLE	F	Save Both Half Cells
IRCOMP	TOGGLE	F	IR &Measure
EOC	QUANT	0	Open Circuit (V)
SEQUENCER	TOGGLE	TRUE	Run as Sequence
PSTATMODEL	IQUANT	53	Pstat Model
PSTATSECTION	LABEL	IFC5000-01520	Pstat Section
PSTATSERIALNO	LABEL	01520	Pstat Serial Number
CTRLMODE	IQUANT	0	Control Mode
ELECTROMETER	IQUANT	1	RE=0 or CS=1
IESTAB	IQUANT	0	I/E Stability
CASPEED	IQUANT	4	Control Amp Speed
CONVENTION	IQUANT	1	Current Convention
ICHRANGE	IQUANT	2	Ich Range
ICHRANGEMODE	TOGGLE	T	Ich Auto Range
ICHOFFSETENABLE	TOGGLE	F	Ich Offset Enable
ICHOFFSET	QUANT	0	Ich Offset (V)
ICHFILTER	IQUANT	1	Ich Filter
VCHRANGE	IQUANT	2	Vch Range
VCHRANGEMODE	TOGGLE	T	Vch Auto Range
VCHOFFSETENABLE	TOGGLE	F	Vch Offset Enable
VCHOFFSET	QUANT	0	Vch Offset (V)
VCHFILTER	IQUANT	1	Vch Filter
IERANGELOWERLIMIT	IQUANT	9	I/E Range Lower Limit
IERANGEMODE	TOGGLE	F	I/E AutoRange
IERANGE	IQUANT	9	I/E Range
ACHSELECT	IQUANT	1	Ach Select
ACHRANGE	IQUANT	2	Ach Range
ACHOFFSETENABLE	TOGGLE	F	Ach Offset Enable
ACHOFFSET	QUANT	0	Ach Offset (V)
ACHFILTER	IQUANT	1	Ach Filter
CABLEID	IQUANT	14	Cable ID
DCCALDATE	LABEL	5-7-2017	DC Calibration Date
ACCALDATE	LABEL	12/3/2015	AC Calibration Date
FRAMEWORKVERSION	QUANT	7.01	Framework Version
INSTRUMENTVERSION	LABEL	4.00	Instrument Version
CURVE	TABLE	52
	Pt	T	Vf	Im	Vu	Pwr	Sig	Ach	Temp	IERange	Over
	#	s	V	A	V	W	V	V	deg C	#	bits
	0	0.013333	4.73274E-001	-2.78750E-004	0.00000E+000	-1.31925E-004	-1.68088E-001	4.73409E-001	3.57880E+000	9	...........
	1	0.026667	4.40126E-001	-2.79310E-004	0.00000E+000	-1.22932E-004	-1.68088E-001	4.40224E-001	3.57880E+000	9	...........
	2	0.04	4.09965E-001	-2.78915E-004	0.00000E+000	-1.14345E-004	-1.68088E-001	4.10057E-001	3.57880E+000	9	...........
	3	0.053333	3.82250E-001	-2.80272E-004	0.00000E+000	-1.07134E-004	-1.68088E-001	3.82336E-001	3.57880E+000	9	...........
	4	0.066667	3.56686E-001	-2.79769E-004	0.00000E+000	-9.97897E-005	-1.68088E-001	3.56761E-001	3.57880E+000	9	...........
	5	0.08	3.33032E-001	-2.80012E-004	0.00000E+000	-9.32530E-005	-1.68088E-001	3.33104E-001	3.57880E+000	9	...........
	6	0.093333	3.11153E-001	-2.78995E-004	0.00000E+000	-8.68101E-005	-1.68088E-001	3.11220E-001	3.57880E+000	9	...........
	7	0.106667	2.90899E-001	-2.79192E-004	0.00000E+000	-8.12167E-005	-1.68088E-001	2.90966E-001	3.57880E+000	9	...........
	8	0.12	2.72158E-001	-2.78985E-004	0.00000E+000	-7.59281E-005	-1.68088E-001	2.72219E-001	3.57880E+000	9	...........
	9	0.133333	2.54823E-001	-2.78968E-004	0.00000E+000	-7.10873E-005	-1.68088E-001	2.54881E-001	3.57880E+000	9	...........
	10	0.146667	2.38800E-001	-2.79652E-004	0.00000E+000	-6.67808E-005	-1.68088E-001	2.38847E-001	3.57880E+000	9	...........
	11	0.16	2.23993E-001	-2.79252E-004	0.00000E+000	-6.25506E-005	-1.68088E-001	2.24045E-001	3.57880E+000	9	...........
	12	0.173333	2.10311E-001	-2.78616E-004	0.00000E+000	-5.85958E-005	-1.68088E-001	2.10360E-001	3.57880E+000	9	...........
	13	0.186667	1.97618E-001	-2.78401E-004	0.00000E+000	-5.50170E-005	-1.68088E-001	1.97659E-001	3.57880E+000	9	...........
	14	0.2	1.85827E-001	-2.79014E-004	0.00000E+000	-5.18482E-005	-1.68088E-001	1.85868E-001	3.57880E+000	9	...........
	15	0.213333	1.74887E-001	-2.80277E-004	0.00000E+000	-4.90168E-005	-1.68088E-001	1.74928E-001	3.57880E+000	9	...........
	16	0.226667	1.64719E-001	-2.80665E-004	0.00000E+000	-4.62310E-005	-1.68088E-001	1.64761E-001	3.57880E+000	9	...........
	17	0.24	1.55237E-001	-2.78386E-004	0.00000E+000	-4.32158E-005	-1.68088E-001	1.55273E-001	3.57880E+000	9	...........
	18	0.253333	1.46357E-001	-2.79163E-004	0.00000E+000	-4.08574E-005	-1.68088E-001	1.46391E-001	3.57880E+000	9	...........
	19	0.266667	1.38072E-001	-2.77079E-004	0.00000E+000	-3.82567E-005	-1.68088E-001	1.38101E-001	3.57880E+000	9	...........
	20	0.28	1.30272E-001	-2.79371E-004	0.00000E+000	-3.63941E-005	-1.68088E-001	1.30299E-001	3.57880E+000	9	...........
	21	0.293333	1.22940E-001	-2.79999E-004	0.00000E+000	-3.44230E-005	-1.68088E-001	1.22969E-001	3.57880E+000	9	...........
	22	0.306667	1.16018E-001	-2.79491E-004	0.00000E+000	-3.24260E-005	-1.68088E-001	1.16049E-001	3.57880E+000	9	...........
	23	0.32	1.09492E-001	-2.79726E-004	0.00000E+000	-3.06278E-005	-1.68088E-001	1.09520E-001	3.57880E+000	9	...........
	24	0.333333	1.03299E-001	-2.80731E-004	0.00000E+000	-2.89991E-005	-1.68088E-001	1.03326E-001	3.57880E+000	9	...........
	25	0.346667	9.74189E-002	-2.79346E-004	0.00000E+000	-2.72136E-005	-1.68088E-001	9.74438E-002	3.57880E+000	9	...........
	26	0.36	9.18256E-002	-2.79559E-004	0.00000E+000	-2.56707E-005	-1.68088E-001	9.18532E-002	3.57792E+000	9	...........
	27	0.373333	8.65001E-002	-2.79308E-004	0.00000E+000	-2.41602E-005	-1.68088E-001	8.65202E-002	3.57740E+000	9	...........
	28	0.386667	8.14198E-002	-2.79746E-004	0.00000E+000	-2.27769E-005	-1.68088E-001	8.14343E-002	3.57740E+000	9	...........
	29	0.4	7.65620E-002	-2.78437E-004	0.00000E+000	-2.13177E-005	-1.68088E-001	7.65800E-002	3.57740E+000	9	...........
	30	0.413333	7.18461E-002	-2.78626E-004	0.00000E+000	-2.00182E-005	-1.68088E-001	7.18600E-002	3.57740E+000	9	...........
	31	0.426667	6.72785E-002	-2.79331E-004	0.00000E+000	-1.87930E-005	-1.68088E-001	6.72935E-002	3.57740E+000	9	...........
	32	0.44	6.28923E-002	-2.79646E-004	0.00000E+000	-1.75876E-005	-1.68088E-001	6.29032E-002	3.57740E+000	9	...........
	33	0.453333	5.86311E-002	-2.79705E-004	0.00000E+000	-1.63994E-005	-1.68088E-001	5.86406E-002	3.57740E+000	9	...........
	34	0.466667	5.45062E-002	-2.78818E-004	0.00000E+000	-1.51973E-005	-1.68088E-001	5.45136E-002	3.57740E+000	9	...........
	35	0.48	5.05430E-002	-2.77599E-004	0.00000E+000	-1.40307E-005	-1.68088E-001	5.05503E-002	3.57740E+000	9	...........
	36	0.493333	4.67115E-002	-2.79263E-004	0.00000E+000	-1.30448E-005	-1.68088E-001	4.67204E-002	3.57740E+000	9	...........
	37	0.506667	4.29713E-002	-2.78647E-004	0.00000E+000	-1.19738E-005	-1.68088E-001	4.29798E-002	3.57740E+000	9	...........
	38	0.52	3.93390E-002	-2.78574E-004	0.00000E+000	-1.09588E-005	-1.68088E-001	3.93420E-002	3.57740E+000	9	...........
	39	0.533333	3.57934E-002	-2.79538E-004	0.00000E+000	-1.00056E-005	-1.68088E-001	3.57969E-002	3.57740E+000	9	...........
	40	0.546667	3.22829E-002	-2.78785E-004	0.00000E+000	-8.99999E-006	-1.68088E-001	3.22828E-002	3.57740E+000	9	...........
	41	0.56	2.88977E-002	-2.78172E-004	0.00000E+000	-8.03851E-006	-1.68088E-001	2.88971E-002	3.57740E+000	9	...........
	42	0.573333	2.56257E-002	-2.79317E-004	0.00000E+000	-7.15767E-006	-1.68088E-001	2.56193E-002	3.57740E+000	9	...........
	43	0.586667	2.23949E-002	-2.79344E-004	0.00000E+000	-6.25587E-006	-1.68088E-001	2.23868E-002	3.57740E+000	9	...........
	44	0.6	1.91972E-002	-2.77643E-004	0.00000E+000	-5.32998E-006	-1.68088E-001	1.91900E-002	3.57740E+000	9	...........
	45	0.613333	1.60477E-002	-2.80511E-004	0.00000E+000	-4.50156E-006	-1.68088E-001	1.60396E-002	3.57740E+000	9	...........
	46	0.626667	1.30055E-002	-2.79138E-004	0.00000E+000	-3.63033E-006	-1.68088E-001	1.29928E-002	3.57740E+000	9	...........
	47	0.64	1.00187E-002	-2.80628E-004	0.00000E+000	-2.81153E-006	-1.68088E-001	1.00005E-002	3.57740E+000	9	...........
	48	0.653333	7.08068E-003	-2.79151E-004	0.00000E+000	-1.97658E-006	-1.68088E-001	7.06922E-003	3.57740E+000	9	...........
	49	0.666667	4.21673E-003	-2.79702E-004	0.00000E+000	-1.17943E-006	-1.68088E-001	4.20375E-003	3.57740E+000	9	...........
	50	0.68	1.43005E-003	-2.80372E-004	0.00000E+000	-4.00947E-007	-1.68088E-001	1.41279E-003	3.57740E+000	9	...........
	51	0.681667	-1.32180E-004	-2.80006E-004	0.00000E+000	3.70113E-008	-1.68088E-001	-1.53963E-004	3.57740E+000	9	...........
STARTTIMEOFFSET	QUANT	2007.249	Start Time Offset (s)
