EXPLAIN
TAG	PWR800_DISCHARGE
TITLE	LABEL	PWR Cyclic Charge Discharge (Cell) - Discharge Step	Test &Identifier
DATE	LABEL	7-7-2017	Date
TIME	LABEL	16:21:18	Time
NOTES	NOTES	3	&Notes...
	supercap test cell
	2.8mg
	6M KOH
PSTAT	PSTAT	IFC5000-01520	Potentiostat
CAPACITY	QUANT	1.00000E-003	Capacity (A-hr)
CELLTYPE	SELECTOR	1	&Cell Type
WORKINGCONNECTION	SELECTOR	0	&Working Lead
MAXDISCHARGETIME	VARIABLEANDUNITS	1.00000E+002	s	1.00000E+002	second(s)	Max &Discharge Time
DISCHARGEMODE	MULTIPARAM	0	2.80000E-004	&Discharge Mode	Constant Current	Amp(s)
SAMPLETIME	QUANT	1.00000E-002	Sa&mple Period (s)
DISCHARGESTOPAT1	MULTIPARAM	3	0.00000E+000	Discharge Stop At &1	Voltage < Limit	V
DISCHARGESTOPAT2	MULTIPARAM	0	0.00000E+000	Discharge Stop At &2	None	N/A
AESBHCSELECTOR	TOGGLE	F	Save Both Half Cells
IRCOMP	TOGGLE	F	IR &Measure
EOC	QUANT	0	Open Circuit (V)
SEQUENCER	TOGGLE	TRUE	Run as Sequence
PSTATMODEL	IQUANT	53	Pstat Model
PSTATSECTION	LABEL	IFC5000-01520	Pstat Section
PSTATSERIALNO	LABEL	01520	Pstat Serial Number
CTRLMODE	IQUANT	0	Control Mode
ELECTROMETER	IQUANT	1	RE=0 or CS=1
IESTAB	IQUANT	0	I/E Stability
CASPEED	IQUANT	4	Control Amp Speed
CONVENTION	IQUANT	1	Current Convention
ICHRANGE	IQUANT	2	Ich Range
ICHRANGEMODE	TOGGLE	T	Ich Auto Range
ICHOFFSETENABLE	TOGGLE	F	Ich Offset Enable
ICHOFFSET	QUANT	0	Ich Offset (V)
ICHFILTER	IQUANT	1	Ich Filter
VCHRANGE	IQUANT	2	Vch Range
VCHRANGEMODE	TOGGLE	T	Vch Auto Range
VCHOFFSETENABLE	TOGGLE	F	Vch Offset Enable
VCHOFFSET	QUANT	0	Vch Offset (V)
VCHFILTER	IQUANT	1	Vch Filter
IERANGELOWERLIMIT	IQUANT	9	I/E Range Lower Limit
IERANGEMODE	TOGGLE	F	I/E AutoRange
IERANGE	IQUANT	9	I/E Range
ACHSELECT	IQUANT	1	Ach Select
ACHRANGE	IQUANT	2	Ach Range
ACHOFFSETENABLE	TOGGLE	F	Ach Offset Enable
ACHOFFSET	QUANT	0	Ach Offset (V)
ACHFILTER	IQUANT	1	Ach Filter
CABLEID	IQUANT	14	Cable ID
DCCALDATE	LABEL	5-7-2017	DC Calibration Date
ACCALDATE	LABEL	12/3/2015	AC Calibration Date
FRAMEWORKVERSION	QUANT	7.01	Framework Version
INSTRUMENTVERSION	LABEL	4.00	Instrument Version
CURVE	TABLE	53
	Pt	T	Vf	Im	Vu	Pwr	Sig	Ach	Temp	IERange	Over
	#	s	V	A	V	W	V	V	deg C	#	bits
	0	0.013333	4.98653E-001	-2.77391E-004	0.00000E+000	-1.38322E-004	-1.68088E-001	4.98903E-001	3.58100E+000	9	...........
	1	0.026667	4.65337E-001	-2.79758E-004	0.00000E+000	-1.30182E-004	-1.68088E-001	4.65442E-001	3.58100E+000	9	...........
	2	0.04	4.34566E-001	-2.78578E-004	0.00000E+000	-1.21060E-004	-1.68088E-001	4.34666E-001	3.58100E+000	9	...........
	3	0.053333	4.06071E-001	-2.79441E-004	0.00000E+000	-1.13473E-004	-1.68088E-001	4.06167E-001	3.58100E+000	9	...........
	4	0.066667	3.79575E-001	-2.79512E-004	0.00000E+000	-1.06096E-004	-1.68088E-001	3.79654E-001	3.58100E+000	9	...........
	5	0.08	3.54884E-001	-2.79461E-004	0.00000E+000	-9.91760E-005	-1.68088E-001	3.54967E-001	3.58100E+000	9	...........
	6	0.093333	3.31912E-001	-2.78960E-004	0.00000E+000	-9.25904E-005	-1.68088E-001	3.31984E-001	3.58100E+000	9	...........
	7	0.106667	3.10539E-001	-2.78360E-004	0.00000E+000	-8.64416E-005	-1.68088E-001	3.10603E-001	3.58100E+000	9	...........
	8	0.12	2.90663E-001	-2.78895E-004	0.00000E+000	-8.10643E-005	-1.68088E-001	2.90736E-001	3.58100E+000	9	...........
	9	0.133333	2.72220E-001	-2.78840E-004	0.00000E+000	-7.59058E-005	-1.68088E-001	2.72285E-001	3.58100E+000	9	...........
	10	0.146667	2.55117E-001	-2.78987E-004	0.00000E+000	-7.11744E-005	-1.68088E-001	2.55179E-001	3.58100E+000	9	...........
	11	0.16	2.39274E-001	-2.77996E-004	0.00000E+000	-6.65171E-005	-1.68088E-001	2.39325E-001	3.58100E+000	9	...........
	12	0.173333	2.24610E-001	-2.77324E-004	0.00000E+000	-6.22898E-005	-1.68088E-001	2.24662E-001	3.58100E+000	9	...........
	13	0.186667	2.10997E-001	-2.78866E-004	0.00000E+000	-5.88398E-005	-1.68088E-001	2.11043E-001	3.58100E+000	9	...........
	14	0.2	1.98361E-001	-2.77946E-004	0.00000E+000	-5.51336E-005	-1.68088E-001	1.98410E-001	3.58100E+000	9	...........
	15	0.213333	1.86647E-001	-2.79220E-004	0.00000E+000	-5.21156E-005	-1.68088E-001	1.86694E-001	3.58100E+000	9	...........
	16	0.226667	1.75729E-001	-2.78768E-004	0.00000E+000	-4.89874E-005	-1.68088E-001	1.75778E-001	3.58100E+000	9	...........
	17	0.24	1.65590E-001	-2.80416E-004	0.00000E+000	-4.64339E-005	-1.68088E-001	1.65619E-001	3.58100E+000	9	...........
	18	0.253333	1.56096E-001	-2.79006E-004	0.00000E+000	-4.35517E-005	-1.68088E-001	1.56131E-001	3.58100E+000	9	...........
	19	0.266667	1.47256E-001	-2.77555E-004	0.00000E+000	-4.08717E-005	-1.68088E-001	1.47288E-001	3.58100E+000	9	...........
	20	0.28	1.38947E-001	-2.79429E-004	0.00000E+000	-3.88258E-005	-1.68088E-001	1.38977E-001	3.58100E+000	9	...........
	21	0.293333	1.31152E-001	-2.78850E-004	0.00000E+000	-3.65717E-005	-1.68088E-001	1.31181E-001	3.58100E+000	9	...........
	22	0.306667	1.23776E-001	-2.78058E-004	0.00000E+000	-3.44170E-005	-1.68088E-001	1.23811E-001	3.58100E+000	9	...........
	23	0.32	1.16828E-001	-2.77667E-004	0.00000E+000	-3.24394E-005	-1.68088E-001	1.16866E-001	3.58100E+000	9	...........
	24	0.333333	1.10289E-001	-2.79735E-004	0.00000E+000	-3.08516E-005	-1.68088E-001	1.10313E-001	3.58100E+000	9	...........
	25	0.346667	1.04063E-001	-2.79121E-004	0.00000E+000	-2.90462E-005	-1.68088E-001	1.04084E-001	3.58100E+000	9	...........
	26	0.36	9.81355E-002	-2.78300E-004	0.00000E+000	-2.73111E-005	-1.68088E-001	9.81667E-002	3.58100E+000	9	...........
	27	0.373333	9.24650E-002	-2.78562E-004	0.00000E+000	-2.57573E-005	-1.68088E-001	9.24876E-002	3.57890E+000	9	...........
	28	0.386667	8.70643E-002	-2.79260E-004	0.00000E+000	-2.43136E-005	-1.68088E-001	8.70851E-002	3.57820E+000	9	...........
	29	0.4	8.19010E-002	-2.78453E-004	0.00000E+000	-2.28056E-005	-1.68088E-001	8.19172E-002	3.57820E+000	9	...........
	30	0.413333	7.69425E-002	-2.77035E-004	0.00000E+000	-2.13158E-005	-1.68088E-001	7.69590E-002	3.57820E+000	9	...........
	31	0.426667	7.21483E-002	-2.78399E-004	0.00000E+000	-2.00860E-005	-1.68088E-001	7.21593E-002	3.57820E+000	9	...........
	32	0.44	6.75582E-002	-2.79677E-004	0.00000E+000	-1.88945E-005	-1.68088E-001	6.75682E-002	3.57820E+000	9	...........
	33	0.453333	6.31362E-002	-2.79616E-004	0.00000E+000	-1.76539E-005	-1.68088E-001	6.31507E-002	3.57820E+000	9	...........
	34	0.466667	5.88899E-002	-2.79040E-004	0.00000E+000	-1.64326E-005	-1.68088E-001	5.89014E-002	3.57820E+000	9	...........
	35	0.48	5.48043E-002	-2.77857E-004	0.00000E+000	-1.52277E-005	-1.68088E-001	5.48175E-002	3.57820E+000	9	...........
	36	0.493333	5.07669E-002	-2.79811E-004	0.00000E+000	-1.42051E-005	-1.68088E-001	5.07782E-002	3.57820E+000	9	...........
	37	0.506667	4.68997E-002	-2.78373E-004	0.00000E+000	-1.30556E-005	-1.68088E-001	4.69014E-002	3.57820E+000	9	...........
	38	0.52	4.30891E-002	-2.79579E-004	0.00000E+000	-1.20468E-005	-1.68088E-001	4.30975E-002	3.57820E+000	9	...........
	39	0.533333	3.93934E-002	-2.78283E-004	0.00000E+000	-1.09625E-005	-1.68088E-001	3.93985E-002	3.57820E+000	9	...........
	40	0.546667	3.58155E-002	-2.78902E-004	0.00000E+000	-9.98900E-006	-1.68088E-001	3.58181E-002	3.57820E+000	9	...........
	41	0.56	3.23594E-002	-2.78363E-004	0.00000E+000	-9.00767E-006	-1.68088E-001	3.23644E-002	3.57820E+000	9	...........
	42	0.573333	2.89806E-002	-2.78669E-004	0.00000E+000	-8.07597E-006	-1.68088E-001	2.89755E-002	3.57820E+000	9	...........
	43	0.586667	2.56723E-002	-2.78679E-004	0.00000E+000	-7.15434E-006	-1.68088E-001	2.56717E-002	3.57820E+000	9	...........
	44	0.6	2.24224E-002	-2.79825E-004	0.00000E+000	-6.27435E-006	-1.68088E-001	2.24191E-002	3.57820E+000	9	...........
	45	0.613333	1.92647E-002	-2.79491E-004	0.00000E+000	-5.38430E-006	-1.68088E-001	1.92576E-002	3.57820E+000	9	...........
	46	0.626667	1.61633E-002	-2.79186E-004	0.00000E+000	-4.51257E-006	-1.68088E-001	1.61583E-002	3.57820E+000	9	...........
	47	0.64	1.30908E-002	-2.80352E-004	0.00000E+000	-3.67005E-006	-1.68088E-001	1.30820E-002	3.57820E+000	9	...........
	48	0.653333	1.01196E-002	-2.79541E-004	0.00000E+000	-2.82885E-006	-1.68088E-001	1.01086E-002	3.57820E+000	9	...........
	49	0.666667	7.18029E-003	-2.78635E-004	0.00000E+000	-2.00068E-006	-1.68088E-001	7.16387E-003	3.57820E+000	9	...........
	50	0.68	4.27261E-003	-2.78781E-004	0.00000E+000	-1.19112E-006	-1.68088E-001	4.25294E-003	3.57820E+000	9	...........
	51	0.693333	1.43651E-003	-2.78024E-004	0.00000E+000	-3.99384E-007	-1.68088E-001	1.41592E-003	3.57820E+000	9	...........
	52	0.695	-1.25272E-004	-2.79998E-004	0.00000E+000	3.50760E-008	-1.68088E-001	-1.52661E-004	3.57820E+000	9	...........
STARTTIMEOFFSET	QUANT	1973.188	Start Time Offset (s)
