EXPLAIN
TAG	PWR800_DISCHARGE
TITLE	LABEL	PWR Cyclic Charge Discharge (Cell) - Discharge Step	Test &Identifier
DATE	LABEL	7-7-2017	Date
TIME	LABEL	16:07:30	Time
NOTES	NOTES	3	&Notes...
	supercap test cell
	2.8mg
	6M KOH
PSTAT	PSTAT	IFC5000-01520	Potentiostat
CAPACITY	QUANT	1.00000E-003	Capacity (A-hr)
CELLTYPE	SELECTOR	1	&Cell Type
WORKINGCONNECTION	SELECTOR	0	&Working Lead
MAXDISCHARGETIME	VARIABLEANDUNITS	1.00000E+002	s	1.00000E+002	second(s)	Max &Discharge Time
DISCHARGEMODE	MULTIPARAM	0	2.80000E-004	&Discharge Mode	Constant Current	Amp(s)
SAMPLETIME	QUANT	1.00000E-002	Sa&mple Period (s)
DISCHARGESTOPAT1	MULTIPARAM	3	0.00000E+000	Discharge Stop At &1	Voltage < Limit	V
DISCHARGESTOPAT2	MULTIPARAM	0	0.00000E+000	Discharge Stop At &2	None	N/A
AESBHCSELECTOR	TOGGLE	F	Save Both Half Cells
IRCOMP	TOGGLE	F	IR &Measure
EOC	QUANT	0	Open Circuit (V)
SEQUENCER	TOGGLE	TRUE	Run as Sequence
PSTATMODEL	IQUANT	53	Pstat Model
PSTATSECTION	LABEL	IFC5000-01520	Pstat Section
PSTATSERIALNO	LABEL	01520	Pstat Serial Number
CTRLMODE	IQUANT	0	Control Mode
ELECTROMETER	IQUANT	1	RE=0 or CS=1
IESTAB	IQUANT	0	I/E Stability
CASPEED	IQUANT	4	Control Amp Speed
CONVENTION	IQUANT	1	Current Convention
ICHRANGE	IQUANT	2	Ich Range
ICHRANGEMODE	TOGGLE	T	Ich Auto Range
ICHOFFSETENABLE	TOGGLE	F	Ich Offset Enable
ICHOFFSET	QUANT	0	Ich Offset (V)
ICHFILTER	IQUANT	1	Ich Filter
VCHRANGE	IQUANT	2	Vch Range
VCHRANGEMODE	TOGGLE	T	Vch Auto Range
VCHOFFSETENABLE	TOGGLE	F	Vch Offset Enable
VCHOFFSET	QUANT	0	Vch Offset (V)
VCHFILTER	IQUANT	1	Vch Filter
IERANGELOWERLIMIT	IQUANT	9	I/E Range Lower Limit
IERANGEMODE	TOGGLE	F	I/E AutoRange
IERANGE	IQUANT	9	I/E Range
ACHSELECT	IQUANT	1	Ach Select
ACHRANGE	IQUANT	2	Ach Range
ACHOFFSETENABLE	TOGGLE	F	Ach Offset Enable
ACHOFFSET	QUANT	0	Ach Offset (V)
ACHFILTER	IQUANT	1	Ach Filter
CABLEID	IQUANT	14	Cable ID
DCCALDATE	LABEL	5-7-2017	DC Calibration Date
ACCALDATE	LABEL	12/3/2015	AC Calibration Date
FRAMEWORKVERSION	QUANT	7.01	Framework Version
INSTRUMENTVERSION	LABEL	4.00	Instrument Version
CURVE	TABLE	63
	Pt	T	Vf	Im	Vu	Pwr	Sig	Ach	Temp	IERange	Over
	#	s	V	A	V	W	V	V	deg C	#	bits
	0	0.013333	5.00431E-001	-2.78770E-004	0.00000E+000	-1.39505E-004	-1.68088E-001	5.00666E-001	3.57740E+000	9	...........
	1	0.026667	4.68237E-001	-2.77910E-004	0.00000E+000	-1.30128E-004	-1.68088E-001	4.68372E-001	3.57740E+000	9	...........
	2	0.04	4.38779E-001	-2.79229E-004	0.00000E+000	-1.22520E-004	-1.68088E-001	4.38888E-001	3.57740E+000	9	...........
	3	0.053333	4.11651E-001	-2.78158E-004	0.00000E+000	-1.14504E-004	-1.68088E-001	4.11750E-001	3.57740E+000	9	...........
	4	0.066667	3.86569E-001	-2.78738E-004	0.00000E+000	-1.07752E-004	-1.68088E-001	3.86663E-001	3.57740E+000	9	...........
	5	0.08	3.63299E-001	-2.79873E-004	0.00000E+000	-1.01678E-004	-1.68088E-001	3.63390E-001	3.57740E+000	9	...........
	6	0.093333	3.41755E-001	-2.79135E-004	0.00000E+000	-9.53958E-005	-1.68088E-001	3.41839E-001	3.57740E+000	9	...........
	7	0.106667	3.21785E-001	-2.78772E-004	0.00000E+000	-8.97045E-005	-1.68088E-001	3.21866E-001	3.57740E+000	9	...........
	8	0.12	3.03279E-001	-2.79322E-004	0.00000E+000	-8.47125E-005	-1.68088E-001	3.03352E-001	3.57740E+000	9	...........
	9	0.133333	2.86116E-001	-2.77278E-004	0.00000E+000	-7.93335E-005	-1.68088E-001	2.86189E-001	3.57740E+000	9	...........
	10	0.146667	2.70227E-001	-2.77731E-004	0.00000E+000	-7.50505E-005	-1.68088E-001	2.70300E-001	3.57740E+000	9	...........
	11	0.16	2.55500E-001	-2.79530E-004	0.00000E+000	-7.14200E-005	-1.68088E-001	2.55568E-001	3.57740E+000	9	...........
	12	0.173333	2.41874E-001	-2.79653E-004	0.00000E+000	-6.76408E-005	-1.68088E-001	2.41935E-001	3.57740E+000	9	...........
	13	0.186667	2.29209E-001	-2.78978E-004	0.00000E+000	-6.39442E-005	-1.68088E-001	2.29257E-001	3.57740E+000	9	...........
	14	0.2	2.17441E-001	-2.79210E-004	0.00000E+000	-6.07117E-005	-1.68088E-001	2.17497E-001	3.57740E+000	9	...........
	15	0.213333	2.06497E-001	-2.78182E-004	0.00000E+000	-5.74439E-005	-1.68088E-001	2.06542E-001	3.57740E+000	9	...........
	16	0.226667	1.96332E-001	-2.79620E-004	0.00000E+000	-5.48982E-005	-1.68088E-001	1.96382E-001	3.57740E+000	9	...........
	17	0.24	1.86806E-001	-2.78712E-004	0.00000E+000	-5.20652E-005	-1.68088E-001	1.86852E-001	3.57740E+000	9	...........
	18	0.253333	1.77903E-001	-2.79888E-004	0.00000E+000	-4.97928E-005	-1.68088E-001	1.77950E-001	3.57740E+000	9	...........
	19	0.266667	1.69563E-001	-2.79401E-004	0.00000E+000	-4.73760E-005	-1.68088E-001	1.69606E-001	3.57740E+000	9	...........
	20	0.28	1.61739E-001	-2.78584E-004	0.00000E+000	-4.50578E-005	-1.68088E-001	1.61779E-001	3.57740E+000	9	...........
	21	0.293333	1.54365E-001	-2.79128E-004	0.00000E+000	-4.30875E-005	-1.68088E-001	1.54398E-001	3.57740E+000	9	...........
	22	0.306667	1.47377E-001	-2.78278E-004	0.00000E+000	-4.10116E-005	-1.68088E-001	1.47406E-001	3.57740E+000	9	...........
	23	0.32	1.40762E-001	-2.79292E-004	0.00000E+000	-3.93136E-005	-1.68088E-001	1.40795E-001	3.57740E+000	9	...........
	24	0.333333	1.34521E-001	-2.78042E-004	0.00000E+000	-3.74025E-005	-1.68088E-001	1.34553E-001	3.57740E+000	9	...........
	25	0.346667	1.28595E-001	-2.78778E-004	0.00000E+000	-3.58494E-005	-1.68088E-001	1.28629E-001	3.57740E+000	9	...........
	26	0.36	1.22885E-001	-2.79490E-004	0.00000E+000	-3.43452E-005	-1.68088E-001	1.22919E-001	3.57740E+000	9	...........
	27	0.373333	1.17446E-001	-2.76844E-004	0.00000E+000	-3.25143E-005	-1.68088E-001	1.17483E-001	3.57740E+000	9	...........
	28	0.386667	1.12249E-001	-2.78775E-004	0.00000E+000	-3.12921E-005	-1.68088E-001	1.12278E-001	3.57740E+000	9	...........
	29	0.4	1.07269E-001	-2.77649E-004	0.00000E+000	-2.97832E-005	-1.68088E-001	1.07301E-001	3.57740E+000	9	...........
	30	0.413333	1.02498E-001	-2.76649E-004	0.00000E+000	-2.83561E-005	-1.68088E-001	1.02518E-001	3.57740E+000	9	...........
	31	0.426667	9.78339E-002	-2.78983E-004	0.00000E+000	-2.72940E-005	-1.68088E-001	9.78610E-002	3.57740E+000	9	...........
	32	0.44	9.33395E-002	-2.80021E-004	0.00000E+000	-2.61370E-005	-1.68088E-001	9.33665E-002	3.57740E+000	9	...........
	33	0.453333	8.90289E-002	-2.78283E-004	0.00000E+000	-2.47753E-005	-1.68088E-001	8.90558E-002	3.57740E+000	9	...........
	34	0.466667	8.48344E-002	-2.78666E-004	0.00000E+000	-2.36404E-005	-1.68088E-001	8.48565E-002	3.57740E+000	9	...........
	35	0.48	8.07741E-002	-2.78649E-004	0.00000E+000	-2.25076E-005	-1.68088E-001	8.07907E-002	3.57740E+000	9	...........
	36	0.493333	7.68780E-002	-2.78692E-004	0.00000E+000	-2.14253E-005	-1.68088E-001	7.68951E-002	3.57740E+000	9	...........
	37	0.506667	7.30831E-002	-2.77703E-004	0.00000E+000	-2.02954E-005	-1.68088E-001	7.30993E-002	3.57740E+000	9	...........
	38	0.52	6.93866E-002	-2.79492E-004	0.00000E+000	-1.93930E-005	-1.68088E-001	6.94042E-002	3.57740E+000	9	...........
	39	0.533333	6.58000E-002	-2.78543E-004	0.00000E+000	-1.83281E-005	-1.68088E-001	6.58141E-002	3.57740E+000	9	...........
	40	0.546667	6.22688E-002	-2.78529E-004	0.00000E+000	-1.73437E-005	-1.68088E-001	6.22862E-002	3.57740E+000	9	...........
	41	0.56	5.88228E-002	-2.80236E-004	0.00000E+000	-1.64843E-005	-1.68088E-001	5.88345E-002	3.57740E+000	9	...........
	42	0.573333	5.54593E-002	-2.79853E-004	0.00000E+000	-1.55205E-005	-1.68088E-001	5.54738E-002	3.57740E+000	9	...........
	43	0.586667	5.21914E-002	-2.78880E-004	0.00000E+000	-1.45551E-005	-1.68088E-001	5.22066E-002	3.57740E+000	9	...........
	44	0.6	4.89717E-002	-2.76979E-004	0.00000E+000	-1.35641E-005	-1.68088E-001	4.89808E-002	3.57740E+000	9	...........
	45	0.613333	4.57634E-002	-2.78470E-004	0.00000E+000	-1.27437E-005	-1.68088E-001	4.57817E-002	3.57740E+000	9	...........
	46	0.626667	4.26245E-002	-2.79266E-004	0.00000E+000	-1.19036E-005	-1.68088E-001	4.26370E-002	3.57740E+000	9	...........
	47	0.64	3.95595E-002	-2.80145E-004	0.00000E+000	-1.10824E-005	-1.68088E-001	3.95685E-002	3.57740E+000	9	...........
	48	0.653333	3.65207E-002	-2.79990E-004	0.00000E+000	-1.02254E-005	-1.68088E-001	3.65296E-002	3.57740E+000	9	...........
	49	0.666667	3.35876E-002	-2.78305E-004	0.00000E+000	-9.34761E-006	-1.68088E-001	3.35916E-002	3.57740E+000	9	...........
	50	0.68	3.06748E-002	-2.78295E-004	0.00000E+000	-8.53662E-006	-1.68088E-001	3.06797E-002	3.57740E+000	9	...........
	51	0.693333	2.79041E-002	-2.78876E-004	0.00000E+000	-7.78179E-006	-1.68088E-001	2.79047E-002	3.57740E+000	9	...........
	52	0.706667	2.51149E-002	-2.78675E-004	0.00000E+000	-6.99888E-006	-1.68088E-001	2.51166E-002	3.57740E+000	9	...........
	53	0.72	2.23421E-002	-2.79744E-004	0.00000E+000	-6.25006E-006	-1.68088E-001	2.23430E-002	3.57740E+000	9	...........
	54	0.733333	1.96314E-002	-2.77997E-004	0.00000E+000	-5.45747E-006	-1.68088E-001	1.96292E-002	3.57740E+000	9	...........
	55	0.746667	1.69398E-002	-2.78857E-004	0.00000E+000	-4.72379E-006	-1.68088E-001	1.69339E-002	3.57740E+000	9	...........
	56	0.76	1.43403E-002	-2.78782E-004	0.00000E+000	-3.99781E-006	-1.68088E-001	1.43299E-002	3.57740E+000	9	...........
	57	0.773333	1.17415E-002	-2.79831E-004	0.00000E+000	-3.28564E-006	-1.68088E-001	1.17339E-002	3.57740E+000	9	...........
	58	0.786667	9.14992E-003	-2.78335E-004	0.00000E+000	-2.54675E-006	-1.68088E-001	9.13894E-003	3.57740E+000	9	...........
	59	0.8	6.59990E-003	-2.77931E-004	0.00000E+000	-1.83432E-006	-1.68088E-001	6.58719E-003	3.57740E+000	9	...........
	60	0.813333	4.08465E-003	-2.78736E-004	0.00000E+000	-1.13854E-006	-1.68088E-001	4.07458E-003	3.57740E+000	9	...........
	61	0.826667	1.59889E-003	-2.79953E-004	0.00000E+000	-4.47615E-007	-1.68088E-001	1.58322E-003	3.57792E+000	9	...........
	62	0.83	5.32243E-005	-2.76347E-004	0.00000E+000	-1.47084E-008	-1.68088E-001	4.15514E-005	3.57880E+000	9	...........
STARTTIMEOFFSET	QUANT	1422.493	Start Time Offset (s)
