EXPLAIN
TAG	PWR800_DISCHARGE
TITLE	LABEL	PWR Cyclic Charge Discharge (Cell) - Discharge Step	Test &Identifier
DATE	LABEL	7-7-2017	Date
TIME	LABEL	16:20:25	Time
NOTES	NOTES	3	&Notes...
	supercap test cell
	2.8mg
	6M KOH
PSTAT	PSTAT	IFC5000-01520	Potentiostat
CAPACITY	QUANT	1.00000E-003	Capacity (A-hr)
CELLTYPE	SELECTOR	1	&Cell Type
WORKINGCONNECTION	SELECTOR	0	&Working Lead
MAXDISCHARGETIME	VARIABLEANDUNITS	1.00000E+002	s	1.00000E+002	second(s)	Max &Discharge Time
DISCHARGEMODE	MULTIPARAM	0	2.80000E-004	&Discharge Mode	Constant Current	Amp(s)
SAMPLETIME	QUANT	1.00000E-002	Sa&mple Period (s)
DISCHARGESTOPAT1	MULTIPARAM	3	0.00000E+000	Discharge Stop At &1	Voltage < Limit	V
DISCHARGESTOPAT2	MULTIPARAM	0	0.00000E+000	Discharge Stop At &2	None	N/A
AESBHCSELECTOR	TOGGLE	F	Save Both Half Cells
IRCOMP	TOGGLE	F	IR &Measure
EOC	QUANT	0	Open Circuit (V)
SEQUENCER	TOGGLE	TRUE	Run as Sequence
PSTATMODEL	IQUANT	53	Pstat Model
PSTATSECTION	LABEL	IFC5000-01520	Pstat Section
PSTATSERIALNO	LABEL	01520	Pstat Serial Number
CTRLMODE	IQUANT	0	Control Mode
ELECTROMETER	IQUANT	1	RE=0 or CS=1
IESTAB	IQUANT	0	I/E Stability
CASPEED	IQUANT	4	Control Amp Speed
CONVENTION	IQUANT	1	Current Convention
ICHRANGE	IQUANT	2	Ich Range
ICHRANGEMODE	TOGGLE	T	Ich Auto Range
ICHOFFSETENABLE	TOGGLE	F	Ich Offset Enable
ICHOFFSET	QUANT	0	Ich Offset (V)
ICHFILTER	IQUANT	1	Ich Filter
VCHRANGE	IQUANT	2	Vch Range
VCHRANGEMODE	TOGGLE	T	Vch Auto Range
VCHOFFSETENABLE	TOGGLE	F	Vch Offset Enable
VCHOFFSET	QUANT	0	Vch Offset (V)
VCHFILTER	IQUANT	1	Vch Filter
IERANGELOWERLIMIT	IQUANT	9	I/E Range Lower Limit
IERANGEMODE	TOGGLE	F	I/E AutoRange
IERANGE	IQUANT	9	I/E Range
ACHSELECT	IQUANT	1	Ach Select
ACHRANGE	IQUANT	2	Ach Range
ACHOFFSETENABLE	TOGGLE	F	Ach Offset Enable
ACHOFFSET	QUANT	0	Ach Offset (V)
ACHFILTER	IQUANT	1	Ach Filter
CABLEID	IQUANT	14	Cable ID
DCCALDATE	LABEL	5-7-2017	DC Calibration Date
ACCALDATE	LABEL	12/3/2015	AC Calibration Date
FRAMEWORKVERSION	QUANT	7.01	Framework Version
INSTRUMENTVERSION	LABEL	4.00	Instrument Version
CURVE	TABLE	54
	Pt	T	Vf	Im	Vu	Pwr	Sig	Ach	Temp	IERange	Over
	#	s	V	A	V	W	V	V	deg C	#	bits
	0	0.013333	5.20305E-001	-2.79986E-004	0.00000E+000	-1.45678E-004	-1.68088E-001	5.20554E-001	3.57740E+000	9	...........
	1	0.026667	4.86509E-001	-2.79261E-004	0.00000E+000	-1.35863E-004	-1.68088E-001	4.86702E-001	3.57740E+000	9	...........
	2	0.04	4.55502E-001	-2.79149E-004	0.00000E+000	-1.27153E-004	-1.68088E-001	4.55608E-001	3.57740E+000	9	...........
	3	0.053333	4.26476E-001	-2.80046E-004	0.00000E+000	-1.19433E-004	-1.68088E-001	4.26574E-001	3.57740E+000	9	...........
	4	0.066667	3.99344E-001	-2.78728E-004	0.00000E+000	-1.11308E-004	-1.68088E-001	3.99432E-001	3.57740E+000	9	...........
	5	0.08	3.73959E-001	-2.79466E-004	0.00000E+000	-1.04509E-004	-1.68088E-001	3.74043E-001	3.57740E+000	9	...........
	6	0.093333	3.50229E-001	-2.78947E-004	0.00000E+000	-9.76953E-005	-1.68088E-001	3.50310E-001	3.57740E+000	9	...........
	7	0.106667	3.28065E-001	-2.78655E-004	0.00000E+000	-9.14170E-005	-1.68088E-001	3.28141E-001	3.57740E+000	9	...........
	8	0.12	3.07389E-001	-2.78924E-004	0.00000E+000	-8.57381E-005	-1.68088E-001	3.07461E-001	3.57740E+000	9	...........
	9	0.133333	2.88145E-001	-2.77911E-004	0.00000E+000	-8.00786E-005	-1.68088E-001	2.88212E-001	3.57740E+000	9	...........
	10	0.146667	2.70275E-001	-2.79952E-004	0.00000E+000	-7.56641E-005	-1.68088E-001	2.70342E-001	3.57740E+000	9	...........
	11	0.16	2.53713E-001	-2.78843E-004	0.00000E+000	-7.07461E-005	-1.68088E-001	2.53777E-001	3.57740E+000	9	...........
	12	0.173333	2.38335E-001	-2.79108E-004	0.00000E+000	-6.65213E-005	-1.68088E-001	2.38387E-001	3.57740E+000	9	...........
	13	0.186667	2.24026E-001	-2.79772E-004	0.00000E+000	-6.26763E-005	-1.68088E-001	2.24076E-001	3.57740E+000	9	...........
	14	0.2	2.10698E-001	-2.79910E-004	0.00000E+000	-5.89763E-005	-1.68088E-001	2.10742E-001	3.57740E+000	9	...........
	15	0.213333	1.98336E-001	-2.78284E-004	0.00000E+000	-5.51939E-005	-1.68088E-001	1.98388E-001	3.57740E+000	9	...........
	16	0.226667	1.86830E-001	-2.78729E-004	0.00000E+000	-5.20749E-005	-1.68088E-001	1.86868E-001	3.57740E+000	9	...........
	17	0.24	1.76142E-001	-2.79141E-004	0.00000E+000	-4.91684E-005	-1.68088E-001	1.76181E-001	3.57740E+000	9	...........
	18	0.253333	1.66156E-001	-2.78689E-004	0.00000E+000	-4.63060E-005	-1.68088E-001	1.66196E-001	3.57740E+000	9	...........
	19	0.266667	1.56812E-001	-2.78898E-004	0.00000E+000	-4.37346E-005	-1.68088E-001	1.56848E-001	3.57740E+000	9	...........
	20	0.28	1.48051E-001	-2.79274E-004	0.00000E+000	-4.13467E-005	-1.68088E-001	1.48086E-001	3.57740E+000	9	...........
	21	0.293333	1.39831E-001	-2.79250E-004	0.00000E+000	-3.90478E-005	-1.68088E-001	1.39861E-001	3.57740E+000	9	...........
	22	0.306667	1.32130E-001	-2.78549E-004	0.00000E+000	-3.68048E-005	-1.68088E-001	1.32160E-001	3.57740E+000	9	...........
	23	0.32	1.24838E-001	-2.78352E-004	0.00000E+000	-3.47489E-005	-1.68088E-001	1.24869E-001	3.57740E+000	9	...........
	24	0.333333	1.17939E-001	-2.78643E-004	0.00000E+000	-3.28629E-005	-1.68088E-001	1.17965E-001	3.57740E+000	9	...........
	25	0.346667	1.11373E-001	-2.79567E-004	0.00000E+000	-3.11361E-005	-1.68088E-001	1.11400E-001	3.57740E+000	9	...........
	26	0.36	1.05211E-001	-2.80028E-004	0.00000E+000	-2.94621E-005	-1.68088E-001	1.05237E-001	3.57740E+000	9	...........
	27	0.373333	9.93870E-002	-2.78531E-004	0.00000E+000	-2.76824E-005	-1.68088E-001	9.94114E-002	3.57740E+000	9	...........
	28	0.386667	9.38080E-002	-2.78649E-004	0.00000E+000	-2.61395E-005	-1.68088E-001	9.38267E-002	3.57740E+000	9	...........
	29	0.4	8.84474E-002	-2.77610E-004	0.00000E+000	-2.45539E-005	-1.68088E-001	8.84689E-002	3.57740E+000	9	...........
	30	0.413333	8.32778E-002	-2.79061E-004	0.00000E+000	-2.32396E-005	-1.68088E-001	8.32946E-002	3.57740E+000	9	...........
	31	0.426667	7.83551E-002	-2.79476E-004	0.00000E+000	-2.18984E-005	-1.68088E-001	7.83656E-002	3.57740E+000	9	...........
	32	0.44	7.36333E-002	-2.79985E-004	0.00000E+000	-2.06162E-005	-1.68088E-001	7.36460E-002	3.57740E+000	9	...........
	33	0.453333	6.90731E-002	-2.78822E-004	0.00000E+000	-1.92591E-005	-1.68088E-001	6.90872E-002	3.57740E+000	9	...........
	34	0.466667	6.46424E-002	-2.78964E-004	0.00000E+000	-1.80329E-005	-1.68088E-001	6.46594E-002	3.57740E+000	9	...........
	35	0.48	6.03204E-002	-2.78798E-004	0.00000E+000	-1.68172E-005	-1.68088E-001	6.03340E-002	3.57740E+000	9	...........
	36	0.493333	5.61338E-002	-2.80674E-004	0.00000E+000	-1.57553E-005	-1.68088E-001	5.61494E-002	3.57740E+000	9	...........
	37	0.506667	5.21316E-002	-2.79246E-004	0.00000E+000	-1.45575E-005	-1.68088E-001	5.21455E-002	3.57740E+000	9	...........
	38	0.52	4.82449E-002	-2.78684E-004	0.00000E+000	-1.34451E-005	-1.68088E-001	4.82575E-002	3.57740E+000	9	...........
	39	0.533333	4.44870E-002	-2.78544E-004	0.00000E+000	-1.23916E-005	-1.68088E-001	4.44947E-002	3.57740E+000	9	...........
	40	0.546667	4.08207E-002	-2.77821E-004	0.00000E+000	-1.13408E-005	-1.68088E-001	4.08294E-002	3.57740E+000	9	...........
	41	0.56	3.72545E-002	-2.78747E-004	0.00000E+000	-1.03846E-005	-1.68088E-001	3.72576E-002	3.57740E+000	9	...........
	42	0.573333	3.37335E-002	-2.79905E-004	0.00000E+000	-9.44218E-006	-1.68088E-001	3.37416E-002	3.57740E+000	9	...........
	43	0.586667	3.03415E-002	-2.78816E-004	0.00000E+000	-8.45968E-006	-1.68088E-001	3.03456E-002	3.57740E+000	9	...........
	44	0.6	2.69987E-002	-2.78041E-004	0.00000E+000	-7.50675E-006	-1.68088E-001	2.69992E-002	3.57740E+000	9	...........
	45	0.613333	2.36931E-002	-2.78512E-004	0.00000E+000	-6.59882E-006	-1.68088E-001	2.36855E-002	3.57740E+000	9	...........
	46	0.626667	2.04783E-002	-2.79294E-004	0.00000E+000	-5.71946E-006	-1.68088E-001	2.04753E-002	3.57740E+000	9	...........
	47	0.64	1.73113E-002	-2.79044E-004	0.00000E+000	-4.83060E-006	-1.68088E-001	1.73010E-002	3.57740E+000	9	...........
	48	0.653333	1.41929E-002	-2.78111E-004	0.00000E+000	-3.94721E-006	-1.68088E-001	1.41853E-002	3.57740E+000	9	...........
	49	0.666667	1.11705E-002	-2.78903E-004	0.00000E+000	-3.11547E-006	-1.68088E-001	1.11560E-002	3.57740E+000	9	...........
	50	0.68	8.20630E-003	-2.80102E-004	0.00000E+000	-2.29860E-006	-1.68088E-001	8.19124E-003	3.57740E+000	9	...........
	51	0.693333	5.29954E-003	-2.78016E-004	0.00000E+000	-1.47336E-006	-1.68088E-001	5.28333E-003	3.57740E+000	9	...........
	52	0.706667	2.42754E-003	-2.79689E-004	0.00000E+000	-6.78956E-007	-1.68088E-001	2.40910E-003	3.57740E+000	9	...........
	53	0.713333	3.26851E-004	-2.79294E-004	0.00000E+000	-9.12874E-008	-1.68088E-001	3.03714E-004	3.57740E+000	9	...........
STARTTIMEOFFSET	QUANT	1938.906	Start Time Offset (s)
