EXPLAIN
TAG	PWR800_DISCHARGE
TITLE	LABEL	PWR Cyclic Charge Discharge (Cell) - Discharge Step	Test &Identifier
DATE	LABEL	7-7-2017	Date
TIME	LABEL	15:39:13	Time
NOTES	NOTES	3	&Notes...
	supercap test cell
	2.8mg
	6M KOH
PSTAT	PSTAT	IFC5000-01520	Potentiostat
CAPACITY	QUANT	1.00000E-003	Capacity (A-hr)
CELLTYPE	SELECTOR	1	&Cell Type
WORKINGCONNECTION	SELECTOR	0	&Working Lead
MAXDISCHARGETIME	VARIABLEANDUNITS	1.00000E+002	s	1.00000E+002	second(s)	Max &Discharge Time
DISCHARGEMODE	MULTIPARAM	0	2.80000E-004	&Discharge Mode	Constant Current	Amp(s)
SAMPLETIME	QUANT	1.00000E-002	Sa&mple Period (s)
DISCHARGESTOPAT1	MULTIPARAM	3	0.00000E+000	Discharge Stop At &1	Voltage < Limit	V
DISCHARGESTOPAT2	MULTIPARAM	0	0.00000E+000	Discharge Stop At &2	None	N/A
AESBHCSELECTOR	TOGGLE	F	Save Both Half Cells
IRCOMP	TOGGLE	F	IR &Measure
EOC	QUANT	0	Open Circuit (V)
SEQUENCER	TOGGLE	TRUE	Run as Sequence
PSTATMODEL	IQUANT	53	Pstat Model
PSTATSECTION	LABEL	IFC5000-01520	Pstat Section
PSTATSERIALNO	LABEL	01520	Pstat Serial Number
CTRLMODE	IQUANT	0	Control Mode
ELECTROMETER	IQUANT	1	RE=0 or CS=1
IESTAB	IQUANT	0	I/E Stability
CASPEED	IQUANT	4	Control Amp Speed
CONVENTION	IQUANT	1	Current Convention
ICHRANGE	IQUANT	2	Ich Range
ICHRANGEMODE	TOGGLE	T	Ich Auto Range
ICHOFFSETENABLE	TOGGLE	F	Ich Offset Enable
ICHOFFSET	QUANT	0	Ich Offset (V)
ICHFILTER	IQUANT	1	Ich Filter
VCHRANGE	IQUANT	2	Vch Range
VCHRANGEMODE	TOGGLE	T	Vch Auto Range
VCHOFFSETENABLE	TOGGLE	F	Vch Offset Enable
VCHOFFSET	QUANT	0	Vch Offset (V)
VCHFILTER	IQUANT	1	Vch Filter
IERANGELOWERLIMIT	IQUANT	9	I/E Range Lower Limit
IERANGEMODE	TOGGLE	F	I/E AutoRange
IERANGE	IQUANT	9	I/E Range
ACHSELECT	IQUANT	1	Ach Select
ACHRANGE	IQUANT	2	Ach Range
ACHOFFSETENABLE	TOGGLE	F	Ach Offset Enable
ACHOFFSET	QUANT	0	Ach Offset (V)
ACHFILTER	IQUANT	1	Ach Filter
CABLEID	IQUANT	14	Cable ID
DCCALDATE	LABEL	5-7-2017	DC Calibration Date
ACCALDATE	LABEL	12/3/2015	AC Calibration Date
FRAMEWORKVERSION	QUANT	7.01	Framework Version
INSTRUMENTVERSION	LABEL	4.00	Instrument Version
CURVE	TABLE	138
	Pt	T	Vf	Im	Vu	Pwr	Sig	Ach	Temp	IERange	Over
	#	s	V	A	V	W	V	V	deg C	#	bits
	0	0.013333	5.75207E-001	-2.78898E-004	0.00000E+000	-1.60424E-004	-1.68088E-001	5.75501E-001	3.57810E+000	9	...........
	1	0.026667	5.48016E-001	-2.79628E-004	0.00000E+000	-1.53241E-004	-1.68088E-001	5.48327E-001	3.57810E+000	9	...........
	2	0.04	5.23814E-001	-2.79348E-004	0.00000E+000	-1.46326E-004	-1.68088E-001	5.24096E-001	3.57810E+000	9	...........
	3	0.053333	5.01817E-001	-2.78783E-004	0.00000E+000	-1.39898E-004	-1.68088E-001	5.02131E-001	3.57810E+000	9	...........
	4	0.066667	4.81969E-001	-2.79131E-004	0.00000E+000	-1.34533E-004	-1.68088E-001	4.82130E-001	3.57810E+000	9	...........
	5	0.08	4.63657E-001	-2.78048E-004	0.00000E+000	-1.28919E-004	-1.68088E-001	4.63773E-001	3.57810E+000	9	...........
	6	0.093333	4.46628E-001	-2.78527E-004	0.00000E+000	-1.24398E-004	-1.68088E-001	4.46741E-001	3.57810E+000	9	...........
	7	0.106667	4.30875E-001	-2.79083E-004	0.00000E+000	-1.20250E-004	-1.68088E-001	4.30988E-001	3.57810E+000	9	...........
	8	0.12	4.16270E-001	-2.79019E-004	0.00000E+000	-1.16147E-004	-1.68088E-001	4.16377E-001	3.57810E+000	9	...........
	9	0.133333	4.02679E-001	-2.78718E-004	0.00000E+000	-1.12234E-004	-1.68088E-001	4.02782E-001	3.57810E+000	9	...........
	10	0.146667	3.90030E-001	-2.79374E-004	0.00000E+000	-1.08964E-004	-1.68088E-001	3.90126E-001	3.57810E+000	9	...........
	11	0.16	3.78225E-001	-2.79132E-004	0.00000E+000	-1.05575E-004	-1.68088E-001	3.78312E-001	3.57810E+000	9	...........
	12	0.173333	3.67173E-001	-2.79390E-004	0.00000E+000	-1.02584E-004	-1.68088E-001	3.67263E-001	3.57810E+000	9	...........
	13	0.186667	3.56767E-001	-2.78693E-004	0.00000E+000	-9.94284E-005	-1.68088E-001	3.56860E-001	3.57810E+000	9	...........
	14	0.2	3.47009E-001	-2.79045E-004	0.00000E+000	-9.68310E-005	-1.68088E-001	3.47090E-001	3.57810E+000	9	...........
	15	0.213333	3.37824E-001	-2.78864E-004	0.00000E+000	-9.42068E-005	-1.68088E-001	3.37909E-001	3.57810E+000	9	...........
	16	0.226667	3.29191E-001	-2.78936E-004	0.00000E+000	-9.18232E-005	-1.68088E-001	3.29272E-001	3.57810E+000	9	...........
	17	0.24	3.21030E-001	-2.78534E-004	0.00000E+000	-8.94178E-005	-1.68088E-001	3.21108E-001	3.57810E+000	9	...........
	18	0.253333	3.13302E-001	-2.79191E-004	0.00000E+000	-8.74710E-005	-1.68088E-001	3.13385E-001	3.57810E+000	9	...........
	19	0.266667	3.05985E-001	-2.79468E-004	0.00000E+000	-8.55129E-005	-1.68088E-001	3.06061E-001	3.57810E+000	9	...........
	20	0.28	2.99052E-001	-2.79031E-004	0.00000E+000	-8.34448E-005	-1.68088E-001	2.99131E-001	3.57810E+000	9	...........
	21	0.293333	2.92429E-001	-2.79132E-004	0.00000E+000	-8.16262E-005	-1.68088E-001	2.92500E-001	3.57810E+000	9	...........
	22	0.306667	2.86097E-001	-2.77922E-004	0.00000E+000	-7.95124E-005	-1.68088E-001	2.86166E-001	3.57810E+000	9	...........
	23	0.32	2.80050E-001	-2.79393E-004	0.00000E+000	-7.82439E-005	-1.68088E-001	2.80125E-001	3.57810E+000	9	...........
	24	0.333333	2.74282E-001	-2.78451E-004	0.00000E+000	-7.63741E-005	-1.68088E-001	2.74361E-001	3.57810E+000	9	...........
	25	0.346667	2.68777E-001	-2.78370E-004	0.00000E+000	-7.48193E-005	-1.68088E-001	2.68848E-001	3.57810E+000	9	...........
	26	0.36	2.63503E-001	-2.79183E-004	0.00000E+000	-7.35657E-005	-1.68088E-001	2.63578E-001	3.57810E+000	9	...........
	27	0.373333	2.58379E-001	-2.78904E-004	0.00000E+000	-7.20630E-005	-1.68088E-001	2.58449E-001	3.57810E+000	9	...........
	28	0.386667	2.53462E-001	-2.79618E-004	0.00000E+000	-7.08725E-005	-1.68088E-001	2.53528E-001	3.57810E+000	9	...........
	29	0.4	2.48752E-001	-2.79589E-004	0.00000E+000	-6.95483E-005	-1.68088E-001	2.48822E-001	3.57810E+000	9	...........
	30	0.413333	2.44196E-001	-2.78706E-004	0.00000E+000	-6.80589E-005	-1.68088E-001	2.44254E-001	3.57810E+000	9	...........
	31	0.426667	2.39780E-001	-2.79947E-004	0.00000E+000	-6.71256E-005	-1.68088E-001	2.39840E-001	3.57810E+000	9	...........
	32	0.44	2.35555E-001	-2.78937E-004	0.00000E+000	-6.57052E-005	-1.68088E-001	2.35610E-001	3.57810E+000	9	...........
	33	0.453333	2.31403E-001	-2.80144E-004	0.00000E+000	-6.48262E-005	-1.68088E-001	2.31461E-001	3.57810E+000	9	...........
	34	0.466667	2.27336E-001	-2.79232E-004	0.00000E+000	-6.34795E-005	-1.68088E-001	2.27394E-001	3.57810E+000	9	...........
	35	0.48	2.23372E-001	-2.79286E-004	0.00000E+000	-6.23847E-005	-1.68088E-001	2.23424E-001	3.57810E+000	9	...........
	36	0.493333	2.19531E-001	-2.78383E-004	0.00000E+000	-6.11138E-005	-1.68088E-001	2.19586E-001	3.57810E+000	9	...........
	37	0.506667	2.15761E-001	-2.78700E-004	0.00000E+000	-6.01325E-005	-1.68088E-001	2.15814E-001	3.57810E+000	9	...........
	38	0.52	2.12049E-001	-2.79031E-004	0.00000E+000	-5.91682E-005	-1.68088E-001	2.12095E-001	3.57810E+000	9	...........
	39	0.533333	2.08504E-001	-2.79388E-004	0.00000E+000	-5.82534E-005	-1.68088E-001	2.08554E-001	3.57810E+000	9	...........
	40	0.546667	2.05046E-001	-2.79141E-004	0.00000E+000	-5.72366E-005	-1.68088E-001	2.05092E-001	3.57810E+000	9	...........
	41	0.56	2.01638E-001	-2.79800E-004	0.00000E+000	-5.64182E-005	-1.68088E-001	2.01682E-001	3.57810E+000	9	...........
	42	0.573333	1.98319E-001	-2.79942E-004	0.00000E+000	-5.55178E-005	-1.68088E-001	1.98362E-001	3.57810E+000	9	...........
	43	0.586667	1.95121E-001	-2.80294E-004	0.00000E+000	-5.46913E-005	-1.68088E-001	1.95163E-001	3.57810E+000	9	...........
	44	0.6	1.91956E-001	-2.78323E-004	0.00000E+000	-5.34258E-005	-1.68088E-001	1.92003E-001	3.57810E+000	9	...........
	45	0.613333	1.88828E-001	-2.78826E-004	0.00000E+000	-5.26500E-005	-1.68088E-001	1.88873E-001	3.57810E+000	9	...........
	46	0.626667	1.85762E-001	-2.78783E-004	0.00000E+000	-5.17874E-005	-1.68088E-001	1.85807E-001	3.57810E+000	9	...........
	47	0.64	1.82712E-001	-2.78702E-004	0.00000E+000	-5.09222E-005	-1.68088E-001	1.82752E-001	3.57810E+000	9	...........
	48	0.653333	1.79694E-001	-2.79098E-004	0.00000E+000	-5.01522E-005	-1.68088E-001	1.79738E-001	3.57810E+000	9	...........
	49	0.666667	1.76755E-001	-2.79151E-004	0.00000E+000	-4.93413E-005	-1.68088E-001	1.76799E-001	3.57810E+000	9	...........
	50	0.68	1.73871E-001	-2.79054E-004	0.00000E+000	-4.85193E-005	-1.68088E-001	1.73911E-001	3.57810E+000	9	...........
	51	0.693333	1.71041E-001	-2.79632E-004	0.00000E+000	-4.78285E-005	-1.68088E-001	1.71077E-001	3.57810E+000	9	...........
	52	0.706667	1.68277E-001	-2.79646E-004	0.00000E+000	-4.70579E-005	-1.68088E-001	1.68318E-001	3.57823E+000	9	...........
	53	0.72	1.65562E-001	-2.79232E-004	0.00000E+000	-4.62303E-005	-1.68088E-001	1.65599E-001	3.57950E+000	9	...........
	54	0.733333	1.62896E-001	-2.79902E-004	0.00000E+000	-4.55951E-005	-1.68088E-001	1.62931E-001	3.57950E+000	9	...........
	55	0.746667	1.60203E-001	-2.78576E-004	0.00000E+000	-4.46286E-005	-1.68088E-001	1.60231E-001	3.57950E+000	9	...........
	56	0.76	1.57505E-001	-2.78632E-004	0.00000E+000	-4.38859E-005	-1.68088E-001	1.57540E-001	3.57950E+000	9	...........
	57	0.773333	1.54860E-001	-2.78652E-004	0.00000E+000	-4.31521E-005	-1.68088E-001	1.54895E-001	3.57950E+000	9	...........
	58	0.786667	1.52288E-001	-2.79181E-004	0.00000E+000	-4.25161E-005	-1.68088E-001	1.52316E-001	3.57950E+000	9	...........
	59	0.8	1.49699E-001	-2.78523E-004	0.00000E+000	-4.16945E-005	-1.68088E-001	1.49728E-001	3.57950E+000	9	...........
	60	0.813333	1.47123E-001	-2.79503E-004	0.00000E+000	-4.11215E-005	-1.68088E-001	1.47153E-001	3.57950E+000	9	...........
	61	0.826667	1.44591E-001	-2.78872E-004	0.00000E+000	-4.03224E-005	-1.68088E-001	1.44623E-001	3.57950E+000	9	...........
	62	0.84	1.42136E-001	-2.78958E-004	0.00000E+000	-3.96499E-005	-1.68088E-001	1.42167E-001	3.57950E+000	9	...........
	63	0.853333	1.39744E-001	-2.79165E-004	0.00000E+000	-3.90117E-005	-1.68088E-001	1.39779E-001	3.57950E+000	9	...........
	64	0.866667	1.37333E-001	-2.79075E-004	0.00000E+000	-3.83261E-005	-1.68088E-001	1.37367E-001	3.57950E+000	9	...........
	65	0.88	1.34955E-001	-2.78471E-004	0.00000E+000	-3.75810E-005	-1.68088E-001	1.34990E-001	3.57950E+000	9	...........
	66	0.893333	1.32621E-001	-2.78876E-004	0.00000E+000	-3.69848E-005	-1.68088E-001	1.32661E-001	3.57950E+000	9	...........
	67	0.906667	1.30301E-001	-2.78941E-004	0.00000E+000	-3.63462E-005	-1.68088E-001	1.30330E-001	3.57950E+000	9	...........
	68	0.92	1.27976E-001	-2.78959E-004	0.00000E+000	-3.57002E-005	-1.68088E-001	1.28004E-001	3.57950E+000	9	...........
	69	0.933333	1.25649E-001	-2.78329E-004	0.00000E+000	-3.49718E-005	-1.68088E-001	1.25679E-001	3.57950E+000	9	...........
	70	0.946667	1.23355E-001	-2.79477E-004	0.00000E+000	-3.44748E-005	-1.68088E-001	1.23381E-001	3.57950E+000	9	...........
	71	0.96	1.21096E-001	-2.79378E-004	0.00000E+000	-3.38316E-005	-1.68088E-001	1.21135E-001	3.57950E+000	9	...........
	72	0.97333	1.18888E-001	-2.79232E-004	0.00000E+000	-3.31973E-005	-1.68088E-001	1.18916E-001	3.57950E+000	9	...........
	73	0.98667	1.16694E-001	-2.79509E-004	0.00000E+000	-3.26172E-005	-1.68088E-001	1.16727E-001	3.57950E+000	9	...........
	74	1	1.14526E-001	-2.78462E-004	0.00000E+000	-3.18913E-005	-1.68088E-001	1.14557E-001	3.57950E+000	9	...........
	75	1.01333	1.12331E-001	-2.78246E-004	0.00000E+000	-3.12555E-005	-1.68088E-001	1.12354E-001	3.57950E+000	9	...........
	76	1.02667	1.10144E-001	-2.79833E-004	0.00000E+000	-3.08221E-005	-1.68088E-001	1.10171E-001	3.57950E+000	9	...........
	77	1.04	1.08020E-001	-2.78634E-004	0.00000E+000	-3.00980E-005	-1.68088E-001	1.08044E-001	3.57950E+000	9	...........
	78	1.05333	1.05866E-001	-2.78927E-004	0.00000E+000	-2.95289E-005	-1.68088E-001	1.05888E-001	3.57950E+000	9	...........
	79	1.06667	1.03720E-001	-2.79566E-004	0.00000E+000	-2.89965E-005	-1.68088E-001	1.03745E-001	3.57950E+000	9	...........
	80	1.08	1.01622E-001	-2.77948E-004	0.00000E+000	-2.82457E-005	-1.68088E-001	1.01648E-001	3.57950E+000	9	...........
	81	1.09333	9.95489E-002	-2.79320E-004	0.00000E+000	-2.78060E-005	-1.68088E-001	9.95777E-002	3.57950E+000	9	...........
	82	1.10667	9.75189E-002	-2.78901E-004	0.00000E+000	-2.71981E-005	-1.68088E-001	9.75390E-002	3.57950E+000	9	...........
	83	1.12	9.54787E-002	-2.79799E-004	0.00000E+000	-2.67148E-005	-1.68088E-001	9.55046E-002	3.57950E+000	9	...........
	84	1.13333	9.34278E-002	-2.79831E-004	0.00000E+000	-2.61440E-005	-1.68088E-001	9.34468E-002	3.57950E+000	9	...........
	85	1.14667	9.14201E-002	-2.79108E-004	0.00000E+000	-2.55161E-005	-1.68088E-001	9.14461E-002	3.57950E+000	9	...........
	86	1.16	8.94100E-002	-2.79324E-004	0.00000E+000	-2.49743E-005	-1.68088E-001	8.94336E-002	3.57950E+000	9	...........
	87	1.17333	8.74156E-002	-2.79089E-004	0.00000E+000	-2.43967E-005	-1.68088E-001	8.74403E-002	3.57950E+000	9	...........
	88	1.18667	8.54230E-002	-2.79235E-004	0.00000E+000	-2.38531E-005	-1.68088E-001	8.54474E-002	3.57950E+000	9	...........
	89	1.2	8.34823E-002	-2.78915E-004	0.00000E+000	-2.32844E-005	-1.68088E-001	8.35038E-002	3.57950E+000	9	...........
	90	1.21333	8.15625E-002	-2.77835E-004	0.00000E+000	-2.26609E-005	-1.68088E-001	8.15845E-002	3.57950E+000	9	...........
	91	1.22667	7.96344E-002	-2.79400E-004	0.00000E+000	-2.22498E-005	-1.68088E-001	7.96525E-002	3.57950E+000	9	...........
	92	1.24	7.77242E-002	-2.78751E-004	0.00000E+000	-2.16657E-005	-1.68088E-001	7.77422E-002	3.57950E+000	9	...........
	93	1.25333	7.58152E-002	-2.78763E-004	0.00000E+000	-2.11345E-005	-1.68088E-001	7.58326E-002	3.57950E+000	9	...........
	94	1.26667	7.38654E-002	-2.79390E-004	0.00000E+000	-2.06372E-005	-1.68088E-001	7.38827E-002	3.57950E+000	9	...........
	95	1.28	7.19313E-002	-2.79005E-004	0.00000E+000	-2.00692E-005	-1.68088E-001	7.19475E-002	3.57950E+000	9	...........
	96	1.29333	6.99856E-002	-2.78149E-004	0.00000E+000	-1.94664E-005	-1.68088E-001	6.99983E-002	3.57950E+000	9	...........
	97	1.30667	6.80165E-002	-2.78899E-004	0.00000E+000	-1.89697E-005	-1.68088E-001	6.80257E-002	3.57950E+000	9	...........
	98	1.32	6.61366E-002	-2.79244E-004	0.00000E+000	-1.84682E-005	-1.68088E-001	6.61487E-002	3.57950E+000	9	...........
	99	1.33333	6.42900E-002	-2.79451E-004	0.00000E+000	-1.79659E-005	-1.68088E-001	6.43024E-002	3.57950E+000	9	...........
	100	1.34667	6.24733E-002	-2.78738E-004	0.00000E+000	-1.74137E-005	-1.68088E-001	6.24867E-002	3.57950E+000	9	...........
	101	1.36	6.06035E-002	-2.79378E-004	0.00000E+000	-1.69313E-005	-1.68088E-001	6.06181E-002	3.57950E+000	9	...........
	102	1.37333	5.87414E-002	-2.79616E-004	0.00000E+000	-1.64250E-005	-1.68088E-001	5.87527E-002	3.57950E+000	9	...........
	103	1.38667	5.69319E-002	-2.78517E-004	0.00000E+000	-1.58565E-005	-1.68088E-001	5.69430E-002	3.57950E+000	9	...........
	104	1.4	5.50869E-002	-2.78812E-004	0.00000E+000	-1.53589E-005	-1.68088E-001	5.50971E-002	3.57950E+000	9	...........
	105	1.41333	5.32540E-002	-2.80444E-004	0.00000E+000	-1.49348E-005	-1.68088E-001	5.32627E-002	3.57950E+000	9	...........
	106	1.42667	5.14499E-002	-2.78482E-004	0.00000E+000	-1.43279E-005	-1.68088E-001	5.14577E-002	3.57950E+000	9	...........
	107	1.44	4.96400E-002	-2.78626E-004	0.00000E+000	-1.38310E-005	-1.68088E-001	4.96467E-002	3.57950E+000	9	...........
	108	1.45333	4.78911E-002	-2.79219E-004	0.00000E+000	-1.33721E-005	-1.68088E-001	4.78908E-002	3.57950E+000	9	...........
	109	1.46667	4.61750E-002	-2.79270E-004	0.00000E+000	-1.28953E-005	-1.68088E-001	4.61860E-002	3.57950E+000	9	...........
	110	1.48	4.44172E-002	-2.78462E-004	0.00000E+000	-1.23685E-005	-1.68088E-001	4.44322E-002	3.57950E+000	9	...........
	111	1.49333	4.26328E-002	-2.78722E-004	0.00000E+000	-1.18827E-005	-1.68088E-001	4.26414E-002	3.57950E+000	9	...........
	112	1.50667	4.08920E-002	-2.79680E-004	0.00000E+000	-1.14367E-005	-1.68088E-001	4.08946E-002	3.57950E+000	9	...........
	113	1.52	3.91624E-002	-2.78688E-004	0.00000E+000	-1.09141E-005	-1.68088E-001	3.91696E-002	3.57950E+000	9	...........
	114	1.53333	3.74301E-002	-2.78636E-004	0.00000E+000	-1.04294E-005	-1.68088E-001	3.74317E-002	3.57950E+000	9	...........
	115	1.54667	3.57362E-002	-2.78410E-004	0.00000E+000	-9.94931E-006	-1.68088E-001	3.57354E-002	3.57950E+000	9	...........
	116	1.56	3.39888E-002	-2.78374E-004	0.00000E+000	-9.46160E-006	-1.68088E-001	3.39939E-002	3.57950E+000	9	...........
	117	1.57333	3.22469E-002	-2.78319E-004	0.00000E+000	-8.97491E-006	-1.68088E-001	3.22461E-002	3.57950E+000	9	...........
	118	1.58667	3.05567E-002	-2.78816E-004	0.00000E+000	-8.51967E-006	-1.68088E-001	3.05563E-002	3.57950E+000	9	...........
	119	1.6	2.88577E-002	-2.79517E-004	0.00000E+000	-8.06620E-006	-1.68088E-001	2.88592E-002	3.57950E+000	9	...........
	120	1.61333	2.72058E-002	-2.79233E-004	0.00000E+000	-7.59676E-006	-1.68088E-001	2.72064E-002	3.57950E+000	9	...........
	121	1.62667	2.55414E-002	-2.79455E-004	0.00000E+000	-7.13769E-006	-1.68088E-001	2.55409E-002	3.57950E+000	9	...........
	122	1.64	2.38879E-002	-2.78409E-004	0.00000E+000	-6.65062E-006	-1.68088E-001	2.38843E-002	3.57950E+000	9	...........
	123	1.65333	2.22172E-002	-2.78276E-004	0.00000E+000	-6.18250E-006	-1.68088E-001	2.22148E-002	3.57950E+000	9	...........
	124	1.66667	2.05962E-002	-2.79154E-004	0.00000E+000	-5.74952E-006	-1.68088E-001	2.05866E-002	3.57950E+000	9	...........
	125	1.68	1.89601E-002	-2.78371E-004	0.00000E+000	-5.27795E-006	-1.68088E-001	1.89543E-002	3.57950E+000	9	...........
	126	1.69333	1.73399E-002	-2.78922E-004	0.00000E+000	-4.83647E-006	-1.68088E-001	1.73326E-002	3.57950E+000	9	...........
	127	1.70667	1.57264E-002	-2.79185E-004	0.00000E+000	-4.39058E-006	-1.68088E-001	1.57201E-002	3.57942E+000	9	...........
	128	1.72	1.40944E-002	-2.79081E-004	0.00000E+000	-3.93349E-006	-1.68088E-001	1.40790E-002	3.57870E+000	9	...........
	129	1.73333	1.24779E-002	-2.78368E-004	0.00000E+000	-3.47345E-006	-1.68088E-001	1.24698E-002	3.57870E+000	9	...........
	130	1.74667	1.08706E-002	-2.78991E-004	0.00000E+000	-3.03280E-006	-1.68088E-001	1.08555E-002	3.57870E+000	9	...........
	131	1.76	9.26047E-003	-2.78668E-004	0.00000E+000	-2.58059E-006	-1.68088E-001	9.24668E-003	3.57870E+000	9	...........
	132	1.77333	7.64017E-003	-2.79609E-004	0.00000E+000	-2.13627E-006	-1.68088E-001	7.62160E-003	3.57870E+000	9	...........
	133	1.78667	6.05669E-003	-2.80367E-004	0.00000E+000	-1.69810E-006	-1.68088E-001	6.03804E-003	3.57870E+000	9	...........
	134	1.8	4.50414E-003	-2.79568E-004	0.00000E+000	-1.25921E-006	-1.68088E-001	4.48437E-003	3.57870E+000	9	...........
	135	1.81333	2.91366E-003	-2.78252E-004	0.00000E+000	-8.10733E-007	-1.68088E-001	2.89349E-003	3.57870E+000	9	...........
	136	1.82667	1.37596E-003	-2.79171E-004	0.00000E+000	-3.84127E-007	-1.68088E-001	1.35547E-003	3.57870E+000	9	...........
	137	1.83333	2.27216E-004	-2.80244E-004	0.00000E+000	-6.36759E-008	-1.68088E-001	2.08484E-004	3.57870E+000	9	...........
STARTTIMEOFFSET	QUANT	163.0817	Start Time Offset (s)
