EXPLAIN
TAG	PWR800_DISCHARGE
TITLE	LABEL	PWR Cyclic Charge Discharge (Cell) - Discharge Step	Test &Identifier
DATE	LABEL	7-7-2017	Date
TIME	LABEL	15:50:17	Time
NOTES	NOTES	3	&Notes...
	supercap test cell
	2.8mg
	6M KOH
PSTAT	PSTAT	IFC5000-01520	Potentiostat
CAPACITY	QUANT	1.00000E-003	Capacity (A-hr)
CELLTYPE	SELECTOR	1	&Cell Type
WORKINGCONNECTION	SELECTOR	0	&Working Lead
MAXDISCHARGETIME	VARIABLEANDUNITS	1.00000E+002	s	1.00000E+002	second(s)	Max &Discharge Time
DISCHARGEMODE	MULTIPARAM	0	2.80000E-004	&Discharge Mode	Constant Current	Amp(s)
SAMPLETIME	QUANT	1.00000E-002	Sa&mple Period (s)
DISCHARGESTOPAT1	MULTIPARAM	3	0.00000E+000	Discharge Stop At &1	Voltage < Limit	V
DISCHARGESTOPAT2	MULTIPARAM	0	0.00000E+000	Discharge Stop At &2	None	N/A
AESBHCSELECTOR	TOGGLE	F	Save Both Half Cells
IRCOMP	TOGGLE	F	IR &Measure
EOC	QUANT	0	Open Circuit (V)
SEQUENCER	TOGGLE	TRUE	Run as Sequence
PSTATMODEL	IQUANT	53	Pstat Model
PSTATSECTION	LABEL	IFC5000-01520	Pstat Section
PSTATSERIALNO	LABEL	01520	Pstat Serial Number
CTRLMODE	IQUANT	0	Control Mode
ELECTROMETER	IQUANT	1	RE=0 or CS=1
IESTAB	IQUANT	0	I/E Stability
CASPEED	IQUANT	4	Control Amp Speed
CONVENTION	IQUANT	1	Current Convention
ICHRANGE	IQUANT	2	Ich Range
ICHRANGEMODE	TOGGLE	T	Ich Auto Range
ICHOFFSETENABLE	TOGGLE	F	Ich Offset Enable
ICHOFFSET	QUANT	0	Ich Offset (V)
ICHFILTER	IQUANT	1	Ich Filter
VCHRANGE	IQUANT	2	Vch Range
VCHRANGEMODE	TOGGLE	T	Vch Auto Range
VCHOFFSETENABLE	TOGGLE	F	Vch Offset Enable
VCHOFFSET	QUANT	0	Vch Offset (V)
VCHFILTER	IQUANT	1	Vch Filter
IERANGELOWERLIMIT	IQUANT	9	I/E Range Lower Limit
IERANGEMODE	TOGGLE	F	I/E AutoRange
IERANGE	IQUANT	9	I/E Range
ACHSELECT	IQUANT	1	Ach Select
ACHRANGE	IQUANT	2	Ach Range
ACHOFFSETENABLE	TOGGLE	F	Ach Offset Enable
ACHOFFSET	QUANT	0	Ach Offset (V)
ACHFILTER	IQUANT	1	Ach Filter
CABLEID	IQUANT	14	Cable ID
DCCALDATE	LABEL	5-7-2017	DC Calibration Date
ACCALDATE	LABEL	12/3/2015	AC Calibration Date
FRAMEWORKVERSION	QUANT	7.01	Framework Version
INSTRUMENTVERSION	LABEL	4.00	Instrument Version
CURVE	TABLE	90
	Pt	T	Vf	Im	Vu	Pwr	Sig	Ach	Temp	IERange	Over
	#	s	V	A	V	W	V	V	deg C	#	bits
	0	0.013333	5.46737E-001	-2.78653E-004	0.00000E+000	-1.52350E-004	-1.68088E-001	5.46980E-001	3.57790E+000	9	...........
	1	0.026667	5.15992E-001	-2.78613E-004	0.00000E+000	-1.43762E-004	-1.68088E-001	5.16224E-001	3.57790E+000	9	...........
	2	0.04	4.88188E-001	-2.79283E-004	0.00000E+000	-1.36343E-004	-1.68088E-001	4.88393E-001	3.57790E+000	9	...........
	3	0.053333	4.62798E-001	-2.78698E-004	0.00000E+000	-1.28981E-004	-1.68088E-001	4.62911E-001	3.57790E+000	9	...........
	4	0.066667	4.39085E-001	-2.78730E-004	0.00000E+000	-1.22386E-004	-1.68088E-001	4.39197E-001	3.57790E+000	9	...........
	5	0.08	4.17126E-001	-2.78580E-004	0.00000E+000	-1.16203E-004	-1.68088E-001	4.17227E-001	3.57790E+000	9	...........
	6	0.093333	3.96745E-001	-2.78141E-004	0.00000E+000	-1.10351E-004	-1.68088E-001	3.96836E-001	3.57790E+000	9	...........
	7	0.106667	3.77805E-001	-2.78255E-004	0.00000E+000	-1.05126E-004	-1.68088E-001	3.77901E-001	3.57790E+000	9	...........
	8	0.12	3.60245E-001	-2.78877E-004	0.00000E+000	-1.00464E-004	-1.68088E-001	3.60330E-001	3.57790E+000	9	...........
	9	0.133333	3.43925E-001	-2.78328E-004	0.00000E+000	-9.57240E-005	-1.68088E-001	3.44011E-001	3.57790E+000	9	...........
	10	0.146667	3.28772E-001	-2.78090E-004	0.00000E+000	-9.14282E-005	-1.68088E-001	3.28847E-001	3.57790E+000	9	...........
	11	0.16	3.14701E-001	-2.78908E-004	0.00000E+000	-8.77727E-005	-1.68088E-001	3.14784E-001	3.57790E+000	9	...........
	12	0.173333	3.01590E-001	-2.78421E-004	0.00000E+000	-8.39690E-005	-1.68088E-001	3.01663E-001	3.57790E+000	9	...........
	13	0.186667	2.89372E-001	-2.78934E-004	0.00000E+000	-8.07159E-005	-1.68088E-001	2.89445E-001	3.57790E+000	9	...........
	14	0.2	2.77989E-001	-2.79279E-004	0.00000E+000	-7.76366E-005	-1.68088E-001	2.78062E-001	3.57790E+000	9	...........
	15	0.213333	2.67397E-001	-2.78660E-004	0.00000E+000	-7.45130E-005	-1.68088E-001	2.67467E-001	3.57790E+000	9	...........
	16	0.226667	2.57459E-001	-2.79435E-004	0.00000E+000	-7.19431E-005	-1.68088E-001	2.57526E-001	3.57790E+000	9	...........
	17	0.24	2.48132E-001	-2.78460E-004	0.00000E+000	-6.90950E-005	-1.68088E-001	2.48194E-001	3.57790E+000	9	...........
	18	0.253333	2.39388E-001	-2.79519E-004	0.00000E+000	-6.69134E-005	-1.68088E-001	2.39447E-001	3.57790E+000	9	...........
	19	0.266667	2.31185E-001	-2.78941E-004	0.00000E+000	-6.44868E-005	-1.68088E-001	2.31241E-001	3.57790E+000	9	...........
	20	0.28	2.23470E-001	-2.77980E-004	0.00000E+000	-6.21203E-005	-1.68088E-001	2.23531E-001	3.57790E+000	9	...........
	21	0.293333	2.16134E-001	-2.79536E-004	0.00000E+000	-6.04172E-005	-1.68088E-001	2.16186E-001	3.57790E+000	9	...........
	22	0.306667	2.09226E-001	-2.79619E-004	0.00000E+000	-5.85035E-005	-1.68088E-001	2.09278E-001	3.57790E+000	9	...........
	23	0.32	2.02681E-001	-2.79388E-004	0.00000E+000	-5.66267E-005	-1.68088E-001	2.02733E-001	3.57790E+000	9	...........
	24	0.333333	1.96415E-001	-2.79516E-004	0.00000E+000	-5.49011E-005	-1.68088E-001	1.96460E-001	3.57790E+000	9	...........
	25	0.346667	1.90437E-001	-2.79271E-004	0.00000E+000	-5.31835E-005	-1.68088E-001	1.90487E-001	3.57790E+000	9	...........
	26	0.36	1.84737E-001	-2.78696E-004	0.00000E+000	-5.14854E-005	-1.68088E-001	1.84780E-001	3.57790E+000	9	...........
	27	0.373333	1.79280E-001	-2.79833E-004	0.00000E+000	-5.01685E-005	-1.68088E-001	1.79325E-001	3.57790E+000	9	...........
	28	0.386667	1.74042E-001	-2.79355E-004	0.00000E+000	-4.86197E-005	-1.68088E-001	1.74083E-001	3.57790E+000	9	...........
	29	0.4	1.69040E-001	-2.78676E-004	0.00000E+000	-4.71074E-005	-1.68088E-001	1.69078E-001	3.57782E+000	9	...........
	30	0.413333	1.64267E-001	-2.79085E-004	0.00000E+000	-4.58444E-005	-1.68088E-001	1.64309E-001	3.57780E+000	9	...........
	31	0.426667	1.59610E-001	-2.79131E-004	0.00000E+000	-4.45521E-005	-1.68088E-001	1.59653E-001	3.57780E+000	9	...........
	32	0.44	1.55113E-001	-2.78771E-004	0.00000E+000	-4.32410E-005	-1.68088E-001	1.55150E-001	3.57780E+000	9	...........
	33	0.453333	1.50770E-001	-2.79164E-004	0.00000E+000	-4.20896E-005	-1.68088E-001	1.50804E-001	3.57780E+000	9	...........
	34	0.466667	1.46558E-001	-2.78682E-004	0.00000E+000	-4.08430E-005	-1.68088E-001	1.46594E-001	3.57780E+000	9	...........
	35	0.48	1.42474E-001	-2.78150E-004	0.00000E+000	-3.96290E-005	-1.68088E-001	1.42512E-001	3.57780E+000	9	...........
	36	0.493333	1.38518E-001	-2.79481E-004	0.00000E+000	-3.87131E-005	-1.68088E-001	1.38549E-001	3.57780E+000	9	...........
	37	0.506667	1.34655E-001	-2.79274E-004	0.00000E+000	-3.76056E-005	-1.68088E-001	1.34691E-001	3.57780E+000	9	...........
	38	0.52	1.30882E-001	-2.78603E-004	0.00000E+000	-3.64642E-005	-1.68088E-001	1.30916E-001	3.57780E+000	9	...........
	39	0.533333	1.27216E-001	-2.79035E-004	0.00000E+000	-3.54978E-005	-1.68088E-001	1.27245E-001	3.57780E+000	9	...........
	40	0.546667	1.23579E-001	-2.78871E-004	0.00000E+000	-3.44626E-005	-1.68088E-001	1.23607E-001	3.57780E+000	9	...........
	41	0.56	1.20040E-001	-2.79687E-004	0.00000E+000	-3.35736E-005	-1.68088E-001	1.20070E-001	3.57780E+000	9	...........
	42	0.573333	1.16618E-001	-2.79104E-004	0.00000E+000	-3.25487E-005	-1.68088E-001	1.16649E-001	3.57780E+000	9	...........
	43	0.586667	1.13265E-001	-2.79598E-004	0.00000E+000	-3.16687E-005	-1.68088E-001	1.13295E-001	3.57780E+000	9	...........
	44	0.6	1.09975E-001	-2.78854E-004	0.00000E+000	-3.06669E-005	-1.68088E-001	1.10005E-001	3.57780E+000	9	...........
	45	0.613333	1.06731E-001	-2.79182E-004	0.00000E+000	-2.97974E-005	-1.68088E-001	1.06763E-001	3.57780E+000	9	...........
	46	0.626667	1.03534E-001	-2.78725E-004	0.00000E+000	-2.88575E-005	-1.68088E-001	1.03557E-001	3.57780E+000	9	...........
	47	0.64	1.00398E-001	-2.78257E-004	0.00000E+000	-2.79364E-005	-1.68088E-001	1.00425E-001	3.57780E+000	9	...........
	48	0.653333	9.73324E-002	-2.79594E-004	0.00000E+000	-2.72135E-005	-1.68088E-001	9.73512E-002	3.57780E+000	9	...........
	49	0.666667	9.43304E-002	-2.79259E-004	0.00000E+000	-2.63426E-005	-1.68088E-001	9.43534E-002	3.57780E+000	9	...........
	50	0.68	9.14090E-002	-2.78637E-004	0.00000E+000	-2.54700E-005	-1.68088E-001	9.14375E-002	3.57780E+000	9	...........
	51	0.693333	8.84747E-002	-2.78947E-004	0.00000E+000	-2.46797E-005	-1.68088E-001	8.84991E-002	3.57780E+000	9	...........
	52	0.706667	8.55456E-002	-2.79010E-004	0.00000E+000	-2.38681E-005	-1.68088E-001	8.55737E-002	3.57780E+000	9	...........
	53	0.72	8.26819E-002	-2.78966E-004	0.00000E+000	-2.30654E-005	-1.68088E-001	8.27083E-002	3.57780E+000	9	...........
	54	0.733333	7.99540E-002	-2.79462E-004	0.00000E+000	-2.23441E-005	-1.68088E-001	7.99689E-002	3.57780E+000	9	...........
	55	0.746667	7.72226E-002	-2.78877E-004	0.00000E+000	-2.15356E-005	-1.68088E-001	7.72407E-002	3.57780E+000	9	...........
	56	0.76	7.44901E-002	-2.79362E-004	0.00000E+000	-2.08097E-005	-1.68088E-001	7.45045E-002	3.57780E+000	9	...........
	57	0.773333	7.17963E-002	-2.79629E-004	0.00000E+000	-2.00764E-005	-1.68088E-001	7.18107E-002	3.57780E+000	9	...........
	58	0.786667	6.91467E-002	-2.78522E-004	0.00000E+000	-1.92589E-005	-1.68088E-001	6.91571E-002	3.57780E+000	9	...........
	59	0.8	6.65423E-002	-2.79078E-004	0.00000E+000	-1.85705E-005	-1.68088E-001	6.65548E-002	3.57780E+000	9	...........
	60	0.813333	6.39813E-002	-2.78951E-004	0.00000E+000	-1.78477E-005	-1.68088E-001	6.39948E-002	3.57780E+000	9	...........
	61	0.826667	6.14836E-002	-2.78672E-004	0.00000E+000	-1.71338E-005	-1.68088E-001	6.15012E-002	3.57780E+000	9	...........
	62	0.84	5.89315E-002	-2.79299E-004	0.00000E+000	-1.64595E-005	-1.68088E-001	5.89474E-002	3.57780E+000	9	...........
	63	0.853333	5.63761E-002	-2.78803E-004	0.00000E+000	-1.57178E-005	-1.68088E-001	5.63852E-002	3.57780E+000	9	...........
	64	0.866667	5.38612E-002	-2.79133E-004	0.00000E+000	-1.50345E-005	-1.68088E-001	5.38721E-002	3.57780E+000	9	...........
	65	0.88	5.14183E-002	-2.78038E-004	0.00000E+000	-1.42963E-005	-1.68088E-001	5.14269E-002	3.57780E+000	9	...........
	66	0.893333	4.90194E-002	-2.79447E-004	0.00000E+000	-1.36983E-005	-1.68088E-001	4.90239E-002	3.57780E+000	9	...........
	67	0.906667	4.66362E-002	-2.78697E-004	0.00000E+000	-1.29974E-005	-1.68088E-001	4.66472E-002	3.57780E+000	9	...........
	68	0.92	4.42592E-002	-2.78916E-004	0.00000E+000	-1.23446E-005	-1.68088E-001	4.42700E-002	3.57780E+000	9	...........
	69	0.933333	4.18899E-002	-2.78074E-004	0.00000E+000	-1.16485E-005	-1.68088E-001	4.18965E-002	3.57780E+000	9	...........
	70	0.946667	3.95687E-002	-2.79079E-004	0.00000E+000	-1.10428E-005	-1.68088E-001	3.95755E-002	3.57780E+000	9	...........
	71	0.96	3.72633E-002	-2.79110E-004	0.00000E+000	-1.04006E-005	-1.68088E-001	3.72680E-002	3.57780E+000	9	...........
	72	0.97333	3.49641E-002	-2.78548E-004	0.00000E+000	-9.73918E-006	-1.68088E-001	3.49698E-002	3.57780E+000	9	...........
	73	0.98667	3.27353E-002	-2.78623E-004	0.00000E+000	-9.12081E-006	-1.68088E-001	3.27352E-002	3.57780E+000	9	...........
	74	1	3.04635E-002	-2.79650E-004	0.00000E+000	-8.51912E-006	-1.68088E-001	3.04658E-002	3.57780E+000	9	...........
	75	1.01333	2.82310E-002	-2.78769E-004	0.00000E+000	-7.86992E-006	-1.68088E-001	2.82270E-002	3.57780E+000	9	...........
	76	1.02667	2.60687E-002	-2.78783E-004	0.00000E+000	-7.26751E-006	-1.68088E-001	2.60661E-002	3.57780E+000	9	...........
	77	1.04	2.39073E-002	-2.79519E-004	0.00000E+000	-6.68253E-006	-1.68088E-001	2.38995E-002	3.57780E+000	9	...........
	78	1.05333	2.17663E-002	-2.78846E-004	0.00000E+000	-6.06944E-006	-1.68088E-001	2.17623E-002	3.57780E+000	9	...........
	79	1.06667	1.96825E-002	-2.78940E-004	0.00000E+000	-5.49023E-006	-1.68088E-001	1.96728E-002	3.57780E+000	9	...........
	80	1.08	1.75419E-002	-2.79404E-004	0.00000E+000	-4.90129E-006	-1.68088E-001	1.75348E-002	3.57780E+000	9	...........
	81	1.09333	1.54230E-002	-2.79145E-004	0.00000E+000	-4.30524E-006	-1.68088E-001	1.54134E-002	3.57780E+000	9	...........
	82	1.10667	1.33341E-002	-2.78753E-004	0.00000E+000	-3.71691E-006	-1.68088E-001	1.33231E-002	3.57780E+000	9	...........
	83	1.12	1.13433E-002	-2.78272E-004	0.00000E+000	-3.15652E-006	-1.68088E-001	1.13299E-002	3.57780E+000	9	...........
	84	1.13333	9.33917E-003	-2.78632E-004	0.00000E+000	-2.60219E-006	-1.68088E-001	9.32319E-003	3.57780E+000	9	...........
	85	1.14667	7.27482E-003	-2.79200E-004	0.00000E+000	-2.03113E-006	-1.68088E-001	7.25715E-003	3.57780E+000	9	...........
	86	1.16	5.22962E-003	-2.78968E-004	0.00000E+000	-1.45889E-006	-1.68088E-001	5.21437E-003	3.57780E+000	9	...........
	87	1.17333	3.26613E-003	-2.78636E-004	0.00000E+000	-9.10062E-007	-1.68088E-001	3.25071E-003	3.57780E+000	9	...........
	88	1.18667	1.33386E-003	-2.78819E-004	0.00000E+000	-3.71905E-007	-1.68088E-001	1.31572E-003	3.57780E+000	9	...........
	89	1.19	8.19559E-005	-2.79402E-004	0.00000E+000	-2.28987E-008	-1.68088E-001	6.20739E-005	3.57780E+000	9	...........
STARTTIMEOFFSET	QUANT	686.0535	Start Time Offset (s)
