EXPLAIN
TAG	PWR800_DISCHARGE
TITLE	LABEL	PWR Cyclic Charge Discharge (Cell) - Discharge Step	Test &Identifier
DATE	LABEL	7-7-2017	Date
TIME	LABEL	15:50:00	Time
NOTES	NOTES	3	&Notes...
	supercap test cell
	2.8mg
	6M KOH
PSTAT	PSTAT	IFC5000-01520	Potentiostat
CAPACITY	QUANT	1.00000E-003	Capacity (A-hr)
CELLTYPE	SELECTOR	1	&Cell Type
WORKINGCONNECTION	SELECTOR	0	&Working Lead
MAXDISCHARGETIME	VARIABLEANDUNITS	1.00000E+002	s	1.00000E+002	second(s)	Max &Discharge Time
DISCHARGEMODE	MULTIPARAM	0	2.80000E-004	&Discharge Mode	Constant Current	Amp(s)
SAMPLETIME	QUANT	1.00000E-002	Sa&mple Period (s)
DISCHARGESTOPAT1	MULTIPARAM	3	0.00000E+000	Discharge Stop At &1	Voltage < Limit	V
DISCHARGESTOPAT2	MULTIPARAM	0	0.00000E+000	Discharge Stop At &2	None	N/A
AESBHCSELECTOR	TOGGLE	F	Save Both Half Cells
IRCOMP	TOGGLE	F	IR &Measure
EOC	QUANT	0	Open Circuit (V)
SEQUENCER	TOGGLE	TRUE	Run as Sequence
PSTATMODEL	IQUANT	53	Pstat Model
PSTATSECTION	LABEL	IFC5000-01520	Pstat Section
PSTATSERIALNO	LABEL	01520	Pstat Serial Number
CTRLMODE	IQUANT	0	Control Mode
ELECTROMETER	IQUANT	1	RE=0 or CS=1
IESTAB	IQUANT	0	I/E Stability
CASPEED	IQUANT	4	Control Amp Speed
CONVENTION	IQUANT	1	Current Convention
ICHRANGE	IQUANT	2	Ich Range
ICHRANGEMODE	TOGGLE	T	Ich Auto Range
ICHOFFSETENABLE	TOGGLE	F	Ich Offset Enable
ICHOFFSET	QUANT	0	Ich Offset (V)
ICHFILTER	IQUANT	1	Ich Filter
VCHRANGE	IQUANT	2	Vch Range
VCHRANGEMODE	TOGGLE	T	Vch Auto Range
VCHOFFSETENABLE	TOGGLE	F	Vch Offset Enable
VCHOFFSET	QUANT	0	Vch Offset (V)
VCHFILTER	IQUANT	1	Vch Filter
IERANGELOWERLIMIT	IQUANT	9	I/E Range Lower Limit
IERANGEMODE	TOGGLE	F	I/E AutoRange
IERANGE	IQUANT	9	I/E Range
ACHSELECT	IQUANT	1	Ach Select
ACHRANGE	IQUANT	2	Ach Range
ACHOFFSETENABLE	TOGGLE	F	Ach Offset Enable
ACHOFFSET	QUANT	0	Ach Offset (V)
ACHFILTER	IQUANT	1	Ach Filter
CABLEID	IQUANT	14	Cable ID
DCCALDATE	LABEL	5-7-2017	DC Calibration Date
ACCALDATE	LABEL	12/3/2015	AC Calibration Date
FRAMEWORKVERSION	QUANT	7.01	Framework Version
INSTRUMENTVERSION	LABEL	4.00	Instrument Version
CURVE	TABLE	90
	Pt	T	Vf	Im	Vu	Pwr	Sig	Ach	Temp	IERange	Over
	#	s	V	A	V	W	V	V	deg C	#	bits
	0	0.013333	5.42726E-001	-2.79008E-004	0.00000E+000	-1.51425E-004	-1.68088E-001	5.42987E-001	3.57850E+000	9	...........
	1	0.026667	5.12107E-001	-2.78625E-004	0.00000E+000	-1.42686E-004	-1.68088E-001	5.12355E-001	3.57850E+000	9	...........
	2	0.04	4.84518E-001	-2.78707E-004	0.00000E+000	-1.35039E-004	-1.68088E-001	4.84713E-001	3.57850E+000	9	...........
	3	0.053333	4.59297E-001	-2.79403E-004	0.00000E+000	-1.28329E-004	-1.68088E-001	4.59407E-001	3.57850E+000	9	...........
	4	0.066667	4.35788E-001	-2.78810E-004	0.00000E+000	-1.21502E-004	-1.68088E-001	4.35897E-001	3.57850E+000	9	...........
	5	0.08	4.14028E-001	-2.79282E-004	0.00000E+000	-1.15631E-004	-1.68088E-001	4.14130E-001	3.57850E+000	9	...........
	6	0.093333	3.93870E-001	-2.78779E-004	0.00000E+000	-1.09803E-004	-1.68088E-001	3.93957E-001	3.57850E+000	9	...........
	7	0.106667	3.75144E-001	-2.79211E-004	0.00000E+000	-1.04744E-004	-1.68088E-001	3.75234E-001	3.57850E+000	9	...........
	8	0.12	3.57774E-001	-2.79142E-004	0.00000E+000	-9.98695E-005	-1.68088E-001	3.57860E-001	3.57850E+000	9	...........
	9	0.133333	3.41640E-001	-2.79098E-004	0.00000E+000	-9.53510E-005	-1.68088E-001	3.41724E-001	3.57850E+000	9	...........
	10	0.146667	3.26669E-001	-2.79255E-004	0.00000E+000	-9.12240E-005	-1.68088E-001	3.26749E-001	3.57850E+000	9	...........
	11	0.16	3.12760E-001	-2.79421E-004	0.00000E+000	-8.73917E-005	-1.68088E-001	3.12843E-001	3.57850E+000	9	...........
	12	0.173333	2.99839E-001	-2.78207E-004	0.00000E+000	-8.34174E-005	-1.68088E-001	2.99918E-001	3.57850E+000	9	...........
	13	0.186667	2.87791E-001	-2.79195E-004	0.00000E+000	-8.03498E-005	-1.68088E-001	2.87867E-001	3.57850E+000	9	...........
	14	0.2	2.76574E-001	-2.78548E-004	0.00000E+000	-7.70390E-005	-1.68088E-001	2.76645E-001	3.57850E+000	9	...........
	15	0.213333	2.66119E-001	-2.78787E-004	0.00000E+000	-7.41907E-005	-1.68088E-001	2.66190E-001	3.57850E+000	9	...........
	16	0.226667	2.56345E-001	-2.78815E-004	0.00000E+000	-7.14726E-005	-1.68088E-001	2.56411E-001	3.57850E+000	9	...........
	17	0.24	2.47169E-001	-2.79117E-004	0.00000E+000	-6.89889E-005	-1.68088E-001	2.47235E-001	3.57850E+000	9	...........
	18	0.253333	2.38558E-001	-2.79202E-004	0.00000E+000	-6.66059E-005	-1.68088E-001	2.38616E-001	3.57850E+000	9	...........
	19	0.266667	2.30443E-001	-2.79722E-004	0.00000E+000	-6.44600E-005	-1.68088E-001	2.30503E-001	3.57850E+000	9	...........
	20	0.28	2.22763E-001	-2.79569E-004	0.00000E+000	-6.22776E-005	-1.68088E-001	2.22820E-001	3.57850E+000	9	...........
	21	0.293333	2.15553E-001	-2.78807E-004	0.00000E+000	-6.00976E-005	-1.68088E-001	2.15604E-001	3.57850E+000	9	...........
	22	0.306667	2.08737E-001	-2.78614E-004	0.00000E+000	-5.81573E-005	-1.68088E-001	2.08785E-001	3.57850E+000	9	...........
	23	0.32	2.02242E-001	-2.78797E-004	0.00000E+000	-5.63844E-005	-1.68088E-001	2.02293E-001	3.57850E+000	9	...........
	24	0.333333	1.96075E-001	-2.78666E-004	0.00000E+000	-5.46394E-005	-1.68088E-001	1.96129E-001	3.57850E+000	9	...........
	25	0.346667	1.90124E-001	-2.78949E-004	0.00000E+000	-5.30348E-005	-1.68088E-001	1.90177E-001	3.57850E+000	9	...........
	26	0.36	1.84462E-001	-2.78771E-004	0.00000E+000	-5.14225E-005	-1.68088E-001	1.84512E-001	3.57850E+000	9	...........
	27	0.373333	1.79050E-001	-2.79360E-004	0.00000E+000	-5.00196E-005	-1.68088E-001	1.79096E-001	3.57850E+000	9	...........
	28	0.386667	1.73847E-001	-2.78922E-004	0.00000E+000	-4.84897E-005	-1.68088E-001	1.73899E-001	3.57850E+000	9	...........
	29	0.4	1.68846E-001	-2.78850E-004	0.00000E+000	-4.70828E-005	-1.68088E-001	1.68897E-001	3.57850E+000	9	...........
	30	0.413333	1.64083E-001	-2.78572E-004	0.00000E+000	-4.57089E-005	-1.68088E-001	1.64123E-001	3.57850E+000	9	...........
	31	0.426667	1.59475E-001	-2.79004E-004	0.00000E+000	-4.44942E-005	-1.68088E-001	1.59514E-001	3.57850E+000	9	...........
	32	0.44	1.55023E-001	-2.79850E-004	0.00000E+000	-4.33831E-005	-1.68088E-001	1.55057E-001	3.57850E+000	9	...........
	33	0.453333	1.50707E-001	-2.79561E-004	0.00000E+000	-4.21318E-005	-1.68088E-001	1.50746E-001	3.57850E+000	9	...........
	34	0.466667	1.46539E-001	-2.79795E-004	0.00000E+000	-4.10010E-005	-1.68088E-001	1.46575E-001	3.57850E+000	9	...........
	35	0.48	1.42449E-001	-2.79465E-004	0.00000E+000	-3.98094E-005	-1.68088E-001	1.42480E-001	3.57850E+000	9	...........
	36	0.493333	1.38490E-001	-2.78736E-004	0.00000E+000	-3.86022E-005	-1.68088E-001	1.38523E-001	3.57806E+000	9	...........
	37	0.506667	1.34678E-001	-2.79422E-004	0.00000E+000	-3.76320E-005	-1.68088E-001	1.34709E-001	3.57780E+000	9	...........
	38	0.52	1.30929E-001	-2.79308E-004	0.00000E+000	-3.65697E-005	-1.68088E-001	1.30957E-001	3.57780E+000	9	...........
	39	0.533333	1.27272E-001	-2.78924E-004	0.00000E+000	-3.54991E-005	-1.68088E-001	1.27304E-001	3.57780E+000	9	...........
	40	0.546667	1.23692E-001	-2.78480E-004	0.00000E+000	-3.44458E-005	-1.68088E-001	1.23719E-001	3.57780E+000	9	...........
	41	0.56	1.20198E-001	-2.78894E-004	0.00000E+000	-3.35225E-005	-1.68088E-001	1.20229E-001	3.57780E+000	9	...........
	42	0.573333	1.16752E-001	-2.78528E-004	0.00000E+000	-3.25187E-005	-1.68088E-001	1.16778E-001	3.57780E+000	9	...........
	43	0.586667	1.13410E-001	-2.78726E-004	0.00000E+000	-3.16102E-005	-1.68088E-001	1.13439E-001	3.57780E+000	9	...........
	44	0.6	1.10140E-001	-2.79368E-004	0.00000E+000	-3.07696E-005	-1.68088E-001	1.10165E-001	3.57780E+000	9	...........
	45	0.613333	1.06897E-001	-2.79291E-004	0.00000E+000	-2.98555E-005	-1.68088E-001	1.06923E-001	3.57780E+000	9	...........
	46	0.626667	1.03741E-001	-2.78648E-004	0.00000E+000	-2.89071E-005	-1.68088E-001	1.03763E-001	3.57780E+000	9	...........
	47	0.64	1.00624E-001	-2.78613E-004	0.00000E+000	-2.80351E-005	-1.68088E-001	1.00652E-001	3.57780E+000	9	...........
	48	0.653333	9.76080E-002	-2.79157E-004	0.00000E+000	-2.72480E-005	-1.68088E-001	9.76340E-002	3.57780E+000	9	...........
	49	0.666667	9.46788E-002	-2.78091E-004	0.00000E+000	-2.63294E-005	-1.68088E-001	9.47014E-002	3.57780E+000	9	...........
	50	0.68	9.17301E-002	-2.78903E-004	0.00000E+000	-2.55838E-005	-1.68088E-001	9.17495E-002	3.57780E+000	9	...........
	51	0.693333	8.88311E-002	-2.78718E-004	0.00000E+000	-2.47588E-005	-1.68088E-001	8.88527E-002	3.57780E+000	9	...........
	52	0.706667	8.60189E-002	-2.78900E-004	0.00000E+000	-2.39907E-005	-1.68088E-001	8.60348E-002	3.57780E+000	9	...........
	53	0.72	8.32632E-002	-2.78840E-004	0.00000E+000	-2.32171E-005	-1.68088E-001	8.32782E-002	3.57780E+000	9	...........
	54	0.733333	8.04934E-002	-2.78967E-004	0.00000E+000	-2.24550E-005	-1.68088E-001	8.05093E-002	3.57780E+000	9	...........
	55	0.746667	7.78304E-002	-2.78668E-004	0.00000E+000	-2.16888E-005	-1.68088E-001	7.78512E-002	3.57780E+000	9	...........
	56	0.76	7.51690E-002	-2.78388E-004	0.00000E+000	-2.09262E-005	-1.68088E-001	7.51830E-002	3.57780E+000	9	...........
	57	0.773333	7.24868E-002	-2.78905E-004	0.00000E+000	-2.02169E-005	-1.68088E-001	7.25038E-002	3.57780E+000	9	...........
	58	0.786667	6.98150E-002	-2.78693E-004	0.00000E+000	-1.94569E-005	-1.68088E-001	6.98332E-002	3.57780E+000	9	...........
	59	0.8	6.72081E-002	-2.79117E-004	0.00000E+000	-1.87589E-005	-1.68088E-001	6.72240E-002	3.57780E+000	9	...........
	60	0.813333	6.46500E-002	-2.79056E-004	0.00000E+000	-1.80410E-005	-1.68088E-001	6.46622E-002	3.57780E+000	9	...........
	61	0.826667	6.21418E-002	-2.78757E-004	0.00000E+000	-1.73225E-005	-1.68088E-001	6.21542E-002	3.57780E+000	9	...........
	62	0.84	5.96481E-002	-2.79443E-004	0.00000E+000	-1.66682E-005	-1.68088E-001	5.96588E-002	3.57780E+000	9	...........
	63	0.853333	5.72115E-002	-2.78921E-004	0.00000E+000	-1.59575E-005	-1.68088E-001	5.72233E-002	3.57780E+000	9	...........
	64	0.866667	5.47950E-002	-2.79347E-004	0.00000E+000	-1.53068E-005	-1.68088E-001	5.48048E-002	3.57780E+000	9	...........
	65	0.88	5.23807E-002	-2.78577E-004	0.00000E+000	-1.45921E-005	-1.68088E-001	5.23900E-002	3.57780E+000	9	...........
	66	0.893333	4.99594E-002	-2.78627E-004	0.00000E+000	-1.39200E-005	-1.68088E-001	4.99651E-002	3.57780E+000	9	...........
	67	0.906667	4.75373E-002	-2.79186E-004	0.00000E+000	-1.32718E-005	-1.68088E-001	4.75382E-002	3.57780E+000	9	...........
	68	0.92	4.51699E-002	-2.78598E-004	0.00000E+000	-1.25842E-005	-1.68088E-001	4.51811E-002	3.57780E+000	9	...........
	69	0.933333	4.28622E-002	-2.78222E-004	0.00000E+000	-1.19252E-005	-1.68088E-001	4.28721E-002	3.57780E+000	9	...........
	70	0.946667	4.05405E-002	-2.78426E-004	0.00000E+000	-1.12875E-005	-1.68088E-001	4.05470E-002	3.57780E+000	9	...........
	71	0.96	3.82131E-002	-2.79166E-004	0.00000E+000	-1.06678E-005	-1.68088E-001	3.82193E-002	3.57780E+000	9	...........
	72	0.97333	3.59013E-002	-2.78724E-004	0.00000E+000	-1.00066E-005	-1.68088E-001	3.59060E-002	3.57780E+000	9	...........
	73	0.98667	3.36397E-002	-2.79511E-004	0.00000E+000	-9.40265E-006	-1.68088E-001	3.36451E-002	3.57780E+000	9	...........
	74	1	3.14262E-002	-2.79128E-004	0.00000E+000	-8.77194E-006	-1.68088E-001	3.14251E-002	3.57780E+000	9	...........
	75	1.01333	2.92016E-002	-2.78826E-004	0.00000E+000	-8.14216E-006	-1.68088E-001	2.91997E-002	3.57780E+000	9	...........
	76	1.02667	2.70562E-002	-2.78842E-004	0.00000E+000	-7.54439E-006	-1.68088E-001	2.70535E-002	3.57780E+000	9	...........
	77	1.04	2.48938E-002	-2.79148E-004	0.00000E+000	-6.94906E-006	-1.68088E-001	2.48895E-002	3.57780E+000	9	...........
	78	1.05333	2.27165E-002	-2.79796E-004	0.00000E+000	-6.35598E-006	-1.68088E-001	2.27110E-002	3.57780E+000	9	...........
	79	1.06667	2.05787E-002	-2.79078E-004	0.00000E+000	-5.74307E-006	-1.68088E-001	2.05722E-002	3.57780E+000	9	...........
	80	1.08	1.84464E-002	-2.79321E-004	0.00000E+000	-5.15248E-006	-1.68088E-001	1.84411E-002	3.57780E+000	9	...........
	81	1.09333	1.63594E-002	-2.78404E-004	0.00000E+000	-4.55451E-006	-1.68088E-001	1.63456E-002	3.57780E+000	9	...........
	82	1.10667	1.42897E-002	-2.78790E-004	0.00000E+000	-3.98382E-006	-1.68088E-001	1.42842E-002	3.57780E+000	9	...........
	83	1.12	1.22415E-002	-2.78647E-004	0.00000E+000	-3.41106E-006	-1.68088E-001	1.22326E-002	3.57780E+000	9	...........
	84	1.13333	1.01832E-002	-2.78986E-004	0.00000E+000	-2.84099E-006	-1.68088E-001	1.01625E-002	3.57780E+000	9	...........
	85	1.14667	8.16453E-003	-2.79319E-004	0.00000E+000	-2.28051E-006	-1.68088E-001	8.15239E-003	3.57780E+000	9	...........
	86	1.16	6.14564E-003	-2.78748E-004	0.00000E+000	-1.71308E-006	-1.68088E-001	6.12835E-003	3.57780E+000	9	...........
	87	1.17333	4.15721E-003	-2.78336E-004	0.00000E+000	-1.15710E-006	-1.68088E-001	4.13974E-003	3.57780E+000	9	...........
	88	1.18667	2.17405E-003	-2.79105E-004	0.00000E+000	-6.06788E-007	-1.68088E-001	2.15582E-003	3.57780E+000	9	...........
	89	1.19667	4.53032E-004	-2.79738E-004	0.00000E+000	-1.26730E-007	-1.68088E-001	4.33998E-004	3.57780E+000	9	...........
STARTTIMEOFFSET	QUANT	673.1268	Start Time Offset (s)
