EXPLAIN
TAG	PWR800_DISCHARGE
TITLE	LABEL	PWR Cyclic Charge Discharge (Cell) - Discharge Step	Test &Identifier
DATE	LABEL	7-7-2017	Date
TIME	LABEL	16:00:04	Time
NOTES	NOTES	3	&Notes...
	supercap test cell
	2.8mg
	6M KOH
PSTAT	PSTAT	IFC5000-01520	Potentiostat
CAPACITY	QUANT	1.00000E-003	Capacity (A-hr)
CELLTYPE	SELECTOR	1	&Cell Type
WORKINGCONNECTION	SELECTOR	0	&Working Lead
MAXDISCHARGETIME	VARIABLEANDUNITS	1.00000E+002	s	1.00000E+002	second(s)	Max &Discharge Time
DISCHARGEMODE	MULTIPARAM	0	2.80000E-004	&Discharge Mode	Constant Current	Amp(s)
SAMPLETIME	QUANT	1.00000E-002	Sa&mple Period (s)
DISCHARGESTOPAT1	MULTIPARAM	3	0.00000E+000	Discharge Stop At &1	Voltage < Limit	V
DISCHARGESTOPAT2	MULTIPARAM	0	0.00000E+000	Discharge Stop At &2	None	N/A
AESBHCSELECTOR	TOGGLE	F	Save Both Half Cells
IRCOMP	TOGGLE	F	IR &Measure
EOC	QUANT	0	Open Circuit (V)
SEQUENCER	TOGGLE	TRUE	Run as Sequence
PSTATMODEL	IQUANT	53	Pstat Model
PSTATSECTION	LABEL	IFC5000-01520	Pstat Section
PSTATSERIALNO	LABEL	01520	Pstat Serial Number
CTRLMODE	IQUANT	0	Control Mode
ELECTROMETER	IQUANT	1	RE=0 or CS=1
IESTAB	IQUANT	0	I/E Stability
CASPEED	IQUANT	4	Control Amp Speed
CONVENTION	IQUANT	1	Current Convention
ICHRANGE	IQUANT	2	Ich Range
ICHRANGEMODE	TOGGLE	T	Ich Auto Range
ICHOFFSETENABLE	TOGGLE	F	Ich Offset Enable
ICHOFFSET	QUANT	0	Ich Offset (V)
ICHFILTER	IQUANT	1	Ich Filter
VCHRANGE	IQUANT	2	Vch Range
VCHRANGEMODE	TOGGLE	T	Vch Auto Range
VCHOFFSETENABLE	TOGGLE	F	Vch Offset Enable
VCHOFFSET	QUANT	0	Vch Offset (V)
VCHFILTER	IQUANT	1	Vch Filter
IERANGELOWERLIMIT	IQUANT	9	I/E Range Lower Limit
IERANGEMODE	TOGGLE	F	I/E AutoRange
IERANGE	IQUANT	9	I/E Range
ACHSELECT	IQUANT	1	Ach Select
ACHRANGE	IQUANT	2	Ach Range
ACHOFFSETENABLE	TOGGLE	F	Ach Offset Enable
ACHOFFSET	QUANT	0	Ach Offset (V)
ACHFILTER	IQUANT	1	Ach Filter
CABLEID	IQUANT	14	Cable ID
DCCALDATE	LABEL	5-7-2017	DC Calibration Date
ACCALDATE	LABEL	12/3/2015	AC Calibration Date
FRAMEWORKVERSION	QUANT	7.01	Framework Version
INSTRUMENTVERSION	LABEL	4.00	Instrument Version
CURVE	TABLE	71
	Pt	T	Vf	Im	Vu	Pwr	Sig	Ach	Temp	IERange	Over
	#	s	V	A	V	W	V	V	deg C	#	bits
	0	0.013333	5.33664E-001	-2.77906E-004	0.00000E+000	-1.48308E-004	-1.68088E-001	5.33902E-001	3.57860E+000	9	...........
	1	0.026667	5.01347E-001	-2.79940E-004	0.00000E+000	-1.40347E-004	-1.68088E-001	5.01593E-001	3.57860E+000	9	...........
	2	0.04	4.72101E-001	-2.79383E-004	0.00000E+000	-1.31897E-004	-1.68088E-001	4.72237E-001	3.57860E+000	9	...........
	3	0.053333	4.44806E-001	-2.78576E-004	0.00000E+000	-1.23912E-004	-1.68088E-001	4.44914E-001	3.57860E+000	9	...........
	4	0.066667	4.19364E-001	-2.78767E-004	0.00000E+000	-1.16905E-004	-1.68088E-001	4.19468E-001	3.57860E+000	9	...........
	5	0.08	3.95663E-001	-2.78291E-004	0.00000E+000	-1.10110E-004	-1.68088E-001	3.95754E-001	3.57860E+000	9	...........
	6	0.093333	3.73595E-001	-2.79426E-004	0.00000E+000	-1.04392E-004	-1.68088E-001	3.73679E-001	3.57860E+000	9	...........
	7	0.106667	3.53040E-001	-2.78812E-004	0.00000E+000	-9.84319E-005	-1.68088E-001	3.53122E-001	3.57860E+000	9	...........
	8	0.12	3.33892E-001	-2.78424E-004	0.00000E+000	-9.29635E-005	-1.68088E-001	3.33969E-001	3.57860E+000	9	...........
	9	0.133333	3.16131E-001	-2.78323E-004	0.00000E+000	-8.79864E-005	-1.68088E-001	3.16207E-001	3.57860E+000	9	...........
	10	0.146667	2.99624E-001	-2.78877E-004	0.00000E+000	-8.35582E-005	-1.68088E-001	2.99699E-001	3.57860E+000	9	...........
	11	0.16	2.84265E-001	-2.78904E-004	0.00000E+000	-7.92826E-005	-1.68088E-001	2.84333E-001	3.57860E+000	9	...........
	12	0.173333	2.69971E-001	-2.78446E-004	0.00000E+000	-7.51723E-005	-1.68088E-001	2.70036E-001	3.57860E+000	9	...........
	13	0.186667	2.56693E-001	-2.79165E-004	0.00000E+000	-7.16596E-005	-1.68088E-001	2.56754E-001	3.57860E+000	9	...........
	14	0.2	2.44345E-001	-2.78480E-004	0.00000E+000	-6.80451E-005	-1.68088E-001	2.44406E-001	3.57860E+000	9	...........
	15	0.213333	2.32861E-001	-2.79407E-004	0.00000E+000	-6.50632E-005	-1.68088E-001	2.32916E-001	3.57860E+000	9	...........
	16	0.226667	2.22140E-001	-2.78224E-004	0.00000E+000	-6.18046E-005	-1.68088E-001	2.22193E-001	3.57860E+000	9	...........
	17	0.24	2.12098E-001	-2.78879E-004	0.00000E+000	-5.91497E-005	-1.68088E-001	2.12146E-001	3.57860E+000	9	...........
	18	0.253333	2.02728E-001	-2.78297E-004	0.00000E+000	-5.64185E-005	-1.68088E-001	2.02778E-001	3.57860E+000	9	...........
	19	0.266667	1.93953E-001	-2.78641E-004	0.00000E+000	-5.40432E-005	-1.68088E-001	1.93995E-001	3.57860E+000	9	...........
	20	0.28	1.85720E-001	-2.79414E-004	0.00000E+000	-5.18927E-005	-1.68088E-001	1.85766E-001	3.57860E+000	9	...........
	21	0.293333	1.77971E-001	-2.79249E-004	0.00000E+000	-4.96981E-005	-1.68088E-001	1.78017E-001	3.57860E+000	9	...........
	22	0.306667	1.70631E-001	-2.79330E-004	0.00000E+000	-4.76625E-005	-1.68088E-001	1.70671E-001	3.57860E+000	9	...........
	23	0.32	1.63693E-001	-2.78426E-004	0.00000E+000	-4.55765E-005	-1.68088E-001	1.63735E-001	3.57860E+000	9	...........
	24	0.333333	1.57154E-001	-2.78455E-004	0.00000E+000	-4.37602E-005	-1.68088E-001	1.57194E-001	3.57860E+000	9	...........
	25	0.346667	1.50970E-001	-2.79296E-004	0.00000E+000	-4.21652E-005	-1.68088E-001	1.51003E-001	3.57860E+000	9	...........
	26	0.36	1.45070E-001	-2.79376E-004	0.00000E+000	-4.05292E-005	-1.68088E-001	1.45099E-001	3.57860E+000	9	...........
	27	0.373333	1.39421E-001	-2.78873E-004	0.00000E+000	-3.88808E-005	-1.68088E-001	1.39450E-001	3.57860E+000	9	...........
	28	0.386667	1.34017E-001	-2.78373E-004	0.00000E+000	-3.73067E-005	-1.68088E-001	1.34044E-001	3.57860E+000	9	...........
	29	0.4	1.28879E-001	-2.79566E-004	0.00000E+000	-3.60301E-005	-1.68088E-001	1.28902E-001	3.57860E+000	9	...........
	30	0.413333	1.23933E-001	-2.76802E-004	0.00000E+000	-3.43049E-005	-1.68088E-001	1.23959E-001	3.57860E+000	9	...........
	31	0.426667	1.19169E-001	-2.78435E-004	0.00000E+000	-3.31808E-005	-1.68088E-001	1.19192E-001	3.57860E+000	9	...........
	32	0.44	1.14539E-001	-2.79603E-004	0.00000E+000	-3.20255E-005	-1.68088E-001	1.14565E-001	3.57860E+000	9	...........
	33	0.453333	1.10019E-001	-2.79861E-004	0.00000E+000	-3.07899E-005	-1.68088E-001	1.10045E-001	3.57860E+000	9	...........
	34	0.466667	1.05729E-001	-2.79717E-004	0.00000E+000	-2.95742E-005	-1.68088E-001	1.05756E-001	3.57860E+000	9	...........
	35	0.48	1.01570E-001	-2.79994E-004	0.00000E+000	-2.84390E-005	-1.68088E-001	1.01595E-001	3.57860E+000	9	...........
	36	0.493333	9.75456E-002	-2.78122E-004	0.00000E+000	-2.71295E-005	-1.68088E-001	9.75736E-002	3.57860E+000	9	...........
	37	0.506667	9.36000E-002	-2.78535E-004	0.00000E+000	-2.60709E-005	-1.68088E-001	9.36244E-002	3.57860E+000	9	...........
	38	0.52	8.96848E-002	-2.78288E-004	0.00000E+000	-2.49582E-005	-1.68088E-001	8.97129E-002	3.57860E+000	9	...........
	39	0.533333	8.59719E-002	-2.78575E-004	0.00000E+000	-2.39496E-005	-1.68088E-001	8.59959E-002	3.57860E+000	9	...........
	40	0.546667	8.23416E-002	-2.80074E-004	0.00000E+000	-2.30617E-005	-1.68088E-001	8.23606E-002	3.57860E+000	9	...........
	41	0.56	7.88401E-002	-2.78734E-004	0.00000E+000	-2.19754E-005	-1.68088E-001	7.88611E-002	3.57860E+000	9	...........
	42	0.573333	7.54114E-002	-2.78066E-004	0.00000E+000	-2.09694E-005	-1.68088E-001	7.54305E-002	3.57860E+000	9	...........
	43	0.586667	7.20164E-002	-2.77421E-004	0.00000E+000	-1.99788E-005	-1.68088E-001	7.20334E-002	3.57860E+000	9	...........
	44	0.6	6.86895E-002	-2.79611E-004	0.00000E+000	-1.92063E-005	-1.68088E-001	6.87050E-002	3.57860E+000	9	...........
	45	0.613333	6.54213E-002	-2.78751E-004	0.00000E+000	-1.82362E-005	-1.68088E-001	6.54320E-002	3.57860E+000	9	...........
	46	0.626667	6.22604E-002	-2.78825E-004	0.00000E+000	-1.73598E-005	-1.68088E-001	6.22712E-002	3.57860E+000	9	...........
	47	0.64	5.91614E-002	-2.78159E-004	0.00000E+000	-1.64563E-005	-1.68088E-001	5.91765E-002	3.57860E+000	9	...........
	48	0.653333	5.60281E-002	-2.79174E-004	0.00000E+000	-1.56416E-005	-1.68088E-001	5.60408E-002	3.57860E+000	9	...........
	49	0.666667	5.30004E-002	-2.79144E-004	0.00000E+000	-1.47947E-005	-1.68088E-001	5.30055E-002	3.57860E+000	9	...........
	50	0.68	5.00300E-002	-2.78818E-004	0.00000E+000	-1.39493E-005	-1.68088E-001	5.00397E-002	3.57860E+000	9	...........
	51	0.693333	4.71679E-002	-2.79250E-004	0.00000E+000	-1.31716E-005	-1.68088E-001	4.71718E-002	3.57860E+000	9	...........
	52	0.706667	4.43276E-002	-2.77909E-004	0.00000E+000	-1.23190E-005	-1.68088E-001	4.43343E-002	3.57860E+000	9	...........
	53	0.72	4.15057E-002	-2.79047E-004	0.00000E+000	-1.15820E-005	-1.68088E-001	4.15164E-002	3.57860E+000	9	...........
	54	0.733333	3.87245E-002	-2.78314E-004	0.00000E+000	-1.07776E-005	-1.68088E-001	3.87273E-002	3.57860E+000	9	...........
	55	0.746667	3.59745E-002	-2.79077E-004	0.00000E+000	-1.00396E-005	-1.68088E-001	3.59797E-002	3.57860E+000	9	...........
	56	0.76	3.32518E-002	-2.79089E-004	0.00000E+000	-9.28021E-006	-1.68088E-001	3.32516E-002	3.57860E+000	9	...........
	57	0.773333	3.05555E-002	-2.78756E-004	0.00000E+000	-8.51753E-006	-1.68088E-001	3.05580E-002	3.57860E+000	9	...........
	58	0.786667	2.79387E-002	-2.78452E-004	0.00000E+000	-7.77958E-006	-1.68088E-001	2.79415E-002	3.57860E+000	9	...........
	59	0.8	2.53586E-002	-2.79639E-004	0.00000E+000	-7.09124E-006	-1.68088E-001	2.53562E-002	3.57860E+000	9	...........
	60	0.813333	2.28118E-002	-2.79429E-004	0.00000E+000	-6.37429E-006	-1.68088E-001	2.28117E-002	3.57860E+000	9	...........
	61	0.826667	2.02944E-002	-2.79156E-004	0.00000E+000	-5.66531E-006	-1.68088E-001	2.02906E-002	3.57860E+000	9	...........
	62	0.84	1.78236E-002	-2.78390E-004	0.00000E+000	-4.96191E-006	-1.68088E-001	1.78154E-002	3.57860E+000	9	...........
	63	0.853333	1.53329E-002	-2.77807E-004	0.00000E+000	-4.25960E-006	-1.68088E-001	1.53237E-002	3.57890E+000	9	...........
	64	0.866667	1.28861E-002	-2.78584E-004	0.00000E+000	-3.58986E-006	-1.68088E-001	1.28750E-002	3.57890E+000	9	...........
	65	0.88	1.05009E-002	-2.79358E-004	0.00000E+000	-2.93350E-006	-1.68088E-001	1.04904E-002	3.57890E+000	9	...........
	66	0.893333	8.14243E-003	-2.79817E-004	0.00000E+000	-2.27839E-006	-1.68088E-001	8.12661E-003	3.57890E+000	9	...........
	67	0.906667	5.76029E-003	-2.78330E-004	0.00000E+000	-1.60326E-006	-1.68088E-001	5.74782E-003	3.57890E+000	9	...........
	68	0.92	3.41533E-003	-2.78527E-004	0.00000E+000	-9.51261E-007	-1.68088E-001	3.40018E-003	3.57890E+000	9	...........
	69	0.933333	1.10770E-003	-2.78894E-004	0.00000E+000	-3.08930E-007	-1.68088E-001	1.09104E-003	3.57890E+000	9	...........
	70	0.935	-1.51301E-004	-2.78573E-004	0.00000E+000	4.21484E-008	-1.68088E-001	-1.74285E-004	3.57890E+000	9	...........
STARTTIMEOFFSET	QUANT	1112.076	Start Time Offset (s)
