EXPLAIN
TAG	PWR800_DISCHARGE
TITLE	LABEL	PWR Cyclic Charge Discharge (Cell) - Discharge Step	Test &Identifier
DATE	LABEL	7-7-2017	Date
TIME	LABEL	15:48:08	Time
NOTES	NOTES	3	&Notes...
	supercap test cell
	2.8mg
	6M KOH
PSTAT	PSTAT	IFC5000-01520	Potentiostat
CAPACITY	QUANT	1.00000E-003	Capacity (A-hr)
CELLTYPE	SELECTOR	1	&Cell Type
WORKINGCONNECTION	SELECTOR	0	&Working Lead
MAXDISCHARGETIME	VARIABLEANDUNITS	1.00000E+002	s	1.00000E+002	second(s)	Max &Discharge Time
DISCHARGEMODE	MULTIPARAM	0	2.80000E-004	&Discharge Mode	Constant Current	Amp(s)
SAMPLETIME	QUANT	1.00000E-002	Sa&mple Period (s)
DISCHARGESTOPAT1	MULTIPARAM	3	0.00000E+000	Discharge Stop At &1	Voltage < Limit	V
DISCHARGESTOPAT2	MULTIPARAM	0	0.00000E+000	Discharge Stop At &2	None	N/A
AESBHCSELECTOR	TOGGLE	F	Save Both Half Cells
IRCOMP	TOGGLE	F	IR &Measure
EOC	QUANT	0	Open Circuit (V)
SEQUENCER	TOGGLE	TRUE	Run as Sequence
PSTATMODEL	IQUANT	53	Pstat Model
PSTATSECTION	LABEL	IFC5000-01520	Pstat Section
PSTATSERIALNO	LABEL	01520	Pstat Serial Number
CTRLMODE	IQUANT	0	Control Mode
ELECTROMETER	IQUANT	1	RE=0 or CS=1
IESTAB	IQUANT	0	I/E Stability
CASPEED	IQUANT	4	Control Amp Speed
CONVENTION	IQUANT	1	Current Convention
ICHRANGE	IQUANT	2	Ich Range
ICHRANGEMODE	TOGGLE	T	Ich Auto Range
ICHOFFSETENABLE	TOGGLE	F	Ich Offset Enable
ICHOFFSET	QUANT	0	Ich Offset (V)
ICHFILTER	IQUANT	1	Ich Filter
VCHRANGE	IQUANT	2	Vch Range
VCHRANGEMODE	TOGGLE	T	Vch Auto Range
VCHOFFSETENABLE	TOGGLE	F	Vch Offset Enable
VCHOFFSET	QUANT	0	Vch Offset (V)
VCHFILTER	IQUANT	1	Vch Filter
IERANGELOWERLIMIT	IQUANT	9	I/E Range Lower Limit
IERANGEMODE	TOGGLE	F	I/E AutoRange
IERANGE	IQUANT	9	I/E Range
ACHSELECT	IQUANT	1	Ach Select
ACHRANGE	IQUANT	2	Ach Range
ACHOFFSETENABLE	TOGGLE	F	Ach Offset Enable
ACHOFFSET	QUANT	0	Ach Offset (V)
ACHFILTER	IQUANT	1	Ach Filter
CABLEID	IQUANT	14	Cable ID
DCCALDATE	LABEL	5-7-2017	DC Calibration Date
ACCALDATE	LABEL	12/3/2015	AC Calibration Date
FRAMEWORKVERSION	QUANT	7.01	Framework Version
INSTRUMENTVERSION	LABEL	4.00	Instrument Version
CURVE	TABLE	96
	Pt	T	Vf	Im	Vu	Pwr	Sig	Ach	Temp	IERange	Over
	#	s	V	A	V	W	V	V	deg C	#	bits
	0	0.013333	5.46692E-001	-2.78822E-004	0.00000E+000	-1.52430E-004	-1.68088E-001	5.46971E-001	3.57830E+000	9	...........
	1	0.026667	5.16545E-001	-2.78423E-004	0.00000E+000	-1.43818E-004	-1.68088E-001	5.16805E-001	3.57830E+000	9	...........
	2	0.04	4.89361E-001	-2.79003E-004	0.00000E+000	-1.36533E-004	-1.68088E-001	4.89576E-001	3.57830E+000	9	...........
	3	0.053333	4.64646E-001	-2.78859E-004	0.00000E+000	-1.29571E-004	-1.68088E-001	4.64753E-001	3.57830E+000	9	...........
	4	0.066667	4.41604E-001	-2.78793E-004	0.00000E+000	-1.23116E-004	-1.68088E-001	4.41715E-001	3.57830E+000	9	...........
	5	0.08	4.20294E-001	-2.79175E-004	0.00000E+000	-1.17336E-004	-1.68088E-001	4.20397E-001	3.57830E+000	9	...........
	6	0.093333	4.00561E-001	-2.79666E-004	0.00000E+000	-1.12023E-004	-1.68088E-001	4.00655E-001	3.57830E+000	9	...........
	7	0.106667	3.82279E-001	-2.78152E-004	0.00000E+000	-1.06332E-004	-1.68088E-001	3.82361E-001	3.57830E+000	9	...........
	8	0.12	3.65298E-001	-2.78896E-004	0.00000E+000	-1.01880E-004	-1.68088E-001	3.65386E-001	3.57830E+000	9	...........
	9	0.133333	3.49560E-001	-2.78720E-004	0.00000E+000	-9.74292E-005	-1.68088E-001	3.49640E-001	3.57830E+000	9	...........
	10	0.146667	3.34942E-001	-2.79034E-004	0.00000E+000	-9.34604E-005	-1.68088E-001	3.35016E-001	3.57830E+000	9	...........
	11	0.16	3.21361E-001	-2.79343E-004	0.00000E+000	-8.97699E-005	-1.68088E-001	3.21434E-001	3.57830E+000	9	...........
	12	0.173333	3.08674E-001	-2.78651E-004	0.00000E+000	-8.60122E-005	-1.68088E-001	3.08749E-001	3.57830E+000	9	...........
	13	0.186667	2.96845E-001	-2.79779E-004	0.00000E+000	-8.30510E-005	-1.68088E-001	2.96919E-001	3.57830E+000	9	...........
	14	0.2	2.85858E-001	-2.79003E-004	0.00000E+000	-7.97554E-005	-1.68088E-001	2.85928E-001	3.57830E+000	9	...........
	15	0.213333	2.75606E-001	-2.79733E-004	0.00000E+000	-7.70962E-005	-1.68088E-001	2.75677E-001	3.57830E+000	9	...........
	16	0.226667	2.65996E-001	-2.78434E-004	0.00000E+000	-7.40624E-005	-1.68088E-001	2.66057E-001	3.57830E+000	9	...........
	17	0.24	2.56970E-001	-2.79295E-004	0.00000E+000	-7.17704E-005	-1.68088E-001	2.57033E-001	3.57830E+000	9	...........
	18	0.253333	2.48456E-001	-2.78282E-004	0.00000E+000	-6.91409E-005	-1.68088E-001	2.48514E-001	3.57830E+000	9	...........
	19	0.266667	2.40446E-001	-2.78136E-004	0.00000E+000	-6.68766E-005	-1.68088E-001	2.40496E-001	3.57830E+000	9	...........
	20	0.28	2.32852E-001	-2.78587E-004	0.00000E+000	-6.48697E-005	-1.68088E-001	2.32906E-001	3.57830E+000	9	...........
	21	0.293333	2.25666E-001	-2.79631E-004	0.00000E+000	-6.31032E-005	-1.68088E-001	2.25720E-001	3.57830E+000	9	...........
	22	0.306667	2.18903E-001	-2.79508E-004	0.00000E+000	-6.11852E-005	-1.68088E-001	2.18953E-001	3.57830E+000	9	...........
	23	0.32	2.12482E-001	-2.79269E-004	0.00000E+000	-5.93395E-005	-1.68088E-001	2.12537E-001	3.57830E+000	9	...........
	24	0.333333	2.06373E-001	-2.78773E-004	0.00000E+000	-5.75313E-005	-1.68088E-001	2.06419E-001	3.57830E+000	9	...........
	25	0.346667	2.00522E-001	-2.79230E-004	0.00000E+000	-5.59917E-005	-1.68088E-001	2.00572E-001	3.57830E+000	9	...........
	26	0.36	1.94905E-001	-2.78902E-004	0.00000E+000	-5.43595E-005	-1.68088E-001	1.94953E-001	3.57830E+000	9	...........
	27	0.373333	1.89545E-001	-2.79035E-004	0.00000E+000	-5.28898E-005	-1.68088E-001	1.89589E-001	3.57830E+000	9	...........
	28	0.386667	1.84408E-001	-2.78869E-004	0.00000E+000	-5.14255E-005	-1.68088E-001	1.84445E-001	3.57830E+000	9	...........
	29	0.4	1.79456E-001	-2.79163E-004	0.00000E+000	-5.00974E-005	-1.68088E-001	1.79498E-001	3.57830E+000	9	...........
	30	0.413333	1.74684E-001	-2.79920E-004	0.00000E+000	-4.88974E-005	-1.68088E-001	1.74726E-001	3.57830E+000	9	...........
	31	0.426667	1.70065E-001	-2.78980E-004	0.00000E+000	-4.74446E-005	-1.68088E-001	1.70109E-001	3.57830E+000	9	...........
	32	0.44	1.65608E-001	-2.78744E-004	0.00000E+000	-4.61623E-005	-1.68088E-001	1.65648E-001	3.57830E+000	9	...........
	33	0.453333	1.61323E-001	-2.79749E-004	0.00000E+000	-4.51300E-005	-1.68088E-001	1.61355E-001	3.57830E+000	9	...........
	34	0.466667	1.57215E-001	-2.79909E-004	0.00000E+000	-4.40057E-005	-1.68088E-001	1.57240E-001	3.57830E+000	9	...........
	35	0.48	1.53192E-001	-2.79827E-004	0.00000E+000	-4.28673E-005	-1.68088E-001	1.53227E-001	3.57830E+000	9	...........
	36	0.493333	1.49265E-001	-2.79220E-004	0.00000E+000	-4.16778E-005	-1.68088E-001	1.49297E-001	3.57830E+000	9	...........
	37	0.506667	1.45453E-001	-2.79391E-004	0.00000E+000	-4.06382E-005	-1.68088E-001	1.45483E-001	3.57830E+000	9	...........
	38	0.52	1.41708E-001	-2.78915E-004	0.00000E+000	-3.95244E-005	-1.68088E-001	1.41747E-001	3.57830E+000	9	...........
	39	0.533333	1.38089E-001	-2.78255E-004	0.00000E+000	-3.84239E-005	-1.68088E-001	1.38121E-001	3.57830E+000	9	...........
	40	0.546667	1.34516E-001	-2.78903E-004	0.00000E+000	-3.75171E-005	-1.68088E-001	1.34543E-001	3.57830E+000	9	...........
	41	0.56	1.30999E-001	-2.79949E-004	0.00000E+000	-3.66731E-005	-1.68088E-001	1.31024E-001	3.57830E+000	9	...........
	42	0.573333	1.27560E-001	-2.78491E-004	0.00000E+000	-3.55243E-005	-1.68088E-001	1.27586E-001	3.57830E+000	9	...........
	43	0.586667	1.24192E-001	-2.80080E-004	0.00000E+000	-3.47837E-005	-1.68088E-001	1.24221E-001	3.57830E+000	9	...........
	44	0.6	1.20917E-001	-2.79652E-004	0.00000E+000	-3.38147E-005	-1.68088E-001	1.20942E-001	3.57854E+000	9	...........
	45	0.613333	1.17742E-001	-2.79329E-004	0.00000E+000	-3.28888E-005	-1.68088E-001	1.17773E-001	3.58020E+000	9	...........
	46	0.626667	1.14585E-001	-2.79096E-004	0.00000E+000	-3.19802E-005	-1.68088E-001	1.14608E-001	3.58020E+000	9	...........
	47	0.64	1.11478E-001	-2.79365E-004	0.00000E+000	-3.11429E-005	-1.68088E-001	1.11503E-001	3.58020E+000	9	...........
	48	0.653333	1.08490E-001	-2.78670E-004	0.00000E+000	-3.02328E-005	-1.68088E-001	1.08508E-001	3.58020E+000	9	...........
	49	0.666667	1.05529E-001	-2.78841E-004	0.00000E+000	-2.94258E-005	-1.68088E-001	1.05548E-001	3.58020E+000	9	...........
	50	0.68	1.02613E-001	-2.79060E-004	0.00000E+000	-2.86351E-005	-1.68088E-001	1.02639E-001	3.58020E+000	9	...........
	51	0.693333	9.97128E-002	-2.79447E-004	0.00000E+000	-2.78644E-005	-1.68088E-001	9.97363E-002	3.58020E+000	9	...........
	52	0.706667	9.68067E-002	-2.78934E-004	0.00000E+000	-2.70027E-005	-1.68088E-001	9.68267E-002	3.58020E+000	9	...........
	53	0.72	9.39813E-002	-2.79023E-004	0.00000E+000	-2.62229E-005	-1.68088E-001	9.39979E-002	3.58020E+000	9	...........
	54	0.733333	9.11948E-002	-2.80175E-004	0.00000E+000	-2.55505E-005	-1.68088E-001	9.12094E-002	3.58020E+000	9	...........
	55	0.746667	8.84813E-002	-2.79058E-004	0.00000E+000	-2.46915E-005	-1.68088E-001	8.84984E-002	3.58020E+000	9	...........
	56	0.76	8.57936E-002	-2.79051E-004	0.00000E+000	-2.39408E-005	-1.68088E-001	8.58172E-002	3.58020E+000	9	...........
	57	0.773333	8.31774E-002	-2.79163E-004	0.00000E+000	-2.32200E-005	-1.68088E-001	8.31906E-002	3.58020E+000	9	...........
	58	0.786667	8.05744E-002	-2.79725E-004	0.00000E+000	-2.25387E-005	-1.68088E-001	8.05850E-002	3.58020E+000	9	...........
	59	0.8	7.79719E-002	-2.78886E-004	0.00000E+000	-2.17453E-005	-1.68088E-001	7.79870E-002	3.58020E+000	9	...........
	60	0.813333	7.54054E-002	-2.80313E-004	0.00000E+000	-2.11371E-005	-1.68088E-001	7.54172E-002	3.58020E+000	9	...........
	61	0.826667	7.28719E-002	-2.79467E-004	0.00000E+000	-2.03653E-005	-1.68088E-001	7.28886E-002	3.58020E+000	9	...........
	62	0.84	7.03729E-002	-2.79080E-004	0.00000E+000	-1.96397E-005	-1.68088E-001	7.03859E-002	3.58020E+000	9	...........
	63	0.853333	6.79221E-002	-2.79746E-004	0.00000E+000	-1.90009E-005	-1.68088E-001	6.79371E-002	3.58020E+000	9	...........
	64	0.866667	6.54618E-002	-2.79118E-004	0.00000E+000	-1.82716E-005	-1.68088E-001	6.54720E-002	3.58020E+000	9	...........
	65	0.88	6.30103E-002	-2.79599E-004	0.00000E+000	-1.76176E-005	-1.68088E-001	6.30159E-002	3.58020E+000	9	...........
	66	0.893333	6.05934E-002	-2.78801E-004	0.00000E+000	-1.68935E-005	-1.68088E-001	6.06025E-002	3.58020E+000	9	...........
	67	0.906667	5.82563E-002	-2.78952E-004	0.00000E+000	-1.62507E-005	-1.68088E-001	5.82709E-002	3.58020E+000	9	...........
	68	0.92	5.59085E-002	-2.77821E-004	0.00000E+000	-1.55325E-005	-1.68088E-001	5.59136E-002	3.58020E+000	9	...........
	69	0.933333	5.35340E-002	-2.79389E-004	0.00000E+000	-1.49568E-005	-1.68088E-001	5.35473E-002	3.58020E+000	9	...........
	70	0.946667	5.12574E-002	-2.78807E-004	0.00000E+000	-1.42909E-005	-1.68088E-001	5.12662E-002	3.58020E+000	9	...........
	71	0.96	4.89667E-002	-2.80121E-004	0.00000E+000	-1.37166E-005	-1.68088E-001	4.89701E-002	3.58020E+000	9	...........
	72	0.97333	4.66963E-002	-2.78428E-004	0.00000E+000	-1.30016E-005	-1.68088E-001	4.67053E-002	3.58020E+000	9	...........
	73	0.98667	4.44077E-002	-2.78813E-004	0.00000E+000	-1.23815E-005	-1.68088E-001	4.44166E-002	3.58020E+000	9	...........
	74	1	4.21399E-002	-2.78891E-004	0.00000E+000	-1.17524E-005	-1.68088E-001	4.21486E-002	3.58020E+000	9	...........
	75	1.01333	3.99283E-002	-2.78594E-004	0.00000E+000	-1.11238E-005	-1.68088E-001	3.99380E-002	3.58020E+000	9	...........
	76	1.02667	3.77547E-002	-2.78809E-004	0.00000E+000	-1.05264E-005	-1.68088E-001	3.77612E-002	3.58020E+000	9	...........
	77	1.04	3.56342E-002	-2.79157E-004	0.00000E+000	-9.94755E-006	-1.68088E-001	3.56332E-002	3.58020E+000	9	...........
	78	1.05333	3.34729E-002	-2.79506E-004	0.00000E+000	-9.35590E-006	-1.68088E-001	3.34773E-002	3.58020E+000	9	...........
	79	1.06667	3.13258E-002	-2.79277E-004	0.00000E+000	-8.74857E-006	-1.68088E-001	3.13277E-002	3.58020E+000	9	...........
	80	1.08	2.92062E-002	-2.79031E-004	0.00000E+000	-8.14944E-006	-1.68088E-001	2.92000E-002	3.58020E+000	9	...........
	81	1.09333	2.71157E-002	-2.79929E-004	0.00000E+000	-7.59048E-006	-1.68088E-001	2.71157E-002	3.58020E+000	9	...........
	82	1.10667	2.50117E-002	-2.79174E-004	0.00000E+000	-6.98262E-006	-1.68088E-001	2.50092E-002	3.58020E+000	9	...........
	83	1.12	2.29204E-002	-2.79348E-004	0.00000E+000	-6.40278E-006	-1.68088E-001	2.29170E-002	3.58020E+000	9	...........
	84	1.13333	2.09353E-002	-2.78906E-004	0.00000E+000	-5.83897E-006	-1.68088E-001	2.09272E-002	3.58020E+000	9	...........
	85	1.14667	1.89145E-002	-2.78934E-004	0.00000E+000	-5.27590E-006	-1.68088E-001	1.89098E-002	3.58020E+000	9	...........
	86	1.16	1.68486E-002	-2.78983E-004	0.00000E+000	-4.70047E-006	-1.68088E-001	1.68403E-002	3.58020E+000	9	...........
	87	1.17333	1.48063E-002	-2.78845E-004	0.00000E+000	-4.12865E-006	-1.68088E-001	1.47962E-002	3.58020E+000	9	...........
	88	1.18667	1.28219E-002	-2.78964E-004	0.00000E+000	-3.57686E-006	-1.68088E-001	1.28112E-002	3.58020E+000	9	...........
	89	1.2	1.08814E-002	-2.78404E-004	0.00000E+000	-3.02943E-006	-1.68088E-001	1.08697E-002	3.58020E+000	9	...........
	90	1.21333	8.90409E-003	-2.79156E-004	0.00000E+000	-2.48563E-006	-1.68088E-001	8.89205E-003	3.58020E+000	9	...........
	91	1.22667	6.92554E-003	-2.79098E-004	0.00000E+000	-1.93290E-006	-1.68088E-001	6.91312E-003	3.58020E+000	9	...........
	92	1.24	4.95247E-003	-2.78756E-004	0.00000E+000	-1.38053E-006	-1.68088E-001	4.93600E-003	3.58020E+000	9	...........
	93	1.25333	2.97148E-003	-2.78857E-004	0.00000E+000	-8.28618E-007	-1.68088E-001	2.95361E-003	3.58020E+000	9	...........
	94	1.26667	1.05528E-003	-2.78902E-004	0.00000E+000	-2.94319E-007	-1.68088E-001	1.03403E-003	3.58020E+000	9	...........
	95	1.27	-9.22861E-005	-2.78531E-004	0.00000E+000	2.57045E-008	-1.68088E-001	-1.03808E-004	3.58020E+000	9	...........
STARTTIMEOFFSET	QUANT	587.5901	Start Time Offset (s)
