EXPLAIN
TAG	PWR800_DISCHARGE
TITLE	LABEL	PWR Cyclic Charge Discharge (Cell) - Discharge Step	Test &Identifier
DATE	LABEL	7-7-2017	Date
TIME	LABEL	16:12:48	Time
NOTES	NOTES	3	&Notes...
	supercap test cell
	2.8mg
	6M KOH
PSTAT	PSTAT	IFC5000-01520	Potentiostat
CAPACITY	QUANT	1.00000E-003	Capacity (A-hr)
CELLTYPE	SELECTOR	1	&Cell Type
WORKINGCONNECTION	SELECTOR	0	&Working Lead
MAXDISCHARGETIME	VARIABLEANDUNITS	1.00000E+002	s	1.00000E+002	second(s)	Max &Discharge Time
DISCHARGEMODE	MULTIPARAM	0	2.80000E-004	&Discharge Mode	Constant Current	Amp(s)
SAMPLETIME	QUANT	1.00000E-002	Sa&mple Period (s)
DISCHARGESTOPAT1	MULTIPARAM	3	0.00000E+000	Discharge Stop At &1	Voltage < Limit	V
DISCHARGESTOPAT2	MULTIPARAM	0	0.00000E+000	Discharge Stop At &2	None	N/A
AESBHCSELECTOR	TOGGLE	F	Save Both Half Cells
IRCOMP	TOGGLE	F	IR &Measure
EOC	QUANT	0	Open Circuit (V)
SEQUENCER	TOGGLE	TRUE	Run as Sequence
PSTATMODEL	IQUANT	53	Pstat Model
PSTATSECTION	LABEL	IFC5000-01520	Pstat Section
PSTATSERIALNO	LABEL	01520	Pstat Serial Number
CTRLMODE	IQUANT	0	Control Mode
ELECTROMETER	IQUANT	1	RE=0 or CS=1
IESTAB	IQUANT	0	I/E Stability
CASPEED	IQUANT	4	Control Amp Speed
CONVENTION	IQUANT	1	Current Convention
ICHRANGE	IQUANT	2	Ich Range
ICHRANGEMODE	TOGGLE	T	Ich Auto Range
ICHOFFSETENABLE	TOGGLE	F	Ich Offset Enable
ICHOFFSET	QUANT	0	Ich Offset (V)
ICHFILTER	IQUANT	1	Ich Filter
VCHRANGE	IQUANT	2	Vch Range
VCHRANGEMODE	TOGGLE	T	Vch Auto Range
VCHOFFSETENABLE	TOGGLE	F	Vch Offset Enable
VCHOFFSET	QUANT	0	Vch Offset (V)
VCHFILTER	IQUANT	1	Vch Filter
IERANGELOWERLIMIT	IQUANT	9	I/E Range Lower Limit
IERANGEMODE	TOGGLE	F	I/E AutoRange
IERANGE	IQUANT	9	I/E Range
ACHSELECT	IQUANT	1	Ach Select
ACHRANGE	IQUANT	2	Ach Range
ACHOFFSETENABLE	TOGGLE	F	Ach Offset Enable
ACHOFFSET	QUANT	0	Ach Offset (V)
ACHFILTER	IQUANT	1	Ach Filter
CABLEID	IQUANT	14	Cable ID
DCCALDATE	LABEL	5-7-2017	DC Calibration Date
ACCALDATE	LABEL	12/3/2015	AC Calibration Date
FRAMEWORKVERSION	QUANT	7.01	Framework Version
INSTRUMENTVERSION	LABEL	4.00	Instrument Version
CURVE	TABLE	59
	Pt	T	Vf	Im	Vu	Pwr	Sig	Ach	Temp	IERange	Over
	#	s	V	A	V	W	V	V	deg C	#	bits
	0	0.013333	5.16749E-001	-2.80507E-004	0.00000E+000	-1.44951E-004	-1.68088E-001	5.16999E-001	3.57870E+000	9	...........
	1	0.026667	4.83701E-001	-2.78468E-004	0.00000E+000	-1.34695E-004	-1.68088E-001	4.83860E-001	3.57870E+000	9	...........
	2	0.04	4.53427E-001	-2.77759E-004	0.00000E+000	-1.25943E-004	-1.68088E-001	4.53536E-001	3.57870E+000	9	...........
	3	0.053333	4.25201E-001	-2.79443E-004	0.00000E+000	-1.18819E-004	-1.68088E-001	4.25311E-001	3.57870E+000	9	...........
	4	0.066667	3.98924E-001	-2.79021E-004	0.00000E+000	-1.11308E-004	-1.68088E-001	3.99018E-001	3.57870E+000	9	...........
	5	0.08	3.74388E-001	-2.78632E-004	0.00000E+000	-1.04316E-004	-1.68088E-001	3.74480E-001	3.57870E+000	9	...........
	6	0.093333	3.51519E-001	-2.79678E-004	0.00000E+000	-9.83123E-005	-1.68088E-001	3.51600E-001	3.57870E+000	9	...........
	7	0.106667	3.30251E-001	-2.77936E-004	0.00000E+000	-9.17888E-005	-1.68088E-001	3.30326E-001	3.57870E+000	9	...........
	8	0.12	3.10453E-001	-2.78751E-004	0.00000E+000	-8.65389E-005	-1.68088E-001	3.10525E-001	3.57870E+000	9	...........
	9	0.133333	2.92079E-001	-2.78957E-004	0.00000E+000	-8.14775E-005	-1.68088E-001	2.92152E-001	3.57870E+000	9	...........
	10	0.146667	2.74984E-001	-2.79895E-004	0.00000E+000	-7.69665E-005	-1.68088E-001	2.75050E-001	3.57870E+000	9	...........
	11	0.16	2.59121E-001	-2.79081E-004	0.00000E+000	-7.23159E-005	-1.68088E-001	2.59186E-001	3.57870E+000	9	...........
	12	0.173333	2.44415E-001	-2.79668E-004	0.00000E+000	-6.83549E-005	-1.68088E-001	2.44475E-001	3.57870E+000	9	...........
	13	0.186667	2.30798E-001	-2.79282E-004	0.00000E+000	-6.44578E-005	-1.68088E-001	2.30851E-001	3.57870E+000	9	...........
	14	0.2	2.18151E-001	-2.78966E-004	0.00000E+000	-6.08568E-005	-1.68088E-001	2.18198E-001	3.57870E+000	9	...........
	15	0.213333	2.06362E-001	-2.79728E-004	0.00000E+000	-5.77254E-005	-1.68088E-001	2.06407E-001	3.57870E+000	9	...........
	16	0.226667	1.95377E-001	-2.78952E-004	0.00000E+000	-5.45009E-005	-1.68088E-001	1.95426E-001	3.57870E+000	9	...........
	17	0.24	1.85121E-001	-2.78760E-004	0.00000E+000	-5.16043E-005	-1.68088E-001	1.85165E-001	3.57870E+000	9	...........
	18	0.253333	1.75583E-001	-2.79060E-004	0.00000E+000	-4.89982E-005	-1.68088E-001	1.75623E-001	3.57870E+000	9	...........
	19	0.266667	1.66674E-001	-2.79104E-004	0.00000E+000	-4.65195E-005	-1.68088E-001	1.66714E-001	3.57870E+000	9	...........
	20	0.28	1.58327E-001	-2.79731E-004	0.00000E+000	-4.42890E-005	-1.68088E-001	1.58362E-001	3.57870E+000	9	...........
	21	0.293333	1.50449E-001	-2.79452E-004	0.00000E+000	-4.20433E-005	-1.68088E-001	1.50481E-001	3.57870E+000	9	...........
	22	0.306667	1.43044E-001	-2.77553E-004	0.00000E+000	-3.97024E-005	-1.68088E-001	1.43078E-001	3.57870E+000	9	...........
	23	0.32	1.35988E-001	-2.80770E-004	0.00000E+000	-3.81813E-005	-1.68088E-001	1.36016E-001	3.57870E+000	9	...........
	24	0.333333	1.29287E-001	-2.78498E-004	0.00000E+000	-3.60062E-005	-1.68088E-001	1.29320E-001	3.57870E+000	9	...........
	25	0.346667	1.22944E-001	-2.79083E-004	0.00000E+000	-3.43117E-005	-1.68088E-001	1.22975E-001	3.57870E+000	9	...........
	26	0.36	1.16944E-001	-2.79190E-004	0.00000E+000	-3.26496E-005	-1.68088E-001	1.16970E-001	3.57870E+000	9	...........
	27	0.373333	1.11234E-001	-2.78907E-004	0.00000E+000	-3.10240E-005	-1.68088E-001	1.11264E-001	3.57870E+000	9	...........
	28	0.386667	1.05829E-001	-2.79288E-004	0.00000E+000	-2.95566E-005	-1.68088E-001	1.05849E-001	3.57870E+000	9	...........
	29	0.4	1.00601E-001	-2.80069E-004	0.00000E+000	-2.81751E-005	-1.68088E-001	1.00625E-001	3.57870E+000	9	...........
	30	0.413333	9.55662E-002	-2.80427E-004	0.00000E+000	-2.67994E-005	-1.68088E-001	9.55817E-002	3.57870E+000	9	...........
	31	0.426667	9.07364E-002	-2.78514E-004	0.00000E+000	-2.52714E-005	-1.68088E-001	9.07622E-002	3.57870E+000	9	...........
	32	0.44	8.61446E-002	-2.80446E-004	0.00000E+000	-2.41589E-005	-1.68088E-001	8.61591E-002	3.57870E+000	9	...........
	33	0.453333	8.17387E-002	-2.78451E-004	0.00000E+000	-2.27602E-005	-1.68088E-001	8.17552E-002	3.57870E+000	9	...........
	34	0.466667	7.74102E-002	-2.79113E-004	0.00000E+000	-2.16062E-005	-1.68088E-001	7.74217E-002	3.57870E+000	9	...........
	35	0.48	7.32114E-002	-2.80337E-004	0.00000E+000	-2.05238E-005	-1.68088E-001	7.32227E-002	3.57870E+000	9	...........
	36	0.493333	6.91424E-002	-2.79380E-004	0.00000E+000	-1.93170E-005	-1.68088E-001	6.91526E-002	3.57870E+000	9	...........
	37	0.506667	6.51835E-002	-2.76748E-004	0.00000E+000	-1.80394E-005	-1.68088E-001	6.51986E-002	3.57817E+000	9	...........
	38	0.52	6.13465E-002	-2.78029E-004	0.00000E+000	-1.70561E-005	-1.68088E-001	6.13559E-002	3.57730E+000	9	...........
	39	0.533333	5.76362E-002	-2.78000E-004	0.00000E+000	-1.60228E-005	-1.68088E-001	5.76441E-002	3.57730E+000	9	...........
	40	0.546667	5.40055E-002	-2.79555E-004	0.00000E+000	-1.50975E-005	-1.68088E-001	5.40174E-002	3.57730E+000	9	...........
	41	0.56	5.04911E-002	-2.79239E-004	0.00000E+000	-1.40991E-005	-1.68088E-001	5.05012E-002	3.57730E+000	9	...........
	42	0.573333	4.71167E-002	-2.78321E-004	0.00000E+000	-1.31135E-005	-1.68088E-001	4.71271E-002	3.57730E+000	9	...........
	43	0.586667	4.37436E-002	-2.78634E-004	0.00000E+000	-1.21885E-005	-1.68088E-001	4.37579E-002	3.57730E+000	9	...........
	44	0.6	4.04971E-002	-2.78901E-004	0.00000E+000	-1.12947E-005	-1.68088E-001	4.05050E-002	3.57730E+000	9	...........
	45	0.613333	3.73079E-002	-2.78109E-004	0.00000E+000	-1.03757E-005	-1.68088E-001	3.73090E-002	3.57730E+000	9	...........
	46	0.626667	3.41666E-002	-2.80006E-004	0.00000E+000	-9.56688E-006	-1.68088E-001	3.41708E-002	3.57730E+000	9	...........
	47	0.64	3.11260E-002	-2.79362E-004	0.00000E+000	-8.69542E-006	-1.68088E-001	3.11281E-002	3.57730E+000	9	...........
	48	0.653333	2.80977E-002	-2.78487E-004	0.00000E+000	-7.82485E-006	-1.68088E-001	2.81004E-002	3.57730E+000	9	...........
	49	0.666667	2.51232E-002	-2.79209E-004	0.00000E+000	-7.01463E-006	-1.68088E-001	2.51206E-002	3.57730E+000	9	...........
	50	0.68	2.21495E-002	-2.77581E-004	0.00000E+000	-6.14829E-006	-1.68088E-001	2.21466E-002	3.57730E+000	9	...........
	51	0.693333	1.91914E-002	-2.79964E-004	0.00000E+000	-5.37289E-006	-1.68088E-001	1.91876E-002	3.57730E+000	9	...........
	52	0.706667	1.63261E-002	-2.78344E-004	0.00000E+000	-4.54426E-006	-1.68088E-001	1.63161E-002	3.57730E+000	9	...........
	53	0.72	1.35131E-002	-2.78992E-004	0.00000E+000	-3.77004E-006	-1.68088E-001	1.35057E-002	3.57730E+000	9	...........
	54	0.733333	1.07415E-002	-2.78228E-004	0.00000E+000	-2.98859E-006	-1.68088E-001	1.07310E-002	3.57730E+000	9	...........
	55	0.746667	8.01247E-003	-2.79123E-004	0.00000E+000	-2.23646E-006	-1.68088E-001	7.99790E-003	3.57730E+000	9	...........
	56	0.76	5.29818E-003	-2.79819E-004	0.00000E+000	-1.48253E-006	-1.68088E-001	5.28655E-003	3.57730E+000	9	...........
	57	0.773333	2.66796E-003	-2.78946E-004	0.00000E+000	-7.44215E-007	-1.68088E-001	2.65140E-003	3.57730E+000	9	...........
	58	0.781667	5.68332E-004	-2.78705E-004	0.00000E+000	-1.58397E-007	-1.68088E-001	5.51190E-004	3.57730E+000	9	...........
STARTTIMEOFFSET	QUANT	1636.38	Start Time Offset (s)
