EXPLAIN
TAG	PWR800_DISCHARGE
TITLE	LABEL	PWR Cyclic Charge Discharge (Cell) - Discharge Step	Test &Identifier
DATE	LABEL	7-7-2017	Date
TIME	LABEL	16:12:09	Time
NOTES	NOTES	3	&Notes...
	supercap test cell
	2.8mg
	6M KOH
PSTAT	PSTAT	IFC5000-01520	Potentiostat
CAPACITY	QUANT	1.00000E-003	Capacity (A-hr)
CELLTYPE	SELECTOR	1	&Cell Type
WORKINGCONNECTION	SELECTOR	0	&Working Lead
MAXDISCHARGETIME	VARIABLEANDUNITS	1.00000E+002	s	1.00000E+002	second(s)	Max &Discharge Time
DISCHARGEMODE	MULTIPARAM	0	2.80000E-004	&Discharge Mode	Constant Current	Amp(s)
SAMPLETIME	QUANT	1.00000E-002	Sa&mple Period (s)
DISCHARGESTOPAT1	MULTIPARAM	3	0.00000E+000	Discharge Stop At &1	Voltage < Limit	V
DISCHARGESTOPAT2	MULTIPARAM	0	0.00000E+000	Discharge Stop At &2	None	N/A
AESBHCSELECTOR	TOGGLE	F	Save Both Half Cells
IRCOMP	TOGGLE	F	IR &Measure
EOC	QUANT	0	Open Circuit (V)
SEQUENCER	TOGGLE	TRUE	Run as Sequence
PSTATMODEL	IQUANT	53	Pstat Model
PSTATSECTION	LABEL	IFC5000-01520	Pstat Section
PSTATSERIALNO	LABEL	01520	Pstat Serial Number
CTRLMODE	IQUANT	0	Control Mode
ELECTROMETER	IQUANT	1	RE=0 or CS=1
IESTAB	IQUANT	0	I/E Stability
CASPEED	IQUANT	4	Control Amp Speed
CONVENTION	IQUANT	1	Current Convention
ICHRANGE	IQUANT	2	Ich Range
ICHRANGEMODE	TOGGLE	T	Ich Auto Range
ICHOFFSETENABLE	TOGGLE	F	Ich Offset Enable
ICHOFFSET	QUANT	0	Ich Offset (V)
ICHFILTER	IQUANT	1	Ich Filter
VCHRANGE	IQUANT	2	Vch Range
VCHRANGEMODE	TOGGLE	T	Vch Auto Range
VCHOFFSETENABLE	TOGGLE	F	Vch Offset Enable
VCHOFFSET	QUANT	0	Vch Offset (V)
VCHFILTER	IQUANT	1	Vch Filter
IERANGELOWERLIMIT	IQUANT	9	I/E Range Lower Limit
IERANGEMODE	TOGGLE	F	I/E AutoRange
IERANGE	IQUANT	9	I/E Range
ACHSELECT	IQUANT	1	Ach Select
ACHRANGE	IQUANT	2	Ach Range
ACHOFFSETENABLE	TOGGLE	F	Ach Offset Enable
ACHOFFSET	QUANT	0	Ach Offset (V)
ACHFILTER	IQUANT	1	Ach Filter
CABLEID	IQUANT	14	Cable ID
DCCALDATE	LABEL	5-7-2017	DC Calibration Date
ACCALDATE	LABEL	12/3/2015	AC Calibration Date
FRAMEWORKVERSION	QUANT	7.01	Framework Version
INSTRUMENTVERSION	LABEL	4.00	Instrument Version
CURVE	TABLE	60
	Pt	T	Vf	Im	Vu	Pwr	Sig	Ach	Temp	IERange	Over
	#	s	V	A	V	W	V	V	deg C	#	bits
	0	0.013333	5.24150E-001	-2.79462E-004	0.00000E+000	-1.46480E-004	-1.68088E-001	5.24409E-001	3.57810E+000	9	...........
	1	0.026667	4.90812E-001	-2.78702E-004	0.00000E+000	-1.36790E-004	-1.68088E-001	4.91030E-001	3.57810E+000	9	...........
	2	0.04	4.60418E-001	-2.77429E-004	0.00000E+000	-1.27733E-004	-1.68088E-001	4.60526E-001	3.57810E+000	9	...........
	3	0.053333	4.31970E-001	-2.78013E-004	0.00000E+000	-1.20094E-004	-1.68088E-001	4.32077E-001	3.57810E+000	9	...........
	4	0.066667	4.05444E-001	-2.79134E-004	0.00000E+000	-1.13173E-004	-1.68088E-001	4.05543E-001	3.57810E+000	9	...........
	5	0.08	3.80652E-001	-2.79943E-004	0.00000E+000	-1.06561E-004	-1.68088E-001	3.80740E-001	3.57810E+000	9	...........
	6	0.093333	3.57525E-001	-2.79499E-004	0.00000E+000	-9.99279E-005	-1.68088E-001	3.57605E-001	3.57810E+000	9	...........
	7	0.106667	3.35943E-001	-2.79372E-004	0.00000E+000	-9.38530E-005	-1.68088E-001	3.36016E-001	3.57810E+000	9	...........
	8	0.12	3.15864E-001	-2.79331E-004	0.00000E+000	-8.82307E-005	-1.68088E-001	3.15938E-001	3.57810E+000	9	...........
	9	0.133333	2.97152E-001	-2.78831E-004	0.00000E+000	-8.28553E-005	-1.68088E-001	2.97219E-001	3.57810E+000	9	...........
	10	0.146667	2.79782E-001	-2.78607E-004	0.00000E+000	-7.79493E-005	-1.68088E-001	2.79848E-001	3.57810E+000	9	...........
	11	0.16	2.63653E-001	-2.78727E-004	0.00000E+000	-7.34871E-005	-1.68088E-001	2.63717E-001	3.57750E+000	9	...........
	12	0.173333	2.48694E-001	-2.79871E-004	0.00000E+000	-6.96021E-005	-1.68088E-001	2.48752E-001	3.57750E+000	9	...........
	13	0.186667	2.34825E-001	-2.79600E-004	0.00000E+000	-6.56571E-005	-1.68088E-001	2.34877E-001	3.57750E+000	9	...........
	14	0.2	2.21917E-001	-2.78643E-004	0.00000E+000	-6.18355E-005	-1.68088E-001	2.21966E-001	3.57750E+000	9	...........
	15	0.213333	2.09935E-001	-2.78323E-004	0.00000E+000	-5.84297E-005	-1.68088E-001	2.09984E-001	3.57750E+000	9	...........
	16	0.226667	1.98760E-001	-2.79459E-004	0.00000E+000	-5.55452E-005	-1.68088E-001	1.98809E-001	3.57750E+000	9	...........
	17	0.24	1.88361E-001	-2.79149E-004	0.00000E+000	-5.25808E-005	-1.68088E-001	1.88400E-001	3.57750E+000	9	...........
	18	0.253333	1.78676E-001	-2.78998E-004	0.00000E+000	-4.98503E-005	-1.68088E-001	1.78716E-001	3.57750E+000	9	...........
	19	0.266667	1.69583E-001	-2.79434E-004	0.00000E+000	-4.73874E-005	-1.68088E-001	1.69623E-001	3.57750E+000	9	...........
	20	0.28	1.61084E-001	-2.79567E-004	0.00000E+000	-4.50338E-005	-1.68088E-001	1.61120E-001	3.57750E+000	9	...........
	21	0.293333	1.53050E-001	-2.79543E-004	0.00000E+000	-4.27841E-005	-1.68088E-001	1.53080E-001	3.57750E+000	9	...........
	22	0.306667	1.45527E-001	-2.79456E-004	0.00000E+000	-4.06685E-005	-1.68088E-001	1.45558E-001	3.57750E+000	9	...........
	23	0.32	1.38406E-001	-2.79829E-004	0.00000E+000	-3.87299E-005	-1.68088E-001	1.38434E-001	3.57750E+000	9	...........
	24	0.333333	1.31664E-001	-2.79181E-004	0.00000E+000	-3.67580E-005	-1.68088E-001	1.31693E-001	3.57750E+000	9	...........
	25	0.346667	1.25260E-001	-2.78961E-004	0.00000E+000	-3.49427E-005	-1.68088E-001	1.25288E-001	3.57750E+000	9	...........
	26	0.36	1.19213E-001	-2.79209E-004	0.00000E+000	-3.32854E-005	-1.68088E-001	1.19239E-001	3.57750E+000	9	...........
	27	0.373333	1.13476E-001	-2.79644E-004	0.00000E+000	-3.17328E-005	-1.68088E-001	1.13501E-001	3.57750E+000	9	...........
	28	0.386667	1.07948E-001	-2.78577E-004	0.00000E+000	-3.00718E-005	-1.68088E-001	1.07976E-001	3.57750E+000	9	...........
	29	0.4	1.02659E-001	-2.79792E-004	0.00000E+000	-2.87231E-005	-1.68088E-001	1.02689E-001	3.57750E+000	9	...........
	30	0.413333	9.76185E-002	-2.78050E-004	0.00000E+000	-2.71428E-005	-1.68088E-001	9.76435E-002	3.57750E+000	9	...........
	31	0.426667	9.27896E-002	-2.79164E-004	0.00000E+000	-2.59035E-005	-1.68088E-001	9.28148E-002	3.57750E+000	9	...........
	32	0.44	8.81158E-002	-2.78660E-004	0.00000E+000	-2.45544E-005	-1.68088E-001	8.81401E-002	3.57750E+000	9	...........
	33	0.453333	8.35998E-002	-2.77654E-004	0.00000E+000	-2.32118E-005	-1.68088E-001	8.36225E-002	3.57750E+000	9	...........
	34	0.466667	7.92405E-002	-2.78582E-004	0.00000E+000	-2.20750E-005	-1.68088E-001	7.92568E-002	3.57750E+000	9	...........
	35	0.48	7.49915E-002	-2.77961E-004	0.00000E+000	-2.08447E-005	-1.68088E-001	7.50083E-002	3.57750E+000	9	...........
	36	0.493333	7.08765E-002	-2.78591E-004	0.00000E+000	-1.97455E-005	-1.68088E-001	7.08941E-002	3.57750E+000	9	...........
	37	0.506667	6.69045E-002	-2.79506E-004	0.00000E+000	-1.87002E-005	-1.68088E-001	6.69134E-002	3.57750E+000	9	...........
	38	0.52	6.30569E-002	-2.79296E-004	0.00000E+000	-1.76115E-005	-1.68088E-001	6.30710E-002	3.57750E+000	9	...........
	39	0.533333	5.93313E-002	-2.78512E-004	0.00000E+000	-1.65245E-005	-1.68088E-001	5.93436E-002	3.57750E+000	9	...........
	40	0.546667	5.56468E-002	-2.78517E-004	0.00000E+000	-1.54986E-005	-1.68088E-001	5.56555E-002	3.57750E+000	9	...........
	41	0.56	5.20743E-002	-2.79170E-004	0.00000E+000	-1.45376E-005	-1.68088E-001	5.20871E-002	3.57750E+000	9	...........
	42	0.573333	4.86350E-002	-2.77678E-004	0.00000E+000	-1.35048E-005	-1.68088E-001	4.86383E-002	3.57750E+000	9	...........
	43	0.586667	4.52942E-002	-2.79807E-004	0.00000E+000	-1.26737E-005	-1.68088E-001	4.53050E-002	3.57750E+000	9	...........
	44	0.6	4.19914E-002	-2.78822E-004	0.00000E+000	-1.17081E-005	-1.68088E-001	4.20014E-002	3.57750E+000	9	...........
	45	0.613333	3.87352E-002	-2.78422E-004	0.00000E+000	-1.07847E-005	-1.68088E-001	3.87429E-002	3.57750E+000	9	...........
	46	0.626667	3.55458E-002	-2.78057E-004	0.00000E+000	-9.88377E-006	-1.68088E-001	3.55490E-002	3.57750E+000	9	...........
	47	0.64	3.23755E-002	-2.79799E-004	0.00000E+000	-9.05862E-006	-1.68088E-001	3.23775E-002	3.57750E+000	9	...........
	48	0.653333	2.92937E-002	-2.79817E-004	0.00000E+000	-8.19686E-006	-1.68088E-001	2.92919E-002	3.57750E+000	9	...........
	49	0.666667	2.62673E-002	-2.78653E-004	0.00000E+000	-7.31946E-006	-1.68088E-001	2.62684E-002	3.57750E+000	9	...........
	50	0.68	2.32795E-002	-2.79634E-004	0.00000E+000	-6.50974E-006	-1.68088E-001	2.32780E-002	3.57750E+000	9	...........
	51	0.693333	2.03545E-002	-2.80361E-004	0.00000E+000	-5.70659E-006	-1.68088E-001	2.03515E-002	3.57750E+000	9	...........
	52	0.706667	1.75260E-002	-2.77933E-004	0.00000E+000	-4.87106E-006	-1.68088E-001	1.75193E-002	3.57750E+000	9	...........
	53	0.72	1.47377E-002	-2.79195E-004	0.00000E+000	-4.11468E-006	-1.68088E-001	1.47298E-002	3.57750E+000	9	...........
	54	0.733333	1.19727E-002	-2.79637E-004	0.00000E+000	-3.34801E-006	-1.68088E-001	1.19610E-002	3.57750E+000	9	...........
	55	0.746667	9.26649E-003	-2.79084E-004	0.00000E+000	-2.58613E-006	-1.68088E-001	9.25345E-003	3.57750E+000	9	...........
	56	0.76	6.57350E-003	-2.78960E-004	0.00000E+000	-1.83375E-006	-1.68088E-001	6.56205E-003	3.57750E+000	9	...........
	57	0.773333	3.86956E-003	-2.79654E-004	0.00000E+000	-1.08214E-006	-1.68088E-001	3.85573E-003	3.57750E+000	9	...........
	58	0.786667	1.21989E-003	-2.79281E-004	0.00000E+000	-3.40691E-007	-1.68088E-001	1.20471E-003	3.57750E+000	9	...........
	59	0.788333	-2.47808E-004	-2.80056E-004	0.00000E+000	6.94001E-008	-1.68088E-001	-2.69890E-004	3.57750E+000	9	...........
STARTTIMEOFFSET	QUANT	1609.722	Start Time Offset (s)
