EXPLAIN
TAG	PWR800_DISCHARGE
TITLE	LABEL	PWR Cyclic Charge Discharge (Cell) - Discharge Step	Test &Identifier
DATE	LABEL	7-7-2017	Date
TIME	LABEL	16:13:05	Time
NOTES	NOTES	3	&Notes...
	supercap test cell
	2.8mg
	6M KOH
PSTAT	PSTAT	IFC5000-01520	Potentiostat
CAPACITY	QUANT	1.00000E-003	Capacity (A-hr)
CELLTYPE	SELECTOR	1	&Cell Type
WORKINGCONNECTION	SELECTOR	0	&Working Lead
MAXDISCHARGETIME	VARIABLEANDUNITS	1.00000E+002	s	1.00000E+002	second(s)	Max &Discharge Time
DISCHARGEMODE	MULTIPARAM	0	2.80000E-004	&Discharge Mode	Constant Current	Amp(s)
SAMPLETIME	QUANT	1.00000E-002	Sa&mple Period (s)
DISCHARGESTOPAT1	MULTIPARAM	3	0.00000E+000	Discharge Stop At &1	Voltage < Limit	V
DISCHARGESTOPAT2	MULTIPARAM	0	0.00000E+000	Discharge Stop At &2	None	N/A
AESBHCSELECTOR	TOGGLE	F	Save Both Half Cells
IRCOMP	TOGGLE	F	IR &Measure
EOC	QUANT	0	Open Circuit (V)
SEQUENCER	TOGGLE	TRUE	Run as Sequence
PSTATMODEL	IQUANT	53	Pstat Model
PSTATSECTION	LABEL	IFC5000-01520	Pstat Section
PSTATSERIALNO	LABEL	01520	Pstat Serial Number
CTRLMODE	IQUANT	0	Control Mode
ELECTROMETER	IQUANT	1	RE=0 or CS=1
IESTAB	IQUANT	0	I/E Stability
CASPEED	IQUANT	4	Control Amp Speed
CONVENTION	IQUANT	1	Current Convention
ICHRANGE	IQUANT	2	Ich Range
ICHRANGEMODE	TOGGLE	T	Ich Auto Range
ICHOFFSETENABLE	TOGGLE	F	Ich Offset Enable
ICHOFFSET	QUANT	0	Ich Offset (V)
ICHFILTER	IQUANT	1	Ich Filter
VCHRANGE	IQUANT	2	Vch Range
VCHRANGEMODE	TOGGLE	T	Vch Auto Range
VCHOFFSETENABLE	TOGGLE	F	Vch Offset Enable
VCHOFFSET	QUANT	0	Vch Offset (V)
VCHFILTER	IQUANT	1	Vch Filter
IERANGELOWERLIMIT	IQUANT	9	I/E Range Lower Limit
IERANGEMODE	TOGGLE	F	I/E AutoRange
IERANGE	IQUANT	9	I/E Range
ACHSELECT	IQUANT	1	Ach Select
ACHRANGE	IQUANT	2	Ach Range
ACHOFFSETENABLE	TOGGLE	F	Ach Offset Enable
ACHOFFSET	QUANT	0	Ach Offset (V)
ACHFILTER	IQUANT	1	Ach Filter
CABLEID	IQUANT	14	Cable ID
DCCALDATE	LABEL	5-7-2017	DC Calibration Date
ACCALDATE	LABEL	12/3/2015	AC Calibration Date
FRAMEWORKVERSION	QUANT	7.01	Framework Version
INSTRUMENTVERSION	LABEL	4.00	Instrument Version
CURVE	TABLE	59
	Pt	T	Vf	Im	Vu	Pwr	Sig	Ach	Temp	IERange	Over
	#	s	V	A	V	W	V	V	deg C	#	bits
	0	0.013333	5.23374E-001	-2.77844E-004	0.00000E+000	-1.45416E-004	-1.68088E-001	5.23624E-001	3.57880E+000	9	...........
	1	0.026667	4.90061E-001	-2.79230E-004	0.00000E+000	-1.36840E-004	-1.68088E-001	4.90242E-001	3.57880E+000	9	...........
	2	0.04	4.59675E-001	-2.79437E-004	0.00000E+000	-1.28450E-004	-1.68088E-001	4.59786E-001	3.57880E+000	9	...........
	3	0.053333	4.31260E-001	-2.79768E-004	0.00000E+000	-1.20653E-004	-1.68088E-001	4.31361E-001	3.57880E+000	9	...........
	4	0.066667	4.04769E-001	-2.77908E-004	0.00000E+000	-1.12489E-004	-1.68088E-001	4.04862E-001	3.57880E+000	9	...........
	5	0.08	3.80008E-001	-2.78632E-004	0.00000E+000	-1.05883E-004	-1.68088E-001	3.80092E-001	3.57880E+000	9	...........
	6	0.093333	3.56916E-001	-2.78602E-004	0.00000E+000	-9.94376E-005	-1.68088E-001	3.56996E-001	3.57880E+000	9	...........
	7	0.106667	3.35371E-001	-2.78187E-004	0.00000E+000	-9.32958E-005	-1.68088E-001	3.35444E-001	3.57880E+000	9	...........
	8	0.12	3.15340E-001	-2.78686E-004	0.00000E+000	-8.78810E-005	-1.68088E-001	3.15409E-001	3.57880E+000	9	...........
	9	0.133333	2.96707E-001	-2.78544E-004	0.00000E+000	-8.26457E-005	-1.68088E-001	2.96775E-001	3.57880E+000	9	...........
	10	0.146667	2.79395E-001	-2.79552E-004	0.00000E+000	-7.81053E-005	-1.68088E-001	2.79459E-001	3.57880E+000	9	...........
	11	0.16	2.63306E-001	-2.78344E-004	0.00000E+000	-7.32895E-005	-1.68088E-001	2.63369E-001	3.57880E+000	9	...........
	12	0.173333	2.48354E-001	-2.77179E-004	0.00000E+000	-6.88383E-005	-1.68088E-001	2.48423E-001	3.57880E+000	9	...........
	13	0.186667	2.34460E-001	-2.78222E-004	0.00000E+000	-6.52320E-005	-1.68088E-001	2.34512E-001	3.57880E+000	9	...........
	14	0.2	2.21592E-001	-2.78594E-004	0.00000E+000	-6.17340E-005	-1.68088E-001	2.21644E-001	3.57880E+000	9	...........
	15	0.213333	2.09595E-001	-2.78847E-004	0.00000E+000	-5.84449E-005	-1.68088E-001	2.09643E-001	3.57880E+000	9	...........
	16	0.226667	1.98410E-001	-2.79738E-004	0.00000E+000	-5.55027E-005	-1.68088E-001	1.98453E-001	3.57880E+000	9	...........
	17	0.24	1.88005E-001	-2.79217E-004	0.00000E+000	-5.24941E-005	-1.68088E-001	1.88044E-001	3.57880E+000	9	...........
	18	0.253333	1.78266E-001	-2.79122E-004	0.00000E+000	-4.97578E-005	-1.68088E-001	1.78308E-001	3.57880E+000	9	...........
	19	0.266667	1.69131E-001	-2.78046E-004	0.00000E+000	-4.70261E-005	-1.68088E-001	1.69169E-001	3.57880E+000	9	...........
	20	0.28	1.60558E-001	-2.77774E-004	0.00000E+000	-4.45989E-005	-1.68088E-001	1.60590E-001	3.57880E+000	9	...........
	21	0.293333	1.52521E-001	-2.79909E-004	0.00000E+000	-4.26918E-005	-1.68088E-001	1.52553E-001	3.57880E+000	9	...........
	22	0.306667	1.44965E-001	-2.78418E-004	0.00000E+000	-4.03607E-005	-1.68088E-001	1.44993E-001	3.57880E+000	9	...........
	23	0.32	1.37888E-001	-2.78132E-004	0.00000E+000	-3.83511E-005	-1.68088E-001	1.37926E-001	3.57880E+000	9	...........
	24	0.333333	1.31137E-001	-2.79332E-004	0.00000E+000	-3.66308E-005	-1.68088E-001	1.31173E-001	3.57880E+000	9	...........
	25	0.346667	1.24725E-001	-2.79589E-004	0.00000E+000	-3.48718E-005	-1.68088E-001	1.24759E-001	3.57880E+000	9	...........
	26	0.36	1.18613E-001	-2.77464E-004	0.00000E+000	-3.29107E-005	-1.68088E-001	1.18646E-001	3.57880E+000	9	...........
	27	0.373333	1.12809E-001	-2.78586E-004	0.00000E+000	-3.14270E-005	-1.68088E-001	1.12841E-001	3.57880E+000	9	...........
	28	0.386667	1.07253E-001	-2.78548E-004	0.00000E+000	-2.98752E-005	-1.68088E-001	1.07287E-001	3.57880E+000	9	...........
	29	0.4	1.01952E-001	-2.78986E-004	0.00000E+000	-2.84433E-005	-1.68088E-001	1.01985E-001	3.57815E+000	9	...........
	30	0.413333	9.68482E-002	-2.79465E-004	0.00000E+000	-2.70657E-005	-1.68088E-001	9.68745E-002	3.57750E+000	9	...........
	31	0.426667	9.19917E-002	-2.78799E-004	0.00000E+000	-2.56472E-005	-1.68088E-001	9.20202E-002	3.57750E+000	9	...........
	32	0.44	8.73308E-002	-2.78743E-004	0.00000E+000	-2.43428E-005	-1.68088E-001	8.73543E-002	3.57750E+000	9	...........
	33	0.453333	8.27992E-002	-2.78952E-004	0.00000E+000	-2.30970E-005	-1.68088E-001	8.28221E-002	3.57750E+000	9	...........
	34	0.466667	7.84806E-002	-2.79311E-004	0.00000E+000	-2.19205E-005	-1.68088E-001	7.85027E-002	3.57750E+000	9	...........
	35	0.48	7.42871E-002	-2.79012E-004	0.00000E+000	-2.07270E-005	-1.68088E-001	7.43014E-002	3.57750E+000	9	...........
	36	0.493333	7.02444E-002	-2.78091E-004	0.00000E+000	-1.95344E-005	-1.68088E-001	7.02545E-002	3.57750E+000	9	...........
	37	0.506667	6.62656E-002	-2.80057E-004	0.00000E+000	-1.85582E-005	-1.68088E-001	6.62803E-002	3.57750E+000	9	...........
	38	0.52	6.24130E-002	-2.79802E-004	0.00000E+000	-1.74633E-005	-1.68088E-001	6.24253E-002	3.57750E+000	9	...........
	39	0.533333	5.86810E-002	-2.78691E-004	0.00000E+000	-1.63538E-005	-1.68088E-001	5.86943E-002	3.57750E+000	9	...........
	40	0.546667	5.50021E-002	-2.80679E-004	0.00000E+000	-1.54380E-005	-1.68088E-001	5.50124E-002	3.57750E+000	9	...........
	41	0.56	5.14492E-002	-2.78091E-004	0.00000E+000	-1.43076E-005	-1.68088E-001	5.14579E-002	3.57750E+000	9	...........
	42	0.573333	4.80074E-002	-2.78127E-004	0.00000E+000	-1.33521E-005	-1.68088E-001	4.80148E-002	3.57750E+000	9	...........
	43	0.586667	4.46290E-002	-2.79334E-004	0.00000E+000	-1.24664E-005	-1.68088E-001	4.46410E-002	3.57750E+000	9	...........
	44	0.6	4.13155E-002	-2.79120E-004	0.00000E+000	-1.15320E-005	-1.68088E-001	4.13246E-002	3.57750E+000	9	...........
	45	0.613333	3.80558E-002	-2.78226E-004	0.00000E+000	-1.05881E-005	-1.68088E-001	3.80618E-002	3.57750E+000	9	...........
	46	0.626667	3.48533E-002	-2.78061E-004	0.00000E+000	-9.69135E-006	-1.68088E-001	3.48530E-002	3.57750E+000	9	...........
	47	0.64	3.17445E-002	-2.78418E-004	0.00000E+000	-8.83823E-006	-1.68088E-001	3.17452E-002	3.57750E+000	9	...........
	48	0.653333	2.86797E-002	-2.78466E-004	0.00000E+000	-7.98631E-006	-1.68088E-001	2.86804E-002	3.57750E+000	9	...........
	49	0.666667	2.56703E-002	-2.78999E-004	0.00000E+000	-7.16200E-006	-1.68088E-001	2.56683E-002	3.57750E+000	9	...........
	50	0.68	2.27095E-002	-2.79191E-004	0.00000E+000	-6.34029E-006	-1.68088E-001	2.27040E-002	3.57750E+000	9	...........
	51	0.693333	1.98113E-002	-2.78347E-004	0.00000E+000	-5.51442E-006	-1.68088E-001	1.98067E-002	3.57750E+000	9	...........
	52	0.706667	1.69867E-002	-2.79736E-004	0.00000E+000	-4.75179E-006	-1.68088E-001	1.69788E-002	3.57750E+000	9	...........
	53	0.72	1.42281E-002	-2.77221E-004	0.00000E+000	-3.94434E-006	-1.68088E-001	1.42227E-002	3.57750E+000	9	...........
	54	0.733333	1.14804E-002	-2.79194E-004	0.00000E+000	-3.20525E-006	-1.68088E-001	1.14633E-002	3.57750E+000	9	...........
	55	0.746667	8.70433E-003	-2.78881E-004	0.00000E+000	-2.42748E-006	-1.68088E-001	8.69062E-003	3.57750E+000	9	...........
	56	0.76	5.98640E-003	-2.77952E-004	0.00000E+000	-1.66393E-006	-1.68088E-001	5.97125E-003	3.57750E+000	9	...........
	57	0.773333	3.28460E-003	-2.79041E-004	0.00000E+000	-9.16536E-007	-1.68088E-001	3.26398E-003	3.57750E+000	9	...........
	58	0.785	7.72875E-004	-2.78279E-004	0.00000E+000	-2.15075E-007	-1.68088E-001	7.58609E-004	3.57750E+000	9	...........
STARTTIMEOFFSET	QUANT	1648.009	Start Time Offset (s)
