EXPLAIN
TAG	PWR800_DISCHARGE
TITLE	LABEL	PWR Cyclic Charge Discharge (Cell) - Discharge Step	Test &Identifier
DATE	LABEL	7-7-2017	Date
TIME	LABEL	16:02:45	Time
NOTES	NOTES	3	&Notes...
	supercap test cell
	2.8mg
	6M KOH
PSTAT	PSTAT	IFC5000-01520	Potentiostat
CAPACITY	QUANT	1.00000E-003	Capacity (A-hr)
CELLTYPE	SELECTOR	1	&Cell Type
WORKINGCONNECTION	SELECTOR	0	&Working Lead
MAXDISCHARGETIME	VARIABLEANDUNITS	1.00000E+002	s	1.00000E+002	second(s)	Max &Discharge Time
DISCHARGEMODE	MULTIPARAM	0	2.80000E-004	&Discharge Mode	Constant Current	Amp(s)
SAMPLETIME	QUANT	1.00000E-002	Sa&mple Period (s)
DISCHARGESTOPAT1	MULTIPARAM	3	0.00000E+000	Discharge Stop At &1	Voltage < Limit	V
DISCHARGESTOPAT2	MULTIPARAM	0	0.00000E+000	Discharge Stop At &2	None	N/A
AESBHCSELECTOR	TOGGLE	F	Save Both Half Cells
IRCOMP	TOGGLE	F	IR &Measure
EOC	QUANT	0	Open Circuit (V)
SEQUENCER	TOGGLE	TRUE	Run as Sequence
PSTATMODEL	IQUANT	53	Pstat Model
PSTATSECTION	LABEL	IFC5000-01520	Pstat Section
PSTATSERIALNO	LABEL	01520	Pstat Serial Number
CTRLMODE	IQUANT	0	Control Mode
ELECTROMETER	IQUANT	1	RE=0 or CS=1
IESTAB	IQUANT	0	I/E Stability
CASPEED	IQUANT	4	Control Amp Speed
CONVENTION	IQUANT	1	Current Convention
ICHRANGE	IQUANT	2	Ich Range
ICHRANGEMODE	TOGGLE	T	Ich Auto Range
ICHOFFSETENABLE	TOGGLE	F	Ich Offset Enable
ICHOFFSET	QUANT	0	Ich Offset (V)
ICHFILTER	IQUANT	1	Ich Filter
VCHRANGE	IQUANT	2	Vch Range
VCHRANGEMODE	TOGGLE	T	Vch Auto Range
VCHOFFSETENABLE	TOGGLE	F	Vch Offset Enable
VCHOFFSET	QUANT	0	Vch Offset (V)
VCHFILTER	IQUANT	1	Vch Filter
IERANGELOWERLIMIT	IQUANT	9	I/E Range Lower Limit
IERANGEMODE	TOGGLE	F	I/E AutoRange
IERANGE	IQUANT	9	I/E Range
ACHSELECT	IQUANT	1	Ach Select
ACHRANGE	IQUANT	2	Ach Range
ACHOFFSETENABLE	TOGGLE	F	Ach Offset Enable
ACHOFFSET	QUANT	0	Ach Offset (V)
ACHFILTER	IQUANT	1	Ach Filter
CABLEID	IQUANT	14	Cable ID
DCCALDATE	LABEL	5-7-2017	DC Calibration Date
ACCALDATE	LABEL	12/3/2015	AC Calibration Date
FRAMEWORKVERSION	QUANT	7.01	Framework Version
INSTRUMENTVERSION	LABEL	4.00	Instrument Version
CURVE	TABLE	67
	Pt	T	Vf	Im	Vu	Pwr	Sig	Ach	Temp	IERange	Over
	#	s	V	A	V	W	V	V	deg C	#	bits
	0	0.013333	5.29783E-001	-2.79167E-004	0.00000E+000	-1.47898E-004	-1.68088E-001	5.29965E-001	3.57890E+000	9	...........
	1	0.026667	4.97013E-001	-2.78734E-004	0.00000E+000	-1.38534E-004	-1.68088E-001	4.97230E-001	3.57890E+000	9	...........
	2	0.04	4.67393E-001	-2.79489E-004	0.00000E+000	-1.30631E-004	-1.68088E-001	4.67502E-001	3.57890E+000	9	...........
	3	0.053333	4.39632E-001	-2.79295E-004	0.00000E+000	-1.22787E-004	-1.68088E-001	4.39735E-001	3.57890E+000	9	...........
	4	0.066667	4.13778E-001	-2.79474E-004	0.00000E+000	-1.15640E-004	-1.68088E-001	4.13880E-001	3.57890E+000	9	...........
	5	0.08	3.89682E-001	-2.78755E-004	0.00000E+000	-1.08626E-004	-1.68088E-001	3.89770E-001	3.57890E+000	9	...........
	6	0.093333	3.67215E-001	-2.77295E-004	0.00000E+000	-1.01827E-004	-1.68088E-001	3.67303E-001	3.57890E+000	9	...........
	7	0.106667	3.46298E-001	-2.78721E-004	0.00000E+000	-9.65205E-005	-1.68088E-001	3.46379E-001	3.57890E+000	9	...........
	8	0.12	3.26866E-001	-2.78702E-004	0.00000E+000	-9.10983E-005	-1.68088E-001	3.26944E-001	3.57890E+000	9	...........
	9	0.133333	3.08837E-001	-2.78795E-004	0.00000E+000	-8.61023E-005	-1.68088E-001	3.08909E-001	3.57890E+000	9	...........
	10	0.146667	2.92071E-001	-2.79223E-004	0.00000E+000	-8.15529E-005	-1.68088E-001	2.92141E-001	3.57890E+000	9	...........
	11	0.16	2.76504E-001	-2.78440E-004	0.00000E+000	-7.69899E-005	-1.68088E-001	2.76569E-001	3.57890E+000	9	...........
	12	0.173333	2.62058E-001	-2.79008E-004	0.00000E+000	-7.31164E-005	-1.68088E-001	2.62121E-001	3.57890E+000	9	...........
	13	0.186667	2.48593E-001	-2.78199E-004	0.00000E+000	-6.91583E-005	-1.68088E-001	2.48655E-001	3.57890E+000	9	...........
	14	0.2	2.36129E-001	-2.79414E-004	0.00000E+000	-6.59776E-005	-1.68088E-001	2.36189E-001	3.57890E+000	9	...........
	15	0.213333	2.24542E-001	-2.78956E-004	0.00000E+000	-6.26374E-005	-1.68088E-001	2.24595E-001	3.57890E+000	9	...........
	16	0.226667	2.13715E-001	-2.79813E-004	0.00000E+000	-5.98003E-005	-1.68088E-001	2.13766E-001	3.57890E+000	9	...........
	17	0.24	2.03643E-001	-2.78189E-004	0.00000E+000	-5.66514E-005	-1.68088E-001	2.03695E-001	3.57890E+000	9	...........
	18	0.253333	1.94219E-001	-2.78827E-004	0.00000E+000	-5.41534E-005	-1.68088E-001	1.94271E-001	3.57890E+000	9	...........
	19	0.266667	1.85383E-001	-2.78199E-004	0.00000E+000	-5.15732E-005	-1.68088E-001	1.85428E-001	3.57890E+000	9	...........
	20	0.28	1.77087E-001	-2.79197E-004	0.00000E+000	-4.94422E-005	-1.68088E-001	1.77135E-001	3.57890E+000	9	...........
	21	0.293333	1.69290E-001	-2.78895E-004	0.00000E+000	-4.72141E-005	-1.68088E-001	1.69341E-001	3.57890E+000	9	...........
	22	0.306667	1.61916E-001	-2.79275E-004	0.00000E+000	-4.52190E-005	-1.68088E-001	1.61958E-001	3.57890E+000	9	...........
	23	0.32	1.54909E-001	-2.79033E-004	0.00000E+000	-4.32248E-005	-1.68088E-001	1.54952E-001	3.57890E+000	9	...........
	24	0.333333	1.48315E-001	-2.78744E-004	0.00000E+000	-4.13418E-005	-1.68088E-001	1.48356E-001	3.57890E+000	9	...........
	25	0.346667	1.42094E-001	-2.79368E-004	0.00000E+000	-3.96964E-005	-1.68088E-001	1.42130E-001	3.57890E+000	9	...........
	26	0.36	1.36127E-001	-2.78841E-004	0.00000E+000	-3.79577E-005	-1.68088E-001	1.36168E-001	3.57890E+000	9	...........
	27	0.373333	1.30454E-001	-2.79225E-004	0.00000E+000	-3.64259E-005	-1.68088E-001	1.30493E-001	3.57890E+000	9	...........
	28	0.386667	1.25034E-001	-2.77866E-004	0.00000E+000	-3.47428E-005	-1.68088E-001	1.25069E-001	3.57890E+000	9	...........
	29	0.4	1.19840E-001	-2.79516E-004	0.00000E+000	-3.34971E-005	-1.68088E-001	1.19873E-001	3.57890E+000	9	...........
	30	0.413333	1.14852E-001	-2.78032E-004	0.00000E+000	-3.19326E-005	-1.68088E-001	1.14882E-001	3.57890E+000	9	...........
	31	0.426667	1.10033E-001	-2.78899E-004	0.00000E+000	-3.06880E-005	-1.68088E-001	1.10053E-001	3.57890E+000	9	...........
	32	0.44	1.05357E-001	-2.79313E-004	0.00000E+000	-2.94275E-005	-1.68088E-001	1.05381E-001	3.57890E+000	9	...........
	33	0.453333	1.00849E-001	-2.78806E-004	0.00000E+000	-2.81174E-005	-1.68088E-001	1.00876E-001	3.57890E+000	9	...........
	34	0.466667	9.65311E-002	-2.79194E-004	0.00000E+000	-2.69509E-005	-1.68088E-001	9.65575E-002	3.57890E+000	9	...........
	35	0.48	9.23431E-002	-2.78258E-004	0.00000E+000	-2.56952E-005	-1.68088E-001	9.23640E-002	3.57890E+000	9	...........
	36	0.493333	8.82602E-002	-2.79689E-004	0.00000E+000	-2.46854E-005	-1.68088E-001	8.82761E-002	3.57890E+000	9	...........
	37	0.506667	8.43116E-002	-2.78658E-004	0.00000E+000	-2.34941E-005	-1.68088E-001	8.43342E-002	3.57890E+000	9	...........
	38	0.52	8.04525E-002	-2.78940E-004	0.00000E+000	-2.24414E-005	-1.68088E-001	8.04749E-002	3.57890E+000	9	...........
	39	0.533333	7.67071E-002	-2.79373E-004	0.00000E+000	-2.14299E-005	-1.68088E-001	7.67272E-002	3.57890E+000	9	...........
	40	0.546667	7.30824E-002	-2.79878E-004	0.00000E+000	-2.04542E-005	-1.68088E-001	7.30993E-002	3.57890E+000	9	...........
	41	0.56	6.95667E-002	-2.78538E-004	0.00000E+000	-1.93770E-005	-1.68088E-001	6.95817E-002	3.57760E+000	9	...........
	42	0.573333	6.61214E-002	-2.78445E-004	0.00000E+000	-1.84111E-005	-1.68088E-001	6.61307E-002	3.57750E+000	9	...........
	43	0.586667	6.27322E-002	-2.79257E-004	0.00000E+000	-1.75184E-005	-1.68088E-001	6.27426E-002	3.57750E+000	9	...........
	44	0.6	5.93692E-002	-2.78468E-004	0.00000E+000	-1.65324E-005	-1.68088E-001	5.93843E-002	3.57750E+000	9	...........
	45	0.613333	5.60892E-002	-2.78974E-004	0.00000E+000	-1.56474E-005	-1.68088E-001	5.61012E-002	3.57750E+000	9	...........
	46	0.626667	5.29388E-002	-2.78473E-004	0.00000E+000	-1.47420E-005	-1.68088E-001	5.29467E-002	3.57750E+000	9	...........
	47	0.64	4.98641E-002	-2.77837E-004	0.00000E+000	-1.38541E-005	-1.68088E-001	4.98717E-002	3.57750E+000	9	...........
	48	0.653333	4.68515E-002	-2.78936E-004	0.00000E+000	-1.30686E-005	-1.68088E-001	4.68625E-002	3.57750E+000	9	...........
	49	0.666667	4.38516E-002	-2.79088E-004	0.00000E+000	-1.22384E-005	-1.68088E-001	4.38634E-002	3.57750E+000	9	...........
	50	0.68	4.09059E-002	-2.80131E-004	0.00000E+000	-1.14590E-005	-1.68088E-001	4.09156E-002	3.57750E+000	9	...........
	51	0.693333	3.79787E-002	-2.79333E-004	0.00000E+000	-1.06087E-005	-1.68088E-001	3.79903E-002	3.57750E+000	9	...........
	52	0.706667	3.50762E-002	-2.79464E-004	0.00000E+000	-9.80252E-006	-1.68088E-001	3.50796E-002	3.57750E+000	9	...........
	53	0.72	3.22528E-002	-2.79682E-004	0.00000E+000	-9.02055E-006	-1.68088E-001	3.22584E-002	3.57750E+000	9	...........
	54	0.733333	2.95013E-002	-2.78472E-004	0.00000E+000	-8.21528E-006	-1.68088E-001	2.95043E-002	3.57750E+000	9	...........
	55	0.746667	2.67702E-002	-2.78449E-004	0.00000E+000	-7.45413E-006	-1.68088E-001	2.67720E-002	3.57750E+000	9	...........
	56	0.76	2.40858E-002	-2.77585E-004	0.00000E+000	-6.68585E-006	-1.68088E-001	2.40866E-002	3.57750E+000	9	...........
	57	0.773333	2.14155E-002	-2.79740E-004	0.00000E+000	-5.99078E-006	-1.68088E-001	2.14135E-002	3.57750E+000	9	...........
	58	0.786667	1.88034E-002	-2.78467E-004	0.00000E+000	-5.23611E-006	-1.68088E-001	1.88023E-002	3.57750E+000	9	...........
	59	0.8	1.62109E-002	-2.77970E-004	0.00000E+000	-4.50614E-006	-1.68088E-001	1.62040E-002	3.57750E+000	9	...........
	60	0.813333	1.36473E-002	-2.78147E-004	0.00000E+000	-3.79595E-006	-1.68088E-001	1.36396E-002	3.57750E+000	9	...........
	61	0.826667	1.10677E-002	-2.79575E-004	0.00000E+000	-3.09426E-006	-1.68088E-001	1.10660E-002	3.57750E+000	9	...........
	62	0.84	8.56018E-003	-2.79223E-004	0.00000E+000	-2.39020E-006	-1.68088E-001	8.54804E-003	3.57750E+000	9	...........
	63	0.853333	6.08209E-003	-2.80204E-004	0.00000E+000	-1.70423E-006	-1.68088E-001	6.07012E-003	3.57750E+000	9	...........
	64	0.866667	3.63236E-003	-2.79438E-004	0.00000E+000	-1.01502E-006	-1.68088E-001	3.61823E-003	3.57750E+000	9	...........
	65	0.88	1.21141E-003	-2.78737E-004	0.00000E+000	-3.37666E-007	-1.68088E-001	1.20111E-003	3.57750E+000	9	...........
	66	0.881667	-1.04550E-004	-2.80040E-004	0.00000E+000	2.92780E-008	-1.68088E-001	-1.15821E-004	3.57750E+000	9	...........
STARTTIMEOFFSET	QUANT	1224.941	Start Time Offset (s)
