EXPLAIN
TAG	PWR800_DISCHARGE
TITLE	LABEL	PWR Cyclic Charge Discharge (Cell) - Discharge Step	Test &Identifier
DATE	LABEL	7-7-2017	Date
TIME	LABEL	16:06:30	Time
NOTES	NOTES	3	&Notes...
	supercap test cell
	2.8mg
	6M KOH
PSTAT	PSTAT	IFC5000-01520	Potentiostat
CAPACITY	QUANT	1.00000E-003	Capacity (A-hr)
CELLTYPE	SELECTOR	1	&Cell Type
WORKINGCONNECTION	SELECTOR	0	&Working Lead
MAXDISCHARGETIME	VARIABLEANDUNITS	1.00000E+002	s	1.00000E+002	second(s)	Max &Discharge Time
DISCHARGEMODE	MULTIPARAM	0	2.80000E-004	&Discharge Mode	Constant Current	Amp(s)
SAMPLETIME	QUANT	1.00000E-002	Sa&mple Period (s)
DISCHARGESTOPAT1	MULTIPARAM	3	0.00000E+000	Discharge Stop At &1	Voltage < Limit	V
DISCHARGESTOPAT2	MULTIPARAM	0	0.00000E+000	Discharge Stop At &2	None	N/A
AESBHCSELECTOR	TOGGLE	F	Save Both Half Cells
IRCOMP	TOGGLE	F	IR &Measure
EOC	QUANT	0	Open Circuit (V)
SEQUENCER	TOGGLE	TRUE	Run as Sequence
PSTATMODEL	IQUANT	53	Pstat Model
PSTATSECTION	LABEL	IFC5000-01520	Pstat Section
PSTATSERIALNO	LABEL	01520	Pstat Serial Number
CTRLMODE	IQUANT	0	Control Mode
ELECTROMETER	IQUANT	1	RE=0 or CS=1
IESTAB	IQUANT	0	I/E Stability
CASPEED	IQUANT	4	Control Amp Speed
CONVENTION	IQUANT	1	Current Convention
ICHRANGE	IQUANT	2	Ich Range
ICHRANGEMODE	TOGGLE	T	Ich Auto Range
ICHOFFSETENABLE	TOGGLE	F	Ich Offset Enable
ICHOFFSET	QUANT	0	Ich Offset (V)
ICHFILTER	IQUANT	1	Ich Filter
VCHRANGE	IQUANT	2	Vch Range
VCHRANGEMODE	TOGGLE	T	Vch Auto Range
VCHOFFSETENABLE	TOGGLE	F	Vch Offset Enable
VCHOFFSET	QUANT	0	Vch Offset (V)
VCHFILTER	IQUANT	1	Vch Filter
IERANGELOWERLIMIT	IQUANT	9	I/E Range Lower Limit
IERANGEMODE	TOGGLE	F	I/E AutoRange
IERANGE	IQUANT	9	I/E Range
ACHSELECT	IQUANT	1	Ach Select
ACHRANGE	IQUANT	2	Ach Range
ACHOFFSETENABLE	TOGGLE	F	Ach Offset Enable
ACHOFFSET	QUANT	0	Ach Offset (V)
ACHFILTER	IQUANT	1	Ach Filter
CABLEID	IQUANT	14	Cable ID
DCCALDATE	LABEL	5-7-2017	DC Calibration Date
ACCALDATE	LABEL	12/3/2015	AC Calibration Date
FRAMEWORKVERSION	QUANT	7.01	Framework Version
INSTRUMENTVERSION	LABEL	4.00	Instrument Version
CURVE	TABLE	62
	Pt	T	Vf	Im	Vu	Pwr	Sig	Ach	Temp	IERange	Over
	#	s	V	A	V	W	V	V	deg C	#	bits
	0	0.013333	4.68678E-001	-2.78757E-004	0.00000E+000	-1.30647E-004	-1.68088E-001	4.68809E-001	3.57740E+000	9	...........
	1	0.026667	4.36747E-001	-2.78194E-004	0.00000E+000	-1.21500E-004	-1.68088E-001	4.36856E-001	3.57740E+000	9	...........
	2	0.04	4.08052E-001	-2.78474E-004	0.00000E+000	-1.13632E-004	-1.68088E-001	4.08151E-001	3.57740E+000	9	...........
	3	0.053333	3.81950E-001	-2.78601E-004	0.00000E+000	-1.06412E-004	-1.68088E-001	3.82049E-001	3.57740E+000	9	...........
	4	0.066667	3.58073E-001	-2.78308E-004	0.00000E+000	-9.96546E-005	-1.68088E-001	3.58163E-001	3.57740E+000	9	...........
	5	0.08	3.36152E-001	-2.78496E-004	0.00000E+000	-9.36169E-005	-1.68088E-001	3.36241E-001	3.57740E+000	9	...........
	6	0.093333	3.15979E-001	-2.78412E-004	0.00000E+000	-8.79724E-005	-1.68088E-001	3.16056E-001	3.57740E+000	9	...........
	7	0.106667	2.97413E-001	-2.79422E-004	0.00000E+000	-8.31036E-005	-1.68088E-001	2.97485E-001	3.57740E+000	9	...........
	8	0.12	2.80349E-001	-2.79377E-004	0.00000E+000	-7.83230E-005	-1.68088E-001	2.80418E-001	3.57740E+000	9	...........
	9	0.133333	2.64610E-001	-2.79232E-004	0.00000E+000	-7.38876E-005	-1.68088E-001	2.64680E-001	3.57740E+000	9	...........
	10	0.146667	2.50108E-001	-2.79534E-004	0.00000E+000	-6.99139E-005	-1.68088E-001	2.50172E-001	3.57740E+000	9	...........
	11	0.16	2.36716E-001	-2.79292E-004	0.00000E+000	-6.61129E-005	-1.68088E-001	2.36769E-001	3.57740E+000	9	...........
	12	0.173333	2.24319E-001	-2.78981E-004	0.00000E+000	-6.25809E-005	-1.68088E-001	2.24373E-001	3.57740E+000	9	...........
	13	0.186667	2.12863E-001	-2.78122E-004	0.00000E+000	-5.92019E-005	-1.68088E-001	2.12909E-001	3.57740E+000	9	...........
	14	0.2	2.02156E-001	-2.78080E-004	0.00000E+000	-5.62156E-005	-1.68088E-001	2.02205E-001	3.57740E+000	9	...........
	15	0.213333	1.92230E-001	-2.77770E-004	0.00000E+000	-5.33957E-005	-1.68088E-001	1.92273E-001	3.57740E+000	9	...........
	16	0.226667	1.82994E-001	-2.78815E-004	0.00000E+000	-5.10213E-005	-1.68088E-001	1.83040E-001	3.57740E+000	9	...........
	17	0.24	1.74359E-001	-2.78691E-004	0.00000E+000	-4.85922E-005	-1.68088E-001	1.74403E-001	3.57740E+000	9	...........
	18	0.253333	1.66294E-001	-2.80040E-004	0.00000E+000	-4.65689E-005	-1.68088E-001	1.66334E-001	3.57740E+000	9	...........
	19	0.266667	1.58743E-001	-2.77102E-004	0.00000E+000	-4.39878E-005	-1.68088E-001	1.58778E-001	3.57740E+000	9	...........
	20	0.28	1.51602E-001	-2.77465E-004	0.00000E+000	-4.20644E-005	-1.68088E-001	1.51637E-001	3.57740E+000	9	...........
	21	0.293333	1.44849E-001	-2.79508E-004	0.00000E+000	-4.04866E-005	-1.68088E-001	1.44884E-001	3.57740E+000	9	...........
	22	0.306667	1.38481E-001	-2.78493E-004	0.00000E+000	-3.85658E-005	-1.68088E-001	1.38518E-001	3.57740E+000	9	...........
	23	0.32	1.32468E-001	-2.79020E-004	0.00000E+000	-3.69613E-005	-1.68088E-001	1.32500E-001	3.57740E+000	9	...........
	24	0.333333	1.26713E-001	-2.77532E-004	0.00000E+000	-3.51670E-005	-1.68088E-001	1.26745E-001	3.57740E+000	9	...........
	25	0.346667	1.21210E-001	-2.77785E-004	0.00000E+000	-3.36704E-005	-1.68088E-001	1.21242E-001	3.57740E+000	9	...........
	26	0.36	1.15952E-001	-2.79553E-004	0.00000E+000	-3.24147E-005	-1.68088E-001	1.15977E-001	3.57740E+000	9	...........
	27	0.373333	1.10948E-001	-2.78184E-004	0.00000E+000	-3.08641E-005	-1.68088E-001	1.10978E-001	3.57740E+000	9	...........
	28	0.386667	1.06166E-001	-2.78233E-004	0.00000E+000	-2.95388E-005	-1.68088E-001	1.06190E-001	3.57740E+000	9	...........
	29	0.4	1.01563E-001	-2.79169E-004	0.00000E+000	-2.83532E-005	-1.68088E-001	1.01583E-001	3.57740E+000	9	...........
	30	0.413333	9.71083E-002	-2.78954E-004	0.00000E+000	-2.70888E-005	-1.68088E-001	9.71306E-002	3.57740E+000	9	...........
	31	0.426667	9.27971E-002	-2.78967E-004	0.00000E+000	-2.58873E-005	-1.68088E-001	9.28196E-002	3.57740E+000	9	...........
	32	0.44	8.86007E-002	-2.79332E-004	0.00000E+000	-2.47490E-005	-1.68088E-001	8.86251E-002	3.57740E+000	9	...........
	33	0.453333	8.45205E-002	-2.80208E-004	0.00000E+000	-2.36833E-005	-1.68088E-001	8.45463E-002	3.57740E+000	9	...........
	34	0.466667	8.05500E-002	-2.79431E-004	0.00000E+000	-2.25082E-005	-1.68088E-001	8.05656E-002	3.57740E+000	9	...........
	35	0.48	7.66838E-002	-2.78320E-004	0.00000E+000	-2.13426E-005	-1.68088E-001	7.67003E-002	3.57740E+000	9	...........
	36	0.493333	7.29386E-002	-2.79899E-004	0.00000E+000	-2.04155E-005	-1.68088E-001	7.29491E-002	3.57740E+000	9	...........
	37	0.506667	6.93088E-002	-2.79811E-004	0.00000E+000	-1.93933E-005	-1.68088E-001	6.93217E-002	3.57740E+000	9	...........
	38	0.52	6.57815E-002	-2.79737E-004	0.00000E+000	-1.84015E-005	-1.68088E-001	6.57948E-002	3.57740E+000	9	...........
	39	0.533333	6.23766E-002	-2.78171E-004	0.00000E+000	-1.73513E-005	-1.68088E-001	6.23829E-002	3.57740E+000	9	...........
	40	0.546667	5.90112E-002	-2.78686E-004	0.00000E+000	-1.64456E-005	-1.68088E-001	5.90237E-002	3.57740E+000	9	...........
	41	0.56	5.57086E-002	-2.78915E-004	0.00000E+000	-1.55379E-005	-1.68088E-001	5.57213E-002	3.57740E+000	9	...........
	42	0.573333	5.24874E-002	-2.79951E-004	0.00000E+000	-1.46939E-005	-1.68088E-001	5.24947E-002	3.57740E+000	9	...........
	43	0.586667	4.93489E-002	-2.78554E-004	0.00000E+000	-1.37463E-005	-1.68088E-001	4.93541E-002	3.57740E+000	9	...........
	44	0.6	4.62546E-002	-2.77391E-004	0.00000E+000	-1.28306E-005	-1.68088E-001	4.62684E-002	3.57740E+000	9	...........
	45	0.613333	4.31772E-002	-2.79376E-004	0.00000E+000	-1.20627E-005	-1.68088E-001	4.31861E-002	3.57740E+000	9	...........
	46	0.626667	4.02039E-002	-2.77780E-004	0.00000E+000	-1.11678E-005	-1.68088E-001	4.02137E-002	3.57740E+000	9	...........
	47	0.64	3.72856E-002	-2.78785E-004	0.00000E+000	-1.03947E-005	-1.68088E-001	3.72907E-002	3.57740E+000	9	...........
	48	0.653333	3.44235E-002	-2.79776E-004	0.00000E+000	-9.63088E-006	-1.68088E-001	3.44292E-002	3.57740E+000	9	...........
	49	0.666667	3.15657E-002	-2.79251E-004	0.00000E+000	-8.81474E-006	-1.68088E-001	3.15658E-002	3.57740E+000	9	...........
	50	0.68	2.87566E-002	-2.77831E-004	0.00000E+000	-7.98949E-006	-1.68088E-001	2.87593E-002	3.57740E+000	9	...........
	51	0.693333	2.60160E-002	-2.78554E-004	0.00000E+000	-7.24685E-006	-1.68088E-001	2.60108E-002	3.57740E+000	9	...........
	52	0.706667	2.32947E-002	-2.78536E-004	0.00000E+000	-6.48842E-006	-1.68088E-001	2.32917E-002	3.57740E+000	9	...........
	53	0.72	2.06384E-002	-2.78461E-004	0.00000E+000	-5.74699E-006	-1.68088E-001	2.06361E-002	3.57740E+000	9	...........
	54	0.733333	1.79580E-002	-2.78668E-004	0.00000E+000	-5.00430E-006	-1.68088E-001	1.79526E-002	3.57740E+000	9	...........
	55	0.746667	1.53224E-002	-2.79269E-004	0.00000E+000	-4.27906E-006	-1.68088E-001	1.53152E-002	3.57740E+000	9	...........
	56	0.76	1.27451E-002	-2.79862E-004	0.00000E+000	-3.56687E-006	-1.68088E-001	1.27383E-002	3.57740E+000	9	...........
	57	0.773333	1.02321E-002	-2.78353E-004	0.00000E+000	-2.84815E-006	-1.68088E-001	1.02203E-002	3.57740E+000	9	...........
	58	0.786667	7.70608E-003	-2.79261E-004	0.00000E+000	-2.15201E-006	-1.68088E-001	7.69463E-003	3.57740E+000	9	...........
	59	0.8	5.23088E-003	-2.78814E-004	0.00000E+000	-1.45844E-006	-1.68088E-001	5.21555E-003	3.57740E+000	9	...........
	60	0.813333	2.80957E-003	-2.79278E-004	0.00000E+000	-7.84653E-007	-1.68088E-001	2.79785E-003	3.57740E+000	9	...........
	61	0.823333	7.03024E-004	-2.77910E-004	0.00000E+000	-1.95377E-007	-1.68088E-001	6.84907E-004	3.57740E+000	9	...........
STARTTIMEOFFSET	QUANT	1381.07	Start Time Offset (s)
