EXPLAIN
TAG	PWR800_DISCHARGE
TITLE	LABEL	PWR Cyclic Charge Discharge (Cell) - Discharge Step	Test &Identifier
DATE	LABEL	7-7-2017	Date
TIME	LABEL	16:06:48	Time
NOTES	NOTES	3	&Notes...
	supercap test cell
	2.8mg
	6M KOH
PSTAT	PSTAT	IFC5000-01520	Potentiostat
CAPACITY	QUANT	1.00000E-003	Capacity (A-hr)
CELLTYPE	SELECTOR	1	&Cell Type
WORKINGCONNECTION	SELECTOR	0	&Working Lead
MAXDISCHARGETIME	VARIABLEANDUNITS	1.00000E+002	s	1.00000E+002	second(s)	Max &Discharge Time
DISCHARGEMODE	MULTIPARAM	0	2.80000E-004	&Discharge Mode	Constant Current	Amp(s)
SAMPLETIME	QUANT	1.00000E-002	Sa&mple Period (s)
DISCHARGESTOPAT1	MULTIPARAM	3	0.00000E+000	Discharge Stop At &1	Voltage < Limit	V
DISCHARGESTOPAT2	MULTIPARAM	0	0.00000E+000	Discharge Stop At &2	None	N/A
AESBHCSELECTOR	TOGGLE	F	Save Both Half Cells
IRCOMP	TOGGLE	F	IR &Measure
EOC	QUANT	0	Open Circuit (V)
SEQUENCER	TOGGLE	TRUE	Run as Sequence
PSTATMODEL	IQUANT	53	Pstat Model
PSTATSECTION	LABEL	IFC5000-01520	Pstat Section
PSTATSERIALNO	LABEL	01520	Pstat Serial Number
CTRLMODE	IQUANT	0	Control Mode
ELECTROMETER	IQUANT	1	RE=0 or CS=1
IESTAB	IQUANT	0	I/E Stability
CASPEED	IQUANT	4	Control Amp Speed
CONVENTION	IQUANT	1	Current Convention
ICHRANGE	IQUANT	2	Ich Range
ICHRANGEMODE	TOGGLE	T	Ich Auto Range
ICHOFFSETENABLE	TOGGLE	F	Ich Offset Enable
ICHOFFSET	QUANT	0	Ich Offset (V)
ICHFILTER	IQUANT	1	Ich Filter
VCHRANGE	IQUANT	2	Vch Range
VCHRANGEMODE	TOGGLE	T	Vch Auto Range
VCHOFFSETENABLE	TOGGLE	F	Vch Offset Enable
VCHOFFSET	QUANT	0	Vch Offset (V)
VCHFILTER	IQUANT	1	Vch Filter
IERANGELOWERLIMIT	IQUANT	9	I/E Range Lower Limit
IERANGEMODE	TOGGLE	F	I/E AutoRange
IERANGE	IQUANT	9	I/E Range
ACHSELECT	IQUANT	1	Ach Select
ACHRANGE	IQUANT	2	Ach Range
ACHOFFSETENABLE	TOGGLE	F	Ach Offset Enable
ACHOFFSET	QUANT	0	Ach Offset (V)
ACHFILTER	IQUANT	1	Ach Filter
CABLEID	IQUANT	14	Cable ID
DCCALDATE	LABEL	5-7-2017	DC Calibration Date
ACCALDATE	LABEL	12/3/2015	AC Calibration Date
FRAMEWORKVERSION	QUANT	7.01	Framework Version
INSTRUMENTVERSION	LABEL	4.00	Instrument Version
CURVE	TABLE	65
	Pt	T	Vf	Im	Vu	Pwr	Sig	Ach	Temp	IERange	Over
	#	s	V	A	V	W	V	V	deg C	#	bits
	0	0.013333	5.32886E-001	-2.79360E-004	0.00000E+000	-1.48867E-004	-1.68088E-001	5.33111E-001	3.57740E+000	9	...........
	1	0.026667	4.99944E-001	-2.78345E-004	0.00000E+000	-1.39157E-004	-1.68088E-001	5.00191E-001	3.57740E+000	9	...........
	2	0.04	4.70030E-001	-2.79476E-004	0.00000E+000	-1.31362E-004	-1.68088E-001	4.70155E-001	3.57740E+000	9	...........
	3	0.053333	4.42019E-001	-2.78566E-004	0.00000E+000	-1.23131E-004	-1.68088E-001	4.42124E-001	3.57740E+000	9	...........
	4	0.066667	4.15870E-001	-2.79057E-004	0.00000E+000	-1.16051E-004	-1.68088E-001	4.15968E-001	3.57740E+000	9	...........
	5	0.08	3.91459E-001	-2.79546E-004	0.00000E+000	-1.09431E-004	-1.68088E-001	3.91550E-001	3.57740E+000	9	...........
	6	0.093333	3.68654E-001	-2.78870E-004	0.00000E+000	-1.02807E-004	-1.68088E-001	3.68743E-001	3.57740E+000	9	...........
	7	0.106667	3.47371E-001	-2.78353E-004	0.00000E+000	-9.66917E-005	-1.68088E-001	3.47455E-001	3.57740E+000	9	...........
	8	0.12	3.27555E-001	-2.77726E-004	0.00000E+000	-9.09704E-005	-1.68088E-001	3.27628E-001	3.57740E+000	9	...........
	9	0.133333	3.09097E-001	-2.80123E-004	0.00000E+000	-8.65851E-005	-1.68088E-001	3.09178E-001	3.57740E+000	9	...........
	10	0.146667	2.91956E-001	-2.77977E-004	0.00000E+000	-8.11569E-005	-1.68088E-001	2.92020E-001	3.57740E+000	9	...........
	11	0.16	2.76025E-001	-2.77771E-004	0.00000E+000	-7.66716E-005	-1.68088E-001	2.76095E-001	3.57740E+000	9	...........
	12	0.173333	2.61216E-001	-2.78825E-004	0.00000E+000	-7.28335E-005	-1.68088E-001	2.61279E-001	3.57740E+000	9	...........
	13	0.186667	2.47472E-001	-2.79574E-004	0.00000E+000	-6.91868E-005	-1.68088E-001	2.47534E-001	3.57740E+000	9	...........
	14	0.2	2.34685E-001	-2.78355E-004	0.00000E+000	-6.53258E-005	-1.68088E-001	2.34740E-001	3.57740E+000	9	...........
	15	0.213333	2.22770E-001	-2.77997E-004	0.00000E+000	-6.19292E-005	-1.68088E-001	2.22815E-001	3.57740E+000	9	...........
	16	0.226667	2.11683E-001	-2.78797E-004	0.00000E+000	-5.90166E-005	-1.68088E-001	2.11729E-001	3.57740E+000	9	...........
	17	0.24	2.01316E-001	-2.79739E-004	0.00000E+000	-5.63158E-005	-1.68088E-001	2.01366E-001	3.57740E+000	9	...........
	18	0.253333	1.91689E-001	-2.79662E-004	0.00000E+000	-5.36080E-005	-1.68088E-001	1.91737E-001	3.57740E+000	9	...........
	19	0.266667	1.82627E-001	-2.79554E-004	0.00000E+000	-5.10540E-005	-1.68088E-001	1.82676E-001	3.57740E+000	9	...........
	20	0.28	1.74095E-001	-2.78313E-004	0.00000E+000	-4.84530E-005	-1.68088E-001	1.74143E-001	3.57740E+000	9	...........
	21	0.293333	1.66079E-001	-2.79278E-004	0.00000E+000	-4.63821E-005	-1.68088E-001	1.66120E-001	3.57740E+000	9	...........
	22	0.306667	1.58583E-001	-2.77838E-004	0.00000E+000	-4.40605E-005	-1.68088E-001	1.58618E-001	3.57740E+000	9	...........
	23	0.32	1.51487E-001	-2.79454E-004	0.00000E+000	-4.23337E-005	-1.68088E-001	1.51519E-001	3.57740E+000	9	...........
	24	0.333333	1.44738E-001	-2.79855E-004	0.00000E+000	-4.05058E-005	-1.68088E-001	1.44776E-001	3.57740E+000	9	...........
	25	0.346667	1.38357E-001	-2.78749E-004	0.00000E+000	-3.85669E-005	-1.68088E-001	1.38396E-001	3.57740E+000	9	...........
	26	0.36	1.32298E-001	-2.79061E-004	0.00000E+000	-3.69193E-005	-1.68088E-001	1.32334E-001	3.57740E+000	9	...........
	27	0.373333	1.26498E-001	-2.79021E-004	0.00000E+000	-3.52955E-005	-1.68088E-001	1.26529E-001	3.57740E+000	9	...........
	28	0.386667	1.20937E-001	-2.79072E-004	0.00000E+000	-3.37501E-005	-1.68088E-001	1.20971E-001	3.57740E+000	9	...........
	29	0.4	1.15626E-001	-2.76866E-004	0.00000E+000	-3.20130E-005	-1.68088E-001	1.15657E-001	3.57740E+000	9	...........
	30	0.413333	1.10518E-001	-2.78394E-004	0.00000E+000	-3.07675E-005	-1.68088E-001	1.10546E-001	3.57740E+000	9	...........
	31	0.426667	1.05662E-001	-2.78797E-004	0.00000E+000	-2.94583E-005	-1.68088E-001	1.05684E-001	3.57740E+000	9	...........
	32	0.44	1.01003E-001	-2.78659E-004	0.00000E+000	-2.81455E-005	-1.68088E-001	1.01029E-001	3.57740E+000	9	...........
	33	0.453333	9.65266E-002	-2.79627E-004	0.00000E+000	-2.69915E-005	-1.68088E-001	9.65416E-002	3.57740E+000	9	...........
	34	0.466667	9.21508E-002	-2.77113E-004	0.00000E+000	-2.55362E-005	-1.68088E-001	9.21749E-002	3.57740E+000	9	...........
	35	0.48	8.79215E-002	-2.78240E-004	0.00000E+000	-2.44633E-005	-1.68088E-001	8.79440E-002	3.57740E+000	9	...........
	36	0.493333	8.38657E-002	-2.78200E-004	0.00000E+000	-2.33314E-005	-1.68088E-001	8.38891E-002	3.57740E+000	9	...........
	37	0.506667	7.99167E-002	-2.78050E-004	0.00000E+000	-2.22208E-005	-1.68088E-001	7.99344E-002	3.57740E+000	9	...........
	38	0.52	7.60602E-002	-2.78484E-004	0.00000E+000	-2.11816E-005	-1.68088E-001	7.60792E-002	3.57740E+000	9	...........
	39	0.533333	7.22863E-002	-2.79043E-004	0.00000E+000	-2.01710E-005	-1.68088E-001	7.23071E-002	3.57740E+000	9	...........
	40	0.546667	6.86322E-002	-2.79272E-004	0.00000E+000	-1.91670E-005	-1.68088E-001	6.86508E-002	3.57740E+000	9	...........
	41	0.56	6.50754E-002	-2.78211E-004	0.00000E+000	-1.81047E-005	-1.68088E-001	6.50951E-002	3.57740E+000	9	...........
	42	0.573333	6.15943E-002	-2.76365E-004	0.00000E+000	-1.70225E-005	-1.68088E-001	6.16069E-002	3.57740E+000	9	...........
	43	0.586667	5.81912E-002	-2.78532E-004	0.00000E+000	-1.62081E-005	-1.68088E-001	5.82049E-002	3.57740E+000	9	...........
	44	0.6	5.48769E-002	-2.78771E-004	0.00000E+000	-1.52981E-005	-1.68088E-001	5.48890E-002	3.57740E+000	9	...........
	45	0.613333	5.16095E-002	-2.78433E-004	0.00000E+000	-1.43698E-005	-1.68088E-001	5.16192E-002	3.57740E+000	9	...........
	46	0.626667	4.84052E-002	-2.77474E-004	0.00000E+000	-1.34312E-005	-1.68088E-001	4.84174E-002	3.57740E+000	9	...........
	47	0.64	4.52393E-002	-2.77010E-004	0.00000E+000	-1.25317E-005	-1.68088E-001	4.52540E-002	3.57740E+000	9	...........
	48	0.653333	4.20932E-002	-2.78101E-004	0.00000E+000	-1.17061E-005	-1.68088E-001	4.21085E-002	3.57740E+000	9	...........
	49	0.666667	3.90781E-002	-2.78950E-004	0.00000E+000	-1.09008E-005	-1.68088E-001	3.90883E-002	3.57740E+000	9	...........
	50	0.68	3.61162E-002	-2.79756E-004	0.00000E+000	-1.01037E-005	-1.68088E-001	3.61250E-002	3.57740E+000	9	...........
	51	0.693333	3.32050E-002	-2.78379E-004	0.00000E+000	-9.24359E-006	-1.68088E-001	3.32089E-002	3.57740E+000	9	...........
	52	0.706667	3.03086E-002	-2.77726E-004	0.00000E+000	-8.41747E-006	-1.68088E-001	3.03125E-002	3.57740E+000	9	...........
	53	0.72	2.74405E-002	-2.79172E-004	0.00000E+000	-7.66061E-006	-1.68088E-001	2.74396E-002	3.57740E+000	9	...........
	54	0.733333	2.46381E-002	-2.79767E-004	0.00000E+000	-6.89292E-006	-1.68088E-001	2.46357E-002	3.57740E+000	9	...........
	55	0.746667	2.18856E-002	-2.77777E-004	0.00000E+000	-6.07931E-006	-1.68088E-001	2.18831E-002	3.57740E+000	9	...........
	56	0.76	1.91462E-002	-2.78829E-004	0.00000E+000	-5.33852E-006	-1.68088E-001	1.91405E-002	3.57740E+000	9	...........
	57	0.773333	1.64732E-002	-2.79918E-004	0.00000E+000	-4.61114E-006	-1.68088E-001	1.64703E-002	3.57740E+000	9	...........
	58	0.786667	1.38261E-002	-2.77905E-004	0.00000E+000	-3.84235E-006	-1.68088E-001	1.38228E-002	3.57740E+000	9	...........
	59	0.8	1.12800E-002	-2.78306E-004	0.00000E+000	-3.13929E-006	-1.68088E-001	1.12682E-002	3.57740E+000	9	...........
	60	0.813333	8.71343E-003	-2.78489E-004	0.00000E+000	-2.42660E-006	-1.68088E-001	8.70456E-003	3.57740E+000	9	...........
	61	0.826667	6.17575E-003	-2.78007E-004	0.00000E+000	-1.71690E-006	-1.68088E-001	6.16544E-003	3.57880E+000	9	...........
	62	0.84	3.66200E-003	-2.79176E-004	0.00000E+000	-1.02234E-006	-1.68088E-001	3.65016E-003	3.57880E+000	9	...........
	63	0.853333	1.19273E-003	-2.78994E-004	0.00000E+000	-3.32764E-007	-1.68088E-001	1.17255E-003	3.57880E+000	9	...........
	64	0.855	-2.07363E-004	-2.81290E-004	0.00000E+000	5.83291E-008	-1.68088E-001	-2.22838E-004	3.57880E+000	9	...........
STARTTIMEOFFSET	QUANT	1393.705	Start Time Offset (s)
