EXPLAIN
TAG	PWR800_DISCHARGE
TITLE	LABEL	PWR Cyclic Charge Discharge (Cell) - Discharge Step	Test &Identifier
DATE	LABEL	7-7-2017	Date
TIME	LABEL	16:05:37	Time
NOTES	NOTES	3	&Notes...
	supercap test cell
	2.8mg
	6M KOH
PSTAT	PSTAT	IFC5000-01520	Potentiostat
CAPACITY	QUANT	1.00000E-003	Capacity (A-hr)
CELLTYPE	SELECTOR	1	&Cell Type
WORKINGCONNECTION	SELECTOR	0	&Working Lead
MAXDISCHARGETIME	VARIABLEANDUNITS	1.00000E+002	s	1.00000E+002	second(s)	Max &Discharge Time
DISCHARGEMODE	MULTIPARAM	0	2.80000E-004	&Discharge Mode	Constant Current	Amp(s)
SAMPLETIME	QUANT	1.00000E-002	Sa&mple Period (s)
DISCHARGESTOPAT1	MULTIPARAM	3	0.00000E+000	Discharge Stop At &1	Voltage < Limit	V
DISCHARGESTOPAT2	MULTIPARAM	0	0.00000E+000	Discharge Stop At &2	None	N/A
AESBHCSELECTOR	TOGGLE	F	Save Both Half Cells
IRCOMP	TOGGLE	F	IR &Measure
EOC	QUANT	0	Open Circuit (V)
SEQUENCER	TOGGLE	TRUE	Run as Sequence
PSTATMODEL	IQUANT	53	Pstat Model
PSTATSECTION	LABEL	IFC5000-01520	Pstat Section
PSTATSERIALNO	LABEL	01520	Pstat Serial Number
CTRLMODE	IQUANT	0	Control Mode
ELECTROMETER	IQUANT	1	RE=0 or CS=1
IESTAB	IQUANT	0	I/E Stability
CASPEED	IQUANT	4	Control Amp Speed
CONVENTION	IQUANT	1	Current Convention
ICHRANGE	IQUANT	2	Ich Range
ICHRANGEMODE	TOGGLE	T	Ich Auto Range
ICHOFFSETENABLE	TOGGLE	F	Ich Offset Enable
ICHOFFSET	QUANT	0	Ich Offset (V)
ICHFILTER	IQUANT	1	Ich Filter
VCHRANGE	IQUANT	2	Vch Range
VCHRANGEMODE	TOGGLE	T	Vch Auto Range
VCHOFFSETENABLE	TOGGLE	F	Vch Offset Enable
VCHOFFSET	QUANT	0	Vch Offset (V)
VCHFILTER	IQUANT	1	Vch Filter
IERANGELOWERLIMIT	IQUANT	9	I/E Range Lower Limit
IERANGEMODE	TOGGLE	F	I/E AutoRange
IERANGE	IQUANT	9	I/E Range
ACHSELECT	IQUANT	1	Ach Select
ACHRANGE	IQUANT	2	Ach Range
ACHOFFSETENABLE	TOGGLE	F	Ach Offset Enable
ACHOFFSET	QUANT	0	Ach Offset (V)
ACHFILTER	IQUANT	1	Ach Filter
CABLEID	IQUANT	14	Cable ID
DCCALDATE	LABEL	5-7-2017	DC Calibration Date
ACCALDATE	LABEL	12/3/2015	AC Calibration Date
FRAMEWORKVERSION	QUANT	7.01	Framework Version
INSTRUMENTVERSION	LABEL	4.00	Instrument Version
CURVE	TABLE	65
	Pt	T	Vf	Im	Vu	Pwr	Sig	Ach	Temp	IERange	Over
	#	s	V	A	V	W	V	V	deg C	#	bits
	0	0.013333	5.32194E-001	-2.78926E-004	0.00000E+000	-1.48443E-004	-1.68088E-001	5.32479E-001	3.57950E+000	9	...........
	1	0.026667	4.99196E-001	-2.78600E-004	0.00000E+000	-1.39076E-004	-1.68088E-001	4.99459E-001	3.57950E+000	9	...........
	2	0.04	4.69229E-001	-2.79105E-004	0.00000E+000	-1.30964E-004	-1.68088E-001	4.69364E-001	3.57950E+000	9	...........
	3	0.053333	4.41209E-001	-2.77723E-004	0.00000E+000	-1.22534E-004	-1.68088E-001	4.41317E-001	3.57950E+000	9	...........
	4	0.066667	4.15047E-001	-2.77793E-004	0.00000E+000	-1.15297E-004	-1.68088E-001	4.15146E-001	3.57950E+000	9	...........
	5	0.08	3.90616E-001	-2.79185E-004	0.00000E+000	-1.09054E-004	-1.68088E-001	3.90703E-001	3.57950E+000	9	...........
	6	0.093333	3.67819E-001	-2.77890E-004	0.00000E+000	-1.02213E-004	-1.68088E-001	3.67905E-001	3.57950E+000	9	...........
	7	0.106667	3.46549E-001	-2.77626E-004	0.00000E+000	-9.62109E-005	-1.68088E-001	3.46622E-001	3.57950E+000	9	...........
	8	0.12	3.26738E-001	-2.78580E-004	0.00000E+000	-9.10228E-005	-1.68088E-001	3.26813E-001	3.57950E+000	9	...........
	9	0.133333	3.08304E-001	-2.80095E-004	0.00000E+000	-8.63544E-005	-1.68088E-001	3.08373E-001	3.57950E+000	9	...........
	10	0.146667	2.91193E-001	-2.78564E-004	0.00000E+000	-8.11160E-005	-1.68088E-001	2.91261E-001	3.57950E+000	9	...........
	11	0.16	2.75280E-001	-2.77806E-004	0.00000E+000	-7.64744E-005	-1.68088E-001	2.75347E-001	3.57950E+000	9	...........
	12	0.173333	2.60493E-001	-2.79713E-004	0.00000E+000	-7.28633E-005	-1.68088E-001	2.60557E-001	3.57950E+000	9	...........
	13	0.186667	2.46755E-001	-2.78326E-004	0.00000E+000	-6.86782E-005	-1.68088E-001	2.46810E-001	3.57950E+000	9	...........
	14	0.2	2.33984E-001	-2.78701E-004	0.00000E+000	-6.52116E-005	-1.68088E-001	2.34035E-001	3.57950E+000	9	...........
	15	0.213333	2.22115E-001	-2.78625E-004	0.00000E+000	-6.18868E-005	-1.68088E-001	2.22168E-001	3.57950E+000	9	...........
	16	0.226667	2.11042E-001	-2.78314E-004	0.00000E+000	-5.87362E-005	-1.68088E-001	2.11090E-001	3.57950E+000	9	...........
	17	0.24	2.00713E-001	-2.78442E-004	0.00000E+000	-5.58868E-005	-1.68088E-001	2.00760E-001	3.57950E+000	9	...........
	18	0.253333	1.91081E-001	-2.79544E-004	0.00000E+000	-5.34155E-005	-1.68088E-001	1.91128E-001	3.57950E+000	9	...........
	19	0.266667	1.82026E-001	-2.78276E-004	0.00000E+000	-5.06534E-005	-1.68088E-001	1.82066E-001	3.57950E+000	9	...........
	20	0.28	1.73543E-001	-2.79297E-004	0.00000E+000	-4.84701E-005	-1.68088E-001	1.73582E-001	3.57950E+000	9	...........
	21	0.293333	1.65599E-001	-2.78060E-004	0.00000E+000	-4.60464E-005	-1.68088E-001	1.65634E-001	3.57950E+000	9	...........
	22	0.306667	1.58086E-001	-2.78937E-004	0.00000E+000	-4.40962E-005	-1.68088E-001	1.58120E-001	3.57950E+000	9	...........
	23	0.32	1.50967E-001	-2.79701E-004	0.00000E+000	-4.22257E-005	-1.68088E-001	1.51002E-001	3.57950E+000	9	...........
	24	0.333333	1.44215E-001	-2.78915E-004	0.00000E+000	-4.02236E-005	-1.68088E-001	1.44247E-001	3.57774E+000	9	...........
	25	0.346667	1.37841E-001	-2.79056E-004	0.00000E+000	-3.84654E-005	-1.68088E-001	1.37872E-001	3.57760E+000	9	...........
	26	0.36	1.31772E-001	-2.78933E-004	0.00000E+000	-3.67555E-005	-1.68088E-001	1.31799E-001	3.57760E+000	9	...........
	27	0.373333	1.26002E-001	-2.78118E-004	0.00000E+000	-3.50434E-005	-1.68088E-001	1.26030E-001	3.57760E+000	9	...........
	28	0.386667	1.20485E-001	-2.78850E-004	0.00000E+000	-3.35971E-005	-1.68088E-001	1.20514E-001	3.57760E+000	9	...........
	29	0.4	1.15207E-001	-2.77886E-004	0.00000E+000	-3.20144E-005	-1.68088E-001	1.15229E-001	3.57760E+000	9	...........
	30	0.413333	1.10198E-001	-2.79140E-004	0.00000E+000	-3.07607E-005	-1.68088E-001	1.10223E-001	3.57760E+000	9	...........
	31	0.426667	1.05371E-001	-2.78996E-004	0.00000E+000	-2.93982E-005	-1.68088E-001	1.05402E-001	3.57760E+000	9	...........
	32	0.44	1.00690E-001	-2.79060E-004	0.00000E+000	-2.80985E-005	-1.68088E-001	1.00720E-001	3.57760E+000	9	...........
	33	0.453333	9.61231E-002	-2.79431E-004	0.00000E+000	-2.68598E-005	-1.68088E-001	9.61461E-002	3.57760E+000	9	...........
	34	0.466667	9.17025E-002	-2.79120E-004	0.00000E+000	-2.55960E-005	-1.68088E-001	9.17289E-002	3.57760E+000	9	...........
	35	0.48	8.74844E-002	-2.78429E-004	0.00000E+000	-2.43582E-005	-1.68088E-001	8.75050E-002	3.57760E+000	9	...........
	36	0.493333	8.33669E-002	-2.79304E-004	0.00000E+000	-2.32847E-005	-1.68088E-001	8.33833E-002	3.57760E+000	9	...........
	37	0.506667	7.93577E-002	-2.78819E-004	0.00000E+000	-2.21264E-005	-1.68088E-001	7.93800E-002	3.57760E+000	9	...........
	38	0.52	7.54852E-002	-2.79172E-004	0.00000E+000	-2.10733E-005	-1.68088E-001	7.55046E-002	3.57760E+000	9	...........
	39	0.533333	7.17398E-002	-2.78663E-004	0.00000E+000	-1.99913E-005	-1.68088E-001	7.17512E-002	3.57760E+000	9	...........
	40	0.546667	6.80817E-002	-2.79251E-004	0.00000E+000	-1.90119E-005	-1.68088E-001	6.80954E-002	3.57760E+000	9	...........
	41	0.56	6.45156E-002	-2.77741E-004	0.00000E+000	-1.79186E-005	-1.68088E-001	6.45251E-002	3.57760E+000	9	...........
	42	0.573333	6.10915E-002	-2.78346E-004	0.00000E+000	-1.70046E-005	-1.68088E-001	6.11047E-002	3.57760E+000	9	...........
	43	0.586667	5.76781E-002	-2.79017E-004	0.00000E+000	-1.60931E-005	-1.68088E-001	5.76880E-002	3.57760E+000	9	...........
	44	0.6	5.43665E-002	-2.78969E-004	0.00000E+000	-1.51665E-005	-1.68088E-001	5.43773E-002	3.57760E+000	9	...........
	45	0.613333	5.11429E-002	-2.78910E-004	0.00000E+000	-1.42643E-005	-1.68088E-001	5.11543E-002	3.57760E+000	9	...........
	46	0.626667	4.79909E-002	-2.79251E-004	0.00000E+000	-1.34015E-005	-1.68088E-001	4.80012E-002	3.57760E+000	9	...........
	47	0.64	4.48644E-002	-2.78109E-004	0.00000E+000	-1.24772E-005	-1.68088E-001	4.48777E-002	3.57760E+000	9	...........
	48	0.653333	4.17792E-002	-2.78509E-004	0.00000E+000	-1.16359E-005	-1.68088E-001	4.17885E-002	3.57760E+000	9	...........
	49	0.666667	3.87044E-002	-2.79139E-004	0.00000E+000	-1.08039E-005	-1.68088E-001	3.87141E-002	3.57760E+000	9	...........
	50	0.68	3.57026E-002	-2.77422E-004	0.00000E+000	-9.90468E-006	-1.68088E-001	3.57132E-002	3.57760E+000	9	...........
	51	0.693333	3.28387E-002	-2.78166E-004	0.00000E+000	-9.13463E-006	-1.68088E-001	3.28400E-002	3.57760E+000	9	...........
	52	0.706667	3.00026E-002	-2.78386E-004	0.00000E+000	-8.35232E-006	-1.68088E-001	3.00046E-002	3.57760E+000	9	...........
	53	0.72	2.71697E-002	-2.79558E-004	0.00000E+000	-7.59552E-006	-1.68088E-001	2.71736E-002	3.57760E+000	9	...........
	54	0.733333	2.43745E-002	-2.79016E-004	0.00000E+000	-6.80087E-006	-1.68088E-001	2.43681E-002	3.57760E+000	9	...........
	55	0.746667	2.16372E-002	-2.78656E-004	0.00000E+000	-6.02933E-006	-1.68088E-001	2.16348E-002	3.57760E+000	9	...........
	56	0.76	1.89505E-002	-2.79563E-004	0.00000E+000	-5.29785E-006	-1.68088E-001	1.89440E-002	3.57760E+000	9	...........
	57	0.773333	1.62791E-002	-2.79601E-004	0.00000E+000	-4.55166E-006	-1.68088E-001	1.62703E-002	3.57760E+000	9	...........
	58	0.786667	1.36614E-002	-2.78579E-004	0.00000E+000	-3.80579E-006	-1.68088E-001	1.36517E-002	3.57760E+000	9	...........
	59	0.8	1.11061E-002	-2.78603E-004	0.00000E+000	-3.09418E-006	-1.68088E-001	1.10944E-002	3.57760E+000	9	...........
	60	0.813333	8.54084E-003	-2.79714E-004	0.00000E+000	-2.38899E-006	-1.68088E-001	8.52846E-003	3.57760E+000	9	...........
	61	0.826667	6.04604E-003	-2.79419E-004	0.00000E+000	-1.68938E-006	-1.68088E-001	6.02993E-003	3.57760E+000	9	...........
	62	0.84	3.58254E-003	-2.78414E-004	0.00000E+000	-9.97431E-007	-1.68088E-001	3.56406E-003	3.57760E+000	9	...........
	63	0.853333	1.10898E-003	-2.78593E-004	0.00000E+000	-3.08952E-007	-1.68088E-001	1.09350E-003	3.57760E+000	9	...........
	64	0.855	-2.75738E-004	-2.79523E-004	0.00000E+000	7.70752E-008	-1.68088E-001	-2.93015E-004	3.57760E+000	9	...........
STARTTIMEOFFSET	QUANT	1344.936	Start Time Offset (s)
