EXPLAIN
TAG	PWR800_DISCHARGE
TITLE	LABEL	PWR Cyclic Charge Discharge (Cell) - Discharge Step	Test &Identifier
DATE	LABEL	7-7-2017	Date
TIME	LABEL	16:02:29	Time
NOTES	NOTES	3	&Notes...
	supercap test cell
	2.8mg
	6M KOH
PSTAT	PSTAT	IFC5000-01520	Potentiostat
CAPACITY	QUANT	1.00000E-003	Capacity (A-hr)
CELLTYPE	SELECTOR	1	&Cell Type
WORKINGCONNECTION	SELECTOR	0	&Working Lead
MAXDISCHARGETIME	VARIABLEANDUNITS	1.00000E+002	s	1.00000E+002	second(s)	Max &Discharge Time
DISCHARGEMODE	MULTIPARAM	0	2.80000E-004	&Discharge Mode	Constant Current	Amp(s)
SAMPLETIME	QUANT	1.00000E-002	Sa&mple Period (s)
DISCHARGESTOPAT1	MULTIPARAM	3	0.00000E+000	Discharge Stop At &1	Voltage < Limit	V
DISCHARGESTOPAT2	MULTIPARAM	0	0.00000E+000	Discharge Stop At &2	None	N/A
AESBHCSELECTOR	TOGGLE	F	Save Both Half Cells
IRCOMP	TOGGLE	F	IR &Measure
EOC	QUANT	0	Open Circuit (V)
SEQUENCER	TOGGLE	TRUE	Run as Sequence
PSTATMODEL	IQUANT	53	Pstat Model
PSTATSECTION	LABEL	IFC5000-01520	Pstat Section
PSTATSERIALNO	LABEL	01520	Pstat Serial Number
CTRLMODE	IQUANT	0	Control Mode
ELECTROMETER	IQUANT	1	RE=0 or CS=1
IESTAB	IQUANT	0	I/E Stability
CASPEED	IQUANT	4	Control Amp Speed
CONVENTION	IQUANT	1	Current Convention
ICHRANGE	IQUANT	2	Ich Range
ICHRANGEMODE	TOGGLE	T	Ich Auto Range
ICHOFFSETENABLE	TOGGLE	F	Ich Offset Enable
ICHOFFSET	QUANT	0	Ich Offset (V)
ICHFILTER	IQUANT	1	Ich Filter
VCHRANGE	IQUANT	2	Vch Range
VCHRANGEMODE	TOGGLE	T	Vch Auto Range
VCHOFFSETENABLE	TOGGLE	F	Vch Offset Enable
VCHOFFSET	QUANT	0	Vch Offset (V)
VCHFILTER	IQUANT	1	Vch Filter
IERANGELOWERLIMIT	IQUANT	9	I/E Range Lower Limit
IERANGEMODE	TOGGLE	F	I/E AutoRange
IERANGE	IQUANT	9	I/E Range
ACHSELECT	IQUANT	1	Ach Select
ACHRANGE	IQUANT	2	Ach Range
ACHOFFSETENABLE	TOGGLE	F	Ach Offset Enable
ACHOFFSET	QUANT	0	Ach Offset (V)
ACHFILTER	IQUANT	1	Ach Filter
CABLEID	IQUANT	14	Cable ID
DCCALDATE	LABEL	5-7-2017	DC Calibration Date
ACCALDATE	LABEL	12/3/2015	AC Calibration Date
FRAMEWORKVERSION	QUANT	7.01	Framework Version
INSTRUMENTVERSION	LABEL	4.00	Instrument Version
CURVE	TABLE	67
	Pt	T	Vf	Im	Vu	Pwr	Sig	Ach	Temp	IERange	Over
	#	s	V	A	V	W	V	V	deg C	#	bits
	0	0.013333	5.24076E-001	-2.79207E-004	0.00000E+000	-1.46326E-004	-1.68088E-001	5.24320E-001	3.57810E+000	9	...........
	1	0.026667	4.91656E-001	-2.78704E-004	0.00000E+000	-1.37026E-004	-1.68088E-001	4.91889E-001	3.57810E+000	9	...........
	2	0.04	4.62296E-001	-2.79311E-004	0.00000E+000	-1.29125E-004	-1.68088E-001	4.62413E-001	3.57810E+000	9	...........
	3	0.053333	4.34861E-001	-2.79247E-004	0.00000E+000	-1.21434E-004	-1.68088E-001	4.34963E-001	3.57810E+000	9	...........
	4	0.066667	4.09380E-001	-2.78667E-004	0.00000E+000	-1.14081E-004	-1.68088E-001	4.09473E-001	3.57810E+000	9	...........
	5	0.08	3.85636E-001	-2.78344E-004	0.00000E+000	-1.07339E-004	-1.68088E-001	3.85727E-001	3.57810E+000	9	...........
	6	0.093333	3.63528E-001	-2.78351E-004	0.00000E+000	-1.01188E-004	-1.68088E-001	3.63616E-001	3.57810E+000	9	...........
	7	0.106667	3.42980E-001	-2.78649E-004	0.00000E+000	-9.55710E-005	-1.68088E-001	3.43059E-001	3.57810E+000	9	...........
	8	0.12	3.23885E-001	-2.78214E-004	0.00000E+000	-9.01094E-005	-1.68088E-001	3.23964E-001	3.57819E+000	9	...........
	9	0.133333	3.06121E-001	-2.79115E-004	0.00000E+000	-8.54427E-005	-1.68088E-001	3.06198E-001	3.57820E+000	9	...........
	10	0.146667	2.89633E-001	-2.79060E-004	0.00000E+000	-8.08250E-005	-1.68088E-001	2.89703E-001	3.57820E+000	9	...........
	11	0.16	2.74312E-001	-2.78174E-004	0.00000E+000	-7.63065E-005	-1.68088E-001	2.74377E-001	3.57820E+000	9	...........
	12	0.173333	2.60104E-001	-2.78822E-004	0.00000E+000	-7.25227E-005	-1.68088E-001	2.60173E-001	3.57820E+000	9	...........
	13	0.186667	2.46922E-001	-2.78245E-004	0.00000E+000	-6.87048E-005	-1.68088E-001	2.46984E-001	3.57820E+000	9	...........
	14	0.2	2.34674E-001	-2.78576E-004	0.00000E+000	-6.53745E-005	-1.68088E-001	2.34725E-001	3.57820E+000	9	...........
	15	0.213333	2.23254E-001	-2.79178E-004	0.00000E+000	-6.23276E-005	-1.68088E-001	2.23311E-001	3.57820E+000	9	...........
	16	0.226667	2.12645E-001	-2.78775E-004	0.00000E+000	-5.92802E-005	-1.68088E-001	2.12695E-001	3.57820E+000	9	...........
	17	0.24	2.02749E-001	-2.79029E-004	0.00000E+000	-5.65728E-005	-1.68088E-001	2.02795E-001	3.57820E+000	9	...........
	18	0.253333	1.93469E-001	-2.78732E-004	0.00000E+000	-5.39260E-005	-1.68088E-001	1.93517E-001	3.57820E+000	9	...........
	19	0.266667	1.84763E-001	-2.77872E-004	0.00000E+000	-5.13405E-005	-1.68088E-001	1.84802E-001	3.57820E+000	9	...........
	20	0.28	1.76573E-001	-2.79405E-004	0.00000E+000	-4.93353E-005	-1.68088E-001	1.76616E-001	3.57820E+000	9	...........
	21	0.293333	1.68904E-001	-2.79199E-004	0.00000E+000	-4.71578E-005	-1.68088E-001	1.68952E-001	3.57820E+000	9	...........
	22	0.306667	1.61638E-001	-2.79467E-004	0.00000E+000	-4.51724E-005	-1.68088E-001	1.61681E-001	3.57820E+000	9	...........
	23	0.32	1.54798E-001	-2.78862E-004	0.00000E+000	-4.31673E-005	-1.68088E-001	1.54836E-001	3.57820E+000	9	...........
	24	0.333333	1.48284E-001	-2.77859E-004	0.00000E+000	-4.12022E-005	-1.68088E-001	1.48320E-001	3.57820E+000	9	...........
	25	0.346667	1.42069E-001	-2.79077E-004	0.00000E+000	-3.96481E-005	-1.68088E-001	1.42105E-001	3.57820E+000	9	...........
	26	0.36	1.36165E-001	-2.79691E-004	0.00000E+000	-3.80840E-005	-1.68088E-001	1.36204E-001	3.57820E+000	9	...........
	27	0.373333	1.30584E-001	-2.78582E-004	0.00000E+000	-3.63783E-005	-1.68088E-001	1.30624E-001	3.57820E+000	9	...........
	28	0.386667	1.25185E-001	-2.78228E-004	0.00000E+000	-3.48301E-005	-1.68088E-001	1.25225E-001	3.57820E+000	9	...........
	29	0.4	1.20052E-001	-2.77748E-004	0.00000E+000	-3.33442E-005	-1.68088E-001	1.20096E-001	3.57820E+000	9	...........
	30	0.413333	1.15115E-001	-2.79402E-004	0.00000E+000	-3.21634E-005	-1.68088E-001	1.15151E-001	3.57820E+000	9	...........
	31	0.426667	1.10364E-001	-2.78220E-004	0.00000E+000	-3.07054E-005	-1.68088E-001	1.10401E-001	3.57820E+000	9	...........
	32	0.44	1.05793E-001	-2.79066E-004	0.00000E+000	-2.95232E-005	-1.68088E-001	1.05821E-001	3.57820E+000	9	...........
	33	0.453333	1.01346E-001	-2.78593E-004	0.00000E+000	-2.82343E-005	-1.68088E-001	1.01381E-001	3.57820E+000	9	...........
	34	0.466667	9.70909E-002	-2.79365E-004	0.00000E+000	-2.71238E-005	-1.68088E-001	9.71193E-002	3.57820E+000	9	...........
	35	0.48	9.29832E-002	-2.77862E-004	0.00000E+000	-2.58365E-005	-1.68088E-001	9.30114E-002	3.57820E+000	9	...........
	36	0.493333	8.89582E-002	-2.77812E-004	0.00000E+000	-2.47137E-005	-1.68088E-001	8.89844E-002	3.57820E+000	9	...........
	37	0.506667	8.50670E-002	-2.79446E-004	0.00000E+000	-2.37716E-005	-1.68088E-001	8.50957E-002	3.57820E+000	9	...........
	38	0.52	8.12936E-002	-2.78677E-004	0.00000E+000	-2.26547E-005	-1.68088E-001	8.13119E-002	3.57820E+000	9	...........
	39	0.533333	7.76075E-002	-2.79724E-004	0.00000E+000	-2.17087E-005	-1.68088E-001	7.76291E-002	3.57820E+000	9	...........
	40	0.546667	7.40200E-002	-2.77851E-004	0.00000E+000	-2.05665E-005	-1.68088E-001	7.40397E-002	3.57820E+000	9	...........
	41	0.56	7.04955E-002	-2.79195E-004	0.00000E+000	-1.96820E-005	-1.68088E-001	7.05154E-002	3.57820E+000	9	...........
	42	0.573333	6.70792E-002	-2.77677E-004	0.00000E+000	-1.86263E-005	-1.68088E-001	6.71047E-002	3.57820E+000	9	...........
	43	0.586667	6.37389E-002	-2.78323E-004	0.00000E+000	-1.77400E-005	-1.68088E-001	6.37554E-002	3.57820E+000	9	...........
	44	0.6	6.04574E-002	-2.78323E-004	0.00000E+000	-1.68267E-005	-1.68088E-001	6.04811E-002	3.57820E+000	9	...........
	45	0.613333	5.72608E-002	-2.78174E-004	0.00000E+000	-1.59284E-005	-1.68088E-001	5.72763E-002	3.57820E+000	9	...........
	46	0.626667	5.40884E-002	-2.79533E-004	0.00000E+000	-1.51195E-005	-1.68088E-001	5.41028E-002	3.57820E+000	9	...........
	47	0.64	5.09570E-002	-2.78669E-004	0.00000E+000	-1.42001E-005	-1.68088E-001	5.09695E-002	3.57820E+000	9	...........
	48	0.653333	4.78999E-002	-2.78259E-004	0.00000E+000	-1.33286E-005	-1.68088E-001	4.79128E-002	3.57820E+000	9	...........
	49	0.666667	4.49532E-002	-2.78135E-004	0.00000E+000	-1.25031E-005	-1.68088E-001	4.49662E-002	3.57820E+000	9	...........
	50	0.68	4.20026E-002	-2.77494E-004	0.00000E+000	-1.16555E-005	-1.68088E-001	4.20177E-002	3.57820E+000	9	...........
	51	0.693333	3.91379E-002	-2.78412E-004	0.00000E+000	-1.08965E-005	-1.68088E-001	3.91475E-002	3.57820E+000	9	...........
	52	0.706667	3.63091E-002	-2.79715E-004	0.00000E+000	-1.01562E-005	-1.68088E-001	3.63129E-002	3.57820E+000	9	...........
	53	0.72	3.34506E-002	-2.78188E-004	0.00000E+000	-9.30556E-006	-1.68088E-001	3.34573E-002	3.57820E+000	9	...........
	54	0.733333	3.06637E-002	-2.78750E-004	0.00000E+000	-8.54751E-006	-1.68088E-001	3.06635E-002	3.57820E+000	9	...........
	55	0.746667	2.79206E-002	-2.78223E-004	0.00000E+000	-7.76815E-006	-1.68088E-001	2.79241E-002	3.57820E+000	9	...........
	56	0.76	2.52458E-002	-2.79260E-004	0.00000E+000	-7.05015E-006	-1.68088E-001	2.52449E-002	3.57820E+000	9	...........
	57	0.773333	2.25887E-002	-2.78573E-004	0.00000E+000	-6.29261E-006	-1.68088E-001	2.25828E-002	3.57820E+000	9	...........
	58	0.786667	1.99601E-002	-2.79146E-004	0.00000E+000	-5.57178E-006	-1.68088E-001	1.99519E-002	3.57820E+000	9	...........
	59	0.8	1.73495E-002	-2.78418E-004	0.00000E+000	-4.83042E-006	-1.68088E-001	1.73441E-002	3.57820E+000	9	...........
	60	0.813333	1.47893E-002	-2.78845E-004	0.00000E+000	-4.12393E-006	-1.68088E-001	1.47809E-002	3.57820E+000	9	...........
	61	0.826667	1.22873E-002	-2.77863E-004	0.00000E+000	-3.41420E-006	-1.68088E-001	1.22818E-002	3.57820E+000	9	...........
	62	0.84	9.79248E-003	-2.78609E-004	0.00000E+000	-2.72828E-006	-1.68088E-001	9.78685E-003	3.57820E+000	9	...........
	63	0.853333	7.32371E-003	-2.78694E-004	0.00000E+000	-2.04107E-006	-1.68088E-001	7.31340E-003	3.57820E+000	9	...........
	64	0.866667	4.91601E-003	-2.77824E-004	0.00000E+000	-1.36578E-006	-1.68088E-001	4.90053E-003	3.57820E+000	9	...........
	65	0.88	2.45965E-003	-2.78896E-004	0.00000E+000	-6.85986E-007	-1.68088E-001	2.44857E-003	3.57820E+000	9	...........
	66	0.888333	4.93269E-004	-2.79226E-004	0.00000E+000	-1.37734E-007	-1.68088E-001	4.78170E-004	3.57820E+000	9	...........
STARTTIMEOFFSET	QUANT	1213.609	Start Time Offset (s)
