EXPLAIN
TAG	PWR800_DISCHARGE
TITLE	LABEL	PWR Cyclic Charge Discharge (Cell) - Discharge Step	Test &Identifier
DATE	LABEL	7-7-2017	Date
TIME	LABEL	16:01:11	Time
NOTES	NOTES	3	&Notes...
	supercap test cell
	2.8mg
	6M KOH
PSTAT	PSTAT	IFC5000-01520	Potentiostat
CAPACITY	QUANT	1.00000E-003	Capacity (A-hr)
CELLTYPE	SELECTOR	1	&Cell Type
WORKINGCONNECTION	SELECTOR	0	&Working Lead
MAXDISCHARGETIME	VARIABLEANDUNITS	1.00000E+002	s	1.00000E+002	second(s)	Max &Discharge Time
DISCHARGEMODE	MULTIPARAM	0	2.80000E-004	&Discharge Mode	Constant Current	Amp(s)
SAMPLETIME	QUANT	1.00000E-002	Sa&mple Period (s)
DISCHARGESTOPAT1	MULTIPARAM	3	0.00000E+000	Discharge Stop At &1	Voltage < Limit	V
DISCHARGESTOPAT2	MULTIPARAM	0	0.00000E+000	Discharge Stop At &2	None	N/A
AESBHCSELECTOR	TOGGLE	F	Save Both Half Cells
IRCOMP	TOGGLE	F	IR &Measure
EOC	QUANT	0	Open Circuit (V)
SEQUENCER	TOGGLE	TRUE	Run as Sequence
PSTATMODEL	IQUANT	53	Pstat Model
PSTATSECTION	LABEL	IFC5000-01520	Pstat Section
PSTATSERIALNO	LABEL	01520	Pstat Serial Number
CTRLMODE	IQUANT	0	Control Mode
ELECTROMETER	IQUANT	1	RE=0 or CS=1
IESTAB	IQUANT	0	I/E Stability
CASPEED	IQUANT	4	Control Amp Speed
CONVENTION	IQUANT	1	Current Convention
ICHRANGE	IQUANT	2	Ich Range
ICHRANGEMODE	TOGGLE	T	Ich Auto Range
ICHOFFSETENABLE	TOGGLE	F	Ich Offset Enable
ICHOFFSET	QUANT	0	Ich Offset (V)
ICHFILTER	IQUANT	1	Ich Filter
VCHRANGE	IQUANT	2	Vch Range
VCHRANGEMODE	TOGGLE	T	Vch Auto Range
VCHOFFSETENABLE	TOGGLE	F	Vch Offset Enable
VCHOFFSET	QUANT	0	Vch Offset (V)
VCHFILTER	IQUANT	1	Vch Filter
IERANGELOWERLIMIT	IQUANT	9	I/E Range Lower Limit
IERANGEMODE	TOGGLE	F	I/E AutoRange
IERANGE	IQUANT	9	I/E Range
ACHSELECT	IQUANT	1	Ach Select
ACHRANGE	IQUANT	2	Ach Range
ACHOFFSETENABLE	TOGGLE	F	Ach Offset Enable
ACHOFFSET	QUANT	0	Ach Offset (V)
ACHFILTER	IQUANT	1	Ach Filter
CABLEID	IQUANT	14	Cable ID
DCCALDATE	LABEL	5-7-2017	DC Calibration Date
ACCALDATE	LABEL	12/3/2015	AC Calibration Date
FRAMEWORKVERSION	QUANT	7.01	Framework Version
INSTRUMENTVERSION	LABEL	4.00	Instrument Version
CURVE	TABLE	69
	Pt	T	Vf	Im	Vu	Pwr	Sig	Ach	Temp	IERange	Over
	#	s	V	A	V	W	V	V	deg C	#	bits
	0	0.013333	5.24213E-001	-2.78744E-004	0.00000E+000	-1.46121E-004	-1.68088E-001	5.24421E-001	3.57890E+000	9	...........
	1	0.026667	4.92155E-001	-2.78123E-004	0.00000E+000	-1.36879E-004	-1.68088E-001	4.92353E-001	3.57890E+000	9	...........
	2	0.04	4.63097E-001	-2.78818E-004	0.00000E+000	-1.29120E-004	-1.68088E-001	4.63206E-001	3.57890E+000	9	...........
	3	0.053333	4.35973E-001	-2.78156E-004	0.00000E+000	-1.21268E-004	-1.68088E-001	4.36084E-001	3.57890E+000	9	...........
	4	0.066667	4.10770E-001	-2.79274E-004	0.00000E+000	-1.14717E-004	-1.68088E-001	4.10867E-001	3.57890E+000	9	...........
	5	0.08	3.87299E-001	-2.77454E-004	0.00000E+000	-1.07458E-004	-1.68088E-001	3.87389E-001	3.57890E+000	9	...........
	6	0.093333	3.65468E-001	-2.78188E-004	0.00000E+000	-1.01669E-004	-1.68088E-001	3.65548E-001	3.57890E+000	9	...........
	7	0.106667	3.45162E-001	-2.77482E-004	0.00000E+000	-9.57762E-005	-1.68088E-001	3.45243E-001	3.57890E+000	9	...........
	8	0.12	3.26310E-001	-2.78407E-004	0.00000E+000	-9.08469E-005	-1.68088E-001	3.26388E-001	3.57890E+000	9	...........
	9	0.133333	3.08801E-001	-2.78587E-004	0.00000E+000	-8.60282E-005	-1.68088E-001	3.08877E-001	3.57890E+000	9	...........
	10	0.146667	2.92537E-001	-2.78279E-004	0.00000E+000	-8.14068E-005	-1.68088E-001	2.92614E-001	3.57890E+000	9	...........
	11	0.16	2.77422E-001	-2.78319E-004	0.00000E+000	-7.72118E-005	-1.68088E-001	2.77493E-001	3.57890E+000	9	...........
	12	0.173333	2.63418E-001	-2.77835E-004	0.00000E+000	-7.31867E-005	-1.68088E-001	2.63483E-001	3.57890E+000	9	...........
	13	0.186667	2.50353E-001	-2.78679E-004	0.00000E+000	-6.97681E-005	-1.68088E-001	2.50415E-001	3.57890E+000	9	...........
	14	0.2	2.38239E-001	-2.78791E-004	0.00000E+000	-6.64187E-005	-1.68088E-001	2.38291E-001	3.57890E+000	9	...........
	15	0.213333	2.26962E-001	-2.78338E-004	0.00000E+000	-6.31721E-005	-1.68088E-001	2.27009E-001	3.57890E+000	9	...........
	16	0.226667	2.16438E-001	-2.78951E-004	0.00000E+000	-6.03756E-005	-1.68088E-001	2.16489E-001	3.57890E+000	9	...........
	17	0.24	2.06637E-001	-2.79188E-004	0.00000E+000	-5.76904E-005	-1.68088E-001	2.06680E-001	3.57890E+000	9	...........
	18	0.253333	1.97424E-001	-2.80022E-004	0.00000E+000	-5.52830E-005	-1.68088E-001	1.97471E-001	3.57890E+000	9	...........
	19	0.266667	1.88789E-001	-2.78022E-004	0.00000E+000	-5.24875E-005	-1.68088E-001	1.88834E-001	3.57890E+000	9	...........
	20	0.28	1.80678E-001	-2.78796E-004	0.00000E+000	-5.03724E-005	-1.68088E-001	1.80718E-001	3.57890E+000	9	...........
	21	0.293333	1.73058E-001	-2.77703E-004	0.00000E+000	-4.80587E-005	-1.68088E-001	1.73102E-001	3.57890E+000	9	...........
	22	0.306667	1.65879E-001	-2.78844E-004	0.00000E+000	-4.62542E-005	-1.68088E-001	1.65916E-001	3.57890E+000	9	...........
	23	0.32	1.59114E-001	-2.78094E-004	0.00000E+000	-4.42485E-005	-1.68088E-001	1.59154E-001	3.57890E+000	9	...........
	24	0.333333	1.52661E-001	-2.77821E-004	0.00000E+000	-4.24125E-005	-1.68088E-001	1.52697E-001	3.57890E+000	9	...........
	25	0.346667	1.46510E-001	-2.78610E-004	0.00000E+000	-4.08193E-005	-1.68088E-001	1.46547E-001	3.57890E+000	9	...........
	26	0.36	1.40655E-001	-2.79091E-004	0.00000E+000	-3.92556E-005	-1.68088E-001	1.40695E-001	3.57890E+000	9	...........
	27	0.373333	1.35098E-001	-2.78796E-004	0.00000E+000	-3.76649E-005	-1.68088E-001	1.35127E-001	3.57890E+000	9	...........
	28	0.386667	1.29815E-001	-2.78683E-004	0.00000E+000	-3.61774E-005	-1.68088E-001	1.29842E-001	3.57890E+000	9	...........
	29	0.4	1.24687E-001	-2.78744E-004	0.00000E+000	-3.47557E-005	-1.68088E-001	1.24718E-001	3.57890E+000	9	...........
	30	0.413333	1.19767E-001	-2.78313E-004	0.00000E+000	-3.33328E-005	-1.68088E-001	1.19802E-001	3.57890E+000	9	...........
	31	0.426667	1.15029E-001	-2.78838E-004	0.00000E+000	-3.20745E-005	-1.68088E-001	1.15058E-001	3.57834E+000	9	...........
	32	0.44	1.10478E-001	-2.78926E-004	0.00000E+000	-3.08151E-005	-1.68088E-001	1.10506E-001	3.57800E+000	9	...........
	33	0.453333	1.06066E-001	-2.79360E-004	0.00000E+000	-2.96306E-005	-1.68088E-001	1.06099E-001	3.57800E+000	9	...........
	34	0.466667	1.01772E-001	-2.79066E-004	0.00000E+000	-2.84009E-005	-1.68088E-001	1.01796E-001	3.57800E+000	9	...........
	35	0.48	9.76089E-002	-2.78307E-004	0.00000E+000	-2.71652E-005	-1.68088E-001	9.76371E-002	3.57800E+000	9	...........
	36	0.493333	9.36014E-002	-2.79488E-004	0.00000E+000	-2.61604E-005	-1.68088E-001	9.36275E-002	3.57800E+000	9	...........
	37	0.506667	8.96755E-002	-2.77923E-004	0.00000E+000	-2.49229E-005	-1.68088E-001	8.96981E-002	3.57800E+000	9	...........
	38	0.52	8.58571E-002	-2.79631E-004	0.00000E+000	-2.40083E-005	-1.68088E-001	8.58811E-002	3.57800E+000	9	...........
	39	0.533333	8.21619E-002	-2.78684E-004	0.00000E+000	-2.28972E-005	-1.68088E-001	8.21875E-002	3.57800E+000	9	...........
	40	0.546667	7.85355E-002	-2.79777E-004	0.00000E+000	-2.19724E-005	-1.68088E-001	7.85542E-002	3.57800E+000	9	...........
	41	0.56	7.49887E-002	-2.79695E-004	0.00000E+000	-2.09740E-005	-1.68088E-001	7.50086E-002	3.57800E+000	9	...........
	42	0.573333	7.14819E-002	-2.78402E-004	0.00000E+000	-1.99007E-005	-1.68088E-001	7.14961E-002	3.57800E+000	9	...........
	43	0.586667	6.81081E-002	-2.77858E-004	0.00000E+000	-1.89244E-005	-1.68088E-001	6.81205E-002	3.57800E+000	9	...........
	44	0.6	6.48039E-002	-2.78237E-004	0.00000E+000	-1.80309E-005	-1.68088E-001	6.48104E-002	3.57800E+000	9	...........
	45	0.613333	6.15886E-002	-2.79124E-004	0.00000E+000	-1.71909E-005	-1.68088E-001	6.16042E-002	3.57800E+000	9	...........
	46	0.626667	5.84113E-002	-2.79317E-004	0.00000E+000	-1.63153E-005	-1.68088E-001	5.84210E-002	3.57800E+000	9	...........
	47	0.64	5.53462E-002	-2.78682E-004	0.00000E+000	-1.54240E-005	-1.68088E-001	5.53583E-002	3.57800E+000	9	...........
	48	0.653333	5.22957E-002	-2.79399E-004	0.00000E+000	-1.46114E-005	-1.68088E-001	5.23048E-002	3.57800E+000	9	...........
	49	0.666667	4.93273E-002	-2.78601E-004	0.00000E+000	-1.37426E-005	-1.68088E-001	4.93403E-002	3.57800E+000	9	...........
	50	0.68	4.64358E-002	-2.78027E-004	0.00000E+000	-1.29104E-005	-1.68088E-001	4.64478E-002	3.57800E+000	9	...........
	51	0.693333	4.35074E-002	-2.79801E-004	0.00000E+000	-1.21734E-005	-1.68088E-001	4.35200E-002	3.57800E+000	9	...........
	52	0.706667	4.06680E-002	-2.78177E-004	0.00000E+000	-1.13129E-005	-1.68088E-001	4.06809E-002	3.57800E+000	9	...........
	53	0.72	3.78959E-002	-2.77819E-004	0.00000E+000	-1.05282E-005	-1.68088E-001	3.79041E-002	3.57800E+000	9	...........
	54	0.733333	3.51522E-002	-2.78797E-004	0.00000E+000	-9.80032E-006	-1.68088E-001	3.51574E-002	3.57800E+000	9	...........
	55	0.746667	3.24370E-002	-2.77737E-004	0.00000E+000	-9.00897E-006	-1.68088E-001	3.24405E-002	3.57800E+000	9	...........
	56	0.76	2.96899E-002	-2.79428E-004	0.00000E+000	-8.29619E-006	-1.68088E-001	2.96915E-002	3.57800E+000	9	...........
	57	0.773333	2.70249E-002	-2.78805E-004	0.00000E+000	-7.53469E-006	-1.68088E-001	2.70299E-002	3.57800E+000	9	...........
	58	0.786667	2.44251E-002	-2.78822E-004	0.00000E+000	-6.81025E-006	-1.68088E-001	2.44220E-002	3.57800E+000	9	...........
	59	0.8	2.18236E-002	-2.79373E-004	0.00000E+000	-6.09692E-006	-1.68088E-001	2.18197E-002	3.57800E+000	9	...........
	60	0.813333	1.93158E-002	-2.77914E-004	0.00000E+000	-5.36812E-006	-1.68088E-001	1.93111E-002	3.57800E+000	9	...........
	61	0.826667	1.68180E-002	-2.78850E-004	0.00000E+000	-4.68970E-006	-1.68088E-001	1.68137E-002	3.57800E+000	9	...........
	62	0.84	1.43626E-002	-2.78461E-004	0.00000E+000	-3.99943E-006	-1.68088E-001	1.43575E-002	3.57800E+000	9	...........
	63	0.853333	1.19123E-002	-2.79875E-004	0.00000E+000	-3.33394E-006	-1.68088E-001	1.19046E-002	3.57800E+000	9	...........
	64	0.866667	9.52516E-003	-2.78745E-004	0.00000E+000	-2.65509E-006	-1.68088E-001	9.51842E-003	3.57800E+000	9	...........
	65	0.88	7.12547E-003	-2.78770E-004	0.00000E+000	-1.98636E-006	-1.68088E-001	7.11473E-003	3.57800E+000	9	...........
	66	0.893333	4.75902E-003	-2.78522E-004	0.00000E+000	-1.32549E-006	-1.68088E-001	4.74820E-003	3.57800E+000	9	...........
	67	0.906667	2.39853E-003	-2.78258E-004	0.00000E+000	-6.67412E-007	-1.68088E-001	2.38500E-003	3.57800E+000	9	...........
	68	0.915	4.94651E-004	-2.79090E-004	0.00000E+000	-1.38052E-007	-1.68088E-001	4.77589E-004	3.57800E+000	9	...........
STARTTIMEOFFSET	QUANT	1159.525	Start Time Offset (s)
