EXPLAIN
TAG	PWR800_DISCHARGE
TITLE	LABEL	PWR Cyclic Charge Discharge (Cell) - Discharge Step	Test &Identifier
DATE	LABEL	7-7-2017	Date
TIME	LABEL	16:06:40	Time
NOTES	NOTES	3	&Notes...
	supercap test cell
	2.8mg
	6M KOH
PSTAT	PSTAT	IFC5000-01520	Potentiostat
CAPACITY	QUANT	1.00000E-003	Capacity (A-hr)
CELLTYPE	SELECTOR	1	&Cell Type
WORKINGCONNECTION	SELECTOR	0	&Working Lead
MAXDISCHARGETIME	VARIABLEANDUNITS	1.00000E+002	s	1.00000E+002	second(s)	Max &Discharge Time
DISCHARGEMODE	MULTIPARAM	0	2.80000E-004	&Discharge Mode	Constant Current	Amp(s)
SAMPLETIME	QUANT	1.00000E-002	Sa&mple Period (s)
DISCHARGESTOPAT1	MULTIPARAM	3	0.00000E+000	Discharge Stop At &1	Voltage < Limit	V
DISCHARGESTOPAT2	MULTIPARAM	0	0.00000E+000	Discharge Stop At &2	None	N/A
AESBHCSELECTOR	TOGGLE	F	Save Both Half Cells
IRCOMP	TOGGLE	F	IR &Measure
EOC	QUANT	0	Open Circuit (V)
SEQUENCER	TOGGLE	TRUE	Run as Sequence
PSTATMODEL	IQUANT	53	Pstat Model
PSTATSECTION	LABEL	IFC5000-01520	Pstat Section
PSTATSERIALNO	LABEL	01520	Pstat Serial Number
CTRLMODE	IQUANT	0	Control Mode
ELECTROMETER	IQUANT	1	RE=0 or CS=1
IESTAB	IQUANT	0	I/E Stability
CASPEED	IQUANT	4	Control Amp Speed
CONVENTION	IQUANT	1	Current Convention
ICHRANGE	IQUANT	2	Ich Range
ICHRANGEMODE	TOGGLE	T	Ich Auto Range
ICHOFFSETENABLE	TOGGLE	F	Ich Offset Enable
ICHOFFSET	QUANT	0	Ich Offset (V)
ICHFILTER	IQUANT	1	Ich Filter
VCHRANGE	IQUANT	2	Vch Range
VCHRANGEMODE	TOGGLE	T	Vch Auto Range
VCHOFFSETENABLE	TOGGLE	F	Vch Offset Enable
VCHOFFSET	QUANT	0	Vch Offset (V)
VCHFILTER	IQUANT	1	Vch Filter
IERANGELOWERLIMIT	IQUANT	9	I/E Range Lower Limit
IERANGEMODE	TOGGLE	F	I/E AutoRange
IERANGE	IQUANT	9	I/E Range
ACHSELECT	IQUANT	1	Ach Select
ACHRANGE	IQUANT	2	Ach Range
ACHOFFSETENABLE	TOGGLE	F	Ach Offset Enable
ACHOFFSET	QUANT	0	Ach Offset (V)
ACHFILTER	IQUANT	1	Ach Filter
CABLEID	IQUANT	14	Cable ID
DCCALDATE	LABEL	5-7-2017	DC Calibration Date
ACCALDATE	LABEL	12/3/2015	AC Calibration Date
FRAMEWORKVERSION	QUANT	7.01	Framework Version
INSTRUMENTVERSION	LABEL	4.00	Instrument Version
CURVE	TABLE	65
	Pt	T	Vf	Im	Vu	Pwr	Sig	Ach	Temp	IERange	Over
	#	s	V	A	V	W	V	V	deg C	#	bits
	0	0.013333	5.27174E-001	-2.78794E-004	0.00000E+000	-1.46973E-004	-1.68088E-001	5.27412E-001	3.57880E+000	9	...........
	1	0.026667	4.94310E-001	-2.78353E-004	0.00000E+000	-1.37593E-004	-1.68088E-001	4.94542E-001	3.57880E+000	9	...........
	2	0.04	4.64481E-001	-2.78447E-004	0.00000E+000	-1.29333E-004	-1.68088E-001	4.64592E-001	3.57880E+000	9	...........
	3	0.053333	4.36590E-001	-2.79270E-004	0.00000E+000	-1.21926E-004	-1.68088E-001	4.36695E-001	3.57880E+000	9	...........
	4	0.066667	4.10639E-001	-2.79795E-004	0.00000E+000	-1.14895E-004	-1.68088E-001	4.10738E-001	3.57880E+000	9	...........
	5	0.08	3.86440E-001	-2.77041E-004	0.00000E+000	-1.07060E-004	-1.68088E-001	3.86528E-001	3.57880E+000	9	...........
	6	0.093333	3.63869E-001	-2.78073E-004	0.00000E+000	-1.01182E-004	-1.68088E-001	3.63955E-001	3.57880E+000	9	...........
	7	0.106667	3.42829E-001	-2.79427E-004	0.00000E+000	-9.57958E-005	-1.68088E-001	3.42912E-001	3.57880E+000	9	...........
	8	0.12	3.23259E-001	-2.77956E-004	0.00000E+000	-8.98517E-005	-1.68088E-001	3.23339E-001	3.57880E+000	9	...........
	9	0.133333	3.05079E-001	-2.78568E-004	0.00000E+000	-8.49850E-005	-1.68088E-001	3.05151E-001	3.57880E+000	9	...........
	10	0.146667	2.88212E-001	-2.78100E-004	0.00000E+000	-8.01517E-005	-1.68088E-001	2.88285E-001	3.57880E+000	9	...........
	11	0.16	2.72557E-001	-2.78305E-004	0.00000E+000	-7.58539E-005	-1.68088E-001	2.72627E-001	3.57880E+000	9	...........
	12	0.173333	2.57980E-001	-2.78449E-004	0.00000E+000	-7.18341E-005	-1.68088E-001	2.58044E-001	3.57880E+000	9	...........
	13	0.186667	2.44467E-001	-2.78731E-004	0.00000E+000	-6.81406E-005	-1.68088E-001	2.44527E-001	3.57880E+000	9	...........
	14	0.2	2.31904E-001	-2.78568E-004	0.00000E+000	-6.46010E-005	-1.68088E-001	2.31958E-001	3.57880E+000	9	...........
	15	0.213333	2.20199E-001	-2.78571E-004	0.00000E+000	-6.13411E-005	-1.68088E-001	2.20253E-001	3.57880E+000	9	...........
	16	0.226667	2.09298E-001	-2.78998E-004	0.00000E+000	-5.83936E-005	-1.68088E-001	2.09347E-001	3.57880E+000	9	...........
	17	0.24	1.99164E-001	-2.77047E-004	0.00000E+000	-5.51780E-005	-1.68088E-001	1.99215E-001	3.57880E+000	9	...........
	18	0.253333	1.89700E-001	-2.77643E-004	0.00000E+000	-5.26689E-005	-1.68088E-001	1.89752E-001	3.57880E+000	9	...........
	19	0.266667	1.80838E-001	-2.78737E-004	0.00000E+000	-5.04064E-005	-1.68088E-001	1.80883E-001	3.57880E+000	9	...........
	20	0.28	1.72526E-001	-2.78703E-004	0.00000E+000	-4.80835E-005	-1.68088E-001	1.72571E-001	3.57880E+000	9	...........
	21	0.293333	1.64666E-001	-2.78902E-004	0.00000E+000	-4.59256E-005	-1.68088E-001	1.64707E-001	3.57880E+000	9	...........
	22	0.306667	1.57275E-001	-2.78852E-004	0.00000E+000	-4.38564E-005	-1.68088E-001	1.57313E-001	3.57880E+000	9	...........
	23	0.32	1.50292E-001	-2.79905E-004	0.00000E+000	-4.20676E-005	-1.68088E-001	1.50328E-001	3.57880E+000	9	...........
	24	0.333333	1.43648E-001	-2.78576E-004	0.00000E+000	-4.00168E-005	-1.68088E-001	1.43682E-001	3.57880E+000	9	...........
	25	0.346667	1.37375E-001	-2.78193E-004	0.00000E+000	-3.82166E-005	-1.68088E-001	1.37412E-001	3.57880E+000	9	...........
	26	0.36	1.31415E-001	-2.78463E-004	0.00000E+000	-3.65942E-005	-1.68088E-001	1.31445E-001	3.57880E+000	9	...........
	27	0.373333	1.25706E-001	-2.79045E-004	0.00000E+000	-3.50775E-005	-1.68088E-001	1.25738E-001	3.57880E+000	9	...........
	28	0.386667	1.20244E-001	-2.78104E-004	0.00000E+000	-3.34404E-005	-1.68088E-001	1.20277E-001	3.57880E+000	9	...........
	29	0.4	1.15001E-001	-2.79250E-004	0.00000E+000	-3.21139E-005	-1.68088E-001	1.15028E-001	3.57880E+000	9	...........
	30	0.413333	1.09986E-001	-2.79328E-004	0.00000E+000	-3.07221E-005	-1.68088E-001	1.10014E-001	3.57880E+000	9	...........
	31	0.426667	1.05157E-001	-2.78711E-004	0.00000E+000	-2.93085E-005	-1.68088E-001	1.05186E-001	3.57880E+000	9	...........
	32	0.44	1.00495E-001	-2.78796E-004	0.00000E+000	-2.80175E-005	-1.68088E-001	1.00523E-001	3.57880E+000	9	...........
	33	0.453333	9.60045E-002	-2.79794E-004	0.00000E+000	-2.68615E-005	-1.68088E-001	9.60321E-002	3.57880E+000	9	...........
	34	0.466667	9.16881E-002	-2.78645E-004	0.00000E+000	-2.55484E-005	-1.68088E-001	9.17118E-002	3.57880E+000	9	...........
	35	0.48	8.75000E-002	-2.78393E-004	0.00000E+000	-2.43594E-005	-1.68088E-001	8.75228E-002	3.57880E+000	9	...........
	36	0.493333	8.34250E-002	-2.78219E-004	0.00000E+000	-2.32104E-005	-1.68088E-001	8.34510E-002	3.57880E+000	9	...........
	37	0.506667	7.94903E-002	-2.79475E-004	0.00000E+000	-2.22156E-005	-1.68088E-001	7.95173E-002	3.57880E+000	9	...........
	38	0.52	7.56772E-002	-2.77432E-004	0.00000E+000	-2.09953E-005	-1.68088E-001	7.56946E-002	3.57880E+000	9	...........
	39	0.533333	7.19563E-002	-2.79077E-004	0.00000E+000	-2.00814E-005	-1.68088E-001	7.19701E-002	3.57880E+000	9	...........
	40	0.546667	6.83494E-002	-2.79401E-004	0.00000E+000	-1.90969E-005	-1.68088E-001	6.83662E-002	3.57880E+000	9	...........
	41	0.56	6.47774E-002	-2.78843E-004	0.00000E+000	-1.80627E-005	-1.68088E-001	6.47981E-002	3.57805E+000	9	...........
	42	0.573333	6.12934E-002	-2.79039E-004	0.00000E+000	-1.71032E-005	-1.68088E-001	6.13113E-002	3.57730E+000	9	...........
	43	0.586667	5.79396E-002	-2.79169E-004	0.00000E+000	-1.61749E-005	-1.68088E-001	5.79540E-002	3.57730E+000	9	...........
	44	0.6	5.46219E-002	-2.78952E-004	0.00000E+000	-1.52369E-005	-1.68088E-001	5.46322E-002	3.57730E+000	9	...........
	45	0.613333	5.13578E-002	-2.78759E-004	0.00000E+000	-1.43165E-005	-1.68088E-001	5.13668E-002	3.57730E+000	9	...........
	46	0.626667	4.81632E-002	-2.77345E-004	0.00000E+000	-1.33578E-005	-1.68088E-001	4.81741E-002	3.57730E+000	9	...........
	47	0.64	4.50336E-002	-2.79326E-004	0.00000E+000	-1.25790E-005	-1.68088E-001	4.50489E-002	3.57730E+000	9	...........
	48	0.653333	4.19439E-002	-2.77829E-004	0.00000E+000	-1.16532E-005	-1.68088E-001	4.19526E-002	3.57730E+000	9	...........
	49	0.666667	3.89419E-002	-2.79040E-004	0.00000E+000	-1.08663E-005	-1.68088E-001	3.89548E-002	3.57730E+000	9	...........
	50	0.68	3.60080E-002	-2.79412E-004	0.00000E+000	-1.00611E-005	-1.68088E-001	3.60203E-002	3.57730E+000	9	...........
	51	0.693333	3.30953E-002	-2.77904E-004	0.00000E+000	-9.19731E-006	-1.68088E-001	3.30972E-002	3.57730E+000	9	...........
	52	0.706667	3.01812E-002	-2.78818E-004	0.00000E+000	-8.41504E-006	-1.68088E-001	3.01842E-002	3.57730E+000	9	...........
	53	0.72	2.73246E-002	-2.79373E-004	0.00000E+000	-7.63375E-006	-1.68088E-001	2.73238E-002	3.57730E+000	9	...........
	54	0.733333	2.45400E-002	-2.79185E-004	0.00000E+000	-6.85122E-006	-1.68088E-001	2.45379E-002	3.57730E+000	9	...........
	55	0.746667	2.18123E-002	-2.78256E-004	0.00000E+000	-6.06940E-006	-1.68088E-001	2.18095E-002	3.57730E+000	9	...........
	56	0.76	1.90966E-002	-2.79139E-004	0.00000E+000	-5.33060E-006	-1.68088E-001	1.90946E-002	3.57730E+000	9	...........
	57	0.773333	1.64223E-002	-2.79404E-004	0.00000E+000	-4.58846E-006	-1.68088E-001	1.64138E-002	3.57730E+000	9	...........
	58	0.786667	1.38042E-002	-2.79881E-004	0.00000E+000	-3.86355E-006	-1.68088E-001	1.37966E-002	3.57730E+000	9	...........
	59	0.8	1.12368E-002	-2.79363E-004	0.00000E+000	-3.13913E-006	-1.68088E-001	1.12258E-002	3.57730E+000	9	...........
	60	0.813333	8.70605E-003	-2.78382E-004	0.00000E+000	-2.42361E-006	-1.68088E-001	8.69890E-003	3.57730E+000	9	...........
	61	0.826667	6.17651E-003	-2.78759E-004	0.00000E+000	-1.72176E-006	-1.68088E-001	6.16221E-003	3.57730E+000	9	...........
	62	0.84	3.66614E-003	-2.78977E-004	0.00000E+000	-1.02277E-006	-1.68088E-001	3.64846E-003	3.57730E+000	9	...........
	63	0.853333	1.18109E-003	-2.78486E-004	0.00000E+000	-3.28918E-007	-1.68088E-001	1.16777E-003	3.57730E+000	9	...........
	64	0.855	-1.98653E-004	-2.76589E-004	0.00000E+000	5.49453E-008	-1.68088E-001	-2.03717E-004	3.57730E+000	9	...........
STARTTIMEOFFSET	QUANT	1388.276	Start Time Offset (s)
