EXPLAIN
TAG	PWR800_DISCHARGE
TITLE	LABEL	PWR Cyclic Charge Discharge (Cell) - Discharge Step	Test &Identifier
DATE	LABEL	7-7-2017	Date
TIME	LABEL	16:02:21	Time
NOTES	NOTES	3	&Notes...
	supercap test cell
	2.8mg
	6M KOH
PSTAT	PSTAT	IFC5000-01520	Potentiostat
CAPACITY	QUANT	1.00000E-003	Capacity (A-hr)
CELLTYPE	SELECTOR	1	&Cell Type
WORKINGCONNECTION	SELECTOR	0	&Working Lead
MAXDISCHARGETIME	VARIABLEANDUNITS	1.00000E+002	s	1.00000E+002	second(s)	Max &Discharge Time
DISCHARGEMODE	MULTIPARAM	0	2.80000E-004	&Discharge Mode	Constant Current	Amp(s)
SAMPLETIME	QUANT	1.00000E-002	Sa&mple Period (s)
DISCHARGESTOPAT1	MULTIPARAM	3	0.00000E+000	Discharge Stop At &1	Voltage < Limit	V
DISCHARGESTOPAT2	MULTIPARAM	0	0.00000E+000	Discharge Stop At &2	None	N/A
AESBHCSELECTOR	TOGGLE	F	Save Both Half Cells
IRCOMP	TOGGLE	F	IR &Measure
EOC	QUANT	0	Open Circuit (V)
SEQUENCER	TOGGLE	TRUE	Run as Sequence
PSTATMODEL	IQUANT	53	Pstat Model
PSTATSECTION	LABEL	IFC5000-01520	Pstat Section
PSTATSERIALNO	LABEL	01520	Pstat Serial Number
CTRLMODE	IQUANT	0	Control Mode
ELECTROMETER	IQUANT	1	RE=0 or CS=1
IESTAB	IQUANT	0	I/E Stability
CASPEED	IQUANT	4	Control Amp Speed
CONVENTION	IQUANT	1	Current Convention
ICHRANGE	IQUANT	2	Ich Range
ICHRANGEMODE	TOGGLE	T	Ich Auto Range
ICHOFFSETENABLE	TOGGLE	F	Ich Offset Enable
ICHOFFSET	QUANT	0	Ich Offset (V)
ICHFILTER	IQUANT	1	Ich Filter
VCHRANGE	IQUANT	2	Vch Range
VCHRANGEMODE	TOGGLE	T	Vch Auto Range
VCHOFFSETENABLE	TOGGLE	F	Vch Offset Enable
VCHOFFSET	QUANT	0	Vch Offset (V)
VCHFILTER	IQUANT	1	Vch Filter
IERANGELOWERLIMIT	IQUANT	9	I/E Range Lower Limit
IERANGEMODE	TOGGLE	F	I/E AutoRange
IERANGE	IQUANT	9	I/E Range
ACHSELECT	IQUANT	1	Ach Select
ACHRANGE	IQUANT	2	Ach Range
ACHOFFSETENABLE	TOGGLE	F	Ach Offset Enable
ACHOFFSET	QUANT	0	Ach Offset (V)
ACHFILTER	IQUANT	1	Ach Filter
CABLEID	IQUANT	14	Cable ID
DCCALDATE	LABEL	5-7-2017	DC Calibration Date
ACCALDATE	LABEL	12/3/2015	AC Calibration Date
FRAMEWORKVERSION	QUANT	7.01	Framework Version
INSTRUMENTVERSION	LABEL	4.00	Instrument Version
CURVE	TABLE	68
	Pt	T	Vf	Im	Vu	Pwr	Sig	Ach	Temp	IERange	Over
	#	s	V	A	V	W	V	V	deg C	#	bits
	0	0.013333	5.31277E-001	-2.78091E-004	0.00000E+000	-1.47743E-004	-1.68088E-001	5.31492E-001	3.57960E+000	9	...........
	1	0.026667	4.98591E-001	-2.78842E-004	0.00000E+000	-1.39028E-004	-1.68088E-001	4.98821E-001	3.57960E+000	9	...........
	2	0.04	4.69040E-001	-2.77611E-004	0.00000E+000	-1.30211E-004	-1.68088E-001	4.69126E-001	3.57960E+000	9	...........
	3	0.053333	4.41362E-001	-2.79290E-004	0.00000E+000	-1.23268E-004	-1.68088E-001	4.41468E-001	3.57960E+000	9	...........
	4	0.066667	4.15591E-001	-2.78835E-004	0.00000E+000	-1.15881E-004	-1.68088E-001	4.15696E-001	3.57960E+000	9	...........
	5	0.08	3.91563E-001	-2.79793E-004	0.00000E+000	-1.09556E-004	-1.68088E-001	3.91653E-001	3.57960E+000	9	...........
	6	0.093333	3.69179E-001	-2.78060E-004	0.00000E+000	-1.02654E-004	-1.68088E-001	3.69266E-001	3.57960E+000	9	...........
	7	0.106667	3.48361E-001	-2.79011E-004	0.00000E+000	-9.71968E-005	-1.68088E-001	3.48449E-001	3.57960E+000	9	...........
	8	0.12	3.28975E-001	-2.78478E-004	0.00000E+000	-9.16124E-005	-1.68088E-001	3.29053E-001	3.57960E+000	9	...........
	9	0.133333	3.10954E-001	-2.78525E-004	0.00000E+000	-8.66085E-005	-1.68088E-001	3.11035E-001	3.57960E+000	9	...........
	10	0.146667	2.94202E-001	-2.79307E-004	0.00000E+000	-8.21727E-005	-1.68088E-001	2.94277E-001	3.57960E+000	9	...........
	11	0.16	2.78627E-001	-2.79116E-004	0.00000E+000	-7.77691E-005	-1.68088E-001	2.78694E-001	3.57960E+000	9	...........
	12	0.173333	2.64152E-001	-2.78638E-004	0.00000E+000	-7.36028E-005	-1.68088E-001	2.64216E-001	3.57960E+000	9	...........
	13	0.186667	2.50717E-001	-2.78285E-004	0.00000E+000	-6.97707E-005	-1.68088E-001	2.50782E-001	3.57960E+000	9	...........
	14	0.2	2.38270E-001	-2.78668E-004	0.00000E+000	-6.63982E-005	-1.68088E-001	2.38328E-001	3.57900E+000	9	...........
	15	0.213333	2.26702E-001	-2.78970E-004	0.00000E+000	-6.32430E-005	-1.68088E-001	2.26755E-001	3.57800E+000	9	...........
	16	0.226667	2.15882E-001	-2.80472E-004	0.00000E+000	-6.05489E-005	-1.68088E-001	2.15932E-001	3.57800E+000	9	...........
	17	0.24	2.05738E-001	-2.78916E-004	0.00000E+000	-5.73835E-005	-1.68088E-001	2.05786E-001	3.57800E+000	9	...........
	18	0.253333	1.96292E-001	-2.78831E-004	0.00000E+000	-5.47324E-005	-1.68088E-001	1.96338E-001	3.57800E+000	9	...........
	19	0.266667	1.87459E-001	-2.79455E-004	0.00000E+000	-5.23863E-005	-1.68088E-001	1.87508E-001	3.57800E+000	9	...........
	20	0.28	1.79146E-001	-2.77667E-004	0.00000E+000	-4.97429E-005	-1.68088E-001	1.79189E-001	3.57800E+000	9	...........
	21	0.293333	1.71342E-001	-2.78580E-004	0.00000E+000	-4.77326E-005	-1.68088E-001	1.71389E-001	3.57800E+000	9	...........
	22	0.306667	1.63996E-001	-2.79380E-004	0.00000E+000	-4.58173E-005	-1.68088E-001	1.64036E-001	3.57800E+000	9	...........
	23	0.32	1.57036E-001	-2.78046E-004	0.00000E+000	-4.36631E-005	-1.68088E-001	1.57074E-001	3.57800E+000	9	...........
	24	0.333333	1.50411E-001	-2.77309E-004	0.00000E+000	-4.17103E-005	-1.68088E-001	1.50446E-001	3.57800E+000	9	...........
	25	0.346667	1.44156E-001	-2.79836E-004	0.00000E+000	-4.03399E-005	-1.68088E-001	1.44190E-001	3.57800E+000	9	...........
	26	0.36	1.38165E-001	-2.79255E-004	0.00000E+000	-3.85834E-005	-1.68088E-001	1.38200E-001	3.57800E+000	9	...........
	27	0.373333	1.32481E-001	-2.79320E-004	0.00000E+000	-3.70046E-005	-1.68088E-001	1.32512E-001	3.57800E+000	9	...........
	28	0.386667	1.27003E-001	-2.78745E-004	0.00000E+000	-3.54015E-005	-1.68088E-001	1.27036E-001	3.57800E+000	9	...........
	29	0.4	1.21779E-001	-2.79305E-004	0.00000E+000	-3.40135E-005	-1.68088E-001	1.21814E-001	3.57800E+000	9	...........
	30	0.413333	1.16776E-001	-2.79120E-004	0.00000E+000	-3.25945E-005	-1.68088E-001	1.16810E-001	3.57800E+000	9	...........
	31	0.426667	1.11958E-001	-2.80551E-004	0.00000E+000	-3.14099E-005	-1.68088E-001	1.11988E-001	3.57800E+000	9	...........
	32	0.44	1.07352E-001	-2.79651E-004	0.00000E+000	-3.00212E-005	-1.68088E-001	1.07380E-001	3.57800E+000	9	...........
	33	0.453333	1.02899E-001	-2.77685E-004	0.00000E+000	-2.85736E-005	-1.68088E-001	1.02924E-001	3.57800E+000	9	...........
	34	0.466667	9.85330E-002	-2.80800E-004	0.00000E+000	-2.76681E-005	-1.68088E-001	9.85643E-002	3.57800E+000	9	...........
	35	0.48	9.43702E-002	-2.78982E-004	0.00000E+000	-2.63276E-005	-1.68088E-001	9.43955E-002	3.57800E+000	9	...........
	36	0.493333	9.03413E-002	-2.79036E-004	0.00000E+000	-2.52085E-005	-1.68088E-001	9.03665E-002	3.57800E+000	9	...........
	37	0.506667	8.64236E-002	-2.79221E-004	0.00000E+000	-2.41313E-005	-1.68088E-001	8.64500E-002	3.57800E+000	9	...........
	38	0.52	8.26101E-002	-2.79349E-004	0.00000E+000	-2.30771E-005	-1.68088E-001	8.26295E-002	3.57800E+000	9	...........
	39	0.533333	7.89219E-002	-2.79097E-004	0.00000E+000	-2.20269E-005	-1.68088E-001	7.89393E-002	3.57800E+000	9	...........
	40	0.546667	7.52792E-002	-2.78152E-004	0.00000E+000	-2.09390E-005	-1.68088E-001	7.53009E-002	3.57800E+000	9	...........
	41	0.56	7.16888E-002	-2.79270E-004	0.00000E+000	-2.00205E-005	-1.68088E-001	7.17054E-002	3.57800E+000	9	...........
	42	0.573333	6.81903E-002	-2.80761E-004	0.00000E+000	-1.91452E-005	-1.68088E-001	6.82092E-002	3.57800E+000	9	...........
	43	0.586667	6.47382E-002	-2.78108E-004	0.00000E+000	-1.80042E-005	-1.68088E-001	6.47526E-002	3.57800E+000	9	...........
	44	0.6	6.14163E-002	-2.78518E-004	0.00000E+000	-1.71055E-005	-1.68088E-001	6.14317E-002	3.57800E+000	9	...........
	45	0.613333	5.81759E-002	-2.77847E-004	0.00000E+000	-1.61640E-005	-1.68088E-001	5.81852E-002	3.57800E+000	9	...........
	46	0.626667	5.49687E-002	-2.78340E-004	0.00000E+000	-1.53000E-005	-1.68088E-001	5.49810E-002	3.57800E+000	9	...........
	47	0.64	5.18270E-002	-2.79671E-004	0.00000E+000	-1.44945E-005	-1.68088E-001	5.18419E-002	3.57800E+000	9	...........
	48	0.653333	4.87637E-002	-2.78349E-004	0.00000E+000	-1.35733E-005	-1.68088E-001	4.87722E-002	3.57800E+000	9	...........
	49	0.666667	4.58146E-002	-2.79776E-004	0.00000E+000	-1.28178E-005	-1.68088E-001	4.58243E-002	3.57800E+000	9	...........
	50	0.68	4.28784E-002	-2.79526E-004	0.00000E+000	-1.19856E-005	-1.68088E-001	4.28861E-002	3.57800E+000	9	...........
	51	0.693333	3.99628E-002	-2.77650E-004	0.00000E+000	-1.10957E-005	-1.68088E-001	3.99673E-002	3.57800E+000	9	...........
	52	0.706667	3.70945E-002	-2.79695E-004	0.00000E+000	-1.03752E-005	-1.68088E-001	3.71028E-002	3.57800E+000	9	...........
	53	0.72	3.42765E-002	-2.78890E-004	0.00000E+000	-9.55937E-006	-1.68088E-001	3.42834E-002	3.57800E+000	9	...........
	54	0.733333	3.15168E-002	-2.79051E-004	0.00000E+000	-8.79480E-006	-1.68088E-001	3.15232E-002	3.57800E+000	9	...........
	55	0.746667	2.88465E-002	-2.78853E-004	0.00000E+000	-8.04394E-006	-1.68088E-001	2.88512E-002	3.57800E+000	9	...........
	56	0.76	2.61487E-002	-2.78729E-004	0.00000E+000	-7.28839E-006	-1.68088E-001	2.61490E-002	3.57800E+000	9	...........
	57	0.773333	2.34999E-002	-2.80816E-004	0.00000E+000	-6.59915E-006	-1.68088E-001	2.35002E-002	3.57800E+000	9	...........
	58	0.786667	2.08728E-002	-2.78953E-004	0.00000E+000	-5.82253E-006	-1.68088E-001	2.08705E-002	3.57800E+000	9	...........
	59	0.8	1.82861E-002	-2.78536E-004	0.00000E+000	-5.09334E-006	-1.68088E-001	1.82842E-002	3.57800E+000	9	...........
	60	0.813333	1.57276E-002	-2.77405E-004	0.00000E+000	-4.36292E-006	-1.68088E-001	1.57208E-002	3.57800E+000	9	...........
	61	0.826667	1.32341E-002	-2.79185E-004	0.00000E+000	-3.69476E-006	-1.68088E-001	1.32284E-002	3.57800E+000	9	...........
	62	0.84	1.08089E-002	-2.78691E-004	0.00000E+000	-3.01234E-006	-1.68088E-001	1.07965E-002	3.57800E+000	9	...........
	63	0.853333	8.37501E-003	-2.78610E-004	0.00000E+000	-2.33336E-006	-1.68088E-001	8.36309E-003	3.57800E+000	9	...........
	64	0.866667	5.97183E-003	-2.79579E-004	0.00000E+000	-1.66960E-006	-1.68088E-001	5.96466E-003	3.57800E+000	9	...........
	65	0.88	3.57180E-003	-2.79066E-004	0.00000E+000	-9.96767E-007	-1.68088E-001	3.55822E-003	3.57800E+000	9	...........
	66	0.893333	1.19941E-003	-2.79532E-004	0.00000E+000	-3.35275E-007	-1.68088E-001	1.18390E-003	3.57800E+000	9	...........
	67	0.895	-1.42592E-004	-2.75931E-004	0.00000E+000	3.93454E-008	-1.68088E-001	-1.53663E-004	3.57800E+000	9	...........
STARTTIMEOFFSET	QUANT	1207.932	Start Time Offset (s)
