EXPLAIN
TAG	PWR800_DISCHARGE
TITLE	LABEL	PWR Cyclic Charge Discharge (Cell) - Discharge Step	Test &Identifier
DATE	LABEL	7-7-2017	Date
TIME	LABEL	15:47:09	Time
NOTES	NOTES	3	&Notes...
	supercap test cell
	2.8mg
	6M KOH
PSTAT	PSTAT	IFC5000-01520	Potentiostat
CAPACITY	QUANT	1.00000E-003	Capacity (A-hr)
CELLTYPE	SELECTOR	1	&Cell Type
WORKINGCONNECTION	SELECTOR	0	&Working Lead
MAXDISCHARGETIME	VARIABLEANDUNITS	1.00000E+002	s	1.00000E+002	second(s)	Max &Discharge Time
DISCHARGEMODE	MULTIPARAM	0	2.80000E-004	&Discharge Mode	Constant Current	Amp(s)
SAMPLETIME	QUANT	1.00000E-002	Sa&mple Period (s)
DISCHARGESTOPAT1	MULTIPARAM	3	0.00000E+000	Discharge Stop At &1	Voltage < Limit	V
DISCHARGESTOPAT2	MULTIPARAM	0	0.00000E+000	Discharge Stop At &2	None	N/A
AESBHCSELECTOR	TOGGLE	F	Save Both Half Cells
IRCOMP	TOGGLE	F	IR &Measure
EOC	QUANT	0	Open Circuit (V)
SEQUENCER	TOGGLE	TRUE	Run as Sequence
PSTATMODEL	IQUANT	53	Pstat Model
PSTATSECTION	LABEL	IFC5000-01520	Pstat Section
PSTATSERIALNO	LABEL	01520	Pstat Serial Number
CTRLMODE	IQUANT	0	Control Mode
ELECTROMETER	IQUANT	1	RE=0 or CS=1
IESTAB	IQUANT	0	I/E Stability
CASPEED	IQUANT	4	Control Amp Speed
CONVENTION	IQUANT	1	Current Convention
ICHRANGE	IQUANT	2	Ich Range
ICHRANGEMODE	TOGGLE	T	Ich Auto Range
ICHOFFSETENABLE	TOGGLE	F	Ich Offset Enable
ICHOFFSET	QUANT	0	Ich Offset (V)
ICHFILTER	IQUANT	1	Ich Filter
VCHRANGE	IQUANT	2	Vch Range
VCHRANGEMODE	TOGGLE	T	Vch Auto Range
VCHOFFSETENABLE	TOGGLE	F	Vch Offset Enable
VCHOFFSET	QUANT	0	Vch Offset (V)
VCHFILTER	IQUANT	1	Vch Filter
IERANGELOWERLIMIT	IQUANT	9	I/E Range Lower Limit
IERANGEMODE	TOGGLE	F	I/E AutoRange
IERANGE	IQUANT	9	I/E Range
ACHSELECT	IQUANT	1	Ach Select
ACHRANGE	IQUANT	2	Ach Range
ACHOFFSETENABLE	TOGGLE	F	Ach Offset Enable
ACHOFFSET	QUANT	0	Ach Offset (V)
ACHFILTER	IQUANT	1	Ach Filter
CABLEID	IQUANT	14	Cable ID
DCCALDATE	LABEL	5-7-2017	DC Calibration Date
ACCALDATE	LABEL	12/3/2015	AC Calibration Date
FRAMEWORKVERSION	QUANT	7.01	Framework Version
INSTRUMENTVERSION	LABEL	4.00	Instrument Version
CURVE	TABLE	100
	Pt	T	Vf	Im	Vu	Pwr	Sig	Ach	Temp	IERange	Over
	#	s	V	A	V	W	V	V	deg C	#	bits
	0	0.013333	5.52676E-001	-2.79555E-004	0.00000E+000	-1.54503E-004	-1.68088E-001	5.52959E-001	3.57790E+000	9	...........
	1	0.026667	5.22740E-001	-2.79764E-004	0.00000E+000	-1.46244E-004	-1.68088E-001	5.23005E-001	3.57790E+000	9	...........
	2	0.04	4.95680E-001	-2.78891E-004	0.00000E+000	-1.38240E-004	-1.68088E-001	4.95948E-001	3.57790E+000	9	...........
	3	0.053333	4.71298E-001	-2.79615E-004	0.00000E+000	-1.31782E-004	-1.68088E-001	4.71415E-001	3.57790E+000	9	...........
	4	0.066667	4.48477E-001	-2.79492E-004	0.00000E+000	-1.25346E-004	-1.68088E-001	4.48589E-001	3.57790E+000	9	...........
	5	0.08	4.27402E-001	-2.79077E-004	0.00000E+000	-1.19278E-004	-1.68088E-001	4.27507E-001	3.57790E+000	9	...........
	6	0.093333	4.07841E-001	-2.79773E-004	0.00000E+000	-1.14103E-004	-1.68088E-001	4.07944E-001	3.57790E+000	9	...........
	7	0.106667	3.89725E-001	-2.79248E-004	0.00000E+000	-1.08830E-004	-1.68088E-001	3.89811E-001	3.57790E+000	9	...........
	8	0.12	3.72885E-001	-2.78934E-004	0.00000E+000	-1.04010E-004	-1.68088E-001	3.72974E-001	3.57790E+000	9	...........
	9	0.133333	3.57235E-001	-2.80087E-004	0.00000E+000	-1.00057E-004	-1.68088E-001	3.57320E-001	3.57790E+000	9	...........
	10	0.146667	3.42708E-001	-2.79072E-004	0.00000E+000	-9.56401E-005	-1.68088E-001	3.42782E-001	3.57790E+000	9	...........
	11	0.16	3.29213E-001	-2.79239E-004	0.00000E+000	-9.19290E-005	-1.68088E-001	3.29290E-001	3.57790E+000	9	...........
	12	0.173333	3.16657E-001	-2.79743E-004	0.00000E+000	-8.85826E-005	-1.68088E-001	3.16726E-001	3.57790E+000	9	...........
	13	0.186667	3.04923E-001	-2.79042E-004	0.00000E+000	-8.50862E-005	-1.68088E-001	3.05000E-001	3.57790E+000	9	...........
	14	0.2	2.93937E-001	-2.79807E-004	0.00000E+000	-8.22457E-005	-1.68088E-001	2.94009E-001	3.57790E+000	9	...........
	15	0.213333	2.83690E-001	-2.79404E-004	0.00000E+000	-7.92642E-005	-1.68088E-001	2.83762E-001	3.57790E+000	9	...........
	16	0.226667	2.74077E-001	-2.79440E-004	0.00000E+000	-7.65879E-005	-1.68088E-001	2.74146E-001	3.57790E+000	9	...........
	17	0.24	2.65052E-001	-2.79553E-004	0.00000E+000	-7.40963E-005	-1.68088E-001	2.65126E-001	3.57790E+000	9	...........
	18	0.253333	2.56570E-001	-2.78410E-004	0.00000E+000	-7.14318E-005	-1.68088E-001	2.56638E-001	3.57790E+000	9	...........
	19	0.266667	2.48578E-001	-2.79009E-004	0.00000E+000	-6.93555E-005	-1.68088E-001	2.48634E-001	3.57790E+000	9	...........
	20	0.28	2.41048E-001	-2.79309E-004	0.00000E+000	-6.73269E-005	-1.68088E-001	2.41100E-001	3.57790E+000	9	...........
	21	0.293333	2.33918E-001	-2.79064E-004	0.00000E+000	-6.52779E-005	-1.68088E-001	2.33972E-001	3.57790E+000	9	...........
	22	0.306667	2.27123E-001	-2.78526E-004	0.00000E+000	-6.32598E-005	-1.68088E-001	2.27175E-001	3.57790E+000	9	...........
	23	0.32	2.20660E-001	-2.79214E-004	0.00000E+000	-6.16112E-005	-1.68088E-001	2.20712E-001	3.57790E+000	9	...........
	24	0.333333	2.14591E-001	-2.78767E-004	0.00000E+000	-5.98208E-005	-1.68088E-001	2.14639E-001	3.57790E+000	9	...........
	25	0.346667	2.08776E-001	-2.79006E-004	0.00000E+000	-5.82497E-005	-1.68088E-001	2.08822E-001	3.57790E+000	9	...........
	26	0.36	2.03210E-001	-2.78725E-004	0.00000E+000	-5.66398E-005	-1.68088E-001	2.03264E-001	3.57790E+000	9	...........
	27	0.373333	1.97873E-001	-2.79116E-004	0.00000E+000	-5.52295E-005	-1.68088E-001	1.97925E-001	3.57790E+000	9	...........
	28	0.386667	1.92763E-001	-2.78285E-004	0.00000E+000	-5.36430E-005	-1.68088E-001	1.92816E-001	3.57790E+000	9	...........
	29	0.4	1.87820E-001	-2.79152E-004	0.00000E+000	-5.24304E-005	-1.68088E-001	1.87868E-001	3.57790E+000	9	...........
	30	0.413333	1.83109E-001	-2.78870E-004	0.00000E+000	-5.10637E-005	-1.68088E-001	1.83157E-001	3.57790E+000	9	...........
	31	0.426667	1.78529E-001	-2.79837E-004	0.00000E+000	-4.99588E-005	-1.68088E-001	1.78578E-001	3.57790E+000	9	...........
	32	0.44	1.74089E-001	-2.78415E-004	0.00000E+000	-4.84692E-005	-1.68088E-001	1.74136E-001	3.57790E+000	9	...........
	33	0.453333	1.69738E-001	-2.79227E-004	0.00000E+000	-4.73954E-005	-1.68088E-001	1.69788E-001	3.57790E+000	9	...........
	34	0.466667	1.65552E-001	-2.78707E-004	0.00000E+000	-4.61405E-005	-1.68088E-001	1.65589E-001	3.57790E+000	9	...........
	35	0.48	1.61507E-001	-2.80001E-004	0.00000E+000	-4.52221E-005	-1.68088E-001	1.61544E-001	3.57790E+000	9	...........
	36	0.493333	1.57604E-001	-2.78240E-004	0.00000E+000	-4.38518E-005	-1.68088E-001	1.57640E-001	3.57790E+000	9	...........
	37	0.506667	1.53780E-001	-2.78867E-004	0.00000E+000	-4.28842E-005	-1.68088E-001	1.53819E-001	3.57790E+000	9	...........
	38	0.52	1.50033E-001	-2.79381E-004	0.00000E+000	-4.19164E-005	-1.68088E-001	1.50069E-001	3.57790E+000	9	...........
	39	0.533333	1.46384E-001	-2.79059E-004	0.00000E+000	-4.08500E-005	-1.68088E-001	1.46412E-001	3.57790E+000	9	...........
	40	0.546667	1.42843E-001	-2.79561E-004	0.00000E+000	-3.99333E-005	-1.68088E-001	1.42870E-001	3.57790E+000	9	...........
	41	0.56	1.39437E-001	-2.78283E-004	0.00000E+000	-3.88029E-005	-1.68088E-001	1.39463E-001	3.57790E+000	9	...........
	42	0.573333	1.36074E-001	-2.79173E-004	0.00000E+000	-3.79881E-005	-1.68088E-001	1.36100E-001	3.57790E+000	9	...........
	43	0.586667	1.32764E-001	-2.78718E-004	0.00000E+000	-3.70038E-005	-1.68088E-001	1.32797E-001	3.57790E+000	9	...........
	44	0.6	1.29491E-001	-2.78383E-004	0.00000E+000	-3.60481E-005	-1.68088E-001	1.29518E-001	3.57790E+000	9	...........
	45	0.613333	1.26262E-001	-2.79117E-004	0.00000E+000	-3.52417E-005	-1.68088E-001	1.26293E-001	3.57790E+000	9	...........
	46	0.626667	1.23100E-001	-2.79505E-004	0.00000E+000	-3.44071E-005	-1.68088E-001	1.23130E-001	3.57790E+000	9	...........
	47	0.64	1.19995E-001	-2.79096E-004	0.00000E+000	-3.34900E-005	-1.68088E-001	1.20032E-001	3.57790E+000	9	...........
	48	0.653333	1.16983E-001	-2.79075E-004	0.00000E+000	-3.26471E-005	-1.68088E-001	1.17012E-001	3.57790E+000	9	...........
	49	0.666667	1.13998E-001	-2.79348E-004	0.00000E+000	-3.18450E-005	-1.68088E-001	1.14030E-001	3.57790E+000	9	...........
	50	0.68	1.11060E-001	-2.79506E-004	0.00000E+000	-3.10419E-005	-1.68088E-001	1.11085E-001	3.57790E+000	9	...........
	51	0.693333	1.08144E-001	-2.79328E-004	0.00000E+000	-3.02077E-005	-1.68088E-001	1.08169E-001	3.57790E+000	9	...........
	52	0.706667	1.05258E-001	-2.78900E-004	0.00000E+000	-2.93566E-005	-1.68088E-001	1.05287E-001	3.57790E+000	9	...........
	53	0.72	1.02404E-001	-2.79418E-004	0.00000E+000	-2.86136E-005	-1.68088E-001	1.02432E-001	3.57790E+000	9	...........
	54	0.733333	9.96098E-002	-2.78239E-004	0.00000E+000	-2.77154E-005	-1.68088E-001	9.96432E-002	3.57790E+000	9	...........
	55	0.746667	9.68635E-002	-2.78842E-004	0.00000E+000	-2.70096E-005	-1.68088E-001	9.68888E-002	3.57790E+000	9	...........
	56	0.76	9.41503E-002	-2.79147E-004	0.00000E+000	-2.62818E-005	-1.68088E-001	9.41687E-002	3.57790E+000	9	...........
	57	0.773333	9.14746E-002	-2.79363E-004	0.00000E+000	-2.55546E-005	-1.68088E-001	9.14924E-002	3.57790E+000	9	...........
	58	0.786667	8.88862E-002	-2.79231E-004	0.00000E+000	-2.48198E-005	-1.68088E-001	8.89077E-002	3.57790E+000	9	...........
	59	0.8	8.63097E-002	-2.78583E-004	0.00000E+000	-2.40444E-005	-1.68088E-001	8.63298E-002	3.57790E+000	9	...........
	60	0.813333	8.37234E-002	-2.78822E-004	0.00000E+000	-2.33439E-005	-1.68088E-001	8.37439E-002	3.57790E+000	9	...........
	61	0.826667	8.11914E-002	-2.78754E-004	0.00000E+000	-2.26324E-005	-1.68088E-001	8.12080E-002	3.57790E+000	9	...........
	62	0.84	7.86927E-002	-2.79899E-004	0.00000E+000	-2.20260E-005	-1.68088E-001	7.87050E-002	3.57790E+000	9	...........
	63	0.853333	7.62498E-002	-2.79855E-004	0.00000E+000	-2.13389E-005	-1.68088E-001	7.62636E-002	3.57790E+000	9	...........
	64	0.866667	7.38365E-002	-2.78880E-004	0.00000E+000	-2.05915E-005	-1.68088E-001	7.38533E-002	3.57790E+000	9	...........
	65	0.88	7.13993E-002	-2.79402E-004	0.00000E+000	-1.99491E-005	-1.68088E-001	7.14159E-002	3.57790E+000	9	...........
	66	0.893333	6.90125E-002	-2.79118E-004	0.00000E+000	-1.92626E-005	-1.68088E-001	6.90268E-002	3.57790E+000	9	...........
	67	0.906667	6.66406E-002	-2.79168E-004	0.00000E+000	-1.86039E-005	-1.68088E-001	6.66649E-002	3.57790E+000	9	...........
	68	0.92	6.42843E-002	-2.78601E-004	0.00000E+000	-1.79097E-005	-1.68088E-001	6.43026E-002	3.57790E+000	9	...........
	69	0.933333	6.19570E-002	-2.78871E-004	0.00000E+000	-1.72780E-005	-1.68088E-001	6.19736E-002	3.57790E+000	9	...........
	70	0.946667	5.96086E-002	-2.79547E-004	0.00000E+000	-1.66634E-005	-1.68088E-001	5.96259E-002	3.57790E+000	9	...........
	71	0.96	5.72735E-002	-2.79007E-004	0.00000E+000	-1.59797E-005	-1.68088E-001	5.72896E-002	3.57790E+000	9	...........
	72	0.97333	5.50051E-002	-2.79482E-004	0.00000E+000	-1.53730E-005	-1.68088E-001	5.50222E-002	3.57790E+000	9	...........
	73	0.98667	5.28147E-002	-2.79779E-004	0.00000E+000	-1.47765E-005	-1.68088E-001	5.28287E-002	3.57790E+000	9	...........
	74	1	5.06067E-002	-2.79631E-004	0.00000E+000	-1.41512E-005	-1.68088E-001	5.06156E-002	3.57790E+000	9	...........
	75	1.01333	4.83953E-002	-2.78983E-004	0.00000E+000	-1.35015E-005	-1.68088E-001	4.84040E-002	3.57790E+000	9	...........
	76	1.02667	4.62079E-002	-2.78978E-004	0.00000E+000	-1.28910E-005	-1.68088E-001	4.62230E-002	3.57790E+000	9	...........
	77	1.04	4.40291E-002	-2.78220E-004	0.00000E+000	-1.22498E-005	-1.68088E-001	4.40428E-002	3.57790E+000	9	...........
	78	1.05333	4.18235E-002	-2.78995E-004	0.00000E+000	-1.16685E-005	-1.68088E-001	4.18329E-002	3.57790E+000	9	...........
	79	1.06667	3.96801E-002	-2.79295E-004	0.00000E+000	-1.10825E-005	-1.68088E-001	3.96847E-002	3.57790E+000	9	...........
	80	1.08	3.75405E-002	-2.79283E-004	0.00000E+000	-1.04844E-005	-1.68088E-001	3.75438E-002	3.57790E+000	9	...........
	81	1.09333	3.54046E-002	-2.78356E-004	0.00000E+000	-9.85509E-006	-1.68088E-001	3.54106E-002	3.57790E+000	9	...........
	82	1.10667	3.33294E-002	-2.78906E-004	0.00000E+000	-9.29578E-006	-1.68088E-001	3.33332E-002	3.57790E+000	9	...........
	83	1.12	3.12714E-002	-2.79211E-004	0.00000E+000	-8.73134E-006	-1.68088E-001	3.12734E-002	3.57790E+000	9	...........
	84	1.13333	2.92311E-002	-2.78950E-004	0.00000E+000	-8.15401E-006	-1.68088E-001	2.92307E-002	3.57790E+000	9	...........
	85	1.14667	2.71833E-002	-2.78831E-004	0.00000E+000	-7.57956E-006	-1.68088E-001	2.71841E-002	3.57790E+000	9	...........
	86	1.16	2.51129E-002	-2.78887E-004	0.00000E+000	-7.00368E-006	-1.68088E-001	2.51145E-002	3.57790E+000	9	...........
	87	1.17333	2.29827E-002	-2.79014E-004	0.00000E+000	-6.41250E-006	-1.68088E-001	2.29796E-002	3.57790E+000	9	...........
	88	1.18667	2.09270E-002	-2.79369E-004	0.00000E+000	-5.84635E-006	-1.68088E-001	2.09213E-002	3.57790E+000	9	...........
	89	1.2	1.89067E-002	-2.79536E-004	0.00000E+000	-5.28511E-006	-1.68088E-001	1.89013E-002	3.57790E+000	9	...........
	90	1.21333	1.69085E-002	-2.79196E-004	0.00000E+000	-4.72077E-006	-1.68088E-001	1.69017E-002	3.57790E+000	9	...........
	91	1.22667	1.49605E-002	-2.79159E-004	0.00000E+000	-4.17635E-006	-1.68088E-001	1.49530E-002	3.57790E+000	9	...........
	92	1.24	1.30072E-002	-2.78733E-004	0.00000E+000	-3.62553E-006	-1.68088E-001	1.29951E-002	3.57790E+000	9	...........
	93	1.25333	1.10593E-002	-2.79775E-004	0.00000E+000	-3.09411E-006	-1.68088E-001	1.10465E-002	3.57790E+000	9	...........
	94	1.26667	9.12885E-003	-2.79196E-004	0.00000E+000	-2.54874E-006	-1.68088E-001	9.11345E-003	3.57790E+000	9	...........
	95	1.28	7.22101E-003	-2.79284E-004	0.00000E+000	-2.01672E-006	-1.68088E-001	7.20544E-003	3.57790E+000	9	...........
	96	1.29333	5.28426E-003	-2.79515E-004	0.00000E+000	-1.47703E-006	-1.68088E-001	5.26836E-003	3.57790E+000	9	...........
	97	1.30667	3.36494E-003	-2.78757E-004	0.00000E+000	-9.38000E-007	-1.68088E-001	3.34748E-003	3.57790E+000	9	...........
	98	1.32	1.51870E-003	-2.78959E-004	0.00000E+000	-4.23656E-007	-1.68088E-001	1.50035E-003	3.57790E+000	9	...........
	99	1.325	2.38095E-004	-2.78184E-004	0.00000E+000	-6.62341E-008	-1.68088E-001	2.22116E-004	3.57790E+000	9	...........
STARTTIMEOFFSET	QUANT	542.1901	Start Time Offset (s)
