EXPLAIN
TAG	PWR800_DISCHARGE
TITLE	LABEL	PWR Cyclic Charge Discharge (Cell) - Discharge Step	Test &Identifier
DATE	LABEL	7-7-2017	Date
TIME	LABEL	16:23:45	Time
NOTES	NOTES	3	&Notes...
	supercap test cell
	2.8mg
	6M KOH
PSTAT	PSTAT	IFC5000-01520	Potentiostat
CAPACITY	QUANT	1.00000E-003	Capacity (A-hr)
CELLTYPE	SELECTOR	1	&Cell Type
WORKINGCONNECTION	SELECTOR	0	&Working Lead
MAXDISCHARGETIME	VARIABLEANDUNITS	1.00000E+002	s	1.00000E+002	second(s)	Max &Discharge Time
DISCHARGEMODE	MULTIPARAM	0	2.80000E-004	&Discharge Mode	Constant Current	Amp(s)
SAMPLETIME	QUANT	1.00000E-002	Sa&mple Period (s)
DISCHARGESTOPAT1	MULTIPARAM	3	0.00000E+000	Discharge Stop At &1	Voltage < Limit	V
DISCHARGESTOPAT2	MULTIPARAM	0	0.00000E+000	Discharge Stop At &2	None	N/A
AESBHCSELECTOR	TOGGLE	F	Save Both Half Cells
IRCOMP	TOGGLE	F	IR &Measure
EOC	QUANT	0	Open Circuit (V)
SEQUENCER	TOGGLE	TRUE	Run as Sequence
PSTATMODEL	IQUANT	53	Pstat Model
PSTATSECTION	LABEL	IFC5000-01520	Pstat Section
PSTATSERIALNO	LABEL	01520	Pstat Serial Number
CTRLMODE	IQUANT	0	Control Mode
ELECTROMETER	IQUANT	1	RE=0 or CS=1
IESTAB	IQUANT	0	I/E Stability
CASPEED	IQUANT	4	Control Amp Speed
CONVENTION	IQUANT	1	Current Convention
ICHRANGE	IQUANT	2	Ich Range
ICHRANGEMODE	TOGGLE	T	Ich Auto Range
ICHOFFSETENABLE	TOGGLE	F	Ich Offset Enable
ICHOFFSET	QUANT	0	Ich Offset (V)
ICHFILTER	IQUANT	1	Ich Filter
VCHRANGE	IQUANT	2	Vch Range
VCHRANGEMODE	TOGGLE	T	Vch Auto Range
VCHOFFSETENABLE	TOGGLE	F	Vch Offset Enable
VCHOFFSET	QUANT	0	Vch Offset (V)
VCHFILTER	IQUANT	1	Vch Filter
IERANGELOWERLIMIT	IQUANT	9	I/E Range Lower Limit
IERANGEMODE	TOGGLE	F	I/E AutoRange
IERANGE	IQUANT	9	I/E Range
ACHSELECT	IQUANT	1	Ach Select
ACHRANGE	IQUANT	2	Ach Range
ACHOFFSETENABLE	TOGGLE	F	Ach Offset Enable
ACHOFFSET	QUANT	0	Ach Offset (V)
ACHFILTER	IQUANT	1	Ach Filter
CABLEID	IQUANT	14	Cable ID
DCCALDATE	LABEL	5-7-2017	DC Calibration Date
ACCALDATE	LABEL	12/3/2015	AC Calibration Date
FRAMEWORKVERSION	QUANT	7.01	Framework Version
INSTRUMENTVERSION	LABEL	4.00	Instrument Version
CURVE	TABLE	52
	Pt	T	Vf	Im	Vu	Pwr	Sig	Ach	Temp	IERange	Over
	#	s	V	A	V	W	V	V	deg C	#	bits
	0	0.013333	5.11949E-001	-2.78633E-004	0.00000E+000	-1.42646E-004	-1.68088E-001	5.12203E-001	3.57770E+000	9	...........
	1	0.026667	4.78133E-001	-2.79044E-004	0.00000E+000	-1.33420E-004	-1.68088E-001	4.78290E-001	3.57770E+000	9	...........
	2	0.04	4.46998E-001	-2.77775E-004	0.00000E+000	-1.24165E-004	-1.68088E-001	4.47099E-001	3.57755E+000	9	...........
	3	0.053333	4.17943E-001	-2.78536E-004	0.00000E+000	-1.16412E-004	-1.68088E-001	4.18033E-001	3.57740E+000	9	...........
	4	0.066667	3.90802E-001	-2.78651E-004	0.00000E+000	-1.08897E-004	-1.68088E-001	3.90886E-001	3.57740E+000	9	...........
	5	0.08	3.65433E-001	-2.78979E-004	0.00000E+000	-1.01948E-004	-1.68088E-001	3.65511E-001	3.57740E+000	9	...........
	6	0.093333	3.41753E-001	-2.79174E-004	0.00000E+000	-9.54087E-005	-1.68088E-001	3.41822E-001	3.57740E+000	9	...........
	7	0.106667	3.19629E-001	-2.78787E-004	0.00000E+000	-8.91084E-005	-1.68088E-001	3.19702E-001	3.57740E+000	9	...........
	8	0.12	2.99009E-001	-2.79673E-004	0.00000E+000	-8.36247E-005	-1.68088E-001	2.99075E-001	3.57740E+000	9	...........
	9	0.133333	2.79839E-001	-2.76613E-004	0.00000E+000	-7.74071E-005	-1.68088E-001	2.79898E-001	3.57740E+000	9	...........
	10	0.146667	2.62028E-001	-2.78550E-004	0.00000E+000	-7.29877E-005	-1.68088E-001	2.62084E-001	3.57740E+000	9	...........
	11	0.16	2.45496E-001	-2.78294E-004	0.00000E+000	-6.83199E-005	-1.68088E-001	2.45546E-001	3.57740E+000	9	...........
	12	0.173333	2.30175E-001	-2.78555E-004	0.00000E+000	-6.41165E-005	-1.68088E-001	2.30222E-001	3.57740E+000	9	...........
	13	0.186667	2.15969E-001	-2.79623E-004	0.00000E+000	-6.03898E-005	-1.68088E-001	2.16010E-001	3.57740E+000	9	...........
	14	0.2	2.02775E-001	-2.78188E-004	0.00000E+000	-5.64096E-005	-1.68088E-001	2.02812E-001	3.57740E+000	9	...........
	15	0.213333	1.90494E-001	-2.78819E-004	0.00000E+000	-5.31133E-005	-1.68088E-001	1.90527E-001	3.57740E+000	9	...........
	16	0.226667	1.79078E-001	-2.78129E-004	0.00000E+000	-4.98067E-005	-1.68088E-001	1.79106E-001	3.57740E+000	9	...........
	17	0.24	1.68419E-001	-2.78890E-004	0.00000E+000	-4.69702E-005	-1.68088E-001	1.68449E-001	3.57740E+000	9	...........
	18	0.253333	1.58497E-001	-2.77994E-004	0.00000E+000	-4.40611E-005	-1.68088E-001	1.58525E-001	3.57740E+000	9	...........
	19	0.266667	1.49213E-001	-2.78474E-004	0.00000E+000	-4.15519E-005	-1.68088E-001	1.49241E-001	3.57740E+000	9	...........
	20	0.28	1.40520E-001	-2.79266E-004	0.00000E+000	-3.92424E-005	-1.68088E-001	1.40553E-001	3.57740E+000	9	...........
	21	0.293333	1.32368E-001	-2.78936E-004	0.00000E+000	-3.69223E-005	-1.68088E-001	1.32402E-001	3.57740E+000	9	...........
	22	0.306667	1.24732E-001	-2.79392E-004	0.00000E+000	-3.48492E-005	-1.68088E-001	1.24763E-001	3.57740E+000	9	...........
	23	0.32	1.17524E-001	-2.79768E-004	0.00000E+000	-3.28793E-005	-1.68088E-001	1.17556E-001	3.57740E+000	9	...........
	24	0.333333	1.10705E-001	-2.79649E-004	0.00000E+000	-3.09584E-005	-1.68088E-001	1.10726E-001	3.57740E+000	9	...........
	25	0.346667	1.04270E-001	-2.79204E-004	0.00000E+000	-2.91127E-005	-1.68088E-001	1.04290E-001	3.57740E+000	9	...........
	26	0.36	9.81253E-002	-2.78116E-004	0.00000E+000	-2.72903E-005	-1.68088E-001	9.81488E-002	3.57740E+000	9	...........
	27	0.373333	9.22940E-002	-2.79755E-004	0.00000E+000	-2.58197E-005	-1.68088E-001	9.23135E-002	3.57740E+000	9	...........
	28	0.386667	8.67110E-002	-2.79335E-004	0.00000E+000	-2.42215E-005	-1.68088E-001	8.67318E-002	3.57740E+000	9	...........
	29	0.4	8.14347E-002	-2.78102E-004	0.00000E+000	-2.26471E-005	-1.68088E-001	8.14501E-002	3.57740E+000	9	...........
	30	0.413333	7.63537E-002	-2.77430E-004	0.00000E+000	-2.11828E-005	-1.68088E-001	7.63613E-002	3.57740E+000	9	...........
	31	0.426667	7.14602E-002	-2.80253E-004	0.00000E+000	-2.00270E-005	-1.68088E-001	7.14681E-002	3.57740E+000	9	...........
	32	0.44	6.68087E-002	-2.79246E-004	0.00000E+000	-1.86561E-005	-1.68088E-001	6.68142E-002	3.57740E+000	9	...........
	33	0.453333	6.22878E-002	-2.79299E-004	0.00000E+000	-1.73969E-005	-1.68088E-001	6.22966E-002	3.57740E+000	9	...........
	34	0.466667	5.79070E-002	-2.79839E-004	0.00000E+000	-1.62046E-005	-1.68088E-001	5.79106E-002	3.57740E+000	9	...........
	35	0.48	5.36775E-002	-2.79048E-004	0.00000E+000	-1.49786E-005	-1.68088E-001	5.36830E-002	3.57740E+000	9	...........
	36	0.493333	4.95838E-002	-2.79443E-004	0.00000E+000	-1.38558E-005	-1.68088E-001	4.95873E-002	3.57740E+000	9	...........
	37	0.506667	4.56506E-002	-2.78118E-004	0.00000E+000	-1.26962E-005	-1.68088E-001	4.56564E-002	3.57740E+000	9	...........
	38	0.52	4.17821E-002	-2.78820E-004	0.00000E+000	-1.16497E-005	-1.68088E-001	4.17860E-002	3.57740E+000	9	...........
	39	0.533333	3.79634E-002	-2.79362E-004	0.00000E+000	-1.06055E-005	-1.68088E-001	3.79671E-002	3.57740E+000	9	...........
	40	0.546667	3.42616E-002	-2.79304E-004	0.00000E+000	-9.56941E-006	-1.68088E-001	3.42626E-002	3.57740E+000	9	...........
	41	0.56	3.07112E-002	-2.79412E-004	0.00000E+000	-8.58106E-006	-1.68088E-001	3.07106E-002	3.57740E+000	9	...........
	42	0.573333	2.72971E-002	-2.78571E-004	0.00000E+000	-7.60416E-006	-1.68088E-001	2.72913E-002	3.57740E+000	9	...........
	43	0.586667	2.39587E-002	-2.79509E-004	0.00000E+000	-6.69667E-006	-1.68088E-001	2.39508E-002	3.57740E+000	9	...........
	44	0.6	2.06861E-002	-2.78775E-004	0.00000E+000	-5.76675E-006	-1.68088E-001	2.06785E-002	3.57740E+000	9	...........
	45	0.613333	1.74571E-002	-2.79534E-004	0.00000E+000	-4.87985E-006	-1.68088E-001	1.74476E-002	3.57740E+000	9	...........
	46	0.626667	1.42987E-002	-2.80151E-004	0.00000E+000	-4.00581E-006	-1.68088E-001	1.42868E-002	3.57740E+000	9	...........
	47	0.64	1.11931E-002	-2.80085E-004	0.00000E+000	-3.13502E-006	-1.68088E-001	1.11822E-002	3.57740E+000	9	...........
	48	0.653333	8.13546E-003	-2.79628E-004	0.00000E+000	-2.27490E-006	-1.68088E-001	8.11849E-003	3.57740E+000	9	...........
	49	0.666667	5.16175E-003	-2.79446E-004	0.00000E+000	-1.44243E-006	-1.68088E-001	5.14348E-003	3.57740E+000	9	...........
	50	0.68	2.22403E-003	-2.78622E-004	0.00000E+000	-6.19663E-007	-1.68088E-001	2.20536E-003	3.57740E+000	9	...........
	51	0.685	2.40464E-004	-2.78853E-004	0.00000E+000	-6.70542E-008	-1.68088E-001	2.18212E-004	3.57740E+000	9	...........
STARTTIMEOFFSET	QUANT	2067.22	Start Time Offset (s)
