EXPLAIN
TAG	PWR800_DISCHARGE
TITLE	LABEL	PWR Cyclic Charge Discharge (Cell) - Discharge Step	Test &Identifier
DATE	LABEL	7-7-2017	Date
TIME	LABEL	15:58:50	Time
NOTES	NOTES	3	&Notes...
	supercap test cell
	2.8mg
	6M KOH
PSTAT	PSTAT	IFC5000-01520	Potentiostat
CAPACITY	QUANT	1.00000E-003	Capacity (A-hr)
CELLTYPE	SELECTOR	1	&Cell Type
WORKINGCONNECTION	SELECTOR	0	&Working Lead
MAXDISCHARGETIME	VARIABLEANDUNITS	1.00000E+002	s	1.00000E+002	second(s)	Max &Discharge Time
DISCHARGEMODE	MULTIPARAM	0	2.80000E-004	&Discharge Mode	Constant Current	Amp(s)
SAMPLETIME	QUANT	1.00000E-002	Sa&mple Period (s)
DISCHARGESTOPAT1	MULTIPARAM	3	0.00000E+000	Discharge Stop At &1	Voltage < Limit	V
DISCHARGESTOPAT2	MULTIPARAM	0	0.00000E+000	Discharge Stop At &2	None	N/A
AESBHCSELECTOR	TOGGLE	F	Save Both Half Cells
IRCOMP	TOGGLE	F	IR &Measure
EOC	QUANT	0	Open Circuit (V)
SEQUENCER	TOGGLE	TRUE	Run as Sequence
PSTATMODEL	IQUANT	53	Pstat Model
PSTATSECTION	LABEL	IFC5000-01520	Pstat Section
PSTATSERIALNO	LABEL	01520	Pstat Serial Number
CTRLMODE	IQUANT	0	Control Mode
ELECTROMETER	IQUANT	1	RE=0 or CS=1
IESTAB	IQUANT	0	I/E Stability
CASPEED	IQUANT	4	Control Amp Speed
CONVENTION	IQUANT	1	Current Convention
ICHRANGE	IQUANT	2	Ich Range
ICHRANGEMODE	TOGGLE	T	Ich Auto Range
ICHOFFSETENABLE	TOGGLE	F	Ich Offset Enable
ICHOFFSET	QUANT	0	Ich Offset (V)
ICHFILTER	IQUANT	1	Ich Filter
VCHRANGE	IQUANT	2	Vch Range
VCHRANGEMODE	TOGGLE	T	Vch Auto Range
VCHOFFSETENABLE	TOGGLE	F	Vch Offset Enable
VCHOFFSET	QUANT	0	Vch Offset (V)
VCHFILTER	IQUANT	1	Vch Filter
IERANGELOWERLIMIT	IQUANT	9	I/E Range Lower Limit
IERANGEMODE	TOGGLE	F	I/E AutoRange
IERANGE	IQUANT	9	I/E Range
ACHSELECT	IQUANT	1	Ach Select
ACHRANGE	IQUANT	2	Ach Range
ACHOFFSETENABLE	TOGGLE	F	Ach Offset Enable
ACHOFFSET	QUANT	0	Ach Offset (V)
ACHFILTER	IQUANT	1	Ach Filter
CABLEID	IQUANT	14	Cable ID
DCCALDATE	LABEL	5-7-2017	DC Calibration Date
ACCALDATE	LABEL	12/3/2015	AC Calibration Date
FRAMEWORKVERSION	QUANT	7.01	Framework Version
INSTRUMENTVERSION	LABEL	4.00	Instrument Version
CURVE	TABLE	73
	Pt	T	Vf	Im	Vu	Pwr	Sig	Ach	Temp	IERange	Over
	#	s	V	A	V	W	V	V	deg C	#	bits
	0	0.013333	5.31695E-001	-2.78446E-004	0.00000E+000	-1.48048E-004	-1.68088E-001	5.31966E-001	3.57900E+000	9	...........
	1	0.026667	4.99615E-001	-2.80162E-004	0.00000E+000	-1.39973E-004	-1.68088E-001	4.99896E-001	3.57900E+000	9	...........
	2	0.04	4.70663E-001	-2.78745E-004	0.00000E+000	-1.31195E-004	-1.68088E-001	4.70803E-001	3.57900E+000	9	...........
	3	0.053333	4.43673E-001	-2.78790E-004	0.00000E+000	-1.23692E-004	-1.68088E-001	4.43785E-001	3.57900E+000	9	...........
	4	0.066667	4.18583E-001	-2.77947E-004	0.00000E+000	-1.16344E-004	-1.68088E-001	4.18685E-001	3.57900E+000	9	...........
	5	0.08	3.95221E-001	-2.79824E-004	0.00000E+000	-1.10592E-004	-1.68088E-001	3.95320E-001	3.57900E+000	9	...........
	6	0.093333	3.73485E-001	-2.79322E-004	0.00000E+000	-1.04322E-004	-1.68088E-001	3.73576E-001	3.57900E+000	9	...........
	7	0.106667	3.53307E-001	-2.78546E-004	0.00000E+000	-9.84122E-005	-1.68088E-001	3.53392E-001	3.57900E+000	9	...........
	8	0.12	3.34508E-001	-2.78662E-004	0.00000E+000	-9.32147E-005	-1.68088E-001	3.34590E-001	3.57900E+000	9	...........
	9	0.133333	3.17038E-001	-2.78619E-004	0.00000E+000	-8.83326E-005	-1.68088E-001	3.17118E-001	3.57900E+000	9	...........
	10	0.146667	3.00839E-001	-2.77746E-004	0.00000E+000	-8.35567E-005	-1.68088E-001	3.00912E-001	3.57900E+000	9	...........
	11	0.16	2.85780E-001	-2.78596E-004	0.00000E+000	-7.96170E-005	-1.68088E-001	2.85848E-001	3.57900E+000	9	...........
	12	0.173333	2.71800E-001	-2.78015E-004	0.00000E+000	-7.55647E-005	-1.68088E-001	2.71871E-001	3.57900E+000	9	...........
	13	0.186667	2.58811E-001	-2.78476E-004	0.00000E+000	-7.20726E-005	-1.68088E-001	2.58873E-001	3.57900E+000	9	...........
	14	0.2	2.46713E-001	-2.79084E-004	0.00000E+000	-6.88537E-005	-1.68088E-001	2.46776E-001	3.57760E+000	9	...........
	15	0.213333	2.35431E-001	-2.79268E-004	0.00000E+000	-6.57483E-005	-1.68088E-001	2.35487E-001	3.57760E+000	9	...........
	16	0.226667	2.24903E-001	-2.78783E-004	0.00000E+000	-6.26992E-005	-1.68088E-001	2.24956E-001	3.57760E+000	9	...........
	17	0.24	2.15051E-001	-2.79302E-004	0.00000E+000	-6.00641E-005	-1.68088E-001	2.15100E-001	3.57760E+000	9	...........
	18	0.253333	2.05833E-001	-2.79253E-004	0.00000E+000	-5.74795E-005	-1.68088E-001	2.05877E-001	3.57760E+000	9	...........
	19	0.266667	1.97233E-001	-2.79286E-004	0.00000E+000	-5.50845E-005	-1.68088E-001	1.97277E-001	3.57760E+000	9	...........
	20	0.28	1.89120E-001	-2.79628E-004	0.00000E+000	-5.28833E-005	-1.68088E-001	1.89169E-001	3.57760E+000	9	...........
	21	0.293333	1.81496E-001	-2.78043E-004	0.00000E+000	-5.04637E-005	-1.68088E-001	1.81543E-001	3.57760E+000	9	...........
	22	0.306667	1.74271E-001	-2.79937E-004	0.00000E+000	-4.87849E-005	-1.68088E-001	1.74318E-001	3.57760E+000	9	...........
	23	0.32	1.67462E-001	-2.78462E-004	0.00000E+000	-4.66319E-005	-1.68088E-001	1.67501E-001	3.57760E+000	9	...........
	24	0.333333	1.61015E-001	-2.79425E-004	0.00000E+000	-4.49917E-005	-1.68088E-001	1.61050E-001	3.57760E+000	9	...........
	25	0.346667	1.54908E-001	-2.78624E-004	0.00000E+000	-4.31610E-005	-1.68088E-001	1.54938E-001	3.57760E+000	9	...........
	26	0.36	1.49054E-001	-2.78942E-004	0.00000E+000	-4.15772E-005	-1.68088E-001	1.49094E-001	3.57760E+000	9	...........
	27	0.373333	1.43427E-001	-2.79218E-004	0.00000E+000	-4.00474E-005	-1.68088E-001	1.43463E-001	3.57760E+000	9	...........
	28	0.386667	1.38033E-001	-2.80014E-004	0.00000E+000	-3.86512E-005	-1.68088E-001	1.38074E-001	3.57760E+000	9	...........
	29	0.4	1.32892E-001	-2.78827E-004	0.00000E+000	-3.70538E-005	-1.68088E-001	1.32925E-001	3.57760E+000	9	...........
	30	0.413333	1.27932E-001	-2.79573E-004	0.00000E+000	-3.57664E-005	-1.68088E-001	1.27967E-001	3.57760E+000	9	...........
	31	0.426667	1.23221E-001	-2.78784E-004	0.00000E+000	-3.43522E-005	-1.68088E-001	1.23256E-001	3.57760E+000	9	...........
	32	0.44	1.18685E-001	-2.79003E-004	0.00000E+000	-3.31134E-005	-1.68088E-001	1.18720E-001	3.57760E+000	9	...........
	33	0.453333	1.14284E-001	-2.79443E-004	0.00000E+000	-3.19358E-005	-1.68088E-001	1.14317E-001	3.57760E+000	9	...........
	34	0.466667	1.09995E-001	-2.78260E-004	0.00000E+000	-3.06072E-005	-1.68088E-001	1.10023E-001	3.57760E+000	9	...........
	35	0.48	1.05813E-001	-2.79144E-004	0.00000E+000	-2.95371E-005	-1.68088E-001	1.05846E-001	3.57760E+000	9	...........
	36	0.493333	1.01778E-001	-2.78907E-004	0.00000E+000	-2.83865E-005	-1.68088E-001	1.01804E-001	3.57760E+000	9	...........
	37	0.506667	9.78316E-002	-2.79537E-004	0.00000E+000	-2.73475E-005	-1.68088E-001	9.78643E-002	3.57760E+000	9	...........
	38	0.52	9.40407E-002	-2.78722E-004	0.00000E+000	-2.62112E-005	-1.68088E-001	9.40735E-002	3.57760E+000	9	...........
	39	0.533333	9.03497E-002	-2.78810E-004	0.00000E+000	-2.51904E-005	-1.68088E-001	9.03795E-002	3.57760E+000	9	...........
	40	0.546667	8.67308E-002	-2.78435E-004	0.00000E+000	-2.41489E-005	-1.68088E-001	8.67598E-002	3.57760E+000	9	...........
	41	0.56	8.32140E-002	-2.78576E-004	0.00000E+000	-2.31814E-005	-1.68088E-001	8.32373E-002	3.57760E+000	9	...........
	42	0.573333	7.97738E-002	-2.77976E-004	0.00000E+000	-2.21752E-005	-1.68088E-001	7.97921E-002	3.57760E+000	9	...........
	43	0.586667	7.63944E-002	-2.79058E-004	0.00000E+000	-2.13185E-005	-1.68088E-001	7.64097E-002	3.57760E+000	9	...........
	44	0.6	7.30702E-002	-2.78758E-004	0.00000E+000	-2.03689E-005	-1.68088E-001	7.30873E-002	3.57760E+000	9	...........
	45	0.613333	6.98172E-002	-2.78617E-004	0.00000E+000	-1.94522E-005	-1.68088E-001	6.98350E-002	3.57760E+000	9	...........
	46	0.626667	6.66835E-002	-2.78876E-004	0.00000E+000	-1.85964E-005	-1.68088E-001	6.67003E-002	3.57760E+000	9	...........
	47	0.64	6.35825E-002	-2.79096E-004	0.00000E+000	-1.77456E-005	-1.68088E-001	6.35959E-002	3.57760E+000	9	...........
	48	0.653333	6.05042E-002	-2.78180E-004	0.00000E+000	-1.68311E-005	-1.68088E-001	6.05162E-002	3.57760E+000	9	...........
	49	0.666667	5.75045E-002	-2.79012E-004	0.00000E+000	-1.60445E-005	-1.68088E-001	5.75190E-002	3.57760E+000	9	...........
	50	0.68	5.45739E-002	-2.79427E-004	0.00000E+000	-1.52494E-005	-1.68088E-001	5.45838E-002	3.57760E+000	9	...........
	51	0.693333	5.17099E-002	-2.78298E-004	0.00000E+000	-1.43908E-005	-1.68088E-001	5.17209E-002	3.57760E+000	9	...........
	52	0.706667	4.88520E-002	-2.78498E-004	0.00000E+000	-1.36052E-005	-1.68088E-001	4.88622E-002	3.57760E+000	9	...........
	53	0.72	4.60560E-002	-2.79324E-004	0.00000E+000	-1.28646E-005	-1.68088E-001	4.60704E-002	3.57760E+000	9	...........
	54	0.733333	4.32682E-002	-2.79105E-004	0.00000E+000	-1.20764E-005	-1.68088E-001	4.32785E-002	3.57760E+000	9	...........
	55	0.746667	4.05174E-002	-2.78953E-004	0.00000E+000	-1.13024E-005	-1.68088E-001	4.05274E-002	3.57760E+000	9	...........
	56	0.76	3.78136E-002	-2.78405E-004	0.00000E+000	-1.05275E-005	-1.68088E-001	3.78167E-002	3.57760E+000	9	...........
	57	0.773333	3.51028E-002	-2.79473E-004	0.00000E+000	-9.81028E-006	-1.68088E-001	3.51034E-002	3.57760E+000	9	...........
	58	0.786667	3.24161E-002	-2.79152E-004	0.00000E+000	-9.04902E-006	-1.68088E-001	3.24167E-002	3.57760E+000	9	...........
	59	0.8	2.98088E-002	-2.78458E-004	0.00000E+000	-8.30049E-006	-1.68088E-001	2.98156E-002	3.57760E+000	9	...........
	60	0.813333	2.72871E-002	-2.78535E-004	0.00000E+000	-7.60042E-006	-1.68088E-001	2.72886E-002	3.57760E+000	9	...........
	61	0.826667	2.47947E-002	-2.79626E-004	0.00000E+000	-6.93326E-006	-1.68088E-001	2.47941E-002	3.57760E+000	9	...........
	62	0.84	2.23046E-002	-2.78225E-004	0.00000E+000	-6.20569E-006	-1.68088E-001	2.23030E-002	3.57760E+000	9	...........
	63	0.853333	1.98315E-002	-2.79315E-004	0.00000E+000	-5.53923E-006	-1.68088E-001	1.98258E-002	3.57760E+000	9	...........
	64	0.866667	1.74032E-002	-2.78276E-004	0.00000E+000	-4.84289E-006	-1.68088E-001	1.73951E-002	3.57760E+000	9	...........
	65	0.88	1.49847E-002	-2.78860E-004	0.00000E+000	-4.17865E-006	-1.68088E-001	1.49761E-002	3.57760E+000	9	...........
	66	0.893333	1.25809E-002	-2.77866E-004	0.00000E+000	-3.49581E-006	-1.68088E-001	1.25713E-002	3.57760E+000	9	...........
	67	0.906667	1.02170E-002	-2.78916E-004	0.00000E+000	-2.84967E-006	-1.68088E-001	1.02076E-002	3.57760E+000	9	...........
	68	0.92	7.87074E-003	-2.78632E-004	0.00000E+000	-2.19304E-006	-1.68088E-001	7.85418E-003	3.57760E+000	9	...........
	69	0.933333	5.54340E-003	-2.78141E-004	0.00000E+000	-1.54185E-006	-1.68088E-001	5.52713E-003	3.57760E+000	9	...........
	70	0.946667	3.21598E-003	-2.79708E-004	0.00000E+000	-8.99538E-007	-1.68088E-001	3.20172E-003	3.57760E+000	9	...........
	71	0.96	9.72049E-004	-2.78266E-004	0.00000E+000	-2.70489E-007	-1.68088E-001	9.58244E-004	3.57760E+000	9	...........
	72	0.96167	-2.95360E-004	-2.78990E-004	0.00000E+000	8.24024E-008	-1.68088E-001	-3.09934E-004	3.57760E+000	9	...........
STARTTIMEOFFSET	QUANT	1059.631	Start Time Offset (s)
