EXPLAIN
TAG	PWR800_DISCHARGE
TITLE	LABEL	PWR Cyclic Charge Discharge (Cell) - Discharge Step	Test &Identifier
DATE	LABEL	7-7-2017	Date
TIME	LABEL	15:58:27	Time
NOTES	NOTES	3	&Notes...
	supercap test cell
	2.8mg
	6M KOH
PSTAT	PSTAT	IFC5000-01520	Potentiostat
CAPACITY	QUANT	1.00000E-003	Capacity (A-hr)
CELLTYPE	SELECTOR	1	&Cell Type
WORKINGCONNECTION	SELECTOR	0	&Working Lead
MAXDISCHARGETIME	VARIABLEANDUNITS	1.00000E+002	s	1.00000E+002	second(s)	Max &Discharge Time
DISCHARGEMODE	MULTIPARAM	0	2.80000E-004	&Discharge Mode	Constant Current	Amp(s)
SAMPLETIME	QUANT	1.00000E-002	Sa&mple Period (s)
DISCHARGESTOPAT1	MULTIPARAM	3	0.00000E+000	Discharge Stop At &1	Voltage < Limit	V
DISCHARGESTOPAT2	MULTIPARAM	0	0.00000E+000	Discharge Stop At &2	None	N/A
AESBHCSELECTOR	TOGGLE	F	Save Both Half Cells
IRCOMP	TOGGLE	F	IR &Measure
EOC	QUANT	0	Open Circuit (V)
SEQUENCER	TOGGLE	TRUE	Run as Sequence
PSTATMODEL	IQUANT	53	Pstat Model
PSTATSECTION	LABEL	IFC5000-01520	Pstat Section
PSTATSERIALNO	LABEL	01520	Pstat Serial Number
CTRLMODE	IQUANT	0	Control Mode
ELECTROMETER	IQUANT	1	RE=0 or CS=1
IESTAB	IQUANT	0	I/E Stability
CASPEED	IQUANT	4	Control Amp Speed
CONVENTION	IQUANT	1	Current Convention
ICHRANGE	IQUANT	2	Ich Range
ICHRANGEMODE	TOGGLE	T	Ich Auto Range
ICHOFFSETENABLE	TOGGLE	F	Ich Offset Enable
ICHOFFSET	QUANT	0	Ich Offset (V)
ICHFILTER	IQUANT	1	Ich Filter
VCHRANGE	IQUANT	2	Vch Range
VCHRANGEMODE	TOGGLE	T	Vch Auto Range
VCHOFFSETENABLE	TOGGLE	F	Vch Offset Enable
VCHOFFSET	QUANT	0	Vch Offset (V)
VCHFILTER	IQUANT	1	Vch Filter
IERANGELOWERLIMIT	IQUANT	9	I/E Range Lower Limit
IERANGEMODE	TOGGLE	F	I/E AutoRange
IERANGE	IQUANT	9	I/E Range
ACHSELECT	IQUANT	1	Ach Select
ACHRANGE	IQUANT	2	Ach Range
ACHOFFSETENABLE	TOGGLE	F	Ach Offset Enable
ACHOFFSET	QUANT	0	Ach Offset (V)
ACHFILTER	IQUANT	1	Ach Filter
CABLEID	IQUANT	14	Cable ID
DCCALDATE	LABEL	5-7-2017	DC Calibration Date
ACCALDATE	LABEL	12/3/2015	AC Calibration Date
FRAMEWORKVERSION	QUANT	7.01	Framework Version
INSTRUMENTVERSION	LABEL	4.00	Instrument Version
CURVE	TABLE	73
	Pt	T	Vf	Im	Vu	Pwr	Sig	Ach	Temp	IERange	Over
	#	s	V	A	V	W	V	V	deg C	#	bits
	0	0.013333	5.15146E-001	-2.78434E-004	0.00000E+000	-1.43434E-004	-1.68088E-001	5.15395E-001	3.57900E+000	9	...........
	1	0.026667	4.83568E-001	-2.77781E-004	0.00000E+000	-1.34326E-004	-1.68088E-001	4.83732E-001	3.57900E+000	9	...........
	2	0.04	4.54958E-001	-2.77942E-004	0.00000E+000	-1.26452E-004	-1.68088E-001	4.55070E-001	3.57900E+000	9	...........
	3	0.053333	4.28507E-001	-2.79248E-004	0.00000E+000	-1.19660E-004	-1.68088E-001	4.28615E-001	3.57900E+000	9	...........
	4	0.066667	4.04074E-001	-2.78920E-004	0.00000E+000	-1.12704E-004	-1.68088E-001	4.04172E-001	3.57900E+000	9	...........
	5	0.08	3.81453E-001	-2.79170E-004	0.00000E+000	-1.06490E-004	-1.68088E-001	3.81539E-001	3.57900E+000	9	...........
	6	0.093333	3.60514E-001	-2.78365E-004	0.00000E+000	-1.00355E-004	-1.68088E-001	3.60596E-001	3.57900E+000	9	...........
	7	0.106667	3.41070E-001	-2.78650E-004	0.00000E+000	-9.50391E-005	-1.68088E-001	3.41150E-001	3.57900E+000	9	...........
	8	0.12	3.23041E-001	-2.78363E-004	0.00000E+000	-8.99229E-005	-1.68088E-001	3.23117E-001	3.57900E+000	9	...........
	9	0.133333	3.06342E-001	-2.78390E-004	0.00000E+000	-8.52828E-005	-1.68088E-001	3.06418E-001	3.57900E+000	9	...........
	10	0.146667	2.90854E-001	-2.78484E-004	0.00000E+000	-8.09983E-005	-1.68088E-001	2.90920E-001	3.57900E+000	9	...........
	11	0.16	2.76513E-001	-2.78237E-004	0.00000E+000	-7.69362E-005	-1.68088E-001	2.76579E-001	3.57900E+000	9	...........
	12	0.173333	2.63230E-001	-2.78685E-004	0.00000E+000	-7.33584E-005	-1.68088E-001	2.63292E-001	3.57900E+000	9	...........
	13	0.186667	2.50889E-001	-2.78956E-004	0.00000E+000	-6.99870E-005	-1.68088E-001	2.50943E-001	3.57900E+000	9	...........
	14	0.2	2.39424E-001	-2.78361E-004	0.00000E+000	-6.66463E-005	-1.68088E-001	2.39477E-001	3.57900E+000	9	...........
	15	0.213333	2.28725E-001	-2.79353E-004	0.00000E+000	-6.38952E-005	-1.68088E-001	2.28772E-001	3.57870E+000	9	...........
	16	0.226667	2.18745E-001	-2.77781E-004	0.00000E+000	-6.07633E-005	-1.68088E-001	2.18795E-001	3.57870E+000	9	...........
	17	0.24	2.09431E-001	-2.78673E-004	0.00000E+000	-5.83627E-005	-1.68088E-001	2.09477E-001	3.57870E+000	9	...........
	18	0.253333	2.00705E-001	-2.78916E-004	0.00000E+000	-5.59797E-005	-1.68088E-001	2.00757E-001	3.57870E+000	9	...........
	19	0.266667	1.92516E-001	-2.77616E-004	0.00000E+000	-5.34456E-005	-1.68088E-001	1.92557E-001	3.57870E+000	9	...........
	20	0.28	1.84775E-001	-2.78633E-004	0.00000E+000	-5.14845E-005	-1.68088E-001	1.84823E-001	3.57870E+000	9	...........
	21	0.293333	1.77498E-001	-2.78471E-004	0.00000E+000	-4.94281E-005	-1.68088E-001	1.77540E-001	3.57870E+000	9	...........
	22	0.306667	1.70581E-001	-2.79005E-004	0.00000E+000	-4.75929E-005	-1.68088E-001	1.70626E-001	3.57870E+000	9	...........
	23	0.32	1.64054E-001	-2.79092E-004	0.00000E+000	-4.57860E-005	-1.68088E-001	1.64090E-001	3.57870E+000	9	...........
	24	0.333333	1.57879E-001	-2.79524E-004	0.00000E+000	-4.41310E-005	-1.68088E-001	1.57915E-001	3.57870E+000	9	...........
	25	0.346667	1.51999E-001	-2.78798E-004	0.00000E+000	-4.23770E-005	-1.68088E-001	1.52035E-001	3.57870E+000	9	...........
	26	0.36	1.46388E-001	-2.78769E-004	0.00000E+000	-4.08083E-005	-1.68088E-001	1.46420E-001	3.57870E+000	9	...........
	27	0.373333	1.40985E-001	-2.78666E-004	0.00000E+000	-3.92877E-005	-1.68088E-001	1.41024E-001	3.57870E+000	9	...........
	28	0.386667	1.35820E-001	-2.78420E-004	0.00000E+000	-3.78150E-005	-1.68088E-001	1.35855E-001	3.57870E+000	9	...........
	29	0.4	1.30869E-001	-2.78042E-004	0.00000E+000	-3.63871E-005	-1.68088E-001	1.30903E-001	3.57870E+000	9	...........
	30	0.413333	1.26090E-001	-2.78940E-004	0.00000E+000	-3.51714E-005	-1.68088E-001	1.26117E-001	3.57870E+000	9	...........
	31	0.426667	1.21439E-001	-2.79882E-004	0.00000E+000	-3.39886E-005	-1.68088E-001	1.21473E-001	3.57870E+000	9	...........
	32	0.44	1.16985E-001	-2.79023E-004	0.00000E+000	-3.26415E-005	-1.68088E-001	1.17016E-001	3.57870E+000	9	...........
	33	0.453333	1.12723E-001	-2.79432E-004	0.00000E+000	-3.14984E-005	-1.68088E-001	1.12751E-001	3.57870E+000	9	...........
	34	0.466667	1.08585E-001	-2.79100E-004	0.00000E+000	-3.03061E-005	-1.68088E-001	1.08615E-001	3.57870E+000	9	...........
	35	0.48	1.04567E-001	-2.77873E-004	0.00000E+000	-2.90564E-005	-1.68088E-001	1.04591E-001	3.57870E+000	9	...........
	36	0.493333	1.00624E-001	-2.78877E-004	0.00000E+000	-2.80616E-005	-1.68088E-001	1.00651E-001	3.57870E+000	9	...........
	37	0.506667	9.68013E-002	-2.78734E-004	0.00000E+000	-2.69818E-005	-1.68088E-001	9.68247E-002	3.57870E+000	9	...........
	38	0.52	9.31297E-002	-2.78708E-004	0.00000E+000	-2.59560E-005	-1.68088E-001	9.31524E-002	3.57870E+000	9	...........
	39	0.533333	8.95066E-002	-2.78526E-004	0.00000E+000	-2.49299E-005	-1.68088E-001	8.95300E-002	3.57870E+000	9	...........
	40	0.546667	8.59317E-002	-2.80225E-004	0.00000E+000	-2.40802E-005	-1.68088E-001	8.59530E-002	3.57870E+000	9	...........
	41	0.56	8.25063E-002	-2.79297E-004	0.00000E+000	-2.30438E-005	-1.68088E-001	8.25278E-002	3.57870E+000	9	...........
	42	0.573333	7.91719E-002	-2.79689E-004	0.00000E+000	-2.21435E-005	-1.68088E-001	7.91912E-002	3.57870E+000	9	...........
	43	0.586667	7.58827E-002	-2.78881E-004	0.00000E+000	-2.11623E-005	-1.68088E-001	7.58976E-002	3.57870E+000	9	...........
	44	0.6	7.26517E-002	-2.79144E-004	0.00000E+000	-2.02803E-005	-1.68088E-001	7.26646E-002	3.57870E+000	9	...........
	45	0.613333	6.94554E-002	-2.78685E-004	0.00000E+000	-1.93562E-005	-1.68088E-001	6.94699E-002	3.57870E+000	9	...........
	46	0.626667	6.63170E-002	-2.78563E-004	0.00000E+000	-1.84735E-005	-1.68088E-001	6.63290E-002	3.57870E+000	9	...........
	47	0.64	6.32441E-002	-2.78401E-004	0.00000E+000	-1.76072E-005	-1.68088E-001	6.32563E-002	3.57870E+000	9	...........
	48	0.653333	6.01819E-002	-2.78855E-004	0.00000E+000	-1.67820E-005	-1.68088E-001	6.01976E-002	3.57870E+000	9	...........
	49	0.666667	5.72194E-002	-2.79136E-004	0.00000E+000	-1.59720E-005	-1.68088E-001	5.72254E-002	3.57870E+000	9	...........
	50	0.68	5.43025E-002	-2.78486E-004	0.00000E+000	-1.51225E-005	-1.68088E-001	5.43143E-002	3.57870E+000	9	...........
	51	0.693333	5.14053E-002	-2.78274E-004	0.00000E+000	-1.43048E-005	-1.68088E-001	5.14157E-002	3.57870E+000	9	...........
	52	0.706667	4.86268E-002	-2.78401E-004	0.00000E+000	-1.35378E-005	-1.68088E-001	4.86259E-002	3.57870E+000	9	...........
	53	0.72	4.58485E-002	-2.79232E-004	0.00000E+000	-1.28024E-005	-1.68088E-001	4.58591E-002	3.57870E+000	9	...........
	54	0.733333	4.31173E-002	-2.78120E-004	0.00000E+000	-1.19918E-005	-1.68088E-001	4.31248E-002	3.57870E+000	9	...........
	55	0.746667	4.03966E-002	-2.79142E-004	0.00000E+000	-1.12764E-005	-1.68088E-001	4.04051E-002	3.57870E+000	9	...........
	56	0.76	3.77335E-002	-2.79155E-004	0.00000E+000	-1.05335E-005	-1.68088E-001	3.77327E-002	3.57870E+000	9	...........
	57	0.773333	3.51054E-002	-2.79349E-004	0.00000E+000	-9.80666E-006	-1.68088E-001	3.51064E-002	3.57870E+000	9	...........
	58	0.786667	3.25229E-002	-2.79320E-004	0.00000E+000	-9.08429E-006	-1.68088E-001	3.25247E-002	3.57870E+000	9	...........
	59	0.8	3.00223E-002	-2.78948E-004	0.00000E+000	-8.37465E-006	-1.68088E-001	3.00253E-002	3.57870E+000	9	...........
	60	0.813333	2.75274E-002	-2.78878E-004	0.00000E+000	-7.67678E-006	-1.68088E-001	2.75236E-002	3.57870E+000	9	...........
	61	0.826667	2.50307E-002	-2.80091E-004	0.00000E+000	-7.01086E-006	-1.68088E-001	2.50298E-002	3.57870E+000	9	...........
	62	0.84	2.25860E-002	-2.78648E-004	0.00000E+000	-6.29355E-006	-1.68088E-001	2.25805E-002	3.57870E+000	9	...........
	63	0.853333	2.01221E-002	-2.79360E-004	0.00000E+000	-5.62132E-006	-1.68088E-001	2.01149E-002	3.57870E+000	9	...........
	64	0.866667	1.76666E-002	-2.79420E-004	0.00000E+000	-4.93640E-006	-1.68088E-001	1.76576E-002	3.57870E+000	9	...........
	65	0.88	1.52962E-002	-2.78131E-004	0.00000E+000	-4.25434E-006	-1.68088E-001	1.52872E-002	3.57870E+000	9	...........
	66	0.893333	1.29033E-002	-2.78194E-004	0.00000E+000	-3.58961E-006	-1.68088E-001	1.28936E-002	3.57870E+000	9	...........
	67	0.906667	1.05485E-002	-2.80001E-004	0.00000E+000	-2.95359E-006	-1.68088E-001	1.05382E-002	3.57870E+000	9	...........
	68	0.92	8.22395E-003	-2.79008E-004	0.00000E+000	-2.29455E-006	-1.68088E-001	8.21551E-003	3.57870E+000	9	...........
	69	0.933333	5.90856E-003	-2.78835E-004	0.00000E+000	-1.64752E-006	-1.68088E-001	5.89161E-003	3.57870E+000	9	...........
	70	0.946667	3.59684E-003	-2.78383E-004	0.00000E+000	-1.00130E-006	-1.68088E-001	3.57842E-003	3.57870E+000	9	...........
	71	0.96	1.30364E-003	-2.78584E-004	0.00000E+000	-3.63174E-007	-1.68088E-001	1.28514E-003	3.57870E+000	9	...........
	72	0.96333	-1.02898E-004	-2.78689E-004	0.00000E+000	2.86765E-008	-1.68088E-001	-1.18774E-004	3.57870E+000	9	...........
STARTTIMEOFFSET	QUANT	1043.179	Start Time Offset (s)
