EXPLAIN
TAG	PWR800_DISCHARGE
TITLE	LABEL	PWR Cyclic Charge Discharge (Cell) - Discharge Step	Test &Identifier
DATE	LABEL	7-7-2017	Date
TIME	LABEL	16:18:59	Time
NOTES	NOTES	3	&Notes...
	supercap test cell
	2.8mg
	6M KOH
PSTAT	PSTAT	IFC5000-01520	Potentiostat
CAPACITY	QUANT	1.00000E-003	Capacity (A-hr)
CELLTYPE	SELECTOR	1	&Cell Type
WORKINGCONNECTION	SELECTOR	0	&Working Lead
MAXDISCHARGETIME	VARIABLEANDUNITS	1.00000E+002	s	1.00000E+002	second(s)	Max &Discharge Time
DISCHARGEMODE	MULTIPARAM	0	2.80000E-004	&Discharge Mode	Constant Current	Amp(s)
SAMPLETIME	QUANT	1.00000E-002	Sa&mple Period (s)
DISCHARGESTOPAT1	MULTIPARAM	3	0.00000E+000	Discharge Stop At &1	Voltage < Limit	V
DISCHARGESTOPAT2	MULTIPARAM	0	0.00000E+000	Discharge Stop At &2	None	N/A
AESBHCSELECTOR	TOGGLE	F	Save Both Half Cells
IRCOMP	TOGGLE	F	IR &Measure
EOC	QUANT	0	Open Circuit (V)
SEQUENCER	TOGGLE	TRUE	Run as Sequence
PSTATMODEL	IQUANT	53	Pstat Model
PSTATSECTION	LABEL	IFC5000-01520	Pstat Section
PSTATSERIALNO	LABEL	01520	Pstat Serial Number
CTRLMODE	IQUANT	0	Control Mode
ELECTROMETER	IQUANT	1	RE=0 or CS=1
IESTAB	IQUANT	0	I/E Stability
CASPEED	IQUANT	4	Control Amp Speed
CONVENTION	IQUANT	1	Current Convention
ICHRANGE	IQUANT	2	Ich Range
ICHRANGEMODE	TOGGLE	T	Ich Auto Range
ICHOFFSETENABLE	TOGGLE	F	Ich Offset Enable
ICHOFFSET	QUANT	0	Ich Offset (V)
ICHFILTER	IQUANT	1	Ich Filter
VCHRANGE	IQUANT	2	Vch Range
VCHRANGEMODE	TOGGLE	T	Vch Auto Range
VCHOFFSETENABLE	TOGGLE	F	Vch Offset Enable
VCHOFFSET	QUANT	0	Vch Offset (V)
VCHFILTER	IQUANT	1	Vch Filter
IERANGELOWERLIMIT	IQUANT	9	I/E Range Lower Limit
IERANGEMODE	TOGGLE	F	I/E AutoRange
IERANGE	IQUANT	9	I/E Range
ACHSELECT	IQUANT	1	Ach Select
ACHRANGE	IQUANT	2	Ach Range
ACHOFFSETENABLE	TOGGLE	F	Ach Offset Enable
ACHOFFSET	QUANT	0	Ach Offset (V)
ACHFILTER	IQUANT	1	Ach Filter
CABLEID	IQUANT	14	Cable ID
DCCALDATE	LABEL	5-7-2017	DC Calibration Date
ACCALDATE	LABEL	12/3/2015	AC Calibration Date
FRAMEWORKVERSION	QUANT	7.01	Framework Version
INSTRUMENTVERSION	LABEL	4.00	Instrument Version
CURVE	TABLE	54
	Pt	T	Vf	Im	Vu	Pwr	Sig	Ach	Temp	IERange	Over
	#	s	V	A	V	W	V	V	deg C	#	bits
	0	0.013333	5.21771E-001	-2.79097E-004	0.00000E+000	-1.45625E-004	-1.68088E-001	5.22009E-001	3.57860E+000	9	...........
	1	0.026667	4.87925E-001	-2.78763E-004	0.00000E+000	-1.36016E-004	-1.68088E-001	4.88131E-001	3.57860E+000	9	...........
	2	0.04	4.56968E-001	-2.78887E-004	0.00000E+000	-1.27443E-004	-1.68088E-001	4.57081E-001	3.57860E+000	9	...........
	3	0.053333	4.27943E-001	-2.77535E-004	0.00000E+000	-1.18769E-004	-1.68088E-001	4.28042E-001	3.57860E+000	9	...........
	4	0.066667	4.00799E-001	-2.79378E-004	0.00000E+000	-1.11975E-004	-1.68088E-001	4.00890E-001	3.57860E+000	9	...........
	5	0.08	3.75396E-001	-2.79943E-004	0.00000E+000	-1.05089E-004	-1.68088E-001	3.75478E-001	3.57860E+000	9	...........
	6	0.093333	3.51656E-001	-2.79601E-004	0.00000E+000	-9.83234E-005	-1.68088E-001	3.51741E-001	3.57860E+000	9	...........
	7	0.106667	3.29475E-001	-2.78493E-004	0.00000E+000	-9.17562E-005	-1.68088E-001	3.29548E-001	3.57860E+000	9	...........
	8	0.12	3.08793E-001	-2.79602E-004	0.00000E+000	-8.63393E-005	-1.68088E-001	3.08864E-001	3.57860E+000	9	...........
	9	0.133333	2.89554E-001	-2.78098E-004	0.00000E+000	-8.05243E-005	-1.68088E-001	2.89623E-001	3.57860E+000	9	...........
	10	0.146667	2.71657E-001	-2.79542E-004	0.00000E+000	-7.59394E-005	-1.68088E-001	2.71721E-001	3.57860E+000	9	...........
	11	0.16	2.55048E-001	-2.78512E-004	0.00000E+000	-7.10340E-005	-1.68088E-001	2.55106E-001	3.57860E+000	9	...........
	12	0.173333	2.39588E-001	-2.79381E-004	0.00000E+000	-6.69363E-005	-1.68088E-001	2.39643E-001	3.57860E+000	9	...........
	13	0.186667	2.25229E-001	-2.78959E-004	0.00000E+000	-6.28298E-005	-1.68088E-001	2.25280E-001	3.57860E+000	9	...........
	14	0.2	2.11884E-001	-2.77660E-004	0.00000E+000	-5.88316E-005	-1.68088E-001	2.11932E-001	3.57762E+000	9	...........
	15	0.213333	1.99481E-001	-2.79014E-004	0.00000E+000	-5.56579E-005	-1.68088E-001	1.99524E-001	3.57730E+000	9	...........
	16	0.226667	1.87967E-001	-2.79829E-004	0.00000E+000	-5.25986E-005	-1.68088E-001	1.88007E-001	3.57730E+000	9	...........
	17	0.24	1.77268E-001	-2.78910E-004	0.00000E+000	-4.94418E-005	-1.68088E-001	1.77314E-001	3.57730E+000	9	...........
	18	0.253333	1.67309E-001	-2.78861E-004	0.00000E+000	-4.66562E-005	-1.68088E-001	1.67350E-001	3.57730E+000	9	...........
	19	0.266667	1.58023E-001	-2.77025E-004	0.00000E+000	-4.37763E-005	-1.68088E-001	1.58059E-001	3.57730E+000	9	...........
	20	0.28	1.49321E-001	-2.78467E-004	0.00000E+000	-4.15808E-005	-1.68088E-001	1.49356E-001	3.57730E+000	9	...........
	21	0.293333	1.41121E-001	-2.79200E-004	0.00000E+000	-3.94011E-005	-1.68088E-001	1.41157E-001	3.57730E+000	9	...........
	22	0.306667	1.33405E-001	-2.79408E-004	0.00000E+000	-3.72745E-005	-1.68088E-001	1.33434E-001	3.57730E+000	9	...........
	23	0.32	1.26122E-001	-2.79504E-004	0.00000E+000	-3.52515E-005	-1.68088E-001	1.26149E-001	3.57730E+000	9	...........
	24	0.333333	1.19271E-001	-2.79054E-004	0.00000E+000	-3.32831E-005	-1.68088E-001	1.19299E-001	3.57730E+000	9	...........
	25	0.346667	1.12801E-001	-2.79597E-004	0.00000E+000	-3.15387E-005	-1.68088E-001	1.12824E-001	3.57730E+000	9	...........
	26	0.36	1.06647E-001	-2.79622E-004	0.00000E+000	-2.98210E-005	-1.68088E-001	1.06679E-001	3.57730E+000	9	...........
	27	0.373333	1.00779E-001	-2.79376E-004	0.00000E+000	-2.81554E-005	-1.68088E-001	1.00798E-001	3.57730E+000	9	...........
	28	0.386667	9.51934E-002	-2.79571E-004	0.00000E+000	-2.66133E-005	-1.68088E-001	9.52187E-002	3.57730E+000	9	...........
	29	0.4	8.98764E-002	-2.79061E-004	0.00000E+000	-2.50810E-005	-1.68088E-001	8.99024E-002	3.57730E+000	9	...........
	30	0.413333	8.47229E-002	-2.79086E-004	0.00000E+000	-2.36450E-005	-1.68088E-001	8.47431E-002	3.57730E+000	9	...........
	31	0.426667	7.97936E-002	-2.78438E-004	0.00000E+000	-2.22176E-005	-1.68088E-001	7.98083E-002	3.57730E+000	9	...........
	32	0.44	7.50469E-002	-2.78456E-004	0.00000E+000	-2.08973E-005	-1.68088E-001	7.50595E-002	3.57730E+000	9	...........
	33	0.453333	7.04567E-002	-2.79601E-004	0.00000E+000	-1.96998E-005	-1.68088E-001	7.04716E-002	3.57730E+000	9	...........
	34	0.466667	6.60311E-002	-2.78433E-004	0.00000E+000	-1.83852E-005	-1.68088E-001	6.60447E-002	3.57730E+000	9	...........
	35	0.48	6.17877E-002	-2.79653E-004	0.00000E+000	-1.72791E-005	-1.68088E-001	6.17938E-002	3.57730E+000	9	...........
	36	0.493333	5.77246E-002	-2.78755E-004	0.00000E+000	-1.60910E-005	-1.68088E-001	5.77324E-002	3.57730E+000	9	...........
	37	0.506667	5.37310E-002	-2.78813E-004	0.00000E+000	-1.49809E-005	-1.68088E-001	5.37412E-002	3.57730E+000	9	...........
	38	0.52	4.98065E-002	-2.79567E-004	0.00000E+000	-1.39242E-005	-1.68088E-001	4.98101E-002	3.57730E+000	9	...........
	39	0.533333	4.60386E-002	-2.79446E-004	0.00000E+000	-1.28653E-005	-1.68088E-001	4.60482E-002	3.57730E+000	9	...........
	40	0.546667	4.23535E-002	-2.79236E-004	0.00000E+000	-1.18267E-005	-1.68088E-001	4.23603E-002	3.57730E+000	9	...........
	41	0.56	3.87870E-002	-2.79650E-004	0.00000E+000	-1.08468E-005	-1.68088E-001	3.87917E-002	3.57730E+000	9	...........
	42	0.573333	3.53048E-002	-2.79373E-004	0.00000E+000	-9.86321E-006	-1.68088E-001	3.53085E-002	3.57730E+000	9	...........
	43	0.586667	3.18548E-002	-2.77576E-004	0.00000E+000	-8.84211E-006	-1.68088E-001	3.18567E-002	3.57730E+000	9	...........
	44	0.6	2.85012E-002	-2.79374E-004	0.00000E+000	-7.96248E-006	-1.68088E-001	2.84967E-002	3.57730E+000	9	...........
	45	0.613333	2.51568E-002	-2.78075E-004	0.00000E+000	-6.99548E-006	-1.68088E-001	2.51514E-002	3.57730E+000	9	...........
	46	0.626667	2.18841E-002	-2.80368E-004	0.00000E+000	-6.13560E-006	-1.68088E-001	2.18821E-002	3.57730E+000	9	...........
	47	0.64	1.87624E-002	-2.78311E-004	0.00000E+000	-5.22179E-006	-1.68088E-001	1.87566E-002	3.57730E+000	9	...........
	48	0.653333	1.56805E-002	-2.79859E-004	0.00000E+000	-4.38831E-006	-1.68088E-001	1.56763E-002	3.57730E+000	9	...........
	49	0.666667	1.26398E-002	-2.80241E-004	0.00000E+000	-3.54218E-006	-1.68088E-001	1.26298E-002	3.57730E+000	9	...........
	50	0.68	9.66068E-003	-2.79537E-004	0.00000E+000	-2.70051E-006	-1.68088E-001	9.64583E-003	3.57730E+000	9	...........
	51	0.693333	6.76971E-003	-2.77787E-004	0.00000E+000	-1.88054E-006	-1.68088E-001	6.75042E-003	3.57730E+000	9	...........
	52	0.706667	3.95026E-003	-2.80256E-004	0.00000E+000	-1.10709E-006	-1.68088E-001	3.93414E-003	3.57730E+000	9	...........
	53	0.72	1.13020E-003	-2.78878E-004	0.00000E+000	-3.15188E-007	-1.68088E-001	1.11440E-003	3.57730E+000	9	...........
STARTTIMEOFFSET	QUANT	1882.876	Start Time Offset (s)
