EXPLAIN
TAG	PWR800_DISCHARGE
TITLE	LABEL	PWR Cyclic Charge Discharge (Cell) - Discharge Step	Test &Identifier
DATE	LABEL	7-7-2017	Date
TIME	LABEL	16:00:21	Time
NOTES	NOTES	3	&Notes...
	supercap test cell
	2.8mg
	6M KOH
PSTAT	PSTAT	IFC5000-01520	Potentiostat
CAPACITY	QUANT	1.00000E-003	Capacity (A-hr)
CELLTYPE	SELECTOR	1	&Cell Type
WORKINGCONNECTION	SELECTOR	0	&Working Lead
MAXDISCHARGETIME	VARIABLEANDUNITS	1.00000E+002	s	1.00000E+002	second(s)	Max &Discharge Time
DISCHARGEMODE	MULTIPARAM	0	2.80000E-004	&Discharge Mode	Constant Current	Amp(s)
SAMPLETIME	QUANT	1.00000E-002	Sa&mple Period (s)
DISCHARGESTOPAT1	MULTIPARAM	3	0.00000E+000	Discharge Stop At &1	Voltage < Limit	V
DISCHARGESTOPAT2	MULTIPARAM	0	0.00000E+000	Discharge Stop At &2	None	N/A
AESBHCSELECTOR	TOGGLE	F	Save Both Half Cells
IRCOMP	TOGGLE	F	IR &Measure
EOC	QUANT	0	Open Circuit (V)
SEQUENCER	TOGGLE	TRUE	Run as Sequence
PSTATMODEL	IQUANT	53	Pstat Model
PSTATSECTION	LABEL	IFC5000-01520	Pstat Section
PSTATSERIALNO	LABEL	01520	Pstat Serial Number
CTRLMODE	IQUANT	0	Control Mode
ELECTROMETER	IQUANT	1	RE=0 or CS=1
IESTAB	IQUANT	0	I/E Stability
CASPEED	IQUANT	4	Control Amp Speed
CONVENTION	IQUANT	1	Current Convention
ICHRANGE	IQUANT	2	Ich Range
ICHRANGEMODE	TOGGLE	T	Ich Auto Range
ICHOFFSETENABLE	TOGGLE	F	Ich Offset Enable
ICHOFFSET	QUANT	0	Ich Offset (V)
ICHFILTER	IQUANT	1	Ich Filter
VCHRANGE	IQUANT	2	Vch Range
VCHRANGEMODE	TOGGLE	T	Vch Auto Range
VCHOFFSETENABLE	TOGGLE	F	Vch Offset Enable
VCHOFFSET	QUANT	0	Vch Offset (V)
VCHFILTER	IQUANT	1	Vch Filter
IERANGELOWERLIMIT	IQUANT	9	I/E Range Lower Limit
IERANGEMODE	TOGGLE	F	I/E AutoRange
IERANGE	IQUANT	9	I/E Range
ACHSELECT	IQUANT	1	Ach Select
ACHRANGE	IQUANT	2	Ach Range
ACHOFFSETENABLE	TOGGLE	F	Ach Offset Enable
ACHOFFSET	QUANT	0	Ach Offset (V)
ACHFILTER	IQUANT	1	Ach Filter
CABLEID	IQUANT	14	Cable ID
DCCALDATE	LABEL	5-7-2017	DC Calibration Date
ACCALDATE	LABEL	12/3/2015	AC Calibration Date
FRAMEWORKVERSION	QUANT	7.01	Framework Version
INSTRUMENTVERSION	LABEL	4.00	Instrument Version
CURVE	TABLE	70
	Pt	T	Vf	Im	Vu	Pwr	Sig	Ach	Temp	IERange	Over
	#	s	V	A	V	W	V	V	deg C	#	bits
	0	0.013333	5.32148E-001	-2.79617E-004	0.00000E+000	-1.48798E-004	-1.68088E-001	5.32376E-001	3.57750E+000	9	...........
	1	0.026667	4.99871E-001	-2.78847E-004	0.00000E+000	-1.39387E-004	-1.68088E-001	5.00094E-001	3.57750E+000	9	...........
	2	0.04	4.70677E-001	-2.78815E-004	0.00000E+000	-1.31231E-004	-1.68088E-001	4.70805E-001	3.57750E+000	9	...........
	3	0.053333	4.43405E-001	-2.79968E-004	0.00000E+000	-1.24139E-004	-1.68088E-001	4.43511E-001	3.57750E+000	9	...........
	4	0.066667	4.18025E-001	-2.79295E-004	0.00000E+000	-1.16752E-004	-1.68088E-001	4.18127E-001	3.57750E+000	9	...........
	5	0.08	3.94385E-001	-2.78454E-004	0.00000E+000	-1.09818E-004	-1.68088E-001	3.94477E-001	3.57750E+000	9	...........
	6	0.093333	3.72349E-001	-2.79633E-004	0.00000E+000	-1.04121E-004	-1.68088E-001	3.72443E-001	3.57750E+000	9	...........
	7	0.106667	3.51828E-001	-2.77662E-004	0.00000E+000	-9.76894E-005	-1.68088E-001	3.51918E-001	3.57750E+000	9	...........
	8	0.12	3.32749E-001	-2.79992E-004	0.00000E+000	-9.31670E-005	-1.68088E-001	3.32832E-001	3.57750E+000	9	...........
	9	0.133333	3.15015E-001	-2.78558E-004	0.00000E+000	-8.77499E-005	-1.68088E-001	3.15091E-001	3.57750E+000	9	...........
	10	0.146667	2.98534E-001	-2.79040E-004	0.00000E+000	-8.33028E-005	-1.68088E-001	2.98612E-001	3.57750E+000	9	...........
	11	0.16	2.83204E-001	-2.79100E-004	0.00000E+000	-7.90424E-005	-1.68088E-001	2.83275E-001	3.57750E+000	9	...........
	12	0.173333	2.68958E-001	-2.79233E-004	0.00000E+000	-7.51021E-005	-1.68088E-001	2.69032E-001	3.57750E+000	9	...........
	13	0.186667	2.55736E-001	-2.78020E-004	0.00000E+000	-7.10996E-005	-1.68088E-001	2.55807E-001	3.57750E+000	9	...........
	14	0.2	2.43433E-001	-2.79026E-004	0.00000E+000	-6.79241E-005	-1.68088E-001	2.43494E-001	3.57750E+000	9	...........
	15	0.213333	2.31973E-001	-2.79125E-004	0.00000E+000	-6.47494E-005	-1.68088E-001	2.32028E-001	3.57750E+000	9	...........
	16	0.226667	2.21336E-001	-2.78230E-004	0.00000E+000	-6.15823E-005	-1.68088E-001	2.21386E-001	3.57750E+000	9	...........
	17	0.24	2.11345E-001	-2.78645E-004	0.00000E+000	-5.88900E-005	-1.68088E-001	2.11396E-001	3.57750E+000	9	...........
	18	0.253333	2.02028E-001	-2.79169E-004	0.00000E+000	-5.63998E-005	-1.68088E-001	2.02079E-001	3.57750E+000	9	...........
	19	0.266667	1.93315E-001	-2.78136E-004	0.00000E+000	-5.37679E-005	-1.68088E-001	1.93366E-001	3.57750E+000	9	...........
	20	0.28	1.85104E-001	-2.78384E-004	0.00000E+000	-5.15300E-005	-1.68088E-001	1.85148E-001	3.57750E+000	9	...........
	21	0.293333	1.77335E-001	-2.78313E-004	0.00000E+000	-4.93546E-005	-1.68088E-001	1.77383E-001	3.57750E+000	9	...........
	22	0.306667	1.70027E-001	-2.79241E-004	0.00000E+000	-4.74785E-005	-1.68088E-001	1.70076E-001	3.57750E+000	9	...........
	23	0.32	1.63125E-001	-2.79814E-004	0.00000E+000	-4.56446E-005	-1.68088E-001	1.63168E-001	3.57750E+000	9	...........
	24	0.333333	1.56594E-001	-2.78729E-004	0.00000E+000	-4.36472E-005	-1.68088E-001	1.56635E-001	3.57750E+000	9	...........
	25	0.346667	1.50411E-001	-2.78208E-004	0.00000E+000	-4.18455E-005	-1.68088E-001	1.50450E-001	3.57750E+000	9	...........
	26	0.36	1.44498E-001	-2.78330E-004	0.00000E+000	-4.02181E-005	-1.68088E-001	1.44531E-001	3.57750E+000	9	...........
	27	0.373333	1.38841E-001	-2.78787E-004	0.00000E+000	-3.87072E-005	-1.68088E-001	1.38876E-001	3.57750E+000	9	...........
	28	0.386667	1.33446E-001	-2.78160E-004	0.00000E+000	-3.71193E-005	-1.68088E-001	1.33477E-001	3.57750E+000	9	...........
	29	0.4	1.28311E-001	-2.79188E-004	0.00000E+000	-3.58228E-005	-1.68088E-001	1.28344E-001	3.57750E+000	9	...........
	30	0.413333	1.23392E-001	-2.77182E-004	0.00000E+000	-3.42020E-005	-1.68088E-001	1.23424E-001	3.57750E+000	9	...........
	31	0.426667	1.18619E-001	-2.79462E-004	0.00000E+000	-3.31495E-005	-1.68088E-001	1.18655E-001	3.57750E+000	9	...........
	32	0.44	1.14051E-001	-2.80271E-004	0.00000E+000	-3.19652E-005	-1.68088E-001	1.14086E-001	3.57750E+000	9	...........
	33	0.453333	1.09606E-001	-2.79433E-004	0.00000E+000	-3.06276E-005	-1.68088E-001	1.09636E-001	3.57750E+000	9	...........
	34	0.466667	1.05300E-001	-2.78943E-004	0.00000E+000	-2.93727E-005	-1.68088E-001	1.05326E-001	3.57750E+000	9	...........
	35	0.48	1.01083E-001	-2.79679E-004	0.00000E+000	-2.82707E-005	-1.68088E-001	1.01111E-001	3.57750E+000	9	...........
	36	0.493333	9.70293E-002	-2.78724E-004	0.00000E+000	-2.70444E-005	-1.68088E-001	9.70557E-002	3.57750E+000	9	...........
	37	0.506667	9.30768E-002	-2.79438E-004	0.00000E+000	-2.60092E-005	-1.68088E-001	9.31031E-002	3.57750E+000	9	...........
	38	0.52	8.92706E-002	-2.79368E-004	0.00000E+000	-2.49393E-005	-1.68088E-001	8.92945E-002	3.57750E+000	9	...........
	39	0.533333	8.55750E-002	-2.79754E-004	0.00000E+000	-2.39400E-005	-1.68088E-001	8.56014E-002	3.57750E+000	9	...........
	40	0.546667	8.19531E-002	-2.78368E-004	0.00000E+000	-2.28131E-005	-1.68088E-001	8.19705E-002	3.57750E+000	9	...........
	41	0.56	7.83973E-002	-2.78741E-004	0.00000E+000	-2.18525E-005	-1.68088E-001	7.84105E-002	3.57750E+000	9	...........
	42	0.573333	7.49357E-002	-2.78165E-004	0.00000E+000	-2.08445E-005	-1.68088E-001	7.49430E-002	3.57750E+000	9	...........
	43	0.586667	7.15395E-002	-2.78765E-004	0.00000E+000	-1.99427E-005	-1.68088E-001	7.15540E-002	3.57750E+000	9	...........
	44	0.6	6.82622E-002	-2.78362E-004	0.00000E+000	-1.90016E-005	-1.68088E-001	6.82763E-002	3.57750E+000	9	...........
	45	0.613333	6.50201E-002	-2.79309E-004	0.00000E+000	-1.81607E-005	-1.68088E-001	6.50367E-002	3.57750E+000	9	...........
	46	0.626667	6.18383E-002	-2.79965E-004	0.00000E+000	-1.73125E-005	-1.68088E-001	6.18511E-002	3.57750E+000	9	...........
	47	0.64	5.87065E-002	-2.79291E-004	0.00000E+000	-1.63962E-005	-1.68088E-001	5.87207E-002	3.57750E+000	9	...........
	48	0.653333	5.56424E-002	-2.78881E-004	0.00000E+000	-1.55176E-005	-1.68088E-001	5.56544E-002	3.57750E+000	9	...........
	49	0.666667	5.26182E-002	-2.79328E-004	0.00000E+000	-1.46977E-005	-1.68088E-001	5.26272E-002	3.57750E+000	9	...........
	50	0.68	4.96498E-002	-2.79080E-004	0.00000E+000	-1.38563E-005	-1.68088E-001	4.96527E-002	3.57750E+000	9	...........
	51	0.693333	4.67312E-002	-2.78841E-004	0.00000E+000	-1.30305E-005	-1.68088E-001	4.67422E-002	3.57750E+000	9	...........
	52	0.706667	4.38457E-002	-2.79177E-004	0.00000E+000	-1.22407E-005	-1.68088E-001	4.38535E-002	3.57750E+000	9	...........
	53	0.72	4.10478E-002	-2.79815E-004	0.00000E+000	-1.14858E-005	-1.68088E-001	4.10580E-002	3.57750E+000	9	...........
	54	0.733333	3.82927E-002	-2.78312E-004	0.00000E+000	-1.06573E-005	-1.68088E-001	3.82975E-002	3.57750E+000	9	...........
	55	0.746667	3.55403E-002	-2.78842E-004	0.00000E+000	-9.91011E-006	-1.68088E-001	3.55412E-002	3.57750E+000	9	...........
	56	0.76	3.28292E-002	-2.79696E-004	0.00000E+000	-9.18220E-006	-1.68088E-001	3.28305E-002	3.57750E+000	9	...........
	57	0.773333	3.01972E-002	-2.79512E-004	0.00000E+000	-8.44046E-006	-1.68088E-001	3.02029E-002	3.57750E+000	9	...........
	58	0.786667	2.75566E-002	-2.77970E-004	0.00000E+000	-7.65989E-006	-1.68088E-001	2.75541E-002	3.57750E+000	9	...........
	59	0.8	2.49410E-002	-2.79896E-004	0.00000E+000	-6.98087E-006	-1.68088E-001	2.49378E-002	3.57750E+000	9	...........
	60	0.813333	2.24210E-002	-2.78808E-004	0.00000E+000	-6.25115E-006	-1.68088E-001	2.24162E-002	3.57750E+000	9	...........
	61	0.826667	1.99511E-002	-2.76947E-004	0.00000E+000	-5.52540E-006	-1.68088E-001	1.99477E-002	3.57750E+000	9	...........
	62	0.84	1.74943E-002	-2.79030E-004	0.00000E+000	-4.88145E-006	-1.68088E-001	1.74837E-002	3.57750E+000	9	...........
	63	0.853333	1.50410E-002	-2.77874E-004	0.00000E+000	-4.17950E-006	-1.68088E-001	1.50351E-002	3.57750E+000	9	...........
	64	0.866667	1.26261E-002	-2.79939E-004	0.00000E+000	-3.53454E-006	-1.68088E-001	1.26154E-002	3.57785E+000	9	...........
	65	0.88	1.02205E-002	-2.77541E-004	0.00000E+000	-2.83661E-006	-1.68088E-001	1.02133E-002	3.57890E+000	9	...........
	66	0.893333	7.83404E-003	-2.79164E-004	0.00000E+000	-2.18698E-006	-1.68088E-001	7.82064E-003	3.57890E+000	9	...........
	67	0.906667	5.51637E-003	-2.78249E-004	0.00000E+000	-1.53492E-006	-1.68088E-001	5.50174E-003	3.57890E+000	9	...........
	68	0.92	3.22472E-003	-2.79729E-004	0.00000E+000	-9.02048E-007	-1.68088E-001	3.21180E-003	3.57890E+000	9	...........
	69	0.933333	9.48899E-004	-2.78066E-004	0.00000E+000	-2.63857E-007	-1.68088E-001	9.31840E-004	3.57890E+000	9	...........
STARTTIMEOFFSET	QUANT	1123.994	Start Time Offset (s)
