EXPLAIN
TAG	PWR800_DISCHARGE
TITLE	LABEL	PWR Cyclic Charge Discharge (Cell) - Discharge Step	Test &Identifier
DATE	LABEL	7-7-2017	Date
TIME	LABEL	16:15:03	Time
NOTES	NOTES	3	&Notes...
	supercap test cell
	2.8mg
	6M KOH
PSTAT	PSTAT	IFC5000-01520	Potentiostat
CAPACITY	QUANT	1.00000E-003	Capacity (A-hr)
CELLTYPE	SELECTOR	1	&Cell Type
WORKINGCONNECTION	SELECTOR	0	&Working Lead
MAXDISCHARGETIME	VARIABLEANDUNITS	1.00000E+002	s	1.00000E+002	second(s)	Max &Discharge Time
DISCHARGEMODE	MULTIPARAM	0	2.80000E-004	&Discharge Mode	Constant Current	Amp(s)
SAMPLETIME	QUANT	1.00000E-002	Sa&mple Period (s)
DISCHARGESTOPAT1	MULTIPARAM	3	0.00000E+000	Discharge Stop At &1	Voltage < Limit	V
DISCHARGESTOPAT2	MULTIPARAM	0	0.00000E+000	Discharge Stop At &2	None	N/A
AESBHCSELECTOR	TOGGLE	F	Save Both Half Cells
IRCOMP	TOGGLE	F	IR &Measure
EOC	QUANT	0	Open Circuit (V)
SEQUENCER	TOGGLE	TRUE	Run as Sequence
PSTATMODEL	IQUANT	53	Pstat Model
PSTATSECTION	LABEL	IFC5000-01520	Pstat Section
PSTATSERIALNO	LABEL	01520	Pstat Serial Number
CTRLMODE	IQUANT	0	Control Mode
ELECTROMETER	IQUANT	1	RE=0 or CS=1
IESTAB	IQUANT	0	I/E Stability
CASPEED	IQUANT	4	Control Amp Speed
CONVENTION	IQUANT	1	Current Convention
ICHRANGE	IQUANT	2	Ich Range
ICHRANGEMODE	TOGGLE	T	Ich Auto Range
ICHOFFSETENABLE	TOGGLE	F	Ich Offset Enable
ICHOFFSET	QUANT	0	Ich Offset (V)
ICHFILTER	IQUANT	1	Ich Filter
VCHRANGE	IQUANT	2	Vch Range
VCHRANGEMODE	TOGGLE	T	Vch Auto Range
VCHOFFSETENABLE	TOGGLE	F	Vch Offset Enable
VCHOFFSET	QUANT	0	Vch Offset (V)
VCHFILTER	IQUANT	1	Vch Filter
IERANGELOWERLIMIT	IQUANT	9	I/E Range Lower Limit
IERANGEMODE	TOGGLE	F	I/E AutoRange
IERANGE	IQUANT	9	I/E Range
ACHSELECT	IQUANT	1	Ach Select
ACHRANGE	IQUANT	2	Ach Range
ACHOFFSETENABLE	TOGGLE	F	Ach Offset Enable
ACHOFFSET	QUANT	0	Ach Offset (V)
ACHFILTER	IQUANT	1	Ach Filter
CABLEID	IQUANT	14	Cable ID
DCCALDATE	LABEL	5-7-2017	DC Calibration Date
ACCALDATE	LABEL	12/3/2015	AC Calibration Date
FRAMEWORKVERSION	QUANT	7.01	Framework Version
INSTRUMENTVERSION	LABEL	4.00	Instrument Version
CURVE	TABLE	58
	Pt	T	Vf	Im	Vu	Pwr	Sig	Ach	Temp	IERange	Over
	#	s	V	A	V	W	V	V	deg C	#	bits
	0	0.013333	5.21894E-001	-2.78928E-004	0.00000E+000	-1.45571E-004	-1.68088E-001	5.22135E-001	3.57730E+000	9	...........
	1	0.026667	4.88471E-001	-2.78083E-004	0.00000E+000	-1.35835E-004	-1.68088E-001	4.88660E-001	3.57730E+000	9	...........
	2	0.04	4.57930E-001	-2.77965E-004	0.00000E+000	-1.27289E-004	-1.68088E-001	4.58040E-001	3.57730E+000	9	...........
	3	0.053333	4.29352E-001	-2.79156E-004	0.00000E+000	-1.19856E-004	-1.68088E-001	4.29451E-001	3.57730E+000	9	...........
	4	0.066667	4.02650E-001	-2.80176E-004	0.00000E+000	-1.12813E-004	-1.68088E-001	4.02740E-001	3.57730E+000	9	...........
	5	0.08	3.77691E-001	-2.79077E-004	0.00000E+000	-1.05405E-004	-1.68088E-001	3.77777E-001	3.57730E+000	9	...........
	6	0.093333	3.54378E-001	-2.80269E-004	0.00000E+000	-9.93213E-005	-1.68088E-001	3.54459E-001	3.57730E+000	9	...........
	7	0.106667	3.32640E-001	-2.78370E-004	0.00000E+000	-9.25970E-005	-1.68088E-001	3.32717E-001	3.57730E+000	9	...........
	8	0.12	3.12374E-001	-2.77316E-004	0.00000E+000	-8.66265E-005	-1.68088E-001	3.12444E-001	3.57730E+000	9	...........
	9	0.133333	2.93488E-001	-2.79556E-004	0.00000E+000	-8.20465E-005	-1.68088E-001	2.93555E-001	3.57730E+000	9	...........
	10	0.146667	2.75955E-001	-2.77966E-004	0.00000E+000	-7.67061E-005	-1.68088E-001	2.76020E-001	3.57730E+000	9	...........
	11	0.16	2.59672E-001	-2.79305E-004	0.00000E+000	-7.25277E-005	-1.68088E-001	2.59736E-001	3.57730E+000	9	...........
	12	0.173333	2.44544E-001	-2.78270E-004	0.00000E+000	-6.80491E-005	-1.68088E-001	2.44606E-001	3.57730E+000	9	...........
	13	0.186667	2.30532E-001	-2.78666E-004	0.00000E+000	-6.42413E-005	-1.68088E-001	2.30580E-001	3.57730E+000	9	...........
	14	0.2	2.17521E-001	-2.78495E-004	0.00000E+000	-6.05786E-005	-1.68088E-001	2.17569E-001	3.57730E+000	9	...........
	15	0.213333	2.05416E-001	-2.78960E-004	0.00000E+000	-5.73029E-005	-1.68088E-001	2.05463E-001	3.57730E+000	9	...........
	16	0.226667	1.94169E-001	-2.78147E-004	0.00000E+000	-5.40075E-005	-1.68088E-001	1.94217E-001	3.57730E+000	9	...........
	17	0.24	1.83688E-001	-2.78929E-004	0.00000E+000	-5.12360E-005	-1.68088E-001	1.83736E-001	3.57730E+000	9	...........
	18	0.253333	1.73926E-001	-2.79277E-004	0.00000E+000	-4.85735E-005	-1.68088E-001	1.73974E-001	3.57730E+000	9	...........
	19	0.266667	1.64809E-001	-2.80084E-004	0.00000E+000	-4.61602E-005	-1.68088E-001	1.64849E-001	3.57730E+000	9	...........
	20	0.28	1.56261E-001	-2.77904E-004	0.00000E+000	-4.34257E-005	-1.68088E-001	1.56300E-001	3.57730E+000	9	...........
	21	0.293333	1.48207E-001	-2.77676E-004	0.00000E+000	-4.11536E-005	-1.68088E-001	1.48245E-001	3.57730E+000	9	...........
	22	0.306667	1.40665E-001	-2.79504E-004	0.00000E+000	-3.93164E-005	-1.68088E-001	1.40700E-001	3.57730E+000	9	...........
	23	0.32	1.33543E-001	-2.79082E-004	0.00000E+000	-3.72694E-005	-1.68088E-001	1.33572E-001	3.57730E+000	9	...........
	24	0.333333	1.26807E-001	-2.79319E-004	0.00000E+000	-3.54197E-005	-1.68088E-001	1.26836E-001	3.57730E+000	9	...........
	25	0.346667	1.20443E-001	-2.78347E-004	0.00000E+000	-3.35251E-005	-1.68088E-001	1.20475E-001	3.57730E+000	9	...........
	26	0.36	1.14330E-001	-2.79431E-004	0.00000E+000	-3.19472E-005	-1.68088E-001	1.14356E-001	3.57730E+000	9	...........
	27	0.373333	1.08514E-001	-2.78399E-004	0.00000E+000	-3.02101E-005	-1.68088E-001	1.08542E-001	3.57730E+000	9	...........
	28	0.386667	1.03016E-001	-2.79600E-004	0.00000E+000	-2.88032E-005	-1.68088E-001	1.03042E-001	3.57730E+000	9	...........
	29	0.4	9.76954E-002	-2.79378E-004	0.00000E+000	-2.72940E-005	-1.68088E-001	9.77215E-002	3.57730E+000	9	...........
	30	0.413333	9.25901E-002	-2.78817E-004	0.00000E+000	-2.58157E-005	-1.68088E-001	9.26180E-002	3.57730E+000	9	...........
	31	0.426667	8.77056E-002	-2.79423E-004	0.00000E+000	-2.45069E-005	-1.68088E-001	8.77315E-002	3.57730E+000	9	...........
	32	0.44	8.30118E-002	-2.76811E-004	0.00000E+000	-2.29786E-005	-1.68088E-001	8.30235E-002	3.57730E+000	9	...........
	33	0.453333	7.85134E-002	-2.79165E-004	0.00000E+000	-2.19182E-005	-1.68088E-001	7.85299E-002	3.57730E+000	9	...........
	34	0.466667	7.41249E-002	-2.79095E-004	0.00000E+000	-2.06879E-005	-1.68088E-001	7.41335E-002	3.57730E+000	9	...........
	35	0.48	6.98977E-002	-2.79653E-004	0.00000E+000	-1.95471E-005	-1.68088E-001	6.99145E-002	3.57730E+000	9	...........
	36	0.493333	6.57760E-002	-2.79395E-004	0.00000E+000	-1.83775E-005	-1.68088E-001	6.57895E-002	3.57730E+000	9	...........
	37	0.506667	6.17720E-002	-2.79060E-004	0.00000E+000	-1.72381E-005	-1.68088E-001	6.17860E-002	3.57730E+000	9	...........
	38	0.52	5.78714E-002	-2.79014E-004	0.00000E+000	-1.61469E-005	-1.68088E-001	5.78790E-002	3.57730E+000	9	...........
	39	0.533333	5.41045E-002	-2.79831E-004	0.00000E+000	-1.51401E-005	-1.68088E-001	5.41126E-002	3.57730E+000	9	...........
	40	0.546667	5.04409E-002	-2.78324E-004	0.00000E+000	-1.40389E-005	-1.68088E-001	5.04521E-002	3.57730E+000	9	...........
	41	0.56	4.68951E-002	-2.78807E-004	0.00000E+000	-1.30747E-005	-1.68088E-001	4.69009E-002	3.57730E+000	9	...........
	42	0.573333	4.34095E-002	-2.78306E-004	0.00000E+000	-1.20811E-005	-1.68088E-001	4.34171E-002	3.57730E+000	9	...........
	43	0.586667	4.00392E-002	-2.78466E-004	0.00000E+000	-1.11495E-005	-1.68088E-001	4.00472E-002	3.57730E+000	9	...........
	44	0.6	3.67347E-002	-2.77599E-004	0.00000E+000	-1.01975E-005	-1.68088E-001	3.67401E-002	3.57730E+000	9	...........
	45	0.613333	3.34574E-002	-2.78371E-004	0.00000E+000	-9.31357E-006	-1.68088E-001	3.34625E-002	3.57730E+000	9	...........
	46	0.626667	3.02813E-002	-2.79090E-004	0.00000E+000	-8.45120E-006	-1.68088E-001	3.02766E-002	3.57730E+000	9	...........
	47	0.64	2.71290E-002	-2.78830E-004	0.00000E+000	-7.56439E-006	-1.68088E-001	2.71320E-002	3.57730E+000	9	...........
	48	0.653333	2.40339E-002	-2.78579E-004	0.00000E+000	-6.69533E-006	-1.68088E-001	2.40317E-002	3.57730E+000	9	...........
	49	0.666667	2.10126E-002	-2.78632E-004	0.00000E+000	-5.85478E-006	-1.68088E-001	2.10066E-002	3.57730E+000	9	...........
	50	0.68	1.80691E-002	-2.79247E-004	0.00000E+000	-5.04575E-006	-1.68088E-001	1.80615E-002	3.57730E+000	9	...........
	51	0.693333	1.51981E-002	-2.80151E-004	0.00000E+000	-4.25777E-006	-1.68088E-001	1.51888E-002	3.57730E+000	9	...........
	52	0.706667	1.23309E-002	-2.78747E-004	0.00000E+000	-3.43719E-006	-1.68088E-001	1.23179E-002	3.57730E+000	9	...........
	53	0.72	9.50632E-003	-2.78951E-004	0.00000E+000	-2.65180E-006	-1.68088E-001	9.49982E-003	3.57730E+000	9	...........
	54	0.733333	6.75338E-003	-2.79515E-004	0.00000E+000	-1.88767E-006	-1.68088E-001	6.73772E-003	3.57730E+000	9	...........
	55	0.746667	4.08059E-003	-2.80827E-004	0.00000E+000	-1.14594E-006	-1.68088E-001	4.06726E-003	3.57730E+000	9	...........
	56	0.76	1.40230E-003	-2.79102E-004	0.00000E+000	-3.91384E-007	-1.68088E-001	1.38709E-003	3.57730E+000	9	...........
	57	0.761667	-9.39379E-005	-2.77048E-004	0.00000E+000	2.60253E-008	-1.68088E-001	-1.21627E-004	3.57730E+000	9	...........
STARTTIMEOFFSET	QUANT	1726.509	Start Time Offset (s)
