EXPLAIN
TAG	PWR800_DISCHARGE
TITLE	LABEL	PWR Cyclic Charge Discharge (Cell) - Discharge Step	Test &Identifier
DATE	LABEL	7-7-2017	Date
TIME	LABEL	15:57:04	Time
NOTES	NOTES	3	&Notes...
	supercap test cell
	2.8mg
	6M KOH
PSTAT	PSTAT	IFC5000-01520	Potentiostat
CAPACITY	QUANT	1.00000E-003	Capacity (A-hr)
CELLTYPE	SELECTOR	1	&Cell Type
WORKINGCONNECTION	SELECTOR	0	&Working Lead
MAXDISCHARGETIME	VARIABLEANDUNITS	1.00000E+002	s	1.00000E+002	second(s)	Max &Discharge Time
DISCHARGEMODE	MULTIPARAM	0	2.80000E-004	&Discharge Mode	Constant Current	Amp(s)
SAMPLETIME	QUANT	1.00000E-002	Sa&mple Period (s)
DISCHARGESTOPAT1	MULTIPARAM	3	0.00000E+000	Discharge Stop At &1	Voltage < Limit	V
DISCHARGESTOPAT2	MULTIPARAM	0	0.00000E+000	Discharge Stop At &2	None	N/A
AESBHCSELECTOR	TOGGLE	F	Save Both Half Cells
IRCOMP	TOGGLE	F	IR &Measure
EOC	QUANT	0	Open Circuit (V)
SEQUENCER	TOGGLE	TRUE	Run as Sequence
PSTATMODEL	IQUANT	53	Pstat Model
PSTATSECTION	LABEL	IFC5000-01520	Pstat Section
PSTATSERIALNO	LABEL	01520	Pstat Serial Number
CTRLMODE	IQUANT	0	Control Mode
ELECTROMETER	IQUANT	1	RE=0 or CS=1
IESTAB	IQUANT	0	I/E Stability
CASPEED	IQUANT	4	Control Amp Speed
CONVENTION	IQUANT	1	Current Convention
ICHRANGE	IQUANT	2	Ich Range
ICHRANGEMODE	TOGGLE	T	Ich Auto Range
ICHOFFSETENABLE	TOGGLE	F	Ich Offset Enable
ICHOFFSET	QUANT	0	Ich Offset (V)
ICHFILTER	IQUANT	1	Ich Filter
VCHRANGE	IQUANT	2	Vch Range
VCHRANGEMODE	TOGGLE	T	Vch Auto Range
VCHOFFSETENABLE	TOGGLE	F	Vch Offset Enable
VCHOFFSET	QUANT	0	Vch Offset (V)
VCHFILTER	IQUANT	1	Vch Filter
IERANGELOWERLIMIT	IQUANT	9	I/E Range Lower Limit
IERANGEMODE	TOGGLE	F	I/E AutoRange
IERANGE	IQUANT	9	I/E Range
ACHSELECT	IQUANT	1	Ach Select
ACHRANGE	IQUANT	2	Ach Range
ACHOFFSETENABLE	TOGGLE	F	Ach Offset Enable
ACHOFFSET	QUANT	0	Ach Offset (V)
ACHFILTER	IQUANT	1	Ach Filter
CABLEID	IQUANT	14	Cable ID
DCCALDATE	LABEL	5-7-2017	DC Calibration Date
ACCALDATE	LABEL	12/3/2015	AC Calibration Date
FRAMEWORKVERSION	QUANT	7.01	Framework Version
INSTRUMENTVERSION	LABEL	4.00	Instrument Version
CURVE	TABLE	75
	Pt	T	Vf	Im	Vu	Pwr	Sig	Ach	Temp	IERange	Over
	#	s	V	A	V	W	V	V	deg C	#	bits
	0	0.013333	5.34478E-001	-2.78155E-004	0.00000E+000	-1.48668E-004	-1.68088E-001	5.34720E-001	3.57760E+000	9	...........
	1	0.026667	5.02643E-001	-2.78128E-004	0.00000E+000	-1.39799E-004	-1.68088E-001	5.02874E-001	3.57760E+000	9	...........
	2	0.04	4.73899E-001	-2.78147E-004	0.00000E+000	-1.31814E-004	-1.68088E-001	4.74044E-001	3.57760E+000	9	...........
	3	0.053333	4.47242E-001	-2.79380E-004	0.00000E+000	-1.24951E-004	-1.68088E-001	4.47343E-001	3.57760E+000	9	...........
	4	0.066667	4.22421E-001	-2.79940E-004	0.00000E+000	-1.18253E-004	-1.68088E-001	4.22526E-001	3.57760E+000	9	...........
	5	0.08	3.99333E-001	-2.78850E-004	0.00000E+000	-1.11354E-004	-1.68088E-001	3.99423E-001	3.57760E+000	9	...........
	6	0.093333	3.77875E-001	-2.79730E-004	0.00000E+000	-1.05703E-004	-1.68088E-001	3.77965E-001	3.57760E+000	9	...........
	7	0.106667	3.57948E-001	-2.77940E-004	0.00000E+000	-9.94883E-005	-1.68088E-001	3.58033E-001	3.57760E+000	9	...........
	8	0.12	3.39427E-001	-2.78929E-004	0.00000E+000	-9.46760E-005	-1.68088E-001	3.39512E-001	3.57760E+000	9	...........
	9	0.133333	3.22209E-001	-2.79168E-004	0.00000E+000	-8.99503E-005	-1.68088E-001	3.22286E-001	3.57760E+000	9	...........
	10	0.146667	3.06203E-001	-2.79543E-004	0.00000E+000	-8.55969E-005	-1.68088E-001	3.06279E-001	3.57760E+000	9	...........
	11	0.16	2.91358E-001	-2.78842E-004	0.00000E+000	-8.12429E-005	-1.68088E-001	2.91432E-001	3.57760E+000	9	...........
	12	0.173333	2.77544E-001	-2.78691E-004	0.00000E+000	-7.73490E-005	-1.68088E-001	2.77613E-001	3.57760E+000	9	...........
	13	0.186667	2.64714E-001	-2.77846E-004	0.00000E+000	-7.35497E-005	-1.68088E-001	2.64780E-001	3.57760E+000	9	...........
	14	0.2	2.52780E-001	-2.78248E-004	0.00000E+000	-7.03353E-005	-1.68088E-001	2.52842E-001	3.57760E+000	9	...........
	15	0.213333	2.41662E-001	-2.79596E-004	0.00000E+000	-6.75678E-005	-1.68088E-001	2.41718E-001	3.57760E+000	9	...........
	16	0.226667	2.31267E-001	-2.78222E-004	0.00000E+000	-6.43434E-005	-1.68088E-001	2.31319E-001	3.57760E+000	9	...........
	17	0.24	2.21530E-001	-2.79455E-004	0.00000E+000	-6.19078E-005	-1.68088E-001	2.21587E-001	3.57760E+000	9	...........
	18	0.253333	2.12390E-001	-2.78566E-004	0.00000E+000	-5.91647E-005	-1.68088E-001	2.12438E-001	3.57760E+000	9	...........
	19	0.266667	2.03849E-001	-2.79584E-004	0.00000E+000	-5.69931E-005	-1.68088E-001	2.03900E-001	3.57760E+000	9	...........
	20	0.28	1.95795E-001	-2.79735E-004	0.00000E+000	-5.47707E-005	-1.68088E-001	1.95841E-001	3.57760E+000	9	...........
	21	0.293333	1.88213E-001	-2.78236E-004	0.00000E+000	-5.23676E-005	-1.68088E-001	1.88261E-001	3.57760E+000	9	...........
	22	0.306667	1.81020E-001	-2.78594E-004	0.00000E+000	-5.04310E-005	-1.68088E-001	1.81063E-001	3.57760E+000	9	...........
	23	0.32	1.74270E-001	-2.78264E-004	0.00000E+000	-4.84931E-005	-1.68088E-001	1.74316E-001	3.57760E+000	9	...........
	24	0.333333	1.67802E-001	-2.79668E-004	0.00000E+000	-4.69288E-005	-1.68088E-001	1.67847E-001	3.57760E+000	9	...........
	25	0.346667	1.61632E-001	-2.78533E-004	0.00000E+000	-4.50199E-005	-1.68088E-001	1.61672E-001	3.57760E+000	9	...........
	26	0.36	1.55762E-001	-2.78847E-004	0.00000E+000	-4.34337E-005	-1.68088E-001	1.55796E-001	3.57760E+000	9	...........
	27	0.373333	1.50175E-001	-2.78852E-004	0.00000E+000	-4.18765E-005	-1.68088E-001	1.50210E-001	3.57760E+000	9	...........
	28	0.386667	1.44849E-001	-2.79309E-004	0.00000E+000	-4.04576E-005	-1.68088E-001	1.44879E-001	3.57760E+000	9	...........
	29	0.4	1.39714E-001	-2.78937E-004	0.00000E+000	-3.89716E-005	-1.68088E-001	1.39744E-001	3.57760E+000	9	...........
	30	0.413333	1.34774E-001	-2.78967E-004	0.00000E+000	-3.75974E-005	-1.68088E-001	1.34800E-001	3.57760E+000	9	...........
	31	0.426667	1.30013E-001	-2.79267E-004	0.00000E+000	-3.63084E-005	-1.68088E-001	1.30042E-001	3.57760E+000	9	...........
	32	0.44	1.25481E-001	-2.79338E-004	0.00000E+000	-3.50517E-005	-1.68088E-001	1.25506E-001	3.57760E+000	9	...........
	33	0.453333	1.21078E-001	-2.79320E-004	0.00000E+000	-3.38195E-005	-1.68088E-001	1.21110E-001	3.57760E+000	9	...........
	34	0.466667	1.16788E-001	-2.78976E-004	0.00000E+000	-3.25811E-005	-1.68088E-001	1.16817E-001	3.57760E+000	9	...........
	35	0.48	1.12616E-001	-2.78275E-004	0.00000E+000	-3.13383E-005	-1.68088E-001	1.12642E-001	3.57760E+000	9	...........
	36	0.493333	1.08576E-001	-2.78426E-004	0.00000E+000	-3.02303E-005	-1.68088E-001	1.08598E-001	3.57760E+000	9	...........
	37	0.506667	1.04652E-001	-2.80226E-004	0.00000E+000	-2.93262E-005	-1.68088E-001	1.04670E-001	3.57760E+000	9	...........
	38	0.52	1.00859E-001	-2.78831E-004	0.00000E+000	-2.81226E-005	-1.68088E-001	1.00880E-001	3.57760E+000	9	...........
	39	0.533333	9.72078E-002	-2.78307E-004	0.00000E+000	-2.70536E-005	-1.68088E-001	9.72319E-002	3.57760E+000	9	...........
	40	0.546667	9.35726E-002	-2.79824E-004	0.00000E+000	-2.61839E-005	-1.68088E-001	9.35926E-002	3.57760E+000	9	...........
	41	0.56	9.00224E-002	-2.79830E-004	0.00000E+000	-2.51910E-005	-1.68088E-001	9.00471E-002	3.57760E+000	9	...........
	42	0.573333	8.65790E-002	-2.79054E-004	0.00000E+000	-2.41602E-005	-1.68088E-001	8.66105E-002	3.57760E+000	9	...........
	43	0.586667	8.31895E-002	-2.79286E-004	0.00000E+000	-2.32337E-005	-1.68088E-001	8.32078E-002	3.57760E+000	9	...........
	44	0.6	7.98458E-002	-2.79325E-004	0.00000E+000	-2.23029E-005	-1.68088E-001	7.98642E-002	3.57760E+000	9	...........
	45	0.613333	7.66025E-002	-2.78722E-004	0.00000E+000	-2.13508E-005	-1.68088E-001	7.66196E-002	3.57760E+000	9	...........
	46	0.626667	7.34128E-002	-2.78637E-004	0.00000E+000	-2.04556E-005	-1.68088E-001	7.34276E-002	3.57760E+000	9	...........
	47	0.64	7.02732E-002	-2.78683E-004	0.00000E+000	-1.95840E-005	-1.68088E-001	7.02874E-002	3.57760E+000	9	...........
	48	0.653333	6.72256E-002	-2.79147E-004	0.00000E+000	-1.87658E-005	-1.68088E-001	6.72392E-002	3.57760E+000	9	...........
	49	0.666667	6.42729E-002	-2.78868E-004	0.00000E+000	-1.79236E-005	-1.68088E-001	6.42802E-002	3.57760E+000	9	...........
	50	0.68	6.13473E-002	-2.77912E-004	0.00000E+000	-1.70492E-005	-1.68088E-001	6.13586E-002	3.57760E+000	9	...........
	51	0.693333	5.84281E-002	-2.79779E-004	0.00000E+000	-1.63470E-005	-1.68088E-001	5.84361E-002	3.57760E+000	9	...........
	52	0.706667	5.55041E-002	-2.78385E-004	0.00000E+000	-1.54515E-005	-1.68088E-001	5.55147E-002	3.57760E+000	9	...........
	53	0.72	5.26676E-002	-2.78648E-004	0.00000E+000	-1.46757E-005	-1.68088E-001	5.26795E-002	3.57760E+000	9	...........
	54	0.733333	4.98924E-002	-2.78870E-004	0.00000E+000	-1.39135E-005	-1.68088E-001	4.99032E-002	3.57760E+000	9	...........
	55	0.746667	4.72033E-002	-2.79083E-004	0.00000E+000	-1.31737E-005	-1.68088E-001	4.72089E-002	3.57760E+000	9	...........
	56	0.76	4.44994E-002	-2.78728E-004	0.00000E+000	-1.24032E-005	-1.68088E-001	4.45114E-002	3.57760E+000	9	...........
	57	0.773333	4.18234E-002	-2.79667E-004	0.00000E+000	-1.16966E-005	-1.68088E-001	4.18346E-002	3.57760E+000	9	...........
	58	0.786667	3.92070E-002	-2.79639E-004	0.00000E+000	-1.09638E-005	-1.68088E-001	3.92121E-002	3.57760E+000	9	...........
	59	0.8	3.66322E-002	-2.79612E-004	0.00000E+000	-1.02428E-005	-1.68088E-001	3.66397E-002	3.57760E+000	9	...........
	60	0.813333	3.41195E-002	-2.79015E-004	0.00000E+000	-9.51984E-006	-1.68088E-001	3.41187E-002	3.57760E+000	9	...........
	61	0.826667	3.16084E-002	-2.79024E-004	0.00000E+000	-8.81950E-006	-1.68088E-001	3.16083E-002	3.57760E+000	9	...........
	62	0.84	2.90891E-002	-2.78772E-004	0.00000E+000	-8.10921E-006	-1.68088E-001	2.90879E-002	3.57760E+000	9	...........
	63	0.853333	2.65841E-002	-2.79385E-004	0.00000E+000	-7.42720E-006	-1.68088E-001	2.65808E-002	3.57760E+000	9	...........
	64	0.866667	2.41246E-002	-2.78551E-004	0.00000E+000	-6.71993E-006	-1.68088E-001	2.41206E-002	3.57760E+000	9	...........
	65	0.88	2.16909E-002	-2.79688E-004	0.00000E+000	-6.06667E-006	-1.68088E-001	2.16864E-002	3.57760E+000	9	...........
	66	0.893333	1.93068E-002	-2.78924E-004	0.00000E+000	-5.38513E-006	-1.68088E-001	1.92973E-002	3.57760E+000	9	...........
	67	0.906667	1.69390E-002	-2.79170E-004	0.00000E+000	-4.72886E-006	-1.68088E-001	1.69281E-002	3.57760E+000	9	...........
	68	0.92	1.45790E-002	-2.78248E-004	0.00000E+000	-4.05657E-006	-1.68088E-001	1.45658E-002	3.57760E+000	9	...........
	69	0.933333	1.22290E-002	-2.79602E-004	0.00000E+000	-3.41925E-006	-1.68088E-001	1.22141E-002	3.57760E+000	9	...........
	70	0.946667	9.91499E-003	-2.79121E-004	0.00000E+000	-2.76748E-006	-1.68088E-001	9.90515E-003	3.57760E+000	9	...........
	71	0.96	7.64413E-003	-2.78531E-004	0.00000E+000	-2.12913E-006	-1.68088E-001	7.62809E-003	3.57760E+000	9	...........
	72	0.97333	5.38416E-003	-2.78275E-004	0.00000E+000	-1.49828E-006	-1.68088E-001	5.36758E-003	3.57760E+000	9	...........
	73	0.98667	3.12697E-003	-2.79671E-004	0.00000E+000	-8.74524E-007	-1.68088E-001	3.11060E-003	3.57760E+000	9	...........
	74	1	9.35684E-004	-2.79052E-004	0.00000E+000	-2.61105E-007	-1.68088E-001	9.14909E-004	3.57760E+000	9	...........
STARTTIMEOFFSET	QUANT	984.137	Start Time Offset (s)
