EXPLAIN
TAG	PWR800_DISCHARGE
TITLE	LABEL	PWR Cyclic Charge Discharge (Cell) - Discharge Step	Test &Identifier
DATE	LABEL	7-7-2017	Date
TIME	LABEL	15:53:10	Time
NOTES	NOTES	3	&Notes...
	supercap test cell
	2.8mg
	6M KOH
PSTAT	PSTAT	IFC5000-01520	Potentiostat
CAPACITY	QUANT	1.00000E-003	Capacity (A-hr)
CELLTYPE	SELECTOR	1	&Cell Type
WORKINGCONNECTION	SELECTOR	0	&Working Lead
MAXDISCHARGETIME	VARIABLEANDUNITS	1.00000E+002	s	1.00000E+002	second(s)	Max &Discharge Time
DISCHARGEMODE	MULTIPARAM	0	2.80000E-004	&Discharge Mode	Constant Current	Amp(s)
SAMPLETIME	QUANT	1.00000E-002	Sa&mple Period (s)
DISCHARGESTOPAT1	MULTIPARAM	3	0.00000E+000	Discharge Stop At &1	Voltage < Limit	V
DISCHARGESTOPAT2	MULTIPARAM	0	0.00000E+000	Discharge Stop At &2	None	N/A
AESBHCSELECTOR	TOGGLE	F	Save Both Half Cells
IRCOMP	TOGGLE	F	IR &Measure
EOC	QUANT	0	Open Circuit (V)
SEQUENCER	TOGGLE	TRUE	Run as Sequence
PSTATMODEL	IQUANT	53	Pstat Model
PSTATSECTION	LABEL	IFC5000-01520	Pstat Section
PSTATSERIALNO	LABEL	01520	Pstat Serial Number
CTRLMODE	IQUANT	0	Control Mode
ELECTROMETER	IQUANT	1	RE=0 or CS=1
IESTAB	IQUANT	0	I/E Stability
CASPEED	IQUANT	4	Control Amp Speed
CONVENTION	IQUANT	1	Current Convention
ICHRANGE	IQUANT	2	Ich Range
ICHRANGEMODE	TOGGLE	T	Ich Auto Range
ICHOFFSETENABLE	TOGGLE	F	Ich Offset Enable
ICHOFFSET	QUANT	0	Ich Offset (V)
ICHFILTER	IQUANT	1	Ich Filter
VCHRANGE	IQUANT	2	Vch Range
VCHRANGEMODE	TOGGLE	T	Vch Auto Range
VCHOFFSETENABLE	TOGGLE	F	Vch Offset Enable
VCHOFFSET	QUANT	0	Vch Offset (V)
VCHFILTER	IQUANT	1	Vch Filter
IERANGELOWERLIMIT	IQUANT	9	I/E Range Lower Limit
IERANGEMODE	TOGGLE	F	I/E AutoRange
IERANGE	IQUANT	9	I/E Range
ACHSELECT	IQUANT	1	Ach Select
ACHRANGE	IQUANT	2	Ach Range
ACHOFFSETENABLE	TOGGLE	F	Ach Offset Enable
ACHOFFSET	QUANT	0	Ach Offset (V)
ACHFILTER	IQUANT	1	Ach Filter
CABLEID	IQUANT	14	Cable ID
DCCALDATE	LABEL	5-7-2017	DC Calibration Date
ACCALDATE	LABEL	12/3/2015	AC Calibration Date
FRAMEWORKVERSION	QUANT	7.01	Framework Version
INSTRUMENTVERSION	LABEL	4.00	Instrument Version
CURVE	TABLE	83
	Pt	T	Vf	Im	Vu	Pwr	Sig	Ach	Temp	IERange	Over
	#	s	V	A	V	W	V	V	deg C	#	bits
	0	0.013333	5.39541E-001	-2.79604E-004	0.00000E+000	-1.50858E-004	-1.68088E-001	5.39790E-001	3.57780E+000	9	...........
	1	0.026667	5.08273E-001	-2.78661E-004	0.00000E+000	-1.41636E-004	-1.68088E-001	5.08533E-001	3.57780E+000	9	...........
	2	0.04	4.80099E-001	-2.79263E-004	0.00000E+000	-1.34074E-004	-1.68088E-001	4.80265E-001	3.57780E+000	9	...........
	3	0.053333	4.54086E-001	-2.79002E-004	0.00000E+000	-1.26691E-004	-1.68088E-001	4.54197E-001	3.57780E+000	9	...........
	4	0.066667	4.29886E-001	-2.79559E-004	0.00000E+000	-1.20179E-004	-1.68088E-001	4.29991E-001	3.57780E+000	9	...........
	5	0.08	4.07438E-001	-2.78819E-004	0.00000E+000	-1.13601E-004	-1.68088E-001	4.07529E-001	3.57780E+000	9	...........
	6	0.093333	3.86598E-001	-2.78681E-004	0.00000E+000	-1.07738E-004	-1.68088E-001	3.86681E-001	3.57780E+000	9	...........
	7	0.106667	3.67229E-001	-2.78719E-004	0.00000E+000	-1.02354E-004	-1.68088E-001	3.67316E-001	3.57780E+000	9	...........
	8	0.12	3.49245E-001	-2.78894E-004	0.00000E+000	-9.74021E-005	-1.68088E-001	3.49325E-001	3.57780E+000	9	...........
	9	0.133333	3.32532E-001	-2.79120E-004	0.00000E+000	-9.28163E-005	-1.68088E-001	3.32611E-001	3.57780E+000	9	...........
	10	0.146667	3.17021E-001	-2.79288E-004	0.00000E+000	-8.85399E-005	-1.68088E-001	3.17097E-001	3.57780E+000	9	...........
	11	0.16	3.02613E-001	-2.79974E-004	0.00000E+000	-8.47238E-005	-1.68088E-001	3.02686E-001	3.57780E+000	9	...........
	12	0.173333	2.89254E-001	-2.79820E-004	0.00000E+000	-8.09391E-005	-1.68088E-001	2.89326E-001	3.57780E+000	9	...........
	13	0.186667	2.76797E-001	-2.78956E-004	0.00000E+000	-7.72142E-005	-1.68088E-001	2.76864E-001	3.57780E+000	9	...........
	14	0.2	2.65195E-001	-2.78172E-004	0.00000E+000	-7.37698E-005	-1.68088E-001	2.65261E-001	3.57780E+000	9	...........
	15	0.213333	2.54387E-001	-2.78587E-004	0.00000E+000	-7.08689E-005	-1.68088E-001	2.54453E-001	3.57780E+000	9	...........
	16	0.226667	2.44289E-001	-2.78445E-004	0.00000E+000	-6.80209E-005	-1.68088E-001	2.44346E-001	3.57780E+000	9	...........
	17	0.24	2.34855E-001	-2.79091E-004	0.00000E+000	-6.55460E-005	-1.68088E-001	2.34907E-001	3.57780E+000	9	...........
	18	0.253333	2.26008E-001	-2.78579E-004	0.00000E+000	-6.29610E-005	-1.68088E-001	2.26062E-001	3.57780E+000	9	...........
	19	0.266667	2.17675E-001	-2.78510E-004	0.00000E+000	-6.06246E-005	-1.68088E-001	2.17728E-001	3.57780E+000	9	...........
	20	0.28	2.09844E-001	-2.78994E-004	0.00000E+000	-5.85451E-005	-1.68088E-001	2.09895E-001	3.57780E+000	9	...........
	21	0.293333	2.02481E-001	-2.78323E-004	0.00000E+000	-5.63551E-005	-1.68088E-001	2.02528E-001	3.57780E+000	9	...........
	22	0.306667	1.95453E-001	-2.79074E-004	0.00000E+000	-5.45459E-005	-1.68088E-001	1.95496E-001	3.57780E+000	9	...........
	23	0.32	1.88789E-001	-2.79066E-004	0.00000E+000	-5.26845E-005	-1.68088E-001	1.88833E-001	3.57780E+000	9	...........
	24	0.333333	1.82460E-001	-2.78713E-004	0.00000E+000	-5.08541E-005	-1.68088E-001	1.82506E-001	3.57780E+000	9	...........
	25	0.346667	1.76416E-001	-2.78700E-004	0.00000E+000	-4.91671E-005	-1.68088E-001	1.76458E-001	3.57780E+000	9	...........
	26	0.36	1.70690E-001	-2.78671E-004	0.00000E+000	-4.75663E-005	-1.68088E-001	1.70735E-001	3.57780E+000	9	...........
	27	0.373333	1.65217E-001	-2.79017E-004	0.00000E+000	-4.60983E-005	-1.68088E-001	1.65257E-001	3.57780E+000	9	...........
	28	0.386667	1.59934E-001	-2.79018E-004	0.00000E+000	-4.46244E-005	-1.68088E-001	1.59976E-001	3.57780E+000	9	...........
	29	0.4	1.54875E-001	-2.79295E-004	0.00000E+000	-4.32558E-005	-1.68088E-001	1.54908E-001	3.57780E+000	9	...........
	30	0.413333	1.50020E-001	-2.79044E-004	0.00000E+000	-4.18622E-005	-1.68088E-001	1.50052E-001	3.57780E+000	9	...........
	31	0.426667	1.45383E-001	-2.79014E-004	0.00000E+000	-4.05637E-005	-1.68088E-001	1.45416E-001	3.57780E+000	9	...........
	32	0.44	1.40870E-001	-2.78285E-004	0.00000E+000	-3.92020E-005	-1.68088E-001	1.40901E-001	3.57780E+000	9	...........
	33	0.453333	1.36478E-001	-2.78542E-004	0.00000E+000	-3.80148E-005	-1.68088E-001	1.36508E-001	3.57780E+000	9	...........
	34	0.466667	1.32194E-001	-2.79234E-004	0.00000E+000	-3.69132E-005	-1.68088E-001	1.32223E-001	3.57780E+000	9	...........
	35	0.48	1.28098E-001	-2.78924E-004	0.00000E+000	-3.57296E-005	-1.68088E-001	1.28126E-001	3.57780E+000	9	...........
	36	0.493333	1.24103E-001	-2.78744E-004	0.00000E+000	-3.45931E-005	-1.68088E-001	1.24127E-001	3.57780E+000	9	...........
	37	0.506667	1.20225E-001	-2.79208E-004	0.00000E+000	-3.35680E-005	-1.68088E-001	1.20251E-001	3.57780E+000	9	...........
	38	0.52	1.16436E-001	-2.79241E-004	0.00000E+000	-3.25136E-005	-1.68088E-001	1.16461E-001	3.57780E+000	9	...........
	39	0.533333	1.12770E-001	-2.78984E-004	0.00000E+000	-3.14612E-005	-1.68088E-001	1.12799E-001	3.57780E+000	9	...........
	40	0.546667	1.09160E-001	-2.79477E-004	0.00000E+000	-3.05078E-005	-1.68088E-001	1.09186E-001	3.57780E+000	9	...........
	41	0.56	1.05643E-001	-2.79914E-004	0.00000E+000	-2.95710E-005	-1.68088E-001	1.05668E-001	3.57780E+000	9	...........
	42	0.573333	1.02172E-001	-2.79015E-004	0.00000E+000	-2.85075E-005	-1.68088E-001	1.02199E-001	3.57780E+000	9	...........
	43	0.586667	9.88049E-002	-2.78954E-004	0.00000E+000	-2.75620E-005	-1.68088E-001	9.88336E-002	3.57780E+000	9	...........
	44	0.6	9.55573E-002	-2.79666E-004	0.00000E+000	-2.67241E-005	-1.68088E-001	9.55795E-002	3.57780E+000	9	...........
	45	0.613333	9.23418E-002	-2.79509E-004	0.00000E+000	-2.58104E-005	-1.68088E-001	9.23628E-002	3.57780E+000	9	...........
	46	0.626667	8.91907E-002	-2.78497E-004	0.00000E+000	-2.48393E-005	-1.68088E-001	8.92102E-002	3.57780E+000	9	...........
	47	0.64	8.60771E-002	-2.78569E-004	0.00000E+000	-2.39784E-005	-1.68088E-001	8.60932E-002	3.57780E+000	9	...........
	48	0.653333	8.30464E-002	-2.78833E-004	0.00000E+000	-2.31561E-005	-1.68088E-001	8.30684E-002	3.57780E+000	9	...........
	49	0.666667	8.01302E-002	-2.78439E-004	0.00000E+000	-2.23114E-005	-1.68088E-001	8.01429E-002	3.57780E+000	9	...........
	50	0.68	7.71793E-002	-2.78578E-004	0.00000E+000	-2.15005E-005	-1.68088E-001	7.71923E-002	3.57780E+000	9	...........
	51	0.693333	7.42464E-002	-2.77920E-004	0.00000E+000	-2.06345E-005	-1.68088E-001	7.42611E-002	3.57780E+000	9	...........
	52	0.706667	7.14168E-002	-2.78509E-004	0.00000E+000	-1.98902E-005	-1.68088E-001	7.14269E-002	3.57780E+000	9	...........
	53	0.72	6.86156E-002	-2.78772E-004	0.00000E+000	-1.91281E-005	-1.68088E-001	6.86261E-002	3.57780E+000	9	...........
	54	0.733333	6.58711E-002	-2.78597E-004	0.00000E+000	-1.83515E-005	-1.68088E-001	6.58840E-002	3.57780E+000	9	...........
	55	0.746667	6.31450E-002	-2.79273E-004	0.00000E+000	-1.76347E-005	-1.68088E-001	6.31554E-002	3.57780E+000	9	...........
	56	0.76	6.04387E-002	-2.78561E-004	0.00000E+000	-1.68359E-005	-1.68088E-001	6.04505E-002	3.57780E+000	9	...........
	57	0.773333	5.78059E-002	-2.79338E-004	0.00000E+000	-1.61474E-005	-1.68088E-001	5.78119E-002	3.57780E+000	9	...........
	58	0.786667	5.51540E-002	-2.78722E-004	0.00000E+000	-1.53726E-005	-1.68088E-001	5.51586E-002	3.57780E+000	9	...........
	59	0.8	5.25122E-002	-2.79368E-004	0.00000E+000	-1.46702E-005	-1.68088E-001	5.25240E-002	3.57780E+000	9	...........
	60	0.813333	4.99366E-002	-2.77986E-004	0.00000E+000	-1.38817E-005	-1.68088E-001	4.99515E-002	3.57780E+000	9	...........
	61	0.826667	4.74153E-002	-2.79499E-004	0.00000E+000	-1.32525E-005	-1.68088E-001	4.74189E-002	3.57780E+000	9	...........
	62	0.84	4.48584E-002	-2.78032E-004	0.00000E+000	-1.24721E-005	-1.68088E-001	4.48655E-002	3.57780E+000	9	...........
	63	0.853333	4.23299E-002	-2.78198E-004	0.00000E+000	-1.17761E-005	-1.68088E-001	4.23359E-002	3.57780E+000	9	...........
	64	0.866667	3.98576E-002	-2.78911E-004	0.00000E+000	-1.11168E-005	-1.68088E-001	3.98618E-002	3.57780E+000	9	...........
	65	0.88	3.74302E-002	-2.78807E-004	0.00000E+000	-1.04358E-005	-1.68088E-001	3.74289E-002	3.57780E+000	9	...........
	66	0.893333	3.50159E-002	-2.78598E-004	0.00000E+000	-9.75534E-006	-1.68088E-001	3.50159E-002	3.57780E+000	9	...........
	67	0.906667	3.26023E-002	-2.79170E-004	0.00000E+000	-9.10157E-006	-1.68088E-001	3.26027E-002	3.57780E+000	9	...........
	68	0.92	3.02387E-002	-2.78803E-004	0.00000E+000	-8.43064E-006	-1.68088E-001	3.02402E-002	3.57818E+000	9	...........
	69	0.933333	2.78974E-002	-2.79367E-004	0.00000E+000	-7.79362E-006	-1.68088E-001	2.78944E-002	3.57930E+000	9	...........
	70	0.946667	2.55990E-002	-2.78850E-004	0.00000E+000	-7.13828E-006	-1.68088E-001	2.55935E-002	3.57930E+000	9	...........
	71	0.96	2.33212E-002	-2.79244E-004	0.00000E+000	-6.51231E-006	-1.68088E-001	2.33186E-002	3.57930E+000	9	...........
	72	0.97333	2.10792E-002	-2.79801E-004	0.00000E+000	-5.89799E-006	-1.68088E-001	2.10742E-002	3.57930E+000	9	...........
	73	0.98667	1.88597E-002	-2.78856E-004	0.00000E+000	-5.25915E-006	-1.68088E-001	1.88533E-002	3.57930E+000	9	...........
	74	1	1.66281E-002	-2.78484E-004	0.00000E+000	-4.63066E-006	-1.68088E-001	1.66202E-002	3.57930E+000	9	...........
	75	1.01333	1.44057E-002	-2.78955E-004	0.00000E+000	-4.01855E-006	-1.68088E-001	1.43963E-002	3.57930E+000	9	...........
	76	1.02667	1.22532E-002	-2.79074E-004	0.00000E+000	-3.41954E-006	-1.68088E-001	1.22410E-002	3.57930E+000	9	...........
	77	1.04	1.01338E-002	-2.78989E-004	0.00000E+000	-2.82722E-006	-1.68088E-001	1.01219E-002	3.57930E+000	9	...........
	78	1.05333	8.00998E-003	-2.78850E-004	0.00000E+000	-2.23358E-006	-1.68088E-001	7.99681E-003	3.57930E+000	9	...........
	79	1.06667	5.90418E-003	-2.79728E-004	0.00000E+000	-1.65157E-006	-1.68088E-001	5.88561E-003	3.57930E+000	9	...........
	80	1.08	3.81677E-003	-2.79504E-004	0.00000E+000	-1.06680E-006	-1.68088E-001	3.79523E-003	3.57930E+000	9	...........
	81	1.09333	1.71403E-003	-2.78973E-004	0.00000E+000	-4.78168E-007	-1.68088E-001	1.69534E-003	3.57930E+000	9	...........
	82	1.1	1.31360E-004	-2.78762E-004	0.00000E+000	-3.66183E-008	-1.68088E-001	1.13605E-004	3.57930E+000	9	...........
STARTTIMEOFFSET	QUANT	814.3052	Start Time Offset (s)
