EXPLAIN
TAG	PWR800_DISCHARGE
TITLE	LABEL	PWR Cyclic Charge Discharge (Cell) - Discharge Step	Test &Identifier
DATE	LABEL	7-7-2017	Date
TIME	LABEL	16:10:18	Time
NOTES	NOTES	3	&Notes...
	supercap test cell
	2.8mg
	6M KOH
PSTAT	PSTAT	IFC5000-01520	Potentiostat
CAPACITY	QUANT	1.00000E-003	Capacity (A-hr)
CELLTYPE	SELECTOR	1	&Cell Type
WORKINGCONNECTION	SELECTOR	0	&Working Lead
MAXDISCHARGETIME	VARIABLEANDUNITS	1.00000E+002	s	1.00000E+002	second(s)	Max &Discharge Time
DISCHARGEMODE	MULTIPARAM	0	2.80000E-004	&Discharge Mode	Constant Current	Amp(s)
SAMPLETIME	QUANT	1.00000E-002	Sa&mple Period (s)
DISCHARGESTOPAT1	MULTIPARAM	3	0.00000E+000	Discharge Stop At &1	Voltage < Limit	V
DISCHARGESTOPAT2	MULTIPARAM	0	0.00000E+000	Discharge Stop At &2	None	N/A
AESBHCSELECTOR	TOGGLE	F	Save Both Half Cells
IRCOMP	TOGGLE	F	IR &Measure
EOC	QUANT	0	Open Circuit (V)
SEQUENCER	TOGGLE	TRUE	Run as Sequence
PSTATMODEL	IQUANT	53	Pstat Model
PSTATSECTION	LABEL	IFC5000-01520	Pstat Section
PSTATSERIALNO	LABEL	01520	Pstat Serial Number
CTRLMODE	IQUANT	0	Control Mode
ELECTROMETER	IQUANT	1	RE=0 or CS=1
IESTAB	IQUANT	0	I/E Stability
CASPEED	IQUANT	4	Control Amp Speed
CONVENTION	IQUANT	1	Current Convention
ICHRANGE	IQUANT	2	Ich Range
ICHRANGEMODE	TOGGLE	T	Ich Auto Range
ICHOFFSETENABLE	TOGGLE	F	Ich Offset Enable
ICHOFFSET	QUANT	0	Ich Offset (V)
ICHFILTER	IQUANT	1	Ich Filter
VCHRANGE	IQUANT	2	Vch Range
VCHRANGEMODE	TOGGLE	T	Vch Auto Range
VCHOFFSETENABLE	TOGGLE	F	Vch Offset Enable
VCHOFFSET	QUANT	0	Vch Offset (V)
VCHFILTER	IQUANT	1	Vch Filter
IERANGELOWERLIMIT	IQUANT	9	I/E Range Lower Limit
IERANGEMODE	TOGGLE	F	I/E AutoRange
IERANGE	IQUANT	9	I/E Range
ACHSELECT	IQUANT	1	Ach Select
ACHRANGE	IQUANT	2	Ach Range
ACHOFFSETENABLE	TOGGLE	F	Ach Offset Enable
ACHOFFSET	QUANT	0	Ach Offset (V)
ACHFILTER	IQUANT	1	Ach Filter
CABLEID	IQUANT	14	Cable ID
DCCALDATE	LABEL	5-7-2017	DC Calibration Date
ACCALDATE	LABEL	12/3/2015	AC Calibration Date
FRAMEWORKVERSION	QUANT	7.01	Framework Version
INSTRUMENTVERSION	LABEL	4.00	Instrument Version
CURVE	TABLE	60
	Pt	T	Vf	Im	Vu	Pwr	Sig	Ach	Temp	IERange	Over
	#	s	V	A	V	W	V	V	deg C	#	bits
	0	0.013333	5.06347E-001	-2.78469E-004	0.00000E+000	-1.41002E-004	-1.68088E-001	5.06613E-001	3.57730E+000	9	...........
	1	0.026667	4.73658E-001	-2.78348E-004	0.00000E+000	-1.31842E-004	-1.68088E-001	4.73810E-001	3.57730E+000	9	...........
	2	0.04	4.43677E-001	-2.78547E-004	0.00000E+000	-1.23585E-004	-1.68088E-001	4.43783E-001	3.57730E+000	9	...........
	3	0.053333	4.15928E-001	-2.79549E-004	0.00000E+000	-1.16272E-004	-1.68088E-001	4.16033E-001	3.57730E+000	9	...........
	4	0.066667	3.90168E-001	-2.78183E-004	0.00000E+000	-1.08538E-004	-1.68088E-001	3.90256E-001	3.57730E+000	9	...........
	5	0.08	3.66216E-001	-2.79716E-004	0.00000E+000	-1.02436E-004	-1.68088E-001	3.66306E-001	3.57730E+000	9	...........
	6	0.093333	3.43989E-001	-2.78427E-004	0.00000E+000	-9.57757E-005	-1.68088E-001	3.44072E-001	3.57730E+000	9	...........
	7	0.106667	3.23352E-001	-2.78697E-004	0.00000E+000	-9.01171E-005	-1.68088E-001	3.23431E-001	3.57730E+000	9	...........
	8	0.12	3.04210E-001	-2.79097E-004	0.00000E+000	-8.49040E-005	-1.68088E-001	3.04282E-001	3.57730E+000	9	...........
	9	0.133333	2.86456E-001	-2.80309E-004	0.00000E+000	-8.02961E-005	-1.68088E-001	2.86530E-001	3.57730E+000	9	...........
	10	0.146667	2.70009E-001	-2.78716E-004	0.00000E+000	-7.52556E-005	-1.68088E-001	2.70078E-001	3.57730E+000	9	...........
	11	0.16	2.54749E-001	-2.79001E-004	0.00000E+000	-7.10751E-005	-1.68088E-001	2.54813E-001	3.57730E+000	9	...........
	12	0.173333	2.40622E-001	-2.78925E-004	0.00000E+000	-6.71154E-005	-1.68088E-001	2.40679E-001	3.57730E+000	9	...........
	13	0.186667	2.27500E-001	-2.78439E-004	0.00000E+000	-6.33449E-005	-1.68088E-001	2.27552E-001	3.57730E+000	9	...........
	14	0.2	2.15317E-001	-2.77819E-004	0.00000E+000	-5.98191E-005	-1.68088E-001	2.15371E-001	3.57730E+000	9	...........
	15	0.213333	2.03960E-001	-2.79170E-004	0.00000E+000	-5.69395E-005	-1.68088E-001	2.04012E-001	3.57730E+000	9	...........
	16	0.226667	1.93407E-001	-2.79314E-004	0.00000E+000	-5.40212E-005	-1.68088E-001	1.93458E-001	3.57730E+000	9	...........
	17	0.24	1.83611E-001	-2.78216E-004	0.00000E+000	-5.10837E-005	-1.68088E-001	1.83656E-001	3.57730E+000	9	...........
	18	0.253333	1.74409E-001	-2.79297E-004	0.00000E+000	-4.87119E-005	-1.68088E-001	1.74449E-001	3.57730E+000	9	...........
	19	0.266667	1.65786E-001	-2.78119E-004	0.00000E+000	-4.61081E-005	-1.68088E-001	1.65826E-001	3.57730E+000	9	...........
	20	0.28	1.57701E-001	-2.79076E-004	0.00000E+000	-4.40105E-005	-1.68088E-001	1.57741E-001	3.57730E+000	9	...........
	21	0.293333	1.50087E-001	-2.79730E-004	0.00000E+000	-4.19838E-005	-1.68088E-001	1.50124E-001	3.57730E+000	9	...........
	22	0.306667	1.42899E-001	-2.79297E-004	0.00000E+000	-3.99111E-005	-1.68088E-001	1.42934E-001	3.57730E+000	9	...........
	23	0.32	1.36137E-001	-2.78689E-004	0.00000E+000	-3.79400E-005	-1.68088E-001	1.36170E-001	3.57730E+000	9	...........
	24	0.333333	1.29728E-001	-2.79619E-004	0.00000E+000	-3.62745E-005	-1.68088E-001	1.29759E-001	3.57730E+000	9	...........
	25	0.346667	1.23632E-001	-2.78917E-004	0.00000E+000	-3.44830E-005	-1.68088E-001	1.23662E-001	3.57730E+000	9	...........
	26	0.36	1.17822E-001	-2.78213E-004	0.00000E+000	-3.27796E-005	-1.68088E-001	1.17853E-001	3.57730E+000	9	...........
	27	0.373333	1.12299E-001	-2.78333E-004	0.00000E+000	-3.12566E-005	-1.68088E-001	1.12332E-001	3.57730E+000	9	...........
	28	0.386667	1.07001E-001	-2.79313E-004	0.00000E+000	-2.98867E-005	-1.68088E-001	1.07026E-001	3.57730E+000	9	...........
	29	0.4	1.01916E-001	-2.79462E-004	0.00000E+000	-2.84817E-005	-1.68088E-001	1.01944E-001	3.57730E+000	9	...........
	30	0.413333	9.70844E-002	-2.78774E-004	0.00000E+000	-2.70646E-005	-1.68088E-001	9.71165E-002	3.57730E+000	9	...........
	31	0.426667	9.24688E-002	-2.78980E-004	0.00000E+000	-2.57970E-005	-1.68088E-001	9.24992E-002	3.57730E+000	9	...........
	32	0.44	8.79701E-002	-2.77927E-004	0.00000E+000	-2.44493E-005	-1.68088E-001	8.79940E-002	3.57730E+000	9	...........
	33	0.453333	8.35938E-002	-2.78832E-004	0.00000E+000	-2.33086E-005	-1.68088E-001	8.36160E-002	3.57730E+000	9	...........
	34	0.466667	7.93945E-002	-2.79649E-004	0.00000E+000	-2.22026E-005	-1.68088E-001	7.94129E-002	3.57730E+000	9	...........
	35	0.48	7.52902E-002	-2.79103E-004	0.00000E+000	-2.10137E-005	-1.68088E-001	7.53052E-002	3.57730E+000	9	...........
	36	0.493333	7.12960E-002	-2.79693E-004	0.00000E+000	-1.99410E-005	-1.68088E-001	7.13096E-002	3.57730E+000	9	...........
	37	0.506667	6.74563E-002	-2.79507E-004	0.00000E+000	-1.88545E-005	-1.68088E-001	6.74698E-002	3.57730E+000	9	...........
	38	0.52	6.37170E-002	-2.79083E-004	0.00000E+000	-1.77824E-005	-1.68088E-001	6.37319E-002	3.57730E+000	9	...........
	39	0.533333	6.01006E-002	-2.79036E-004	0.00000E+000	-1.67703E-005	-1.68088E-001	6.01157E-002	3.57730E+000	9	...........
	40	0.546667	5.65338E-002	-2.80259E-004	0.00000E+000	-1.58441E-005	-1.68088E-001	5.65458E-002	3.57730E+000	9	...........
	41	0.56	5.30431E-002	-2.77828E-004	0.00000E+000	-1.47368E-005	-1.68088E-001	5.30511E-002	3.57730E+000	9	...........
	42	0.573333	4.96577E-002	-2.78945E-004	0.00000E+000	-1.38517E-005	-1.68088E-001	4.96622E-002	3.57730E+000	9	...........
	43	0.586667	4.63439E-002	-2.79565E-004	0.00000E+000	-1.29561E-005	-1.68088E-001	4.63529E-002	3.57730E+000	9	...........
	44	0.6	4.31020E-002	-2.78694E-004	0.00000E+000	-1.20123E-005	-1.68088E-001	4.31145E-002	3.57730E+000	9	...........
	45	0.613333	3.99308E-002	-2.80249E-004	0.00000E+000	-1.11906E-005	-1.68088E-001	3.99434E-002	3.57730E+000	9	...........
	46	0.626667	3.68194E-002	-2.78422E-004	0.00000E+000	-1.02513E-005	-1.68088E-001	3.68227E-002	3.57730E+000	9	...........
	47	0.64	3.37551E-002	-2.78845E-004	0.00000E+000	-9.41243E-006	-1.68088E-001	3.37592E-002	3.57730E+000	9	...........
	48	0.653333	3.07416E-002	-2.79377E-004	0.00000E+000	-8.58851E-006	-1.68088E-001	3.07488E-002	3.57730E+000	9	...........
	49	0.666667	2.77586E-002	-2.78959E-004	0.00000E+000	-7.74353E-006	-1.68088E-001	2.77604E-002	3.57730E+000	9	...........
	50	0.68	2.48391E-002	-2.78826E-004	0.00000E+000	-6.92578E-006	-1.68088E-001	2.48387E-002	3.57730E+000	9	...........
	51	0.693333	2.19733E-002	-2.79084E-004	0.00000E+000	-6.13239E-006	-1.68088E-001	2.19735E-002	3.57730E+000	9	...........
	52	0.706667	1.91995E-002	-2.78732E-004	0.00000E+000	-5.35152E-006	-1.68088E-001	1.92000E-002	3.57730E+000	9	...........
	53	0.72	1.64180E-002	-2.79438E-004	0.00000E+000	-4.58782E-006	-1.68088E-001	1.64109E-002	3.57730E+000	9	...........
	54	0.733333	1.36898E-002	-2.79523E-004	0.00000E+000	-3.82661E-006	-1.68088E-001	1.36852E-002	3.57730E+000	9	...........
	55	0.746667	1.09891E-002	-2.79332E-004	0.00000E+000	-3.06961E-006	-1.68088E-001	1.09797E-002	3.57730E+000	9	...........
	56	0.76	8.33147E-003	-2.79256E-004	0.00000E+000	-2.32662E-006	-1.68088E-001	8.31719E-003	3.57730E+000	9	...........
	57	0.773333	5.72346E-003	-2.79142E-004	0.00000E+000	-1.59766E-006	-1.68088E-001	5.71172E-003	3.57730E+000	9	...........
	58	0.786667	3.13077E-003	-2.80025E-004	0.00000E+000	-8.76693E-007	-1.68088E-001	3.11511E-003	3.57730E+000	9	...........
	59	0.798333	7.73704E-004	-2.79458E-004	0.00000E+000	-2.16217E-007	-1.68088E-001	7.56163E-004	3.57730E+000	9	...........
STARTTIMEOFFSET	QUANT	1535.641	Start Time Offset (s)
