EXPLAIN
TAG	PWR800_DISCHARGE
TITLE	LABEL	PWR Cyclic Charge Discharge (Cell) - Discharge Step	Test &Identifier
DATE	LABEL	7-7-2017	Date
TIME	LABEL	16:04:00	Time
NOTES	NOTES	3	&Notes...
	supercap test cell
	2.8mg
	6M KOH
PSTAT	PSTAT	IFC5000-01520	Potentiostat
CAPACITY	QUANT	1.00000E-003	Capacity (A-hr)
CELLTYPE	SELECTOR	1	&Cell Type
WORKINGCONNECTION	SELECTOR	0	&Working Lead
MAXDISCHARGETIME	VARIABLEANDUNITS	1.00000E+002	s	1.00000E+002	second(s)	Max &Discharge Time
DISCHARGEMODE	MULTIPARAM	0	2.80000E-004	&Discharge Mode	Constant Current	Amp(s)
SAMPLETIME	QUANT	1.00000E-002	Sa&mple Period (s)
DISCHARGESTOPAT1	MULTIPARAM	3	0.00000E+000	Discharge Stop At &1	Voltage < Limit	V
DISCHARGESTOPAT2	MULTIPARAM	0	0.00000E+000	Discharge Stop At &2	None	N/A
AESBHCSELECTOR	TOGGLE	F	Save Both Half Cells
IRCOMP	TOGGLE	F	IR &Measure
EOC	QUANT	0	Open Circuit (V)
SEQUENCER	TOGGLE	TRUE	Run as Sequence
PSTATMODEL	IQUANT	53	Pstat Model
PSTATSECTION	LABEL	IFC5000-01520	Pstat Section
PSTATSERIALNO	LABEL	01520	Pstat Serial Number
CTRLMODE	IQUANT	0	Control Mode
ELECTROMETER	IQUANT	1	RE=0 or CS=1
IESTAB	IQUANT	0	I/E Stability
CASPEED	IQUANT	4	Control Amp Speed
CONVENTION	IQUANT	1	Current Convention
ICHRANGE	IQUANT	2	Ich Range
ICHRANGEMODE	TOGGLE	T	Ich Auto Range
ICHOFFSETENABLE	TOGGLE	F	Ich Offset Enable
ICHOFFSET	QUANT	0	Ich Offset (V)
ICHFILTER	IQUANT	1	Ich Filter
VCHRANGE	IQUANT	2	Vch Range
VCHRANGEMODE	TOGGLE	T	Vch Auto Range
VCHOFFSETENABLE	TOGGLE	F	Vch Offset Enable
VCHOFFSET	QUANT	0	Vch Offset (V)
VCHFILTER	IQUANT	1	Vch Filter
IERANGELOWERLIMIT	IQUANT	9	I/E Range Lower Limit
IERANGEMODE	TOGGLE	F	I/E AutoRange
IERANGE	IQUANT	9	I/E Range
ACHSELECT	IQUANT	1	Ach Select
ACHRANGE	IQUANT	2	Ach Range
ACHOFFSETENABLE	TOGGLE	F	Ach Offset Enable
ACHOFFSET	QUANT	0	Ach Offset (V)
ACHFILTER	IQUANT	1	Ach Filter
CABLEID	IQUANT	14	Cable ID
DCCALDATE	LABEL	5-7-2017	DC Calibration Date
ACCALDATE	LABEL	12/3/2015	AC Calibration Date
FRAMEWORKVERSION	QUANT	7.01	Framework Version
INSTRUMENTVERSION	LABEL	4.00	Instrument Version
CURVE	TABLE	66
	Pt	T	Vf	Im	Vu	Pwr	Sig	Ach	Temp	IERange	Over
	#	s	V	A	V	W	V	V	deg C	#	bits
	0	0.013333	5.18403E-001	-2.78837E-004	0.00000E+000	-1.44550E-004	-1.68088E-001	5.18679E-001	3.57880E+000	9	...........
	1	0.026667	4.86009E-001	-2.78311E-004	0.00000E+000	-1.35262E-004	-1.68088E-001	4.86217E-001	3.57880E+000	9	...........
	2	0.04	4.56522E-001	-2.77801E-004	0.00000E+000	-1.26822E-004	-1.68088E-001	4.56636E-001	3.57880E+000	9	...........
	3	0.053333	4.29092E-001	-2.78155E-004	0.00000E+000	-1.19354E-004	-1.68088E-001	4.29201E-001	3.57880E+000	9	...........
	4	0.066667	4.03643E-001	-2.79723E-004	0.00000E+000	-1.12908E-004	-1.68088E-001	4.03740E-001	3.57880E+000	9	...........
	5	0.08	3.79962E-001	-2.77704E-004	0.00000E+000	-1.05517E-004	-1.68088E-001	3.80058E-001	3.57880E+000	9	...........
	6	0.093333	3.57935E-001	-2.79431E-004	0.00000E+000	-1.00018E-004	-1.68088E-001	3.58028E-001	3.57880E+000	9	...........
	7	0.106667	3.37470E-001	-2.79166E-004	0.00000E+000	-9.42100E-005	-1.68088E-001	3.37546E-001	3.57880E+000	9	...........
	8	0.12	3.18462E-001	-2.78709E-004	0.00000E+000	-8.87584E-005	-1.68088E-001	3.18548E-001	3.57880E+000	9	...........
	9	0.133333	3.00811E-001	-2.79200E-004	0.00000E+000	-8.39865E-005	-1.68088E-001	3.00883E-001	3.57880E+000	9	...........
	10	0.146667	2.84431E-001	-2.78839E-004	0.00000E+000	-7.93104E-005	-1.68088E-001	2.84502E-001	3.57880E+000	9	...........
	11	0.16	2.69259E-001	-2.77454E-004	0.00000E+000	-7.47069E-005	-1.68088E-001	2.69332E-001	3.57880E+000	9	...........
	12	0.173333	2.55179E-001	-2.78562E-004	0.00000E+000	-7.10833E-005	-1.68088E-001	2.55247E-001	3.57880E+000	9	...........
	13	0.186667	2.42079E-001	-2.78934E-004	0.00000E+000	-6.75241E-005	-1.68088E-001	2.42140E-001	3.57880E+000	9	...........
	14	0.2	2.29877E-001	-2.79655E-004	0.00000E+000	-6.42864E-005	-1.68088E-001	2.29935E-001	3.57880E+000	9	...........
	15	0.213333	2.18549E-001	-2.78636E-004	0.00000E+000	-6.08957E-005	-1.68088E-001	2.18608E-001	3.57880E+000	9	...........
	16	0.226667	2.08032E-001	-2.79239E-004	0.00000E+000	-5.80906E-005	-1.68088E-001	2.08087E-001	3.57880E+000	9	...........
	17	0.24	1.98223E-001	-2.78575E-004	0.00000E+000	-5.52201E-005	-1.68088E-001	1.98276E-001	3.57880E+000	9	...........
	18	0.253333	1.89024E-001	-2.78576E-004	0.00000E+000	-5.26576E-005	-1.68088E-001	1.89071E-001	3.57880E+000	9	...........
	19	0.266667	1.80407E-001	-2.78211E-004	0.00000E+000	-5.01912E-005	-1.68088E-001	1.80456E-001	3.57880E+000	9	...........
	20	0.28	1.72283E-001	-2.79781E-004	0.00000E+000	-4.82016E-005	-1.68088E-001	1.72330E-001	3.57880E+000	9	...........
	21	0.293333	1.64625E-001	-2.78537E-004	0.00000E+000	-4.58543E-005	-1.68088E-001	1.64671E-001	3.57880E+000	9	...........
	22	0.306667	1.57384E-001	-2.77989E-004	0.00000E+000	-4.37511E-005	-1.68088E-001	1.57423E-001	3.57880E+000	9	...........
	23	0.32	1.50540E-001	-2.79389E-004	0.00000E+000	-4.20593E-005	-1.68088E-001	1.50580E-001	3.57880E+000	9	...........
	24	0.333333	1.44116E-001	-2.78661E-004	0.00000E+000	-4.01594E-005	-1.68088E-001	1.44148E-001	3.57880E+000	9	...........
	25	0.346667	1.38026E-001	-2.78477E-004	0.00000E+000	-3.84371E-005	-1.68088E-001	1.38064E-001	3.57880E+000	9	...........
	26	0.36	1.32187E-001	-2.79356E-004	0.00000E+000	-3.69273E-005	-1.68088E-001	1.32223E-001	3.57880E+000	9	...........
	27	0.373333	1.26606E-001	-2.79098E-004	0.00000E+000	-3.53354E-005	-1.68088E-001	1.26635E-001	3.57880E+000	9	...........
	28	0.386667	1.21320E-001	-2.79089E-004	0.00000E+000	-3.38591E-005	-1.68088E-001	1.21351E-001	3.57880E+000	9	...........
	29	0.4	1.16275E-001	-2.79788E-004	0.00000E+000	-3.25323E-005	-1.68088E-001	1.16309E-001	3.57880E+000	9	...........
	30	0.413333	1.11398E-001	-2.78248E-004	0.00000E+000	-3.09964E-005	-1.68088E-001	1.11433E-001	3.57880E+000	9	...........
	31	0.426667	1.06712E-001	-2.78817E-004	0.00000E+000	-2.97531E-005	-1.68088E-001	1.06736E-001	3.57880E+000	9	...........
	32	0.44	1.02167E-001	-2.78646E-004	0.00000E+000	-2.84683E-005	-1.68088E-001	1.02196E-001	3.57880E+000	9	...........
	33	0.453333	9.77301E-002	-2.78976E-004	0.00000E+000	-2.72643E-005	-1.68088E-001	9.77536E-002	3.57880E+000	9	...........
	34	0.466667	9.34752E-002	-2.79159E-004	0.00000E+000	-2.60945E-005	-1.68088E-001	9.34991E-002	3.57880E+000	9	...........
	35	0.48	8.93357E-002	-2.79981E-004	0.00000E+000	-2.50123E-005	-1.68088E-001	8.93564E-002	3.57880E+000	9	...........
	36	0.493333	8.52998E-002	-2.79293E-004	0.00000E+000	-2.38236E-005	-1.68088E-001	8.53261E-002	3.57880E+000	9	...........
	37	0.506667	8.13712E-002	-2.78591E-004	0.00000E+000	-2.26692E-005	-1.68088E-001	8.13934E-002	3.57880E+000	9	...........
	38	0.52	7.75881E-002	-2.78608E-004	0.00000E+000	-2.16167E-005	-1.68088E-001	7.76086E-002	3.57880E+000	9	...........
	39	0.533333	7.38801E-002	-2.78627E-004	0.00000E+000	-2.05850E-005	-1.68088E-001	7.38981E-002	3.57880E+000	9	...........
	40	0.546667	7.02616E-002	-2.79513E-004	0.00000E+000	-1.96390E-005	-1.68088E-001	7.02817E-002	3.57775E+000	9	...........
	41	0.56	6.67476E-002	-2.78896E-004	0.00000E+000	-1.86156E-005	-1.68088E-001	6.67607E-002	3.57740E+000	9	...........
	42	0.573333	6.33233E-002	-2.79295E-004	0.00000E+000	-1.76859E-005	-1.68088E-001	6.33356E-002	3.57740E+000	9	...........
	43	0.586667	5.99654E-002	-2.79012E-004	0.00000E+000	-1.67311E-005	-1.68088E-001	5.99850E-002	3.57740E+000	9	...........
	44	0.6	5.66516E-002	-2.79488E-004	0.00000E+000	-1.58334E-005	-1.68088E-001	5.66660E-002	3.57740E+000	9	...........
	45	0.613333	5.34116E-002	-2.79163E-004	0.00000E+000	-1.49105E-005	-1.68088E-001	5.34231E-002	3.57740E+000	9	...........
	46	0.626667	5.02248E-002	-2.79183E-004	0.00000E+000	-1.40219E-005	-1.68088E-001	5.02432E-002	3.57740E+000	9	...........
	47	0.64	4.71762E-002	-2.77979E-004	0.00000E+000	-1.31140E-005	-1.68088E-001	4.71831E-002	3.57740E+000	9	...........
	48	0.653333	4.41200E-002	-2.79551E-004	0.00000E+000	-1.23338E-005	-1.68088E-001	4.41328E-002	3.57740E+000	9	...........
	49	0.666667	4.11343E-002	-2.79176E-004	0.00000E+000	-1.14837E-005	-1.68088E-001	4.11446E-002	3.57740E+000	9	...........
	50	0.68	3.82288E-002	-2.78657E-004	0.00000E+000	-1.06527E-005	-1.68088E-001	3.82345E-002	3.57740E+000	9	...........
	51	0.693333	3.53254E-002	-2.78916E-004	0.00000E+000	-9.85281E-006	-1.68088E-001	3.53355E-002	3.57740E+000	9	...........
	52	0.706667	3.25138E-002	-2.79614E-004	0.00000E+000	-9.09130E-006	-1.68088E-001	3.25177E-002	3.57740E+000	9	...........
	53	0.72	2.97365E-002	-2.79452E-004	0.00000E+000	-8.30994E-006	-1.68088E-001	2.97450E-002	3.57740E+000	9	...........
	54	0.733333	2.70462E-002	-2.78033E-004	0.00000E+000	-7.51975E-006	-1.68088E-001	2.70487E-002	3.57740E+000	9	...........
	55	0.746667	2.43548E-002	-2.79351E-004	0.00000E+000	-6.80355E-006	-1.68088E-001	2.43528E-002	3.57740E+000	9	...........
	56	0.76	2.17110E-002	-2.78595E-004	0.00000E+000	-6.04856E-006	-1.68088E-001	2.17083E-002	3.57740E+000	9	...........
	57	0.773333	1.90721E-002	-2.78119E-004	0.00000E+000	-5.30430E-006	-1.68088E-001	1.90701E-002	3.57740E+000	9	...........
	58	0.786667	1.64620E-002	-2.79306E-004	0.00000E+000	-4.59795E-006	-1.68088E-001	1.64579E-002	3.57740E+000	9	...........
	59	0.8	1.38873E-002	-2.78061E-004	0.00000E+000	-3.86152E-006	-1.68088E-001	1.38812E-002	3.57740E+000	9	...........
	60	0.813333	1.13630E-002	-2.79236E-004	0.00000E+000	-3.17295E-006	-1.68088E-001	1.13571E-002	3.57740E+000	9	...........
	61	0.826667	8.84596E-003	-2.79129E-004	0.00000E+000	-2.46917E-006	-1.68088E-001	8.83666E-003	3.57740E+000	9	...........
	62	0.84	6.37180E-003	-2.79242E-004	0.00000E+000	-1.77927E-006	-1.68088E-001	6.35998E-003	3.57740E+000	9	...........
	63	0.853333	3.96395E-003	-2.78684E-004	0.00000E+000	-1.10469E-006	-1.68088E-001	3.95076E-003	3.57740E+000	9	...........
	64	0.866667	1.59210E-003	-2.78969E-004	0.00000E+000	-4.44145E-007	-1.68088E-001	1.57545E-003	3.57740E+000	9	...........
	65	0.87	1.09687E-004	-2.78489E-004	0.00000E+000	-3.05465E-008	-1.68088E-001	9.33582E-005	3.57740E+000	9	...........
STARTTIMEOFFSET	QUANT	1277.266	Start Time Offset (s)
