EXPLAIN
TAG	PWR800_DISCHARGE
TITLE	LABEL	PWR Cyclic Charge Discharge (Cell) - Discharge Step	Test &Identifier
DATE	LABEL	7-7-2017	Date
TIME	LABEL	16:12:24	Time
NOTES	NOTES	3	&Notes...
	supercap test cell
	2.8mg
	6M KOH
PSTAT	PSTAT	IFC5000-01520	Potentiostat
CAPACITY	QUANT	1.00000E-003	Capacity (A-hr)
CELLTYPE	SELECTOR	1	&Cell Type
WORKINGCONNECTION	SELECTOR	0	&Working Lead
MAXDISCHARGETIME	VARIABLEANDUNITS	1.00000E+002	s	1.00000E+002	second(s)	Max &Discharge Time
DISCHARGEMODE	MULTIPARAM	0	2.80000E-004	&Discharge Mode	Constant Current	Amp(s)
SAMPLETIME	QUANT	1.00000E-002	Sa&mple Period (s)
DISCHARGESTOPAT1	MULTIPARAM	3	0.00000E+000	Discharge Stop At &1	Voltage < Limit	V
DISCHARGESTOPAT2	MULTIPARAM	0	0.00000E+000	Discharge Stop At &2	None	N/A
AESBHCSELECTOR	TOGGLE	F	Save Both Half Cells
IRCOMP	TOGGLE	F	IR &Measure
EOC	QUANT	0	Open Circuit (V)
SEQUENCER	TOGGLE	TRUE	Run as Sequence
PSTATMODEL	IQUANT	53	Pstat Model
PSTATSECTION	LABEL	IFC5000-01520	Pstat Section
PSTATSERIALNO	LABEL	01520	Pstat Serial Number
CTRLMODE	IQUANT	0	Control Mode
ELECTROMETER	IQUANT	1	RE=0 or CS=1
IESTAB	IQUANT	0	I/E Stability
CASPEED	IQUANT	4	Control Amp Speed
CONVENTION	IQUANT	1	Current Convention
ICHRANGE	IQUANT	2	Ich Range
ICHRANGEMODE	TOGGLE	T	Ich Auto Range
ICHOFFSETENABLE	TOGGLE	F	Ich Offset Enable
ICHOFFSET	QUANT	0	Ich Offset (V)
ICHFILTER	IQUANT	1	Ich Filter
VCHRANGE	IQUANT	2	Vch Range
VCHRANGEMODE	TOGGLE	T	Vch Auto Range
VCHOFFSETENABLE	TOGGLE	F	Vch Offset Enable
VCHOFFSET	QUANT	0	Vch Offset (V)
VCHFILTER	IQUANT	1	Vch Filter
IERANGELOWERLIMIT	IQUANT	9	I/E Range Lower Limit
IERANGEMODE	TOGGLE	F	I/E AutoRange
IERANGE	IQUANT	9	I/E Range
ACHSELECT	IQUANT	1	Ach Select
ACHRANGE	IQUANT	2	Ach Range
ACHOFFSETENABLE	TOGGLE	F	Ach Offset Enable
ACHOFFSET	QUANT	0	Ach Offset (V)
ACHFILTER	IQUANT	1	Ach Filter
CABLEID	IQUANT	14	Cable ID
DCCALDATE	LABEL	5-7-2017	DC Calibration Date
ACCALDATE	LABEL	12/3/2015	AC Calibration Date
FRAMEWORKVERSION	QUANT	7.01	Framework Version
INSTRUMENTVERSION	LABEL	4.00	Instrument Version
CURVE	TABLE	59
	Pt	T	Vf	Im	Vu	Pwr	Sig	Ach	Temp	IERange	Over
	#	s	V	A	V	W	V	V	deg C	#	bits
	0	0.013333	5.22638E-001	-2.78488E-004	0.00000E+000	-1.45549E-004	-1.68088E-001	5.22875E-001	3.57800E+000	9	...........
	1	0.026667	4.89447E-001	-2.79351E-004	0.00000E+000	-1.36728E-004	-1.68088E-001	4.89648E-001	3.57800E+000	9	...........
	2	0.04	4.59205E-001	-2.79044E-004	0.00000E+000	-1.28138E-004	-1.68088E-001	4.59307E-001	3.57800E+000	9	...........
	3	0.053333	4.30908E-001	-2.77938E-004	0.00000E+000	-1.19766E-004	-1.68088E-001	4.31006E-001	3.57800E+000	9	...........
	4	0.066667	4.04513E-001	-2.78594E-004	0.00000E+000	-1.12695E-004	-1.68088E-001	4.04604E-001	3.57800E+000	9	...........
	5	0.08	3.79851E-001	-2.78180E-004	0.00000E+000	-1.05667E-004	-1.68088E-001	3.79928E-001	3.57800E+000	9	...........
	6	0.093333	3.56810E-001	-2.79837E-004	0.00000E+000	-9.98484E-005	-1.68088E-001	3.56891E-001	3.57800E+000	9	...........
	7	0.106667	3.35332E-001	-2.78453E-004	0.00000E+000	-9.33742E-005	-1.68088E-001	3.35416E-001	3.57800E+000	9	...........
	8	0.12	3.15317E-001	-2.78457E-004	0.00000E+000	-8.78023E-005	-1.68088E-001	3.15388E-001	3.57800E+000	9	...........
	9	0.133333	2.96711E-001	-2.79607E-004	0.00000E+000	-8.29626E-005	-1.68088E-001	2.96782E-001	3.57800E+000	9	...........
	10	0.146667	2.79428E-001	-2.78680E-004	0.00000E+000	-7.78710E-005	-1.68088E-001	2.79493E-001	3.57800E+000	9	...........
	11	0.16	2.63378E-001	-2.79186E-004	0.00000E+000	-7.35316E-005	-1.68088E-001	2.63445E-001	3.57800E+000	9	...........
	12	0.173333	2.48487E-001	-2.77631E-004	0.00000E+000	-6.89877E-005	-1.68088E-001	2.48548E-001	3.57800E+000	9	...........
	13	0.186667	2.34661E-001	-2.79006E-004	0.00000E+000	-6.54719E-005	-1.68088E-001	2.34714E-001	3.57800E+000	9	...........
	14	0.2	2.21777E-001	-2.78777E-004	0.00000E+000	-6.18263E-005	-1.68088E-001	2.21830E-001	3.57800E+000	9	...........
	15	0.213333	2.09820E-001	-2.78854E-004	0.00000E+000	-5.85092E-005	-1.68088E-001	2.09866E-001	3.57800E+000	9	...........
	16	0.226667	1.98711E-001	-2.77797E-004	0.00000E+000	-5.52013E-005	-1.68088E-001	1.98759E-001	3.57800E+000	9	...........
	17	0.24	1.88353E-001	-2.78724E-004	0.00000E+000	-5.24985E-005	-1.68088E-001	1.88395E-001	3.57747E+000	9	...........
	18	0.253333	1.78666E-001	-2.78395E-004	0.00000E+000	-4.97396E-005	-1.68088E-001	1.78704E-001	3.57730E+000	9	...........
	19	0.266667	1.69564E-001	-2.79196E-004	0.00000E+000	-4.73415E-005	-1.68088E-001	1.69604E-001	3.57730E+000	9	...........
	20	0.28	1.61052E-001	-2.79319E-004	0.00000E+000	-4.49848E-005	-1.68088E-001	1.61084E-001	3.57730E+000	9	...........
	21	0.293333	1.53065E-001	-2.77024E-004	0.00000E+000	-4.24026E-005	-1.68088E-001	1.53102E-001	3.57730E+000	9	...........
	22	0.306667	1.45569E-001	-2.78347E-004	0.00000E+000	-4.05187E-005	-1.68088E-001	1.45602E-001	3.57730E+000	9	...........
	23	0.32	1.38469E-001	-2.78370E-004	0.00000E+000	-3.85455E-005	-1.68088E-001	1.38502E-001	3.57730E+000	9	...........
	24	0.333333	1.31718E-001	-2.78334E-004	0.00000E+000	-3.66616E-005	-1.68088E-001	1.31749E-001	3.57730E+000	9	...........
	25	0.346667	1.25337E-001	-2.79276E-004	0.00000E+000	-3.50037E-005	-1.68088E-001	1.25368E-001	3.57730E+000	9	...........
	26	0.36	1.19288E-001	-2.78563E-004	0.00000E+000	-3.32293E-005	-1.68088E-001	1.19317E-001	3.57730E+000	9	...........
	27	0.373333	1.13491E-001	-2.78319E-004	0.00000E+000	-3.15866E-005	-1.68088E-001	1.13518E-001	3.57730E+000	9	...........
	28	0.386667	1.07972E-001	-2.77627E-004	0.00000E+000	-2.99759E-005	-1.68088E-001	1.08001E-001	3.57730E+000	9	...........
	29	0.4	1.02728E-001	-2.78837E-004	0.00000E+000	-2.86445E-005	-1.68088E-001	1.02752E-001	3.57730E+000	9	...........
	30	0.413333	9.76925E-002	-2.78505E-004	0.00000E+000	-2.72079E-005	-1.68088E-001	9.77145E-002	3.57730E+000	9	...........
	31	0.426667	9.28458E-002	-2.79163E-004	0.00000E+000	-2.59191E-005	-1.68088E-001	9.28611E-002	3.57730E+000	9	...........
	32	0.44	8.81490E-002	-2.78796E-004	0.00000E+000	-2.45756E-005	-1.68088E-001	8.81682E-002	3.57730E+000	9	...........
	33	0.453333	8.36067E-002	-2.79387E-004	0.00000E+000	-2.33586E-005	-1.68088E-001	8.36288E-002	3.57730E+000	9	...........
	34	0.466667	7.92301E-002	-2.79424E-004	0.00000E+000	-2.21388E-005	-1.68088E-001	7.92464E-002	3.57730E+000	9	...........
	35	0.48	7.49907E-002	-2.79575E-004	0.00000E+000	-2.09655E-005	-1.68088E-001	7.50071E-002	3.57730E+000	9	...........
	36	0.493333	7.08757E-002	-2.79836E-004	0.00000E+000	-1.98335E-005	-1.68088E-001	7.08911E-002	3.57730E+000	9	...........
	37	0.506667	6.68743E-002	-2.78592E-004	0.00000E+000	-1.86306E-005	-1.68088E-001	6.68881E-002	3.57730E+000	9	...........
	38	0.52	6.29977E-002	-2.78942E-004	0.00000E+000	-1.75727E-005	-1.68088E-001	6.30141E-002	3.57730E+000	9	...........
	39	0.533333	5.92425E-002	-2.79633E-004	0.00000E+000	-1.65662E-005	-1.68088E-001	5.92563E-002	3.57730E+000	9	...........
	40	0.546667	5.56087E-002	-2.78596E-004	0.00000E+000	-1.54923E-005	-1.68088E-001	5.56196E-002	3.57730E+000	9	...........
	41	0.56	5.20448E-002	-2.79259E-004	0.00000E+000	-1.45340E-005	-1.68088E-001	5.20581E-002	3.57730E+000	9	...........
	42	0.573333	4.86007E-002	-2.79253E-004	0.00000E+000	-1.35719E-005	-1.68088E-001	4.86073E-002	3.57730E+000	9	...........
	43	0.586667	4.52033E-002	-2.79045E-004	0.00000E+000	-1.26137E-005	-1.68088E-001	4.52173E-002	3.57730E+000	9	...........
	44	0.6	4.18616E-002	-2.78606E-004	0.00000E+000	-1.16629E-005	-1.68088E-001	4.18707E-002	3.57730E+000	9	...........
	45	0.613333	3.86089E-002	-2.78831E-004	0.00000E+000	-1.07654E-005	-1.68088E-001	3.86166E-002	3.57730E+000	9	...........
	46	0.626667	3.54580E-002	-2.78788E-004	0.00000E+000	-9.88529E-006	-1.68088E-001	3.54646E-002	3.57730E+000	9	...........
	47	0.64	3.23273E-002	-2.78536E-004	0.00000E+000	-9.00433E-006	-1.68088E-001	3.23263E-002	3.57730E+000	9	...........
	48	0.653333	2.92377E-002	-2.78721E-004	0.00000E+000	-8.14916E-006	-1.68088E-001	2.92385E-002	3.57730E+000	9	...........
	49	0.666667	2.62380E-002	-2.78040E-004	0.00000E+000	-7.29524E-006	-1.68088E-001	2.62416E-002	3.57730E+000	9	...........
	50	0.68	2.33156E-002	-2.78728E-004	0.00000E+000	-6.49870E-006	-1.68088E-001	2.33112E-002	3.57730E+000	9	...........
	51	0.693333	2.04450E-002	-2.78936E-004	0.00000E+000	-5.70286E-006	-1.68088E-001	2.04390E-002	3.57730E+000	9	...........
	52	0.706667	1.75642E-002	-2.78006E-004	0.00000E+000	-4.88296E-006	-1.68088E-001	1.75610E-002	3.57730E+000	9	...........
	53	0.72	1.47590E-002	-2.79058E-004	0.00000E+000	-4.11863E-006	-1.68088E-001	1.47488E-002	3.57730E+000	9	...........
	54	0.733333	1.19414E-002	-2.79907E-004	0.00000E+000	-3.34247E-006	-1.68088E-001	1.19304E-002	3.57730E+000	9	...........
	55	0.746667	9.21440E-003	-2.80126E-004	0.00000E+000	-2.58119E-006	-1.68088E-001	9.20112E-003	3.57730E+000	9	...........
	56	0.76	6.49645E-003	-2.78664E-004	0.00000E+000	-1.81033E-006	-1.68088E-001	6.47618E-003	3.57730E+000	9	...........
	57	0.773333	3.79914E-003	-2.79795E-004	0.00000E+000	-1.06298E-006	-1.68088E-001	3.78727E-003	3.57730E+000	9	...........
	58	0.786667	1.13962E-003	-2.78772E-004	0.00000E+000	-3.17694E-007	-1.68088E-001	1.12749E-003	3.57730E+000	9	...........
STARTTIMEOFFSET	QUANT	1619.727	Start Time Offset (s)
