EXPLAIN
TAG	PWR800_DISCHARGE
TITLE	LABEL	PWR Cyclic Charge Discharge (Cell) - Discharge Step	Test &Identifier
DATE	LABEL	7-7-2017	Date
TIME	LABEL	16:07:24	Time
NOTES	NOTES	3	&Notes...
	supercap test cell
	2.8mg
	6M KOH
PSTAT	PSTAT	IFC5000-01520	Potentiostat
CAPACITY	QUANT	1.00000E-003	Capacity (A-hr)
CELLTYPE	SELECTOR	1	&Cell Type
WORKINGCONNECTION	SELECTOR	0	&Working Lead
MAXDISCHARGETIME	VARIABLEANDUNITS	1.00000E+002	s	1.00000E+002	second(s)	Max &Discharge Time
DISCHARGEMODE	MULTIPARAM	0	2.80000E-004	&Discharge Mode	Constant Current	Amp(s)
SAMPLETIME	QUANT	1.00000E-002	Sa&mple Period (s)
DISCHARGESTOPAT1	MULTIPARAM	3	0.00000E+000	Discharge Stop At &1	Voltage < Limit	V
DISCHARGESTOPAT2	MULTIPARAM	0	0.00000E+000	Discharge Stop At &2	None	N/A
AESBHCSELECTOR	TOGGLE	F	Save Both Half Cells
IRCOMP	TOGGLE	F	IR &Measure
EOC	QUANT	0	Open Circuit (V)
SEQUENCER	TOGGLE	TRUE	Run as Sequence
PSTATMODEL	IQUANT	53	Pstat Model
PSTATSECTION	LABEL	IFC5000-01520	Pstat Section
PSTATSERIALNO	LABEL	01520	Pstat Serial Number
CTRLMODE	IQUANT	0	Control Mode
ELECTROMETER	IQUANT	1	RE=0 or CS=1
IESTAB	IQUANT	0	I/E Stability
CASPEED	IQUANT	4	Control Amp Speed
CONVENTION	IQUANT	1	Current Convention
ICHRANGE	IQUANT	2	Ich Range
ICHRANGEMODE	TOGGLE	T	Ich Auto Range
ICHOFFSETENABLE	TOGGLE	F	Ich Offset Enable
ICHOFFSET	QUANT	0	Ich Offset (V)
ICHFILTER	IQUANT	1	Ich Filter
VCHRANGE	IQUANT	2	Vch Range
VCHRANGEMODE	TOGGLE	T	Vch Auto Range
VCHOFFSETENABLE	TOGGLE	F	Vch Offset Enable
VCHOFFSET	QUANT	0	Vch Offset (V)
VCHFILTER	IQUANT	1	Vch Filter
IERANGELOWERLIMIT	IQUANT	9	I/E Range Lower Limit
IERANGEMODE	TOGGLE	F	I/E AutoRange
IERANGE	IQUANT	9	I/E Range
ACHSELECT	IQUANT	1	Ach Select
ACHRANGE	IQUANT	2	Ach Range
ACHOFFSETENABLE	TOGGLE	F	Ach Offset Enable
ACHOFFSET	QUANT	0	Ach Offset (V)
ACHFILTER	IQUANT	1	Ach Filter
CABLEID	IQUANT	14	Cable ID
DCCALDATE	LABEL	5-7-2017	DC Calibration Date
ACCALDATE	LABEL	12/3/2015	AC Calibration Date
FRAMEWORKVERSION	QUANT	7.01	Framework Version
INSTRUMENTVERSION	LABEL	4.00	Instrument Version
CURVE	TABLE	64
	Pt	T	Vf	Im	Vu	Pwr	Sig	Ach	Temp	IERange	Over
	#	s	V	A	V	W	V	V	deg C	#	bits
	0	0.013333	5.27376E-001	-2.79190E-004	0.00000E+000	-1.47238E-004	-1.68088E-001	5.27599E-001	3.57840E+000	9	...........
	1	0.026667	4.94518E-001	-2.78780E-004	0.00000E+000	-1.37862E-004	-1.68088E-001	4.94751E-001	3.57840E+000	9	...........
	2	0.04	4.64720E-001	-2.77970E-004	0.00000E+000	-1.29178E-004	-1.68088E-001	4.64826E-001	3.57840E+000	9	...........
	3	0.053333	4.36825E-001	-2.78864E-004	0.00000E+000	-1.21815E-004	-1.68088E-001	4.36926E-001	3.57840E+000	9	...........
	4	0.066667	4.10829E-001	-2.79434E-004	0.00000E+000	-1.14800E-004	-1.68088E-001	4.10928E-001	3.57840E+000	9	...........
	5	0.08	3.86571E-001	-2.78905E-004	0.00000E+000	-1.07817E-004	-1.68088E-001	3.86661E-001	3.57840E+000	9	...........
	6	0.093333	3.63927E-001	-2.78750E-004	0.00000E+000	-1.01445E-004	-1.68088E-001	3.64011E-001	3.57840E+000	9	...........
	7	0.106667	3.42842E-001	-2.79556E-004	0.00000E+000	-9.58437E-005	-1.68088E-001	3.42920E-001	3.57840E+000	9	...........
	8	0.12	3.23219E-001	-2.77871E-004	0.00000E+000	-8.98130E-005	-1.68088E-001	3.23300E-001	3.57840E+000	9	...........
	9	0.133333	3.04980E-001	-2.80131E-004	0.00000E+000	-8.54346E-005	-1.68088E-001	3.05054E-001	3.57840E+000	9	...........
	10	0.146667	2.88000E-001	-2.78469E-004	0.00000E+000	-8.01990E-005	-1.68088E-001	2.88070E-001	3.57840E+000	9	...........
	11	0.16	2.72206E-001	-2.79298E-004	0.00000E+000	-7.60267E-005	-1.68088E-001	2.72275E-001	3.57840E+000	9	...........
	12	0.173333	2.57526E-001	-2.79339E-004	0.00000E+000	-7.19370E-005	-1.68088E-001	2.57596E-001	3.57840E+000	9	...........
	13	0.186667	2.43925E-001	-2.78211E-004	0.00000E+000	-6.78628E-005	-1.68088E-001	2.43987E-001	3.57840E+000	9	...........
	14	0.2	2.31279E-001	-2.79454E-004	0.00000E+000	-6.46320E-005	-1.68088E-001	2.31331E-001	3.57840E+000	9	...........
	15	0.213333	2.19478E-001	-2.78193E-004	0.00000E+000	-6.10570E-005	-1.68088E-001	2.19530E-001	3.57840E+000	9	...........
	16	0.226667	2.08517E-001	-2.78388E-004	0.00000E+000	-5.80487E-005	-1.68088E-001	2.08562E-001	3.57840E+000	9	...........
	17	0.24	1.98320E-001	-2.79328E-004	0.00000E+000	-5.53965E-005	-1.68088E-001	1.98365E-001	3.57840E+000	9	...........
	18	0.253333	1.88784E-001	-2.77898E-004	0.00000E+000	-5.24627E-005	-1.68088E-001	1.88833E-001	3.57840E+000	9	...........
	19	0.266667	1.79833E-001	-2.79098E-004	0.00000E+000	-5.01911E-005	-1.68088E-001	1.79880E-001	3.57840E+000	9	...........
	20	0.28	1.71424E-001	-2.78072E-004	0.00000E+000	-4.76681E-005	-1.68088E-001	1.71467E-001	3.57840E+000	9	...........
	21	0.293333	1.63477E-001	-2.78718E-004	0.00000E+000	-4.55641E-005	-1.68088E-001	1.63520E-001	3.57840E+000	9	...........
	22	0.306667	1.55958E-001	-2.79305E-004	0.00000E+000	-4.35599E-005	-1.68088E-001	1.56000E-001	3.57840E+000	9	...........
	23	0.32	1.48913E-001	-2.78927E-004	0.00000E+000	-4.15360E-005	-1.68088E-001	1.48945E-001	3.57840E+000	9	...........
	24	0.333333	1.42247E-001	-2.78171E-004	0.00000E+000	-3.95690E-005	-1.68088E-001	1.42282E-001	3.57840E+000	9	...........
	25	0.346667	1.35927E-001	-2.79234E-004	0.00000E+000	-3.79556E-005	-1.68088E-001	1.35960E-001	3.57840E+000	9	...........
	26	0.36	1.29900E-001	-2.79960E-004	0.00000E+000	-3.63667E-005	-1.68088E-001	1.29927E-001	3.57840E+000	9	...........
	27	0.373333	1.24166E-001	-2.78898E-004	0.00000E+000	-3.46295E-005	-1.68088E-001	1.24197E-001	3.57840E+000	9	...........
	28	0.386667	1.18712E-001	-2.79298E-004	0.00000E+000	-3.31560E-005	-1.68088E-001	1.18744E-001	3.57840E+000	9	...........
	29	0.4	1.13480E-001	-2.78776E-004	0.00000E+000	-3.16356E-005	-1.68088E-001	1.13505E-001	3.57840E+000	9	...........
	30	0.413333	1.08463E-001	-2.78803E-004	0.00000E+000	-3.02399E-005	-1.68088E-001	1.08489E-001	3.57840E+000	9	...........
	31	0.426667	1.03594E-001	-2.79723E-004	0.00000E+000	-2.89777E-005	-1.68088E-001	1.03617E-001	3.57840E+000	9	...........
	32	0.44	9.89455E-002	-2.77839E-004	0.00000E+000	-2.74910E-005	-1.68088E-001	9.89764E-002	3.57840E+000	9	...........
	33	0.453333	9.44435E-002	-2.79079E-004	0.00000E+000	-2.63572E-005	-1.68088E-001	9.44598E-002	3.57840E+000	9	...........
	34	0.466667	9.00970E-002	-2.78103E-004	0.00000E+000	-2.50563E-005	-1.68088E-001	9.01134E-002	3.57840E+000	9	...........
	35	0.48	8.58718E-002	-2.78385E-004	0.00000E+000	-2.39054E-005	-1.68088E-001	8.58985E-002	3.57840E+000	9	...........
	36	0.493333	8.17722E-002	-2.77982E-004	0.00000E+000	-2.27312E-005	-1.68088E-001	8.17875E-002	3.57840E+000	9	...........
	37	0.506667	7.78066E-002	-2.77386E-004	0.00000E+000	-2.15825E-005	-1.68088E-001	7.78162E-002	3.57840E+000	9	...........
	38	0.52	7.39565E-002	-2.78756E-004	0.00000E+000	-2.06158E-005	-1.68088E-001	7.39723E-002	3.57840E+000	9	...........
	39	0.533333	7.02140E-002	-2.78837E-004	0.00000E+000	-1.95783E-005	-1.68088E-001	7.02313E-002	3.57840E+000	9	...........
	40	0.546667	6.66095E-002	-2.80040E-004	0.00000E+000	-1.86533E-005	-1.68088E-001	6.66212E-002	3.57840E+000	9	...........
	41	0.56	6.30872E-002	-2.78379E-004	0.00000E+000	-1.75622E-005	-1.68088E-001	6.31014E-002	3.57840E+000	9	...........
	42	0.573333	5.96109E-002	-2.78231E-004	0.00000E+000	-1.65856E-005	-1.68088E-001	5.96224E-002	3.57840E+000	9	...........
	43	0.586667	5.62085E-002	-2.79232E-004	0.00000E+000	-1.56952E-005	-1.68088E-001	5.62183E-002	3.57840E+000	9	...........
	44	0.6	5.28668E-002	-2.79020E-004	0.00000E+000	-1.47509E-005	-1.68088E-001	5.28715E-002	3.57840E+000	9	...........
	45	0.613333	4.96138E-002	-2.78919E-004	0.00000E+000	-1.38382E-005	-1.68088E-001	4.96246E-002	3.57840E+000	9	...........
	46	0.626667	4.64646E-002	-2.79647E-004	0.00000E+000	-1.29937E-005	-1.68088E-001	4.64798E-002	3.57902E+000	9	...........
	47	0.64	4.33312E-002	-2.79223E-004	0.00000E+000	-1.20991E-005	-1.68088E-001	4.33413E-002	3.58020E+000	9	...........
	48	0.653333	4.02740E-002	-2.79149E-004	0.00000E+000	-1.12425E-005	-1.68088E-001	4.02802E-002	3.58020E+000	9	...........
	49	0.666667	3.72563E-002	-2.78996E-004	0.00000E+000	-1.03943E-005	-1.68088E-001	3.72610E-002	3.58020E+000	9	...........
	50	0.68	3.42864E-002	-2.78231E-004	0.00000E+000	-9.53955E-006	-1.68088E-001	3.42893E-002	3.58020E+000	9	...........
	51	0.693333	3.13418E-002	-2.79047E-004	0.00000E+000	-8.74584E-006	-1.68088E-001	3.13444E-002	3.58020E+000	9	...........
	52	0.706667	2.84339E-002	-2.79495E-004	0.00000E+000	-7.94712E-006	-1.68088E-001	2.84345E-002	3.58020E+000	9	...........
	53	0.72	2.55835E-002	-2.79328E-004	0.00000E+000	-7.14619E-006	-1.68088E-001	2.55792E-002	3.58020E+000	9	...........
	54	0.733333	2.27855E-002	-2.79607E-004	0.00000E+000	-6.37100E-006	-1.68088E-001	2.27769E-002	3.58020E+000	9	...........
	55	0.746667	1.99575E-002	-2.79224E-004	0.00000E+000	-5.57261E-006	-1.68088E-001	1.99501E-002	3.58020E+000	9	...........
	56	0.76	1.71756E-002	-2.79403E-004	0.00000E+000	-4.79892E-006	-1.68088E-001	1.71687E-002	3.58020E+000	9	...........
	57	0.773333	1.44891E-002	-2.78188E-004	0.00000E+000	-4.03070E-006	-1.68088E-001	1.44859E-002	3.58020E+000	9	...........
	58	0.786667	1.18973E-002	-2.79220E-004	0.00000E+000	-3.32197E-006	-1.68088E-001	1.18797E-002	3.58020E+000	9	...........
	59	0.8	9.31492E-003	-2.79116E-004	0.00000E+000	-2.59994E-006	-1.68088E-001	9.30388E-003	3.58020E+000	9	...........
	60	0.813333	6.79241E-003	-2.76870E-004	0.00000E+000	-1.88062E-006	-1.68088E-001	6.77864E-003	3.58020E+000	9	...........
	61	0.826667	4.28793E-003	-2.79789E-004	0.00000E+000	-1.19971E-006	-1.68088E-001	4.27200E-003	3.58020E+000	9	...........
	62	0.84	1.80438E-003	-2.78899E-004	0.00000E+000	-5.03239E-007	-1.68088E-001	1.79345E-003	3.58020E+000	9	...........
	63	0.845	7.77513E-005	-2.78598E-004	0.00000E+000	-2.16613E-008	-1.68088E-001	6.16067E-005	3.58020E+000	9	...........
STARTTIMEOFFSET	QUANT	1418.937	Start Time Offset (s)
