EXPLAIN
TAG	PWR800_DISCHARGE
TITLE	LABEL	PWR Cyclic Charge Discharge (Cell) - Discharge Step	Test &Identifier
DATE	LABEL	7-7-2017	Date
TIME	LABEL	16:24:56	Time
NOTES	NOTES	3	&Notes...
	supercap test cell
	2.8mg
	6M KOH
PSTAT	PSTAT	IFC5000-01520	Potentiostat
CAPACITY	QUANT	1.00000E-003	Capacity (A-hr)
CELLTYPE	SELECTOR	1	&Cell Type
WORKINGCONNECTION	SELECTOR	0	&Working Lead
MAXDISCHARGETIME	VARIABLEANDUNITS	1.00000E+002	s	1.00000E+002	second(s)	Max &Discharge Time
DISCHARGEMODE	MULTIPARAM	0	2.80000E-004	&Discharge Mode	Constant Current	Amp(s)
SAMPLETIME	QUANT	1.00000E-002	Sa&mple Period (s)
DISCHARGESTOPAT1	MULTIPARAM	3	0.00000E+000	Discharge Stop At &1	Voltage < Limit	V
DISCHARGESTOPAT2	MULTIPARAM	0	0.00000E+000	Discharge Stop At &2	None	N/A
AESBHCSELECTOR	TOGGLE	F	Save Both Half Cells
IRCOMP	TOGGLE	F	IR &Measure
EOC	QUANT	0	Open Circuit (V)
SEQUENCER	TOGGLE	TRUE	Run as Sequence
PSTATMODEL	IQUANT	53	Pstat Model
PSTATSECTION	LABEL	IFC5000-01520	Pstat Section
PSTATSERIALNO	LABEL	01520	Pstat Serial Number
CTRLMODE	IQUANT	0	Control Mode
ELECTROMETER	IQUANT	1	RE=0 or CS=1
IESTAB	IQUANT	0	I/E Stability
CASPEED	IQUANT	4	Control Amp Speed
CONVENTION	IQUANT	1	Current Convention
ICHRANGE	IQUANT	2	Ich Range
ICHRANGEMODE	TOGGLE	T	Ich Auto Range
ICHOFFSETENABLE	TOGGLE	F	Ich Offset Enable
ICHOFFSET	QUANT	0	Ich Offset (V)
ICHFILTER	IQUANT	1	Ich Filter
VCHRANGE	IQUANT	2	Vch Range
VCHRANGEMODE	TOGGLE	T	Vch Auto Range
VCHOFFSETENABLE	TOGGLE	F	Vch Offset Enable
VCHOFFSET	QUANT	0	Vch Offset (V)
VCHFILTER	IQUANT	1	Vch Filter
IERANGELOWERLIMIT	IQUANT	9	I/E Range Lower Limit
IERANGEMODE	TOGGLE	F	I/E AutoRange
IERANGE	IQUANT	9	I/E Range
ACHSELECT	IQUANT	1	Ach Select
ACHRANGE	IQUANT	2	Ach Range
ACHOFFSETENABLE	TOGGLE	F	Ach Offset Enable
ACHOFFSET	QUANT	0	Ach Offset (V)
ACHFILTER	IQUANT	1	Ach Filter
CABLEID	IQUANT	14	Cable ID
DCCALDATE	LABEL	5-7-2017	DC Calibration Date
ACCALDATE	LABEL	12/3/2015	AC Calibration Date
FRAMEWORKVERSION	QUANT	7.01	Framework Version
INSTRUMENTVERSION	LABEL	4.00	Instrument Version
CURVE	TABLE	51
	Pt	T	Vf	Im	Vu	Pwr	Sig	Ach	Temp	IERange	Over
	#	s	V	A	V	W	V	V	deg C	#	bits
	0	0.013333	5.18581E-001	-2.78247E-004	0.00000E+000	-1.44293E-004	-1.68088E-001	5.18815E-001	3.57880E+000	9	...........
	1	0.026667	4.84416E-001	-2.79049E-004	0.00000E+000	-1.35176E-004	-1.68088E-001	4.84599E-001	3.57880E+000	9	...........
	2	0.04	4.53050E-001	-2.78772E-004	0.00000E+000	-1.26298E-004	-1.68088E-001	4.53151E-001	3.57880E+000	9	...........
	3	0.053333	4.23653E-001	-2.78463E-004	0.00000E+000	-1.17972E-004	-1.68088E-001	4.23747E-001	3.57880E+000	9	...........
	4	0.066667	3.96136E-001	-2.79799E-004	0.00000E+000	-1.10839E-004	-1.68088E-001	3.96227E-001	3.57880E+000	9	...........
	5	0.08	3.70363E-001	-2.78704E-004	0.00000E+000	-1.03222E-004	-1.68088E-001	3.70442E-001	3.57880E+000	9	...........
	6	0.093333	3.46217E-001	-2.78692E-004	0.00000E+000	-9.64877E-005	-1.68088E-001	3.46293E-001	3.57880E+000	9	...........
	7	0.106667	3.23670E-001	-2.78083E-004	0.00000E+000	-9.00072E-005	-1.68088E-001	3.23739E-001	3.57880E+000	9	...........
	8	0.12	3.02622E-001	-2.80221E-004	0.00000E+000	-8.48011E-005	-1.68088E-001	3.02687E-001	3.57880E+000	9	...........
	9	0.133333	2.83053E-001	-2.81200E-004	0.00000E+000	-7.95947E-005	-1.68088E-001	2.83113E-001	3.57880E+000	9	...........
	10	0.146667	2.64811E-001	-2.78023E-004	0.00000E+000	-7.36233E-005	-1.68088E-001	2.64874E-001	3.57880E+000	9	...........
	11	0.16	2.47875E-001	-2.78387E-004	0.00000E+000	-6.90052E-005	-1.68088E-001	2.47928E-001	3.57880E+000	9	...........
	12	0.173333	2.32144E-001	-2.78338E-004	0.00000E+000	-6.46145E-005	-1.68088E-001	2.32192E-001	3.57880E+000	9	...........
	13	0.186667	2.17561E-001	-2.78907E-004	0.00000E+000	-6.06793E-005	-1.68088E-001	2.17600E-001	3.57880E+000	9	...........
	14	0.2	2.04021E-001	-2.78412E-004	0.00000E+000	-5.68020E-005	-1.68088E-001	2.04067E-001	3.57880E+000	9	...........
	15	0.213333	1.91485E-001	-2.78798E-004	0.00000E+000	-5.33856E-005	-1.68088E-001	1.91521E-001	3.57880E+000	9	...........
	16	0.226667	1.79836E-001	-2.79665E-004	0.00000E+000	-5.02939E-005	-1.68088E-001	1.79872E-001	3.57880E+000	9	...........
	17	0.24	1.68956E-001	-2.80176E-004	0.00000E+000	-4.73373E-005	-1.68088E-001	1.68989E-001	3.57880E+000	9	...........
	18	0.253333	1.58816E-001	-2.79545E-004	0.00000E+000	-4.43962E-005	-1.68088E-001	1.58844E-001	3.57880E+000	9	...........
	19	0.266667	1.49325E-001	-2.78417E-004	0.00000E+000	-4.15746E-005	-1.68088E-001	1.49352E-001	3.57880E+000	9	...........
	20	0.28	1.40508E-001	-2.77873E-004	0.00000E+000	-3.90434E-005	-1.68088E-001	1.40537E-001	3.57880E+000	9	...........
	21	0.293333	1.32234E-001	-2.78510E-004	0.00000E+000	-3.68285E-005	-1.68088E-001	1.32255E-001	3.57880E+000	9	...........
	22	0.306667	1.24412E-001	-2.79168E-004	0.00000E+000	-3.47317E-005	-1.68088E-001	1.24435E-001	3.57880E+000	9	...........
	23	0.32	1.17115E-001	-2.77810E-004	0.00000E+000	-3.25357E-005	-1.68088E-001	1.17142E-001	3.57880E+000	9	...........
	24	0.333333	1.10211E-001	-2.78824E-004	0.00000E+000	-3.07296E-005	-1.68088E-001	1.10227E-001	3.57880E+000	9	...........
	25	0.346667	1.03624E-001	-2.78351E-004	0.00000E+000	-2.88439E-005	-1.68088E-001	1.03646E-001	3.57880E+000	9	...........
	26	0.36	9.73397E-002	-2.79912E-004	0.00000E+000	-2.72465E-005	-1.68088E-001	9.73610E-002	3.57880E+000	9	...........
	27	0.373333	9.14056E-002	-2.79344E-004	0.00000E+000	-2.55336E-005	-1.68088E-001	9.14232E-002	3.57880E+000	9	...........
	28	0.386667	8.57641E-002	-2.78428E-004	0.00000E+000	-2.38791E-005	-1.68088E-001	8.57832E-002	3.57880E+000	9	...........
	29	0.4	8.04045E-002	-2.79050E-004	0.00000E+000	-2.24369E-005	-1.68088E-001	8.04156E-002	3.57880E+000	9	...........
	30	0.413333	7.52699E-002	-2.77972E-004	0.00000E+000	-2.09229E-005	-1.68088E-001	7.52814E-002	3.57880E+000	9	...........
	31	0.426667	7.03768E-002	-2.79292E-004	0.00000E+000	-1.96556E-005	-1.68088E-001	7.03821E-002	3.57880E+000	9	...........
	32	0.44	6.56808E-002	-2.78666E-004	0.00000E+000	-1.83030E-005	-1.68088E-001	6.56944E-002	3.57880E+000	9	...........
	33	0.453333	6.11716E-002	-2.77378E-004	0.00000E+000	-1.69676E-005	-1.68088E-001	6.11818E-002	3.57880E+000	9	...........
	34	0.466667	5.67627E-002	-2.79128E-004	0.00000E+000	-1.58441E-005	-1.68088E-001	5.67695E-002	3.57880E+000	9	...........
	35	0.48	5.24482E-002	-2.78873E-004	0.00000E+000	-1.46264E-005	-1.68088E-001	5.24493E-002	3.57880E+000	9	...........
	36	0.493333	4.83413E-002	-2.79022E-004	0.00000E+000	-1.34883E-005	-1.68088E-001	4.83354E-002	3.57880E+000	9	...........
	37	0.506667	4.43853E-002	-2.79519E-004	0.00000E+000	-1.24065E-005	-1.68088E-001	4.43942E-002	3.57880E+000	9	...........
	38	0.52	4.05376E-002	-2.79250E-004	0.00000E+000	-1.13201E-005	-1.68088E-001	4.05340E-002	3.57880E+000	9	...........
	39	0.533333	3.67524E-002	-2.79044E-004	0.00000E+000	-1.02555E-005	-1.68088E-001	3.67565E-002	3.57880E+000	9	...........
	40	0.546667	3.30015E-002	-2.77771E-004	0.00000E+000	-9.16685E-006	-1.68088E-001	3.29969E-002	3.57880E+000	9	...........
	41	0.56	2.93916E-002	-2.79014E-004	0.00000E+000	-8.20066E-006	-1.68088E-001	2.93887E-002	3.57880E+000	9	...........
	42	0.573333	2.59039E-002	-2.78619E-004	0.00000E+000	-7.21731E-006	-1.68088E-001	2.58977E-002	3.57880E+000	9	...........
	43	0.586667	2.24627E-002	-2.79591E-004	0.00000E+000	-6.28035E-006	-1.68088E-001	2.24545E-002	3.57880E+000	9	...........
	44	0.6	1.91411E-002	-2.79294E-004	0.00000E+000	-5.34600E-006	-1.68088E-001	1.91324E-002	3.57880E+000	9	...........
	45	0.613333	1.58800E-002	-2.80042E-004	0.00000E+000	-4.44707E-006	-1.68088E-001	1.58640E-002	3.57880E+000	9	...........
	46	0.626667	1.27067E-002	-2.77707E-004	0.00000E+000	-3.52875E-006	-1.68088E-001	1.26926E-002	3.57880E+000	9	...........
	47	0.64	9.58673E-003	-2.80408E-004	0.00000E+000	-2.68819E-006	-1.68088E-001	9.57391E-003	3.57880E+000	9	...........
	48	0.653333	6.56050E-003	-2.79236E-004	0.00000E+000	-1.83193E-006	-1.68088E-001	6.53603E-003	3.57880E+000	9	...........
	49	0.666667	3.57706E-003	-2.78559E-004	0.00000E+000	-9.96423E-007	-1.68088E-001	3.55852E-003	3.57880E+000	9	...........
	50	0.678333	8.25404E-004	-2.80089E-004	0.00000E+000	-2.31186E-007	-1.68088E-001	8.06690E-004	3.57880E+000	9	...........
STARTTIMEOFFSET	QUANT	2113.211	Start Time Offset (s)
