EXPLAIN
TAG	PWR800_DISCHARGE
TITLE	LABEL	PWR Cyclic Charge Discharge (Cell) - Discharge Step	Test &Identifier
DATE	LABEL	7-7-2017	Date
TIME	LABEL	16:21:55	Time
NOTES	NOTES	3	&Notes...
	supercap test cell
	2.8mg
	6M KOH
PSTAT	PSTAT	IFC5000-01520	Potentiostat
CAPACITY	QUANT	1.00000E-003	Capacity (A-hr)
CELLTYPE	SELECTOR	1	&Cell Type
WORKINGCONNECTION	SELECTOR	0	&Working Lead
MAXDISCHARGETIME	VARIABLEANDUNITS	1.00000E+002	s	1.00000E+002	second(s)	Max &Discharge Time
DISCHARGEMODE	MULTIPARAM	0	2.80000E-004	&Discharge Mode	Constant Current	Amp(s)
SAMPLETIME	QUANT	1.00000E-002	Sa&mple Period (s)
DISCHARGESTOPAT1	MULTIPARAM	3	0.00000E+000	Discharge Stop At &1	Voltage < Limit	V
DISCHARGESTOPAT2	MULTIPARAM	0	0.00000E+000	Discharge Stop At &2	None	N/A
AESBHCSELECTOR	TOGGLE	F	Save Both Half Cells
IRCOMP	TOGGLE	F	IR &Measure
EOC	QUANT	0	Open Circuit (V)
SEQUENCER	TOGGLE	TRUE	Run as Sequence
PSTATMODEL	IQUANT	53	Pstat Model
PSTATSECTION	LABEL	IFC5000-01520	Pstat Section
PSTATSERIALNO	LABEL	01520	Pstat Serial Number
CTRLMODE	IQUANT	0	Control Mode
ELECTROMETER	IQUANT	1	RE=0 or CS=1
IESTAB	IQUANT	0	I/E Stability
CASPEED	IQUANT	4	Control Amp Speed
CONVENTION	IQUANT	1	Current Convention
ICHRANGE	IQUANT	2	Ich Range
ICHRANGEMODE	TOGGLE	T	Ich Auto Range
ICHOFFSETENABLE	TOGGLE	F	Ich Offset Enable
ICHOFFSET	QUANT	0	Ich Offset (V)
ICHFILTER	IQUANT	1	Ich Filter
VCHRANGE	IQUANT	2	Vch Range
VCHRANGEMODE	TOGGLE	T	Vch Auto Range
VCHOFFSETENABLE	TOGGLE	F	Vch Offset Enable
VCHOFFSET	QUANT	0	Vch Offset (V)
VCHFILTER	IQUANT	1	Vch Filter
IERANGELOWERLIMIT	IQUANT	9	I/E Range Lower Limit
IERANGEMODE	TOGGLE	F	I/E AutoRange
IERANGE	IQUANT	9	I/E Range
ACHSELECT	IQUANT	1	Ach Select
ACHRANGE	IQUANT	2	Ach Range
ACHOFFSETENABLE	TOGGLE	F	Ach Offset Enable
ACHOFFSET	QUANT	0	Ach Offset (V)
ACHFILTER	IQUANT	1	Ach Filter
CABLEID	IQUANT	14	Cable ID
DCCALDATE	LABEL	5-7-2017	DC Calibration Date
ACCALDATE	LABEL	12/3/2015	AC Calibration Date
FRAMEWORKVERSION	QUANT	7.01	Framework Version
INSTRUMENTVERSION	LABEL	4.00	Instrument Version
CURVE	TABLE	53
	Pt	T	Vf	Im	Vu	Pwr	Sig	Ach	Temp	IERange	Over
	#	s	V	A	V	W	V	V	deg C	#	bits
	0	0.013333	5.22625E-001	-2.79521E-004	0.00000E+000	-1.46085E-004	-1.68088E-001	5.22822E-001	3.57880E+000	9	...........
	1	0.026667	4.88548E-001	-2.77572E-004	0.00000E+000	-1.35607E-004	-1.68088E-001	4.88744E-001	3.57880E+000	9	...........
	2	0.04	4.57366E-001	-2.78729E-004	0.00000E+000	-1.27481E-004	-1.68088E-001	4.57470E-001	3.57880E+000	9	...........
	3	0.053333	4.28121E-001	-2.78795E-004	0.00000E+000	-1.19358E-004	-1.68088E-001	4.28221E-001	3.57880E+000	9	...........
	4	0.066667	4.00779E-001	-2.78288E-004	0.00000E+000	-1.11532E-004	-1.68088E-001	4.00871E-001	3.57880E+000	9	...........
	5	0.08	3.75163E-001	-2.79679E-004	0.00000E+000	-1.04925E-004	-1.68088E-001	3.75240E-001	3.57880E+000	9	...........
	6	0.093333	3.51194E-001	-2.78433E-004	0.00000E+000	-9.77841E-005	-1.68088E-001	3.51270E-001	3.57880E+000	9	...........
	7	0.106667	3.28788E-001	-2.78914E-004	0.00000E+000	-9.17033E-005	-1.68088E-001	3.28857E-001	3.57880E+000	9	...........
	8	0.12	3.07860E-001	-2.78140E-004	0.00000E+000	-8.56284E-005	-1.68088E-001	3.07928E-001	3.57880E+000	9	...........
	9	0.133333	2.88417E-001	-2.78389E-004	0.00000E+000	-8.02923E-005	-1.68088E-001	2.88484E-001	3.57880E+000	9	...........
	10	0.146667	2.70355E-001	-2.79164E-004	0.00000E+000	-7.54731E-005	-1.68088E-001	2.70416E-001	3.57880E+000	9	...........
	11	0.16	2.53561E-001	-2.78723E-004	0.00000E+000	-7.06733E-005	-1.68088E-001	2.53617E-001	3.57880E+000	9	...........
	12	0.173333	2.37968E-001	-2.78619E-004	0.00000E+000	-6.63023E-005	-1.68088E-001	2.38013E-001	3.57880E+000	9	...........
	13	0.186667	2.23447E-001	-2.78238E-004	0.00000E+000	-6.21714E-005	-1.68088E-001	2.23493E-001	3.57880E+000	9	...........
	14	0.2	2.09966E-001	-2.80528E-004	0.00000E+000	-5.89013E-005	-1.68088E-001	2.10006E-001	3.57880E+000	9	...........
	15	0.213333	1.97472E-001	-2.77891E-004	0.00000E+000	-5.48756E-005	-1.68088E-001	1.97511E-001	3.57880E+000	9	...........
	16	0.226667	1.85847E-001	-2.77594E-004	0.00000E+000	-5.15902E-005	-1.68088E-001	1.85882E-001	3.57880E+000	9	...........
	17	0.24	1.75055E-001	-2.80036E-004	0.00000E+000	-4.90216E-005	-1.68088E-001	1.75089E-001	3.57880E+000	9	...........
	18	0.253333	1.64974E-001	-2.78965E-004	0.00000E+000	-4.60219E-005	-1.68088E-001	1.65006E-001	3.57880E+000	9	...........
	19	0.266667	1.55553E-001	-2.78669E-004	0.00000E+000	-4.33478E-005	-1.68088E-001	1.55583E-001	3.57880E+000	9	...........
	20	0.28	1.46742E-001	-2.78374E-004	0.00000E+000	-4.08492E-005	-1.68088E-001	1.46773E-001	3.57880E+000	9	...........
	21	0.293333	1.38443E-001	-2.79987E-004	0.00000E+000	-3.87623E-005	-1.68088E-001	1.38471E-001	3.57880E+000	9	...........
	22	0.306667	1.30646E-001	-2.79896E-004	0.00000E+000	-3.65673E-005	-1.68088E-001	1.30669E-001	3.57880E+000	9	...........
	23	0.32	1.23310E-001	-2.80076E-004	0.00000E+000	-3.45362E-005	-1.68088E-001	1.23334E-001	3.57880E+000	9	...........
	24	0.333333	1.16376E-001	-2.78732E-004	0.00000E+000	-3.24377E-005	-1.68088E-001	1.16402E-001	3.57880E+000	9	...........
	25	0.346667	1.09819E-001	-2.79605E-004	0.00000E+000	-3.07059E-005	-1.68088E-001	1.09850E-001	3.57880E+000	9	...........
	26	0.36	1.03588E-001	-2.80973E-004	0.00000E+000	-2.91056E-005	-1.68088E-001	1.03615E-001	3.57880E+000	9	...........
	27	0.373333	9.76879E-002	-2.79634E-004	0.00000E+000	-2.73169E-005	-1.68088E-001	9.77125E-002	3.57880E+000	9	...........
	28	0.386667	9.20719E-002	-2.79190E-004	0.00000E+000	-2.57055E-005	-1.68088E-001	9.20903E-002	3.57880E+000	9	...........
	29	0.4	8.66954E-002	-2.79229E-004	0.00000E+000	-2.42079E-005	-1.68088E-001	8.67194E-002	3.57880E+000	9	...........
	30	0.413333	8.15469E-002	-2.77324E-004	0.00000E+000	-2.26149E-005	-1.68088E-001	8.15670E-002	3.57880E+000	9	...........
	31	0.426667	7.66009E-002	-2.78745E-004	0.00000E+000	-2.13521E-005	-1.68088E-001	7.66149E-002	3.57880E+000	9	...........
	32	0.44	7.18593E-002	-2.78119E-004	0.00000E+000	-1.99854E-005	-1.68088E-001	7.18710E-002	3.57880E+000	9	...........
	33	0.453333	6.72655E-002	-2.80294E-004	0.00000E+000	-1.88541E-005	-1.68088E-001	6.72815E-002	3.57880E+000	9	...........
	34	0.466667	6.28001E-002	-2.78638E-004	0.00000E+000	-1.74985E-005	-1.68088E-001	6.28134E-002	3.57880E+000	9	...........
	35	0.48	5.85249E-002	-2.78413E-004	0.00000E+000	-1.62941E-005	-1.68088E-001	5.85333E-002	3.57880E+000	9	...........
	36	0.493333	5.43805E-002	-2.79251E-004	0.00000E+000	-1.51858E-005	-1.68088E-001	5.43873E-002	3.57880E+000	9	...........
	37	0.506667	5.03275E-002	-2.78436E-004	0.00000E+000	-1.40130E-005	-1.68088E-001	5.03345E-002	3.57880E+000	9	...........
	38	0.52	4.64259E-002	-2.79668E-004	0.00000E+000	-1.29838E-005	-1.68088E-001	4.64261E-002	3.57880E+000	9	...........
	39	0.533333	4.26453E-002	-2.79139E-004	0.00000E+000	-1.19040E-005	-1.68088E-001	4.26530E-002	3.57880E+000	9	...........
	40	0.546667	3.90006E-002	-2.80104E-004	0.00000E+000	-1.09242E-005	-1.68088E-001	3.90044E-002	3.57880E+000	9	...........
	41	0.56	3.54369E-002	-2.79760E-004	0.00000E+000	-9.91380E-006	-1.68088E-001	3.54384E-002	3.57880E+000	9	...........
	42	0.573333	3.19682E-002	-2.79528E-004	0.00000E+000	-8.93602E-006	-1.68088E-001	3.19724E-002	3.57880E+000	9	...........
	43	0.586667	2.86192E-002	-2.78317E-004	0.00000E+000	-7.96518E-006	-1.68088E-001	2.86182E-002	3.57880E+000	9	...........
	44	0.6	2.53317E-002	-2.78909E-004	0.00000E+000	-7.06524E-006	-1.68088E-001	2.53304E-002	3.57880E+000	9	...........
	45	0.613333	2.20932E-002	-2.79289E-004	0.00000E+000	-6.17036E-006	-1.68088E-001	2.20893E-002	3.57880E+000	9	...........
	46	0.626667	1.89122E-002	-2.77650E-004	0.00000E+000	-5.25096E-006	-1.68088E-001	1.89033E-002	3.57880E+000	9	...........
	47	0.64	1.57513E-002	-2.77958E-004	0.00000E+000	-4.37819E-006	-1.68088E-001	1.57468E-002	3.57880E+000	9	...........
	48	0.653333	1.26626E-002	-2.79550E-004	0.00000E+000	-3.53984E-006	-1.68088E-001	1.26510E-002	3.57880E+000	9	...........
	49	0.666667	9.64018E-003	-2.78389E-004	0.00000E+000	-2.68372E-006	-1.68088E-001	9.62616E-003	3.57880E+000	9	...........
	50	0.68	6.69223E-003	-2.77982E-004	0.00000E+000	-1.86032E-006	-1.68088E-001	6.67179E-003	3.57880E+000	9	...........
	51	0.693333	3.79497E-003	-2.79135E-004	0.00000E+000	-1.05931E-006	-1.68088E-001	3.78049E-003	3.57880E+000	9	...........
	52	0.706667	9.21781E-004	-2.79952E-004	0.00000E+000	-2.58055E-007	-1.68088E-001	9.03209E-004	3.57880E+000	9	...........
STARTTIMEOFFSET	QUANT	1996.876	Start Time Offset (s)
