EXPLAIN
TAG	PWR800_DISCHARGE
TITLE	LABEL	PWR Cyclic Charge Discharge (Cell) - Discharge Step	Test &Identifier
DATE	LABEL	7-7-2017	Date
TIME	LABEL	16:12:56	Time
NOTES	NOTES	3	&Notes...
	supercap test cell
	2.8mg
	6M KOH
PSTAT	PSTAT	IFC5000-01520	Potentiostat
CAPACITY	QUANT	1.00000E-003	Capacity (A-hr)
CELLTYPE	SELECTOR	1	&Cell Type
WORKINGCONNECTION	SELECTOR	0	&Working Lead
MAXDISCHARGETIME	VARIABLEANDUNITS	1.00000E+002	s	1.00000E+002	second(s)	Max &Discharge Time
DISCHARGEMODE	MULTIPARAM	0	2.80000E-004	&Discharge Mode	Constant Current	Amp(s)
SAMPLETIME	QUANT	1.00000E-002	Sa&mple Period (s)
DISCHARGESTOPAT1	MULTIPARAM	3	0.00000E+000	Discharge Stop At &1	Voltage < Limit	V
DISCHARGESTOPAT2	MULTIPARAM	0	0.00000E+000	Discharge Stop At &2	None	N/A
AESBHCSELECTOR	TOGGLE	F	Save Both Half Cells
IRCOMP	TOGGLE	F	IR &Measure
EOC	QUANT	0	Open Circuit (V)
SEQUENCER	TOGGLE	TRUE	Run as Sequence
PSTATMODEL	IQUANT	53	Pstat Model
PSTATSECTION	LABEL	IFC5000-01520	Pstat Section
PSTATSERIALNO	LABEL	01520	Pstat Serial Number
CTRLMODE	IQUANT	0	Control Mode
ELECTROMETER	IQUANT	1	RE=0 or CS=1
IESTAB	IQUANT	0	I/E Stability
CASPEED	IQUANT	4	Control Amp Speed
CONVENTION	IQUANT	1	Current Convention
ICHRANGE	IQUANT	2	Ich Range
ICHRANGEMODE	TOGGLE	T	Ich Auto Range
ICHOFFSETENABLE	TOGGLE	F	Ich Offset Enable
ICHOFFSET	QUANT	0	Ich Offset (V)
ICHFILTER	IQUANT	1	Ich Filter
VCHRANGE	IQUANT	2	Vch Range
VCHRANGEMODE	TOGGLE	T	Vch Auto Range
VCHOFFSETENABLE	TOGGLE	F	Vch Offset Enable
VCHOFFSET	QUANT	0	Vch Offset (V)
VCHFILTER	IQUANT	1	Vch Filter
IERANGELOWERLIMIT	IQUANT	9	I/E Range Lower Limit
IERANGEMODE	TOGGLE	F	I/E AutoRange
IERANGE	IQUANT	9	I/E Range
ACHSELECT	IQUANT	1	Ach Select
ACHRANGE	IQUANT	2	Ach Range
ACHOFFSETENABLE	TOGGLE	F	Ach Offset Enable
ACHOFFSET	QUANT	0	Ach Offset (V)
ACHFILTER	IQUANT	1	Ach Filter
CABLEID	IQUANT	14	Cable ID
DCCALDATE	LABEL	5-7-2017	DC Calibration Date
ACCALDATE	LABEL	12/3/2015	AC Calibration Date
FRAMEWORKVERSION	QUANT	7.01	Framework Version
INSTRUMENTVERSION	LABEL	4.00	Instrument Version
CURVE	TABLE	59
	Pt	T	Vf	Im	Vu	Pwr	Sig	Ach	Temp	IERange	Over
	#	s	V	A	V	W	V	V	deg C	#	bits
	0	0.013333	5.28275E-001	-2.78427E-004	0.00000E+000	-1.47086E-004	-1.68088E-001	5.28552E-001	3.57810E+000	9	...........
	1	0.026667	4.94837E-001	-2.79582E-004	0.00000E+000	-1.38348E-004	-1.68088E-001	4.95103E-001	3.57810E+000	9	...........
	2	0.04	4.64408E-001	-2.78101E-004	0.00000E+000	-1.29152E-004	-1.68088E-001	4.64523E-001	3.57810E+000	9	...........
	3	0.053333	4.35843E-001	-2.78779E-004	0.00000E+000	-1.21504E-004	-1.68088E-001	4.35950E-001	3.57810E+000	9	...........
	4	0.066667	4.09188E-001	-2.79044E-004	0.00000E+000	-1.14181E-004	-1.68088E-001	4.09286E-001	3.57810E+000	9	...........
	5	0.08	3.84248E-001	-2.78082E-004	0.00000E+000	-1.06853E-004	-1.68088E-001	3.84336E-001	3.57810E+000	9	...........
	6	0.093333	3.60940E-001	-2.78514E-004	0.00000E+000	-1.00527E-004	-1.68088E-001	3.61019E-001	3.57810E+000	9	...........
	7	0.106667	3.39178E-001	-2.78321E-004	0.00000E+000	-9.44002E-005	-1.68088E-001	3.39256E-001	3.57810E+000	9	...........
	8	0.12	3.18913E-001	-2.80277E-004	0.00000E+000	-8.93840E-005	-1.68088E-001	3.18983E-001	3.57810E+000	9	...........
	9	0.133333	3.00037E-001	-2.79006E-004	0.00000E+000	-8.37121E-005	-1.68088E-001	3.00104E-001	3.57810E+000	9	...........
	10	0.146667	2.82483E-001	-2.78651E-004	0.00000E+000	-7.87140E-005	-1.68088E-001	2.82548E-001	3.57810E+000	9	...........
	11	0.16	2.66151E-001	-2.78647E-004	0.00000E+000	-7.41620E-005	-1.68088E-001	2.66216E-001	3.57780E+000	9	...........
	12	0.173333	2.50982E-001	-2.79420E-004	0.00000E+000	-7.01292E-005	-1.68088E-001	2.51043E-001	3.57730E+000	9	...........
	13	0.186667	2.36909E-001	-2.80144E-004	0.00000E+000	-6.63686E-005	-1.68088E-001	2.36962E-001	3.57730E+000	9	...........
	14	0.2	2.23856E-001	-2.79193E-004	0.00000E+000	-6.24988E-005	-1.68088E-001	2.23904E-001	3.57730E+000	9	...........
	15	0.213333	2.11704E-001	-2.79496E-004	0.00000E+000	-5.91705E-005	-1.68088E-001	2.11754E-001	3.57730E+000	9	...........
	16	0.226667	2.00431E-001	-2.77460E-004	0.00000E+000	-5.56115E-005	-1.68088E-001	2.00478E-001	3.57730E+000	9	...........
	17	0.24	1.89854E-001	-2.79111E-004	0.00000E+000	-5.29904E-005	-1.68088E-001	1.89899E-001	3.57730E+000	9	...........
	18	0.253333	1.79967E-001	-2.79345E-004	0.00000E+000	-5.02730E-005	-1.68088E-001	1.80008E-001	3.57730E+000	9	...........
	19	0.266667	1.70774E-001	-2.78111E-004	0.00000E+000	-4.74941E-005	-1.68088E-001	1.70817E-001	3.57730E+000	9	...........
	20	0.28	1.62169E-001	-2.79599E-004	0.00000E+000	-4.53423E-005	-1.68088E-001	1.62203E-001	3.57730E+000	9	...........
	21	0.293333	1.54096E-001	-2.78017E-004	0.00000E+000	-4.28414E-005	-1.68088E-001	1.54126E-001	3.57730E+000	9	...........
	22	0.306667	1.46475E-001	-2.79300E-004	0.00000E+000	-4.09103E-005	-1.68088E-001	1.46507E-001	3.57730E+000	9	...........
	23	0.32	1.39287E-001	-2.79621E-004	0.00000E+000	-3.89474E-005	-1.68088E-001	1.39315E-001	3.57730E+000	9	...........
	24	0.333333	1.32473E-001	-2.79931E-004	0.00000E+000	-3.70835E-005	-1.68088E-001	1.32505E-001	3.57730E+000	9	...........
	25	0.346667	1.26055E-001	-2.78914E-004	0.00000E+000	-3.51585E-005	-1.68088E-001	1.26082E-001	3.57730E+000	9	...........
	26	0.36	1.19945E-001	-2.79307E-004	0.00000E+000	-3.35015E-005	-1.68088E-001	1.19976E-001	3.57730E+000	9	...........
	27	0.373333	1.14062E-001	-2.79511E-004	0.00000E+000	-3.18816E-005	-1.68088E-001	1.14093E-001	3.57730E+000	9	...........
	28	0.386667	1.08465E-001	-2.79195E-004	0.00000E+000	-3.02829E-005	-1.68088E-001	1.08493E-001	3.57730E+000	9	...........
	29	0.4	1.03106E-001	-2.79077E-004	0.00000E+000	-2.87746E-005	-1.68088E-001	1.03131E-001	3.57730E+000	9	...........
	30	0.413333	9.79725E-002	-2.80126E-004	0.00000E+000	-2.74447E-005	-1.68088E-001	9.80000E-002	3.57730E+000	9	...........
	31	0.426667	9.30843E-002	-2.79018E-004	0.00000E+000	-2.59722E-005	-1.68088E-001	9.31117E-002	3.57730E+000	9	...........
	32	0.44	8.83860E-002	-2.78473E-004	0.00000E+000	-2.46131E-005	-1.68088E-001	8.84112E-002	3.57730E+000	9	...........
	33	0.453333	8.38386E-002	-2.79040E-004	0.00000E+000	-2.33943E-005	-1.68088E-001	8.38604E-002	3.57730E+000	9	...........
	34	0.466667	7.94384E-002	-2.79538E-004	0.00000E+000	-2.22060E-005	-1.68088E-001	7.94554E-002	3.57730E+000	9	...........
	35	0.48	7.51614E-002	-2.80000E-004	0.00000E+000	-2.10452E-005	-1.68088E-001	7.51778E-002	3.57730E+000	9	...........
	36	0.493333	7.10525E-002	-2.79502E-004	0.00000E+000	-1.98593E-005	-1.68088E-001	7.10681E-002	3.57730E+000	9	...........
	37	0.506667	6.70530E-002	-2.79387E-004	0.00000E+000	-1.87337E-005	-1.68088E-001	6.70683E-002	3.57730E+000	9	...........
	38	0.52	6.31455E-002	-2.78587E-004	0.00000E+000	-1.75915E-005	-1.68088E-001	6.31633E-002	3.57730E+000	9	...........
	39	0.533333	5.93359E-002	-2.79118E-004	0.00000E+000	-1.65617E-005	-1.68088E-001	5.93523E-002	3.57730E+000	9	...........
	40	0.546667	5.56267E-002	-2.79122E-004	0.00000E+000	-1.55266E-005	-1.68088E-001	5.56439E-002	3.57730E+000	9	...........
	41	0.56	5.20948E-002	-2.79089E-004	0.00000E+000	-1.45391E-005	-1.68088E-001	5.21053E-002	3.57730E+000	9	...........
	42	0.573333	4.86753E-002	-2.78531E-004	0.00000E+000	-1.35576E-005	-1.68088E-001	4.86892E-002	3.57730E+000	9	...........
	43	0.586667	4.52943E-002	-2.80084E-004	0.00000E+000	-1.26862E-005	-1.68088E-001	4.53037E-002	3.57730E+000	9	...........
	44	0.6	4.19269E-002	-2.79209E-004	0.00000E+000	-1.17064E-005	-1.68088E-001	4.19373E-002	3.57730E+000	9	...........
	45	0.613333	3.87018E-002	-2.78169E-004	0.00000E+000	-1.07656E-005	-1.68088E-001	3.87128E-002	3.57730E+000	9	...........
	46	0.626667	3.55147E-002	-2.77741E-004	0.00000E+000	-9.86390E-006	-1.68088E-001	3.55231E-002	3.57730E+000	9	...........
	47	0.64	3.23531E-002	-2.79377E-004	0.00000E+000	-9.03872E-006	-1.68088E-001	3.23528E-002	3.57730E+000	9	...........
	48	0.653333	2.92797E-002	-2.79553E-004	0.00000E+000	-8.18524E-006	-1.68088E-001	2.92801E-002	3.57730E+000	9	...........
	49	0.666667	2.62971E-002	-2.79433E-004	0.00000E+000	-7.34829E-006	-1.68088E-001	2.62971E-002	3.57730E+000	9	...........
	50	0.68	2.33140E-002	-2.78933E-004	0.00000E+000	-6.50306E-006	-1.68088E-001	2.33115E-002	3.57730E+000	9	...........
	51	0.693333	2.04560E-002	-2.79260E-004	0.00000E+000	-5.71254E-006	-1.68088E-001	2.04523E-002	3.57730E+000	9	...........
	52	0.706667	1.76008E-002	-2.78433E-004	0.00000E+000	-4.90065E-006	-1.68088E-001	1.75965E-002	3.57730E+000	9	...........
	53	0.72	1.47330E-002	-2.78713E-004	0.00000E+000	-4.10629E-006	-1.68088E-001	1.47244E-002	3.57730E+000	9	...........
	54	0.733333	1.19085E-002	-2.77869E-004	0.00000E+000	-3.30899E-006	-1.68088E-001	1.19021E-002	3.57730E+000	9	...........
	55	0.746667	9.17276E-003	-2.79465E-004	0.00000E+000	-2.56346E-006	-1.68088E-001	9.16170E-003	3.57730E+000	9	...........
	56	0.76	6.44762E-003	-2.80106E-004	0.00000E+000	-1.80602E-006	-1.68088E-001	6.43619E-003	3.57730E+000	9	...........
	57	0.773333	3.78605E-003	-2.78794E-004	0.00000E+000	-1.05553E-006	-1.68088E-001	3.77010E-003	3.57730E+000	9	...........
	58	0.786667	1.14264E-003	-2.79717E-004	0.00000E+000	-3.19615E-007	-1.68088E-001	1.12202E-003	3.57730E+000	9	...........
STARTTIMEOFFSET	QUANT	1641.36	Start Time Offset (s)
