EXPLAIN
TAG	PWR800_DISCHARGE
TITLE	LABEL	PWR Cyclic Charge Discharge (Cell) - Discharge Step	Test &Identifier
DATE	LABEL	7-7-2017	Date
TIME	LABEL	16:18:54	Time
NOTES	NOTES	3	&Notes...
	supercap test cell
	2.8mg
	6M KOH
PSTAT	PSTAT	IFC5000-01520	Potentiostat
CAPACITY	QUANT	1.00000E-003	Capacity (A-hr)
CELLTYPE	SELECTOR	1	&Cell Type
WORKINGCONNECTION	SELECTOR	0	&Working Lead
MAXDISCHARGETIME	VARIABLEANDUNITS	1.00000E+002	s	1.00000E+002	second(s)	Max &Discharge Time
DISCHARGEMODE	MULTIPARAM	0	2.80000E-004	&Discharge Mode	Constant Current	Amp(s)
SAMPLETIME	QUANT	1.00000E-002	Sa&mple Period (s)
DISCHARGESTOPAT1	MULTIPARAM	3	0.00000E+000	Discharge Stop At &1	Voltage < Limit	V
DISCHARGESTOPAT2	MULTIPARAM	0	0.00000E+000	Discharge Stop At &2	None	N/A
AESBHCSELECTOR	TOGGLE	F	Save Both Half Cells
IRCOMP	TOGGLE	F	IR &Measure
EOC	QUANT	0	Open Circuit (V)
SEQUENCER	TOGGLE	TRUE	Run as Sequence
PSTATMODEL	IQUANT	53	Pstat Model
PSTATSECTION	LABEL	IFC5000-01520	Pstat Section
PSTATSERIALNO	LABEL	01520	Pstat Serial Number
CTRLMODE	IQUANT	0	Control Mode
ELECTROMETER	IQUANT	1	RE=0 or CS=1
IESTAB	IQUANT	0	I/E Stability
CASPEED	IQUANT	4	Control Amp Speed
CONVENTION	IQUANT	1	Current Convention
ICHRANGE	IQUANT	2	Ich Range
ICHRANGEMODE	TOGGLE	T	Ich Auto Range
ICHOFFSETENABLE	TOGGLE	F	Ich Offset Enable
ICHOFFSET	QUANT	0	Ich Offset (V)
ICHFILTER	IQUANT	1	Ich Filter
VCHRANGE	IQUANT	2	Vch Range
VCHRANGEMODE	TOGGLE	T	Vch Auto Range
VCHOFFSETENABLE	TOGGLE	F	Vch Offset Enable
VCHOFFSET	QUANT	0	Vch Offset (V)
VCHFILTER	IQUANT	1	Vch Filter
IERANGELOWERLIMIT	IQUANT	9	I/E Range Lower Limit
IERANGEMODE	TOGGLE	F	I/E AutoRange
IERANGE	IQUANT	9	I/E Range
ACHSELECT	IQUANT	1	Ach Select
ACHRANGE	IQUANT	2	Ach Range
ACHOFFSETENABLE	TOGGLE	F	Ach Offset Enable
ACHOFFSET	QUANT	0	Ach Offset (V)
ACHFILTER	IQUANT	1	Ach Filter
CABLEID	IQUANT	14	Cable ID
DCCALDATE	LABEL	5-7-2017	DC Calibration Date
ACCALDATE	LABEL	12/3/2015	AC Calibration Date
FRAMEWORKVERSION	QUANT	7.01	Framework Version
INSTRUMENTVERSION	LABEL	4.00	Instrument Version
CURVE	TABLE	54
	Pt	T	Vf	Im	Vu	Pwr	Sig	Ach	Temp	IERange	Over
	#	s	V	A	V	W	V	V	deg C	#	bits
	0	0.013333	5.14909E-001	-2.79919E-004	0.00000E+000	-1.44133E-004	-1.68088E-001	5.15151E-001	3.57740E+000	9	...........
	1	0.026667	4.81323E-001	-2.79765E-004	0.00000E+000	-1.34657E-004	-1.68088E-001	4.81492E-001	3.57740E+000	9	...........
	2	0.04	4.50495E-001	-2.79835E-004	0.00000E+000	-1.26064E-004	-1.68088E-001	4.50601E-001	3.57740E+000	9	...........
	3	0.053333	4.21714E-001	-2.77934E-004	0.00000E+000	-1.17209E-004	-1.68088E-001	4.21814E-001	3.57740E+000	9	...........
	4	0.066667	3.94835E-001	-2.78855E-004	0.00000E+000	-1.10102E-004	-1.68088E-001	3.94923E-001	3.57740E+000	9	...........
	5	0.08	3.69692E-001	-2.79305E-004	0.00000E+000	-1.03257E-004	-1.68088E-001	3.69771E-001	3.57740E+000	9	...........
	6	0.093333	3.46196E-001	-2.77987E-004	0.00000E+000	-9.62380E-005	-1.68088E-001	3.46270E-001	3.57740E+000	9	...........
	7	0.106667	3.24320E-001	-2.78656E-004	0.00000E+000	-9.03736E-005	-1.68088E-001	3.24391E-001	3.57740E+000	9	...........
	8	0.12	3.03983E-001	-2.78555E-004	0.00000E+000	-8.46760E-005	-1.68088E-001	3.04048E-001	3.57740E+000	9	...........
	9	0.133333	2.85053E-001	-2.78144E-004	0.00000E+000	-7.92856E-005	-1.68088E-001	2.85118E-001	3.57740E+000	9	...........
	10	0.146667	2.67490E-001	-2.79558E-004	0.00000E+000	-7.47790E-005	-1.68088E-001	2.67554E-001	3.57740E+000	9	...........
	11	0.16	2.51170E-001	-2.78248E-004	0.00000E+000	-6.98876E-005	-1.68088E-001	2.51228E-001	3.57740E+000	9	...........
	12	0.173333	2.36009E-001	-2.78572E-004	0.00000E+000	-6.57455E-005	-1.68088E-001	2.36061E-001	3.57740E+000	9	...........
	13	0.186667	2.21925E-001	-2.79574E-004	0.00000E+000	-6.20444E-005	-1.68088E-001	2.21978E-001	3.57740E+000	9	...........
	14	0.2	2.08862E-001	-2.79220E-004	0.00000E+000	-5.83183E-005	-1.68088E-001	2.08911E-001	3.57740E+000	9	...........
	15	0.213333	1.96721E-001	-2.79590E-004	0.00000E+000	-5.50010E-005	-1.68088E-001	1.96768E-001	3.57740E+000	9	...........
	16	0.226667	1.85432E-001	-2.78237E-004	0.00000E+000	-5.15940E-005	-1.68088E-001	1.85481E-001	3.57740E+000	9	...........
	17	0.24	1.74910E-001	-2.79639E-004	0.00000E+000	-4.89117E-005	-1.68088E-001	1.74957E-001	3.57740E+000	9	...........
	18	0.253333	1.65100E-001	-2.77732E-004	0.00000E+000	-4.58536E-005	-1.68088E-001	1.65139E-001	3.57740E+000	9	...........
	19	0.266667	1.55921E-001	-2.78286E-004	0.00000E+000	-4.33905E-005	-1.68088E-001	1.55951E-001	3.57740E+000	9	...........
	20	0.28	1.47316E-001	-2.78753E-004	0.00000E+000	-4.10647E-005	-1.68088E-001	1.47344E-001	3.57740E+000	9	...........
	21	0.293333	1.39227E-001	-2.79009E-004	0.00000E+000	-3.88457E-005	-1.68088E-001	1.39262E-001	3.57740E+000	9	...........
	22	0.306667	1.31629E-001	-2.78257E-004	0.00000E+000	-3.66267E-005	-1.68088E-001	1.31660E-001	3.57740E+000	9	...........
	23	0.32	1.24463E-001	-2.78132E-004	0.00000E+000	-3.46172E-005	-1.68088E-001	1.24494E-001	3.57740E+000	9	...........
	24	0.333333	1.17697E-001	-2.78234E-004	0.00000E+000	-3.27474E-005	-1.68088E-001	1.17727E-001	3.57740E+000	9	...........
	25	0.346667	1.11260E-001	-2.78738E-004	0.00000E+000	-3.10124E-005	-1.68088E-001	1.11292E-001	3.57740E+000	9	...........
	26	0.36	1.05173E-001	-2.78586E-004	0.00000E+000	-2.92999E-005	-1.68088E-001	1.05197E-001	3.57740E+000	9	...........
	27	0.373333	9.93692E-002	-2.79031E-004	0.00000E+000	-2.77271E-005	-1.68088E-001	9.93975E-002	3.57740E+000	9	...........
	28	0.386667	9.38518E-002	-2.79019E-004	0.00000E+000	-2.61864E-005	-1.68088E-001	9.38759E-002	3.57740E+000	9	...........
	29	0.4	8.85629E-002	-2.79418E-004	0.00000E+000	-2.47460E-005	-1.68088E-001	8.85848E-002	3.57740E+000	9	...........
	30	0.413333	8.35116E-002	-2.79486E-004	0.00000E+000	-2.33403E-005	-1.68088E-001	8.35277E-002	3.57740E+000	9	...........
	31	0.426667	7.86100E-002	-2.79220E-004	0.00000E+000	-2.19495E-005	-1.68088E-001	7.86276E-002	3.57740E+000	9	...........
	32	0.44	7.39040E-002	-2.78813E-004	0.00000E+000	-2.06054E-005	-1.68088E-001	7.39204E-002	3.57740E+000	9	...........
	33	0.453333	6.94116E-002	-2.78860E-004	0.00000E+000	-1.93561E-005	-1.68088E-001	6.94254E-002	3.57740E+000	9	...........
	34	0.466667	6.50808E-002	-2.79625E-004	0.00000E+000	-1.81982E-005	-1.68088E-001	6.50973E-002	3.57740E+000	9	...........
	35	0.48	6.08530E-002	-2.78926E-004	0.00000E+000	-1.69735E-005	-1.68088E-001	6.08656E-002	3.57740E+000	9	...........
	36	0.493333	5.67778E-002	-2.78477E-004	0.00000E+000	-1.58113E-005	-1.68088E-001	5.67904E-002	3.57740E+000	9	...........
	37	0.506667	5.28353E-002	-2.78076E-004	0.00000E+000	-1.46922E-005	-1.68088E-001	5.28373E-002	3.57740E+000	9	...........
	38	0.52	4.89623E-002	-2.79639E-004	0.00000E+000	-1.36918E-005	-1.68088E-001	4.89609E-002	3.57740E+000	9	...........
	39	0.533333	4.52690E-002	-2.80497E-004	0.00000E+000	-1.26978E-005	-1.68088E-001	4.52739E-002	3.57740E+000	9	...........
	40	0.546667	4.16413E-002	-2.79653E-004	0.00000E+000	-1.16451E-005	-1.68088E-001	4.16464E-002	3.57740E+000	9	...........
	41	0.56	3.80764E-002	-2.79096E-004	0.00000E+000	-1.06270E-005	-1.68088E-001	3.80821E-002	3.57740E+000	9	...........
	42	0.573333	3.46130E-002	-2.78457E-004	0.00000E+000	-9.63825E-006	-1.68088E-001	3.46151E-002	3.57740E+000	9	...........
	43	0.586667	3.12538E-002	-2.80005E-004	0.00000E+000	-8.75123E-006	-1.68088E-001	3.12533E-002	3.57740E+000	9	...........
	44	0.6	2.79434E-002	-2.77752E-004	0.00000E+000	-7.76133E-006	-1.68088E-001	2.79422E-002	3.57740E+000	9	...........
	45	0.613333	2.46904E-002	-2.79320E-004	0.00000E+000	-6.89650E-006	-1.68088E-001	2.46852E-002	3.57740E+000	9	...........
	46	0.626667	2.15315E-002	-2.77631E-004	0.00000E+000	-5.97782E-006	-1.68088E-001	2.15221E-002	3.57740E+000	9	...........
	47	0.64	1.84490E-002	-2.79694E-004	0.00000E+000	-5.16007E-006	-1.68088E-001	1.84434E-002	3.57740E+000	9	...........
	48	0.653333	1.53842E-002	-2.78147E-004	0.00000E+000	-4.27907E-006	-1.68088E-001	1.53717E-002	3.57740E+000	9	...........
	49	0.666667	1.23466E-002	-2.78718E-004	0.00000E+000	-3.44121E-006	-1.68088E-001	1.23347E-002	3.57740E+000	9	...........
	50	0.68	9.39014E-003	-2.79303E-004	0.00000E+000	-2.62270E-006	-1.68088E-001	9.37889E-003	3.57740E+000	9	...........
	51	0.693333	6.50836E-003	-2.79076E-004	0.00000E+000	-1.81633E-006	-1.68088E-001	6.50062E-003	3.57740E+000	9	...........
	52	0.706667	3.61973E-003	-2.80022E-004	0.00000E+000	-1.01360E-006	-1.68088E-001	3.60292E-003	3.57740E+000	9	...........
	53	0.718333	1.00324E-003	-2.78534E-004	0.00000E+000	-2.79437E-007	-1.68088E-001	9.82125E-004	3.57740E+000	9	...........
STARTTIMEOFFSET	QUANT	1879.838	Start Time Offset (s)
