EXPLAIN
TAG	PWR800_DISCHARGE
TITLE	LABEL	PWR Cyclic Charge Discharge (Cell) - Discharge Step	Test &Identifier
DATE	LABEL	7-7-2017	Date
TIME	LABEL	16:15:10	Time
NOTES	NOTES	3	&Notes...
	supercap test cell
	2.8mg
	6M KOH
PSTAT	PSTAT	IFC5000-01520	Potentiostat
CAPACITY	QUANT	1.00000E-003	Capacity (A-hr)
CELLTYPE	SELECTOR	1	&Cell Type
WORKINGCONNECTION	SELECTOR	0	&Working Lead
MAXDISCHARGETIME	VARIABLEANDUNITS	1.00000E+002	s	1.00000E+002	second(s)	Max &Discharge Time
DISCHARGEMODE	MULTIPARAM	0	2.80000E-004	&Discharge Mode	Constant Current	Amp(s)
SAMPLETIME	QUANT	1.00000E-002	Sa&mple Period (s)
DISCHARGESTOPAT1	MULTIPARAM	3	0.00000E+000	Discharge Stop At &1	Voltage < Limit	V
DISCHARGESTOPAT2	MULTIPARAM	0	0.00000E+000	Discharge Stop At &2	None	N/A
AESBHCSELECTOR	TOGGLE	F	Save Both Half Cells
IRCOMP	TOGGLE	F	IR &Measure
EOC	QUANT	0	Open Circuit (V)
SEQUENCER	TOGGLE	TRUE	Run as Sequence
PSTATMODEL	IQUANT	53	Pstat Model
PSTATSECTION	LABEL	IFC5000-01520	Pstat Section
PSTATSERIALNO	LABEL	01520	Pstat Serial Number
CTRLMODE	IQUANT	0	Control Mode
ELECTROMETER	IQUANT	1	RE=0 or CS=1
IESTAB	IQUANT	0	I/E Stability
CASPEED	IQUANT	4	Control Amp Speed
CONVENTION	IQUANT	1	Current Convention
ICHRANGE	IQUANT	2	Ich Range
ICHRANGEMODE	TOGGLE	T	Ich Auto Range
ICHOFFSETENABLE	TOGGLE	F	Ich Offset Enable
ICHOFFSET	QUANT	0	Ich Offset (V)
ICHFILTER	IQUANT	1	Ich Filter
VCHRANGE	IQUANT	2	Vch Range
VCHRANGEMODE	TOGGLE	T	Vch Auto Range
VCHOFFSETENABLE	TOGGLE	F	Vch Offset Enable
VCHOFFSET	QUANT	0	Vch Offset (V)
VCHFILTER	IQUANT	1	Vch Filter
IERANGELOWERLIMIT	IQUANT	9	I/E Range Lower Limit
IERANGEMODE	TOGGLE	F	I/E AutoRange
IERANGE	IQUANT	9	I/E Range
ACHSELECT	IQUANT	1	Ach Select
ACHRANGE	IQUANT	2	Ach Range
ACHOFFSETENABLE	TOGGLE	F	Ach Offset Enable
ACHOFFSET	QUANT	0	Ach Offset (V)
ACHFILTER	IQUANT	1	Ach Filter
CABLEID	IQUANT	14	Cable ID
DCCALDATE	LABEL	5-7-2017	DC Calibration Date
ACCALDATE	LABEL	12/3/2015	AC Calibration Date
FRAMEWORKVERSION	QUANT	7.01	Framework Version
INSTRUMENTVERSION	LABEL	4.00	Instrument Version
CURVE	TABLE	58
	Pt	T	Vf	Im	Vu	Pwr	Sig	Ach	Temp	IERange	Over
	#	s	V	A	V	W	V	V	deg C	#	bits
	0	0.013333	5.19441E-001	-2.77467E-004	0.00000E+000	-1.44128E-004	-1.68088E-001	5.19672E-001	3.57740E+000	9	...........
	1	0.026667	4.86121E-001	-2.78346E-004	0.00000E+000	-1.35310E-004	-1.68088E-001	4.86294E-001	3.57740E+000	9	...........
	2	0.04	4.55658E-001	-2.78766E-004	0.00000E+000	-1.27022E-004	-1.68088E-001	4.55765E-001	3.57740E+000	9	...........
	3	0.053333	4.27190E-001	-2.78883E-004	0.00000E+000	-1.19136E-004	-1.68088E-001	4.27289E-001	3.57740E+000	9	...........
	4	0.066667	4.00639E-001	-2.78580E-004	0.00000E+000	-1.11610E-004	-1.68088E-001	4.00730E-001	3.57740E+000	9	...........
	5	0.08	3.75837E-001	-2.78154E-004	0.00000E+000	-1.04541E-004	-1.68088E-001	3.75924E-001	3.57740E+000	9	...........
	6	0.093333	3.52706E-001	-2.79323E-004	0.00000E+000	-9.85189E-005	-1.68088E-001	3.52787E-001	3.57740E+000	9	...........
	7	0.106667	3.31149E-001	-2.78763E-004	0.00000E+000	-9.23123E-005	-1.68088E-001	3.31223E-001	3.57740E+000	9	...........
	8	0.12	3.11057E-001	-2.78785E-004	0.00000E+000	-8.67183E-005	-1.68088E-001	3.11127E-001	3.57740E+000	9	...........
	9	0.133333	2.92310E-001	-2.79379E-004	0.00000E+000	-8.16654E-005	-1.68088E-001	2.92379E-001	3.57740E+000	9	...........
	10	0.146667	2.74894E-001	-2.80015E-004	0.00000E+000	-7.69743E-005	-1.68088E-001	2.74956E-001	3.57740E+000	9	...........
	11	0.16	2.58713E-001	-2.79021E-004	0.00000E+000	-7.21862E-005	-1.68088E-001	2.58778E-001	3.57740E+000	9	...........
	12	0.173333	2.43732E-001	-2.79976E-004	0.00000E+000	-6.82391E-005	-1.68088E-001	2.43790E-001	3.57740E+000	9	...........
	13	0.186667	2.29827E-001	-2.78519E-004	0.00000E+000	-6.40110E-005	-1.68088E-001	2.29884E-001	3.57740E+000	9	...........
	14	0.2	2.16925E-001	-2.78952E-004	0.00000E+000	-6.05116E-005	-1.68088E-001	2.16978E-001	3.57740E+000	9	...........
	15	0.213333	2.04911E-001	-2.78306E-004	0.00000E+000	-5.70278E-005	-1.68088E-001	2.04956E-001	3.57740E+000	9	...........
	16	0.226667	1.93717E-001	-2.77591E-004	0.00000E+000	-5.37743E-005	-1.68088E-001	1.93758E-001	3.57740E+000	9	...........
	17	0.24	1.83301E-001	-2.78749E-004	0.00000E+000	-5.10949E-005	-1.68088E-001	1.83342E-001	3.57740E+000	9	...........
	18	0.253333	1.73562E-001	-2.78311E-004	0.00000E+000	-4.83043E-005	-1.68088E-001	1.73601E-001	3.57740E+000	9	...........
	19	0.266667	1.64466E-001	-2.79232E-004	0.00000E+000	-4.59241E-005	-1.68088E-001	1.64500E-001	3.57740E+000	9	...........
	20	0.28	1.55938E-001	-2.78737E-004	0.00000E+000	-4.34656E-005	-1.68088E-001	1.55971E-001	3.57740E+000	9	...........
	21	0.293333	1.47916E-001	-2.79079E-004	0.00000E+000	-4.12802E-005	-1.68088E-001	1.47947E-001	3.57740E+000	9	...........
	22	0.306667	1.40368E-001	-2.78697E-004	0.00000E+000	-3.91202E-005	-1.68088E-001	1.40400E-001	3.57740E+000	9	...........
	23	0.32	1.33250E-001	-2.77864E-004	0.00000E+000	-3.70254E-005	-1.68088E-001	1.33280E-001	3.57740E+000	9	...........
	24	0.333333	1.26521E-001	-2.78948E-004	0.00000E+000	-3.52929E-005	-1.68088E-001	1.26552E-001	3.57740E+000	9	...........
	25	0.346667	1.20114E-001	-2.79631E-004	0.00000E+000	-3.35875E-005	-1.68088E-001	1.20145E-001	3.57740E+000	9	...........
	26	0.36	1.14072E-001	-2.79356E-004	0.00000E+000	-3.18669E-005	-1.68088E-001	1.14099E-001	3.57740E+000	9	...........
	27	0.373333	1.08339E-001	-2.78898E-004	0.00000E+000	-3.02155E-005	-1.68088E-001	1.08370E-001	3.57740E+000	9	...........
	28	0.386667	1.02877E-001	-2.78922E-004	0.00000E+000	-2.86948E-005	-1.68088E-001	1.02904E-001	3.57740E+000	9	...........
	29	0.4	9.75622E-002	-2.78897E-004	0.00000E+000	-2.72098E-005	-1.68088E-001	9.75874E-002	3.57740E+000	9	...........
	30	0.413333	9.24939E-002	-2.79204E-004	0.00000E+000	-2.58247E-005	-1.68088E-001	9.25185E-002	3.57740E+000	9	...........
	31	0.426667	8.76545E-002	-2.78783E-004	0.00000E+000	-2.44366E-005	-1.68088E-001	8.76726E-002	3.57740E+000	9	...........
	32	0.44	8.29677E-002	-2.79346E-004	0.00000E+000	-2.31767E-005	-1.68088E-001	8.29914E-002	3.57740E+000	9	...........
	33	0.453333	7.84494E-002	-2.78947E-004	0.00000E+000	-2.18832E-005	-1.68088E-001	7.84630E-002	3.57740E+000	9	...........
	34	0.466667	7.41330E-002	-2.78624E-004	0.00000E+000	-2.06552E-005	-1.68088E-001	7.41425E-002	3.57740E+000	9	...........
	35	0.48	6.99212E-002	-2.79496E-004	0.00000E+000	-1.95427E-005	-1.68088E-001	6.99353E-002	3.57740E+000	9	...........
	36	0.493333	6.58588E-002	-2.79158E-004	0.00000E+000	-1.83850E-005	-1.68088E-001	6.58690E-002	3.57740E+000	9	...........
	37	0.506667	6.19434E-002	-2.79242E-004	0.00000E+000	-1.72972E-005	-1.68088E-001	6.19561E-002	3.57740E+000	9	...........
	38	0.52	5.81009E-002	-2.78438E-004	0.00000E+000	-1.61775E-005	-1.68088E-001	5.81149E-002	3.57740E+000	9	...........
	39	0.533333	5.43456E-002	-2.78645E-004	0.00000E+000	-1.51431E-005	-1.68088E-001	5.43506E-002	3.57740E+000	9	...........
	40	0.546667	5.07127E-002	-2.79389E-004	0.00000E+000	-1.41686E-005	-1.68088E-001	5.07208E-002	3.57740E+000	9	...........
	41	0.56	4.72008E-002	-2.78859E-004	0.00000E+000	-1.31624E-005	-1.68088E-001	4.72121E-002	3.57740E+000	9	...........
	42	0.573333	4.37260E-002	-2.79581E-004	0.00000E+000	-1.22250E-005	-1.68088E-001	4.37369E-002	3.57740E+000	9	...........
	43	0.586667	4.03180E-002	-2.79536E-004	0.00000E+000	-1.12703E-005	-1.68088E-001	4.03242E-002	3.57740E+000	9	...........
	44	0.6	3.69516E-002	-2.80390E-004	0.00000E+000	-1.03609E-005	-1.68088E-001	3.69548E-002	3.57740E+000	9	...........
	45	0.613333	3.37016E-002	-2.78488E-004	0.00000E+000	-9.38549E-006	-1.68088E-001	3.37059E-002	3.57740E+000	9	...........
	46	0.626667	3.05032E-002	-2.78645E-004	0.00000E+000	-8.49955E-006	-1.68088E-001	3.05033E-002	3.57740E+000	9	...........
	47	0.64	2.73734E-002	-2.80346E-004	0.00000E+000	-7.67403E-006	-1.68088E-001	2.73708E-002	3.57740E+000	9	...........
	48	0.653333	2.43212E-002	-2.80619E-004	0.00000E+000	-6.82500E-006	-1.68088E-001	2.43191E-002	3.57740E+000	9	...........
	49	0.666667	2.13035E-002	-2.78996E-004	0.00000E+000	-5.94359E-006	-1.68088E-001	2.12976E-002	3.57740E+000	9	...........
	50	0.68	1.83331E-002	-2.79861E-004	0.00000E+000	-5.13071E-006	-1.68088E-001	1.83278E-002	3.57740E+000	9	...........
	51	0.693333	1.54610E-002	-2.79133E-004	0.00000E+000	-4.31567E-006	-1.68088E-001	1.54526E-002	3.57740E+000	9	...........
	52	0.706667	1.26168E-002	-2.79838E-004	0.00000E+000	-3.53065E-006	-1.68088E-001	1.26052E-002	3.57740E+000	9	...........
	53	0.72	9.84713E-003	-2.78928E-004	0.00000E+000	-2.74664E-006	-1.68088E-001	9.83215E-003	3.57740E+000	9	...........
	54	0.733333	7.09129E-003	-2.78556E-004	0.00000E+000	-1.97532E-006	-1.68088E-001	7.07711E-003	3.57810E+000	9	...........
	55	0.746667	4.37711E-003	-2.79478E-004	0.00000E+000	-1.22331E-006	-1.68088E-001	4.36065E-003	3.57880E+000	9	...........
	56	0.76	1.65454E-003	-2.79687E-004	0.00000E+000	-4.62752E-007	-1.68088E-001	1.63774E-003	3.57880E+000	9	...........
	57	0.763333	-1.34540E-007	-2.78527E-004	0.00000E+000	3.74729E-011	-1.68088E-001	-1.32587E-005	3.57880E+000	9	...........
STARTTIMEOFFSET	QUANT	1731.354	Start Time Offset (s)
