EXPLAIN
TAG	PWR800_DISCHARGE
TITLE	LABEL	PWR Cyclic Charge Discharge (Cell) - Discharge Step	Test &Identifier
DATE	LABEL	7-7-2017	Date
TIME	LABEL	15:48:01	Time
NOTES	NOTES	3	&Notes...
	supercap test cell
	2.8mg
	6M KOH
PSTAT	PSTAT	IFC5000-01520	Potentiostat
CAPACITY	QUANT	1.00000E-003	Capacity (A-hr)
CELLTYPE	SELECTOR	1	&Cell Type
WORKINGCONNECTION	SELECTOR	0	&Working Lead
MAXDISCHARGETIME	VARIABLEANDUNITS	1.00000E+002	s	1.00000E+002	second(s)	Max &Discharge Time
DISCHARGEMODE	MULTIPARAM	0	2.80000E-004	&Discharge Mode	Constant Current	Amp(s)
SAMPLETIME	QUANT	1.00000E-002	Sa&mple Period (s)
DISCHARGESTOPAT1	MULTIPARAM	3	0.00000E+000	Discharge Stop At &1	Voltage < Limit	V
DISCHARGESTOPAT2	MULTIPARAM	0	0.00000E+000	Discharge Stop At &2	None	N/A
AESBHCSELECTOR	TOGGLE	F	Save Both Half Cells
IRCOMP	TOGGLE	F	IR &Measure
EOC	QUANT	0	Open Circuit (V)
SEQUENCER	TOGGLE	TRUE	Run as Sequence
PSTATMODEL	IQUANT	53	Pstat Model
PSTATSECTION	LABEL	IFC5000-01520	Pstat Section
PSTATSERIALNO	LABEL	01520	Pstat Serial Number
CTRLMODE	IQUANT	0	Control Mode
ELECTROMETER	IQUANT	1	RE=0 or CS=1
IESTAB	IQUANT	0	I/E Stability
CASPEED	IQUANT	4	Control Amp Speed
CONVENTION	IQUANT	1	Current Convention
ICHRANGE	IQUANT	2	Ich Range
ICHRANGEMODE	TOGGLE	T	Ich Auto Range
ICHOFFSETENABLE	TOGGLE	F	Ich Offset Enable
ICHOFFSET	QUANT	0	Ich Offset (V)
ICHFILTER	IQUANT	1	Ich Filter
VCHRANGE	IQUANT	2	Vch Range
VCHRANGEMODE	TOGGLE	T	Vch Auto Range
VCHOFFSETENABLE	TOGGLE	F	Vch Offset Enable
VCHOFFSET	QUANT	0	Vch Offset (V)
VCHFILTER	IQUANT	1	Vch Filter
IERANGELOWERLIMIT	IQUANT	9	I/E Range Lower Limit
IERANGEMODE	TOGGLE	F	I/E AutoRange
IERANGE	IQUANT	9	I/E Range
ACHSELECT	IQUANT	1	Ach Select
ACHRANGE	IQUANT	2	Ach Range
ACHOFFSETENABLE	TOGGLE	F	Ach Offset Enable
ACHOFFSET	QUANT	0	Ach Offset (V)
ACHFILTER	IQUANT	1	Ach Filter
CABLEID	IQUANT	14	Cable ID
DCCALDATE	LABEL	5-7-2017	DC Calibration Date
ACCALDATE	LABEL	12/3/2015	AC Calibration Date
FRAMEWORKVERSION	QUANT	7.01	Framework Version
INSTRUMENTVERSION	LABEL	4.00	Instrument Version
CURVE	TABLE	97
	Pt	T	Vf	Im	Vu	Pwr	Sig	Ach	Temp	IERange	Over
	#	s	V	A	V	W	V	V	deg C	#	bits
	0	0.013333	5.50456E-001	-2.78497E-004	0.00000E+000	-1.53300E-004	-1.68088E-001	5.50722E-001	3.57790E+000	9	...........
	1	0.026667	5.20266E-001	-2.79761E-004	0.00000E+000	-1.45550E-004	-1.68088E-001	5.20515E-001	3.57790E+000	9	...........
	2	0.04	4.92994E-001	-2.78662E-004	0.00000E+000	-1.37379E-004	-1.68088E-001	4.93252E-001	3.57790E+000	9	...........
	3	0.053333	4.68310E-001	-2.78655E-004	0.00000E+000	-1.30497E-004	-1.68088E-001	4.68424E-001	3.57790E+000	9	...........
	4	0.066667	4.45250E-001	-2.79294E-004	0.00000E+000	-1.24356E-004	-1.68088E-001	4.45361E-001	3.57790E+000	9	...........
	5	0.08	4.23923E-001	-2.79383E-004	0.00000E+000	-1.18437E-004	-1.68088E-001	4.24033E-001	3.57790E+000	9	...........
	6	0.093333	4.04146E-001	-2.79167E-004	0.00000E+000	-1.12824E-004	-1.68088E-001	4.04240E-001	3.57790E+000	9	...........
	7	0.106667	3.85780E-001	-2.78961E-004	0.00000E+000	-1.07618E-004	-1.68088E-001	3.85869E-001	3.57790E+000	9	...........
	8	0.12	3.68739E-001	-2.79221E-004	0.00000E+000	-1.02960E-004	-1.68088E-001	3.68829E-001	3.57790E+000	9	...........
	9	0.133333	3.52903E-001	-2.78909E-004	0.00000E+000	-9.84279E-005	-1.68088E-001	3.52986E-001	3.57790E+000	9	...........
	10	0.146667	3.38182E-001	-2.79270E-004	0.00000E+000	-9.44441E-005	-1.68088E-001	3.38258E-001	3.57790E+000	9	...........
	11	0.16	3.24498E-001	-2.79373E-004	0.00000E+000	-9.06561E-005	-1.68088E-001	3.24575E-001	3.57790E+000	9	...........
	12	0.173333	3.11768E-001	-2.78749E-004	0.00000E+000	-8.69050E-005	-1.68088E-001	3.11845E-001	3.57790E+000	9	...........
	13	0.186667	2.99945E-001	-2.78900E-004	0.00000E+000	-8.36547E-005	-1.68088E-001	3.00019E-001	3.57790E+000	9	...........
	14	0.2	2.88876E-001	-2.79174E-004	0.00000E+000	-8.06466E-005	-1.68088E-001	2.88953E-001	3.57790E+000	9	...........
	15	0.213333	2.78531E-001	-2.79092E-004	0.00000E+000	-7.77356E-005	-1.68088E-001	2.78603E-001	3.57790E+000	9	...........
	16	0.226667	2.68894E-001	-2.78953E-004	0.00000E+000	-7.50089E-005	-1.68088E-001	2.68964E-001	3.57790E+000	9	...........
	17	0.24	2.59890E-001	-2.78696E-004	0.00000E+000	-7.24301E-005	-1.68088E-001	2.59953E-001	3.57790E+000	9	...........
	18	0.253333	2.51388E-001	-2.78288E-004	0.00000E+000	-6.99584E-005	-1.68088E-001	2.51457E-001	3.57790E+000	9	...........
	19	0.266667	2.43400E-001	-2.79325E-004	0.00000E+000	-6.79878E-005	-1.68088E-001	2.43459E-001	3.57790E+000	9	...........
	20	0.28	2.35851E-001	-2.79575E-004	0.00000E+000	-6.59381E-005	-1.68088E-001	2.35900E-001	3.57790E+000	9	...........
	21	0.293333	2.28673E-001	-2.78468E-004	0.00000E+000	-6.36780E-005	-1.68088E-001	2.28724E-001	3.57790E+000	9	...........
	22	0.306667	2.21923E-001	-2.79699E-004	0.00000E+000	-6.20716E-005	-1.68088E-001	2.21969E-001	3.57790E+000	9	...........
	23	0.32	2.15471E-001	-2.79124E-004	0.00000E+000	-6.01431E-005	-1.68088E-001	2.15511E-001	3.57790E+000	9	...........
	24	0.333333	2.09260E-001	-2.79760E-004	0.00000E+000	-5.85426E-005	-1.68088E-001	2.09307E-001	3.57790E+000	9	...........
	25	0.346667	2.03376E-001	-2.78773E-004	0.00000E+000	-5.66956E-005	-1.68088E-001	2.03423E-001	3.57790E+000	9	...........
	26	0.36	1.97710E-001	-2.79640E-004	0.00000E+000	-5.52875E-005	-1.68088E-001	1.97759E-001	3.57790E+000	9	...........
	27	0.373333	1.92285E-001	-2.78900E-004	0.00000E+000	-5.36282E-005	-1.68088E-001	1.92331E-001	3.57790E+000	9	...........
	28	0.386667	1.87073E-001	-2.78923E-004	0.00000E+000	-5.21790E-005	-1.68088E-001	1.87122E-001	3.57790E+000	9	...........
	29	0.4	1.82032E-001	-2.78733E-004	0.00000E+000	-5.07382E-005	-1.68088E-001	1.82082E-001	3.57790E+000	9	...........
	30	0.413333	1.77240E-001	-2.79548E-004	0.00000E+000	-4.95472E-005	-1.68088E-001	1.77288E-001	3.57790E+000	9	...........
	31	0.426667	1.72658E-001	-2.78943E-004	0.00000E+000	-4.81616E-005	-1.68088E-001	1.72707E-001	3.57790E+000	9	...........
	32	0.44	1.68223E-001	-2.78749E-004	0.00000E+000	-4.68921E-005	-1.68088E-001	1.68269E-001	3.57790E+000	9	...........
	33	0.453333	1.63908E-001	-2.79298E-004	0.00000E+000	-4.57793E-005	-1.68088E-001	1.63946E-001	3.57790E+000	9	...........
	34	0.466667	1.59671E-001	-2.79005E-004	0.00000E+000	-4.45492E-005	-1.68088E-001	1.59712E-001	3.57790E+000	9	...........
	35	0.48	1.55568E-001	-2.78787E-004	0.00000E+000	-4.33705E-005	-1.68088E-001	1.55603E-001	3.57790E+000	9	...........
	36	0.493333	1.51587E-001	-2.78648E-004	0.00000E+000	-4.22394E-005	-1.68088E-001	1.51624E-001	3.57790E+000	9	...........
	37	0.506667	1.47709E-001	-2.78883E-004	0.00000E+000	-4.11936E-005	-1.68088E-001	1.47744E-001	3.57790E+000	9	...........
	38	0.52	1.43962E-001	-2.79699E-004	0.00000E+000	-4.02661E-005	-1.68088E-001	1.43996E-001	3.57790E+000	9	...........
	39	0.533333	1.40288E-001	-2.79168E-004	0.00000E+000	-3.91638E-005	-1.68088E-001	1.40317E-001	3.57790E+000	9	...........
	40	0.546667	1.36697E-001	-2.78902E-004	0.00000E+000	-3.81250E-005	-1.68088E-001	1.36731E-001	3.57790E+000	9	...........
	41	0.56	1.33209E-001	-2.79309E-004	0.00000E+000	-3.72067E-005	-1.68088E-001	1.33241E-001	3.57790E+000	9	...........
	42	0.573333	1.29804E-001	-2.79343E-004	0.00000E+000	-3.62599E-005	-1.68088E-001	1.29836E-001	3.57790E+000	9	...........
	43	0.586667	1.26490E-001	-2.79638E-004	0.00000E+000	-3.53714E-005	-1.68088E-001	1.26523E-001	3.57790E+000	9	...........
	44	0.6	1.23181E-001	-2.78693E-004	0.00000E+000	-3.43297E-005	-1.68088E-001	1.23208E-001	3.57790E+000	9	...........
	45	0.613333	1.19889E-001	-2.79553E-004	0.00000E+000	-3.35154E-005	-1.68088E-001	1.19920E-001	3.57790E+000	9	...........
	46	0.626667	1.16710E-001	-2.78980E-004	0.00000E+000	-3.25599E-005	-1.68088E-001	1.16737E-001	3.57790E+000	9	...........
	47	0.64	1.13558E-001	-2.79071E-004	0.00000E+000	-3.16908E-005	-1.68088E-001	1.13583E-001	3.57790E+000	9	...........
	48	0.653333	1.10523E-001	-2.78580E-004	0.00000E+000	-3.07896E-005	-1.68088E-001	1.10550E-001	3.57790E+000	9	...........
	49	0.666667	1.07533E-001	-2.78028E-004	0.00000E+000	-2.98973E-005	-1.68088E-001	1.07559E-001	3.57790E+000	9	...........
	50	0.68	1.04602E-001	-2.79320E-004	0.00000E+000	-2.92173E-005	-1.68088E-001	1.04628E-001	3.57790E+000	9	...........
	51	0.693333	1.01707E-001	-2.78756E-004	0.00000E+000	-2.83515E-005	-1.68088E-001	1.01736E-001	3.57790E+000	9	...........
	52	0.706667	9.88695E-002	-2.79096E-004	0.00000E+000	-2.75941E-005	-1.68088E-001	9.88968E-002	3.57790E+000	9	...........
	53	0.72	9.60162E-002	-2.78827E-004	0.00000E+000	-2.67719E-005	-1.68088E-001	9.60388E-002	3.57790E+000	9	...........
	54	0.733333	9.32098E-002	-2.79284E-004	0.00000E+000	-2.60320E-005	-1.68088E-001	9.32285E-002	3.57790E+000	9	...........
	55	0.746667	9.04275E-002	-2.78604E-004	0.00000E+000	-2.51935E-005	-1.68088E-001	9.04502E-002	3.57790E+000	9	...........
	56	0.76	8.77343E-002	-2.78797E-004	0.00000E+000	-2.44601E-005	-1.68088E-001	8.77530E-002	3.57790E+000	9	...........
	57	0.773333	8.50972E-002	-2.78823E-004	0.00000E+000	-2.37270E-005	-1.68088E-001	8.51173E-002	3.57790E+000	9	...........
	58	0.786667	8.24353E-002	-2.78483E-004	0.00000E+000	-2.29568E-005	-1.68088E-001	8.24539E-002	3.57790E+000	9	...........
	59	0.8	7.98645E-002	-2.79232E-004	0.00000E+000	-2.23008E-005	-1.68088E-001	7.98842E-002	3.57790E+000	9	...........
	60	0.813333	7.73272E-002	-2.78806E-004	0.00000E+000	-2.15593E-005	-1.68088E-001	7.73364E-002	3.57790E+000	9	...........
	61	0.826667	7.47505E-002	-2.78076E-004	0.00000E+000	-2.07863E-005	-1.68088E-001	7.47625E-002	3.57790E+000	9	...........
	62	0.84	7.21860E-002	-2.80084E-004	0.00000E+000	-2.02181E-005	-1.68088E-001	7.21990E-002	3.57790E+000	9	...........
	63	0.853333	6.96925E-002	-2.79710E-004	0.00000E+000	-1.94937E-005	-1.68088E-001	6.97088E-002	3.57790E+000	9	...........
	64	0.866667	6.72265E-002	-2.79001E-004	0.00000E+000	-1.87563E-005	-1.68088E-001	6.72386E-002	3.57790E+000	9	...........
	65	0.88	6.47628E-002	-2.78624E-004	0.00000E+000	-1.80445E-005	-1.68088E-001	6.47750E-002	3.57921E+000	9	...........
	66	0.893333	6.23461E-002	-2.80206E-004	0.00000E+000	-1.74698E-005	-1.68088E-001	6.23587E-002	3.57940E+000	9	...........
	67	0.906667	5.99446E-002	-2.78908E-004	0.00000E+000	-1.67190E-005	-1.68088E-001	5.99589E-002	3.57940E+000	9	...........
	68	0.92	5.75338E-002	-2.79340E-004	0.00000E+000	-1.60715E-005	-1.68088E-001	5.75461E-002	3.57940E+000	9	...........
	69	0.933333	5.52224E-002	-2.78902E-004	0.00000E+000	-1.54016E-005	-1.68088E-001	5.52334E-002	3.57940E+000	9	...........
	70	0.946667	5.29455E-002	-2.78523E-004	0.00000E+000	-1.47465E-005	-1.68088E-001	5.29523E-002	3.57940E+000	9	...........
	71	0.96	5.06560E-002	-2.78767E-004	0.00000E+000	-1.41212E-005	-1.68088E-001	5.06699E-002	3.57940E+000	9	...........
	72	0.97333	4.83736E-002	-2.79691E-004	0.00000E+000	-1.35296E-005	-1.68088E-001	4.83777E-002	3.57940E+000	9	...........
	73	0.98667	4.61543E-002	-2.78851E-004	0.00000E+000	-1.28702E-005	-1.68088E-001	4.61649E-002	3.57940E+000	9	...........
	74	1	4.38645E-002	-2.79233E-004	0.00000E+000	-1.22484E-005	-1.68088E-001	4.38709E-002	3.57940E+000	9	...........
	75	1.01333	4.16683E-002	-2.79183E-004	0.00000E+000	-1.16331E-005	-1.68088E-001	4.16781E-002	3.57940E+000	9	...........
	76	1.02667	3.94932E-002	-2.78754E-004	0.00000E+000	-1.10089E-005	-1.68088E-001	3.95033E-002	3.57940E+000	9	...........
	77	1.04	3.73500E-002	-2.79397E-004	0.00000E+000	-1.04355E-005	-1.68088E-001	3.73573E-002	3.57940E+000	9	...........
	78	1.05333	3.52358E-002	-2.79412E-004	0.00000E+000	-9.84528E-006	-1.68088E-001	3.52387E-002	3.57940E+000	9	...........
	79	1.06667	3.30748E-002	-2.79480E-004	0.00000E+000	-9.24377E-006	-1.68088E-001	3.30797E-002	3.57940E+000	9	...........
	80	1.08	3.09578E-002	-2.78783E-004	0.00000E+000	-8.63051E-006	-1.68088E-001	3.09589E-002	3.57940E+000	9	...........
	81	1.09333	2.88189E-002	-2.79618E-004	0.00000E+000	-8.05828E-006	-1.68088E-001	2.88125E-002	3.57940E+000	9	...........
	82	1.10667	2.67142E-002	-2.79251E-004	0.00000E+000	-7.45997E-006	-1.68088E-001	2.67144E-002	3.57940E+000	9	...........
	83	1.12	2.46618E-002	-2.79426E-004	0.00000E+000	-6.89114E-006	-1.68088E-001	2.46605E-002	3.57940E+000	9	...........
	84	1.13333	2.26395E-002	-2.79171E-004	0.00000E+000	-6.32029E-006	-1.68088E-001	2.26363E-002	3.57940E+000	9	...........
	85	1.14667	2.05792E-002	-2.78997E-004	0.00000E+000	-5.74153E-006	-1.68088E-001	2.05772E-002	3.57940E+000	9	...........
	86	1.16	1.85614E-002	-2.79321E-004	0.00000E+000	-5.18460E-006	-1.68088E-001	1.85553E-002	3.57940E+000	9	...........
	87	1.17333	1.65211E-002	-2.79098E-004	0.00000E+000	-4.61100E-006	-1.68088E-001	1.65126E-002	3.57940E+000	9	...........
	88	1.18667	1.45196E-002	-2.78747E-004	0.00000E+000	-4.04729E-006	-1.68088E-001	1.45104E-002	3.57940E+000	9	...........
	89	1.2	1.25646E-002	-2.78855E-004	0.00000E+000	-3.50370E-006	-1.68088E-001	1.25501E-002	3.57940E+000	9	...........
	90	1.21333	1.06085E-002	-2.79235E-004	0.00000E+000	-2.96227E-006	-1.68088E-001	1.05951E-002	3.57940E+000	9	...........
	91	1.22667	8.68337E-003	-2.79588E-004	0.00000E+000	-2.42776E-006	-1.68088E-001	8.66581E-003	3.57940E+000	9	...........
	92	1.24	6.76836E-003	-2.79160E-004	0.00000E+000	-1.88946E-006	-1.68088E-001	6.75550E-003	3.57940E+000	9	...........
	93	1.25333	4.85035E-003	-2.78924E-004	0.00000E+000	-1.35288E-006	-1.68088E-001	4.83400E-003	3.57940E+000	9	...........
	94	1.26667	2.94236E-003	-2.79071E-004	0.00000E+000	-8.21126E-007	-1.68088E-001	2.92455E-003	3.57940E+000	9	...........
	95	1.28	1.03355E-003	-2.79278E-004	0.00000E+000	-2.88649E-007	-1.68088E-001	1.01955E-003	3.57940E+000	9	...........
	96	1.28167	-4.94889E-005	-2.77581E-004	0.00000E+000	1.37372E-008	-1.68088E-001	-6.69675E-005	3.57940E+000	9	...........
STARTTIMEOFFSET	QUANT	582.0451	Start Time Offset (s)
