EXPLAIN
TAG	PWR800_DISCHARGE
TITLE	LABEL	PWR Cyclic Charge Discharge (Cell) - Discharge Step	Test &Identifier
DATE	LABEL	7-7-2017	Date
TIME	LABEL	15:39:28	Time
NOTES	NOTES	3	&Notes...
	supercap test cell
	2.8mg
	6M KOH
PSTAT	PSTAT	IFC5000-01520	Potentiostat
CAPACITY	QUANT	1.00000E-003	Capacity (A-hr)
CELLTYPE	SELECTOR	1	&Cell Type
WORKINGCONNECTION	SELECTOR	0	&Working Lead
MAXDISCHARGETIME	VARIABLEANDUNITS	1.00000E+002	s	1.00000E+002	second(s)	Max &Discharge Time
DISCHARGEMODE	MULTIPARAM	0	2.80000E-004	&Discharge Mode	Constant Current	Amp(s)
SAMPLETIME	QUANT	1.00000E-002	Sa&mple Period (s)
DISCHARGESTOPAT1	MULTIPARAM	3	0.00000E+000	Discharge Stop At &1	Voltage < Limit	V
DISCHARGESTOPAT2	MULTIPARAM	0	0.00000E+000	Discharge Stop At &2	None	N/A
AESBHCSELECTOR	TOGGLE	F	Save Both Half Cells
IRCOMP	TOGGLE	F	IR &Measure
EOC	QUANT	0	Open Circuit (V)
SEQUENCER	TOGGLE	TRUE	Run as Sequence
PSTATMODEL	IQUANT	53	Pstat Model
PSTATSECTION	LABEL	IFC5000-01520	Pstat Section
PSTATSERIALNO	LABEL	01520	Pstat Serial Number
CTRLMODE	IQUANT	0	Control Mode
ELECTROMETER	IQUANT	1	RE=0 or CS=1
IESTAB	IQUANT	0	I/E Stability
CASPEED	IQUANT	4	Control Amp Speed
CONVENTION	IQUANT	1	Current Convention
ICHRANGE	IQUANT	2	Ich Range
ICHRANGEMODE	TOGGLE	T	Ich Auto Range
ICHOFFSETENABLE	TOGGLE	F	Ich Offset Enable
ICHOFFSET	QUANT	0	Ich Offset (V)
ICHFILTER	IQUANT	1	Ich Filter
VCHRANGE	IQUANT	2	Vch Range
VCHRANGEMODE	TOGGLE	T	Vch Auto Range
VCHOFFSETENABLE	TOGGLE	F	Vch Offset Enable
VCHOFFSET	QUANT	0	Vch Offset (V)
VCHFILTER	IQUANT	1	Vch Filter
IERANGELOWERLIMIT	IQUANT	9	I/E Range Lower Limit
IERANGEMODE	TOGGLE	F	I/E AutoRange
IERANGE	IQUANT	9	I/E Range
ACHSELECT	IQUANT	1	Ach Select
ACHRANGE	IQUANT	2	Ach Range
ACHOFFSETENABLE	TOGGLE	F	Ach Offset Enable
ACHOFFSET	QUANT	0	Ach Offset (V)
ACHFILTER	IQUANT	1	Ach Filter
CABLEID	IQUANT	14	Cable ID
DCCALDATE	LABEL	5-7-2017	DC Calibration Date
ACCALDATE	LABEL	12/3/2015	AC Calibration Date
FRAMEWORKVERSION	QUANT	7.01	Framework Version
INSTRUMENTVERSION	LABEL	4.00	Instrument Version
CURVE	TABLE	137
	Pt	T	Vf	Im	Vu	Pwr	Sig	Ach	Temp	IERange	Over
	#	s	V	A	V	W	V	V	deg C	#	bits
	0	0.013333	5.79443E-001	-2.78643E-004	0.00000E+000	-1.61458E-004	-1.68088E-001	5.79731E-001	3.57820E+000	9	...........
	1	0.026667	5.52039E-001	-2.79512E-004	0.00000E+000	-1.54301E-004	-1.68088E-001	5.52331E-001	3.57820E+000	9	...........
	2	0.04	5.27579E-001	-2.78899E-004	0.00000E+000	-1.47141E-004	-1.68088E-001	5.27860E-001	3.57820E+000	9	...........
	3	0.053333	5.05369E-001	-2.79378E-004	0.00000E+000	-1.41189E-004	-1.68088E-001	5.05650E-001	3.57820E+000	9	...........
	4	0.066667	4.85177E-001	-2.78806E-004	0.00000E+000	-1.35270E-004	-1.68088E-001	4.85394E-001	3.57820E+000	9	...........
	5	0.08	4.66672E-001	-2.78733E-004	0.00000E+000	-1.30077E-004	-1.68088E-001	4.66791E-001	3.57820E+000	9	...........
	6	0.093333	4.49372E-001	-2.80152E-004	0.00000E+000	-1.25893E-004	-1.68088E-001	4.49486E-001	3.57820E+000	9	...........
	7	0.106667	4.33351E-001	-2.78896E-004	0.00000E+000	-1.20860E-004	-1.68088E-001	4.33459E-001	3.57820E+000	9	...........
	8	0.12	4.18453E-001	-2.78603E-004	0.00000E+000	-1.16582E-004	-1.68088E-001	4.18557E-001	3.57820E+000	9	...........
	9	0.133333	4.04610E-001	-2.78868E-004	0.00000E+000	-1.12833E-004	-1.68088E-001	4.04709E-001	3.57820E+000	9	...........
	10	0.146667	3.91718E-001	-2.78962E-004	0.00000E+000	-1.09275E-004	-1.68088E-001	3.91812E-001	3.57820E+000	9	...........
	11	0.16	3.79687E-001	-2.78785E-004	0.00000E+000	-1.05851E-004	-1.68088E-001	3.79778E-001	3.57820E+000	9	...........
	12	0.173333	3.68456E-001	-2.78869E-004	0.00000E+000	-1.02751E-004	-1.68088E-001	3.68546E-001	3.57820E+000	9	...........
	13	0.186667	3.57918E-001	-2.78836E-004	0.00000E+000	-9.98005E-005	-1.68088E-001	3.58004E-001	3.57820E+000	9	...........
	14	0.2	3.48019E-001	-2.78865E-004	0.00000E+000	-9.70502E-005	-1.68088E-001	3.48104E-001	3.57820E+000	9	...........
	15	0.213333	3.38705E-001	-2.79672E-004	0.00000E+000	-9.47263E-005	-1.68088E-001	3.38789E-001	3.57820E+000	9	...........
	16	0.226667	3.29938E-001	-2.79755E-004	0.00000E+000	-9.23020E-005	-1.68088E-001	3.30022E-001	3.57820E+000	9	...........
	17	0.24	3.21670E-001	-2.78455E-004	0.00000E+000	-8.95708E-005	-1.68088E-001	3.21751E-001	3.57820E+000	9	...........
	18	0.253333	3.13827E-001	-2.78520E-004	0.00000E+000	-8.74070E-005	-1.68088E-001	3.13905E-001	3.57820E+000	9	...........
	19	0.266667	3.06392E-001	-2.79164E-004	0.00000E+000	-8.55334E-005	-1.68088E-001	3.06477E-001	3.57820E+000	9	...........
	20	0.28	2.99325E-001	-2.79770E-004	0.00000E+000	-8.37421E-005	-1.68088E-001	2.99402E-001	3.57820E+000	9	...........
	21	0.293333	2.92617E-001	-2.79062E-004	0.00000E+000	-8.16584E-005	-1.68088E-001	2.92688E-001	3.57820E+000	9	...........
	22	0.306667	2.86250E-001	-2.79618E-004	0.00000E+000	-8.00406E-005	-1.68088E-001	2.86324E-001	3.57820E+000	9	...........
	23	0.32	2.80153E-001	-2.78492E-004	0.00000E+000	-7.80201E-005	-1.68088E-001	2.80226E-001	3.57820E+000	9	...........
	24	0.333333	2.74312E-001	-2.78344E-004	0.00000E+000	-7.63529E-005	-1.68088E-001	2.74381E-001	3.57820E+000	9	...........
	25	0.346667	2.68730E-001	-2.79303E-004	0.00000E+000	-7.50570E-005	-1.68088E-001	2.68801E-001	3.57820E+000	9	...........
	26	0.36	2.63393E-001	-2.79404E-004	0.00000E+000	-7.35931E-005	-1.68088E-001	2.63461E-001	3.57820E+000	9	...........
	27	0.373333	2.58198E-001	-2.79317E-004	0.00000E+000	-7.21191E-005	-1.68088E-001	2.58265E-001	3.57820E+000	9	...........
	28	0.386667	2.53164E-001	-2.79519E-004	0.00000E+000	-7.07642E-005	-1.68088E-001	2.53228E-001	3.57820E+000	9	...........
	29	0.4	2.48349E-001	-2.78055E-004	0.00000E+000	-6.90548E-005	-1.68088E-001	2.48410E-001	3.57820E+000	9	...........
	30	0.413333	2.43691E-001	-2.78788E-004	0.00000E+000	-6.79382E-005	-1.68088E-001	2.43752E-001	3.57820E+000	9	...........
	31	0.426667	2.39209E-001	-2.79151E-004	0.00000E+000	-6.67755E-005	-1.68088E-001	2.39268E-001	3.57820E+000	9	...........
	32	0.44	2.34895E-001	-2.78022E-004	0.00000E+000	-6.53059E-005	-1.68088E-001	2.34948E-001	3.57820E+000	9	...........
	33	0.453333	2.30667E-001	-2.78931E-004	0.00000E+000	-6.43401E-005	-1.68088E-001	2.30721E-001	3.57820E+000	9	...........
	34	0.466667	2.26559E-001	-2.78098E-004	0.00000E+000	-6.30055E-005	-1.68088E-001	2.26617E-001	3.57820E+000	9	...........
	35	0.48	2.22580E-001	-2.79697E-004	0.00000E+000	-6.22551E-005	-1.68088E-001	2.22635E-001	3.57820E+000	9	...........
	36	0.493333	2.18717E-001	-2.79777E-004	0.00000E+000	-6.11920E-005	-1.68088E-001	2.18770E-001	3.57820E+000	9	...........
	37	0.506667	2.14944E-001	-2.78769E-004	0.00000E+000	-5.99195E-005	-1.68088E-001	2.15009E-001	3.57820E+000	9	...........
	38	0.52	2.11264E-001	-2.78371E-004	0.00000E+000	-5.88098E-005	-1.68088E-001	2.11323E-001	3.57820E+000	9	...........
	39	0.533333	2.07679E-001	-2.79843E-004	0.00000E+000	-5.81176E-005	-1.68088E-001	2.07729E-001	3.57820E+000	9	...........
	40	0.546667	2.04188E-001	-2.80258E-004	0.00000E+000	-5.72252E-005	-1.68088E-001	2.04239E-001	3.57820E+000	9	...........
	41	0.56	2.00739E-001	-2.78335E-004	0.00000E+000	-5.58726E-005	-1.68088E-001	2.00792E-001	3.57820E+000	9	...........
	42	0.573333	1.97385E-001	-2.78878E-004	0.00000E+000	-5.50464E-005	-1.68088E-001	1.97432E-001	3.57820E+000	9	...........
	43	0.586667	1.94095E-001	-2.79231E-004	0.00000E+000	-5.41975E-005	-1.68088E-001	1.94151E-001	3.57820E+000	9	...........
	44	0.6	1.90879E-001	-2.79261E-004	0.00000E+000	-5.33051E-005	-1.68088E-001	1.90929E-001	3.57820E+000	9	...........
	45	0.613333	1.87687E-001	-2.78328E-004	0.00000E+000	-5.22386E-005	-1.68088E-001	1.87743E-001	3.57820E+000	9	...........
	46	0.626667	1.84531E-001	-2.79028E-004	0.00000E+000	-5.14892E-005	-1.68088E-001	1.84575E-001	3.57820E+000	9	...........
	47	0.64	1.81441E-001	-2.77945E-004	0.00000E+000	-5.04306E-005	-1.68088E-001	1.81488E-001	3.57820E+000	9	...........
	48	0.653333	1.78386E-001	-2.78929E-004	0.00000E+000	-4.97571E-005	-1.68088E-001	1.78436E-001	3.57820E+000	9	...........
	49	0.666667	1.75416E-001	-2.78998E-004	0.00000E+000	-4.89408E-005	-1.68088E-001	1.75459E-001	3.57820E+000	9	...........
	50	0.68	1.72509E-001	-2.79150E-004	0.00000E+000	-4.81559E-005	-1.68088E-001	1.72553E-001	3.57820E+000	9	...........
	51	0.693333	1.69669E-001	-2.79304E-004	0.00000E+000	-4.73894E-005	-1.68088E-001	1.69710E-001	3.57820E+000	9	...........
	52	0.706667	1.66874E-001	-2.79057E-004	0.00000E+000	-4.65673E-005	-1.68088E-001	1.66918E-001	3.57820E+000	9	...........
	53	0.72	1.64128E-001	-2.79261E-004	0.00000E+000	-4.58347E-005	-1.68088E-001	1.64168E-001	3.57820E+000	9	...........
	54	0.733333	1.61366E-001	-2.79098E-004	0.00000E+000	-4.50368E-005	-1.68088E-001	1.61405E-001	3.57820E+000	9	...........
	55	0.746667	1.58658E-001	-2.79789E-004	0.00000E+000	-4.43908E-005	-1.68088E-001	1.58694E-001	3.57820E+000	9	...........
	56	0.76	1.55979E-001	-2.78930E-004	0.00000E+000	-4.35072E-005	-1.68088E-001	1.56016E-001	3.57820E+000	9	...........
	57	0.773333	1.53337E-001	-2.79548E-004	0.00000E+000	-4.28651E-005	-1.68088E-001	1.53370E-001	3.57820E+000	9	...........
	58	0.786667	1.50725E-001	-2.78601E-004	0.00000E+000	-4.19921E-005	-1.68088E-001	1.50759E-001	3.57820E+000	9	...........
	59	0.8	1.48139E-001	-2.79067E-004	0.00000E+000	-4.13405E-005	-1.68088E-001	1.48175E-001	3.57820E+000	9	...........
	60	0.813333	1.45566E-001	-2.78823E-004	0.00000E+000	-4.05871E-005	-1.68088E-001	1.45600E-001	3.57820E+000	9	...........
	61	0.826667	1.43041E-001	-2.78470E-004	0.00000E+000	-3.98326E-005	-1.68088E-001	1.43075E-001	3.57820E+000	9	...........
	62	0.84	1.40610E-001	-2.78237E-004	0.00000E+000	-3.91230E-005	-1.68088E-001	1.40641E-001	3.57820E+000	9	...........
	63	0.853333	1.38184E-001	-2.79317E-004	0.00000E+000	-3.85971E-005	-1.68088E-001	1.38215E-001	3.57820E+000	9	...........
	64	0.866667	1.35728E-001	-2.78647E-004	0.00000E+000	-3.78203E-005	-1.68088E-001	1.35757E-001	3.57820E+000	9	...........
	65	0.88	1.33312E-001	-2.79301E-004	0.00000E+000	-3.72343E-005	-1.68088E-001	1.33335E-001	3.57820E+000	9	...........
	66	0.893333	1.30954E-001	-2.79202E-004	0.00000E+000	-3.65627E-005	-1.68088E-001	1.30980E-001	3.57820E+000	9	...........
	67	0.906667	1.28620E-001	-2.79290E-004	0.00000E+000	-3.59223E-005	-1.68088E-001	1.28646E-001	3.57917E+000	9	...........
	68	0.92	1.26307E-001	-2.79357E-004	0.00000E+000	-3.52847E-005	-1.68088E-001	1.26332E-001	3.57950E+000	9	...........
	69	0.933333	1.23997E-001	-2.78891E-004	0.00000E+000	-3.45815E-005	-1.68088E-001	1.24024E-001	3.57950E+000	9	...........
	70	0.946667	1.21688E-001	-2.79892E-004	0.00000E+000	-3.40596E-005	-1.68088E-001	1.21723E-001	3.57950E+000	9	...........
	71	0.96	1.19442E-001	-2.79429E-004	0.00000E+000	-3.33756E-005	-1.68088E-001	1.19474E-001	3.57950E+000	9	...........
	72	0.97333	1.17185E-001	-2.79220E-004	0.00000E+000	-3.27205E-005	-1.68088E-001	1.17217E-001	3.57950E+000	9	...........
	73	0.98667	1.14950E-001	-2.78884E-004	0.00000E+000	-3.20577E-005	-1.68088E-001	1.14982E-001	3.57950E+000	9	...........
	74	1	1.12737E-001	-2.78474E-004	0.00000E+000	-3.13944E-005	-1.68088E-001	1.12772E-001	3.57950E+000	9	...........
	75	1.01333	1.10547E-001	-2.79242E-004	0.00000E+000	-3.08694E-005	-1.68088E-001	1.10572E-001	3.57950E+000	9	...........
	76	1.02667	1.08408E-001	-2.79255E-004	0.00000E+000	-3.02734E-005	-1.68088E-001	1.08434E-001	3.57950E+000	9	...........
	77	1.04	1.06284E-001	-2.79518E-004	0.00000E+000	-2.97083E-005	-1.68088E-001	1.06313E-001	3.57950E+000	9	...........
	78	1.05333	1.04192E-001	-2.79298E-004	0.00000E+000	-2.91007E-005	-1.68088E-001	1.04220E-001	3.57950E+000	9	...........
	79	1.06667	1.02052E-001	-2.79169E-004	0.00000E+000	-2.84898E-005	-1.68088E-001	1.02070E-001	3.57950E+000	9	...........
	80	1.08	9.99213E-002	-2.79378E-004	0.00000E+000	-2.79158E-005	-1.68088E-001	9.99530E-002	3.57950E+000	9	...........
	81	1.09333	9.78009E-002	-2.78352E-004	0.00000E+000	-2.72231E-005	-1.68088E-001	9.78261E-002	3.57950E+000	9	...........
	82	1.10667	9.57186E-002	-2.79016E-004	0.00000E+000	-2.67070E-005	-1.68088E-001	9.57435E-002	3.57950E+000	9	...........
	83	1.12	9.36707E-002	-2.80032E-004	0.00000E+000	-2.62308E-005	-1.68088E-001	9.36881E-002	3.57950E+000	9	...........
	84	1.13333	9.16445E-002	-2.79261E-004	0.00000E+000	-2.55928E-005	-1.68088E-001	9.16647E-002	3.57950E+000	9	...........
	85	1.14667	8.96061E-002	-2.78055E-004	0.00000E+000	-2.49154E-005	-1.68088E-001	8.96306E-002	3.57950E+000	9	...........
	86	1.16	8.75811E-002	-2.78256E-004	0.00000E+000	-2.43700E-005	-1.68088E-001	8.76019E-002	3.57950E+000	9	...........
	87	1.17333	8.55443E-002	-2.77712E-004	0.00000E+000	-2.37567E-005	-1.68088E-001	8.55667E-002	3.57950E+000	9	...........
	88	1.18667	8.35410E-002	-2.78336E-004	0.00000E+000	-2.32525E-005	-1.68088E-001	8.35531E-002	3.57950E+000	9	...........
	89	1.2	8.15633E-002	-2.79533E-004	0.00000E+000	-2.27997E-005	-1.68088E-001	8.15845E-002	3.57950E+000	9	...........
	90	1.21333	7.96431E-002	-2.79250E-004	0.00000E+000	-2.22403E-005	-1.68088E-001	7.96577E-002	3.57950E+000	9	...........
	91	1.22667	7.77018E-002	-2.79393E-004	0.00000E+000	-2.17093E-005	-1.68088E-001	7.77153E-002	3.57950E+000	9	...........
	92	1.24	7.57796E-002	-2.78722E-004	0.00000E+000	-2.11214E-005	-1.68088E-001	7.57950E-002	3.57950E+000	9	...........
	93	1.25333	7.38371E-002	-2.78159E-004	0.00000E+000	-2.05385E-005	-1.68088E-001	7.38535E-002	3.57950E+000	9	...........
	94	1.26667	7.19183E-002	-2.79304E-004	0.00000E+000	-2.00871E-005	-1.68088E-001	7.19312E-002	3.57950E+000	9	...........
	95	1.28	6.99772E-002	-2.78535E-004	0.00000E+000	-1.94911E-005	-1.68088E-001	6.99919E-002	3.57950E+000	9	...........
	96	1.29333	6.80706E-002	-2.78254E-004	0.00000E+000	-1.89409E-005	-1.68088E-001	6.80801E-002	3.57950E+000	9	...........
	97	1.30667	6.61514E-002	-2.79347E-004	0.00000E+000	-1.84792E-005	-1.68088E-001	6.61611E-002	3.57950E+000	9	...........
	98	1.32	6.42589E-002	-2.78700E-004	0.00000E+000	-1.79089E-005	-1.68088E-001	6.42667E-002	3.57950E+000	9	...........
	99	1.33333	6.23386E-002	-2.78509E-004	0.00000E+000	-1.73619E-005	-1.68088E-001	6.23501E-002	3.57950E+000	9	...........
	100	1.34667	6.04987E-002	-2.79127E-004	0.00000E+000	-1.68868E-005	-1.68088E-001	6.05135E-002	3.57950E+000	9	...........
	101	1.36	5.86571E-002	-2.79474E-004	0.00000E+000	-1.63931E-005	-1.68088E-001	5.86656E-002	3.57950E+000	9	...........
	102	1.37333	5.68289E-002	-2.78367E-004	0.00000E+000	-1.58193E-005	-1.68088E-001	5.68409E-002	3.57950E+000	9	...........
	103	1.38667	5.50046E-002	-2.79559E-004	0.00000E+000	-1.53771E-005	-1.68088E-001	5.50112E-002	3.57950E+000	9	...........
	104	1.4	5.32097E-002	-2.78469E-004	0.00000E+000	-1.48172E-005	-1.68088E-001	5.32208E-002	3.57950E+000	9	...........
	105	1.41333	5.13542E-002	-2.79586E-004	0.00000E+000	-1.43579E-005	-1.68088E-001	5.13680E-002	3.57950E+000	9	...........
	106	1.42667	4.95333E-002	-2.78299E-004	0.00000E+000	-1.37851E-005	-1.68088E-001	4.95410E-002	3.57950E+000	9	...........
	107	1.44	4.77521E-002	-2.78475E-004	0.00000E+000	-1.32978E-005	-1.68088E-001	4.77571E-002	3.57950E+000	9	...........
	108	1.45333	4.59614E-002	-2.79525E-004	0.00000E+000	-1.28474E-005	-1.68088E-001	4.59689E-002	3.57950E+000	9	...........
	109	1.46667	4.41819E-002	-2.79468E-004	0.00000E+000	-1.23474E-005	-1.68088E-001	4.41874E-002	3.57950E+000	9	...........
	110	1.48	4.24722E-002	-2.78759E-004	0.00000E+000	-1.18395E-005	-1.68088E-001	4.24877E-002	3.57950E+000	9	...........
	111	1.49333	4.07158E-002	-2.78427E-004	0.00000E+000	-1.13364E-005	-1.68088E-001	4.07257E-002	3.57950E+000	9	...........
	112	1.50667	3.90130E-002	-2.79019E-004	0.00000E+000	-1.08854E-005	-1.68088E-001	3.90163E-002	3.57950E+000	9	...........
	113	1.52	3.73444E-002	-2.78672E-004	0.00000E+000	-1.04068E-005	-1.68088E-001	3.73392E-002	3.57950E+000	9	...........
	114	1.53333	3.56548E-002	-2.78040E-004	0.00000E+000	-9.91348E-006	-1.68088E-001	3.56601E-002	3.57950E+000	9	...........
	115	1.54667	3.39771E-002	-2.78818E-004	0.00000E+000	-9.47341E-006	-1.68088E-001	3.39799E-002	3.57950E+000	9	...........
	116	1.56	3.22630E-002	-2.79422E-004	0.00000E+000	-9.01498E-006	-1.68088E-001	3.22647E-002	3.57950E+000	9	...........
	117	1.57333	3.05374E-002	-2.79220E-004	0.00000E+000	-8.52664E-006	-1.68088E-001	3.05377E-002	3.57950E+000	9	...........
	118	1.58667	2.88049E-002	-2.79631E-004	0.00000E+000	-8.05474E-006	-1.68088E-001	2.88065E-002	3.57950E+000	9	...........
	119	1.6	2.71405E-002	-2.79134E-004	0.00000E+000	-7.57585E-006	-1.68088E-001	2.71416E-002	3.57950E+000	9	...........
	120	1.61333	2.54820E-002	-2.78853E-004	0.00000E+000	-7.10573E-006	-1.68088E-001	2.54813E-002	3.57950E+000	9	...........
	121	1.62667	2.38062E-002	-2.79349E-004	0.00000E+000	-6.65024E-006	-1.68088E-001	2.37986E-002	3.57950E+000	9	...........
	122	1.64	2.21179E-002	-2.78697E-004	0.00000E+000	-6.16417E-006	-1.68088E-001	2.21132E-002	3.57950E+000	9	...........
	123	1.65333	2.04464E-002	-2.79061E-004	0.00000E+000	-5.70581E-006	-1.68088E-001	2.04393E-002	3.57950E+000	9	...........
	124	1.66667	1.87972E-002	-2.78510E-004	0.00000E+000	-5.23522E-006	-1.68088E-001	1.87893E-002	3.57950E+000	9	...........
	125	1.68	1.71768E-002	-2.78662E-004	0.00000E+000	-4.78653E-006	-1.68088E-001	1.71709E-002	3.57950E+000	9	...........
	126	1.69333	1.55749E-002	-2.78476E-004	0.00000E+000	-4.33725E-006	-1.68088E-001	1.55698E-002	3.57950E+000	9	...........
	127	1.70667	1.39545E-002	-2.78151E-004	0.00000E+000	-3.88145E-006	-1.68088E-001	1.39439E-002	3.57950E+000	9	...........
	128	1.72	1.23176E-002	-2.78807E-004	0.00000E+000	-3.43424E-006	-1.68088E-001	1.23070E-002	3.57950E+000	9	...........
	129	1.73333	1.06884E-002	-2.79132E-004	0.00000E+000	-2.98348E-006	-1.68088E-001	1.06777E-002	3.57950E+000	9	...........
	130	1.74667	9.06135E-003	-2.79232E-004	0.00000E+000	-2.53022E-006	-1.68088E-001	9.04730E-003	3.57950E+000	9	...........
	131	1.76	7.41012E-003	-2.77711E-004	0.00000E+000	-2.05787E-006	-1.68088E-001	7.39598E-003	3.57950E+000	9	...........
	132	1.77333	5.81038E-003	-2.79341E-004	0.00000E+000	-1.62308E-006	-1.68088E-001	5.79304E-003	3.57950E+000	9	...........
	133	1.78667	4.22615E-003	-2.78926E-004	0.00000E+000	-1.17878E-006	-1.68088E-001	4.20821E-003	3.57950E+000	9	...........
	134	1.8	2.61184E-003	-2.79039E-004	0.00000E+000	-7.28805E-007	-1.68088E-001	2.59474E-003	3.57950E+000	9	...........
	135	1.81333	9.98428E-004	-2.79200E-004	0.00000E+000	-2.78761E-007	-1.68088E-001	9.80118E-004	3.57950E+000	9	...........
	136	1.81667	-1.12968E-005	-2.78735E-004	0.00000E+000	3.14883E-009	-1.68088E-001	-3.07779E-005	3.57950E+000	9	...........
STARTTIMEOFFSET	QUANT	175.3033	Start Time Offset (s)
