EXPLAIN
TAG	PWR800_DISCHARGE
TITLE	LABEL	PWR Cyclic Charge Discharge (Cell) - Discharge Step	Test &Identifier
DATE	LABEL	7-7-2017	Date
TIME	LABEL	16:25:09	Time
NOTES	NOTES	3	&Notes...
	supercap test cell
	2.8mg
	6M KOH
PSTAT	PSTAT	IFC5000-01520	Potentiostat
CAPACITY	QUANT	1.00000E-003	Capacity (A-hr)
CELLTYPE	SELECTOR	1	&Cell Type
WORKINGCONNECTION	SELECTOR	0	&Working Lead
MAXDISCHARGETIME	VARIABLEANDUNITS	1.00000E+002	s	1.00000E+002	second(s)	Max &Discharge Time
DISCHARGEMODE	MULTIPARAM	0	2.80000E-004	&Discharge Mode	Constant Current	Amp(s)
SAMPLETIME	QUANT	1.00000E-002	Sa&mple Period (s)
DISCHARGESTOPAT1	MULTIPARAM	3	0.00000E+000	Discharge Stop At &1	Voltage < Limit	V
DISCHARGESTOPAT2	MULTIPARAM	0	0.00000E+000	Discharge Stop At &2	None	N/A
AESBHCSELECTOR	TOGGLE	F	Save Both Half Cells
IRCOMP	TOGGLE	F	IR &Measure
EOC	QUANT	0	Open Circuit (V)
SEQUENCER	TOGGLE	TRUE	Run as Sequence
PSTATMODEL	IQUANT	53	Pstat Model
PSTATSECTION	LABEL	IFC5000-01520	Pstat Section
PSTATSERIALNO	LABEL	01520	Pstat Serial Number
CTRLMODE	IQUANT	0	Control Mode
ELECTROMETER	IQUANT	1	RE=0 or CS=1
IESTAB	IQUANT	0	I/E Stability
CASPEED	IQUANT	4	Control Amp Speed
CONVENTION	IQUANT	1	Current Convention
ICHRANGE	IQUANT	2	Ich Range
ICHRANGEMODE	TOGGLE	T	Ich Auto Range
ICHOFFSETENABLE	TOGGLE	F	Ich Offset Enable
ICHOFFSET	QUANT	0	Ich Offset (V)
ICHFILTER	IQUANT	1	Ich Filter
VCHRANGE	IQUANT	2	Vch Range
VCHRANGEMODE	TOGGLE	T	Vch Auto Range
VCHOFFSETENABLE	TOGGLE	F	Vch Offset Enable
VCHOFFSET	QUANT	0	Vch Offset (V)
VCHFILTER	IQUANT	1	Vch Filter
IERANGELOWERLIMIT	IQUANT	9	I/E Range Lower Limit
IERANGEMODE	TOGGLE	F	I/E AutoRange
IERANGE	IQUANT	9	I/E Range
ACHSELECT	IQUANT	1	Ach Select
ACHRANGE	IQUANT	2	Ach Range
ACHOFFSETENABLE	TOGGLE	F	Ach Offset Enable
ACHOFFSET	QUANT	0	Ach Offset (V)
ACHFILTER	IQUANT	1	Ach Filter
CABLEID	IQUANT	14	Cable ID
DCCALDATE	LABEL	5-7-2017	DC Calibration Date
ACCALDATE	LABEL	12/3/2015	AC Calibration Date
FRAMEWORKVERSION	QUANT	7.01	Framework Version
INSTRUMENTVERSION	LABEL	4.00	Instrument Version
CURVE	TABLE	51
	Pt	T	Vf	Im	Vu	Pwr	Sig	Ach	Temp	IERange	Over
	#	s	V	A	V	W	V	V	deg C	#	bits
	0	0.013333	5.11025E-001	-2.78832E-004	0.00000E+000	-1.42490E-004	-1.68088E-001	5.11236E-001	3.58010E+000	9	...........
	1	0.026667	4.77086E-001	-2.79475E-004	0.00000E+000	-1.33334E-004	-1.68088E-001	4.77226E-001	3.58010E+000	9	...........
	2	0.04	4.45836E-001	-2.78670E-004	0.00000E+000	-1.24241E-004	-1.68088E-001	4.45929E-001	3.58010E+000	9	...........
	3	0.053333	4.16662E-001	-2.78450E-004	0.00000E+000	-1.16020E-004	-1.68088E-001	4.16749E-001	3.58010E+000	9	...........
	4	0.066667	3.89409E-001	-2.79852E-004	0.00000E+000	-1.08977E-004	-1.68088E-001	3.89489E-001	3.58010E+000	9	...........
	5	0.08	3.63908E-001	-2.79236E-004	0.00000E+000	-1.01616E-004	-1.68088E-001	3.63986E-001	3.58010E+000	9	...........
	6	0.093333	3.40051E-001	-2.79768E-004	0.00000E+000	-9.51353E-005	-1.68088E-001	3.40119E-001	3.58010E+000	9	...........
	7	0.106667	3.17810E-001	-2.78354E-004	0.00000E+000	-8.84638E-005	-1.68088E-001	3.17882E-001	3.58010E+000	9	...........
	8	0.12	2.97112E-001	-2.78526E-004	0.00000E+000	-8.27535E-005	-1.68088E-001	2.97178E-001	3.58010E+000	9	...........
	9	0.133333	2.77852E-001	-2.79071E-004	0.00000E+000	-7.75403E-005	-1.68088E-001	2.77914E-001	3.58010E+000	9	...........
	10	0.146667	2.59974E-001	-2.79959E-004	0.00000E+000	-7.27819E-005	-1.68088E-001	2.60029E-001	3.58010E+000	9	...........
	11	0.16	2.43382E-001	-2.78533E-004	0.00000E+000	-6.77901E-005	-1.68088E-001	2.43434E-001	3.58010E+000	9	...........
	12	0.173333	2.27952E-001	-2.79285E-004	0.00000E+000	-6.36638E-005	-1.68088E-001	2.28000E-001	3.58010E+000	9	...........
	13	0.186667	2.13628E-001	-2.78830E-004	0.00000E+000	-5.95658E-005	-1.68088E-001	2.13672E-001	3.58010E+000	9	...........
	14	0.2	2.00281E-001	-2.78827E-004	0.00000E+000	-5.58436E-005	-1.68088E-001	2.00323E-001	3.58010E+000	9	...........
	15	0.213333	1.87934E-001	-2.78238E-004	0.00000E+000	-5.22904E-005	-1.68088E-001	1.87972E-001	3.58010E+000	9	...........
	16	0.226667	1.76419E-001	-2.77994E-004	0.00000E+000	-4.90435E-005	-1.68088E-001	1.76456E-001	3.58010E+000	9	...........
	17	0.24	1.65683E-001	-2.78022E-004	0.00000E+000	-4.60635E-005	-1.68088E-001	1.65712E-001	3.58010E+000	9	...........
	18	0.253333	1.55728E-001	-2.78693E-004	0.00000E+000	-4.34001E-005	-1.68088E-001	1.55755E-001	3.58010E+000	9	...........
	19	0.266667	1.46478E-001	-2.79586E-004	0.00000E+000	-4.09530E-005	-1.68088E-001	1.46499E-001	3.58010E+000	9	...........
	20	0.28	1.37773E-001	-2.79395E-004	0.00000E+000	-3.84930E-005	-1.68088E-001	1.37800E-001	3.58010E+000	9	...........
	21	0.293333	1.29622E-001	-2.79903E-004	0.00000E+000	-3.62817E-005	-1.68088E-001	1.29647E-001	3.58010E+000	9	...........
	22	0.306667	1.21980E-001	-2.78774E-004	0.00000E+000	-3.40049E-005	-1.68088E-001	1.22000E-001	3.58010E+000	9	...........
	23	0.32	1.14767E-001	-2.79206E-004	0.00000E+000	-3.20437E-005	-1.68088E-001	1.14788E-001	3.58010E+000	9	...........
	24	0.333333	1.07933E-001	-2.78628E-004	0.00000E+000	-3.00733E-005	-1.68088E-001	1.07953E-001	3.58010E+000	9	...........
	25	0.346667	1.01498E-001	-2.80228E-004	0.00000E+000	-2.84426E-005	-1.68088E-001	1.01518E-001	3.58010E+000	9	...........
	26	0.36	9.53565E-002	-2.78628E-004	0.00000E+000	-2.65690E-005	-1.68088E-001	9.53718E-002	3.58010E+000	9	...........
	27	0.373333	8.95182E-002	-2.79978E-004	0.00000E+000	-2.50631E-005	-1.68088E-001	8.95362E-002	3.58010E+000	9	...........
	28	0.386667	8.39592E-002	-2.77509E-004	0.00000E+000	-2.32994E-005	-1.68088E-001	8.39716E-002	3.58010E+000	9	...........
	29	0.4	7.86149E-002	-2.80203E-004	0.00000E+000	-2.20282E-005	-1.68088E-001	7.86271E-002	3.58010E+000	9	...........
	30	0.413333	7.34915E-002	-2.78087E-004	0.00000E+000	-2.04370E-005	-1.68088E-001	7.35003E-002	3.58010E+000	9	...........
	31	0.426667	6.86438E-002	-2.79119E-004	0.00000E+000	-1.91598E-005	-1.68088E-001	6.86476E-002	3.58010E+000	9	...........
	32	0.44	6.40085E-002	-2.79594E-004	0.00000E+000	-1.78964E-005	-1.68088E-001	6.40070E-002	3.58010E+000	9	...........
	33	0.453333	5.95022E-002	-2.78432E-004	0.00000E+000	-1.65673E-005	-1.68088E-001	5.95134E-002	3.58010E+000	9	...........
	34	0.466667	5.51405E-002	-2.78810E-004	0.00000E+000	-1.53737E-005	-1.68088E-001	5.51417E-002	3.58010E+000	9	...........
	35	0.48	5.09739E-002	-2.78411E-004	0.00000E+000	-1.41917E-005	-1.68088E-001	5.09810E-002	3.57835E+000	9	...........
	36	0.493333	4.69326E-002	-2.77283E-004	0.00000E+000	-1.30136E-005	-1.68088E-001	4.69282E-002	3.57730E+000	9	...........
	37	0.506667	4.29590E-002	-2.79583E-004	0.00000E+000	-1.20106E-005	-1.68088E-001	4.29609E-002	3.57730E+000	9	...........
	38	0.52	3.90455E-002	-2.79298E-004	0.00000E+000	-1.09053E-005	-1.68088E-001	3.90442E-002	3.57730E+000	9	...........
	39	0.533333	3.53402E-002	-2.79340E-004	0.00000E+000	-9.87193E-006	-1.68088E-001	3.53365E-002	3.57730E+000	9	...........
	40	0.546667	3.17033E-002	-2.79518E-004	0.00000E+000	-8.86163E-006	-1.68088E-001	3.16957E-002	3.57730E+000	9	...........
	41	0.56	2.81309E-002	-2.78410E-004	0.00000E+000	-7.83192E-006	-1.68088E-001	2.81222E-002	3.57730E+000	9	...........
	42	0.573333	2.46534E-002	-2.79469E-004	0.00000E+000	-6.88985E-006	-1.68088E-001	2.46468E-002	3.57730E+000	9	...........
	43	0.586667	2.12601E-002	-2.80017E-004	0.00000E+000	-5.95319E-006	-1.68088E-001	2.12526E-002	3.57730E+000	9	...........
	44	0.6	1.80050E-002	-2.80048E-004	0.00000E+000	-5.04227E-006	-1.68088E-001	1.79966E-002	3.57730E+000	9	...........
	45	0.613333	1.47625E-002	-2.79294E-004	0.00000E+000	-4.12307E-006	-1.68088E-001	1.47528E-002	3.57730E+000	9	...........
	46	0.626667	1.16006E-002	-2.79289E-004	0.00000E+000	-3.23990E-006	-1.68088E-001	1.15914E-002	3.57730E+000	9	...........
	47	0.64	8.50068E-003	-2.78903E-004	0.00000E+000	-2.37087E-006	-1.68088E-001	8.48349E-003	3.57730E+000	9	...........
	48	0.653333	5.45021E-003	-2.78828E-004	0.00000E+000	-1.51967E-006	-1.68088E-001	5.43603E-003	3.57730E+000	9	...........
	49	0.666667	2.42056E-003	-2.78924E-004	0.00000E+000	-6.75152E-007	-1.68088E-001	2.40180E-003	3.57730E+000	9	...........
	50	0.673333	2.15778E-004	-2.78750E-004	0.00000E+000	-6.01482E-008	-1.68088E-001	2.00225E-004	3.57730E+000	9	...........
STARTTIMEOFFSET	QUANT	2121.742	Start Time Offset (s)
