EXPLAIN
TAG	PWR800_DISCHARGE
TITLE	LABEL	PWR Cyclic Charge Discharge (Cell) - Discharge Step	Test &Identifier
DATE	LABEL	7-7-2017	Date
TIME	LABEL	15:54:29	Time
NOTES	NOTES	3	&Notes...
	supercap test cell
	2.8mg
	6M KOH
PSTAT	PSTAT	IFC5000-01520	Potentiostat
CAPACITY	QUANT	1.00000E-003	Capacity (A-hr)
CELLTYPE	SELECTOR	1	&Cell Type
WORKINGCONNECTION	SELECTOR	0	&Working Lead
MAXDISCHARGETIME	VARIABLEANDUNITS	1.00000E+002	s	1.00000E+002	second(s)	Max &Discharge Time
DISCHARGEMODE	MULTIPARAM	0	2.80000E-004	&Discharge Mode	Constant Current	Amp(s)
SAMPLETIME	QUANT	1.00000E-002	Sa&mple Period (s)
DISCHARGESTOPAT1	MULTIPARAM	3	0.00000E+000	Discharge Stop At &1	Voltage < Limit	V
DISCHARGESTOPAT2	MULTIPARAM	0	0.00000E+000	Discharge Stop At &2	None	N/A
AESBHCSELECTOR	TOGGLE	F	Save Both Half Cells
IRCOMP	TOGGLE	F	IR &Measure
EOC	QUANT	0	Open Circuit (V)
SEQUENCER	TOGGLE	TRUE	Run as Sequence
PSTATMODEL	IQUANT	53	Pstat Model
PSTATSECTION	LABEL	IFC5000-01520	Pstat Section
PSTATSERIALNO	LABEL	01520	Pstat Serial Number
CTRLMODE	IQUANT	0	Control Mode
ELECTROMETER	IQUANT	1	RE=0 or CS=1
IESTAB	IQUANT	0	I/E Stability
CASPEED	IQUANT	4	Control Amp Speed
CONVENTION	IQUANT	1	Current Convention
ICHRANGE	IQUANT	2	Ich Range
ICHRANGEMODE	TOGGLE	T	Ich Auto Range
ICHOFFSETENABLE	TOGGLE	F	Ich Offset Enable
ICHOFFSET	QUANT	0	Ich Offset (V)
ICHFILTER	IQUANT	1	Ich Filter
VCHRANGE	IQUANT	2	Vch Range
VCHRANGEMODE	TOGGLE	T	Vch Auto Range
VCHOFFSETENABLE	TOGGLE	F	Vch Offset Enable
VCHOFFSET	QUANT	0	Vch Offset (V)
VCHFILTER	IQUANT	1	Vch Filter
IERANGELOWERLIMIT	IQUANT	9	I/E Range Lower Limit
IERANGEMODE	TOGGLE	F	I/E AutoRange
IERANGE	IQUANT	9	I/E Range
ACHSELECT	IQUANT	1	Ach Select
ACHRANGE	IQUANT	2	Ach Range
ACHOFFSETENABLE	TOGGLE	F	Ach Offset Enable
ACHOFFSET	QUANT	0	Ach Offset (V)
ACHFILTER	IQUANT	1	Ach Filter
CABLEID	IQUANT	14	Cable ID
DCCALDATE	LABEL	5-7-2017	DC Calibration Date
ACCALDATE	LABEL	12/3/2015	AC Calibration Date
FRAMEWORKVERSION	QUANT	7.01	Framework Version
INSTRUMENTVERSION	LABEL	4.00	Instrument Version
CURVE	TABLE	79
	Pt	T	Vf	Im	Vu	Pwr	Sig	Ach	Temp	IERange	Over
	#	s	V	A	V	W	V	V	deg C	#	bits
	0	0.013333	5.30385E-001	-2.79322E-004	0.00000E+000	-1.48148E-004	-1.68088E-001	5.30601E-001	3.57780E+000	9	...........
	1	0.026667	4.98982E-001	-2.78504E-004	0.00000E+000	-1.38969E-004	-1.68088E-001	4.99239E-001	3.57780E+000	9	...........
	2	0.04	4.70775E-001	-2.79799E-004	0.00000E+000	-1.31722E-004	-1.68088E-001	4.70908E-001	3.57780E+000	9	...........
	3	0.053333	4.44590E-001	-2.78331E-004	0.00000E+000	-1.23743E-004	-1.68088E-001	4.44704E-001	3.57780E+000	9	...........
	4	0.066667	4.20362E-001	-2.79020E-004	0.00000E+000	-1.17289E-004	-1.68088E-001	4.20460E-001	3.57780E+000	9	...........
	5	0.08	3.97902E-001	-2.78767E-004	0.00000E+000	-1.10922E-004	-1.68088E-001	3.97993E-001	3.57780E+000	9	...........
	6	0.093333	3.77060E-001	-2.78517E-004	0.00000E+000	-1.05017E-004	-1.68088E-001	3.77143E-001	3.57780E+000	9	...........
	7	0.106667	3.57701E-001	-2.79621E-004	0.00000E+000	-1.00021E-004	-1.68088E-001	3.57778E-001	3.57780E+000	9	...........
	8	0.12	3.39749E-001	-2.78184E-004	0.00000E+000	-9.45129E-005	-1.68088E-001	3.39828E-001	3.57780E+000	9	...........
	9	0.133333	3.23113E-001	-2.78733E-004	0.00000E+000	-9.00623E-005	-1.68088E-001	3.23186E-001	3.57780E+000	9	...........
	10	0.146667	3.07653E-001	-2.78148E-004	0.00000E+000	-8.55731E-005	-1.68088E-001	3.07722E-001	3.57780E+000	9	...........
	11	0.16	2.93312E-001	-2.80238E-004	0.00000E+000	-8.21972E-005	-1.68088E-001	2.93380E-001	3.57780E+000	9	...........
	12	0.173333	2.79992E-001	-2.79773E-004	0.00000E+000	-7.83343E-005	-1.68088E-001	2.80062E-001	3.57780E+000	9	...........
	13	0.186667	2.67619E-001	-2.78862E-004	0.00000E+000	-7.46289E-005	-1.68088E-001	2.67685E-001	3.57780E+000	9	...........
	14	0.2	2.56057E-001	-2.79666E-004	0.00000E+000	-7.16105E-005	-1.68088E-001	2.56117E-001	3.57780E+000	9	...........
	15	0.213333	2.45270E-001	-2.79454E-004	0.00000E+000	-6.85417E-005	-1.68088E-001	2.45326E-001	3.57780E+000	9	...........
	16	0.226667	2.35189E-001	-2.78890E-004	0.00000E+000	-6.55919E-005	-1.68088E-001	2.35244E-001	3.57780E+000	9	...........
	17	0.24	2.25766E-001	-2.78758E-004	0.00000E+000	-6.29343E-005	-1.68088E-001	2.25821E-001	3.57780E+000	9	...........
	18	0.253333	2.16964E-001	-2.79359E-004	0.00000E+000	-6.06110E-005	-1.68088E-001	2.17020E-001	3.57780E+000	9	...........
	19	0.266667	2.08678E-001	-2.78047E-004	0.00000E+000	-5.80221E-005	-1.68088E-001	2.08722E-001	3.57780E+000	9	...........
	20	0.28	2.00885E-001	-2.78427E-004	0.00000E+000	-5.59318E-005	-1.68088E-001	2.00929E-001	3.57780E+000	9	...........
	21	0.293333	1.93552E-001	-2.79478E-004	0.00000E+000	-5.40936E-005	-1.68088E-001	1.93601E-001	3.57780E+000	9	...........
	22	0.306667	1.86608E-001	-2.79270E-004	0.00000E+000	-5.21140E-005	-1.68088E-001	1.86649E-001	3.57780E+000	9	...........
	23	0.32	1.80007E-001	-2.78028E-004	0.00000E+000	-5.00469E-005	-1.68088E-001	1.80052E-001	3.57780E+000	9	...........
	24	0.333333	1.73720E-001	-2.79544E-004	0.00000E+000	-4.85624E-005	-1.68088E-001	1.73758E-001	3.57780E+000	9	...........
	25	0.346667	1.67750E-001	-2.78777E-004	0.00000E+000	-4.67647E-005	-1.68088E-001	1.67791E-001	3.57780E+000	9	...........
	26	0.36	1.62013E-001	-2.78493E-004	0.00000E+000	-4.51195E-005	-1.68088E-001	1.62052E-001	3.57780E+000	9	...........
	27	0.373333	1.56567E-001	-2.79550E-004	0.00000E+000	-4.37683E-005	-1.68088E-001	1.56601E-001	3.57780E+000	9	...........
	28	0.386667	1.51389E-001	-2.78641E-004	0.00000E+000	-4.21832E-005	-1.68088E-001	1.51424E-001	3.57780E+000	9	...........
	29	0.4	1.46405E-001	-2.78693E-004	0.00000E+000	-4.08020E-005	-1.68088E-001	1.46441E-001	3.57780E+000	9	...........
	30	0.413333	1.41591E-001	-2.78958E-004	0.00000E+000	-3.94980E-005	-1.68088E-001	1.41622E-001	3.57780E+000	9	...........
	31	0.426667	1.36961E-001	-2.78711E-004	0.00000E+000	-3.81725E-005	-1.68088E-001	1.36987E-001	3.57780E+000	9	...........
	32	0.44	1.32481E-001	-2.78099E-004	0.00000E+000	-3.68429E-005	-1.68088E-001	1.32506E-001	3.57780E+000	9	...........
	33	0.453333	1.28133E-001	-2.79018E-004	0.00000E+000	-3.57514E-005	-1.68088E-001	1.28158E-001	3.57780E+000	9	...........
	34	0.466667	1.23964E-001	-2.79345E-004	0.00000E+000	-3.46287E-005	-1.68088E-001	1.23997E-001	3.57780E+000	9	...........
	35	0.48	1.19898E-001	-2.78048E-004	0.00000E+000	-3.33373E-005	-1.68088E-001	1.19922E-001	3.57780E+000	9	...........
	36	0.493333	1.15911E-001	-2.79521E-004	0.00000E+000	-3.23995E-005	-1.68088E-001	1.15938E-001	3.57780E+000	9	...........
	37	0.506667	1.12051E-001	-2.78407E-004	0.00000E+000	-3.11958E-005	-1.68088E-001	1.12072E-001	3.57780E+000	9	...........
	38	0.52	1.08280E-001	-2.79031E-004	0.00000E+000	-3.02135E-005	-1.68088E-001	1.08303E-001	3.57780E+000	9	...........
	39	0.533333	1.04625E-001	-2.79360E-004	0.00000E+000	-2.92280E-005	-1.68088E-001	1.04644E-001	3.57780E+000	9	...........
	40	0.546667	1.01081E-001	-2.79142E-004	0.00000E+000	-2.82159E-005	-1.68088E-001	1.01108E-001	3.57780E+000	9	...........
	41	0.56	9.76321E-002	-2.78808E-004	0.00000E+000	-2.72206E-005	-1.68088E-001	9.76568E-002	3.57780E+000	9	...........
	42	0.573333	9.42169E-002	-2.78509E-004	0.00000E+000	-2.62403E-005	-1.68088E-001	9.42401E-002	3.57780E+000	9	...........
	43	0.586667	9.08611E-002	-2.78931E-004	0.00000E+000	-2.53440E-005	-1.68088E-001	9.08789E-002	3.57780E+000	9	...........
	44	0.6	8.75680E-002	-2.78517E-004	0.00000E+000	-2.43891E-005	-1.68088E-001	8.75892E-002	3.57780E+000	9	...........
	45	0.613333	8.43663E-002	-2.79316E-004	0.00000E+000	-2.35648E-005	-1.68088E-001	8.43812E-002	3.57780E+000	9	...........
	46	0.626667	8.12050E-002	-2.78647E-004	0.00000E+000	-2.26275E-005	-1.68088E-001	8.12216E-002	3.57780E+000	9	...........
	47	0.64	7.80653E-002	-2.77796E-004	0.00000E+000	-2.16862E-005	-1.68088E-001	7.80756E-002	3.57780E+000	9	...........
	48	0.653333	7.50628E-002	-2.79367E-004	0.00000E+000	-2.09700E-005	-1.68088E-001	7.50747E-002	3.57780E+000	9	...........
	49	0.666667	7.21068E-002	-2.78088E-004	0.00000E+000	-2.00521E-005	-1.68088E-001	7.21167E-002	3.57780E+000	9	...........
	50	0.68	6.91453E-002	-2.78858E-004	0.00000E+000	-1.92817E-005	-1.68088E-001	6.91549E-002	3.57780E+000	9	...........
	51	0.693333	6.62068E-002	-2.78365E-004	0.00000E+000	-1.84297E-005	-1.68088E-001	6.62152E-002	3.57780E+000	9	...........
	52	0.706667	6.33744E-002	-2.79389E-004	0.00000E+000	-1.77061E-005	-1.68088E-001	6.33810E-002	3.57780E+000	9	...........
	53	0.72	6.06273E-002	-2.78121E-004	0.00000E+000	-1.68617E-005	-1.68088E-001	6.06356E-002	3.57780E+000	9	...........
	54	0.733333	5.78892E-002	-2.79374E-004	0.00000E+000	-1.61727E-005	-1.68088E-001	5.78973E-002	3.57780E+000	9	...........
	55	0.746667	5.52263E-002	-2.79438E-004	0.00000E+000	-1.54323E-005	-1.68088E-001	5.52340E-002	3.57780E+000	9	...........
	56	0.76	5.25994E-002	-2.78693E-004	0.00000E+000	-1.46591E-005	-1.68088E-001	5.26031E-002	3.57780E+000	9	...........
	57	0.773333	4.99783E-002	-2.79330E-004	0.00000E+000	-1.39604E-005	-1.68088E-001	4.99924E-002	3.57780E+000	9	...........
	58	0.786667	4.73820E-002	-2.79425E-004	0.00000E+000	-1.32397E-005	-1.68088E-001	4.73868E-002	3.57780E+000	9	...........
	59	0.8	4.47891E-002	-2.78856E-004	0.00000E+000	-1.24897E-005	-1.68088E-001	4.47959E-002	3.57780E+000	9	...........
	60	0.813333	4.22253E-002	-2.79010E-004	0.00000E+000	-1.17813E-005	-1.68088E-001	4.22305E-002	3.57780E+000	9	...........
	61	0.826667	3.96488E-002	-2.77847E-004	0.00000E+000	-1.10163E-005	-1.68088E-001	3.96560E-002	3.57780E+000	9	...........
	62	0.84	3.71004E-002	-2.79210E-004	0.00000E+000	-1.03588E-005	-1.68088E-001	3.71016E-002	3.57780E+000	9	...........
	63	0.853333	3.45940E-002	-2.79449E-004	0.00000E+000	-9.66725E-006	-1.68088E-001	3.45977E-002	3.57780E+000	9	...........
	64	0.866667	3.22068E-002	-2.78705E-004	0.00000E+000	-8.97620E-006	-1.68088E-001	3.22066E-002	3.57780E+000	9	...........
	65	0.88	2.97906E-002	-2.79157E-004	0.00000E+000	-8.31625E-006	-1.68088E-001	2.97915E-002	3.57780E+000	9	...........
	66	0.893333	2.74066E-002	-2.79556E-004	0.00000E+000	-7.66168E-006	-1.68088E-001	2.74017E-002	3.57798E+000	9	...........
	67	0.906667	2.50486E-002	-2.78743E-004	0.00000E+000	-6.98211E-006	-1.68088E-001	2.50431E-002	3.57920E+000	9	...........
	68	0.92	2.26923E-002	-2.78440E-004	0.00000E+000	-6.31845E-006	-1.68088E-001	2.26836E-002	3.57920E+000	9	...........
	69	0.933333	2.03733E-002	-2.78896E-004	0.00000E+000	-5.68203E-006	-1.68088E-001	2.03654E-002	3.57920E+000	9	...........
	70	0.946667	1.80764E-002	-2.79207E-004	0.00000E+000	-5.04707E-006	-1.68088E-001	1.80690E-002	3.57920E+000	9	...........
	71	0.96	1.58163E-002	-2.78848E-004	0.00000E+000	-4.41034E-006	-1.68088E-001	1.58067E-002	3.57920E+000	9	...........
	72	0.97333	1.35271E-002	-2.79283E-004	0.00000E+000	-3.77790E-006	-1.68088E-001	1.35165E-002	3.57920E+000	9	...........
	73	0.98667	1.12784E-002	-2.78679E-004	0.00000E+000	-3.14304E-006	-1.68088E-001	1.12626E-002	3.57920E+000	9	...........
	74	1	9.08524E-003	-2.78851E-004	0.00000E+000	-2.53343E-006	-1.68088E-001	9.07388E-003	3.57920E+000	9	...........
	75	1.01333	6.88981E-003	-2.79271E-004	0.00000E+000	-1.92412E-006	-1.68088E-001	6.87409E-003	3.57920E+000	9	...........
	76	1.02667	4.65760E-003	-2.78905E-004	0.00000E+000	-1.29903E-006	-1.68088E-001	4.63899E-003	3.57920E+000	9	...........
	77	1.04	2.46663E-003	-2.78536E-004	0.00000E+000	-6.87047E-007	-1.68088E-001	2.44452E-003	3.57920E+000	9	...........
	78	1.05	5.54744E-004	-2.79359E-004	0.00000E+000	-1.54973E-007	-1.68088E-001	5.30137E-004	3.57920E+000	9	...........
STARTTIMEOFFSET	QUANT	872.0985	Start Time Offset (s)
