EXPLAIN
TAG	PWR800_DISCHARGE
TITLE	LABEL	PWR Cyclic Charge Discharge (Cell) - Discharge Step	Test &Identifier
DATE	LABEL	7-7-2017	Date
TIME	LABEL	16:03:36	Time
NOTES	NOTES	3	&Notes...
	supercap test cell
	2.8mg
	6M KOH
PSTAT	PSTAT	IFC5000-01520	Potentiostat
CAPACITY	QUANT	1.00000E-003	Capacity (A-hr)
CELLTYPE	SELECTOR	1	&Cell Type
WORKINGCONNECTION	SELECTOR	0	&Working Lead
MAXDISCHARGETIME	VARIABLEANDUNITS	1.00000E+002	s	1.00000E+002	second(s)	Max &Discharge Time
DISCHARGEMODE	MULTIPARAM	0	2.80000E-004	&Discharge Mode	Constant Current	Amp(s)
SAMPLETIME	QUANT	1.00000E-002	Sa&mple Period (s)
DISCHARGESTOPAT1	MULTIPARAM	3	0.00000E+000	Discharge Stop At &1	Voltage < Limit	V
DISCHARGESTOPAT2	MULTIPARAM	0	0.00000E+000	Discharge Stop At &2	None	N/A
AESBHCSELECTOR	TOGGLE	F	Save Both Half Cells
IRCOMP	TOGGLE	F	IR &Measure
EOC	QUANT	0	Open Circuit (V)
SEQUENCER	TOGGLE	TRUE	Run as Sequence
PSTATMODEL	IQUANT	53	Pstat Model
PSTATSECTION	LABEL	IFC5000-01520	Pstat Section
PSTATSERIALNO	LABEL	01520	Pstat Serial Number
CTRLMODE	IQUANT	0	Control Mode
ELECTROMETER	IQUANT	1	RE=0 or CS=1
IESTAB	IQUANT	0	I/E Stability
CASPEED	IQUANT	4	Control Amp Speed
CONVENTION	IQUANT	1	Current Convention
ICHRANGE	IQUANT	2	Ich Range
ICHRANGEMODE	TOGGLE	T	Ich Auto Range
ICHOFFSETENABLE	TOGGLE	F	Ich Offset Enable
ICHOFFSET	QUANT	0	Ich Offset (V)
ICHFILTER	IQUANT	1	Ich Filter
VCHRANGE	IQUANT	2	Vch Range
VCHRANGEMODE	TOGGLE	T	Vch Auto Range
VCHOFFSETENABLE	TOGGLE	F	Vch Offset Enable
VCHOFFSET	QUANT	0	Vch Offset (V)
VCHFILTER	IQUANT	1	Vch Filter
IERANGELOWERLIMIT	IQUANT	9	I/E Range Lower Limit
IERANGEMODE	TOGGLE	F	I/E AutoRange
IERANGE	IQUANT	9	I/E Range
ACHSELECT	IQUANT	1	Ach Select
ACHRANGE	IQUANT	2	Ach Range
ACHOFFSETENABLE	TOGGLE	F	Ach Offset Enable
ACHOFFSET	QUANT	0	Ach Offset (V)
ACHFILTER	IQUANT	1	Ach Filter
CABLEID	IQUANT	14	Cable ID
DCCALDATE	LABEL	5-7-2017	DC Calibration Date
ACCALDATE	LABEL	12/3/2015	AC Calibration Date
FRAMEWORKVERSION	QUANT	7.01	Framework Version
INSTRUMENTVERSION	LABEL	4.00	Instrument Version
CURVE	TABLE	66
	Pt	T	Vf	Im	Vu	Pwr	Sig	Ach	Temp	IERange	Over
	#	s	V	A	V	W	V	V	deg C	#	bits
	0	0.013333	5.22573E-001	-2.78628E-004	0.00000E+000	-1.45604E-004	-1.68088E-001	5.22820E-001	3.57880E+000	9	...........
	1	0.026667	4.90058E-001	-2.79795E-004	0.00000E+000	-1.37116E-004	-1.68088E-001	4.90279E-001	3.57880E+000	9	...........
	2	0.04	4.60594E-001	-2.79331E-004	0.00000E+000	-1.28658E-004	-1.68088E-001	4.60703E-001	3.57880E+000	9	...........
	3	0.053333	4.33105E-001	-2.79103E-004	0.00000E+000	-1.20881E-004	-1.68088E-001	4.33205E-001	3.57880E+000	9	...........
	4	0.066667	4.07574E-001	-2.78321E-004	0.00000E+000	-1.13436E-004	-1.68088E-001	4.07667E-001	3.57880E+000	9	...........
	5	0.08	3.83805E-001	-2.78842E-004	0.00000E+000	-1.07021E-004	-1.68088E-001	3.83894E-001	3.57880E+000	9	...........
	6	0.093333	3.61719E-001	-2.78293E-004	0.00000E+000	-1.00664E-004	-1.68088E-001	3.61802E-001	3.57880E+000	9	...........
	7	0.106667	3.41162E-001	-2.78845E-004	0.00000E+000	-9.51312E-005	-1.68088E-001	3.41247E-001	3.57880E+000	9	...........
	8	0.12	3.22058E-001	-2.78338E-004	0.00000E+000	-8.96411E-005	-1.68088E-001	3.22134E-001	3.57880E+000	9	...........
	9	0.133333	3.04292E-001	-2.79413E-004	0.00000E+000	-8.50230E-005	-1.68088E-001	3.04363E-001	3.57880E+000	9	...........
	10	0.146667	2.87809E-001	-2.78824E-004	0.00000E+000	-8.02481E-005	-1.68088E-001	2.87884E-001	3.57880E+000	9	...........
	11	0.16	2.72518E-001	-2.78621E-004	0.00000E+000	-7.59291E-005	-1.68088E-001	2.72588E-001	3.57880E+000	9	...........
	12	0.173333	2.58324E-001	-2.77516E-004	0.00000E+000	-7.16890E-005	-1.68088E-001	2.58389E-001	3.57880E+000	9	...........
	13	0.186667	2.45129E-001	-2.79072E-004	0.00000E+000	-6.84086E-005	-1.68088E-001	2.45194E-001	3.57880E+000	9	...........
	14	0.2	2.32862E-001	-2.78708E-004	0.00000E+000	-6.49006E-005	-1.68088E-001	2.32920E-001	3.57880E+000	9	...........
	15	0.213333	2.21438E-001	-2.79055E-004	0.00000E+000	-6.17934E-005	-1.68088E-001	2.21492E-001	3.57880E+000	9	...........
	16	0.226667	2.10798E-001	-2.79355E-004	0.00000E+000	-5.88876E-005	-1.68088E-001	2.10845E-001	3.57880E+000	9	...........
	17	0.24	2.00837E-001	-2.78674E-004	0.00000E+000	-5.59681E-005	-1.68088E-001	2.00887E-001	3.57880E+000	9	...........
	18	0.253333	1.91567E-001	-2.77974E-004	0.00000E+000	-5.32506E-005	-1.68088E-001	1.91614E-001	3.57880E+000	9	...........
	19	0.266667	1.82891E-001	-2.79027E-004	0.00000E+000	-5.10316E-005	-1.68088E-001	1.82938E-001	3.57880E+000	9	...........
	20	0.28	1.74720E-001	-2.79479E-004	0.00000E+000	-4.88307E-005	-1.68088E-001	1.74770E-001	3.57880E+000	9	...........
	21	0.293333	1.67006E-001	-2.78798E-004	0.00000E+000	-4.65610E-005	-1.68088E-001	1.67052E-001	3.57880E+000	9	...........
	22	0.306667	1.59737E-001	-2.78300E-004	0.00000E+000	-4.44547E-005	-1.68088E-001	1.59775E-001	3.57880E+000	9	...........
	23	0.32	1.52871E-001	-2.78712E-004	0.00000E+000	-4.26071E-005	-1.68088E-001	1.52906E-001	3.57880E+000	9	...........
	24	0.333333	1.46386E-001	-2.77568E-004	0.00000E+000	-4.06320E-005	-1.68088E-001	1.46416E-001	3.57880E+000	9	...........
	25	0.346667	1.40193E-001	-2.78858E-004	0.00000E+000	-3.90939E-005	-1.68088E-001	1.40230E-001	3.57880E+000	9	...........
	26	0.36	1.34321E-001	-2.79690E-004	0.00000E+000	-3.75682E-005	-1.68088E-001	1.34355E-001	3.57880E+000	9	...........
	27	0.373333	1.28734E-001	-2.79222E-004	0.00000E+000	-3.59454E-005	-1.68088E-001	1.28766E-001	3.57880E+000	9	...........
	28	0.386667	1.23354E-001	-2.77546E-004	0.00000E+000	-3.42363E-005	-1.68088E-001	1.23383E-001	3.57880E+000	9	...........
	29	0.4	1.18225E-001	-2.78992E-004	0.00000E+000	-3.29838E-005	-1.68088E-001	1.18257E-001	3.57880E+000	9	...........
	30	0.413333	1.13303E-001	-2.79249E-004	0.00000E+000	-3.16398E-005	-1.68088E-001	1.13334E-001	3.57880E+000	9	...........
	31	0.426667	1.08577E-001	-2.78542E-004	0.00000E+000	-3.02432E-005	-1.68088E-001	1.08611E-001	3.57810E+000	9	...........
	32	0.44	1.04016E-001	-2.79888E-004	0.00000E+000	-2.91128E-005	-1.68088E-001	1.04043E-001	3.57740E+000	9	...........
	33	0.453333	9.95668E-002	-2.80413E-004	0.00000E+000	-2.79198E-005	-1.68088E-001	9.95922E-002	3.57740E+000	9	...........
	34	0.466667	9.52630E-002	-2.77874E-004	0.00000E+000	-2.64711E-005	-1.68088E-001	9.52933E-002	3.57740E+000	9	...........
	35	0.48	9.11053E-002	-2.79078E-004	0.00000E+000	-2.54255E-005	-1.68088E-001	9.11332E-002	3.57740E+000	9	...........
	36	0.493333	8.71059E-002	-2.78620E-004	0.00000E+000	-2.42694E-005	-1.68088E-001	8.71252E-002	3.57740E+000	9	...........
	37	0.506667	8.31975E-002	-2.78520E-004	0.00000E+000	-2.31721E-005	-1.68088E-001	8.32122E-002	3.57740E+000	9	...........
	38	0.52	7.93749E-002	-2.79059E-004	0.00000E+000	-2.21503E-005	-1.68088E-001	7.93905E-002	3.57740E+000	9	...........
	39	0.533333	7.56714E-002	-2.77195E-004	0.00000E+000	-2.09758E-005	-1.68088E-001	7.56893E-002	3.57740E+000	9	...........
	40	0.546667	7.20792E-002	-2.79439E-004	0.00000E+000	-2.01417E-005	-1.68088E-001	7.20945E-002	3.57740E+000	9	...........
	41	0.56	6.85804E-002	-2.78135E-004	0.00000E+000	-1.90746E-005	-1.68088E-001	6.85968E-002	3.57740E+000	9	...........
	42	0.573333	6.50959E-002	-2.78868E-004	0.00000E+000	-1.81532E-005	-1.68088E-001	6.51077E-002	3.57740E+000	9	...........
	43	0.586667	6.16949E-002	-2.78007E-004	0.00000E+000	-1.71516E-005	-1.68088E-001	6.17064E-002	3.57740E+000	9	...........
	44	0.6	5.82977E-002	-2.78566E-004	0.00000E+000	-1.62397E-005	-1.68088E-001	5.83073E-002	3.57740E+000	9	...........
	45	0.613333	5.50091E-002	-2.79347E-004	0.00000E+000	-1.53666E-005	-1.68088E-001	5.50230E-002	3.57740E+000	9	...........
	46	0.626667	5.18316E-002	-2.80449E-004	0.00000E+000	-1.45361E-005	-1.68088E-001	5.18406E-002	3.57740E+000	9	...........
	47	0.64	4.87694E-002	-2.78283E-004	0.00000E+000	-1.35717E-005	-1.68088E-001	4.87708E-002	3.57740E+000	9	...........
	48	0.653333	4.57888E-002	-2.80123E-004	0.00000E+000	-1.28265E-005	-1.68088E-001	4.58003E-002	3.57740E+000	9	...........
	49	0.666667	4.28650E-002	-2.78461E-004	0.00000E+000	-1.19362E-005	-1.68088E-001	4.28726E-002	3.57740E+000	9	...........
	50	0.68	3.99584E-002	-2.78045E-004	0.00000E+000	-1.11102E-005	-1.68088E-001	3.99654E-002	3.57740E+000	9	...........
	51	0.693333	3.70716E-002	-2.78363E-004	0.00000E+000	-1.03194E-005	-1.68088E-001	3.70777E-002	3.57740E+000	9	...........
	52	0.706667	3.42243E-002	-2.79453E-004	0.00000E+000	-9.56408E-006	-1.68088E-001	3.42298E-002	3.57740E+000	9	...........
	53	0.72	3.13866E-002	-2.78406E-004	0.00000E+000	-8.73823E-006	-1.68088E-001	3.13881E-002	3.57740E+000	9	...........
	54	0.733333	2.86167E-002	-2.78707E-004	0.00000E+000	-7.97569E-006	-1.68088E-001	2.86208E-002	3.57740E+000	9	...........
	55	0.746667	2.58967E-002	-2.78042E-004	0.00000E+000	-7.20037E-006	-1.68088E-001	2.59003E-002	3.57740E+000	9	...........
	56	0.76	2.32266E-002	-2.78647E-004	0.00000E+000	-6.47202E-006	-1.68088E-001	2.32202E-002	3.57740E+000	9	...........
	57	0.773333	2.05608E-002	-2.78849E-004	0.00000E+000	-5.73337E-006	-1.68088E-001	2.05582E-002	3.57740E+000	9	...........
	58	0.786667	1.79243E-002	-2.78592E-004	0.00000E+000	-4.99355E-006	-1.68088E-001	1.79194E-002	3.57740E+000	9	...........
	59	0.8	1.52814E-002	-2.79740E-004	0.00000E+000	-4.27482E-006	-1.68088E-001	1.52780E-002	3.57740E+000	9	...........
	60	0.813333	1.27379E-002	-2.79048E-004	0.00000E+000	-3.55448E-006	-1.68088E-001	1.27285E-002	3.57740E+000	9	...........
	61	0.826667	1.02558E-002	-2.79447E-004	0.00000E+000	-2.86595E-006	-1.68088E-001	1.02444E-002	3.57740E+000	9	...........
	62	0.84	7.76644E-003	-2.78356E-004	0.00000E+000	-2.16184E-006	-1.68088E-001	7.75769E-003	3.57740E+000	9	...........
	63	0.853333	5.30620E-003	-2.78900E-004	0.00000E+000	-1.47990E-006	-1.68088E-001	5.29403E-003	3.57740E+000	9	...........
	64	0.866667	2.86471E-003	-2.79143E-004	0.00000E+000	-7.99663E-007	-1.68088E-001	2.85219E-003	3.57740E+000	9	...........
	65	0.878333	6.45377E-004	-2.78197E-004	0.00000E+000	-1.79542E-007	-1.68088E-001	6.28052E-004	3.57740E+000	9	...........
STARTTIMEOFFSET	QUANT	1260.496	Start Time Offset (s)
