EXPLAIN
TAG	PWR800_DISCHARGE
TITLE	LABEL	PWR Cyclic Charge Discharge (Cell) - Discharge Step	Test &Identifier
DATE	LABEL	7-7-2017	Date
TIME	LABEL	15:44:52	Time
NOTES	NOTES	3	&Notes...
	supercap test cell
	2.8mg
	6M KOH
PSTAT	PSTAT	IFC5000-01520	Potentiostat
CAPACITY	QUANT	1.00000E-003	Capacity (A-hr)
CELLTYPE	SELECTOR	1	&Cell Type
WORKINGCONNECTION	SELECTOR	0	&Working Lead
MAXDISCHARGETIME	VARIABLEANDUNITS	1.00000E+002	s	1.00000E+002	second(s)	Max &Discharge Time
DISCHARGEMODE	MULTIPARAM	0	2.80000E-004	&Discharge Mode	Constant Current	Amp(s)
SAMPLETIME	QUANT	1.00000E-002	Sa&mple Period (s)
DISCHARGESTOPAT1	MULTIPARAM	3	0.00000E+000	Discharge Stop At &1	Voltage < Limit	V
DISCHARGESTOPAT2	MULTIPARAM	0	0.00000E+000	Discharge Stop At &2	None	N/A
AESBHCSELECTOR	TOGGLE	F	Save Both Half Cells
IRCOMP	TOGGLE	F	IR &Measure
EOC	QUANT	0	Open Circuit (V)
SEQUENCER	TOGGLE	TRUE	Run as Sequence
PSTATMODEL	IQUANT	53	Pstat Model
PSTATSECTION	LABEL	IFC5000-01520	Pstat Section
PSTATSERIALNO	LABEL	01520	Pstat Serial Number
CTRLMODE	IQUANT	0	Control Mode
ELECTROMETER	IQUANT	1	RE=0 or CS=1
IESTAB	IQUANT	0	I/E Stability
CASPEED	IQUANT	4	Control Amp Speed
CONVENTION	IQUANT	1	Current Convention
ICHRANGE	IQUANT	2	Ich Range
ICHRANGEMODE	TOGGLE	T	Ich Auto Range
ICHOFFSETENABLE	TOGGLE	F	Ich Offset Enable
ICHOFFSET	QUANT	0	Ich Offset (V)
ICHFILTER	IQUANT	1	Ich Filter
VCHRANGE	IQUANT	2	Vch Range
VCHRANGEMODE	TOGGLE	T	Vch Auto Range
VCHOFFSETENABLE	TOGGLE	F	Vch Offset Enable
VCHOFFSET	QUANT	0	Vch Offset (V)
VCHFILTER	IQUANT	1	Vch Filter
IERANGELOWERLIMIT	IQUANT	9	I/E Range Lower Limit
IERANGEMODE	TOGGLE	F	I/E AutoRange
IERANGE	IQUANT	9	I/E Range
ACHSELECT	IQUANT	1	Ach Select
ACHRANGE	IQUANT	2	Ach Range
ACHOFFSETENABLE	TOGGLE	F	Ach Offset Enable
ACHOFFSET	QUANT	0	Ach Offset (V)
ACHFILTER	IQUANT	1	Ach Filter
CABLEID	IQUANT	14	Cable ID
DCCALDATE	LABEL	5-7-2017	DC Calibration Date
ACCALDATE	LABEL	12/3/2015	AC Calibration Date
FRAMEWORKVERSION	QUANT	7.01	Framework Version
INSTRUMENTVERSION	LABEL	4.00	Instrument Version
CURVE	TABLE	108
	Pt	T	Vf	Im	Vu	Pwr	Sig	Ach	Temp	IERange	Over
	#	s	V	A	V	W	V	V	deg C	#	bits
	0	0.013333	5.58231E-001	-2.79653E-004	0.00000E+000	-1.56111E-004	-1.68088E-001	5.58506E-001	3.57800E+000	9	...........
	1	0.026667	5.28891E-001	-2.78304E-004	0.00000E+000	-1.47192E-004	-1.68088E-001	5.29145E-001	3.57800E+000	9	...........
	2	0.04	5.02400E-001	-2.79686E-004	0.00000E+000	-1.40514E-004	-1.68088E-001	5.02654E-001	3.57800E+000	9	...........
	3	0.053333	4.78457E-001	-2.78869E-004	0.00000E+000	-1.33427E-004	-1.68088E-001	4.78592E-001	3.57800E+000	9	...........
	4	0.066667	4.56294E-001	-2.78680E-004	0.00000E+000	-1.27160E-004	-1.68088E-001	4.56407E-001	3.57800E+000	9	...........
	5	0.08	4.35748E-001	-2.79243E-004	0.00000E+000	-1.21680E-004	-1.68088E-001	4.35857E-001	3.57800E+000	9	...........
	6	0.093333	4.16713E-001	-2.79191E-004	0.00000E+000	-1.16342E-004	-1.68088E-001	4.16815E-001	3.57800E+000	9	...........
	7	0.106667	3.99042E-001	-2.79298E-004	0.00000E+000	-1.11452E-004	-1.68088E-001	3.99140E-001	3.57800E+000	9	...........
	8	0.12	3.82663E-001	-2.79030E-004	0.00000E+000	-1.06775E-004	-1.68088E-001	3.82753E-001	3.57800E+000	9	...........
	9	0.133333	3.67471E-001	-2.78750E-004	0.00000E+000	-1.02432E-004	-1.68088E-001	3.67558E-001	3.57800E+000	9	...........
	10	0.146667	3.53312E-001	-2.78825E-004	0.00000E+000	-9.85123E-005	-1.68088E-001	3.53397E-001	3.57800E+000	9	...........
	11	0.16	3.40131E-001	-2.79278E-004	0.00000E+000	-9.49913E-005	-1.68088E-001	3.40214E-001	3.57800E+000	9	...........
	12	0.173333	3.27876E-001	-2.78494E-004	0.00000E+000	-9.13113E-005	-1.68088E-001	3.27953E-001	3.57800E+000	9	...........
	13	0.186667	3.16454E-001	-2.79109E-004	0.00000E+000	-8.83254E-005	-1.68088E-001	3.16528E-001	3.57800E+000	9	...........
	14	0.2	3.05791E-001	-2.78908E-004	0.00000E+000	-8.52876E-005	-1.68088E-001	3.05856E-001	3.57800E+000	9	...........
	15	0.213333	2.95774E-001	-2.79489E-004	0.00000E+000	-8.26655E-005	-1.68088E-001	2.95839E-001	3.57800E+000	9	...........
	16	0.226667	2.86413E-001	-2.79019E-004	0.00000E+000	-7.99145E-005	-1.68088E-001	2.86478E-001	3.57800E+000	9	...........
	17	0.24	2.77611E-001	-2.79345E-004	0.00000E+000	-7.75491E-005	-1.68088E-001	2.77681E-001	3.57800E+000	9	...........
	18	0.253333	2.69311E-001	-2.78903E-004	0.00000E+000	-7.51117E-005	-1.68088E-001	2.69377E-001	3.57800E+000	9	...........
	19	0.266667	2.61482E-001	-2.78576E-004	0.00000E+000	-7.28425E-005	-1.68088E-001	2.61538E-001	3.57800E+000	9	...........
	20	0.28	2.54092E-001	-2.78405E-004	0.00000E+000	-7.07405E-005	-1.68088E-001	2.54154E-001	3.57800E+000	9	...........
	21	0.293333	2.47076E-001	-2.78954E-004	0.00000E+000	-6.89228E-005	-1.68088E-001	2.47133E-001	3.57800E+000	9	...........
	22	0.306667	2.40411E-001	-2.79315E-004	0.00000E+000	-6.71502E-005	-1.68088E-001	2.40473E-001	3.57800E+000	9	...........
	23	0.32	2.34050E-001	-2.79005E-004	0.00000E+000	-6.53010E-005	-1.68088E-001	2.34108E-001	3.57800E+000	9	...........
	24	0.333333	2.28000E-001	-2.79599E-004	0.00000E+000	-6.37486E-005	-1.68088E-001	2.28049E-001	3.57800E+000	9	...........
	25	0.346667	2.22205E-001	-2.79550E-004	0.00000E+000	-6.21176E-005	-1.68088E-001	2.22253E-001	3.57800E+000	9	...........
	26	0.36	2.16662E-001	-2.78260E-004	0.00000E+000	-6.02884E-005	-1.68088E-001	2.16712E-001	3.57800E+000	9	...........
	27	0.373333	2.11334E-001	-2.79039E-004	0.00000E+000	-5.89703E-005	-1.68088E-001	2.11379E-001	3.57800E+000	9	...........
	28	0.386667	2.06209E-001	-2.78088E-004	0.00000E+000	-5.73443E-005	-1.68088E-001	2.06255E-001	3.57800E+000	9	...........
	29	0.4	2.01277E-001	-2.79039E-004	0.00000E+000	-5.61641E-005	-1.68088E-001	2.01321E-001	3.57800E+000	9	...........
	30	0.413333	1.96561E-001	-2.78921E-004	0.00000E+000	-5.48250E-005	-1.68088E-001	1.96601E-001	3.57800E+000	9	...........
	31	0.426667	1.92020E-001	-2.79478E-004	0.00000E+000	-5.36654E-005	-1.68088E-001	1.92063E-001	3.57800E+000	9	...........
	32	0.44	1.87648E-001	-2.79404E-004	0.00000E+000	-5.24295E-005	-1.68088E-001	1.87694E-001	3.57800E+000	9	...........
	33	0.453333	1.83394E-001	-2.78892E-004	0.00000E+000	-5.11470E-005	-1.68088E-001	1.83435E-001	3.57800E+000	9	...........
	34	0.466667	1.79264E-001	-2.79209E-004	0.00000E+000	-5.00522E-005	-1.68088E-001	1.79307E-001	3.57800E+000	9	...........
	35	0.48	1.75239E-001	-2.79525E-004	0.00000E+000	-4.89836E-005	-1.68088E-001	1.75275E-001	3.57800E+000	9	...........
	36	0.493333	1.71336E-001	-2.79263E-004	0.00000E+000	-4.78477E-005	-1.68088E-001	1.71379E-001	3.57800E+000	9	...........
	37	0.506667	1.67548E-001	-2.78797E-004	0.00000E+000	-4.67117E-005	-1.68088E-001	1.67587E-001	3.57800E+000	9	...........
	38	0.52	1.63858E-001	-2.78618E-004	0.00000E+000	-4.56538E-005	-1.68088E-001	1.63899E-001	3.57800E+000	9	...........
	39	0.533333	1.60253E-001	-2.80006E-004	0.00000E+000	-4.48719E-005	-1.68088E-001	1.60289E-001	3.57800E+000	9	...........
	40	0.546667	1.56746E-001	-2.78289E-004	0.00000E+000	-4.36206E-005	-1.68088E-001	1.56785E-001	3.57800E+000	9	...........
	41	0.56	1.53289E-001	-2.79060E-004	0.00000E+000	-4.27768E-005	-1.68088E-001	1.53324E-001	3.57800E+000	9	...........
	42	0.573333	1.49912E-001	-2.79037E-004	0.00000E+000	-4.18312E-005	-1.68088E-001	1.49943E-001	3.57800E+000	9	...........
	43	0.586667	1.46547E-001	-2.78509E-004	0.00000E+000	-4.08148E-005	-1.68088E-001	1.46578E-001	3.57800E+000	9	...........
	44	0.6	1.43268E-001	-2.79576E-004	0.00000E+000	-4.00542E-005	-1.68088E-001	1.43296E-001	3.57800E+000	9	...........
	45	0.613333	1.40068E-001	-2.79357E-004	0.00000E+000	-3.91291E-005	-1.68088E-001	1.40097E-001	3.57800E+000	9	...........
	46	0.626667	1.36953E-001	-2.79036E-004	0.00000E+000	-3.82148E-005	-1.68088E-001	1.36977E-001	3.57800E+000	9	...........
	47	0.64	1.33907E-001	-2.78658E-004	0.00000E+000	-3.73142E-005	-1.68088E-001	1.33931E-001	3.57800E+000	9	...........
	48	0.653333	1.30915E-001	-2.79557E-004	0.00000E+000	-3.65982E-005	-1.68088E-001	1.30940E-001	3.57800E+000	9	...........
	49	0.666667	1.27919E-001	-2.78513E-004	0.00000E+000	-3.56273E-005	-1.68088E-001	1.27946E-001	3.57800E+000	9	...........
	50	0.68	1.24960E-001	-2.79785E-004	0.00000E+000	-3.49620E-005	-1.68088E-001	1.24987E-001	3.57800E+000	9	...........
	51	0.693333	1.22107E-001	-2.79062E-004	0.00000E+000	-3.40754E-005	-1.68088E-001	1.22132E-001	3.57800E+000	9	...........
	52	0.706667	1.19283E-001	-2.78136E-004	0.00000E+000	-3.31770E-005	-1.68088E-001	1.19307E-001	3.57800E+000	9	...........
	53	0.72	1.16524E-001	-2.79588E-004	0.00000E+000	-3.25788E-005	-1.68088E-001	1.16547E-001	3.57800E+000	9	...........
	54	0.733333	1.13757E-001	-2.78845E-004	0.00000E+000	-3.17205E-005	-1.68088E-001	1.13779E-001	3.57800E+000	9	...........
	55	0.746667	1.11012E-001	-2.79813E-004	0.00000E+000	-3.10626E-005	-1.68088E-001	1.11033E-001	3.57800E+000	9	...........
	56	0.76	1.08308E-001	-2.78987E-004	0.00000E+000	-3.02165E-005	-1.68088E-001	1.08326E-001	3.57800E+000	9	...........
	57	0.773333	1.05599E-001	-2.79878E-004	0.00000E+000	-2.95550E-005	-1.68088E-001	1.05621E-001	3.57800E+000	9	...........
	58	0.786667	1.03016E-001	-2.79333E-004	0.00000E+000	-2.87758E-005	-1.68088E-001	1.03040E-001	3.57800E+000	9	...........
	59	0.8	1.00435E-001	-2.79878E-004	0.00000E+000	-2.81096E-005	-1.68088E-001	1.00465E-001	3.57800E+000	9	...........
	60	0.813333	9.78714E-002	-2.79796E-004	0.00000E+000	-2.73840E-005	-1.68088E-001	9.79005E-002	3.57856E+000	9	...........
	61	0.826667	9.53460E-002	-2.78683E-004	0.00000E+000	-2.65713E-005	-1.68088E-001	9.53681E-002	3.57950E+000	9	...........
	62	0.84	9.28936E-002	-2.77958E-004	0.00000E+000	-2.58205E-005	-1.68088E-001	9.29124E-002	3.57950E+000	9	...........
	63	0.853333	9.03977E-002	-2.79266E-004	0.00000E+000	-2.52450E-005	-1.68088E-001	9.04180E-002	3.57950E+000	9	...........
	64	0.866667	8.79630E-002	-2.79139E-004	0.00000E+000	-2.45539E-005	-1.68088E-001	8.79854E-002	3.57950E+000	9	...........
	65	0.88	8.55341E-002	-2.78740E-004	0.00000E+000	-2.38417E-005	-1.68088E-001	8.55560E-002	3.57950E+000	9	...........
	66	0.893333	8.31235E-002	-2.78971E-004	0.00000E+000	-2.31890E-005	-1.68088E-001	8.31394E-002	3.57950E+000	9	...........
	67	0.906667	8.07621E-002	-2.79424E-004	0.00000E+000	-2.25669E-005	-1.68088E-001	8.07737E-002	3.57950E+000	9	...........
	68	0.92	7.84190E-002	-2.78133E-004	0.00000E+000	-2.18109E-005	-1.68088E-001	7.84283E-002	3.57950E+000	9	...........
	69	0.933333	7.60976E-002	-2.79434E-004	0.00000E+000	-2.12643E-005	-1.68088E-001	7.61066E-002	3.57950E+000	9	...........
	70	0.946667	7.37902E-002	-2.78771E-004	0.00000E+000	-2.05705E-005	-1.68088E-001	7.38005E-002	3.57950E+000	9	...........
	71	0.96	7.14951E-002	-2.79092E-004	0.00000E+000	-1.99537E-005	-1.68088E-001	7.15092E-002	3.57950E+000	9	...........
	72	0.97333	6.92213E-002	-2.79238E-004	0.00000E+000	-1.93292E-005	-1.68088E-001	6.92298E-002	3.57950E+000	9	...........
	73	0.98667	6.69603E-002	-2.79021E-004	0.00000E+000	-1.86833E-005	-1.68088E-001	6.69705E-002	3.57950E+000	9	...........
	74	1	6.47298E-002	-2.78156E-004	0.00000E+000	-1.80050E-005	-1.68088E-001	6.47405E-002	3.57950E+000	9	...........
	75	1.01333	6.25316E-002	-2.78423E-004	0.00000E+000	-1.74102E-005	-1.68088E-001	6.25401E-002	3.57950E+000	9	...........
	76	1.02667	6.03878E-002	-2.79321E-004	0.00000E+000	-1.68676E-005	-1.68088E-001	6.03943E-002	3.57950E+000	9	...........
	77	1.04	5.81719E-002	-2.78901E-004	0.00000E+000	-1.62242E-005	-1.68088E-001	5.81857E-002	3.57950E+000	9	...........
	78	1.05333	5.59499E-002	-2.79280E-004	0.00000E+000	-1.56257E-005	-1.68088E-001	5.59610E-002	3.57950E+000	9	...........
	79	1.06667	5.37768E-002	-2.78874E-004	0.00000E+000	-1.49970E-005	-1.68088E-001	5.37867E-002	3.57950E+000	9	...........
	80	1.08	5.16030E-002	-2.79615E-004	0.00000E+000	-1.44290E-005	-1.68088E-001	5.16138E-002	3.57950E+000	9	...........
	81	1.09333	4.94429E-002	-2.78904E-004	0.00000E+000	-1.37898E-005	-1.68088E-001	4.94502E-002	3.57950E+000	9	...........
	82	1.10667	4.73736E-002	-2.78330E-004	0.00000E+000	-1.31855E-005	-1.68088E-001	4.73791E-002	3.57950E+000	9	...........
	83	1.12	4.52465E-002	-2.78845E-004	0.00000E+000	-1.26168E-005	-1.68088E-001	4.52535E-002	3.57950E+000	9	...........
	84	1.13333	4.31881E-002	-2.79328E-004	0.00000E+000	-1.20637E-005	-1.68088E-001	4.31966E-002	3.57950E+000	9	...........
	85	1.14667	4.11282E-002	-2.79143E-004	0.00000E+000	-1.14806E-005	-1.68088E-001	4.11329E-002	3.57950E+000	9	...........
	86	1.16	3.91157E-002	-2.78400E-004	0.00000E+000	-1.08898E-005	-1.68088E-001	3.91222E-002	3.57950E+000	9	...........
	87	1.17333	3.71164E-002	-2.79382E-004	0.00000E+000	-1.03697E-005	-1.68088E-001	3.71229E-002	3.57950E+000	9	...........
	88	1.18667	3.51338E-002	-2.79197E-004	0.00000E+000	-9.80926E-006	-1.68088E-001	3.51369E-002	3.57950E+000	9	...........
	89	1.2	3.31284E-002	-2.78952E-004	0.00000E+000	-9.24123E-006	-1.68088E-001	3.31334E-002	3.57950E+000	9	...........
	90	1.21333	3.11279E-002	-2.79322E-004	0.00000E+000	-8.69471E-006	-1.68088E-001	3.11265E-002	3.57950E+000	9	...........
	91	1.22667	2.92100E-002	-2.78983E-004	0.00000E+000	-8.14911E-006	-1.68088E-001	2.92059E-002	3.57950E+000	9	...........
	92	1.24	2.72561E-002	-2.78326E-004	0.00000E+000	-7.58607E-006	-1.68088E-001	2.72518E-002	3.57950E+000	9	...........
	93	1.25333	2.52760E-002	-2.78361E-004	0.00000E+000	-7.03586E-006	-1.68088E-001	2.52661E-002	3.57950E+000	9	...........
	94	1.26667	2.33652E-002	-2.78964E-004	0.00000E+000	-6.51805E-006	-1.68088E-001	2.33605E-002	3.57950E+000	9	...........
	95	1.28	2.14391E-002	-2.78943E-004	0.00000E+000	-5.98029E-006	-1.68088E-001	2.14295E-002	3.57950E+000	9	...........
	96	1.29333	1.95258E-002	-2.79405E-004	0.00000E+000	-5.45562E-006	-1.68088E-001	1.95198E-002	3.57950E+000	9	...........
	97	1.30667	1.75994E-002	-2.79231E-004	0.00000E+000	-4.91430E-006	-1.68088E-001	1.75880E-002	3.57950E+000	9	...........
	98	1.32	1.57372E-002	-2.79083E-004	0.00000E+000	-4.39200E-006	-1.68088E-001	1.57284E-002	3.57950E+000	9	...........
	99	1.33333	1.38986E-002	-2.78522E-004	0.00000E+000	-3.87106E-006	-1.68088E-001	1.38867E-002	3.57950E+000	9	...........
	100	1.34667	1.20194E-002	-2.78552E-004	0.00000E+000	-3.34803E-006	-1.68088E-001	1.20090E-002	3.57950E+000	9	...........
	101	1.36	1.01818E-002	-2.78672E-004	0.00000E+000	-2.83738E-006	-1.68088E-001	1.01641E-002	3.57950E+000	9	...........
	102	1.37333	8.33572E-003	-2.79650E-004	0.00000E+000	-2.33108E-006	-1.68088E-001	8.31935E-003	3.57950E+000	9	...........
	103	1.38667	6.49218E-003	-2.79229E-004	0.00000E+000	-1.81281E-006	-1.68088E-001	6.47918E-003	3.57950E+000	9	...........
	104	1.4	4.69629E-003	-2.79071E-004	0.00000E+000	-1.31060E-006	-1.68088E-001	4.68060E-003	3.57950E+000	9	...........
	105	1.41333	2.85620E-003	-2.79499E-004	0.00000E+000	-7.98305E-007	-1.68088E-001	2.83685E-003	3.57950E+000	9	...........
	106	1.42667	1.03011E-003	-2.79558E-004	0.00000E+000	-2.87977E-007	-1.68088E-001	1.01247E-003	3.57950E+000	9	...........
	107	1.43	-8.17745E-005	-2.79335E-004	0.00000E+000	2.28425E-008	-1.68088E-001	-9.39972E-005	3.57950E+000	9	...........
STARTTIMEOFFSET	QUANT	434.7468	Start Time Offset (s)
