EXPLAIN
TAG	PWR800_DISCHARGE
TITLE	LABEL	PWR Cyclic Charge Discharge (Cell) - Discharge Step	Test &Identifier
DATE	LABEL	7-7-2017	Date
TIME	LABEL	16:16:17	Time
NOTES	NOTES	3	&Notes...
	supercap test cell
	2.8mg
	6M KOH
PSTAT	PSTAT	IFC5000-01520	Potentiostat
CAPACITY	QUANT	1.00000E-003	Capacity (A-hr)
CELLTYPE	SELECTOR	1	&Cell Type
WORKINGCONNECTION	SELECTOR	0	&Working Lead
MAXDISCHARGETIME	VARIABLEANDUNITS	1.00000E+002	s	1.00000E+002	second(s)	Max &Discharge Time
DISCHARGEMODE	MULTIPARAM	0	2.80000E-004	&Discharge Mode	Constant Current	Amp(s)
SAMPLETIME	QUANT	1.00000E-002	Sa&mple Period (s)
DISCHARGESTOPAT1	MULTIPARAM	3	0.00000E+000	Discharge Stop At &1	Voltage < Limit	V
DISCHARGESTOPAT2	MULTIPARAM	0	0.00000E+000	Discharge Stop At &2	None	N/A
AESBHCSELECTOR	TOGGLE	F	Save Both Half Cells
IRCOMP	TOGGLE	F	IR &Measure
EOC	QUANT	0	Open Circuit (V)
SEQUENCER	TOGGLE	TRUE	Run as Sequence
PSTATMODEL	IQUANT	53	Pstat Model
PSTATSECTION	LABEL	IFC5000-01520	Pstat Section
PSTATSERIALNO	LABEL	01520	Pstat Serial Number
CTRLMODE	IQUANT	0	Control Mode
ELECTROMETER	IQUANT	1	RE=0 or CS=1
IESTAB	IQUANT	0	I/E Stability
CASPEED	IQUANT	4	Control Amp Speed
CONVENTION	IQUANT	1	Current Convention
ICHRANGE	IQUANT	2	Ich Range
ICHRANGEMODE	TOGGLE	T	Ich Auto Range
ICHOFFSETENABLE	TOGGLE	F	Ich Offset Enable
ICHOFFSET	QUANT	0	Ich Offset (V)
ICHFILTER	IQUANT	1	Ich Filter
VCHRANGE	IQUANT	2	Vch Range
VCHRANGEMODE	TOGGLE	T	Vch Auto Range
VCHOFFSETENABLE	TOGGLE	F	Vch Offset Enable
VCHOFFSET	QUANT	0	Vch Offset (V)
VCHFILTER	IQUANT	1	Vch Filter
IERANGELOWERLIMIT	IQUANT	9	I/E Range Lower Limit
IERANGEMODE	TOGGLE	F	I/E AutoRange
IERANGE	IQUANT	9	I/E Range
ACHSELECT	IQUANT	1	Ach Select
ACHRANGE	IQUANT	2	Ach Range
ACHOFFSETENABLE	TOGGLE	F	Ach Offset Enable
ACHOFFSET	QUANT	0	Ach Offset (V)
ACHFILTER	IQUANT	1	Ach Filter
CABLEID	IQUANT	14	Cable ID
DCCALDATE	LABEL	5-7-2017	DC Calibration Date
ACCALDATE	LABEL	12/3/2015	AC Calibration Date
FRAMEWORKVERSION	QUANT	7.01	Framework Version
INSTRUMENTVERSION	LABEL	4.00	Instrument Version
CURVE	TABLE	57
	Pt	T	Vf	Im	Vu	Pwr	Sig	Ach	Temp	IERange	Over
	#	s	V	A	V	W	V	V	deg C	#	bits
	0	0.013333	5.15399E-001	-2.79308E-004	0.00000E+000	-1.43955E-004	-1.68088E-001	5.15671E-001	3.57740E+000	9	...........
	1	0.026667	4.82108E-001	-2.78630E-004	0.00000E+000	-1.34330E-004	-1.68088E-001	4.82300E-001	3.57740E+000	9	...........
	2	0.04	4.51599E-001	-2.78542E-004	0.00000E+000	-1.25789E-004	-1.68088E-001	4.51709E-001	3.57740E+000	9	...........
	3	0.053333	4.23141E-001	-2.78683E-004	0.00000E+000	-1.17922E-004	-1.68088E-001	4.23244E-001	3.57740E+000	9	...........
	4	0.066667	3.96615E-001	-2.79006E-004	0.00000E+000	-1.10658E-004	-1.68088E-001	3.96702E-001	3.57740E+000	9	...........
	5	0.08	3.71865E-001	-2.77783E-004	0.00000E+000	-1.03298E-004	-1.68088E-001	3.71946E-001	3.57740E+000	9	...........
	6	0.093333	3.48770E-001	-2.80507E-004	0.00000E+000	-9.78323E-005	-1.68088E-001	3.48850E-001	3.57740E+000	9	...........
	7	0.106667	3.27259E-001	-2.79454E-004	0.00000E+000	-9.14540E-005	-1.68088E-001	3.27330E-001	3.57740E+000	9	...........
	8	0.12	3.07253E-001	-2.78732E-004	0.00000E+000	-8.56414E-005	-1.68088E-001	3.07324E-001	3.57740E+000	9	...........
	9	0.133333	2.88653E-001	-2.79263E-004	0.00000E+000	-8.06101E-005	-1.68088E-001	2.88721E-001	3.57740E+000	9	...........
	10	0.146667	2.71392E-001	-2.78613E-004	0.00000E+000	-7.56133E-005	-1.68088E-001	2.71453E-001	3.57740E+000	9	...........
	11	0.16	2.55325E-001	-2.78995E-004	0.00000E+000	-7.12342E-005	-1.68088E-001	2.55381E-001	3.57740E+000	9	...........
	12	0.173333	2.40406E-001	-2.79300E-004	0.00000E+000	-6.71455E-005	-1.68088E-001	2.40458E-001	3.57740E+000	9	...........
	13	0.186667	2.26600E-001	-2.78190E-004	0.00000E+000	-6.30378E-005	-1.68088E-001	2.26646E-001	3.57740E+000	9	...........
	14	0.2	2.13758E-001	-2.79900E-004	0.00000E+000	-5.98310E-005	-1.68088E-001	2.13800E-001	3.57740E+000	9	...........
	15	0.213333	2.01812E-001	-2.80758E-004	0.00000E+000	-5.66601E-005	-1.68088E-001	2.01858E-001	3.57740E+000	9	...........
	16	0.226667	1.90702E-001	-2.79481E-004	0.00000E+000	-5.32975E-005	-1.68088E-001	1.90743E-001	3.57740E+000	9	...........
	17	0.24	1.80356E-001	-2.79426E-004	0.00000E+000	-5.03962E-005	-1.68088E-001	1.80398E-001	3.57740E+000	9	...........
	18	0.253333	1.70699E-001	-2.79465E-004	0.00000E+000	-4.77045E-005	-1.68088E-001	1.70740E-001	3.57740E+000	9	...........
	19	0.266667	1.61648E-001	-2.78237E-004	0.00000E+000	-4.49765E-005	-1.68088E-001	1.61687E-001	3.57740E+000	9	...........
	20	0.28	1.53154E-001	-2.79538E-004	0.00000E+000	-4.28122E-005	-1.68088E-001	1.53185E-001	3.57740E+000	9	...........
	21	0.293333	1.45201E-001	-2.79139E-004	0.00000E+000	-4.05311E-005	-1.68088E-001	1.45236E-001	3.57740E+000	9	...........
	22	0.306667	1.37694E-001	-2.78922E-004	0.00000E+000	-3.84060E-005	-1.68088E-001	1.37724E-001	3.57740E+000	9	...........
	23	0.32	1.30557E-001	-2.78996E-004	0.00000E+000	-3.64249E-005	-1.68088E-001	1.30583E-001	3.57740E+000	9	...........
	24	0.333333	1.23841E-001	-2.78613E-004	0.00000E+000	-3.45037E-005	-1.68088E-001	1.23867E-001	3.57740E+000	9	...........
	25	0.346667	1.17496E-001	-2.79084E-004	0.00000E+000	-3.27913E-005	-1.68088E-001	1.17526E-001	3.57740E+000	9	...........
	26	0.36	1.11402E-001	-2.79426E-004	0.00000E+000	-3.11286E-005	-1.68088E-001	1.11428E-001	3.57740E+000	9	...........
	27	0.373333	1.05604E-001	-2.78379E-004	0.00000E+000	-2.93979E-005	-1.68088E-001	1.05632E-001	3.57740E+000	9	...........
	28	0.386667	1.00078E-001	-2.79940E-004	0.00000E+000	-2.80159E-005	-1.68088E-001	1.00104E-001	3.57740E+000	9	...........
	29	0.4	9.48037E-002	-2.79179E-004	0.00000E+000	-2.64672E-005	-1.68088E-001	9.48297E-002	3.57740E+000	9	...........
	30	0.413333	8.97408E-002	-2.78760E-004	0.00000E+000	-2.50162E-005	-1.68088E-001	8.97665E-002	3.57740E+000	9	...........
	31	0.426667	8.48660E-002	-2.78974E-004	0.00000E+000	-2.36754E-005	-1.68088E-001	8.48903E-002	3.57740E+000	9	...........
	32	0.44	8.02089E-002	-2.78577E-004	0.00000E+000	-2.23443E-005	-1.68088E-001	8.02343E-002	3.57740E+000	9	...........
	33	0.453333	7.57516E-002	-2.78654E-004	0.00000E+000	-2.11085E-005	-1.68088E-001	7.57752E-002	3.57740E+000	9	...........
	34	0.466667	7.13888E-002	-2.79996E-004	0.00000E+000	-1.99886E-005	-1.68088E-001	7.14022E-002	3.57740E+000	9	...........
	35	0.48	6.71552E-002	-2.79120E-004	0.00000E+000	-1.87443E-005	-1.68088E-001	6.71657E-002	3.57740E+000	9	...........
	36	0.493333	6.30921E-002	-2.78639E-004	0.00000E+000	-1.75799E-005	-1.68088E-001	6.31005E-002	3.57740E+000	9	...........
	37	0.506667	5.91259E-002	-2.79740E-004	0.00000E+000	-1.65399E-005	-1.68088E-001	5.91325E-002	3.57740E+000	9	...........
	38	0.52	5.52831E-002	-2.78211E-004	0.00000E+000	-1.53804E-005	-1.68088E-001	5.52930E-002	3.57740E+000	9	...........
	39	0.533333	5.15507E-002	-2.78967E-004	0.00000E+000	-1.43809E-005	-1.68088E-001	5.15625E-002	3.57740E+000	9	...........
	40	0.546667	4.79518E-002	-2.79340E-004	0.00000E+000	-1.33948E-005	-1.68088E-001	4.79571E-002	3.57740E+000	9	...........
	41	0.56	4.44227E-002	-2.78649E-004	0.00000E+000	-1.23783E-005	-1.68088E-001	4.44322E-002	3.57740E+000	9	...........
	42	0.573333	4.09672E-002	-2.79614E-004	0.00000E+000	-1.14550E-005	-1.68088E-001	4.09784E-002	3.57740E+000	9	...........
	43	0.586667	3.75816E-002	-2.79319E-004	0.00000E+000	-1.04973E-005	-1.68088E-001	3.75858E-002	3.57740E+000	9	...........
	44	0.6	3.42567E-002	-2.76893E-004	0.00000E+000	-9.48546E-006	-1.68088E-001	3.42617E-002	3.57740E+000	9	...........
	45	0.613333	3.10478E-002	-2.79579E-004	0.00000E+000	-8.68032E-006	-1.68088E-001	3.10453E-002	3.57740E+000	9	...........
	46	0.626667	2.78625E-002	-2.78121E-004	0.00000E+000	-7.74915E-006	-1.68088E-001	2.78604E-002	3.57740E+000	9	...........
	47	0.64	2.47358E-002	-2.77841E-004	0.00000E+000	-6.87263E-006	-1.68088E-001	2.47308E-002	3.57740E+000	9	...........
	48	0.653333	2.16307E-002	-2.79979E-004	0.00000E+000	-6.05616E-006	-1.68088E-001	2.16251E-002	3.57740E+000	9	...........
	49	0.666667	1.86247E-002	-2.77477E-004	0.00000E+000	-5.16792E-006	-1.68088E-001	1.86180E-002	3.57740E+000	9	...........
	50	0.68	1.56556E-002	-2.79817E-004	0.00000E+000	-4.38070E-006	-1.68088E-001	1.56440E-002	3.57740E+000	9	...........
	51	0.693333	1.27267E-002	-2.78886E-004	0.00000E+000	-3.54930E-006	-1.68088E-001	1.27173E-002	3.57740E+000	9	...........
	52	0.706667	9.84435E-003	-2.81005E-004	0.00000E+000	-2.76631E-006	-1.68088E-001	9.83306E-003	3.57740E+000	9	...........
	53	0.72	7.04701E-003	-2.79520E-004	0.00000E+000	-1.96978E-006	-1.68088E-001	7.03765E-003	3.57740E+000	9	...........
	54	0.733333	4.30191E-003	-2.79803E-004	0.00000E+000	-1.20369E-006	-1.68088E-001	4.28545E-003	3.57740E+000	9	...........
	55	0.746667	1.59181E-003	-2.79123E-004	0.00000E+000	-4.44310E-007	-1.68088E-001	1.57198E-003	3.57845E+000	9	...........
	56	0.75	-1.21018E-004	-2.81944E-004	0.00000E+000	3.41203E-008	-1.68088E-001	-1.43602E-004	3.57880E+000	9	...........
STARTTIMEOFFSET	QUANT	1776.108	Start Time Offset (s)
