EXPLAIN
TAG	PWR800_DISCHARGE
TITLE	LABEL	PWR Cyclic Charge Discharge (Cell) - Discharge Step	Test &Identifier
DATE	LABEL	7-7-2017	Date
TIME	LABEL	16:13:03	Time
NOTES	NOTES	3	&Notes...
	supercap test cell
	2.8mg
	6M KOH
PSTAT	PSTAT	IFC5000-01520	Potentiostat
CAPACITY	QUANT	1.00000E-003	Capacity (A-hr)
CELLTYPE	SELECTOR	1	&Cell Type
WORKINGCONNECTION	SELECTOR	0	&Working Lead
MAXDISCHARGETIME	VARIABLEANDUNITS	1.00000E+002	s	1.00000E+002	second(s)	Max &Discharge Time
DISCHARGEMODE	MULTIPARAM	0	2.80000E-004	&Discharge Mode	Constant Current	Amp(s)
SAMPLETIME	QUANT	1.00000E-002	Sa&mple Period (s)
DISCHARGESTOPAT1	MULTIPARAM	3	0.00000E+000	Discharge Stop At &1	Voltage < Limit	V
DISCHARGESTOPAT2	MULTIPARAM	0	0.00000E+000	Discharge Stop At &2	None	N/A
AESBHCSELECTOR	TOGGLE	F	Save Both Half Cells
IRCOMP	TOGGLE	F	IR &Measure
EOC	QUANT	0	Open Circuit (V)
SEQUENCER	TOGGLE	TRUE	Run as Sequence
PSTATMODEL	IQUANT	53	Pstat Model
PSTATSECTION	LABEL	IFC5000-01520	Pstat Section
PSTATSERIALNO	LABEL	01520	Pstat Serial Number
CTRLMODE	IQUANT	0	Control Mode
ELECTROMETER	IQUANT	1	RE=0 or CS=1
IESTAB	IQUANT	0	I/E Stability
CASPEED	IQUANT	4	Control Amp Speed
CONVENTION	IQUANT	1	Current Convention
ICHRANGE	IQUANT	2	Ich Range
ICHRANGEMODE	TOGGLE	T	Ich Auto Range
ICHOFFSETENABLE	TOGGLE	F	Ich Offset Enable
ICHOFFSET	QUANT	0	Ich Offset (V)
ICHFILTER	IQUANT	1	Ich Filter
VCHRANGE	IQUANT	2	Vch Range
VCHRANGEMODE	TOGGLE	T	Vch Auto Range
VCHOFFSETENABLE	TOGGLE	F	Vch Offset Enable
VCHOFFSET	QUANT	0	Vch Offset (V)
VCHFILTER	IQUANT	1	Vch Filter
IERANGELOWERLIMIT	IQUANT	9	I/E Range Lower Limit
IERANGEMODE	TOGGLE	F	I/E AutoRange
IERANGE	IQUANT	9	I/E Range
ACHSELECT	IQUANT	1	Ach Select
ACHRANGE	IQUANT	2	Ach Range
ACHOFFSETENABLE	TOGGLE	F	Ach Offset Enable
ACHOFFSET	QUANT	0	Ach Offset (V)
ACHFILTER	IQUANT	1	Ach Filter
CABLEID	IQUANT	14	Cable ID
DCCALDATE	LABEL	5-7-2017	DC Calibration Date
ACCALDATE	LABEL	12/3/2015	AC Calibration Date
FRAMEWORKVERSION	QUANT	7.01	Framework Version
INSTRUMENTVERSION	LABEL	4.00	Instrument Version
CURVE	TABLE	59
	Pt	T	Vf	Im	Vu	Pwr	Sig	Ach	Temp	IERange	Over
	#	s	V	A	V	W	V	V	deg C	#	bits
	0	0.013333	5.23407E-001	-2.78479E-004	0.00000E+000	-1.45758E-004	-1.68088E-001	5.23620E-001	3.57730E+000	9	...........
	1	0.026667	4.90157E-001	-2.80363E-004	0.00000E+000	-1.37422E-004	-1.68088E-001	4.90329E-001	3.57730E+000	9	...........
	2	0.04	4.59852E-001	-2.78702E-004	0.00000E+000	-1.28162E-004	-1.68088E-001	4.59950E-001	3.57730E+000	9	...........
	3	0.053333	4.31461E-001	-2.79325E-004	0.00000E+000	-1.20518E-004	-1.68088E-001	4.31566E-001	3.57730E+000	9	...........
	4	0.066667	4.04972E-001	-2.79145E-004	0.00000E+000	-1.13046E-004	-1.68088E-001	4.05070E-001	3.57730E+000	9	...........
	5	0.08	3.80245E-001	-2.79803E-004	0.00000E+000	-1.06394E-004	-1.68088E-001	3.80330E-001	3.57730E+000	9	...........
	6	0.093333	3.57131E-001	-2.79298E-004	0.00000E+000	-9.97459E-005	-1.68088E-001	3.57219E-001	3.57730E+000	9	...........
	7	0.106667	3.35585E-001	-2.79679E-004	0.00000E+000	-9.38563E-005	-1.68088E-001	3.35669E-001	3.57730E+000	9	...........
	8	0.12	3.15496E-001	-2.78687E-004	0.00000E+000	-8.79248E-005	-1.68088E-001	3.15571E-001	3.57730E+000	9	...........
	9	0.133333	2.96814E-001	-2.79080E-004	0.00000E+000	-8.28349E-005	-1.68088E-001	2.96890E-001	3.57730E+000	9	...........
	10	0.146667	2.79466E-001	-2.78436E-004	0.00000E+000	-7.78136E-005	-1.68088E-001	2.79542E-001	3.57730E+000	9	...........
	11	0.16	2.63358E-001	-2.78810E-004	0.00000E+000	-7.34270E-005	-1.68088E-001	2.63424E-001	3.57730E+000	9	...........
	12	0.173333	2.48416E-001	-2.79906E-004	0.00000E+000	-6.95334E-005	-1.68088E-001	2.48476E-001	3.57730E+000	9	...........
	13	0.186667	2.34561E-001	-2.80245E-004	0.00000E+000	-6.57346E-005	-1.68088E-001	2.34621E-001	3.57730E+000	9	...........
	14	0.2	2.21631E-001	-2.78103E-004	0.00000E+000	-6.16364E-005	-1.68088E-001	2.21685E-001	3.57730E+000	9	...........
	15	0.213333	2.09623E-001	-2.78361E-004	0.00000E+000	-5.83509E-005	-1.68088E-001	2.09672E-001	3.57730E+000	9	...........
	16	0.226667	1.98468E-001	-2.80581E-004	0.00000E+000	-5.56861E-005	-1.68088E-001	1.98519E-001	3.57730E+000	9	...........
	17	0.24	1.88060E-001	-2.79104E-004	0.00000E+000	-5.24883E-005	-1.68088E-001	1.88106E-001	3.57730E+000	9	...........
	18	0.253333	1.78322E-001	-2.79253E-004	0.00000E+000	-4.97969E-005	-1.68088E-001	1.78366E-001	3.57730E+000	9	...........
	19	0.266667	1.69256E-001	-2.78432E-004	0.00000E+000	-4.71264E-005	-1.68088E-001	1.69301E-001	3.57730E+000	9	...........
	20	0.28	1.60771E-001	-2.79102E-004	0.00000E+000	-4.48716E-005	-1.68088E-001	1.60808E-001	3.57730E+000	9	...........
	21	0.293333	1.52786E-001	-2.79668E-004	0.00000E+000	-4.27294E-005	-1.68088E-001	1.52824E-001	3.57730E+000	9	...........
	22	0.306667	1.45240E-001	-2.78245E-004	0.00000E+000	-4.04124E-005	-1.68088E-001	1.45277E-001	3.57730E+000	9	...........
	23	0.32	1.38091E-001	-2.79270E-004	0.00000E+000	-3.85647E-005	-1.68088E-001	1.38130E-001	3.57730E+000	9	...........
	24	0.333333	1.31387E-001	-2.79771E-004	0.00000E+000	-3.67582E-005	-1.68088E-001	1.31416E-001	3.57730E+000	9	...........
	25	0.346667	1.25018E-001	-2.78893E-004	0.00000E+000	-3.48666E-005	-1.68088E-001	1.25053E-001	3.57730E+000	9	...........
	26	0.36	1.18938E-001	-2.78298E-004	0.00000E+000	-3.31003E-005	-1.68088E-001	1.18967E-001	3.57730E+000	9	...........
	27	0.373333	1.13122E-001	-2.79720E-004	0.00000E+000	-3.16426E-005	-1.68088E-001	1.13150E-001	3.57730E+000	9	...........
	28	0.386667	1.07627E-001	-2.79250E-004	0.00000E+000	-3.00548E-005	-1.68088E-001	1.07653E-001	3.57730E+000	9	...........
	29	0.4	1.02378E-001	-2.79047E-004	0.00000E+000	-2.85682E-005	-1.68088E-001	1.02401E-001	3.57730E+000	9	...........
	30	0.413333	9.73080E-002	-2.78953E-004	0.00000E+000	-2.71444E-005	-1.68088E-001	9.73348E-002	3.57730E+000	9	...........
	31	0.426667	9.24594E-002	-2.78082E-004	0.00000E+000	-2.57113E-005	-1.68088E-001	9.24875E-002	3.57730E+000	9	...........
	32	0.44	8.77612E-002	-2.79348E-004	0.00000E+000	-2.45159E-005	-1.68088E-001	8.77819E-002	3.57730E+000	9	...........
	33	0.453333	8.32143E-002	-2.80071E-004	0.00000E+000	-2.33059E-005	-1.68088E-001	8.32340E-002	3.57730E+000	9	...........
	34	0.466667	7.88342E-002	-2.78408E-004	0.00000E+000	-2.19481E-005	-1.68088E-001	7.88478E-002	3.57730E+000	9	...........
	35	0.48	7.45938E-002	-2.77982E-004	0.00000E+000	-2.07357E-005	-1.68088E-001	7.46108E-002	3.57730E+000	9	...........
	36	0.493333	7.04862E-002	-2.79019E-004	0.00000E+000	-1.96670E-005	-1.68088E-001	7.04952E-002	3.57730E+000	9	...........
	37	0.506667	6.65023E-002	-2.78579E-004	0.00000E+000	-1.85261E-005	-1.68088E-001	6.65155E-002	3.57730E+000	9	...........
	38	0.52	6.26437E-002	-2.79163E-004	0.00000E+000	-1.74878E-005	-1.68088E-001	6.26541E-002	3.57730E+000	9	...........
	39	0.533333	5.88786E-002	-2.76320E-004	0.00000E+000	-1.62694E-005	-1.68088E-001	5.88915E-002	3.57730E+000	9	...........
	40	0.546667	5.51905E-002	-2.78887E-004	0.00000E+000	-1.53919E-005	-1.68088E-001	5.52029E-002	3.57730E+000	9	...........
	41	0.56	5.16101E-002	-2.78917E-004	0.00000E+000	-1.43949E-005	-1.68088E-001	5.16150E-002	3.57730E+000	9	...........
	42	0.573333	4.81944E-002	-2.79272E-004	0.00000E+000	-1.34593E-005	-1.68088E-001	4.81989E-002	3.57730E+000	9	...........
	43	0.586667	4.48114E-002	-2.79408E-004	0.00000E+000	-1.25207E-005	-1.68088E-001	4.48194E-002	3.57730E+000	9	...........
	44	0.6	4.14658E-002	-2.77441E-004	0.00000E+000	-1.15043E-005	-1.68088E-001	4.14773E-002	3.57730E+000	9	...........
	45	0.613333	3.82000E-002	-2.78161E-004	0.00000E+000	-1.06258E-005	-1.68088E-001	3.82063E-002	3.57730E+000	9	...........
	46	0.626667	3.49761E-002	-2.78669E-004	0.00000E+000	-9.74674E-006	-1.68088E-001	3.49809E-002	3.57730E+000	9	...........
	47	0.64	3.18255E-002	-2.78961E-004	0.00000E+000	-8.87808E-006	-1.68088E-001	3.18284E-002	3.57730E+000	9	...........
	48	0.653333	2.87571E-002	-2.78334E-004	0.00000E+000	-8.00407E-006	-1.68088E-001	2.87602E-002	3.57730E+000	9	...........
	49	0.666667	2.57491E-002	-2.80039E-004	0.00000E+000	-7.21075E-006	-1.68088E-001	2.57451E-002	3.57730E+000	9	...........
	50	0.68	2.27979E-002	-2.79005E-004	0.00000E+000	-6.36073E-006	-1.68088E-001	2.27863E-002	3.57730E+000	9	...........
	51	0.693333	1.99110E-002	-2.78703E-004	0.00000E+000	-5.54925E-006	-1.68088E-001	1.99096E-002	3.57730E+000	9	...........
	52	0.706667	1.70676E-002	-2.77279E-004	0.00000E+000	-4.73247E-006	-1.68088E-001	1.70622E-002	3.57730E+000	9	...........
	53	0.72	1.42324E-002	-2.77703E-004	0.00000E+000	-3.95237E-006	-1.68088E-001	1.42256E-002	3.57730E+000	9	...........
	54	0.733333	1.14405E-002	-2.79370E-004	0.00000E+000	-3.19612E-006	-1.68088E-001	1.14301E-002	3.57730E+000	9	...........
	55	0.746667	8.69801E-003	-2.78194E-004	0.00000E+000	-2.41973E-006	-1.68088E-001	8.68928E-003	3.57730E+000	9	...........
	56	0.76	5.98608E-003	-2.78908E-004	0.00000E+000	-1.66957E-006	-1.68088E-001	5.97507E-003	3.57730E+000	9	...........
	57	0.773333	3.35991E-003	-2.80501E-004	0.00000E+000	-9.42458E-007	-1.68088E-001	3.34448E-003	3.57730E+000	9	...........
	58	0.785	8.76632E-004	-2.78239E-004	0.00000E+000	-2.43914E-007	-1.68088E-001	8.57832E-004	3.57730E+000	9	...........
STARTTIMEOFFSET	QUANT	1646.349	Start Time Offset (s)
