Time	Voltage	Current
0.0133330000000000	0.487777000000000	0.00599520000000000
0.0266670000000000	0.495278000000000	0.00599974000000000
0.0400000000000000	0.502110000000000	0.00599016000000000
0.0533330000000000	0.508528000000000	0.00598856000000000
0.0666670000000000	0.514708000000000	0.00599528000000000
0.0800000000000000	0.520675000000000	0.00599312000000000
0.0933330000000000	0.526530000000000	0.00599308000000000
0.106667000000000	0.532083000000000	0.00599396000000000
0.120000000000000	0.537337000000000	0.00599636000000000
0.133333000000000	0.542903000000000	0.00599378000000000
0.146667000000000	0.548358000000000	0.00599382000000000
0.160000000000000	0.553770000000000	0.00598952000000000
0.173333000000000	0.559058000000000	0.00599659000000000
0.186667000000000	0.564370000000000	0.00599244000000000
0.200000000000000	0.569619000000000	0.00599375000000000
0.213333000000000	0.574848000000000	0.00599495000000000
0.226667000000000	0.580010000000000	0.00599418000000000
0.240000000000000	0.585144000000000	0.00599355000000000
0.253333000000000	0.590279000000000	0.00599555000000000
0.266667000000000	0.595351000000000	0.00599554000000000
0.280000000000000	0.600395000000000	0.00599475000000000
0.293333000000000	0.605436000000000	0.00599385000000000
0.306667000000000	0.610420000000000	0.00599583000000000
0.320000000000000	0.615483000000000	0.00599201000000000
0.333333000000000	0.620444000000000	0.00599377000000000
0.346667000000000	0.625374000000000	0.00599123000000000
0.360000000000000	0.630310000000000	0.00599362000000000
0.373333000000000	0.635227000000000	0.00599878000000000
0.386667000000000	0.640163000000000	0.00599512000000000
0.400000000000000	0.645075000000000	0.00599591000000000
0.413333000000000	0.649901000000000	0.00599254000000000
0.426667000000000	0.654776000000000	0.00599361000000000
0.440000000000000	0.659594000000000	0.00599261000000000
0.453333000000000	0.664472000000000	0.00599866000000000
0.466667000000000	0.669325000000000	0.00599408000000000
0.480000000000000	0.674143000000000	0.00599387000000000
0.493333000000000	0.678974000000000	0.00599215000000000
0.506667000000000	0.683770000000000	0.00599289000000000
0.520000000000000	0.688593000000000	0.00599413000000000
0.533333000000000	0.693434000000000	0.00599538000000000
0.546667000000000	0.698184000000000	0.00599325000000000
0.560000000000000	0.702998000000000	0.00599367000000000
0.573333000000000	0.707736000000000	0.00599664000000000
0.586667000000000	0.712510000000000	0.00599350000000000
0.600000000000000	0.717316000000000	0.00599812000000000
0.613333000000000	0.722076000000000	0.00599515000000000
0.626667000000000	0.726858000000000	0.00598954000000000
0.640000000000000	0.731598000000000	0.00599068000000000
0.653333000000000	0.736380000000000	0.00599340000000000
0.666667000000000	0.741187000000000	0.00599688000000000
0.680000000000000	0.745990000000000	0.00599756000000000
0.693333000000000	0.750802000000000	0.00599675000000000
0.706667000000000	0.755551000000000	0.00599732000000000
0.720000000000000	0.760284000000000	0.00599345000000000
0.733333000000000	0.765032000000000	0.00599279000000000
0.746667000000000	0.769791000000000	0.00599635000000000
0.760000000000000	0.774574000000000	0.00599360000000000
0.773333000000000	0.779375000000000	0.00599368000000000
0.786667000000000	0.784174000000000	0.00600006000000000
0.800000000000000	0.788900000000000	0.00599409000000000
0.813333000000000	0.793730000000000	0.00599697000000000
0.826667000000000	0.798501000000000	0.00599506000000000
0.840000000000000	0.803272000000000	0.00599156000000000
0.853333000000000	0.808017000000000	0.00599670000000000
0.866667000000000	0.812795000000000	0.00599657000000000
0.880000000000000	0.817545000000000	0.00599546000000000
0.893333000000000	0.822337000000000	0.00599686000000000
0.906667000000000	0.827149000000000	0.00599504000000000
0.920000000000000	0.831878000000000	0.00599066000000000
0.933333000000000	0.836654000000000	0.00599265000000000
0.946667000000000	0.841438000000000	0.00599043000000000
0.960000000000000	0.846273000000000	0.00599547000000000
0.973330000000000	0.851019000000000	0.00598930000000000
0.986670000000000	0.855778000000000	0.00599565000000000
1	0.860576000000000	0.00599326000000000
1.01333000000000	0.865327000000000	0.00599052000000000
1.02667000000000	0.870158000000000	0.00599303000000000
1.04000000000000	0.874924000000000	0.00599675000000000
1.05333000000000	0.879673000000000	0.00599984000000000
1.06667000000000	0.884454000000000	0.00599222000000000
1.08000000000000	0.889211000000000	0.00599362000000000
1.09333000000000	0.893940000000000	0.00599421000000000
1.10667000000000	0.898749000000000	0.00599552000000000
1.12000000000000	0.903517000000000	0.00599053000000000
1.13333000000000	0.908241000000000	0.00599377000000000
1.14667000000000	0.913012000000000	0.00599024000000000
1.16000000000000	0.917750000000000	0.00599246000000000
1.17333000000000	0.922569000000000	0.00599344000000000
1.18667000000000	0.927321000000000	0.00599916000000000
1.20000000000000	0.932071000000000	0.00599298000000000
1.21333000000000	0.936747000000000	0.00599455000000000
1.22667000000000	0.941510000000000	0.00599588000000000
1.24000000000000	0.946230000000000	0.00599960000000000
1.25333000000000	0.950902000000000	0.00598890000000000
1.26667000000000	0.955570000000000	0.00599044000000000
1.28000000000000	0.960234000000000	0.00599003000000000
1.29333000000000	0.964890000000000	0.00599672000000000
1.30667000000000	0.969531000000000	0.00599471000000000
1.32000000000000	0.974234000000000	0.00599377000000000
1.33333000000000	0.978872000000000	0.00599385000000000
1.34667000000000	0.983478000000000	0.00599251000000000
1.36000000000000	0.988061000000000	0.00599092000000000
1.37333000000000	0.992612000000000	0.00599399000000000
1.38667000000000	0.997175000000000	0.00599087000000000
1.39000000000000	0.999989000000000	0.00599216000000000
1.40333300000000	0.455924000000000	-0.00600880000000000
1.41666700000000	0.446464000000000	-0.00601447000000000
1.43000000000000	0.437651000000000	-0.00602036000000000
1.44333300000000	0.429317000000000	-0.00601691000000000
1.45666700000000	0.421300000000000	-0.00601440000000000
1.47000000000000	0.413588000000000	-0.00601098000000000
1.48333300000000	0.406022000000000	-0.00601091000000000
1.49666700000000	0.398613000000000	-0.00601517000000000
1.51000000000000	0.391352000000000	-0.00602093000000000
1.52333300000000	0.384255000000000	-0.00601517000000000
1.53666700000000	0.377222000000000	-0.00601842000000000
1.55000000000000	0.370323000000000	-0.00601240000000000
1.56333300000000	0.363507000000000	-0.00601781000000000
1.57666700000000	0.356768000000000	-0.00601907000000000
1.59000000000000	0.350093000000000	-0.00601939000000000
1.60333300000000	0.343468000000000	-0.00601855000000000
1.61666700000000	0.336945000000000	-0.00601590000000000
1.63000000000000	0.330473000000000	-0.00601774000000000
1.64333300000000	0.324109000000000	-0.00600878000000000
1.65666700000000	0.317762000000000	-0.00601480000000000
1.67000000000000	0.311503000000000	-0.00601713000000000
1.68333300000000	0.305292000000000	-0.00601221000000000
1.69666700000000	0.299087000000000	-0.00601638000000000
1.71000000000000	0.292952000000000	-0.00601483000000000
1.72333300000000	0.286864000000000	-0.00601585000000000
1.73666700000000	0.280819000000000	-0.00601707000000000
1.75000000000000	0.274830000000000	-0.00601328000000000
1.76333300000000	0.268888000000000	-0.00601543000000000
1.77666700000000	0.263003000000000	-0.00602038000000000
1.79000000000000	0.257148000000000	-0.00601492000000000
1.80333300000000	0.251333000000000	-0.00601805000000000
1.81666700000000	0.245607000000000	-0.00601521000000000
1.83000000000000	0.239866000000000	-0.00601143000000000
1.84333300000000	0.234143000000000	-0.00601668000000000
1.85666700000000	0.228479000000000	-0.00601251000000000
1.87000000000000	0.222860000000000	-0.00601588000000000
1.88333300000000	0.217273000000000	-0.00601607000000000
1.89666700000000	0.211718000000000	-0.00601513000000000
1.91000000000000	0.206188000000000	-0.00601676000000000
1.92333300000000	0.200661000000000	-0.00601120000000000
1.93666700000000	0.195249000000000	-0.00601339000000000
1.95000000000000	0.189805000000000	-0.00601543000000000
1.96333300000000	0.184421000000000	-0.00601977000000000
1.97666700000000	0.179080000000000	-0.00601661000000000
1.99000000000000	0.173729000000000	-0.00601435000000000
2.00333300000000	0.168419000000000	-0.00601758000000000
2.01666700000000	0.163144000000000	-0.00601435000000000
2.03000000000000	0.157932000000000	-0.00601542000000000
2.04333300000000	0.152720000000000	-0.00601566000000000
2.05666700000000	0.147512000000000	-0.00601501000000000
2.07000000000000	0.142333000000000	-0.00601488000000000
2.08333300000000	0.137186000000000	-0.00601526000000000
2.09666700000000	0.132122000000000	-0.00601761000000000
2.11000000000000	0.127031000000000	-0.00601345000000000
2.12333300000000	0.121970000000000	-0.00601582000000000
2.13666700000000	0.116924000000000	-0.00601604000000000
2.15000000000000	0.111910000000000	-0.00601151000000000
2.16333300000000	0.106908000000000	-0.00601498000000000
2.17666700000000	0.101927000000000	-0.00601571000000000
2.19000000000000	0.0970237000000000	-0.00601364000000000
2.20333300000000	0.0921064000000000	-0.00601285000000000
2.21666700000000	0.0872106000000000	-0.00601542000000000
2.23000000000000	0.0823428000000000	-0.00601612000000000
2.24333300000000	0.0774886000000000	-0.00601613000000000
2.25666700000000	0.0726553000000000	-0.00601594000000000
2.27000000000000	0.0678615000000000	-0.00601675000000000
2.28333300000000	0.0630831000000000	-0.00601708000000000
2.29666700000000	0.0583215000000000	-0.00601302000000000
2.31000000000000	0.0535447000000000	-0.00601438000000000
2.32333300000000	0.0488508000000000	-0.00601791000000000
2.33666700000000	0.0441691000000000	-0.00601726000000000
2.35000000000000	0.0394631000000000	-0.00601805000000000
2.36333000000000	0.0347643000000000	-0.00601453000000000
2.37667000000000	0.0301087000000000	-0.00601434000000000
2.39000000000000	0.0254735000000000	-0.00601758000000000
2.40333000000000	0.0208736000000000	-0.00601497000000000
2.41667000000000	0.0162703000000000	-0.00601262000000000
2.43000000000000	0.0116868000000000	-0.00601367000000000
2.44333000000000	0.00712252000000000	-0.00601682000000000
2.45667000000000	0.00256466000000000	-0.00601810000000000
2.45833000000000	-5.82251000000000e-07	-0.00602046000000000
2.47166600000000	0.558112000000000	0.00599261000000000
2.48500000000000	0.565698000000000	0.00599346000000000
2.49833300000000	0.572612000000000	0.00599389000000000
2.51166600000000	0.579171000000000	0.00599594000000000
2.52500000000000	0.585416000000000	0.00599595000000000
2.53833300000000	0.591532000000000	0.00599426000000000
2.55166600000000	0.597480000000000	0.00599282000000000
2.56500000000000	0.603279000000000	0.00599506000000000
2.57833300000000	0.609001000000000	0.00599589000000000
2.59166600000000	0.614692000000000	0.00599616000000000
2.60500000000000	0.620295000000000	0.00599440000000000
2.61833300000000	0.625894000000000	0.00599365000000000
2.63166600000000	0.631394000000000	0.00599375000000000
2.64500000000000	0.636858000000000	0.00599601000000000
2.65833300000000	0.642268000000000	0.00598761000000000
2.67166600000000	0.647661000000000	0.00599328000000000
2.68500000000000	0.653082000000000	0.00599095000000000
2.69833300000000	0.658440000000000	0.00599547000000000
2.71166600000000	0.663792000000000	0.00598959000000000
2.72500000000000	0.669112000000000	0.00599365000000000
2.73833300000000	0.674399000000000	0.00599198000000000
2.75166600000000	0.679682000000000	0.00599390000000000
2.76500000000000	0.684914000000000	0.00599228000000000
2.77833300000000	0.690179000000000	0.00599295000000000
2.79166600000000	0.695489000000000	0.00599455000000000
2.80500000000000	0.700708000000000	0.00599422000000000
2.81833300000000	0.705923000000000	0.00599417000000000
2.83166600000000	0.711141000000000	0.00599448000000000
2.84500000000000	0.716370000000000	0.00599379000000000
2.85833300000000	0.721640000000000	0.00599750000000000
2.87166600000000	0.726825000000000	0.00599350000000000
2.88500000000000	0.732044000000000	0.00599127000000000
2.89833300000000	0.737259000000000	0.00599256000000000
2.91166600000000	0.742491000000000	0.00599652000000000
2.92500000000000	0.747707000000000	0.00599475000000000
2.93833300000000	0.752908000000000	0.00599426000000000
2.95166600000000	0.758120000000000	0.00599401000000000
2.96500000000000	0.763324000000000	0.00598995000000000
2.97833300000000	0.768521000000000	0.00599214000000000
2.99166600000000	0.773702000000000	0.00599178000000000
3.00500000000000	0.778911000000000	0.00599184000000000
3.01833300000000	0.784105000000000	0.00599413000000000
3.03166600000000	0.789312000000000	0.00599214000000000
3.04500000000000	0.794558000000000	0.00599381000000000
3.05833300000000	0.799792000000000	0.00599484000000000
3.07166600000000	0.804986000000000	0.00599351000000000
3.08500000000000	0.810186000000000	0.00599894000000000
3.09833300000000	0.815369000000000	0.00599470000000000
3.11166600000000	0.820628000000000	0.00599350000000000
3.12500000000000	0.825821000000000	0.00599231000000000
3.13833300000000	0.831014000000000	0.00599446000000000
3.15166600000000	0.836205000000000	0.00599089000000000
3.16500000000000	0.841409000000000	0.00599359000000000
3.17833300000000	0.846682000000000	0.00599306000000000
3.19166600000000	0.851887000000000	0.00599310000000000
3.20500000000000	0.857085000000000	0.00599490000000000
3.21833300000000	0.862291000000000	0.00599479000000000
3.23166600000000	0.867471000000000	0.00599559000000000
3.24500000000000	0.872677000000000	0.00599357000000000
3.25833300000000	0.877880000000000	0.00599729000000000
3.27166600000000	0.883105000000000	0.00599289000000000
3.28500000000000	0.888325000000000	0.00599281000000000
3.29833300000000	0.893485000000000	0.00599317000000000
3.31166600000000	0.898667000000000	0.00599158000000000
3.32500000000000	0.903848000000000	0.00599483000000000
3.33833300000000	0.909054000000000	0.00599510000000000
3.35166600000000	0.914185000000000	0.00599433000000000
3.36500000000000	0.919309000000000	0.00599061000000000
3.37833300000000	0.924531000000000	0.00599526000000000
3.39166600000000	0.929680000000000	0.00599240000000000
3.40500000000000	0.934827000000000	0.00599389000000000
3.41833300000000	0.939929000000000	0.00599163000000000
3.43166300000000	0.945099000000000	0.00599498000000000
3.44500300000000	0.950192000000000	0.00599527000000000
3.45833300000000	0.955275000000000	0.00599471000000000
3.47166300000000	0.960324000000000	0.00599358000000000
3.48500300000000	0.965341000000000	0.00599622000000000
3.49833300000000	0.970389000000000	0.00599391000000000
3.51166300000000	0.975397000000000	0.00599435000000000
3.52500300000000	0.980414000000000	0.00599500000000000
3.53833300000000	0.985321000000000	0.00599370000000000
3.55166300000000	0.990265000000000	0.00599171000000000
3.56500300000000	0.995117000000000	0.00599201000000000
3.57333300000000	0.999118000000000	0.00599267000000000
3.58666700000000	0.457315000000000	-0.00601531000000000
3.60000100000000	0.447836000000000	-0.00601651000000000
3.61333400000000	0.439004000000000	-0.00601437000000000
3.62666700000000	0.430664000000000	-0.00601739000000000
3.64000100000000	0.422681000000000	-0.00601262000000000
3.65333400000000	0.414915000000000	-0.00601805000000000
3.66666700000000	0.407354000000000	-0.00601411000000000
3.68000100000000	0.399935000000000	-0.00601599000000000
3.69333400000000	0.392642000000000	-0.00601563000000000
3.70666700000000	0.385502000000000	-0.00601475000000000
3.72000100000000	0.378452000000000	-0.00601687000000000
3.73333400000000	0.371519000000000	-0.00601496000000000
3.74666700000000	0.364664000000000	-0.00601321000000000
3.76000100000000	0.357892000000000	-0.00601322000000000
3.77333400000000	0.351185000000000	-0.00601386000000000
3.78666700000000	0.344584000000000	-0.00601855000000000
3.80000100000000	0.338008000000000	-0.00601522000000000
3.81333400000000	0.331534000000000	-0.00601704000000000
3.82666700000000	0.325150000000000	-0.00601531000000000
3.84000100000000	0.318775000000000	-0.00601696000000000
3.85333400000000	0.312444000000000	-0.00601626000000000
3.86666700000000	0.306197000000000	-0.00601785000000000
3.88000100000000	0.300035000000000	-0.00601178000000000
3.89333400000000	0.293893000000000	-0.00601296000000000
3.90666700000000	0.287768000000000	-0.00601534000000000
3.92000100000000	0.281711000000000	-0.00601513000000000
3.93333400000000	0.275724000000000	-0.00601452000000000
3.94666700000000	0.269747000000000	-0.00601452000000000
3.96000100000000	0.263825000000000	-0.00601659000000000
3.97333400000000	0.257942000000000	-0.00601664000000000
3.98666700000000	0.252112000000000	-0.00601756000000000
4.00000100000000	0.246332000000000	-0.00601550000000000
4.01333400000000	0.240570000000000	-0.00601264000000000
4.02666700000000	0.234812000000000	-0.00601832000000000
4.04000100000000	0.229121000000000	-0.00601520000000000
4.05333400000000	0.223456000000000	-0.00601099000000000
4.06666700000000	0.217848000000000	-0.00601547000000000
4.08000100000000	0.212278000000000	-0.00601546000000000
4.09333400000000	0.206761000000000	-0.00601149000000000
4.10666700000000	0.201257000000000	-0.00601445000000000
4.12000100000000	0.195762000000000	-0.00601944000000000
4.13333400000000	0.190352000000000	-0.00601515000000000
4.14666700000000	0.184925000000000	-0.00601544000000000
4.16000100000000	0.179544000000000	-0.00601296000000000
4.17333400000000	0.174199000000000	-0.00601571000000000
4.18666700000000	0.168878000000000	-0.00601649000000000
4.20000100000000	0.163594000000000	-0.00601567000000000
4.21333400000000	0.158334000000000	-0.00601533000000000
4.22666700000000	0.153099000000000	-0.00601617000000000
4.24000100000000	0.147915000000000	-0.00601622000000000
4.25333400000000	0.142721000000000	-0.00601550000000000
4.26666700000000	0.137566000000000	-0.00601629000000000
4.28000100000000	0.132469000000000	-0.00601335000000000
4.29333400000000	0.127405000000000	-0.00601665000000000
4.30666700000000	0.122323000000000	-0.00601533000000000
4.32000100000000	0.117292000000000	-0.00601059000000000
4.33333400000000	0.112293000000000	-0.00601349000000000
4.34666700000000	0.107295000000000	-0.00601486000000000
4.36000100000000	0.102314000000000	-0.00601390000000000
4.37333400000000	0.0973919000000000	-0.00601808000000000
4.38666700000000	0.0924369000000000	-0.00601849000000000
4.40000100000000	0.0875542000000000	-0.00601731000000000
4.41333400000000	0.0827067000000000	-0.00601945000000000
4.42666700000000	0.0778856000000000	-0.00601215000000000
4.44000100000000	0.0730691000000000	-0.00601194000000000
4.45333400000000	0.0682452000000000	-0.00601870000000000
4.46666700000000	0.0634361000000000	-0.00601540000000000
4.48000100000000	0.0586771000000000	-0.00601375000000000
4.49333400000000	0.0539299000000000	-0.00601516000000000
4.50666700000000	0.0492273000000000	-0.00601613000000000
4.52000100000000	0.0445836000000000	-0.00601505000000000
4.53333400000000	0.0398959000000000	-0.00601651000000000
4.54666400000000	0.0351977000000000	-0.00601352000000000
4.56000400000000	0.0305469000000000	-0.00601674000000000
4.57333400000000	0.0259334000000000	-0.00601623000000000
4.58666400000000	0.0213304000000000	-0.00601453000000000
4.60000400000000	0.0167505000000000	-0.00601860000000000
4.61333400000000	0.0121796000000000	-0.00601314000000000
4.62666400000000	0.00763149000000000	-0.00601482000000000
4.64000400000000	0.00313268000000000	-0.00601594000000000
4.64333400000000	0.000266412000000000	-0.00601283000000000
4.65666600000000	0.550414000000000	0.00598955000000000
4.67000000000000	0.558256000000000	0.00599425000000000
4.68333300000000	0.565486000000000	0.00599332000000000
4.69666600000000	0.572236000000000	0.00599288000000000
4.71000000000000	0.578680000000000	0.00599134000000000
4.72333300000000	0.585009000000000	0.00599665000000000
4.73666600000000	0.591205000000000	0.00599389000000000
