Time	Voltage	Current
0.0133330000000000	0.320505000000000	0.000800974000000000
0.0266670000000000	0.365612000000000	0.000801848000000000
0.0400000000000000	0.400703000000000	0.000800612000000000
0.0533330000000000	0.429134000000000	0.000801555000000000
0.0666670000000000	0.452926000000000	0.000801308000000000
0.0800000000000000	0.473369000000000	0.000800600000000000
0.0933330000000000	0.491303000000000	0.000801452000000000
0.106667000000000	0.507290000000000	0.000801499000000000
0.120000000000000	0.521738000000000	0.000801639000000000
0.133333000000000	0.534854000000000	0.000801006000000000
0.146667000000000	0.546934000000000	0.000801295000000000
0.160000000000000	0.558241000000000	0.000801263000000000
0.173333000000000	0.568869000000000	0.000800473000000000
0.186667000000000	0.578804000000000	0.000800666000000000
0.200000000000000	0.588208000000000	0.000801331000000000
0.213333000000000	0.597160000000000	0.000801692000000000
0.226667000000000	0.605643000000000	0.000799833000000000
0.240000000000000	0.613776000000000	0.000801460000000000
0.253333000000000	0.621544000000000	0.000801182000000000
0.266667000000000	0.628980000000000	0.000800722000000000
0.280000000000000	0.636195000000000	0.000801616000000000
0.293333000000000	0.643158000000000	0.000800893000000000
0.306667000000000	0.649828000000000	0.000801420000000000
0.320000000000000	0.656313000000000	0.000800359000000000
0.333333000000000	0.662556000000000	0.000800740000000000
0.346667000000000	0.668687000000000	0.000801336000000000
0.360000000000000	0.674595000000000	0.000801405000000000
0.373333000000000	0.680359000000000	0.000801658000000000
0.386667000000000	0.685950000000000	0.000801474000000000
0.400000000000000	0.691404000000000	0.000800866000000000
0.413333000000000	0.696759000000000	0.000801516000000000
0.426667000000000	0.701978000000000	0.000800795000000000
0.440000000000000	0.707008000000000	0.000802164000000000
0.453333000000000	0.712002000000000	0.000801610000000000
0.466667000000000	0.716869000000000	0.000800654000000000
0.480000000000000	0.721677000000000	0.000801809000000000
0.493333000000000	0.726319000000000	0.000801535000000000
0.506667000000000	0.730847000000000	0.000800990000000000
0.520000000000000	0.735322000000000	0.000801115000000000
0.533333000000000	0.739711000000000	0.000800799000000000
0.546667000000000	0.744050000000000	0.000800824000000000
0.560000000000000	0.748267000000000	0.000800949000000000
0.573333000000000	0.752427000000000	0.000801098000000000
0.586667000000000	0.756500000000000	0.000800990000000000
0.600000000000000	0.760522000000000	0.000801699000000000
0.613333000000000	0.764471000000000	0.000801526000000000
0.626667000000000	0.768397000000000	0.000801232000000000
0.640000000000000	0.772232000000000	0.000801553000000000
0.653333000000000	0.775991000000000	0.000801101000000000
0.666667000000000	0.779703000000000	0.000801526000000000
0.680000000000000	0.783342000000000	0.000801611000000000
0.693333000000000	0.786896000000000	0.000801078000000000
0.706667000000000	0.790480000000000	0.000800906000000000
0.720000000000000	0.794010000000000	0.000801492000000000
0.733333000000000	0.797427000000000	0.000800527000000000
0.746667000000000	0.800834000000000	0.000801444000000000
0.760000000000000	0.804174000000000	0.000800932000000000
0.773333000000000	0.807440000000000	0.000801286000000000
0.786667000000000	0.810711000000000	0.000800317000000000
0.800000000000000	0.813920000000000	0.000801685000000000
0.813333000000000	0.817041000000000	0.000801260000000000
0.826667000000000	0.820176000000000	0.000801680000000000
0.840000000000000	0.823236000000000	0.000801029000000000
0.853333000000000	0.826277000000000	0.000800667000000000
0.866667000000000	0.829278000000000	0.000801155000000000
0.880000000000000	0.832234000000000	0.000802047000000000
0.893333000000000	0.835126000000000	0.000801190000000000
0.906667000000000	0.838041000000000	0.000800946000000000
0.920000000000000	0.840881000000000	0.000800927000000000
0.933333000000000	0.843758000000000	0.000800655000000000
0.946667000000000	0.846538000000000	0.000800742000000000
0.960000000000000	0.849332000000000	0.000801334000000000
0.973330000000000	0.852093000000000	0.000801763000000000
0.986670000000000	0.854779000000000	0.000801483000000000
1	0.857433000000000	0.000800688000000000
1.01333000000000	0.860073000000000	0.000801070000000000
1.02667000000000	0.862669000000000	0.000801611000000000
1.04000000000000	0.865222000000000	0.000801973000000000
1.05333000000000	0.867806000000000	0.000801170000000000
1.06667000000000	0.870387000000000	0.000801191000000000
1.08000000000000	0.872883000000000	0.000800892000000000
1.09333000000000	0.875382000000000	0.000800646000000000
1.10667000000000	0.877853000000000	0.000801145000000000
1.12000000000000	0.880302000000000	0.000801388000000000
1.13333000000000	0.882698000000000	0.000801709000000000
1.14667000000000	0.885049000000000	0.000801389000000000
1.16000000000000	0.887371000000000	0.000800671000000000
1.17333000000000	0.889690000000000	0.000800649000000000
1.18667000000000	0.891982000000000	0.000801451000000000
1.20000000000000	0.894222000000000	0.000801150000000000
1.21333000000000	0.896479000000000	0.000801415000000000
1.22667000000000	0.898681000000000	0.000800815000000000
1.24000000000000	0.900868000000000	0.000800657000000000
1.25333000000000	0.903060000000000	0.000799865000000000
1.26667000000000	0.905216000000000	0.000801186000000000
1.28000000000000	0.907388000000000	0.000801183000000000
1.29333000000000	0.909514000000000	0.000801035000000000
1.30667000000000	0.911578000000000	0.000800906000000000
1.32000000000000	0.913660000000000	0.000800898000000000
1.33333000000000	0.915726000000000	0.000801672000000000
1.34667000000000	0.917757000000000	0.000801299000000000
1.36000000000000	0.919746000000000	0.000801267000000000
1.37333000000000	0.921818000000000	0.000800889000000000
1.38667000000000	0.923785000000000	0.000801027000000000
1.40000000000000	0.925707000000000	0.000801186000000000
1.41333000000000	0.927628000000000	0.000800817000000000
1.42667000000000	0.929537000000000	0.000800673000000000
1.44000000000000	0.931429000000000	0.000800664000000000
1.45333000000000	0.933296000000000	0.000800498000000000
1.46667000000000	0.935195000000000	0.000801391000000000
1.48000000000000	0.937004000000000	0.000800925000000000
1.49333000000000	0.938835000000000	0.000801741000000000
1.50667000000000	0.940639000000000	0.000801435000000000
1.52000000000000	0.942415000000000	0.000801584000000000
1.53333000000000	0.944188000000000	0.000800530000000000
1.54667000000000	0.945966000000000	0.000801029000000000
1.56000000000000	0.947757000000000	0.000801145000000000
1.57333000000000	0.949489000000000	0.000801735000000000
1.58667000000000	0.951165000000000	0.000801460000000000
1.60000000000000	0.952891000000000	0.000801322000000000
1.61333000000000	0.954551000000000	0.000801665000000000
1.62667000000000	0.956194000000000	0.000801894000000000
1.64000000000000	0.957825000000000	0.000801163000000000
1.65333000000000	0.959405000000000	0.000800783000000000
1.66667000000000	0.960993000000000	0.000800858000000000
1.68000000000000	0.962578000000000	0.000801965000000000
1.69333000000000	0.964154000000000	0.000800625000000000
1.70667000000000	0.965731000000000	0.000800620000000000
1.72000000000000	0.967289000000000	0.000801026000000000
1.73333000000000	0.968809000000000	0.000801488000000000
1.74667000000000	0.970318000000000	0.000801058000000000
1.76000000000000	0.971853000000000	0.000801456000000000
1.77333000000000	0.973400000000000	0.000801090000000000
1.78667000000000	0.974874000000000	0.000800823000000000
1.80000000000000	0.976299000000000	0.000800798000000000
1.81333000000000	0.977722000000000	0.000801416000000000
1.82667000000000	0.979168000000000	0.000801495000000000
1.84000000000000	0.980645000000000	0.000800596000000000
1.85333000000000	0.982054000000000	0.000800585000000000
1.86667000000000	0.983464000000000	0.000800792000000000
1.88000000000000	0.984843000000000	0.000801429000000000
1.89333000000000	0.986240000000000	0.000801184000000000
1.90667000000000	0.987615000000000	0.000800924000000000
1.92000000000000	0.988951000000000	0.000800655000000000
1.93333000000000	0.990329000000000	0.000801567000000000
1.94667000000000	0.991663000000000	0.000801053000000000
1.96000000000000	0.992945000000000	0.000801525000000000
1.97333000000000	0.994263000000000	0.000800984000000000
1.98667000000000	0.995592000000000	0.000801995000000000
2	0.996862000000000	0.000801642000000000
2.01333000000000	0.998167000000000	0.000800780000000000
2.02667000000000	0.999416000000000	0.000801338000000000
2.02833000000000	1.00013000000000	0.000799994000000000
2.04166600000000	0.392718000000000	-0.000798061000000000
2.05500000000000	0.355303000000000	-0.000798138000000000
2.06833300000000	0.322220000000000	-0.000798418000000000
2.08166600000000	0.292239000000000	-0.000798993000000000
2.09500000000000	0.264622000000000	-0.000798527000000000
2.10833300000000	0.238950000000000	-0.000798556000000000
2.12166600000000	0.214935000000000	-0.000798614000000000
2.13500000000000	0.192339000000000	-0.000799167000000000
2.14833300000000	0.171009000000000	-0.000797636000000000
2.16166600000000	0.150807000000000	-0.000799068000000000
2.17500000000000	0.131635000000000	-0.000798533000000000
2.18833300000000	0.113356000000000	-0.000798334000000000
2.20166600000000	0.0958818000000000	-0.000798447000000000
2.21500000000000	0.0790855000000000	-0.000799456000000000
2.22833300000000	0.0628394000000000	-0.000798647000000000
2.24166600000000	0.0469625000000000	-0.000798845000000000
2.25500000000000	0.0312584000000000	-0.000798734000000000
2.26833300000000	0.0156266000000000	-0.000798241000000000
2.27666600000000	0.00297416000000000	-0.000799845000000000
2.29000000000000	0.623003000000000	0.000801268000000000
2.30333400000000	0.655566000000000	0.000801145000000000
2.31666700000000	0.681592000000000	0.000800708000000000
2.33000000000000	0.703304000000000	0.000801191000000000
2.34333400000000	0.721904000000000	0.000800858000000000
2.35666700000000	0.738183000000000	0.000801158000000000
2.37000000000000	0.752660000000000	0.000801165000000000
2.38333400000000	0.765656000000000	0.000800825000000000
2.39666700000000	0.777484000000000	0.000801321000000000
2.41000000000000	0.788324000000000	0.000801121000000000
2.42333400000000	0.798343000000000	0.000801238000000000
2.43666700000000	0.807595000000000	0.000800924000000000
2.45000000000000	0.816258000000000	0.000801364000000000
2.46333400000000	0.824372000000000	0.000800868000000000
2.47666700000000	0.832029000000000	0.000801343000000000
2.49000000000000	0.839242000000000	0.000801323000000000
2.50333400000000	0.846139000000000	0.000801101000000000
2.51666700000000	0.852680000000000	0.000801106000000000
2.53000000000000	0.858921000000000	0.000800859000000000
2.54333400000000	0.864876000000000	0.000801255000000000
2.55666700000000	0.870577000000000	0.000801225000000000
2.57000000000000	0.875998000000000	0.000801019000000000
2.58333400000000	0.881225000000000	0.000801226000000000
2.59666700000000	0.886280000000000	0.000801243000000000
2.61000000000000	0.891146000000000	0.000801606000000000
2.62333400000000	0.895835000000000	0.000800836000000000
2.63666700000000	0.900394000000000	0.000801011000000000
2.65000000000000	0.904756000000000	0.000800686000000000
2.66333400000000	0.908992000000000	0.000801006000000000
2.67666700000000	0.913093000000000	0.000800254000000000
2.69000000000000	0.917065000000000	0.000800910000000000
2.70333400000000	0.920954000000000	0.000801388000000000
2.71666700000000	0.924697000000000	0.000801129000000000
2.73000000000000	0.928326000000000	0.000800486000000000
2.74333400000000	0.931831000000000	0.000800699000000000
2.75666700000000	0.935242000000000	0.000801209000000000
2.77000000000000	0.938565000000000	0.000801709000000000
2.78333400000000	0.941827000000000	0.000801360000000000
2.79666700000000	0.944978000000000	0.000801219000000000
2.81000000000000	0.948133000000000	0.000800744000000000
2.82333400000000	0.951152000000000	0.000801153000000000
2.83666700000000	0.954053000000000	0.000800296000000000
2.85000000000000	0.956854000000000	0.000801783000000000
2.86333400000000	0.959617000000000	0.000801409000000000
2.87666700000000	0.962306000000000	0.000801658000000000
2.89000000000000	0.964919000000000	0.000801519000000000
2.90333400000000	0.967474000000000	0.000801157000000000
2.91666700000000	0.969980000000000	0.000800299000000000
2.93000000000000	0.972438000000000	0.000801448000000000
2.94333400000000	0.974868000000000	0.000800977000000000
2.95666700000000	0.977161000000000	0.000800945000000000
2.97000000000000	0.979411000000000	0.000800610000000000
2.98333400000000	0.981625000000000	0.000801103000000000
2.99666700000000	0.983775000000000	0.000801048000000000
3.01000000000000	0.985886000000000	0.000801809000000000
3.02333400000000	0.987953000000000	0.000800360000000000
3.03666700000000	0.989999000000000	0.000801099000000000
3.05000000000000	0.992001000000000	0.000800765000000000
3.06333400000000	0.993899000000000	0.000800794000000000
3.07666700000000	0.995806000000000	0.000800790000000000
3.09000000000000	0.997641000000000	0.000800932000000000
3.10166700000000	0.999346000000000	0.000800520000000000
3.11500000000000	0.401897000000000	-0.000799039000000000
3.12833400000000	0.365266000000000	-0.000798167000000000
3.14166700000000	0.332992000000000	-0.000798818000000000
3.15500000000000	0.303814000000000	-0.000798371000000000
3.16833400000000	0.277016000000000	-0.000799243000000000
3.18166700000000	0.252173000000000	-0.000798232000000000
3.19500000000000	0.228969000000000	-0.000798909000000000
3.20833400000000	0.207199000000000	-0.000798179000000000
3.22166700000000	0.186651000000000	-0.000798939000000000
3.23500000000000	0.167234000000000	-0.000799204000000000
3.24833400000000	0.148848000000000	-0.000798930000000000
3.26166700000000	0.131347000000000	-0.000798565000000000
3.27500000000000	0.114687000000000	-0.000798997000000000
3.28833400000000	0.0987745000000000	-0.000798693000000000
3.30166700000000	0.0835392000000000	-0.000798226000000000
3.31500000000000	0.0689159000000000	-0.000798155000000000
3.32833400000000	0.0548208000000000	-0.000798855000000000
3.34166700000000	0.0412354000000000	-0.000798333000000000
3.35500000000000	0.0280068000000000	-0.000798957000000000
3.36833400000000	0.0149785000000000	-0.000797828000000000
3.37833400000000	0.00360098000000000	-0.000798334000000000
3.39166600000000	0.615204000000000	0.000800973000000000
3.40500000000000	0.648965000000000	0.000801340000000000
3.41833300000000	0.676014000000000	0.000800625000000000
3.43166600000000	0.698576000000000	0.000801018000000000
3.44500000000000	0.717970000000000	0.000801191000000000
3.45833300000000	0.735003000000000	0.000800993000000000
3.47166600000000	0.750155000000000	0.000801001000000000
3.48500000000000	0.763795000000000	0.000800813000000000
3.49833300000000	0.776216000000000	0.000801343000000000
3.51166600000000	0.787584000000000	0.000800902000000000
3.52500000000000	0.798115000000000	0.000801625000000000
3.53833300000000	0.807844000000000	0.000801076000000000
3.55166600000000	0.816947000000000	0.000801265000000000
3.56500000000000	0.825508000000000	0.000800792000000000
3.57833300000000	0.833601000000000	0.000801000000000000
3.59166600000000	0.841250000000000	0.000800558000000000
3.60500000000000	0.848475000000000	0.000800908000000000
3.61833300000000	0.855336000000000	0.000800520000000000
3.63166600000000	0.861897000000000	0.000800620000000000
3.64500000000000	0.868170000000000	0.000801000000000000
3.65833300000000	0.874161000000000	0.000802061000000000
3.67166600000000	0.879895000000000	0.000800586000000000
3.68500000000000	0.885486000000000	0.000801010000000000
3.69833300000000	0.890774000000000	0.000801347000000000
3.71166600000000	0.895871000000000	0.000800802000000000
3.72500000000000	0.900804000000000	0.000801024000000000
3.73833300000000	0.905586000000000	0.000800838000000000
3.75166600000000	0.910178000000000	0.000800915000000000
3.76500000000000	0.914613000000000	0.000801227000000000
3.77833300000000	0.918944000000000	0.000801032000000000
3.79166600000000	0.923176000000000	0.000800747000000000
3.80500000000000	0.927203000000000	0.000800622000000000
3.81833300000000	0.931121000000000	0.000800909000000000
3.83166600000000	0.934911000000000	0.000801049000000000
3.84500000000000	0.938602000000000	0.000800760000000000
3.85833300000000	0.942228000000000	0.000801047000000000
3.87166600000000	0.945692000000000	0.000800788000000000
3.88500000000000	0.949096000000000	0.000800416000000000
3.89833300000000	0.952386000000000	0.000800778000000000
3.91166600000000	0.955541000000000	0.000801026000000000
3.92500000000000	0.958677000000000	0.000800867000000000
3.93833300000000	0.961688000000000	0.000801290000000000
3.95166600000000	0.964618000000000	0.000800541000000000
3.96500000000000	0.967459000000000	0.000800566000000000
3.97833300000000	0.970245000000000	0.000800811000000000
3.99166600000000	0.973022000000000	0.000801171000000000
4.00500000000000	0.975667000000000	0.000801444000000000
4.01833300000000	0.978273000000000	0.000801549000000000
4.03166600000000	0.980753000000000	0.000801280000000000
4.04500000000000	0.983226000000000	0.000801157000000000
4.05833300000000	0.985626000000000	0.000800468000000000
4.07166600000000	0.987977000000000	0.000800708000000000
4.08500000000000	0.990265000000000	0.000801005000000000
4.09833300000000	0.992414000000000	0.000800640000000000
4.11166600000000	0.994582000000000	0.000801689000000000
4.12500000000000	0.996686000000000	0.000801116000000000
4.13833300000000	0.998779000000000	0.000801211000000000
4.14166600000000	1.00001000000000	0.000799740000000000
4.15500000000000	0.404323000000000	-0.000797874000000000
4.16833400000000	0.368434000000000	-0.000798372000000000
4.18166700000000	0.336854000000000	-0.000798588000000000
4.19500000000000	0.308342000000000	-0.000798661000000000
4.20833400000000	0.282171000000000	-0.000798502000000000
4.22166700000000	0.257933000000000	-0.000798536000000000
4.23500000000000	0.235349000000000	-0.000798342000000000
4.24833400000000	0.214181000000000	-0.000798208000000000
4.26166700000000	0.194241000000000	-0.000798095000000000
4.27500000000000	0.175428000000000	-0.000798806000000000
4.28833400000000	0.157606000000000	-0.000798162000000000
4.30166700000000	0.140660000000000	-0.000798769000000000
4.31500000000000	0.124536000000000	-0.000798847000000000
4.32833400000000	0.109141000000000	-0.000798514000000000
4.34166700000000	0.0944378000000000	-0.000798572000000000
4.35500000000000	0.0803531000000000	-0.000799089000000000
4.36833400000000	0.0668531000000000	-0.000798395000000000
4.38166700000000	0.0538467000000000	-0.000799022000000000
4.39500000000000	0.0413287000000000	-0.000798324000000000
4.40833400000000	0.0291896000000000	-0.000798540000000000
4.42166700000000	0.0174099000000000	-0.000798901000000000
4.43500000000000	0.00591605000000000	-0.000798691000000000
4.43666700000000	-0.000479463000000000	-0.000799156000000000
4.45000000000000	0.608124000000000	0.000800848000000000
4.46333400000000	0.642584000000000	0.000800874000000000
4.47666700000000	0.670232000000000	0.000801208000000000
4.49000000000000	0.693313000000000	0.000801659000000000
4.50333400000000	0.713175000000000	0.000800794000000000
4.51666700000000	0.730630000000000	0.000800559000000000
4.53000000000000	0.746171000000000	0.000801251000000000
4.54333400000000	0.760192000000000	0.000800672000000000
4.55666700000000	0.772955000000000	0.000800111000000000
4.57000000000000	0.784665000000000	0.000800714000000000
4.58333400000000	0.795478000000000	0.000801122000000000
4.59666700000000	0.805503000000000	0.000800853000000000
4.61000000000000	0.814915000000000	0.000800927000000000
4.62333400000000	0.823797000000000	0.000800666000000000
4.63666700000000	0.832081000000000	0.000801221000000000
4.65000000000000	0.839967000000000	0.000800984000000000
4.66333400000000	0.847450000000000	0.000801221000000000
4.67666700000000	0.854567000000000	0.000801173000000000
