EXPLAIN
TAG	PWR800_CHARGE
TITLE	LABEL	PWR Cyclic Charge Discharge (Cell) - Charge Step	Test &Identifier
DATE	LABEL	10-7-2017	Date
TIME	LABEL	15:01:41	Time
NOTES	NOTES	3	&Notes...
	supercap test cell
	0.9mg
	6M KOH
PSTAT	PSTAT	IFC5000-01520	Potentiostat
CAPACITY	QUANT	1.00000E-003	Capacity (A-hr)
CELLTYPE	SELECTOR	1	&Cell Type
WORKINGCONNECTION	SELECTOR	0	&Working Lead
MAXCHARGETIME	VARIABLEANDUNITS	1.00000E+002	s	1.00000E+002	second(s)	Max &Charge Time
CHARGECURRENT	QUANT	9.00000E-005	&Charge Current (A) 
VOLTAGEFINISH	TWOPARAM	F	1.00000E-003	3.60000E+003	&Voltage Finish	 I (A) < 	Max Time(s)
SAMPLETIME	QUANT	1.00000E-002	Sa&mple Period (s)
CHARGESTOPAT1	MULTIPARAM	4	1.00000E+000	Charge Stop At &1	Voltage > Limit	V
CHARGESTOPAT2	MULTIPARAM	0	0.00000E+000	Charge Stop At &2	None	N/A
AESBHCSELECTOR	TOGGLE	F	Save Both Half Cells
IRCOMP	TOGGLE	F	IR &Measure
EOC	QUANT	0	Open Circuit (V)
SEQUENCER	TOGGLE	TRUE	Run as Sequence
PSTATMODEL	IQUANT	53	Pstat Model
PSTATSECTION	LABEL	IFC5000-01520	Pstat Section
PSTATSERIALNO	LABEL	01520	Pstat Serial Number
CTRLMODE	IQUANT	0	Control Mode
ELECTROMETER	IQUANT	1	RE=0 or CS=1
IESTAB	IQUANT	0	I/E Stability
CASPEED	IQUANT	4	Control Amp Speed
CONVENTION	IQUANT	1	Current Convention
ICHRANGE	IQUANT	2	Ich Range
ICHRANGEMODE	TOGGLE	T	Ich Auto Range
ICHOFFSETENABLE	TOGGLE	F	Ich Offset Enable
ICHOFFSET	QUANT	0	Ich Offset (V)
ICHFILTER	IQUANT	1	Ich Filter
VCHRANGE	IQUANT	2	Vch Range
VCHRANGEMODE	TOGGLE	T	Vch Auto Range
VCHOFFSETENABLE	TOGGLE	F	Vch Offset Enable
VCHOFFSET	QUANT	0	Vch Offset (V)
VCHFILTER	IQUANT	1	Vch Filter
IERANGELOWERLIMIT	IQUANT	9	I/E Range Lower Limit
IERANGEMODE	TOGGLE	F	I/E AutoRange
IERANGE	IQUANT	9	I/E Range
ACHSELECT	IQUANT	1	Ach Select
ACHRANGE	IQUANT	2	Ach Range
ACHOFFSETENABLE	TOGGLE	F	Ach Offset Enable
ACHOFFSET	QUANT	0	Ach Offset (V)
ACHFILTER	IQUANT	1	Ach Filter
CABLEID	IQUANT	14	Cable ID
DCCALDATE	LABEL	5-7-2017	DC Calibration Date
ACCALDATE	LABEL	12/3/2015	AC Calibration Date
FRAMEWORKVERSION	QUANT	7.01	Framework Version
INSTRUMENTVERSION	LABEL	4.00	Instrument Version
CURVE	TABLE	208
	Pt	T	Vf	Im	Vu	Pwr	Sig	Ach	Temp	IERange	Over
	#	s	V	A	V	W	V	V	deg C	#	bits
	0	0.013333	2.97879E-001	9.08126E-005	0.00000E+000	2.70511E-005	5.39641E-002	2.97919E-001	3.57110E+000	9	...........
	1	0.026667	3.16291E-001	9.12544E-005	0.00000E+000	2.88630E-005	5.39641E-002	3.16317E-001	3.57110E+000	9	...........
	2	0.04	3.33193E-001	9.10262E-005	0.00000E+000	3.03293E-005	5.39641E-002	3.33223E-001	3.57110E+000	9	...........
	3	0.053333	3.48914E-001	9.10741E-005	0.00000E+000	3.17771E-005	5.39641E-002	3.48939E-001	3.57110E+000	9	...........
	4	0.066667	3.63617E-001	9.12877E-005	0.00000E+000	3.31938E-005	5.39641E-002	3.63642E-001	3.57110E+000	9	...........
	5	0.08	3.77460E-001	9.11418E-005	0.00000E+000	3.44024E-005	5.39641E-002	3.77489E-001	3.57110E+000	9	...........
	6	0.093333	3.90574E-001	9.12158E-005	0.00000E+000	3.56265E-005	5.39641E-002	3.90611E-001	3.57110E+000	9	...........
	7	0.106667	4.03046E-001	9.13481E-005	0.00000E+000	3.68175E-005	5.39641E-002	4.03084E-001	3.57110E+000	9	...........
	8	0.12	4.14929E-001	9.11418E-005	0.00000E+000	3.78173E-005	5.39641E-002	4.14972E-001	3.57110E+000	9	...........
	9	0.133333	4.26314E-001	9.11168E-005	0.00000E+000	3.88443E-005	5.39641E-002	4.26355E-001	3.57110E+000	9	...........
	10	0.146667	4.37237E-001	9.14044E-005	0.00000E+000	3.99653E-005	5.39641E-002	4.37280E-001	3.57110E+000	9	...........
	11	0.16	4.47731E-001	9.11648E-005	0.00000E+000	4.08173E-005	5.39641E-002	4.47777E-001	3.57110E+000	9	...........
	12	0.173333	4.57842E-001	9.11939E-005	0.00000E+000	4.17524E-005	5.39641E-002	4.57889E-001	3.57110E+000	9	...........
	13	0.186667	4.67608E-001	9.11429E-005	0.00000E+000	4.26192E-005	5.39641E-002	4.67652E-001	3.57110E+000	9	...........
	14	0.2	4.77049E-001	9.12533E-005	0.00000E+000	4.35323E-005	5.39641E-002	4.77091E-001	3.57110E+000	9	...........
	15	0.213333	4.86187E-001	9.11085E-005	0.00000E+000	4.42958E-005	5.39641E-002	4.86226E-001	3.57110E+000	9	...........
	16	0.226667	4.95037E-001	9.09532E-005	0.00000E+000	4.50252E-005	5.39641E-002	4.95079E-001	3.57110E+000	9	...........
	17	0.24	5.03606E-001	9.10231E-005	0.00000E+000	4.58398E-005	5.39641E-002	5.03652E-001	3.57110E+000	9	...........
	18	0.253333	5.11941E-001	9.11700E-005	0.00000E+000	4.66736E-005	5.39641E-002	5.11988E-001	3.57110E+000	9	...........
	19	0.266667	5.20057E-001	9.09658E-005	0.00000E+000	4.73074E-005	5.39641E-002	5.20101E-001	3.57110E+000	9	...........
	20	0.28	5.27936E-001	9.13252E-005	0.00000E+000	4.82139E-005	5.39641E-002	5.27986E-001	3.57110E+000	9	...........
	21	0.293333	5.35578E-001	9.11147E-005	0.00000E+000	4.87991E-005	5.39641E-002	5.35627E-001	3.57110E+000	9	...........
	22	0.306667	5.43057E-001	9.13242E-005	0.00000E+000	4.95942E-005	5.39641E-002	5.43102E-001	3.57110E+000	9	...........
	23	0.32	5.50299E-001	9.13023E-005	0.00000E+000	5.02435E-005	5.39641E-002	5.50377E-001	3.57110E+000	9	...........
	24	0.333333	5.57367E-001	9.11314E-005	0.00000E+000	5.07937E-005	5.39641E-002	5.57442E-001	3.57110E+000	9	...........
	25	0.346667	5.64305E-001	9.13815E-005	0.00000E+000	5.15670E-005	5.39641E-002	5.64375E-001	3.57110E+000	9	...........
	26	0.36	5.71037E-001	9.10658E-005	0.00000E+000	5.20020E-005	5.39641E-002	5.71123E-001	3.57110E+000	9	...........
	27	0.373333	5.77617E-001	9.11658E-005	0.00000E+000	5.26589E-005	5.39641E-002	5.77727E-001	3.57110E+000	9	...........
	28	0.386667	5.84080E-001	9.11512E-005	0.00000E+000	5.32396E-005	5.39641E-002	5.84168E-001	3.57110E+000	9	...........
	29	0.4	5.90421E-001	9.10137E-005	0.00000E+000	5.37364E-005	5.39641E-002	5.90548E-001	3.57110E+000	9	...........
	30	0.413333	5.96606E-001	9.11523E-005	0.00000E+000	5.43819E-005	5.39641E-002	5.96705E-001	3.57110E+000	9	...........
	31	0.426667	6.02637E-001	9.13596E-005	0.00000E+000	5.50566E-005	5.39641E-002	6.02757E-001	3.57110E+000	9	...........
	32	0.44	6.08574E-001	9.12304E-005	0.00000E+000	5.55204E-005	5.39641E-002	6.08678E-001	3.57110E+000	9	...........
	33	0.453333	6.14416E-001	9.12752E-005	0.00000E+000	5.60809E-005	5.39641E-002	6.14513E-001	3.57110E+000	9	...........
	34	0.466667	6.20133E-001	9.12231E-005	0.00000E+000	5.65705E-005	5.39641E-002	6.20187E-001	3.57110E+000	9	...........
	35	0.48	6.25681E-001	9.11397E-005	0.00000E+000	5.70244E-005	5.39641E-002	6.25739E-001	3.57110E+000	9	...........
	36	0.493333	6.31116E-001	9.12408E-005	0.00000E+000	5.75835E-005	5.39641E-002	6.31172E-001	3.57110E+000	9	...........
	37	0.506667	6.36448E-001	9.12179E-005	0.00000E+000	5.80554E-005	5.39641E-002	6.36514E-001	3.57110E+000	9	...........
	38	0.52	6.41737E-001	9.09960E-005	0.00000E+000	5.83955E-005	5.39641E-002	6.41786E-001	3.57110E+000	9	...........
	39	0.533333	6.46869E-001	9.12502E-005	0.00000E+000	5.90269E-005	5.39641E-002	6.46946E-001	3.57110E+000	9	...........
	40	0.546667	6.51900E-001	9.11106E-005	0.00000E+000	5.93950E-005	5.39641E-002	6.51978E-001	3.57110E+000	9	...........
	41	0.56	6.56867E-001	9.12939E-005	0.00000E+000	5.99679E-005	5.39641E-002	6.56918E-001	3.57110E+000	9	...........
	42	0.573333	6.61705E-001	9.10814E-005	0.00000E+000	6.02690E-005	5.39641E-002	6.61785E-001	3.57110E+000	9	...........
	43	0.586667	6.66483E-001	9.13304E-005	0.00000E+000	6.08701E-005	5.39641E-002	6.66573E-001	3.57110E+000	9	...........
	44	0.6	6.71193E-001	9.13387E-005	0.00000E+000	6.13060E-005	5.39641E-002	6.71228E-001	3.57110E+000	9	...........
	45	0.613333	6.75774E-001	9.12658E-005	0.00000E+000	6.16750E-005	5.39641E-002	6.75843E-001	3.57110E+000	9	...........
	46	0.626667	6.80287E-001	9.11856E-005	0.00000E+000	6.20323E-005	5.39641E-002	6.80373E-001	3.57110E+000	9	...........
	47	0.64	6.84756E-001	9.11408E-005	0.00000E+000	6.24092E-005	5.39641E-002	6.84789E-001	3.57110E+000	9	...........
	48	0.653333	6.89112E-001	9.13304E-005	0.00000E+000	6.29369E-005	5.39641E-002	6.89197E-001	3.57110E+000	9	...........
	49	0.666667	6.93410E-001	9.11856E-005	0.00000E+000	6.32290E-005	5.39641E-002	6.93500E-001	3.57110E+000	9	...........
	50	0.68	6.97639E-001	9.12804E-005	0.00000E+000	6.36808E-005	5.39641E-002	6.97727E-001	3.57110E+000	9	...........
	51	0.693333	7.01791E-001	9.12846E-005	0.00000E+000	6.40627E-005	5.39641E-002	7.01879E-001	3.57110E+000	9	...........
	52	0.706667	7.05876E-001	9.12981E-005	0.00000E+000	6.44452E-005	5.39641E-002	7.05974E-001	3.57110E+000	9	...........
	53	0.72	7.09891E-001	9.13523E-005	0.00000E+000	6.48502E-005	5.39641E-002	7.09983E-001	3.57110E+000	9	...........
	54	0.733333	7.13834E-001	9.12064E-005	0.00000E+000	6.51063E-005	5.39641E-002	7.13929E-001	3.57110E+000	9	...........
	55	0.746667	7.17777E-001	9.11054E-005	0.00000E+000	6.53933E-005	5.39641E-002	7.17865E-001	3.57110E+000	9	...........
	56	0.76	7.21652E-001	9.14367E-005	0.00000E+000	6.59855E-005	5.39641E-002	7.21698E-001	3.57110E+000	9	...........
	57	0.773333	7.25428E-001	9.11689E-005	0.00000E+000	6.61365E-005	5.39641E-002	7.25460E-001	3.57110E+000	9	...........
	58	0.786667	7.29167E-001	9.09981E-005	0.00000E+000	6.63528E-005	5.39641E-002	7.29180E-001	3.57110E+000	9	...........
	59	0.8	7.32819E-001	9.12002E-005	0.00000E+000	6.68332E-005	5.39641E-002	7.32869E-001	3.57110E+000	9	...........
	60	0.813333	7.36440E-001	9.11804E-005	0.00000E+000	6.71489E-005	5.39641E-002	7.36461E-001	3.57110E+000	9	...........
	61	0.826667	7.39990E-001	9.12335E-005	0.00000E+000	6.75119E-005	5.39641E-002	7.40049E-001	3.57110E+000	9	...........
	62	0.84	7.43547E-001	9.14659E-005	0.00000E+000	6.80092E-005	5.39641E-002	7.43584E-001	3.57110E+000	9	...........
	63	0.853333	7.46990E-001	9.13335E-005	0.00000E+000	6.82252E-005	5.39641E-002	7.47048E-001	3.57110E+000	9	...........
	64	0.866667	7.50387E-001	9.14096E-005	0.00000E+000	6.85926E-005	5.39641E-002	7.50461E-001	3.57163E+000	9	...........
	65	0.88	7.53755E-001	9.11345E-005	0.00000E+000	6.86931E-005	5.39641E-002	7.53845E-001	3.57220E+000	9	...........
	66	0.893333	7.57052E-001	9.09824E-005	0.00000E+000	6.88785E-005	5.39641E-002	7.57146E-001	3.57220E+000	9	...........
	67	0.906667	7.60326E-001	9.12939E-005	0.00000E+000	6.94132E-005	5.39641E-002	7.60382E-001	3.57220E+000	9	...........
	68	0.92	7.63526E-001	9.12887E-005	0.00000E+000	6.97013E-005	5.39641E-002	7.63617E-001	3.57220E+000	9	...........
	69	0.933333	7.66710E-001	9.13846E-005	0.00000E+000	7.00655E-005	5.39641E-002	7.66810E-001	3.57220E+000	9	...........
	70	0.946667	7.69865E-001	9.12325E-005	0.00000E+000	7.02367E-005	5.39641E-002	7.69980E-001	3.57220E+000	9	...........
	71	0.96	7.72971E-001	9.10210E-005	0.00000E+000	7.03566E-005	5.39641E-002	7.73061E-001	3.57220E+000	9	...........
	72	0.97333	7.76037E-001	9.14075E-005	0.00000E+000	7.09356E-005	5.39641E-002	7.76115E-001	3.57220E+000	9	...........
	73	0.98667	7.79038E-001	9.12418E-005	0.00000E+000	7.10809E-005	5.39641E-002	7.79130E-001	3.57220E+000	9	...........
	74	1	7.82048E-001	9.10303E-005	0.00000E+000	7.11901E-005	5.39641E-002	7.82136E-001	3.57220E+000	9	...........
	75	1.01333	7.84989E-001	9.13179E-005	0.00000E+000	7.16836E-005	5.39641E-002	7.85066E-001	3.57220E+000	9	...........
	76	1.02667	7.87894E-001	9.13867E-005	0.00000E+000	7.20030E-005	5.39641E-002	7.87959E-001	3.57220E+000	9	...........
	77	1.04	7.90744E-001	9.10095E-005	0.00000E+000	7.19652E-005	5.39641E-002	7.90791E-001	3.57220E+000	9	...........
	78	1.05333	7.93588E-001	9.13346E-005	0.00000E+000	7.24821E-005	5.39641E-002	7.93687E-001	3.57220E+000	9	...........
	79	1.06667	7.96398E-001	9.15044E-005	0.00000E+000	7.28740E-005	5.39641E-002	7.96467E-001	3.57220E+000	9	...........
	80	1.08	7.99157E-001	9.11325E-005	0.00000E+000	7.28291E-005	5.39641E-002	7.99200E-001	3.57220E+000	9	...........
	81	1.09333	8.01883E-001	9.11179E-005	0.00000E+000	7.30659E-005	5.39641E-002	8.01960E-001	3.57220E+000	9	...........
	82	1.10667	8.04600E-001	9.11866E-005	0.00000E+000	7.33688E-005	5.39641E-002	8.04690E-001	3.57220E+000	9	...........
	83	1.12	8.07277E-001	9.09095E-005	0.00000E+000	7.33892E-005	5.39641E-002	8.07376E-001	3.57220E+000	9	...........
	84	1.13333	8.09921E-001	9.12877E-005	0.00000E+000	7.39358E-005	5.39641E-002	8.10021E-001	3.57220E+000	9	...........
	85	1.14667	8.12542E-001	9.13127E-005	0.00000E+000	7.41954E-005	5.39641E-002	8.12616E-001	3.57220E+000	9	...........
	86	1.16	8.15121E-001	9.11648E-005	0.00000E+000	7.43103E-005	5.39641E-002	8.15203E-001	3.57220E+000	9	...........
	87	1.17333	8.17692E-001	9.12075E-005	0.00000E+000	7.45797E-005	5.39641E-002	8.17778E-001	3.57220E+000	9	...........
	88	1.18667	8.20272E-001	9.15054E-005	0.00000E+000	7.50594E-005	5.39641E-002	8.20318E-001	3.57220E+000	9	...........
	89	1.2	8.22758E-001	9.09220E-005	0.00000E+000	7.48068E-005	5.39641E-002	8.22813E-001	3.57220E+000	9	...........
	90	1.21333	8.25240E-001	9.13127E-005	0.00000E+000	7.53549E-005	5.39641E-002	8.25322E-001	3.57220E+000	9	...........
	91	1.22667	8.27684E-001	9.13283E-005	0.00000E+000	7.55910E-005	5.39641E-002	8.27738E-001	3.57220E+000	9	...........
	92	1.24	8.30087E-001	9.11991E-005	0.00000E+000	7.57032E-005	5.39641E-002	8.30178E-001	3.57220E+000	9	...........
	93	1.25333	8.32474E-001	9.10168E-005	0.00000E+000	7.57691E-005	5.39641E-002	8.32583E-001	3.57220E+000	9	...........
	94	1.26667	8.34824E-001	9.11199E-005	0.00000E+000	7.60691E-005	5.39641E-002	8.34955E-001	3.57220E+000	9	...........
	95	1.28	8.37162E-001	9.10585E-005	0.00000E+000	7.62307E-005	5.39641E-002	8.37332E-001	3.57220E+000	9	...........
	96	1.29333	8.39483E-001	9.09512E-005	0.00000E+000	7.63519E-005	5.39641E-002	8.39633E-001	3.57220E+000	9	...........
	97	1.30667	8.41780E-001	9.13064E-005	0.00000E+000	7.68599E-005	5.39641E-002	8.41906E-001	3.57220E+000	9	...........
	98	1.32	8.44063E-001	9.10283E-005	0.00000E+000	7.68336E-005	5.39641E-002	8.44209E-001	3.57220E+000	9	...........
	99	1.33333	8.46314E-001	9.11168E-005	0.00000E+000	7.71135E-005	5.39641E-002	8.46431E-001	3.57220E+000	9	...........
	100	1.34667	8.48508E-001	9.12710E-005	0.00000E+000	7.74442E-005	5.39641E-002	8.48629E-001	3.57220E+000	9	...........
	101	1.36	8.50708E-001	9.11908E-005	0.00000E+000	7.75768E-005	5.39641E-002	8.50822E-001	3.57220E+000	9	...........
	102	1.37333	8.52868E-001	9.13700E-005	0.00000E+000	7.79265E-005	5.39641E-002	8.52994E-001	3.57220E+000	9	...........
	103	1.38667	8.55024E-001	9.13096E-005	0.00000E+000	7.80718E-005	5.39641E-002	8.55142E-001	3.57220E+000	9	...........
	104	1.4	8.57163E-001	9.11450E-005	0.00000E+000	7.81261E-005	5.39641E-002	8.57309E-001	3.57220E+000	9	...........
	105	1.41333	8.59274E-001	9.14409E-005	0.00000E+000	7.85727E-005	5.39641E-002	8.59422E-001	3.57220E+000	9	...........
	106	1.42667	8.61390E-001	9.13606E-005	0.00000E+000	7.86971E-005	5.39641E-002	8.61527E-001	3.57220E+000	9	...........
	107	1.44	8.63433E-001	9.11460E-005	0.00000E+000	7.86985E-005	5.39641E-002	8.63583E-001	3.57220E+000	9	...........
	108	1.45333	8.65465E-001	9.13502E-005	0.00000E+000	7.90604E-005	5.39641E-002	8.65621E-001	3.57220E+000	9	...........
	109	1.46667	8.67517E-001	9.11783E-005	0.00000E+000	7.90987E-005	5.39641E-002	8.67657E-001	3.57220E+000	9	...........
	110	1.48	8.69553E-001	9.12919E-005	0.00000E+000	7.93831E-005	5.39641E-002	8.69692E-001	3.57220E+000	9	...........
	111	1.49333	8.71536E-001	9.12418E-005	0.00000E+000	7.95206E-005	5.39641E-002	8.71676E-001	3.57220E+000	9	...........
	112	1.50667	8.73499E-001	9.14013E-005	0.00000E+000	7.98389E-005	5.39641E-002	8.73656E-001	3.57220E+000	9	...........
	113	1.52	8.75440E-001	9.12814E-005	0.00000E+000	7.99114E-005	5.39641E-002	8.75602E-001	3.57220E+000	9	...........
	114	1.53333	8.77401E-001	9.10939E-005	0.00000E+000	7.99258E-005	5.39641E-002	8.77541E-001	3.57220E+000	9	...........
	115	1.54667	8.79329E-001	9.11606E-005	0.00000E+000	8.01601E-005	5.39641E-002	8.79486E-001	3.57220E+000	9	...........
	116	1.56	8.81232E-001	9.10689E-005	0.00000E+000	8.02528E-005	5.39641E-002	8.81379E-001	3.57220E+000	9	...........
	117	1.57333	8.83169E-001	9.10970E-005	0.00000E+000	8.04541E-005	5.39641E-002	8.83302E-001	3.57220E+000	9	...........
	118	1.58667	8.85045E-001	9.11418E-005	0.00000E+000	8.06646E-005	5.39641E-002	8.85172E-001	3.57220E+000	9	...........
	119	1.6	8.86883E-001	9.11220E-005	0.00000E+000	8.08146E-005	5.39641E-002	8.87029E-001	3.57220E+000	9	...........
	120	1.61333	8.88716E-001	9.09605E-005	0.00000E+000	8.08381E-005	5.39641E-002	8.88852E-001	3.57220E+000	9	...........
	121	1.62667	8.90526E-001	9.12043E-005	0.00000E+000	8.12198E-005	5.39641E-002	8.90656E-001	3.57220E+000	9	...........
	122	1.64	8.92326E-001	9.10689E-005	0.00000E+000	8.12632E-005	5.39641E-002	8.92457E-001	3.57220E+000	9	...........
	123	1.65333	8.94101E-001	9.15044E-005	0.00000E+000	8.18141E-005	5.39641E-002	8.94213E-001	3.57220E+000	9	...........
	124	1.66667	8.95876E-001	9.11241E-005	0.00000E+000	8.16359E-005	5.39641E-002	8.96039E-001	3.57220E+000	9	...........
	125	1.68	8.97616E-001	9.11752E-005	0.00000E+000	8.18403E-005	5.39641E-002	8.97773E-001	3.57220E+000	9	...........
	126	1.69333	8.99343E-001	9.12689E-005	0.00000E+000	8.20820E-005	5.39641E-002	8.99494E-001	3.57220E+000	9	...........
	127	1.70667	9.01052E-001	9.10126E-005	0.00000E+000	8.20071E-005	5.39641E-002	9.01209E-001	3.57220E+000	9	...........
	128	1.72	9.02743E-001	9.12783E-005	0.00000E+000	8.24008E-005	5.39641E-002	9.02924E-001	3.57220E+000	9	...........
	129	1.73333	9.04441E-001	9.13408E-005	0.00000E+000	8.26124E-005	5.39641E-002	9.04617E-001	3.57220E+000	9	...........
	130	1.74667	9.06119E-001	9.11043E-005	0.00000E+000	8.25513E-005	5.39641E-002	9.06282E-001	3.57220E+000	9	...........
	131	1.76	9.07766E-001	9.12189E-005	0.00000E+000	8.28054E-005	5.39641E-002	9.07932E-001	3.57220E+000	9	...........
	132	1.77333	9.09418E-001	9.11335E-005	0.00000E+000	8.28784E-005	5.39641E-002	9.09574E-001	3.57220E+000	9	...........
	133	1.78667	9.11044E-001	9.13825E-005	0.00000E+000	8.32535E-005	5.39641E-002	9.11213E-001	3.57220E+000	9	...........
	134	1.8	9.12671E-001	9.10824E-005	0.00000E+000	8.31283E-005	5.39641E-002	9.12820E-001	3.57220E+000	9	...........
	135	1.81333	9.14273E-001	9.12804E-005	0.00000E+000	8.34552E-005	5.39641E-002	9.14422E-001	3.57220E+000	9	...........
	136	1.82667	9.15862E-001	9.12023E-005	0.00000E+000	8.35287E-005	5.39641E-002	9.16022E-001	3.57220E+000	9	...........
	137	1.84	9.17439E-001	9.12387E-005	0.00000E+000	8.37060E-005	5.39641E-002	9.17588E-001	3.57220E+000	9	...........
	138	1.85333	9.18997E-001	9.12564E-005	0.00000E+000	8.38644E-005	5.39641E-002	9.19127E-001	3.57220E+000	9	...........
	139	1.86667	9.20577E-001	9.12304E-005	0.00000E+000	8.39846E-005	5.39641E-002	9.20687E-001	3.57153E+000	9	...........
	140	1.88	9.22130E-001	9.13065E-005	0.00000E+000	8.41964E-005	5.39641E-002	9.22223E-001	3.57080E+000	9	...........
	141	1.89333	9.23649E-001	9.11022E-005	0.00000E+000	8.41465E-005	5.39641E-002	9.23742E-001	3.57080E+000	9	...........
	142	1.90667	9.25170E-001	9.11679E-005	0.00000E+000	8.43458E-005	5.39641E-002	9.25245E-001	3.57080E+000	9	...........
	143	1.92	9.26631E-001	9.12544E-005	0.00000E+000	8.45591E-005	5.39641E-002	9.26742E-001	3.57080E+000	9	...........
	144	1.93333	9.28126E-001	9.13710E-005	0.00000E+000	8.48038E-005	5.39641E-002	9.28224E-001	3.57080E+000	9	...........
	145	1.94667	9.29582E-001	9.11679E-005	0.00000E+000	8.47481E-005	5.39641E-002	9.29687E-001	3.57080E+000	9	...........
	146	1.96	9.31034E-001	9.10606E-005	0.00000E+000	8.47805E-005	5.39641E-002	9.31139E-001	3.57080E+000	9	...........
	147	1.97333	9.32479E-001	9.12804E-005	0.00000E+000	8.51170E-005	5.39641E-002	9.32602E-001	3.57080E+000	9	...........
	148	1.98667	9.33900E-001	9.12971E-005	0.00000E+000	8.52624E-005	5.39641E-002	9.34031E-001	3.57080E+000	9	...........
	149	2	9.35316E-001	9.13763E-005	0.00000E+000	8.54657E-005	5.39641E-002	9.35444E-001	3.57080E+000	9	...........
	150	2.01333	9.36715E-001	9.11762E-005	0.00000E+000	8.54061E-005	5.39641E-002	9.36855E-001	3.57080E+000	9	...........
	151	2.02667	9.38081E-001	9.11033E-005	0.00000E+000	8.54622E-005	5.39641E-002	9.38210E-001	3.57080E+000	9	...........
	152	2.04	9.39441E-001	9.14304E-005	0.00000E+000	8.58935E-005	5.39641E-002	9.39593E-001	3.57080E+000	9	...........
	153	2.05333	9.40838E-001	9.13231E-005	0.00000E+000	8.59202E-005	5.39641E-002	9.40936E-001	3.57080E+000	9	...........
	154	2.06667	9.42190E-001	9.14898E-005	0.00000E+000	8.62008E-005	5.39641E-002	9.42274E-001	3.57080E+000	9	...........
	155	2.08	9.43541E-001	9.11710E-005	0.00000E+000	8.60236E-005	5.39641E-002	9.43625E-001	3.57080E+000	9	...........
	156	2.09333	9.44897E-001	9.13898E-005	0.00000E+000	8.63539E-005	5.39641E-002	9.44993E-001	3.57080E+000	9	...........
	157	2.10667	9.46226E-001	9.13294E-005	0.00000E+000	8.64182E-005	5.39641E-002	9.46354E-001	3.57080E+000	9	...........
	158	2.12	9.47579E-001	9.13304E-005	0.00000E+000	8.65428E-005	5.39641E-002	9.47685E-001	3.57080E+000	9	...........
	159	2.13333	9.48906E-001	9.12721E-005	0.00000E+000	8.66086E-005	5.39641E-002	9.49006E-001	3.57080E+000	9	...........
	160	2.14667	9.50174E-001	9.12221E-005	0.00000E+000	8.66768E-005	5.39641E-002	9.50286E-001	3.57080E+000	9	...........
	161	2.16	9.51446E-001	9.13075E-005	0.00000E+000	8.68741E-005	5.39641E-002	9.51561E-001	3.57080E+000	9	...........
	162	2.17333	9.52724E-001	9.13367E-005	0.00000E+000	8.70186E-005	5.39641E-002	9.52853E-001	3.57080E+000	9	...........
	163	2.18667	9.53992E-001	9.11585E-005	0.00000E+000	8.69644E-005	5.39641E-002	9.54096E-001	3.57080E+000	9	...........
	164	2.2	9.55226E-001	9.12200E-005	0.00000E+000	8.71357E-005	5.39641E-002	9.55323E-001	3.57080E+000	9	...........
	165	2.21333	9.56447E-001	9.12794E-005	0.00000E+000	8.73039E-005	5.39641E-002	9.56588E-001	3.57080E+000	9	...........
	166	2.22667	9.57669E-001	9.12023E-005	0.00000E+000	8.73416E-005	5.39641E-002	9.57820E-001	3.57080E+000	9	...........
	167	2.24	9.58862E-001	9.12179E-005	0.00000E+000	8.74654E-005	5.39641E-002	9.59019E-001	3.57080E+000	9	...........
	168	2.25333	9.60070E-001	9.12262E-005	0.00000E+000	8.75836E-005	5.39641E-002	9.60223E-001	3.57080E+000	9	...........
	169	2.26667	9.61227E-001	9.12887E-005	0.00000E+000	8.77492E-005	5.39641E-002	9.61396E-001	3.57080E+000	9	...........
	170	2.28	9.62425E-001	9.12544E-005	0.00000E+000	8.78254E-005	5.39641E-002	9.62590E-001	3.57080E+000	9	...........
	171	2.29333	9.63595E-001	9.11950E-005	0.00000E+000	8.78750E-005	5.39641E-002	9.63768E-001	3.57080E+000	9	...........
	172	2.30667	9.64793E-001	9.12252E-005	0.00000E+000	8.80134E-005	5.39641E-002	9.64938E-001	3.57080E+000	9	...........
	173	2.32	9.65945E-001	9.13440E-005	0.00000E+000	8.82332E-005	5.39641E-002	9.66099E-001	3.57080E+000	9	...........
	174	2.33333	9.67106E-001	9.14617E-005	0.00000E+000	8.84532E-005	5.39641E-002	9.67246E-001	3.57080E+000	9	...........
	175	2.34667	9.68233E-001	9.13940E-005	0.00000E+000	8.84907E-005	5.39641E-002	9.68394E-001	3.57080E+000	9	...........
	176	2.36	9.69367E-001	9.11856E-005	0.00000E+000	8.83923E-005	5.39641E-002	9.69505E-001	3.57080E+000	9	...........
	177	2.37333	9.70474E-001	9.10668E-005	0.00000E+000	8.83780E-005	5.39641E-002	9.70656E-001	3.57080E+000	9	...........
	178	2.38667	9.71581E-001	9.13575E-005	0.00000E+000	8.87612E-005	5.39641E-002	9.71795E-001	3.57080E+000	9	...........
	179	2.4	9.72735E-001	9.12418E-005	0.00000E+000	8.87541E-005	5.39641E-002	9.72898E-001	3.57080E+000	9	...........
	180	2.41333	9.73823E-001	9.13106E-005	0.00000E+000	8.89203E-005	5.39641E-002	9.73989E-001	3.57080E+000	9	...........
	181	2.42667	9.74926E-001	9.10658E-005	0.00000E+000	8.87823E-005	5.39641E-002	9.75108E-001	3.57080E+000	9	...........
	182	2.44	9.75995E-001	9.11314E-005	0.00000E+000	8.89438E-005	5.39641E-002	9.76179E-001	3.57080E+000	9	...........
	183	2.45333	9.77073E-001	9.12158E-005	0.00000E+000	8.91245E-005	5.39641E-002	9.77254E-001	3.57080E+000	9	...........
	184	2.46667	9.78120E-001	9.11939E-005	0.00000E+000	8.91986E-005	5.39641E-002	9.78321E-001	3.57080E+000	9	...........
	185	2.48	9.79198E-001	9.13408E-005	0.00000E+000	8.94408E-005	5.39641E-002	9.79355E-001	3.57080E+000	9	...........
	186	2.49333	9.80253E-001	9.13169E-005	0.00000E+000	8.95136E-005	5.39641E-002	9.80404E-001	3.57080E+000	9	...........
	187	2.50667	9.81283E-001	9.11585E-005	0.00000E+000	8.94523E-005	5.39641E-002	9.81441E-001	3.57080E+000	9	...........
	188	2.52	9.82324E-001	9.10668E-005	0.00000E+000	8.94572E-005	5.39641E-002	9.82469E-001	3.57080E+000	9	...........
	189	2.53333	9.83336E-001	9.09918E-005	0.00000E+000	8.94755E-005	5.39641E-002	9.83479E-001	3.57080E+000	9	...........
	190	2.54667	9.84368E-001	9.11585E-005	0.00000E+000	8.97335E-005	5.39641E-002	9.84506E-001	3.57080E+000	9	...........
	191	2.56	9.85377E-001	9.12575E-005	0.00000E+000	8.99230E-005	5.39641E-002	9.85524E-001	3.57080E+000	9	...........
	192	2.57333	9.86371E-001	9.13867E-005	0.00000E+000	9.01412E-005	5.39641E-002	9.86541E-001	3.57080E+000	9	...........
	193	2.58667	9.87370E-001	9.10824E-005	0.00000E+000	8.99321E-005	5.39641E-002	9.87525E-001	3.57080E+000	9	...........
	194	2.6	9.88370E-001	9.13023E-005	0.00000E+000	9.02405E-005	5.39641E-002	9.88513E-001	3.57080E+000	9	...........
	195	2.61333	9.89333E-001	9.11293E-005	0.00000E+000	9.01573E-005	5.39641E-002	9.89496E-001	3.57080E+000	9	...........
	196	2.62667	9.90287E-001	9.12960E-005	0.00000E+000	9.04093E-005	5.39641E-002	9.90461E-001	3.57080E+000	9	...........
	197	2.64	9.91235E-001	9.11512E-005	0.00000E+000	9.03523E-005	5.39641E-002	9.91405E-001	3.57080E+000	9	...........
	198	2.65333	9.92172E-001	9.13242E-005	0.00000E+000	9.06093E-005	5.39641E-002	9.92336E-001	3.57080E+000	9	...........
	199	2.66667	9.93131E-001	9.11606E-005	0.00000E+000	9.05344E-005	5.39641E-002	9.93316E-001	3.57080E+000	9	...........
	200	2.68	9.94053E-001	9.13169E-005	0.00000E+000	9.07738E-005	5.39641E-002	9.94247E-001	3.57080E+000	9	...........
	201	2.69333	9.95018E-001	9.11814E-005	0.00000E+000	9.07271E-005	5.39641E-002	9.95174E-001	3.57080E+000	9	...........
	202	2.70667	9.95946E-001	9.10970E-005	0.00000E+000	9.07277E-005	5.39641E-002	9.96090E-001	3.57080E+000	9	...........
	203	2.72	9.96841E-001	9.12346E-005	0.00000E+000	9.09464E-005	5.39641E-002	9.97009E-001	3.57080E+000	9	...........
	204	2.73333	9.97783E-001	9.12794E-005	0.00000E+000	9.10770E-005	5.39641E-002	9.97946E-001	3.57080E+000	9	...........
	205	2.74667	9.98704E-001	9.10637E-005	0.00000E+000	9.09457E-005	5.39641E-002	9.98872E-001	3.57080E+000	9	...........
	206	2.76	9.99582E-001	9.11908E-005	0.00000E+000	9.11527E-005	5.39641E-002	9.99767E-001	3.57080E+000	9	...........
	207	2.76167	1.00010E+000	9.16878E-005	0.00000E+000	9.16966E-005	5.39641E-002	1.00024E+000	3.57080E+000	9	...........
STARTTIMEOFFSET	QUANT	122.735	Start Time Offset (s)
