EXPLAIN
TAG	PWR800_CHARGE
TITLE	LABEL	PWR Cyclic Charge Discharge (Cell) - Charge Step	Test &Identifier
DATE	LABEL	10-7-2017	Date
TIME	LABEL	15:19:59	Time
NOTES	NOTES	3	&Notes...
	supercap test cell
	0.9mg
	6M KOH
PSTAT	PSTAT	IFC5000-01520	Potentiostat
CAPACITY	QUANT	1.00000E-003	Capacity (A-hr)
CELLTYPE	SELECTOR	1	&Cell Type
WORKINGCONNECTION	SELECTOR	0	&Working Lead
MAXCHARGETIME	VARIABLEANDUNITS	1.00000E+002	s	1.00000E+002	second(s)	Max &Charge Time
CHARGECURRENT	QUANT	9.00000E-005	&Charge Current (A) 
VOLTAGEFINISH	TWOPARAM	F	1.00000E-003	3.60000E+003	&Voltage Finish	 I (A) < 	Max Time(s)
SAMPLETIME	QUANT	1.00000E-002	Sa&mple Period (s)
CHARGESTOPAT1	MULTIPARAM	4	1.00000E+000	Charge Stop At &1	Voltage > Limit	V
CHARGESTOPAT2	MULTIPARAM	0	0.00000E+000	Charge Stop At &2	None	N/A
AESBHCSELECTOR	TOGGLE	F	Save Both Half Cells
IRCOMP	TOGGLE	F	IR &Measure
EOC	QUANT	0	Open Circuit (V)
SEQUENCER	TOGGLE	TRUE	Run as Sequence
PSTATMODEL	IQUANT	53	Pstat Model
PSTATSECTION	LABEL	IFC5000-01520	Pstat Section
PSTATSERIALNO	LABEL	01520	Pstat Serial Number
CTRLMODE	IQUANT	0	Control Mode
ELECTROMETER	IQUANT	1	RE=0 or CS=1
IESTAB	IQUANT	0	I/E Stability
CASPEED	IQUANT	4	Control Amp Speed
CONVENTION	IQUANT	1	Current Convention
ICHRANGE	IQUANT	2	Ich Range
ICHRANGEMODE	TOGGLE	T	Ich Auto Range
ICHOFFSETENABLE	TOGGLE	F	Ich Offset Enable
ICHOFFSET	QUANT	0	Ich Offset (V)
ICHFILTER	IQUANT	1	Ich Filter
VCHRANGE	IQUANT	2	Vch Range
VCHRANGEMODE	TOGGLE	T	Vch Auto Range
VCHOFFSETENABLE	TOGGLE	F	Vch Offset Enable
VCHOFFSET	QUANT	0	Vch Offset (V)
VCHFILTER	IQUANT	1	Vch Filter
IERANGELOWERLIMIT	IQUANT	9	I/E Range Lower Limit
IERANGEMODE	TOGGLE	F	I/E AutoRange
IERANGE	IQUANT	9	I/E Range
ACHSELECT	IQUANT	1	Ach Select
ACHRANGE	IQUANT	2	Ach Range
ACHOFFSETENABLE	TOGGLE	F	Ach Offset Enable
ACHOFFSET	QUANT	0	Ach Offset (V)
ACHFILTER	IQUANT	1	Ach Filter
CABLEID	IQUANT	14	Cable ID
DCCALDATE	LABEL	5-7-2017	DC Calibration Date
ACCALDATE	LABEL	12/3/2015	AC Calibration Date
FRAMEWORKVERSION	QUANT	7.01	Framework Version
INSTRUMENTVERSION	LABEL	4.00	Instrument Version
CURVE	TABLE	178
	Pt	T	Vf	Im	Vu	Pwr	Sig	Ach	Temp	IERange	Over
	#	s	V	A	V	W	V	V	deg C	#	bits
	0	0.013333	2.84956E-001	9.11523E-005	0.00000E+000	2.59743E-005	5.39641E-002	2.84997E-001	3.57230E+000	9	...........
	1	0.026667	3.04338E-001	9.11127E-005	0.00000E+000	2.77290E-005	5.39641E-002	3.04376E-001	3.57230E+000	9	...........
	2	0.04	3.22278E-001	9.10387E-005	0.00000E+000	2.93397E-005	5.39641E-002	3.22313E-001	3.57230E+000	9	...........
	3	0.053333	3.39016E-001	9.10741E-005	0.00000E+000	3.08756E-005	5.39641E-002	3.39051E-001	3.57230E+000	9	...........
	4	0.066667	3.54741E-001	9.09668E-005	0.00000E+000	3.22696E-005	5.39641E-002	3.54775E-001	3.57230E+000	9	...........
	5	0.08	3.69578E-001	9.09157E-005	0.00000E+000	3.36004E-005	5.39641E-002	3.69615E-001	3.57230E+000	9	...........
	6	0.093333	3.83633E-001	9.12241E-005	0.00000E+000	3.49966E-005	5.39641E-002	3.83674E-001	3.57230E+000	9	...........
	7	0.106667	3.97019E-001	9.11616E-005	0.00000E+000	3.61929E-005	5.39641E-002	3.97061E-001	3.57230E+000	9	...........
	8	0.12	4.09782E-001	9.08616E-005	0.00000E+000	3.72334E-005	5.39641E-002	4.09831E-001	3.57230E+000	9	...........
	9	0.133333	4.21993E-001	9.09741E-005	0.00000E+000	3.83904E-005	5.39641E-002	4.22041E-001	3.57230E+000	9	...........
	10	0.146667	4.33707E-001	9.11054E-005	0.00000E+000	3.95130E-005	5.39641E-002	4.33759E-001	3.57230E+000	9	...........
	11	0.16	4.44959E-001	9.12377E-005	0.00000E+000	4.05970E-005	5.39641E-002	4.45015E-001	3.57230E+000	9	...........
	12	0.173333	4.55776E-001	9.08751E-005	0.00000E+000	4.14187E-005	5.39641E-002	4.55835E-001	3.57230E+000	9	...........
	13	0.186667	4.66200E-001	9.09209E-005	0.00000E+000	4.23873E-005	5.39641E-002	4.66254E-001	3.57230E+000	9	...........
	14	0.2	4.76256E-001	9.05594E-005	0.00000E+000	4.31295E-005	5.39641E-002	4.76314E-001	3.57230E+000	9	...........
	15	0.213333	4.85966E-001	9.10949E-005	0.00000E+000	4.42690E-005	5.39641E-002	4.86026E-001	3.57230E+000	9	...........
	16	0.226667	4.95369E-001	9.08157E-005	0.00000E+000	4.49873E-005	5.39641E-002	4.95433E-001	3.57230E+000	9	...........
	17	0.24	5.04473E-001	9.10168E-005	0.00000E+000	4.59155E-005	5.39641E-002	5.04541E-001	3.57230E+000	9	...........
	18	0.253333	5.13289E-001	9.15023E-005	0.00000E+000	4.69671E-005	5.39641E-002	5.13349E-001	3.57230E+000	9	...........
	19	0.266667	5.21831E-001	9.10564E-005	0.00000E+000	4.75161E-005	5.39641E-002	5.21901E-001	3.57230E+000	9	...........
	20	0.28	5.30143E-001	9.10085E-005	0.00000E+000	4.82475E-005	5.39641E-002	5.30196E-001	3.57230E+000	9	...........
	21	0.293333	5.38144E-001	9.10564E-005	0.00000E+000	4.90015E-005	5.39641E-002	5.38245E-001	3.57230E+000	9	...........
	22	0.306667	5.46002E-001	9.10231E-005	0.00000E+000	4.96988E-005	5.39641E-002	5.46122E-001	3.57230E+000	9	...........
	23	0.32	5.53651E-001	9.07647E-005	0.00000E+000	5.02520E-005	5.39641E-002	5.53775E-001	3.57230E+000	9	...........
	24	0.333333	5.61095E-001	9.09814E-005	0.00000E+000	5.10492E-005	5.39641E-002	5.61236E-001	3.57230E+000	9	...........
	25	0.346667	5.68421E-001	9.10231E-005	0.00000E+000	5.17395E-005	5.39641E-002	5.68516E-001	3.57230E+000	9	...........
	26	0.36	5.75522E-001	9.11387E-005	0.00000E+000	5.24523E-005	5.39641E-002	5.75641E-001	3.57230E+000	9	...........
	27	0.373333	5.82409E-001	9.10699E-005	0.00000E+000	5.30400E-005	5.39641E-002	5.82547E-001	3.57230E+000	9	...........
	28	0.386667	5.89192E-001	9.10303E-005	0.00000E+000	5.36343E-005	5.39641E-002	5.89333E-001	3.57230E+000	9	...........
	29	0.4	5.95810E-001	9.12710E-005	0.00000E+000	5.43802E-005	5.39641E-002	5.95920E-001	3.57230E+000	9	...........
	30	0.413333	6.02242E-001	9.10856E-005	0.00000E+000	5.48555E-005	5.39641E-002	6.02391E-001	3.57230E+000	9	...........
	31	0.426667	6.08541E-001	9.09449E-005	0.00000E+000	5.53437E-005	5.39641E-002	6.08666E-001	3.57230E+000	9	...........
	32	0.44	6.14754E-001	9.10564E-005	0.00000E+000	5.59773E-005	5.39641E-002	6.14858E-001	3.57230E+000	9	...........
	33	0.453333	6.20835E-001	9.07480E-005	0.00000E+000	5.63395E-005	5.39641E-002	6.20918E-001	3.57230E+000	9	...........
	34	0.466667	6.26749E-001	9.10303E-005	0.00000E+000	5.70532E-005	5.39641E-002	6.26857E-001	3.57230E+000	9	...........
	35	0.48	6.32544E-001	9.10408E-005	0.00000E+000	5.75873E-005	5.39641E-002	6.32642E-001	3.57230E+000	9	...........
	36	0.493333	6.38232E-001	9.11918E-005	0.00000E+000	5.82016E-005	5.39641E-002	6.38341E-001	3.57230E+000	9	...........
	37	0.506667	6.43831E-001	9.09095E-005	0.00000E+000	5.85303E-005	5.39641E-002	6.43936E-001	3.57230E+000	9	...........
	38	0.52	6.49285E-001	9.10491E-005	0.00000E+000	5.91168E-005	5.39641E-002	6.49381E-001	3.57230E+000	9	...........
	39	0.533333	6.54652E-001	9.11866E-005	0.00000E+000	5.96955E-005	5.39641E-002	6.54746E-001	3.57230E+000	9	...........
	40	0.546667	6.59898E-001	9.10970E-005	0.00000E+000	6.01147E-005	5.39641E-002	6.59998E-001	3.57230E+000	9	...........
	41	0.56	6.65065E-001	9.09043E-005	0.00000E+000	6.04572E-005	5.39641E-002	6.65159E-001	3.57230E+000	9	...........
	42	0.573333	6.70158E-001	9.11793E-005	0.00000E+000	6.11045E-005	5.39641E-002	6.70224E-001	3.57230E+000	9	...........
	43	0.586667	6.75140E-001	9.11293E-005	0.00000E+000	6.15250E-005	5.39641E-002	6.75203E-001	3.57230E+000	9	...........
	44	0.6	6.80059E-001	9.08803E-005	0.00000E+000	6.18040E-005	5.39641E-002	6.80133E-001	3.57230E+000	9	...........
	45	0.613333	6.84862E-001	9.10210E-005	0.00000E+000	6.23368E-005	5.39641E-002	6.84943E-001	3.57230E+000	9	...........
	46	0.626667	6.89575E-001	9.09855E-005	0.00000E+000	6.27414E-005	5.39641E-002	6.89689E-001	3.57230E+000	9	...........
	47	0.64	6.94244E-001	9.12283E-005	0.00000E+000	6.33347E-005	5.39641E-002	6.94355E-001	3.57230E+000	9	...........
	48	0.653333	6.98803E-001	9.11314E-005	0.00000E+000	6.36829E-005	5.39641E-002	6.98916E-001	3.57230E+000	9	...........
	49	0.666667	7.03306E-001	9.10918E-005	0.00000E+000	6.40655E-005	5.39641E-002	7.03430E-001	3.57230E+000	9	...........
	50	0.68	7.07734E-001	9.11137E-005	0.00000E+000	6.44843E-005	5.39641E-002	7.07870E-001	3.57230E+000	9	...........
	51	0.693333	7.12118E-001	9.08032E-005	0.00000E+000	6.46626E-005	5.39641E-002	7.12243E-001	3.57230E+000	9	...........
	52	0.706667	7.16429E-001	9.10897E-005	0.00000E+000	6.52593E-005	5.39641E-002	7.16566E-001	3.57230E+000	9	...........
	53	0.72	7.20714E-001	9.10637E-005	0.00000E+000	6.56309E-005	5.39641E-002	7.20809E-001	3.57230E+000	9	...........
	54	0.733333	7.24894E-001	9.11137E-005	0.00000E+000	6.60478E-005	5.39641E-002	7.25003E-001	3.57230E+000	9	...........
	55	0.746667	7.29000E-001	9.12137E-005	0.00000E+000	6.64948E-005	5.39641E-002	7.29121E-001	3.57230E+000	9	...........
	56	0.76	7.33072E-001	9.11470E-005	0.00000E+000	6.68174E-005	5.39641E-002	7.33198E-001	3.57230E+000	9	...........
	57	0.773333	7.37099E-001	9.08397E-005	0.00000E+000	6.69578E-005	5.39641E-002	7.37215E-001	3.57230E+000	9	...........
	58	0.786667	7.41049E-001	9.11814E-005	0.00000E+000	6.75699E-005	5.39641E-002	7.41183E-001	3.57230E+000	9	...........
	59	0.8	7.44940E-001	9.10929E-005	0.00000E+000	6.78588E-005	5.39641E-002	7.45091E-001	3.57230E+000	9	...........
	60	0.813333	7.48768E-001	9.07949E-005	0.00000E+000	6.79843E-005	5.39641E-002	7.48915E-001	3.57230E+000	9	...........
	61	0.826667	7.52543E-001	9.09137E-005	0.00000E+000	6.84165E-005	5.39641E-002	7.52701E-001	3.57230E+000	9	...........
	62	0.84	7.56322E-001	9.10241E-005	0.00000E+000	6.88435E-005	5.39641E-002	7.56446E-001	3.57230E+000	9	...........
	63	0.853333	7.59972E-001	9.11272E-005	0.00000E+000	6.92542E-005	5.39641E-002	7.60097E-001	3.57230E+000	9	...........
	64	0.866667	7.63614E-001	9.10387E-005	0.00000E+000	6.95184E-005	5.39641E-002	7.63736E-001	3.57230E+000	9	...........
	65	0.88	7.67176E-001	9.13117E-005	0.00000E+000	7.00521E-005	5.39641E-002	7.67341E-001	3.57230E+000	9	...........
	66	0.893333	7.70750E-001	9.12669E-005	0.00000E+000	7.03439E-005	5.39641E-002	7.70875E-001	3.57230E+000	9	...........
	67	0.906667	7.74246E-001	9.10012E-005	0.00000E+000	7.04573E-005	5.39641E-002	7.74359E-001	3.57230E+000	9	...........
	68	0.92	7.77680E-001	9.11189E-005	0.00000E+000	7.08614E-005	5.39641E-002	7.77810E-001	3.57230E+000	9	...........
	69	0.933333	7.81100E-001	9.11470E-005	0.00000E+000	7.11950E-005	5.39641E-002	7.81244E-001	3.57230E+000	9	...........
	70	0.946667	7.84490E-001	9.11262E-005	0.00000E+000	7.14876E-005	5.39641E-002	7.84614E-001	3.57271E+000	9	...........
	71	0.96	7.87809E-001	9.12273E-005	0.00000E+000	7.18696E-005	5.39641E-002	7.87940E-001	3.57340E+000	9	...........
	72	0.97333	7.91084E-001	9.11418E-005	0.00000E+000	7.21008E-005	5.39641E-002	7.91240E-001	3.57340E+000	9	...........
	73	0.98667	7.94413E-001	9.10710E-005	0.00000E+000	7.23479E-005	5.39641E-002	7.94541E-001	3.57340E+000	9	...........
	74	1	7.97634E-001	9.08449E-005	0.00000E+000	7.24609E-005	5.39641E-002	7.97768E-001	3.57340E+000	9	...........
	75	1.01333	8.00800E-001	9.11356E-005	0.00000E+000	7.29814E-005	5.39641E-002	8.00933E-001	3.57340E+000	9	...........
	76	1.02667	8.03935E-001	9.09230E-005	0.00000E+000	7.30962E-005	5.39641E-002	8.04073E-001	3.57340E+000	9	...........
	77	1.04	8.07053E-001	9.11325E-005	0.00000E+000	7.35488E-005	5.39641E-002	8.07200E-001	3.57340E+000	9	...........
	78	1.05333	8.10136E-001	9.10543E-005	0.00000E+000	7.37664E-005	5.39641E-002	8.10266E-001	3.57340E+000	9	...........
	79	1.06667	8.13162E-001	9.12221E-005	0.00000E+000	7.41783E-005	5.39641E-002	8.13293E-001	3.57340E+000	9	...........
	80	1.08	8.16166E-001	9.10324E-005	0.00000E+000	7.42975E-005	5.39641E-002	8.16313E-001	3.57340E+000	9	...........
	81	1.09333	8.19154E-001	9.11231E-005	0.00000E+000	7.46439E-005	5.39641E-002	8.19292E-001	3.57340E+000	9	...........
	82	1.10667	8.22109E-001	9.10981E-005	0.00000E+000	7.48926E-005	5.39641E-002	8.22236E-001	3.57340E+000	9	...........
	83	1.12	8.25003E-001	9.09460E-005	0.00000E+000	7.50306E-005	5.39641E-002	8.25150E-001	3.57340E+000	9	...........
	84	1.13333	8.27880E-001	9.11210E-005	0.00000E+000	7.54372E-005	5.39641E-002	8.28001E-001	3.57340E+000	9	...........
	85	1.14667	8.30707E-001	9.12721E-005	0.00000E+000	7.58204E-005	5.39641E-002	8.30858E-001	3.57340E+000	9	...........
	86	1.16	8.33504E-001	9.13481E-005	0.00000E+000	7.61391E-005	5.39641E-002	8.33643E-001	3.57340E+000	9	...........
	87	1.17333	8.36264E-001	9.11585E-005	0.00000E+000	7.62326E-005	5.39641E-002	8.36417E-001	3.57340E+000	9	...........
	88	1.18667	8.39004E-001	9.08678E-005	0.00000E+000	7.62385E-005	5.39641E-002	8.39171E-001	3.57340E+000	9	...........
	89	1.2	8.41746E-001	9.08928E-005	0.00000E+000	7.65087E-005	5.39641E-002	8.41897E-001	3.57340E+000	9	...........
	90	1.21333	8.44449E-001	9.10981E-005	0.00000E+000	7.69276E-005	5.39641E-002	8.44620E-001	3.57340E+000	9	...........
	91	1.22667	8.47132E-001	9.11533E-005	0.00000E+000	7.72189E-005	5.39641E-002	8.47293E-001	3.57340E+000	9	...........
	92	1.24	8.49754E-001	9.10251E-005	0.00000E+000	7.73490E-005	5.39641E-002	8.49916E-001	3.57340E+000	9	...........
	93	1.25333	8.52354E-001	9.11710E-005	0.00000E+000	7.77100E-005	5.39641E-002	8.52516E-001	3.57340E+000	9	...........
	94	1.26667	8.54955E-001	9.09220E-005	0.00000E+000	7.77342E-005	5.39641E-002	8.55109E-001	3.57340E+000	9	...........
	95	1.28	8.57498E-001	9.10845E-005	0.00000E+000	7.81048E-005	5.39641E-002	8.57683E-001	3.57340E+000	9	...........
	96	1.29333	8.60064E-001	9.13148E-005	0.00000E+000	7.85366E-005	5.39641E-002	8.60238E-001	3.57340E+000	9	...........
	97	1.30667	8.62570E-001	9.11950E-005	0.00000E+000	7.86621E-005	5.39641E-002	8.62744E-001	3.57340E+000	9	...........
	98	1.32	8.65016E-001	9.12460E-005	0.00000E+000	7.89293E-005	5.39641E-002	8.65191E-001	3.57340E+000	9	...........
	99	1.33333	8.67503E-001	9.10199E-005	0.00000E+000	7.89601E-005	5.39641E-002	8.67686E-001	3.57340E+000	9	...........
	100	1.34667	8.69987E-001	9.12346E-005	0.00000E+000	7.93729E-005	5.39641E-002	8.70147E-001	3.57340E+000	9	...........
	101	1.36	8.72395E-001	9.08584E-005	0.00000E+000	7.92644E-005	5.39641E-002	8.72554E-001	3.57340E+000	9	...........
	102	1.37333	8.74779E-001	9.10439E-005	0.00000E+000	7.96432E-005	5.39641E-002	8.74949E-001	3.57340E+000	9	...........
	103	1.38667	8.77153E-001	9.09314E-005	0.00000E+000	7.97607E-005	5.39641E-002	8.77293E-001	3.57340E+000	9	...........
	104	1.4	8.79490E-001	9.08314E-005	0.00000E+000	7.98853E-005	5.39641E-002	8.79642E-001	3.57340E+000	9	...........
	105	1.41333	8.81817E-001	9.10783E-005	0.00000E+000	8.03144E-005	5.39641E-002	8.81983E-001	3.57340E+000	9	...........
	106	1.42667	8.84149E-001	9.13335E-005	0.00000E+000	8.07525E-005	5.39641E-002	8.84310E-001	3.57340E+000	9	...........
	107	1.44	8.86418E-001	9.10418E-005	0.00000E+000	8.07011E-005	5.39641E-002	8.86603E-001	3.57340E+000	9	...........
	108	1.45333	8.88671E-001	9.11043E-005	0.00000E+000	8.09618E-005	5.39641E-002	8.88839E-001	3.57340E+000	9	...........
	109	1.46667	8.90886E-001	9.10564E-005	0.00000E+000	8.11208E-005	5.39641E-002	8.91056E-001	3.57340E+000	9	...........
	110	1.48	8.93077E-001	9.09512E-005	0.00000E+000	8.12264E-005	5.39641E-002	8.93263E-001	3.57340E+000	9	...........
	111	1.49333	8.95276E-001	9.12596E-005	0.00000E+000	8.17025E-005	5.39641E-002	8.95464E-001	3.57340E+000	9	...........
	112	1.50667	8.97451E-001	9.06980E-005	0.00000E+000	8.13970E-005	5.39641E-002	8.97624E-001	3.57340E+000	9	...........
	113	1.52	8.99576E-001	9.11929E-005	0.00000E+000	8.20350E-005	5.39641E-002	8.99762E-001	3.57340E+000	9	...........
	114	1.53333	9.01710E-001	9.11293E-005	0.00000E+000	8.21722E-005	5.39641E-002	9.01869E-001	3.57340E+000	9	...........
	115	1.54667	9.03798E-001	9.11679E-005	0.00000E+000	8.23973E-005	5.39641E-002	9.03979E-001	3.57340E+000	9	...........
	116	1.56	9.05859E-001	9.11231E-005	0.00000E+000	8.25446E-005	5.39641E-002	9.06054E-001	3.57340E+000	9	...........
	117	1.57333	9.07947E-001	9.08970E-005	0.00000E+000	8.25297E-005	5.39641E-002	9.08114E-001	3.57340E+000	9	...........
	118	1.58667	9.09989E-001	9.11939E-005	0.00000E+000	8.29855E-005	5.39641E-002	9.10152E-001	3.57340E+000	9	...........
	119	1.6	9.11970E-001	9.11689E-005	0.00000E+000	8.31433E-005	5.39641E-002	9.12153E-001	3.57340E+000	9	...........
	120	1.61333	9.13961E-001	9.10762E-005	0.00000E+000	8.32400E-005	5.39641E-002	9.14150E-001	3.57340E+000	9	...........
	121	1.62667	9.15914E-001	9.10053E-005	0.00000E+000	8.33530E-005	5.39641E-002	9.16122E-001	3.57340E+000	9	...........
	122	1.64	9.17869E-001	9.13460E-005	0.00000E+000	8.38437E-005	5.39641E-002	9.18059E-001	3.57340E+000	9	...........
	123	1.65333	9.19793E-001	9.10095E-005	0.00000E+000	8.37099E-005	5.39641E-002	9.20020E-001	3.57340E+000	9	...........
	124	1.66667	9.21787E-001	9.10199E-005	0.00000E+000	8.39010E-005	5.39641E-002	9.21930E-001	3.57340E+000	9	...........
	125	1.68	9.23693E-001	9.09803E-005	0.00000E+000	8.40379E-005	5.39641E-002	9.23835E-001	3.57340E+000	9	...........
	126	1.69333	9.25544E-001	9.10116E-005	0.00000E+000	8.42352E-005	5.39641E-002	9.25689E-001	3.57340E+000	9	...........
	127	1.70667	9.27409E-001	9.11429E-005	0.00000E+000	8.45267E-005	5.39641E-002	9.27585E-001	3.57340E+000	9	...........
	128	1.72	9.29236E-001	9.12429E-005	0.00000E+000	8.47862E-005	5.39641E-002	9.29403E-001	3.57340E+000	9	...........
	129	1.73333	9.31036E-001	9.10585E-005	0.00000E+000	8.47787E-005	5.39641E-002	9.31202E-001	3.57340E+000	9	...........
	130	1.74667	9.32792E-001	9.11970E-005	0.00000E+000	8.50679E-005	5.39641E-002	9.33000E-001	3.57340E+000	9	...........
	131	1.76	9.34613E-001	9.14023E-005	0.00000E+000	8.54258E-005	5.39641E-002	9.34802E-001	3.57340E+000	9	...........
	132	1.77333	9.36365E-001	9.11231E-005	0.00000E+000	8.53245E-005	5.39641E-002	9.36562E-001	3.57340E+000	9	...........
	133	1.78667	9.38119E-001	9.10064E-005	0.00000E+000	8.53749E-005	5.39641E-002	9.38299E-001	3.57340E+000	9	...........
	134	1.8	9.39840E-001	9.13533E-005	0.00000E+000	8.58575E-005	5.39641E-002	9.40034E-001	3.57340E+000	9	...........
	135	1.81333	9.41556E-001	9.11887E-005	0.00000E+000	8.58593E-005	5.39641E-002	9.41720E-001	3.57340E+000	9	...........
	136	1.82667	9.43265E-001	9.12033E-005	0.00000E+000	8.60289E-005	5.39641E-002	9.43424E-001	3.57340E+000	9	...........
	137	1.84	9.44942E-001	9.12033E-005	0.00000E+000	8.61818E-005	5.39641E-002	9.45109E-001	3.57340E+000	9	...........
	138	1.85333	9.46628E-001	9.13804E-005	0.00000E+000	8.65032E-005	5.39641E-002	9.46784E-001	3.57340E+000	9	...........
	139	1.86667	9.48303E-001	9.10106E-005	0.00000E+000	8.63056E-005	5.39641E-002	9.48429E-001	3.57340E+000	9	...........
	140	1.88	9.49916E-001	9.12033E-005	0.00000E+000	8.66355E-005	5.39641E-002	9.50061E-001	3.57340E+000	9	...........
	141	1.89333	9.51513E-001	9.10272E-005	0.00000E+000	8.66136E-005	5.39641E-002	9.51658E-001	3.57340E+000	9	...........
	142	1.90667	9.53132E-001	9.08845E-005	0.00000E+000	8.66249E-005	5.39641E-002	9.53266E-001	3.57340E+000	9	...........
	143	1.92	9.54717E-001	9.10762E-005	0.00000E+000	8.69520E-005	5.39641E-002	9.54854E-001	3.57340E+000	9	...........
	144	1.93333	9.56280E-001	9.10897E-005	0.00000E+000	8.71073E-005	5.39641E-002	9.56441E-001	3.57340E+000	9	...........
	145	1.94667	9.57847E-001	9.12231E-005	0.00000E+000	8.73777E-005	5.39641E-002	9.58001E-001	3.57288E+000	9	...........
	146	1.96	9.59386E-001	9.11512E-005	0.00000E+000	8.74492E-005	5.39641E-002	9.59551E-001	3.57200E+000	9	...........
	147	1.97333	9.60898E-001	9.09189E-005	0.00000E+000	8.73637E-005	5.39641E-002	9.61071E-001	3.57200E+000	9	...........
	148	1.98667	9.62385E-001	9.09689E-005	0.00000E+000	8.75470E-005	5.39641E-002	9.62556E-001	3.57200E+000	9	...........
	149	2	9.63883E-001	9.12366E-005	0.00000E+000	8.79414E-005	5.39641E-002	9.64033E-001	3.57200E+000	9	...........
	150	2.01333	9.65394E-001	9.11804E-005	0.00000E+000	8.80250E-005	5.39641E-002	9.65535E-001	3.57200E+000	9	...........
	151	2.02667	9.66864E-001	9.11648E-005	0.00000E+000	8.81439E-005	5.39641E-002	9.67000E-001	3.57200E+000	9	...........
	152	2.04	9.68304E-001	9.11345E-005	0.00000E+000	8.82460E-005	5.39641E-002	9.68438E-001	3.57200E+000	9	...........
	153	2.05333	9.69741E-001	9.08689E-005	0.00000E+000	8.81193E-005	5.39641E-002	9.69880E-001	3.57200E+000	9	...........
	154	2.06667	9.71154E-001	9.11335E-005	0.00000E+000	8.85047E-005	5.39641E-002	9.71330E-001	3.57200E+000	9	...........
	155	2.08	9.72587E-001	9.12887E-005	0.00000E+000	8.87862E-005	5.39641E-002	9.72756E-001	3.57200E+000	9	...........
	156	2.09333	9.74001E-001	9.12689E-005	0.00000E+000	8.88961E-005	5.39641E-002	9.74165E-001	3.57200E+000	9	...........
	157	2.10667	9.75406E-001	9.13117E-005	0.00000E+000	8.90659E-005	5.39641E-002	9.75555E-001	3.57200E+000	9	...........
	158	2.12	9.76762E-001	9.10918E-005	0.00000E+000	8.89751E-005	5.39641E-002	9.76951E-001	3.57200E+000	9	...........
	159	2.13333	9.78120E-001	9.11512E-005	0.00000E+000	8.91568E-005	5.39641E-002	9.78311E-001	3.57200E+000	9	...........
	160	2.14667	9.79488E-001	9.10793E-005	0.00000E+000	8.92111E-005	5.39641E-002	9.79641E-001	3.57200E+000	9	...........
	161	2.16	9.80805E-001	9.11158E-005	0.00000E+000	8.93668E-005	5.39641E-002	9.80953E-001	3.57200E+000	9	...........
	162	2.17333	9.82143E-001	9.11679E-005	0.00000E+000	8.95399E-005	5.39641E-002	9.82288E-001	3.57200E+000	9	...........
	163	2.18667	9.83456E-001	9.12346E-005	0.00000E+000	8.97252E-005	5.39641E-002	9.83601E-001	3.57200E+000	9	...........
	164	2.2	9.84747E-001	9.09814E-005	0.00000E+000	8.95936E-005	5.39641E-002	9.84922E-001	3.57200E+000	9	...........
	165	2.21333	9.86040E-001	9.11481E-005	0.00000E+000	8.98756E-005	5.39641E-002	9.86189E-001	3.57200E+000	9	...........
	166	2.22667	9.87280E-001	9.11981E-005	0.00000E+000	9.00381E-005	5.39641E-002	9.87481E-001	3.57200E+000	9	...........
	167	2.24	9.88568E-001	9.10095E-005	0.00000E+000	8.99691E-005	5.39641E-002	9.88729E-001	3.57200E+000	9	...........
	168	2.25333	9.89801E-001	9.12262E-005	0.00000E+000	9.02958E-005	5.39641E-002	9.89976E-001	3.57200E+000	9	...........
	169	2.26667	9.91038E-001	9.10720E-005	0.00000E+000	9.02558E-005	5.39641E-002	9.91225E-001	3.57200E+000	9	...........
	170	2.28	9.92253E-001	9.09574E-005	0.00000E+000	9.02528E-005	5.39641E-002	9.92424E-001	3.57200E+000	9	...........
	171	2.29333	9.93435E-001	9.13981E-005	0.00000E+000	9.07981E-005	5.39641E-002	9.93645E-001	3.57200E+000	9	...........
	172	2.30667	9.94645E-001	9.11127E-005	0.00000E+000	9.06248E-005	5.39641E-002	9.94850E-001	3.57200E+000	9	...........
	173	2.32	9.95854E-001	9.11002E-005	0.00000E+000	9.07225E-005	5.39641E-002	9.96031E-001	3.57200E+000	9	...........
	174	2.33333	9.97021E-001	9.11074E-005	0.00000E+000	9.08361E-005	5.39641E-002	9.97235E-001	3.57200E+000	9	...........
	175	2.34667	9.98222E-001	9.10231E-005	0.00000E+000	9.08612E-005	5.39641E-002	9.98422E-001	3.57200E+000	9	...........
	176	2.36	9.99373E-001	9.09949E-005	0.00000E+000	9.09379E-005	5.39641E-002	9.99551E-001	3.57200E+000	9	...........
	177	2.36167	1.00004E+000	9.05542E-005	0.00000E+000	9.05575E-005	5.39641E-002	1.00020E+000	3.57200E+000	9	...........
STARTTIMEOFFSET	QUANT	1052.48	Start Time Offset (s)
