EXPLAIN
TAG	PWR800_CHARGE
TITLE	LABEL	PWR Cyclic Charge Discharge (Cell) - Charge Step	Test &Identifier
DATE	LABEL	10-7-2017	Date
TIME	LABEL	15:41:19	Time
NOTES	NOTES	3	&Notes...
	supercap test cell
	0.9mg
	6M KOH
PSTAT	PSTAT	IFC5000-01520	Potentiostat
CAPACITY	QUANT	1.00000E-003	Capacity (A-hr)
CELLTYPE	SELECTOR	1	&Cell Type
WORKINGCONNECTION	SELECTOR	0	&Working Lead
MAXCHARGETIME	VARIABLEANDUNITS	1.00000E+002	s	1.00000E+002	second(s)	Max &Charge Time
CHARGECURRENT	QUANT	9.00000E-005	&Charge Current (A) 
VOLTAGEFINISH	TWOPARAM	F	1.00000E-003	3.60000E+003	&Voltage Finish	 I (A) < 	Max Time(s)
SAMPLETIME	QUANT	1.00000E-002	Sa&mple Period (s)
CHARGESTOPAT1	MULTIPARAM	4	1.00000E+000	Charge Stop At &1	Voltage > Limit	V
CHARGESTOPAT2	MULTIPARAM	0	0.00000E+000	Charge Stop At &2	None	N/A
AESBHCSELECTOR	TOGGLE	F	Save Both Half Cells
IRCOMP	TOGGLE	F	IR &Measure
EOC	QUANT	0	Open Circuit (V)
SEQUENCER	TOGGLE	TRUE	Run as Sequence
PSTATMODEL	IQUANT	53	Pstat Model
PSTATSECTION	LABEL	IFC5000-01520	Pstat Section
PSTATSERIALNO	LABEL	01520	Pstat Serial Number
CTRLMODE	IQUANT	0	Control Mode
ELECTROMETER	IQUANT	1	RE=0 or CS=1
IESTAB	IQUANT	0	I/E Stability
CASPEED	IQUANT	4	Control Amp Speed
CONVENTION	IQUANT	1	Current Convention
ICHRANGE	IQUANT	2	Ich Range
ICHRANGEMODE	TOGGLE	T	Ich Auto Range
ICHOFFSETENABLE	TOGGLE	F	Ich Offset Enable
ICHOFFSET	QUANT	0	Ich Offset (V)
ICHFILTER	IQUANT	1	Ich Filter
VCHRANGE	IQUANT	2	Vch Range
VCHRANGEMODE	TOGGLE	T	Vch Auto Range
VCHOFFSETENABLE	TOGGLE	F	Vch Offset Enable
VCHOFFSET	QUANT	0	Vch Offset (V)
VCHFILTER	IQUANT	1	Vch Filter
IERANGELOWERLIMIT	IQUANT	9	I/E Range Lower Limit
IERANGEMODE	TOGGLE	F	I/E AutoRange
IERANGE	IQUANT	9	I/E Range
ACHSELECT	IQUANT	1	Ach Select
ACHRANGE	IQUANT	2	Ach Range
ACHOFFSETENABLE	TOGGLE	F	Ach Offset Enable
ACHOFFSET	QUANT	0	Ach Offset (V)
ACHFILTER	IQUANT	1	Ach Filter
CABLEID	IQUANT	14	Cable ID
DCCALDATE	LABEL	5-7-2017	DC Calibration Date
ACCALDATE	LABEL	12/3/2015	AC Calibration Date
FRAMEWORKVERSION	QUANT	7.01	Framework Version
INSTRUMENTVERSION	LABEL	4.00	Instrument Version
CURVE	TABLE	170
	Pt	T	Vf	Im	Vu	Pwr	Sig	Ach	Temp	IERange	Over
	#	s	V	A	V	W	V	V	deg C	#	bits
	0	0.013333	2.76134E-001	9.08178E-005	0.00000E+000	2.50779E-005	5.39641E-002	2.76192E-001	3.57290E+000	9	...........
	1	0.026667	2.95748E-001	9.08730E-005	0.00000E+000	2.68755E-005	5.39641E-002	2.95788E-001	3.57290E+000	9	...........
	2	0.04	3.14008E-001	9.09960E-005	0.00000E+000	2.85734E-005	5.39641E-002	3.14054E-001	3.57290E+000	9	...........
	3	0.053333	3.31141E-001	9.09595E-005	0.00000E+000	3.01204E-005	5.39641E-002	3.31185E-001	3.57290E+000	9	...........
	4	0.066667	3.47272E-001	9.08793E-005	0.00000E+000	3.15598E-005	5.39641E-002	3.47320E-001	3.57290E+000	9	...........
	5	0.08	3.62540E-001	9.09178E-005	0.00000E+000	3.29614E-005	5.39641E-002	3.62587E-001	3.57290E+000	9	...........
	6	0.093333	3.77025E-001	9.11689E-005	0.00000E+000	3.43730E-005	5.39641E-002	3.77072E-001	3.57290E+000	9	...........
	7	0.106667	3.90808E-001	9.09845E-005	0.00000E+000	3.55575E-005	5.39641E-002	3.90856E-001	3.57290E+000	9	...........
	8	0.12	4.03955E-001	9.07605E-005	0.00000E+000	3.66631E-005	5.39641E-002	4.04009E-001	3.57290E+000	9	...........
	9	0.133333	4.16532E-001	9.08105E-005	0.00000E+000	3.78255E-005	5.39641E-002	4.16589E-001	3.57290E+000	9	...........
	10	0.146667	4.28594E-001	9.08084E-005	0.00000E+000	3.89200E-005	5.39641E-002	4.28649E-001	3.57290E+000	9	...........
	11	0.16	4.40152E-001	9.10147E-005	0.00000E+000	4.00604E-005	5.39641E-002	4.40218E-001	3.57290E+000	9	...........
	12	0.173333	4.51267E-001	9.10199E-005	0.00000E+000	4.10743E-005	5.39641E-002	4.51330E-001	3.57290E+000	9	...........
	13	0.186667	4.61969E-001	9.09647E-005	0.00000E+000	4.20229E-005	5.39641E-002	4.62034E-001	3.57290E+000	9	...........
	14	0.2	4.72284E-001	9.09574E-005	0.00000E+000	4.29578E-005	5.39641E-002	4.72348E-001	3.57290E+000	9	...........
	15	0.213333	4.82237E-001	9.08418E-005	0.00000E+000	4.38073E-005	5.39641E-002	4.82297E-001	3.57290E+000	9	...........
	16	0.226667	4.91863E-001	9.10356E-005	0.00000E+000	4.47770E-005	5.39641E-002	4.91928E-001	3.57290E+000	9	...........
	17	0.24	5.01172E-001	9.08501E-005	0.00000E+000	4.55316E-005	5.39641E-002	5.01237E-001	3.57290E+000	9	...........
	18	0.253333	5.10189E-001	9.08918E-005	0.00000E+000	4.63720E-005	5.39641E-002	5.10257E-001	3.57290E+000	9	...........
	19	0.266667	5.18933E-001	9.08939E-005	0.00000E+000	4.71678E-005	5.39641E-002	5.19003E-001	3.57290E+000	9	...........
	20	0.28	5.27408E-001	9.08709E-005	0.00000E+000	4.79260E-005	5.39641E-002	5.27480E-001	3.57290E+000	9	...........
	21	0.293333	5.35589E-001	9.09345E-005	0.00000E+000	4.87035E-005	5.39641E-002	5.35664E-001	3.57290E+000	9	...........
	22	0.306667	5.43554E-001	9.08105E-005	0.00000E+000	4.93604E-005	5.39641E-002	5.43677E-001	3.57290E+000	9	...........
	23	0.32	5.51338E-001	9.09439E-005	0.00000E+000	5.01408E-005	5.39641E-002	5.51491E-001	3.57290E+000	9	...........
	24	0.333333	5.58917E-001	9.08522E-005	0.00000E+000	5.07788E-005	5.39641E-002	5.59070E-001	3.57290E+000	9	...........
	25	0.346667	5.66348E-001	9.08584E-005	0.00000E+000	5.14575E-005	5.39641E-002	5.66494E-001	3.57290E+000	9	...........
	26	0.36	5.73536E-001	9.10856E-005	0.00000E+000	5.22408E-005	5.39641E-002	5.73663E-001	3.57290E+000	9	...........
	27	0.373333	5.80558E-001	9.10397E-005	0.00000E+000	5.28539E-005	5.39641E-002	5.80708E-001	3.57290E+000	9	...........
	28	0.386667	5.87421E-001	9.08647E-005	0.00000E+000	5.33758E-005	5.39641E-002	5.87575E-001	3.57290E+000	9	...........
	29	0.4	5.94174E-001	9.09241E-005	0.00000E+000	5.40247E-005	5.39641E-002	5.94306E-001	3.57290E+000	9	...........
	30	0.413333	6.00695E-001	9.09501E-005	0.00000E+000	5.46333E-005	5.39641E-002	6.00863E-001	3.57290E+000	9	...........
	31	0.426667	6.07111E-001	9.11252E-005	0.00000E+000	5.53231E-005	5.39641E-002	6.07276E-001	3.57290E+000	9	...........
	32	0.44	6.13411E-001	9.09855E-005	0.00000E+000	5.58115E-005	5.39641E-002	6.13567E-001	3.57290E+000	9	...........
	33	0.453333	6.19595E-001	9.10814E-005	0.00000E+000	5.64336E-005	5.39641E-002	6.19711E-001	3.57290E+000	9	...........
	34	0.466667	6.25576E-001	9.12366E-005	0.00000E+000	5.70755E-005	5.39641E-002	6.25714E-001	3.57290E+000	9	...........
	35	0.48	6.31442E-001	9.11012E-005	0.00000E+000	5.75252E-005	5.39641E-002	6.31588E-001	3.57290E+000	9	...........
	36	0.493333	6.37203E-001	9.11522E-005	0.00000E+000	5.80825E-005	5.39641E-002	6.37362E-001	3.57290E+000	9	...........
	37	0.506667	6.42895E-001	9.08366E-005	0.00000E+000	5.83984E-005	5.39641E-002	6.43031E-001	3.57290E+000	9	...........
	38	0.52	6.48459E-001	9.09376E-005	0.00000E+000	5.89693E-005	5.39641E-002	6.48584E-001	3.57290E+000	9	...........
	39	0.533333	6.53902E-001	9.09710E-005	0.00000E+000	5.94861E-005	5.39641E-002	6.54037E-001	3.57290E+000	9	...........
	40	0.546667	6.59240E-001	9.10189E-005	0.00000E+000	6.00033E-005	5.39641E-002	6.59356E-001	3.57290E+000	9	...........
	41	0.56	6.64495E-001	9.12231E-005	0.00000E+000	6.06172E-005	5.39641E-002	6.64617E-001	3.57290E+000	9	...........
	42	0.573333	6.69683E-001	9.10845E-005	0.00000E+000	6.09977E-005	5.39641E-002	6.69778E-001	3.57290E+000	9	...........
	43	0.586667	6.74758E-001	9.08678E-005	0.00000E+000	6.13138E-005	5.39641E-002	6.74827E-001	3.57290E+000	9	...........
	44	0.6	6.79741E-001	9.09897E-005	0.00000E+000	6.18495E-005	5.39641E-002	6.79808E-001	3.57290E+000	9	...........
	45	0.613333	6.84644E-001	9.09053E-005	0.00000E+000	6.22378E-005	5.39641E-002	6.84727E-001	3.57290E+000	9	...........
	46	0.626667	6.89486E-001	9.10418E-005	0.00000E+000	6.27721E-005	5.39641E-002	6.89565E-001	3.57290E+000	9	...........
	47	0.64	6.94232E-001	9.13283E-005	0.00000E+000	6.34030E-005	5.39641E-002	6.94318E-001	3.57290E+000	9	...........
	48	0.653333	6.98863E-001	9.09626E-005	0.00000E+000	6.35705E-005	5.39641E-002	6.98985E-001	3.57290E+000	9	...........
	49	0.666667	7.03490E-001	9.11804E-005	0.00000E+000	6.41445E-005	5.39641E-002	7.03620E-001	3.57290E+000	9	...........
	50	0.68	7.08013E-001	9.09324E-005	0.00000E+000	6.43813E-005	5.39641E-002	7.08171E-001	3.57378E+000	9	...........
	51	0.693333	7.12460E-001	9.09876E-005	0.00000E+000	6.48250E-005	5.39641E-002	7.12618E-001	3.57390E+000	9	...........
	52	0.706667	7.16891E-001	9.12408E-005	0.00000E+000	6.54098E-005	5.39641E-002	7.17040E-001	3.57390E+000	9	...........
	53	0.72	7.21253E-001	9.10408E-005	0.00000E+000	6.56634E-005	5.39641E-002	7.21380E-001	3.57390E+000	9	...........
	54	0.733333	7.25521E-001	9.10449E-005	0.00000E+000	6.60550E-005	5.39641E-002	7.25639E-001	3.57390E+000	9	...........
	55	0.746667	7.29720E-001	9.09366E-005	0.00000E+000	6.63582E-005	5.39641E-002	7.29880E-001	3.57390E+000	9	...........
	56	0.76	7.33893E-001	9.08876E-005	0.00000E+000	6.67018E-005	5.39641E-002	7.34028E-001	3.57390E+000	9	...........
	57	0.773333	7.37958E-001	9.09741E-005	0.00000E+000	6.71350E-005	5.39641E-002	7.38129E-001	3.57390E+000	9	...........
	58	0.786667	7.42034E-001	9.09876E-005	0.00000E+000	6.75160E-005	5.39641E-002	7.42200E-001	3.57390E+000	9	...........
	59	0.8	7.46031E-001	9.09908E-005	0.00000E+000	6.78819E-005	5.39641E-002	7.46184E-001	3.57390E+000	9	...........
	60	0.813333	7.49967E-001	9.10022E-005	0.00000E+000	6.82487E-005	5.39641E-002	7.50105E-001	3.57390E+000	9	...........
	61	0.826667	7.53849E-001	9.09209E-005	0.00000E+000	6.85406E-005	5.39641E-002	7.54001E-001	3.57390E+000	9	...........
	62	0.84	7.57666E-001	9.06865E-005	0.00000E+000	6.87101E-005	5.39641E-002	7.57814E-001	3.57390E+000	9	...........
	63	0.853333	7.61455E-001	9.11523E-005	0.00000E+000	6.94084E-005	5.39641E-002	7.61585E-001	3.57390E+000	9	...........
	64	0.866667	7.65189E-001	9.11991E-005	0.00000E+000	6.97846E-005	5.39641E-002	7.65340E-001	3.57390E+000	9	...........
	65	0.88	7.68899E-001	9.09876E-005	0.00000E+000	6.99603E-005	5.39641E-002	7.69076E-001	3.57390E+000	9	...........
	66	0.893333	7.72551E-001	9.10658E-005	0.00000E+000	7.03529E-005	5.39641E-002	7.72694E-001	3.57390E+000	9	...........
	67	0.906667	7.76170E-001	9.13106E-005	0.00000E+000	7.08725E-005	5.39641E-002	7.76306E-001	3.57390E+000	9	...........
	68	0.92	7.79755E-001	9.08637E-005	0.00000E+000	7.08514E-005	5.39641E-002	7.79891E-001	3.57390E+000	9	...........
	69	0.933333	7.83293E-001	9.11658E-005	0.00000E+000	7.14096E-005	5.39641E-002	7.83426E-001	3.57390E+000	9	...........
	70	0.946667	7.86762E-001	9.10491E-005	0.00000E+000	7.16340E-005	5.39641E-002	7.86910E-001	3.57390E+000	9	...........
	71	0.96	7.90191E-001	9.12627E-005	0.00000E+000	7.21149E-005	5.39641E-002	7.90350E-001	3.57390E+000	9	...........
	72	0.97333	7.93616E-001	9.10606E-005	0.00000E+000	7.22671E-005	5.39641E-002	7.93785E-001	3.57390E+000	9	...........
	73	0.98667	7.96983E-001	9.08689E-005	0.00000E+000	7.24210E-005	5.39641E-002	7.97107E-001	3.57390E+000	9	...........
	74	1	8.00298E-001	9.10741E-005	0.00000E+000	7.28865E-005	5.39641E-002	8.00445E-001	3.57390E+000	9	...........
	75	1.01333	8.03610E-001	9.11710E-005	0.00000E+000	7.32659E-005	5.39641E-002	8.03760E-001	3.57390E+000	9	...........
	76	1.02667	8.06861E-001	9.10043E-005	0.00000E+000	7.34278E-005	5.39641E-002	8.07043E-001	3.57390E+000	9	...........
	77	1.04	8.10056E-001	9.10408E-005	0.00000E+000	7.37481E-005	5.39641E-002	8.10217E-001	3.57390E+000	9	...........
	78	1.05333	8.13224E-001	9.11522E-005	0.00000E+000	7.41272E-005	5.39641E-002	8.13406E-001	3.57390E+000	9	...........
	79	1.06667	8.16359E-001	9.09908E-005	0.00000E+000	7.42812E-005	5.39641E-002	8.16567E-001	3.57390E+000	9	...........
	80	1.08	8.19538E-001	9.10074E-005	0.00000E+000	7.45841E-005	5.39641E-002	8.19723E-001	3.57390E+000	9	...........
	81	1.09333	8.22613E-001	9.12314E-005	0.00000E+000	7.50482E-005	5.39641E-002	8.22790E-001	3.57390E+000	9	...........
	82	1.10667	8.25662E-001	9.08449E-005	0.00000E+000	7.50071E-005	5.39641E-002	8.25837E-001	3.57390E+000	9	...........
	83	1.12	8.28684E-001	9.09814E-005	0.00000E+000	7.53948E-005	5.39641E-002	8.28846E-001	3.57390E+000	9	...........
	84	1.13333	8.31691E-001	9.09105E-005	0.00000E+000	7.56095E-005	5.39641E-002	8.31866E-001	3.57390E+000	9	...........
	85	1.14667	8.34645E-001	9.10543E-005	0.00000E+000	7.59980E-005	5.39641E-002	8.34837E-001	3.57390E+000	9	...........
	86	1.16	8.37572E-001	9.10699E-005	0.00000E+000	7.62777E-005	5.39641E-002	8.37748E-001	3.57390E+000	9	...........
	87	1.17333	8.40457E-001	9.10606E-005	0.00000E+000	7.65325E-005	5.39641E-002	8.40662E-001	3.57390E+000	9	...........
	88	1.18667	8.43338E-001	9.10939E-005	0.00000E+000	7.68230E-005	5.39641E-002	8.43537E-001	3.57390E+000	9	...........
	89	1.2	8.46215E-001	9.07855E-005	0.00000E+000	7.68241E-005	5.39641E-002	8.46383E-001	3.57390E+000	9	...........
	90	1.21333	8.49006E-001	9.08209E-005	0.00000E+000	7.71076E-005	5.39641E-002	8.49187E-001	3.57390E+000	9	...........
	91	1.22667	8.51788E-001	9.10908E-005	0.00000E+000	7.75900E-005	5.39641E-002	8.51959E-001	3.57390E+000	9	...........
	92	1.24	8.54518E-001	9.11179E-005	0.00000E+000	7.78619E-005	5.39641E-002	8.54711E-001	3.57390E+000	9	...........
	93	1.25333	8.57226E-001	9.10012E-005	0.00000E+000	7.80086E-005	5.39641E-002	8.57439E-001	3.57390E+000	9	...........
	94	1.26667	8.59942E-001	9.10533E-005	0.00000E+000	7.83005E-005	5.39641E-002	8.60118E-001	3.57390E+000	9	...........
	95	1.28	8.62595E-001	9.12648E-005	0.00000E+000	7.87246E-005	5.39641E-002	8.62789E-001	3.57390E+000	9	...........
	96	1.29333	8.65200E-001	9.10929E-005	0.00000E+000	7.88135E-005	5.39641E-002	8.65392E-001	3.57390E+000	9	...........
	97	1.30667	8.67822E-001	9.09574E-005	0.00000E+000	7.89349E-005	5.39641E-002	8.68031E-001	3.57390E+000	9	...........
	98	1.32	8.70447E-001	9.10043E-005	0.00000E+000	7.92144E-005	5.39641E-002	8.70646E-001	3.57390E+000	9	...........
	99	1.33333	8.73017E-001	9.09949E-005	0.00000E+000	7.94401E-005	5.39641E-002	8.73201E-001	3.57390E+000	9	...........
	100	1.34667	8.75539E-001	9.10783E-005	0.00000E+000	7.97426E-005	5.39641E-002	8.75734E-001	3.57390E+000	9	...........
	101	1.36	8.78050E-001	9.12137E-005	0.00000E+000	8.00902E-005	5.39641E-002	8.78236E-001	3.57390E+000	9	...........
	102	1.37333	8.80539E-001	9.10283E-005	0.00000E+000	8.01540E-005	5.39641E-002	8.80734E-001	3.57390E+000	9	...........
	103	1.38667	8.83019E-001	9.11908E-005	0.00000E+000	8.05232E-005	5.39641E-002	8.83213E-001	3.57390E+000	9	...........
	104	1.4	8.85455E-001	9.11762E-005	0.00000E+000	8.07324E-005	5.39641E-002	8.85642E-001	3.57390E+000	9	...........
	105	1.41333	8.87831E-001	9.13242E-005	0.00000E+000	8.10804E-005	5.39641E-002	8.88034E-001	3.57390E+000	9	...........
	106	1.42667	8.90234E-001	9.10376E-005	0.00000E+000	8.10448E-005	5.39641E-002	8.90387E-001	3.57390E+000	9	...........
	107	1.44	8.92611E-001	9.09314E-005	0.00000E+000	8.11664E-005	5.39641E-002	8.92767E-001	3.57390E+000	9	...........
	108	1.45333	8.94940E-001	9.10783E-005	0.00000E+000	8.15096E-005	5.39641E-002	8.95125E-001	3.57390E+000	9	...........
	109	1.46667	8.97279E-001	9.11231E-005	0.00000E+000	8.17629E-005	5.39641E-002	8.97475E-001	3.57390E+000	9	...........
	110	1.48	8.99561E-001	9.11074E-005	0.00000E+000	8.19567E-005	5.39641E-002	8.99748E-001	3.57390E+000	9	...........
	111	1.49333	9.01832E-001	9.12033E-005	0.00000E+000	8.22501E-005	5.39641E-002	9.02037E-001	3.57390E+000	9	...........
	112	1.50667	9.04082E-001	9.12929E-005	0.00000E+000	8.25363E-005	5.39641E-002	9.04284E-001	3.57390E+000	9	...........
	113	1.52	9.06281E-001	9.09439E-005	0.00000E+000	8.24207E-005	5.39641E-002	9.06503E-001	3.57390E+000	9	...........
	114	1.53333	9.08513E-001	9.10835E-005	0.00000E+000	8.27506E-005	5.39641E-002	9.08722E-001	3.57390E+000	9	...........
	115	1.54667	9.10706E-001	9.10595E-005	0.00000E+000	8.29284E-005	5.39641E-002	9.10908E-001	3.57390E+000	9	...........
	116	1.56	9.12855E-001	9.09616E-005	0.00000E+000	8.30347E-005	5.39641E-002	9.13065E-001	3.57390E+000	9	...........
	117	1.57333	9.14991E-001	9.07886E-005	0.00000E+000	8.30708E-005	5.39641E-002	9.15219E-001	3.57390E+000	9	...........
	118	1.58667	9.17097E-001	9.10178E-005	0.00000E+000	8.34722E-005	5.39641E-002	9.17322E-001	3.57390E+000	9	...........
	119	1.6	9.19175E-001	9.11168E-005	0.00000E+000	8.37523E-005	5.39641E-002	9.19407E-001	3.57390E+000	9	...........
	120	1.61333	9.21308E-001	9.10001E-005	0.00000E+000	8.38392E-005	5.39641E-002	9.21509E-001	3.57390E+000	9	...........
	121	1.62667	9.23383E-001	9.12689E-005	0.00000E+000	8.42762E-005	5.39641E-002	9.23560E-001	3.57390E+000	9	...........
	122	1.64	9.25406E-001	9.11700E-005	0.00000E+000	8.43692E-005	5.39641E-002	9.25592E-001	3.57390E+000	9	...........
	123	1.65333	9.27432E-001	9.08564E-005	0.00000E+000	8.42631E-005	5.39641E-002	9.27615E-001	3.57390E+000	9	...........
	124	1.66667	9.29406E-001	9.08188E-005	0.00000E+000	8.44076E-005	5.39641E-002	9.29587E-001	3.57390E+000	9	...........
	125	1.68	9.31373E-001	9.09553E-005	0.00000E+000	8.47134E-005	5.39641E-002	9.31559E-001	3.57267E+000	9	...........
	126	1.69333	9.33334E-001	9.09595E-005	0.00000E+000	8.48956E-005	5.39641E-002	9.33525E-001	3.57250E+000	9	...........
	127	1.70667	9.35283E-001	9.11335E-005	0.00000E+000	8.52356E-005	5.39641E-002	9.35468E-001	3.57250E+000	9	...........
	128	1.72	9.37189E-001	9.08220E-005	0.00000E+000	8.51174E-005	5.39641E-002	9.37382E-001	3.57250E+000	9	...........
	129	1.73333	9.39057E-001	9.12023E-005	0.00000E+000	8.56441E-005	5.39641E-002	9.39259E-001	3.57250E+000	9	...........
	130	1.74667	9.40929E-001	9.11064E-005	0.00000E+000	8.57247E-005	5.39641E-002	9.41111E-001	3.57250E+000	9	...........
	131	1.76	9.42762E-001	9.11429E-005	0.00000E+000	8.59261E-005	5.39641E-002	9.42936E-001	3.57250E+000	9	...........
	132	1.77333	9.44572E-001	9.09418E-005	0.00000E+000	8.59010E-005	5.39641E-002	9.44749E-001	3.57250E+000	9	...........
	133	1.78667	9.46367E-001	9.09855E-005	0.00000E+000	8.61058E-005	5.39641E-002	9.46586E-001	3.57250E+000	9	...........
	134	1.8	9.48193E-001	9.09553E-005	0.00000E+000	8.62432E-005	5.39641E-002	9.48369E-001	3.57250E+000	9	...........
	135	1.81333	9.49954E-001	9.12346E-005	0.00000E+000	8.66686E-005	5.39641E-002	9.50141E-001	3.57250E+000	9	...........
	136	1.82667	9.51722E-001	9.11793E-005	0.00000E+000	8.67774E-005	5.39641E-002	9.51900E-001	3.57250E+000	9	...........
	137	1.84	9.53465E-001	9.08897E-005	0.00000E+000	8.66601E-005	5.39641E-002	9.53631E-001	3.57250E+000	9	...........
	138	1.85333	9.55158E-001	9.13002E-005	0.00000E+000	8.72061E-005	5.39641E-002	9.55323E-001	3.57250E+000	9	...........
	139	1.86667	9.56843E-001	9.09449E-005	0.00000E+000	8.70200E-005	5.39641E-002	9.57005E-001	3.57250E+000	9	...........
	140	1.88	9.58521E-001	9.08595E-005	0.00000E+000	8.70907E-005	5.39641E-002	9.58701E-001	3.57250E+000	9	...........
	141	1.89333	9.60191E-001	9.09512E-005	0.00000E+000	8.73305E-005	5.39641E-002	9.60349E-001	3.57250E+000	9	...........
	142	1.90667	9.61834E-001	9.11002E-005	0.00000E+000	8.76233E-005	5.39641E-002	9.62010E-001	3.57250E+000	9	...........
	143	1.92	9.63433E-001	9.10835E-005	0.00000E+000	8.77528E-005	5.39641E-002	9.63635E-001	3.57250E+000	9	...........
	144	1.93333	9.65039E-001	9.09126E-005	0.00000E+000	8.77342E-005	5.39641E-002	9.65241E-001	3.57250E+000	9	...........
	145	1.94667	9.66664E-001	9.08293E-005	0.00000E+000	8.78014E-005	5.39641E-002	9.66851E-001	3.57250E+000	9	...........
	146	1.96	9.68249E-001	9.11231E-005	0.00000E+000	8.82299E-005	5.39641E-002	9.68448E-001	3.57250E+000	9	...........
	147	1.97333	9.69795E-001	9.08053E-005	0.00000E+000	8.80625E-005	5.39641E-002	9.70011E-001	3.57250E+000	9	...........
	148	1.98667	9.71342E-001	9.11762E-005	0.00000E+000	8.85633E-005	5.39641E-002	9.71609E-001	3.57250E+000	9	...........
	149	2	9.72926E-001	9.10710E-005	0.00000E+000	8.86053E-005	5.39641E-002	9.73145E-001	3.57250E+000	9	...........
	150	2.01333	9.74467E-001	9.10460E-005	0.00000E+000	8.87213E-005	5.39641E-002	9.74660E-001	3.57250E+000	9	...........
	151	2.02667	9.75981E-001	9.10762E-005	0.00000E+000	8.88886E-005	5.39641E-002	9.76171E-001	3.57250E+000	9	...........
	152	2.04	9.77449E-001	9.11866E-005	0.00000E+000	8.91303E-005	5.39641E-002	9.77663E-001	3.57250E+000	9	...........
	153	2.05333	9.78922E-001	9.10637E-005	0.00000E+000	8.91442E-005	5.39641E-002	9.79136E-001	3.57250E+000	9	...........
	154	2.06667	9.80386E-001	9.11377E-005	0.00000E+000	8.93501E-005	5.39641E-002	9.80559E-001	3.57250E+000	9	...........
	155	2.08	9.81827E-001	9.11616E-005	0.00000E+000	8.95049E-005	5.39641E-002	9.81990E-001	3.57250E+000	9	...........
	156	2.09333	9.83210E-001	9.11220E-005	0.00000E+000	8.95921E-005	5.39641E-002	9.83415E-001	3.57250E+000	9	...........
	157	2.10667	9.84627E-001	9.10199E-005	0.00000E+000	8.96206E-005	5.39641E-002	9.84826E-001	3.57250E+000	9	...........
	158	2.12	9.86033E-001	9.09647E-005	0.00000E+000	8.96942E-005	5.39641E-002	9.86246E-001	3.57250E+000	9	...........
	159	2.13333	9.87414E-001	9.09730E-005	0.00000E+000	8.98280E-005	5.39641E-002	9.87638E-001	3.57250E+000	9	...........
	160	2.14667	9.88782E-001	9.10866E-005	0.00000E+000	9.00648E-005	5.39641E-002	9.88994E-001	3.57250E+000	9	...........
	161	2.16	9.90145E-001	9.13283E-005	0.00000E+000	9.04283E-005	5.39641E-002	9.90347E-001	3.57250E+000	9	...........
	162	2.17333	9.91475E-001	9.09783E-005	0.00000E+000	9.02027E-005	5.39641E-002	9.91671E-001	3.57250E+000	9	...........
	163	2.18667	9.92800E-001	9.11606E-005	0.00000E+000	9.05042E-005	5.39641E-002	9.93011E-001	3.57250E+000	9	...........
	164	2.2	9.94101E-001	9.11116E-005	0.00000E+000	9.05742E-005	5.39641E-002	9.94319E-001	3.57250E+000	9	...........
	165	2.21333	9.95432E-001	9.11720E-005	0.00000E+000	9.07556E-005	5.39641E-002	9.95655E-001	3.57250E+000	9	...........
	166	2.22667	9.96720E-001	9.10137E-005	0.00000E+000	9.07151E-005	5.39641E-002	9.96964E-001	3.57250E+000	9	...........
	167	2.24	9.98029E-001	9.09887E-005	0.00000E+000	9.08093E-005	5.39641E-002	9.98242E-001	3.57250E+000	9	...........
	168	2.25333	9.99279E-001	9.10137E-005	0.00000E+000	9.09481E-005	5.39641E-002	9.99507E-001	3.57250E+000	9	...........
	169	2.255	1.00002E+000	9.06626E-005	0.00000E+000	9.06640E-005	5.39641E-002	1.00024E+000	3.57250E+000	9	...........
STARTTIMEOFFSET	QUANT	2128.066	Start Time Offset (s)
