EXPLAIN
TAG	PWR800_CHARGE
TITLE	LABEL	PWR Cyclic Charge Discharge (Cell) - Charge Step	Test &Identifier
DATE	LABEL	10-7-2017	Date
TIME	LABEL	15:19:27	Time
NOTES	NOTES	3	&Notes...
	supercap test cell
	0.9mg
	6M KOH
PSTAT	PSTAT	IFC5000-01520	Potentiostat
CAPACITY	QUANT	1.00000E-003	Capacity (A-hr)
CELLTYPE	SELECTOR	1	&Cell Type
WORKINGCONNECTION	SELECTOR	0	&Working Lead
MAXCHARGETIME	VARIABLEANDUNITS	1.00000E+002	s	1.00000E+002	second(s)	Max &Charge Time
CHARGECURRENT	QUANT	9.00000E-005	&Charge Current (A) 
VOLTAGEFINISH	TWOPARAM	F	1.00000E-003	3.60000E+003	&Voltage Finish	 I (A) < 	Max Time(s)
SAMPLETIME	QUANT	1.00000E-002	Sa&mple Period (s)
CHARGESTOPAT1	MULTIPARAM	4	1.00000E+000	Charge Stop At &1	Voltage > Limit	V
CHARGESTOPAT2	MULTIPARAM	0	0.00000E+000	Charge Stop At &2	None	N/A
AESBHCSELECTOR	TOGGLE	F	Save Both Half Cells
IRCOMP	TOGGLE	F	IR &Measure
EOC	QUANT	0	Open Circuit (V)
SEQUENCER	TOGGLE	TRUE	Run as Sequence
PSTATMODEL	IQUANT	53	Pstat Model
PSTATSECTION	LABEL	IFC5000-01520	Pstat Section
PSTATSERIALNO	LABEL	01520	Pstat Serial Number
CTRLMODE	IQUANT	0	Control Mode
ELECTROMETER	IQUANT	1	RE=0 or CS=1
IESTAB	IQUANT	0	I/E Stability
CASPEED	IQUANT	4	Control Amp Speed
CONVENTION	IQUANT	1	Current Convention
ICHRANGE	IQUANT	2	Ich Range
ICHRANGEMODE	TOGGLE	T	Ich Auto Range
ICHOFFSETENABLE	TOGGLE	F	Ich Offset Enable
ICHOFFSET	QUANT	0	Ich Offset (V)
ICHFILTER	IQUANT	1	Ich Filter
VCHRANGE	IQUANT	2	Vch Range
VCHRANGEMODE	TOGGLE	T	Vch Auto Range
VCHOFFSETENABLE	TOGGLE	F	Vch Offset Enable
VCHOFFSET	QUANT	0	Vch Offset (V)
VCHFILTER	IQUANT	1	Vch Filter
IERANGELOWERLIMIT	IQUANT	9	I/E Range Lower Limit
IERANGEMODE	TOGGLE	F	I/E AutoRange
IERANGE	IQUANT	9	I/E Range
ACHSELECT	IQUANT	1	Ach Select
ACHRANGE	IQUANT	2	Ach Range
ACHOFFSETENABLE	TOGGLE	F	Ach Offset Enable
ACHOFFSET	QUANT	0	Ach Offset (V)
ACHFILTER	IQUANT	1	Ach Filter
CABLEID	IQUANT	14	Cable ID
DCCALDATE	LABEL	5-7-2017	DC Calibration Date
ACCALDATE	LABEL	12/3/2015	AC Calibration Date
FRAMEWORKVERSION	QUANT	7.01	Framework Version
INSTRUMENTVERSION	LABEL	4.00	Instrument Version
CURVE	TABLE	179
	Pt	T	Vf	Im	Vu	Pwr	Sig	Ach	Temp	IERange	Over
	#	s	V	A	V	W	V	V	deg C	#	bits
	0	0.013333	2.88115E-001	9.10981E-005	0.00000E+000	2.62467E-005	5.39641E-002	2.88157E-001	3.57310E+000	9	...........
	1	0.026667	3.07370E-001	9.08314E-005	0.00000E+000	2.79189E-005	5.39641E-002	3.07408E-001	3.57310E+000	9	...........
	2	0.04	3.25179E-001	9.07230E-005	0.00000E+000	2.95012E-005	5.39641E-002	3.25215E-001	3.57310E+000	9	...........
	3	0.053333	3.41792E-001	9.09522E-005	0.00000E+000	3.10868E-005	5.39641E-002	3.41831E-001	3.57310E+000	9	...........
	4	0.066667	3.57392E-001	9.11314E-005	0.00000E+000	3.25697E-005	5.39641E-002	3.57434E-001	3.57310E+000	9	...........
	5	0.08	3.72115E-001	9.09699E-005	0.00000E+000	3.38512E-005	5.39641E-002	3.72153E-001	3.57310E+000	9	...........
	6	0.093333	3.86067E-001	9.11397E-005	0.00000E+000	3.51860E-005	5.39641E-002	3.86108E-001	3.57310E+000	9	...........
	7	0.106667	3.99335E-001	9.11002E-005	0.00000E+000	3.63795E-005	5.39641E-002	3.99376E-001	3.57310E+000	9	...........
	8	0.12	4.11982E-001	9.11137E-005	0.00000E+000	3.75372E-005	5.39641E-002	4.12029E-001	3.57310E+000	9	...........
	9	0.133333	4.24078E-001	9.10283E-005	0.00000E+000	3.86031E-005	5.39641E-002	4.24127E-001	3.57310E+000	9	...........
	10	0.146667	4.35680E-001	9.10835E-005	0.00000E+000	3.96832E-005	5.39641E-002	4.35733E-001	3.57310E+000	9	...........
	11	0.16	4.46818E-001	9.10022E-005	0.00000E+000	4.06615E-005	5.39641E-002	4.46874E-001	3.57310E+000	9	...........
	12	0.173333	4.57535E-001	9.12085E-005	0.00000E+000	4.17310E-005	5.39641E-002	4.57590E-001	3.57310E+000	9	...........
	13	0.186667	4.67859E-001	9.11741E-005	0.00000E+000	4.26566E-005	5.39641E-002	4.67908E-001	3.57310E+000	9	...........
	14	0.2	4.77816E-001	9.09199E-005	0.00000E+000	4.34430E-005	5.39641E-002	4.77866E-001	3.57310E+000	9	...........
	15	0.213333	4.87433E-001	9.09730E-005	0.00000E+000	4.43433E-005	5.39641E-002	4.87487E-001	3.57310E+000	9	...........
	16	0.226667	4.96743E-001	9.08272E-005	0.00000E+000	4.51178E-005	5.39641E-002	4.96805E-001	3.57310E+000	9	...........
	17	0.24	5.05787E-001	9.09772E-005	0.00000E+000	4.60151E-005	5.39641E-002	5.05849E-001	3.57310E+000	9	...........
	18	0.253333	5.14565E-001	9.09355E-005	0.00000E+000	4.67922E-005	5.39641E-002	5.14626E-001	3.57310E+000	9	...........
	19	0.266667	5.23079E-001	9.11137E-005	0.00000E+000	4.76597E-005	5.39641E-002	5.23136E-001	3.57310E+000	9	...........
	20	0.28	5.31344E-001	9.09699E-005	0.00000E+000	4.83363E-005	5.39641E-002	5.31396E-001	3.57310E+000	9	...........
	21	0.293333	5.39325E-001	9.09793E-005	0.00000E+000	4.90674E-005	5.39641E-002	5.39395E-001	3.57310E+000	9	...........
	22	0.306667	5.47141E-001	9.12377E-005	0.00000E+000	4.99199E-005	5.39641E-002	5.47217E-001	3.57310E+000	9	...........
	23	0.32	5.54730E-001	9.09783E-005	0.00000E+000	5.04684E-005	5.39641E-002	5.54830E-001	3.57310E+000	9	...........
	24	0.333333	5.62179E-001	9.10293E-005	0.00000E+000	5.11748E-005	5.39641E-002	5.62256E-001	3.57310E+000	9	...........
	25	0.346667	5.69433E-001	9.10345E-005	0.00000E+000	5.18381E-005	5.39641E-002	5.69510E-001	3.57310E+000	9	...........
	26	0.36	5.76476E-001	9.10595E-005	0.00000E+000	5.24936E-005	5.39641E-002	5.76538E-001	3.57310E+000	9	...........
	27	0.373333	5.83338E-001	9.09064E-005	0.00000E+000	5.30292E-005	5.39641E-002	5.83398E-001	3.57310E+000	9	...........
	28	0.386667	5.90082E-001	9.08126E-005	0.00000E+000	5.35869E-005	5.39641E-002	5.90151E-001	3.57310E+000	9	...........
	29	0.4	5.96653E-001	9.12179E-005	0.00000E+000	5.44254E-005	5.39641E-002	5.96752E-001	3.57310E+000	9	...........
	30	0.413333	6.03074E-001	9.13335E-005	0.00000E+000	5.50809E-005	5.39641E-002	6.03197E-001	3.57310E+000	9	...........
	31	0.426667	6.09328E-001	9.09366E-005	0.00000E+000	5.54102E-005	5.39641E-002	6.09460E-001	3.57310E+000	9	...........
	32	0.44	6.15543E-001	9.10772E-005	0.00000E+000	5.60619E-005	5.39641E-002	6.15652E-001	3.57310E+000	9	...........
	33	0.453333	6.21576E-001	9.11252E-005	0.00000E+000	5.66412E-005	5.39641E-002	6.21658E-001	3.57310E+000	9	...........
	34	0.466667	6.27452E-001	9.11210E-005	0.00000E+000	5.71741E-005	5.39641E-002	6.27584E-001	3.57310E+000	9	...........
	35	0.48	6.33212E-001	9.12502E-005	0.00000E+000	5.77807E-005	5.39641E-002	6.33332E-001	3.57310E+000	9	...........
	36	0.493333	6.38891E-001	9.11127E-005	0.00000E+000	5.82111E-005	5.39641E-002	6.39027E-001	3.57310E+000	9	...........
	37	0.506667	6.44471E-001	9.11533E-005	0.00000E+000	5.87456E-005	5.39641E-002	6.44581E-001	3.57310E+000	9	...........
	38	0.52	6.49888E-001	9.08782E-005	0.00000E+000	5.90607E-005	5.39641E-002	6.50026E-001	3.57310E+000	9	...........
	39	0.533333	6.55262E-001	9.15002E-005	0.00000E+000	5.99567E-005	5.39641E-002	6.55371E-001	3.57310E+000	9	...........
	40	0.546667	6.60487E-001	9.11887E-005	0.00000E+000	6.02289E-005	5.39641E-002	6.60607E-001	3.57310E+000	9	...........
	41	0.56	6.65604E-001	9.11074E-005	0.00000E+000	6.06415E-005	5.39641E-002	6.65749E-001	3.57310E+000	9	...........
	42	0.573333	6.70691E-001	9.08147E-005	0.00000E+000	6.09085E-005	5.39641E-002	6.70774E-001	3.57310E+000	9	...........
	43	0.586667	6.75612E-001	9.09116E-005	0.00000E+000	6.14210E-005	5.39641E-002	6.75712E-001	3.57310E+000	9	...........
	44	0.6	6.80462E-001	9.11002E-005	0.00000E+000	6.19902E-005	5.39641E-002	6.80585E-001	3.57310E+000	9	...........
	45	0.613333	6.85210E-001	9.09157E-005	0.00000E+000	6.22963E-005	5.39641E-002	6.85305E-001	3.57310E+000	9	...........
	46	0.626667	6.89889E-001	9.09605E-005	0.00000E+000	6.27527E-005	5.39641E-002	6.90017E-001	3.57310E+000	9	...........
	47	0.64	6.94541E-001	9.12033E-005	0.00000E+000	6.33444E-005	5.39641E-002	6.94653E-001	3.57310E+000	9	...........
	48	0.653333	6.99106E-001	9.10439E-005	0.00000E+000	6.36493E-005	5.39641E-002	6.99223E-001	3.57310E+000	9	...........
	49	0.666667	7.03590E-001	9.10345E-005	0.00000E+000	6.40510E-005	5.39641E-002	7.03696E-001	3.57310E+000	9	...........
	50	0.68	7.08003E-001	9.08522E-005	0.00000E+000	6.43236E-005	5.39641E-002	7.08124E-001	3.57310E+000	9	...........
	51	0.693333	7.12351E-001	9.10022E-005	0.00000E+000	6.48255E-005	5.39641E-002	7.12475E-001	3.57310E+000	9	...........
	52	0.706667	7.16654E-001	9.12419E-005	0.00000E+000	6.53888E-005	5.39641E-002	7.16794E-001	3.57310E+000	9	...........
	53	0.72	7.20915E-001	9.11720E-005	0.00000E+000	6.57273E-005	5.39641E-002	7.21005E-001	3.57310E+000	9	...........
	54	0.733333	7.25064E-001	9.11575E-005	0.00000E+000	6.60950E-005	5.39641E-002	7.25164E-001	3.57310E+000	9	...........
	55	0.746667	7.29150E-001	9.10418E-005	0.00000E+000	6.63831E-005	5.39641E-002	7.29269E-001	3.57310E+000	9	...........
	56	0.76	7.33175E-001	9.14106E-005	0.00000E+000	6.70200E-005	5.39641E-002	7.33319E-001	3.57310E+000	9	...........
	57	0.773333	7.37134E-001	9.10658E-005	0.00000E+000	6.71277E-005	5.39641E-002	7.37271E-001	3.57310E+000	9	...........
	58	0.786667	7.41034E-001	9.10543E-005	0.00000E+000	6.74743E-005	5.39641E-002	7.41179E-001	3.57310E+000	9	...........
	59	0.8	7.44915E-001	9.11241E-005	0.00000E+000	6.78798E-005	5.39641E-002	7.45056E-001	3.57310E+000	9	...........
	60	0.813333	7.48713E-001	9.12481E-005	0.00000E+000	6.83187E-005	5.39641E-002	7.48866E-001	3.57310E+000	9	...........
	61	0.826667	7.52450E-001	9.11408E-005	0.00000E+000	6.85788E-005	5.39641E-002	7.52600E-001	3.57310E+000	9	...........
	62	0.84	7.56196E-001	9.11095E-005	0.00000E+000	6.88967E-005	5.39641E-002	7.56339E-001	3.57314E+000	9	...........
	63	0.853333	7.59841E-001	9.09626E-005	0.00000E+000	6.91171E-005	5.39641E-002	7.59951E-001	3.57340E+000	9	...........
	64	0.866667	7.63441E-001	9.09178E-005	0.00000E+000	6.94104E-005	5.39641E-002	7.63564E-001	3.57340E+000	9	...........
	65	0.88	7.67017E-001	9.08741E-005	0.00000E+000	6.97020E-005	5.39641E-002	7.67176E-001	3.57340E+000	9	...........
	66	0.893333	7.70575E-001	9.11575E-005	0.00000E+000	7.02437E-005	5.39641E-002	7.70682E-001	3.57340E+000	9	...........
	67	0.906667	7.74029E-001	9.08834E-005	0.00000E+000	7.03464E-005	5.39641E-002	7.74160E-001	3.57340E+000	9	...........
	68	0.92	7.77486E-001	9.11491E-005	0.00000E+000	7.08672E-005	5.39641E-002	7.77594E-001	3.57340E+000	9	...........
	69	0.933333	7.80860E-001	9.11783E-005	0.00000E+000	7.11975E-005	5.39641E-002	7.80979E-001	3.57340E+000	9	...........
	70	0.946667	7.84213E-001	9.12398E-005	0.00000E+000	7.15514E-005	5.39641E-002	7.84329E-001	3.57340E+000	9	...........
	71	0.96	7.87520E-001	9.10731E-005	0.00000E+000	7.17219E-005	5.39641E-002	7.87642E-001	3.57340E+000	9	...........
	72	0.97333	7.90756E-001	9.10658E-005	0.00000E+000	7.20108E-005	5.39641E-002	7.90899E-001	3.57340E+000	9	...........
	73	0.98667	7.94032E-001	9.11137E-005	0.00000E+000	7.23472E-005	5.39641E-002	7.94135E-001	3.57340E+000	9	...........
	74	1	7.97200E-001	9.09293E-005	0.00000E+000	7.24888E-005	5.39641E-002	7.97309E-001	3.57340E+000	9	...........
	75	1.01333	8.00356E-001	9.10345E-005	0.00000E+000	7.28600E-005	5.39641E-002	8.00460E-001	3.57340E+000	9	...........
	76	1.02667	8.03508E-001	9.11158E-005	0.00000E+000	7.32123E-005	5.39641E-002	8.03606E-001	3.57340E+000	9	...........
	77	1.04	8.06593E-001	9.06834E-005	0.00000E+000	7.31446E-005	5.39641E-002	8.06706E-001	3.57340E+000	9	...........
	78	1.05333	8.09611E-001	9.09783E-005	0.00000E+000	7.36570E-005	5.39641E-002	8.09740E-001	3.57340E+000	9	...........
	79	1.06667	8.12641E-001	9.11825E-005	0.00000E+000	7.40986E-005	5.39641E-002	8.12763E-001	3.57340E+000	9	...........
	80	1.08	8.15618E-001	9.12304E-005	0.00000E+000	7.44091E-005	5.39641E-002	8.15742E-001	3.57340E+000	9	...........
	81	1.09333	8.18583E-001	9.13377E-005	0.00000E+000	7.47675E-005	5.39641E-002	8.18723E-001	3.57340E+000	9	...........
	82	1.10667	8.21509E-001	9.08105E-005	0.00000E+000	7.46016E-005	5.39641E-002	8.21631E-001	3.57340E+000	9	...........
	83	1.12	8.24389E-001	9.09397E-005	0.00000E+000	7.49697E-005	5.39641E-002	8.24522E-001	3.57340E+000	9	...........
	84	1.13333	8.27240E-001	9.10001E-005	0.00000E+000	7.52789E-005	5.39641E-002	8.27370E-001	3.57340E+000	9	...........
	85	1.14667	8.30049E-001	9.13929E-005	0.00000E+000	7.58606E-005	5.39641E-002	8.30196E-001	3.57340E+000	9	...........
	86	1.16	8.32838E-001	9.10345E-005	0.00000E+000	7.58170E-005	5.39641E-002	8.32995E-001	3.57340E+000	9	...........
	87	1.17333	8.35605E-001	9.12179E-005	0.00000E+000	7.62221E-005	5.39641E-002	8.35788E-001	3.57340E+000	9	...........
	88	1.18667	8.38335E-001	9.13325E-005	0.00000E+000	7.65672E-005	5.39641E-002	8.38502E-001	3.57340E+000	9	...........
	89	1.2	8.41041E-001	9.12867E-005	0.00000E+000	7.67758E-005	5.39641E-002	8.41211E-001	3.57340E+000	9	...........
	90	1.21333	8.43732E-001	9.12742E-005	0.00000E+000	7.70109E-005	5.39641E-002	8.43916E-001	3.57340E+000	9	...........
	91	1.22667	8.46429E-001	9.11918E-005	0.00000E+000	7.71874E-005	5.39641E-002	8.46572E-001	3.57340E+000	9	...........
	92	1.24	8.49025E-001	9.08511E-005	0.00000E+000	7.71349E-005	5.39641E-002	8.49198E-001	3.57340E+000	9	...........
	93	1.25333	8.51636E-001	9.10981E-005	0.00000E+000	7.75824E-005	5.39641E-002	8.51763E-001	3.57340E+000	9	...........
	94	1.26667	8.54222E-001	9.09918E-005	0.00000E+000	7.77272E-005	5.39641E-002	8.54342E-001	3.57340E+000	9	...........
	95	1.28	8.56763E-001	9.10710E-005	0.00000E+000	7.80263E-005	5.39641E-002	8.56904E-001	3.57340E+000	9	...........
	96	1.29333	8.59284E-001	9.11199E-005	0.00000E+000	7.82979E-005	5.39641E-002	8.59437E-001	3.57340E+000	9	...........
	97	1.30667	8.61792E-001	9.11700E-005	0.00000E+000	7.85696E-005	5.39641E-002	8.61923E-001	3.57340E+000	9	...........
	98	1.32	8.64243E-001	9.11783E-005	0.00000E+000	7.88002E-005	5.39641E-002	8.64392E-001	3.57340E+000	9	...........
	99	1.33333	8.66674E-001	9.12908E-005	0.00000E+000	7.91194E-005	5.39641E-002	8.66827E-001	3.57340E+000	9	...........
	100	1.34667	8.69101E-001	9.12231E-005	0.00000E+000	7.92821E-005	5.39641E-002	8.69271E-001	3.57340E+000	9	...........
	101	1.36	8.71482E-001	9.10908E-005	0.00000E+000	7.93840E-005	5.39641E-002	8.71648E-001	3.57340E+000	9	...........
	102	1.37333	8.73852E-001	9.11064E-005	0.00000E+000	7.96135E-005	5.39641E-002	8.74014E-001	3.57340E+000	9	...........
	103	1.38667	8.76214E-001	9.09710E-005	0.00000E+000	7.97100E-005	5.39641E-002	8.76378E-001	3.57340E+000	9	...........
	104	1.4	8.78545E-001	9.14336E-005	0.00000E+000	8.03285E-005	5.39641E-002	8.78702E-001	3.57340E+000	9	...........
	105	1.41333	8.80856E-001	9.09918E-005	0.00000E+000	8.01507E-005	5.39641E-002	8.81014E-001	3.57340E+000	9	...........
	106	1.42667	8.83129E-001	9.09543E-005	0.00000E+000	8.03244E-005	5.39641E-002	8.83287E-001	3.57340E+000	9	...........
	107	1.44	8.85379E-001	9.13408E-005	0.00000E+000	8.08712E-005	5.39641E-002	8.85538E-001	3.57340E+000	9	...........
	108	1.45333	8.87612E-001	9.11773E-005	0.00000E+000	8.09300E-005	5.39641E-002	8.87796E-001	3.57340E+000	9	...........
	109	1.46667	8.89827E-001	9.07949E-005	0.00000E+000	8.07917E-005	5.39641E-002	8.89991E-001	3.57340E+000	9	...........
	110	1.48	8.92012E-001	9.09543E-005	0.00000E+000	8.11324E-005	5.39641E-002	8.92168E-001	3.57340E+000	9	...........
	111	1.49333	8.94138E-001	9.12168E-005	0.00000E+000	8.15605E-005	5.39641E-002	8.94365E-001	3.57340E+000	9	...........
	112	1.50667	8.96328E-001	9.10814E-005	0.00000E+000	8.16388E-005	5.39641E-002	8.96534E-001	3.57340E+000	9	...........
	113	1.52	8.98442E-001	9.11168E-005	0.00000E+000	8.18632E-005	5.39641E-002	8.98629E-001	3.57340E+000	9	...........
	114	1.53333	9.00534E-001	9.10210E-005	0.00000E+000	8.19675E-005	5.39641E-002	9.00738E-001	3.57340E+000	9	...........
	115	1.54667	9.02626E-001	9.11658E-005	0.00000E+000	8.22886E-005	5.39641E-002	9.02814E-001	3.57340E+000	9	...........
	116	1.56	9.04655E-001	9.09282E-005	0.00000E+000	8.22587E-005	5.39641E-002	9.04873E-001	3.57340E+000	9	...........
	117	1.57333	9.06698E-001	9.11918E-005	0.00000E+000	8.26834E-005	5.39641E-002	9.06905E-001	3.57340E+000	9	...........
	118	1.58667	9.08746E-001	9.14190E-005	0.00000E+000	8.30766E-005	5.39641E-002	9.08950E-001	3.57340E+000	9	...........
	119	1.6	9.10769E-001	9.08011E-005	0.00000E+000	8.26989E-005	5.39641E-002	9.10932E-001	3.57340E+000	9	...........
	120	1.61333	9.12720E-001	9.12439E-005	0.00000E+000	8.32802E-005	5.39641E-002	9.12889E-001	3.57340E+000	9	...........
	121	1.62667	9.14688E-001	9.10012E-005	0.00000E+000	8.32377E-005	5.39641E-002	9.14882E-001	3.57340E+000	9	...........
	122	1.64	9.16616E-001	9.09491E-005	0.00000E+000	8.33654E-005	5.39641E-002	9.16794E-001	3.57340E+000	9	...........
	123	1.65333	9.18546E-001	9.09522E-005	0.00000E+000	8.35438E-005	5.39641E-002	9.18694E-001	3.57340E+000	9	...........
	124	1.66667	9.20508E-001	9.09981E-005	0.00000E+000	8.37644E-005	5.39641E-002	9.20642E-001	3.57340E+000	9	...........
	125	1.68	9.22435E-001	9.13117E-005	0.00000E+000	8.42291E-005	5.39641E-002	9.22529E-001	3.57340E+000	9	...........
	126	1.69333	9.24307E-001	9.11627E-005	0.00000E+000	8.42623E-005	5.39641E-002	9.24420E-001	3.57340E+000	9	...........
	127	1.70667	9.26157E-001	9.12033E-005	0.00000E+000	8.44686E-005	5.39641E-002	9.26277E-001	3.57340E+000	9	...........
	128	1.72	9.27986E-001	9.09981E-005	0.00000E+000	8.44449E-005	5.39641E-002	9.28120E-001	3.57340E+000	9	...........
	129	1.73333	9.29805E-001	9.12210E-005	0.00000E+000	8.48178E-005	5.39641E-002	9.29945E-001	3.57340E+000	9	...........
	130	1.74667	9.31603E-001	9.09355E-005	0.00000E+000	8.47158E-005	5.39641E-002	9.31748E-001	3.57340E+000	9	...........
	131	1.76	9.33371E-001	9.10085E-005	0.00000E+000	8.49447E-005	5.39641E-002	9.33543E-001	3.57340E+000	9	...........
	132	1.77333	9.35157E-001	9.12231E-005	0.00000E+000	8.53079E-005	5.39641E-002	9.35320E-001	3.57340E+000	9	...........
	133	1.78667	9.36899E-001	9.10720E-005	0.00000E+000	8.53253E-005	5.39641E-002	9.37038E-001	3.57340E+000	9	...........
	134	1.8	9.38595E-001	9.09084E-005	0.00000E+000	8.53262E-005	5.39641E-002	9.38765E-001	3.57340E+000	9	...........
	135	1.81333	9.40320E-001	9.11491E-005	0.00000E+000	8.57094E-005	5.39641E-002	9.40473E-001	3.57340E+000	9	...........
	136	1.82667	9.41995E-001	9.10293E-005	0.00000E+000	8.57491E-005	5.39641E-002	9.42163E-001	3.57340E+000	9	...........
	137	1.84	9.43664E-001	9.10408E-005	0.00000E+000	8.59119E-005	5.39641E-002	9.43813E-001	3.57326E+000	9	...........
	138	1.85333	9.45337E-001	9.11231E-005	0.00000E+000	8.61420E-005	5.39641E-002	9.45511E-001	3.57230E+000	9	...........
	139	1.86667	9.47021E-001	9.11241E-005	0.00000E+000	8.62965E-005	5.39641E-002	9.47176E-001	3.57230E+000	9	...........
	140	1.88	9.48666E-001	9.11408E-005	0.00000E+000	8.64621E-005	5.39641E-002	9.48838E-001	3.57230E+000	9	...........
	141	1.89333	9.50301E-001	9.10626E-005	0.00000E+000	8.65370E-005	5.39641E-002	9.50441E-001	3.57230E+000	9	...........
	142	1.90667	9.51902E-001	9.11814E-005	0.00000E+000	8.67958E-005	5.39641E-002	9.52063E-001	3.57230E+000	9	...........
	143	1.92	9.53484E-001	9.12502E-005	0.00000E+000	8.70056E-005	5.39641E-002	9.53640E-001	3.57230E+000	9	...........
	144	1.93333	9.55056E-001	9.10241E-005	0.00000E+000	8.69331E-005	5.39641E-002	9.55199E-001	3.57230E+000	9	...........
	145	1.94667	9.56601E-001	9.11908E-005	0.00000E+000	8.72332E-005	5.39641E-002	9.56754E-001	3.57230E+000	9	...........
	146	1.96	9.58133E-001	9.09501E-005	0.00000E+000	8.71423E-005	5.39641E-002	9.58310E-001	3.57230E+000	9	...........
	147	1.97333	9.59646E-001	9.13492E-005	0.00000E+000	8.76629E-005	5.39641E-002	9.59838E-001	3.57230E+000	9	...........
	148	1.98667	9.61118E-001	9.11991E-005	0.00000E+000	8.76531E-005	5.39641E-002	9.61310E-001	3.57230E+000	9	...........
	149	2	9.62572E-001	9.11398E-005	0.00000E+000	8.77286E-005	5.39641E-002	9.62783E-001	3.57230E+000	9	...........
	150	2.01333	9.64069E-001	9.10043E-005	0.00000E+000	8.77344E-005	5.39641E-002	9.64259E-001	3.57230E+000	9	...........
	151	2.02667	9.65516E-001	9.11418E-005	0.00000E+000	8.79989E-005	5.39641E-002	9.65703E-001	3.57230E+000	9	...........
	152	2.04	9.66949E-001	9.10887E-005	0.00000E+000	8.80781E-005	5.39641E-002	9.67163E-001	3.57230E+000	9	...........
	153	2.05333	9.68408E-001	9.11033E-005	0.00000E+000	8.82252E-005	5.39641E-002	9.68613E-001	3.57230E+000	9	...........
	154	2.06667	9.69837E-001	9.08366E-005	0.00000E+000	8.80967E-005	5.39641E-002	9.70036E-001	3.57230E+000	9	...........
	155	2.08	9.71240E-001	9.12616E-005	0.00000E+000	8.86370E-005	5.39641E-002	9.71485E-001	3.57230E+000	9	...........
	156	2.09333	9.72690E-001	9.12356E-005	0.00000E+000	8.87439E-005	5.39641E-002	9.72880E-001	3.57230E+000	9	...........
	157	2.10667	9.74108E-001	9.11460E-005	0.00000E+000	8.87860E-005	5.39641E-002	9.74268E-001	3.57230E+000	9	...........
	158	2.12	9.75484E-001	9.10512E-005	0.00000E+000	8.88190E-005	5.39641E-002	9.75641E-001	3.57230E+000	9	...........
	159	2.13333	9.76830E-001	9.09262E-005	0.00000E+000	8.88194E-005	5.39641E-002	9.77019E-001	3.57230E+000	9	...........
	160	2.14667	9.78184E-001	9.09949E-005	0.00000E+000	8.90098E-005	5.39641E-002	9.78375E-001	3.57230E+000	9	...........
	161	2.16	9.79526E-001	9.12106E-005	0.00000E+000	8.93431E-005	5.39641E-002	9.79683E-001	3.57230E+000	9	...........
	162	2.17333	9.80840E-001	9.10626E-005	0.00000E+000	8.93179E-005	5.39641E-002	9.80984E-001	3.57230E+000	9	...........
	163	2.18667	9.82131E-001	9.12127E-005	0.00000E+000	8.95828E-005	5.39641E-002	9.82301E-001	3.57230E+000	9	...........
	164	2.2	9.83427E-001	9.10939E-005	0.00000E+000	8.95842E-005	5.39641E-002	9.83574E-001	3.57230E+000	9	...........
	165	2.21333	9.84695E-001	9.09918E-005	0.00000E+000	8.95992E-005	5.39641E-002	9.84875E-001	3.57230E+000	9	...........
	166	2.22667	9.85996E-001	9.13721E-005	0.00000E+000	9.00925E-005	5.39641E-002	9.86149E-001	3.57230E+000	9	...........
	167	2.24	9.87254E-001	9.09116E-005	0.00000E+000	8.97528E-005	5.39641E-002	9.87427E-001	3.57230E+000	9	...........
	168	2.25333	9.88527E-001	9.12054E-005	0.00000E+000	9.01590E-005	5.39641E-002	9.88687E-001	3.57230E+000	9	...........
	169	2.26667	9.89781E-001	9.09783E-005	0.00000E+000	9.00485E-005	5.39641E-002	9.89899E-001	3.57230E+000	9	...........
	170	2.28	9.90990E-001	9.12877E-005	0.00000E+000	9.04652E-005	5.39641E-002	9.91140E-001	3.57230E+000	9	...........
	171	2.29333	9.92164E-001	9.12429E-005	0.00000E+000	9.05280E-005	5.39641E-002	9.92344E-001	3.57230E+000	9	...........
	172	2.30667	9.93371E-001	9.12148E-005	0.00000E+000	9.06101E-005	5.39641E-002	9.93531E-001	3.57230E+000	9	...........
	173	2.32	9.94560E-001	9.11231E-005	0.00000E+000	9.06274E-005	5.39641E-002	9.94712E-001	3.57230E+000	9	...........
	174	2.33333	9.95767E-001	9.10543E-005	0.00000E+000	9.06689E-005	5.39641E-002	9.95900E-001	3.57230E+000	9	...........
	175	2.34667	9.96917E-001	9.12398E-005	0.00000E+000	9.09585E-005	5.39641E-002	9.97084E-001	3.57230E+000	9	...........
	176	2.36	9.98125E-001	9.11116E-005	0.00000E+000	9.09408E-005	5.39641E-002	9.98265E-001	3.57230E+000	9	...........
	177	2.37333	9.99281E-001	9.11491E-005	0.00000E+000	9.10836E-005	5.39641E-002	9.99407E-001	3.57230E+000	9	...........
	178	2.37667	9.99986E-001	9.09293E-005	0.00000E+000	9.09280E-005	5.39641E-002	1.00011E+000	3.57230E+000	9	...........
STARTTIMEOFFSET	QUANT	1025.613	Start Time Offset (s)
