EXPLAIN
TAG	PWR800_CHARGE
TITLE	LABEL	PWR Cyclic Charge Discharge (Cell) - Charge Step	Test &Identifier
DATE	LABEL	10-7-2017	Date
TIME	LABEL	15:44:12	Time
NOTES	NOTES	3	&Notes...
	supercap test cell
	0.9mg
	6M KOH
PSTAT	PSTAT	IFC5000-01520	Potentiostat
CAPACITY	QUANT	1.00000E-003	Capacity (A-hr)
CELLTYPE	SELECTOR	1	&Cell Type
WORKINGCONNECTION	SELECTOR	0	&Working Lead
MAXCHARGETIME	VARIABLEANDUNITS	1.00000E+002	s	1.00000E+002	second(s)	Max &Charge Time
CHARGECURRENT	QUANT	9.00000E-005	&Charge Current (A) 
VOLTAGEFINISH	TWOPARAM	F	1.00000E-003	3.60000E+003	&Voltage Finish	 I (A) < 	Max Time(s)
SAMPLETIME	QUANT	1.00000E-002	Sa&mple Period (s)
CHARGESTOPAT1	MULTIPARAM	4	1.00000E+000	Charge Stop At &1	Voltage > Limit	V
CHARGESTOPAT2	MULTIPARAM	0	0.00000E+000	Charge Stop At &2	None	N/A
AESBHCSELECTOR	TOGGLE	F	Save Both Half Cells
IRCOMP	TOGGLE	F	IR &Measure
EOC	QUANT	0	Open Circuit (V)
SEQUENCER	TOGGLE	TRUE	Run as Sequence
PSTATMODEL	IQUANT	53	Pstat Model
PSTATSECTION	LABEL	IFC5000-01520	Pstat Section
PSTATSERIALNO	LABEL	01520	Pstat Serial Number
CTRLMODE	IQUANT	0	Control Mode
ELECTROMETER	IQUANT	1	RE=0 or CS=1
IESTAB	IQUANT	0	I/E Stability
CASPEED	IQUANT	4	Control Amp Speed
CONVENTION	IQUANT	1	Current Convention
ICHRANGE	IQUANT	2	Ich Range
ICHRANGEMODE	TOGGLE	T	Ich Auto Range
ICHOFFSETENABLE	TOGGLE	F	Ich Offset Enable
ICHOFFSET	QUANT	0	Ich Offset (V)
ICHFILTER	IQUANT	1	Ich Filter
VCHRANGE	IQUANT	2	Vch Range
VCHRANGEMODE	TOGGLE	T	Vch Auto Range
VCHOFFSETENABLE	TOGGLE	F	Vch Offset Enable
VCHOFFSET	QUANT	0	Vch Offset (V)
VCHFILTER	IQUANT	1	Vch Filter
IERANGELOWERLIMIT	IQUANT	9	I/E Range Lower Limit
IERANGEMODE	TOGGLE	F	I/E AutoRange
IERANGE	IQUANT	9	I/E Range
ACHSELECT	IQUANT	1	Ach Select
ACHRANGE	IQUANT	2	Ach Range
ACHOFFSETENABLE	TOGGLE	F	Ach Offset Enable
ACHOFFSET	QUANT	0	Ach Offset (V)
ACHFILTER	IQUANT	1	Ach Filter
CABLEID	IQUANT	14	Cable ID
DCCALDATE	LABEL	5-7-2017	DC Calibration Date
ACCALDATE	LABEL	12/3/2015	AC Calibration Date
FRAMEWORKVERSION	QUANT	7.01	Framework Version
INSTRUMENTVERSION	LABEL	4.00	Instrument Version
CURVE	TABLE	168
	Pt	T	Vf	Im	Vu	Pwr	Sig	Ach	Temp	IERange	Over
	#	s	V	A	V	W	V	V	deg C	#	bits
	0	0.013333	2.75112E-001	9.06636E-005	0.00000E+000	2.49427E-005	5.39641E-002	2.75157E-001	3.57330E+000	9	...........
	1	0.026667	2.94755E-001	9.08762E-005	0.00000E+000	2.67862E-005	5.39641E-002	2.94793E-001	3.57330E+000	9	...........
	2	0.04	3.13068E-001	9.10106E-005	0.00000E+000	2.84925E-005	5.39641E-002	3.13111E-001	3.57330E+000	9	...........
	3	0.053333	3.30249E-001	9.09710E-005	0.00000E+000	3.00431E-005	5.39641E-002	3.30294E-001	3.57330E+000	9	...........
	4	0.066667	3.46458E-001	9.08386E-005	0.00000E+000	3.14718E-005	5.39641E-002	3.46497E-001	3.57330E+000	9	...........
	5	0.08	3.61782E-001	9.08136E-005	0.00000E+000	3.28547E-005	5.39641E-002	3.61822E-001	3.57330E+000	9	...........
	6	0.093333	3.76328E-001	9.11679E-005	0.00000E+000	3.43090E-005	5.39641E-002	3.76372E-001	3.57330E+000	9	...........
	7	0.106667	3.90183E-001	9.09835E-005	0.00000E+000	3.55002E-005	5.39641E-002	3.90228E-001	3.57330E+000	9	...........
	8	0.12	4.03388E-001	9.08439E-005	0.00000E+000	3.66453E-005	5.39641E-002	4.03435E-001	3.57330E+000	9	...........
	9	0.133333	4.16002E-001	9.09658E-005	0.00000E+000	3.78420E-005	5.39641E-002	4.16060E-001	3.57330E+000	9	...........
	10	0.146667	4.28084E-001	9.09991E-005	0.00000E+000	3.89553E-005	5.39641E-002	4.28137E-001	3.57330E+000	9	...........
	11	0.16	4.39674E-001	9.09553E-005	0.00000E+000	3.99907E-005	5.39641E-002	4.39729E-001	3.57330E+000	9	...........
	12	0.173333	4.50825E-001	9.10449E-005	0.00000E+000	4.10453E-005	5.39641E-002	4.50880E-001	3.57330E+000	9	...........
	13	0.186667	4.61552E-001	9.10012E-005	0.00000E+000	4.20017E-005	5.39641E-002	4.61611E-001	3.57330E+000	9	...........
	14	0.2	4.71888E-001	9.09845E-005	0.00000E+000	4.29345E-005	5.39641E-002	4.71942E-001	3.57330E+000	9	...........
	15	0.213333	4.81867E-001	9.08397E-005	0.00000E+000	4.37727E-005	5.39641E-002	4.81929E-001	3.57330E+000	9	...........
	16	0.226667	4.91534E-001	9.10106E-005	0.00000E+000	4.47348E-005	5.39641E-002	4.91600E-001	3.57330E+000	9	...........
	17	0.24	5.00881E-001	9.10272E-005	0.00000E+000	4.55938E-005	5.39641E-002	5.00951E-001	3.57330E+000	9	...........
	18	0.253333	5.09924E-001	9.09501E-005	0.00000E+000	4.63776E-005	5.39641E-002	5.09995E-001	3.57330E+000	9	...........
	19	0.266667	5.18686E-001	9.11054E-005	0.00000E+000	4.72551E-005	5.39641E-002	5.18761E-001	3.57330E+000	9	...........
	20	0.28	5.27196E-001	9.11491E-005	0.00000E+000	4.80535E-005	5.39641E-002	5.27273E-001	3.57330E+000	9	...........
	21	0.293333	5.35396E-001	9.09074E-005	0.00000E+000	4.86715E-005	5.39641E-002	5.35474E-001	3.57330E+000	9	...........
	22	0.306667	5.43430E-001	9.06334E-005	0.00000E+000	4.92529E-005	5.39641E-002	5.43529E-001	3.57330E+000	9	...........
	23	0.32	5.51245E-001	9.10241E-005	0.00000E+000	5.01766E-005	5.39641E-002	5.51364E-001	3.57330E+000	9	...........
	24	0.333333	5.58857E-001	9.08678E-005	0.00000E+000	5.07821E-005	5.39641E-002	5.58980E-001	3.57330E+000	9	...........
	25	0.346667	5.66338E-001	9.08407E-005	0.00000E+000	5.14466E-005	5.39641E-002	5.66425E-001	3.57330E+000	9	...........
	26	0.36	5.73548E-001	9.12419E-005	0.00000E+000	5.23316E-005	5.39641E-002	5.73657E-001	3.57330E+000	9	...........
	27	0.373333	5.80590E-001	9.08147E-005	0.00000E+000	5.27261E-005	5.39641E-002	5.80708E-001	3.57330E+000	9	...........
	28	0.386667	5.87497E-001	9.08230E-005	0.00000E+000	5.33583E-005	5.39641E-002	5.87627E-001	3.57330E+000	9	...........
	29	0.4	5.94230E-001	9.07730E-005	0.00000E+000	5.39400E-005	5.39641E-002	5.94363E-001	3.57330E+000	9	...........
	30	0.413333	6.00808E-001	9.08814E-005	0.00000E+000	5.46023E-005	5.39641E-002	6.00955E-001	3.57330E+000	9	...........
	31	0.426667	6.07243E-001	9.10293E-005	0.00000E+000	5.52769E-005	5.39641E-002	6.07400E-001	3.57330E+000	9	...........
	32	0.44	6.13543E-001	9.09616E-005	0.00000E+000	5.58089E-005	5.39641E-002	6.13713E-001	3.57330E+000	9	...........
	33	0.453333	6.19744E-001	9.07303E-005	0.00000E+000	5.62296E-005	5.39641E-002	6.19878E-001	3.57330E+000	9	...........
	34	0.466667	6.25776E-001	9.12023E-005	0.00000E+000	5.70722E-005	5.39641E-002	6.25906E-001	3.57330E+000	9	...........
	35	0.48	6.31657E-001	9.10626E-005	0.00000E+000	5.75204E-005	5.39641E-002	6.31791E-001	3.57330E+000	9	...........
	36	0.493333	6.37423E-001	9.11439E-005	0.00000E+000	5.80972E-005	5.39641E-002	6.37579E-001	3.57330E+000	9	...........
	37	0.506667	6.43155E-001	9.10137E-005	0.00000E+000	5.85359E-005	5.39641E-002	6.43274E-001	3.57330E+000	9	...........
	38	0.52	6.48699E-001	9.11022E-005	0.00000E+000	5.90979E-005	5.39641E-002	6.48829E-001	3.57330E+000	9	...........
	39	0.533333	6.54174E-001	9.09397E-005	0.00000E+000	5.94904E-005	5.39641E-002	6.54285E-001	3.57330E+000	9	...........
	40	0.546667	6.59518E-001	9.06938E-005	0.00000E+000	5.98142E-005	5.39641E-002	6.59619E-001	3.57330E+000	9	...........
	41	0.56	6.64762E-001	9.08970E-005	0.00000E+000	6.04249E-005	5.39641E-002	6.64890E-001	3.57330E+000	9	...........
	42	0.573333	6.69939E-001	9.07053E-005	0.00000E+000	6.07670E-005	5.39641E-002	6.70040E-001	3.57330E+000	9	...........
	43	0.586667	6.74998E-001	9.10481E-005	0.00000E+000	6.14573E-005	5.39641E-002	6.75114E-001	3.57330E+000	9	...........
	44	0.6	6.79993E-001	9.10856E-005	0.00000E+000	6.19375E-005	5.39641E-002	6.80112E-001	3.57330E+000	9	...........
	45	0.613333	6.84868E-001	9.10522E-005	0.00000E+000	6.23588E-005	5.39641E-002	6.85029E-001	3.57330E+000	9	...........
	46	0.626667	6.89729E-001	9.09084E-005	0.00000E+000	6.27022E-005	5.39641E-002	6.89852E-001	3.57330E+000	9	...........
	47	0.64	6.94517E-001	9.10939E-005	0.00000E+000	6.32663E-005	5.39641E-002	6.94642E-001	3.57330E+000	9	...........
	48	0.653333	6.99187E-001	9.09605E-005	0.00000E+000	6.35985E-005	5.39641E-002	6.99304E-001	3.57330E+000	9	...........
	49	0.666667	7.03813E-001	9.08949E-005	0.00000E+000	6.39730E-005	5.39641E-002	7.03934E-001	3.57356E+000	9	...........
	50	0.68	7.08348E-001	9.09345E-005	0.00000E+000	6.44133E-005	5.39641E-002	7.08483E-001	3.57400E+000	9	...........
	51	0.693333	7.12829E-001	9.06782E-005	0.00000E+000	6.46380E-005	5.39641E-002	7.12944E-001	3.57400E+000	9	...........
	52	0.706667	7.17240E-001	9.10574E-005	0.00000E+000	6.53101E-005	5.39641E-002	7.17371E-001	3.57400E+000	9	...........
	53	0.72	7.21633E-001	9.09376E-005	0.00000E+000	6.56236E-005	5.39641E-002	7.21751E-001	3.57400E+000	9	...........
	54	0.733333	7.25920E-001	9.06834E-005	0.00000E+000	6.58289E-005	5.39641E-002	7.26023E-001	3.57400E+000	9	...........
	55	0.746667	7.30109E-001	9.10970E-005	0.00000E+000	6.65107E-005	5.39641E-002	7.30241E-001	3.57400E+000	9	...........
	56	0.76	7.34258E-001	9.10345E-005	0.00000E+000	6.68428E-005	5.39641E-002	7.34380E-001	3.57400E+000	9	...........
	57	0.773333	7.38323E-001	9.08261E-005	0.00000E+000	6.70590E-005	5.39641E-002	7.38460E-001	3.57400E+000	9	...........
	58	0.786667	7.42378E-001	9.09741E-005	0.00000E+000	6.75372E-005	5.39641E-002	7.42514E-001	3.57400E+000	9	...........
	59	0.8	7.46400E-001	9.10199E-005	0.00000E+000	6.79373E-005	5.39641E-002	7.46513E-001	3.57400E+000	9	...........
	60	0.813333	7.50340E-001	9.10053E-005	0.00000E+000	6.82849E-005	5.39641E-002	7.50474E-001	3.57400E+000	9	...........
	61	0.826667	7.54239E-001	9.11064E-005	0.00000E+000	6.87160E-005	5.39641E-002	7.54377E-001	3.57400E+000	9	...........
	62	0.84	7.58077E-001	9.10335E-005	0.00000E+000	6.90103E-005	5.39641E-002	7.58221E-001	3.57400E+000	9	...........
	63	0.853333	7.61860E-001	9.12804E-005	0.00000E+000	6.95429E-005	5.39641E-002	7.61999E-001	3.57400E+000	9	...........
	64	0.866667	7.65591E-001	9.10679E-005	0.00000E+000	6.97207E-005	5.39641E-002	7.65745E-001	3.57400E+000	9	...........
	65	0.88	7.69307E-001	9.11470E-005	0.00000E+000	7.01201E-005	5.39641E-002	7.69472E-001	3.57400E+000	9	...........
	66	0.893333	7.72976E-001	9.10251E-005	0.00000E+000	7.03602E-005	5.39641E-002	7.73102E-001	3.57400E+000	9	...........
	67	0.906667	7.76606E-001	9.12043E-005	0.00000E+000	7.08298E-005	5.39641E-002	7.76754E-001	3.57400E+000	9	...........
	68	0.92	7.80179E-001	9.09876E-005	0.00000E+000	7.09866E-005	5.39641E-002	7.80325E-001	3.57400E+000	9	...........
	69	0.933333	7.83730E-001	9.09376E-005	0.00000E+000	7.12705E-005	5.39641E-002	7.83854E-001	3.57400E+000	9	...........
	70	0.946667	7.87265E-001	9.11012E-005	0.00000E+000	7.17208E-005	5.39641E-002	7.87374E-001	3.57400E+000	9	...........
	71	0.96	7.90744E-001	9.12491E-005	0.00000E+000	7.21547E-005	5.39641E-002	7.90861E-001	3.57400E+000	9	...........
	72	0.97333	7.94210E-001	9.10553E-005	0.00000E+000	7.23171E-005	5.39641E-002	7.94321E-001	3.57400E+000	9	...........
	73	0.98667	7.97597E-001	9.13325E-005	0.00000E+000	7.28466E-005	5.39641E-002	7.97701E-001	3.57400E+000	9	...........
	74	1	8.00954E-001	9.08022E-005	0.00000E+000	7.27283E-005	5.39641E-002	8.01049E-001	3.57400E+000	9	...........
	75	1.01333	8.04247E-001	9.12064E-005	0.00000E+000	7.33525E-005	5.39641E-002	8.04365E-001	3.57400E+000	9	...........
	76	1.02667	8.07532E-001	9.10116E-005	0.00000E+000	7.34948E-005	5.39641E-002	8.07663E-001	3.57400E+000	9	...........
	77	1.04	8.10735E-001	9.10720E-005	0.00000E+000	7.38353E-005	5.39641E-002	8.10876E-001	3.57400E+000	9	...........
	78	1.05333	8.13940E-001	9.10897E-005	0.00000E+000	7.41416E-005	5.39641E-002	8.14096E-001	3.57400E+000	9	...........
	79	1.06667	8.17131E-001	9.11877E-005	0.00000E+000	7.45123E-005	5.39641E-002	8.17297E-001	3.57400E+000	9	...........
	80	1.08	8.20278E-001	9.10595E-005	0.00000E+000	7.46942E-005	5.39641E-002	8.20440E-001	3.57400E+000	9	...........
	81	1.09333	8.23383E-001	9.10616E-005	0.00000E+000	7.49786E-005	5.39641E-002	8.23547E-001	3.57400E+000	9	...........
	82	1.10667	8.26467E-001	9.09178E-005	0.00000E+000	7.51406E-005	5.39641E-002	8.26603E-001	3.57400E+000	9	...........
	83	1.12	8.29476E-001	9.08793E-005	0.00000E+000	7.53821E-005	5.39641E-002	8.29662E-001	3.57400E+000	9	...........
	84	1.13333	8.32479E-001	9.08261E-005	0.00000E+000	7.56109E-005	5.39641E-002	8.32661E-001	3.57400E+000	9	...........
	85	1.14667	8.35464E-001	9.09428E-005	0.00000E+000	7.59795E-005	5.39641E-002	8.35665E-001	3.57400E+000	9	...........
	86	1.16	8.38410E-001	9.10783E-005	0.00000E+000	7.63609E-005	5.39641E-002	8.38607E-001	3.57400E+000	9	...........
	87	1.17333	8.41330E-001	9.10814E-005	0.00000E+000	7.66295E-005	5.39641E-002	8.41524E-001	3.57400E+000	9	...........
	88	1.18667	8.44236E-001	9.09428E-005	0.00000E+000	7.67772E-005	5.39641E-002	8.44433E-001	3.57400E+000	9	...........
	89	1.2	8.47102E-001	9.14200E-005	0.00000E+000	7.74421E-005	5.39641E-002	8.47284E-001	3.57400E+000	9	...........
	90	1.21333	8.49931E-001	9.09012E-005	0.00000E+000	7.72597E-005	5.39641E-002	8.50114E-001	3.57400E+000	9	...........
	91	1.22667	8.52718E-001	9.10012E-005	0.00000E+000	7.75983E-005	5.39641E-002	8.52899E-001	3.57400E+000	9	...........
	92	1.24	8.55514E-001	9.12554E-005	0.00000E+000	7.80703E-005	5.39641E-002	8.55676E-001	3.57400E+000	9	...........
	93	1.25333	8.58261E-001	9.11939E-005	0.00000E+000	7.82682E-005	5.39641E-002	8.58434E-001	3.57400E+000	9	...........
	94	1.26667	8.60966E-001	9.10199E-005	0.00000E+000	7.83651E-005	5.39641E-002	8.61141E-001	3.57400E+000	9	...........
	95	1.28	8.63649E-001	9.10731E-005	0.00000E+000	7.86552E-005	5.39641E-002	8.63831E-001	3.57400E+000	9	...........
	96	1.29333	8.66309E-001	9.10178E-005	0.00000E+000	7.88496E-005	5.39641E-002	8.66491E-001	3.57400E+000	9	...........
	97	1.30667	8.68950E-001	9.07928E-005	0.00000E+000	7.88944E-005	5.39641E-002	8.69136E-001	3.57400E+000	9	...........
	98	1.32	8.71541E-001	9.08689E-005	0.00000E+000	7.91959E-005	5.39641E-002	8.71762E-001	3.57400E+000	9	...........
	99	1.33333	8.74103E-001	9.13012E-005	0.00000E+000	7.98067E-005	5.39641E-002	8.74303E-001	3.57400E+000	9	...........
	100	1.34667	8.76643E-001	9.12095E-005	0.00000E+000	7.99582E-005	5.39641E-002	8.76853E-001	3.57400E+000	9	...........
	101	1.36	8.79154E-001	9.10022E-005	0.00000E+000	8.00050E-005	5.39641E-002	8.79368E-001	3.57400E+000	9	...........
	102	1.37333	8.81661E-001	9.10210E-005	0.00000E+000	8.02496E-005	5.39641E-002	8.81868E-001	3.57400E+000	9	...........
	103	1.38667	8.84151E-001	9.08532E-005	0.00000E+000	8.03279E-005	5.39641E-002	8.84347E-001	3.57400E+000	9	...........
	104	1.4	8.86609E-001	9.08949E-005	0.00000E+000	8.05883E-005	5.39641E-002	8.86792E-001	3.57400E+000	9	...........
	105	1.41333	8.89045E-001	9.11022E-005	0.00000E+000	8.09940E-005	5.39641E-002	8.89223E-001	3.57400E+000	9	...........
	106	1.42667	8.91456E-001	9.07709E-005	0.00000E+000	8.09183E-005	5.39641E-002	8.91627E-001	3.57400E+000	9	...........
	107	1.44	8.93811E-001	9.11085E-005	0.00000E+000	8.14337E-005	5.39641E-002	8.94003E-001	3.57400E+000	9	...........
	108	1.45333	8.96205E-001	9.11043E-005	0.00000E+000	8.16482E-005	5.39641E-002	8.96407E-001	3.57400E+000	9	...........
	109	1.46667	8.98535E-001	9.09366E-005	0.00000E+000	8.17097E-005	5.39641E-002	8.98733E-001	3.57400E+000	9	...........
	110	1.48	9.00827E-001	9.08220E-005	0.00000E+000	8.18149E-005	5.39641E-002	9.01030E-001	3.57400E+000	9	...........
	111	1.49333	9.03121E-001	9.10835E-005	0.00000E+000	8.22595E-005	5.39641E-002	9.03309E-001	3.57400E+000	9	...........
	112	1.50667	9.05390E-001	9.09762E-005	0.00000E+000	8.23689E-005	5.39641E-002	9.05574E-001	3.57400E+000	9	...........
	113	1.52	9.07608E-001	9.09376E-005	0.00000E+000	8.25357E-005	5.39641E-002	9.07805E-001	3.57400E+000	9	...........
	114	1.53333	9.09804E-001	9.12012E-005	0.00000E+000	8.29752E-005	5.39641E-002	9.09984E-001	3.57400E+000	9	...........
	115	1.54667	9.11970E-001	9.08501E-005	0.00000E+000	8.28525E-005	5.39641E-002	9.12159E-001	3.57400E+000	9	...........
	116	1.56	9.14162E-001	9.11304E-005	0.00000E+000	8.33079E-005	5.39641E-002	9.14324E-001	3.57400E+000	9	...........
	117	1.57333	9.16283E-001	9.09605E-005	0.00000E+000	8.33456E-005	5.39641E-002	9.16474E-001	3.57400E+000	9	...........
	118	1.58667	9.18403E-001	9.09908E-005	0.00000E+000	8.35662E-005	5.39641E-002	9.18595E-001	3.57400E+000	9	...........
	119	1.6	9.20557E-001	9.11147E-005	0.00000E+000	8.38763E-005	5.39641E-002	9.20700E-001	3.57400E+000	9	...........
	120	1.61333	9.22649E-001	9.09105E-005	0.00000E+000	8.38785E-005	5.39641E-002	9.22789E-001	3.57400E+000	9	...........
	121	1.62667	9.24687E-001	9.10303E-005	0.00000E+000	8.41746E-005	5.39641E-002	9.24832E-001	3.57400E+000	9	...........
	122	1.64	9.26718E-001	9.09345E-005	0.00000E+000	8.42706E-005	5.39641E-002	9.26872E-001	3.57400E+000	9	...........
	123	1.65333	9.28717E-001	9.09783E-005	0.00000E+000	8.44931E-005	5.39641E-002	9.28878E-001	3.57400E+000	9	...........
	124	1.66667	9.30708E-001	9.09835E-005	0.00000E+000	8.46790E-005	5.39641E-002	9.30865E-001	3.57347E+000	9	...........
	125	1.68	9.32666E-001	9.10324E-005	0.00000E+000	8.49029E-005	5.39641E-002	9.32854E-001	3.57260E+000	9	...........
	126	1.69333	9.34617E-001	9.10897E-005	0.00000E+000	8.51340E-005	5.39641E-002	9.34784E-001	3.57260E+000	9	...........
	127	1.70667	9.36561E-001	9.09334E-005	0.00000E+000	8.51648E-005	5.39641E-002	9.36727E-001	3.57260E+000	9	...........
	128	1.72	9.38493E-001	9.11804E-005	0.00000E+000	8.55722E-005	5.39641E-002	9.38663E-001	3.57260E+000	9	...........
	129	1.73333	9.40404E-001	9.08272E-005	0.00000E+000	8.54142E-005	5.39641E-002	9.40581E-001	3.57260E+000	9	...........
	130	1.74667	9.42298E-001	9.10543E-005	0.00000E+000	8.58003E-005	5.39641E-002	9.42453E-001	3.57260E+000	9	...........
	131	1.76	9.44150E-001	9.08678E-005	0.00000E+000	8.57929E-005	5.39641E-002	9.44306E-001	3.57260E+000	9	...........
	132	1.77333	9.45957E-001	9.10491E-005	0.00000E+000	8.61286E-005	5.39641E-002	9.46158E-001	3.57260E+000	9	...........
	133	1.78667	9.47820E-001	9.09824E-005	0.00000E+000	8.62350E-005	5.39641E-002	9.47970E-001	3.57260E+000	9	...........
	134	1.8	9.49615E-001	9.09407E-005	0.00000E+000	8.63587E-005	5.39641E-002	9.49780E-001	3.57260E+000	9	...........
	135	1.81333	9.51358E-001	9.06876E-005	0.00000E+000	8.62763E-005	5.39641E-002	9.51544E-001	3.57260E+000	9	...........
	136	1.82667	9.53136E-001	9.09116E-005	0.00000E+000	8.66511E-005	5.39641E-002	9.53293E-001	3.57260E+000	9	...........
	137	1.84	9.54904E-001	9.12929E-005	0.00000E+000	8.71760E-005	5.39641E-002	9.55023E-001	3.57260E+000	9	...........
	138	1.85333	9.56566E-001	9.10241E-005	0.00000E+000	8.70706E-005	5.39641E-002	9.56726E-001	3.57260E+000	9	...........
	139	1.86667	9.58272E-001	9.10814E-005	0.00000E+000	8.72807E-005	5.39641E-002	9.58443E-001	3.57260E+000	9	...........
	140	1.88	9.59970E-001	9.09668E-005	0.00000E+000	8.73254E-005	5.39641E-002	9.60149E-001	3.57260E+000	9	...........
	141	1.89333	9.61637E-001	9.10762E-005	0.00000E+000	8.75822E-005	5.39641E-002	9.61814E-001	3.57260E+000	9	...........
	142	1.90667	9.63279E-001	9.11137E-005	0.00000E+000	8.77679E-005	5.39641E-002	9.63460E-001	3.57260E+000	9	...........
	143	1.92	9.64898E-001	9.09981E-005	0.00000E+000	8.78038E-005	5.39641E-002	9.65091E-001	3.57260E+000	9	...........
	144	1.93333	9.66522E-001	9.09960E-005	0.00000E+000	8.79496E-005	5.39641E-002	9.66709E-001	3.57260E+000	9	...........
	145	1.94667	9.68098E-001	9.10043E-005	0.00000E+000	8.81011E-005	5.39641E-002	9.68324E-001	3.57260E+000	9	...........
	146	1.96	9.69682E-001	9.11106E-005	0.00000E+000	8.83483E-005	5.39641E-002	9.69885E-001	3.57260E+000	9	...........
	147	1.97333	9.71244E-001	9.09949E-005	0.00000E+000	8.83783E-005	5.39641E-002	9.71475E-001	3.57260E+000	9	...........
	148	1.98667	9.72875E-001	9.10470E-005	0.00000E+000	8.85773E-005	5.39641E-002	9.73038E-001	3.57260E+000	9	...........
	149	2	9.74420E-001	9.08439E-005	0.00000E+000	8.85201E-005	5.39641E-002	9.74599E-001	3.57260E+000	9	...........
	150	2.01333	9.75921E-001	9.10012E-005	0.00000E+000	8.88100E-005	5.39641E-002	9.76101E-001	3.57260E+000	9	...........
	151	2.02667	9.77411E-001	9.10543E-005	0.00000E+000	8.89975E-005	5.39641E-002	9.77628E-001	3.57260E+000	9	...........
	152	2.04	9.78917E-001	9.08293E-005	0.00000E+000	8.89143E-005	5.39641E-002	9.79120E-001	3.57260E+000	9	...........
	153	2.05333	9.80401E-001	9.11252E-005	0.00000E+000	8.93392E-005	5.39641E-002	9.80571E-001	3.57260E+000	9	...........
	154	2.06667	9.81836E-001	9.10064E-005	0.00000E+000	8.93533E-005	5.39641E-002	9.82017E-001	3.57260E+000	9	...........
	155	2.08	9.83279E-001	9.12450E-005	0.00000E+000	8.97192E-005	5.39641E-002	9.83499E-001	3.57260E+000	9	...........
	156	2.09333	9.84699E-001	9.09418E-005	0.00000E+000	8.95503E-005	5.39641E-002	9.84915E-001	3.57260E+000	9	...........
	157	2.10667	9.86103E-001	9.10772E-005	0.00000E+000	8.98116E-005	5.39641E-002	9.86345E-001	3.57260E+000	9	...........
	158	2.12	9.87508E-001	9.09658E-005	0.00000E+000	8.98294E-005	5.39641E-002	9.87762E-001	3.57260E+000	9	...........
	159	2.13333	9.88919E-001	9.11554E-005	0.00000E+000	9.01453E-005	5.39641E-002	9.89147E-001	3.57260E+000	9	...........
	160	2.14667	9.90314E-001	9.10991E-005	0.00000E+000	9.02167E-005	5.39641E-002	9.90517E-001	3.57260E+000	9	...........
	161	2.16	9.91633E-001	9.08334E-005	0.00000E+000	9.00734E-005	5.39641E-002	9.91872E-001	3.57260E+000	9	...........
	162	2.17333	9.92986E-001	9.09668E-005	0.00000E+000	9.03287E-005	5.39641E-002	9.93216E-001	3.57260E+000	9	...........
	163	2.18667	9.94320E-001	9.10970E-005	0.00000E+000	9.05796E-005	5.39641E-002	9.94541E-001	3.57260E+000	9	...........
	164	2.2	9.95658E-001	9.11731E-005	0.00000E+000	9.07772E-005	5.39641E-002	9.95864E-001	3.57260E+000	9	...........
	165	2.21333	9.96972E-001	9.07824E-005	0.00000E+000	9.05075E-005	5.39641E-002	9.97191E-001	3.57260E+000	9	...........
	166	2.22667	9.98293E-001	9.09345E-005	0.00000E+000	9.07793E-005	5.39641E-002	9.98500E-001	3.57260E+000	9	...........
	167	2.24	9.99573E-001	9.08366E-005	0.00000E+000	9.07978E-005	5.39641E-002	9.99781E-001	3.57260E+000	9	...........
STARTTIMEOFFSET	QUANT	2273.357	Start Time Offset (s)
