EXPLAIN
TAG	PWR800_CHARGE
TITLE	LABEL	PWR Cyclic Charge Discharge (Cell) - Charge Step	Test &Identifier
DATE	LABEL	10-7-2017	Date
TIME	LABEL	16:10:09	Time
NOTES	NOTES	3	&Notes...
	supercap test cell
	0.9mg
	6M KOH
PSTAT	PSTAT	IFC5000-01520	Potentiostat
CAPACITY	QUANT	1.00000E-003	Capacity (A-hr)
CELLTYPE	SELECTOR	1	&Cell Type
WORKINGCONNECTION	SELECTOR	0	&Working Lead
MAXCHARGETIME	VARIABLEANDUNITS	1.00000E+002	s	1.00000E+002	second(s)	Max &Charge Time
CHARGECURRENT	QUANT	9.00000E-005	&Charge Current (A) 
VOLTAGEFINISH	TWOPARAM	F	1.00000E-003	3.60000E+003	&Voltage Finish	 I (A) < 	Max Time(s)
SAMPLETIME	QUANT	1.00000E-002	Sa&mple Period (s)
CHARGESTOPAT1	MULTIPARAM	4	1.00000E+000	Charge Stop At &1	Voltage > Limit	V
CHARGESTOPAT2	MULTIPARAM	0	0.00000E+000	Charge Stop At &2	None	N/A
AESBHCSELECTOR	TOGGLE	F	Save Both Half Cells
IRCOMP	TOGGLE	F	IR &Measure
EOC	QUANT	0	Open Circuit (V)
SEQUENCER	TOGGLE	TRUE	Run as Sequence
PSTATMODEL	IQUANT	53	Pstat Model
PSTATSECTION	LABEL	IFC5000-01520	Pstat Section
PSTATSERIALNO	LABEL	01520	Pstat Serial Number
CTRLMODE	IQUANT	0	Control Mode
ELECTROMETER	IQUANT	1	RE=0 or CS=1
IESTAB	IQUANT	0	I/E Stability
CASPEED	IQUANT	4	Control Amp Speed
CONVENTION	IQUANT	1	Current Convention
ICHRANGE	IQUANT	2	Ich Range
ICHRANGEMODE	TOGGLE	T	Ich Auto Range
ICHOFFSETENABLE	TOGGLE	F	Ich Offset Enable
ICHOFFSET	QUANT	0	Ich Offset (V)
ICHFILTER	IQUANT	1	Ich Filter
VCHRANGE	IQUANT	2	Vch Range
VCHRANGEMODE	TOGGLE	T	Vch Auto Range
VCHOFFSETENABLE	TOGGLE	F	Vch Offset Enable
VCHOFFSET	QUANT	0	Vch Offset (V)
VCHFILTER	IQUANT	1	Vch Filter
IERANGELOWERLIMIT	IQUANT	9	I/E Range Lower Limit
IERANGEMODE	TOGGLE	F	I/E AutoRange
IERANGE	IQUANT	9	I/E Range
ACHSELECT	IQUANT	1	Ach Select
ACHRANGE	IQUANT	2	Ach Range
ACHOFFSETENABLE	TOGGLE	F	Ach Offset Enable
ACHOFFSET	QUANT	0	Ach Offset (V)
ACHFILTER	IQUANT	1	Ach Filter
CABLEID	IQUANT	14	Cable ID
DCCALDATE	LABEL	5-7-2017	DC Calibration Date
ACCALDATE	LABEL	12/3/2015	AC Calibration Date
FRAMEWORKVERSION	QUANT	7.01	Framework Version
INSTRUMENTVERSION	LABEL	4.00	Instrument Version
CURVE	TABLE	163
	Pt	T	Vf	Im	Vu	Pwr	Sig	Ach	Temp	IERange	Over
	#	s	V	A	V	W	V	V	deg C	#	bits
	0	0.013333	2.79607E-001	9.11262E-005	0.00000E+000	2.54795E-005	5.39641E-002	2.79654E-001	3.57300E+000	9	...........
	1	0.026667	2.99003E-001	9.08668E-005	0.00000E+000	2.71695E-005	5.39641E-002	2.99047E-001	3.57300E+000	9	...........
	2	0.04	3.17169E-001	9.09262E-005	0.00000E+000	2.88389E-005	5.39641E-002	3.17210E-001	3.57300E+000	9	...........
	3	0.053333	3.34274E-001	9.09084E-005	0.00000E+000	3.03883E-005	5.39641E-002	3.34320E-001	3.57300E+000	9	...........
	4	0.066667	3.50436E-001	9.10314E-005	0.00000E+000	3.19007E-005	5.39641E-002	3.50484E-001	3.57300E+000	9	...........
	5	0.08	3.65755E-001	9.09647E-005	0.00000E+000	3.32708E-005	5.39641E-002	3.65803E-001	3.57300E+000	9	...........
	6	0.093333	3.80291E-001	9.08251E-005	0.00000E+000	3.45400E-005	5.39641E-002	3.80340E-001	3.57300E+000	9	...........
	7	0.106667	3.94138E-001	9.10887E-005	0.00000E+000	3.59015E-005	5.39641E-002	3.94185E-001	3.57300E+000	9	...........
	8	0.12	4.07352E-001	9.10012E-005	0.00000E+000	3.70695E-005	5.39641E-002	4.07400E-001	3.57300E+000	9	...........
	9	0.133333	4.19981E-001	9.08699E-005	0.00000E+000	3.81637E-005	5.39641E-002	4.20036E-001	3.57300E+000	9	...........
	10	0.146667	4.32077E-001	9.09855E-005	0.00000E+000	3.93128E-005	5.39641E-002	4.32136E-001	3.57300E+000	9	...........
	11	0.16	4.43681E-001	9.09241E-005	0.00000E+000	4.03413E-005	5.39641E-002	4.43741E-001	3.57300E+000	9	...........
	12	0.173333	4.54838E-001	9.09512E-005	0.00000E+000	4.13681E-005	5.39641E-002	4.54898E-001	3.57300E+000	9	...........
	13	0.186667	4.65574E-001	9.11043E-005	0.00000E+000	4.24158E-005	5.39641E-002	4.65632E-001	3.57300E+000	9	...........
	14	0.2	4.75907E-001	9.10918E-005	0.00000E+000	4.33512E-005	5.39641E-002	4.75972E-001	3.57300E+000	9	...........
	15	0.213333	4.85884E-001	9.12710E-005	0.00000E+000	4.43472E-005	5.39641E-002	4.85952E-001	3.57300E+000	9	...........
	16	0.226667	4.95510E-001	9.11585E-005	0.00000E+000	4.51699E-005	5.39641E-002	4.95579E-001	3.57300E+000	9	...........
	17	0.24	5.04826E-001	9.09678E-005	0.00000E+000	4.59229E-005	5.39641E-002	5.04900E-001	3.57300E+000	9	...........
	18	0.253333	5.13853E-001	9.10522E-005	0.00000E+000	4.67875E-005	5.39641E-002	5.13925E-001	3.57300E+000	9	...........
	19	0.266667	5.22588E-001	9.08855E-005	0.00000E+000	4.74957E-005	5.39641E-002	5.22663E-001	3.57300E+000	9	...........
	20	0.28	5.31037E-001	9.10335E-005	0.00000E+000	4.83421E-005	5.39641E-002	5.31117E-001	3.57300E+000	9	...........
	21	0.293333	5.39196E-001	9.10543E-005	0.00000E+000	4.90961E-005	5.39641E-002	5.39316E-001	3.57300E+000	9	...........
	22	0.306667	5.47219E-001	9.10366E-005	0.00000E+000	4.98169E-005	5.39641E-002	5.47329E-001	3.57300E+000	9	...........
	23	0.32	5.54995E-001	9.08428E-005	0.00000E+000	5.04173E-005	5.39641E-002	5.55126E-001	3.57300E+000	9	...........
	24	0.333333	5.62604E-001	9.10439E-005	0.00000E+000	5.12217E-005	5.39641E-002	5.62741E-001	3.57300E+000	9	...........
	25	0.346667	5.70028E-001	9.09157E-005	0.00000E+000	5.18246E-005	5.39641E-002	5.70116E-001	3.57300E+000	9	...........
	26	0.36	5.77219E-001	9.10929E-005	0.00000E+000	5.25805E-005	5.39641E-002	5.77336E-001	3.57300E+000	9	...........
	27	0.373333	5.84216E-001	9.09564E-005	0.00000E+000	5.31382E-005	5.39641E-002	5.84338E-001	3.57300E+000	9	...........
	28	0.386667	5.91097E-001	9.10116E-005	0.00000E+000	5.37967E-005	5.39641E-002	5.91238E-001	3.57300E+000	9	...........
	29	0.4	5.97800E-001	9.10637E-005	0.00000E+000	5.44379E-005	5.39641E-002	5.97903E-001	3.57300E+000	9	...........
	30	0.413333	6.04317E-001	9.10845E-005	0.00000E+000	5.50440E-005	5.39641E-002	6.04456E-001	3.57300E+000	9	...........
	31	0.426667	6.10720E-001	9.11033E-005	0.00000E+000	5.56386E-005	5.39641E-002	6.10852E-001	3.57300E+000	9	...........
	32	0.44	6.17057E-001	9.09803E-005	0.00000E+000	5.61400E-005	5.39641E-002	6.17161E-001	3.57300E+000	9	...........
	33	0.453333	6.23198E-001	9.09324E-005	0.00000E+000	5.66689E-005	5.39641E-002	6.23263E-001	3.57300E+000	9	...........
	34	0.466667	6.29205E-001	9.09105E-005	0.00000E+000	5.72014E-005	5.39641E-002	6.29297E-001	3.57300E+000	9	...........
	35	0.48	6.35086E-001	9.09689E-005	0.00000E+000	5.77731E-005	5.39641E-002	6.35186E-001	3.57300E+000	9	...........
	36	0.493333	6.40877E-001	9.11773E-005	0.00000E+000	5.84334E-005	5.39641E-002	6.40988E-001	3.57300E+000	9	...........
	37	0.506667	6.46559E-001	9.07584E-005	0.00000E+000	5.86807E-005	5.39641E-002	6.46651E-001	3.57300E+000	9	...........
	38	0.52	6.52105E-001	9.09137E-005	0.00000E+000	5.92852E-005	5.39641E-002	6.52243E-001	3.57300E+000	9	...........
	39	0.533333	6.57582E-001	9.10824E-005	0.00000E+000	5.98942E-005	5.39641E-002	6.57689E-001	3.57300E+000	9	...........
	40	0.546667	6.62933E-001	9.09074E-005	0.00000E+000	6.02655E-005	5.39641E-002	6.63067E-001	3.57300E+000	9	...........
	41	0.56	6.68251E-001	9.09428E-005	0.00000E+000	6.07726E-005	5.39641E-002	6.68339E-001	3.57300E+000	9	...........
	42	0.573333	6.73420E-001	9.10001E-005	0.00000E+000	6.12813E-005	5.39641E-002	6.73512E-001	3.57300E+000	9	...........
	43	0.586667	6.78476E-001	9.09824E-005	0.00000E+000	6.17294E-005	5.39641E-002	6.78603E-001	3.57300E+000	9	...........
	44	0.6	6.83464E-001	9.11314E-005	0.00000E+000	6.22850E-005	5.39641E-002	6.83575E-001	3.57300E+000	9	...........
	45	0.613333	6.88380E-001	9.10877E-005	0.00000E+000	6.27029E-005	5.39641E-002	6.88494E-001	3.57300E+000	9	...........
	46	0.626667	6.93213E-001	9.09793E-005	0.00000E+000	6.30680E-005	5.39641E-002	6.93339E-001	3.57300E+000	9	...........
	47	0.64	6.97979E-001	9.09168E-005	0.00000E+000	6.34580E-005	5.39641E-002	6.98098E-001	3.57300E+000	9	...........
	48	0.653333	7.02707E-001	9.10231E-005	0.00000E+000	6.39626E-005	5.39641E-002	7.02804E-001	3.57300E+000	9	...........
	49	0.666667	7.07299E-001	9.12689E-005	0.00000E+000	6.45544E-005	5.39641E-002	7.07440E-001	3.57300E+000	9	...........
	50	0.68	7.11867E-001	9.13575E-005	0.00000E+000	6.50344E-005	5.39641E-002	7.11998E-001	3.57300E+000	9	...........
	51	0.693333	7.16372E-001	9.09230E-005	0.00000E+000	6.51348E-005	5.39641E-002	7.16509E-001	3.57300E+000	9	...........
	52	0.706667	7.20840E-001	9.10303E-005	0.00000E+000	6.56183E-005	5.39641E-002	7.20945E-001	3.57300E+000	9	...........
	53	0.72	7.25202E-001	9.10501E-005	0.00000E+000	6.60297E-005	5.39641E-002	7.25301E-001	3.57300E+000	9	...........
	54	0.733333	7.29492E-001	9.10824E-005	0.00000E+000	6.64439E-005	5.39641E-002	7.29633E-001	3.57369E+000	9	...........
	55	0.746667	7.33740E-001	9.09241E-005	0.00000E+000	6.67146E-005	5.39641E-002	7.33880E-001	3.57410E+000	9	...........
	56	0.76	7.37950E-001	9.09762E-005	0.00000E+000	6.71359E-005	5.39641E-002	7.38084E-001	3.57410E+000	9	...........
	57	0.773333	7.42137E-001	9.12710E-005	0.00000E+000	6.77356E-005	5.39641E-002	7.42280E-001	3.57410E+000	9	...........
	58	0.786667	7.46226E-001	9.10501E-005	0.00000E+000	6.79440E-005	5.39641E-002	7.46363E-001	3.57410E+000	9	...........
	59	0.8	7.50300E-001	9.11491E-005	0.00000E+000	6.83892E-005	5.39641E-002	7.50420E-001	3.57410E+000	9	...........
	60	0.813333	7.54284E-001	9.07313E-005	0.00000E+000	6.84372E-005	5.39641E-002	7.54437E-001	3.57410E+000	9	...........
	61	0.826667	7.58235E-001	9.12168E-005	0.00000E+000	6.91638E-005	5.39641E-002	7.58387E-001	3.57410E+000	9	...........
	62	0.84	7.62117E-001	9.09345E-005	0.00000E+000	6.93027E-005	5.39641E-002	7.62276E-001	3.57410E+000	9	...........
	63	0.853333	7.65961E-001	9.08699E-005	0.00000E+000	6.96028E-005	5.39641E-002	7.66125E-001	3.57410E+000	9	...........
	64	0.866667	7.69778E-001	9.09658E-005	0.00000E+000	7.00235E-005	5.39641E-002	7.69931E-001	3.57410E+000	9	...........
	65	0.88	7.73545E-001	9.11523E-005	0.00000E+000	7.05104E-005	5.39641E-002	7.73672E-001	3.57410E+000	9	...........
	66	0.893333	7.77240E-001	9.08543E-005	0.00000E+000	7.06156E-005	5.39641E-002	7.77404E-001	3.57410E+000	9	...........
	67	0.906667	7.80921E-001	9.09939E-005	0.00000E+000	7.10591E-005	5.39641E-002	7.81055E-001	3.57410E+000	9	...........
	68	0.92	7.84568E-001	9.11679E-005	0.00000E+000	7.15274E-005	5.39641E-002	7.84697E-001	3.57410E+000	9	...........
	69	0.933333	7.88161E-001	9.12471E-005	0.00000E+000	7.19174E-005	5.39641E-002	7.88287E-001	3.57410E+000	9	...........
	70	0.946667	7.91708E-001	9.12398E-005	0.00000E+000	7.22352E-005	5.39641E-002	7.91870E-001	3.57410E+000	9	...........
	71	0.96	7.95275E-001	9.09970E-005	0.00000E+000	7.23677E-005	5.39641E-002	7.95381E-001	3.57410E+000	9	...........
	72	0.97333	7.98723E-001	9.11241E-005	0.00000E+000	7.27829E-005	5.39641E-002	7.98862E-001	3.57410E+000	9	...........
	73	0.98667	8.02170E-001	9.08918E-005	0.00000E+000	7.29107E-005	5.39641E-002	8.02303E-001	3.57410E+000	9	...........
	74	1	8.05592E-001	9.09012E-005	0.00000E+000	7.32292E-005	5.39641E-002	8.05701E-001	3.57410E+000	9	...........
	75	1.01333	8.08948E-001	9.10303E-005	0.00000E+000	7.36388E-005	5.39641E-002	8.09085E-001	3.57410E+000	9	...........
	76	1.02667	8.12282E-001	9.11325E-005	0.00000E+000	7.40252E-005	5.39641E-002	8.12425E-001	3.57410E+000	9	...........
	77	1.04	8.15594E-001	9.11616E-005	0.00000E+000	7.43509E-005	5.39641E-002	8.15733E-001	3.57410E+000	9	...........
	78	1.05333	8.18880E-001	9.08855E-005	0.00000E+000	7.44244E-005	5.39641E-002	8.19018E-001	3.57410E+000	9	...........
	79	1.06667	8.22135E-001	9.07605E-005	0.00000E+000	7.46174E-005	5.39641E-002	8.22278E-001	3.57410E+000	9	...........
	80	1.08	8.25350E-001	9.10033E-005	0.00000E+000	7.51096E-005	5.39641E-002	8.25466E-001	3.57410E+000	9	...........
	81	1.09333	8.28500E-001	9.09751E-005	0.00000E+000	7.53729E-005	5.39641E-002	8.28611E-001	3.57410E+000	9	...........
	82	1.10667	8.31611E-001	9.10679E-005	0.00000E+000	7.57331E-005	5.39641E-002	8.31747E-001	3.57410E+000	9	...........
	83	1.12	8.34704E-001	9.13075E-005	0.00000E+000	7.62147E-005	5.39641E-002	8.34848E-001	3.57410E+000	9	...........
	84	1.13333	8.37750E-001	9.08470E-005	0.00000E+000	7.61070E-005	5.39641E-002	8.37901E-001	3.57410E+000	9	...........
	85	1.14667	8.40806E-001	9.11064E-005	0.00000E+000	7.66028E-005	5.39641E-002	8.40932E-001	3.57410E+000	9	...........
	86	1.16	8.43832E-001	9.10585E-005	0.00000E+000	7.68381E-005	5.39641E-002	8.43973E-001	3.57410E+000	9	...........
	87	1.17333	8.46846E-001	9.07688E-005	0.00000E+000	7.68672E-005	5.39641E-002	8.46996E-001	3.57410E+000	9	...........
	88	1.18667	8.49781E-001	9.09762E-005	0.00000E+000	7.73098E-005	5.39641E-002	8.49973E-001	3.57410E+000	9	...........
	89	1.2	8.52708E-001	9.10970E-005	0.00000E+000	7.76791E-005	5.39641E-002	8.52893E-001	3.57410E+000	9	...........
	90	1.21333	8.55586E-001	9.12544E-005	0.00000E+000	7.80760E-005	5.39641E-002	8.55809E-001	3.57410E+000	9	...........
	91	1.22667	8.58437E-001	9.11564E-005	0.00000E+000	7.82521E-005	5.39641E-002	8.58652E-001	3.57410E+000	9	...........
	92	1.24	8.61284E-001	9.09918E-005	0.00000E+000	7.83697E-005	5.39641E-002	8.61464E-001	3.57410E+000	9	...........
	93	1.25333	8.64078E-001	9.11731E-005	0.00000E+000	7.87807E-005	5.39641E-002	8.64254E-001	3.57410E+000	9	...........
	94	1.26667	8.66863E-001	9.08147E-005	0.00000E+000	7.87239E-005	5.39641E-002	8.67049E-001	3.57410E+000	9	...........
	95	1.28	8.69650E-001	9.11700E-005	0.00000E+000	7.92860E-005	5.39641E-002	8.69824E-001	3.57410E+000	9	...........
	96	1.29333	8.72361E-001	9.10710E-005	0.00000E+000	7.94468E-005	5.39641E-002	8.72528E-001	3.57410E+000	9	...........
	97	1.30667	8.75036E-001	9.09658E-005	0.00000E+000	7.95983E-005	5.39641E-002	8.75233E-001	3.57410E+000	9	...........
	98	1.32	8.77692E-001	9.10606E-005	0.00000E+000	7.99231E-005	5.39641E-002	8.77872E-001	3.57410E+000	9	...........
	99	1.33333	8.80292E-001	9.09668E-005	0.00000E+000	8.00773E-005	5.39641E-002	8.80519E-001	3.57410E+000	9	...........
	100	1.34667	8.82918E-001	9.09126E-005	0.00000E+000	8.02684E-005	5.39641E-002	8.83122E-001	3.57410E+000	9	...........
	101	1.36	8.85471E-001	9.09532E-005	0.00000E+000	8.05365E-005	5.39641E-002	8.85698E-001	3.57410E+000	9	...........
	102	1.37333	8.88028E-001	9.06563E-005	0.00000E+000	8.05054E-005	5.39641E-002	8.88224E-001	3.57410E+000	9	...........
	103	1.38667	8.90547E-001	9.10835E-005	0.00000E+000	8.11141E-005	5.39641E-002	8.90743E-001	3.57410E+000	9	...........
	104	1.4	8.93035E-001	9.10262E-005	0.00000E+000	8.12896E-005	5.39641E-002	8.93239E-001	3.57410E+000	9	...........
	105	1.41333	8.95499E-001	9.08876E-005	0.00000E+000	8.13897E-005	5.39641E-002	8.95725E-001	3.57410E+000	9	...........
	106	1.42667	8.97966E-001	9.09678E-005	0.00000E+000	8.16860E-005	5.39641E-002	8.98168E-001	3.57410E+000	9	...........
	107	1.44	9.00374E-001	9.10449E-005	0.00000E+000	8.19745E-005	5.39641E-002	9.00570E-001	3.57410E+000	9	...........
	108	1.45333	9.02791E-001	9.10731E-005	0.00000E+000	8.22200E-005	5.39641E-002	9.02987E-001	3.57410E+000	9	...........
	109	1.46667	9.05171E-001	9.10793E-005	0.00000E+000	8.24424E-005	5.39641E-002	9.05367E-001	3.57410E+000	9	...........
	110	1.48	9.07499E-001	9.07470E-005	0.00000E+000	8.23528E-005	5.39641E-002	9.07694E-001	3.57410E+000	9	...........
	111	1.49333	9.09860E-001	9.09168E-005	0.00000E+000	8.27216E-005	5.39641E-002	9.10007E-001	3.57410E+000	9	...........
	112	1.50667	9.12140E-001	9.10606E-005	0.00000E+000	8.30600E-005	5.39641E-002	9.12309E-001	3.57410E+000	9	...........
	113	1.52	9.14403E-001	9.11210E-005	0.00000E+000	8.33213E-005	5.39641E-002	9.14577E-001	3.57410E+000	9	...........
	114	1.53333	9.16641E-001	9.12314E-005	0.00000E+000	8.36265E-005	5.39641E-002	9.16868E-001	3.57410E+000	9	...........
	115	1.54667	9.18891E-001	9.09397E-005	0.00000E+000	8.35637E-005	5.39641E-002	9.19082E-001	3.57410E+000	9	...........
	116	1.56	9.21158E-001	9.05177E-005	0.00000E+000	8.33812E-005	5.39641E-002	9.21302E-001	3.57410E+000	9	...........
	117	1.57333	9.23377E-001	9.10616E-005	0.00000E+000	8.40841E-005	5.39641E-002	9.23515E-001	3.57410E+000	9	...........
	118	1.58667	9.25506E-001	9.09647E-005	0.00000E+000	8.41884E-005	5.39641E-002	9.25647E-001	3.57410E+000	9	...........
	119	1.6	9.27641E-001	9.07793E-005	0.00000E+000	8.42105E-005	5.39641E-002	9.27779E-001	3.57410E+000	9	...........
	120	1.61333	9.29725E-001	9.08428E-005	0.00000E+000	8.44588E-005	5.39641E-002	9.29879E-001	3.57410E+000	9	...........
	121	1.62667	9.31790E-001	9.08845E-005	0.00000E+000	8.46852E-005	5.39641E-002	9.31947E-001	3.57410E+000	9	...........
	122	1.64	9.33872E-001	9.11939E-005	0.00000E+000	8.51634E-005	5.39641E-002	9.34053E-001	3.57410E+000	9	...........
	123	1.65333	9.35926E-001	9.10397E-005	0.00000E+000	8.52064E-005	5.39641E-002	9.36089E-001	3.57410E+000	9	...........
	124	1.66667	9.37922E-001	9.11700E-005	0.00000E+000	8.55103E-005	5.39641E-002	9.38110E-001	3.57410E+000	9	...........
	125	1.68	9.39920E-001	9.08105E-005	0.00000E+000	8.53546E-005	5.39641E-002	9.40080E-001	3.57410E+000	9	...........
	126	1.69333	9.41877E-001	9.11158E-005	0.00000E+000	8.58199E-005	5.39641E-002	9.42038E-001	3.57410E+000	9	...........
	127	1.70667	9.43824E-001	9.09532E-005	0.00000E+000	8.58439E-005	5.39641E-002	9.44010E-001	3.57410E+000	9	...........
	128	1.72	9.45770E-001	9.10314E-005	0.00000E+000	8.60947E-005	5.39641E-002	9.45958E-001	3.57410E+000	9	...........
	129	1.73333	9.47689E-001	9.11074E-005	0.00000E+000	8.63415E-005	5.39641E-002	9.47864E-001	3.57329E+000	9	...........
	130	1.74667	9.49594E-001	9.09647E-005	0.00000E+000	8.63795E-005	5.39641E-002	9.49758E-001	3.57280E+000	9	...........
	131	1.76	9.51434E-001	9.07001E-005	0.00000E+000	8.62952E-005	5.39641E-002	9.51638E-001	3.57280E+000	9	...........
	132	1.77333	9.53287E-001	9.07407E-005	0.00000E+000	8.65020E-005	5.39641E-002	9.53501E-001	3.57280E+000	9	...........
	133	1.78667	9.55124E-001	9.10512E-005	0.00000E+000	8.69652E-005	5.39641E-002	9.55316E-001	3.57280E+000	9	...........
	134	1.8	9.56949E-001	9.11199E-005	0.00000E+000	8.71971E-005	5.39641E-002	9.57146E-001	3.57280E+000	9	...........
	135	1.81333	9.58706E-001	9.10012E-005	0.00000E+000	8.72434E-005	5.39641E-002	9.58928E-001	3.57280E+000	9	...........
	136	1.82667	9.60451E-001	9.11825E-005	0.00000E+000	8.75763E-005	5.39641E-002	9.60681E-001	3.57280E+000	9	...........
	137	1.84	9.62181E-001	9.11793E-005	0.00000E+000	8.77310E-005	5.39641E-002	9.62413E-001	3.57280E+000	9	...........
	138	1.85333	9.63901E-001	9.12335E-005	0.00000E+000	8.79401E-005	5.39641E-002	9.64145E-001	3.57280E+000	9	...........
	139	1.86667	9.65608E-001	9.10908E-005	0.00000E+000	8.79580E-005	5.39641E-002	9.65831E-001	3.57280E+000	9	...........
	140	1.88	9.67314E-001	9.10335E-005	0.00000E+000	8.80580E-005	5.39641E-002	9.67540E-001	3.57280E+000	9	...........
	141	1.89333	9.68960E-001	9.12512E-005	0.00000E+000	8.84187E-005	5.39641E-002	9.69176E-001	3.57280E+000	9	...........
	142	1.90667	9.70606E-001	9.09032E-005	0.00000E+000	8.82313E-005	5.39641E-002	9.70843E-001	3.57280E+000	9	...........
	143	1.92	9.72233E-001	9.10022E-005	0.00000E+000	8.84754E-005	5.39641E-002	9.72458E-001	3.57280E+000	9	...........
	144	1.93333	9.73905E-001	9.12512E-005	0.00000E+000	8.88700E-005	5.39641E-002	9.74071E-001	3.57280E+000	9	...........
	145	1.94667	9.75511E-001	9.07397E-005	0.00000E+000	8.85175E-005	5.39641E-002	9.75690E-001	3.57280E+000	9	...........
	146	1.96	9.77088E-001	9.10804E-005	0.00000E+000	8.89935E-005	5.39641E-002	9.77273E-001	3.57280E+000	9	...........
	147	1.97333	9.78667E-001	9.09876E-005	0.00000E+000	8.90466E-005	5.39641E-002	9.78849E-001	3.57280E+000	9	...........
	148	1.98667	9.80184E-001	9.10387E-005	0.00000E+000	8.92346E-005	5.39641E-002	9.80364E-001	3.57280E+000	9	...........
	149	2	9.81703E-001	9.07615E-005	0.00000E+000	8.91009E-005	5.39641E-002	9.81876E-001	3.57280E+000	9	...........
	150	2.01333	9.83221E-001	9.09553E-005	0.00000E+000	8.94292E-005	5.39641E-002	9.83401E-001	3.57280E+000	9	...........
	151	2.02667	9.84724E-001	9.12231E-005	0.00000E+000	8.98296E-005	5.39641E-002	9.84936E-001	3.57280E+000	9	...........
	152	2.04	9.86251E-001	9.11127E-005	0.00000E+000	8.98599E-005	5.39641E-002	9.86425E-001	3.57280E+000	9	...........
	153	2.05333	9.87705E-001	9.12179E-005	0.00000E+000	9.00964E-005	5.39641E-002	9.87912E-001	3.57280E+000	9	...........
	154	2.06667	9.89162E-001	9.12742E-005	0.00000E+000	9.02849E-005	5.39641E-002	9.89351E-001	3.57280E+000	9	...........
	155	2.08	9.90593E-001	9.10470E-005	0.00000E+000	9.01905E-005	5.39641E-002	9.90782E-001	3.57280E+000	9	...........
	156	2.09333	9.92016E-001	9.10897E-005	0.00000E+000	9.03624E-005	5.39641E-002	9.92206E-001	3.57280E+000	9	...........
	157	2.10667	9.93417E-001	9.08605E-005	0.00000E+000	9.02624E-005	5.39641E-002	9.93627E-001	3.57280E+000	9	...........
	158	2.12	9.94809E-001	9.09751E-005	0.00000E+000	9.05029E-005	5.39641E-002	9.95020E-001	3.57280E+000	9	...........
	159	2.13333	9.96201E-001	9.11116E-005	0.00000E+000	9.07655E-005	5.39641E-002	9.96384E-001	3.57280E+000	9	...........
	160	2.14667	9.97571E-001	9.09491E-005	0.00000E+000	9.07282E-005	5.39641E-002	9.97784E-001	3.57280E+000	9	...........
	161	2.16	9.98963E-001	9.12189E-005	0.00000E+000	9.11243E-005	5.39641E-002	9.99159E-001	3.57280E+000	9	...........
	162	2.165	9.99893E-001	9.10015E-005	0.00000E+000	9.09918E-005	5.39641E-002	1.00010E+000	3.57280E+000	9	...........
STARTTIMEOFFSET	QUANT	3570.627	Start Time Offset (s)
