EXPLAIN
TAG	PWR800_CHARGE
TITLE	LABEL	PWR Cyclic Charge Discharge (Cell) - Charge Step	Test &Identifier
DATE	LABEL	10-7-2017	Date
TIME	LABEL	15:48:47	Time
NOTES	NOTES	3	&Notes...
	supercap test cell
	0.9mg
	6M KOH
PSTAT	PSTAT	IFC5000-01520	Potentiostat
CAPACITY	QUANT	1.00000E-003	Capacity (A-hr)
CELLTYPE	SELECTOR	1	&Cell Type
WORKINGCONNECTION	SELECTOR	0	&Working Lead
MAXCHARGETIME	VARIABLEANDUNITS	1.00000E+002	s	1.00000E+002	second(s)	Max &Charge Time
CHARGECURRENT	QUANT	9.00000E-005	&Charge Current (A) 
VOLTAGEFINISH	TWOPARAM	F	1.00000E-003	3.60000E+003	&Voltage Finish	 I (A) < 	Max Time(s)
SAMPLETIME	QUANT	1.00000E-002	Sa&mple Period (s)
CHARGESTOPAT1	MULTIPARAM	4	1.00000E+000	Charge Stop At &1	Voltage > Limit	V
CHARGESTOPAT2	MULTIPARAM	0	0.00000E+000	Charge Stop At &2	None	N/A
AESBHCSELECTOR	TOGGLE	F	Save Both Half Cells
IRCOMP	TOGGLE	F	IR &Measure
EOC	QUANT	0	Open Circuit (V)
SEQUENCER	TOGGLE	TRUE	Run as Sequence
PSTATMODEL	IQUANT	53	Pstat Model
PSTATSECTION	LABEL	IFC5000-01520	Pstat Section
PSTATSERIALNO	LABEL	01520	Pstat Serial Number
CTRLMODE	IQUANT	0	Control Mode
ELECTROMETER	IQUANT	1	RE=0 or CS=1
IESTAB	IQUANT	0	I/E Stability
CASPEED	IQUANT	4	Control Amp Speed
CONVENTION	IQUANT	1	Current Convention
ICHRANGE	IQUANT	2	Ich Range
ICHRANGEMODE	TOGGLE	T	Ich Auto Range
ICHOFFSETENABLE	TOGGLE	F	Ich Offset Enable
ICHOFFSET	QUANT	0	Ich Offset (V)
ICHFILTER	IQUANT	1	Ich Filter
VCHRANGE	IQUANT	2	Vch Range
VCHRANGEMODE	TOGGLE	T	Vch Auto Range
VCHOFFSETENABLE	TOGGLE	F	Vch Offset Enable
VCHOFFSET	QUANT	0	Vch Offset (V)
VCHFILTER	IQUANT	1	Vch Filter
IERANGELOWERLIMIT	IQUANT	9	I/E Range Lower Limit
IERANGEMODE	TOGGLE	F	I/E AutoRange
IERANGE	IQUANT	9	I/E Range
ACHSELECT	IQUANT	1	Ach Select
ACHRANGE	IQUANT	2	Ach Range
ACHOFFSETENABLE	TOGGLE	F	Ach Offset Enable
ACHOFFSET	QUANT	0	Ach Offset (V)
ACHFILTER	IQUANT	1	Ach Filter
CABLEID	IQUANT	14	Cable ID
DCCALDATE	LABEL	5-7-2017	DC Calibration Date
ACCALDATE	LABEL	12/3/2015	AC Calibration Date
FRAMEWORKVERSION	QUANT	7.01	Framework Version
INSTRUMENTVERSION	LABEL	4.00	Instrument Version
CURVE	TABLE	168
	Pt	T	Vf	Im	Vu	Pwr	Sig	Ach	Temp	IERange	Over
	#	s	V	A	V	W	V	V	deg C	#	bits
	0	0.013333	2.71222E-001	9.09209E-005	0.00000E+000	2.46597E-005	5.39641E-002	2.71284E-001	3.57260E+000	9	...........
	1	0.026667	2.90958E-001	9.11950E-005	0.00000E+000	2.65339E-005	5.39641E-002	2.90997E-001	3.57260E+000	9	...........
	2	0.04	3.09381E-001	9.10647E-005	0.00000E+000	2.81737E-005	5.39641E-002	3.09427E-001	3.57260E+000	9	...........
	3	0.053333	3.26692E-001	9.08397E-005	0.00000E+000	2.96766E-005	5.39641E-002	3.26737E-001	3.57260E+000	9	...........
	4	0.066667	3.43030E-001	9.11085E-005	0.00000E+000	3.12530E-005	5.39641E-002	3.43076E-001	3.57279E+000	9	...........
	5	0.08	3.58506E-001	9.07459E-005	0.00000E+000	3.25329E-005	5.39641E-002	3.58550E-001	3.57290E+000	9	...........
	6	0.093333	3.73201E-001	9.10554E-005	0.00000E+000	3.39820E-005	5.39641E-002	3.73247E-001	3.57290E+000	9	...........
	7	0.106667	3.87192E-001	9.11575E-005	0.00000E+000	3.52954E-005	5.39641E-002	3.87236E-001	3.57290E+000	9	...........
	8	0.12	4.00546E-001	9.10929E-005	0.00000E+000	3.64869E-005	5.39641E-002	4.00592E-001	3.57290E+000	9	...........
	9	0.133333	4.13302E-001	9.09720E-005	0.00000E+000	3.75989E-005	5.39641E-002	4.13363E-001	3.57290E+000	9	...........
	10	0.146667	4.25514E-001	9.11408E-005	0.00000E+000	3.87817E-005	5.39641E-002	4.25572E-001	3.57290E+000	9	...........
	11	0.16	4.37226E-001	9.14325E-005	0.00000E+000	3.99767E-005	5.39641E-002	4.37282E-001	3.57290E+000	9	...........
	12	0.173333	4.48485E-001	9.11377E-005	0.00000E+000	4.08739E-005	5.39641E-002	4.48539E-001	3.57290E+000	9	...........
	13	0.186667	4.59327E-001	9.07928E-005	0.00000E+000	4.17035E-005	5.39641E-002	4.59394E-001	3.57290E+000	9	...........
	14	0.2	4.69792E-001	9.11929E-005	0.00000E+000	4.28417E-005	5.39641E-002	4.69853E-001	3.57290E+000	9	...........
	15	0.213333	4.79868E-001	9.09137E-005	0.00000E+000	4.36266E-005	5.39641E-002	4.79932E-001	3.57290E+000	9	...........
	16	0.226667	4.89610E-001	9.10897E-005	0.00000E+000	4.45984E-005	5.39641E-002	4.89679E-001	3.57290E+000	9	...........
	17	0.24	4.99033E-001	9.11543E-005	0.00000E+000	4.54890E-005	5.39641E-002	4.99104E-001	3.57290E+000	9	...........
	18	0.253333	5.08146E-001	9.10543E-005	0.00000E+000	4.62689E-005	5.39641E-002	5.08218E-001	3.57290E+000	9	...........
	19	0.266667	5.17004E-001	9.09251E-005	0.00000E+000	4.70087E-005	5.39641E-002	5.17072E-001	3.57290E+000	9	...........
	20	0.28	5.25599E-001	9.09928E-005	0.00000E+000	4.78257E-005	5.39641E-002	5.25674E-001	3.57290E+000	9	...........
	21	0.293333	5.33882E-001	9.10689E-005	0.00000E+000	4.86201E-005	5.39641E-002	5.33980E-001	3.57290E+000	9	...........
	22	0.306667	5.41958E-001	9.10335E-005	0.00000E+000	4.93363E-005	5.39641E-002	5.42059E-001	3.57290E+000	9	...........
	23	0.32	5.49848E-001	9.07615E-005	0.00000E+000	4.99051E-005	5.39641E-002	5.49925E-001	3.57290E+000	9	...........
	24	0.333333	5.57489E-001	9.10699E-005	0.00000E+000	5.07705E-005	5.39641E-002	5.57596E-001	3.57290E+000	9	...........
	25	0.346667	5.64994E-001	9.09814E-005	0.00000E+000	5.14039E-005	5.39641E-002	5.65121E-001	3.57290E+000	9	...........
	26	0.36	5.72300E-001	9.09751E-005	0.00000E+000	5.20651E-005	5.39641E-002	5.72405E-001	3.57290E+000	9	...........
	27	0.373333	5.79382E-001	9.09470E-005	0.00000E+000	5.26930E-005	5.39641E-002	5.79533E-001	3.57290E+000	9	...........
	28	0.386667	5.86317E-001	9.09480E-005	0.00000E+000	5.33244E-005	5.39641E-002	5.86432E-001	3.57290E+000	9	...........
	29	0.4	5.93118E-001	9.09960E-005	0.00000E+000	5.39714E-005	5.39641E-002	5.93245E-001	3.57290E+000	9	...........
	30	0.413333	5.99704E-001	9.09960E-005	0.00000E+000	5.45707E-005	5.39641E-002	5.99846E-001	3.57290E+000	9	...........
	31	0.426667	6.06164E-001	9.10428E-005	0.00000E+000	5.51869E-005	5.39641E-002	6.06330E-001	3.57290E+000	9	...........
	32	0.44	6.12482E-001	9.11033E-005	0.00000E+000	5.57991E-005	5.39641E-002	6.12644E-001	3.57290E+000	9	...........
	33	0.453333	6.18730E-001	9.11200E-005	0.00000E+000	5.63787E-005	5.39641E-002	6.18842E-001	3.57290E+000	9	...........
	34	0.466667	6.24745E-001	9.13356E-005	0.00000E+000	5.70615E-005	5.39641E-002	6.24864E-001	3.57290E+000	9	...........
	35	0.48	6.30671E-001	9.09074E-005	0.00000E+000	5.73326E-005	5.39641E-002	6.30801E-001	3.57290E+000	9	...........
	36	0.493333	6.36470E-001	9.09887E-005	0.00000E+000	5.79116E-005	5.39641E-002	6.36597E-001	3.57290E+000	9	...........
	37	0.506667	6.42214E-001	9.09272E-005	0.00000E+000	5.83947E-005	5.39641E-002	6.42319E-001	3.57290E+000	9	...........
	38	0.52	6.47787E-001	9.09178E-005	0.00000E+000	5.88954E-005	5.39641E-002	6.47891E-001	3.57290E+000	9	...........
	39	0.533333	6.53269E-001	9.09303E-005	0.00000E+000	5.94020E-005	5.39641E-002	6.53403E-001	3.57290E+000	9	...........
	40	0.546667	6.58657E-001	9.10085E-005	0.00000E+000	5.99434E-005	5.39641E-002	6.58759E-001	3.57290E+000	9	...........
	41	0.56	6.63939E-001	9.12981E-005	0.00000E+000	6.06164E-005	5.39641E-002	6.64069E-001	3.57290E+000	9	...........
	42	0.573333	6.69168E-001	9.09428E-005	0.00000E+000	6.08560E-005	5.39641E-002	6.69254E-001	3.57290E+000	9	...........
	43	0.586667	6.74253E-001	9.10970E-005	0.00000E+000	6.14225E-005	5.39641E-002	6.74350E-001	3.57290E+000	9	...........
	44	0.6	6.79259E-001	9.09835E-005	0.00000E+000	6.18013E-005	5.39641E-002	6.79358E-001	3.57290E+000	9	...........
	45	0.613333	6.84187E-001	9.10189E-005	0.00000E+000	6.22739E-005	5.39641E-002	6.84275E-001	3.57290E+000	9	...........
	46	0.626667	6.89025E-001	9.07647E-005	0.00000E+000	6.25391E-005	5.39641E-002	6.89119E-001	3.57290E+000	9	...........
	47	0.64	6.93807E-001	9.10845E-005	0.00000E+000	6.31950E-005	5.39641E-002	6.93883E-001	3.57290E+000	9	...........
	48	0.653333	6.98503E-001	9.08626E-005	0.00000E+000	6.34678E-005	5.39641E-002	6.98607E-001	3.57290E+000	9	...........
	49	0.666667	7.03153E-001	9.08324E-005	0.00000E+000	6.38690E-005	5.39641E-002	7.03242E-001	3.57290E+000	9	...........
	50	0.68	7.07695E-001	9.08636E-005	0.00000E+000	6.43038E-005	5.39641E-002	7.07805E-001	3.57290E+000	9	...........
	51	0.693333	7.12203E-001	9.09835E-005	0.00000E+000	6.47987E-005	5.39641E-002	7.12300E-001	3.57290E+000	9	...........
	52	0.706667	7.16689E-001	9.09501E-005	0.00000E+000	6.51829E-005	5.39641E-002	7.16789E-001	3.57290E+000	9	...........
	53	0.72	7.21089E-001	9.11470E-005	0.00000E+000	6.57251E-005	5.39641E-002	7.21151E-001	3.57290E+000	9	...........
	54	0.733333	7.25371E-001	9.09543E-005	0.00000E+000	6.59756E-005	5.39641E-002	7.25480E-001	3.57290E+000	9	...........
	55	0.746667	7.29634E-001	9.09814E-005	0.00000E+000	6.63831E-005	5.39641E-002	7.29739E-001	3.57290E+000	9	...........
	56	0.76	7.33798E-001	9.10512E-005	0.00000E+000	6.68131E-005	5.39641E-002	7.33899E-001	3.57290E+000	9	...........
	57	0.773333	7.37942E-001	9.12043E-005	0.00000E+000	6.73035E-005	5.39641E-002	7.38038E-001	3.57290E+000	9	...........
	58	0.786667	7.42046E-001	9.09449E-005	0.00000E+000	6.74853E-005	5.39641E-002	7.42161E-001	3.57290E+000	9	...........
	59	0.8	7.46077E-001	9.10731E-005	0.00000E+000	6.79475E-005	5.39641E-002	7.46174E-001	3.57290E+000	9	...........
	60	0.813333	7.50064E-001	9.10001E-005	0.00000E+000	6.82559E-005	5.39641E-002	7.50169E-001	3.57290E+000	9	...........
	61	0.826667	7.54015E-001	9.10262E-005	0.00000E+000	6.86351E-005	5.39641E-002	7.54114E-001	3.57290E+000	9	...........
	62	0.84	7.57928E-001	9.10845E-005	0.00000E+000	6.90355E-005	5.39641E-002	7.58021E-001	3.57290E+000	9	...........
	63	0.853333	7.61728E-001	9.13648E-005	0.00000E+000	6.95951E-005	5.39641E-002	7.61837E-001	3.57290E+000	9	...........
	64	0.866667	7.65467E-001	9.09439E-005	0.00000E+000	6.96145E-005	5.39641E-002	7.65615E-001	3.57290E+000	9	...........
	65	0.88	7.69211E-001	9.09918E-005	0.00000E+000	6.99919E-005	5.39641E-002	7.69361E-001	3.57290E+000	9	...........
	66	0.893333	7.72890E-001	9.08397E-005	0.00000E+000	7.02090E-005	5.39641E-002	7.73032E-001	3.57290E+000	9	...........
	67	0.906667	7.76525E-001	9.11908E-005	0.00000E+000	7.08119E-005	5.39641E-002	7.76682E-001	3.57290E+000	9	...........
	68	0.92	7.80160E-001	9.08689E-005	0.00000E+000	7.08922E-005	5.39641E-002	7.80296E-001	3.57290E+000	9	...........
	69	0.933333	7.83725E-001	9.10564E-005	0.00000E+000	7.13632E-005	5.39641E-002	7.83864E-001	3.57290E+000	9	...........
	70	0.946667	7.87272E-001	9.10210E-005	0.00000E+000	7.16583E-005	5.39641E-002	7.87406E-001	3.57290E+000	9	...........
	71	0.96	7.90745E-001	9.04979E-005	0.00000E+000	7.15608E-005	5.39641E-002	7.90895E-001	3.57290E+000	9	...........
	72	0.97333	7.94227E-001	9.07730E-005	0.00000E+000	7.20944E-005	5.39641E-002	7.94350E-001	3.57290E+000	9	...........
	73	0.98667	7.97632E-001	9.07730E-005	0.00000E+000	7.24035E-005	5.39641E-002	7.97755E-001	3.57290E+000	9	...........
	74	1	8.00972E-001	9.09928E-005	0.00000E+000	7.28828E-005	5.39641E-002	8.01091E-001	3.57290E+000	9	...........
	75	1.01333	8.04290E-001	9.09199E-005	0.00000E+000	7.31260E-005	5.39641E-002	8.04431E-001	3.57290E+000	9	...........
	76	1.02667	8.07574E-001	9.12658E-005	0.00000E+000	7.37039E-005	5.39641E-002	8.07717E-001	3.57290E+000	9	...........
	77	1.04	8.10809E-001	9.09512E-005	0.00000E+000	7.37440E-005	5.39641E-002	8.10947E-001	3.57290E+000	9	...........
	78	1.05333	8.14040E-001	9.11804E-005	0.00000E+000	7.42245E-005	5.39641E-002	8.14192E-001	3.57290E+000	9	...........
	79	1.06667	8.17213E-001	9.09230E-005	0.00000E+000	7.43035E-005	5.39641E-002	8.17408E-001	3.57296E+000	9	...........
	80	1.08	8.20401E-001	9.08366E-005	0.00000E+000	7.45224E-005	5.39641E-002	8.20568E-001	3.57300E+000	9	...........
	81	1.09333	8.23530E-001	9.09981E-005	0.00000E+000	7.49396E-005	5.39641E-002	8.23685E-001	3.57300E+000	9	...........
	82	1.10667	8.26623E-001	9.09897E-005	0.00000E+000	7.52142E-005	5.39641E-002	8.26802E-001	3.57300E+000	9	...........
	83	1.12	8.29686E-001	9.08887E-005	0.00000E+000	7.54090E-005	5.39641E-002	8.29851E-001	3.57300E+000	9	...........
	84	1.13333	8.32730E-001	9.11814E-005	0.00000E+000	7.59295E-005	5.39641E-002	8.32917E-001	3.57300E+000	9	...........
	85	1.14667	8.35729E-001	9.09345E-005	0.00000E+000	7.59966E-005	5.39641E-002	8.35916E-001	3.57300E+000	9	...........
	86	1.16	8.38723E-001	9.11418E-005	0.00000E+000	7.64427E-005	5.39641E-002	8.38888E-001	3.57300E+000	9	...........
	87	1.17333	8.41677E-001	9.11137E-005	0.00000E+000	7.66883E-005	5.39641E-002	8.41841E-001	3.57300E+000	9	...........
	88	1.18667	8.44616E-001	9.10501E-005	0.00000E+000	7.69024E-005	5.39641E-002	8.44793E-001	3.57300E+000	9	...........
	89	1.2	8.47488E-001	9.10158E-005	0.00000E+000	7.71348E-005	5.39641E-002	8.47673E-001	3.57300E+000	9	...........
	90	1.21333	8.50333E-001	9.10876E-005	0.00000E+000	7.74549E-005	5.39641E-002	8.50529E-001	3.57300E+000	9	...........
	91	1.22667	8.53148E-001	9.10991E-005	0.00000E+000	7.77210E-005	5.39641E-002	8.53323E-001	3.57300E+000	9	...........
	92	1.24	8.55911E-001	9.11158E-005	0.00000E+000	7.79870E-005	5.39641E-002	8.56127E-001	3.57300E+000	9	...........
	93	1.25333	8.58655E-001	9.11720E-005	0.00000E+000	7.82853E-005	5.39641E-002	8.58878E-001	3.57300E+000	9	...........
	94	1.26667	8.61376E-001	9.10637E-005	0.00000E+000	7.84401E-005	5.39641E-002	8.61576E-001	3.57300E+000	9	...........
	95	1.28	8.64023E-001	9.08970E-005	0.00000E+000	7.85371E-005	5.39641E-002	8.64236E-001	3.57300E+000	9	...........
	96	1.29333	8.66669E-001	9.08199E-005	0.00000E+000	7.87108E-005	5.39641E-002	8.66884E-001	3.57300E+000	9	...........
	97	1.30667	8.69308E-001	9.11272E-005	0.00000E+000	7.92176E-005	5.39641E-002	8.69519E-001	3.57300E+000	9	...........
	98	1.32	8.71957E-001	9.10710E-005	0.00000E+000	7.94100E-005	5.39641E-002	8.72139E-001	3.57300E+000	9	...........
	99	1.33333	8.74552E-001	9.09428E-005	0.00000E+000	7.95342E-005	5.39641E-002	8.74733E-001	3.57300E+000	9	...........
	100	1.34667	8.77147E-001	9.12137E-005	0.00000E+000	8.00078E-005	5.39641E-002	8.77322E-001	3.57300E+000	9	...........
	101	1.36	8.79685E-001	9.10033E-005	0.00000E+000	8.00542E-005	5.39641E-002	8.79842E-001	3.57300E+000	9	...........
	102	1.37333	8.82224E-001	9.12210E-005	0.00000E+000	8.04773E-005	5.39641E-002	8.82381E-001	3.57300E+000	9	...........
	103	1.38667	8.84721E-001	9.09751E-005	0.00000E+000	8.04876E-005	5.39641E-002	8.84901E-001	3.57300E+000	9	...........
	104	1.4	8.87186E-001	9.10272E-005	0.00000E+000	8.07580E-005	5.39641E-002	8.87362E-001	3.57300E+000	9	...........
	105	1.41333	8.89615E-001	9.12283E-005	0.00000E+000	8.11581E-005	5.39641E-002	8.89776E-001	3.57300E+000	9	...........
	106	1.42667	8.92015E-001	9.11648E-005	0.00000E+000	8.13203E-005	5.39641E-002	8.92207E-001	3.57300E+000	9	...........
	107	1.44	8.94408E-001	9.10564E-005	0.00000E+000	8.14416E-005	5.39641E-002	8.94615E-001	3.57300E+000	9	...........
	108	1.45333	8.96792E-001	9.10929E-005	0.00000E+000	8.16913E-005	5.39641E-002	8.96982E-001	3.57300E+000	9	...........
	109	1.46667	8.99117E-001	9.10564E-005	0.00000E+000	8.18704E-005	5.39641E-002	8.99290E-001	3.57300E+000	9	...........
	110	1.48	9.01433E-001	9.07251E-005	0.00000E+000	8.17826E-005	5.39641E-002	9.01624E-001	3.57300E+000	9	...........
	111	1.49333	9.03702E-001	9.06667E-005	0.00000E+000	8.19357E-005	5.39641E-002	9.03900E-001	3.57300E+000	9	...........
	112	1.50667	9.05950E-001	9.11220E-005	0.00000E+000	8.25520E-005	5.39641E-002	9.06152E-001	3.57300E+000	9	...........
	113	1.52	9.08212E-001	9.08730E-005	0.00000E+000	8.25320E-005	5.39641E-002	9.08413E-001	3.57300E+000	9	...........
	114	1.53333	9.10454E-001	9.10637E-005	0.00000E+000	8.29093E-005	5.39641E-002	9.10638E-001	3.57300E+000	9	...........
	115	1.54667	9.12675E-001	9.08689E-005	0.00000E+000	8.29337E-005	5.39641E-002	9.12868E-001	3.57300E+000	9	...........
	116	1.56	9.14831E-001	9.12846E-005	0.00000E+000	8.35099E-005	5.39641E-002	9.15052E-001	3.57300E+000	9	...........
	117	1.57333	9.16984E-001	9.09480E-005	0.00000E+000	8.33979E-005	5.39641E-002	9.17182E-001	3.57300E+000	9	...........
	118	1.58667	9.19112E-001	9.10231E-005	0.00000E+000	8.36604E-005	5.39641E-002	9.19304E-001	3.57300E+000	9	...........
	119	1.6	9.21264E-001	9.10772E-005	0.00000E+000	8.39062E-005	5.39641E-002	9.21424E-001	3.57300E+000	9	...........
	120	1.61333	9.23381E-001	9.12762E-005	0.00000E+000	8.42828E-005	5.39641E-002	9.23515E-001	3.57300E+000	9	...........
	121	1.62667	9.25445E-001	9.08543E-005	0.00000E+000	8.40806E-005	5.39641E-002	9.25577E-001	3.57300E+000	9	...........
	122	1.64	9.27485E-001	9.12846E-005	0.00000E+000	8.46651E-005	5.39641E-002	9.27625E-001	3.57300E+000	9	...........
	123	1.65333	9.29501E-001	9.07990E-005	0.00000E+000	8.43978E-005	5.39641E-002	9.29628E-001	3.57300E+000	9	...........
	124	1.66667	9.31504E-001	9.11481E-005	0.00000E+000	8.49048E-005	5.39641E-002	9.31650E-001	3.57300E+000	9	...........
	125	1.68	9.33515E-001	9.11002E-005	0.00000E+000	8.50434E-005	5.39641E-002	9.33667E-001	3.57300E+000	9	...........
	126	1.69333	9.35475E-001	9.13783E-005	0.00000E+000	8.54821E-005	5.39641E-002	9.35625E-001	3.57300E+000	9	...........
	127	1.70667	9.37429E-001	9.11793E-005	0.00000E+000	8.54742E-005	5.39641E-002	9.37596E-001	3.57300E+000	9	...........
	128	1.72	9.39325E-001	9.13356E-005	0.00000E+000	8.57938E-005	5.39641E-002	9.39526E-001	3.57300E+000	9	...........
	129	1.73333	9.41217E-001	9.12366E-005	0.00000E+000	8.58735E-005	5.39641E-002	9.41398E-001	3.57300E+000	9	...........
	130	1.74667	9.43105E-001	9.09803E-005	0.00000E+000	8.58040E-005	5.39641E-002	9.43286E-001	3.57300E+000	9	...........
	131	1.76	9.44997E-001	9.11085E-005	0.00000E+000	8.60972E-005	5.39641E-002	9.45156E-001	3.57300E+000	9	...........
	132	1.77333	9.46844E-001	9.11627E-005	0.00000E+000	8.63168E-005	5.39641E-002	9.47043E-001	3.57300E+000	9	...........
	133	1.78667	9.48680E-001	9.11231E-005	0.00000E+000	8.64466E-005	5.39641E-002	9.48848E-001	3.57300E+000	9	...........
	134	1.8	9.50469E-001	9.09157E-005	0.00000E+000	8.64126E-005	5.39641E-002	9.50646E-001	3.57300E+000	9	...........
	135	1.81333	9.52243E-001	9.11783E-005	0.00000E+000	8.68239E-005	5.39641E-002	9.52421E-001	3.57300E+000	9	...........
	136	1.82667	9.54035E-001	9.11970E-005	0.00000E+000	8.70052E-005	5.39641E-002	9.54185E-001	3.57300E+000	9	...........
	137	1.84	9.55738E-001	9.10501E-005	0.00000E+000	8.70201E-005	5.39641E-002	9.55926E-001	3.57300E+000	9	...........
	138	1.85333	9.57478E-001	9.09668E-005	0.00000E+000	8.70987E-005	5.39641E-002	9.57626E-001	3.57300E+000	9	...........
	139	1.86667	9.59160E-001	9.09699E-005	0.00000E+000	8.72547E-005	5.39641E-002	9.59336E-001	3.57300E+000	9	...........
	140	1.88	9.60852E-001	9.08522E-005	0.00000E+000	8.72955E-005	5.39641E-002	9.61020E-001	3.57300E+000	9	...........
	141	1.89333	9.62520E-001	9.12700E-005	0.00000E+000	8.78492E-005	5.39641E-002	9.62710E-001	3.57300E+000	9	...........
	142	1.90667	9.64167E-001	9.09178E-005	0.00000E+000	8.76599E-005	5.39641E-002	9.64361E-001	3.57300E+000	9	...........
	143	1.92	9.65801E-001	9.10220E-005	0.00000E+000	8.79091E-005	5.39641E-002	9.65995E-001	3.57300E+000	9	...........
	144	1.93333	9.67424E-001	9.09856E-005	0.00000E+000	8.80216E-005	5.39641E-002	9.67606E-001	3.57300E+000	9	...........
	145	1.94667	9.69015E-001	9.09053E-005	0.00000E+000	8.80886E-005	5.39641E-002	9.69213E-001	3.57300E+000	9	...........
	146	1.96	9.70588E-001	9.08595E-005	0.00000E+000	8.81871E-005	5.39641E-002	9.70813E-001	3.57300E+000	9	...........
	147	1.97333	9.72169E-001	9.08824E-005	0.00000E+000	8.83531E-005	5.39641E-002	9.72391E-001	3.57300E+000	9	...........
	148	1.98667	9.73786E-001	9.10658E-005	0.00000E+000	8.86786E-005	5.39641E-002	9.73996E-001	3.57300E+000	9	...........
	149	2	9.75328E-001	9.10137E-005	0.00000E+000	8.87682E-005	5.39641E-002	9.75533E-001	3.57300E+000	9	...........
	150	2.01333	9.76864E-001	9.10866E-005	0.00000E+000	8.89792E-005	5.39641E-002	9.77066E-001	3.57300E+000	9	...........
	151	2.02667	9.78384E-001	9.11523E-005	0.00000E+000	8.91819E-005	5.39641E-002	9.78589E-001	3.57300E+000	9	...........
	152	2.04	9.79900E-001	9.10189E-005	0.00000E+000	8.91894E-005	5.39641E-002	9.80070E-001	3.57300E+000	9	...........
	153	2.05333	9.81358E-001	9.12554E-005	0.00000E+000	8.95542E-005	5.39641E-002	9.81560E-001	3.57300E+000	9	...........
	154	2.06667	9.82823E-001	9.09845E-005	0.00000E+000	8.94217E-005	5.39641E-002	9.83006E-001	3.57319E+000	9	...........
	155	2.08	9.84267E-001	9.08678E-005	0.00000E+000	8.94382E-005	5.39641E-002	9.84476E-001	3.57330E+000	9	...........
	156	2.09333	9.85706E-001	9.11491E-005	0.00000E+000	8.98462E-005	5.39641E-002	9.85897E-001	3.57330E+000	9	...........
	157	2.10667	9.87129E-001	9.08272E-005	0.00000E+000	8.96581E-005	5.39641E-002	9.87350E-001	3.57330E+000	9	...........
	158	2.12	9.88562E-001	9.11679E-005	0.00000E+000	9.01251E-005	5.39641E-002	9.88762E-001	3.57330E+000	9	...........
	159	2.13333	9.89969E-001	9.11106E-005	0.00000E+000	9.01966E-005	5.39641E-002	9.90147E-001	3.57330E+000	9	...........
	160	2.14667	9.91330E-001	9.10522E-005	0.00000E+000	9.02628E-005	5.39641E-002	9.91521E-001	3.57330E+000	9	...........
	161	2.16	9.92688E-001	9.07574E-005	0.00000E+000	9.00938E-005	5.39641E-002	9.92896E-001	3.57330E+000	9	...........
	162	2.17333	9.94051E-001	9.12658E-005	0.00000E+000	9.07229E-005	5.39641E-002	9.94241E-001	3.57330E+000	9	...........
	163	2.18667	9.95396E-001	9.09751E-005	0.00000E+000	9.05562E-005	5.39641E-002	9.95584E-001	3.57330E+000	9	...........
	164	2.2	9.96717E-001	9.09866E-005	0.00000E+000	9.06879E-005	5.39641E-002	9.96925E-001	3.57330E+000	9	...........
	165	2.21333	9.98045E-001	9.08762E-005	0.00000E+000	9.06985E-005	5.39641E-002	9.98234E-001	3.57330E+000	9	...........
	166	2.22667	9.99307E-001	9.11554E-005	0.00000E+000	9.10922E-005	5.39641E-002	9.99554E-001	3.57330E+000	9	...........
	167	2.22833	1.00011E+000	9.12293E-005	0.00000E+000	9.12390E-005	5.39641E-002	1.00027E+000	3.57330E+000	9	...........
STARTTIMEOFFSET	QUANT	2502.708	Start Time Offset (s)
