EXPLAIN
TAG	PWR800_CHARGE
TITLE	LABEL	PWR Cyclic Charge Discharge (Cell) - Charge Step	Test &Identifier
DATE	LABEL	10-7-2017	Date
TIME	LABEL	16:12:43	Time
NOTES	NOTES	3	&Notes...
	supercap test cell
	0.9mg
	6M KOH
PSTAT	PSTAT	IFC5000-01520	Potentiostat
CAPACITY	QUANT	1.00000E-003	Capacity (A-hr)
CELLTYPE	SELECTOR	1	&Cell Type
WORKINGCONNECTION	SELECTOR	0	&Working Lead
MAXCHARGETIME	VARIABLEANDUNITS	1.00000E+002	s	1.00000E+002	second(s)	Max &Charge Time
CHARGECURRENT	QUANT	9.00000E-005	&Charge Current (A) 
VOLTAGEFINISH	TWOPARAM	F	1.00000E-003	3.60000E+003	&Voltage Finish	 I (A) < 	Max Time(s)
SAMPLETIME	QUANT	1.00000E-002	Sa&mple Period (s)
CHARGESTOPAT1	MULTIPARAM	4	1.00000E+000	Charge Stop At &1	Voltage > Limit	V
CHARGESTOPAT2	MULTIPARAM	0	0.00000E+000	Charge Stop At &2	None	N/A
AESBHCSELECTOR	TOGGLE	F	Save Both Half Cells
IRCOMP	TOGGLE	F	IR &Measure
EOC	QUANT	0	Open Circuit (V)
SEQUENCER	TOGGLE	TRUE	Run as Sequence
PSTATMODEL	IQUANT	53	Pstat Model
PSTATSECTION	LABEL	IFC5000-01520	Pstat Section
PSTATSERIALNO	LABEL	01520	Pstat Serial Number
CTRLMODE	IQUANT	0	Control Mode
ELECTROMETER	IQUANT	1	RE=0 or CS=1
IESTAB	IQUANT	0	I/E Stability
CASPEED	IQUANT	4	Control Amp Speed
CONVENTION	IQUANT	1	Current Convention
ICHRANGE	IQUANT	2	Ich Range
ICHRANGEMODE	TOGGLE	T	Ich Auto Range
ICHOFFSETENABLE	TOGGLE	F	Ich Offset Enable
ICHOFFSET	QUANT	0	Ich Offset (V)
ICHFILTER	IQUANT	1	Ich Filter
VCHRANGE	IQUANT	2	Vch Range
VCHRANGEMODE	TOGGLE	T	Vch Auto Range
VCHOFFSETENABLE	TOGGLE	F	Vch Offset Enable
VCHOFFSET	QUANT	0	Vch Offset (V)
VCHFILTER	IQUANT	1	Vch Filter
IERANGELOWERLIMIT	IQUANT	9	I/E Range Lower Limit
IERANGEMODE	TOGGLE	F	I/E AutoRange
IERANGE	IQUANT	9	I/E Range
ACHSELECT	IQUANT	1	Ach Select
ACHRANGE	IQUANT	2	Ach Range
ACHOFFSETENABLE	TOGGLE	F	Ach Offset Enable
ACHOFFSET	QUANT	0	Ach Offset (V)
ACHFILTER	IQUANT	1	Ach Filter
CABLEID	IQUANT	14	Cable ID
DCCALDATE	LABEL	5-7-2017	DC Calibration Date
ACCALDATE	LABEL	12/3/2015	AC Calibration Date
FRAMEWORKVERSION	QUANT	7.01	Framework Version
INSTRUMENTVERSION	LABEL	4.00	Instrument Version
CURVE	TABLE	163
	Pt	T	Vf	Im	Vu	Pwr	Sig	Ach	Temp	IERange	Over
	#	s	V	A	V	W	V	V	deg C	#	bits
	0	0.013333	2.60523E-001	9.07938E-005	0.00000E+000	2.36539E-005	5.39641E-002	2.60570E-001	3.57330E+000	9	...........
	1	0.026667	2.80385E-001	9.10064E-005	0.00000E+000	2.55169E-005	5.39641E-002	2.80426E-001	3.57330E+000	9	...........
	2	0.04	2.99042E-001	9.08772E-005	0.00000E+000	2.71761E-005	5.39641E-002	2.99086E-001	3.57330E+000	9	...........
	3	0.053333	3.16671E-001	9.11627E-005	0.00000E+000	2.88686E-005	5.39641E-002	3.16718E-001	3.57330E+000	9	...........
	4	0.066667	3.33377E-001	9.05740E-005	0.00000E+000	3.01953E-005	5.39641E-002	3.33420E-001	3.57330E+000	9	...........
	5	0.08	3.49239E-001	9.07532E-005	0.00000E+000	3.16946E-005	5.39641E-002	3.49285E-001	3.57330E+000	9	...........
	6	0.093333	3.64343E-001	9.09105E-005	0.00000E+000	3.31226E-005	5.39641E-002	3.64390E-001	3.57330E+000	9	...........
	7	0.106667	3.78740E-001	9.06282E-005	0.00000E+000	3.43245E-005	5.39641E-002	3.78784E-001	3.57330E+000	9	...........
	8	0.12	3.92475E-001	9.08293E-005	0.00000E+000	3.56482E-005	5.39641E-002	3.92524E-001	3.57330E+000	9	...........
	9	0.133333	4.05608E-001	9.11158E-005	0.00000E+000	3.69573E-005	5.39641E-002	4.05662E-001	3.57330E+000	9	...........
	10	0.146667	4.18192E-001	9.07490E-005	0.00000E+000	3.79506E-005	5.39641E-002	4.18253E-001	3.57330E+000	9	...........
	11	0.16	4.30256E-001	9.09355E-005	0.00000E+000	3.91255E-005	5.39641E-002	4.30311E-001	3.57330E+000	9	...........
	12	0.173333	4.41851E-001	9.09741E-005	0.00000E+000	4.01970E-005	5.39641E-002	4.41908E-001	3.57330E+000	9	...........
	13	0.186667	4.52992E-001	9.08970E-005	0.00000E+000	4.11756E-005	5.39641E-002	4.53053E-001	3.57330E+000	9	...........
	14	0.2	4.63715E-001	9.10741E-005	0.00000E+000	4.22324E-005	5.39641E-002	4.63773E-001	3.57330E+000	9	...........
	15	0.213333	4.74074E-001	9.07511E-005	0.00000E+000	4.30228E-005	5.39641E-002	4.74131E-001	3.57330E+000	9	...........
	16	0.226667	4.84073E-001	9.07751E-005	0.00000E+000	4.39418E-005	5.39641E-002	4.84135E-001	3.57330E+000	9	...........
	17	0.24	4.93738E-001	9.09491E-005	0.00000E+000	4.49050E-005	5.39641E-002	4.93806E-001	3.57330E+000	9	...........
	18	0.253333	5.03104E-001	9.09064E-005	0.00000E+000	4.57353E-005	5.39641E-002	5.03171E-001	3.57330E+000	9	...........
	19	0.266667	5.12189E-001	9.09699E-005	0.00000E+000	4.65938E-005	5.39641E-002	5.12257E-001	3.57330E+000	9	...........
	20	0.28	5.20988E-001	9.09887E-005	0.00000E+000	4.74040E-005	5.39641E-002	5.21055E-001	3.57330E+000	9	...........
	21	0.293333	5.29504E-001	9.10345E-005	0.00000E+000	4.82031E-005	5.39641E-002	5.29580E-001	3.57330E+000	9	...........
	22	0.306667	5.37660E-001	9.09147E-005	0.00000E+000	4.88812E-005	5.39641E-002	5.37767E-001	3.57330E+000	9	...........
	23	0.32	5.45707E-001	9.08324E-005	0.00000E+000	4.95679E-005	5.39641E-002	5.45806E-001	3.57330E+000	9	...........
	24	0.333333	5.53532E-001	9.11252E-005	0.00000E+000	5.04407E-005	5.39641E-002	5.53654E-001	3.57330E+000	9	...........
	25	0.346667	5.61161E-001	9.11106E-005	0.00000E+000	5.11277E-005	5.39641E-002	5.61294E-001	3.57330E+000	9	...........
	26	0.36	5.68645E-001	9.10397E-005	0.00000E+000	5.17693E-005	5.39641E-002	5.68733E-001	3.57330E+000	9	...........
	27	0.373333	5.75889E-001	9.08824E-005	0.00000E+000	5.23382E-005	5.39641E-002	5.75995E-001	3.57330E+000	9	...........
	28	0.386667	5.82947E-001	9.11533E-005	0.00000E+000	5.31375E-005	5.39641E-002	5.83061E-001	3.57330E+000	9	...........
	29	0.4	5.89884E-001	9.07803E-005	0.00000E+000	5.35499E-005	5.39641E-002	5.89985E-001	3.57330E+000	9	...........
	30	0.413333	5.96611E-001	9.10137E-005	0.00000E+000	5.42997E-005	5.39641E-002	5.96738E-001	3.57330E+000	9	...........
	31	0.426667	6.03163E-001	9.12742E-005	0.00000E+000	5.50532E-005	5.39641E-002	6.03340E-001	3.57330E+000	9	...........
	32	0.44	6.09587E-001	9.10793E-005	0.00000E+000	5.55207E-005	5.39641E-002	6.09752E-001	3.57330E+000	9	...........
	33	0.453333	6.15932E-001	9.09209E-005	0.00000E+000	5.60011E-005	5.39641E-002	6.16077E-001	3.57330E+000	9	...........
	34	0.466667	6.22129E-001	9.13002E-005	0.00000E+000	5.68005E-005	5.39641E-002	6.22212E-001	3.57330E+000	9	...........
	35	0.48	6.28141E-001	9.11491E-005	0.00000E+000	5.72545E-005	5.39641E-002	6.28261E-001	3.57330E+000	9	...........
	36	0.493333	6.34033E-001	9.09876E-005	0.00000E+000	5.76892E-005	5.39641E-002	6.34137E-001	3.57330E+000	9	...........
	37	0.506667	6.39823E-001	9.08355E-005	0.00000E+000	5.81186E-005	5.39641E-002	6.39962E-001	3.57330E+000	9	...........
	38	0.52	6.45530E-001	9.09991E-005	0.00000E+000	5.87426E-005	5.39641E-002	6.45646E-001	3.57330E+000	9	...........
	39	0.533333	6.51126E-001	9.09293E-005	0.00000E+000	5.92064E-005	5.39641E-002	6.51257E-001	3.57330E+000	9	...........
	40	0.546667	6.56623E-001	9.10647E-005	0.00000E+000	5.97952E-005	5.39641E-002	6.56749E-001	3.57330E+000	9	...........
	41	0.56	6.61977E-001	9.06865E-005	0.00000E+000	6.00324E-005	5.39641E-002	6.62134E-001	3.57330E+000	9	...........
	42	0.573333	6.67294E-001	9.07970E-005	0.00000E+000	6.05883E-005	5.39641E-002	6.67432E-001	3.57330E+000	9	...........
	43	0.586667	6.72499E-001	9.08803E-005	0.00000E+000	6.11169E-005	5.39641E-002	6.72608E-001	3.57330E+000	9	...........
	44	0.6	6.77593E-001	9.08949E-005	0.00000E+000	6.15898E-005	5.39641E-002	6.77739E-001	3.57330E+000	9	...........
	45	0.613333	6.82601E-001	9.08834E-005	0.00000E+000	6.20372E-005	5.39641E-002	6.82760E-001	3.57330E+000	9	...........
	46	0.626667	6.87549E-001	9.09480E-005	0.00000E+000	6.25313E-005	5.39641E-002	6.87692E-001	3.57330E+000	9	...........
	47	0.64	6.92429E-001	9.12023E-005	0.00000E+000	6.31510E-005	5.39641E-002	6.92568E-001	3.57330E+000	9	...........
	48	0.653333	6.97253E-001	9.08199E-005	0.00000E+000	6.33244E-005	5.39641E-002	6.97374E-001	3.57330E+000	9	...........
	49	0.666667	7.01976E-001	9.09522E-005	0.00000E+000	6.38463E-005	5.39641E-002	7.02097E-001	3.57330E+000	9	...........
	50	0.68	7.06661E-001	9.10324E-005	0.00000E+000	6.43291E-005	5.39641E-002	7.06771E-001	3.57330E+000	9	...........
	51	0.693333	7.11267E-001	9.09710E-005	0.00000E+000	6.47046E-005	5.39641E-002	7.11370E-001	3.57330E+000	9	...........
	52	0.706667	7.15787E-001	9.09532E-005	0.00000E+000	6.51032E-005	5.39641E-002	7.15915E-001	3.57330E+000	9	...........
	53	0.72	7.20290E-001	9.10845E-005	0.00000E+000	6.56073E-005	5.39641E-002	7.20359E-001	3.57330E+000	9	...........
	54	0.733333	7.24707E-001	9.09418E-005	0.00000E+000	6.59061E-005	5.39641E-002	7.24763E-001	3.57330E+000	9	...........
	55	0.746667	7.29025E-001	9.09783E-005	0.00000E+000	6.63254E-005	5.39641E-002	7.29108E-001	3.57330E+000	9	...........
	56	0.76	7.33304E-001	9.09418E-005	0.00000E+000	6.66879E-005	5.39641E-002	7.33409E-001	3.57330E+000	9	...........
	57	0.773333	7.37549E-001	9.10147E-005	0.00000E+000	6.71278E-005	5.39641E-002	7.37649E-001	3.57330E+000	9	...........
	58	0.786667	7.41721E-001	9.10929E-005	0.00000E+000	6.75655E-005	5.39641E-002	7.41838E-001	3.57330E+000	9	...........
	59	0.8	7.45861E-001	9.11773E-005	0.00000E+000	6.80055E-005	5.39641E-002	7.45981E-001	3.57330E+000	9	...........
	60	0.813333	7.49902E-001	9.10283E-005	0.00000E+000	6.82623E-005	5.39641E-002	7.50036E-001	3.57330E+000	9	...........
	61	0.826667	7.53924E-001	9.11220E-005	0.00000E+000	6.86991E-005	5.39641E-002	7.54071E-001	3.57330E+000	9	...........
	62	0.84	7.57900E-001	9.09293E-005	0.00000E+000	6.89153E-005	5.39641E-002	7.58027E-001	3.57330E+000	9	...........
	63	0.853333	7.61815E-001	9.07272E-005	0.00000E+000	6.91174E-005	5.39641E-002	7.61954E-001	3.57397E+000	9	...........
	64	0.866667	7.65696E-001	9.10033E-005	0.00000E+000	6.96808E-005	5.39641E-002	7.65864E-001	3.57420E+000	9	...........
	65	0.88	7.69571E-001	9.11127E-005	0.00000E+000	7.01176E-005	5.39641E-002	7.69744E-001	3.57420E+000	9	...........
	66	0.893333	7.73389E-001	9.09887E-005	0.00000E+000	7.03696E-005	5.39641E-002	7.73510E-001	3.57420E+000	9	...........
	67	0.906667	7.77117E-001	9.08793E-005	0.00000E+000	7.06239E-005	5.39641E-002	7.77254E-001	3.57420E+000	9	...........
	68	0.92	7.80813E-001	9.09595E-005	0.00000E+000	7.10223E-005	5.39641E-002	7.80965E-001	3.57420E+000	9	...........
	69	0.933333	7.84503E-001	9.09189E-005	0.00000E+000	7.13261E-005	5.39641E-002	7.84647E-001	3.57420E+000	9	...........
	70	0.946667	7.88143E-001	9.08491E-005	0.00000E+000	7.16020E-005	5.39641E-002	7.88301E-001	3.57420E+000	9	...........
	71	0.96	7.91735E-001	9.10626E-005	0.00000E+000	7.20975E-005	5.39641E-002	7.91880E-001	3.57420E+000	9	...........
	72	0.97333	7.95293E-001	9.10418E-005	0.00000E+000	7.24049E-005	5.39641E-002	7.95443E-001	3.57420E+000	9	...........
	73	0.98667	7.98787E-001	9.08782E-005	0.00000E+000	7.25923E-005	5.39641E-002	7.98935E-001	3.57420E+000	9	...........
	74	1	8.02253E-001	9.11450E-005	0.00000E+000	7.31213E-005	5.39641E-002	8.02395E-001	3.57420E+000	9	...........
	75	1.01333	8.05683E-001	9.10376E-005	0.00000E+000	7.33475E-005	5.39641E-002	8.05838E-001	3.57420E+000	9	...........
	76	1.02667	8.09104E-001	9.10970E-005	0.00000E+000	7.37070E-005	5.39641E-002	8.09227E-001	3.57420E+000	9	...........
	77	1.04	8.12474E-001	9.11085E-005	0.00000E+000	7.40233E-005	5.39641E-002	8.12618E-001	3.57420E+000	9	...........
	78	1.05333	8.15799E-001	9.10470E-005	0.00000E+000	7.42761E-005	5.39641E-002	8.15931E-001	3.57420E+000	9	...........
	79	1.06667	8.19107E-001	9.11960E-005	0.00000E+000	7.46993E-005	5.39641E-002	8.19240E-001	3.57420E+000	9	...........
	80	1.08	8.22372E-001	9.10085E-005	0.00000E+000	7.48428E-005	5.39641E-002	8.22477E-001	3.57420E+000	9	...........
	81	1.09333	8.25577E-001	9.10470E-005	0.00000E+000	7.51663E-005	5.39641E-002	8.25713E-001	3.57420E+000	9	...........
	82	1.10667	8.28720E-001	9.09470E-005	0.00000E+000	7.53696E-005	5.39641E-002	8.28875E-001	3.57420E+000	9	...........
	83	1.12	8.31864E-001	9.13773E-005	0.00000E+000	7.60135E-005	5.39641E-002	8.32050E-001	3.57420E+000	9	...........
	84	1.13333	8.34986E-001	9.09720E-005	0.00000E+000	7.59604E-005	5.39641E-002	8.35185E-001	3.57420E+000	9	...........
	85	1.14667	8.38071E-001	9.11241E-005	0.00000E+000	7.63685E-005	5.39641E-002	8.38277E-001	3.57420E+000	9	...........
	86	1.16	8.41134E-001	9.09012E-005	0.00000E+000	7.64600E-005	5.39641E-002	8.41343E-001	3.57420E+000	9	...........
	87	1.17333	8.44187E-001	9.10751E-005	0.00000E+000	7.68845E-005	5.39641E-002	8.44392E-001	3.57420E+000	9	...........
	88	1.18667	8.47197E-001	9.11074E-005	0.00000E+000	7.71860E-005	5.39641E-002	8.47401E-001	3.57420E+000	9	...........
	89	1.2	8.50154E-001	9.11304E-005	0.00000E+000	7.74749E-005	5.39641E-002	8.50369E-001	3.57420E+000	9	...........
	90	1.21333	8.53102E-001	9.11033E-005	0.00000E+000	7.77204E-005	5.39641E-002	8.53292E-001	3.57420E+000	9	...........
	91	1.22667	8.56008E-001	9.10272E-005	0.00000E+000	7.79200E-005	5.39641E-002	8.56223E-001	3.57420E+000	9	...........
	92	1.24	8.58864E-001	9.10168E-005	0.00000E+000	7.81710E-005	5.39641E-002	8.59082E-001	3.57420E+000	9	...........
	93	1.25333	8.61751E-001	9.08564E-005	0.00000E+000	7.82956E-005	5.39641E-002	8.61916E-001	3.57420E+000	9	...........
	94	1.26667	8.64511E-001	9.11658E-005	0.00000E+000	7.88138E-005	5.39641E-002	8.64704E-001	3.57420E+000	9	...........
	95	1.28	8.67328E-001	9.09314E-005	0.00000E+000	7.88673E-005	5.39641E-002	8.67501E-001	3.57420E+000	9	...........
	96	1.29333	8.70129E-001	9.11231E-005	0.00000E+000	7.92889E-005	5.39641E-002	8.70293E-001	3.57420E+000	9	...........
	97	1.30667	8.72878E-001	9.11918E-005	0.00000E+000	7.95993E-005	5.39641E-002	8.73006E-001	3.57420E+000	9	...........
	98	1.32	8.75589E-001	9.11064E-005	0.00000E+000	7.97717E-005	5.39641E-002	8.75737E-001	3.57420E+000	9	...........
	99	1.33333	8.78235E-001	9.09470E-005	0.00000E+000	7.98728E-005	5.39641E-002	8.78407E-001	3.57420E+000	9	...........
	100	1.34667	8.80877E-001	9.09251E-005	0.00000E+000	8.00938E-005	5.39641E-002	8.81059E-001	3.57420E+000	9	...........
	101	1.36	8.83515E-001	9.09168E-005	0.00000E+000	8.03264E-005	5.39641E-002	8.83681E-001	3.57420E+000	9	...........
	102	1.37333	8.86108E-001	9.07522E-005	0.00000E+000	8.04162E-005	5.39641E-002	8.86301E-001	3.57420E+000	9	...........
	103	1.38667	8.88691E-001	9.09647E-005	0.00000E+000	8.08395E-005	5.39641E-002	8.88854E-001	3.57420E+000	9	...........
	104	1.4	8.91223E-001	9.10314E-005	0.00000E+000	8.11293E-005	5.39641E-002	8.91399E-001	3.57420E+000	9	...........
	105	1.41333	8.93705E-001	9.10001E-005	0.00000E+000	8.13273E-005	5.39641E-002	8.93908E-001	3.57420E+000	9	...........
	106	1.42667	8.96206E-001	9.10283E-005	0.00000E+000	8.15801E-005	5.39641E-002	8.96387E-001	3.57420E+000	9	...........
	107	1.44	8.98634E-001	9.10210E-005	0.00000E+000	8.17945E-005	5.39641E-002	8.98819E-001	3.57420E+000	9	...........
	108	1.45333	9.01038E-001	9.10199E-005	0.00000E+000	8.20124E-005	5.39641E-002	9.01248E-001	3.57420E+000	9	...........
	109	1.46667	9.03444E-001	9.12043E-005	0.00000E+000	8.23980E-005	5.39641E-002	9.03652E-001	3.57420E+000	9	...........
	110	1.48	9.05795E-001	9.10293E-005	0.00000E+000	8.24539E-005	5.39641E-002	9.06015E-001	3.57420E+000	9	...........
	111	1.49333	9.08150E-001	9.11606E-005	0.00000E+000	8.27874E-005	5.39641E-002	9.08373E-001	3.57420E+000	9	...........
	112	1.50667	9.10495E-001	9.09918E-005	0.00000E+000	8.28476E-005	5.39641E-002	9.10679E-001	3.57420E+000	9	...........
	113	1.52	9.12798E-001	9.10991E-005	0.00000E+000	8.31550E-005	5.39641E-002	9.13003E-001	3.57420E+000	9	...........
	114	1.53333	9.15078E-001	9.09512E-005	0.00000E+000	8.32274E-005	5.39641E-002	9.15269E-001	3.57420E+000	9	...........
	115	1.54667	9.17320E-001	9.10824E-005	0.00000E+000	8.35518E-005	5.39641E-002	9.17552E-001	3.57420E+000	9	...........
	116	1.56	9.19580E-001	9.09189E-005	0.00000E+000	8.36072E-005	5.39641E-002	9.19780E-001	3.57420E+000	9	...........
	117	1.57333	9.21853E-001	9.10449E-005	0.00000E+000	8.39301E-005	5.39641E-002	9.22015E-001	3.57420E+000	9	...........
	118	1.58667	9.24034E-001	9.09595E-005	0.00000E+000	8.40497E-005	5.39641E-002	9.24192E-001	3.57420E+000	9	...........
	119	1.6	9.26199E-001	9.06907E-005	0.00000E+000	8.39976E-005	5.39641E-002	9.26377E-001	3.57420E+000	9	...........
	120	1.61333	9.28370E-001	9.09585E-005	0.00000E+000	8.44431E-005	5.39641E-002	9.28537E-001	3.57420E+000	9	...........
	121	1.62667	9.30513E-001	9.08116E-005	0.00000E+000	8.45013E-005	5.39641E-002	9.30640E-001	3.57420E+000	9	...........
	122	1.64	9.32582E-001	9.11189E-005	0.00000E+000	8.49759E-005	5.39641E-002	9.32733E-001	3.57420E+000	9	...........
	123	1.65333	9.34676E-001	9.11512E-005	0.00000E+000	8.51968E-005	5.39641E-002	9.34834E-001	3.57420E+000	9	...........
	124	1.66667	9.36744E-001	9.11397E-005	0.00000E+000	8.53746E-005	5.39641E-002	9.36877E-001	3.57420E+000	9	...........
	125	1.68	9.38747E-001	9.10251E-005	0.00000E+000	8.54496E-005	5.39641E-002	9.38904E-001	3.57420E+000	9	...........
	126	1.69333	9.40769E-001	9.09783E-005	0.00000E+000	8.55895E-005	5.39641E-002	9.40910E-001	3.57420E+000	9	...........
	127	1.70667	9.42732E-001	9.11981E-005	0.00000E+000	8.59754E-005	5.39641E-002	9.42861E-001	3.57420E+000	9	...........
	128	1.72	9.44693E-001	9.11918E-005	0.00000E+000	8.61483E-005	5.39641E-002	9.44836E-001	3.57420E+000	9	...........
	129	1.73333	9.46654E-001	9.09981E-005	0.00000E+000	8.61437E-005	5.39641E-002	9.46810E-001	3.57420E+000	9	...........
	130	1.74667	9.48587E-001	9.10001E-005	0.00000E+000	8.63215E-005	5.39641E-002	9.48745E-001	3.57420E+000	9	...........
	131	1.76	9.50489E-001	9.10241E-005	0.00000E+000	8.65174E-005	5.39641E-002	9.50668E-001	3.57420E+000	9	...........
	132	1.77333	9.52393E-001	9.10137E-005	0.00000E+000	8.66808E-005	5.39641E-002	9.52565E-001	3.57420E+000	9	...........
	133	1.78667	9.54267E-001	9.10595E-005	0.00000E+000	8.68951E-005	5.39641E-002	9.54441E-001	3.57420E+000	9	...........
	134	1.8	9.56077E-001	9.10293E-005	0.00000E+000	8.70310E-005	5.39641E-002	9.56265E-001	3.57420E+000	9	...........
	135	1.81333	9.57910E-001	9.09741E-005	0.00000E+000	8.71450E-005	5.39641E-002	9.58114E-001	3.57420E+000	9	...........
	136	1.82667	9.59709E-001	9.07220E-005	0.00000E+000	8.70666E-005	5.39641E-002	9.59941E-001	3.57420E+000	9	...........
	137	1.84	9.61501E-001	9.10918E-005	0.00000E+000	8.75848E-005	5.39641E-002	9.61691E-001	3.57420E+000	9	...........
	138	1.85333	9.63252E-001	9.12637E-005	0.00000E+000	8.79100E-005	5.39641E-002	9.63461E-001	3.57337E+000	9	...........
	139	1.86667	9.64996E-001	9.11470E-005	0.00000E+000	8.79565E-005	5.39641E-002	9.65211E-001	3.57310E+000	9	...........
	140	1.88	9.66731E-001	9.09803E-005	0.00000E+000	8.79535E-005	5.39641E-002	9.66920E-001	3.57310E+000	9	...........
	141	1.89333	9.68428E-001	9.07699E-005	0.00000E+000	8.79041E-005	5.39641E-002	9.68601E-001	3.57310E+000	9	...........
	142	1.90667	9.70100E-001	9.10210E-005	0.00000E+000	8.82994E-005	5.39641E-002	9.70281E-001	3.57310E+000	9	...........
	143	1.92	9.71763E-001	9.12346E-005	0.00000E+000	8.86584E-005	5.39641E-002	9.71979E-001	3.57310E+000	9	...........
	144	1.93333	9.73482E-001	9.08762E-005	0.00000E+000	8.84663E-005	5.39641E-002	9.73630E-001	3.57310E+000	9	...........
	145	1.94667	9.75126E-001	9.08887E-005	0.00000E+000	8.86278E-005	5.39641E-002	9.75279E-001	3.57310E+000	9	...........
	146	1.96	9.76750E-001	9.10178E-005	0.00000E+000	8.89017E-005	5.39641E-002	9.76920E-001	3.57310E+000	9	...........
	147	1.97333	9.78367E-001	9.10918E-005	0.00000E+000	8.91212E-005	5.39641E-002	9.78539E-001	3.57310E+000	9	...........
	148	1.98667	9.79955E-001	9.11877E-005	0.00000E+000	8.93598E-005	5.39641E-002	9.80102E-001	3.57310E+000	9	...........
	149	2	9.81527E-001	9.08366E-005	0.00000E+000	8.91585E-005	5.39641E-002	9.81652E-001	3.57310E+000	9	...........
	150	2.01333	9.83020E-001	9.10762E-005	0.00000E+000	8.95297E-005	5.39641E-002	9.83199E-001	3.57310E+000	9	...........
	151	2.02667	9.84559E-001	9.11887E-005	0.00000E+000	8.97807E-005	5.39641E-002	9.84734E-001	3.57310E+000	9	...........
	152	2.04	9.86072E-001	9.11929E-005	0.00000E+000	8.99228E-005	5.39641E-002	9.86249E-001	3.57310E+000	9	...........
	153	2.05333	9.87548E-001	9.09647E-005	0.00000E+000	8.98320E-005	5.39641E-002	9.87731E-001	3.57310E+000	9	...........
	154	2.06667	9.89057E-001	9.08803E-005	0.00000E+000	8.98858E-005	5.39641E-002	9.89221E-001	3.57310E+000	9	...........
	155	2.08	9.90525E-001	9.08532E-005	0.00000E+000	8.99924E-005	5.39641E-002	9.90686E-001	3.57310E+000	9	...........
	156	2.09333	9.91948E-001	9.08314E-005	0.00000E+000	9.01000E-005	5.39641E-002	9.92121E-001	3.57310E+000	9	...........
	157	2.10667	9.93367E-001	9.12908E-005	0.00000E+000	9.06853E-005	5.39641E-002	9.93539E-001	3.57310E+000	9	...........
	158	2.12	9.94792E-001	9.09303E-005	0.00000E+000	9.04567E-005	5.39641E-002	9.94971E-001	3.57310E+000	9	...........
	159	2.13333	9.96211E-001	9.09032E-005	0.00000E+000	9.05588E-005	5.39641E-002	9.96381E-001	3.57310E+000	9	...........
	160	2.14667	9.97613E-001	9.10804E-005	0.00000E+000	9.08629E-005	5.39641E-002	9.97795E-001	3.57310E+000	9	...........
	161	2.16	9.98984E-001	9.08397E-005	0.00000E+000	9.07474E-005	5.39641E-002	9.99174E-001	3.57310E+000	9	...........
	162	2.165	9.99919E-001	9.09126E-005	0.00000E+000	9.09053E-005	5.39641E-002	1.00013E+000	3.57310E+000	9	...........
STARTTIMEOFFSET	QUANT	3698.271	Start Time Offset (s)
