EXPLAIN
TAG	PWR800_CHARGE
TITLE	LABEL	PWR Cyclic Charge Discharge (Cell) - Charge Step	Test &Identifier
DATE	LABEL	10-7-2017	Date
TIME	LABEL	16:01:24	Time
NOTES	NOTES	3	&Notes...
	supercap test cell
	0.9mg
	6M KOH
PSTAT	PSTAT	IFC5000-01520	Potentiostat
CAPACITY	QUANT	1.00000E-003	Capacity (A-hr)
CELLTYPE	SELECTOR	1	&Cell Type
WORKINGCONNECTION	SELECTOR	0	&Working Lead
MAXCHARGETIME	VARIABLEANDUNITS	1.00000E+002	s	1.00000E+002	second(s)	Max &Charge Time
CHARGECURRENT	QUANT	9.00000E-005	&Charge Current (A) 
VOLTAGEFINISH	TWOPARAM	F	1.00000E-003	3.60000E+003	&Voltage Finish	 I (A) < 	Max Time(s)
SAMPLETIME	QUANT	1.00000E-002	Sa&mple Period (s)
CHARGESTOPAT1	MULTIPARAM	4	1.00000E+000	Charge Stop At &1	Voltage > Limit	V
CHARGESTOPAT2	MULTIPARAM	0	0.00000E+000	Charge Stop At &2	None	N/A
AESBHCSELECTOR	TOGGLE	F	Save Both Half Cells
IRCOMP	TOGGLE	F	IR &Measure
EOC	QUANT	0	Open Circuit (V)
SEQUENCER	TOGGLE	TRUE	Run as Sequence
PSTATMODEL	IQUANT	53	Pstat Model
PSTATSECTION	LABEL	IFC5000-01520	Pstat Section
PSTATSERIALNO	LABEL	01520	Pstat Serial Number
CTRLMODE	IQUANT	0	Control Mode
ELECTROMETER	IQUANT	1	RE=0 or CS=1
IESTAB	IQUANT	0	I/E Stability
CASPEED	IQUANT	4	Control Amp Speed
CONVENTION	IQUANT	1	Current Convention
ICHRANGE	IQUANT	2	Ich Range
ICHRANGEMODE	TOGGLE	T	Ich Auto Range
ICHOFFSETENABLE	TOGGLE	F	Ich Offset Enable
ICHOFFSET	QUANT	0	Ich Offset (V)
ICHFILTER	IQUANT	1	Ich Filter
VCHRANGE	IQUANT	2	Vch Range
VCHRANGEMODE	TOGGLE	T	Vch Auto Range
VCHOFFSETENABLE	TOGGLE	F	Vch Offset Enable
VCHOFFSET	QUANT	0	Vch Offset (V)
VCHFILTER	IQUANT	1	Vch Filter
IERANGELOWERLIMIT	IQUANT	9	I/E Range Lower Limit
IERANGEMODE	TOGGLE	F	I/E AutoRange
IERANGE	IQUANT	9	I/E Range
ACHSELECT	IQUANT	1	Ach Select
ACHRANGE	IQUANT	2	Ach Range
ACHOFFSETENABLE	TOGGLE	F	Ach Offset Enable
ACHOFFSET	QUANT	0	Ach Offset (V)
ACHFILTER	IQUANT	1	Ach Filter
CABLEID	IQUANT	14	Cable ID
DCCALDATE	LABEL	5-7-2017	DC Calibration Date
ACCALDATE	LABEL	12/3/2015	AC Calibration Date
FRAMEWORKVERSION	QUANT	7.01	Framework Version
INSTRUMENTVERSION	LABEL	4.00	Instrument Version
CURVE	TABLE	164
	Pt	T	Vf	Im	Vu	Pwr	Sig	Ach	Temp	IERange	Over
	#	s	V	A	V	W	V	V	deg C	#	bits
	0	0.013333	2.69654E-001	9.09001E-005	0.00000E+000	2.45116E-005	5.39641E-002	2.69703E-001	3.57300E+000	9	...........
	1	0.026667	2.89367E-001	9.10210E-005	0.00000E+000	2.63384E-005	5.39641E-002	2.89408E-001	3.57300E+000	9	...........
	2	0.04	3.07828E-001	9.09605E-005	0.00000E+000	2.80002E-005	5.39641E-002	3.07870E-001	3.57300E+000	9	...........
	3	0.053333	3.25218E-001	9.08543E-005	0.00000E+000	2.95474E-005	5.39641E-002	3.25258E-001	3.57300E+000	9	...........
	4	0.066667	3.41656E-001	9.09887E-005	0.00000E+000	3.10868E-005	5.39641E-002	3.41698E-001	3.57300E+000	9	...........
	5	0.08	3.57241E-001	9.11106E-005	0.00000E+000	3.25484E-005	5.39641E-002	3.57281E-001	3.57300E+000	9	...........
	6	0.093333	3.72035E-001	9.10012E-005	0.00000E+000	3.38556E-005	5.39641E-002	3.72071E-001	3.57300E+000	9	...........
	7	0.106667	3.86124E-001	9.10626E-005	0.00000E+000	3.51614E-005	5.39641E-002	3.86169E-001	3.57300E+000	9	...........
	8	0.12	3.99562E-001	9.13117E-005	0.00000E+000	3.64847E-005	5.39641E-002	3.99611E-001	3.57300E+000	9	...........
	9	0.133333	4.12409E-001	9.09803E-005	0.00000E+000	3.75211E-005	5.39641E-002	4.12469E-001	3.57300E+000	9	...........
	10	0.146667	4.24721E-001	9.05917E-005	0.00000E+000	3.84762E-005	5.39641E-002	4.24781E-001	3.57300E+000	9	...........
	11	0.16	4.36531E-001	9.09251E-005	0.00000E+000	3.96916E-005	5.39641E-002	4.36586E-001	3.57300E+000	9	...........
	12	0.173333	4.47874E-001	9.11564E-005	0.00000E+000	4.08266E-005	5.39641E-002	4.47936E-001	3.57300E+000	9	...........
	13	0.186667	4.58798E-001	9.09345E-005	0.00000E+000	4.17205E-005	5.39641E-002	4.58855E-001	3.57300E+000	9	...........
	14	0.2	4.69324E-001	9.09772E-005	0.00000E+000	4.26978E-005	5.39641E-002	4.69387E-001	3.57300E+000	9	...........
	15	0.213333	4.79475E-001	9.08084E-005	0.00000E+000	4.35404E-005	5.39641E-002	4.79543E-001	3.57300E+000	9	...........
	16	0.226667	4.89268E-001	9.13544E-005	0.00000E+000	4.46968E-005	5.39641E-002	4.89337E-001	3.57300E+000	9	...........
	17	0.24	4.98751E-001	9.11241E-005	0.00000E+000	4.54483E-005	5.39641E-002	4.98821E-001	3.57300E+000	9	...........
	18	0.253333	5.07934E-001	9.10543E-005	0.00000E+000	4.62495E-005	5.39641E-002	5.08008E-001	3.57300E+000	9	...........
	19	0.266667	5.16835E-001	9.09824E-005	0.00000E+000	4.70229E-005	5.39641E-002	5.16906E-001	3.57300E+000	9	...........
	20	0.28	5.25489E-001	9.07532E-005	0.00000E+000	4.76898E-005	5.39641E-002	5.25558E-001	3.57300E+000	9	...........
	21	0.293333	5.33806E-001	9.10178E-005	0.00000E+000	4.85858E-005	5.39641E-002	5.33910E-001	3.57300E+000	9	...........
	22	0.306667	5.41900E-001	9.11012E-005	0.00000E+000	4.93678E-005	5.39641E-002	5.42027E-001	3.57300E+000	9	...........
	23	0.32	5.49795E-001	9.09324E-005	0.00000E+000	4.99942E-005	5.39641E-002	5.49926E-001	3.57300E+000	9	...........
	24	0.333333	5.57460E-001	9.09366E-005	0.00000E+000	5.06935E-005	5.39641E-002	5.57597E-001	3.57300E+000	9	...........
	25	0.346667	5.64989E-001	9.09137E-005	0.00000E+000	5.13652E-005	5.39641E-002	5.65142E-001	3.57300E+000	9	...........
	26	0.36	5.72314E-001	9.10428E-005	0.00000E+000	5.21051E-005	5.39641E-002	5.72441E-001	3.57300E+000	9	...........
	27	0.373333	5.79441E-001	9.08532E-005	0.00000E+000	5.26440E-005	5.39641E-002	5.79570E-001	3.57300E+000	9	...........
	28	0.386667	5.86398E-001	9.08366E-005	0.00000E+000	5.32664E-005	5.39641E-002	5.86537E-001	3.57300E+000	9	...........
	29	0.4	5.93187E-001	9.07584E-005	0.00000E+000	5.38367E-005	5.39641E-002	5.93341E-001	3.57300E+000	9	...........
	30	0.413333	5.99834E-001	9.07355E-005	0.00000E+000	5.44263E-005	5.39641E-002	5.99963E-001	3.57300E+000	9	...........
	31	0.426667	6.06319E-001	9.09741E-005	0.00000E+000	5.51593E-005	5.39641E-002	6.06438E-001	3.57300E+000	9	...........
	32	0.44	6.12685E-001	9.10356E-005	0.00000E+000	5.57762E-005	5.39641E-002	6.12814E-001	3.57300E+000	9	...........
	33	0.453333	6.18949E-001	9.10668E-005	0.00000E+000	5.63657E-005	5.39641E-002	6.19036E-001	3.57300E+000	9	...........
	34	0.466667	6.25012E-001	9.11543E-005	0.00000E+000	5.69726E-005	5.39641E-002	6.25103E-001	3.57300E+000	9	...........
	35	0.48	6.30981E-001	9.12846E-005	0.00000E+000	5.75988E-005	5.39641E-002	6.31054E-001	3.57300E+000	9	...........
	36	0.493333	6.36824E-001	9.10428E-005	0.00000E+000	5.79783E-005	5.39641E-002	6.36881E-001	3.57300E+000	9	...........
	37	0.506667	6.42594E-001	9.10231E-005	0.00000E+000	5.84909E-005	5.39641E-002	6.42647E-001	3.57300E+000	9	...........
	38	0.52	6.48214E-001	9.12200E-005	0.00000E+000	5.91300E-005	5.39641E-002	6.48287E-001	3.57300E+000	9	...........
	39	0.533333	6.53739E-001	9.11241E-005	0.00000E+000	5.95714E-005	5.39641E-002	6.53808E-001	3.57300E+000	9	...........
	40	0.546667	6.59168E-001	9.11908E-005	0.00000E+000	6.01100E-005	5.39641E-002	6.59238E-001	3.57300E+000	9	...........
	41	0.56	6.64478E-001	9.10303E-005	0.00000E+000	6.04877E-005	5.39641E-002	6.64598E-001	3.57300E+000	9	...........
	42	0.573333	6.69731E-001	9.12314E-005	0.00000E+000	6.11006E-005	5.39641E-002	6.69819E-001	3.57300E+000	9	...........
	43	0.586667	6.74901E-001	9.09689E-005	0.00000E+000	6.13950E-005	5.39641E-002	6.74963E-001	3.57300E+000	9	...........
	44	0.6	6.79951E-001	9.09491E-005	0.00000E+000	6.18410E-005	5.39641E-002	6.80070E-001	3.57300E+000	9	...........
	45	0.613333	6.84908E-001	9.09970E-005	0.00000E+000	6.23246E-005	5.39641E-002	6.84998E-001	3.57300E+000	9	...........
	46	0.626667	6.89821E-001	9.08241E-005	0.00000E+000	6.26524E-005	5.39641E-002	6.89904E-001	3.57300E+000	9	...........
	47	0.64	6.94644E-001	9.09230E-005	0.00000E+000	6.31592E-005	5.39641E-002	6.94732E-001	3.57300E+000	9	...........
	48	0.653333	6.99387E-001	9.09949E-005	0.00000E+000	6.36407E-005	5.39641E-002	6.99484E-001	3.57322E+000	9	...........
	49	0.666667	7.04047E-001	9.11231E-005	0.00000E+000	6.41549E-005	5.39641E-002	7.04130E-001	3.57410E+000	9	...........
	50	0.68	7.08625E-001	9.12137E-005	0.00000E+000	6.46363E-005	5.39641E-002	7.08744E-001	3.57410E+000	9	...........
	51	0.693333	7.13156E-001	9.10303E-005	0.00000E+000	6.49189E-005	5.39641E-002	7.13255E-001	3.57410E+000	9	...........
	52	0.706667	7.17634E-001	9.09532E-005	0.00000E+000	6.52712E-005	5.39641E-002	7.17778E-001	3.57410E+000	9	...........
	53	0.72	7.22088E-001	9.09678E-005	0.00000E+000	6.56868E-005	5.39641E-002	7.22164E-001	3.57410E+000	9	...........
	54	0.733333	7.26442E-001	9.11168E-005	0.00000E+000	6.61911E-005	5.39641E-002	7.26541E-001	3.57410E+000	9	...........
	55	0.746667	7.30735E-001	9.09282E-005	0.00000E+000	6.64445E-005	5.39641E-002	7.30836E-001	3.57410E+000	9	...........
	56	0.76	7.34946E-001	9.10460E-005	0.00000E+000	6.69138E-005	5.39641E-002	7.35065E-001	3.57410E+000	9	...........
	57	0.773333	7.39130E-001	9.09480E-005	0.00000E+000	6.72224E-005	5.39641E-002	7.39243E-001	3.57410E+000	9	...........
	58	0.786667	7.43275E-001	9.11095E-005	0.00000E+000	6.77194E-005	5.39641E-002	7.43386E-001	3.57410E+000	9	...........
	59	0.8	7.47346E-001	9.10908E-005	0.00000E+000	6.80764E-005	5.39641E-002	7.47450E-001	3.57410E+000	9	...........
	60	0.813333	7.51354E-001	9.09209E-005	0.00000E+000	6.83138E-005	5.39641E-002	7.51479E-001	3.57410E+000	9	...........
	61	0.826667	7.55339E-001	9.12054E-005	0.00000E+000	6.88910E-005	5.39641E-002	7.55447E-001	3.57410E+000	9	...........
	62	0.84	7.59218E-001	9.10699E-005	0.00000E+000	6.91420E-005	5.39641E-002	7.59324E-001	3.57410E+000	9	...........
	63	0.853333	7.63096E-001	9.12366E-005	0.00000E+000	6.96223E-005	5.39641E-002	7.63211E-001	3.57410E+000	9	...........
	64	0.866667	7.66899E-001	9.10345E-005	0.00000E+000	6.98142E-005	5.39641E-002	7.67030E-001	3.57410E+000	9	...........
	65	0.88	7.70701E-001	9.11960E-005	0.00000E+000	7.02849E-005	5.39641E-002	7.70834E-001	3.57410E+000	9	...........
	66	0.893333	7.74443E-001	9.10231E-005	0.00000E+000	7.04921E-005	5.39641E-002	7.74566E-001	3.57410E+000	9	...........
	67	0.906667	7.78118E-001	9.10804E-005	0.00000E+000	7.08712E-005	5.39641E-002	7.78242E-001	3.57410E+000	9	...........
	68	0.92	7.81818E-001	9.11252E-005	0.00000E+000	7.12433E-005	5.39641E-002	7.81935E-001	3.57410E+000	9	...........
	69	0.933333	7.85420E-001	9.10845E-005	0.00000E+000	7.15396E-005	5.39641E-002	7.85526E-001	3.57410E+000	9	...........
	70	0.946667	7.88997E-001	9.08345E-005	0.00000E+000	7.16681E-005	5.39641E-002	7.89099E-001	3.57410E+000	9	...........
	71	0.96	7.92541E-001	9.10137E-005	0.00000E+000	7.21320E-005	5.39641E-002	7.92644E-001	3.57410E+000	9	...........
	72	0.97333	7.96042E-001	9.09928E-005	0.00000E+000	7.24341E-005	5.39641E-002	7.96166E-001	3.57410E+000	9	...........
	73	0.98667	7.99498E-001	9.10679E-005	0.00000E+000	7.28086E-005	5.39641E-002	7.99639E-001	3.57410E+000	9	...........
	74	1	8.02901E-001	9.12054E-005	0.00000E+000	7.32289E-005	5.39641E-002	8.03059E-001	3.57410E+000	9	...........
	75	1.01333	8.06273E-001	9.09407E-005	0.00000E+000	7.33231E-005	5.39641E-002	8.06453E-001	3.57410E+000	9	...........
	76	1.02667	8.09614E-001	9.10314E-005	0.00000E+000	7.37003E-005	5.39641E-002	8.09782E-001	3.57410E+000	9	...........
	77	1.04	8.12926E-001	9.11512E-005	0.00000E+000	7.40992E-005	5.39641E-002	8.13106E-001	3.57410E+000	9	...........
	78	1.05333	8.16196E-001	9.10335E-005	0.00000E+000	7.43011E-005	5.39641E-002	8.16382E-001	3.57410E+000	9	...........
	79	1.06667	8.19468E-001	9.08918E-005	0.00000E+000	7.44829E-005	5.39641E-002	8.19638E-001	3.57410E+000	9	...........
	80	1.08	8.22673E-001	9.11575E-005	0.00000E+000	7.49928E-005	5.39641E-002	8.22840E-001	3.57410E+000	9	...........
	81	1.09333	8.25859E-001	9.09939E-005	0.00000E+000	7.51481E-005	5.39641E-002	8.26036E-001	3.57410E+000	9	...........
	82	1.10667	8.29008E-001	9.10564E-005	0.00000E+000	7.54865E-005	5.39641E-002	8.29166E-001	3.57410E+000	9	...........
	83	1.12	8.32139E-001	9.10720E-005	0.00000E+000	7.57846E-005	5.39641E-002	8.32333E-001	3.57410E+000	9	...........
	84	1.13333	8.35221E-001	9.09574E-005	0.00000E+000	7.59696E-005	5.39641E-002	8.35400E-001	3.57410E+000	9	...........
	85	1.14667	8.38233E-001	9.09157E-005	0.00000E+000	7.62085E-005	5.39641E-002	8.38413E-001	3.57410E+000	9	...........
	86	1.16	8.41230E-001	9.10814E-005	0.00000E+000	7.66204E-005	5.39641E-002	8.41421E-001	3.57410E+000	9	...........
	87	1.17333	8.44198E-001	9.11783E-005	0.00000E+000	7.69726E-005	5.39641E-002	8.44393E-001	3.57410E+000	9	...........
	88	1.18667	8.47175E-001	9.13637E-005	0.00000E+000	7.74010E-005	5.39641E-002	8.47346E-001	3.57410E+000	9	...........
	89	1.2	8.50066E-001	9.09751E-005	0.00000E+000	7.73348E-005	5.39641E-002	8.50242E-001	3.57410E+000	9	...........
	90	1.21333	8.52968E-001	9.11387E-005	0.00000E+000	7.77384E-005	5.39641E-002	8.53131E-001	3.57410E+000	9	...........
	91	1.22667	8.55830E-001	9.11345E-005	0.00000E+000	7.79957E-005	5.39641E-002	8.55998E-001	3.57410E+000	9	...........
	92	1.24	8.58654E-001	9.12116E-005	0.00000E+000	7.83192E-005	5.39641E-002	8.58828E-001	3.57410E+000	9	...........
	93	1.25333	8.61492E-001	9.10428E-005	0.00000E+000	7.84327E-005	5.39641E-002	8.61648E-001	3.57410E+000	9	...........
	94	1.26667	8.64255E-001	9.10783E-005	0.00000E+000	7.87148E-005	5.39641E-002	8.64424E-001	3.57410E+000	9	...........
	95	1.28	8.67014E-001	9.13346E-005	0.00000E+000	7.91884E-005	5.39641E-002	8.67204E-001	3.57410E+000	9	...........
	96	1.29333	8.69777E-001	9.10637E-005	0.00000E+000	7.92051E-005	5.39641E-002	8.69978E-001	3.57410E+000	9	...........
	97	1.30667	8.72468E-001	9.10668E-005	0.00000E+000	7.94529E-005	5.39641E-002	8.72626E-001	3.57410E+000	9	...........
	98	1.32	8.75115E-001	9.10679E-005	0.00000E+000	7.96948E-005	5.39641E-002	8.75282E-001	3.57410E+000	9	...........
	99	1.33333	8.77725E-001	9.08491E-005	0.00000E+000	7.97405E-005	5.39641E-002	8.77919E-001	3.57410E+000	9	...........
	100	1.34667	8.80303E-001	9.07803E-005	0.00000E+000	7.99142E-005	5.39641E-002	8.80511E-001	3.57410E+000	9	...........
	101	1.36	8.82900E-001	9.10293E-005	0.00000E+000	8.03698E-005	5.39641E-002	8.83099E-001	3.57410E+000	9	...........
	102	1.37333	8.85450E-001	9.09157E-005	0.00000E+000	8.05013E-005	5.39641E-002	8.85657E-001	3.57410E+000	9	...........
	103	1.38667	8.87971E-001	9.09605E-005	0.00000E+000	8.07703E-005	5.39641E-002	8.88179E-001	3.57410E+000	9	...........
	104	1.4	8.90492E-001	9.11272E-005	0.00000E+000	8.11481E-005	5.39641E-002	8.90684E-001	3.57410E+000	9	...........
	105	1.41333	8.92959E-001	9.08678E-005	0.00000E+000	8.11412E-005	5.39641E-002	8.93155E-001	3.57410E+000	9	...........
	106	1.42667	8.95410E-001	9.11418E-005	0.00000E+000	8.16093E-005	5.39641E-002	8.95654E-001	3.57410E+000	9	...........
	107	1.44	8.97878E-001	9.09126E-005	0.00000E+000	8.16285E-005	5.39641E-002	8.98093E-001	3.57410E+000	9	...........
	108	1.45333	9.00302E-001	9.09262E-005	0.00000E+000	8.18610E-005	5.39641E-002	9.00494E-001	3.57410E+000	9	...........
	109	1.46667	9.02685E-001	9.07647E-005	0.00000E+000	8.19319E-005	5.39641E-002	9.02912E-001	3.57410E+000	9	...........
	110	1.48	9.05023E-001	9.08074E-005	0.00000E+000	8.21828E-005	5.39641E-002	9.05250E-001	3.57410E+000	9	...........
	111	1.49333	9.07348E-001	9.11668E-005	0.00000E+000	8.27200E-005	5.39641E-002	9.07564E-001	3.57410E+000	9	...........
	112	1.50667	9.09676E-001	9.07001E-005	0.00000E+000	8.25077E-005	5.39641E-002	9.09855E-001	3.57410E+000	9	...........
	113	1.52	9.11932E-001	9.08501E-005	0.00000E+000	8.28491E-005	5.39641E-002	9.12128E-001	3.57410E+000	9	...........
	114	1.53333	9.14194E-001	9.10053E-005	0.00000E+000	8.31966E-005	5.39641E-002	9.14398E-001	3.57410E+000	9	...........
	115	1.54667	9.16403E-001	9.08782E-005	0.00000E+000	8.32810E-005	5.39641E-002	9.16605E-001	3.57410E+000	9	...........
	116	1.56	9.18595E-001	9.11095E-005	0.00000E+000	8.36927E-005	5.39641E-002	9.18819E-001	3.57410E+000	9	...........
	117	1.57333	9.20834E-001	9.08897E-005	0.00000E+000	8.36943E-005	5.39641E-002	9.21009E-001	3.57410E+000	9	...........
	118	1.58667	9.23034E-001	9.11679E-005	0.00000E+000	8.41510E-005	5.39641E-002	9.23178E-001	3.57410E+000	9	...........
	119	1.6	9.25170E-001	9.10929E-005	0.00000E+000	8.42763E-005	5.39641E-002	9.25325E-001	3.57410E+000	9	...........
	120	1.61333	9.27293E-001	9.09626E-005	0.00000E+000	8.43490E-005	5.39641E-002	9.27456E-001	3.57410E+000	9	...........
	121	1.62667	9.29361E-001	9.11220E-005	0.00000E+000	8.46853E-005	5.39641E-002	9.29514E-001	3.57410E+000	9	...........
	122	1.64	9.31449E-001	9.08449E-005	0.00000E+000	8.46174E-005	5.39641E-002	9.31590E-001	3.57410E+000	9	...........
	123	1.65333	9.33449E-001	9.12439E-005	0.00000E+000	8.51716E-005	5.39641E-002	9.33640E-001	3.57390E+000	9	...........
	124	1.66667	9.35493E-001	9.08470E-005	0.00000E+000	8.49868E-005	5.39641E-002	9.35683E-001	3.57310E+000	9	...........
	125	1.68	9.37480E-001	9.09741E-005	0.00000E+000	8.52864E-005	5.39641E-002	9.37685E-001	3.57310E+000	9	...........
	126	1.69333	9.39460E-001	9.08834E-005	0.00000E+000	8.53814E-005	5.39641E-002	9.39669E-001	3.57310E+000	9	...........
	127	1.70667	9.41414E-001	9.09699E-005	0.00000E+000	8.56404E-005	5.39641E-002	9.41625E-001	3.57310E+000	9	...........
	128	1.72	9.43361E-001	9.09084E-005	0.00000E+000	8.57595E-005	5.39641E-002	9.43549E-001	3.57310E+000	9	...........
	129	1.73333	9.45252E-001	9.10293E-005	0.00000E+000	8.60456E-005	5.39641E-002	9.45464E-001	3.57310E+000	9	...........
	130	1.74667	9.47203E-001	9.09168E-005	0.00000E+000	8.61166E-005	5.39641E-002	9.47378E-001	3.57310E+000	9	...........
	131	1.76	9.49061E-001	9.11137E-005	0.00000E+000	8.64725E-005	5.39641E-002	9.49248E-001	3.57310E+000	9	...........
	132	1.77333	9.50902E-001	9.08459E-005	0.00000E+000	8.63855E-005	5.39641E-002	9.51088E-001	3.57310E+000	9	...........
	133	1.78667	9.52746E-001	9.10335E-005	0.00000E+000	8.67318E-005	5.39641E-002	9.52941E-001	3.57310E+000	9	...........
	134	1.8	9.54557E-001	9.10460E-005	0.00000E+000	8.69086E-005	5.39641E-002	9.54755E-001	3.57310E+000	9	...........
	135	1.81333	9.56382E-001	9.11095E-005	0.00000E+000	8.71355E-005	5.39641E-002	9.56538E-001	3.57310E+000	9	...........
	136	1.82667	9.58134E-001	9.11543E-005	0.00000E+000	8.73381E-005	5.39641E-002	9.58323E-001	3.57310E+000	9	...........
	137	1.84	9.59900E-001	9.12304E-005	0.00000E+000	8.75721E-005	5.39641E-002	9.60090E-001	3.57310E+000	9	...........
	138	1.85333	9.61646E-001	9.08730E-005	0.00000E+000	8.73876E-005	5.39641E-002	9.61838E-001	3.57310E+000	9	...........
	139	1.86667	9.63358E-001	9.09908E-005	0.00000E+000	8.76566E-005	5.39641E-002	9.63563E-001	3.57310E+000	9	...........
	140	1.88	9.65016E-001	9.10543E-005	0.00000E+000	8.78688E-005	5.39641E-002	9.65223E-001	3.57310E+000	9	...........
	141	1.89333	9.66706E-001	9.10449E-005	0.00000E+000	8.80137E-005	5.39641E-002	9.66919E-001	3.57310E+000	9	...........
	142	1.90667	9.68408E-001	9.08366E-005	0.00000E+000	8.79669E-005	5.39641E-002	9.68609E-001	3.57310E+000	9	...........
	143	1.92	9.70055E-001	9.10856E-005	0.00000E+000	8.83580E-005	5.39641E-002	9.70275E-001	3.57310E+000	9	...........
	144	1.93333	9.71722E-001	9.09293E-005	0.00000E+000	8.83580E-005	5.39641E-002	9.71935E-001	3.57310E+000	9	...........
	145	1.94667	9.73369E-001	9.10824E-005	0.00000E+000	8.86568E-005	5.39641E-002	9.73541E-001	3.57310E+000	9	...........
	146	1.96	9.74947E-001	9.09387E-005	0.00000E+000	8.86604E-005	5.39641E-002	9.75126E-001	3.57310E+000	9	...........
	147	1.97333	9.76544E-001	9.09178E-005	0.00000E+000	8.87852E-005	5.39641E-002	9.76710E-001	3.57310E+000	9	...........
	148	1.98667	9.78104E-001	9.11783E-005	0.00000E+000	8.91819E-005	5.39641E-002	9.78265E-001	3.57310E+000	9	...........
	149	2	9.79635E-001	9.09001E-005	0.00000E+000	8.90489E-005	5.39641E-002	9.79821E-001	3.57310E+000	9	...........
	150	2.01333	9.81169E-001	9.08439E-005	0.00000E+000	8.91332E-005	5.39641E-002	9.81325E-001	3.57310E+000	9	...........
	151	2.02667	9.82680E-001	9.10012E-005	0.00000E+000	8.94250E-005	5.39641E-002	9.82855E-001	3.57310E+000	9	...........
	152	2.04	9.84154E-001	9.09866E-005	0.00000E+000	8.95448E-005	5.39641E-002	9.84357E-001	3.57310E+000	9	...........
	153	2.05333	9.85647E-001	9.11408E-005	0.00000E+000	8.98326E-005	5.39641E-002	9.85844E-001	3.57310E+000	9	...........
	154	2.06667	9.87098E-001	9.09230E-005	0.00000E+000	8.97499E-005	5.39641E-002	9.87319E-001	3.57310E+000	9	...........
	155	2.08	9.88568E-001	9.12096E-005	0.00000E+000	9.01669E-005	5.39641E-002	9.88759E-001	3.57310E+000	9	...........
	156	2.09333	9.90019E-001	9.13846E-005	0.00000E+000	9.04724E-005	5.39641E-002	9.90222E-001	3.57310E+000	9	...........
	157	2.10667	9.91435E-001	9.09262E-005	0.00000E+000	9.01474E-005	5.39641E-002	9.91620E-001	3.57310E+000	9	...........
	158	2.12	9.92831E-001	9.10585E-005	0.00000E+000	9.04057E-005	5.39641E-002	9.93039E-001	3.57310E+000	9	...........
	159	2.13333	9.94204E-001	9.09355E-005	0.00000E+000	9.04085E-005	5.39641E-002	9.94440E-001	3.57310E+000	9	...........
	160	2.14667	9.95607E-001	9.13106E-005	0.00000E+000	9.09095E-005	5.39641E-002	9.95814E-001	3.57310E+000	9	...........
	161	2.16	9.96959E-001	9.12825E-005	0.00000E+000	9.10049E-005	5.39641E-002	9.97204E-001	3.57310E+000	9	...........
	162	2.17333	9.98362E-001	9.08355E-005	0.00000E+000	9.06867E-005	5.39641E-002	9.98580E-001	3.57310E+000	9	...........
	163	2.185	9.99606E-001	9.08709E-005	0.00000E+000	9.08351E-005	5.39641E-002	9.99836E-001	3.57310E+000	9	...........
STARTTIMEOFFSET	QUANT	3136.032	Start Time Offset (s)
