EXPLAIN
TAG	PWR800_CHARGE
TITLE	LABEL	PWR Cyclic Charge Discharge (Cell) - Charge Step	Test &Identifier
DATE	LABEL	10-7-2017	Date
TIME	LABEL	15:51:28	Time
NOTES	NOTES	3	&Notes...
	supercap test cell
	0.9mg
	6M KOH
PSTAT	PSTAT	IFC5000-01520	Potentiostat
CAPACITY	QUANT	1.00000E-003	Capacity (A-hr)
CELLTYPE	SELECTOR	1	&Cell Type
WORKINGCONNECTION	SELECTOR	0	&Working Lead
MAXCHARGETIME	VARIABLEANDUNITS	1.00000E+002	s	1.00000E+002	second(s)	Max &Charge Time
CHARGECURRENT	QUANT	9.00000E-005	&Charge Current (A) 
VOLTAGEFINISH	TWOPARAM	F	1.00000E-003	3.60000E+003	&Voltage Finish	 I (A) < 	Max Time(s)
SAMPLETIME	QUANT	1.00000E-002	Sa&mple Period (s)
CHARGESTOPAT1	MULTIPARAM	4	1.00000E+000	Charge Stop At &1	Voltage > Limit	V
CHARGESTOPAT2	MULTIPARAM	0	0.00000E+000	Charge Stop At &2	None	N/A
AESBHCSELECTOR	TOGGLE	F	Save Both Half Cells
IRCOMP	TOGGLE	F	IR &Measure
EOC	QUANT	0	Open Circuit (V)
SEQUENCER	TOGGLE	TRUE	Run as Sequence
PSTATMODEL	IQUANT	53	Pstat Model
PSTATSECTION	LABEL	IFC5000-01520	Pstat Section
PSTATSERIALNO	LABEL	01520	Pstat Serial Number
CTRLMODE	IQUANT	0	Control Mode
ELECTROMETER	IQUANT	1	RE=0 or CS=1
IESTAB	IQUANT	0	I/E Stability
CASPEED	IQUANT	4	Control Amp Speed
CONVENTION	IQUANT	1	Current Convention
ICHRANGE	IQUANT	2	Ich Range
ICHRANGEMODE	TOGGLE	T	Ich Auto Range
ICHOFFSETENABLE	TOGGLE	F	Ich Offset Enable
ICHOFFSET	QUANT	0	Ich Offset (V)
ICHFILTER	IQUANT	1	Ich Filter
VCHRANGE	IQUANT	2	Vch Range
VCHRANGEMODE	TOGGLE	T	Vch Auto Range
VCHOFFSETENABLE	TOGGLE	F	Vch Offset Enable
VCHOFFSET	QUANT	0	Vch Offset (V)
VCHFILTER	IQUANT	1	Vch Filter
IERANGELOWERLIMIT	IQUANT	9	I/E Range Lower Limit
IERANGEMODE	TOGGLE	F	I/E AutoRange
IERANGE	IQUANT	9	I/E Range
ACHSELECT	IQUANT	1	Ach Select
ACHRANGE	IQUANT	2	Ach Range
ACHOFFSETENABLE	TOGGLE	F	Ach Offset Enable
ACHOFFSET	QUANT	0	Ach Offset (V)
ACHFILTER	IQUANT	1	Ach Filter
CABLEID	IQUANT	14	Cable ID
DCCALDATE	LABEL	5-7-2017	DC Calibration Date
ACCALDATE	LABEL	12/3/2015	AC Calibration Date
FRAMEWORKVERSION	QUANT	7.01	Framework Version
INSTRUMENTVERSION	LABEL	4.00	Instrument Version
CURVE	TABLE	167
	Pt	T	Vf	Im	Vu	Pwr	Sig	Ach	Temp	IERange	Over
	#	s	V	A	V	W	V	V	deg C	#	bits
	0	0.013333	2.72105E-001	9.09355E-005	0.00000E+000	2.47440E-005	5.39641E-002	2.72154E-001	3.57300E+000	9	...........
	1	0.026667	2.91795E-001	9.08220E-005	0.00000E+000	2.65014E-005	5.39641E-002	2.91836E-001	3.57300E+000	9	...........
	2	0.04	3.10185E-001	9.08282E-005	0.00000E+000	2.81736E-005	5.39641E-002	3.10234E-001	3.57300E+000	9	...........
	3	0.053333	3.27477E-001	9.09918E-005	0.00000E+000	2.97977E-005	5.39641E-002	3.27521E-001	3.57300E+000	9	...........
	4	0.066667	3.43799E-001	9.07053E-005	0.00000E+000	3.11844E-005	5.39641E-002	3.43846E-001	3.57300E+000	9	...........
	5	0.08	3.59260E-001	9.08762E-005	0.00000E+000	3.26481E-005	5.39641E-002	3.59308E-001	3.57300E+000	9	...........
	6	0.093333	3.73939E-001	9.09647E-005	0.00000E+000	3.40153E-005	5.39641E-002	3.73987E-001	3.57300E+000	9	...........
	7	0.106667	3.87913E-001	9.07553E-005	0.00000E+000	3.52051E-005	5.39641E-002	3.87958E-001	3.57300E+000	9	...........
	8	0.12	4.01250E-001	9.12773E-005	0.00000E+000	3.66250E-005	5.39641E-002	4.01301E-001	3.57300E+000	9	...........
	9	0.133333	4.13985E-001	9.12648E-005	0.00000E+000	3.77823E-005	5.39641E-002	4.14041E-001	3.57300E+000	9	...........
	10	0.146667	4.26179E-001	9.06980E-005	0.00000E+000	3.86535E-005	5.39641E-002	4.26235E-001	3.57300E+000	9	...........
	11	0.16	4.37894E-001	9.10356E-005	0.00000E+000	3.98639E-005	5.39641E-002	4.37955E-001	3.57300E+000	9	...........
	12	0.173333	4.49141E-001	9.10199E-005	0.00000E+000	4.08808E-005	5.39641E-002	4.49206E-001	3.57300E+000	9	...........
	13	0.186667	4.59965E-001	9.09189E-005	0.00000E+000	4.18195E-005	5.39641E-002	4.60023E-001	3.57300E+000	9	...........
	14	0.2	4.70401E-001	9.10428E-005	0.00000E+000	4.28267E-005	5.39641E-002	4.70456E-001	3.57300E+000	9	...........
	15	0.213333	4.80483E-001	9.08584E-005	0.00000E+000	4.36560E-005	5.39641E-002	4.80549E-001	3.57300E+000	9	...........
	16	0.226667	4.90223E-001	9.08647E-005	0.00000E+000	4.45440E-005	5.39641E-002	4.90285E-001	3.57300E+000	9	...........
	17	0.24	4.99641E-001	9.08574E-005	0.00000E+000	4.53961E-005	5.39641E-002	4.99711E-001	3.57300E+000	9	...........
	18	0.253333	5.08760E-001	9.08991E-005	0.00000E+000	4.62459E-005	5.39641E-002	5.08832E-001	3.57300E+000	9	...........
	19	0.266667	5.17612E-001	9.11918E-005	0.00000E+000	4.72019E-005	5.39641E-002	5.17684E-001	3.57300E+000	9	...........
	20	0.28	5.26194E-001	9.10178E-005	0.00000E+000	4.78930E-005	5.39641E-002	5.26272E-001	3.57300E+000	9	...........
	21	0.293333	5.34473E-001	9.10116E-005	0.00000E+000	4.86432E-005	5.39641E-002	5.34564E-001	3.57300E+000	9	...........
	22	0.306667	5.42538E-001	9.11179E-005	0.00000E+000	4.94349E-005	5.39641E-002	5.42639E-001	3.57300E+000	9	...........
	23	0.32	5.50399E-001	9.10699E-005	0.00000E+000	5.01248E-005	5.39641E-002	5.50527E-001	3.57300E+000	9	...........
	24	0.333333	5.58066E-001	9.09657E-005	0.00000E+000	5.07649E-005	5.39641E-002	5.58177E-001	3.57300E+000	9	...........
	25	0.346667	5.65572E-001	9.08386E-005	0.00000E+000	5.13758E-005	5.39641E-002	5.65671E-001	3.57300E+000	9	...........
	26	0.36	5.72847E-001	9.08907E-005	0.00000E+000	5.20665E-005	5.39641E-002	5.72938E-001	3.57300E+000	9	...........
	27	0.373333	5.79936E-001	9.10303E-005	0.00000E+000	5.27918E-005	5.39641E-002	5.80056E-001	3.57300E+000	9	...........
	28	0.386667	5.86875E-001	9.08063E-005	0.00000E+000	5.32919E-005	5.39641E-002	5.86998E-001	3.57300E+000	9	...........
	29	0.4	5.93661E-001	9.09282E-005	0.00000E+000	5.39805E-005	5.39641E-002	5.93793E-001	3.57300E+000	9	...........
	30	0.413333	6.00262E-001	9.12585E-005	0.00000E+000	5.47790E-005	5.39641E-002	6.00403E-001	3.57300E+000	9	...........
	31	0.426667	6.06716E-001	9.12408E-005	0.00000E+000	5.53572E-005	5.39641E-002	6.06860E-001	3.57300E+000	9	...........
	32	0.44	6.13062E-001	9.09866E-005	0.00000E+000	5.57804E-005	5.39641E-002	6.13172E-001	3.57300E+000	9	...........
	33	0.453333	6.19297E-001	9.11898E-005	0.00000E+000	5.64735E-005	5.39641E-002	6.19388E-001	3.57300E+000	9	...........
	34	0.466667	6.25344E-001	9.10470E-005	0.00000E+000	5.69357E-005	5.39641E-002	6.25416E-001	3.57300E+000	9	...........
	35	0.48	6.31245E-001	9.10210E-005	0.00000E+000	5.74565E-005	5.39641E-002	6.31334E-001	3.57300E+000	9	...........
	36	0.493333	6.37036E-001	9.08168E-005	0.00000E+000	5.78535E-005	5.39641E-002	6.37153E-001	3.57300E+000	9	...........
	37	0.506667	6.42755E-001	9.09814E-005	0.00000E+000	5.84788E-005	5.39641E-002	6.42871E-001	3.57300E+000	9	...........
	38	0.52	6.48349E-001	9.09199E-005	0.00000E+000	5.89478E-005	5.39641E-002	6.48453E-001	3.57300E+000	9	...........
	39	0.533333	6.53871E-001	9.08772E-005	0.00000E+000	5.94219E-005	5.39641E-002	6.53970E-001	3.57337E+000	9	...........
	40	0.546667	6.59249E-001	9.10147E-005	0.00000E+000	6.00013E-005	5.39641E-002	6.59325E-001	3.57400E+000	9	...........
	41	0.56	6.64520E-001	9.08428E-005	0.00000E+000	6.03668E-005	5.39641E-002	6.64637E-001	3.57400E+000	9	...........
	42	0.573333	6.69731E-001	9.09157E-005	0.00000E+000	6.08891E-005	5.39641E-002	6.69842E-001	3.57400E+000	9	...........
	43	0.586667	6.74841E-001	9.09585E-005	0.00000E+000	6.13825E-005	5.39641E-002	6.74962E-001	3.57400E+000	9	...........
	44	0.6	6.79879E-001	9.09324E-005	0.00000E+000	6.18230E-005	5.39641E-002	6.79990E-001	3.57400E+000	9	...........
	45	0.613333	6.84822E-001	9.12054E-005	0.00000E+000	6.24595E-005	5.39641E-002	6.84937E-001	3.57400E+000	9	...........
	46	0.626667	6.89685E-001	9.11272E-005	0.00000E+000	6.28491E-005	5.39641E-002	6.89808E-001	3.57400E+000	9	...........
	47	0.64	6.94497E-001	9.10001E-005	0.00000E+000	6.31993E-005	5.39641E-002	6.94617E-001	3.57400E+000	9	...........
	48	0.653333	6.99202E-001	9.09981E-005	0.00000E+000	6.36261E-005	5.39641E-002	6.99353E-001	3.57400E+000	9	...........
	49	0.666667	7.03865E-001	9.11512E-005	0.00000E+000	6.41582E-005	5.39641E-002	7.04001E-001	3.57400E+000	9	...........
	50	0.68	7.08435E-001	9.09835E-005	0.00000E+000	6.44558E-005	5.39641E-002	7.08578E-001	3.57400E+000	9	...........
	51	0.693333	7.12929E-001	9.11470E-005	0.00000E+000	6.49813E-005	5.39641E-002	7.13066E-001	3.57400E+000	9	...........
	52	0.706667	7.17387E-001	9.08991E-005	0.00000E+000	6.52098E-005	5.39641E-002	7.17545E-001	3.57400E+000	9	...........
	53	0.72	7.21798E-001	9.12481E-005	0.00000E+000	6.58627E-005	5.39641E-002	7.21911E-001	3.57400E+000	9	...........
	54	0.733333	7.26089E-001	9.10689E-005	0.00000E+000	6.61241E-005	5.39641E-002	7.26223E-001	3.57400E+000	9	...........
	55	0.746667	7.30308E-001	9.10095E-005	0.00000E+000	6.64649E-005	5.39641E-002	7.30504E-001	3.57400E+000	9	...........
	56	0.76	7.34517E-001	9.08459E-005	0.00000E+000	6.67279E-005	5.39641E-002	7.34668E-001	3.57400E+000	9	...........
	57	0.773333	7.38659E-001	9.13429E-005	0.00000E+000	6.74713E-005	5.39641E-002	7.38830E-001	3.57400E+000	9	...........
	58	0.786667	7.42751E-001	9.11450E-005	0.00000E+000	6.76980E-005	5.39641E-002	7.42950E-001	3.57400E+000	9	...........
	59	0.8	7.46817E-001	9.08345E-005	0.00000E+000	6.78368E-005	5.39641E-002	7.46981E-001	3.57400E+000	9	...........
	60	0.813333	7.50799E-001	9.08574E-005	0.00000E+000	6.82156E-005	5.39641E-002	7.50976E-001	3.57400E+000	9	...........
	61	0.826667	7.54752E-001	9.09741E-005	0.00000E+000	6.86628E-005	5.39641E-002	7.54874E-001	3.57400E+000	9	...........
	62	0.84	7.58618E-001	9.08803E-005	0.00000E+000	6.89435E-005	5.39641E-002	7.58760E-001	3.57400E+000	9	...........
	63	0.853333	7.62451E-001	9.08011E-005	0.00000E+000	6.92314E-005	5.39641E-002	7.62577E-001	3.57400E+000	9	...........
	64	0.866667	7.66243E-001	9.08459E-005	0.00000E+000	6.96101E-005	5.39641E-002	7.66385E-001	3.57400E+000	9	...........
	65	0.88	7.70015E-001	9.12439E-005	0.00000E+000	7.02592E-005	5.39641E-002	7.70166E-001	3.57400E+000	9	...........
	66	0.893333	7.73715E-001	9.09335E-005	0.00000E+000	7.03566E-005	5.39641E-002	7.73867E-001	3.57400E+000	9	...........
	67	0.906667	7.77370E-001	9.10095E-005	0.00000E+000	7.07481E-005	5.39641E-002	7.77520E-001	3.57400E+000	9	...........
	68	0.92	7.80991E-001	9.09022E-005	0.00000E+000	7.09938E-005	5.39641E-002	7.81142E-001	3.57400E+000	9	...........
	69	0.933333	7.84546E-001	9.10689E-005	0.00000E+000	7.14478E-005	5.39641E-002	7.84714E-001	3.57400E+000	9	...........
	70	0.946667	7.88085E-001	9.11002E-005	0.00000E+000	7.17947E-005	5.39641E-002	7.88237E-001	3.57400E+000	9	...........
	71	0.96	7.91570E-001	9.06938E-005	0.00000E+000	7.17905E-005	5.39641E-002	7.91747E-001	3.57400E+000	9	...........
	72	0.97333	7.95075E-001	9.10981E-005	0.00000E+000	7.24298E-005	5.39641E-002	7.95244E-001	3.57400E+000	9	...........
	73	0.98667	7.98494E-001	9.10460E-005	0.00000E+000	7.26997E-005	5.39641E-002	7.98661E-001	3.57400E+000	9	...........
	74	1	8.01879E-001	9.09084E-005	0.00000E+000	7.28976E-005	5.39641E-002	8.02021E-001	3.57400E+000	9	...........
	75	1.01333	8.05263E-001	9.10293E-005	0.00000E+000	7.33025E-005	5.39641E-002	8.05417E-001	3.57400E+000	9	...........
	76	1.02667	8.08588E-001	9.09855E-005	0.00000E+000	7.35698E-005	5.39641E-002	8.08728E-001	3.57400E+000	9	...........
	77	1.04	8.11855E-001	9.09585E-005	0.00000E+000	7.38451E-005	5.39641E-002	8.12003E-001	3.57400E+000	9	...........
	78	1.05333	8.15123E-001	9.11106E-005	0.00000E+000	7.42663E-005	5.39641E-002	8.15253E-001	3.57400E+000	9	...........
	79	1.06667	8.18328E-001	9.10033E-005	0.00000E+000	7.44705E-005	5.39641E-002	8.18493E-001	3.57400E+000	9	...........
	80	1.08	8.21518E-001	9.12127E-005	0.00000E+000	7.49328E-005	5.39641E-002	8.21670E-001	3.57400E+000	9	...........
	81	1.09333	8.24661E-001	9.10064E-005	0.00000E+000	7.50494E-005	5.39641E-002	8.24801E-001	3.57400E+000	9	...........
	82	1.10667	8.27755E-001	9.09105E-005	0.00000E+000	7.52516E-005	5.39641E-002	8.27893E-001	3.57400E+000	9	...........
	83	1.12	8.30810E-001	9.09574E-005	0.00000E+000	7.55683E-005	5.39641E-002	8.30985E-001	3.57400E+000	9	...........
	84	1.13333	8.33843E-001	9.09116E-005	0.00000E+000	7.58060E-005	5.39641E-002	8.34026E-001	3.57400E+000	9	...........
	85	1.14667	8.36859E-001	9.12481E-005	0.00000E+000	7.63618E-005	5.39641E-002	8.37045E-001	3.57400E+000	9	...........
	86	1.16	8.39844E-001	9.10043E-005	0.00000E+000	7.64294E-005	5.39641E-002	8.40011E-001	3.57400E+000	9	...........
	87	1.17333	8.42772E-001	9.11189E-005	0.00000E+000	7.67924E-005	5.39641E-002	8.42971E-001	3.57400E+000	9	...........
	88	1.18667	8.45721E-001	9.11595E-005	0.00000E+000	7.70956E-005	5.39641E-002	8.45914E-001	3.57400E+000	9	...........
	89	1.2	8.48603E-001	9.10751E-005	0.00000E+000	7.72866E-005	5.39641E-002	8.48794E-001	3.57400E+000	9	...........
	90	1.21333	8.51444E-001	9.11700E-005	0.00000E+000	7.76261E-005	5.39641E-002	8.51651E-001	3.57400E+000	9	...........
	91	1.22667	8.54276E-001	9.11074E-005	0.00000E+000	7.78309E-005	5.39641E-002	8.54464E-001	3.57400E+000	9	...........
	92	1.24	8.57092E-001	9.11523E-005	0.00000E+000	7.81259E-005	5.39641E-002	8.57302E-001	3.57400E+000	9	...........
	93	1.25333	8.59850E-001	9.07949E-005	0.00000E+000	7.80700E-005	5.39641E-002	8.60078E-001	3.57400E+000	9	...........
	94	1.26667	8.62613E-001	9.10303E-005	0.00000E+000	7.85239E-005	5.39641E-002	8.62808E-001	3.57400E+000	9	...........
	95	1.28	8.65310E-001	9.09532E-005	0.00000E+000	7.87028E-005	5.39641E-002	8.65508E-001	3.57400E+000	9	...........
	96	1.29333	8.68027E-001	9.11127E-005	0.00000E+000	7.90883E-005	5.39641E-002	8.68227E-001	3.57400E+000	9	...........
	97	1.30667	8.70706E-001	9.11595E-005	0.00000E+000	7.93731E-005	5.39641E-002	8.70889E-001	3.57400E+000	9	...........
	98	1.32	8.73317E-001	9.09480E-005	0.00000E+000	7.94264E-005	5.39641E-002	8.73499E-001	3.57400E+000	9	...........
	99	1.33333	8.75909E-001	9.09574E-005	0.00000E+000	7.96704E-005	5.39641E-002	8.76088E-001	3.57400E+000	9	...........
	100	1.34667	8.78457E-001	9.08595E-005	0.00000E+000	7.98162E-005	5.39641E-002	8.78643E-001	3.57400E+000	9	...........
	101	1.36	8.80996E-001	9.08939E-005	0.00000E+000	8.00771E-005	5.39641E-002	8.81168E-001	3.57400E+000	9	...........
	102	1.37333	8.83539E-001	9.10741E-005	0.00000E+000	8.04675E-005	5.39641E-002	8.83698E-001	3.57400E+000	9	...........
	103	1.38667	8.86010E-001	9.09397E-005	0.00000E+000	8.05735E-005	5.39641E-002	8.86192E-001	3.57400E+000	9	...........
	104	1.4	8.88472E-001	9.09866E-005	0.00000E+000	8.08391E-005	5.39641E-002	8.88663E-001	3.57400E+000	9	...........
	105	1.41333	8.90923E-001	9.11272E-005	0.00000E+000	8.11874E-005	5.39641E-002	8.91091E-001	3.57400E+000	9	...........
	106	1.42667	8.93304E-001	9.10241E-005	0.00000E+000	8.13122E-005	5.39641E-002	8.93488E-001	3.57400E+000	9	...........
	107	1.44	8.95685E-001	9.10804E-005	0.00000E+000	8.15793E-005	5.39641E-002	8.95932E-001	3.57400E+000	9	...........
	108	1.45333	8.98070E-001	9.09783E-005	0.00000E+000	8.17048E-005	5.39641E-002	8.98304E-001	3.57400E+000	9	...........
	109	1.46667	9.00425E-001	9.11637E-005	0.00000E+000	8.20861E-005	5.39641E-002	9.00644E-001	3.57400E+000	9	...........
	110	1.48	9.02755E-001	9.10626E-005	0.00000E+000	8.22073E-005	5.39641E-002	9.02983E-001	3.57400E+000	9	...........
	111	1.49333	9.05037E-001	9.10178E-005	0.00000E+000	8.23745E-005	5.39641E-002	9.05280E-001	3.57400E+000	9	...........
	112	1.50667	9.07336E-001	9.10751E-005	0.00000E+000	8.26357E-005	5.39641E-002	9.07565E-001	3.57400E+000	9	...........
	113	1.52	9.09614E-001	9.11356E-005	0.00000E+000	8.28982E-005	5.39641E-002	9.09814E-001	3.57400E+000	9	...........
	114	1.53333	9.11810E-001	9.11627E-005	0.00000E+000	8.31230E-005	5.39641E-002	9.12042E-001	3.57347E+000	9	...........
	115	1.54667	9.14068E-001	9.09658E-005	0.00000E+000	8.31489E-005	5.39641E-002	9.14282E-001	3.57260E+000	9	...........
	116	1.56	9.16246E-001	9.12856E-005	0.00000E+000	8.36401E-005	5.39641E-002	9.16473E-001	3.57260E+000	9	...........
	117	1.57333	9.18385E-001	9.08845E-005	0.00000E+000	8.34669E-005	5.39641E-002	9.18617E-001	3.57260E+000	9	...........
	118	1.58667	9.20575E-001	9.08980E-005	0.00000E+000	8.36785E-005	5.39641E-002	9.20753E-001	3.57260E+000	9	...........
	119	1.6	9.22740E-001	9.11179E-005	0.00000E+000	8.40781E-005	5.39641E-002	9.22897E-001	3.57260E+000	9	...........
	120	1.61333	9.24866E-001	9.11595E-005	0.00000E+000	8.43103E-005	5.39641E-002	9.25013E-001	3.57260E+000	9	...........
	121	1.62667	9.26943E-001	9.10835E-005	0.00000E+000	8.44292E-005	5.39641E-002	9.27110E-001	3.57260E+000	9	...........
	122	1.64	9.28976E-001	9.11408E-005	0.00000E+000	8.46676E-005	5.39641E-002	9.29128E-001	3.57260E+000	9	...........
	123	1.65333	9.30968E-001	9.10991E-005	0.00000E+000	8.48104E-005	5.39641E-002	9.31118E-001	3.57260E+000	9	...........
	124	1.66667	9.32951E-001	9.12804E-005	0.00000E+000	8.51602E-005	5.39641E-002	9.33116E-001	3.57260E+000	9	...........
	125	1.68	9.34896E-001	9.08376E-005	0.00000E+000	8.49237E-005	5.39641E-002	9.35084E-001	3.57260E+000	9	...........
	126	1.69333	9.36831E-001	9.11887E-005	0.00000E+000	8.54285E-005	5.39641E-002	9.37034E-001	3.57260E+000	9	...........
	127	1.70667	9.38756E-001	9.10606E-005	0.00000E+000	8.54836E-005	5.39641E-002	9.38953E-001	3.57260E+000	9	...........
	128	1.72	9.40702E-001	9.09262E-005	0.00000E+000	8.55344E-005	5.39641E-002	9.40908E-001	3.57260E+000	9	...........
	129	1.73333	9.42612E-001	9.12200E-005	0.00000E+000	8.59851E-005	5.39641E-002	9.42799E-001	3.57260E+000	9	...........
	130	1.74667	9.44489E-001	9.10783E-005	0.00000E+000	8.60225E-005	5.39641E-002	9.44699E-001	3.57260E+000	9	...........
	131	1.76	9.46385E-001	9.12679E-005	0.00000E+000	8.63746E-005	5.39641E-002	9.46578E-001	3.57260E+000	9	...........
	132	1.77333	9.48249E-001	9.10991E-005	0.00000E+000	8.63847E-005	5.39641E-002	9.48421E-001	3.57260E+000	9	...........
	133	1.78667	9.50066E-001	9.07970E-005	0.00000E+000	8.62631E-005	5.39641E-002	9.50244E-001	3.57260E+000	9	...........
	134	1.8	9.51853E-001	9.09991E-005	0.00000E+000	8.66178E-005	5.39641E-002	9.52038E-001	3.57260E+000	9	...........
	135	1.81333	9.53631E-001	9.08959E-005	0.00000E+000	8.66812E-005	5.39641E-002	9.53793E-001	3.57260E+000	9	...........
	136	1.82667	9.55381E-001	9.08949E-005	0.00000E+000	8.68392E-005	5.39641E-002	9.55555E-001	3.57260E+000	9	...........
	137	1.84	9.57135E-001	9.09918E-005	0.00000E+000	8.70915E-005	5.39641E-002	9.57316E-001	3.57260E+000	9	...........
	138	1.85333	9.58856E-001	9.09699E-005	0.00000E+000	8.72270E-005	5.39641E-002	9.59043E-001	3.57260E+000	9	...........
	139	1.86667	9.60593E-001	9.12596E-005	0.00000E+000	8.76633E-005	5.39641E-002	9.60785E-001	3.57260E+000	9	...........
	140	1.88	9.62292E-001	9.11887E-005	0.00000E+000	8.77502E-005	5.39641E-002	9.62505E-001	3.57260E+000	9	...........
	141	1.89333	9.63954E-001	9.08418E-005	0.00000E+000	8.75673E-005	5.39641E-002	9.64164E-001	3.57260E+000	9	...........
	142	1.90667	9.65581E-001	9.08636E-005	0.00000E+000	8.77362E-005	5.39641E-002	9.65781E-001	3.57260E+000	9	...........
	143	1.92	9.67216E-001	9.09720E-005	0.00000E+000	8.79896E-005	5.39641E-002	9.67414E-001	3.57260E+000	9	...........
	144	1.93333	9.68865E-001	9.07928E-005	0.00000E+000	8.79659E-005	5.39641E-002	9.69041E-001	3.57260E+000	9	...........
	145	1.94667	9.70466E-001	9.10564E-005	0.00000E+000	8.83672E-005	5.39641E-002	9.70680E-001	3.57260E+000	9	...........
	146	1.96	9.72053E-001	9.09980E-005	0.00000E+000	8.84549E-005	5.39641E-002	9.72264E-001	3.57260E+000	9	...........
	147	1.97333	9.73671E-001	9.09710E-005	0.00000E+000	8.85758E-005	5.39641E-002	9.73835E-001	3.57260E+000	9	...........
	148	1.98667	9.75219E-001	9.08970E-005	0.00000E+000	8.86445E-005	5.39641E-002	9.75395E-001	3.57260E+000	9	...........
	149	2	9.76734E-001	9.08063E-005	0.00000E+000	8.86936E-005	5.39641E-002	9.76908E-001	3.57260E+000	9	...........
	150	2.01333	9.78238E-001	9.09532E-005	0.00000E+000	8.89739E-005	5.39641E-002	9.78433E-001	3.57260E+000	9	...........
	151	2.02667	9.79721E-001	9.09960E-005	0.00000E+000	8.91507E-005	5.39641E-002	9.79880E-001	3.57260E+000	9	...........
	152	2.04	9.81178E-001	9.10668E-005	0.00000E+000	8.93527E-005	5.39641E-002	9.81366E-001	3.57260E+000	9	...........
	153	2.05333	9.82661E-001	9.10939E-005	0.00000E+000	8.95144E-005	5.39641E-002	9.82852E-001	3.57260E+000	9	...........
	154	2.06667	9.84101E-001	9.08876E-005	0.00000E+000	8.94426E-005	5.39641E-002	9.84325E-001	3.57260E+000	9	...........
	155	2.08	9.85564E-001	9.12137E-005	0.00000E+000	8.98970E-005	5.39641E-002	9.85779E-001	3.57260E+000	9	...........
	156	2.09333	9.86987E-001	9.10074E-005	0.00000E+000	8.98232E-005	5.39641E-002	9.87220E-001	3.57260E+000	9	...........
	157	2.10667	9.88420E-001	9.12491E-005	0.00000E+000	9.01925E-005	5.39641E-002	9.88639E-001	3.57260E+000	9	...........
	158	2.12	9.89814E-001	9.08449E-005	0.00000E+000	8.99195E-005	5.39641E-002	9.90019E-001	3.57260E+000	9	...........
	159	2.13333	9.91207E-001	9.10835E-005	0.00000E+000	9.02825E-005	5.39641E-002	9.91414E-001	3.57260E+000	9	...........
	160	2.14667	9.92571E-001	9.10720E-005	0.00000E+000	9.03954E-005	5.39641E-002	9.92766E-001	3.57260E+000	9	...........
	161	2.16	9.93913E-001	9.09762E-005	0.00000E+000	9.04224E-005	5.39641E-002	9.94121E-001	3.57260E+000	9	...........
	162	2.17333	9.95297E-001	9.09074E-005	0.00000E+000	9.04799E-005	5.39641E-002	9.95460E-001	3.57260E+000	9	...........
	163	2.18667	9.96617E-001	9.09970E-005	0.00000E+000	9.06892E-005	5.39641E-002	9.96807E-001	3.57260E+000	9	...........
	164	2.2	9.97944E-001	9.10626E-005	0.00000E+000	9.08754E-005	5.39641E-002	9.98139E-001	3.57260E+000	9	...........
	165	2.21333	9.99253E-001	9.08720E-005	0.00000E+000	9.08041E-005	5.39641E-002	9.99452E-001	3.57260E+000	9	...........
	166	2.21667	1.00006E+000	9.13377E-005	0.00000E+000	9.13433E-005	5.39641E-002	1.00029E+000	3.57260E+000	9	...........
STARTTIMEOFFSET	QUANT	2638.022	Start Time Offset (s)
