EXPLAIN
TAG	PWR800_CHARGE
TITLE	LABEL	PWR Cyclic Charge Discharge (Cell) - Charge Step	Test &Identifier
DATE	LABEL	10-7-2017	Date
TIME	LABEL	15:15:04	Time
NOTES	NOTES	3	&Notes...
	supercap test cell
	0.9mg
	6M KOH
PSTAT	PSTAT	IFC5000-01520	Potentiostat
CAPACITY	QUANT	1.00000E-003	Capacity (A-hr)
CELLTYPE	SELECTOR	1	&Cell Type
WORKINGCONNECTION	SELECTOR	0	&Working Lead
MAXCHARGETIME	VARIABLEANDUNITS	1.00000E+002	s	1.00000E+002	second(s)	Max &Charge Time
CHARGECURRENT	QUANT	9.00000E-005	&Charge Current (A) 
VOLTAGEFINISH	TWOPARAM	F	1.00000E-003	3.60000E+003	&Voltage Finish	 I (A) < 	Max Time(s)
SAMPLETIME	QUANT	1.00000E-002	Sa&mple Period (s)
CHARGESTOPAT1	MULTIPARAM	4	1.00000E+000	Charge Stop At &1	Voltage > Limit	V
CHARGESTOPAT2	MULTIPARAM	0	0.00000E+000	Charge Stop At &2	None	N/A
AESBHCSELECTOR	TOGGLE	F	Save Both Half Cells
IRCOMP	TOGGLE	F	IR &Measure
EOC	QUANT	0	Open Circuit (V)
SEQUENCER	TOGGLE	TRUE	Run as Sequence
PSTATMODEL	IQUANT	53	Pstat Model
PSTATSECTION	LABEL	IFC5000-01520	Pstat Section
PSTATSERIALNO	LABEL	01520	Pstat Serial Number
CTRLMODE	IQUANT	0	Control Mode
ELECTROMETER	IQUANT	1	RE=0 or CS=1
IESTAB	IQUANT	0	I/E Stability
CASPEED	IQUANT	4	Control Amp Speed
CONVENTION	IQUANT	1	Current Convention
ICHRANGE	IQUANT	2	Ich Range
ICHRANGEMODE	TOGGLE	T	Ich Auto Range
ICHOFFSETENABLE	TOGGLE	F	Ich Offset Enable
ICHOFFSET	QUANT	0	Ich Offset (V)
ICHFILTER	IQUANT	1	Ich Filter
VCHRANGE	IQUANT	2	Vch Range
VCHRANGEMODE	TOGGLE	T	Vch Auto Range
VCHOFFSETENABLE	TOGGLE	F	Vch Offset Enable
VCHOFFSET	QUANT	0	Vch Offset (V)
VCHFILTER	IQUANT	1	Vch Filter
IERANGELOWERLIMIT	IQUANT	9	I/E Range Lower Limit
IERANGEMODE	TOGGLE	F	I/E AutoRange
IERANGE	IQUANT	9	I/E Range
ACHSELECT	IQUANT	1	Ach Select
ACHRANGE	IQUANT	2	Ach Range
ACHOFFSETENABLE	TOGGLE	F	Ach Offset Enable
ACHOFFSET	QUANT	0	Ach Offset (V)
ACHFILTER	IQUANT	1	Ach Filter
CABLEID	IQUANT	14	Cable ID
DCCALDATE	LABEL	5-7-2017	DC Calibration Date
ACCALDATE	LABEL	12/3/2015	AC Calibration Date
FRAMEWORKVERSION	QUANT	7.01	Framework Version
INSTRUMENTVERSION	LABEL	4.00	Instrument Version
CURVE	TABLE	182
	Pt	T	Vf	Im	Vu	Pwr	Sig	Ach	Temp	IERange	Over
	#	s	V	A	V	W	V	V	deg C	#	bits
	0	0.013333	2.94786E-001	9.12106E-005	0.00000E+000	2.68876E-005	5.39641E-002	2.94818E-001	3.57210E+000	9	...........
	1	0.026667	3.13833E-001	9.11137E-005	0.00000E+000	2.85945E-005	5.39641E-002	3.13862E-001	3.57210E+000	9	...........
	2	0.04	3.31399E-001	9.10366E-005	0.00000E+000	3.01694E-005	5.39641E-002	3.31436E-001	3.57210E+000	9	...........
	3	0.053333	3.47767E-001	9.08897E-005	0.00000E+000	3.16084E-005	5.39641E-002	3.47800E-001	3.57210E+000	9	...........
	4	0.066667	3.63137E-001	9.11939E-005	0.00000E+000	3.31159E-005	5.39641E-002	3.63173E-001	3.57210E+000	9	...........
	5	0.08	3.77625E-001	9.10449E-005	0.00000E+000	3.43809E-005	5.39641E-002	3.77665E-001	3.57210E+000	9	...........
	6	0.093333	3.91364E-001	9.10293E-005	0.00000E+000	3.56256E-005	5.39641E-002	3.91401E-001	3.57210E+000	9	...........
	7	0.106667	4.04414E-001	9.10033E-005	0.00000E+000	3.68030E-005	5.39641E-002	4.04458E-001	3.57210E+000	9	...........
	8	0.12	4.16868E-001	9.09908E-005	0.00000E+000	3.79312E-005	5.39641E-002	4.16918E-001	3.57210E+000	9	...........
	9	0.133333	4.28785E-001	9.09449E-005	0.00000E+000	3.89959E-005	5.39641E-002	4.28836E-001	3.57210E+000	9	...........
	10	0.146667	4.40211E-001	9.11314E-005	0.00000E+000	4.01170E-005	5.39641E-002	4.40264E-001	3.57210E+000	9	...........
	11	0.16	4.51181E-001	9.09762E-005	0.00000E+000	4.10468E-005	5.39641E-002	4.51237E-001	3.57210E+000	9	...........
	12	0.173333	4.61739E-001	9.08407E-005	0.00000E+000	4.19447E-005	5.39641E-002	4.61788E-001	3.57210E+000	9	...........
	13	0.186667	4.71916E-001	9.08782E-005	0.00000E+000	4.28869E-005	5.39641E-002	4.71968E-001	3.57210E+000	9	...........
	14	0.2	4.81729E-001	9.11220E-005	0.00000E+000	4.38961E-005	5.39641E-002	4.81780E-001	3.57210E+000	9	...........
	15	0.213333	4.91214E-001	9.09043E-005	0.00000E+000	4.46535E-005	5.39641E-002	4.91267E-001	3.57210E+000	9	...........
	16	0.226667	5.00372E-001	9.10647E-005	0.00000E+000	4.55663E-005	5.39641E-002	5.00431E-001	3.57210E+000	9	...........
	17	0.24	5.09254E-001	9.09064E-005	0.00000E+000	4.62945E-005	5.39641E-002	5.09318E-001	3.57210E+000	9	...........
	18	0.253333	5.17871E-001	9.11043E-005	0.00000E+000	4.71803E-005	5.39641E-002	5.17937E-001	3.57210E+000	9	...........
	19	0.266667	5.26236E-001	9.12252E-005	0.00000E+000	4.80060E-005	5.39641E-002	5.26295E-001	3.57210E+000	9	...........
	20	0.28	5.34324E-001	9.08959E-005	0.00000E+000	4.85679E-005	5.39641E-002	5.34377E-001	3.57210E+000	9	...........
	21	0.293333	5.42219E-001	9.09866E-005	0.00000E+000	4.93347E-005	5.39641E-002	5.42287E-001	3.57210E+000	9	...........
	22	0.306667	5.49885E-001	9.09032E-005	0.00000E+000	4.99863E-005	5.39641E-002	5.49970E-001	3.57210E+000	9	...........
	23	0.32	5.57367E-001	9.11137E-005	0.00000E+000	5.07838E-005	5.39641E-002	5.57464E-001	3.57210E+000	9	...........
	24	0.333333	5.64691E-001	9.10460E-005	0.00000E+000	5.14129E-005	5.39641E-002	5.64798E-001	3.57210E+000	9	...........
	25	0.346667	5.71844E-001	9.10616E-005	0.00000E+000	5.20730E-005	5.39641E-002	5.71922E-001	3.57210E+000	9	...........
	26	0.36	5.78782E-001	9.10241E-005	0.00000E+000	5.26831E-005	5.39641E-002	5.78886E-001	3.57210E+000	9	...........
	27	0.373333	5.85567E-001	9.09460E-005	0.00000E+000	5.32549E-005	5.39641E-002	5.85680E-001	3.57210E+000	9	...........
	28	0.386667	5.92224E-001	9.11377E-005	0.00000E+000	5.39739E-005	5.39641E-002	5.92330E-001	3.57210E+000	9	...........
	29	0.4	5.98713E-001	9.11710E-005	0.00000E+000	5.45852E-005	5.39641E-002	5.98820E-001	3.57210E+000	9	...........
	30	0.413333	6.05019E-001	9.11773E-005	0.00000E+000	5.51640E-005	5.39641E-002	6.05147E-001	3.57210E+000	9	...........
	31	0.426667	6.11197E-001	9.10824E-005	0.00000E+000	5.56693E-005	5.39641E-002	6.11327E-001	3.57210E+000	9	...........
	32	0.44	6.17330E-001	9.11252E-005	0.00000E+000	5.62543E-005	5.39641E-002	6.17416E-001	3.57210E+000	9	...........
	33	0.453333	6.23232E-001	9.08866E-005	0.00000E+000	5.66434E-005	5.39641E-002	6.23309E-001	3.57210E+000	9	...........
	34	0.466667	6.29019E-001	9.12398E-005	0.00000E+000	5.73915E-005	5.39641E-002	6.29128E-001	3.57210E+000	9	...........
	35	0.48	6.34707E-001	9.12471E-005	0.00000E+000	5.79152E-005	5.39641E-002	6.34789E-001	3.57210E+000	9	...........
	36	0.493333	6.40284E-001	9.11283E-005	0.00000E+000	5.83480E-005	5.39641E-002	6.40412E-001	3.57210E+000	9	...........
	37	0.506667	6.45769E-001	9.08324E-005	0.00000E+000	5.86567E-005	5.39641E-002	6.45876E-001	3.57210E+000	9	...........
	38	0.52	6.51121E-001	9.10699E-005	0.00000E+000	5.92975E-005	5.39641E-002	6.51267E-001	3.57210E+000	9	...........
	39	0.533333	6.56404E-001	9.10814E-005	0.00000E+000	5.97862E-005	5.39641E-002	6.56520E-001	3.57210E+000	9	...........
	40	0.546667	6.61556E-001	9.11418E-005	0.00000E+000	6.02954E-005	5.39641E-002	6.61687E-001	3.57210E+000	9	...........
	41	0.56	6.66667E-001	9.09491E-005	0.00000E+000	6.06327E-005	5.39641E-002	6.66809E-001	3.57210E+000	9	...........
	42	0.573333	6.71641E-001	9.10220E-005	0.00000E+000	6.11341E-005	5.39641E-002	6.71739E-001	3.57210E+000	9	...........
	43	0.586667	6.76509E-001	9.10178E-005	0.00000E+000	6.15744E-005	5.39641E-002	6.76610E-001	3.57210E+000	9	...........
	44	0.6	6.81286E-001	9.08866E-005	0.00000E+000	6.19197E-005	5.39641E-002	6.81413E-001	3.57210E+000	9	...........
	45	0.613333	6.86004E-001	9.12596E-005	0.00000E+000	6.26044E-005	5.39641E-002	6.86097E-001	3.57210E+000	9	...........
	46	0.626667	6.90628E-001	9.11262E-005	0.00000E+000	6.29343E-005	5.39641E-002	6.90735E-001	3.57210E+000	9	...........
	47	0.64	6.95186E-001	9.11439E-005	0.00000E+000	6.33620E-005	5.39641E-002	6.95299E-001	3.57210E+000	9	...........
	48	0.653333	6.99665E-001	9.12950E-005	0.00000E+000	6.38759E-005	5.39641E-002	6.99775E-001	3.57210E+000	9	...........
	49	0.666667	7.04079E-001	9.12252E-005	0.00000E+000	6.42298E-005	5.39641E-002	7.04192E-001	3.57210E+000	9	...........
	50	0.68	7.08416E-001	9.07730E-005	0.00000E+000	6.43050E-005	5.39641E-002	7.08535E-001	3.57210E+000	9	...........
	51	0.693333	7.12692E-001	9.11658E-005	0.00000E+000	6.49732E-005	5.39641E-002	7.12786E-001	3.57210E+000	9	...........
	52	0.706667	7.16913E-001	9.12335E-005	0.00000E+000	6.54065E-005	5.39641E-002	7.17021E-001	3.57210E+000	9	...........
	53	0.72	7.21089E-001	9.11043E-005	0.00000E+000	6.56943E-005	5.39641E-002	7.21185E-001	3.57210E+000	9	...........
	54	0.733333	7.25169E-001	9.11481E-005	0.00000E+000	6.60978E-005	5.39641E-002	7.25259E-001	3.57210E+000	9	...........
	55	0.746667	7.29213E-001	9.12241E-005	0.00000E+000	6.65219E-005	5.39641E-002	7.29306E-001	3.57210E+000	9	...........
	56	0.76	7.33162E-001	9.11908E-005	0.00000E+000	6.68577E-005	5.39641E-002	7.33273E-001	3.57210E+000	9	...........
	57	0.773333	7.37061E-001	9.08397E-005	0.00000E+000	6.69544E-005	5.39641E-002	7.37143E-001	3.57210E+000	9	...........
	58	0.786667	7.40935E-001	9.11470E-005	0.00000E+000	6.75341E-005	5.39641E-002	7.41059E-001	3.57210E+000	9	...........
	59	0.8	7.44757E-001	9.10397E-005	0.00000E+000	6.78024E-005	5.39641E-002	7.44856E-001	3.57210E+000	9	...........
	60	0.813333	7.48513E-001	9.11470E-005	0.00000E+000	6.82247E-005	5.39641E-002	7.48600E-001	3.57210E+000	9	...........
	61	0.826667	7.52224E-001	9.13950E-005	0.00000E+000	6.87496E-005	5.39641E-002	7.52332E-001	3.57210E+000	9	...........
	62	0.84	7.55893E-001	9.11491E-005	0.00000E+000	6.88990E-005	5.39641E-002	7.56010E-001	3.57210E+000	9	...........
	63	0.853333	7.59487E-001	9.13148E-005	0.00000E+000	6.93524E-005	5.39641E-002	7.59614E-001	3.57210E+000	9	...........
	64	0.866667	7.63047E-001	9.11804E-005	0.00000E+000	6.95749E-005	5.39641E-002	7.63176E-001	3.57210E+000	9	...........
	65	0.88	7.66559E-001	9.11158E-005	0.00000E+000	6.98456E-005	5.39641E-002	7.66697E-001	3.57210E+000	9	...........
	66	0.893333	7.70032E-001	9.10699E-005	0.00000E+000	7.01268E-005	5.39641E-002	7.70184E-001	3.57210E+000	9	...........
	67	0.906667	7.73444E-001	9.11314E-005	0.00000E+000	7.04850E-005	5.39641E-002	7.73560E-001	3.57210E+000	9	...........
	68	0.92	7.76815E-001	9.10314E-005	0.00000E+000	7.07145E-005	5.39641E-002	7.76922E-001	3.57210E+000	9	...........
	69	0.933333	7.80151E-001	9.09887E-005	0.00000E+000	7.09849E-005	5.39641E-002	7.80271E-001	3.57210E+000	9	...........
	70	0.946667	7.83439E-001	9.11033E-005	0.00000E+000	7.13738E-005	5.39641E-002	7.83575E-001	3.57315E+000	9	...........
	71	0.96	7.86705E-001	9.11408E-005	0.00000E+000	7.17009E-005	5.39641E-002	7.86817E-001	3.57330E+000	9	...........
	72	0.97333	7.89907E-001	9.09783E-005	0.00000E+000	7.18644E-005	5.39641E-002	7.90030E-001	3.57330E+000	9	...........
	73	0.98667	7.93130E-001	9.10814E-005	0.00000E+000	7.22394E-005	5.39641E-002	7.93239E-001	3.57330E+000	9	...........
	74	1	7.96263E-001	9.11241E-005	0.00000E+000	7.25588E-005	5.39641E-002	7.96376E-001	3.57330E+000	9	...........
	75	1.01333	7.99357E-001	9.09668E-005	0.00000E+000	7.27149E-005	5.39641E-002	7.99443E-001	3.57330E+000	9	...........
	76	1.02667	8.02398E-001	9.09595E-005	0.00000E+000	7.29857E-005	5.39641E-002	8.02502E-001	3.57330E+000	9	...........
	77	1.04	8.05419E-001	9.10512E-005	0.00000E+000	7.33344E-005	5.39641E-002	8.05551E-001	3.57330E+000	9	...........
	78	1.05333	8.08376E-001	9.10085E-005	0.00000E+000	7.35691E-005	5.39641E-002	8.08535E-001	3.57330E+000	9	...........
	79	1.06667	8.11351E-001	9.10720E-005	0.00000E+000	7.38914E-005	5.39641E-002	8.11478E-001	3.57330E+000	9	...........
	80	1.08	8.14280E-001	9.13033E-005	0.00000E+000	7.43465E-005	5.39641E-002	8.14437E-001	3.57330E+000	9	...........
	81	1.09333	8.17186E-001	9.11283E-005	0.00000E+000	7.44687E-005	5.39641E-002	8.17336E-001	3.57330E+000	9	...........
	82	1.10667	8.20068E-001	9.10908E-005	0.00000E+000	7.47007E-005	5.39641E-002	8.20235E-001	3.57330E+000	9	...........
	83	1.12	8.22918E-001	9.10835E-005	0.00000E+000	7.49542E-005	5.39641E-002	8.23056E-001	3.57330E+000	9	...........
	84	1.13333	8.25712E-001	9.11397E-005	0.00000E+000	7.52551E-005	5.39641E-002	8.25872E-001	3.57330E+000	9	...........
	85	1.14667	8.28486E-001	9.09460E-005	0.00000E+000	7.53475E-005	5.39641E-002	8.28626E-001	3.57330E+000	9	...........
	86	1.16	8.31219E-001	9.14356E-005	0.00000E+000	7.60030E-005	5.39641E-002	8.31371E-001	3.57330E+000	9	...........
	87	1.17333	8.33963E-001	9.09647E-005	0.00000E+000	7.58612E-005	5.39641E-002	8.34081E-001	3.57330E+000	9	...........
	88	1.18667	8.36651E-001	9.11470E-005	0.00000E+000	7.62582E-005	5.39641E-002	8.36773E-001	3.57330E+000	9	...........
	89	1.2	8.39327E-001	9.13679E-005	0.00000E+000	7.66875E-005	5.39641E-002	8.39426E-001	3.57330E+000	9	...........
	90	1.21333	8.41941E-001	9.12075E-005	0.00000E+000	7.67913E-005	5.39641E-002	8.42067E-001	3.57330E+000	9	...........
	91	1.22667	8.44549E-001	9.10366E-005	0.00000E+000	7.68848E-005	5.39641E-002	8.44683E-001	3.57330E+000	9	...........
	92	1.24	8.47145E-001	9.10595E-005	0.00000E+000	7.71406E-005	5.39641E-002	8.47287E-001	3.57330E+000	9	...........
	93	1.25333	8.49693E-001	9.11054E-005	0.00000E+000	7.74116E-005	5.39641E-002	8.49856E-001	3.57330E+000	9	...........
	94	1.26667	8.52213E-001	9.12471E-005	0.00000E+000	7.77619E-005	5.39641E-002	8.52372E-001	3.57330E+000	9	...........
	95	1.28	8.54729E-001	9.11533E-005	0.00000E+000	7.79113E-005	5.39641E-002	8.54871E-001	3.57330E+000	9	...........
	96	1.29333	8.57188E-001	9.12554E-005	0.00000E+000	7.82230E-005	5.39641E-002	8.57351E-001	3.57330E+000	9	...........
	97	1.30667	8.59629E-001	9.13169E-005	0.00000E+000	7.84986E-005	5.39641E-002	8.59788E-001	3.57330E+000	9	...........
	98	1.32	8.62055E-001	9.11762E-005	0.00000E+000	7.85989E-005	5.39641E-002	8.62198E-001	3.57330E+000	9	...........
	99	1.33333	8.64418E-001	9.10001E-005	0.00000E+000	7.86622E-005	5.39641E-002	8.64599E-001	3.57330E+000	9	...........
	100	1.34667	8.66836E-001	9.13346E-005	0.00000E+000	7.91721E-005	5.39641E-002	8.67009E-001	3.57330E+000	9	...........
	101	1.36	8.69190E-001	9.10845E-005	0.00000E+000	7.91698E-005	5.39641E-002	8.69354E-001	3.57330E+000	9	...........
	102	1.37333	8.71525E-001	9.10251E-005	0.00000E+000	7.93307E-005	5.39641E-002	8.71699E-001	3.57330E+000	9	...........
	103	1.38667	8.73837E-001	9.10970E-005	0.00000E+000	7.96039E-005	5.39641E-002	8.74002E-001	3.57330E+000	9	...........
	104	1.4	8.76126E-001	9.11012E-005	0.00000E+000	7.98162E-005	5.39641E-002	8.76266E-001	3.57330E+000	9	...........
	105	1.41333	8.78359E-001	9.11387E-005	0.00000E+000	8.00525E-005	5.39641E-002	8.78523E-001	3.57330E+000	9	...........
	106	1.42667	8.80593E-001	9.11648E-005	0.00000E+000	8.02791E-005	5.39641E-002	8.80773E-001	3.57330E+000	9	...........
	107	1.44	8.82816E-001	9.14690E-005	0.00000E+000	8.07503E-005	5.39641E-002	8.83013E-001	3.57330E+000	9	...........
	108	1.45333	8.85052E-001	9.10293E-005	0.00000E+000	8.05657E-005	5.39641E-002	8.85203E-001	3.57330E+000	9	...........
	109	1.46667	8.87201E-001	9.11512E-005	0.00000E+000	8.08694E-005	5.39641E-002	8.87380E-001	3.57330E+000	9	...........
	110	1.48	8.89369E-001	9.11064E-005	0.00000E+000	8.10272E-005	5.39641E-002	8.89523E-001	3.57330E+000	9	...........
	111	1.49333	8.91482E-001	9.12877E-005	0.00000E+000	8.13814E-005	5.39641E-002	8.91668E-001	3.57330E+000	9	...........
	112	1.50667	8.93600E-001	9.11377E-005	0.00000E+000	8.14407E-005	5.39641E-002	8.93760E-001	3.57330E+000	9	...........
	113	1.52	8.95706E-001	9.10251E-005	0.00000E+000	8.15318E-005	5.39641E-002	8.95884E-001	3.57330E+000	9	...........
	114	1.53333	8.97771E-001	9.10189E-005	0.00000E+000	8.17141E-005	5.39641E-002	8.97932E-001	3.57330E+000	9	...........
	115	1.54667	8.99806E-001	9.10762E-005	0.00000E+000	8.19509E-005	5.39641E-002	8.99952E-001	3.57330E+000	9	...........
	116	1.56	9.01811E-001	9.11116E-005	0.00000E+000	8.21655E-005	5.39641E-002	9.01998E-001	3.57330E+000	9	...........
	117	1.57333	9.03819E-001	9.07157E-005	0.00000E+000	8.19906E-005	5.39641E-002	9.04010E-001	3.57330E+000	9	...........
	118	1.58667	9.05804E-001	9.11043E-005	0.00000E+000	8.25226E-005	5.39641E-002	9.05985E-001	3.57330E+000	9	...........
	119	1.6	9.07781E-001	9.11960E-005	0.00000E+000	8.27860E-005	5.39641E-002	9.07962E-001	3.57330E+000	9	...........
	120	1.61333	9.09731E-001	9.12408E-005	0.00000E+000	8.30046E-005	5.39641E-002	9.09907E-001	3.57330E+000	9	...........
	121	1.62667	9.11681E-001	9.12262E-005	0.00000E+000	8.31692E-005	5.39641E-002	9.11834E-001	3.57330E+000	9	...........
	122	1.64	9.13600E-001	9.12419E-005	0.00000E+000	8.33586E-005	5.39641E-002	9.13778E-001	3.57330E+000	9	...........
	123	1.65333	9.15496E-001	9.10137E-005	0.00000E+000	8.33227E-005	5.39641E-002	9.15669E-001	3.57330E+000	9	...........
	124	1.66667	9.17364E-001	9.11804E-005	0.00000E+000	8.36456E-005	5.39641E-002	9.17540E-001	3.57330E+000	9	...........
	125	1.68	9.19196E-001	9.09616E-005	0.00000E+000	8.36115E-005	5.39641E-002	9.19385E-001	3.57330E+000	9	...........
	126	1.69333	9.21114E-001	9.11377E-005	0.00000E+000	8.39482E-005	5.39641E-002	9.21230E-001	3.57330E+000	9	...........
	127	1.70667	9.22965E-001	9.11356E-005	0.00000E+000	8.41150E-005	5.39641E-002	9.23057E-001	3.57330E+000	9	...........
	128	1.72	9.24771E-001	9.10345E-005	0.00000E+000	8.41861E-005	5.39641E-002	9.24870E-001	3.57330E+000	9	...........
	129	1.73333	9.26518E-001	9.11220E-005	0.00000E+000	8.44262E-005	5.39641E-002	9.26677E-001	3.57330E+000	9	...........
	130	1.74667	9.28317E-001	9.11158E-005	0.00000E+000	8.45843E-005	5.39641E-002	9.28440E-001	3.57330E+000	9	...........
	131	1.76	9.30080E-001	9.10428E-005	0.00000E+000	8.46772E-005	5.39641E-002	9.30198E-001	3.57330E+000	9	...........
	132	1.77333	9.31815E-001	9.11648E-005	0.00000E+000	8.49486E-005	5.39641E-002	9.31938E-001	3.57330E+000	9	...........
	133	1.78667	9.33535E-001	9.13575E-005	0.00000E+000	8.52854E-005	5.39641E-002	9.33655E-001	3.57330E+000	9	...........
	134	1.8	9.35250E-001	9.12293E-005	0.00000E+000	8.53222E-005	5.39641E-002	9.35370E-001	3.57330E+000	9	...........
	135	1.81333	9.36908E-001	9.10137E-005	0.00000E+000	8.52714E-005	5.39641E-002	9.37049E-001	3.57330E+000	9	...........
	136	1.82667	9.38576E-001	9.11231E-005	0.00000E+000	8.55259E-005	5.39641E-002	9.38731E-001	3.57330E+000	9	...........
	137	1.84	9.40199E-001	9.12512E-005	0.00000E+000	8.57943E-005	5.39641E-002	9.40379E-001	3.57330E+000	9	...........
	138	1.85333	9.41856E-001	9.09918E-005	0.00000E+000	8.57012E-005	5.39641E-002	9.41991E-001	3.57330E+000	9	...........
	139	1.86667	9.43463E-001	9.08439E-005	0.00000E+000	8.57078E-005	5.39641E-002	9.43640E-001	3.57330E+000	9	...........
	140	1.88	9.45063E-001	9.12231E-005	0.00000E+000	8.62116E-005	5.39641E-002	9.45246E-001	3.57330E+000	9	...........
	141	1.89333	9.46708E-001	9.11054E-005	0.00000E+000	8.62501E-005	5.39641E-002	9.46889E-001	3.57330E+000	9	...........
	142	1.90667	9.48311E-001	9.11835E-005	0.00000E+000	8.64703E-005	5.39641E-002	9.48468E-001	3.57330E+000	9	...........
	143	1.92	9.49850E-001	9.10418E-005	0.00000E+000	8.64761E-005	5.39641E-002	9.50025E-001	3.57330E+000	9	...........
	144	1.93333	9.51383E-001	9.12096E-005	0.00000E+000	8.67752E-005	5.39641E-002	9.51576E-001	3.57330E+000	9	...........
	145	1.94667	9.52941E-001	9.09908E-005	0.00000E+000	8.67088E-005	5.39641E-002	9.53110E-001	3.57199E+000	9	...........
	146	1.96	9.54430E-001	9.10783E-005	0.00000E+000	8.69279E-005	5.39641E-002	9.54600E-001	3.57180E+000	9	...........
	147	1.97333	9.55936E-001	9.11616E-005	0.00000E+000	8.71447E-005	5.39641E-002	9.56083E-001	3.57180E+000	9	...........
	148	1.98667	9.57407E-001	9.12450E-005	0.00000E+000	8.73585E-005	5.39641E-002	9.57559E-001	3.57180E+000	9	...........
	149	2	9.58863E-001	9.12679E-005	0.00000E+000	8.75134E-005	5.39641E-002	9.59041E-001	3.57180E+000	9	...........
	150	2.01333	9.60346E-001	9.10012E-005	0.00000E+000	8.73926E-005	5.39641E-002	9.60535E-001	3.57180E+000	9	...........
	151	2.02667	9.61804E-001	9.11502E-005	0.00000E+000	8.76686E-005	5.39641E-002	9.61988E-001	3.57180E+000	9	...........
	152	2.04	9.63272E-001	9.12356E-005	0.00000E+000	8.78847E-005	5.39641E-002	9.63435E-001	3.57180E+000	9	...........
	153	2.05333	9.64687E-001	9.10793E-005	0.00000E+000	8.78630E-005	5.39641E-002	9.64905E-001	3.57180E+000	9	...........
	154	2.06667	9.66114E-001	9.12439E-005	0.00000E+000	8.81520E-005	5.39641E-002	9.66308E-001	3.57180E+000	9	...........
	155	2.08	9.67507E-001	9.12325E-005	0.00000E+000	8.82680E-005	5.39641E-002	9.67701E-001	3.57180E+000	9	...........
	156	2.09333	9.68891E-001	9.10710E-005	0.00000E+000	8.82378E-005	5.39641E-002	9.69065E-001	3.57180E+000	9	...........
	157	2.10667	9.70245E-001	9.10772E-005	0.00000E+000	8.83672E-005	5.39641E-002	9.70450E-001	3.57180E+000	9	...........
	158	2.12	9.71581E-001	9.11658E-005	0.00000E+000	8.85749E-005	5.39641E-002	9.71794E-001	3.57180E+000	9	...........
	159	2.13333	9.72991E-001	9.10970E-005	0.00000E+000	8.86366E-005	5.39641E-002	9.73148E-001	3.57180E+000	9	...........
	160	2.14667	9.74309E-001	9.11575E-005	0.00000E+000	8.88155E-005	5.39641E-002	9.74475E-001	3.57180E+000	9	...........
	161	2.16	9.75608E-001	9.08334E-005	0.00000E+000	8.86179E-005	5.39641E-002	9.75783E-001	3.57180E+000	9	...........
	162	2.17333	9.76886E-001	9.13210E-005	0.00000E+000	8.92103E-005	5.39641E-002	9.77070E-001	3.57180E+000	9	...........
	163	2.18667	9.78167E-001	9.09991E-005	0.00000E+000	8.90123E-005	5.39641E-002	9.78354E-001	3.57180E+000	9	...........
	164	2.2	9.79458E-001	9.09845E-005	0.00000E+000	8.91156E-005	5.39641E-002	9.79626E-001	3.57180E+000	9	...........
	165	2.21333	9.80730E-001	9.11637E-005	0.00000E+000	8.94070E-005	5.39641E-002	9.80923E-001	3.57180E+000	9	...........
	166	2.22667	9.81993E-001	9.08834E-005	0.00000E+000	8.92469E-005	5.39641E-002	9.82164E-001	3.57180E+000	9	...........
	167	2.24	9.83210E-001	9.08855E-005	0.00000E+000	8.93595E-005	5.39641E-002	9.83410E-001	3.57180E+000	9	...........
	168	2.25333	9.84455E-001	9.08907E-005	0.00000E+000	8.94779E-005	5.39641E-002	9.84645E-001	3.57180E+000	9	...........
	169	2.26667	9.85713E-001	9.11981E-005	0.00000E+000	8.98952E-005	5.39641E-002	9.85910E-001	3.57180E+000	9	...........
	170	2.28	9.86939E-001	9.10283E-005	0.00000E+000	8.98393E-005	5.39641E-002	9.87137E-001	3.57180E+000	9	...........
	171	2.29333	9.88149E-001	9.11773E-005	0.00000E+000	9.00967E-005	5.39641E-002	9.88366E-001	3.57180E+000	9	...........
	172	2.30667	9.89361E-001	9.11241E-005	0.00000E+000	9.01546E-005	5.39641E-002	9.89545E-001	3.57180E+000	9	...........
	173	2.32	9.90559E-001	9.12127E-005	0.00000E+000	9.03515E-005	5.39641E-002	9.90756E-001	3.57180E+000	9	...........
	174	2.33333	9.91710E-001	9.10845E-005	0.00000E+000	9.03295E-005	5.39641E-002	9.91907E-001	3.57180E+000	9	...........
	175	2.34667	9.92870E-001	9.11543E-005	0.00000E+000	9.05044E-005	5.39641E-002	9.93072E-001	3.57180E+000	9	...........
	176	2.36	9.94020E-001	9.12335E-005	0.00000E+000	9.06879E-005	5.39641E-002	9.94251E-001	3.57180E+000	9	...........
	177	2.37333	9.95214E-001	9.09209E-005	0.00000E+000	9.04858E-005	5.39641E-002	9.95392E-001	3.57180E+000	9	...........
	178	2.38667	9.96366E-001	9.12127E-005	0.00000E+000	9.08812E-005	5.39641E-002	9.96557E-001	3.57180E+000	9	...........
	179	2.4	9.97478E-001	9.11200E-005	0.00000E+000	9.08901E-005	5.39641E-002	9.97709E-001	3.57180E+000	9	...........
	180	2.41333	9.98629E-001	9.11710E-005	0.00000E+000	9.10460E-005	5.39641E-002	9.98822E-001	3.57180E+000	9	...........
	181	2.425	9.99666E-001	9.11091E-005	0.00000E+000	9.10787E-005	5.39641E-002	9.99880E-001	3.57180E+000	9	...........
STARTTIMEOFFSET	QUANT	803.2798	Start Time Offset (s)
