EXPLAIN
TAG	PWR800_CHARGE
TITLE	LABEL	PWR Cyclic Charge Discharge (Cell) - Charge Step	Test &Identifier
DATE	LABEL	10-7-2017	Date
TIME	LABEL	16:16:31	Time
NOTES	NOTES	3	&Notes...
	supercap test cell
	0.9mg
	6M KOH
PSTAT	PSTAT	IFC5000-01520	Potentiostat
CAPACITY	QUANT	1.00000E-003	Capacity (A-hr)
CELLTYPE	SELECTOR	1	&Cell Type
WORKINGCONNECTION	SELECTOR	0	&Working Lead
MAXCHARGETIME	VARIABLEANDUNITS	1.00000E+002	s	1.00000E+002	second(s)	Max &Charge Time
CHARGECURRENT	QUANT	9.00000E-005	&Charge Current (A) 
VOLTAGEFINISH	TWOPARAM	F	1.00000E-003	3.60000E+003	&Voltage Finish	 I (A) < 	Max Time(s)
SAMPLETIME	QUANT	1.00000E-002	Sa&mple Period (s)
CHARGESTOPAT1	MULTIPARAM	4	1.00000E+000	Charge Stop At &1	Voltage > Limit	V
CHARGESTOPAT2	MULTIPARAM	0	0.00000E+000	Charge Stop At &2	None	N/A
AESBHCSELECTOR	TOGGLE	F	Save Both Half Cells
IRCOMP	TOGGLE	F	IR &Measure
EOC	QUANT	0	Open Circuit (V)
SEQUENCER	TOGGLE	TRUE	Run as Sequence
PSTATMODEL	IQUANT	53	Pstat Model
PSTATSECTION	LABEL	IFC5000-01520	Pstat Section
PSTATSERIALNO	LABEL	01520	Pstat Serial Number
CTRLMODE	IQUANT	0	Control Mode
ELECTROMETER	IQUANT	1	RE=0 or CS=1
IESTAB	IQUANT	0	I/E Stability
CASPEED	IQUANT	4	Control Amp Speed
CONVENTION	IQUANT	1	Current Convention
ICHRANGE	IQUANT	2	Ich Range
ICHRANGEMODE	TOGGLE	T	Ich Auto Range
ICHOFFSETENABLE	TOGGLE	F	Ich Offset Enable
ICHOFFSET	QUANT	0	Ich Offset (V)
ICHFILTER	IQUANT	1	Ich Filter
VCHRANGE	IQUANT	2	Vch Range
VCHRANGEMODE	TOGGLE	T	Vch Auto Range
VCHOFFSETENABLE	TOGGLE	F	Vch Offset Enable
VCHOFFSET	QUANT	0	Vch Offset (V)
VCHFILTER	IQUANT	1	Vch Filter
IERANGELOWERLIMIT	IQUANT	9	I/E Range Lower Limit
IERANGEMODE	TOGGLE	F	I/E AutoRange
IERANGE	IQUANT	9	I/E Range
ACHSELECT	IQUANT	1	Ach Select
ACHRANGE	IQUANT	2	Ach Range
ACHOFFSETENABLE	TOGGLE	F	Ach Offset Enable
ACHOFFSET	QUANT	0	Ach Offset (V)
ACHFILTER	IQUANT	1	Ach Filter
CABLEID	IQUANT	14	Cable ID
DCCALDATE	LABEL	5-7-2017	DC Calibration Date
ACCALDATE	LABEL	12/3/2015	AC Calibration Date
FRAMEWORKVERSION	QUANT	7.01	Framework Version
INSTRUMENTVERSION	LABEL	4.00	Instrument Version
CURVE	TABLE	162
	Pt	T	Vf	Im	Vu	Pwr	Sig	Ach	Temp	IERange	Over
	#	s	V	A	V	W	V	V	deg C	#	bits
	0	0.013333	2.67423E-001	9.08324E-005	0.00000E+000	2.42907E-005	5.39641E-002	2.67479E-001	3.57350E+000	9	...........
	1	0.026667	2.87061E-001	9.11564E-005	0.00000E+000	2.61675E-005	5.39641E-002	2.87100E-001	3.57350E+000	9	...........
	2	0.04	3.05507E-001	9.09199E-005	0.00000E+000	2.77767E-005	5.39641E-002	3.05555E-001	3.57350E+000	9	...........
	3	0.053333	3.22929E-001	9.08407E-005	0.00000E+000	2.93351E-005	5.39641E-002	3.22973E-001	3.57350E+000	9	...........
	4	0.066667	3.39428E-001	9.09116E-005	0.00000E+000	3.08579E-005	5.39641E-002	3.39471E-001	3.57350E+000	9	...........
	5	0.08	3.55097E-001	9.10293E-005	0.00000E+000	3.23243E-005	5.39641E-002	3.55144E-001	3.57350E+000	9	...........
	6	0.093333	3.70007E-001	9.12064E-005	0.00000E+000	3.37470E-005	5.39641E-002	3.70054E-001	3.57350E+000	9	...........
	7	0.106667	3.84215E-001	9.07355E-005	0.00000E+000	3.48619E-005	5.39641E-002	3.84264E-001	3.57350E+000	9	...........
	8	0.12	3.97774E-001	9.10064E-005	0.00000E+000	3.62000E-005	5.39641E-002	3.97821E-001	3.57350E+000	9	...........
	9	0.133333	4.10725E-001	9.09032E-005	0.00000E+000	3.73363E-005	5.39641E-002	4.10787E-001	3.57350E+000	9	...........
	10	0.146667	4.23140E-001	9.11564E-005	0.00000E+000	3.85720E-005	5.39641E-002	4.23201E-001	3.57350E+000	9	...........
	11	0.16	4.35051E-001	9.09991E-005	0.00000E+000	3.95892E-005	5.39641E-002	4.35112E-001	3.57350E+000	9	...........
	12	0.173333	4.46481E-001	9.10501E-005	0.00000E+000	4.06521E-005	5.39641E-002	4.46545E-001	3.57350E+000	9	...........
	13	0.186667	4.57490E-001	9.08188E-005	0.00000E+000	4.15487E-005	5.39641E-002	4.57555E-001	3.57350E+000	9	...........
	14	0.2	4.68099E-001	9.09595E-005	0.00000E+000	4.25780E-005	5.39641E-002	4.68165E-001	3.57350E+000	9	...........
	15	0.213333	4.78316E-001	9.07334E-005	0.00000E+000	4.33992E-005	5.39641E-002	4.78385E-001	3.57350E+000	9	...........
	16	0.226667	4.88189E-001	9.10616E-005	0.00000E+000	4.44552E-005	5.39641E-002	4.88258E-001	3.57350E+000	9	...........
	17	0.24	4.97729E-001	9.07063E-005	0.00000E+000	4.51472E-005	5.39641E-002	4.97809E-001	3.57350E+000	9	...........
	18	0.253333	5.06977E-001	9.05750E-005	0.00000E+000	4.59195E-005	5.39641E-002	5.07053E-001	3.57350E+000	9	...........
	19	0.266667	5.15941E-001	9.10418E-005	0.00000E+000	4.69722E-005	5.39641E-002	5.16015E-001	3.57350E+000	9	...........
	20	0.28	5.24621E-001	9.09209E-005	0.00000E+000	4.76990E-005	5.39641E-002	5.24701E-001	3.57350E+000	9	...........
	21	0.293333	5.32995E-001	9.08022E-005	0.00000E+000	4.83971E-005	5.39641E-002	5.33084E-001	3.57350E+000	9	...........
	22	0.306667	5.41140E-001	9.06386E-005	0.00000E+000	4.90482E-005	5.39641E-002	5.41280E-001	3.57350E+000	9	...........
	23	0.32	5.49096E-001	9.09814E-005	0.00000E+000	4.99575E-005	5.39641E-002	5.49227E-001	3.57350E+000	9	...........
	24	0.333333	5.56860E-001	9.09939E-005	0.00000E+000	5.06708E-005	5.39641E-002	5.56996E-001	3.57350E+000	9	...........
	25	0.346667	5.64435E-001	9.10710E-005	0.00000E+000	5.14036E-005	5.39641E-002	5.64580E-001	3.57350E+000	9	...........
	26	0.36	5.71798E-001	9.11595E-005	0.00000E+000	5.21248E-005	5.39641E-002	5.71931E-001	3.57350E+000	9	...........
	27	0.373333	5.78963E-001	9.10491E-005	0.00000E+000	5.27141E-005	5.39641E-002	5.79125E-001	3.57350E+000	9	...........
	28	0.386667	5.85962E-001	9.10283E-005	0.00000E+000	5.33391E-005	5.39641E-002	5.86128E-001	3.57350E+000	9	...........
	29	0.4	5.92828E-001	9.10074E-005	0.00000E+000	5.39518E-005	5.39641E-002	5.92980E-001	3.57350E+000	9	...........
	30	0.413333	5.99482E-001	9.11637E-005	0.00000E+000	5.46510E-005	5.39641E-002	5.99651E-001	3.57350E+000	9	...........
	31	0.426667	6.05995E-001	9.10387E-005	0.00000E+000	5.51690E-005	5.39641E-002	6.06161E-001	3.57350E+000	9	...........
	32	0.44	6.12385E-001	9.09616E-005	0.00000E+000	5.57035E-005	5.39641E-002	6.12550E-001	3.57350E+000	9	...........
	33	0.453333	6.18699E-001	9.12221E-005	0.00000E+000	5.64390E-005	5.39641E-002	6.18814E-001	3.57350E+000	9	...........
	34	0.466667	6.24805E-001	9.09897E-005	0.00000E+000	5.68508E-005	5.39641E-002	6.24943E-001	3.57350E+000	9	...........
	35	0.48	6.30816E-001	9.08616E-005	0.00000E+000	5.73169E-005	5.39641E-002	6.30953E-001	3.57350E+000	9	...........
	36	0.493333	6.36698E-001	9.10626E-005	0.00000E+000	5.79794E-005	5.39641E-002	6.36832E-001	3.57350E+000	9	...........
	37	0.506667	6.42505E-001	9.10574E-005	0.00000E+000	5.85049E-005	5.39641E-002	6.42613E-001	3.57350E+000	9	...........
	38	0.52	6.48147E-001	9.11773E-005	0.00000E+000	5.90963E-005	5.39641E-002	6.48283E-001	3.57350E+000	9	...........
	39	0.533333	6.53722E-001	9.10283E-005	0.00000E+000	5.95072E-005	5.39641E-002	6.53862E-001	3.57350E+000	9	...........
	40	0.546667	6.59198E-001	9.11168E-005	0.00000E+000	6.00640E-005	5.39641E-002	6.59307E-001	3.57350E+000	9	...........
	41	0.56	6.64562E-001	9.08043E-005	0.00000E+000	6.03451E-005	5.39641E-002	6.64690E-001	3.57350E+000	9	...........
	42	0.573333	6.69868E-001	9.11397E-005	0.00000E+000	6.10516E-005	5.39641E-002	6.69968E-001	3.57350E+000	9	...........
	43	0.586667	6.75051E-001	9.10887E-005	0.00000E+000	6.14895E-005	5.39641E-002	6.75152E-001	3.57350E+000	9	...........
	44	0.6	6.80134E-001	9.09345E-005	0.00000E+000	6.18476E-005	5.39641E-002	6.80245E-001	3.57350E+000	9	...........
	45	0.613333	6.85098E-001	9.08803E-005	0.00000E+000	6.22620E-005	5.39641E-002	6.85214E-001	3.57385E+000	9	...........
	46	0.626667	6.90021E-001	9.11231E-005	0.00000E+000	6.28769E-005	5.39641E-002	6.90147E-001	3.57630E+000	9	...........
	47	0.64	6.94897E-001	9.10845E-005	0.00000E+000	6.32944E-005	5.39641E-002	6.95010E-001	3.57630E+000	9	...........
	48	0.653333	6.99669E-001	9.09793E-005	0.00000E+000	6.36554E-005	5.39641E-002	6.99809E-001	3.57630E+000	9	...........
	49	0.666667	7.04389E-001	9.09897E-005	0.00000E+000	6.40922E-005	5.39641E-002	7.04536E-001	3.57630E+000	9	...........
	50	0.68	7.09035E-001	9.08741E-005	0.00000E+000	6.44329E-005	5.39641E-002	7.09168E-001	3.57630E+000	9	...........
	51	0.693333	7.13600E-001	9.09876E-005	0.00000E+000	6.49288E-005	5.39641E-002	7.13745E-001	3.57630E+000	9	...........
	52	0.706667	7.18167E-001	9.09928E-005	0.00000E+000	6.53480E-005	5.39641E-002	7.18295E-001	3.57630E+000	9	...........
	53	0.72	7.22602E-001	9.11668E-005	0.00000E+000	6.58774E-005	5.39641E-002	7.22736E-001	3.57630E+000	9	...........
	54	0.733333	7.26986E-001	9.10991E-005	0.00000E+000	6.62278E-005	5.39641E-002	7.27124E-001	3.57630E+000	9	...........
	55	0.746667	7.31289E-001	9.07938E-005	0.00000E+000	6.63966E-005	5.39641E-002	7.31468E-001	3.57630E+000	9	...........
	56	0.76	7.35556E-001	9.09126E-005	0.00000E+000	6.68713E-005	5.39641E-002	7.35713E-001	3.57630E+000	9	...........
	57	0.773333	7.39770E-001	9.07824E-005	0.00000E+000	6.71581E-005	5.39641E-002	7.39938E-001	3.57630E+000	9	...........
	58	0.786667	7.43953E-001	9.10533E-005	0.00000E+000	6.77393E-005	5.39641E-002	7.44114E-001	3.57630E+000	9	...........
	59	0.8	7.48080E-001	9.07855E-005	0.00000E+000	6.79149E-005	5.39641E-002	7.48203E-001	3.57630E+000	9	...........
	60	0.813333	7.52126E-001	9.08480E-005	0.00000E+000	6.83291E-005	5.39641E-002	7.52281E-001	3.57630E+000	9	...........
	61	0.826667	7.56160E-001	9.11835E-005	0.00000E+000	6.89493E-005	5.39641E-002	7.56279E-001	3.57630E+000	9	...........
	62	0.84	7.60114E-001	9.09230E-005	0.00000E+000	6.91118E-005	5.39641E-002	7.60234E-001	3.57630E+000	9	...........
	63	0.853333	7.64019E-001	9.10835E-005	0.00000E+000	6.95895E-005	5.39641E-002	7.64156E-001	3.57630E+000	9	...........
	64	0.866667	7.67895E-001	9.11887E-005	0.00000E+000	7.00234E-005	5.39641E-002	7.68059E-001	3.57630E+000	9	...........
	65	0.88	7.71724E-001	9.11408E-005	0.00000E+000	7.03355E-005	5.39641E-002	7.71869E-001	3.57630E+000	9	...........
	66	0.893333	7.75487E-001	9.10877E-005	0.00000E+000	7.06373E-005	5.39641E-002	7.75635E-001	3.57630E+000	9	...........
	67	0.906667	7.79228E-001	9.09897E-005	0.00000E+000	7.09018E-005	5.39641E-002	7.79387E-001	3.57630E+000	9	...........
	68	0.92	7.82951E-001	9.08678E-005	0.00000E+000	7.11450E-005	5.39641E-002	7.83084E-001	3.57630E+000	9	...........
	69	0.933333	7.86582E-001	9.12575E-005	0.00000E+000	7.17815E-005	5.39641E-002	7.86724E-001	3.57630E+000	9	...........
	70	0.946667	7.90193E-001	9.09251E-005	0.00000E+000	7.18484E-005	5.39641E-002	7.90357E-001	3.57630E+000	9	...........
	71	0.96	7.93792E-001	9.08116E-005	0.00000E+000	7.20855E-005	5.39641E-002	7.93976E-001	3.57630E+000	9	...........
	72	0.97333	7.97319E-001	9.09960E-005	0.00000E+000	7.25528E-005	5.39641E-002	7.97492E-001	3.57630E+000	9	...........
	73	0.98667	8.00815E-001	9.11502E-005	0.00000E+000	7.29944E-005	5.39641E-002	8.00971E-001	3.57630E+000	9	...........
	74	1	8.04279E-001	9.09751E-005	0.00000E+000	7.31694E-005	5.39641E-002	8.04411E-001	3.57630E+000	9	...........
	75	1.01333	8.07677E-001	9.10074E-005	0.00000E+000	7.35046E-005	5.39641E-002	8.07825E-001	3.57630E+000	9	...........
	76	1.02667	8.11045E-001	9.11564E-005	0.00000E+000	7.39319E-005	5.39641E-002	8.11188E-001	3.57630E+000	9	...........
	77	1.04	8.14397E-001	9.10856E-005	0.00000E+000	7.41799E-005	5.39641E-002	8.14552E-001	3.57630E+000	9	...........
	78	1.05333	8.17731E-001	9.09074E-005	0.00000E+000	7.43378E-005	5.39641E-002	8.17876E-001	3.57630E+000	9	...........
	79	1.06667	8.21009E-001	9.08376E-005	0.00000E+000	7.45785E-005	5.39641E-002	8.21166E-001	3.57630E+000	9	...........
	80	1.08	8.24286E-001	9.12054E-005	0.00000E+000	7.51793E-005	5.39641E-002	8.24427E-001	3.57630E+000	9	...........
	81	1.09333	8.27480E-001	9.11074E-005	0.00000E+000	7.53896E-005	5.39641E-002	8.27626E-001	3.57630E+000	9	...........
	82	1.10667	8.30682E-001	9.09866E-005	0.00000E+000	7.55809E-005	5.39641E-002	8.30820E-001	3.57630E+000	9	...........
	83	1.12	8.33831E-001	9.11564E-005	0.00000E+000	7.60090E-005	5.39641E-002	8.33958E-001	3.57630E+000	9	...........
	84	1.13333	8.36933E-001	9.09897E-005	0.00000E+000	7.61523E-005	5.39641E-002	8.37077E-001	3.57630E+000	9	...........
	85	1.14667	8.39979E-001	9.08376E-005	0.00000E+000	7.63017E-005	5.39641E-002	8.40149E-001	3.57630E+000	9	...........
	86	1.16	8.43034E-001	9.11200E-005	0.00000E+000	7.68172E-005	5.39641E-002	8.43190E-001	3.57630E+000	9	...........
	87	1.17333	8.46069E-001	9.12148E-005	0.00000E+000	7.71740E-005	5.39641E-002	8.46252E-001	3.57630E+000	9	...........
	88	1.18667	8.49079E-001	9.08345E-005	0.00000E+000	7.71256E-005	5.39641E-002	8.49252E-001	3.57630E+000	9	...........
	89	1.2	8.52026E-001	9.09480E-005	0.00000E+000	7.74901E-005	5.39641E-002	8.52197E-001	3.57630E+000	9	...........
	90	1.21333	8.54940E-001	9.11283E-005	0.00000E+000	7.79092E-005	5.39641E-002	8.55118E-001	3.57630E+000	9	...........
	91	1.22667	8.57836E-001	9.09387E-005	0.00000E+000	7.80105E-005	5.39641E-002	8.58028E-001	3.57630E+000	9	...........
	92	1.24	8.60717E-001	9.11127E-005	0.00000E+000	7.84222E-005	5.39641E-002	8.60897E-001	3.57630E+000	9	...........
	93	1.25333	8.63539E-001	9.09783E-005	0.00000E+000	7.85633E-005	5.39641E-002	8.63748E-001	3.57630E+000	9	...........
	94	1.26667	8.66339E-001	9.10637E-005	0.00000E+000	7.88920E-005	5.39641E-002	8.66549E-001	3.57630E+000	9	...........
	95	1.28	8.69143E-001	9.09272E-005	0.00000E+000	7.90287E-005	5.39641E-002	8.69348E-001	3.57630E+000	9	...........
	96	1.29333	8.71920E-001	9.10199E-005	0.00000E+000	7.93621E-005	5.39641E-002	8.72108E-001	3.57630E+000	9	...........
	97	1.30667	8.74643E-001	9.10856E-005	0.00000E+000	7.96674E-005	5.39641E-002	8.74837E-001	3.57630E+000	9	...........
	98	1.32	8.77311E-001	9.08824E-005	0.00000E+000	7.97321E-005	5.39641E-002	8.77503E-001	3.57630E+000	9	...........
	99	1.33333	8.79970E-001	9.08876E-005	0.00000E+000	7.99784E-005	5.39641E-002	8.80159E-001	3.57630E+000	9	...........
	100	1.34667	8.82629E-001	9.07178E-005	0.00000E+000	8.00701E-005	5.39641E-002	8.82820E-001	3.57630E+000	9	...........
	101	1.36	8.85244E-001	9.09647E-005	0.00000E+000	8.05259E-005	5.39641E-002	8.85436E-001	3.57630E+000	9	...........
	102	1.37333	8.87802E-001	9.11137E-005	0.00000E+000	8.08909E-005	5.39641E-002	8.88016E-001	3.57630E+000	9	...........
	103	1.38667	8.90388E-001	9.08709E-005	0.00000E+000	8.09104E-005	5.39641E-002	8.90589E-001	3.57630E+000	9	...........
	104	1.4	8.92918E-001	9.08345E-005	0.00000E+000	8.11077E-005	5.39641E-002	8.93111E-001	3.57630E+000	9	...........
	105	1.41333	8.95455E-001	9.08272E-005	0.00000E+000	8.13316E-005	5.39641E-002	8.95663E-001	3.57630E+000	9	...........
	106	1.42667	8.97965E-001	9.10001E-005	0.00000E+000	8.17149E-005	5.39641E-002	8.98140E-001	3.57630E+000	9	...........
	107	1.44	9.00388E-001	9.07584E-005	0.00000E+000	8.17178E-005	5.39641E-002	9.00590E-001	3.57630E+000	9	...........
	108	1.45333	9.02821E-001	9.11522E-005	0.00000E+000	8.22942E-005	5.39641E-002	9.03033E-001	3.57630E+000	9	...........
	109	1.46667	9.05197E-001	9.09751E-005	0.00000E+000	8.23504E-005	5.39641E-002	9.05435E-001	3.57630E+000	9	...........
	110	1.48	9.07608E-001	9.11637E-005	0.00000E+000	8.27409E-005	5.39641E-002	9.07840E-001	3.57630E+000	9	...........
	111	1.49333	9.09994E-001	9.11366E-005	0.00000E+000	8.29338E-005	5.39641E-002	9.10219E-001	3.57630E+000	9	...........
	112	1.50667	9.12304E-001	9.08793E-005	0.00000E+000	8.29095E-005	5.39641E-002	9.12518E-001	3.57630E+000	9	...........
	113	1.52	9.14621E-001	9.08689E-005	0.00000E+000	8.31105E-005	5.39641E-002	9.14837E-001	3.57630E+000	9	...........
	114	1.53333	9.16885E-001	9.11241E-005	0.00000E+000	8.35504E-005	5.39641E-002	9.17110E-001	3.57630E+000	9	...........
	115	1.54667	9.19141E-001	9.09532E-005	0.00000E+000	8.35989E-005	5.39641E-002	9.19368E-001	3.57630E+000	9	...........
	116	1.56	9.21440E-001	9.08949E-005	0.00000E+000	8.37542E-005	5.39641E-002	9.21602E-001	3.57630E+000	9	...........
	117	1.57333	9.23674E-001	9.09355E-005	0.00000E+000	8.39948E-005	5.39641E-002	9.23820E-001	3.57630E+000	9	...........
	118	1.58667	9.25842E-001	9.08939E-005	0.00000E+000	8.41534E-005	5.39641E-002	9.26005E-001	3.57630E+000	9	...........
	119	1.6	9.28012E-001	9.08928E-005	0.00000E+000	8.43496E-005	5.39641E-002	9.28180E-001	3.57630E+000	9	...........
	120	1.61333	9.30124E-001	9.10720E-005	0.00000E+000	8.47083E-005	5.39641E-002	9.30304E-001	3.57599E+000	9	...........
	121	1.62667	9.32207E-001	9.08376E-005	0.00000E+000	8.46795E-005	5.39641E-002	9.32394E-001	3.57380E+000	9	...........
	122	1.64	9.34269E-001	9.08293E-005	0.00000E+000	8.48590E-005	5.39641E-002	9.34482E-001	3.57380E+000	9	...........
	123	1.65333	9.36326E-001	9.09053E-005	0.00000E+000	8.51170E-005	5.39641E-002	9.36529E-001	3.57380E+000	9	...........
	124	1.66667	9.38367E-001	9.10085E-005	0.00000E+000	8.53993E-005	5.39641E-002	9.38576E-001	3.57380E+000	9	...........
	125	1.68	9.40390E-001	9.09803E-005	0.00000E+000	8.55570E-005	5.39641E-002	9.40584E-001	3.57380E+000	9	...........
	126	1.69333	9.42395E-001	9.08261E-005	0.00000E+000	8.55941E-005	5.39641E-002	9.42579E-001	3.57380E+000	9	...........
	127	1.70667	9.44382E-001	9.07918E-005	0.00000E+000	8.57421E-005	5.39641E-002	9.44580E-001	3.57380E+000	9	...........
	128	1.72	9.46364E-001	9.11543E-005	0.00000E+000	8.62652E-005	5.39641E-002	9.46551E-001	3.57380E+000	9	...........
	129	1.73333	9.48332E-001	9.10064E-005	0.00000E+000	8.63043E-005	5.39641E-002	9.48485E-001	3.57380E+000	9	...........
	130	1.74667	9.50243E-001	9.08574E-005	0.00000E+000	8.63366E-005	5.39641E-002	9.50415E-001	3.57380E+000	9	...........
	131	1.76	9.52126E-001	9.08147E-005	0.00000E+000	8.64670E-005	5.39641E-002	9.52328E-001	3.57380E+000	9	...........
	132	1.77333	9.53995E-001	9.12721E-005	0.00000E+000	8.70731E-005	5.39641E-002	9.54191E-001	3.57380E+000	9	...........
	133	1.78667	9.55826E-001	9.09658E-005	0.00000E+000	8.69474E-005	5.39641E-002	9.56029E-001	3.57380E+000	9	...........
	134	1.8	9.57629E-001	9.09710E-005	0.00000E+000	8.71164E-005	5.39641E-002	9.57841E-001	3.57380E+000	9	...........
	135	1.81333	9.59441E-001	9.09147E-005	0.00000E+000	8.72273E-005	5.39641E-002	9.59676E-001	3.57380E+000	9	...........
	136	1.82667	9.61249E-001	9.08845E-005	0.00000E+000	8.73626E-005	5.39641E-002	9.61470E-001	3.57380E+000	9	...........
	137	1.84	9.62996E-001	9.10866E-005	0.00000E+000	8.77160E-005	5.39641E-002	9.63233E-001	3.57380E+000	9	...........
	138	1.85333	9.64757E-001	9.11564E-005	0.00000E+000	8.79438E-005	5.39641E-002	9.64993E-001	3.57380E+000	9	...........
	139	1.86667	9.66494E-001	9.08397E-005	0.00000E+000	8.77960E-005	5.39641E-002	9.66689E-001	3.57380E+000	9	...........
	140	1.88	9.68196E-001	9.09928E-005	0.00000E+000	8.80989E-005	5.39641E-002	9.68404E-001	3.57380E+000	9	...........
	141	1.89333	9.69892E-001	9.10512E-005	0.00000E+000	8.83099E-005	5.39641E-002	9.70095E-001	3.57380E+000	9	...........
	142	1.90667	9.71573E-001	9.10481E-005	0.00000E+000	8.84598E-005	5.39641E-002	9.71775E-001	3.57380E+000	9	...........
	143	1.92	9.73287E-001	9.09991E-005	0.00000E+000	8.85683E-005	5.39641E-002	9.73458E-001	3.57380E+000	9	...........
	144	1.93333	9.74929E-001	9.10814E-005	0.00000E+000	8.87979E-005	5.39641E-002	9.75094E-001	3.57380E+000	9	...........
	145	1.94667	9.76540E-001	9.09553E-005	0.00000E+000	8.88215E-005	5.39641E-002	9.76733E-001	3.57380E+000	9	...........
	146	1.96	9.78137E-001	9.11450E-005	0.00000E+000	8.91522E-005	5.39641E-002	9.78338E-001	3.57380E+000	9	...........
	147	1.97333	9.79729E-001	9.10428E-005	0.00000E+000	8.91973E-005	5.39641E-002	9.79910E-001	3.57380E+000	9	...........
	148	1.98667	9.81283E-001	9.09585E-005	0.00000E+000	8.92560E-005	5.39641E-002	9.81503E-001	3.57380E+000	9	...........
	149	2	9.82852E-001	9.08907E-005	0.00000E+000	8.93322E-005	5.39641E-002	9.83035E-001	3.57380E+000	9	...........
	150	2.01333	9.84362E-001	9.10553E-005	0.00000E+000	8.96314E-005	5.39641E-002	9.84575E-001	3.57380E+000	9	...........
	151	2.02667	9.85873E-001	9.11033E-005	0.00000E+000	8.98163E-005	5.39641E-002	9.86087E-001	3.57380E+000	9	...........
	152	2.04	9.87378E-001	9.10981E-005	0.00000E+000	8.99482E-005	5.39641E-002	9.87564E-001	3.57380E+000	9	...........
	153	2.05333	9.88889E-001	9.09564E-005	0.00000E+000	8.99458E-005	5.39641E-002	9.89056E-001	3.57380E+000	9	...........
	154	2.06667	9.90359E-001	9.07261E-005	0.00000E+000	8.98514E-005	5.39641E-002	9.90514E-001	3.57380E+000	9	...........
	155	2.08	9.91774E-001	9.09887E-005	0.00000E+000	9.02402E-005	5.39641E-002	9.91936E-001	3.57380E+000	9	...........
	156	2.09333	9.93187E-001	9.10397E-005	0.00000E+000	9.04195E-005	5.39641E-002	9.93371E-001	3.57380E+000	9	...........
	157	2.10667	9.94612E-001	9.09220E-005	0.00000E+000	9.04321E-005	5.39641E-002	9.94816E-001	3.57380E+000	9	...........
	158	2.12	9.96043E-001	9.10314E-005	0.00000E+000	9.06712E-005	5.39641E-002	9.96249E-001	3.57380E+000	9	...........
	159	2.13333	9.97454E-001	9.10262E-005	0.00000E+000	9.07944E-005	5.39641E-002	9.97662E-001	3.57380E+000	9	...........
	160	2.14667	9.98856E-001	9.11262E-005	0.00000E+000	9.10219E-005	5.39641E-002	9.99056E-001	3.57380E+000	9	...........
	161	2.15333	9.99869E-001	9.10647E-005	0.00000E+000	9.10528E-005	5.39641E-002	1.00009E+000	3.57380E+000	9	...........
STARTTIMEOFFSET	QUANT	3887.268	Start Time Offset (s)
