EXPLAIN
TAG	PWR800_CHARGE
TITLE	LABEL	PWR Cyclic Charge Discharge (Cell) - Charge Step	Test &Identifier
DATE	LABEL	10-7-2017	Date
TIME	LABEL	15:03:09	Time
NOTES	NOTES	3	&Notes...
	supercap test cell
	0.9mg
	6M KOH
PSTAT	PSTAT	IFC5000-01520	Potentiostat
CAPACITY	QUANT	1.00000E-003	Capacity (A-hr)
CELLTYPE	SELECTOR	1	&Cell Type
WORKINGCONNECTION	SELECTOR	0	&Working Lead
MAXCHARGETIME	VARIABLEANDUNITS	1.00000E+002	s	1.00000E+002	second(s)	Max &Charge Time
CHARGECURRENT	QUANT	9.00000E-005	&Charge Current (A) 
VOLTAGEFINISH	TWOPARAM	F	1.00000E-003	3.60000E+003	&Voltage Finish	 I (A) < 	Max Time(s)
SAMPLETIME	QUANT	1.00000E-002	Sa&mple Period (s)
CHARGESTOPAT1	MULTIPARAM	4	1.00000E+000	Charge Stop At &1	Voltage > Limit	V
CHARGESTOPAT2	MULTIPARAM	0	0.00000E+000	Charge Stop At &2	None	N/A
AESBHCSELECTOR	TOGGLE	F	Save Both Half Cells
IRCOMP	TOGGLE	F	IR &Measure
EOC	QUANT	0	Open Circuit (V)
SEQUENCER	TOGGLE	TRUE	Run as Sequence
PSTATMODEL	IQUANT	53	Pstat Model
PSTATSECTION	LABEL	IFC5000-01520	Pstat Section
PSTATSERIALNO	LABEL	01520	Pstat Serial Number
CTRLMODE	IQUANT	0	Control Mode
ELECTROMETER	IQUANT	1	RE=0 or CS=1
IESTAB	IQUANT	0	I/E Stability
CASPEED	IQUANT	4	Control Amp Speed
CONVENTION	IQUANT	1	Current Convention
ICHRANGE	IQUANT	2	Ich Range
ICHRANGEMODE	TOGGLE	T	Ich Auto Range
ICHOFFSETENABLE	TOGGLE	F	Ich Offset Enable
ICHOFFSET	QUANT	0	Ich Offset (V)
ICHFILTER	IQUANT	1	Ich Filter
VCHRANGE	IQUANT	2	Vch Range
VCHRANGEMODE	TOGGLE	T	Vch Auto Range
VCHOFFSETENABLE	TOGGLE	F	Vch Offset Enable
VCHOFFSET	QUANT	0	Vch Offset (V)
VCHFILTER	IQUANT	1	Vch Filter
IERANGELOWERLIMIT	IQUANT	9	I/E Range Lower Limit
IERANGEMODE	TOGGLE	F	I/E AutoRange
IERANGE	IQUANT	9	I/E Range
ACHSELECT	IQUANT	1	Ach Select
ACHRANGE	IQUANT	2	Ach Range
ACHOFFSETENABLE	TOGGLE	F	Ach Offset Enable
ACHOFFSET	QUANT	0	Ach Offset (V)
ACHFILTER	IQUANT	1	Ach Filter
CABLEID	IQUANT	14	Cable ID
DCCALDATE	LABEL	5-7-2017	DC Calibration Date
ACCALDATE	LABEL	12/3/2015	AC Calibration Date
FRAMEWORKVERSION	QUANT	7.01	Framework Version
INSTRUMENTVERSION	LABEL	4.00	Instrument Version
CURVE	TABLE	200
	Pt	T	Vf	Im	Vu	Pwr	Sig	Ach	Temp	IERange	Over
	#	s	V	A	V	W	V	V	deg C	#	bits
	0	0.013333	2.98415E-001	9.10991E-005	0.00000E+000	2.71853E-005	5.39641E-002	2.98444E-001	3.57130E+000	9	...........
	1	0.026667	3.16953E-001	9.11366E-005	0.00000E+000	2.88861E-005	5.39641E-002	3.16983E-001	3.57130E+000	9	...........
	2	0.04	3.33991E-001	9.10564E-005	0.00000E+000	3.04120E-005	5.39641E-002	3.34017E-001	3.57130E+000	9	...........
	3	0.053333	3.49834E-001	9.15179E-005	0.00000E+000	3.20161E-005	5.39641E-002	3.49860E-001	3.57130E+000	9	...........
	4	0.066667	3.64656E-001	9.10283E-005	0.00000E+000	3.31940E-005	5.39641E-002	3.64683E-001	3.57130E+000	9	...........
	5	0.08	3.78617E-001	9.10085E-005	0.00000E+000	3.44574E-005	5.39641E-002	3.78649E-001	3.57130E+000	9	...........
	6	0.093333	3.91850E-001	9.11575E-005	0.00000E+000	3.57200E-005	5.39641E-002	3.91876E-001	3.57130E+000	9	...........
	7	0.106667	4.04427E-001	9.12471E-005	0.00000E+000	3.69028E-005	5.39641E-002	4.04464E-001	3.57130E+000	9	...........
	8	0.12	4.16421E-001	9.11397E-005	0.00000E+000	3.79525E-005	5.39641E-002	4.16462E-001	3.57130E+000	9	...........
	9	0.133333	4.27895E-001	9.11262E-005	0.00000E+000	3.89924E-005	5.39641E-002	4.27938E-001	3.57130E+000	9	...........
	10	0.146667	4.38903E-001	9.12377E-005	0.00000E+000	4.00445E-005	5.39641E-002	4.38944E-001	3.57130E+000	9	...........
	11	0.16	4.49500E-001	9.12085E-005	0.00000E+000	4.09982E-005	5.39641E-002	4.49537E-001	3.57130E+000	9	...........
	12	0.173333	4.59698E-001	9.13096E-005	0.00000E+000	4.19748E-005	5.39641E-002	4.59735E-001	3.57130E+000	9	...........
	13	0.186667	4.69526E-001	9.12606E-005	0.00000E+000	4.28492E-005	5.39641E-002	4.69573E-001	3.57130E+000	9	...........
	14	0.2	4.79032E-001	9.11981E-005	0.00000E+000	4.36868E-005	5.39641E-002	4.79067E-001	3.57130E+000	9	...........
	15	0.213333	4.88216E-001	9.13596E-005	0.00000E+000	4.46032E-005	5.39641E-002	4.88265E-001	3.57130E+000	9	...........
	16	0.226667	4.97126E-001	9.09647E-005	0.00000E+000	4.52209E-005	5.39641E-002	4.97174E-001	3.57130E+000	9	...........
	17	0.24	5.05777E-001	9.13377E-005	0.00000E+000	4.61965E-005	5.39641E-002	5.05819E-001	3.57130E+000	9	...........
	18	0.253333	5.14168E-001	9.09303E-005	0.00000E+000	4.67534E-005	5.39641E-002	5.14218E-001	3.57130E+000	9	...........
	19	0.266667	5.22327E-001	9.12481E-005	0.00000E+000	4.76613E-005	5.39641E-002	5.22374E-001	3.57130E+000	9	...........
	20	0.28	5.30258E-001	9.09439E-005	0.00000E+000	4.82238E-005	5.39641E-002	5.30301E-001	3.57130E+000	9	...........
	21	0.293333	5.37951E-001	9.12627E-005	0.00000E+000	4.90949E-005	5.39641E-002	5.38025E-001	3.57130E+000	9	...........
	22	0.306667	5.45461E-001	9.09282E-005	0.00000E+000	4.95978E-005	5.39641E-002	5.45526E-001	3.57130E+000	9	...........
	23	0.32	5.52781E-001	9.09199E-005	0.00000E+000	5.02588E-005	5.39641E-002	5.52865E-001	3.57130E+000	9	...........
	24	0.333333	5.59905E-001	9.12231E-005	0.00000E+000	5.10762E-005	5.39641E-002	5.59986E-001	3.57130E+000	9	...........
	25	0.346667	5.66935E-001	9.10824E-005	0.00000E+000	5.16378E-005	5.39641E-002	5.66996E-001	3.57130E+000	9	...........
	26	0.36	5.73698E-001	9.11085E-005	0.00000E+000	5.22688E-005	5.39641E-002	5.73786E-001	3.57130E+000	9	...........
	27	0.373333	5.80317E-001	9.11293E-005	0.00000E+000	5.28839E-005	5.39641E-002	5.80431E-001	3.57145E+000	9	...........
	28	0.386667	5.86832E-001	9.10387E-005	0.00000E+000	5.34244E-005	5.39641E-002	5.86928E-001	3.57160E+000	9	...........
	29	0.4	5.93191E-001	9.09147E-005	0.00000E+000	5.39298E-005	5.39641E-002	5.93296E-001	3.57160E+000	9	...........
	30	0.413333	5.99389E-001	9.08449E-005	0.00000E+000	5.44514E-005	5.39641E-002	5.99481E-001	3.57160E+000	9	...........
	31	0.426667	6.05453E-001	9.13137E-005	0.00000E+000	5.52861E-005	5.39641E-002	6.05576E-001	3.57160E+000	9	...........
	32	0.44	6.11409E-001	9.13940E-005	0.00000E+000	5.58791E-005	5.39641E-002	6.11546E-001	3.57160E+000	9	...........
	33	0.453333	6.17325E-001	9.11450E-005	0.00000E+000	5.62660E-005	5.39641E-002	6.17379E-001	3.57160E+000	9	...........
	34	0.466667	6.23028E-001	9.11252E-005	0.00000E+000	5.67735E-005	5.39641E-002	6.23073E-001	3.57160E+000	9	...........
	35	0.48	6.28613E-001	9.12637E-005	0.00000E+000	5.73695E-005	5.39641E-002	6.28669E-001	3.57160E+000	9	...........
	36	0.493333	6.34073E-001	9.12835E-005	0.00000E+000	5.78804E-005	5.39641E-002	6.34142E-001	3.57160E+000	9	...........
	37	0.506667	6.39468E-001	9.10835E-005	0.00000E+000	5.82450E-005	5.39641E-002	6.39551E-001	3.57160E+000	9	...........
	38	0.52	6.44766E-001	9.12814E-005	0.00000E+000	5.88552E-005	5.39641E-002	6.44818E-001	3.57160E+000	9	...........
	39	0.533333	6.49944E-001	9.11845E-005	0.00000E+000	5.92649E-005	5.39641E-002	6.49996E-001	3.57160E+000	9	...........
	40	0.546667	6.55000E-001	9.13002E-005	0.00000E+000	5.98016E-005	5.39641E-002	6.55073E-001	3.57160E+000	9	...........
	41	0.56	6.59958E-001	9.11074E-005	0.00000E+000	6.01271E-005	5.39641E-002	6.60032E-001	3.57160E+000	9	...........
	42	0.573333	6.64861E-001	9.10356E-005	0.00000E+000	6.05260E-005	5.39641E-002	6.64963E-001	3.57160E+000	9	...........
	43	0.586667	6.69683E-001	9.15388E-005	0.00000E+000	6.13019E-005	5.39641E-002	6.69752E-001	3.57160E+000	9	...........
	44	0.6	6.74374E-001	9.12523E-005	0.00000E+000	6.15382E-005	5.39641E-002	6.74467E-001	3.57160E+000	9	...........
	45	0.613333	6.79019E-001	9.10387E-005	0.00000E+000	6.18170E-005	5.39641E-002	6.79109E-001	3.57160E+000	9	...........
	46	0.626667	6.83589E-001	9.11668E-005	0.00000E+000	6.23207E-005	5.39641E-002	6.83668E-001	3.57160E+000	9	...........
	47	0.64	6.88062E-001	9.13856E-005	0.00000E+000	6.28790E-005	5.39641E-002	6.88165E-001	3.57160E+000	9	...........
	48	0.653333	6.92507E-001	9.10428E-005	0.00000E+000	6.30478E-005	5.39641E-002	6.92592E-001	3.57160E+000	9	...........
	49	0.666667	6.96825E-001	9.10147E-005	0.00000E+000	6.34214E-005	5.39641E-002	6.96917E-001	3.57160E+000	9	...........
	50	0.68	7.01091E-001	9.10866E-005	0.00000E+000	6.38600E-005	5.39641E-002	7.01182E-001	3.57160E+000	9	...........
	51	0.693333	7.05280E-001	9.11304E-005	0.00000E+000	6.42724E-005	5.39641E-002	7.05370E-001	3.57160E+000	9	...........
	52	0.706667	7.09392E-001	9.13283E-005	0.00000E+000	6.47876E-005	5.39641E-002	7.09490E-001	3.57160E+000	9	...........
	53	0.72	7.13459E-001	9.13554E-005	0.00000E+000	6.51783E-005	5.39641E-002	7.13530E-001	3.57160E+000	9	...........
	54	0.733333	7.17463E-001	9.11439E-005	0.00000E+000	6.53924E-005	5.39641E-002	7.17564E-001	3.57160E+000	9	...........
	55	0.746667	7.21421E-001	9.12700E-005	0.00000E+000	6.58440E-005	5.39641E-002	7.21509E-001	3.57160E+000	9	...........
	56	0.76	7.25271E-001	9.12804E-005	0.00000E+000	6.62030E-005	5.39641E-002	7.25344E-001	3.57160E+000	9	...........
	57	0.773333	7.29071E-001	9.10752E-005	0.00000E+000	6.64002E-005	5.39641E-002	7.29151E-001	3.57160E+000	9	...........
	58	0.786667	7.32800E-001	9.11981E-005	0.00000E+000	6.68299E-005	5.39641E-002	7.32890E-001	3.57160E+000	9	...........
	59	0.8	7.36470E-001	9.12533E-005	0.00000E+000	6.72053E-005	5.39641E-002	7.36579E-001	3.57160E+000	9	...........
	60	0.813333	7.40102E-001	9.09595E-005	0.00000E+000	6.73193E-005	5.39641E-002	7.40213E-001	3.57160E+000	9	...........
	61	0.826667	7.43734E-001	9.12867E-005	0.00000E+000	6.78930E-005	5.39641E-002	7.43852E-001	3.57160E+000	9	...........
	62	0.84	7.47266E-001	9.10178E-005	0.00000E+000	6.80146E-005	5.39641E-002	7.47369E-001	3.57160E+000	9	...........
	63	0.853333	7.50755E-001	9.12346E-005	0.00000E+000	6.84948E-005	5.39641E-002	7.50854E-001	3.57160E+000	9	...........
	64	0.866667	7.54183E-001	9.11856E-005	0.00000E+000	6.87706E-005	5.39641E-002	7.54267E-001	3.57160E+000	9	...........
	65	0.88	7.57588E-001	9.13137E-005	0.00000E+000	6.91782E-005	5.39641E-002	7.57644E-001	3.57160E+000	9	...........
	66	0.893333	7.60941E-001	9.11543E-005	0.00000E+000	6.93631E-005	5.39641E-002	7.60990E-001	3.57160E+000	9	...........
	67	0.906667	7.64235E-001	9.12773E-005	0.00000E+000	6.97573E-005	5.39641E-002	7.64309E-001	3.57160E+000	9	...........
	68	0.92	7.67515E-001	9.12814E-005	0.00000E+000	7.00599E-005	5.39641E-002	7.67610E-001	3.57160E+000	9	...........
	69	0.933333	7.70754E-001	9.13846E-005	0.00000E+000	7.04350E-005	5.39641E-002	7.70814E-001	3.57160E+000	9	...........
	70	0.946667	7.73917E-001	9.13950E-005	0.00000E+000	7.07322E-005	5.39641E-002	7.73980E-001	3.57160E+000	9	...........
	71	0.96	7.77022E-001	9.08887E-005	0.00000E+000	7.06225E-005	5.39641E-002	7.77089E-001	3.57160E+000	9	...........
	72	0.97333	7.80115E-001	9.13117E-005	0.00000E+000	7.12336E-005	5.39641E-002	7.80186E-001	3.57160E+000	9	...........
	73	0.98667	7.83183E-001	9.14159E-005	0.00000E+000	7.15954E-005	5.39641E-002	7.83235E-001	3.57160E+000	9	...........
	74	1	7.86173E-001	9.10293E-005	0.00000E+000	7.15648E-005	5.39641E-002	7.86237E-001	3.57160E+000	9	...........
	75	1.01333	7.89151E-001	9.10720E-005	0.00000E+000	7.18695E-005	5.39641E-002	7.89210E-001	3.57160E+000	9	...........
	76	1.02667	7.92085E-001	9.12439E-005	0.00000E+000	7.22730E-005	5.39641E-002	7.92154E-001	3.57160E+000	9	...........
	77	1.04	7.95032E-001	9.10501E-005	0.00000E+000	7.23877E-005	5.39641E-002	7.95066E-001	3.57160E+000	9	...........
	78	1.05333	7.97880E-001	9.13606E-005	0.00000E+000	7.28948E-005	5.39641E-002	7.97944E-001	3.57160E+000	9	...........
	79	1.06667	8.00725E-001	9.09981E-005	0.00000E+000	7.28644E-005	5.39641E-002	8.00784E-001	3.57160E+000	9	...........
	80	1.08	8.03516E-001	9.09824E-005	0.00000E+000	7.31058E-005	5.39641E-002	8.03590E-001	3.57160E+000	9	...........
	81	1.09333	8.06283E-001	9.12752E-005	0.00000E+000	7.35937E-005	5.39641E-002	8.06391E-001	3.57160E+000	9	...........
	82	1.10667	8.09009E-001	9.12679E-005	0.00000E+000	7.38366E-005	5.39641E-002	8.09107E-001	3.57160E+000	9	...........
	83	1.12	8.11705E-001	9.13710E-005	0.00000E+000	7.41664E-005	5.39641E-002	8.11830E-001	3.57160E+000	9	...........
	84	1.13333	8.14386E-001	9.12971E-005	0.00000E+000	7.43511E-005	5.39641E-002	8.14511E-001	3.57160E+000	9	...........
	85	1.14667	8.17020E-001	9.13617E-005	0.00000E+000	7.46443E-005	5.39641E-002	8.17156E-001	3.57160E+000	9	...........
	86	1.16	8.19674E-001	9.11439E-005	0.00000E+000	7.47083E-005	5.39641E-002	8.19772E-001	3.57160E+000	9	...........
	87	1.17333	8.22249E-001	9.12273E-005	0.00000E+000	7.50115E-005	5.39641E-002	8.22368E-001	3.57160E+000	9	...........
	88	1.18667	8.24789E-001	9.11585E-005	0.00000E+000	7.51865E-005	5.39641E-002	8.24928E-001	3.57160E+000	9	...........
	89	1.2	8.27330E-001	9.13398E-005	0.00000E+000	7.55681E-005	5.39641E-002	8.27430E-001	3.57160E+000	9	...........
	90	1.21333	8.29818E-001	9.10908E-005	0.00000E+000	7.55888E-005	5.39641E-002	8.29940E-001	3.57160E+000	9	...........
	91	1.22667	8.32294E-001	9.13335E-005	0.00000E+000	7.60164E-005	5.39641E-002	8.32425E-001	3.57160E+000	9	...........
	92	1.24	8.34736E-001	9.12689E-005	0.00000E+000	7.61855E-005	5.39641E-002	8.34885E-001	3.57160E+000	9	...........
	93	1.25333	8.37166E-001	9.12293E-005	0.00000E+000	7.63741E-005	5.39641E-002	8.37312E-001	3.57160E+000	9	...........
	94	1.26667	8.39569E-001	9.13815E-005	0.00000E+000	7.67211E-005	5.39641E-002	8.39698E-001	3.57160E+000	9	...........
	95	1.28	8.41939E-001	9.12981E-005	0.00000E+000	7.68674E-005	5.39641E-002	8.42062E-001	3.57160E+000	9	...........
	96	1.29333	8.44317E-001	9.11022E-005	0.00000E+000	7.69192E-005	5.39641E-002	8.44443E-001	3.57160E+000	9	...........
	97	1.30667	8.46666E-001	9.12731E-005	0.00000E+000	7.72778E-005	5.39641E-002	8.46789E-001	3.57160E+000	9	...........
	98	1.32	8.48978E-001	9.12231E-005	0.00000E+000	7.74464E-005	5.39641E-002	8.49112E-001	3.57160E+000	9	...........
	99	1.33333	8.51279E-001	9.12814E-005	0.00000E+000	7.77059E-005	5.39641E-002	8.51406E-001	3.57160E+000	9	...........
	100	1.34667	8.53512E-001	9.11356E-005	0.00000E+000	7.77853E-005	5.39641E-002	8.53667E-001	3.57160E+000	9	...........
	101	1.36	8.55769E-001	9.16117E-005	0.00000E+000	7.83985E-005	5.39641E-002	8.55898E-001	3.57160E+000	9	...........
	102	1.37333	8.57981E-001	9.12867E-005	0.00000E+000	7.83222E-005	5.39641E-002	8.58121E-001	3.57130E+000	9	...........
	103	1.38667	8.60187E-001	9.13315E-005	0.00000E+000	7.85621E-005	5.39641E-002	8.60303E-001	3.57100E+000	9	...........
	104	1.4	8.62375E-001	9.11616E-005	0.00000E+000	7.86155E-005	5.39641E-002	8.62508E-001	3.57100E+000	9	...........
	105	1.41333	8.64526E-001	9.13731E-005	0.00000E+000	7.89944E-005	5.39641E-002	8.64641E-001	3.57100E+000	9	...........
	106	1.42667	8.66692E-001	9.10960E-005	0.00000E+000	7.89521E-005	5.39641E-002	8.66809E-001	3.57100E+000	9	...........
	107	1.44	8.68829E-001	9.11783E-005	0.00000E+000	7.92183E-005	5.39641E-002	8.68937E-001	3.57100E+000	9	...........
	108	1.45333	8.70940E-001	9.15419E-005	0.00000E+000	7.97275E-005	5.39641E-002	8.71054E-001	3.57100E+000	9	...........
	109	1.46667	8.72982E-001	9.10522E-005	0.00000E+000	7.94869E-005	5.39641E-002	8.73104E-001	3.57100E+000	9	...........
	110	1.48	8.75039E-001	9.10720E-005	0.00000E+000	7.96915E-005	5.39641E-002	8.75176E-001	3.57100E+000	9	...........
	111	1.49333	8.77084E-001	9.14388E-005	0.00000E+000	8.01995E-005	5.39641E-002	8.77196E-001	3.57100E+000	9	...........
	112	1.50667	8.79081E-001	9.13763E-005	0.00000E+000	8.03272E-005	5.39641E-002	8.79202E-001	3.57100E+000	9	...........
	113	1.52	8.81056E-001	9.12731E-005	0.00000E+000	8.04167E-005	5.39641E-002	8.81199E-001	3.57100E+000	9	...........
	114	1.53333	8.83058E-001	9.09668E-005	0.00000E+000	8.03289E-005	5.39641E-002	8.83177E-001	3.57100E+000	9	...........
	115	1.54667	8.85005E-001	9.13190E-005	0.00000E+000	8.08177E-005	5.39641E-002	8.85143E-001	3.57100E+000	9	...........
	116	1.56	8.86928E-001	9.11460E-005	0.00000E+000	8.08399E-005	5.39641E-002	8.87087E-001	3.57100E+000	9	...........
	117	1.57333	8.88837E-001	9.14898E-005	0.00000E+000	8.13196E-005	5.39641E-002	8.88962E-001	3.57100E+000	9	...........
	118	1.58667	8.90761E-001	9.10762E-005	0.00000E+000	8.11271E-005	5.39641E-002	8.90888E-001	3.57100E+000	9	...........
	119	1.6	8.92639E-001	9.13940E-005	0.00000E+000	8.15818E-005	5.39641E-002	8.92752E-001	3.57100E+000	9	...........
	120	1.61333	8.94469E-001	9.11845E-005	0.00000E+000	8.15618E-005	5.39641E-002	8.94627E-001	3.57100E+000	9	...........
	121	1.62667	8.96351E-001	9.12887E-005	0.00000E+000	8.18268E-005	5.39641E-002	8.96483E-001	3.57100E+000	9	...........
	122	1.64	8.98156E-001	9.12669E-005	0.00000E+000	8.19719E-005	5.39641E-002	8.98289E-001	3.57100E+000	9	...........
	123	1.65333	8.99970E-001	9.10689E-005	0.00000E+000	8.19593E-005	5.39641E-002	9.00074E-001	3.57100E+000	9	...........
	124	1.66667	9.01768E-001	9.12669E-005	0.00000E+000	8.23016E-005	5.39641E-002	9.01884E-001	3.57100E+000	9	...........
	125	1.68	9.03542E-001	9.10116E-005	0.00000E+000	8.22328E-005	5.39641E-002	9.03684E-001	3.57100E+000	9	...........
	126	1.69333	9.05286E-001	9.12564E-005	0.00000E+000	8.26132E-005	5.39641E-002	9.05448E-001	3.57100E+000	9	...........
	127	1.70667	9.07045E-001	9.10845E-005	0.00000E+000	8.26178E-005	5.39641E-002	9.07184E-001	3.57100E+000	9	...........
	128	1.72	9.08800E-001	9.11179E-005	0.00000E+000	8.28079E-005	5.39641E-002	9.08914E-001	3.57100E+000	9	...........
	129	1.73333	9.10513E-001	9.11658E-005	0.00000E+000	8.30076E-005	5.39641E-002	9.10617E-001	3.57100E+000	9	...........
	130	1.74667	9.12206E-001	9.12106E-005	0.00000E+000	8.32029E-005	5.39641E-002	9.12333E-001	3.57100E+000	9	...........
	131	1.76	9.13888E-001	9.14013E-005	0.00000E+000	8.35305E-005	5.39641E-002	9.14039E-001	3.57100E+000	9	...........
	132	1.77333	9.15566E-001	9.12325E-005	0.00000E+000	8.35294E-005	5.39641E-002	9.15728E-001	3.57100E+000	9	...........
	133	1.78667	9.17208E-001	9.13023E-005	0.00000E+000	8.37432E-005	5.39641E-002	9.17380E-001	3.57100E+000	9	...........
	134	1.8	9.18857E-001	9.11554E-005	0.00000E+000	8.37588E-005	5.39641E-002	9.19027E-001	3.57100E+000	9	...........
	135	1.81333	9.20510E-001	9.15325E-005	0.00000E+000	8.42567E-005	5.39641E-002	9.20677E-001	3.57100E+000	9	...........
	136	1.82667	9.22174E-001	9.11210E-005	0.00000E+000	8.40294E-005	5.39641E-002	9.22298E-001	3.57100E+000	9	...........
	137	1.84	9.23770E-001	9.11241E-005	0.00000E+000	8.41778E-005	5.39641E-002	9.23907E-001	3.57100E+000	9	...........
	138	1.85333	9.25353E-001	9.09564E-005	0.00000E+000	8.41668E-005	5.39641E-002	9.25490E-001	3.57100E+000	9	...........
	139	1.86667	9.26904E-001	9.10606E-005	0.00000E+000	8.44044E-005	5.39641E-002	9.27056E-001	3.57100E+000	9	...........
	140	1.88	9.28480E-001	9.13961E-005	0.00000E+000	8.48594E-005	5.39641E-002	9.28602E-001	3.57100E+000	9	...........
	141	1.89333	9.30000E-001	9.12012E-005	0.00000E+000	8.48171E-005	5.39641E-002	9.30103E-001	3.57100E+000	9	...........
	142	1.90667	9.31524E-001	9.12346E-005	0.00000E+000	8.49872E-005	5.39641E-002	9.31621E-001	3.57100E+000	9	...........
	143	1.92	9.33022E-001	9.12075E-005	0.00000E+000	8.50986E-005	5.39641E-002	9.33142E-001	3.57100E+000	9	...........
	144	1.93333	9.34491E-001	9.08345E-005	0.00000E+000	8.48840E-005	5.39641E-002	9.34637E-001	3.57100E+000	9	...........
	145	1.94667	9.35969E-001	9.11470E-005	0.00000E+000	8.53108E-005	5.39641E-002	9.36128E-001	3.57100E+000	9	...........
	146	1.96	9.37454E-001	9.13335E-005	0.00000E+000	8.56210E-005	5.39641E-002	9.37596E-001	3.57100E+000	9	...........
	147	1.97333	9.38903E-001	9.10741E-005	0.00000E+000	8.55098E-005	5.39641E-002	9.39055E-001	3.57100E+000	9	...........
	148	1.98667	9.40353E-001	9.10897E-005	0.00000E+000	8.56565E-005	5.39641E-002	9.40506E-001	3.57100E+000	9	...........
	149	2	9.41761E-001	9.12429E-005	0.00000E+000	8.59290E-005	5.39641E-002	9.41915E-001	3.57100E+000	9	...........
	150	2.01333	9.43165E-001	9.10689E-005	0.00000E+000	8.58930E-005	5.39641E-002	9.43321E-001	3.57100E+000	9	...........
	151	2.02667	9.44554E-001	9.11199E-005	0.00000E+000	8.60677E-005	5.39641E-002	9.44724E-001	3.57100E+000	9	...........
	152	2.04	9.45932E-001	9.11856E-005	0.00000E+000	8.62554E-005	5.39641E-002	9.46106E-001	3.57100E+000	9	...........
	153	2.05333	9.47385E-001	9.11575E-005	0.00000E+000	8.63612E-005	5.39641E-002	9.47493E-001	3.57100E+000	9	...........
	154	2.06667	9.48757E-001	9.11554E-005	0.00000E+000	8.64843E-005	5.39641E-002	9.48878E-001	3.57100E+000	9	...........
	155	2.08	9.50103E-001	9.10720E-005	0.00000E+000	8.65278E-005	5.39641E-002	9.50245E-001	3.57100E+000	9	...........
	156	2.09333	9.51408E-001	9.09512E-005	0.00000E+000	8.65317E-005	5.39641E-002	9.51576E-001	3.57100E+000	9	...........
	157	2.10667	9.52751E-001	9.11293E-005	0.00000E+000	8.68236E-005	5.39641E-002	9.52906E-001	3.57100E+000	9	...........
	158	2.12	9.54089E-001	9.14429E-005	0.00000E+000	8.72447E-005	5.39641E-002	9.54235E-001	3.57100E+000	9	...........
	159	2.13333	9.55371E-001	9.09835E-005	0.00000E+000	8.69229E-005	5.39641E-002	9.55509E-001	3.57100E+000	9	...........
	160	2.14667	9.56643E-001	9.12804E-005	0.00000E+000	8.73227E-005	5.39641E-002	9.56801E-001	3.57100E+000	9	...........
	161	2.16	9.57952E-001	9.12116E-005	0.00000E+000	8.73763E-005	5.39641E-002	9.58098E-001	3.57100E+000	9	...........
	162	2.17333	9.59236E-001	9.13940E-005	0.00000E+000	8.76684E-005	5.39641E-002	9.59413E-001	3.57100E+000	9	...........
	163	2.18667	9.60514E-001	9.12794E-005	0.00000E+000	8.76751E-005	5.39641E-002	9.60701E-001	3.57100E+000	9	...........
	164	2.2	9.61766E-001	9.13283E-005	0.00000E+000	8.78365E-005	5.39641E-002	9.61941E-001	3.57100E+000	9	...........
	165	2.21333	9.63036E-001	9.13189E-005	0.00000E+000	8.79434E-005	5.39641E-002	9.63215E-001	3.57100E+000	9	...........
	166	2.22667	9.64273E-001	9.12658E-005	0.00000E+000	8.80051E-005	5.39641E-002	9.64456E-001	3.57100E+000	9	...........
	167	2.24	9.65486E-001	9.13190E-005	0.00000E+000	8.81671E-005	5.39641E-002	9.65695E-001	3.57100E+000	9	...........
	168	2.25333	9.66715E-001	9.12158E-005	0.00000E+000	8.81797E-005	5.39641E-002	9.66914E-001	3.57100E+000	9	...........
	169	2.26667	9.67922E-001	9.11314E-005	0.00000E+000	8.82081E-005	5.39641E-002	9.68099E-001	3.57100E+000	9	...........
	170	2.28	9.69122E-001	9.13200E-005	0.00000E+000	8.85002E-005	5.39641E-002	9.69304E-001	3.57100E+000	9	...........
	171	2.29333	9.70305E-001	9.11575E-005	0.00000E+000	8.84505E-005	5.39641E-002	9.70514E-001	3.57100E+000	9	...........
	172	2.30667	9.71498E-001	9.08063E-005	0.00000E+000	8.82182E-005	5.39641E-002	9.71693E-001	3.57100E+000	9	...........
	173	2.32	9.72711E-001	9.11481E-005	0.00000E+000	8.86607E-005	5.39641E-002	9.72860E-001	3.57100E+000	9	...........
	174	2.33333	9.73905E-001	9.12366E-005	0.00000E+000	8.88558E-005	5.39641E-002	9.74018E-001	3.57100E+000	9	...........
	175	2.34667	9.75038E-001	9.09272E-005	0.00000E+000	8.86575E-005	5.39641E-002	9.75178E-001	3.57100E+000	9	...........
	176	2.36	9.76171E-001	9.10241E-005	0.00000E+000	8.88551E-005	5.39641E-002	9.76275E-001	3.57100E+000	9	...........
	177	2.37333	9.77291E-001	9.10960E-005	0.00000E+000	8.90273E-005	5.39641E-002	9.77416E-001	3.57100E+000	9	...........
	178	2.38667	9.78426E-001	9.11199E-005	0.00000E+000	8.91541E-005	5.39641E-002	9.78560E-001	3.57100E+000	9	...........
	179	2.4	9.79546E-001	9.12002E-005	0.00000E+000	8.93348E-005	5.39641E-002	9.79665E-001	3.57100E+000	9	...........
	180	2.41333	9.80648E-001	9.13242E-005	0.00000E+000	8.95568E-005	5.39641E-002	9.80750E-001	3.57100E+000	9	...........
	181	2.42667	9.81738E-001	9.14336E-005	0.00000E+000	8.97638E-005	5.39641E-002	9.81848E-001	3.57100E+000	9	...........
	182	2.44	9.82801E-001	9.10335E-005	0.00000E+000	8.94678E-005	5.39641E-002	9.82941E-001	3.57100E+000	9	...........
	183	2.45333	9.83885E-001	9.10189E-005	0.00000E+000	8.95521E-005	5.39641E-002	9.83992E-001	3.57100E+000	9	...........
	184	2.46667	9.84954E-001	9.09981E-005	0.00000E+000	8.96289E-005	5.39641E-002	9.85079E-001	3.57100E+000	9	...........
	185	2.48	9.86000E-001	9.12814E-005	0.00000E+000	9.00035E-005	5.39641E-002	9.86132E-001	3.57100E+000	9	...........
	186	2.49333	9.87030E-001	9.13648E-005	0.00000E+000	9.01798E-005	5.39641E-002	9.87185E-001	3.57100E+000	9	...........
	187	2.50667	9.88089E-001	9.11116E-005	0.00000E+000	9.00264E-005	5.39641E-002	9.88219E-001	3.57100E+000	9	...........
	188	2.52	9.89145E-001	9.13658E-005	0.00000E+000	9.03740E-005	5.39641E-002	9.89267E-001	3.57100E+000	9	...........
	189	2.53333	9.90174E-001	9.14356E-005	0.00000E+000	9.05372E-005	5.39641E-002	9.90289E-001	3.57100E+000	9	...........
	190	2.54667	9.91180E-001	9.12137E-005	0.00000E+000	9.04092E-005	5.39641E-002	9.91327E-001	3.57100E+000	9	...........
	191	2.56	9.92177E-001	9.11564E-005	0.00000E+000	9.04433E-005	5.39641E-002	9.92341E-001	3.57100E+000	9	...........
	192	2.57333	9.93163E-001	9.10658E-005	0.00000E+000	9.04432E-005	5.39641E-002	9.93340E-001	3.57100E+000	9	...........
	193	2.58667	9.94154E-001	9.14763E-005	0.00000E+000	9.09415E-005	5.39641E-002	9.94324E-001	3.57100E+000	9	...........
	194	2.6	9.95147E-001	9.11689E-005	0.00000E+000	9.07264E-005	5.39641E-002	9.95305E-001	3.57100E+000	9	...........
	195	2.61333	9.96123E-001	9.13117E-005	0.00000E+000	9.09577E-005	5.39641E-002	9.96286E-001	3.57100E+000	9	...........
	196	2.62667	9.97077E-001	9.12929E-005	0.00000E+000	9.10261E-005	5.39641E-002	9.97276E-001	3.57100E+000	9	...........
	197	2.64	9.98077E-001	9.08793E-005	0.00000E+000	9.07045E-005	5.39641E-002	9.98247E-001	3.57100E+000	9	...........
	198	2.65333	9.99039E-001	9.12293E-005	0.00000E+000	9.11417E-005	5.39641E-002	9.99204E-001	3.57100E+000	9	...........
	199	2.66167	9.99802E-001	9.13877E-005	0.00000E+000	9.13696E-005	5.39641E-002	9.99967E-001	3.57100E+000	9	...........
STARTTIMEOFFSET	QUANT	197.9133	Start Time Offset (s)
