EXPLAIN
TAG	PWR800_CHARGE
TITLE	LABEL	PWR Cyclic Charge Discharge (Cell) - Charge Step	Test &Identifier
DATE	LABEL	10-7-2017	Date
TIME	LABEL	16:00:19	Time
NOTES	NOTES	3	&Notes...
	supercap test cell
	0.9mg
	6M KOH
PSTAT	PSTAT	IFC5000-01520	Potentiostat
CAPACITY	QUANT	1.00000E-003	Capacity (A-hr)
CELLTYPE	SELECTOR	1	&Cell Type
WORKINGCONNECTION	SELECTOR	0	&Working Lead
MAXCHARGETIME	VARIABLEANDUNITS	1.00000E+002	s	1.00000E+002	second(s)	Max &Charge Time
CHARGECURRENT	QUANT	9.00000E-005	&Charge Current (A) 
VOLTAGEFINISH	TWOPARAM	F	1.00000E-003	3.60000E+003	&Voltage Finish	 I (A) < 	Max Time(s)
SAMPLETIME	QUANT	1.00000E-002	Sa&mple Period (s)
CHARGESTOPAT1	MULTIPARAM	4	1.00000E+000	Charge Stop At &1	Voltage > Limit	V
CHARGESTOPAT2	MULTIPARAM	0	0.00000E+000	Charge Stop At &2	None	N/A
AESBHCSELECTOR	TOGGLE	F	Save Both Half Cells
IRCOMP	TOGGLE	F	IR &Measure
EOC	QUANT	0	Open Circuit (V)
SEQUENCER	TOGGLE	TRUE	Run as Sequence
PSTATMODEL	IQUANT	53	Pstat Model
PSTATSECTION	LABEL	IFC5000-01520	Pstat Section
PSTATSERIALNO	LABEL	01520	Pstat Serial Number
CTRLMODE	IQUANT	0	Control Mode
ELECTROMETER	IQUANT	1	RE=0 or CS=1
IESTAB	IQUANT	0	I/E Stability
CASPEED	IQUANT	4	Control Amp Speed
CONVENTION	IQUANT	1	Current Convention
ICHRANGE	IQUANT	2	Ich Range
ICHRANGEMODE	TOGGLE	T	Ich Auto Range
ICHOFFSETENABLE	TOGGLE	F	Ich Offset Enable
ICHOFFSET	QUANT	0	Ich Offset (V)
ICHFILTER	IQUANT	1	Ich Filter
VCHRANGE	IQUANT	2	Vch Range
VCHRANGEMODE	TOGGLE	T	Vch Auto Range
VCHOFFSETENABLE	TOGGLE	F	Vch Offset Enable
VCHOFFSET	QUANT	0	Vch Offset (V)
VCHFILTER	IQUANT	1	Vch Filter
IERANGELOWERLIMIT	IQUANT	9	I/E Range Lower Limit
IERANGEMODE	TOGGLE	F	I/E AutoRange
IERANGE	IQUANT	9	I/E Range
ACHSELECT	IQUANT	1	Ach Select
ACHRANGE	IQUANT	2	Ach Range
ACHOFFSETENABLE	TOGGLE	F	Ach Offset Enable
ACHOFFSET	QUANT	0	Ach Offset (V)
ACHFILTER	IQUANT	1	Ach Filter
CABLEID	IQUANT	14	Cable ID
DCCALDATE	LABEL	5-7-2017	DC Calibration Date
ACCALDATE	LABEL	12/3/2015	AC Calibration Date
FRAMEWORKVERSION	QUANT	7.01	Framework Version
INSTRUMENTVERSION	LABEL	4.00	Instrument Version
CURVE	TABLE	165
	Pt	T	Vf	Im	Vu	Pwr	Sig	Ach	Temp	IERange	Over
	#	s	V	A	V	W	V	V	deg C	#	bits
	0	0.013333	2.62259E-001	9.07949E-005	0.00000E+000	2.38118E-005	5.39641E-002	2.62311E-001	3.57310E+000	9	...........
	1	0.026667	2.82178E-001	9.10762E-005	0.00000E+000	2.56997E-005	5.39641E-002	2.82219E-001	3.57310E+000	9	...........
	2	0.04	3.00845E-001	9.08657E-005	0.00000E+000	2.73365E-005	5.39641E-002	3.00884E-001	3.57310E+000	9	...........
	3	0.053333	3.18461E-001	9.10022E-005	0.00000E+000	2.89807E-005	5.39641E-002	3.18501E-001	3.57310E+000	9	...........
	4	0.066667	3.35118E-001	9.08897E-005	0.00000E+000	3.04587E-005	5.39641E-002	3.35161E-001	3.57310E+000	9	...........
	5	0.08	3.50925E-001	9.10397E-005	0.00000E+000	3.19481E-005	5.39641E-002	3.50970E-001	3.57310E+000	9	...........
	6	0.093333	3.65947E-001	9.09605E-005	0.00000E+000	3.32867E-005	5.39641E-002	3.65994E-001	3.57310E+000	9	...........
	7	0.106667	3.80259E-001	9.06521E-005	0.00000E+000	3.44713E-005	5.39641E-002	3.80311E-001	3.57310E+000	9	...........
	8	0.12	3.93927E-001	9.11064E-005	0.00000E+000	3.58893E-005	5.39641E-002	3.93977E-001	3.57310E+000	9	...........
	9	0.133333	4.06998E-001	9.09428E-005	0.00000E+000	3.70136E-005	5.39641E-002	4.07043E-001	3.57310E+000	9	...........
	10	0.146667	4.19505E-001	9.09803E-005	0.00000E+000	3.81667E-005	5.39641E-002	4.19562E-001	3.57310E+000	9	...........
	11	0.16	4.31507E-001	9.07699E-005	0.00000E+000	3.91679E-005	5.39641E-002	4.31569E-001	3.57310E+000	9	...........
	12	0.173333	4.43043E-001	9.11866E-005	0.00000E+000	4.03996E-005	5.39641E-002	4.43097E-001	3.57310E+000	9	...........
	13	0.186667	4.54141E-001	9.09835E-005	0.00000E+000	4.13193E-005	5.39641E-002	4.54205E-001	3.57310E+000	9	...........
	14	0.2	4.64842E-001	9.09678E-005	0.00000E+000	4.22857E-005	5.39641E-002	4.64901E-001	3.57310E+000	9	...........
	15	0.213333	4.75154E-001	9.10408E-005	0.00000E+000	4.32584E-005	5.39641E-002	4.75218E-001	3.57310E+000	9	...........
	16	0.226667	4.85104E-001	9.10574E-005	0.00000E+000	4.41723E-005	5.39641E-002	4.85164E-001	3.57310E+000	9	...........
	17	0.24	4.94718E-001	9.08261E-005	0.00000E+000	4.49333E-005	5.39641E-002	4.94787E-001	3.57310E+000	9	...........
	18	0.253333	5.04031E-001	9.08480E-005	0.00000E+000	4.57902E-005	5.39641E-002	5.04100E-001	3.57310E+000	9	...........
	19	0.266667	5.13061E-001	9.11387E-005	0.00000E+000	4.67597E-005	5.39641E-002	5.13131E-001	3.57310E+000	9	...........
	20	0.28	5.21812E-001	9.10949E-005	0.00000E+000	4.75344E-005	5.39641E-002	5.21880E-001	3.57310E+000	9	...........
	21	0.293333	5.30291E-001	9.09783E-005	0.00000E+000	4.82449E-005	5.39641E-002	5.30351E-001	3.57310E+000	9	...........
	22	0.306667	5.38425E-001	9.08980E-005	0.00000E+000	4.89418E-005	5.39641E-002	5.38527E-001	3.57310E+000	9	...........
	23	0.32	5.46413E-001	9.08907E-005	0.00000E+000	4.96639E-005	5.39641E-002	5.46536E-001	3.57310E+000	9	...........
	24	0.333333	5.54201E-001	9.10376E-005	0.00000E+000	5.04532E-005	5.39641E-002	5.54336E-001	3.57310E+000	9	...........
	25	0.346667	5.61802E-001	9.08386E-005	0.00000E+000	5.10333E-005	5.39641E-002	5.61906E-001	3.57310E+000	9	...........
	26	0.36	5.69223E-001	9.12387E-005	0.00000E+000	5.19352E-005	5.39641E-002	5.69321E-001	3.57310E+000	9	...........
	27	0.373333	5.76413E-001	9.09157E-005	0.00000E+000	5.24050E-005	5.39641E-002	5.76547E-001	3.57310E+000	9	...........
	28	0.386667	5.83481E-001	9.09720E-005	0.00000E+000	5.30804E-005	5.39641E-002	5.83611E-001	3.57310E+000	9	...........
	29	0.4	5.90386E-001	9.11189E-005	0.00000E+000	5.37953E-005	5.39641E-002	5.90516E-001	3.57310E+000	9	...........
	30	0.413333	5.97126E-001	9.09605E-005	0.00000E+000	5.43149E-005	5.39641E-002	5.97230E-001	3.57310E+000	9	...........
	31	0.426667	6.03685E-001	9.11720E-005	0.00000E+000	5.50392E-005	5.39641E-002	6.03825E-001	3.57310E+000	9	...........
	32	0.44	6.10099E-001	9.11408E-005	0.00000E+000	5.56049E-005	5.39641E-002	6.10252E-001	3.57310E+000	9	...........
	33	0.453333	6.16431E-001	9.12721E-005	0.00000E+000	5.62629E-005	5.39641E-002	6.16571E-001	3.57310E+000	9	...........
	34	0.466667	6.22609E-001	9.10345E-005	0.00000E+000	5.66789E-005	5.39641E-002	6.22698E-001	3.57310E+000	9	...........
	35	0.48	6.28609E-001	9.09730E-005	0.00000E+000	5.71865E-005	5.39641E-002	6.28741E-001	3.57310E+000	9	...........
	36	0.493333	6.34503E-001	9.09991E-005	0.00000E+000	5.77392E-005	5.39641E-002	6.34629E-001	3.57310E+000	9	...........
	37	0.506667	6.40309E-001	9.09772E-005	0.00000E+000	5.82536E-005	5.39641E-002	6.40432E-001	3.57310E+000	9	...........
	38	0.52	6.45979E-001	9.09585E-005	0.00000E+000	5.87572E-005	5.39641E-002	6.46081E-001	3.57310E+000	9	...........
	39	0.533333	6.51550E-001	9.08251E-005	0.00000E+000	5.91771E-005	5.39641E-002	6.51678E-001	3.57310E+000	9	...........
	40	0.546667	6.57000E-001	9.11054E-005	0.00000E+000	5.98563E-005	5.39641E-002	6.57119E-001	3.57310E+000	9	...........
	41	0.56	6.62357E-001	9.09272E-005	0.00000E+000	6.02263E-005	5.39641E-002	6.62487E-001	3.57310E+000	9	...........
	42	0.573333	6.67653E-001	9.11262E-005	0.00000E+000	6.08407E-005	5.39641E-002	6.67794E-001	3.57310E+000	9	...........
	43	0.586667	6.72839E-001	9.08188E-005	0.00000E+000	6.11064E-005	5.39641E-002	6.72977E-001	3.57310E+000	9	...........
	44	0.6	6.77939E-001	9.10397E-005	0.00000E+000	6.17194E-005	5.39641E-002	6.78073E-001	3.57310E+000	9	...........
	45	0.613333	6.82938E-001	9.09428E-005	0.00000E+000	6.21083E-005	5.39641E-002	6.83074E-001	3.57310E+000	9	...........
	46	0.626667	6.87834E-001	9.10470E-005	0.00000E+000	6.26253E-005	5.39641E-002	6.87994E-001	3.57310E+000	9	...........
	47	0.64	6.92717E-001	9.09491E-005	0.00000E+000	6.30020E-005	5.39641E-002	6.92845E-001	3.57310E+000	9	...........
	48	0.653333	6.97498E-001	9.09928E-005	0.00000E+000	6.34673E-005	5.39641E-002	6.97603E-001	3.57310E+000	9	...........
	49	0.666667	7.02178E-001	9.08730E-005	0.00000E+000	6.38091E-005	5.39641E-002	7.02305E-001	3.57310E+000	9	...........
	50	0.68	7.06796E-001	9.10710E-005	0.00000E+000	6.43686E-005	5.39641E-002	7.06928E-001	3.57310E+000	9	...........
	51	0.693333	7.11332E-001	9.12002E-005	0.00000E+000	6.48736E-005	5.39641E-002	7.11455E-001	3.57310E+000	9	...........
	52	0.706667	7.15820E-001	9.07251E-005	0.00000E+000	6.49428E-005	5.39641E-002	7.15928E-001	3.57310E+000	9	...........
	53	0.72	7.20285E-001	9.08730E-005	0.00000E+000	6.54545E-005	5.39641E-002	7.20381E-001	3.57310E+000	9	...........
	54	0.733333	7.24629E-001	9.11012E-005	0.00000E+000	6.60146E-005	5.39641E-002	7.24728E-001	3.57310E+000	9	...........
	55	0.746667	7.28931E-001	9.11700E-005	0.00000E+000	6.64566E-005	5.39641E-002	7.29050E-001	3.57310E+000	9	...........
	56	0.76	7.33187E-001	9.09366E-005	0.00000E+000	6.66736E-005	5.39641E-002	7.33325E-001	3.57310E+000	9	...........
	57	0.773333	7.37388E-001	9.11825E-005	0.00000E+000	6.72368E-005	5.39641E-002	7.37508E-001	3.57310E+000	9	...........
	58	0.786667	7.41545E-001	9.08647E-005	0.00000E+000	6.73803E-005	5.39641E-002	7.41686E-001	3.57310E+000	9	...........
	59	0.8	7.45640E-001	9.08470E-005	0.00000E+000	6.77391E-005	5.39641E-002	7.45766E-001	3.57310E+000	9	...........
	60	0.813333	7.49701E-001	9.08220E-005	0.00000E+000	6.80893E-005	5.39641E-002	7.49799E-001	3.57310E+000	9	...........
	61	0.826667	7.53681E-001	9.10553E-005	0.00000E+000	6.86267E-005	5.39641E-002	7.53815E-001	3.57310E+000	9	...........
	62	0.84	7.57615E-001	9.09282E-005	0.00000E+000	6.88886E-005	5.39641E-002	7.57747E-001	3.57310E+000	9	...........
	63	0.853333	7.61485E-001	9.08491E-005	0.00000E+000	6.91802E-005	5.39641E-002	7.61599E-001	3.57310E+000	9	...........
	64	0.866667	7.65314E-001	9.09574E-005	0.00000E+000	6.96110E-005	5.39641E-002	7.65455E-001	3.57310E+000	9	...........
	65	0.88	7.69111E-001	9.10553E-005	0.00000E+000	7.00316E-005	5.39641E-002	7.69239E-001	3.57310E+000	9	...........
	66	0.893333	7.72856E-001	9.09991E-005	0.00000E+000	7.03292E-005	5.39641E-002	7.72960E-001	3.57310E+000	9	...........
	67	0.906667	7.76556E-001	9.11689E-005	0.00000E+000	7.07978E-005	5.39641E-002	7.76671E-001	3.57310E+000	9	...........
	68	0.92	7.80242E-001	9.10074E-005	0.00000E+000	7.10078E-005	5.39641E-002	7.80355E-001	3.57310E+000	9	...........
	69	0.933333	7.83875E-001	9.10751E-005	0.00000E+000	7.13915E-005	5.39641E-002	7.83969E-001	3.57310E+000	9	...........
	70	0.946667	7.87451E-001	9.11887E-005	0.00000E+000	7.18067E-005	5.39641E-002	7.87576E-001	3.57310E+000	9	...........
	71	0.96	7.90996E-001	9.08772E-005	0.00000E+000	7.18835E-005	5.39641E-002	7.91117E-001	3.57310E+000	9	...........
	72	0.97333	7.94555E-001	9.09678E-005	0.00000E+000	7.22790E-005	5.39641E-002	7.94658E-001	3.57310E+000	9	...........
	73	0.98667	7.97984E-001	9.09918E-005	0.00000E+000	7.26100E-005	5.39641E-002	7.98118E-001	3.57310E+000	9	...........
	74	1	8.01433E-001	9.10012E-005	0.00000E+000	7.29313E-005	5.39641E-002	8.01543E-001	3.57304E+000	9	...........
	75	1.01333	8.04796E-001	9.10116E-005	0.00000E+000	7.32458E-005	5.39641E-002	8.04932E-001	3.57290E+000	9	...........
	76	1.02667	8.08150E-001	9.07001E-005	0.00000E+000	7.32993E-005	5.39641E-002	8.08293E-001	3.57290E+000	9	...........
	77	1.04	8.11474E-001	9.11304E-005	0.00000E+000	7.39499E-005	5.39641E-002	8.11631E-001	3.57290E+000	9	...........
	78	1.05333	8.14739E-001	9.08980E-005	0.00000E+000	7.40582E-005	5.39641E-002	8.14903E-001	3.57290E+000	9	...........
	79	1.06667	8.17998E-001	9.11022E-005	0.00000E+000	7.45214E-005	5.39641E-002	8.18187E-001	3.57290E+000	9	...........
	80	1.08	8.21250E-001	9.08918E-005	0.00000E+000	7.46449E-005	5.39641E-002	8.21425E-001	3.57290E+000	9	...........
	81	1.09333	8.24440E-001	9.09366E-005	0.00000E+000	7.49717E-005	5.39641E-002	8.24593E-001	3.57290E+000	9	...........
	82	1.10667	8.27552E-001	9.11116E-005	0.00000E+000	7.53996E-005	5.39641E-002	8.27716E-001	3.57290E+000	9	...........
	83	1.12	8.30653E-001	9.11095E-005	0.00000E+000	7.56804E-005	5.39641E-002	8.30845E-001	3.57290E+000	9	...........
	84	1.13333	8.33722E-001	9.09616E-005	0.00000E+000	7.58367E-005	5.39641E-002	8.33918E-001	3.57290E+000	9	...........
	85	1.14667	8.36753E-001	9.09897E-005	0.00000E+000	7.61359E-005	5.39641E-002	8.36972E-001	3.57290E+000	9	...........
	86	1.16	8.39783E-001	9.11272E-005	0.00000E+000	7.65271E-005	5.39641E-002	8.39983E-001	3.57290E+000	9	...........
	87	1.17333	8.42764E-001	9.10991E-005	0.00000E+000	7.67751E-005	5.39641E-002	8.42962E-001	3.57290E+000	9	...........
	88	1.18667	8.45774E-001	9.10387E-005	0.00000E+000	7.69982E-005	5.39641E-002	8.45952E-001	3.57290E+000	9	...........
	89	1.2	8.48725E-001	9.11606E-005	0.00000E+000	7.73703E-005	5.39641E-002	8.48889E-001	3.57290E+000	9	...........
	90	1.21333	8.51632E-001	9.09460E-005	0.00000E+000	7.74525E-005	5.39641E-002	8.51782E-001	3.57290E+000	9	...........
	91	1.22667	8.54478E-001	9.10991E-005	0.00000E+000	7.78422E-005	5.39641E-002	8.54658E-001	3.57290E+000	9	...........
	92	1.24	8.57326E-001	9.09282E-005	0.00000E+000	7.79551E-005	5.39641E-002	8.57517E-001	3.57290E+000	9	...........
	93	1.25333	8.60124E-001	9.08063E-005	0.00000E+000	7.81047E-005	5.39641E-002	8.60309E-001	3.57290E+000	9	...........
	94	1.26667	8.62897E-001	9.11439E-005	0.00000E+000	7.86478E-005	5.39641E-002	8.63079E-001	3.57290E+000	9	...........
	95	1.28	8.65645E-001	9.07782E-005	0.00000E+000	7.85817E-005	5.39641E-002	8.65839E-001	3.57290E+000	9	...........
	96	1.29333	8.68389E-001	9.11429E-005	0.00000E+000	7.91474E-005	5.39641E-002	8.68588E-001	3.57290E+000	9	...........
	97	1.30667	8.71110E-001	9.10939E-005	0.00000E+000	7.93528E-005	5.39641E-002	8.71281E-001	3.57290E+000	9	...........
	98	1.32	8.73781E-001	9.09137E-005	0.00000E+000	7.94386E-005	5.39641E-002	8.73952E-001	3.57290E+000	9	...........
	99	1.33333	8.76403E-001	9.09084E-005	0.00000E+000	7.96724E-005	5.39641E-002	8.76578E-001	3.57290E+000	9	...........
	100	1.34667	8.79023E-001	9.12783E-005	0.00000E+000	8.02357E-005	5.39641E-002	8.79196E-001	3.57290E+000	9	...........
	101	1.36	8.81592E-001	9.11127E-005	0.00000E+000	8.03242E-005	5.39641E-002	8.81774E-001	3.57290E+000	9	...........
	102	1.37333	8.84182E-001	9.08887E-005	0.00000E+000	8.03621E-005	5.39641E-002	8.84362E-001	3.57290E+000	9	...........
	103	1.38667	8.86734E-001	9.10095E-005	0.00000E+000	8.07012E-005	5.39641E-002	8.86900E-001	3.57290E+000	9	...........
	104	1.4	8.89256E-001	9.10481E-005	0.00000E+000	8.09651E-005	5.39641E-002	8.89433E-001	3.57290E+000	9	...........
	105	1.41333	8.91729E-001	9.11397E-005	0.00000E+000	8.12719E-005	5.39641E-002	8.91921E-001	3.57290E+000	9	...........
	106	1.42667	8.94166E-001	9.11804E-005	0.00000E+000	8.15304E-005	5.39641E-002	8.94372E-001	3.57290E+000	9	...........
	107	1.44	8.96612E-001	9.08480E-005	0.00000E+000	8.14554E-005	5.39641E-002	8.96808E-001	3.57290E+000	9	...........
	108	1.45333	8.99007E-001	9.11877E-005	0.00000E+000	8.19784E-005	5.39641E-002	8.99209E-001	3.57290E+000	9	...........
	109	1.46667	9.01373E-001	9.11356E-005	0.00000E+000	8.21472E-005	5.39641E-002	9.01577E-001	3.57290E+000	9	...........
	110	1.48	9.03727E-001	9.08709E-005	0.00000E+000	8.21225E-005	5.39641E-002	9.03924E-001	3.57290E+000	9	...........
	111	1.49333	9.06051E-001	9.12127E-005	0.00000E+000	8.26434E-005	5.39641E-002	9.06257E-001	3.57290E+000	9	...........
	112	1.50667	9.08365E-001	9.11720E-005	0.00000E+000	8.28175E-005	5.39641E-002	9.08568E-001	3.57290E+000	9	...........
	113	1.52	9.10624E-001	9.09741E-005	0.00000E+000	8.28432E-005	5.39641E-002	9.10855E-001	3.57290E+000	9	...........
	114	1.53333	9.12869E-001	9.10126E-005	0.00000E+000	8.30826E-005	5.39641E-002	9.13099E-001	3.57290E+000	9	...........
	115	1.54667	9.15127E-001	9.10606E-005	0.00000E+000	8.33320E-005	5.39641E-002	9.15329E-001	3.57290E+000	9	...........
	116	1.56	9.17328E-001	9.09439E-005	0.00000E+000	8.34254E-005	5.39641E-002	9.17545E-001	3.57290E+000	9	...........
	117	1.57333	9.19543E-001	9.09168E-005	0.00000E+000	8.36019E-005	5.39641E-002	9.19740E-001	3.57290E+000	9	...........
	118	1.58667	9.21785E-001	9.08116E-005	0.00000E+000	8.37087E-005	5.39641E-002	9.21932E-001	3.57290E+000	9	...........
	119	1.6	9.23940E-001	9.09595E-005	0.00000E+000	8.40412E-005	5.39641E-002	9.24060E-001	3.57290E+000	9	...........
	120	1.61333	9.26042E-001	9.11887E-005	0.00000E+000	8.44446E-005	5.39641E-002	9.26212E-001	3.57290E+000	9	...........
	121	1.62667	9.28139E-001	9.12002E-005	0.00000E+000	8.46465E-005	5.39641E-002	9.28325E-001	3.57290E+000	9	...........
	122	1.64	9.30240E-001	9.09449E-005	0.00000E+000	8.46006E-005	5.39641E-002	9.30384E-001	3.57290E+000	9	...........
	123	1.65333	9.32242E-001	9.11502E-005	0.00000E+000	8.49740E-005	5.39641E-002	9.32414E-001	3.57290E+000	9	...........
	124	1.66667	9.34309E-001	9.08689E-005	0.00000E+000	8.48996E-005	5.39641E-002	9.34474E-001	3.57290E+000	9	...........
	125	1.68	9.36311E-001	9.09866E-005	0.00000E+000	8.51918E-005	5.39641E-002	9.36483E-001	3.57290E+000	9	...........
	126	1.69333	9.38292E-001	9.11168E-005	0.00000E+000	8.54942E-005	5.39641E-002	9.38455E-001	3.57290E+000	9	...........
	127	1.70667	9.40265E-001	9.09595E-005	0.00000E+000	8.55261E-005	5.39641E-002	9.40444E-001	3.57290E+000	9	...........
	128	1.72	9.42202E-001	9.12523E-005	0.00000E+000	8.59781E-005	5.39641E-002	9.42386E-001	3.57290E+000	9	...........
	129	1.73333	9.44122E-001	9.07959E-005	0.00000E+000	8.57224E-005	5.39641E-002	9.44306E-001	3.57290E+000	9	...........
	130	1.74667	9.46050E-001	9.10762E-005	0.00000E+000	8.61626E-005	5.39641E-002	9.46256E-001	3.57290E+000	9	...........
	131	1.76	9.47960E-001	9.11137E-005	0.00000E+000	8.63722E-005	5.39641E-002	9.48141E-001	3.57290E+000	9	...........
	132	1.77333	9.49796E-001	9.10866E-005	0.00000E+000	8.65137E-005	5.39641E-002	9.49966E-001	3.57290E+000	9	...........
	133	1.78667	9.51626E-001	9.09324E-005	0.00000E+000	8.65336E-005	5.39641E-002	9.51811E-001	3.57290E+000	9	...........
	134	1.8	9.53434E-001	9.07272E-005	0.00000E+000	8.65023E-005	5.39641E-002	9.53638E-001	3.57290E+000	9	...........
	135	1.81333	9.55232E-001	9.12471E-005	0.00000E+000	8.71621E-005	5.39641E-002	9.55429E-001	3.57290E+000	9	...........
	136	1.82667	9.57015E-001	9.09116E-005	0.00000E+000	8.70037E-005	5.39641E-002	9.57243E-001	3.57290E+000	9	...........
	137	1.84	9.58803E-001	9.08157E-005	0.00000E+000	8.70744E-005	5.39641E-002	9.59001E-001	3.57290E+000	9	...........
	138	1.85333	9.60545E-001	9.10147E-005	0.00000E+000	8.74238E-005	5.39641E-002	9.60775E-001	3.57290E+000	9	...........
	139	1.86667	9.62285E-001	9.08803E-005	0.00000E+000	8.74527E-005	5.39641E-002	9.62486E-001	3.57290E+000	9	...........
	140	1.88	9.63985E-001	9.11241E-005	0.00000E+000	8.78423E-005	5.39641E-002	9.64203E-001	3.57290E+000	9	...........
	141	1.89333	9.65688E-001	9.10908E-005	0.00000E+000	8.79653E-005	5.39641E-002	9.65900E-001	3.57290E+000	9	...........
	142	1.90667	9.67357E-001	9.11127E-005	0.00000E+000	8.81384E-005	5.39641E-002	9.67560E-001	3.57290E+000	9	...........
	143	1.92	9.68988E-001	9.11960E-005	0.00000E+000	8.83679E-005	5.39641E-002	9.69200E-001	3.57290E+000	9	...........
	144	1.93333	9.70619E-001	9.11137E-005	0.00000E+000	8.84367E-005	5.39641E-002	9.70831E-001	3.57290E+000	9	...........
	145	1.94667	9.72236E-001	9.12919E-005	0.00000E+000	8.87572E-005	5.39641E-002	9.72449E-001	3.57290E+000	9	...........
	146	1.96	9.73893E-001	9.07345E-005	0.00000E+000	8.83656E-005	5.39641E-002	9.74069E-001	3.57290E+000	9	...........
	147	1.97333	9.75499E-001	9.10751E-005	0.00000E+000	8.88438E-005	5.39641E-002	9.75689E-001	3.57290E+000	9	...........
	148	1.98667	9.77075E-001	9.10762E-005	0.00000E+000	8.89883E-005	5.39641E-002	9.77296E-001	3.57290E+000	9	...........
	149	2	9.78646E-001	9.10314E-005	0.00000E+000	8.90875E-005	5.39641E-002	9.78858E-001	3.57287E+000	9	...........
	150	2.01333	9.80190E-001	9.10908E-005	0.00000E+000	8.92863E-005	5.39641E-002	9.80394E-001	3.57280E+000	9	...........
	151	2.02667	9.81704E-001	9.10981E-005	0.00000E+000	8.94314E-005	5.39641E-002	9.81912E-001	3.57280E+000	9	...........
	152	2.04	9.83231E-001	9.09199E-005	0.00000E+000	8.93953E-005	5.39641E-002	9.83454E-001	3.57280E+000	9	...........
	153	2.05333	9.84720E-001	9.10793E-005	0.00000E+000	8.96877E-005	5.39641E-002	9.84939E-001	3.57280E+000	9	...........
	154	2.06667	9.86173E-001	9.10283E-005	0.00000E+000	8.97697E-005	5.39641E-002	9.86409E-001	3.57280E+000	9	...........
	155	2.08	9.87643E-001	9.10793E-005	0.00000E+000	8.99538E-005	5.39641E-002	9.87882E-001	3.57280E+000	9	...........
	156	2.09333	9.89098E-001	9.10293E-005	0.00000E+000	9.00369E-005	5.39641E-002	9.89324E-001	3.57280E+000	9	...........
	157	2.10667	9.90514E-001	9.09105E-005	0.00000E+000	9.00481E-005	5.39641E-002	9.90735E-001	3.57280E+000	9	...........
	158	2.12	9.91897E-001	9.09605E-005	0.00000E+000	9.02235E-005	5.39641E-002	9.92117E-001	3.57280E+000	9	...........
	159	2.13333	9.93304E-001	9.10814E-005	0.00000E+000	9.04715E-005	5.39641E-002	9.93516E-001	3.57280E+000	9	...........
	160	2.14667	9.94673E-001	9.13492E-005	0.00000E+000	9.08625E-005	5.39641E-002	9.94881E-001	3.57280E+000	9	...........
	161	2.16	9.96061E-001	9.09814E-005	0.00000E+000	9.06230E-005	5.39641E-002	9.96254E-001	3.57280E+000	9	...........
	162	2.17333	9.97423E-001	9.12346E-005	0.00000E+000	9.09994E-005	5.39641E-002	9.97655E-001	3.57280E+000	9	...........
	163	2.18667	9.98798E-001	9.08980E-005	0.00000E+000	9.07888E-005	5.39641E-002	9.98995E-001	3.57280E+000	9	...........
	164	2.19333	9.99778E-001	9.12043E-005	0.00000E+000	9.11841E-005	5.39641E-002	9.99990E-001	3.57280E+000	9	...........
STARTTIMEOFFSET	QUANT	3081.915	Start Time Offset (s)
