EXPLAIN
TAG	PWR800_CHARGE
TITLE	LABEL	PWR Cyclic Charge Discharge (Cell) - Charge Step	Test &Identifier
DATE	LABEL	10-7-2017	Date
TIME	LABEL	15:31:11	Time
NOTES	NOTES	3	&Notes...
	supercap test cell
	0.9mg
	6M KOH
PSTAT	PSTAT	IFC5000-01520	Potentiostat
CAPACITY	QUANT	1.00000E-003	Capacity (A-hr)
CELLTYPE	SELECTOR	1	&Cell Type
WORKINGCONNECTION	SELECTOR	0	&Working Lead
MAXCHARGETIME	VARIABLEANDUNITS	1.00000E+002	s	1.00000E+002	second(s)	Max &Charge Time
CHARGECURRENT	QUANT	9.00000E-005	&Charge Current (A) 
VOLTAGEFINISH	TWOPARAM	F	1.00000E-003	3.60000E+003	&Voltage Finish	 I (A) < 	Max Time(s)
SAMPLETIME	QUANT	1.00000E-002	Sa&mple Period (s)
CHARGESTOPAT1	MULTIPARAM	4	1.00000E+000	Charge Stop At &1	Voltage > Limit	V
CHARGESTOPAT2	MULTIPARAM	0	0.00000E+000	Charge Stop At &2	None	N/A
AESBHCSELECTOR	TOGGLE	F	Save Both Half Cells
IRCOMP	TOGGLE	F	IR &Measure
EOC	QUANT	0	Open Circuit (V)
SEQUENCER	TOGGLE	TRUE	Run as Sequence
PSTATMODEL	IQUANT	53	Pstat Model
PSTATSECTION	LABEL	IFC5000-01520	Pstat Section
PSTATSERIALNO	LABEL	01520	Pstat Serial Number
CTRLMODE	IQUANT	0	Control Mode
ELECTROMETER	IQUANT	1	RE=0 or CS=1
IESTAB	IQUANT	0	I/E Stability
CASPEED	IQUANT	4	Control Amp Speed
CONVENTION	IQUANT	1	Current Convention
ICHRANGE	IQUANT	2	Ich Range
ICHRANGEMODE	TOGGLE	T	Ich Auto Range
ICHOFFSETENABLE	TOGGLE	F	Ich Offset Enable
ICHOFFSET	QUANT	0	Ich Offset (V)
ICHFILTER	IQUANT	1	Ich Filter
VCHRANGE	IQUANT	2	Vch Range
VCHRANGEMODE	TOGGLE	T	Vch Auto Range
VCHOFFSETENABLE	TOGGLE	F	Vch Offset Enable
VCHOFFSET	QUANT	0	Vch Offset (V)
VCHFILTER	IQUANT	1	Vch Filter
IERANGELOWERLIMIT	IQUANT	9	I/E Range Lower Limit
IERANGEMODE	TOGGLE	F	I/E AutoRange
IERANGE	IQUANT	9	I/E Range
ACHSELECT	IQUANT	1	Ach Select
ACHRANGE	IQUANT	2	Ach Range
ACHOFFSETENABLE	TOGGLE	F	Ach Offset Enable
ACHOFFSET	QUANT	0	Ach Offset (V)
ACHFILTER	IQUANT	1	Ach Filter
CABLEID	IQUANT	14	Cable ID
DCCALDATE	LABEL	5-7-2017	DC Calibration Date
ACCALDATE	LABEL	12/3/2015	AC Calibration Date
FRAMEWORKVERSION	QUANT	7.01	Framework Version
INSTRUMENTVERSION	LABEL	4.00	Instrument Version
CURVE	TABLE	173
	Pt	T	Vf	Im	Vu	Pwr	Sig	Ach	Temp	IERange	Over
	#	s	V	A	V	W	V	V	deg C	#	bits
	0	0.013333	2.78718E-001	9.11866E-005	0.00000E+000	2.54154E-005	5.39641E-002	2.78763E-001	3.57270E+000	9	...........
	1	0.026667	2.98291E-001	9.08876E-005	0.00000E+000	2.71110E-005	5.39641E-002	2.98329E-001	3.57270E+000	9	...........
	2	0.04	3.16479E-001	9.08887E-005	0.00000E+000	2.87643E-005	5.39641E-002	3.16526E-001	3.57270E+000	9	...........
	3	0.053333	3.33487E-001	9.11345E-005	0.00000E+000	3.03922E-005	5.39641E-002	3.33528E-001	3.57270E+000	9	...........
	4	0.066667	3.49505E-001	9.10470E-005	0.00000E+000	3.18214E-005	5.39641E-002	3.49546E-001	3.57270E+000	9	...........
	5	0.08	3.64633E-001	9.10137E-005	0.00000E+000	3.31865E-005	5.39641E-002	3.64677E-001	3.57270E+000	9	...........
	6	0.093333	3.78975E-001	9.10720E-005	0.00000E+000	3.45140E-005	5.39641E-002	3.79024E-001	3.57270E+000	9	...........
	7	0.106667	3.92630E-001	9.08782E-005	0.00000E+000	3.56815E-005	5.39641E-002	3.92676E-001	3.57270E+000	9	...........
	8	0.12	4.05648E-001	9.08855E-005	0.00000E+000	3.68676E-005	5.39641E-002	4.05693E-001	3.57270E+000	9	...........
	9	0.133333	4.18091E-001	9.10835E-005	0.00000E+000	3.80812E-005	5.39641E-002	4.18150E-001	3.57270E+000	9	...........
	10	0.146667	4.30013E-001	9.09397E-005	0.00000E+000	3.91053E-005	5.39641E-002	4.30070E-001	3.57270E+000	9	...........
	11	0.16	4.41453E-001	9.08637E-005	0.00000E+000	4.01120E-005	5.39641E-002	4.41509E-001	3.57270E+000	9	...........
	12	0.173333	4.52459E-001	9.10543E-005	0.00000E+000	4.11983E-005	5.39641E-002	4.52506E-001	3.57270E+000	9	...........
	13	0.186667	4.63055E-001	9.10689E-005	0.00000E+000	4.21699E-005	5.39641E-002	4.63106E-001	3.57270E+000	9	...........
	14	0.2	4.73261E-001	9.08866E-005	0.00000E+000	4.30130E-005	5.39641E-002	4.73326E-001	3.57270E+000	9	...........
	15	0.213333	4.83134E-001	9.10647E-005	0.00000E+000	4.39965E-005	5.39641E-002	4.83199E-001	3.57270E+000	9	...........
	16	0.226667	4.92685E-001	9.10793E-005	0.00000E+000	4.48734E-005	5.39641E-002	4.92750E-001	3.57270E+000	9	...........
	17	0.24	5.01927E-001	9.10074E-005	0.00000E+000	4.56791E-005	5.39641E-002	5.01993E-001	3.57270E+000	9	...........
	18	0.253333	5.10888E-001	9.08105E-005	0.00000E+000	4.63940E-005	5.39641E-002	5.10963E-001	3.57270E+000	9	...........
	19	0.266667	5.19597E-001	9.09293E-005	0.00000E+000	4.72466E-005	5.39641E-002	5.19667E-001	3.57270E+000	9	...........
	20	0.28	5.28045E-001	9.10376E-005	0.00000E+000	4.80720E-005	5.39641E-002	5.28117E-001	3.57270E+000	9	...........
	21	0.293333	5.36172E-001	9.12075E-005	0.00000E+000	4.89029E-005	5.39641E-002	5.36271E-001	3.57270E+000	9	...........
	22	0.306667	5.44140E-001	9.06938E-005	0.00000E+000	4.93501E-005	5.39641E-002	5.44259E-001	3.57270E+000	9	...........
	23	0.32	5.51897E-001	9.09449E-005	0.00000E+000	5.01922E-005	5.39641E-002	5.52001E-001	3.57270E+000	9	...........
	24	0.333333	5.59464E-001	9.12012E-005	0.00000E+000	5.10238E-005	5.39641E-002	5.59580E-001	3.57270E+000	9	...........
	25	0.346667	5.66870E-001	9.11575E-005	0.00000E+000	5.16744E-005	5.39641E-002	5.66974E-001	3.57270E+000	9	...........
	26	0.36	5.74025E-001	9.11595E-005	0.00000E+000	5.23278E-005	5.39641E-002	5.74130E-001	3.57270E+000	9	...........
	27	0.373333	5.81014E-001	9.13033E-005	0.00000E+000	5.30485E-005	5.39641E-002	5.81122E-001	3.57270E+000	9	...........
	28	0.386667	5.87841E-001	9.12596E-005	0.00000E+000	5.36461E-005	5.39641E-002	5.87968E-001	3.57270E+000	9	...........
	29	0.4	5.94537E-001	9.08584E-005	0.00000E+000	5.40187E-005	5.39641E-002	5.94651E-001	3.57270E+000	9	...........
	30	0.413333	6.01051E-001	9.10949E-005	0.00000E+000	5.47527E-005	5.39641E-002	6.01218E-001	3.57270E+000	9	...........
	31	0.426667	6.07430E-001	9.12106E-005	0.00000E+000	5.54040E-005	5.39641E-002	6.07597E-001	3.57270E+000	9	...........
	32	0.44	6.13687E-001	9.12231E-005	0.00000E+000	5.59824E-005	5.39641E-002	6.13846E-001	3.57270E+000	9	...........
	33	0.453333	6.19825E-001	9.09866E-005	0.00000E+000	5.63958E-005	5.39641E-002	6.19941E-001	3.57270E+000	9	...........
	34	0.466667	6.25795E-001	9.08626E-005	0.00000E+000	5.68614E-005	5.39641E-002	6.25913E-001	3.57270E+000	9	...........
	35	0.48	6.31646E-001	9.09553E-005	0.00000E+000	5.74516E-005	5.39641E-002	6.31783E-001	3.57270E+000	9	...........
	36	0.493333	6.37408E-001	9.11262E-005	0.00000E+000	5.80846E-005	5.39641E-002	6.37538E-001	3.57270E+000	9	...........
	37	0.506667	6.43043E-001	9.10074E-005	0.00000E+000	5.85217E-005	5.39641E-002	6.43178E-001	3.57270E+000	9	...........
	38	0.52	6.48552E-001	9.11325E-005	0.00000E+000	5.91042E-005	5.39641E-002	6.48698E-001	3.57270E+000	9	...........
	39	0.533333	6.53969E-001	9.11127E-005	0.00000E+000	5.95849E-005	5.39641E-002	6.54105E-001	3.57270E+000	9	...........
	40	0.546667	6.59270E-001	9.10043E-005	0.00000E+000	5.99964E-005	5.39641E-002	6.59398E-001	3.57270E+000	9	...........
	41	0.56	6.64500E-001	9.11825E-005	0.00000E+000	6.05907E-005	5.39641E-002	6.64632E-001	3.57270E+000	9	...........
	42	0.573333	6.69638E-001	9.11408E-005	0.00000E+000	6.10313E-005	5.39641E-002	6.69754E-001	3.57270E+000	9	...........
	43	0.586667	6.74683E-001	9.08428E-005	0.00000E+000	6.12901E-005	5.39641E-002	6.74783E-001	3.57270E+000	9	...........
	44	0.6	6.79638E-001	9.09522E-005	0.00000E+000	6.18145E-005	5.39641E-002	6.79745E-001	3.57270E+000	9	...........
	45	0.613333	6.84491E-001	9.10512E-005	0.00000E+000	6.23237E-005	5.39641E-002	6.84579E-001	3.57270E+000	9	...........
	46	0.626667	6.89284E-001	9.10543E-005	0.00000E+000	6.27623E-005	5.39641E-002	6.89400E-001	3.57541E+000	9	...........
	47	0.64	6.94013E-001	9.09960E-005	0.00000E+000	6.31524E-005	5.39641E-002	6.94132E-001	3.57580E+000	9	...........
	48	0.653333	6.98640E-001	9.10637E-005	0.00000E+000	6.36207E-005	5.39641E-002	6.98762E-001	3.57580E+000	9	...........
	49	0.666667	7.03213E-001	9.11022E-005	0.00000E+000	6.40642E-005	5.39641E-002	7.03315E-001	3.57580E+000	9	...........
	50	0.68	7.07675E-001	9.10658E-005	0.00000E+000	6.44450E-005	5.39641E-002	7.07801E-001	3.57580E+000	9	...........
	51	0.693333	7.12101E-001	9.11179E-005	0.00000E+000	6.48851E-005	5.39641E-002	7.12216E-001	3.57580E+000	9	...........
	52	0.706667	7.16471E-001	9.08678E-005	0.00000E+000	6.51042E-005	5.39641E-002	7.16593E-001	3.57580E+000	9	...........
	53	0.72	7.20802E-001	9.09345E-005	0.00000E+000	6.55457E-005	5.39641E-002	7.20903E-001	3.57580E+000	9	...........
	54	0.733333	7.25039E-001	9.11700E-005	0.00000E+000	6.61018E-005	5.39641E-002	7.25145E-001	3.57580E+000	9	...........
	55	0.746667	7.29236E-001	9.10960E-005	0.00000E+000	6.64305E-005	5.39641E-002	7.29341E-001	3.57580E+000	9	...........
	56	0.76	7.33339E-001	9.08522E-005	0.00000E+000	6.66254E-005	5.39641E-002	7.33464E-001	3.57580E+000	9	...........
	57	0.773333	7.37391E-001	9.10699E-005	0.00000E+000	6.71542E-005	5.39641E-002	7.37525E-001	3.57580E+000	9	...........
	58	0.786667	7.41428E-001	9.11033E-005	0.00000E+000	6.75465E-005	5.39641E-002	7.41558E-001	3.57580E+000	9	...........
	59	0.8	7.45401E-001	9.10814E-005	0.00000E+000	6.78921E-005	5.39641E-002	7.45525E-001	3.57580E+000	9	...........
	60	0.813333	7.49290E-001	9.11898E-005	0.00000E+000	6.83275E-005	5.39641E-002	7.49377E-001	3.57580E+000	9	...........
	61	0.826667	7.53107E-001	9.11012E-005	0.00000E+000	6.86090E-005	5.39641E-002	7.53214E-001	3.57580E+000	9	...........
	62	0.84	7.56937E-001	9.09824E-005	0.00000E+000	6.88680E-005	5.39641E-002	7.57009E-001	3.57580E+000	9	...........
	63	0.853333	7.60661E-001	9.12054E-005	0.00000E+000	6.93764E-005	5.39641E-002	7.60731E-001	3.57580E+000	9	...........
	64	0.866667	7.64348E-001	9.11866E-005	0.00000E+000	6.96983E-005	5.39641E-002	7.64431E-001	3.57580E+000	9	...........
	65	0.88	7.67994E-001	9.12221E-005	0.00000E+000	7.00580E-005	5.39641E-002	7.68122E-001	3.57580E+000	9	...........
	66	0.893333	7.71627E-001	9.08689E-005	0.00000E+000	7.01168E-005	5.39641E-002	7.71757E-001	3.57580E+000	9	...........
	67	0.906667	7.75217E-001	9.11064E-005	0.00000E+000	7.06272E-005	5.39641E-002	7.75361E-001	3.57580E+000	9	...........
	68	0.92	7.78736E-001	9.12544E-005	0.00000E+000	7.10630E-005	5.39641E-002	7.78886E-001	3.57580E+000	9	...........
	69	0.933333	7.82248E-001	9.10658E-005	0.00000E+000	7.12360E-005	5.39641E-002	7.82382E-001	3.57580E+000	9	...........
	70	0.946667	7.85679E-001	9.11002E-005	0.00000E+000	7.15755E-005	5.39641E-002	7.85817E-001	3.57580E+000	9	...........
	71	0.96	7.89071E-001	9.10387E-005	0.00000E+000	7.18359E-005	5.39641E-002	7.89207E-001	3.57580E+000	9	...........
	72	0.97333	7.92439E-001	9.11304E-005	0.00000E+000	7.22153E-005	5.39641E-002	7.92585E-001	3.57580E+000	9	...........
	73	0.98667	7.95783E-001	9.10845E-005	0.00000E+000	7.24835E-005	5.39641E-002	7.95907E-001	3.57580E+000	9	...........
	74	1	7.99062E-001	9.14284E-005	0.00000E+000	7.30569E-005	5.39641E-002	7.99192E-001	3.57580E+000	9	...........
	75	1.01333	8.02313E-001	9.09095E-005	0.00000E+000	7.29379E-005	5.39641E-002	8.02412E-001	3.57580E+000	9	...........
	76	1.02667	8.05520E-001	9.12398E-005	0.00000E+000	7.34955E-005	5.39641E-002	8.05658E-001	3.57580E+000	9	...........
	77	1.04	8.08679E-001	9.09918E-005	0.00000E+000	7.35832E-005	5.39641E-002	8.08826E-001	3.57580E+000	9	...........
	78	1.05333	8.11811E-001	9.08636E-005	0.00000E+000	7.37641E-005	5.39641E-002	8.11978E-001	3.57580E+000	9	...........
	79	1.06667	8.14928E-001	9.09376E-005	0.00000E+000	7.41076E-005	5.39641E-002	8.15097E-001	3.57580E+000	9	...........
	80	1.08	8.18034E-001	9.11918E-005	0.00000E+000	7.45980E-005	5.39641E-002	8.18202E-001	3.57580E+000	9	...........
	81	1.09333	8.21071E-001	9.10210E-005	0.00000E+000	7.47347E-005	5.39641E-002	8.21240E-001	3.57580E+000	9	...........
	82	1.10667	8.24065E-001	9.12408E-005	0.00000E+000	7.51883E-005	5.39641E-002	8.24240E-001	3.57580E+000	9	...........
	83	1.12	8.27045E-001	9.11283E-005	0.00000E+000	7.53672E-005	5.39641E-002	8.27183E-001	3.57580E+000	9	...........
	84	1.13333	8.29974E-001	9.10324E-005	0.00000E+000	7.55546E-005	5.39641E-002	8.30135E-001	3.57580E+000	9	...........
	85	1.14667	8.32893E-001	9.12033E-005	0.00000E+000	7.59626E-005	5.39641E-002	8.33053E-001	3.57580E+000	9	...........
	86	1.16	8.35759E-001	9.11939E-005	0.00000E+000	7.62162E-005	5.39641E-002	8.35938E-001	3.57580E+000	9	...........
	87	1.17333	8.38631E-001	9.12054E-005	0.00000E+000	7.64877E-005	5.39641E-002	8.38764E-001	3.57580E+000	9	...........
	88	1.18667	8.41427E-001	9.10699E-005	0.00000E+000	7.66287E-005	5.39641E-002	8.41586E-001	3.57580E+000	9	...........
	89	1.2	8.44240E-001	9.11918E-005	0.00000E+000	7.69878E-005	5.39641E-002	8.44399E-001	3.57580E+000	9	...........
	90	1.21333	8.47018E-001	9.11981E-005	0.00000E+000	7.72464E-005	5.39641E-002	8.47160E-001	3.57580E+000	9	...........
	91	1.22667	8.49739E-001	9.11679E-005	0.00000E+000	7.74689E-005	5.39641E-002	8.49911E-001	3.57580E+000	9	...........
	92	1.24	8.52441E-001	9.12481E-005	0.00000E+000	7.77837E-005	5.39641E-002	8.52627E-001	3.57580E+000	9	...........
	93	1.25333	8.55114E-001	9.10908E-005	0.00000E+000	7.78930E-005	5.39641E-002	8.55299E-001	3.57580E+000	9	...........
	94	1.26667	8.57766E-001	9.11033E-005	0.00000E+000	7.81453E-005	5.39641E-002	8.57971E-001	3.57580E+000	9	...........
	95	1.28	8.60411E-001	9.10897E-005	0.00000E+000	7.83746E-005	5.39641E-002	8.60601E-001	3.57580E+000	9	...........
	96	1.29333	8.63022E-001	9.10751E-005	0.00000E+000	7.85998E-005	5.39641E-002	8.63184E-001	3.57580E+000	9	...........
	97	1.30667	8.65551E-001	9.10293E-005	0.00000E+000	7.87905E-005	5.39641E-002	8.65763E-001	3.57580E+000	9	...........
	98	1.32	8.68119E-001	9.09772E-005	0.00000E+000	7.89790E-005	5.39641E-002	8.68329E-001	3.57580E+000	9	...........
	99	1.33333	8.70687E-001	9.09803E-005	0.00000E+000	7.92154E-005	5.39641E-002	8.70879E-001	3.57580E+000	9	...........
	100	1.34667	8.73154E-001	9.12002E-005	0.00000E+000	7.96318E-005	5.39641E-002	8.73361E-001	3.57580E+000	9	...........
	101	1.36	8.75638E-001	9.10616E-005	0.00000E+000	7.97370E-005	5.39641E-002	8.75839E-001	3.57580E+000	9	...........
	102	1.37333	8.78093E-001	9.08011E-005	0.00000E+000	7.97319E-005	5.39641E-002	8.78291E-001	3.57580E+000	9	...........
	103	1.38667	8.80508E-001	9.09658E-005	0.00000E+000	8.00961E-005	5.39641E-002	8.80714E-001	3.57580E+000	9	...........
	104	1.4	8.82913E-001	9.11366E-005	0.00000E+000	8.04657E-005	5.39641E-002	8.83108E-001	3.57580E+000	9	...........
	105	1.41333	8.85277E-001	9.07678E-005	0.00000E+000	8.03547E-005	5.39641E-002	8.85478E-001	3.57580E+000	9	...........
	106	1.42667	8.87622E-001	9.06667E-005	0.00000E+000	8.04778E-005	5.39641E-002	8.87819E-001	3.57580E+000	9	...........
	107	1.44	8.89955E-001	9.10918E-005	0.00000E+000	8.10677E-005	5.39641E-002	8.90159E-001	3.57580E+000	9	...........
	108	1.45333	8.92249E-001	9.10168E-005	0.00000E+000	8.12096E-005	5.39641E-002	8.92467E-001	3.57580E+000	9	...........
	109	1.46667	8.94551E-001	9.10741E-005	0.00000E+000	8.14704E-005	5.39641E-002	8.94782E-001	3.57580E+000	9	...........
	110	1.48	8.96850E-001	9.12804E-005	0.00000E+000	8.18649E-005	5.39641E-002	8.97074E-001	3.57580E+000	9	...........
	111	1.49333	8.99087E-001	9.10345E-005	0.00000E+000	8.18480E-005	5.39641E-002	8.99267E-001	3.57580E+000	9	...........
	112	1.50667	9.01288E-001	9.08251E-005	0.00000E+000	8.18596E-005	5.39641E-002	9.01494E-001	3.57580E+000	9	...........
	113	1.52	9.03485E-001	9.11856E-005	0.00000E+000	8.23848E-005	5.39641E-002	9.03718E-001	3.57580E+000	9	...........
	114	1.53333	9.05656E-001	9.09887E-005	0.00000E+000	8.24045E-005	5.39641E-002	9.05875E-001	3.57580E+000	9	...........
	115	1.54667	9.07816E-001	9.11689E-005	0.00000E+000	8.27646E-005	5.39641E-002	9.08034E-001	3.57580E+000	9	...........
	116	1.56	9.09963E-001	9.11116E-005	0.00000E+000	8.29082E-005	5.39641E-002	9.10157E-001	3.57580E+000	9	...........
	117	1.57333	9.12069E-001	9.11856E-005	0.00000E+000	8.31675E-005	5.39641E-002	9.12268E-001	3.57580E+000	9	...........
	118	1.58667	9.14138E-001	9.13450E-005	0.00000E+000	8.35019E-005	5.39641E-002	9.14350E-001	3.57580E+000	9	...........
	119	1.6	9.16203E-001	9.11116E-005	0.00000E+000	8.34767E-005	5.39641E-002	9.16425E-001	3.57580E+000	9	...........
	120	1.61333	9.18247E-001	9.09741E-005	0.00000E+000	8.35367E-005	5.39641E-002	9.18445E-001	3.57580E+000	9	...........
	121	1.62667	9.20310E-001	9.09543E-005	0.00000E+000	8.37062E-005	5.39641E-002	9.20480E-001	3.57282E+000	9	...........
	122	1.64	9.22370E-001	9.12814E-005	0.00000E+000	8.41952E-005	5.39641E-002	9.22507E-001	3.57240E+000	9	...........
	123	1.65333	9.24328E-001	9.11231E-005	0.00000E+000	8.42276E-005	5.39641E-002	9.24480E-001	3.57240E+000	9	...........
	124	1.66667	9.26283E-001	9.11648E-005	0.00000E+000	8.44443E-005	5.39641E-002	9.26445E-001	3.57240E+000	9	...........
	125	1.68	9.28232E-001	9.09595E-005	0.00000E+000	8.44315E-005	5.39641E-002	9.28394E-001	3.57240E+000	9	...........
	126	1.69333	9.30145E-001	9.11137E-005	0.00000E+000	8.47490E-005	5.39641E-002	9.30300E-001	3.57240E+000	9	...........
	127	1.70667	9.32042E-001	9.09678E-005	0.00000E+000	8.47859E-005	5.39641E-002	9.32205E-001	3.57240E+000	9	...........
	128	1.72	9.33915E-001	9.10710E-005	0.00000E+000	8.50526E-005	5.39641E-002	9.34090E-001	3.57240E+000	9	...........
	129	1.73333	9.35757E-001	9.09970E-005	0.00000E+000	8.51511E-005	5.39641E-002	9.35950E-001	3.57240E+000	9	...........
	130	1.74667	9.37595E-001	9.11220E-005	0.00000E+000	8.54356E-005	5.39641E-002	9.37771E-001	3.57240E+000	9	...........
	131	1.76	9.39381E-001	9.11991E-005	0.00000E+000	8.56707E-005	5.39641E-002	9.39570E-001	3.57240E+000	9	...........
	132	1.77333	9.41177E-001	9.09282E-005	0.00000E+000	8.55796E-005	5.39641E-002	9.41355E-001	3.57240E+000	9	...........
	133	1.78667	9.42940E-001	9.10126E-005	0.00000E+000	8.58195E-005	5.39641E-002	9.43113E-001	3.57240E+000	9	...........
	134	1.8	9.44717E-001	9.11533E-005	0.00000E+000	8.61141E-005	5.39641E-002	9.44898E-001	3.57240E+000	9	...........
	135	1.81333	9.46500E-001	9.09553E-005	0.00000E+000	8.60892E-005	5.39641E-002	9.46673E-001	3.57240E+000	9	...........
	136	1.82667	9.48239E-001	9.09397E-005	0.00000E+000	8.62326E-005	5.39641E-002	9.48415E-001	3.57240E+000	9	...........
	137	1.84	9.49936E-001	9.09262E-005	0.00000E+000	8.63741E-005	5.39641E-002	9.50113E-001	3.57240E+000	9	...........
	138	1.85333	9.51614E-001	9.12710E-005	0.00000E+000	8.68548E-005	5.39641E-002	9.51804E-001	3.57240E+000	9	...........
	139	1.86667	9.53290E-001	9.10147E-005	0.00000E+000	8.67634E-005	5.39641E-002	9.53465E-001	3.57240E+000	9	...........
	140	1.88	9.54931E-001	9.10793E-005	0.00000E+000	8.69744E-005	5.39641E-002	9.55126E-001	3.57240E+000	9	...........
	141	1.89333	9.56567E-001	9.11366E-005	0.00000E+000	8.71783E-005	5.39641E-002	9.56774E-001	3.57240E+000	9	...........
	142	1.90667	9.58213E-001	9.11283E-005	0.00000E+000	8.73203E-005	5.39641E-002	9.58433E-001	3.57240E+000	9	...........
	143	1.92	9.59835E-001	9.09668E-005	0.00000E+000	8.73131E-005	5.39641E-002	9.60058E-001	3.57240E+000	9	...........
	144	1.93333	9.61434E-001	9.11074E-005	0.00000E+000	8.75938E-005	5.39641E-002	9.61670E-001	3.57240E+000	9	...........
	145	1.94667	9.63016E-001	9.11054E-005	0.00000E+000	8.77359E-005	5.39641E-002	9.63240E-001	3.57240E+000	9	...........
	146	1.96	9.64580E-001	9.11033E-005	0.00000E+000	8.78764E-005	5.39641E-002	9.64820E-001	3.57240E+000	9	...........
	147	1.97333	9.66140E-001	9.10856E-005	0.00000E+000	8.80014E-005	5.39641E-002	9.66361E-001	3.57240E+000	9	...........
	148	1.98667	9.67657E-001	9.10220E-005	0.00000E+000	8.80780E-005	5.39641E-002	9.67876E-001	3.57240E+000	9	...........
	149	2	9.69165E-001	9.10199E-005	0.00000E+000	8.82133E-005	5.39641E-002	9.69401E-001	3.57240E+000	9	...........
	150	2.01333	9.70670E-001	9.11689E-005	0.00000E+000	8.84949E-005	5.39641E-002	9.70905E-001	3.57240E+000	9	...........
	151	2.02667	9.72162E-001	9.09345E-005	0.00000E+000	8.84031E-005	5.39641E-002	9.72415E-001	3.57240E+000	9	...........
	152	2.04	9.73693E-001	9.12148E-005	0.00000E+000	8.88151E-005	5.39641E-002	9.73900E-001	3.57240E+000	9	...........
	153	2.05333	9.75176E-001	9.10543E-005	0.00000E+000	8.87939E-005	5.39641E-002	9.75363E-001	3.57240E+000	9	...........
	154	2.06667	9.76616E-001	9.09303E-005	0.00000E+000	8.88040E-005	5.39641E-002	9.76818E-001	3.57240E+000	9	...........
	155	2.08	9.78037E-001	9.10741E-005	0.00000E+000	8.90738E-005	5.39641E-002	9.78238E-001	3.57240E+000	9	...........
	156	2.09333	9.79450E-001	9.09991E-005	0.00000E+000	8.91290E-005	5.39641E-002	9.79649E-001	3.57240E+000	9	...........
	157	2.10667	9.80845E-001	9.08980E-005	0.00000E+000	8.91569E-005	5.39641E-002	9.81036E-001	3.57240E+000	9	...........
	158	2.12	9.82231E-001	9.13075E-005	0.00000E+000	8.96850E-005	5.39641E-002	9.82439E-001	3.57240E+000	9	...........
	159	2.13333	9.83589E-001	9.14356E-005	0.00000E+000	8.99351E-005	5.39641E-002	9.83822E-001	3.57240E+000	9	...........
	160	2.14667	9.84965E-001	9.09001E-005	0.00000E+000	8.95335E-005	5.39641E-002	9.85196E-001	3.57240E+000	9	...........
	161	2.16	9.86340E-001	9.12200E-005	0.00000E+000	8.99739E-005	5.39641E-002	9.86560E-001	3.57240E+000	9	...........
	162	2.17333	9.87683E-001	9.09908E-005	0.00000E+000	8.98700E-005	5.39641E-002	9.87922E-001	3.57240E+000	9	...........
	163	2.18667	9.89015E-001	9.10731E-005	0.00000E+000	9.00726E-005	5.39641E-002	9.89236E-001	3.57240E+000	9	...........
	164	2.2	9.90346E-001	9.11981E-005	0.00000E+000	9.03177E-005	5.39641E-002	9.90547E-001	3.57240E+000	9	...........
	165	2.21333	9.91634E-001	9.09928E-005	0.00000E+000	9.02316E-005	5.39641E-002	9.91866E-001	3.57240E+000	9	...........
	166	2.22667	9.92917E-001	9.12752E-005	0.00000E+000	9.06287E-005	5.39641E-002	9.93139E-001	3.57240E+000	9	...........
	167	2.24	9.94183E-001	9.09960E-005	0.00000E+000	9.04666E-005	5.39641E-002	9.94390E-001	3.57240E+000	9	...........
	168	2.25333	9.95444E-001	9.09949E-005	0.00000E+000	9.05804E-005	5.39641E-002	9.95637E-001	3.57240E+000	9	...........
	169	2.26667	9.96685E-001	9.09189E-005	0.00000E+000	9.06175E-005	5.39641E-002	9.96897E-001	3.57240E+000	9	...........
	170	2.28	9.97949E-001	9.09960E-005	0.00000E+000	9.08093E-005	5.39641E-002	9.98165E-001	3.57240E+000	9	...........
	171	2.29333	9.99157E-001	9.10074E-005	0.00000E+000	9.09307E-005	5.39641E-002	9.99399E-001	3.57240E+000	9	...........
	172	2.29667	9.99926E-001	9.09835E-005	0.00000E+000	9.09767E-005	5.39641E-002	1.00016E+000	3.57240E+000	9	...........
STARTTIMEOFFSET	QUANT	1618.208	Start Time Offset (s)
