EXPLAIN
TAG	PWR800_CHARGE
TITLE	LABEL	PWR Cyclic Charge Discharge (Cell) - Charge Step	Test &Identifier
DATE	LABEL	10-7-2017	Date
TIME	LABEL	15:51:53	Time
NOTES	NOTES	3	&Notes...
	supercap test cell
	0.9mg
	6M KOH
PSTAT	PSTAT	IFC5000-01520	Potentiostat
CAPACITY	QUANT	1.00000E-003	Capacity (A-hr)
CELLTYPE	SELECTOR	1	&Cell Type
WORKINGCONNECTION	SELECTOR	0	&Working Lead
MAXCHARGETIME	VARIABLEANDUNITS	1.00000E+002	s	1.00000E+002	second(s)	Max &Charge Time
CHARGECURRENT	QUANT	9.00000E-005	&Charge Current (A) 
VOLTAGEFINISH	TWOPARAM	F	1.00000E-003	3.60000E+003	&Voltage Finish	 I (A) < 	Max Time(s)
SAMPLETIME	QUANT	1.00000E-002	Sa&mple Period (s)
CHARGESTOPAT1	MULTIPARAM	4	1.00000E+000	Charge Stop At &1	Voltage > Limit	V
CHARGESTOPAT2	MULTIPARAM	0	0.00000E+000	Charge Stop At &2	None	N/A
AESBHCSELECTOR	TOGGLE	F	Save Both Half Cells
IRCOMP	TOGGLE	F	IR &Measure
EOC	QUANT	0	Open Circuit (V)
SEQUENCER	TOGGLE	TRUE	Run as Sequence
PSTATMODEL	IQUANT	53	Pstat Model
PSTATSECTION	LABEL	IFC5000-01520	Pstat Section
PSTATSERIALNO	LABEL	01520	Pstat Serial Number
CTRLMODE	IQUANT	0	Control Mode
ELECTROMETER	IQUANT	1	RE=0 or CS=1
IESTAB	IQUANT	0	I/E Stability
CASPEED	IQUANT	4	Control Amp Speed
CONVENTION	IQUANT	1	Current Convention
ICHRANGE	IQUANT	2	Ich Range
ICHRANGEMODE	TOGGLE	T	Ich Auto Range
ICHOFFSETENABLE	TOGGLE	F	Ich Offset Enable
ICHOFFSET	QUANT	0	Ich Offset (V)
ICHFILTER	IQUANT	1	Ich Filter
VCHRANGE	IQUANT	2	Vch Range
VCHRANGEMODE	TOGGLE	T	Vch Auto Range
VCHOFFSETENABLE	TOGGLE	F	Vch Offset Enable
VCHOFFSET	QUANT	0	Vch Offset (V)
VCHFILTER	IQUANT	1	Vch Filter
IERANGELOWERLIMIT	IQUANT	9	I/E Range Lower Limit
IERANGEMODE	TOGGLE	F	I/E AutoRange
IERANGE	IQUANT	9	I/E Range
ACHSELECT	IQUANT	1	Ach Select
ACHRANGE	IQUANT	2	Ach Range
ACHOFFSETENABLE	TOGGLE	F	Ach Offset Enable
ACHOFFSET	QUANT	0	Ach Offset (V)
ACHFILTER	IQUANT	1	Ach Filter
CABLEID	IQUANT	14	Cable ID
DCCALDATE	LABEL	5-7-2017	DC Calibration Date
ACCALDATE	LABEL	12/3/2015	AC Calibration Date
FRAMEWORKVERSION	QUANT	7.01	Framework Version
INSTRUMENTVERSION	LABEL	4.00	Instrument Version
CURVE	TABLE	167
	Pt	T	Vf	Im	Vu	Pwr	Sig	Ach	Temp	IERange	Over
	#	s	V	A	V	W	V	V	deg C	#	bits
	0	0.013333	2.67721E-001	9.07959E-005	0.00000E+000	2.43079E-005	5.39641E-002	2.67770E-001	3.57300E+000	9	...........
	1	0.026667	2.87525E-001	9.09710E-005	0.00000E+000	2.61564E-005	5.39641E-002	2.87562E-001	3.57300E+000	9	...........
	2	0.04	3.06044E-001	9.08449E-005	0.00000E+000	2.78025E-005	5.39641E-002	3.06087E-001	3.57300E+000	9	...........
	3	0.053333	3.23471E-001	9.10585E-005	0.00000E+000	2.94548E-005	5.39641E-002	3.23512E-001	3.57300E+000	9	...........
	4	0.066667	3.39920E-001	9.08730E-005	0.00000E+000	3.08895E-005	5.39641E-002	3.39964E-001	3.57300E+000	9	...........
	5	0.08	3.55504E-001	9.08793E-005	0.00000E+000	3.23080E-005	5.39641E-002	3.55552E-001	3.57300E+000	9	...........
	6	0.093333	3.70310E-001	9.09637E-005	0.00000E+000	3.36848E-005	5.39641E-002	3.70360E-001	3.57300E+000	9	...........
	7	0.106667	3.84410E-001	9.10553E-005	0.00000E+000	3.50026E-005	5.39641E-002	3.84454E-001	3.57300E+000	9	...........
	8	0.12	3.97850E-001	9.07886E-005	0.00000E+000	3.61202E-005	5.39641E-002	3.97901E-001	3.57300E+000	9	...........
	9	0.133333	4.10698E-001	9.10543E-005	0.00000E+000	3.73958E-005	5.39641E-002	4.10747E-001	3.57300E+000	9	...........
	10	0.146667	4.22999E-001	9.08564E-005	0.00000E+000	3.84321E-005	5.39641E-002	4.23052E-001	3.57300E+000	9	...........
	11	0.16	4.34807E-001	9.09981E-005	0.00000E+000	3.95666E-005	5.39641E-002	4.34863E-001	3.57300E+000	9	...........
	12	0.173333	4.46159E-001	9.11377E-005	0.00000E+000	4.06619E-005	5.39641E-002	4.46219E-001	3.57300E+000	9	...........
	13	0.186667	4.57078E-001	9.08907E-005	0.00000E+000	4.15442E-005	5.39641E-002	4.57137E-001	3.57300E+000	9	...........
	14	0.2	4.67607E-001	9.10095E-005	0.00000E+000	4.25567E-005	5.39641E-002	4.67662E-001	3.57300E+000	9	...........
	15	0.213333	4.77757E-001	9.07292E-005	0.00000E+000	4.33466E-005	5.39641E-002	4.77818E-001	3.57300E+000	9	...........
	16	0.226667	4.87570E-001	9.09574E-005	0.00000E+000	4.43481E-005	5.39641E-002	4.87633E-001	3.57300E+000	9	...........
	17	0.24	4.97046E-001	9.09960E-005	0.00000E+000	4.52292E-005	5.39641E-002	4.97114E-001	3.57300E+000	9	...........
	18	0.253333	5.06230E-001	9.10001E-005	0.00000E+000	4.60670E-005	5.39641E-002	5.06300E-001	3.57300E+000	9	...........
	19	0.266667	5.15138E-001	9.11773E-005	0.00000E+000	4.69689E-005	5.39641E-002	5.15206E-001	3.57300E+000	9	...........
	20	0.28	5.23767E-001	9.10074E-005	0.00000E+000	4.76667E-005	5.39641E-002	5.23841E-001	3.57300E+000	9	...........
	21	0.293333	5.32113E-001	9.07886E-005	0.00000E+000	4.83098E-005	5.39641E-002	5.32185E-001	3.57300E+000	9	...........
	22	0.306667	5.40182E-001	9.09908E-005	0.00000E+000	4.91516E-005	5.39641E-002	5.40329E-001	3.57300E+000	9	...........
	23	0.32	5.48126E-001	9.08647E-005	0.00000E+000	4.98053E-005	5.39641E-002	5.48250E-001	3.57300E+000	9	...........
	24	0.333333	5.55817E-001	9.11074E-005	0.00000E+000	5.06391E-005	5.39641E-002	5.55972E-001	3.57300E+000	9	...........
	25	0.346667	5.63356E-001	9.08126E-005	0.00000E+000	5.11598E-005	5.39641E-002	5.63505E-001	3.57300E+000	9	...........
	26	0.36	5.70696E-001	9.10491E-005	0.00000E+000	5.19614E-005	5.39641E-002	5.70815E-001	3.57300E+000	9	...........
	27	0.373333	5.77829E-001	9.09949E-005	0.00000E+000	5.25795E-005	5.39641E-002	5.77990E-001	3.57300E+000	9	...........
	28	0.386667	5.84823E-001	9.09355E-005	0.00000E+000	5.31812E-005	5.39641E-002	5.84963E-001	3.57300E+000	9	...........
	29	0.4	5.91676E-001	9.11231E-005	0.00000E+000	5.39154E-005	5.39641E-002	5.91817E-001	3.57300E+000	9	...........
	30	0.413333	5.98311E-001	9.09658E-005	0.00000E+000	5.44258E-005	5.39641E-002	5.98456E-001	3.57305E+000	9	...........
	31	0.426667	6.04827E-001	9.08303E-005	0.00000E+000	5.49367E-005	5.39641E-002	6.04981E-001	3.57340E+000	9	...........
	32	0.44	6.11199E-001	9.07803E-005	0.00000E+000	5.54848E-005	5.39641E-002	6.11358E-001	3.57340E+000	9	...........
	33	0.453333	6.17520E-001	9.12158E-005	0.00000E+000	5.63275E-005	5.39641E-002	6.17608E-001	3.57340E+000	9	...........
	34	0.466667	6.23588E-001	9.10679E-005	0.00000E+000	5.67888E-005	5.39641E-002	6.23681E-001	3.57340E+000	9	...........
	35	0.48	6.29565E-001	9.13012E-005	0.00000E+000	5.74801E-005	5.39641E-002	6.29652E-001	3.57340E+000	9	...........
	36	0.493333	6.35392E-001	9.09918E-005	0.00000E+000	5.78155E-005	5.39641E-002	6.35498E-001	3.57340E+000	9	...........
	37	0.506667	6.41160E-001	9.08491E-005	0.00000E+000	5.82488E-005	5.39641E-002	6.41258E-001	3.57340E+000	9	...........
	38	0.52	6.46783E-001	9.09970E-005	0.00000E+000	5.88553E-005	5.39641E-002	6.46873E-001	3.57340E+000	9	...........
	39	0.533333	6.52299E-001	9.11168E-005	0.00000E+000	5.94354E-005	5.39641E-002	6.52400E-001	3.57340E+000	9	...........
	40	0.546667	6.57713E-001	9.08637E-005	0.00000E+000	5.97622E-005	5.39641E-002	6.57803E-001	3.57340E+000	9	...........
	41	0.56	6.63016E-001	9.10418E-005	0.00000E+000	6.03622E-005	5.39641E-002	6.63140E-001	3.57340E+000	9	...........
	42	0.573333	6.68300E-001	9.11616E-005	0.00000E+000	6.09233E-005	5.39641E-002	6.68373E-001	3.57340E+000	9	...........
	43	0.586667	6.73395E-001	9.12200E-005	0.00000E+000	6.14271E-005	5.39641E-002	6.73504E-001	3.57340E+000	9	...........
	44	0.6	6.78451E-001	9.09157E-005	0.00000E+000	6.16819E-005	5.39641E-002	6.78554E-001	3.57340E+000	9	...........
	45	0.613333	6.83419E-001	9.12054E-005	0.00000E+000	6.23315E-005	5.39641E-002	6.83522E-001	3.57340E+000	9	...........
	46	0.626667	6.88285E-001	9.10595E-005	0.00000E+000	6.26749E-005	5.39641E-002	6.88392E-001	3.57340E+000	9	...........
	47	0.64	6.93121E-001	9.11366E-005	0.00000E+000	6.31687E-005	5.39641E-002	6.93232E-001	3.57340E+000	9	...........
	48	0.653333	6.97844E-001	9.10001E-005	0.00000E+000	6.35039E-005	5.39641E-002	6.97952E-001	3.57340E+000	9	...........
	49	0.666667	7.02526E-001	9.10616E-005	0.00000E+000	6.39732E-005	5.39641E-002	7.02650E-001	3.57340E+000	9	...........
	50	0.68	7.07094E-001	9.08355E-005	0.00000E+000	6.42293E-005	5.39641E-002	7.07235E-001	3.57340E+000	9	...........
	51	0.693333	7.11621E-001	9.11366E-005	0.00000E+000	6.48547E-005	5.39641E-002	7.11751E-001	3.57340E+000	9	...........
	52	0.706667	7.16087E-001	9.10387E-005	0.00000E+000	6.51916E-005	5.39641E-002	7.16240E-001	3.57340E+000	9	...........
	53	0.72	7.20529E-001	9.12085E-005	0.00000E+000	6.57184E-005	5.39641E-002	7.20646E-001	3.57340E+000	9	...........
	54	0.733333	7.24868E-001	9.10303E-005	0.00000E+000	6.59850E-005	5.39641E-002	7.24980E-001	3.57340E+000	9	...........
	55	0.746667	7.29130E-001	9.09762E-005	0.00000E+000	6.63334E-005	5.39641E-002	7.29241E-001	3.57340E+000	9	...........
	56	0.76	7.33324E-001	9.10762E-005	0.00000E+000	6.67883E-005	5.39641E-002	7.33458E-001	3.57340E+000	9	...........
	57	0.773333	7.37505E-001	9.09272E-005	0.00000E+000	6.70593E-005	5.39641E-002	7.37628E-001	3.57340E+000	9	...........
	58	0.786667	7.41636E-001	9.11272E-005	0.00000E+000	6.75832E-005	5.39641E-002	7.41789E-001	3.57340E+000	9	...........
	59	0.8	7.45692E-001	9.07230E-005	0.00000E+000	6.76514E-005	5.39641E-002	7.45833E-001	3.57340E+000	9	...........
	60	0.813333	7.49711E-001	9.10303E-005	0.00000E+000	6.82465E-005	5.39641E-002	7.49826E-001	3.57340E+000	9	...........
	61	0.826667	7.53661E-001	9.09835E-005	0.00000E+000	6.85707E-005	5.39641E-002	7.53800E-001	3.57340E+000	9	...........
	62	0.84	7.57588E-001	9.12491E-005	0.00000E+000	6.91292E-005	5.39641E-002	7.57706E-001	3.57340E+000	9	...........
	63	0.853333	7.61427E-001	9.10689E-005	0.00000E+000	6.93423E-005	5.39641E-002	7.61552E-001	3.57340E+000	9	...........
	64	0.866667	7.65199E-001	9.08366E-005	0.00000E+000	6.95081E-005	5.39641E-002	7.65364E-001	3.57340E+000	9	...........
	65	0.88	7.68998E-001	9.09105E-005	0.00000E+000	6.99100E-005	5.39641E-002	7.69140E-001	3.57340E+000	9	...........
	66	0.893333	7.72709E-001	9.11637E-005	0.00000E+000	7.04431E-005	5.39641E-002	7.72844E-001	3.57340E+000	9	...........
	67	0.906667	7.76407E-001	9.08209E-005	0.00000E+000	7.05140E-005	5.39641E-002	7.76522E-001	3.57340E+000	9	...........
	68	0.92	7.80035E-001	9.09543E-005	0.00000E+000	7.09475E-005	5.39641E-002	7.80165E-001	3.57340E+000	9	...........
	69	0.933333	7.83646E-001	9.10293E-005	0.00000E+000	7.13348E-005	5.39641E-002	7.83742E-001	3.57340E+000	9	...........
	70	0.946667	7.87184E-001	9.10991E-005	0.00000E+000	7.17117E-005	5.39641E-002	7.87270E-001	3.57340E+000	9	...........
	71	0.96	7.90661E-001	9.11595E-005	0.00000E+000	7.20763E-005	5.39641E-002	7.90791E-001	3.57340E+000	9	...........
	72	0.97333	7.94147E-001	9.10439E-005	0.00000E+000	7.23023E-005	5.39641E-002	7.94266E-001	3.57340E+000	9	...........
	73	0.98667	7.97559E-001	9.12293E-005	0.00000E+000	7.27608E-005	5.39641E-002	7.97680E-001	3.57340E+000	9	...........
	74	1	8.00957E-001	9.08293E-005	0.00000E+000	7.27504E-005	5.39641E-002	8.01075E-001	3.57340E+000	9	...........
	75	1.01333	8.04301E-001	9.09522E-005	0.00000E+000	7.31530E-005	5.39641E-002	8.04443E-001	3.57340E+000	9	...........
	76	1.02667	8.07621E-001	9.11179E-005	0.00000E+000	7.35887E-005	5.39641E-002	8.07788E-001	3.57340E+000	9	...........
	77	1.04	8.10901E-001	9.10564E-005	0.00000E+000	7.38377E-005	5.39641E-002	8.11078E-001	3.57340E+000	9	...........
	78	1.05333	8.14162E-001	9.09491E-005	0.00000E+000	7.40473E-005	5.39641E-002	8.14302E-001	3.57340E+000	9	...........
	79	1.06667	8.17390E-001	9.08751E-005	0.00000E+000	7.42804E-005	5.39641E-002	8.17547E-001	3.57340E+000	9	...........
	80	1.08	8.20587E-001	9.11502E-005	0.00000E+000	7.47967E-005	5.39641E-002	8.20760E-001	3.57340E+000	9	...........
	81	1.09333	8.23727E-001	9.09595E-005	0.00000E+000	7.49258E-005	5.39641E-002	8.23918E-001	3.57340E+000	9	...........
	82	1.10667	8.26855E-001	9.09449E-005	0.00000E+000	7.51982E-005	5.39641E-002	8.27022E-001	3.57340E+000	9	...........
	83	1.12	8.29956E-001	9.06834E-005	0.00000E+000	7.52632E-005	5.39641E-002	8.30120E-001	3.57340E+000	9	...........
	84	1.13333	8.33009E-001	9.11220E-005	0.00000E+000	7.59055E-005	5.39641E-002	8.33182E-001	3.57340E+000	9	...........
	85	1.14667	8.36013E-001	9.10283E-005	0.00000E+000	7.61008E-005	5.39641E-002	8.36200E-001	3.57340E+000	9	...........
	86	1.16	8.38975E-001	9.13637E-005	0.00000E+000	7.66519E-005	5.39641E-002	8.39173E-001	3.57340E+000	9	...........
	87	1.17333	8.41913E-001	9.09241E-005	0.00000E+000	7.65501E-005	5.39641E-002	8.42099E-001	3.57340E+000	9	...........
	88	1.18667	8.44872E-001	9.10877E-005	0.00000E+000	7.69574E-005	5.39641E-002	8.45044E-001	3.57340E+000	9	...........
	89	1.2	8.47747E-001	9.09105E-005	0.00000E+000	7.70691E-005	5.39641E-002	8.47893E-001	3.57340E+000	9	...........
	90	1.21333	8.50593E-001	9.10637E-005	0.00000E+000	7.74582E-005	5.39641E-002	8.50773E-001	3.57340E+000	9	...........
	91	1.22667	8.53434E-001	9.10897E-005	0.00000E+000	7.77391E-005	5.39641E-002	8.53582E-001	3.57340E+000	9	...........
	92	1.24	8.56202E-001	9.09564E-005	0.00000E+000	7.78770E-005	5.39641E-002	8.56401E-001	3.57340E+000	9	...........
	93	1.25333	8.58974E-001	9.09491E-005	0.00000E+000	7.81229E-005	5.39641E-002	8.59176E-001	3.57340E+000	9	...........
	94	1.26667	8.61741E-001	9.09689E-005	0.00000E+000	7.83916E-005	5.39641E-002	8.61909E-001	3.57340E+000	9	...........
	95	1.28	8.64462E-001	9.08168E-005	0.00000E+000	7.85077E-005	5.39641E-002	8.64666E-001	3.57340E+000	9	...........
	96	1.29333	8.67208E-001	9.09730E-005	0.00000E+000	7.88926E-005	5.39641E-002	8.67427E-001	3.57340E+000	9	...........
	97	1.30667	8.69939E-001	9.09532E-005	0.00000E+000	7.91238E-005	5.39641E-002	8.70144E-001	3.57340E+000	9	...........
	98	1.32	8.72623E-001	9.10762E-005	0.00000E+000	7.94751E-005	5.39641E-002	8.72802E-001	3.57340E+000	9	...........
	99	1.33333	8.75234E-001	9.11689E-005	0.00000E+000	7.97941E-005	5.39641E-002	8.75456E-001	3.57340E+000	9	...........
	100	1.34667	8.77858E-001	9.09376E-005	0.00000E+000	7.98304E-005	5.39641E-002	8.78041E-001	3.57340E+000	9	...........
	101	1.36	8.80416E-001	9.09324E-005	0.00000E+000	8.00583E-005	5.39641E-002	8.80584E-001	3.57340E+000	9	...........
	102	1.37333	8.82970E-001	9.12116E-005	0.00000E+000	8.05372E-005	5.39641E-002	8.83139E-001	3.57340E+000	9	...........
	103	1.38667	8.85486E-001	9.09335E-005	0.00000E+000	8.05203E-005	5.39641E-002	8.85649E-001	3.57340E+000	9	...........
	104	1.4	8.87973E-001	9.10168E-005	0.00000E+000	8.08205E-005	5.39641E-002	8.88139E-001	3.57340E+000	9	...........
	105	1.41333	8.90417E-001	9.10887E-005	0.00000E+000	8.11069E-005	5.39641E-002	8.90587E-001	3.57341E+000	9	...........
	106	1.42667	8.92865E-001	9.11543E-005	0.00000E+000	8.13885E-005	5.39641E-002	8.93026E-001	3.57350E+000	9	...........
	107	1.44	8.95284E-001	9.10001E-005	0.00000E+000	8.14709E-005	5.39641E-002	8.95480E-001	3.57350E+000	9	...........
	108	1.45333	8.97673E-001	9.09095E-005	0.00000E+000	8.16070E-005	5.39641E-002	8.97870E-001	3.57350E+000	9	...........
	109	1.46667	9.00049E-001	9.10699E-005	0.00000E+000	8.19674E-005	5.39641E-002	9.00225E-001	3.57350E+000	9	...........
	110	1.48	9.02379E-001	9.09324E-005	0.00000E+000	8.20555E-005	5.39641E-002	9.02578E-001	3.57350E+000	9	...........
	111	1.49333	9.04690E-001	9.08011E-005	0.00000E+000	8.21468E-005	5.39641E-002	9.04915E-001	3.57350E+000	9	...........
	112	1.50667	9.06955E-001	9.10845E-005	0.00000E+000	8.26096E-005	5.39641E-002	9.07157E-001	3.57350E+000	9	...........
	113	1.52	9.09256E-001	9.10064E-005	0.00000E+000	8.27481E-005	5.39641E-002	9.09444E-001	3.57350E+000	9	...........
	114	1.53333	9.11493E-001	9.13783E-005	0.00000E+000	8.32907E-005	5.39641E-002	9.11653E-001	3.57350E+000	9	...........
	115	1.54667	9.13705E-001	9.11523E-005	0.00000E+000	8.32863E-005	5.39641E-002	9.13877E-001	3.57350E+000	9	...........
	116	1.56	9.15880E-001	9.10324E-005	0.00000E+000	8.33748E-005	5.39641E-002	9.16080E-001	3.57350E+000	9	...........
	117	1.57333	9.18042E-001	9.12200E-005	0.00000E+000	8.37438E-005	5.39641E-002	9.18237E-001	3.57350E+000	9	...........
	118	1.58667	9.20198E-001	9.10293E-005	0.00000E+000	8.37650E-005	5.39641E-002	9.20353E-001	3.57350E+000	9	...........
	119	1.6	9.22350E-001	9.11033E-005	0.00000E+000	8.40291E-005	5.39641E-002	9.22469E-001	3.57350E+000	9	...........
	120	1.61333	9.24419E-001	9.09553E-005	0.00000E+000	8.40809E-005	5.39641E-002	9.24548E-001	3.57350E+000	9	...........
	121	1.62667	9.26500E-001	9.09397E-005	0.00000E+000	8.42556E-005	5.39641E-002	9.26628E-001	3.57350E+000	9	...........
	122	1.64	9.28555E-001	9.08345E-005	0.00000E+000	8.43448E-005	5.39641E-002	9.28684E-001	3.57350E+000	9	...........
	123	1.65333	9.30575E-001	9.13190E-005	0.00000E+000	8.49792E-005	5.39641E-002	9.30723E-001	3.57350E+000	9	...........
	124	1.66667	9.32587E-001	9.10022E-005	0.00000E+000	8.48675E-005	5.39641E-002	9.32732E-001	3.57350E+000	9	...........
	125	1.68	9.34581E-001	9.08366E-005	0.00000E+000	8.48941E-005	5.39641E-002	9.34743E-001	3.57350E+000	9	...........
	126	1.69333	9.36555E-001	9.10314E-005	0.00000E+000	8.52559E-005	5.39641E-002	9.36732E-001	3.57350E+000	9	...........
	127	1.70667	9.38523E-001	9.10126E-005	0.00000E+000	8.54175E-005	5.39641E-002	9.38676E-001	3.57350E+000	9	...........
	128	1.72	9.40426E-001	9.08105E-005	0.00000E+000	8.54006E-005	5.39641E-002	9.40589E-001	3.57350E+000	9	...........
	129	1.73333	9.42331E-001	9.10460E-005	0.00000E+000	8.57954E-005	5.39641E-002	9.42470E-001	3.57350E+000	9	...........
	130	1.74667	9.44219E-001	9.07991E-005	0.00000E+000	8.57342E-005	5.39641E-002	9.44375E-001	3.57350E+000	9	...........
	131	1.76	9.46112E-001	9.09658E-005	0.00000E+000	8.60638E-005	5.39641E-002	9.46275E-001	3.57350E+000	9	...........
	132	1.77333	9.47987E-001	9.07855E-005	0.00000E+000	8.60635E-005	5.39641E-002	9.48159E-001	3.57350E+000	9	...........
	133	1.78667	9.49834E-001	9.10293E-005	0.00000E+000	8.64627E-005	5.39641E-002	9.50005E-001	3.57350E+000	9	...........
	134	1.8	9.51652E-001	9.11470E-005	0.00000E+000	8.67403E-005	5.39641E-002	9.51829E-001	3.57350E+000	9	...........
	135	1.81333	9.53451E-001	9.10783E-005	0.00000E+000	8.68387E-005	5.39641E-002	9.53638E-001	3.57350E+000	9	...........
	136	1.82667	9.55238E-001	9.12606E-005	0.00000E+000	8.71756E-005	5.39641E-002	9.55395E-001	3.57350E+000	9	...........
	137	1.84	9.56989E-001	9.08751E-005	0.00000E+000	8.69665E-005	5.39641E-002	9.57138E-001	3.57350E+000	9	...........
	138	1.85333	9.58696E-001	9.10845E-005	0.00000E+000	8.73223E-005	5.39641E-002	9.58903E-001	3.57350E+000	9	...........
	139	1.86667	9.60409E-001	9.10147E-005	0.00000E+000	8.74114E-005	5.39641E-002	9.60613E-001	3.57350E+000	9	...........
	140	1.88	9.62092E-001	9.11752E-005	0.00000E+000	8.77189E-005	5.39641E-002	9.62311E-001	3.57350E+000	9	...........
	141	1.89333	9.63779E-001	9.11939E-005	0.00000E+000	8.78908E-005	5.39641E-002	9.64013E-001	3.57350E+000	9	...........
	142	1.90667	9.65434E-001	9.09533E-005	0.00000E+000	8.78094E-005	5.39641E-002	9.65649E-001	3.57350E+000	9	...........
	143	1.92	9.67098E-001	9.12669E-005	0.00000E+000	8.82640E-005	5.39641E-002	9.67274E-001	3.57350E+000	9	...........
	144	1.93333	9.68706E-001	9.10699E-005	0.00000E+000	8.82200E-005	5.39641E-002	9.68920E-001	3.57350E+000	9	...........
	145	1.94667	9.70314E-001	9.10251E-005	0.00000E+000	8.83230E-005	5.39641E-002	9.70533E-001	3.57350E+000	9	...........
	146	1.96	9.71918E-001	9.08616E-005	0.00000E+000	8.83100E-005	5.39641E-002	9.72146E-001	3.57350E+000	9	...........
	147	1.97333	9.73525E-001	9.08303E-005	0.00000E+000	8.84256E-005	5.39641E-002	9.73733E-001	3.57350E+000	9	...........
	148	1.98667	9.75102E-001	9.09981E-005	0.00000E+000	8.87324E-005	5.39641E-002	9.75279E-001	3.57350E+000	9	...........
	149	2	9.76620E-001	9.07928E-005	0.00000E+000	8.86700E-005	5.39641E-002	9.76811E-001	3.57350E+000	9	...........
	150	2.01333	9.78155E-001	9.09887E-005	0.00000E+000	8.90011E-005	5.39641E-002	9.78351E-001	3.57350E+000	9	...........
	151	2.02667	9.79666E-001	9.10908E-005	0.00000E+000	8.92385E-005	5.39641E-002	9.79858E-001	3.57350E+000	9	...........
	152	2.04	9.81167E-001	9.08584E-005	0.00000E+000	8.91473E-005	5.39641E-002	9.81339E-001	3.57350E+000	9	...........
	153	2.05333	9.82627E-001	9.10710E-005	0.00000E+000	8.94888E-005	5.39641E-002	9.82819E-001	3.57350E+000	9	...........
	154	2.06667	9.84091E-001	9.10074E-005	0.00000E+000	8.95596E-005	5.39641E-002	9.84269E-001	3.57350E+000	9	...........
	155	2.08	9.85531E-001	9.11345E-005	0.00000E+000	8.98159E-005	5.39641E-002	9.85732E-001	3.57350E+000	9	...........
	156	2.09333	9.86957E-001	9.09064E-005	0.00000E+000	8.97207E-005	5.39641E-002	9.87171E-001	3.57350E+000	9	...........
	157	2.10667	9.88369E-001	9.10460E-005	0.00000E+000	8.99870E-005	5.39641E-002	9.88571E-001	3.57350E+000	9	...........
	158	2.12	9.89771E-001	9.08616E-005	0.00000E+000	8.99321E-005	5.39641E-002	9.89996E-001	3.57350E+000	9	...........
	159	2.13333	9.91173E-001	9.10564E-005	0.00000E+000	9.02526E-005	5.39641E-002	9.91381E-001	3.57350E+000	9	...........
	160	2.14667	9.92522E-001	9.11783E-005	0.00000E+000	9.04965E-005	5.39641E-002	9.92755E-001	3.57350E+000	9	...........
	161	2.16	9.93879E-001	9.07845E-005	0.00000E+000	9.02288E-005	5.39641E-002	9.94114E-001	3.57350E+000	9	...........
	162	2.17333	9.95278E-001	9.11106E-005	0.00000E+000	9.06804E-005	5.39641E-002	9.95454E-001	3.57350E+000	9	...........
	163	2.18667	9.96605E-001	9.08105E-005	0.00000E+000	9.05022E-005	5.39641E-002	9.96825E-001	3.57350E+000	9	...........
	164	2.2	9.97963E-001	9.10668E-005	0.00000E+000	9.08813E-005	5.39641E-002	9.98162E-001	3.57350E+000	9	...........
	165	2.21333	9.99282E-001	9.10918E-005	0.00000E+000	9.10264E-005	5.39641E-002	9.99459E-001	3.57350E+000	9	...........
	166	2.215	1.00005E+000	9.09876E-005	0.00000E+000	9.09918E-005	5.39641E-002	1.00023E+000	3.57350E+000	9	...........
STARTTIMEOFFSET	QUANT	2659.1	Start Time Offset (s)
