EXPLAIN
TAG	PWR800_CHARGE
TITLE	LABEL	PWR Cyclic Charge Discharge (Cell) - Charge Step	Test &Identifier
DATE	LABEL	10-7-2017	Date
TIME	LABEL	15:01:11	Time
NOTES	NOTES	3	&Notes...
	supercap test cell
	0.9mg
	6M KOH
PSTAT	PSTAT	IFC5000-01520	Potentiostat
CAPACITY	QUANT	1.00000E-003	Capacity (A-hr)
CELLTYPE	SELECTOR	1	&Cell Type
WORKINGCONNECTION	SELECTOR	0	&Working Lead
MAXCHARGETIME	VARIABLEANDUNITS	1.00000E+002	s	1.00000E+002	second(s)	Max &Charge Time
CHARGECURRENT	QUANT	9.00000E-005	&Charge Current (A) 
VOLTAGEFINISH	TWOPARAM	F	1.00000E-003	3.60000E+003	&Voltage Finish	 I (A) < 	Max Time(s)
SAMPLETIME	QUANT	1.00000E-002	Sa&mple Period (s)
CHARGESTOPAT1	MULTIPARAM	4	1.00000E+000	Charge Stop At &1	Voltage > Limit	V
CHARGESTOPAT2	MULTIPARAM	0	0.00000E+000	Charge Stop At &2	None	N/A
AESBHCSELECTOR	TOGGLE	F	Save Both Half Cells
IRCOMP	TOGGLE	F	IR &Measure
EOC	QUANT	0	Open Circuit (V)
SEQUENCER	TOGGLE	TRUE	Run as Sequence
PSTATMODEL	IQUANT	53	Pstat Model
PSTATSECTION	LABEL	IFC5000-01520	Pstat Section
PSTATSERIALNO	LABEL	01520	Pstat Serial Number
CTRLMODE	IQUANT	0	Control Mode
ELECTROMETER	IQUANT	1	RE=0 or CS=1
IESTAB	IQUANT	0	I/E Stability
CASPEED	IQUANT	4	Control Amp Speed
CONVENTION	IQUANT	1	Current Convention
ICHRANGE	IQUANT	2	Ich Range
ICHRANGEMODE	TOGGLE	T	Ich Auto Range
ICHOFFSETENABLE	TOGGLE	F	Ich Offset Enable
ICHOFFSET	QUANT	0	Ich Offset (V)
ICHFILTER	IQUANT	1	Ich Filter
VCHRANGE	IQUANT	2	Vch Range
VCHRANGEMODE	TOGGLE	T	Vch Auto Range
VCHOFFSETENABLE	TOGGLE	F	Vch Offset Enable
VCHOFFSET	QUANT	0	Vch Offset (V)
VCHFILTER	IQUANT	1	Vch Filter
IERANGELOWERLIMIT	IQUANT	9	I/E Range Lower Limit
IERANGEMODE	TOGGLE	F	I/E AutoRange
IERANGE	IQUANT	9	I/E Range
ACHSELECT	IQUANT	1	Ach Select
ACHRANGE	IQUANT	2	Ach Range
ACHOFFSETENABLE	TOGGLE	F	Ach Offset Enable
ACHOFFSET	QUANT	0	Ach Offset (V)
ACHFILTER	IQUANT	1	Ach Filter
CABLEID	IQUANT	14	Cable ID
DCCALDATE	LABEL	5-7-2017	DC Calibration Date
ACCALDATE	LABEL	12/3/2015	AC Calibration Date
FRAMEWORKVERSION	QUANT	7.01	Framework Version
INSTRUMENTVERSION	LABEL	4.00	Instrument Version
CURVE	TABLE	211
	Pt	T	Vf	Im	Vu	Pwr	Sig	Ach	Temp	IERange	Over
	#	s	V	A	V	W	V	V	deg C	#	bits
	0	0.013333	2.98838E-001	9.12137E-005	0.00000E+000	2.72581E-005	5.39641E-002	2.98884E-001	3.57110E+000	9	...........
	1	0.026667	3.17097E-001	9.11283E-005	0.00000E+000	2.88965E-005	5.39641E-002	3.17119E-001	3.57110E+000	9	...........
	2	0.04	3.33850E-001	9.14575E-005	0.00000E+000	3.05331E-005	5.39641E-002	3.33880E-001	3.57110E+000	9	...........
	3	0.053333	3.49416E-001	9.11804E-005	0.00000E+000	3.18599E-005	5.39641E-002	3.49441E-001	3.57110E+000	9	...........
	4	0.066667	3.63991E-001	9.12314E-005	0.00000E+000	3.32074E-005	5.39641E-002	3.64015E-001	3.57110E+000	9	...........
	5	0.08	3.77721E-001	9.11575E-005	0.00000E+000	3.44321E-005	5.39641E-002	3.77747E-001	3.57110E+000	9	...........
	6	0.093333	3.90719E-001	9.10824E-005	0.00000E+000	3.55876E-005	5.39641E-002	3.90742E-001	3.57110E+000	9	...........
	7	0.106667	4.03071E-001	9.12012E-005	0.00000E+000	3.67605E-005	5.39641E-002	4.03097E-001	3.57110E+000	9	...........
	8	0.12	4.14862E-001	9.10772E-005	0.00000E+000	3.77845E-005	5.39641E-002	4.14893E-001	3.57110E+000	9	...........
	9	0.133333	4.26151E-001	9.14336E-005	0.00000E+000	3.89645E-005	5.39641E-002	4.26186E-001	3.57110E+000	9	...........
	10	0.146667	4.36980E-001	9.12804E-005	0.00000E+000	3.98877E-005	5.39641E-002	4.37023E-001	3.57110E+000	9	...........
	11	0.16	4.47413E-001	9.11168E-005	0.00000E+000	4.07669E-005	5.39641E-002	4.47455E-001	3.57110E+000	9	...........
	12	0.173333	4.57456E-001	9.10324E-005	0.00000E+000	4.16433E-005	5.39641E-002	4.57496E-001	3.57110E+000	9	...........
	13	0.186667	4.67150E-001	9.12616E-005	0.00000E+000	4.26329E-005	5.39641E-002	4.67185E-001	3.57110E+000	9	...........
	14	0.2	4.76518E-001	9.10168E-005	0.00000E+000	4.33712E-005	5.39641E-002	4.76559E-001	3.57110E+000	9	...........
	15	0.213333	4.85584E-001	9.12481E-005	0.00000E+000	4.43086E-005	5.39641E-002	4.85628E-001	3.57110E+000	9	...........
	16	0.226667	4.94373E-001	9.13085E-005	0.00000E+000	4.51404E-005	5.39641E-002	4.94418E-001	3.57110E+000	9	...........
	17	0.24	5.02892E-001	9.11064E-005	0.00000E+000	4.58167E-005	5.39641E-002	5.02938E-001	3.57110E+000	9	...........
	18	0.253333	5.11180E-001	9.10303E-005	0.00000E+000	4.65329E-005	5.39641E-002	5.11227E-001	3.57110E+000	9	...........
	19	0.266667	5.19228E-001	9.11314E-005	0.00000E+000	4.73180E-005	5.39641E-002	5.19272E-001	3.57110E+000	9	...........
	20	0.28	5.27056E-001	9.12189E-005	0.00000E+000	4.80775E-005	5.39641E-002	5.27101E-001	3.57110E+000	9	...........
	21	0.293333	5.34667E-001	9.12012E-005	0.00000E+000	4.87623E-005	5.39641E-002	5.34715E-001	3.57110E+000	9	...........
	22	0.306667	5.42102E-001	9.13888E-005	0.00000E+000	4.95420E-005	5.39641E-002	5.42174E-001	3.57110E+000	9	...........
	23	0.32	5.49331E-001	9.09084E-005	0.00000E+000	4.99388E-005	5.39641E-002	5.49404E-001	3.57110E+000	9	...........
	24	0.333333	5.56373E-001	9.11939E-005	0.00000E+000	5.07379E-005	5.39641E-002	5.56462E-001	3.57110E+000	9	...........
	25	0.346667	5.63305E-001	9.11377E-005	0.00000E+000	5.13383E-005	5.39641E-002	5.63367E-001	3.57110E+000	9	...........
	26	0.36	5.70057E-001	9.11533E-005	0.00000E+000	5.19626E-005	5.39641E-002	5.70082E-001	3.57110E+000	9	...........
	27	0.373333	5.76608E-001	9.12783E-005	0.00000E+000	5.26318E-005	5.39641E-002	5.76703E-001	3.57110E+000	9	...........
	28	0.386667	5.83032E-001	9.11658E-005	0.00000E+000	5.31526E-005	5.39641E-002	5.83115E-001	3.57110E+000	9	...........
	29	0.4	5.89352E-001	9.12012E-005	0.00000E+000	5.37496E-005	5.39641E-002	5.89442E-001	3.57110E+000	9	...........
	30	0.413333	5.95498E-001	9.13190E-005	0.00000E+000	5.43802E-005	5.39641E-002	5.95578E-001	3.57110E+000	9	...........
	31	0.426667	6.01497E-001	9.11710E-005	0.00000E+000	5.48391E-005	5.39641E-002	6.01576E-001	3.57110E+000	9	...........
	32	0.44	6.07375E-001	9.12700E-005	0.00000E+000	5.54351E-005	5.39641E-002	6.07459E-001	3.57110E+000	9	...........
	33	0.453333	6.13168E-001	9.12387E-005	0.00000E+000	5.59447E-005	5.39641E-002	6.13261E-001	3.57110E+000	9	...........
	34	0.466667	6.18876E-001	9.11345E-005	0.00000E+000	5.64010E-005	5.39641E-002	6.18913E-001	3.57110E+000	9	...........
	35	0.48	6.24405E-001	9.11741E-005	0.00000E+000	5.69296E-005	5.39641E-002	6.24444E-001	3.57110E+000	9	...........
	36	0.493333	6.29803E-001	9.13940E-005	0.00000E+000	5.75602E-005	5.39641E-002	6.29861E-001	3.57110E+000	9	...........
	37	0.506667	6.35121E-001	9.12992E-005	0.00000E+000	5.79860E-005	5.39641E-002	6.35181E-001	3.57110E+000	9	...........
	38	0.52	6.40368E-001	9.10960E-005	0.00000E+000	5.83350E-005	5.39641E-002	6.40427E-001	3.57110E+000	9	...........
	39	0.533333	6.45476E-001	9.12835E-005	0.00000E+000	5.89213E-005	5.39641E-002	6.45537E-001	3.57110E+000	9	...........
	40	0.546667	6.50501E-001	9.11074E-005	0.00000E+000	5.92654E-005	5.39641E-002	6.50560E-001	3.57110E+000	9	...........
	41	0.56	6.55435E-001	9.12210E-005	0.00000E+000	5.97894E-005	5.39641E-002	6.55494E-001	3.57110E+000	9	...........
	42	0.573333	6.60262E-001	9.12262E-005	0.00000E+000	6.02332E-005	5.39641E-002	6.60354E-001	3.57110E+000	9	...........
	43	0.586667	6.65023E-001	9.12377E-005	0.00000E+000	6.06752E-005	5.39641E-002	6.65124E-001	3.57110E+000	9	...........
	44	0.6	6.69725E-001	9.10533E-005	0.00000E+000	6.09807E-005	5.39641E-002	6.69792E-001	3.57110E+000	9	...........
	45	0.613333	6.74301E-001	9.14481E-005	0.00000E+000	6.16635E-005	5.39641E-002	6.74364E-001	3.57110E+000	9	...........
	46	0.626667	6.78786E-001	9.14033E-005	0.00000E+000	6.20433E-005	5.39641E-002	6.78874E-001	3.57110E+000	9	...........
	47	0.64	6.83188E-001	9.09282E-005	0.00000E+000	6.21211E-005	5.39641E-002	6.83278E-001	3.57110E+000	9	...........
	48	0.653333	6.87548E-001	9.10866E-005	0.00000E+000	6.26264E-005	5.39641E-002	6.87628E-001	3.57110E+000	9	...........
	49	0.666667	6.91835E-001	9.09251E-005	0.00000E+000	6.29051E-005	5.39641E-002	6.91919E-001	3.57110E+000	9	...........
	50	0.68	6.96061E-001	9.13460E-005	0.00000E+000	6.35824E-005	5.39641E-002	6.96125E-001	3.57110E+000	9	...........
	51	0.693333	7.00175E-001	9.11877E-005	0.00000E+000	6.38473E-005	5.39641E-002	7.00234E-001	3.57110E+000	9	...........
	52	0.706667	7.04242E-001	9.14252E-005	0.00000E+000	6.43855E-005	5.39641E-002	7.04322E-001	3.57110E+000	9	...........
	53	0.72	7.08231E-001	9.12616E-005	0.00000E+000	6.46343E-005	5.39641E-002	7.08321E-001	3.57110E+000	9	...........
	54	0.733333	7.12171E-001	9.12429E-005	0.00000E+000	6.49805E-005	5.39641E-002	7.12250E-001	3.57110E+000	9	...........
	55	0.746667	7.16047E-001	9.11397E-005	0.00000E+000	6.52604E-005	5.39641E-002	7.16133E-001	3.57110E+000	9	...........
	56	0.76	7.19905E-001	9.10085E-005	0.00000E+000	6.55175E-005	5.39641E-002	7.19963E-001	3.57110E+000	9	...........
	57	0.773333	7.23651E-001	9.11147E-005	0.00000E+000	6.59353E-005	5.39641E-002	7.23709E-001	3.57110E+000	9	...........
	58	0.786667	7.27350E-001	9.12898E-005	0.00000E+000	6.63996E-005	5.39641E-002	7.27408E-001	3.57110E+000	9	...........
	59	0.8	7.30980E-001	9.12481E-005	0.00000E+000	6.67006E-005	5.39641E-002	7.31076E-001	3.57110E+000	9	...........
	60	0.813333	7.34598E-001	9.13117E-005	0.00000E+000	6.70774E-005	5.39641E-002	7.34648E-001	3.57110E+000	9	...........
	61	0.826667	7.38109E-001	9.12867E-005	0.00000E+000	6.73795E-005	5.39641E-002	7.38176E-001	3.57110E+000	9	...........
	62	0.84	7.41606E-001	9.14492E-005	0.00000E+000	6.78192E-005	5.39641E-002	7.41700E-001	3.57110E+000	9	...........
	63	0.853333	7.45056E-001	9.13023E-005	0.00000E+000	6.80253E-005	5.39641E-002	7.45109E-001	3.57110E+000	9	...........
	64	0.866667	7.48427E-001	9.13867E-005	0.00000E+000	6.83962E-005	5.39641E-002	7.48489E-001	3.57151E+000	9	...........
	65	0.88	7.51771E-001	9.12971E-005	0.00000E+000	6.86345E-005	5.39641E-002	7.51831E-001	3.57220E+000	9	...........
	66	0.893333	7.55083E-001	9.13023E-005	0.00000E+000	6.89408E-005	5.39641E-002	7.55139E-001	3.57220E+000	9	...........
	67	0.906667	7.58318E-001	9.11387E-005	0.00000E+000	6.91121E-005	5.39641E-002	7.58382E-001	3.57220E+000	9	...........
	68	0.92	7.61507E-001	9.12971E-005	0.00000E+000	6.95233E-005	5.39641E-002	7.61574E-001	3.57220E+000	9	...........
	69	0.933333	7.64705E-001	9.14284E-005	0.00000E+000	6.99157E-005	5.39641E-002	7.64764E-001	3.57220E+000	9	...........
	70	0.946667	7.67810E-001	9.12700E-005	0.00000E+000	7.00780E-005	5.39641E-002	7.67924E-001	3.57220E+000	9	...........
	71	0.96	7.70895E-001	9.11491E-005	0.00000E+000	7.02664E-005	5.39641E-002	7.70991E-001	3.57220E+000	9	...........
	72	0.97333	7.73951E-001	9.10751E-005	0.00000E+000	7.04877E-005	5.39641E-002	7.74025E-001	3.57220E+000	9	...........
	73	0.98667	7.76937E-001	9.12158E-005	0.00000E+000	7.08690E-005	5.39641E-002	7.77049E-001	3.57220E+000	9	...........
	74	1	7.79907E-001	9.12002E-005	0.00000E+000	7.11277E-005	5.39641E-002	7.80011E-001	3.57220E+000	9	...........
	75	1.01333	7.82843E-001	9.13606E-005	0.00000E+000	7.15210E-005	5.39641E-002	7.82940E-001	3.57220E+000	9	...........
	76	1.02667	7.85744E-001	9.11356E-005	0.00000E+000	7.16093E-005	5.39641E-002	7.85841E-001	3.57220E+000	9	...........
	77	1.04	7.88622E-001	9.10949E-005	0.00000E+000	7.18395E-005	5.39641E-002	7.88679E-001	3.57220E+000	9	...........
	78	1.05333	7.91410E-001	9.09668E-005	0.00000E+000	7.19920E-005	5.39641E-002	7.91546E-001	3.57220E+000	9	...........
	79	1.06667	7.94244E-001	9.13804E-005	0.00000E+000	7.25783E-005	5.39641E-002	7.94346E-001	3.57220E+000	9	...........
	80	1.08	7.96991E-001	9.10178E-005	0.00000E+000	7.25404E-005	5.39641E-002	7.97065E-001	3.57220E+000	9	...........
	81	1.09333	7.99697E-001	9.13502E-005	0.00000E+000	7.30525E-005	5.39641E-002	7.99773E-001	3.57220E+000	9	...........
	82	1.10667	8.02365E-001	9.12512E-005	0.00000E+000	7.32168E-005	5.39641E-002	8.02485E-001	3.57220E+000	9	...........
	83	1.12	8.05026E-001	9.11481E-005	0.00000E+000	7.33766E-005	5.39641E-002	8.05136E-001	3.57220E+000	9	...........
	84	1.13333	8.07662E-001	9.12981E-005	0.00000E+000	7.37381E-005	5.39641E-002	8.07743E-001	3.57220E+000	9	...........
	85	1.14667	8.10222E-001	9.12179E-005	0.00000E+000	7.39068E-005	5.39641E-002	8.10328E-001	3.57220E+000	9	...........
	86	1.16	8.12763E-001	9.12043E-005	0.00000E+000	7.41275E-005	5.39641E-002	8.12875E-001	3.57220E+000	9	...........
	87	1.17333	8.15280E-001	9.12606E-005	0.00000E+000	7.44030E-005	5.39641E-002	8.15382E-001	3.57220E+000	9	...........
	88	1.18667	8.17792E-001	9.13502E-005	0.00000E+000	7.47055E-005	5.39641E-002	8.17896E-001	3.57220E+000	9	...........
	89	1.2	8.20267E-001	9.11731E-005	0.00000E+000	7.47863E-005	5.39641E-002	8.20373E-001	3.57220E+000	9	...........
	90	1.21333	8.22725E-001	9.12710E-005	0.00000E+000	7.50910E-005	5.39641E-002	8.22845E-001	3.57220E+000	9	...........
	91	1.22667	8.25160E-001	9.11522E-005	0.00000E+000	7.52152E-005	5.39641E-002	8.25271E-001	3.57220E+000	9	...........
	92	1.24	8.27562E-001	9.12148E-005	0.00000E+000	7.54859E-005	5.39641E-002	8.27657E-001	3.57220E+000	9	...........
	93	1.25333	8.29939E-001	9.10866E-005	0.00000E+000	7.55964E-005	5.39641E-002	8.30025E-001	3.57220E+000	9	...........
	94	1.26667	8.32299E-001	9.12742E-005	0.00000E+000	7.59674E-005	5.39641E-002	8.32402E-001	3.57220E+000	9	...........
	95	1.28	8.34612E-001	9.11637E-005	0.00000E+000	7.60864E-005	5.39641E-002	8.34712E-001	3.57220E+000	9	...........
	96	1.29333	8.36916E-001	9.12408E-005	0.00000E+000	7.63609E-005	5.39641E-002	8.37023E-001	3.57220E+000	9	...........
	97	1.30667	8.39200E-001	9.14200E-005	0.00000E+000	7.67197E-005	5.39641E-002	8.39297E-001	3.57220E+000	9	...........
	98	1.32	8.41456E-001	9.11575E-005	0.00000E+000	7.67050E-005	5.39641E-002	8.41556E-001	3.57220E+000	9	...........
	99	1.33333	8.43708E-001	9.10908E-005	0.00000E+000	7.68540E-005	5.39641E-002	8.43813E-001	3.57220E+000	9	...........
	100	1.34667	8.45953E-001	9.10210E-005	0.00000E+000	7.69995E-005	5.39641E-002	8.46040E-001	3.57220E+000	9	...........
	101	1.36	8.48122E-001	9.10970E-005	0.00000E+000	7.72614E-005	5.39641E-002	8.48222E-001	3.57220E+000	9	...........
	102	1.37333	8.50291E-001	9.13440E-005	0.00000E+000	7.76689E-005	5.39641E-002	8.50398E-001	3.57220E+000	9	...........
	103	1.38667	8.52444E-001	9.14492E-005	0.00000E+000	7.79553E-005	5.39641E-002	8.52542E-001	3.57220E+000	9	...........
	104	1.4	8.54580E-001	9.12231E-005	0.00000E+000	7.79574E-005	5.39641E-002	8.54682E-001	3.57220E+000	9	...........
	105	1.41333	8.56634E-001	9.11856E-005	0.00000E+000	7.81127E-005	5.39641E-002	8.56791E-001	3.57220E+000	9	...........
	106	1.42667	8.58729E-001	9.12689E-005	0.00000E+000	7.83753E-005	5.39641E-002	8.58873E-001	3.57220E+000	9	...........
	107	1.44	8.60806E-001	9.14044E-005	0.00000E+000	7.86814E-005	5.39641E-002	8.60928E-001	3.57220E+000	9	...........
	108	1.45333	8.62829E-001	9.10877E-005	0.00000E+000	7.85931E-005	5.39641E-002	8.62972E-001	3.57220E+000	9	...........
	109	1.46667	8.64846E-001	9.11908E-005	0.00000E+000	7.88660E-005	5.39641E-002	8.64977E-001	3.57220E+000	9	...........
	110	1.48	8.66871E-001	9.11408E-005	0.00000E+000	7.90073E-005	5.39641E-002	8.66993E-001	3.57220E+000	9	...........
	111	1.49333	8.68849E-001	9.12762E-005	0.00000E+000	7.93052E-005	5.39641E-002	8.68994E-001	3.57220E+000	9	...........
	112	1.50667	8.70831E-001	9.09991E-005	0.00000E+000	7.92448E-005	5.39641E-002	8.70957E-001	3.57220E+000	9	...........
	113	1.52	8.72766E-001	9.11200E-005	0.00000E+000	7.95264E-005	5.39641E-002	8.72888E-001	3.57220E+000	9	...........
	114	1.53333	8.74695E-001	9.13169E-005	0.00000E+000	7.98744E-005	5.39641E-002	8.74809E-001	3.57220E+000	9	...........
	115	1.54667	8.76597E-001	9.11137E-005	0.00000E+000	7.98700E-005	5.39641E-002	8.76704E-001	3.57220E+000	9	...........
	116	1.56	8.78476E-001	9.08366E-005	0.00000E+000	7.97977E-005	5.39641E-002	8.78594E-001	3.57220E+000	9	...........
	117	1.57333	8.80361E-001	9.13815E-005	0.00000E+000	8.04486E-005	5.39641E-002	8.80453E-001	3.57220E+000	9	...........
	118	1.58667	8.82230E-001	9.11450E-005	0.00000E+000	8.04108E-005	5.39641E-002	8.82344E-001	3.57220E+000	9	...........
	119	1.6	8.84063E-001	9.13856E-005	0.00000E+000	8.07907E-005	5.39641E-002	8.84159E-001	3.57220E+000	9	...........
	120	1.61333	8.85866E-001	9.12606E-005	0.00000E+000	8.08447E-005	5.39641E-002	8.85984E-001	3.57220E+000	9	...........
	121	1.62667	8.87651E-001	9.14033E-005	0.00000E+000	8.11342E-005	5.39641E-002	8.87782E-001	3.57220E+000	9	...........
	122	1.64	8.89426E-001	9.13471E-005	0.00000E+000	8.12465E-005	5.39641E-002	8.89556E-001	3.57220E+000	9	...........
	123	1.65333	8.91168E-001	9.12752E-005	0.00000E+000	8.13416E-005	5.39641E-002	8.91323E-001	3.57220E+000	9	...........
	124	1.66667	8.92926E-001	9.12439E-005	0.00000E+000	8.14741E-005	5.39641E-002	8.93073E-001	3.57220E+000	9	...........
	125	1.68	8.94665E-001	9.13731E-005	0.00000E+000	8.17483E-005	5.39641E-002	8.94832E-001	3.57220E+000	9	...........
	126	1.69333	8.96398E-001	9.12273E-005	0.00000E+000	8.17759E-005	5.39641E-002	8.96560E-001	3.57220E+000	9	...........
	127	1.70667	8.98115E-001	9.11491E-005	0.00000E+000	8.18624E-005	5.39641E-002	8.98253E-001	3.57220E+000	9	...........
	128	1.72	8.99809E-001	9.11241E-005	0.00000E+000	8.19943E-005	5.39641E-002	8.99958E-001	3.57220E+000	9	...........
	129	1.73333	9.01476E-001	9.14690E-005	0.00000E+000	8.24571E-005	5.39641E-002	9.01635E-001	3.57220E+000	9	...........
	130	1.74667	9.03159E-001	9.10720E-005	0.00000E+000	8.22525E-005	5.39641E-002	9.03303E-001	3.57220E+000	9	...........
	131	1.76	9.04790E-001	9.13262E-005	0.00000E+000	8.26310E-005	5.39641E-002	9.04945E-001	3.57220E+000	9	...........
	132	1.77333	9.06404E-001	9.10501E-005	0.00000E+000	8.25282E-005	5.39641E-002	9.06564E-001	3.57220E+000	9	...........
	133	1.78667	9.08031E-001	9.12023E-005	0.00000E+000	8.28145E-005	5.39641E-002	9.08217E-001	3.57220E+000	9	...........
	134	1.8	9.09678E-001	9.11272E-005	0.00000E+000	8.28964E-005	5.39641E-002	9.09819E-001	3.57220E+000	9	...........
	135	1.81333	9.11247E-001	9.11648E-005	0.00000E+000	8.30736E-005	5.39641E-002	9.11389E-001	3.57220E+000	9	...........
	136	1.82667	9.12834E-001	9.10856E-005	0.00000E+000	8.31460E-005	5.39641E-002	9.12994E-001	3.57220E+000	9	...........
	137	1.84	9.14406E-001	9.15555E-005	0.00000E+000	8.37188E-005	5.39641E-002	9.14565E-001	3.57220E+000	9	...........
	138	1.85333	9.15964E-001	9.14409E-005	0.00000E+000	8.37565E-005	5.39641E-002	9.16140E-001	3.57220E+000	9	...........
	139	1.86667	9.17501E-001	9.13012E-005	0.00000E+000	8.37689E-005	5.39641E-002	9.17689E-001	3.57168E+000	9	...........
	140	1.88	9.19020E-001	9.09741E-005	0.00000E+000	8.36070E-005	5.39641E-002	9.19207E-001	3.57080E+000	9	...........
	141	1.89333	9.20567E-001	9.09449E-005	0.00000E+000	8.37209E-005	5.39641E-002	9.20718E-001	3.57080E+000	9	...........
	142	1.90667	9.22118E-001	9.10991E-005	0.00000E+000	8.40042E-005	5.39641E-002	9.22243E-001	3.57080E+000	9	...........
	143	1.92	9.23599E-001	9.13481E-005	0.00000E+000	8.43690E-005	5.39641E-002	9.23707E-001	3.57080E+000	9	...........
	144	1.93333	9.25081E-001	9.13377E-005	0.00000E+000	8.44948E-005	5.39641E-002	9.25167E-001	3.57080E+000	9	...........
	145	1.94667	9.26540E-001	9.10481E-005	0.00000E+000	8.43597E-005	5.39641E-002	9.26650E-001	3.57080E+000	9	...........
	146	1.96	9.27999E-001	9.10553E-005	0.00000E+000	8.44993E-005	5.39641E-002	9.28102E-001	3.57080E+000	9	...........
	147	1.97333	9.29452E-001	9.13940E-005	0.00000E+000	8.49463E-005	5.39641E-002	9.29502E-001	3.57080E+000	9	...........
	148	1.98667	9.30863E-001	9.12241E-005	0.00000E+000	8.49172E-005	5.39641E-002	9.30959E-001	3.57080E+000	9	...........
	149	2	9.32263E-001	9.12960E-005	0.00000E+000	8.51120E-005	5.39641E-002	9.32370E-001	3.57080E+000	9	...........
	150	2.01333	9.33678E-001	9.11325E-005	0.00000E+000	8.50883E-005	5.39641E-002	9.33810E-001	3.57080E+000	9	...........
	151	2.02667	9.35053E-001	9.10731E-005	0.00000E+000	8.51582E-005	5.39641E-002	9.35195E-001	3.57080E+000	9	...........
	152	2.04	9.36425E-001	9.10053E-005	0.00000E+000	8.52197E-005	5.39641E-002	9.36581E-001	3.57080E+000	9	...........
	153	2.05333	9.37793E-001	9.13169E-005	0.00000E+000	8.56363E-005	5.39641E-002	9.37945E-001	3.57080E+000	9	...........
	154	2.06667	9.39141E-001	9.12023E-005	0.00000E+000	8.56518E-005	5.39641E-002	9.39298E-001	3.57080E+000	9	...........
	155	2.08	9.40449E-001	9.13200E-005	0.00000E+000	8.58818E-005	5.39641E-002	9.40624E-001	3.57080E+000	9	...........
	156	2.09333	9.41798E-001	9.12825E-005	0.00000E+000	8.59697E-005	5.39641E-002	9.41930E-001	3.57080E+000	9	...........
	157	2.10667	9.43114E-001	9.11887E-005	0.00000E+000	8.60013E-005	5.39641E-002	9.43264E-001	3.57080E+000	9	...........
	158	2.12	9.44433E-001	9.13783E-005	0.00000E+000	8.63007E-005	5.39641E-002	9.44563E-001	3.57080E+000	9	...........
	159	2.13333	9.45754E-001	9.12825E-005	0.00000E+000	8.63307E-005	5.39641E-002	9.45870E-001	3.57080E+000	9	...........
	160	2.14667	9.47096E-001	9.13200E-005	0.00000E+000	8.64888E-005	5.39641E-002	9.47181E-001	3.57080E+000	9	...........
	161	2.16	9.48386E-001	9.13648E-005	0.00000E+000	8.66491E-005	5.39641E-002	9.48485E-001	3.57080E+000	9	...........
	162	2.17333	9.49636E-001	9.10481E-005	0.00000E+000	8.64625E-005	5.39641E-002	9.49755E-001	3.57080E+000	9	...........
	163	2.18667	9.50887E-001	9.11481E-005	0.00000E+000	8.66715E-005	5.39641E-002	9.51009E-001	3.57080E+000	9	...........
	164	2.2	9.52130E-001	9.15169E-005	0.00000E+000	8.71360E-005	5.39641E-002	9.52230E-001	3.57080E+000	9	...........
	165	2.21333	9.53366E-001	9.12960E-005	0.00000E+000	8.70385E-005	5.39641E-002	9.53444E-001	3.57080E+000	9	...........
	166	2.22667	9.54588E-001	9.10970E-005	0.00000E+000	8.69601E-005	5.39641E-002	9.54661E-001	3.57080E+000	9	...........
	167	2.24	9.55806E-001	9.13075E-005	0.00000E+000	8.72722E-005	5.39641E-002	9.55916E-001	3.57080E+000	9	...........
	168	2.25333	9.56995E-001	9.10793E-005	0.00000E+000	8.71625E-005	5.39641E-002	9.57126E-001	3.57080E+000	9	...........
	169	2.26667	9.58196E-001	9.13315E-005	0.00000E+000	8.75134E-005	5.39641E-002	9.58308E-001	3.57080E+000	9	...........
	170	2.28	9.59381E-001	9.14211E-005	0.00000E+000	8.77076E-005	5.39641E-002	9.59493E-001	3.57080E+000	9	...........
	171	2.29333	9.60529E-001	9.12491E-005	0.00000E+000	8.76474E-005	5.39641E-002	9.60656E-001	3.57080E+000	9	...........
	172	2.30667	9.61672E-001	9.12304E-005	0.00000E+000	8.77337E-005	5.39641E-002	9.61854E-001	3.57080E+000	9	...........
	173	2.32	9.62817E-001	9.11168E-005	0.00000E+000	8.77289E-005	5.39641E-002	9.63000E-001	3.57080E+000	9	...........
	174	2.33333	9.63955E-001	9.13981E-005	0.00000E+000	8.81037E-005	5.39641E-002	9.64135E-001	3.57080E+000	9	...........
	175	2.34667	9.65074E-001	9.12002E-005	0.00000E+000	8.80149E-005	5.39641E-002	9.65263E-001	3.57080E+000	9	...........
	176	2.36	9.66200E-001	9.12325E-005	0.00000E+000	8.81488E-005	5.39641E-002	9.66378E-001	3.57080E+000	9	...........
	177	2.37333	9.67304E-001	9.13273E-005	0.00000E+000	8.83412E-005	5.39641E-002	9.67498E-001	3.57080E+000	9	...........
	178	2.38667	9.68412E-001	9.12825E-005	0.00000E+000	8.83990E-005	5.39641E-002	9.68586E-001	3.57080E+000	9	...........
	179	2.4	9.69501E-001	9.13158E-005	0.00000E+000	8.85308E-005	5.39641E-002	9.69683E-001	3.57080E+000	9	...........
	180	2.41333	9.70575E-001	9.12887E-005	0.00000E+000	8.86026E-005	5.39641E-002	9.70801E-001	3.57080E+000	9	...........
	181	2.42667	9.71671E-001	9.12689E-005	0.00000E+000	8.86833E-005	5.39641E-002	9.71895E-001	3.57080E+000	9	...........
	182	2.44	9.72824E-001	9.13242E-005	0.00000E+000	8.88423E-005	5.39641E-002	9.72968E-001	3.57080E+000	9	...........
	183	2.45333	9.73910E-001	9.11116E-005	0.00000E+000	8.87345E-005	5.39641E-002	9.74059E-001	3.57080E+000	9	...........
	184	2.46667	9.74969E-001	9.12075E-005	0.00000E+000	8.89245E-005	5.39641E-002	9.75114E-001	3.57080E+000	9	...........
	185	2.48	9.76030E-001	9.10356E-005	0.00000E+000	8.88534E-005	5.39641E-002	9.76186E-001	3.57080E+000	9	...........
	186	2.49333	9.77078E-001	9.12773E-005	0.00000E+000	8.91850E-005	5.39641E-002	9.77224E-001	3.57080E+000	9	...........
	187	2.50667	9.78102E-001	9.12387E-005	0.00000E+000	8.92407E-005	5.39641E-002	9.78258E-001	3.57080E+000	9	...........
	188	2.52	9.79142E-001	9.13502E-005	0.00000E+000	8.94448E-005	5.39641E-002	9.79275E-001	3.57080E+000	9	...........
	189	2.53333	9.80167E-001	9.11783E-005	0.00000E+000	8.93700E-005	5.39641E-002	9.80299E-001	3.57080E+000	9	...........
	190	2.54667	9.81169E-001	9.12200E-005	0.00000E+000	8.95022E-005	5.39641E-002	9.81305E-001	3.57080E+000	9	...........
	191	2.56	9.82186E-001	9.13387E-005	0.00000E+000	8.97116E-005	5.39641E-002	9.82300E-001	3.57080E+000	9	...........
	192	2.57333	9.83186E-001	9.11502E-005	0.00000E+000	8.96176E-005	5.39641E-002	9.83316E-001	3.57080E+000	9	...........
	193	2.58667	9.84165E-001	9.10543E-005	0.00000E+000	8.96125E-005	5.39641E-002	9.84311E-001	3.57080E+000	9	...........
	194	2.6	9.85153E-001	9.11533E-005	0.00000E+000	8.97999E-005	5.39641E-002	9.85320E-001	3.57080E+000	9	...........
	195	2.61333	9.86136E-001	9.11835E-005	0.00000E+000	8.99193E-005	5.39641E-002	9.86300E-001	3.57080E+000	9	...........
	196	2.62667	9.87098E-001	9.11043E-005	0.00000E+000	8.99288E-005	5.39641E-002	9.87245E-001	3.57080E+000	9	...........
	197	2.64	9.88044E-001	9.13242E-005	0.00000E+000	9.02323E-005	5.39641E-002	9.88186E-001	3.57080E+000	9	...........
	198	2.65333	9.89028E-001	9.13981E-005	0.00000E+000	9.03953E-005	5.39641E-002	9.89121E-001	3.57080E+000	9	...........
	199	2.66667	9.89965E-001	9.11418E-005	0.00000E+000	9.02272E-005	5.39641E-002	9.90085E-001	3.57080E+000	9	...........
	200	2.68	9.90899E-001	9.13742E-005	0.00000E+000	9.05426E-005	5.39641E-002	9.91032E-001	3.57080E+000	9	...........
	201	2.69333	9.91819E-001	9.10710E-005	0.00000E+000	9.03259E-005	5.39641E-002	9.91964E-001	3.57080E+000	9	...........
	202	2.70667	9.92711E-001	9.12710E-005	0.00000E+000	9.06057E-005	5.39641E-002	9.92894E-001	3.57080E+000	9	...........
	203	2.72	9.93652E-001	9.10856E-005	0.00000E+000	9.05074E-005	5.39641E-002	9.93812E-001	3.57080E+000	9	...........
	204	2.73333	9.94597E-001	9.11710E-005	0.00000E+000	9.06784E-005	5.39641E-002	9.94744E-001	3.57080E+000	9	...........
	205	2.74667	9.95504E-001	9.15002E-005	0.00000E+000	9.10889E-005	5.39641E-002	9.95655E-001	3.57080E+000	9	...........
	206	2.76	9.96406E-001	9.15107E-005	0.00000E+000	9.11818E-005	5.39641E-002	9.96565E-001	3.57080E+000	9	...........
	207	2.77333	9.97293E-001	9.12606E-005	0.00000E+000	9.10135E-005	5.39641E-002	9.97494E-001	3.57080E+000	9	...........
	208	2.78667	9.98224E-001	9.11595E-005	0.00000E+000	9.09977E-005	5.39641E-002	9.98376E-001	3.57080E+000	9	...........
	209	2.8	9.99103E-001	9.14138E-005	0.00000E+000	9.13318E-005	5.39641E-002	9.99272E-001	3.57080E+000	9	...........
	210	2.80833	9.99830E-001	9.14194E-005	0.00000E+000	9.14038E-005	5.39641E-002	9.99977E-001	3.57080E+000	9	...........
STARTTIMEOFFSET	QUANT	97.0317	Start Time Offset (s)
