EXPLAIN
TAG	PWR800_CHARGE
TITLE	LABEL	PWR Cyclic Charge Discharge (Cell) - Charge Step	Test &Identifier
DATE	LABEL	10-7-2017	Date
TIME	LABEL	15:23:52	Time
NOTES	NOTES	3	&Notes...
	supercap test cell
	0.9mg
	6M KOH
PSTAT	PSTAT	IFC5000-01520	Potentiostat
CAPACITY	QUANT	1.00000E-003	Capacity (A-hr)
CELLTYPE	SELECTOR	1	&Cell Type
WORKINGCONNECTION	SELECTOR	0	&Working Lead
MAXCHARGETIME	VARIABLEANDUNITS	1.00000E+002	s	1.00000E+002	second(s)	Max &Charge Time
CHARGECURRENT	QUANT	9.00000E-005	&Charge Current (A) 
VOLTAGEFINISH	TWOPARAM	F	1.00000E-003	3.60000E+003	&Voltage Finish	 I (A) < 	Max Time(s)
SAMPLETIME	QUANT	1.00000E-002	Sa&mple Period (s)
CHARGESTOPAT1	MULTIPARAM	4	1.00000E+000	Charge Stop At &1	Voltage > Limit	V
CHARGESTOPAT2	MULTIPARAM	0	0.00000E+000	Charge Stop At &2	None	N/A
AESBHCSELECTOR	TOGGLE	F	Save Both Half Cells
IRCOMP	TOGGLE	F	IR &Measure
EOC	QUANT	0	Open Circuit (V)
SEQUENCER	TOGGLE	TRUE	Run as Sequence
PSTATMODEL	IQUANT	53	Pstat Model
PSTATSECTION	LABEL	IFC5000-01520	Pstat Section
PSTATSERIALNO	LABEL	01520	Pstat Serial Number
CTRLMODE	IQUANT	0	Control Mode
ELECTROMETER	IQUANT	1	RE=0 or CS=1
IESTAB	IQUANT	0	I/E Stability
CASPEED	IQUANT	4	Control Amp Speed
CONVENTION	IQUANT	1	Current Convention
ICHRANGE	IQUANT	2	Ich Range
ICHRANGEMODE	TOGGLE	T	Ich Auto Range
ICHOFFSETENABLE	TOGGLE	F	Ich Offset Enable
ICHOFFSET	QUANT	0	Ich Offset (V)
ICHFILTER	IQUANT	1	Ich Filter
VCHRANGE	IQUANT	2	Vch Range
VCHRANGEMODE	TOGGLE	T	Vch Auto Range
VCHOFFSETENABLE	TOGGLE	F	Vch Offset Enable
VCHOFFSET	QUANT	0	Vch Offset (V)
VCHFILTER	IQUANT	1	Vch Filter
IERANGELOWERLIMIT	IQUANT	9	I/E Range Lower Limit
IERANGEMODE	TOGGLE	F	I/E AutoRange
IERANGE	IQUANT	9	I/E Range
ACHSELECT	IQUANT	1	Ach Select
ACHRANGE	IQUANT	2	Ach Range
ACHOFFSETENABLE	TOGGLE	F	Ach Offset Enable
ACHOFFSET	QUANT	0	Ach Offset (V)
ACHFILTER	IQUANT	1	Ach Filter
CABLEID	IQUANT	14	Cable ID
DCCALDATE	LABEL	5-7-2017	DC Calibration Date
ACCALDATE	LABEL	12/3/2015	AC Calibration Date
FRAMEWORKVERSION	QUANT	7.01	Framework Version
INSTRUMENTVERSION	LABEL	4.00	Instrument Version
CURVE	TABLE	175
	Pt	T	Vf	Im	Vu	Pwr	Sig	Ach	Temp	IERange	Over
	#	s	V	A	V	W	V	V	deg C	#	bits
	0	0.013333	2.81038E-001	9.07678E-005	0.00000E+000	2.55092E-005	5.39641E-002	2.81083E-001	3.57220E+000	9	...........
	1	0.026667	3.00540E-001	9.09626E-005	0.00000E+000	2.73379E-005	5.39641E-002	3.00578E-001	3.57220E+000	9	...........
	2	0.04	3.18617E-001	9.10376E-005	0.00000E+000	2.90061E-005	5.39641E-002	3.18657E-001	3.57220E+000	9	...........
	3	0.053333	3.35513E-001	9.10449E-005	0.00000E+000	3.05467E-005	5.39641E-002	3.35544E-001	3.57240E+000	9	...........
	4	0.066667	3.51395E-001	9.08282E-005	0.00000E+000	3.19166E-005	5.39641E-002	3.51430E-001	3.57260E+000	9	...........
	5	0.08	3.66386E-001	9.11314E-005	0.00000E+000	3.33892E-005	5.39641E-002	3.66428E-001	3.57260E+000	9	...........
	6	0.093333	3.80612E-001	9.12856E-005	0.00000E+000	3.47444E-005	5.39641E-002	3.80653E-001	3.57260E+000	9	...........
	7	0.106667	3.94130E-001	9.10324E-005	0.00000E+000	3.58787E-005	5.39641E-002	3.94173E-001	3.57260E+000	9	...........
	8	0.12	4.07021E-001	9.11866E-005	0.00000E+000	3.71149E-005	5.39641E-002	4.07071E-001	3.57260E+000	9	...........
	9	0.133333	4.19342E-001	9.10106E-005	0.00000E+000	3.81646E-005	5.39641E-002	4.19402E-001	3.57260E+000	9	...........
	10	0.146667	4.31164E-001	9.12158E-005	0.00000E+000	3.93290E-005	5.39641E-002	4.31217E-001	3.57260E+000	9	...........
	11	0.16	4.42517E-001	9.13075E-005	0.00000E+000	4.04051E-005	5.39641E-002	4.42572E-001	3.57260E+000	9	...........
	12	0.173333	4.53435E-001	9.11158E-005	0.00000E+000	4.13151E-005	5.39641E-002	4.53487E-001	3.57260E+000	9	...........
	13	0.186667	4.63950E-001	9.09783E-005	0.00000E+000	4.22093E-005	5.39641E-002	4.64006E-001	3.57260E+000	9	...........
	14	0.2	4.74098E-001	9.11585E-005	0.00000E+000	4.32180E-005	5.39641E-002	4.74157E-001	3.57260E+000	9	...........
	15	0.213333	4.83910E-001	9.09064E-005	0.00000E+000	4.39905E-005	5.39641E-002	4.83969E-001	3.57260E+000	9	...........
	16	0.226667	4.93391E-001	9.10689E-005	0.00000E+000	4.49326E-005	5.39641E-002	4.93456E-001	3.57260E+000	9	...........
	17	0.24	5.02566E-001	9.10564E-005	0.00000E+000	4.57618E-005	5.39641E-002	5.02635E-001	3.57260E+000	9	...........
	18	0.253333	5.11475E-001	9.09251E-005	0.00000E+000	4.65059E-005	5.39641E-002	5.11542E-001	3.57260E+000	9	...........
	19	0.266667	5.20115E-001	9.10012E-005	0.00000E+000	4.73310E-005	5.39641E-002	5.20179E-001	3.57260E+000	9	...........
	20	0.28	5.28506E-001	9.11502E-005	0.00000E+000	4.81734E-005	5.39641E-002	5.28570E-001	3.57260E+000	9	...........
	21	0.293333	5.36582E-001	9.12825E-005	0.00000E+000	4.89805E-005	5.39641E-002	5.36663E-001	3.57260E+000	9	...........
	22	0.306667	5.44508E-001	9.09522E-005	0.00000E+000	4.95242E-005	5.39641E-002	5.44584E-001	3.57260E+000	9	...........
	23	0.32	5.52216E-001	9.10783E-005	0.00000E+000	5.02948E-005	5.39641E-002	5.52287E-001	3.57260E+000	9	...........
	24	0.333333	5.59718E-001	9.11710E-005	0.00000E+000	5.10301E-005	5.39641E-002	5.59805E-001	3.57260E+000	9	...........
	25	0.346667	5.67077E-001	9.11835E-005	0.00000E+000	5.17081E-005	5.39641E-002	5.67131E-001	3.57260E+000	9	...........
	26	0.36	5.74196E-001	9.12377E-005	0.00000E+000	5.23883E-005	5.39641E-002	5.74276E-001	3.57260E+000	9	...........
	27	0.373333	5.81137E-001	9.09876E-005	0.00000E+000	5.28763E-005	5.39641E-002	5.81233E-001	3.57260E+000	9	...........
	28	0.386667	5.87961E-001	9.07334E-005	0.00000E+000	5.33477E-005	5.39641E-002	5.88055E-001	3.57260E+000	9	...........
	29	0.4	5.94611E-001	9.10501E-005	0.00000E+000	5.41394E-005	5.39641E-002	5.94708E-001	3.57260E+000	9	...........
	30	0.413333	6.01101E-001	9.11898E-005	0.00000E+000	5.48143E-005	5.39641E-002	6.01230E-001	3.57260E+000	9	...........
	31	0.426667	6.07438E-001	9.11231E-005	0.00000E+000	5.53517E-005	5.39641E-002	6.07577E-001	3.57260E+000	9	...........
	32	0.44	6.13689E-001	9.12356E-005	0.00000E+000	5.59903E-005	5.39641E-002	6.13828E-001	3.57260E+000	9	...........
	33	0.453333	6.19817E-001	9.10491E-005	0.00000E+000	5.64338E-005	5.39641E-002	6.19919E-001	3.57260E+000	9	...........
	34	0.466667	6.25786E-001	9.09043E-005	0.00000E+000	5.68867E-005	5.39641E-002	6.25894E-001	3.57260E+000	9	...........
	35	0.48	6.31611E-001	9.09335E-005	0.00000E+000	5.74346E-005	5.39641E-002	6.31709E-001	3.57260E+000	9	...........
	36	0.493333	6.37329E-001	9.11054E-005	0.00000E+000	5.80641E-005	5.39641E-002	6.37444E-001	3.57260E+000	9	...........
	37	0.506667	6.42959E-001	9.11366E-005	0.00000E+000	5.85971E-005	5.39641E-002	6.43073E-001	3.57260E+000	9	...........
	38	0.52	6.48469E-001	9.09282E-005	0.00000E+000	5.89641E-005	5.39641E-002	6.48577E-001	3.57260E+000	9	...........
	39	0.533333	6.53912E-001	9.11408E-005	0.00000E+000	5.95980E-005	5.39641E-002	6.54009E-001	3.57260E+000	9	...........
	40	0.546667	6.59199E-001	9.12992E-005	0.00000E+000	6.01843E-005	5.39641E-002	6.59318E-001	3.57260E+000	9	...........
	41	0.56	6.64418E-001	9.09189E-005	0.00000E+000	6.04082E-005	5.39641E-002	6.64547E-001	3.57260E+000	9	...........
	42	0.573333	6.69559E-001	9.10168E-005	0.00000E+000	6.09411E-005	5.39641E-002	6.69679E-001	3.57260E+000	9	...........
	43	0.586667	6.74566E-001	9.13377E-005	0.00000E+000	6.16133E-005	5.39641E-002	6.74677E-001	3.57260E+000	9	...........
	44	0.6	6.79511E-001	9.11679E-005	0.00000E+000	6.19496E-005	5.39641E-002	6.79642E-001	3.57260E+000	9	...........
	45	0.613333	6.84359E-001	9.09366E-005	0.00000E+000	6.22333E-005	5.39641E-002	6.84482E-001	3.57260E+000	9	...........
	46	0.626667	6.89140E-001	9.10387E-005	0.00000E+000	6.27384E-005	5.39641E-002	6.89258E-001	3.57260E+000	9	...........
	47	0.64	6.93843E-001	9.12231E-005	0.00000E+000	6.32945E-005	5.39641E-002	6.93958E-001	3.57260E+000	9	...........
	48	0.653333	6.98437E-001	9.12064E-005	0.00000E+000	6.37020E-005	5.39641E-002	6.98566E-001	3.57260E+000	9	...........
	49	0.666667	7.02991E-001	9.09293E-005	0.00000E+000	6.39225E-005	5.39641E-002	7.03084E-001	3.57260E+000	9	...........
	50	0.68	7.07444E-001	9.08501E-005	0.00000E+000	6.42714E-005	5.39641E-002	7.07565E-001	3.57260E+000	9	...........
	51	0.693333	7.11847E-001	9.12043E-005	0.00000E+000	6.49235E-005	5.39641E-002	7.11966E-001	3.57260E+000	9	...........
	52	0.706667	7.16204E-001	9.08730E-005	0.00000E+000	6.50836E-005	5.39641E-002	7.16340E-001	3.57260E+000	9	...........
	53	0.72	7.20510E-001	9.09751E-005	0.00000E+000	6.55485E-005	5.39641E-002	7.20635E-001	3.57260E+000	9	...........
	54	0.733333	7.24729E-001	9.09564E-005	0.00000E+000	6.59187E-005	5.39641E-002	7.24834E-001	3.57260E+000	9	...........
	55	0.746667	7.28870E-001	9.12304E-005	0.00000E+000	6.64950E-005	5.39641E-002	7.28983E-001	3.57260E+000	9	...........
	56	0.76	7.32952E-001	9.10043E-005	0.00000E+000	6.67018E-005	5.39641E-002	7.33074E-001	3.57260E+000	9	...........
	57	0.773333	7.36954E-001	9.10710E-005	0.00000E+000	6.71151E-005	5.39641E-002	7.37075E-001	3.57260E+000	9	...........
	58	0.786667	7.40934E-001	9.09668E-005	0.00000E+000	6.74004E-005	5.39641E-002	7.41059E-001	3.57260E+000	9	...........
	59	0.8	7.44874E-001	9.13335E-005	0.00000E+000	6.80320E-005	5.39641E-002	7.44985E-001	3.57260E+000	9	...........
	60	0.813333	7.48734E-001	9.12221E-005	0.00000E+000	6.83011E-005	5.39641E-002	7.48836E-001	3.57260E+000	9	...........
	61	0.826667	7.52542E-001	9.12585E-005	0.00000E+000	6.86759E-005	5.39641E-002	7.52672E-001	3.57260E+000	9	...........
	62	0.84	7.56331E-001	9.13377E-005	0.00000E+000	6.90815E-005	5.39641E-002	7.56460E-001	3.57260E+000	9	...........
	63	0.853333	7.60032E-001	9.09751E-005	0.00000E+000	6.91440E-005	5.39641E-002	7.60150E-001	3.57260E+000	9	...........
	64	0.866667	7.63679E-001	9.07886E-005	0.00000E+000	6.93333E-005	5.39641E-002	7.63807E-001	3.57260E+000	9	...........
	65	0.88	7.67316E-001	9.10387E-005	0.00000E+000	6.98555E-005	5.39641E-002	7.67471E-001	3.57260E+000	9	...........
	66	0.893333	7.70923E-001	9.11064E-005	0.00000E+000	7.02360E-005	5.39641E-002	7.71046E-001	3.57260E+000	9	...........
	67	0.906667	7.74446E-001	9.11158E-005	0.00000E+000	7.05643E-005	5.39641E-002	7.74576E-001	3.57260E+000	9	...........
	68	0.92	7.77934E-001	9.10408E-005	0.00000E+000	7.08237E-005	5.39641E-002	7.78059E-001	3.57260E+000	9	...........
	69	0.933333	7.81396E-001	9.11137E-005	0.00000E+000	7.11959E-005	5.39641E-002	7.81541E-001	3.57260E+000	9	...........
	70	0.946667	7.84759E-001	9.10699E-005	0.00000E+000	7.14680E-005	5.39641E-002	7.84906E-001	3.57260E+000	9	...........
	71	0.96	7.88119E-001	9.11856E-005	0.00000E+000	7.18651E-005	5.39641E-002	7.88270E-001	3.57260E+000	9	...........
	72	0.97333	7.91463E-001	9.10981E-005	0.00000E+000	7.21007E-005	5.39641E-002	7.91595E-001	3.57260E+000	9	...........
	73	0.98667	7.94780E-001	9.08897E-005	0.00000E+000	7.22373E-005	5.39641E-002	7.94899E-001	3.57260E+000	9	...........
	74	1	7.97981E-001	9.10981E-005	0.00000E+000	7.26946E-005	5.39641E-002	7.98123E-001	3.57260E+000	9	...........
	75	1.01333	8.01185E-001	9.09553E-005	0.00000E+000	7.28720E-005	5.39641E-002	8.01327E-001	3.57260E+000	9	...........
	76	1.02667	8.04359E-001	9.11637E-005	0.00000E+000	7.33283E-005	5.39641E-002	8.04498E-001	3.57260E+000	9	...........
	77	1.04	8.07501E-001	9.11179E-005	0.00000E+000	7.35778E-005	5.39641E-002	8.07633E-001	3.57260E+000	9	...........
	78	1.05333	8.10570E-001	9.11481E-005	0.00000E+000	7.38819E-005	5.39641E-002	8.10736E-001	3.57265E+000	9	...........
	79	1.06667	8.13653E-001	9.11543E-005	0.00000E+000	7.41680E-005	5.39641E-002	8.13802E-001	3.57270E+000	9	...........
	80	1.08	8.16678E-001	9.11793E-005	0.00000E+000	7.44642E-005	5.39641E-002	8.16842E-001	3.57270E+000	9	...........
	81	1.09333	8.19731E-001	9.08532E-005	0.00000E+000	7.44752E-005	5.39641E-002	8.19866E-001	3.57270E+000	9	...........
	82	1.10667	8.22702E-001	9.09418E-005	0.00000E+000	7.48180E-005	5.39641E-002	8.22825E-001	3.57270E+000	9	...........
	83	1.12	8.25619E-001	9.08095E-005	0.00000E+000	7.49740E-005	5.39641E-002	8.25715E-001	3.57270E+000	9	...........
	84	1.13333	8.28494E-001	9.09095E-005	0.00000E+000	7.53180E-005	5.39641E-002	8.28588E-001	3.57270E+000	9	...........
	85	1.14667	8.31344E-001	9.11762E-005	0.00000E+000	7.57988E-005	5.39641E-002	8.31485E-001	3.57270E+000	9	...........
	86	1.16	8.34181E-001	9.08949E-005	0.00000E+000	7.58228E-005	5.39641E-002	8.34302E-001	3.57270E+000	9	...........
	87	1.17333	8.36981E-001	9.10689E-005	0.00000E+000	7.62229E-005	5.39641E-002	8.37127E-001	3.57270E+000	9	...........
	88	1.18667	8.39774E-001	9.10460E-005	0.00000E+000	7.64581E-005	5.39641E-002	8.39902E-001	3.57270E+000	9	...........
	89	1.2	8.42513E-001	9.10491E-005	0.00000E+000	7.67100E-005	5.39641E-002	8.42653E-001	3.57270E+000	9	...........
	90	1.21333	8.45311E-001	9.11460E-005	0.00000E+000	7.70467E-005	5.39641E-002	8.45451E-001	3.57270E+000	9	...........
	91	1.22667	8.47986E-001	9.12252E-005	0.00000E+000	7.73577E-005	5.39641E-002	8.48159E-001	3.57270E+000	9	...........
	92	1.24	8.50692E-001	9.10668E-005	0.00000E+000	7.74698E-005	5.39641E-002	8.50868E-001	3.57270E+000	9	...........
	93	1.25333	8.53337E-001	9.12002E-005	0.00000E+000	7.78245E-005	5.39641E-002	8.53501E-001	3.57270E+000	9	...........
	94	1.26667	8.55933E-001	9.11314E-005	0.00000E+000	7.80024E-005	5.39641E-002	8.56101E-001	3.57270E+000	9	...........
	95	1.28	8.58505E-001	9.10699E-005	0.00000E+000	7.81840E-005	5.39641E-002	8.58702E-001	3.57270E+000	9	...........
	96	1.29333	8.61093E-001	9.10939E-005	0.00000E+000	7.84404E-005	5.39641E-002	8.61292E-001	3.57270E+000	9	...........
	97	1.30667	8.63637E-001	9.10231E-005	0.00000E+000	7.86109E-005	5.39641E-002	8.63828E-001	3.57270E+000	9	...........
	98	1.32	8.66160E-001	9.11074E-005	0.00000E+000	7.89136E-005	5.39641E-002	8.66358E-001	3.57270E+000	9	...........
	99	1.33333	8.68660E-001	9.09918E-005	0.00000E+000	7.90409E-005	5.39641E-002	8.68852E-001	3.57270E+000	9	...........
	100	1.34667	8.71137E-001	9.10668E-005	0.00000E+000	7.93317E-005	5.39641E-002	8.71328E-001	3.57270E+000	9	...........
	101	1.36	8.73587E-001	9.09209E-005	0.00000E+000	7.94273E-005	5.39641E-002	8.73776E-001	3.57270E+000	9	...........
	102	1.37333	8.75988E-001	9.09720E-005	0.00000E+000	7.96903E-005	5.39641E-002	8.76184E-001	3.57270E+000	9	...........
	103	1.38667	8.78407E-001	9.11345E-005	0.00000E+000	8.00532E-005	5.39641E-002	8.78588E-001	3.57270E+000	9	...........
	104	1.4	8.80783E-001	9.11147E-005	0.00000E+000	8.02523E-005	5.39641E-002	8.80968E-001	3.57270E+000	9	...........
	105	1.41333	8.83154E-001	9.13012E-005	0.00000E+000	8.06330E-005	5.39641E-002	8.83339E-001	3.57270E+000	9	...........
	106	1.42667	8.85481E-001	9.11356E-005	0.00000E+000	8.06988E-005	5.39641E-002	8.85661E-001	3.57270E+000	9	...........
	107	1.44	8.87767E-001	9.08782E-005	0.00000E+000	8.06787E-005	5.39641E-002	8.87963E-001	3.57270E+000	9	...........
	108	1.45333	8.90062E-001	9.10220E-005	0.00000E+000	8.10152E-005	5.39641E-002	8.90226E-001	3.57270E+000	9	...........
	109	1.46667	8.92310E-001	9.12325E-005	0.00000E+000	8.14076E-005	5.39641E-002	8.92497E-001	3.57270E+000	9	...........
	110	1.48	8.94517E-001	9.10428E-005	0.00000E+000	8.14394E-005	5.39641E-002	8.94729E-001	3.57270E+000	9	...........
	111	1.49333	8.96753E-001	9.11293E-005	0.00000E+000	8.17205E-005	5.39641E-002	8.96953E-001	3.57270E+000	9	...........
	112	1.50667	8.98919E-001	9.12283E-005	0.00000E+000	8.20068E-005	5.39641E-002	8.99097E-001	3.57270E+000	9	...........
	113	1.52	9.01077E-001	9.13627E-005	0.00000E+000	8.23248E-005	5.39641E-002	9.01262E-001	3.57270E+000	9	...........
	114	1.53333	9.03226E-001	9.11074E-005	0.00000E+000	8.22907E-005	5.39641E-002	9.03427E-001	3.57270E+000	9	...........
	115	1.54667	9.05345E-001	9.12356E-005	0.00000E+000	8.25997E-005	5.39641E-002	9.05548E-001	3.57270E+000	9	...........
	116	1.56	9.07442E-001	9.10970E-005	0.00000E+000	8.26652E-005	5.39641E-002	9.07647E-001	3.57270E+000	9	...........
	117	1.57333	9.09534E-001	9.10606E-005	0.00000E+000	8.28227E-005	5.39641E-002	9.09724E-001	3.57270E+000	9	...........
	118	1.58667	9.11586E-001	9.12106E-005	0.00000E+000	8.31463E-005	5.39641E-002	9.11780E-001	3.57270E+000	9	...........
	119	1.6	9.13632E-001	9.08303E-005	0.00000E+000	8.29854E-005	5.39641E-002	9.13807E-001	3.57270E+000	9	...........
	120	1.61333	9.15642E-001	9.10866E-005	0.00000E+000	8.34028E-005	5.39641E-002	9.15804E-001	3.57270E+000	9	...........
	121	1.62667	9.17633E-001	9.10397E-005	0.00000E+000	8.35411E-005	5.39641E-002	9.17828E-001	3.57270E+000	9	...........
	122	1.64	9.19618E-001	9.10116E-005	0.00000E+000	8.36959E-005	5.39641E-002	9.19800E-001	3.57270E+000	9	...........
	123	1.65333	9.21641E-001	9.09658E-005	0.00000E+000	8.38378E-005	5.39641E-002	9.21817E-001	3.57270E+000	9	...........
	124	1.66667	9.23568E-001	9.13575E-005	0.00000E+000	8.43748E-005	5.39641E-002	9.23739E-001	3.57270E+000	9	...........
	125	1.68	9.25486E-001	9.10595E-005	0.00000E+000	8.42743E-005	5.39641E-002	9.25643E-001	3.57270E+000	9	...........
	126	1.69333	9.27384E-001	9.10033E-005	0.00000E+000	8.43950E-005	5.39641E-002	9.27553E-001	3.57270E+000	9	...........
	127	1.70667	9.29256E-001	9.10116E-005	0.00000E+000	8.45731E-005	5.39641E-002	9.29407E-001	3.57270E+000	9	...........
	128	1.72	9.31097E-001	9.12179E-005	0.00000E+000	8.49327E-005	5.39641E-002	9.31279E-001	3.57270E+000	9	...........
	129	1.73333	9.32942E-001	9.08480E-005	0.00000E+000	8.47560E-005	5.39641E-002	9.33128E-001	3.57270E+000	9	...........
	130	1.74667	9.34779E-001	9.11043E-005	0.00000E+000	8.51624E-005	5.39641E-002	9.34972E-001	3.57270E+000	9	...........
	131	1.76	9.36598E-001	9.11731E-005	0.00000E+000	8.53925E-005	5.39641E-002	9.36775E-001	3.57270E+000	9	...........
	132	1.77333	9.38377E-001	9.11095E-005	0.00000E+000	8.54951E-005	5.39641E-002	9.38580E-001	3.57270E+000	9	...........
	133	1.78667	9.40145E-001	9.10595E-005	0.00000E+000	8.56092E-005	5.39641E-002	9.40320E-001	3.57270E+000	9	...........
	134	1.8	9.41901E-001	9.09803E-005	0.00000E+000	8.56944E-005	5.39641E-002	9.42059E-001	3.57270E+000	9	...........
	135	1.81333	9.43628E-001	9.10053E-005	0.00000E+000	8.58752E-005	5.39641E-002	9.43795E-001	3.57270E+000	9	...........
	136	1.82667	9.45336E-001	9.12210E-005	0.00000E+000	8.62345E-005	5.39641E-002	9.45528E-001	3.57270E+000	9	...........
	137	1.84	9.47124E-001	9.11804E-005	0.00000E+000	8.63591E-005	5.39641E-002	9.47291E-001	3.57270E+000	9	...........
	138	1.85333	9.48810E-001	9.09980E-005	0.00000E+000	8.63398E-005	5.39641E-002	9.48990E-001	3.57270E+000	9	...........
	139	1.86667	9.50481E-001	9.12616E-005	0.00000E+000	8.67425E-005	5.39641E-002	9.50649E-001	3.57270E+000	9	...........
	140	1.88	9.52120E-001	9.10731E-005	0.00000E+000	8.67125E-005	5.39641E-002	9.52296E-001	3.57270E+000	9	...........
	141	1.89333	9.53754E-001	9.09189E-005	0.00000E+000	8.67142E-005	5.39641E-002	9.53934E-001	3.57270E+000	9	...........
	142	1.90667	9.55377E-001	9.10845E-005	0.00000E+000	8.70201E-005	5.39641E-002	9.55556E-001	3.57270E+000	9	...........
	143	1.92	9.56964E-001	9.09532E-005	0.00000E+000	8.70390E-005	5.39641E-002	9.57168E-001	3.57270E+000	9	...........
	144	1.93333	9.58554E-001	9.10335E-005	0.00000E+000	8.72605E-005	5.39641E-002	9.58748E-001	3.57270E+000	9	...........
	145	1.94667	9.60150E-001	9.10793E-005	0.00000E+000	8.74498E-005	5.39641E-002	9.60344E-001	3.57270E+000	9	...........
	146	1.96	9.61696E-001	9.10574E-005	0.00000E+000	8.75695E-005	5.39641E-002	9.61919E-001	3.57270E+000	9	...........
	147	1.97333	9.63217E-001	9.09720E-005	0.00000E+000	8.76258E-005	5.39641E-002	9.63444E-001	3.57270E+000	9	...........
	148	1.98667	9.64759E-001	9.10970E-005	0.00000E+000	8.78867E-005	5.39641E-002	9.64964E-001	3.57270E+000	9	...........
	149	2	9.66279E-001	9.12658E-005	0.00000E+000	8.81882E-005	5.39641E-002	9.66444E-001	3.57270E+000	9	...........
	150	2.01333	9.67778E-001	9.12460E-005	0.00000E+000	8.83059E-005	5.39641E-002	9.67958E-001	3.57270E+000	9	...........
	151	2.02667	9.69246E-001	9.08251E-005	0.00000E+000	8.80319E-005	5.39641E-002	9.69423E-001	3.57270E+000	9	...........
	152	2.04	9.70673E-001	9.12908E-005	0.00000E+000	8.86135E-005	5.39641E-002	9.70885E-001	3.57270E+000	9	...........
	153	2.05333	9.72152E-001	9.10158E-005	0.00000E+000	8.84812E-005	5.39641E-002	9.72364E-001	3.57240E+000	9	...........
	154	2.06667	9.73634E-001	9.11210E-005	0.00000E+000	8.87185E-005	5.39641E-002	9.73794E-001	3.57210E+000	9	...........
	155	2.08	9.75074E-001	9.09720E-005	0.00000E+000	8.87045E-005	5.39641E-002	9.75245E-001	3.57210E+000	9	...........
	156	2.09333	9.76499E-001	9.12596E-005	0.00000E+000	8.91148E-005	5.39641E-002	9.76665E-001	3.57210E+000	9	...........
	157	2.10667	9.77909E-001	9.11637E-005	0.00000E+000	8.91498E-005	5.39641E-002	9.78092E-001	3.57210E+000	9	...........
	158	2.12	9.79302E-001	9.10220E-005	0.00000E+000	8.91381E-005	5.39641E-002	9.79496E-001	3.57210E+000	9	...........
	159	2.13333	9.80670E-001	9.09335E-005	0.00000E+000	8.91757E-005	5.39641E-002	9.80854E-001	3.57210E+000	9	...........
	160	2.14667	9.82034E-001	9.13085E-005	0.00000E+000	8.96681E-005	5.39641E-002	9.82190E-001	3.57210E+000	9	...........
	161	2.16	9.83354E-001	9.11418E-005	0.00000E+000	8.96246E-005	5.39641E-002	9.83529E-001	3.57210E+000	9	...........
	162	2.17333	9.84694E-001	9.12491E-005	0.00000E+000	8.98525E-005	5.39641E-002	9.84854E-001	3.57210E+000	9	...........
	163	2.18667	9.86027E-001	9.07490E-005	0.00000E+000	8.94810E-005	5.39641E-002	9.86187E-001	3.57210E+000	9	...........
	164	2.2	9.87304E-001	9.13690E-005	0.00000E+000	9.02089E-005	5.39641E-002	9.87489E-001	3.57210E+000	9	...........
	165	2.21333	9.88634E-001	9.11533E-005	0.00000E+000	9.01173E-005	5.39641E-002	9.88805E-001	3.57210E+000	9	...........
	166	2.22667	9.89915E-001	9.10835E-005	0.00000E+000	9.01649E-005	5.39641E-002	9.90094E-001	3.57210E+000	9	...........
	167	2.24	9.91158E-001	9.11762E-005	0.00000E+000	9.03700E-005	5.39641E-002	9.91350E-001	3.57210E+000	9	...........
	168	2.25333	9.92386E-001	9.12054E-005	0.00000E+000	9.05109E-005	5.39641E-002	9.92592E-001	3.57210E+000	9	...........
	169	2.26667	9.93654E-001	9.12502E-005	0.00000E+000	9.06711E-005	5.39641E-002	9.93839E-001	3.57210E+000	9	...........
	170	2.28	9.94887E-001	9.07584E-005	0.00000E+000	9.02943E-005	5.39641E-002	9.95067E-001	3.57210E+000	9	...........
	171	2.29333	9.96101E-001	9.10606E-005	0.00000E+000	9.07055E-005	5.39641E-002	9.96294E-001	3.57210E+000	9	...........
	172	2.30667	9.97304E-001	9.09595E-005	0.00000E+000	9.07143E-005	5.39641E-002	9.97522E-001	3.57210E+000	9	...........
	173	2.32	9.98540E-001	9.10418E-005	0.00000E+000	9.09089E-005	5.39641E-002	9.98749E-001	3.57210E+000	9	...........
	174	2.33167	9.99642E-001	9.10996E-005	0.00000E+000	9.10669E-005	5.39641E-002	9.99846E-001	3.57210E+000	9	...........
STARTTIMEOFFSET	QUANT	1247.917	Start Time Offset (s)
