EXPLAIN
TAG	PWR800_CHARGE
TITLE	LABEL	PWR Cyclic Charge Discharge (Cell) - Charge Step	Test &Identifier
DATE	LABEL	10-7-2017	Date
TIME	LABEL	16:09:54	Time
NOTES	NOTES	3	&Notes...
	supercap test cell
	0.9mg
	6M KOH
PSTAT	PSTAT	IFC5000-01520	Potentiostat
CAPACITY	QUANT	1.00000E-003	Capacity (A-hr)
CELLTYPE	SELECTOR	1	&Cell Type
WORKINGCONNECTION	SELECTOR	0	&Working Lead
MAXCHARGETIME	VARIABLEANDUNITS	1.00000E+002	s	1.00000E+002	second(s)	Max &Charge Time
CHARGECURRENT	QUANT	9.00000E-005	&Charge Current (A) 
VOLTAGEFINISH	TWOPARAM	F	1.00000E-003	3.60000E+003	&Voltage Finish	 I (A) < 	Max Time(s)
SAMPLETIME	QUANT	1.00000E-002	Sa&mple Period (s)
CHARGESTOPAT1	MULTIPARAM	4	1.00000E+000	Charge Stop At &1	Voltage > Limit	V
CHARGESTOPAT2	MULTIPARAM	0	0.00000E+000	Charge Stop At &2	None	N/A
AESBHCSELECTOR	TOGGLE	F	Save Both Half Cells
IRCOMP	TOGGLE	F	IR &Measure
EOC	QUANT	0	Open Circuit (V)
SEQUENCER	TOGGLE	TRUE	Run as Sequence
PSTATMODEL	IQUANT	53	Pstat Model
PSTATSECTION	LABEL	IFC5000-01520	Pstat Section
PSTATSERIALNO	LABEL	01520	Pstat Serial Number
CTRLMODE	IQUANT	0	Control Mode
ELECTROMETER	IQUANT	1	RE=0 or CS=1
IESTAB	IQUANT	0	I/E Stability
CASPEED	IQUANT	4	Control Amp Speed
CONVENTION	IQUANT	1	Current Convention
ICHRANGE	IQUANT	2	Ich Range
ICHRANGEMODE	TOGGLE	T	Ich Auto Range
ICHOFFSETENABLE	TOGGLE	F	Ich Offset Enable
ICHOFFSET	QUANT	0	Ich Offset (V)
ICHFILTER	IQUANT	1	Ich Filter
VCHRANGE	IQUANT	2	Vch Range
VCHRANGEMODE	TOGGLE	T	Vch Auto Range
VCHOFFSETENABLE	TOGGLE	F	Vch Offset Enable
VCHOFFSET	QUANT	0	Vch Offset (V)
VCHFILTER	IQUANT	1	Vch Filter
IERANGELOWERLIMIT	IQUANT	9	I/E Range Lower Limit
IERANGEMODE	TOGGLE	F	I/E AutoRange
IERANGE	IQUANT	9	I/E Range
ACHSELECT	IQUANT	1	Ach Select
ACHRANGE	IQUANT	2	Ach Range
ACHOFFSETENABLE	TOGGLE	F	Ach Offset Enable
ACHOFFSET	QUANT	0	Ach Offset (V)
ACHFILTER	IQUANT	1	Ach Filter
CABLEID	IQUANT	14	Cable ID
DCCALDATE	LABEL	5-7-2017	DC Calibration Date
ACCALDATE	LABEL	12/3/2015	AC Calibration Date
FRAMEWORKVERSION	QUANT	7.01	Framework Version
INSTRUMENTVERSION	LABEL	4.00	Instrument Version
CURVE	TABLE	163
	Pt	T	Vf	Im	Vu	Pwr	Sig	Ach	Temp	IERange	Over
	#	s	V	A	V	W	V	V	deg C	#	bits
	0	0.013333	2.66349E-001	9.10356E-005	0.00000E+000	2.42472E-005	5.39641E-002	2.66380E-001	3.57310E+000	9	...........
	1	0.026667	2.86080E-001	9.09209E-005	0.00000E+000	2.60106E-005	5.39641E-002	2.86116E-001	3.57310E+000	9	...........
	2	0.04	3.04602E-001	9.11002E-005	0.00000E+000	2.77493E-005	5.39641E-002	3.04644E-001	3.57310E+000	9	...........
	3	0.053333	3.22079E-001	9.10147E-005	0.00000E+000	2.93139E-005	5.39641E-002	3.22119E-001	3.57310E+000	9	...........
	4	0.066667	3.38626E-001	9.10574E-005	0.00000E+000	3.08344E-005	5.39641E-002	3.38664E-001	3.57310E+000	9	...........
	5	0.08	3.54311E-001	9.09803E-005	0.00000E+000	3.22354E-005	5.39641E-002	3.54364E-001	3.57310E+000	9	...........
	6	0.093333	3.69239E-001	9.08303E-005	0.00000E+000	3.35381E-005	5.39641E-002	3.69289E-001	3.57310E+000	9	...........
	7	0.106667	3.83450E-001	9.09501E-005	0.00000E+000	3.48748E-005	5.39641E-002	3.83496E-001	3.57310E+000	9	...........
	8	0.12	3.97021E-001	9.10845E-005	0.00000E+000	3.61625E-005	5.39641E-002	3.97072E-001	3.57310E+000	9	...........
	9	0.133333	4.09989E-001	9.07990E-005	0.00000E+000	3.72266E-005	5.39641E-002	4.10046E-001	3.57310E+000	9	...........
	10	0.146667	4.22414E-001	9.10001E-005	0.00000E+000	3.84397E-005	5.39641E-002	4.22466E-001	3.57310E+000	9	...........
	11	0.16	4.34329E-001	9.08282E-005	0.00000E+000	3.94493E-005	5.39641E-002	4.34389E-001	3.57310E+000	9	...........
	12	0.173333	4.45772E-001	9.07178E-005	0.00000E+000	4.04395E-005	5.39641E-002	4.45836E-001	3.57310E+000	9	...........
	13	0.186667	4.56798E-001	9.08918E-005	0.00000E+000	4.15192E-005	5.39641E-002	4.56857E-001	3.57310E+000	9	...........
	14	0.2	4.67415E-001	9.09241E-005	0.00000E+000	4.24992E-005	5.39641E-002	4.67480E-001	3.57310E+000	9	...........
	15	0.213333	4.77660E-001	9.12679E-005	0.00000E+000	4.35950E-005	5.39641E-002	4.77725E-001	3.57310E+000	9	...........
	16	0.226667	4.87553E-001	9.11502E-005	0.00000E+000	4.44406E-005	5.39641E-002	4.87614E-001	3.57310E+000	9	...........
	17	0.24	4.97106E-001	9.09095E-005	0.00000E+000	4.51917E-005	5.39641E-002	4.97181E-001	3.57310E+000	9	...........
	18	0.253333	5.06345E-001	9.09293E-005	0.00000E+000	4.60416E-005	5.39641E-002	5.06420E-001	3.57310E+000	9	...........
	19	0.266667	5.15286E-001	9.10522E-005	0.00000E+000	4.69180E-005	5.39641E-002	5.15362E-001	3.57310E+000	9	...........
	20	0.28	5.23964E-001	9.08918E-005	0.00000E+000	4.76241E-005	5.39641E-002	5.24039E-001	3.57310E+000	9	...........
	21	0.293333	5.32348E-001	9.07230E-005	0.00000E+000	4.82962E-005	5.39641E-002	5.32421E-001	3.57310E+000	9	...........
	22	0.306667	5.40497E-001	9.11325E-005	0.00000E+000	4.92569E-005	5.39641E-002	5.40616E-001	3.57310E+000	9	...........
	23	0.32	5.48447E-001	9.09001E-005	0.00000E+000	4.98539E-005	5.39641E-002	5.48556E-001	3.57310E+000	9	...........
	24	0.333333	5.56191E-001	9.08814E-005	0.00000E+000	5.05474E-005	5.39641E-002	5.56287E-001	3.57310E+000	9	...........
	25	0.346667	5.63757E-001	9.12210E-005	0.00000E+000	5.14265E-005	5.39641E-002	5.63873E-001	3.57310E+000	9	...........
	26	0.36	5.71115E-001	9.10418E-005	0.00000E+000	5.19953E-005	5.39641E-002	5.71206E-001	3.57310E+000	9	...........
	27	0.373333	5.78279E-001	9.09960E-005	0.00000E+000	5.26210E-005	5.39641E-002	5.78411E-001	3.57310E+000	9	...........
	28	0.386667	5.85285E-001	9.09751E-005	0.00000E+000	5.32464E-005	5.39641E-002	5.85388E-001	3.57310E+000	9	...........
	29	0.4	5.92148E-001	9.12658E-005	0.00000E+000	5.40428E-005	5.39641E-002	5.92272E-001	3.57310E+000	9	...........
	30	0.413333	5.98828E-001	9.10501E-005	0.00000E+000	5.45233E-005	5.39641E-002	5.98943E-001	3.57310E+000	9	...........
	31	0.426667	6.05350E-001	9.10616E-005	0.00000E+000	5.51242E-005	5.39641E-002	6.05468E-001	3.57310E+000	9	...........
	32	0.44	6.11751E-001	9.12773E-005	0.00000E+000	5.58390E-005	5.39641E-002	6.11886E-001	3.57310E+000	9	...........
	33	0.453333	6.18096E-001	9.09824E-005	0.00000E+000	5.62359E-005	5.39641E-002	6.18171E-001	3.57310E+000	9	...........
	34	0.466667	6.24226E-001	9.09293E-005	0.00000E+000	5.67604E-005	5.39641E-002	6.24288E-001	3.57310E+000	9	...........
	35	0.48	6.30207E-001	9.08991E-005	0.00000E+000	5.72852E-005	5.39641E-002	6.30302E-001	3.57310E+000	9	...........
	36	0.493333	6.36085E-001	9.11168E-005	0.00000E+000	5.79581E-005	5.39641E-002	6.36168E-001	3.57310E+000	9	...........
	37	0.506667	6.41837E-001	9.10512E-005	0.00000E+000	5.84401E-005	5.39641E-002	6.41967E-001	3.57310E+000	9	...........
	38	0.52	6.47503E-001	9.10387E-005	0.00000E+000	5.89478E-005	5.39641E-002	6.47593E-001	3.57310E+000	9	...........
	39	0.533333	6.53012E-001	9.09626E-005	0.00000E+000	5.93996E-005	5.39641E-002	6.53153E-001	3.57310E+000	9	...........
	40	0.546667	6.58439E-001	9.06897E-005	0.00000E+000	5.97136E-005	5.39641E-002	6.58596E-001	3.57310E+000	9	...........
	41	0.56	6.63782E-001	9.09720E-005	0.00000E+000	6.03856E-005	5.39641E-002	6.63943E-001	3.57310E+000	9	...........
	42	0.573333	6.69081E-001	9.09168E-005	0.00000E+000	6.08307E-005	5.39641E-002	6.69205E-001	3.57310E+000	9	...........
	43	0.586667	6.74242E-001	9.10679E-005	0.00000E+000	6.14018E-005	5.39641E-002	6.74377E-001	3.57310E+000	9	...........
	44	0.6	6.79334E-001	9.09689E-005	0.00000E+000	6.17982E-005	5.39641E-002	6.79480E-001	3.57310E+000	9	...........
	45	0.613333	6.84308E-001	9.09824E-005	0.00000E+000	6.22600E-005	5.39641E-002	6.84453E-001	3.57310E+000	9	...........
	46	0.626667	6.89222E-001	9.11137E-005	0.00000E+000	6.27976E-005	5.39641E-002	6.89370E-001	3.57310E+000	9	...........
	47	0.64	6.94099E-001	9.10428E-005	0.00000E+000	6.31928E-005	5.39641E-002	6.94198E-001	3.57310E+000	9	...........
	48	0.653333	6.98852E-001	9.09001E-005	0.00000E+000	6.35257E-005	5.39641E-002	6.98974E-001	3.57310E+000	9	...........
	49	0.666667	7.03535E-001	9.11533E-005	0.00000E+000	6.41295E-005	5.39641E-002	7.03672E-001	3.57310E+000	9	...........
	50	0.68	7.08164E-001	9.11898E-005	0.00000E+000	6.45773E-005	5.39641E-002	7.08310E-001	3.57310E+000	9	...........
	51	0.693333	7.12704E-001	9.06292E-005	0.00000E+000	6.45918E-005	5.39641E-002	7.12849E-001	3.57310E+000	9	...........
	52	0.706667	7.17233E-001	9.07647E-005	0.00000E+000	6.50994E-005	5.39641E-002	7.17384E-001	3.57410E+000	9	...........
	53	0.72	7.21668E-001	9.09230E-005	0.00000E+000	6.56163E-005	5.39641E-002	7.21801E-001	3.57410E+000	9	...........
	54	0.733333	7.26051E-001	9.09345E-005	0.00000E+000	6.60231E-005	5.39641E-002	7.26173E-001	3.57410E+000	9	...........
	55	0.746667	7.30381E-001	9.12127E-005	0.00000E+000	6.66200E-005	5.39641E-002	7.30521E-001	3.57410E+000	9	...........
	56	0.76	7.34652E-001	9.09262E-005	0.00000E+000	6.67991E-005	5.39641E-002	7.34783E-001	3.57410E+000	9	...........
	57	0.773333	7.38857E-001	9.08814E-005	0.00000E+000	6.71483E-005	5.39641E-002	7.38990E-001	3.57410E+000	9	...........
	58	0.786667	7.43054E-001	9.09064E-005	0.00000E+000	6.75483E-005	5.39641E-002	7.43208E-001	3.57410E+000	9	...........
	59	0.8	7.47173E-001	9.09407E-005	0.00000E+000	6.79484E-005	5.39641E-002	7.47306E-001	3.57410E+000	9	...........
	60	0.813333	7.51227E-001	9.11002E-005	0.00000E+000	6.84369E-005	5.39641E-002	7.51340E-001	3.57410E+000	9	...........
	61	0.826667	7.55224E-001	9.11866E-005	0.00000E+000	6.88664E-005	5.39641E-002	7.55367E-001	3.57410E+000	9	...........
	62	0.84	7.59193E-001	9.09376E-005	0.00000E+000	6.90392E-005	5.39641E-002	7.59331E-001	3.57410E+000	9	...........
	63	0.853333	7.63095E-001	9.08616E-005	0.00000E+000	6.93360E-005	5.39641E-002	7.63206E-001	3.57410E+000	9	...........
	64	0.866667	7.66937E-001	9.10439E-005	0.00000E+000	6.98250E-005	5.39641E-002	7.67086E-001	3.57410E+000	9	...........
	65	0.88	7.70779E-001	9.09574E-005	0.00000E+000	7.01080E-005	5.39641E-002	7.70911E-001	3.57410E+000	9	...........
	66	0.893333	7.74534E-001	9.10543E-005	0.00000E+000	7.05247E-005	5.39641E-002	7.74669E-001	3.57410E+000	9	...........
	67	0.906667	7.78257E-001	9.08459E-005	0.00000E+000	7.07014E-005	5.39641E-002	7.78416E-001	3.57410E+000	9	...........
	68	0.92	7.81972E-001	9.11335E-005	0.00000E+000	7.12638E-005	5.39641E-002	7.82109E-001	3.57410E+000	9	...........
	69	0.933333	7.85599E-001	9.11356E-005	0.00000E+000	7.15960E-005	5.39641E-002	7.85710E-001	3.57410E+000	9	...........
	70	0.946667	7.89191E-001	9.10387E-005	0.00000E+000	7.18469E-005	5.39641E-002	7.89331E-001	3.57410E+000	9	...........
	71	0.96	7.92772E-001	9.10845E-005	0.00000E+000	7.22093E-005	5.39641E-002	7.92937E-001	3.57410E+000	9	...........
	72	0.97333	7.96326E-001	9.10303E-005	0.00000E+000	7.24898E-005	5.39641E-002	7.96472E-001	3.57410E+000	9	...........
	73	0.98667	7.99800E-001	9.08689E-005	0.00000E+000	7.26769E-005	5.39641E-002	7.99950E-001	3.57410E+000	9	...........
	74	1	8.03240E-001	9.09043E-005	0.00000E+000	7.30179E-005	5.39641E-002	8.03390E-001	3.57410E+000	9	...........
	75	1.01333	8.06615E-001	9.08626E-005	0.00000E+000	7.32911E-005	5.39641E-002	8.06786E-001	3.57410E+000	9	...........
	76	1.02667	8.09982E-001	9.09470E-005	0.00000E+000	7.36654E-005	5.39641E-002	8.10135E-001	3.57410E+000	9	...........
	77	1.04	8.13333E-001	9.13523E-005	0.00000E+000	7.42999E-005	5.39641E-002	8.13495E-001	3.57410E+000	9	...........
	78	1.05333	8.16628E-001	9.11272E-005	0.00000E+000	7.44171E-005	5.39641E-002	8.16808E-001	3.57410E+000	9	...........
	79	1.06667	8.19936E-001	9.10637E-005	0.00000E+000	7.46664E-005	5.39641E-002	8.20078E-001	3.57410E+000	9	...........
	80	1.08	8.23129E-001	9.09970E-005	0.00000E+000	7.49023E-005	5.39641E-002	8.23296E-001	3.57410E+000	9	...........
	81	1.09333	8.26308E-001	9.07470E-005	0.00000E+000	7.49849E-005	5.39641E-002	8.26472E-001	3.57410E+000	9	...........
	82	1.10667	8.29472E-001	9.10533E-005	0.00000E+000	7.55261E-005	5.39641E-002	8.29641E-001	3.57410E+000	9	...........
	83	1.12	8.32570E-001	9.10908E-005	0.00000E+000	7.58395E-005	5.39641E-002	8.32751E-001	3.57410E+000	9	...........
	84	1.13333	8.35647E-001	9.09824E-005	0.00000E+000	7.60291E-005	5.39641E-002	8.35846E-001	3.57410E+000	9	...........
	85	1.14667	8.38728E-001	9.10262E-005	0.00000E+000	7.63462E-005	5.39641E-002	8.38912E-001	3.57410E+000	9	...........
	86	1.16	8.41755E-001	9.10793E-005	0.00000E+000	7.66665E-005	5.39641E-002	8.41944E-001	3.57410E+000	9	...........
	87	1.17333	8.44814E-001	9.09897E-005	0.00000E+000	7.68693E-005	5.39641E-002	8.44997E-001	3.57410E+000	9	...........
	88	1.18667	8.47799E-001	9.09314E-005	0.00000E+000	7.70915E-005	5.39641E-002	8.47982E-001	3.57410E+000	9	...........
	89	1.2	8.50748E-001	9.12377E-005	0.00000E+000	7.76203E-005	5.39641E-002	8.50931E-001	3.57410E+000	9	...........
	90	1.21333	8.53659E-001	9.08188E-005	0.00000E+000	7.75284E-005	5.39641E-002	8.53833E-001	3.57410E+000	9	...........
	91	1.22667	8.56577E-001	9.08918E-005	0.00000E+000	7.78558E-005	5.39641E-002	8.56773E-001	3.57410E+000	9	...........
	92	1.24	8.59445E-001	9.08959E-005	0.00000E+000	7.81201E-005	5.39641E-002	8.59628E-001	3.57410E+000	9	...........
	93	1.25333	8.62286E-001	9.11700E-005	0.00000E+000	7.86146E-005	5.39641E-002	8.62462E-001	3.57410E+000	9	...........
	94	1.26667	8.65066E-001	9.10376E-005	0.00000E+000	7.87536E-005	5.39641E-002	8.65268E-001	3.57410E+000	9	...........
	95	1.28	8.67871E-001	9.08178E-005	0.00000E+000	7.88181E-005	5.39641E-002	8.68059E-001	3.57410E+000	9	...........
	96	1.29333	8.70657E-001	9.09845E-005	0.00000E+000	7.92163E-005	5.39641E-002	8.70828E-001	3.57410E+000	9	...........
	97	1.30667	8.73387E-001	9.11241E-005	0.00000E+000	7.95866E-005	5.39641E-002	8.73548E-001	3.57410E+000	9	...........
	98	1.32	8.76059E-001	9.08345E-005	0.00000E+000	7.95764E-005	5.39641E-002	8.76252E-001	3.57410E+000	9	...........
	99	1.33333	8.78716E-001	9.10428E-005	0.00000E+000	8.00008E-005	5.39641E-002	8.78882E-001	3.57410E+000	9	...........
	100	1.34667	8.81342E-001	9.09439E-005	0.00000E+000	8.01527E-005	5.39641E-002	8.81534E-001	3.57410E+000	9	...........
	101	1.36	8.83993E-001	9.08282E-005	0.00000E+000	8.02915E-005	5.39641E-002	8.84158E-001	3.57410E+000	9	...........
	102	1.37333	8.86515E-001	9.10606E-005	0.00000E+000	8.07266E-005	5.39641E-002	8.86711E-001	3.57410E+000	9	...........
	103	1.38667	8.89055E-001	9.09001E-005	0.00000E+000	8.08152E-005	5.39641E-002	8.89242E-001	3.57410E+000	9	...........
	104	1.4	8.91557E-001	9.07803E-005	0.00000E+000	8.09358E-005	5.39641E-002	8.91749E-001	3.57410E+000	9	...........
	105	1.41333	8.94028E-001	9.08626E-005	0.00000E+000	8.12337E-005	5.39641E-002	8.94233E-001	3.57410E+000	9	...........
	106	1.42667	8.96535E-001	9.06667E-005	0.00000E+000	8.12859E-005	5.39641E-002	8.96738E-001	3.57410E+000	9	...........
	107	1.44	8.98957E-001	9.09105E-005	0.00000E+000	8.17247E-005	5.39641E-002	8.99175E-001	3.57410E+000	9	...........
	108	1.45333	9.01386E-001	9.10053E-005	0.00000E+000	8.20309E-005	5.39641E-002	9.01593E-001	3.57410E+000	9	...........
	109	1.46667	9.03789E-001	9.09126E-005	0.00000E+000	8.21658E-005	5.39641E-002	9.03987E-001	3.57410E+000	9	...........
	110	1.48	9.06131E-001	9.11460E-005	0.00000E+000	8.25902E-005	5.39641E-002	9.06344E-001	3.57410E+000	9	...........
	111	1.49333	9.08496E-001	9.10064E-005	0.00000E+000	8.26789E-005	5.39641E-002	9.08698E-001	3.57410E+000	9	...........
	112	1.50667	9.10804E-001	9.09491E-005	0.00000E+000	8.28368E-005	5.39641E-002	9.11020E-001	3.57410E+000	9	...........
	113	1.52	9.13116E-001	9.09095E-005	0.00000E+000	8.30109E-005	5.39641E-002	9.13304E-001	3.57410E+000	9	...........
	114	1.53333	9.15379E-001	9.10283E-005	0.00000E+000	8.33253E-005	5.39641E-002	9.15577E-001	3.57410E+000	9	...........
	115	1.54667	9.17611E-001	9.11272E-005	0.00000E+000	8.36193E-005	5.39641E-002	9.17824E-001	3.57410E+000	9	...........
	116	1.56	9.19870E-001	9.14784E-005	0.00000E+000	8.41482E-005	5.39641E-002	9.20052E-001	3.57410E+000	9	...........
	117	1.57333	9.22112E-001	9.10428E-005	0.00000E+000	8.39517E-005	5.39641E-002	9.22274E-001	3.57410E+000	9	...........
	118	1.58667	9.24293E-001	9.09241E-005	0.00000E+000	8.40405E-005	5.39641E-002	9.24443E-001	3.57410E+000	9	...........
	119	1.6	9.26443E-001	9.09710E-005	0.00000E+000	8.42794E-005	5.39641E-002	9.26610E-001	3.57410E+000	9	...........
	120	1.61333	9.28590E-001	9.09251E-005	0.00000E+000	8.44321E-005	5.39641E-002	9.28747E-001	3.57410E+000	9	...........
	121	1.62667	9.30688E-001	9.08939E-005	0.00000E+000	8.45938E-005	5.39641E-002	9.30862E-001	3.57410E+000	9	...........
	122	1.64	9.32764E-001	9.12617E-005	0.00000E+000	8.51256E-005	5.39641E-002	9.32949E-001	3.57410E+000	9	...........
	123	1.65333	9.34834E-001	9.11127E-005	0.00000E+000	8.51752E-005	5.39641E-002	9.35047E-001	3.57410E+000	9	...........
	124	1.66667	9.36863E-001	9.09918E-005	0.00000E+000	8.52468E-005	5.39641E-002	9.37078E-001	3.57410E+000	9	...........
	125	1.68	9.38871E-001	9.09460E-005	0.00000E+000	8.53865E-005	5.39641E-002	9.39088E-001	3.57410E+000	9	...........
	126	1.69333	9.40873E-001	9.08949E-005	0.00000E+000	8.55206E-005	5.39641E-002	9.41074E-001	3.57410E+000	9	...........
	127	1.70667	9.42795E-001	9.10303E-005	0.00000E+000	8.58229E-005	5.39641E-002	9.43018E-001	3.57310E+000	9	...........
	128	1.72	9.44751E-001	9.09772E-005	0.00000E+000	8.59508E-005	5.39641E-002	9.44960E-001	3.57310E+000	9	...........
	129	1.73333	9.46715E-001	9.10772E-005	0.00000E+000	8.62242E-005	5.39641E-002	9.46924E-001	3.57310E+000	9	...........
	130	1.74667	9.48642E-001	9.10543E-005	0.00000E+000	8.63780E-005	5.39641E-002	9.48830E-001	3.57310E+000	9	...........
	131	1.76	9.50528E-001	9.11137E-005	0.00000E+000	8.66061E-005	5.39641E-002	9.50714E-001	3.57310E+000	9	...........
	132	1.77333	9.52393E-001	9.13012E-005	0.00000E+000	8.69547E-005	5.39641E-002	9.52555E-001	3.57310E+000	9	...........
	133	1.78667	9.54204E-001	9.10418E-005	0.00000E+000	8.68725E-005	5.39641E-002	9.54391E-001	3.57310E+000	9	...........
	134	1.8	9.56022E-001	9.09053E-005	0.00000E+000	8.69075E-005	5.39641E-002	9.56194E-001	3.57310E+000	9	...........
	135	1.81333	9.57804E-001	9.09532E-005	0.00000E+000	8.71154E-005	5.39641E-002	9.58018E-001	3.57310E+000	9	...........
	136	1.82667	9.59610E-001	9.10543E-005	0.00000E+000	8.73766E-005	5.39641E-002	9.59829E-001	3.57310E+000	9	...........
	137	1.84	9.61383E-001	9.08793E-005	0.00000E+000	8.73698E-005	5.39641E-002	9.61584E-001	3.57310E+000	9	...........
	138	1.85333	9.63092E-001	9.10960E-005	0.00000E+000	8.77339E-005	5.39641E-002	9.63333E-001	3.57310E+000	9	...........
	139	1.86667	9.64823E-001	9.09470E-005	0.00000E+000	8.77478E-005	5.39641E-002	9.65060E-001	3.57310E+000	9	...........
	140	1.88	9.66532E-001	9.12523E-005	0.00000E+000	8.81983E-005	5.39641E-002	9.66766E-001	3.57310E+000	9	...........
	141	1.89333	9.68209E-001	9.08480E-005	0.00000E+000	8.79599E-005	5.39641E-002	9.68431E-001	3.57310E+000	9	...........
	142	1.90667	9.69869E-001	9.10106E-005	0.00000E+000	8.82683E-005	5.39641E-002	9.70095E-001	3.57310E+000	9	...........
	143	1.92	9.71532E-001	9.10689E-005	0.00000E+000	8.84763E-005	5.39641E-002	9.71768E-001	3.57310E+000	9	...........
	144	1.93333	9.73231E-001	9.09022E-005	0.00000E+000	8.84688E-005	5.39641E-002	9.73415E-001	3.57310E+000	9	...........
	145	1.94667	9.74851E-001	9.10470E-005	0.00000E+000	8.87572E-005	5.39641E-002	9.75029E-001	3.57310E+000	9	...........
	146	1.96	9.76441E-001	9.09439E-005	0.00000E+000	8.88013E-005	5.39641E-002	9.76649E-001	3.57310E+000	9	...........
	147	1.97333	9.78054E-001	9.12742E-005	0.00000E+000	8.92711E-005	5.39641E-002	9.78214E-001	3.57310E+000	9	...........
	148	1.98667	9.79606E-001	9.12502E-005	0.00000E+000	8.93892E-005	5.39641E-002	9.79765E-001	3.57310E+000	9	...........
	149	2	9.81122E-001	9.08918E-005	0.00000E+000	8.91759E-005	5.39641E-002	9.81311E-001	3.57310E+000	9	...........
	150	2.01333	9.82673E-001	9.11741E-005	0.00000E+000	8.95944E-005	5.39641E-002	9.82851E-001	3.57310E+000	9	...........
	151	2.02667	9.84178E-001	9.09157E-005	0.00000E+000	8.94772E-005	5.39641E-002	9.84365E-001	3.57310E+000	9	...........
	152	2.04	9.85671E-001	9.10783E-005	0.00000E+000	8.97732E-005	5.39641E-002	9.85865E-001	3.57310E+000	9	...........
	153	2.05333	9.87146E-001	9.08741E-005	0.00000E+000	8.97060E-005	5.39641E-002	9.87364E-001	3.57310E+000	9	...........
	154	2.06667	9.88643E-001	9.11283E-005	0.00000E+000	9.00933E-005	5.39641E-002	9.88827E-001	3.57310E+000	9	...........
	155	2.08	9.90097E-001	9.10366E-005	0.00000E+000	9.01351E-005	5.39641E-002	9.90274E-001	3.57310E+000	9	...........
	156	2.09333	9.91512E-001	9.12356E-005	0.00000E+000	9.04612E-005	5.39641E-002	9.91689E-001	3.57310E+000	9	...........
	157	2.10667	9.92913E-001	9.09262E-005	0.00000E+000	9.02818E-005	5.39641E-002	9.93101E-001	3.57310E+000	9	...........
	158	2.12	9.94305E-001	9.06261E-005	0.00000E+000	9.01100E-005	5.39641E-002	9.94506E-001	3.57310E+000	9	...........
	159	2.13333	9.95713E-001	9.06521E-005	0.00000E+000	9.02635E-005	5.39641E-002	9.95904E-001	3.57310E+000	9	...........
	160	2.14667	9.97074E-001	9.08720E-005	0.00000E+000	9.06061E-005	5.39641E-002	9.97314E-001	3.57310E+000	9	...........
	161	2.16	9.98470E-001	9.10418E-005	0.00000E+000	9.09026E-005	5.39641E-002	9.98680E-001	3.57310E+000	9	...........
	162	2.17	9.99624E-001	9.11307E-005	0.00000E+000	9.10965E-005	5.39641E-002	9.99861E-001	3.57310E+000	9	...........
STARTTIMEOFFSET	QUANT	3558.244	Start Time Offset (s)
