EXPLAIN
TAG	PWR800_CHARGE
TITLE	LABEL	PWR Cyclic Charge Discharge (Cell) - Charge Step	Test &Identifier
DATE	LABEL	10-7-2017	Date
TIME	LABEL	15:47:51	Time
NOTES	NOTES	3	&Notes...
	supercap test cell
	0.9mg
	6M KOH
PSTAT	PSTAT	IFC5000-01520	Potentiostat
CAPACITY	QUANT	1.00000E-003	Capacity (A-hr)
CELLTYPE	SELECTOR	1	&Cell Type
WORKINGCONNECTION	SELECTOR	0	&Working Lead
MAXCHARGETIME	VARIABLEANDUNITS	1.00000E+002	s	1.00000E+002	second(s)	Max &Charge Time
CHARGECURRENT	QUANT	9.00000E-005	&Charge Current (A) 
VOLTAGEFINISH	TWOPARAM	F	1.00000E-003	3.60000E+003	&Voltage Finish	 I (A) < 	Max Time(s)
SAMPLETIME	QUANT	1.00000E-002	Sa&mple Period (s)
CHARGESTOPAT1	MULTIPARAM	4	1.00000E+000	Charge Stop At &1	Voltage > Limit	V
CHARGESTOPAT2	MULTIPARAM	0	0.00000E+000	Charge Stop At &2	None	N/A
AESBHCSELECTOR	TOGGLE	F	Save Both Half Cells
IRCOMP	TOGGLE	F	IR &Measure
EOC	QUANT	0	Open Circuit (V)
SEQUENCER	TOGGLE	TRUE	Run as Sequence
PSTATMODEL	IQUANT	53	Pstat Model
PSTATSECTION	LABEL	IFC5000-01520	Pstat Section
PSTATSERIALNO	LABEL	01520	Pstat Serial Number
CTRLMODE	IQUANT	0	Control Mode
ELECTROMETER	IQUANT	1	RE=0 or CS=1
IESTAB	IQUANT	0	I/E Stability
CASPEED	IQUANT	4	Control Amp Speed
CONVENTION	IQUANT	1	Current Convention
ICHRANGE	IQUANT	2	Ich Range
ICHRANGEMODE	TOGGLE	T	Ich Auto Range
ICHOFFSETENABLE	TOGGLE	F	Ich Offset Enable
ICHOFFSET	QUANT	0	Ich Offset (V)
ICHFILTER	IQUANT	1	Ich Filter
VCHRANGE	IQUANT	2	Vch Range
VCHRANGEMODE	TOGGLE	T	Vch Auto Range
VCHOFFSETENABLE	TOGGLE	F	Vch Offset Enable
VCHOFFSET	QUANT	0	Vch Offset (V)
VCHFILTER	IQUANT	1	Vch Filter
IERANGELOWERLIMIT	IQUANT	9	I/E Range Lower Limit
IERANGEMODE	TOGGLE	F	I/E AutoRange
IERANGE	IQUANT	9	I/E Range
ACHSELECT	IQUANT	1	Ach Select
ACHRANGE	IQUANT	2	Ach Range
ACHOFFSETENABLE	TOGGLE	F	Ach Offset Enable
ACHOFFSET	QUANT	0	Ach Offset (V)
ACHFILTER	IQUANT	1	Ach Filter
CABLEID	IQUANT	14	Cable ID
DCCALDATE	LABEL	5-7-2017	DC Calibration Date
ACCALDATE	LABEL	12/3/2015	AC Calibration Date
FRAMEWORKVERSION	QUANT	7.01	Framework Version
INSTRUMENTVERSION	LABEL	4.00	Instrument Version
CURVE	TABLE	168
	Pt	T	Vf	Im	Vu	Pwr	Sig	Ach	Temp	IERange	Over
	#	s	V	A	V	W	V	V	deg C	#	bits
	0	0.013333	2.72398E-001	9.08814E-005	0.00000E+000	2.47559E-005	5.39641E-002	2.72443E-001	3.57290E+000	9	...........
	1	0.026667	2.92081E-001	9.10074E-005	0.00000E+000	2.65815E-005	5.39641E-002	2.92125E-001	3.57290E+000	9	...........
	2	0.04	3.10455E-001	9.11627E-005	0.00000E+000	2.83019E-005	5.39641E-002	3.10499E-001	3.57290E+000	9	...........
	3	0.053333	3.27717E-001	9.08334E-005	0.00000E+000	2.97676E-005	5.39641E-002	3.27765E-001	3.57290E+000	9	...........
	4	0.066667	3.43998E-001	9.08084E-005	0.00000E+000	3.12380E-005	5.39641E-002	3.44047E-001	3.57290E+000	9	...........
	5	0.08	3.59422E-001	9.10679E-005	0.00000E+000	3.27318E-005	5.39641E-002	3.59468E-001	3.57290E+000	9	...........
	6	0.093333	3.74053E-001	9.08980E-005	0.00000E+000	3.40007E-005	5.39641E-002	3.74101E-001	3.57290E+000	9	...........
	7	0.106667	3.87989E-001	9.09762E-005	0.00000E+000	3.52977E-005	5.39641E-002	3.88040E-001	3.57290E+000	9	...........
	8	0.12	4.01283E-001	9.07595E-005	0.00000E+000	3.64202E-005	5.39641E-002	4.01329E-001	3.57290E+000	9	...........
	9	0.133333	4.13987E-001	9.09116E-005	0.00000E+000	3.76362E-005	5.39641E-002	4.14047E-001	3.57290E+000	9	...........
	10	0.146667	4.26169E-001	9.09480E-005	0.00000E+000	3.87592E-005	5.39641E-002	4.26230E-001	3.57290E+000	9	...........
	11	0.16	4.37864E-001	9.08574E-005	0.00000E+000	3.97832E-005	5.39641E-002	4.37923E-001	3.57290E+000	9	...........
	12	0.173333	4.49096E-001	9.09262E-005	0.00000E+000	4.08346E-005	5.39641E-002	4.49155E-001	3.57290E+000	9	...........
	13	0.186667	4.59907E-001	9.09678E-005	0.00000E+000	4.18367E-005	5.39641E-002	4.59967E-001	3.57290E+000	9	...........
	14	0.2	4.70331E-001	9.10272E-005	0.00000E+000	4.28129E-005	5.39641E-002	4.70390E-001	3.57290E+000	9	...........
	15	0.213333	4.80390E-001	9.07928E-005	0.00000E+000	4.36160E-005	5.39641E-002	4.80449E-001	3.57290E+000	9	...........
	16	0.226667	4.90112E-001	9.09991E-005	0.00000E+000	4.45997E-005	5.39641E-002	4.90181E-001	3.57290E+000	9	...........
	17	0.24	4.99523E-001	9.09282E-005	0.00000E+000	4.54207E-005	5.39641E-002	4.99590E-001	3.57290E+000	9	...........
	18	0.253333	5.08632E-001	9.11439E-005	0.00000E+000	4.63587E-005	5.39641E-002	5.08707E-001	3.57290E+000	9	...........
	19	0.266667	5.17465E-001	9.09032E-005	0.00000E+000	4.70392E-005	5.39641E-002	5.17537E-001	3.57290E+000	9	...........
	20	0.28	5.26035E-001	9.08918E-005	0.00000E+000	4.78122E-005	5.39641E-002	5.26106E-001	3.57290E+000	9	...........
	21	0.293333	5.34293E-001	9.11397E-005	0.00000E+000	4.86954E-005	5.39641E-002	5.34401E-001	3.57290E+000	9	...........
	22	0.306667	5.42344E-001	9.09783E-005	0.00000E+000	4.93415E-005	5.39641E-002	5.42485E-001	3.57290E+000	9	...........
	23	0.32	5.50202E-001	9.12564E-005	0.00000E+000	5.02095E-005	5.39641E-002	5.50325E-001	3.57290E+000	9	...........
	24	0.333333	5.57841E-001	9.12325E-005	0.00000E+000	5.08932E-005	5.39641E-002	5.57971E-001	3.57290E+000	9	...........
	25	0.346667	5.65348E-001	9.10710E-005	0.00000E+000	5.14868E-005	5.39641E-002	5.65441E-001	3.57290E+000	9	...........
	26	0.36	5.72612E-001	9.08449E-005	0.00000E+000	5.20189E-005	5.39641E-002	5.72710E-001	3.57290E+000	9	...........
	27	0.373333	5.79664E-001	9.08428E-005	0.00000E+000	5.26583E-005	5.39641E-002	5.79792E-001	3.57290E+000	9	...........
	28	0.386667	5.86593E-001	9.10220E-005	0.00000E+000	5.33929E-005	5.39641E-002	5.86746E-001	3.57290E+000	9	...........
	29	0.4	5.93386E-001	9.11012E-005	0.00000E+000	5.40581E-005	5.39641E-002	5.93515E-001	3.57290E+000	9	...........
	30	0.413333	5.99967E-001	9.09824E-005	0.00000E+000	5.45864E-005	5.39641E-002	6.00110E-001	3.57290E+000	9	...........
	31	0.426667	6.06389E-001	9.09251E-005	0.00000E+000	5.51360E-005	5.39641E-002	6.06561E-001	3.57290E+000	9	...........
	32	0.44	6.12717E-001	9.09168E-005	0.00000E+000	5.57062E-005	5.39641E-002	6.12885E-001	3.57290E+000	9	...........
	33	0.453333	6.18925E-001	9.08907E-005	0.00000E+000	5.62546E-005	5.39641E-002	6.19036E-001	3.57290E+000	9	...........
	34	0.466667	6.24979E-001	9.12887E-005	0.00000E+000	5.70535E-005	5.39641E-002	6.25096E-001	3.57290E+000	9	...........
	35	0.48	6.30890E-001	9.10481E-005	0.00000E+000	5.74413E-005	5.39641E-002	6.31023E-001	3.57290E+000	9	...........
	36	0.493333	6.36682E-001	9.10668E-005	0.00000E+000	5.79806E-005	5.39641E-002	6.36829E-001	3.57290E+000	9	...........
	37	0.506667	6.42424E-001	9.09793E-005	0.00000E+000	5.84473E-005	5.39641E-002	6.42553E-001	3.57290E+000	9	...........
	38	0.52	6.48015E-001	9.10449E-005	0.00000E+000	5.89985E-005	5.39641E-002	6.48137E-001	3.57290E+000	9	...........
	39	0.533333	6.53509E-001	9.11950E-005	0.00000E+000	5.95967E-005	5.39641E-002	6.53644E-001	3.57290E+000	9	...........
	40	0.546667	6.58881E-001	9.10064E-005	0.00000E+000	5.99624E-005	5.39641E-002	6.58994E-001	3.57290E+000	9	...........
	41	0.56	6.64162E-001	9.11304E-005	0.00000E+000	6.05253E-005	5.39641E-002	6.64287E-001	3.57290E+000	9	...........
	42	0.573333	6.69349E-001	9.08543E-005	0.00000E+000	6.08132E-005	5.39641E-002	6.69473E-001	3.57290E+000	9	...........
	43	0.586667	6.74443E-001	9.12669E-005	0.00000E+000	6.15543E-005	5.39641E-002	6.74559E-001	3.57290E+000	9	...........
	44	0.6	6.79455E-001	9.11898E-005	0.00000E+000	6.19593E-005	5.39641E-002	6.79602E-001	3.57290E+000	9	...........
	45	0.613333	6.84394E-001	9.11783E-005	0.00000E+000	6.24019E-005	5.39641E-002	6.84524E-001	3.57290E+000	9	...........
	46	0.626667	6.89262E-001	9.08303E-005	0.00000E+000	6.26059E-005	5.39641E-002	6.89392E-001	3.57290E+000	9	...........
	47	0.64	6.94052E-001	9.10158E-005	0.00000E+000	6.31696E-005	5.39641E-002	6.94174E-001	3.57290E+000	9	...........
	48	0.653333	6.98741E-001	9.12221E-005	0.00000E+000	6.37406E-005	5.39641E-002	6.98887E-001	3.57290E+000	9	...........
	49	0.666667	7.03408E-001	9.08887E-005	0.00000E+000	6.39318E-005	5.39641E-002	7.03502E-001	3.57290E+000	9	...........
	50	0.68	7.07972E-001	9.11002E-005	0.00000E+000	6.44963E-005	5.39641E-002	7.08097E-001	3.57290E+000	9	...........
	51	0.693333	7.12467E-001	9.09168E-005	0.00000E+000	6.47752E-005	5.39641E-002	7.12593E-001	3.57290E+000	9	...........
	52	0.706667	7.16928E-001	9.12856E-005	0.00000E+000	6.54452E-005	5.39641E-002	7.17048E-001	3.57290E+000	9	...........
	53	0.72	7.21307E-001	9.10199E-005	0.00000E+000	6.56533E-005	5.39641E-002	7.21420E-001	3.57290E+000	9	...........
	54	0.733333	7.25605E-001	9.09689E-005	0.00000E+000	6.60074E-005	5.39641E-002	7.25714E-001	3.57290E+000	9	...........
	55	0.746667	7.29831E-001	9.10595E-005	0.00000E+000	6.64581E-005	5.39641E-002	7.29964E-001	3.57290E+000	9	...........
	56	0.76	7.34016E-001	9.10699E-005	0.00000E+000	6.68468E-005	5.39641E-002	7.34124E-001	3.57290E+000	9	...........
	57	0.773333	7.38127E-001	9.08834E-005	0.00000E+000	6.70835E-005	5.39641E-002	7.38236E-001	3.57290E+000	9	...........
	58	0.786667	7.42225E-001	9.09262E-005	0.00000E+000	6.74876E-005	5.39641E-002	7.42326E-001	3.57331E+000	9	...........
	59	0.8	7.46260E-001	9.10210E-005	0.00000E+000	6.79253E-005	5.39641E-002	7.46359E-001	3.57400E+000	9	...........
	60	0.813333	7.50204E-001	9.09543E-005	0.00000E+000	6.82342E-005	5.39641E-002	7.50309E-001	3.57400E+000	9	...........
	61	0.826667	7.54131E-001	9.10168E-005	0.00000E+000	6.86386E-005	5.39641E-002	7.54266E-001	3.57400E+000	9	...........
	62	0.84	7.58014E-001	9.09230E-005	0.00000E+000	6.89209E-005	5.39641E-002	7.58116E-001	3.57400E+000	9	...........
	63	0.853333	7.61832E-001	9.12773E-005	0.00000E+000	6.95379E-005	5.39641E-002	7.61949E-001	3.57400E+000	9	...........
	64	0.866667	7.65591E-001	9.10283E-005	0.00000E+000	6.96904E-005	5.39641E-002	7.65729E-001	3.57400E+000	9	...........
	65	0.88	7.69347E-001	9.10845E-005	0.00000E+000	7.00756E-005	5.39641E-002	7.69485E-001	3.57400E+000	9	...........
	66	0.893333	7.73028E-001	9.10178E-005	0.00000E+000	7.03594E-005	5.39641E-002	7.73169E-001	3.57400E+000	9	...........
	67	0.906667	7.76673E-001	9.07865E-005	0.00000E+000	7.05115E-005	5.39641E-002	7.76822E-001	3.57400E+000	9	...........
	68	0.92	7.80275E-001	9.11366E-005	0.00000E+000	7.11116E-005	5.39641E-002	7.80415E-001	3.57400E+000	9	...........
	69	0.933333	7.83826E-001	9.12168E-005	0.00000E+000	7.14981E-005	5.39641E-002	7.83952E-001	3.57400E+000	9	...........
	70	0.946667	7.87332E-001	9.10324E-005	0.00000E+000	7.16728E-005	5.39641E-002	7.87464E-001	3.57400E+000	9	...........
	71	0.96	7.90800E-001	9.08511E-005	0.00000E+000	7.18451E-005	5.39641E-002	7.90937E-001	3.57400E+000	9	...........
	72	0.97333	7.94262E-001	9.08345E-005	0.00000E+000	7.21464E-005	5.39641E-002	7.94402E-001	3.57400E+000	9	...........
	73	0.98667	7.97650E-001	9.09855E-005	0.00000E+000	7.25746E-005	5.39641E-002	7.97790E-001	3.57400E+000	9	...........
	74	1	8.01032E-001	9.08876E-005	0.00000E+000	7.28039E-005	5.39641E-002	8.01174E-001	3.57400E+000	9	...........
	75	1.01333	8.04320E-001	9.11200E-005	0.00000E+000	7.32896E-005	5.39641E-002	8.04490E-001	3.57400E+000	9	...........
	76	1.02667	8.07612E-001	9.09053E-005	0.00000E+000	7.34163E-005	5.39641E-002	8.07780E-001	3.57400E+000	9	...........
	77	1.04	8.10865E-001	9.10491E-005	0.00000E+000	7.38285E-005	5.39641E-002	8.11017E-001	3.57400E+000	9	...........
	78	1.05333	8.14107E-001	9.10137E-005	0.00000E+000	7.40949E-005	5.39641E-002	8.14276E-001	3.57400E+000	9	...........
	79	1.06667	8.17311E-001	9.10293E-005	0.00000E+000	7.43992E-005	5.39641E-002	8.17488E-001	3.57400E+000	9	...........
	80	1.08	8.20496E-001	9.10418E-005	0.00000E+000	7.46994E-005	5.39641E-002	8.20650E-001	3.57400E+000	9	...........
	81	1.09333	8.23601E-001	9.12721E-005	0.00000E+000	7.51717E-005	5.39641E-002	8.23752E-001	3.57400E+000	9	...........
	82	1.10667	8.26667E-001	9.09866E-005	0.00000E+000	7.52156E-005	5.39641E-002	8.26833E-001	3.57400E+000	9	...........
	83	1.12	8.29677E-001	9.11366E-005	0.00000E+000	7.56139E-005	5.39641E-002	8.29855E-001	3.57400E+000	9	...........
	84	1.13333	8.32692E-001	9.10710E-005	0.00000E+000	7.58341E-005	5.39641E-002	8.32878E-001	3.57400E+000	9	...........
	85	1.14667	8.35654E-001	9.08293E-005	0.00000E+000	7.59018E-005	5.39641E-002	8.35853E-001	3.57400E+000	9	...........
	86	1.16	8.38599E-001	9.12700E-005	0.00000E+000	7.65389E-005	5.39641E-002	8.38791E-001	3.57400E+000	9	...........
	87	1.17333	8.41532E-001	9.11106E-005	0.00000E+000	7.66725E-005	5.39641E-002	8.41717E-001	3.57400E+000	9	...........
	88	1.18667	8.44480E-001	9.10949E-005	0.00000E+000	7.69278E-005	5.39641E-002	8.44649E-001	3.57400E+000	9	...........
	89	1.2	8.47332E-001	9.10074E-005	0.00000E+000	7.71135E-005	5.39641E-002	8.47510E-001	3.57400E+000	9	...........
	90	1.21333	8.50176E-001	9.09335E-005	0.00000E+000	7.73094E-005	5.39641E-002	8.50332E-001	3.57400E+000	9	...........
	91	1.22667	8.52977E-001	9.11116E-005	0.00000E+000	7.77161E-005	5.39641E-002	8.53118E-001	3.57400E+000	9	...........
	92	1.24	8.55740E-001	9.10981E-005	0.00000E+000	7.79563E-005	5.39641E-002	8.55911E-001	3.57400E+000	9	...........
	93	1.25333	8.58469E-001	9.08699E-005	0.00000E+000	7.80090E-005	5.39641E-002	8.58643E-001	3.57400E+000	9	...........
	94	1.26667	8.61192E-001	9.10970E-005	0.00000E+000	7.84521E-005	5.39641E-002	8.61382E-001	3.57400E+000	9	...........
	95	1.28	8.63882E-001	9.09574E-005	0.00000E+000	7.85765E-005	5.39641E-002	8.64076E-001	3.57400E+000	9	...........
	96	1.29333	8.66554E-001	9.09355E-005	0.00000E+000	7.88006E-005	5.39641E-002	8.66756E-001	3.57400E+000	9	...........
	97	1.30667	8.69223E-001	9.09949E-005	0.00000E+000	7.90948E-005	5.39641E-002	8.69403E-001	3.57400E+000	9	...........
	98	1.32	8.71882E-001	9.09105E-005	0.00000E+000	7.92633E-005	5.39641E-002	8.72056E-001	3.57400E+000	9	...........
	99	1.33333	8.74442E-001	9.09241E-005	0.00000E+000	7.95078E-005	5.39641E-002	8.74641E-001	3.57400E+000	9	...........
	100	1.34667	8.76994E-001	9.07032E-005	0.00000E+000	7.95462E-005	5.39641E-002	8.77166E-001	3.57400E+000	9	...........
	101	1.36	8.79524E-001	9.09585E-005	0.00000E+000	8.00001E-005	5.39641E-002	8.79684E-001	3.57400E+000	9	...........
	102	1.37333	8.82021E-001	9.11116E-005	0.00000E+000	8.03624E-005	5.39641E-002	8.82199E-001	3.57400E+000	9	...........
	103	1.38667	8.84508E-001	9.10668E-005	0.00000E+000	8.05494E-005	5.39641E-002	8.84698E-001	3.57400E+000	9	...........
	104	1.4	8.86983E-001	9.11231E-005	0.00000E+000	8.08246E-005	5.39641E-002	8.87168E-001	3.57400E+000	9	...........
	105	1.41333	8.89415E-001	9.10345E-005	0.00000E+000	8.09675E-005	5.39641E-002	8.89605E-001	3.57400E+000	9	...........
	106	1.42667	8.91849E-001	9.08720E-005	0.00000E+000	8.10440E-005	5.39641E-002	8.92019E-001	3.57400E+000	9	...........
	107	1.44	8.94232E-001	9.12606E-005	0.00000E+000	8.16081E-005	5.39641E-002	8.94447E-001	3.57400E+000	9	...........
	108	1.45333	8.96625E-001	9.08980E-005	0.00000E+000	8.15015E-005	5.39641E-002	8.96822E-001	3.57400E+000	9	...........
	109	1.46667	8.98975E-001	9.08574E-005	0.00000E+000	8.16785E-005	5.39641E-002	8.99147E-001	3.57400E+000	9	...........
	110	1.48	9.01303E-001	9.08814E-005	0.00000E+000	8.19117E-005	5.39641E-002	9.01494E-001	3.57400E+000	9	...........
	111	1.49333	9.03624E-001	9.09251E-005	0.00000E+000	8.21621E-005	5.39641E-002	9.03799E-001	3.57400E+000	9	...........
	112	1.50667	9.05899E-001	9.12575E-005	0.00000E+000	8.26700E-005	5.39641E-002	9.06083E-001	3.57400E+000	9	...........
	113	1.52	9.08176E-001	9.09480E-005	0.00000E+000	8.25968E-005	5.39641E-002	9.08358E-001	3.57400E+000	9	...........
	114	1.53333	9.10397E-001	9.10449E-005	0.00000E+000	8.28870E-005	5.39641E-002	9.10545E-001	3.57400E+000	9	...........
	115	1.54667	9.12607E-001	9.10512E-005	0.00000E+000	8.30940E-005	5.39641E-002	9.12772E-001	3.57400E+000	9	...........
	116	1.56	9.14796E-001	9.11564E-005	0.00000E+000	8.33895E-005	5.39641E-002	9.14975E-001	3.57400E+000	9	...........
	117	1.57333	9.16950E-001	9.10949E-005	0.00000E+000	8.35295E-005	5.39641E-002	9.17160E-001	3.57400E+000	9	...........
	118	1.58667	9.19081E-001	9.10804E-005	0.00000E+000	8.37102E-005	5.39641E-002	9.19288E-001	3.57400E+000	9	...........
	119	1.6	9.21276E-001	9.09647E-005	0.00000E+000	8.38036E-005	5.39641E-002	9.21428E-001	3.57400E+000	9	...........
	120	1.61333	9.23351E-001	9.10772E-005	0.00000E+000	8.40963E-005	5.39641E-002	9.23525E-001	3.57400E+000	9	...........
	121	1.62667	9.25390E-001	9.10293E-005	0.00000E+000	8.42376E-005	5.39641E-002	9.25574E-001	3.57400E+000	9	...........
	122	1.64	9.27442E-001	9.09772E-005	0.00000E+000	8.43761E-005	5.39641E-002	9.27618E-001	3.57400E+000	9	...........
	123	1.65333	9.29450E-001	9.11189E-005	0.00000E+000	8.46905E-005	5.39641E-002	9.29600E-001	3.57400E+000	9	...........
	124	1.66667	9.31448E-001	9.09637E-005	0.00000E+000	8.47279E-005	5.39641E-002	9.31570E-001	3.57400E+000	9	...........
	125	1.68	9.33431E-001	9.11554E-005	0.00000E+000	8.50873E-005	5.39641E-002	9.33595E-001	3.57400E+000	9	...........
	126	1.69333	9.35406E-001	9.11220E-005	0.00000E+000	8.52361E-005	5.39641E-002	9.35560E-001	3.57400E+000	9	...........
	127	1.70667	9.37332E-001	9.09376E-005	0.00000E+000	8.52387E-005	5.39641E-002	9.37498E-001	3.57400E+000	9	...........
	128	1.72	9.39204E-001	9.09366E-005	0.00000E+000	8.54080E-005	5.39641E-002	9.39398E-001	3.57400E+000	9	...........
	129	1.73333	9.41107E-001	9.12106E-005	0.00000E+000	8.58389E-005	5.39641E-002	9.41276E-001	3.57400E+000	9	...........
	130	1.74667	9.42980E-001	9.08876E-005	0.00000E+000	8.57052E-005	5.39641E-002	9.43133E-001	3.57400E+000	9	...........
	131	1.76	9.44838E-001	9.11304E-005	0.00000E+000	8.61034E-005	5.39641E-002	9.44999E-001	3.57400E+000	9	...........
	132	1.77333	9.46704E-001	9.08126E-005	0.00000E+000	8.59726E-005	5.39641E-002	9.46866E-001	3.57400E+000	9	...........
	133	1.78667	9.48550E-001	9.11679E-005	0.00000E+000	8.64772E-005	5.39641E-002	9.48728E-001	3.57347E+000	9	...........
	134	1.8	9.50363E-001	9.07709E-005	0.00000E+000	8.62653E-005	5.39641E-002	9.50508E-001	3.57260E+000	9	...........
	135	1.81333	9.52118E-001	9.10512E-005	0.00000E+000	8.66915E-005	5.39641E-002	9.52299E-001	3.57260E+000	9	...........
	136	1.82667	9.53885E-001	9.10637E-005	0.00000E+000	8.68643E-005	5.39641E-002	9.54070E-001	3.57260E+000	9	...........
	137	1.84	9.55641E-001	9.09741E-005	0.00000E+000	8.69386E-005	5.39641E-002	9.55813E-001	3.57260E+000	9	...........
	138	1.85333	9.57362E-001	9.11720E-005	0.00000E+000	8.72846E-005	5.39641E-002	9.57535E-001	3.57260E+000	9	...........
	139	1.86667	9.59098E-001	9.10178E-005	0.00000E+000	8.72951E-005	5.39641E-002	9.59273E-001	3.57260E+000	9	...........
	140	1.88	9.60807E-001	9.09522E-005	0.00000E+000	8.73875E-005	5.39641E-002	9.60988E-001	3.57260E+000	9	...........
	141	1.89333	9.62483E-001	9.09522E-005	0.00000E+000	8.75400E-005	5.39641E-002	9.62676E-001	3.57260E+000	9	...........
	142	1.90667	9.64129E-001	9.09595E-005	0.00000E+000	8.76967E-005	5.39641E-002	9.64335E-001	3.57260E+000	9	...........
	143	1.92	9.65795E-001	9.08855E-005	0.00000E+000	8.77768E-005	5.39641E-002	9.65979E-001	3.57260E+000	9	...........
	144	1.93333	9.67408E-001	9.09772E-005	0.00000E+000	8.80121E-005	5.39641E-002	9.67586E-001	3.57260E+000	9	...........
	145	1.94667	9.68980E-001	9.09897E-005	0.00000E+000	8.81672E-005	5.39641E-002	9.69189E-001	3.57260E+000	9	...........
	146	1.96	9.70556E-001	9.10658E-005	0.00000E+000	8.83845E-005	5.39641E-002	9.70780E-001	3.57260E+000	9	...........
	147	1.97333	9.72149E-001	9.08730E-005	0.00000E+000	8.83422E-005	5.39641E-002	9.72368E-001	3.57260E+000	9	...........
	148	1.98667	9.73740E-001	9.10564E-005	0.00000E+000	8.86653E-005	5.39641E-002	9.73914E-001	3.57260E+000	9	...........
	149	2	9.75288E-001	9.09116E-005	0.00000E+000	8.86650E-005	5.39641E-002	9.75440E-001	3.57260E+000	9	...........
	150	2.01333	9.76787E-001	9.12356E-005	0.00000E+000	8.91178E-005	5.39641E-002	9.76985E-001	3.57260E+000	9	...........
	151	2.02667	9.78309E-001	9.11564E-005	0.00000E+000	8.91792E-005	5.39641E-002	9.78506E-001	3.57260E+000	9	...........
	152	2.04	9.79819E-001	9.09658E-005	0.00000E+000	8.91299E-005	5.39641E-002	9.79985E-001	3.57260E+000	9	...........
	153	2.05333	9.81274E-001	9.11345E-005	0.00000E+000	8.94280E-005	5.39641E-002	9.81463E-001	3.57260E+000	9	...........
	154	2.06667	9.82733E-001	9.08741E-005	0.00000E+000	8.93050E-005	5.39641E-002	9.82920E-001	3.57260E+000	9	...........
	155	2.08	9.84171E-001	9.11002E-005	0.00000E+000	8.96582E-005	5.39641E-002	9.84394E-001	3.57260E+000	9	...........
	156	2.09333	9.85619E-001	9.09845E-005	0.00000E+000	8.96761E-005	5.39641E-002	9.85837E-001	3.57260E+000	9	...........
	157	2.10667	9.87031E-001	9.09845E-005	0.00000E+000	8.98045E-005	5.39641E-002	9.87261E-001	3.57260E+000	9	...........
	158	2.12	9.88431E-001	9.12346E-005	0.00000E+000	9.01790E-005	5.39641E-002	9.88647E-001	3.57260E+000	9	...........
	159	2.13333	9.89841E-001	9.12106E-005	0.00000E+000	9.02840E-005	5.39641E-002	9.90049E-001	3.57260E+000	9	...........
	160	2.14667	9.91225E-001	9.08803E-005	0.00000E+000	9.00829E-005	5.39641E-002	9.91419E-001	3.57260E+000	9	...........
	161	2.16	9.92602E-001	9.11325E-005	0.00000E+000	9.04583E-005	5.39641E-002	9.92781E-001	3.57260E+000	9	...........
	162	2.17333	9.93944E-001	9.12085E-005	0.00000E+000	9.06561E-005	5.39641E-002	9.94146E-001	3.57260E+000	9	...........
	163	2.18667	9.95314E-001	9.09543E-005	0.00000E+000	9.05281E-005	5.39641E-002	9.95472E-001	3.57260E+000	9	...........
	164	2.2	9.96621E-001	9.08032E-005	0.00000E+000	9.04964E-005	5.39641E-002	9.96787E-001	3.57260E+000	9	...........
	165	2.21333	9.97950E-001	9.10366E-005	0.00000E+000	9.08500E-005	5.39641E-002	9.98136E-001	3.57260E+000	9	...........
	166	2.22667	9.99268E-001	9.13231E-005	0.00000E+000	9.12563E-005	5.39641E-002	9.99432E-001	3.57260E+000	9	...........
	167	2.23	1.00004E+000	9.10626E-005	0.00000E+000	9.10659E-005	5.39641E-002	1.00021E+000	3.57260E+000	9	...........
STARTTIMEOFFSET	QUANT	2456.056	Start Time Offset (s)
