EXPLAIN
TAG	PWR800_CHARGE
TITLE	LABEL	PWR Cyclic Charge Discharge (Cell) - Charge Step	Test &Identifier
DATE	LABEL	10-7-2017	Date
TIME	LABEL	15:41:55	Time
NOTES	NOTES	3	&Notes...
	supercap test cell
	0.9mg
	6M KOH
PSTAT	PSTAT	IFC5000-01520	Potentiostat
CAPACITY	QUANT	1.00000E-003	Capacity (A-hr)
CELLTYPE	SELECTOR	1	&Cell Type
WORKINGCONNECTION	SELECTOR	0	&Working Lead
MAXCHARGETIME	VARIABLEANDUNITS	1.00000E+002	s	1.00000E+002	second(s)	Max &Charge Time
CHARGECURRENT	QUANT	9.00000E-005	&Charge Current (A) 
VOLTAGEFINISH	TWOPARAM	F	1.00000E-003	3.60000E+003	&Voltage Finish	 I (A) < 	Max Time(s)
SAMPLETIME	QUANT	1.00000E-002	Sa&mple Period (s)
CHARGESTOPAT1	MULTIPARAM	4	1.00000E+000	Charge Stop At &1	Voltage > Limit	V
CHARGESTOPAT2	MULTIPARAM	0	0.00000E+000	Charge Stop At &2	None	N/A
AESBHCSELECTOR	TOGGLE	F	Save Both Half Cells
IRCOMP	TOGGLE	F	IR &Measure
EOC	QUANT	0	Open Circuit (V)
SEQUENCER	TOGGLE	TRUE	Run as Sequence
PSTATMODEL	IQUANT	53	Pstat Model
PSTATSECTION	LABEL	IFC5000-01520	Pstat Section
PSTATSERIALNO	LABEL	01520	Pstat Serial Number
CTRLMODE	IQUANT	0	Control Mode
ELECTROMETER	IQUANT	1	RE=0 or CS=1
IESTAB	IQUANT	0	I/E Stability
CASPEED	IQUANT	4	Control Amp Speed
CONVENTION	IQUANT	1	Current Convention
ICHRANGE	IQUANT	2	Ich Range
ICHRANGEMODE	TOGGLE	T	Ich Auto Range
ICHOFFSETENABLE	TOGGLE	F	Ich Offset Enable
ICHOFFSET	QUANT	0	Ich Offset (V)
ICHFILTER	IQUANT	1	Ich Filter
VCHRANGE	IQUANT	2	Vch Range
VCHRANGEMODE	TOGGLE	T	Vch Auto Range
VCHOFFSETENABLE	TOGGLE	F	Vch Offset Enable
VCHOFFSET	QUANT	0	Vch Offset (V)
VCHFILTER	IQUANT	1	Vch Filter
IERANGELOWERLIMIT	IQUANT	9	I/E Range Lower Limit
IERANGEMODE	TOGGLE	F	I/E AutoRange
IERANGE	IQUANT	9	I/E Range
ACHSELECT	IQUANT	1	Ach Select
ACHRANGE	IQUANT	2	Ach Range
ACHOFFSETENABLE	TOGGLE	F	Ach Offset Enable
ACHOFFSET	QUANT	0	Ach Offset (V)
ACHFILTER	IQUANT	1	Ach Filter
CABLEID	IQUANT	14	Cable ID
DCCALDATE	LABEL	5-7-2017	DC Calibration Date
ACCALDATE	LABEL	12/3/2015	AC Calibration Date
FRAMEWORKVERSION	QUANT	7.01	Framework Version
INSTRUMENTVERSION	LABEL	4.00	Instrument Version
CURVE	TABLE	169
	Pt	T	Vf	Im	Vu	Pwr	Sig	Ach	Temp	IERange	Over
	#	s	V	A	V	W	V	V	deg C	#	bits
	0	0.013333	2.79622E-001	9.09084E-005	0.00000E+000	2.54200E-005	5.39641E-002	2.79674E-001	3.57320E+000	9	...........
	1	0.026667	2.99151E-001	9.10585E-005	0.00000E+000	2.72402E-005	5.39641E-002	2.99196E-001	3.57320E+000	9	...........
	2	0.04	3.17350E-001	9.09084E-005	0.00000E+000	2.88498E-005	5.39641E-002	3.17395E-001	3.57320E+000	9	...........
	3	0.053333	3.34404E-001	9.12429E-005	0.00000E+000	3.05120E-005	5.39641E-002	3.34450E-001	3.57320E+000	9	...........
	4	0.066667	3.50467E-001	9.12148E-005	0.00000E+000	3.19677E-005	5.39641E-002	3.50510E-001	3.57320E+000	9	...........
	5	0.08	3.65655E-001	9.08491E-005	0.00000E+000	3.32194E-005	5.39641E-002	3.65697E-001	3.57320E+000	9	...........
	6	0.093333	3.80065E-001	9.10460E-005	0.00000E+000	3.46034E-005	5.39641E-002	3.80108E-001	3.57320E+000	9	...........
	7	0.106667	3.93766E-001	9.11210E-005	0.00000E+000	3.58803E-005	5.39641E-002	3.93814E-001	3.57320E+000	9	...........
	8	0.12	4.06836E-001	9.07730E-005	0.00000E+000	3.69298E-005	5.39641E-002	4.06885E-001	3.57320E+000	9	...........
	9	0.133333	4.19329E-001	9.09647E-005	0.00000E+000	3.81442E-005	5.39641E-002	4.19388E-001	3.57320E+000	9	...........
	10	0.146667	4.31293E-001	9.11002E-005	0.00000E+000	3.92908E-005	5.39641E-002	4.31354E-001	3.57320E+000	9	...........
	11	0.16	4.42773E-001	9.10543E-005	0.00000E+000	4.03164E-005	5.39641E-002	4.42832E-001	3.57320E+000	9	...........
	12	0.173333	4.53810E-001	9.09397E-005	0.00000E+000	4.12694E-005	5.39641E-002	4.53873E-001	3.57320E+000	9	...........
	13	0.186667	4.64453E-001	9.11648E-005	0.00000E+000	4.23417E-005	5.39641E-002	4.64510E-001	3.57320E+000	9	...........
	14	0.2	4.74700E-001	9.07876E-005	0.00000E+000	4.30969E-005	5.39641E-002	4.74764E-001	3.57320E+000	9	...........
	15	0.213333	4.84594E-001	9.10074E-005	0.00000E+000	4.41016E-005	5.39641E-002	4.84660E-001	3.57320E+000	9	...........
	16	0.226667	4.94156E-001	9.09137E-005	0.00000E+000	4.49255E-005	5.39641E-002	4.94228E-001	3.57320E+000	9	...........
	17	0.24	5.03428E-001	9.10824E-005	0.00000E+000	4.58534E-005	5.39641E-002	5.03500E-001	3.57320E+000	9	...........
	18	0.253333	5.12395E-001	9.10658E-005	0.00000E+000	4.66616E-005	5.39641E-002	5.12463E-001	3.57320E+000	9	...........
	19	0.266667	5.21081E-001	9.09376E-005	0.00000E+000	4.73858E-005	5.39641E-002	5.21152E-001	3.57320E+000	9	...........
	20	0.28	5.29502E-001	9.09637E-005	0.00000E+000	4.81654E-005	5.39641E-002	5.29575E-001	3.57320E+000	9	...........
	21	0.293333	5.37564E-001	9.08720E-005	0.00000E+000	4.88495E-005	5.39641E-002	5.37699E-001	3.57320E+000	9	...........
	22	0.306667	5.45537E-001	9.07678E-005	0.00000E+000	4.95172E-005	5.39641E-002	5.45651E-001	3.57320E+000	9	...........
	23	0.32	5.53275E-001	9.09157E-005	0.00000E+000	5.03014E-005	5.39641E-002	5.53389E-001	3.57320E+000	9	...........
	24	0.333333	5.60806E-001	9.09449E-005	0.00000E+000	5.10025E-005	5.39641E-002	5.60945E-001	3.57320E+000	9	...........
	25	0.346667	5.68223E-001	9.10220E-005	0.00000E+000	5.17208E-005	5.39641E-002	5.68325E-001	3.57320E+000	9	...........
	26	0.36	5.75388E-001	9.09491E-005	0.00000E+000	5.23310E-005	5.39641E-002	5.75508E-001	3.57320E+000	9	...........
	27	0.373333	5.82378E-001	9.09543E-005	0.00000E+000	5.29698E-005	5.39641E-002	5.82512E-001	3.57320E+000	9	...........
	28	0.386667	5.89229E-001	9.10835E-005	0.00000E+000	5.36690E-005	5.39641E-002	5.89343E-001	3.57320E+000	9	...........
	29	0.4	5.95905E-001	9.07574E-005	0.00000E+000	5.40828E-005	5.39641E-002	5.96002E-001	3.57320E+000	9	...........
	30	0.413333	6.02428E-001	9.09939E-005	0.00000E+000	5.48172E-005	5.39641E-002	6.02523E-001	3.57320E+000	9	...........
	31	0.426667	6.08779E-001	9.08188E-005	0.00000E+000	5.52886E-005	5.39641E-002	6.08902E-001	3.57320E+000	9	...........
	32	0.44	6.15048E-001	9.08782E-005	0.00000E+000	5.58944E-005	5.39641E-002	6.15139E-001	3.57320E+000	9	...........
	33	0.453333	6.21158E-001	9.10887E-005	0.00000E+000	5.65805E-005	5.39641E-002	6.21238E-001	3.57320E+000	9	...........
	34	0.466667	6.27141E-001	9.10428E-005	0.00000E+000	5.70967E-005	5.39641E-002	6.27203E-001	3.57320E+000	9	...........
	35	0.48	6.32972E-001	9.08970E-005	0.00000E+000	5.75352E-005	5.39641E-002	6.33063E-001	3.57320E+000	9	...........
	36	0.493333	6.38719E-001	9.10543E-005	0.00000E+000	5.81581E-005	5.39641E-002	6.38806E-001	3.57320E+000	9	...........
	37	0.506667	6.44377E-001	9.13815E-005	0.00000E+000	5.88841E-005	5.39641E-002	6.44454E-001	3.57320E+000	9	...........
	38	0.52	6.49878E-001	9.07386E-005	0.00000E+000	5.89690E-005	5.39641E-002	6.49990E-001	3.57320E+000	9	...........
	39	0.533333	6.55324E-001	9.10564E-005	0.00000E+000	5.96714E-005	5.39641E-002	6.55424E-001	3.57320E+000	9	...........
	40	0.546667	6.60632E-001	9.10116E-005	0.00000E+000	6.01252E-005	5.39641E-002	6.60746E-001	3.57320E+000	9	...........
	41	0.56	6.65891E-001	9.09939E-005	0.00000E+000	6.05920E-005	5.39641E-002	6.66025E-001	3.57320E+000	9	...........
	42	0.573333	6.71028E-001	9.11085E-005	0.00000E+000	6.11364E-005	5.39641E-002	6.71137E-001	3.57320E+000	9	...........
	43	0.586667	6.76079E-001	9.11575E-005	0.00000E+000	6.16296E-005	5.39641E-002	6.76187E-001	3.57320E+000	9	...........
	44	0.6	6.81013E-001	9.10522E-005	0.00000E+000	6.20078E-005	5.39641E-002	6.81154E-001	3.57320E+000	9	...........
	45	0.613333	6.85872E-001	9.09668E-005	0.00000E+000	6.23916E-005	5.39641E-002	6.86020E-001	3.57320E+000	9	...........
	46	0.626667	6.90682E-001	9.11095E-005	0.00000E+000	6.29277E-005	5.39641E-002	6.90823E-001	3.57320E+000	9	...........
	47	0.64	6.95402E-001	9.10533E-005	0.00000E+000	6.33186E-005	5.39641E-002	6.95536E-001	3.57320E+000	9	...........
	48	0.653333	7.00033E-001	9.08793E-005	0.00000E+000	6.36185E-005	5.39641E-002	7.00183E-001	3.57320E+000	9	...........
	49	0.666667	7.04618E-001	9.09793E-005	0.00000E+000	6.41057E-005	5.39641E-002	7.04773E-001	3.57320E+000	9	...........
	50	0.68	7.09123E-001	9.09605E-005	0.00000E+000	6.45023E-005	5.39641E-002	7.09289E-001	3.57320E+000	9	...........
	51	0.693333	7.13545E-001	9.09126E-005	0.00000E+000	6.48703E-005	5.39641E-002	7.13703E-001	3.57320E+000	9	...........
	52	0.706667	7.17982E-001	9.10210E-005	0.00000E+000	6.53514E-005	5.39641E-002	7.18125E-001	3.57320E+000	9	...........
	53	0.72	7.22316E-001	9.13856E-005	0.00000E+000	6.60093E-005	5.39641E-002	7.22410E-001	3.57320E+000	9	...........
	54	0.733333	7.26560E-001	9.08959E-005	0.00000E+000	6.60414E-005	5.39641E-002	7.26628E-001	3.57320E+000	9	...........
	55	0.746667	7.30752E-001	9.10679E-005	0.00000E+000	6.65480E-005	5.39641E-002	7.30860E-001	3.57320E+000	9	...........
	56	0.76	7.34857E-001	9.10793E-005	0.00000E+000	6.69303E-005	5.39641E-002	7.34961E-001	3.57320E+000	9	...........
	57	0.773333	7.38941E-001	9.09074E-005	0.00000E+000	6.71752E-005	5.39641E-002	7.39053E-001	3.57320E+000	9	...........
	58	0.786667	7.42971E-001	9.10470E-005	0.00000E+000	6.76453E-005	5.39641E-002	7.43116E-001	3.57320E+000	9	...........
	59	0.8	7.46930E-001	9.08626E-005	0.00000E+000	6.78680E-005	5.39641E-002	7.47059E-001	3.57320E+000	9	...........
	60	0.813333	7.50833E-001	9.10981E-005	0.00000E+000	6.83994E-005	5.39641E-002	7.50985E-001	3.57320E+000	9	...........
	61	0.826667	7.54742E-001	9.11262E-005	0.00000E+000	6.87767E-005	5.39641E-002	7.54885E-001	3.57320E+000	9	...........
	62	0.84	7.58582E-001	9.08845E-005	0.00000E+000	6.89433E-005	5.39641E-002	7.58709E-001	3.57320E+000	9	...........
	63	0.853333	7.62352E-001	9.09574E-005	0.00000E+000	6.93416E-005	5.39641E-002	7.62515E-001	3.57320E+000	9	...........
	64	0.866667	7.66117E-001	9.08199E-005	0.00000E+000	6.95787E-005	5.39641E-002	7.66282E-001	3.57320E+000	9	...........
	65	0.88	7.69837E-001	9.13169E-005	0.00000E+000	7.02991E-005	5.39641E-002	7.70000E-001	3.57320E+000	9	...........
	66	0.893333	7.73475E-001	9.12325E-005	0.00000E+000	7.05660E-005	5.39641E-002	7.73627E-001	3.57320E+000	9	...........
	67	0.906667	7.77075E-001	9.09491E-005	0.00000E+000	7.06742E-005	5.39641E-002	7.77242E-001	3.57320E+000	9	...........
	68	0.92	7.80631E-001	9.10272E-005	0.00000E+000	7.10587E-005	5.39641E-002	7.80784E-001	3.57320E+000	9	...........
	69	0.933333	7.84182E-001	9.06719E-005	0.00000E+000	7.11033E-005	5.39641E-002	7.84307E-001	3.57320E+000	9	...........
	70	0.946667	7.87661E-001	9.09532E-005	0.00000E+000	7.16404E-005	5.39641E-002	7.87801E-001	3.57320E+000	9	...........
	71	0.96	7.91104E-001	9.08470E-005	0.00000E+000	7.18694E-005	5.39641E-002	7.91251E-001	3.57390E+000	9	...........
	72	0.97333	7.94584E-001	9.10512E-005	0.00000E+000	7.23478E-005	5.39641E-002	7.94687E-001	3.57400E+000	9	...........
	73	0.98667	7.97940E-001	9.07824E-005	0.00000E+000	7.24389E-005	5.39641E-002	7.98048E-001	3.57400E+000	9	...........
	74	1	8.01226E-001	9.10877E-005	0.00000E+000	7.29818E-005	5.39641E-002	8.01377E-001	3.57400E+000	9	...........
	75	1.01333	8.04519E-001	9.11314E-005	0.00000E+000	7.33169E-005	5.39641E-002	8.04661E-001	3.57400E+000	9	...........
	76	1.02667	8.07771E-001	9.11366E-005	0.00000E+000	7.36175E-005	5.39641E-002	8.07932E-001	3.57400E+000	9	...........
	77	1.04	8.10987E-001	9.08001E-005	0.00000E+000	7.36377E-005	5.39641E-002	8.11133E-001	3.57400E+000	9	...........
	78	1.05333	8.14177E-001	9.09512E-005	0.00000E+000	7.40504E-005	5.39641E-002	8.14328E-001	3.57400E+000	9	...........
	79	1.06667	8.17342E-001	9.09564E-005	0.00000E+000	7.43425E-005	5.39641E-002	8.17480E-001	3.57400E+000	9	...........
	80	1.08	8.20493E-001	9.09991E-005	0.00000E+000	7.46642E-005	5.39641E-002	8.20638E-001	3.57400E+000	9	...........
	81	1.09333	8.23550E-001	9.09626E-005	0.00000E+000	7.49122E-005	5.39641E-002	8.23691E-001	3.57400E+000	9	...........
	82	1.10667	8.26616E-001	9.09949E-005	0.00000E+000	7.52178E-005	5.39641E-002	8.26765E-001	3.57400E+000	9	...........
	83	1.12	8.29634E-001	9.09324E-005	0.00000E+000	7.54406E-005	5.39641E-002	8.29781E-001	3.57400E+000	9	...........
	84	1.13333	8.32610E-001	9.10001E-005	0.00000E+000	7.57677E-005	5.39641E-002	8.32760E-001	3.57400E+000	9	...........
	85	1.14667	8.35549E-001	9.09084E-005	0.00000E+000	7.59585E-005	5.39641E-002	8.35710E-001	3.57400E+000	9	...........
	86	1.16	8.38481E-001	9.09209E-005	0.00000E+000	7.62355E-005	5.39641E-002	8.38629E-001	3.57400E+000	9	...........
	87	1.17333	8.41354E-001	9.12023E-005	0.00000E+000	7.67334E-005	5.39641E-002	8.41513E-001	3.57400E+000	9	...........
	88	1.18667	8.44271E-001	9.10647E-005	0.00000E+000	7.68833E-005	5.39641E-002	8.44442E-001	3.57400E+000	9	...........
	89	1.2	8.47108E-001	9.09689E-005	0.00000E+000	7.70605E-005	5.39641E-002	8.47284E-001	3.57400E+000	9	...........
	90	1.21333	8.49901E-001	9.10033E-005	0.00000E+000	7.73437E-005	5.39641E-002	8.50042E-001	3.57400E+000	9	...........
	91	1.22667	8.52668E-001	9.12335E-005	0.00000E+000	7.77919E-005	5.39641E-002	8.52808E-001	3.57400E+000	9	...........
	92	1.24	8.55405E-001	9.10283E-005	0.00000E+000	7.78660E-005	5.39641E-002	8.55558E-001	3.57400E+000	9	...........
	93	1.25333	8.58130E-001	9.08595E-005	0.00000E+000	7.79692E-005	5.39641E-002	8.58299E-001	3.57400E+000	9	...........
	94	1.26667	8.60863E-001	9.09116E-005	0.00000E+000	7.82624E-005	5.39641E-002	8.61008E-001	3.57400E+000	9	...........
	95	1.28	8.63516E-001	9.11314E-005	0.00000E+000	7.86934E-005	5.39641E-002	8.63693E-001	3.57400E+000	9	...........
	96	1.29333	8.66143E-001	9.11043E-005	0.00000E+000	7.89094E-005	5.39641E-002	8.66342E-001	3.57400E+000	9	...........
	97	1.30667	8.68774E-001	9.09366E-005	0.00000E+000	7.90033E-005	5.39641E-002	8.68989E-001	3.57400E+000	9	...........
	98	1.32	8.71366E-001	9.13575E-005	0.00000E+000	7.96058E-005	5.39641E-002	8.71573E-001	3.57400E+000	9	...........
	99	1.33333	8.73937E-001	9.09574E-005	0.00000E+000	7.94910E-005	5.39641E-002	8.74151E-001	3.57400E+000	9	...........
	100	1.34667	8.76478E-001	9.11960E-005	0.00000E+000	7.99313E-005	5.39641E-002	8.76681E-001	3.57400E+000	9	...........
	101	1.36	8.78993E-001	9.10751E-005	0.00000E+000	8.00544E-005	5.39641E-002	8.79197E-001	3.57400E+000	9	...........
	102	1.37333	8.81491E-001	9.11137E-005	0.00000E+000	8.03159E-005	5.39641E-002	8.81704E-001	3.57400E+000	9	...........
	103	1.38667	8.84011E-001	9.09366E-005	0.00000E+000	8.03889E-005	5.39641E-002	8.84201E-001	3.57400E+000	9	...........
	104	1.4	8.86429E-001	9.10981E-005	0.00000E+000	8.07520E-005	5.39641E-002	8.86623E-001	3.57400E+000	9	...........
	105	1.41333	8.88829E-001	9.12137E-005	0.00000E+000	8.10734E-005	5.39641E-002	8.89014E-001	3.57400E+000	9	...........
	106	1.42667	8.91221E-001	9.09241E-005	0.00000E+000	8.10334E-005	5.39641E-002	8.91374E-001	3.57400E+000	9	...........
	107	1.44	8.93568E-001	9.12491E-005	0.00000E+000	8.15373E-005	5.39641E-002	8.93752E-001	3.57400E+000	9	...........
	108	1.45333	8.95919E-001	9.11200E-005	0.00000E+000	8.16361E-005	5.39641E-002	8.96110E-001	3.57400E+000	9	...........
	109	1.46667	8.98245E-001	9.10314E-005	0.00000E+000	8.17685E-005	5.39641E-002	8.98429E-001	3.57400E+000	9	...........
	110	1.48	9.00529E-001	9.10137E-005	0.00000E+000	8.19605E-005	5.39641E-002	9.00719E-001	3.57400E+000	9	...........
	111	1.49333	9.02820E-001	9.11804E-005	0.00000E+000	8.23195E-005	5.39641E-002	9.03014E-001	3.57400E+000	9	...........
	112	1.50667	9.05077E-001	9.11616E-005	0.00000E+000	8.25083E-005	5.39641E-002	9.05273E-001	3.57400E+000	9	...........
	113	1.52	9.07305E-001	9.11168E-005	0.00000E+000	8.26708E-005	5.39641E-002	9.07492E-001	3.57400E+000	9	...........
	114	1.53333	9.09509E-001	9.10710E-005	0.00000E+000	8.28299E-005	5.39641E-002	9.09682E-001	3.57400E+000	9	...........
	115	1.54667	9.11668E-001	9.12335E-005	0.00000E+000	8.31747E-005	5.39641E-002	9.11838E-001	3.57400E+000	9	...........
	116	1.56	9.13804E-001	9.10793E-005	0.00000E+000	8.32287E-005	5.39641E-002	9.13989E-001	3.57400E+000	9	...........
	117	1.57333	9.15929E-001	9.11762E-005	0.00000E+000	8.35109E-005	5.39641E-002	9.16105E-001	3.57400E+000	9	...........
	118	1.58667	9.17991E-001	9.12929E-005	0.00000E+000	8.38060E-005	5.39641E-002	9.18168E-001	3.57400E+000	9	...........
	119	1.6	9.20084E-001	9.11293E-005	0.00000E+000	8.38466E-005	5.39641E-002	9.20242E-001	3.57400E+000	9	...........
	120	1.61333	9.22206E-001	9.12148E-005	0.00000E+000	8.41188E-005	5.39641E-002	9.22343E-001	3.57400E+000	9	...........
	121	1.62667	9.24244E-001	9.09324E-005	0.00000E+000	8.40438E-005	5.39641E-002	9.24372E-001	3.57400E+000	9	...........
	122	1.64	9.26251E-001	9.11022E-005	0.00000E+000	8.43836E-005	5.39641E-002	9.26407E-001	3.57400E+000	9	...........
	123	1.65333	9.28270E-001	9.10522E-005	0.00000E+000	8.45210E-005	5.39641E-002	9.28418E-001	3.57400E+000	9	...........
	124	1.66667	9.30241E-001	9.10491E-005	0.00000E+000	8.46976E-005	5.39641E-002	9.30377E-001	3.57400E+000	9	...........
	125	1.68	9.32183E-001	9.10960E-005	0.00000E+000	8.49182E-005	5.39641E-002	9.32343E-001	3.57400E+000	9	...........
	126	1.69333	9.34097E-001	9.06646E-005	0.00000E+000	8.46895E-005	5.39641E-002	9.34275E-001	3.57400E+000	9	...........
	127	1.70667	9.36021E-001	9.10366E-005	0.00000E+000	8.52122E-005	5.39641E-002	9.36207E-001	3.57400E+000	9	...........
	128	1.72	9.37939E-001	9.11408E-005	0.00000E+000	8.54845E-005	5.39641E-002	9.38123E-001	3.57400E+000	9	...........
	129	1.73333	9.39811E-001	9.08939E-005	0.00000E+000	8.54231E-005	5.39641E-002	9.40006E-001	3.57400E+000	9	...........
	130	1.74667	9.41668E-001	9.07803E-005	0.00000E+000	8.54849E-005	5.39641E-002	9.41803E-001	3.57400E+000	9	...........
	131	1.76	9.43480E-001	9.12887E-005	0.00000E+000	8.61291E-005	5.39641E-002	9.43656E-001	3.57400E+000	9	...........
	132	1.77333	9.45272E-001	9.10418E-005	0.00000E+000	8.60593E-005	5.39641E-002	9.45486E-001	3.57400E+000	9	...........
	133	1.78667	9.47137E-001	9.06542E-005	0.00000E+000	8.58619E-005	5.39641E-002	9.47320E-001	3.57400E+000	9	...........
	134	1.8	9.48933E-001	9.11543E-005	0.00000E+000	8.64994E-005	5.39641E-002	9.49135E-001	3.57400E+000	9	...........
	135	1.81333	9.50710E-001	9.12908E-005	0.00000E+000	8.67911E-005	5.39641E-002	9.50911E-001	3.57400E+000	9	...........
	136	1.82667	9.52425E-001	9.09543E-005	0.00000E+000	8.66271E-005	5.39641E-002	9.52628E-001	3.57400E+000	9	...........
	137	1.84	9.54168E-001	9.09397E-005	0.00000E+000	8.67717E-005	5.39641E-002	9.54338E-001	3.57400E+000	9	...........
	138	1.85333	9.55872E-001	9.10418E-005	0.00000E+000	8.70243E-005	5.39641E-002	9.56039E-001	3.57400E+000	9	...........
	139	1.86667	9.57544E-001	9.10918E-005	0.00000E+000	8.72244E-005	5.39641E-002	9.57738E-001	3.57400E+000	9	...........
	140	1.88	9.59226E-001	9.11095E-005	0.00000E+000	8.73946E-005	5.39641E-002	9.59411E-001	3.57400E+000	9	...........
	141	1.89333	9.60880E-001	9.09418E-005	0.00000E+000	8.73842E-005	5.39641E-002	9.61073E-001	3.57400E+000	9	...........
	142	1.90667	9.62527E-001	9.08751E-005	0.00000E+000	8.74698E-005	5.39641E-002	9.62729E-001	3.57400E+000	9	...........
	143	1.92	9.64139E-001	9.10345E-005	0.00000E+000	8.77699E-005	5.39641E-002	9.64338E-001	3.57400E+000	9	...........
	144	1.93333	9.65748E-001	9.08220E-005	0.00000E+000	8.77112E-005	5.39641E-002	9.65935E-001	3.57400E+000	9	...........
	145	1.94667	9.67328E-001	9.11418E-005	0.00000E+000	8.81640E-005	5.39641E-002	9.67536E-001	3.57400E+000	9	...........
	146	1.96	9.68936E-001	9.09178E-005	0.00000E+000	8.80935E-005	5.39641E-002	9.69136E-001	3.57269E+000	9	...........
	147	1.97333	9.70506E-001	9.10262E-005	0.00000E+000	8.83415E-005	5.39641E-002	9.70735E-001	3.57250E+000	9	...........
	148	1.98667	9.72071E-001	9.09491E-005	0.00000E+000	8.84089E-005	5.39641E-002	9.72298E-001	3.57250E+000	9	...........
	149	2	9.73634E-001	9.09741E-005	0.00000E+000	8.85754E-005	5.39641E-002	9.73844E-001	3.57250E+000	9	...........
	150	2.01333	9.75179E-001	9.12721E-005	0.00000E+000	8.90066E-005	5.39641E-002	9.75358E-001	3.57250E+000	9	...........
	151	2.02667	9.76672E-001	9.09303E-005	0.00000E+000	8.88091E-005	5.39641E-002	9.76881E-001	3.57250E+000	9	...........
	152	2.04	9.78169E-001	9.14898E-005	0.00000E+000	8.94925E-005	5.39641E-002	9.78381E-001	3.57250E+000	9	...........
	153	2.05333	9.79663E-001	9.12043E-005	0.00000E+000	8.93496E-005	5.39641E-002	9.79844E-001	3.57250E+000	9	...........
	154	2.06667	9.81113E-001	9.12241E-005	0.00000E+000	8.95012E-005	5.39641E-002	9.81280E-001	3.57250E+000	9	...........
	155	2.08	9.82536E-001	9.08678E-005	0.00000E+000	8.92809E-005	5.39641E-002	9.82706E-001	3.57250E+000	9	...........
	156	2.09333	9.83958E-001	9.10345E-005	0.00000E+000	8.95741E-005	5.39641E-002	9.84169E-001	3.57250E+000	9	...........
	157	2.10667	9.85392E-001	9.09866E-005	0.00000E+000	8.96574E-005	5.39641E-002	9.85612E-001	3.57250E+000	9	...........
	158	2.12	9.86799E-001	9.09095E-005	0.00000E+000	8.97094E-005	5.39641E-002	9.87020E-001	3.57250E+000	9	...........
	159	2.13333	9.88183E-001	9.10554E-005	0.00000E+000	8.99793E-005	5.39641E-002	9.88427E-001	3.57250E+000	9	...........
	160	2.14667	9.89550E-001	9.09803E-005	0.00000E+000	9.00296E-005	5.39641E-002	9.89796E-001	3.57250E+000	9	...........
	161	2.16	9.90904E-001	9.08824E-005	0.00000E+000	9.00557E-005	5.39641E-002	9.91137E-001	3.57250E+000	9	...........
	162	2.17333	9.92217E-001	9.09397E-005	0.00000E+000	9.02319E-005	5.39641E-002	9.92457E-001	3.57250E+000	9	...........
	163	2.18667	9.93511E-001	9.10981E-005	0.00000E+000	9.05070E-005	5.39641E-002	9.93764E-001	3.57250E+000	9	...........
	164	2.2	9.94837E-001	9.10210E-005	0.00000E+000	9.05510E-005	5.39641E-002	9.95062E-001	3.57250E+000	9	...........
	165	2.21333	9.96160E-001	9.10845E-005	0.00000E+000	9.07347E-005	5.39641E-002	9.96362E-001	3.57250E+000	9	...........
	166	2.22667	9.97454E-001	9.08991E-005	0.00000E+000	9.06676E-005	5.39641E-002	9.97692E-001	3.57250E+000	9	...........
	167	2.24	9.98761E-001	9.11533E-005	0.00000E+000	9.10403E-005	5.39641E-002	9.98976E-001	3.57250E+000	9	...........
	168	2.24833	9.99788E-001	9.09393E-005	0.00000E+000	9.09200E-005	5.39641E-002	1.00000E+000	3.57250E+000	9	...........
STARTTIMEOFFSET	QUANT	2158.054	Start Time Offset (s)
