EXPLAIN
TAG	PWR800_CHARGE
TITLE	LABEL	PWR Cyclic Charge Discharge (Cell) - Charge Step	Test &Identifier
DATE	LABEL	10-7-2017	Date
TIME	LABEL	16:06:40	Time
NOTES	NOTES	3	&Notes...
	supercap test cell
	0.9mg
	6M KOH
PSTAT	PSTAT	IFC5000-01520	Potentiostat
CAPACITY	QUANT	1.00000E-003	Capacity (A-hr)
CELLTYPE	SELECTOR	1	&Cell Type
WORKINGCONNECTION	SELECTOR	0	&Working Lead
MAXCHARGETIME	VARIABLEANDUNITS	1.00000E+002	s	1.00000E+002	second(s)	Max &Charge Time
CHARGECURRENT	QUANT	9.00000E-005	&Charge Current (A) 
VOLTAGEFINISH	TWOPARAM	F	1.00000E-003	3.60000E+003	&Voltage Finish	 I (A) < 	Max Time(s)
SAMPLETIME	QUANT	1.00000E-002	Sa&mple Period (s)
CHARGESTOPAT1	MULTIPARAM	4	1.00000E+000	Charge Stop At &1	Voltage > Limit	V
CHARGESTOPAT2	MULTIPARAM	0	0.00000E+000	Charge Stop At &2	None	N/A
AESBHCSELECTOR	TOGGLE	F	Save Both Half Cells
IRCOMP	TOGGLE	F	IR &Measure
EOC	QUANT	0	Open Circuit (V)
SEQUENCER	TOGGLE	TRUE	Run as Sequence
PSTATMODEL	IQUANT	53	Pstat Model
PSTATSECTION	LABEL	IFC5000-01520	Pstat Section
PSTATSERIALNO	LABEL	01520	Pstat Serial Number
CTRLMODE	IQUANT	0	Control Mode
ELECTROMETER	IQUANT	1	RE=0 or CS=1
IESTAB	IQUANT	0	I/E Stability
CASPEED	IQUANT	4	Control Amp Speed
CONVENTION	IQUANT	1	Current Convention
ICHRANGE	IQUANT	2	Ich Range
ICHRANGEMODE	TOGGLE	T	Ich Auto Range
ICHOFFSETENABLE	TOGGLE	F	Ich Offset Enable
ICHOFFSET	QUANT	0	Ich Offset (V)
ICHFILTER	IQUANT	1	Ich Filter
VCHRANGE	IQUANT	2	Vch Range
VCHRANGEMODE	TOGGLE	T	Vch Auto Range
VCHOFFSETENABLE	TOGGLE	F	Vch Offset Enable
VCHOFFSET	QUANT	0	Vch Offset (V)
VCHFILTER	IQUANT	1	Vch Filter
IERANGELOWERLIMIT	IQUANT	9	I/E Range Lower Limit
IERANGEMODE	TOGGLE	F	I/E AutoRange
IERANGE	IQUANT	9	I/E Range
ACHSELECT	IQUANT	1	Ach Select
ACHRANGE	IQUANT	2	Ach Range
ACHOFFSETENABLE	TOGGLE	F	Ach Offset Enable
ACHOFFSET	QUANT	0	Ach Offset (V)
ACHFILTER	IQUANT	1	Ach Filter
CABLEID	IQUANT	14	Cable ID
DCCALDATE	LABEL	5-7-2017	DC Calibration Date
ACCALDATE	LABEL	12/3/2015	AC Calibration Date
FRAMEWORKVERSION	QUANT	7.01	Framework Version
INSTRUMENTVERSION	LABEL	4.00	Instrument Version
CURVE	TABLE	164
	Pt	T	Vf	Im	Vu	Pwr	Sig	Ach	Temp	IERange	Over
	#	s	V	A	V	W	V	V	deg C	#	bits
	0	0.013333	2.70174E-001	9.11158E-005	0.00000E+000	2.46171E-005	5.39641E-002	2.70243E-001	3.57300E+000	9	...........
	1	0.026667	2.89814E-001	9.07970E-005	0.00000E+000	2.63142E-005	5.39641E-002	2.89850E-001	3.57300E+000	9	...........
	2	0.04	3.08228E-001	9.08522E-005	0.00000E+000	2.80032E-005	5.39641E-002	3.08265E-001	3.57300E+000	9	...........
	3	0.053333	3.25583E-001	9.12075E-005	0.00000E+000	2.96956E-005	5.39641E-002	3.25622E-001	3.57300E+000	9	...........
	4	0.066667	3.41991E-001	9.09720E-005	0.00000E+000	3.11116E-005	5.39641E-002	3.42032E-001	3.57300E+000	9	...........
	5	0.08	3.57548E-001	9.08845E-005	0.00000E+000	3.24956E-005	5.39641E-002	3.57594E-001	3.57300E+000	9	...........
	6	0.093333	3.72340E-001	9.10085E-005	0.00000E+000	3.38861E-005	5.39641E-002	3.72385E-001	3.57300E+000	9	...........
	7	0.106667	3.86437E-001	9.08241E-005	0.00000E+000	3.50978E-005	5.39641E-002	3.86479E-001	3.57300E+000	9	...........
	8	0.12	3.99889E-001	9.11158E-005	0.00000E+000	3.64362E-005	5.39641E-002	3.99935E-001	3.57300E+000	9	...........
	9	0.133333	4.12757E-001	9.09981E-005	0.00000E+000	3.75601E-005	5.39641E-002	4.12814E-001	3.57300E+000	9	...........
	10	0.146667	4.25081E-001	9.09512E-005	0.00000E+000	3.86616E-005	5.39641E-002	4.25135E-001	3.57300E+000	9	...........
	11	0.16	4.36914E-001	9.10387E-005	0.00000E+000	3.97761E-005	5.39641E-002	4.36968E-001	3.57300E+000	9	...........
	12	0.173333	4.48265E-001	9.08918E-005	0.00000E+000	4.07436E-005	5.39641E-002	4.48324E-001	3.57300E+000	9	...........
	13	0.186667	4.59190E-001	9.09147E-005	0.00000E+000	4.17471E-005	5.39641E-002	4.59251E-001	3.57300E+000	9	...........
	14	0.2	4.69723E-001	9.07845E-005	0.00000E+000	4.26436E-005	5.39641E-002	4.69789E-001	3.57300E+000	9	...........
	15	0.213333	4.79880E-001	9.07740E-005	0.00000E+000	4.35607E-005	5.39641E-002	4.79946E-001	3.57300E+000	9	...........
	16	0.226667	4.89685E-001	9.07970E-005	0.00000E+000	4.44619E-005	5.39641E-002	4.89754E-001	3.57300E+000	9	...........
	17	0.24	4.99174E-001	9.10303E-005	0.00000E+000	4.54400E-005	5.39641E-002	4.99242E-001	3.57300E+000	9	...........
	18	0.253333	5.08362E-001	9.07365E-005	0.00000E+000	4.61270E-005	5.39641E-002	5.08431E-001	3.57300E+000	9	...........
	19	0.266667	5.17265E-001	9.09626E-005	0.00000E+000	4.70518E-005	5.39641E-002	5.17338E-001	3.57300E+000	9	...........
	20	0.28	5.25890E-001	9.10918E-005	0.00000E+000	4.79042E-005	5.39641E-002	5.25965E-001	3.57300E+000	9	...........
	21	0.293333	5.34227E-001	9.09209E-005	0.00000E+000	4.85724E-005	5.39641E-002	5.34306E-001	3.57300E+000	9	...........
	22	0.306667	5.42344E-001	9.10939E-005	0.00000E+000	4.94043E-005	5.39641E-002	5.42457E-001	3.57300E+000	9	...........
	23	0.32	5.50279E-001	9.09376E-005	0.00000E+000	5.00410E-005	5.39641E-002	5.50390E-001	3.57300E+000	9	...........
	24	0.333333	5.57971E-001	9.09251E-005	0.00000E+000	5.07336E-005	5.39641E-002	5.58104E-001	3.57300E+000	9	...........
	25	0.346667	5.65527E-001	9.09439E-005	0.00000E+000	5.14312E-005	5.39641E-002	5.65611E-001	3.57300E+000	9	...........
	26	0.36	5.72842E-001	9.08584E-005	0.00000E+000	5.20475E-005	5.39641E-002	5.72928E-001	3.57300E+000	9	...........
	27	0.373333	5.79968E-001	9.08251E-005	0.00000E+000	5.26757E-005	5.39641E-002	5.80051E-001	3.57300E+000	9	...........
	28	0.386667	5.86915E-001	9.09845E-005	0.00000E+000	5.34001E-005	5.39641E-002	5.87026E-001	3.57300E+000	9	...........
	29	0.4	5.93743E-001	9.11700E-005	0.00000E+000	5.41316E-005	5.39641E-002	5.93837E-001	3.57300E+000	9	...........
	30	0.413333	6.00358E-001	9.08438E-005	0.00000E+000	5.45389E-005	5.39641E-002	6.00497E-001	3.57300E+000	9	...........
	31	0.426667	6.06884E-001	9.09897E-005	0.00000E+000	5.52202E-005	5.39641E-002	6.06963E-001	3.57300E+000	9	...........
	32	0.44	6.13258E-001	9.10658E-005	0.00000E+000	5.58468E-005	5.39641E-002	6.13366E-001	3.57300E+000	9	...........
	33	0.453333	6.19528E-001	9.10512E-005	0.00000E+000	5.64087E-005	5.39641E-002	6.19596E-001	3.57300E+000	9	...........
	34	0.466667	6.25593E-001	9.11929E-005	0.00000E+000	5.70496E-005	5.39641E-002	6.25677E-001	3.57300E+000	9	...........
	35	0.48	6.31549E-001	9.07417E-005	0.00000E+000	5.73078E-005	5.39641E-002	6.31658E-001	3.57300E+000	9	...........
	36	0.493333	6.37397E-001	9.12095E-005	0.00000E+000	5.81367E-005	5.39641E-002	6.37483E-001	3.57300E+000	9	...........
	37	0.506667	6.43129E-001	9.12023E-005	0.00000E+000	5.86548E-005	5.39641E-002	6.43241E-001	3.57300E+000	9	...........
	38	0.52	6.48735E-001	9.09512E-005	0.00000E+000	5.90032E-005	5.39641E-002	6.48826E-001	3.57300E+000	9	...........
	39	0.533333	6.54271E-001	9.10522E-005	0.00000E+000	5.95728E-005	5.39641E-002	6.54367E-001	3.57300E+000	9	...........
	40	0.546667	6.59676E-001	9.08188E-005	0.00000E+000	5.99111E-005	5.39641E-002	6.59782E-001	3.57300E+000	9	...........
	41	0.56	6.65008E-001	9.09939E-005	0.00000E+000	6.05117E-005	5.39641E-002	6.65128E-001	3.57300E+000	9	...........
	42	0.573333	6.70285E-001	9.10877E-005	0.00000E+000	6.10547E-005	5.39641E-002	6.70357E-001	3.57300E+000	9	...........
	43	0.586667	6.75395E-001	9.09949E-005	0.00000E+000	6.14575E-005	5.39641E-002	6.75498E-001	3.57300E+000	9	...........
	44	0.6	6.80432E-001	9.08116E-005	0.00000E+000	6.17911E-005	5.39641E-002	6.80563E-001	3.57300E+000	9	...........
	45	0.613333	6.85383E-001	9.09147E-005	0.00000E+000	6.23114E-005	5.39641E-002	6.85508E-001	3.57300E+000	9	...........
	46	0.626667	6.90268E-001	9.08074E-005	0.00000E+000	6.26814E-005	5.39641E-002	6.90399E-001	3.57300E+000	9	...........
	47	0.64	6.95095E-001	9.08772E-005	0.00000E+000	6.31682E-005	5.39641E-002	6.95210E-001	3.57300E+000	9	...........
	48	0.653333	6.99834E-001	9.10283E-005	0.00000E+000	6.37047E-005	5.39641E-002	6.99973E-001	3.57300E+000	9	...........
	49	0.666667	7.04523E-001	9.09939E-005	0.00000E+000	6.41073E-005	5.39641E-002	7.04643E-001	3.57300E+000	9	...........
	50	0.68	7.09151E-001	9.10772E-005	0.00000E+000	6.45875E-005	5.39641E-002	7.09269E-001	3.57300E+000	9	...........
	51	0.693333	7.13688E-001	9.10991E-005	0.00000E+000	6.50163E-005	5.39641E-002	7.13816E-001	3.57300E+000	9	...........
	52	0.706667	7.18194E-001	9.09439E-005	0.00000E+000	6.53154E-005	5.39641E-002	7.18335E-001	3.57300E+000	9	...........
	53	0.72	7.22605E-001	9.11564E-005	0.00000E+000	6.58701E-005	5.39641E-002	7.22726E-001	3.57383E+000	9	...........
	54	0.733333	7.26953E-001	9.10679E-005	0.00000E+000	6.62020E-005	5.39641E-002	7.27065E-001	3.57410E+000	9	...........
	55	0.746667	7.31250E-001	9.09533E-005	0.00000E+000	6.65096E-005	5.39641E-002	7.31394E-001	3.57410E+000	9	...........
	56	0.76	7.35474E-001	9.11335E-005	0.00000E+000	6.70264E-005	5.39641E-002	7.35618E-001	3.57410E+000	9	...........
	57	0.773333	7.39647E-001	9.11033E-005	0.00000E+000	6.73843E-005	5.39641E-002	7.39801E-001	3.57410E+000	9	...........
	58	0.786667	7.43815E-001	9.08439E-005	0.00000E+000	6.75710E-005	5.39641E-002	7.43954E-001	3.57410E+000	9	...........
	59	0.8	7.47885E-001	9.07751E-005	0.00000E+000	6.78894E-005	5.39641E-002	7.48024E-001	3.57410E+000	9	...........
	60	0.813333	7.51919E-001	9.11231E-005	0.00000E+000	6.85172E-005	5.39641E-002	7.52060E-001	3.57410E+000	9	...........
	61	0.826667	7.55926E-001	9.11043E-005	0.00000E+000	6.88681E-005	5.39641E-002	7.56069E-001	3.57410E+000	9	...........
	62	0.84	7.59826E-001	9.10501E-005	0.00000E+000	6.91823E-005	5.39641E-002	7.60004E-001	3.57410E+000	9	...........
	63	0.853333	7.63737E-001	9.10147E-005	0.00000E+000	6.95113E-005	5.39641E-002	7.63876E-001	3.57410E+000	9	...........
	64	0.866667	7.67555E-001	9.09887E-005	0.00000E+000	6.98388E-005	5.39641E-002	7.67746E-001	3.57410E+000	9	...........
	65	0.88	7.71358E-001	9.08386E-005	0.00000E+000	7.00691E-005	5.39641E-002	7.71514E-001	3.57410E+000	9	...........
	66	0.893333	7.75087E-001	9.10460E-005	0.00000E+000	7.05685E-005	5.39641E-002	7.75221E-001	3.57410E+000	9	...........
	67	0.906667	7.78791E-001	9.09918E-005	0.00000E+000	7.08636E-005	5.39641E-002	7.78941E-001	3.57410E+000	9	...........
	68	0.92	7.82477E-001	9.10241E-005	0.00000E+000	7.12243E-005	5.39641E-002	7.82599E-001	3.57410E+000	9	...........
	69	0.933333	7.86056E-001	9.10147E-005	0.00000E+000	7.15426E-005	5.39641E-002	7.86192E-001	3.57410E+000	9	...........
	70	0.946667	7.89632E-001	9.11002E-005	0.00000E+000	7.19356E-005	5.39641E-002	7.89785E-001	3.57410E+000	9	...........
	71	0.96	7.93227E-001	9.09960E-005	0.00000E+000	7.21805E-005	5.39641E-002	7.93355E-001	3.57410E+000	9	...........
	72	0.97333	7.96738E-001	9.11179E-005	0.00000E+000	7.25971E-005	5.39641E-002	7.96855E-001	3.57410E+000	9	...........
	73	0.98667	8.00232E-001	9.11397E-005	0.00000E+000	7.29330E-005	5.39641E-002	8.00356E-001	3.57410E+000	9	...........
	74	1	8.03686E-001	9.08949E-005	0.00000E+000	7.30510E-005	5.39641E-002	8.03807E-001	3.57410E+000	9	...........
	75	1.01333	8.07094E-001	9.11408E-005	0.00000E+000	7.35591E-005	5.39641E-002	8.07220E-001	3.57410E+000	9	...........
	76	1.02667	8.10435E-001	9.09585E-005	0.00000E+000	7.37159E-005	5.39641E-002	8.10565E-001	3.57410E+000	9	...........
	77	1.04	8.13746E-001	9.11325E-005	0.00000E+000	7.41587E-005	5.39641E-002	8.13902E-001	3.57410E+000	9	...........
	78	1.05333	8.17056E-001	9.10814E-005	0.00000E+000	7.44186E-005	5.39641E-002	8.17193E-001	3.57410E+000	9	...........
	79	1.06667	8.20310E-001	9.10251E-005	0.00000E+000	7.46688E-005	5.39641E-002	8.20433E-001	3.57410E+000	9	...........
	80	1.08	8.23515E-001	9.10095E-005	0.00000E+000	7.49477E-005	5.39641E-002	8.23650E-001	3.57410E+000	9	...........
	81	1.09333	8.26684E-001	9.11335E-005	0.00000E+000	7.53386E-005	5.39641E-002	8.26807E-001	3.57410E+000	9	...........
	82	1.10667	8.29822E-001	9.11345E-005	0.00000E+000	7.56254E-005	5.39641E-002	8.29946E-001	3.57410E+000	9	...........
	83	1.12	8.32949E-001	9.10647E-005	0.00000E+000	7.58523E-005	5.39641E-002	8.33098E-001	3.57410E+000	9	...........
	84	1.13333	8.36040E-001	9.08584E-005	0.00000E+000	7.59613E-005	5.39641E-002	8.36187E-001	3.57410E+000	9	...........
	85	1.14667	8.39088E-001	9.10064E-005	0.00000E+000	7.63623E-005	5.39641E-002	8.39232E-001	3.57410E+000	9	...........
	86	1.16	8.42086E-001	9.09064E-005	0.00000E+000	7.65510E-005	5.39641E-002	8.42258E-001	3.57410E+000	9	...........
	87	1.17333	8.45114E-001	9.09626E-005	0.00000E+000	7.68738E-005	5.39641E-002	8.45301E-001	3.57410E+000	9	...........
	88	1.18667	8.48086E-001	9.10158E-005	0.00000E+000	7.71892E-005	5.39641E-002	8.48257E-001	3.57410E+000	9	...........
	89	1.2	8.51006E-001	9.09407E-005	0.00000E+000	7.73911E-005	5.39641E-002	8.51161E-001	3.57410E+000	9	...........
	90	1.21333	8.53886E-001	9.10335E-005	0.00000E+000	7.77322E-005	5.39641E-002	8.54036E-001	3.57410E+000	9	...........
	91	1.22667	8.56761E-001	9.10022E-005	0.00000E+000	7.79671E-005	5.39641E-002	8.56926E-001	3.57410E+000	9	...........
	92	1.24	8.59574E-001	9.11252E-005	0.00000E+000	7.83288E-005	5.39641E-002	8.59748E-001	3.57410E+000	9	...........
	93	1.25333	8.62390E-001	9.09230E-005	0.00000E+000	7.84111E-005	5.39641E-002	8.62546E-001	3.57410E+000	9	...........
	94	1.26667	8.65137E-001	9.12502E-005	0.00000E+000	7.89440E-005	5.39641E-002	8.65298E-001	3.57410E+000	9	...........
	95	1.28	8.67871E-001	9.09783E-005	0.00000E+000	7.89574E-005	5.39641E-002	8.68062E-001	3.57410E+000	9	...........
	96	1.29333	8.70609E-001	9.11689E-005	0.00000E+000	7.93725E-005	5.39641E-002	8.70786E-001	3.57410E+000	9	...........
	97	1.30667	8.73313E-001	9.12002E-005	0.00000E+000	7.96463E-005	5.39641E-002	8.73458E-001	3.57410E+000	9	...........
	98	1.32	8.75984E-001	9.09678E-005	0.00000E+000	7.96864E-005	5.39641E-002	8.76138E-001	3.57410E+000	9	...........
	99	1.33333	8.78615E-001	9.10189E-005	0.00000E+000	7.99705E-005	5.39641E-002	8.78767E-001	3.57410E+000	9	...........
	100	1.34667	8.81217E-001	9.11314E-005	0.00000E+000	8.03066E-005	5.39641E-002	8.81392E-001	3.57410E+000	9	...........
	101	1.36	8.83857E-001	9.07949E-005	0.00000E+000	8.02497E-005	5.39641E-002	8.84009E-001	3.57410E+000	9	...........
	102	1.37333	8.86389E-001	9.12939E-005	0.00000E+000	8.09220E-005	5.39641E-002	8.86569E-001	3.57410E+000	9	...........
	103	1.38667	8.88929E-001	9.10470E-005	0.00000E+000	8.09343E-005	5.39641E-002	8.89058E-001	3.57410E+000	9	...........
	104	1.4	8.91407E-001	9.09803E-005	0.00000E+000	8.11005E-005	5.39641E-002	8.91550E-001	3.57410E+000	9	...........
	105	1.41333	8.93872E-001	9.11845E-005	0.00000E+000	8.15073E-005	5.39641E-002	8.94027E-001	3.57410E+000	9	...........
	106	1.42667	8.96336E-001	9.09793E-005	0.00000E+000	8.15481E-005	5.39641E-002	8.96493E-001	3.57410E+000	9	...........
	107	1.44	8.98755E-001	9.10220E-005	0.00000E+000	8.18065E-005	5.39641E-002	8.98915E-001	3.57410E+000	9	...........
	108	1.45333	9.01122E-001	9.11147E-005	0.00000E+000	8.21055E-005	5.39641E-002	9.01294E-001	3.57410E+000	9	...........
	109	1.46667	9.03499E-001	9.07417E-005	0.00000E+000	8.19851E-005	5.39641E-002	9.03654E-001	3.57410E+000	9	...........
	110	1.48	9.05825E-001	9.10626E-005	0.00000E+000	8.24868E-005	5.39641E-002	9.06013E-001	3.57410E+000	9	...........
	111	1.49333	9.08153E-001	9.08543E-005	0.00000E+000	8.25096E-005	5.39641E-002	9.08332E-001	3.57410E+000	9	...........
	112	1.50667	9.10452E-001	9.11116E-005	0.00000E+000	8.29527E-005	5.39641E-002	9.10629E-001	3.57410E+000	9	...........
	113	1.52	9.12720E-001	9.08230E-005	0.00000E+000	8.28960E-005	5.39641E-002	9.12890E-001	3.57410E+000	9	...........
	114	1.53333	9.14946E-001	9.09324E-005	0.00000E+000	8.31982E-005	5.39641E-002	9.15154E-001	3.57410E+000	9	...........
	115	1.54667	9.17168E-001	9.08303E-005	0.00000E+000	8.33066E-005	5.39641E-002	9.17404E-001	3.57410E+000	9	...........
	116	1.56	9.19399E-001	9.10293E-005	0.00000E+000	8.36922E-005	5.39641E-002	9.19587E-001	3.57410E+000	9	...........
	117	1.57333	9.21641E-001	9.10908E-005	0.00000E+000	8.39530E-005	5.39641E-002	9.21774E-001	3.57410E+000	9	...........
	118	1.58667	9.23789E-001	9.10439E-005	0.00000E+000	8.41054E-005	5.39641E-002	9.23924E-001	3.57410E+000	9	...........
	119	1.6	9.25909E-001	9.11793E-005	0.00000E+000	8.44237E-005	5.39641E-002	9.26064E-001	3.57410E+000	9	...........
	120	1.61333	9.27993E-001	9.10720E-005	0.00000E+000	8.45142E-005	5.39641E-002	9.28149E-001	3.57410E+000	9	...........
	121	1.62667	9.30069E-001	9.09585E-005	0.00000E+000	8.45976E-005	5.39641E-002	9.30242E-001	3.57410E+000	9	...........
	122	1.64	9.32122E-001	9.08564E-005	0.00000E+000	8.46892E-005	5.39641E-002	9.32287E-001	3.57410E+000	9	...........
	123	1.65333	9.34115E-001	9.08074E-005	0.00000E+000	8.48246E-005	5.39641E-002	9.34344E-001	3.57410E+000	9	...........
	124	1.66667	9.36155E-001	9.10043E-005	0.00000E+000	8.51941E-005	5.39641E-002	9.36349E-001	3.57410E+000	9	...........
	125	1.68	9.38164E-001	9.10793E-005	0.00000E+000	8.54474E-005	5.39641E-002	9.38340E-001	3.57410E+000	9	...........
	126	1.69333	9.40144E-001	9.09585E-005	0.00000E+000	8.55140E-005	5.39641E-002	9.40330E-001	3.57410E+000	9	...........
	127	1.70667	9.42121E-001	9.10543E-005	0.00000E+000	8.57842E-005	5.39641E-002	9.42283E-001	3.57410E+000	9	...........
	128	1.72	9.44044E-001	9.12106E-005	0.00000E+000	8.61068E-005	5.39641E-002	9.44211E-001	3.57305E+000	9	...........
	129	1.73333	9.45970E-001	9.10262E-005	0.00000E+000	8.61080E-005	5.39641E-002	9.46145E-001	3.57270E+000	9	...........
	130	1.74667	9.47892E-001	9.09209E-005	0.00000E+000	8.61832E-005	5.39641E-002	9.48050E-001	3.57270E+000	9	...........
	131	1.76	9.49775E-001	9.08855E-005	0.00000E+000	8.63208E-005	5.39641E-002	9.49940E-001	3.57270E+000	9	...........
	132	1.77333	9.51589E-001	9.10074E-005	0.00000E+000	8.66017E-005	5.39641E-002	9.51799E-001	3.57270E+000	9	...........
	133	1.78667	9.53445E-001	9.10866E-005	0.00000E+000	8.68461E-005	5.39641E-002	9.53643E-001	3.57270E+000	9	...........
	134	1.8	9.55244E-001	9.13512E-005	0.00000E+000	8.72628E-005	5.39641E-002	9.55450E-001	3.57270E+000	9	...........
	135	1.81333	9.57066E-001	9.08793E-005	0.00000E+000	8.69775E-005	5.39641E-002	9.57245E-001	3.57270E+000	9	...........
	136	1.82667	9.58818E-001	9.11533E-005	0.00000E+000	8.73994E-005	5.39641E-002	9.59025E-001	3.57270E+000	9	...........
	137	1.84	9.60594E-001	9.09293E-005	0.00000E+000	8.73461E-005	5.39641E-002	9.60801E-001	3.57270E+000	9	...........
	138	1.85333	9.62326E-001	9.09480E-005	0.00000E+000	8.75217E-005	5.39641E-002	9.62521E-001	3.57270E+000	9	...........
	139	1.86667	9.64040E-001	9.11012E-005	0.00000E+000	8.78252E-005	5.39641E-002	9.64266E-001	3.57270E+000	9	...........
	140	1.88	9.65766E-001	9.11793E-005	0.00000E+000	8.80579E-005	5.39641E-002	9.65966E-001	3.57270E+000	9	...........
	141	1.89333	9.67459E-001	9.12544E-005	0.00000E+000	8.82848E-005	5.39641E-002	9.67669E-001	3.57270E+000	9	...........
	142	1.90667	9.69131E-001	9.10606E-005	0.00000E+000	8.82496E-005	5.39641E-002	9.69331E-001	3.57270E+000	9	...........
	143	1.92	9.70796E-001	9.10012E-005	0.00000E+000	8.83436E-005	5.39641E-002	9.71009E-001	3.57270E+000	9	...........
	144	1.93333	9.72452E-001	9.08897E-005	0.00000E+000	8.83859E-005	5.39641E-002	9.72646E-001	3.57270E+000	9	...........
	145	1.94667	9.74096E-001	9.07240E-005	0.00000E+000	8.83740E-005	5.39641E-002	9.74275E-001	3.57270E+000	9	...........
	146	1.96	9.75711E-001	9.10033E-005	0.00000E+000	8.87929E-005	5.39641E-002	9.75880E-001	3.57270E+000	9	...........
	147	1.97333	9.77296E-001	9.10616E-005	0.00000E+000	8.89942E-005	5.39641E-002	9.77473E-001	3.57270E+000	9	...........
	148	1.98667	9.78833E-001	9.09626E-005	0.00000E+000	8.90372E-005	5.39641E-002	9.79035E-001	3.57270E+000	9	...........
	149	2	9.80393E-001	9.12439E-005	0.00000E+000	8.94549E-005	5.39641E-002	9.80581E-001	3.57270E+000	9	...........
	150	2.01333	9.81926E-001	9.08866E-005	0.00000E+000	8.92438E-005	5.39641E-002	9.82113E-001	3.57270E+000	9	...........
	151	2.02667	9.83435E-001	9.09147E-005	0.00000E+000	8.94087E-005	5.39641E-002	9.83639E-001	3.57270E+000	9	...........
	152	2.04	9.84965E-001	9.11429E-005	0.00000E+000	8.97726E-005	5.39641E-002	9.85172E-001	3.57270E+000	9	...........
	153	2.05333	9.86462E-001	9.11095E-005	0.00000E+000	8.98761E-005	5.39641E-002	9.86694E-001	3.57270E+000	9	...........
	154	2.06667	9.87924E-001	9.11387E-005	0.00000E+000	9.00381E-005	5.39641E-002	9.88145E-001	3.57270E+000	9	...........
	155	2.08	9.89373E-001	9.10376E-005	0.00000E+000	9.00702E-005	5.39641E-002	9.89596E-001	3.57270E+000	9	...........
	156	2.09333	9.90819E-001	9.10022E-005	0.00000E+000	9.01667E-005	5.39641E-002	9.90999E-001	3.57270E+000	9	...........
	157	2.10667	9.92222E-001	9.07876E-005	0.00000E+000	9.00814E-005	5.39641E-002	9.92447E-001	3.57270E+000	9	...........
	158	2.12	9.93630E-001	9.08626E-005	0.00000E+000	9.02838E-005	5.39641E-002	9.93860E-001	3.57270E+000	9	...........
	159	2.13333	9.95048E-001	9.10647E-005	0.00000E+000	9.06138E-005	5.39641E-002	9.95244E-001	3.57270E+000	9	...........
	160	2.14667	9.96423E-001	9.09084E-005	0.00000E+000	9.05833E-005	5.39641E-002	9.96635E-001	3.57270E+000	9	...........
	161	2.16	9.97808E-001	9.12231E-005	0.00000E+000	9.10231E-005	5.39641E-002	9.98006E-001	3.57270E+000	9	...........
	162	2.17333	9.99169E-001	9.10804E-005	0.00000E+000	9.10047E-005	5.39641E-002	9.99350E-001	3.57270E+000	9	...........
	163	2.17667	1.00000E+000	9.05292E-005	0.00000E+000	9.05293E-005	5.39641E-002	1.00021E+000	3.57270E+000	9	...........
STARTTIMEOFFSET	QUANT	3397.241	Start Time Offset (s)
