EXPLAIN
TAG	PWR800_CHARGE
TITLE	LABEL	PWR Cyclic Charge Discharge (Cell) - Charge Step	Test &Identifier
DATE	LABEL	10-7-2017	Date
TIME	LABEL	15:58:14	Time
NOTES	NOTES	3	&Notes...
	supercap test cell
	0.9mg
	6M KOH
PSTAT	PSTAT	IFC5000-01520	Potentiostat
CAPACITY	QUANT	1.00000E-003	Capacity (A-hr)
CELLTYPE	SELECTOR	1	&Cell Type
WORKINGCONNECTION	SELECTOR	0	&Working Lead
MAXCHARGETIME	VARIABLEANDUNITS	1.00000E+002	s	1.00000E+002	second(s)	Max &Charge Time
CHARGECURRENT	QUANT	9.00000E-005	&Charge Current (A) 
VOLTAGEFINISH	TWOPARAM	F	1.00000E-003	3.60000E+003	&Voltage Finish	 I (A) < 	Max Time(s)
SAMPLETIME	QUANT	1.00000E-002	Sa&mple Period (s)
CHARGESTOPAT1	MULTIPARAM	4	1.00000E+000	Charge Stop At &1	Voltage > Limit	V
CHARGESTOPAT2	MULTIPARAM	0	0.00000E+000	Charge Stop At &2	None	N/A
AESBHCSELECTOR	TOGGLE	F	Save Both Half Cells
IRCOMP	TOGGLE	F	IR &Measure
EOC	QUANT	0	Open Circuit (V)
SEQUENCER	TOGGLE	TRUE	Run as Sequence
PSTATMODEL	IQUANT	53	Pstat Model
PSTATSECTION	LABEL	IFC5000-01520	Pstat Section
PSTATSERIALNO	LABEL	01520	Pstat Serial Number
CTRLMODE	IQUANT	0	Control Mode
ELECTROMETER	IQUANT	1	RE=0 or CS=1
IESTAB	IQUANT	0	I/E Stability
CASPEED	IQUANT	4	Control Amp Speed
CONVENTION	IQUANT	1	Current Convention
ICHRANGE	IQUANT	2	Ich Range
ICHRANGEMODE	TOGGLE	T	Ich Auto Range
ICHOFFSETENABLE	TOGGLE	F	Ich Offset Enable
ICHOFFSET	QUANT	0	Ich Offset (V)
ICHFILTER	IQUANT	1	Ich Filter
VCHRANGE	IQUANT	2	Vch Range
VCHRANGEMODE	TOGGLE	T	Vch Auto Range
VCHOFFSETENABLE	TOGGLE	F	Vch Offset Enable
VCHOFFSET	QUANT	0	Vch Offset (V)
VCHFILTER	IQUANT	1	Vch Filter
IERANGELOWERLIMIT	IQUANT	9	I/E Range Lower Limit
IERANGEMODE	TOGGLE	F	I/E AutoRange
IERANGE	IQUANT	9	I/E Range
ACHSELECT	IQUANT	1	Ach Select
ACHRANGE	IQUANT	2	Ach Range
ACHOFFSETENABLE	TOGGLE	F	Ach Offset Enable
ACHOFFSET	QUANT	0	Ach Offset (V)
ACHFILTER	IQUANT	1	Ach Filter
CABLEID	IQUANT	14	Cable ID
DCCALDATE	LABEL	5-7-2017	DC Calibration Date
ACCALDATE	LABEL	12/3/2015	AC Calibration Date
FRAMEWORKVERSION	QUANT	7.01	Framework Version
INSTRUMENTVERSION	LABEL	4.00	Instrument Version
CURVE	TABLE	165
	Pt	T	Vf	Im	Vu	Pwr	Sig	Ach	Temp	IERange	Over
	#	s	V	A	V	W	V	V	deg C	#	bits
	0	0.013333	2.62299E-001	9.06709E-005	0.00000E+000	2.37829E-005	5.39641E-002	2.62350E-001	3.57300E+000	9	...........
	1	0.026667	2.82208E-001	9.09460E-005	0.00000E+000	2.56656E-005	5.39641E-002	2.82244E-001	3.57300E+000	9	...........
	2	0.04	3.00874E-001	9.06355E-005	0.00000E+000	2.72698E-005	5.39641E-002	3.00908E-001	3.57300E+000	9	...........
	3	0.053333	3.18465E-001	9.09522E-005	0.00000E+000	2.89651E-005	5.39641E-002	3.18501E-001	3.57300E+000	9	...........
	4	0.066667	3.35096E-001	9.07990E-005	0.00000E+000	3.04264E-005	5.39641E-002	3.35131E-001	3.57300E+000	9	...........
	5	0.08	3.50855E-001	9.11564E-005	0.00000E+000	3.19827E-005	5.39641E-002	3.50894E-001	3.57300E+000	9	...........
	6	0.093333	3.65844E-001	9.08699E-005	0.00000E+000	3.32442E-005	5.39641E-002	3.65882E-001	3.57300E+000	9	...........
	7	0.106667	3.80114E-001	9.08001E-005	0.00000E+000	3.45144E-005	5.39641E-002	3.80160E-001	3.57300E+000	9	...........
	8	0.12	3.93744E-001	9.09095E-005	0.00000E+000	3.57951E-005	5.39641E-002	3.93787E-001	3.57300E+000	9	...........
	9	0.133333	4.06770E-001	9.09095E-005	0.00000E+000	3.69793E-005	5.39641E-002	4.06814E-001	3.57300E+000	9	...........
	10	0.146667	4.19238E-001	9.10804E-005	0.00000E+000	3.81843E-005	5.39641E-002	4.19292E-001	3.57300E+000	9	...........
	11	0.16	4.31204E-001	9.12335E-005	0.00000E+000	3.93403E-005	5.39641E-002	4.31262E-001	3.57300E+000	9	...........
	12	0.173333	4.42710E-001	9.07813E-005	0.00000E+000	4.01898E-005	5.39641E-002	4.42769E-001	3.57300E+000	9	...........
	13	0.186667	4.53777E-001	9.12231E-005	0.00000E+000	4.13950E-005	5.39641E-002	4.53835E-001	3.57300E+000	9	...........
	14	0.2	4.64434E-001	9.08772E-005	0.00000E+000	4.22064E-005	5.39641E-002	4.64491E-001	3.57300E+000	9	...........
	15	0.213333	4.74724E-001	9.07167E-005	0.00000E+000	4.30654E-005	5.39641E-002	4.74780E-001	3.57300E+000	9	...........
	16	0.226667	4.84672E-001	9.10147E-005	0.00000E+000	4.41123E-005	5.39641E-002	4.84734E-001	3.57300E+000	9	...........
	17	0.24	4.94291E-001	9.12137E-005	0.00000E+000	4.50861E-005	5.39641E-002	4.94356E-001	3.57300E+000	9	...........
	18	0.253333	5.03612E-001	9.11408E-005	0.00000E+000	4.58996E-005	5.39641E-002	5.03677E-001	3.57300E+000	9	...........
	19	0.266667	5.12655E-001	9.08241E-005	0.00000E+000	4.65614E-005	5.39641E-002	5.12719E-001	3.57300E+000	9	...........
	20	0.28	5.21415E-001	9.09814E-005	0.00000E+000	4.74391E-005	5.39641E-002	5.21483E-001	3.57300E+000	9	...........
	21	0.293333	5.29905E-001	9.10960E-005	0.00000E+000	4.82722E-005	5.39641E-002	5.29964E-001	3.57300E+000	9	...........
	22	0.306667	5.38034E-001	9.10679E-005	0.00000E+000	4.89976E-005	5.39641E-002	5.38114E-001	3.57300E+000	9	...........
	23	0.32	5.46059E-001	9.10408E-005	0.00000E+000	4.97137E-005	5.39641E-002	5.46131E-001	3.57300E+000	9	...........
	24	0.333333	5.53872E-001	9.11731E-005	0.00000E+000	5.04982E-005	5.39641E-002	5.53974E-001	3.57300E+000	9	...........
	25	0.346667	5.61470E-001	9.11991E-005	0.00000E+000	5.12056E-005	5.39641E-002	5.61574E-001	3.57300E+000	9	...........
	26	0.36	5.68900E-001	9.06917E-005	0.00000E+000	5.15946E-005	5.39641E-002	5.69010E-001	3.57300E+000	9	...........
	27	0.373333	5.76122E-001	9.08803E-005	0.00000E+000	5.23581E-005	5.39641E-002	5.76242E-001	3.57300E+000	9	...........
	28	0.386667	5.83151E-001	9.09480E-005	0.00000E+000	5.30364E-005	5.39641E-002	5.83263E-001	3.57300E+000	9	...........
	29	0.4	5.90039E-001	9.11543E-005	0.00000E+000	5.37847E-005	5.39641E-002	5.90152E-001	3.57300E+000	9	...........
	30	0.413333	5.96762E-001	9.10356E-005	0.00000E+000	5.43266E-005	5.39641E-002	5.96875E-001	3.57300E+000	9	...........
	31	0.426667	6.03296E-001	9.11845E-005	0.00000E+000	5.50112E-005	5.39641E-002	6.03432E-001	3.57300E+000	9	...........
	32	0.44	6.09724E-001	9.11533E-005	0.00000E+000	5.55784E-005	5.39641E-002	6.09837E-001	3.57300E+000	9	...........
	33	0.453333	6.16062E-001	9.08928E-005	0.00000E+000	5.59956E-005	5.39641E-002	6.16172E-001	3.57300E+000	9	...........
	34	0.466667	6.22224E-001	9.08918E-005	0.00000E+000	5.65550E-005	5.39641E-002	6.22304E-001	3.57300E+000	9	...........
	35	0.48	6.28255E-001	9.11825E-005	0.00000E+000	5.72858E-005	5.39641E-002	6.28362E-001	3.57300E+000	9	...........
	36	0.493333	6.34175E-001	9.08782E-005	0.00000E+000	5.76327E-005	5.39641E-002	6.34257E-001	3.57300E+000	9	...........
	37	0.506667	6.39972E-001	9.11981E-005	0.00000E+000	5.83642E-005	5.39641E-002	6.40113E-001	3.57300E+000	9	...........
	38	0.52	6.45660E-001	9.07761E-005	0.00000E+000	5.86105E-005	5.39641E-002	6.45788E-001	3.57300E+000	9	...........
	39	0.533333	6.51220E-001	9.10189E-005	0.00000E+000	5.92733E-005	5.39641E-002	6.51367E-001	3.57300E+000	9	...........
	40	0.546667	6.56707E-001	9.08595E-005	0.00000E+000	5.96680E-005	5.39641E-002	6.56844E-001	3.57300E+000	9	...........
	41	0.56	6.62099E-001	9.08418E-005	0.00000E+000	6.01462E-005	5.39641E-002	6.62247E-001	3.57300E+000	9	...........
	42	0.573333	6.67399E-001	9.12314E-005	0.00000E+000	6.08878E-005	5.39641E-002	6.67527E-001	3.57300E+000	9	...........
	43	0.586667	6.72602E-001	9.08637E-005	0.00000E+000	6.11151E-005	5.39641E-002	6.72700E-001	3.57300E+000	9	...........
	44	0.6	6.77711E-001	9.10564E-005	0.00000E+000	6.17099E-005	5.39641E-002	6.77808E-001	3.57300E+000	9	...........
	45	0.613333	6.82714E-001	9.08824E-005	0.00000E+000	6.20467E-005	5.39641E-002	6.82805E-001	3.57300E+000	9	...........
	46	0.626667	6.87648E-001	9.09335E-005	0.00000E+000	6.25302E-005	5.39641E-002	6.87718E-001	3.57300E+000	9	...........
	47	0.64	6.92517E-001	9.08991E-005	0.00000E+000	6.29492E-005	5.39641E-002	6.92603E-001	3.57300E+000	9	...........
	48	0.653333	6.97297E-001	9.07897E-005	0.00000E+000	6.33073E-005	5.39641E-002	6.97392E-001	3.57300E+000	9	...........
	49	0.666667	7.01995E-001	9.10397E-005	0.00000E+000	6.39094E-005	5.39641E-002	7.02094E-001	3.57300E+000	9	...........
	50	0.68	7.06631E-001	9.12429E-005	0.00000E+000	6.44751E-005	5.39641E-002	7.06735E-001	3.57300E+000	9	...........
	51	0.693333	7.11179E-001	9.08689E-005	0.00000E+000	6.46241E-005	5.39641E-002	7.11284E-001	3.57300E+000	9	...........
	52	0.706667	7.15662E-001	9.10804E-005	0.00000E+000	6.51828E-005	5.39641E-002	7.15785E-001	3.57300E+000	9	...........
	53	0.72	7.20168E-001	9.10220E-005	0.00000E+000	6.55511E-005	5.39641E-002	7.20254E-001	3.57300E+000	9	...........
	54	0.733333	7.24568E-001	9.08907E-005	0.00000E+000	6.58565E-005	5.39641E-002	7.24644E-001	3.57300E+000	9	...........
	55	0.746667	7.28866E-001	9.09793E-005	0.00000E+000	6.63117E-005	5.39641E-002	7.28963E-001	3.57300E+000	9	...........
	56	0.76	7.33124E-001	9.11898E-005	0.00000E+000	6.68534E-005	5.39641E-002	7.33240E-001	3.57300E+000	9	...........
	57	0.773333	7.37314E-001	9.07782E-005	0.00000E+000	6.69320E-005	5.39641E-002	7.37431E-001	3.57300E+000	9	...........
	58	0.786667	7.41480E-001	9.10460E-005	0.00000E+000	6.75088E-005	5.39641E-002	7.41601E-001	3.57300E+000	9	...........
	59	0.8	7.45572E-001	9.10116E-005	0.00000E+000	6.78557E-005	5.39641E-002	7.45704E-001	3.57300E+000	9	...........
	60	0.813333	7.49606E-001	9.09178E-005	0.00000E+000	6.81525E-005	5.39641E-002	7.49734E-001	3.57300E+000	9	...........
	61	0.826667	7.53579E-001	9.08084E-005	0.00000E+000	6.84313E-005	5.39641E-002	7.53701E-001	3.57300E+000	9	...........
	62	0.84	7.57504E-001	9.12408E-005	0.00000E+000	6.91153E-005	5.39641E-002	7.57630E-001	3.57300E+000	9	...........
	63	0.853333	7.61410E-001	9.10668E-005	0.00000E+000	6.93392E-005	5.39641E-002	7.61526E-001	3.57300E+000	9	...........
	64	0.866667	7.65262E-001	9.09595E-005	0.00000E+000	6.96078E-005	5.39641E-002	7.65402E-001	3.57300E+000	9	...........
	65	0.88	7.69096E-001	9.09543E-005	0.00000E+000	6.99525E-005	5.39641E-002	7.69230E-001	3.57300E+000	9	...........
	66	0.893333	7.72815E-001	9.10449E-005	0.00000E+000	7.03608E-005	5.39641E-002	7.72970E-001	3.57300E+000	9	...........
	67	0.906667	7.76535E-001	9.08480E-005	0.00000E+000	7.05466E-005	5.39641E-002	7.76654E-001	3.57300E+000	9	...........
	68	0.92	7.80192E-001	9.11856E-005	0.00000E+000	7.11423E-005	5.39641E-002	7.80329E-001	3.57300E+000	9	...........
	69	0.933333	7.83826E-001	9.09189E-005	0.00000E+000	7.12646E-005	5.39641E-002	7.83941E-001	3.57314E+000	9	...........
	70	0.946667	7.87397E-001	9.10043E-005	0.00000E+000	7.16566E-005	5.39641E-002	7.87521E-001	3.57410E+000	9	...........
	71	0.96	7.90926E-001	9.10387E-005	0.00000E+000	7.20049E-005	5.39641E-002	7.91051E-001	3.57410E+000	9	...........
	72	0.97333	7.94486E-001	9.08793E-005	0.00000E+000	7.22023E-005	5.39641E-002	7.94567E-001	3.57410E+000	9	...........
	73	0.98667	7.97941E-001	9.09418E-005	0.00000E+000	7.25662E-005	5.39641E-002	7.98061E-001	3.57410E+000	9	...........
	74	1	8.01378E-001	9.09720E-005	0.00000E+000	7.29029E-005	5.39641E-002	8.01487E-001	3.57410E+000	9	...........
	75	1.01333	8.04756E-001	9.07782E-005	0.00000E+000	7.30543E-005	5.39641E-002	8.04905E-001	3.57410E+000	9	...........
	76	1.02667	8.08134E-001	9.09824E-005	0.00000E+000	7.35260E-005	5.39641E-002	8.08276E-001	3.57410E+000	9	...........
	77	1.04	8.11448E-001	9.10699E-005	0.00000E+000	7.38985E-005	5.39641E-002	8.11611E-001	3.57410E+000	9	...........
	78	1.05333	8.14731E-001	9.11523E-005	0.00000E+000	7.42646E-005	5.39641E-002	8.14897E-001	3.57410E+000	9	...........
	79	1.06667	8.17994E-001	9.12929E-005	0.00000E+000	7.46770E-005	5.39641E-002	8.18180E-001	3.57410E+000	9	...........
	80	1.08	8.21242E-001	9.12544E-005	0.00000E+000	7.49419E-005	5.39641E-002	8.21418E-001	3.57410E+000	9	...........
	81	1.09333	8.24401E-001	9.12106E-005	0.00000E+000	7.51941E-005	5.39641E-002	8.24593E-001	3.57410E+000	9	...........
	82	1.10667	8.27551E-001	9.09105E-005	0.00000E+000	7.52331E-005	5.39641E-002	8.27688E-001	3.57410E+000	9	...........
	83	1.12	8.30656E-001	9.11252E-005	0.00000E+000	7.56937E-005	5.39641E-002	8.30808E-001	3.57410E+000	9	...........
	84	1.13333	8.33742E-001	9.11950E-005	0.00000E+000	7.60331E-005	5.39641E-002	8.33913E-001	3.57410E+000	9	...........
	85	1.14667	8.36799E-001	9.09241E-005	0.00000E+000	7.60852E-005	5.39641E-002	8.36972E-001	3.57410E+000	9	...........
	86	1.16	8.39826E-001	9.08845E-005	0.00000E+000	7.63271E-005	5.39641E-002	8.39987E-001	3.57410E+000	9	...........
	87	1.17333	8.42798E-001	9.10262E-005	0.00000E+000	7.67167E-005	5.39641E-002	8.42962E-001	3.57410E+000	9	...........
	88	1.18667	8.45790E-001	9.09147E-005	0.00000E+000	7.68948E-005	5.39641E-002	8.45947E-001	3.57410E+000	9	...........
	89	1.2	8.48709E-001	9.10710E-005	0.00000E+000	7.72928E-005	5.39641E-002	8.48862E-001	3.57410E+000	9	...........
	90	1.21333	8.51610E-001	9.09439E-005	0.00000E+000	7.74487E-005	5.39641E-002	8.51769E-001	3.57410E+000	9	...........
	91	1.22667	8.54459E-001	9.09272E-005	0.00000E+000	7.76935E-005	5.39641E-002	8.54639E-001	3.57410E+000	9	...........
	92	1.24	8.57311E-001	9.08751E-005	0.00000E+000	7.79082E-005	5.39641E-002	8.57482E-001	3.57410E+000	9	...........
	93	1.25333	8.60147E-001	9.08720E-005	0.00000E+000	7.81632E-005	5.39641E-002	8.60298E-001	3.57410E+000	9	...........
	94	1.26667	8.62907E-001	9.11429E-005	0.00000E+000	7.86478E-005	5.39641E-002	8.63068E-001	3.57410E+000	9	...........
	95	1.28	8.65638E-001	9.08970E-005	0.00000E+000	7.86838E-005	5.39641E-002	8.65816E-001	3.57410E+000	9	...........
	96	1.29333	8.68379E-001	9.10481E-005	0.00000E+000	7.90642E-005	5.39641E-002	8.68587E-001	3.57410E+000	9	...........
	97	1.30667	8.71122E-001	9.11137E-005	0.00000E+000	7.93712E-005	5.39641E-002	8.71306E-001	3.57410E+000	9	...........
	98	1.32	8.73767E-001	9.10793E-005	0.00000E+000	7.95821E-005	5.39641E-002	8.73974E-001	3.57410E+000	9	...........
	99	1.33333	8.76412E-001	9.09522E-005	0.00000E+000	7.97116E-005	5.39641E-002	8.76637E-001	3.57410E+000	9	...........
	100	1.34667	8.79031E-001	9.10324E-005	0.00000E+000	8.00204E-005	5.39641E-002	8.79231E-001	3.57410E+000	9	...........
	101	1.36	8.81645E-001	9.09084E-005	0.00000E+000	8.01490E-005	5.39641E-002	8.81838E-001	3.57410E+000	9	...........
	102	1.37333	8.84217E-001	9.10981E-005	0.00000E+000	8.05505E-005	5.39641E-002	8.84387E-001	3.57410E+000	9	...........
	103	1.38667	8.86739E-001	9.11137E-005	0.00000E+000	8.07941E-005	5.39641E-002	8.86926E-001	3.57410E+000	9	...........
	104	1.4	8.89251E-001	9.10668E-005	0.00000E+000	8.09813E-005	5.39641E-002	8.89433E-001	3.57410E+000	9	...........
	105	1.41333	8.91729E-001	9.08564E-005	0.00000E+000	8.10192E-005	5.39641E-002	8.91899E-001	3.57410E+000	9	...........
	106	1.42667	8.94154E-001	9.11575E-005	0.00000E+000	8.15088E-005	5.39641E-002	8.94373E-001	3.57410E+000	9	...........
	107	1.44	8.96622E-001	9.12877E-005	0.00000E+000	8.18505E-005	5.39641E-002	8.96835E-001	3.57410E+000	9	...........
	108	1.45333	8.99044E-001	9.10772E-005	0.00000E+000	8.18824E-005	5.39641E-002	8.99240E-001	3.57410E+000	9	...........
	109	1.46667	9.01412E-001	9.10314E-005	0.00000E+000	8.20568E-005	5.39641E-002	9.01598E-001	3.57410E+000	9	...........
	110	1.48	9.03759E-001	9.11085E-005	0.00000E+000	8.23401E-005	5.39641E-002	9.03963E-001	3.57410E+000	9	...........
	111	1.49333	9.06091E-001	9.12127E-005	0.00000E+000	8.26470E-005	5.39641E-002	9.06294E-001	3.57410E+000	9	...........
	112	1.50667	9.08441E-001	9.12575E-005	0.00000E+000	8.29020E-005	5.39641E-002	9.08645E-001	3.57410E+000	9	...........
	113	1.52	9.10751E-001	9.09178E-005	0.00000E+000	8.28035E-005	5.39641E-002	9.10899E-001	3.57410E+000	9	...........
	114	1.53333	9.12986E-001	9.11345E-005	0.00000E+000	8.32046E-005	5.39641E-002	9.13180E-001	3.57410E+000	9	...........
	115	1.54667	9.15226E-001	9.09564E-005	0.00000E+000	8.32456E-005	5.39641E-002	9.15420E-001	3.57410E+000	9	...........
	116	1.56	9.17427E-001	9.10501E-005	0.00000E+000	8.35318E-005	5.39641E-002	9.17624E-001	3.57410E+000	9	...........
	117	1.57333	9.19615E-001	9.12200E-005	0.00000E+000	8.38873E-005	5.39641E-002	9.19837E-001	3.57410E+000	9	...........
	118	1.58667	9.21876E-001	9.10293E-005	0.00000E+000	8.39177E-005	5.39641E-002	9.22023E-001	3.57410E+000	9	...........
	119	1.6	9.23998E-001	9.09668E-005	0.00000E+000	8.40531E-005	5.39641E-002	9.24160E-001	3.57410E+000	9	...........
	120	1.61333	9.26129E-001	9.09376E-005	0.00000E+000	8.42199E-005	5.39641E-002	9.26287E-001	3.57410E+000	9	...........
	121	1.62667	9.28246E-001	9.08043E-005	0.00000E+000	8.42887E-005	5.39641E-002	9.28399E-001	3.57410E+000	9	...........
	122	1.64	9.30320E-001	9.09116E-005	0.00000E+000	8.45769E-005	5.39641E-002	9.30475E-001	3.57410E+000	9	...........
	123	1.65333	9.32370E-001	9.08637E-005	0.00000E+000	8.47185E-005	5.39641E-002	9.32524E-001	3.57410E+000	9	...........
	124	1.66667	9.34399E-001	9.09480E-005	0.00000E+000	8.49818E-005	5.39641E-002	9.34549E-001	3.57410E+000	9	...........
	125	1.68	9.36396E-001	9.10168E-005	0.00000E+000	8.52278E-005	5.39641E-002	9.36557E-001	3.57410E+000	9	...........
	126	1.69333	9.38362E-001	9.08532E-005	0.00000E+000	8.52532E-005	5.39641E-002	9.38545E-001	3.57410E+000	9	...........
	127	1.70667	9.40326E-001	9.11252E-005	0.00000E+000	8.56874E-005	5.39641E-002	9.40518E-001	3.57410E+000	9	...........
	128	1.72	9.42275E-001	9.10376E-005	0.00000E+000	8.57825E-005	5.39641E-002	9.42466E-001	3.57410E+000	9	...........
	129	1.73333	9.44183E-001	9.10616E-005	0.00000E+000	8.59788E-005	5.39641E-002	9.44381E-001	3.57410E+000	9	...........
	130	1.74667	9.46089E-001	9.11137E-005	0.00000E+000	8.62016E-005	5.39641E-002	9.46290E-001	3.57410E+000	9	...........
	131	1.76	9.48021E-001	9.11408E-005	0.00000E+000	8.64033E-005	5.39641E-002	9.48195E-001	3.57410E+000	9	...........
	132	1.77333	9.49851E-001	9.08647E-005	0.00000E+000	8.63079E-005	5.39641E-002	9.50034E-001	3.57410E+000	9	...........
	133	1.78667	9.51717E-001	9.11595E-005	0.00000E+000	8.67581E-005	5.39641E-002	9.51909E-001	3.57410E+000	9	...........
	134	1.8	9.53551E-001	9.11272E-005	0.00000E+000	8.68945E-005	5.39641E-002	9.53723E-001	3.57410E+000	9	...........
	135	1.81333	9.55363E-001	9.11116E-005	0.00000E+000	8.70447E-005	5.39641E-002	9.55535E-001	3.57410E+000	9	...........
	136	1.82667	9.57171E-001	9.13096E-005	0.00000E+000	8.73989E-005	5.39641E-002	9.57330E-001	3.57410E+000	9	...........
	137	1.84	9.58946E-001	9.08918E-005	0.00000E+000	8.71603E-005	5.39641E-002	9.59090E-001	3.57410E+000	9	...........
	138	1.85333	9.60708E-001	9.10793E-005	0.00000E+000	8.75006E-005	5.39641E-002	9.60844E-001	3.57410E+000	9	...........
	139	1.86667	9.62411E-001	9.10647E-005	0.00000E+000	8.76417E-005	5.39641E-002	9.62606E-001	3.57410E+000	9	...........
	140	1.88	9.64129E-001	9.13190E-005	0.00000E+000	8.80432E-005	5.39641E-002	9.64321E-001	3.57410E+000	9	...........
	141	1.89333	9.65828E-001	9.13231E-005	0.00000E+000	8.82025E-005	5.39641E-002	9.65995E-001	3.57410E+000	9	...........
	142	1.90667	9.67507E-001	9.09293E-005	0.00000E+000	8.79747E-005	5.39641E-002	9.67706E-001	3.57410E+000	9	...........
	143	1.92	9.69158E-001	9.09783E-005	0.00000E+000	8.81723E-005	5.39641E-002	9.69364E-001	3.57410E+000	9	...........
	144	1.93333	9.70786E-001	9.11335E-005	0.00000E+000	8.84712E-005	5.39641E-002	9.71043E-001	3.57391E+000	9	...........
	145	1.94667	9.72442E-001	9.09137E-005	0.00000E+000	8.84083E-005	5.39641E-002	9.72653E-001	3.57260E+000	9	...........
	146	1.96	9.74098E-001	9.12293E-005	0.00000E+000	8.88663E-005	5.39641E-002	9.74288E-001	3.57260E+000	9	...........
	147	1.97333	9.75687E-001	9.11908E-005	0.00000E+000	8.89737E-005	5.39641E-002	9.75895E-001	3.57260E+000	9	...........
	148	1.98667	9.77261E-001	9.11877E-005	0.00000E+000	8.91142E-005	5.39641E-002	9.77481E-001	3.57260E+000	9	...........
	149	2	9.78836E-001	9.10981E-005	0.00000E+000	8.91700E-005	5.39641E-002	9.79012E-001	3.57260E+000	9	...........
	150	2.01333	9.80341E-001	9.10356E-005	0.00000E+000	8.92459E-005	5.39641E-002	9.80526E-001	3.57260E+000	9	...........
	151	2.02667	9.81842E-001	9.10085E-005	0.00000E+000	8.93559E-005	5.39641E-002	9.82040E-001	3.57260E+000	9	...........
	152	2.04	9.83347E-001	9.13044E-005	0.00000E+000	8.97839E-005	5.39641E-002	9.83551E-001	3.57260E+000	9	...........
	153	2.05333	9.84815E-001	9.10481E-005	0.00000E+000	8.96655E-005	5.39641E-002	9.85041E-001	3.57260E+000	9	...........
	154	2.06667	9.86308E-001	9.10012E-005	0.00000E+000	8.97552E-005	5.39641E-002	9.86530E-001	3.57260E+000	9	...........
	155	2.08	9.87760E-001	9.13617E-005	0.00000E+000	9.02434E-005	5.39641E-002	9.88009E-001	3.57260E+000	9	...........
	156	2.09333	9.89223E-001	9.10303E-005	0.00000E+000	9.00493E-005	5.39641E-002	9.89439E-001	3.57260E+000	9	...........
	157	2.10667	9.90640E-001	9.07970E-005	0.00000E+000	8.99471E-005	5.39641E-002	9.90844E-001	3.57260E+000	9	...........
	158	2.12	9.92032E-001	9.10064E-005	0.00000E+000	9.02812E-005	5.39641E-002	9.92212E-001	3.57260E+000	9	...........
	159	2.13333	9.93402E-001	9.09230E-005	0.00000E+000	9.03232E-005	5.39641E-002	9.93589E-001	3.57260E+000	9	...........
	160	2.14667	9.94775E-001	9.11887E-005	0.00000E+000	9.07123E-005	5.39641E-002	9.94954E-001	3.57260E+000	9	...........
	161	2.16	9.96161E-001	9.09908E-005	0.00000E+000	9.06414E-005	5.39641E-002	9.96334E-001	3.57260E+000	9	...........
	162	2.17333	9.97513E-001	9.09251E-005	0.00000E+000	9.06990E-005	5.39641E-002	9.97701E-001	3.57260E+000	9	...........
	163	2.18667	9.98867E-001	9.11304E-005	0.00000E+000	9.10271E-005	5.39641E-002	9.99070E-001	3.57260E+000	9	...........
	164	2.19333	9.99866E-001	9.09585E-005	0.00000E+000	9.09463E-005	5.39641E-002	1.00004E+000	3.57260E+000	9	...........
STARTTIMEOFFSET	QUANT	2977.753	Start Time Offset (s)
