EXPLAIN
TAG	PWR800_CHARGE
TITLE	LABEL	PWR Cyclic Charge Discharge (Cell) - Charge Step	Test &Identifier
DATE	LABEL	10-7-2017	Date
TIME	LABEL	15:33:26	Time
NOTES	NOTES	3	&Notes...
	supercap test cell
	0.9mg
	6M KOH
PSTAT	PSTAT	IFC5000-01520	Potentiostat
CAPACITY	QUANT	1.00000E-003	Capacity (A-hr)
CELLTYPE	SELECTOR	1	&Cell Type
WORKINGCONNECTION	SELECTOR	0	&Working Lead
MAXCHARGETIME	VARIABLEANDUNITS	1.00000E+002	s	1.00000E+002	second(s)	Max &Charge Time
CHARGECURRENT	QUANT	9.00000E-005	&Charge Current (A) 
VOLTAGEFINISH	TWOPARAM	F	1.00000E-003	3.60000E+003	&Voltage Finish	 I (A) < 	Max Time(s)
SAMPLETIME	QUANT	1.00000E-002	Sa&mple Period (s)
CHARGESTOPAT1	MULTIPARAM	4	1.00000E+000	Charge Stop At &1	Voltage > Limit	V
CHARGESTOPAT2	MULTIPARAM	0	0.00000E+000	Charge Stop At &2	None	N/A
AESBHCSELECTOR	TOGGLE	F	Save Both Half Cells
IRCOMP	TOGGLE	F	IR &Measure
EOC	QUANT	0	Open Circuit (V)
SEQUENCER	TOGGLE	TRUE	Run as Sequence
PSTATMODEL	IQUANT	53	Pstat Model
PSTATSECTION	LABEL	IFC5000-01520	Pstat Section
PSTATSERIALNO	LABEL	01520	Pstat Serial Number
CTRLMODE	IQUANT	0	Control Mode
ELECTROMETER	IQUANT	1	RE=0 or CS=1
IESTAB	IQUANT	0	I/E Stability
CASPEED	IQUANT	4	Control Amp Speed
CONVENTION	IQUANT	1	Current Convention
ICHRANGE	IQUANT	2	Ich Range
ICHRANGEMODE	TOGGLE	T	Ich Auto Range
ICHOFFSETENABLE	TOGGLE	F	Ich Offset Enable
ICHOFFSET	QUANT	0	Ich Offset (V)
ICHFILTER	IQUANT	1	Ich Filter
VCHRANGE	IQUANT	2	Vch Range
VCHRANGEMODE	TOGGLE	T	Vch Auto Range
VCHOFFSETENABLE	TOGGLE	F	Vch Offset Enable
VCHOFFSET	QUANT	0	Vch Offset (V)
VCHFILTER	IQUANT	1	Vch Filter
IERANGELOWERLIMIT	IQUANT	9	I/E Range Lower Limit
IERANGEMODE	TOGGLE	F	I/E AutoRange
IERANGE	IQUANT	9	I/E Range
ACHSELECT	IQUANT	1	Ach Select
ACHRANGE	IQUANT	2	Ach Range
ACHOFFSETENABLE	TOGGLE	F	Ach Offset Enable
ACHOFFSET	QUANT	0	Ach Offset (V)
ACHFILTER	IQUANT	1	Ach Filter
CABLEID	IQUANT	14	Cable ID
DCCALDATE	LABEL	5-7-2017	DC Calibration Date
ACCALDATE	LABEL	12/3/2015	AC Calibration Date
FRAMEWORKVERSION	QUANT	7.01	Framework Version
INSTRUMENTVERSION	LABEL	4.00	Instrument Version
CURVE	TABLE	172
	Pt	T	Vf	Im	Vu	Pwr	Sig	Ach	Temp	IERange	Over
	#	s	V	A	V	W	V	V	deg C	#	bits
	0	0.013333	2.80584E-001	9.11074E-005	0.00000E+000	2.55633E-005	5.39641E-002	2.80631E-001	3.57270E+000	9	...........
	1	0.026667	3.00117E-001	9.07595E-005	0.00000E+000	2.72385E-005	5.39641E-002	3.00157E-001	3.57270E+000	9	...........
	2	0.04	3.18267E-001	9.12002E-005	0.00000E+000	2.90260E-005	5.39641E-002	3.18307E-001	3.57270E+000	9	...........
	3	0.053333	3.35263E-001	9.09105E-005	0.00000E+000	3.04789E-005	5.39641E-002	3.35305E-001	3.57270E+000	9	...........
	4	0.066667	3.51254E-001	9.09345E-005	0.00000E+000	3.19411E-005	5.39641E-002	3.51293E-001	3.57270E+000	9	...........
	5	0.08	3.66357E-001	9.12189E-005	0.00000E+000	3.34187E-005	5.39641E-002	3.66405E-001	3.57270E+000	9	...........
	6	0.093333	3.80681E-001	9.09960E-005	0.00000E+000	3.46405E-005	5.39641E-002	3.80727E-001	3.57270E+000	9	...........
	7	0.106667	3.94302E-001	9.09137E-005	0.00000E+000	3.58475E-005	5.39641E-002	3.94344E-001	3.57270E+000	9	...........
	8	0.12	4.07298E-001	9.11325E-005	0.00000E+000	3.71180E-005	5.39641E-002	4.07347E-001	3.57270E+000	9	...........
	9	0.133333	4.19710E-001	9.08543E-005	0.00000E+000	3.81324E-005	5.39641E-002	4.19760E-001	3.57270E+000	9	...........
	10	0.146667	4.31607E-001	9.08959E-005	0.00000E+000	3.92313E-005	5.39641E-002	4.31663E-001	3.57270E+000	9	...........
	11	0.16	4.43032E-001	9.11377E-005	0.00000E+000	4.03769E-005	5.39641E-002	4.43095E-001	3.57270E+000	9	...........
	12	0.173333	4.54012E-001	9.09157E-005	0.00000E+000	4.12768E-005	5.39641E-002	4.54065E-001	3.57270E+000	9	...........
	13	0.186667	4.64594E-001	9.09272E-005	0.00000E+000	4.22442E-005	5.39641E-002	4.64646E-001	3.57270E+000	9	...........
	14	0.2	4.74786E-001	9.10501E-005	0.00000E+000	4.32293E-005	5.39641E-002	4.74842E-001	3.57270E+000	9	...........
	15	0.213333	4.84631E-001	9.10616E-005	0.00000E+000	4.41313E-005	5.39641E-002	4.84689E-001	3.57270E+000	9	...........
	16	0.226667	4.94150E-001	9.08605E-005	0.00000E+000	4.48987E-005	5.39641E-002	4.94215E-001	3.57270E+000	9	...........
	17	0.24	5.03376E-001	9.09751E-005	0.00000E+000	4.57947E-005	5.39641E-002	5.03434E-001	3.57270E+000	9	...........
	18	0.253333	5.12313E-001	9.09751E-005	0.00000E+000	4.66077E-005	5.39641E-002	5.12369E-001	3.57270E+000	9	...........
	19	0.266667	5.20990E-001	9.10668E-005	0.00000E+000	4.74449E-005	5.39641E-002	5.21050E-001	3.57270E+000	9	...........
	20	0.28	5.29404E-001	9.09335E-005	0.00000E+000	4.81406E-005	5.39641E-002	5.29465E-001	3.57270E+000	9	...........
	21	0.293333	5.37490E-001	9.11543E-005	0.00000E+000	4.89945E-005	5.39641E-002	5.37564E-001	3.57270E+000	9	...........
	22	0.306667	5.45432E-001	9.10074E-005	0.00000E+000	4.96383E-005	5.39641E-002	5.45514E-001	3.57270E+000	9	...........
	23	0.32	5.53127E-001	9.10449E-005	0.00000E+000	5.03594E-005	5.39641E-002	5.53231E-001	3.57270E+000	9	...........
	24	0.333333	5.60657E-001	9.10074E-005	0.00000E+000	5.10240E-005	5.39641E-002	5.60772E-001	3.57270E+000	9	...........
	25	0.346667	5.68019E-001	9.09637E-005	0.00000E+000	5.16691E-005	5.39641E-002	5.68133E-001	3.57270E+000	9	...........
	26	0.36	5.75197E-001	9.11814E-005	0.00000E+000	5.24472E-005	5.39641E-002	5.75293E-001	3.57270E+000	9	...........
	27	0.373333	5.82164E-001	9.10043E-005	0.00000E+000	5.29794E-005	5.39641E-002	5.82255E-001	3.57270E+000	9	...........
	28	0.386667	5.89000E-001	9.10470E-005	0.00000E+000	5.36267E-005	5.39641E-002	5.89110E-001	3.57270E+000	9	...........
	29	0.4	5.95663E-001	9.12293E-005	0.00000E+000	5.43419E-005	5.39641E-002	5.95788E-001	3.57270E+000	9	...........
	30	0.413333	6.02174E-001	9.09064E-005	0.00000E+000	5.47414E-005	5.39641E-002	6.02322E-001	3.57270E+000	9	...........
	31	0.426667	6.08521E-001	9.09168E-005	0.00000E+000	5.53248E-005	5.39641E-002	6.08672E-001	3.57270E+000	9	...........
	32	0.44	6.14804E-001	9.11314E-005	0.00000E+000	5.60279E-005	5.39641E-002	6.14928E-001	3.57270E+000	9	...........
	33	0.453333	6.20915E-001	9.08428E-005	0.00000E+000	5.64056E-005	5.39641E-002	6.21002E-001	3.57270E+000	9	...........
	34	0.466667	6.26866E-001	9.10095E-005	0.00000E+000	5.70507E-005	5.39641E-002	6.26952E-001	3.57270E+000	9	...........
	35	0.48	6.32680E-001	9.09407E-005	0.00000E+000	5.75364E-005	5.39641E-002	6.32787E-001	3.57270E+000	9	...........
	36	0.493333	6.38415E-001	9.08907E-005	0.00000E+000	5.80260E-005	5.39641E-002	6.38534E-001	3.57270E+000	9	...........
	37	0.506667	6.44062E-001	9.11616E-005	0.00000E+000	5.87137E-005	5.39641E-002	6.44162E-001	3.57270E+000	9	...........
	38	0.52	6.49571E-001	9.08741E-005	0.00000E+000	5.90292E-005	5.39641E-002	6.49684E-001	3.57270E+000	9	...........
	39	0.533333	6.55007E-001	9.12273E-005	0.00000E+000	5.97545E-005	5.39641E-002	6.55109E-001	3.57270E+000	9	...........
	40	0.546667	6.60313E-001	9.10085E-005	0.00000E+000	6.00941E-005	5.39641E-002	6.60424E-001	3.57270E+000	9	...........
	41	0.56	6.65547E-001	9.10428E-005	0.00000E+000	6.05933E-005	5.39641E-002	6.65667E-001	3.57270E+000	9	...........
	42	0.573333	6.70686E-001	9.12283E-005	0.00000E+000	6.11855E-005	5.39641E-002	6.70788E-001	3.57270E+000	9	...........
	43	0.586667	6.75734E-001	9.10251E-005	0.00000E+000	6.15087E-005	5.39641E-002	6.75853E-001	3.57270E+000	9	...........
	44	0.6	6.80683E-001	9.12418E-005	0.00000E+000	6.21068E-005	5.39641E-002	6.80814E-001	3.57270E+000	9	...........
	45	0.613333	6.85545E-001	9.12981E-005	0.00000E+000	6.25889E-005	5.39641E-002	6.85680E-001	3.57270E+000	9	...........
	46	0.626667	6.90315E-001	9.13023E-005	0.00000E+000	6.30274E-005	5.39641E-002	6.90432E-001	3.57270E+000	9	...........
	47	0.64	6.95047E-001	9.10668E-005	0.00000E+000	6.32957E-005	5.39641E-002	6.95124E-001	3.57270E+000	9	...........
	48	0.653333	6.99678E-001	9.10095E-005	0.00000E+000	6.36773E-005	5.39641E-002	6.99753E-001	3.57270E+000	9	...........
	49	0.666667	7.04200E-001	9.12616E-005	0.00000E+000	6.42665E-005	5.39641E-002	7.04306E-001	3.57270E+000	9	...........
	50	0.68	7.08678E-001	9.10835E-005	0.00000E+000	6.45489E-005	5.39641E-002	7.08765E-001	3.57270E+000	9	...........
	51	0.693333	7.13082E-001	9.10501E-005	0.00000E+000	6.49263E-005	5.39641E-002	7.13176E-001	3.57270E+000	9	...........
	52	0.706667	7.17465E-001	9.13846E-005	0.00000E+000	6.55653E-005	5.39641E-002	7.17593E-001	3.57270E+000	9	...........
	53	0.72	7.21779E-001	9.11741E-005	0.00000E+000	6.58076E-005	5.39641E-002	7.21871E-001	3.57270E+000	9	...........
	54	0.733333	7.25986E-001	9.11804E-005	0.00000E+000	6.61957E-005	5.39641E-002	7.26095E-001	3.57270E+000	9	...........
	55	0.746667	7.30144E-001	9.08209E-005	0.00000E+000	6.63123E-005	5.39641E-002	7.30264E-001	3.57270E+000	9	...........
	56	0.76	7.34268E-001	9.09762E-005	0.00000E+000	6.68009E-005	5.39641E-002	7.34371E-001	3.57270E+000	9	...........
	57	0.773333	7.38322E-001	9.12106E-005	0.00000E+000	6.73428E-005	5.39641E-002	7.38453E-001	3.57270E+000	9	...........
	58	0.786667	7.42362E-001	9.12387E-005	0.00000E+000	6.77322E-005	5.39641E-002	7.42463E-001	3.57270E+000	9	...........
	59	0.8	7.46325E-001	9.09793E-005	0.00000E+000	6.79001E-005	5.39641E-002	7.46429E-001	3.57270E+000	9	...........
	60	0.813333	7.50240E-001	9.12262E-005	0.00000E+000	6.84416E-005	5.39641E-002	7.50306E-001	3.57270E+000	9	...........
	61	0.826667	7.54053E-001	9.10814E-005	0.00000E+000	6.86802E-005	5.39641E-002	7.54165E-001	3.57270E+000	9	...........
	62	0.84	7.57859E-001	9.09522E-005	0.00000E+000	6.89289E-005	5.39641E-002	7.57965E-001	3.57270E+000	9	...........
	63	0.853333	7.61587E-001	9.09449E-005	0.00000E+000	6.92624E-005	5.39641E-002	7.61699E-001	3.57325E+000	9	...........
	64	0.866667	7.65274E-001	9.10345E-005	0.00000E+000	6.96664E-005	5.39641E-002	7.65422E-001	3.57380E+000	9	...........
	65	0.88	7.68961E-001	9.09251E-005	0.00000E+000	6.99178E-005	5.39641E-002	7.69105E-001	3.57380E+000	9	...........
	66	0.893333	7.72579E-001	9.11054E-005	0.00000E+000	7.03861E-005	5.39641E-002	7.72715E-001	3.57380E+000	9	...........
	67	0.906667	7.76165E-001	9.10053E-005	0.00000E+000	7.06351E-005	5.39641E-002	7.76269E-001	3.57380E+000	9	...........
	68	0.92	7.79690E-001	9.10356E-005	0.00000E+000	7.09795E-005	5.39641E-002	7.79830E-001	3.57380E+000	9	...........
	69	0.933333	7.83171E-001	9.12648E-005	0.00000E+000	7.14759E-005	5.39641E-002	7.83299E-001	3.57380E+000	9	...........
	70	0.946667	7.86607E-001	9.10939E-005	0.00000E+000	7.16551E-005	5.39641E-002	7.86716E-001	3.57380E+000	9	...........
	71	0.96	7.89996E-001	9.10939E-005	0.00000E+000	7.19638E-005	5.39641E-002	7.90124E-001	3.57380E+000	9	...........
	72	0.97333	7.93403E-001	9.09241E-005	0.00000E+000	7.21395E-005	5.39641E-002	7.93537E-001	3.57380E+000	9	...........
	73	0.98667	7.96753E-001	9.07740E-005	0.00000E+000	7.23245E-005	5.39641E-002	7.96846E-001	3.57380E+000	9	...........
	74	1	8.00062E-001	9.10335E-005	0.00000E+000	7.28324E-005	5.39641E-002	8.00161E-001	3.57380E+000	9	...........
	75	1.01333	8.03282E-001	9.09730E-005	0.00000E+000	7.30770E-005	5.39641E-002	8.03381E-001	3.57380E+000	9	...........
	76	1.02667	8.06461E-001	9.08668E-005	0.00000E+000	7.32805E-005	5.39641E-002	8.06603E-001	3.57380E+000	9	...........
	77	1.04	8.09667E-001	9.12544E-005	0.00000E+000	7.38856E-005	5.39641E-002	8.09783E-001	3.57380E+000	9	...........
	78	1.05333	8.12842E-001	9.10877E-005	0.00000E+000	7.40399E-005	5.39641E-002	8.12973E-001	3.57380E+000	9	...........
	79	1.06667	8.15946E-001	9.09710E-005	0.00000E+000	7.42273E-005	5.39641E-002	8.16086E-001	3.57380E+000	9	...........
	80	1.08	8.19035E-001	9.09032E-005	0.00000E+000	7.44530E-005	5.39641E-002	8.19212E-001	3.57380E+000	9	...........
	81	1.09333	8.22063E-001	9.08689E-005	0.00000E+000	7.46999E-005	5.39641E-002	8.22207E-001	3.57380E+000	9	...........
	82	1.10667	8.25054E-001	9.09262E-005	0.00000E+000	7.50190E-005	5.39641E-002	8.25221E-001	3.57380E+000	9	...........
	83	1.12	8.28046E-001	9.09835E-005	0.00000E+000	7.53385E-005	5.39641E-002	8.28187E-001	3.57380E+000	9	...........
	84	1.13333	8.30999E-001	9.08407E-005	0.00000E+000	7.54885E-005	5.39641E-002	8.31173E-001	3.57380E+000	9	...........
	85	1.14667	8.33936E-001	9.09230E-005	0.00000E+000	7.58240E-005	5.39641E-002	8.34108E-001	3.57380E+000	9	...........
	86	1.16	8.36789E-001	9.08553E-005	0.00000E+000	7.60268E-005	5.39641E-002	8.36985E-001	3.57380E+000	9	...........
	87	1.17333	8.39630E-001	9.10918E-005	0.00000E+000	7.64835E-005	5.39641E-002	8.39818E-001	3.57380E+000	9	...........
	88	1.18667	8.42437E-001	9.08876E-005	0.00000E+000	7.65670E-005	5.39641E-002	8.42641E-001	3.57380E+000	9	...........
	89	1.2	8.45274E-001	9.10908E-005	0.00000E+000	7.69966E-005	5.39641E-002	8.45459E-001	3.57380E+000	9	...........
	90	1.21333	8.48032E-001	9.10897E-005	0.00000E+000	7.72470E-005	5.39641E-002	8.48231E-001	3.57380E+000	9	...........
	91	1.22667	8.50766E-001	9.09366E-005	0.00000E+000	7.73657E-005	5.39641E-002	8.50958E-001	3.57380E+000	9	...........
	92	1.24	8.53458E-001	9.13471E-005	0.00000E+000	7.79609E-005	5.39641E-002	8.53658E-001	3.57380E+000	9	...........
	93	1.25333	8.56153E-001	9.10522E-005	0.00000E+000	7.79546E-005	5.39641E-002	8.56342E-001	3.57380E+000	9	...........
	94	1.26667	8.58788E-001	9.10699E-005	0.00000E+000	7.82097E-005	5.39641E-002	8.59017E-001	3.57380E+000	9	...........
	95	1.28	8.61452E-001	9.10751E-005	0.00000E+000	7.84569E-005	5.39641E-002	8.61646E-001	3.57380E+000	9	...........
	96	1.29333	8.64028E-001	9.08918E-005	0.00000E+000	7.85331E-005	5.39641E-002	8.64216E-001	3.57380E+000	9	...........
	97	1.30667	8.66605E-001	9.11898E-005	0.00000E+000	7.90255E-005	5.39641E-002	8.66803E-001	3.57380E+000	9	...........
	98	1.32	8.69159E-001	9.07626E-005	0.00000E+000	7.88871E-005	5.39641E-002	8.69371E-001	3.57380E+000	9	...........
	99	1.33333	8.71709E-001	9.08261E-005	0.00000E+000	7.91739E-005	5.39641E-002	8.71887E-001	3.57380E+000	9	...........
	100	1.34667	8.74212E-001	9.11543E-005	0.00000E+000	7.96882E-005	5.39641E-002	8.74384E-001	3.57380E+000	9	...........
	101	1.36	8.76678E-001	9.12085E-005	0.00000E+000	7.99605E-005	5.39641E-002	8.76862E-001	3.57380E+000	9	...........
	102	1.37333	8.79126E-001	9.11272E-005	0.00000E+000	8.01124E-005	5.39641E-002	8.79293E-001	3.57380E+000	9	...........
	103	1.38667	8.81541E-001	9.12460E-005	0.00000E+000	8.04371E-005	5.39641E-002	8.81722E-001	3.57380E+000	9	...........
	104	1.4	8.83987E-001	9.12002E-005	0.00000E+000	8.06198E-005	5.39641E-002	8.84138E-001	3.57380E+000	9	...........
	105	1.41333	8.86344E-001	9.09689E-005	0.00000E+000	8.06297E-005	5.39641E-002	8.86528E-001	3.57380E+000	9	...........
	106	1.42667	8.88684E-001	9.09918E-005	0.00000E+000	8.08629E-005	5.39641E-002	8.88879E-001	3.57380E+000	9	...........
	107	1.44	8.91010E-001	9.11387E-005	0.00000E+000	8.12054E-005	5.39641E-002	8.91192E-001	3.57380E+000	9	...........
	108	1.45333	8.93309E-001	9.09116E-005	0.00000E+000	8.12121E-005	5.39641E-002	8.93509E-001	3.57380E+000	9	...........
	109	1.46667	8.95601E-001	9.10564E-005	0.00000E+000	8.15502E-005	5.39641E-002	8.95835E-001	3.57380E+000	9	...........
	110	1.48	8.97897E-001	9.08407E-005	0.00000E+000	8.15656E-005	5.39641E-002	8.98089E-001	3.57380E+000	9	...........
	111	1.49333	9.00127E-001	9.09241E-005	0.00000E+000	8.18432E-005	5.39641E-002	9.00309E-001	3.57380E+000	9	...........
	112	1.50667	9.02357E-001	9.10637E-005	0.00000E+000	8.21720E-005	5.39641E-002	9.02548E-001	3.57380E+000	9	...........
	113	1.52	9.04536E-001	9.09720E-005	0.00000E+000	8.22874E-005	5.39641E-002	9.04747E-001	3.57380E+000	9	...........
	114	1.53333	9.06705E-001	9.10658E-005	0.00000E+000	8.25698E-005	5.39641E-002	9.06907E-001	3.57380E+000	9	...........
	115	1.54667	9.08839E-001	9.09116E-005	0.00000E+000	8.26239E-005	5.39641E-002	9.09030E-001	3.57380E+000	9	...........
	116	1.56	9.10948E-001	9.10793E-005	0.00000E+000	8.29685E-005	5.39641E-002	9.11149E-001	3.57380E+000	9	...........
	117	1.57333	9.13051E-001	9.06761E-005	0.00000E+000	8.27919E-005	5.39641E-002	9.13242E-001	3.57380E+000	9	...........
	118	1.58667	9.15147E-001	9.09460E-005	0.00000E+000	8.32289E-005	5.39641E-002	9.15345E-001	3.57380E+000	9	...........
	119	1.6	9.17213E-001	9.08397E-005	0.00000E+000	8.33193E-005	5.39641E-002	9.17405E-001	3.57380E+000	9	...........
	120	1.61333	9.19244E-001	9.09772E-005	0.00000E+000	8.36302E-005	5.39641E-002	9.19457E-001	3.57380E+000	9	...........
	121	1.62667	9.21331E-001	9.10335E-005	0.00000E+000	8.38719E-005	5.39641E-002	9.21488E-001	3.57380E+000	9	...........
	122	1.64	9.23338E-001	9.11418E-005	0.00000E+000	8.41547E-005	5.39641E-002	9.23482E-001	3.57380E+000	9	...........
	123	1.65333	9.25310E-001	9.09282E-005	0.00000E+000	8.41368E-005	5.39641E-002	9.25452E-001	3.57380E+000	9	...........
	124	1.66667	9.27262E-001	9.10637E-005	0.00000E+000	8.44399E-005	5.39641E-002	9.27419E-001	3.57380E+000	9	...........
	125	1.68	9.29217E-001	9.08605E-005	0.00000E+000	8.44292E-005	5.39641E-002	9.29367E-001	3.57380E+000	9	...........
	126	1.69333	9.31121E-001	9.11158E-005	0.00000E+000	8.48398E-005	5.39641E-002	9.31270E-001	3.57380E+000	9	...........
	127	1.70667	9.33019E-001	9.11543E-005	0.00000E+000	8.50487E-005	5.39641E-002	9.33203E-001	3.57380E+000	9	...........
	128	1.72	9.34905E-001	9.09012E-005	0.00000E+000	8.49839E-005	5.39641E-002	9.35079E-001	3.57380E+000	9	...........
	129	1.73333	9.36755E-001	9.10210E-005	0.00000E+000	8.52644E-005	5.39641E-002	9.36960E-001	3.57380E+000	9	...........
	130	1.74667	9.38603E-001	9.09658E-005	0.00000E+000	8.53808E-005	5.39641E-002	9.38799E-001	3.57380E+000	9	...........
	131	1.76	9.40428E-001	9.12741E-005	0.00000E+000	8.58367E-005	5.39641E-002	9.40626E-001	3.57380E+000	9	...........
	132	1.77333	9.42237E-001	9.08032E-005	0.00000E+000	8.55582E-005	5.39641E-002	9.42398E-001	3.57380E+000	9	...........
	133	1.78667	9.43995E-001	9.12137E-005	0.00000E+000	8.61053E-005	5.39641E-002	9.44188E-001	3.57380E+000	9	...........
	134	1.8	9.45770E-001	9.13023E-005	0.00000E+000	8.63509E-005	5.39641E-002	9.45968E-001	3.57380E+000	9	...........
	135	1.81333	9.47582E-001	9.11179E-005	0.00000E+000	8.63416E-005	5.39641E-002	9.47761E-001	3.57380E+000	9	...........
	136	1.82667	9.49302E-001	9.10262E-005	0.00000E+000	8.64114E-005	5.39641E-002	9.49501E-001	3.57380E+000	9	...........
	137	1.84	9.51034E-001	9.11231E-005	0.00000E+000	8.66612E-005	5.39641E-002	9.51233E-001	3.57380E+000	9	...........
	138	1.85333	9.52731E-001	9.09793E-005	0.00000E+000	8.66788E-005	5.39641E-002	9.52925E-001	3.57310E+000	9	...........
	139	1.86667	9.54429E-001	9.10522E-005	0.00000E+000	8.69029E-005	5.39641E-002	9.54588E-001	3.57240E+000	9	...........
	140	1.88	9.56067E-001	9.11408E-005	0.00000E+000	8.71367E-005	5.39641E-002	9.56233E-001	3.57240E+000	9	...........
	141	1.89333	9.57710E-001	9.11762E-005	0.00000E+000	8.73204E-005	5.39641E-002	9.57881E-001	3.57240E+000	9	...........
	142	1.90667	9.59376E-001	9.10126E-005	0.00000E+000	8.73153E-005	5.39641E-002	9.59553E-001	3.57240E+000	9	...........
	143	1.92	9.60989E-001	9.12564E-005	0.00000E+000	8.76964E-005	5.39641E-002	9.61189E-001	3.57240E+000	9	...........
	144	1.93333	9.62586E-001	9.09449E-005	0.00000E+000	8.75423E-005	5.39641E-002	9.62774E-001	3.57240E+000	9	...........
	145	1.94667	9.64184E-001	9.09741E-005	0.00000E+000	8.77158E-005	5.39641E-002	9.64359E-001	3.57240E+000	9	...........
	146	1.96	9.65737E-001	9.08782E-005	0.00000E+000	8.77645E-005	5.39641E-002	9.65924E-001	3.57240E+000	9	...........
	147	1.97333	9.67296E-001	9.09793E-005	0.00000E+000	8.80040E-005	5.39641E-002	9.67489E-001	3.57240E+000	9	...........
	148	1.98667	9.68816E-001	9.10699E-005	0.00000E+000	8.82300E-005	5.39641E-002	9.69010E-001	3.57240E+000	9	...........
	149	2	9.70333E-001	9.10168E-005	0.00000E+000	8.83166E-005	5.39641E-002	9.70551E-001	3.57240E+000	9	...........
	150	2.01333	9.71837E-001	9.10699E-005	0.00000E+000	8.85051E-005	5.39641E-002	9.72063E-001	3.57240E+000	9	...........
	151	2.02667	9.73379E-001	9.11481E-005	0.00000E+000	8.87216E-005	5.39641E-002	9.73544E-001	3.57240E+000	9	...........
	152	2.04	9.74841E-001	9.10970E-005	0.00000E+000	8.88051E-005	5.39641E-002	9.75014E-001	3.57240E+000	9	...........
	153	2.05333	9.76288E-001	9.11970E-005	0.00000E+000	8.90346E-005	5.39641E-002	9.76490E-001	3.57240E+000	9	...........
	154	2.06667	9.77735E-001	9.12418E-005	0.00000E+000	8.92104E-005	5.39641E-002	9.77930E-001	3.57240E+000	9	...........
	155	2.08	9.79180E-001	9.11804E-005	0.00000E+000	8.92820E-005	5.39641E-002	9.79345E-001	3.57240E+000	9	...........
	156	2.09333	9.80588E-001	9.12992E-005	0.00000E+000	8.95268E-005	5.39641E-002	9.80775E-001	3.57240E+000	9	...........
	157	2.10667	9.81977E-001	9.10012E-005	0.00000E+000	8.93610E-005	5.39641E-002	9.82181E-001	3.57240E+000	9	...........
	158	2.12	9.83377E-001	9.09741E-005	0.00000E+000	8.94619E-005	5.39641E-002	9.83565E-001	3.57240E+000	9	...........
	159	2.13333	9.84754E-001	9.09407E-005	0.00000E+000	8.95543E-005	5.39641E-002	9.84945E-001	3.57240E+000	9	...........
	160	2.14667	9.86123E-001	9.13252E-005	0.00000E+000	9.00579E-005	5.39641E-002	9.86317E-001	3.57240E+000	9	...........
	161	2.16	9.87464E-001	9.09460E-005	0.00000E+000	8.98058E-005	5.39641E-002	9.87652E-001	3.57240E+000	9	...........
	162	2.17333	9.88797E-001	9.08772E-005	0.00000E+000	8.98591E-005	5.39641E-002	9.88962E-001	3.57240E+000	9	...........
	163	2.18667	9.90129E-001	9.10241E-005	0.00000E+000	9.01256E-005	5.39641E-002	9.90287E-001	3.57240E+000	9	...........
	164	2.2	9.91434E-001	9.10710E-005	0.00000E+000	9.02909E-005	5.39641E-002	9.91601E-001	3.57240E+000	9	...........
	165	2.21333	9.92707E-001	9.07667E-005	0.00000E+000	9.01048E-005	5.39641E-002	9.92897E-001	3.57240E+000	9	...........
	166	2.22667	9.93998E-001	9.13085E-005	0.00000E+000	9.07605E-005	5.39641E-002	9.94189E-001	3.57240E+000	9	...........
	167	2.24	9.95298E-001	9.09835E-005	0.00000E+000	9.05557E-005	5.39641E-002	9.95466E-001	3.57240E+000	9	...........
	168	2.25333	9.96531E-001	9.08741E-005	0.00000E+000	9.05588E-005	5.39641E-002	9.96724E-001	3.57240E+000	9	...........
	169	2.26667	9.97790E-001	9.08866E-005	0.00000E+000	9.06857E-005	5.39641E-002	9.97989E-001	3.57240E+000	9	...........
	170	2.28	9.99038E-001	9.12523E-005	0.00000E+000	9.11645E-005	5.39641E-002	9.99221E-001	3.57240E+000	9	...........
	171	2.285	9.99869E-001	9.13933E-005	0.00000E+000	9.13813E-005	5.39641E-002	1.00004E+000	3.57240E+000	9	...........
STARTTIMEOFFSET	QUANT	1731.518	Start Time Offset (s)
