EXPLAIN
TAG	PWR800_CHARGE
TITLE	LABEL	PWR Cyclic Charge Discharge (Cell) - Charge Step	Test &Identifier
DATE	LABEL	10-7-2017	Date
TIME	LABEL	15:03:50	Time
NOTES	NOTES	3	&Notes...
	supercap test cell
	0.9mg
	6M KOH
PSTAT	PSTAT	IFC5000-01520	Potentiostat
CAPACITY	QUANT	1.00000E-003	Capacity (A-hr)
CELLTYPE	SELECTOR	1	&Cell Type
WORKINGCONNECTION	SELECTOR	0	&Working Lead
MAXCHARGETIME	VARIABLEANDUNITS	1.00000E+002	s	1.00000E+002	second(s)	Max &Charge Time
CHARGECURRENT	QUANT	9.00000E-005	&Charge Current (A) 
VOLTAGEFINISH	TWOPARAM	F	1.00000E-003	3.60000E+003	&Voltage Finish	 I (A) < 	Max Time(s)
SAMPLETIME	QUANT	1.00000E-002	Sa&mple Period (s)
CHARGESTOPAT1	MULTIPARAM	4	1.00000E+000	Charge Stop At &1	Voltage > Limit	V
CHARGESTOPAT2	MULTIPARAM	0	0.00000E+000	Charge Stop At &2	None	N/A
AESBHCSELECTOR	TOGGLE	F	Save Both Half Cells
IRCOMP	TOGGLE	F	IR &Measure
EOC	QUANT	0	Open Circuit (V)
SEQUENCER	TOGGLE	TRUE	Run as Sequence
PSTATMODEL	IQUANT	53	Pstat Model
PSTATSECTION	LABEL	IFC5000-01520	Pstat Section
PSTATSERIALNO	LABEL	01520	Pstat Serial Number
CTRLMODE	IQUANT	0	Control Mode
ELECTROMETER	IQUANT	1	RE=0 or CS=1
IESTAB	IQUANT	0	I/E Stability
CASPEED	IQUANT	4	Control Amp Speed
CONVENTION	IQUANT	1	Current Convention
ICHRANGE	IQUANT	2	Ich Range
ICHRANGEMODE	TOGGLE	T	Ich Auto Range
ICHOFFSETENABLE	TOGGLE	F	Ich Offset Enable
ICHOFFSET	QUANT	0	Ich Offset (V)
ICHFILTER	IQUANT	1	Ich Filter
VCHRANGE	IQUANT	2	Vch Range
VCHRANGEMODE	TOGGLE	T	Vch Auto Range
VCHOFFSETENABLE	TOGGLE	F	Vch Offset Enable
VCHOFFSET	QUANT	0	Vch Offset (V)
VCHFILTER	IQUANT	1	Vch Filter
IERANGELOWERLIMIT	IQUANT	9	I/E Range Lower Limit
IERANGEMODE	TOGGLE	F	I/E AutoRange
IERANGE	IQUANT	9	I/E Range
ACHSELECT	IQUANT	1	Ach Select
ACHRANGE	IQUANT	2	Ach Range
ACHOFFSETENABLE	TOGGLE	F	Ach Offset Enable
ACHOFFSET	QUANT	0	Ach Offset (V)
ACHFILTER	IQUANT	1	Ach Filter
CABLEID	IQUANT	14	Cable ID
DCCALDATE	LABEL	5-7-2017	DC Calibration Date
ACCALDATE	LABEL	12/3/2015	AC Calibration Date
FRAMEWORKVERSION	QUANT	7.01	Framework Version
INSTRUMENTVERSION	LABEL	4.00	Instrument Version
CURVE	TABLE	197
	Pt	T	Vf	Im	Vu	Pwr	Sig	Ach	Temp	IERange	Over
	#	s	V	A	V	W	V	V	deg C	#	bits
	0	0.013333	2.99797E-001	9.10022E-005	0.00000E+000	2.72822E-005	5.39641E-002	2.99837E-001	3.57150E+000	9	...........
	1	0.026667	3.18339E-001	9.12856E-005	0.00000E+000	2.90597E-005	5.39641E-002	3.18368E-001	3.57150E+000	9	...........
	2	0.04	3.35379E-001	9.10522E-005	0.00000E+000	3.05370E-005	5.39641E-002	3.35407E-001	3.57150E+000	9	...........
	3	0.053333	3.51214E-001	9.12794E-005	0.00000E+000	3.20586E-005	5.39641E-002	3.51244E-001	3.57150E+000	9	...........
	4	0.066667	3.66053E-001	9.10637E-005	0.00000E+000	3.33342E-005	5.39641E-002	3.66087E-001	3.57150E+000	9	...........
	5	0.08	3.80044E-001	9.09126E-005	0.00000E+000	3.45508E-005	5.39641E-002	3.80070E-001	3.57150E+000	9	...........
	6	0.093333	3.93289E-001	9.11887E-005	0.00000E+000	3.58636E-005	5.39641E-002	3.93322E-001	3.57150E+000	9	...........
	7	0.106667	4.05885E-001	9.11418E-005	0.00000E+000	3.69931E-005	5.39641E-002	4.05918E-001	3.57150E+000	9	...........
	8	0.12	4.17907E-001	9.10481E-005	0.00000E+000	3.80496E-005	5.39641E-002	4.17942E-001	3.57150E+000	9	...........
	9	0.133333	4.29415E-001	9.12043E-005	0.00000E+000	3.91645E-005	5.39641E-002	4.29457E-001	3.57150E+000	9	...........
	10	0.146667	4.40454E-001	9.11252E-005	0.00000E+000	4.01364E-005	5.39641E-002	4.40499E-001	3.57150E+000	9	...........
	11	0.16	4.51063E-001	9.13710E-005	0.00000E+000	4.12141E-005	5.39641E-002	4.51112E-001	3.57150E+000	9	...........
	12	0.173333	4.61289E-001	9.09126E-005	0.00000E+000	4.19370E-005	5.39641E-002	4.61332E-001	3.57150E+000	9	...........
	13	0.186667	4.71156E-001	9.10574E-005	0.00000E+000	4.29023E-005	5.39641E-002	4.71198E-001	3.57150E+000	9	...........
	14	0.2	4.80682E-001	9.11199E-005	0.00000E+000	4.37997E-005	5.39641E-002	4.80727E-001	3.57150E+000	9	...........
	15	0.213333	4.89883E-001	9.12293E-005	0.00000E+000	4.46917E-005	5.39641E-002	4.89933E-001	3.57150E+000	9	...........
	16	0.226667	4.98808E-001	9.12794E-005	0.00000E+000	4.55309E-005	5.39641E-002	4.98854E-001	3.57150E+000	9	...........
	17	0.24	5.07469E-001	9.10408E-005	0.00000E+000	4.62003E-005	5.39641E-002	5.07518E-001	3.57150E+000	9	...........
	18	0.253333	5.15872E-001	9.12523E-005	0.00000E+000	4.70745E-005	5.39641E-002	5.15926E-001	3.57150E+000	9	...........
	19	0.266667	5.24031E-001	9.11616E-005	0.00000E+000	4.77715E-005	5.39641E-002	5.24092E-001	3.57150E+000	9	...........
	20	0.28	5.31953E-001	9.10814E-005	0.00000E+000	4.84511E-005	5.39641E-002	5.32011E-001	3.57150E+000	9	...........
	21	0.293333	5.39690E-001	9.12252E-005	0.00000E+000	4.92333E-005	5.39641E-002	5.39722E-001	3.57150E+000	9	...........
	22	0.306667	5.47190E-001	9.11429E-005	0.00000E+000	4.98725E-005	5.39641E-002	5.47217E-001	3.57150E+000	9	...........
	23	0.32	5.54519E-001	9.12512E-005	0.00000E+000	5.06005E-005	5.39641E-002	5.54544E-001	3.57150E+000	9	...........
	24	0.333333	5.61655E-001	9.11689E-005	0.00000E+000	5.12055E-005	5.39641E-002	5.61704E-001	3.57150E+000	9	...........
	25	0.346667	5.68662E-001	9.12939E-005	0.00000E+000	5.19154E-005	5.39641E-002	5.68707E-001	3.57150E+000	9	...........
	26	0.36	5.75453E-001	9.12606E-005	0.00000E+000	5.25162E-005	5.39641E-002	5.75516E-001	3.57150E+000	9	...........
	27	0.373333	5.82089E-001	9.13419E-005	0.00000E+000	5.31691E-005	5.39641E-002	5.82150E-001	3.57150E+000	9	...........
	28	0.386667	5.88593E-001	9.11158E-005	0.00000E+000	5.36301E-005	5.39641E-002	5.88680E-001	3.57150E+000	9	...........
	29	0.4	5.94955E-001	9.11627E-005	0.00000E+000	5.42377E-005	5.39641E-002	5.95011E-001	3.57150E+000	9	...........
	30	0.413333	6.01117E-001	9.11804E-005	0.00000E+000	5.48101E-005	5.39641E-002	6.01233E-001	3.57150E+000	9	...........
	31	0.426667	6.07203E-001	9.11491E-005	0.00000E+000	5.53460E-005	5.39641E-002	6.07313E-001	3.57150E+000	9	...........
	32	0.44	6.13174E-001	9.12700E-005	0.00000E+000	5.59644E-005	5.39641E-002	6.13302E-001	3.57150E+000	9	...........
	33	0.453333	6.19065E-001	9.12471E-005	0.00000E+000	5.64879E-005	5.39641E-002	6.19133E-001	3.57150E+000	9	...........
	34	0.466667	6.24782E-001	9.13273E-005	0.00000E+000	5.70597E-005	5.39641E-002	6.24863E-001	3.57150E+000	9	...........
	35	0.48	6.30364E-001	9.10679E-005	0.00000E+000	5.74059E-005	5.39641E-002	6.30472E-001	3.57150E+000	9	...........
	36	0.493333	6.35848E-001	9.12710E-005	0.00000E+000	5.80345E-005	5.39641E-002	6.35941E-001	3.57150E+000	9	...........
	37	0.506667	6.41266E-001	9.11314E-005	0.00000E+000	5.84395E-005	5.39641E-002	6.41354E-001	3.57150E+000	9	...........
	38	0.52	6.46555E-001	9.12314E-005	0.00000E+000	5.89862E-005	5.39641E-002	6.46627E-001	3.57150E+000	9	...........
	39	0.533333	6.51734E-001	9.12221E-005	0.00000E+000	5.94525E-005	5.39641E-002	6.51818E-001	3.57150E+000	9	...........
	40	0.546667	6.56847E-001	9.13294E-005	0.00000E+000	5.99894E-005	5.39641E-002	6.56920E-001	3.57150E+000	9	...........
	41	0.56	6.61825E-001	9.10220E-005	0.00000E+000	6.02406E-005	5.39641E-002	6.61904E-001	3.57150E+000	9	...........
	42	0.573333	6.66737E-001	9.12960E-005	0.00000E+000	6.08704E-005	5.39641E-002	6.66828E-001	3.57150E+000	9	...........
	43	0.586667	6.71555E-001	9.13169E-005	0.00000E+000	6.13243E-005	5.39641E-002	6.71617E-001	3.57150E+000	9	...........
	44	0.6	6.76308E-001	9.14002E-005	0.00000E+000	6.18147E-005	5.39641E-002	6.76378E-001	3.57150E+000	9	...........
	45	0.613333	6.80936E-001	9.11720E-005	0.00000E+000	6.20823E-005	5.39641E-002	6.81048E-001	3.57150E+000	9	...........
	46	0.626667	6.85501E-001	9.11418E-005	0.00000E+000	6.24778E-005	5.39641E-002	6.85588E-001	3.57150E+000	9	...........
	47	0.64	6.89998E-001	9.12898E-005	0.00000E+000	6.29897E-005	5.39641E-002	6.90097E-001	3.57150E+000	9	...........
	48	0.653333	6.94409E-001	9.11773E-005	0.00000E+000	6.33143E-005	5.39641E-002	6.94503E-001	3.57150E+000	9	...........
	49	0.666667	6.98737E-001	9.11127E-005	0.00000E+000	6.36638E-005	5.39641E-002	6.98838E-001	3.57150E+000	9	...........
	50	0.68	7.03020E-001	9.12085E-005	0.00000E+000	6.41214E-005	5.39641E-002	7.03110E-001	3.57150E+000	9	...........
	51	0.693333	7.07199E-001	9.12231E-005	0.00000E+000	6.45129E-005	5.39641E-002	7.07308E-001	3.57150E+000	9	...........
	52	0.706667	7.11329E-001	9.10439E-005	0.00000E+000	6.47622E-005	5.39641E-002	7.11426E-001	3.57150E+000	9	...........
	53	0.72	7.15381E-001	9.09876E-005	0.00000E+000	6.50908E-005	5.39641E-002	7.15490E-001	3.57150E+000	9	...........
	54	0.733333	7.19439E-001	9.10949E-005	0.00000E+000	6.55372E-005	5.39641E-002	7.19515E-001	3.57150E+000	9	...........
	55	0.746667	7.23366E-001	9.12783E-005	0.00000E+000	6.60277E-005	5.39641E-002	7.23451E-001	3.57150E+000	9	...........
	56	0.76	7.27251E-001	9.12043E-005	0.00000E+000	6.63285E-005	5.39641E-002	7.27319E-001	3.57150E+000	9	...........
	57	0.773333	7.31047E-001	9.14002E-005	0.00000E+000	6.68178E-005	5.39641E-002	7.31133E-001	3.57150E+000	9	...........
	58	0.786667	7.34797E-001	9.12742E-005	0.00000E+000	6.70680E-005	5.39641E-002	7.34884E-001	3.57150E+000	9	...........
	59	0.8	7.38493E-001	9.12085E-005	0.00000E+000	6.73569E-005	5.39641E-002	7.38595E-001	3.57150E+000	9	...........
	60	0.813333	7.42198E-001	9.11960E-005	0.00000E+000	6.76855E-005	5.39641E-002	7.42308E-001	3.57150E+000	9	...........
	61	0.826667	7.45811E-001	9.10908E-005	0.00000E+000	6.79365E-005	5.39641E-002	7.45895E-001	3.57150E+000	9	...........
	62	0.84	7.49381E-001	9.10949E-005	0.00000E+000	6.82648E-005	5.39641E-002	7.49461E-001	3.57150E+000	9	...........
	63	0.853333	7.52875E-001	9.12189E-005	0.00000E+000	6.86764E-005	5.39641E-002	7.52979E-001	3.57150E+000	9	...........
	64	0.866667	7.56383E-001	9.11783E-005	0.00000E+000	6.89658E-005	5.39641E-002	7.56470E-001	3.57150E+000	9	...........
	65	0.88	7.59782E-001	9.12981E-005	0.00000E+000	6.93667E-005	5.39641E-002	7.59864E-001	3.57150E+000	9	...........
	66	0.893333	7.63136E-001	9.11012E-005	0.00000E+000	6.95226E-005	5.39641E-002	7.63226E-001	3.57150E+000	9	...........
	67	0.906667	7.66451E-001	9.11345E-005	0.00000E+000	6.98502E-005	5.39641E-002	7.66580E-001	3.57150E+000	9	...........
	68	0.92	7.69745E-001	9.10679E-005	0.00000E+000	7.00990E-005	5.39641E-002	7.69859E-001	3.57150E+000	9	...........
	69	0.933333	7.72983E-001	9.15065E-005	0.00000E+000	7.07330E-005	5.39641E-002	7.73110E-001	3.57150E+000	9	...........
	70	0.946667	7.76190E-001	9.10751E-005	0.00000E+000	7.06916E-005	5.39641E-002	7.76305E-001	3.57150E+000	9	...........
	71	0.96	7.79353E-001	9.13242E-005	0.00000E+000	7.11738E-005	5.39641E-002	7.79461E-001	3.57150E+000	9	...........
	72	0.97333	7.82472E-001	9.10949E-005	0.00000E+000	7.12792E-005	5.39641E-002	7.82582E-001	3.57150E+000	9	...........
	73	0.98667	7.85539E-001	9.11356E-005	0.00000E+000	7.15906E-005	5.39641E-002	7.85625E-001	3.57146E+000	9	...........
	74	1	7.88560E-001	9.12637E-005	0.00000E+000	7.19670E-005	5.39641E-002	7.88665E-001	3.57120E+000	9	...........
	75	1.01333	7.91540E-001	9.10376E-005	0.00000E+000	7.20600E-005	5.39641E-002	7.91650E-001	3.57120E+000	9	...........
	76	1.02667	7.94548E-001	9.11450E-005	0.00000E+000	7.24190E-005	5.39641E-002	7.94636E-001	3.57120E+000	9	...........
	77	1.04	7.97461E-001	9.13252E-005	0.00000E+000	7.28283E-005	5.39641E-002	7.97523E-001	3.57120E+000	9	...........
	78	1.05333	8.00351E-001	9.12210E-005	0.00000E+000	7.30088E-005	5.39641E-002	8.00442E-001	3.57120E+000	9	...........
	79	1.06667	8.03201E-001	9.10012E-005	0.00000E+000	7.30922E-005	5.39641E-002	8.03301E-001	3.57120E+000	9	...........
	80	1.08	8.06037E-001	9.11470E-005	0.00000E+000	7.34679E-005	5.39641E-002	8.06123E-001	3.57120E+000	9	...........
	81	1.09333	8.08790E-001	9.13398E-005	0.00000E+000	7.38747E-005	5.39641E-002	8.08887E-001	3.57120E+000	9	...........
	82	1.10667	8.11528E-001	9.11637E-005	0.00000E+000	7.39819E-005	5.39641E-002	8.11632E-001	3.57120E+000	9	...........
	83	1.12	8.14237E-001	9.12168E-005	0.00000E+000	7.42722E-005	5.39641E-002	8.14357E-001	3.57120E+000	9	...........
	84	1.13333	8.16917E-001	9.10272E-005	0.00000E+000	7.43617E-005	5.39641E-002	8.17027E-001	3.57120E+000	9	...........
	85	1.14667	8.19614E-001	9.09605E-005	0.00000E+000	7.45526E-005	5.39641E-002	8.19713E-001	3.57120E+000	9	...........
	86	1.16	8.22239E-001	9.13065E-005	0.00000E+000	7.50757E-005	5.39641E-002	8.22366E-001	3.57120E+000	9	...........
	87	1.17333	8.24832E-001	9.13721E-005	0.00000E+000	7.53667E-005	5.39641E-002	8.24948E-001	3.57120E+000	9	...........
	88	1.18667	8.27392E-001	9.13002E-005	0.00000E+000	7.55411E-005	5.39641E-002	8.27498E-001	3.57120E+000	9	...........
	89	1.2	8.29921E-001	9.15565E-005	0.00000E+000	7.59846E-005	5.39641E-002	8.30036E-001	3.57120E+000	9	...........
	90	1.21333	8.32432E-001	9.12439E-005	0.00000E+000	7.59543E-005	5.39641E-002	8.32576E-001	3.57120E+000	9	...........
	91	1.22667	8.34912E-001	9.12262E-005	0.00000E+000	7.61659E-005	5.39641E-002	8.35066E-001	3.57120E+000	9	...........
	92	1.24	8.37355E-001	9.14836E-005	0.00000E+000	7.66042E-005	5.39641E-002	8.37515E-001	3.57120E+000	9	...........
	93	1.25333	8.39798E-001	9.12221E-005	0.00000E+000	7.66081E-005	5.39641E-002	8.39946E-001	3.57120E+000	9	...........
	94	1.26667	8.42198E-001	9.11523E-005	0.00000E+000	7.67682E-005	5.39641E-002	8.42335E-001	3.57120E+000	9	...........
	95	1.28	8.44601E-001	9.08959E-005	0.00000E+000	7.67708E-005	5.39641E-002	8.44751E-001	3.57120E+000	9	...........
	96	1.29333	8.46976E-001	9.09710E-005	0.00000E+000	7.70502E-005	5.39641E-002	8.47117E-001	3.57120E+000	9	...........
	97	1.30667	8.49307E-001	9.11564E-005	0.00000E+000	7.74197E-005	5.39641E-002	8.49438E-001	3.57120E+000	9	...........
	98	1.32	8.51594E-001	9.11710E-005	0.00000E+000	7.76406E-005	5.39641E-002	8.51738E-001	3.57120E+000	9	...........
	99	1.33333	8.53882E-001	9.08657E-005	0.00000E+000	7.75886E-005	5.39641E-002	8.54006E-001	3.57120E+000	9	...........
	100	1.34667	8.56124E-001	9.11450E-005	0.00000E+000	7.80314E-005	5.39641E-002	8.56276E-001	3.57120E+000	9	...........
	101	1.36	8.58375E-001	9.11033E-005	0.00000E+000	7.82008E-005	5.39641E-002	8.58526E-001	3.57120E+000	9	...........
	102	1.37333	8.60617E-001	9.12648E-005	0.00000E+000	7.85440E-005	5.39641E-002	8.60749E-001	3.57120E+000	9	...........
	103	1.38667	8.62829E-001	9.13773E-005	0.00000E+000	7.88430E-005	5.39641E-002	8.62934E-001	3.57120E+000	9	...........
	104	1.4	8.64950E-001	9.11773E-005	0.00000E+000	7.88637E-005	5.39641E-002	8.65107E-001	3.57120E+000	9	...........
	105	1.41333	8.67149E-001	9.11304E-005	0.00000E+000	7.90236E-005	5.39641E-002	8.67258E-001	3.57120E+000	9	...........
	106	1.42667	8.69286E-001	9.09949E-005	0.00000E+000	7.91007E-005	5.39641E-002	8.69417E-001	3.57120E+000	9	...........
	107	1.44	8.71444E-001	9.11127E-005	0.00000E+000	7.93995E-005	5.39641E-002	8.71544E-001	3.57120E+000	9	...........
	108	1.45333	8.73514E-001	9.09835E-005	0.00000E+000	7.94754E-005	5.39641E-002	8.73642E-001	3.57120E+000	9	...........
	109	1.46667	8.75571E-001	9.13398E-005	0.00000E+000	7.99745E-005	5.39641E-002	8.75721E-001	3.57120E+000	9	...........
	110	1.48	8.77612E-001	9.11752E-005	0.00000E+000	8.00164E-005	5.39641E-002	8.77761E-001	3.57120E+000	9	...........
	111	1.49333	8.79644E-001	9.11689E-005	0.00000E+000	8.01962E-005	5.39641E-002	8.79772E-001	3.57120E+000	9	...........
	112	1.50667	8.81675E-001	9.13825E-005	0.00000E+000	8.05697E-005	5.39641E-002	8.81812E-001	3.57120E+000	9	...........
	113	1.52	8.83686E-001	9.11460E-005	0.00000E+000	8.05444E-005	5.39641E-002	8.83808E-001	3.57120E+000	9	...........
	114	1.53333	8.85653E-001	9.11741E-005	0.00000E+000	8.07486E-005	5.39641E-002	8.85782E-001	3.57120E+000	9	...........
	115	1.54667	8.87602E-001	9.10543E-005	0.00000E+000	8.08200E-005	5.39641E-002	8.87727E-001	3.57120E+000	9	...........
	116	1.56	8.89561E-001	9.12314E-005	0.00000E+000	8.11560E-005	5.39641E-002	8.89657E-001	3.57120E+000	9	...........
	117	1.57333	8.91460E-001	9.12095E-005	0.00000E+000	8.13096E-005	5.39641E-002	8.91586E-001	3.57120E+000	9	...........
	118	1.58667	8.93378E-001	9.12189E-005	0.00000E+000	8.14930E-005	5.39641E-002	8.93497E-001	3.57120E+000	9	...........
	119	1.6	8.95266E-001	9.08824E-005	0.00000E+000	8.13639E-005	5.39641E-002	8.95418E-001	3.57120E+000	9	...........
	120	1.61333	8.97142E-001	9.10970E-005	0.00000E+000	8.17269E-005	5.39641E-002	8.97313E-001	3.57120E+000	9	...........
	121	1.62667	8.99011E-001	9.14877E-005	0.00000E+000	8.22485E-005	5.39641E-002	8.99150E-001	3.57120E+000	9	...........
	122	1.64	9.00848E-001	9.12939E-005	0.00000E+000	8.22420E-005	5.39641E-002	9.01008E-001	3.57120E+000	9	...........
	123	1.65333	9.02684E-001	9.11502E-005	0.00000E+000	8.22798E-005	5.39641E-002	9.02857E-001	3.57120E+000	9	...........
	124	1.66667	9.04494E-001	9.12471E-005	0.00000E+000	8.25325E-005	5.39641E-002	9.04667E-001	3.57120E+000	9	...........
	125	1.68	9.06260E-001	9.11543E-005	0.00000E+000	8.26095E-005	5.39641E-002	9.06427E-001	3.57120E+000	9	...........
	126	1.69333	9.08065E-001	9.12814E-005	0.00000E+000	8.28894E-005	5.39641E-002	9.08217E-001	3.57120E+000	9	...........
	127	1.70667	9.09829E-001	9.10845E-005	0.00000E+000	8.28713E-005	5.39641E-002	9.09963E-001	3.57120E+000	9	...........
	128	1.72	9.11536E-001	9.11127E-005	0.00000E+000	8.30524E-005	5.39641E-002	9.11697E-001	3.57120E+000	9	...........
	129	1.73333	9.13241E-001	9.13210E-005	0.00000E+000	8.33982E-005	5.39641E-002	9.13429E-001	3.57120E+000	9	...........
	130	1.74667	9.14950E-001	9.12981E-005	0.00000E+000	8.35332E-005	5.39641E-002	9.15123E-001	3.57120E+000	9	...........
	131	1.76	9.16619E-001	9.10762E-005	0.00000E+000	8.34822E-005	5.39641E-002	9.16789E-001	3.57120E+000	9	...........
	132	1.77333	9.18281E-001	9.10897E-005	0.00000E+000	8.36460E-005	5.39641E-002	9.18454E-001	3.57120E+000	9	...........
	133	1.78667	9.19931E-001	9.13617E-005	0.00000E+000	8.40465E-005	5.39641E-002	9.20098E-001	3.57120E+000	9	...........
	134	1.8	9.21645E-001	9.11200E-005	0.00000E+000	8.39802E-005	5.39641E-002	9.21752E-001	3.57120E+000	9	...........
	135	1.81333	9.23279E-001	9.11356E-005	0.00000E+000	8.41436E-005	5.39641E-002	9.23374E-001	3.57120E+000	9	...........
	136	1.82667	9.24900E-001	9.10741E-005	0.00000E+000	8.42344E-005	5.39641E-002	9.24975E-001	3.57120E+000	9	...........
	137	1.84	9.26495E-001	9.12575E-005	0.00000E+000	8.45496E-005	5.39641E-002	9.26605E-001	3.57120E+000	9	...........
	138	1.85333	9.28067E-001	9.13971E-005	0.00000E+000	8.48226E-005	5.39641E-002	9.28193E-001	3.57120E+000	9	...........
	139	1.86667	9.29641E-001	9.11627E-005	0.00000E+000	8.47486E-005	5.39641E-002	9.29743E-001	3.57120E+000	9	...........
	140	1.88	9.31199E-001	9.13575E-005	0.00000E+000	8.50720E-005	5.39641E-002	9.31298E-001	3.57120E+000	9	...........
	141	1.89333	9.32721E-001	9.13148E-005	0.00000E+000	8.51712E-005	5.39641E-002	9.32833E-001	3.57120E+000	9	...........
	142	1.90667	9.34244E-001	9.11606E-005	0.00000E+000	8.51662E-005	5.39641E-002	9.34391E-001	3.57120E+000	9	...........
	143	1.92	9.35766E-001	9.11741E-005	0.00000E+000	8.53177E-005	5.39641E-002	9.35885E-001	3.57120E+000	9	...........
	144	1.93333	9.37263E-001	9.12148E-005	0.00000E+000	8.54922E-005	5.39641E-002	9.37373E-001	3.57120E+000	9	...........
	145	1.94667	9.38737E-001	9.10720E-005	0.00000E+000	8.54927E-005	5.39641E-002	9.38861E-001	3.57120E+000	9	...........
	146	1.96	9.40208E-001	9.11991E-005	0.00000E+000	8.57461E-005	5.39641E-002	9.40316E-001	3.57120E+000	9	...........
	147	1.97333	9.41652E-001	9.14148E-005	0.00000E+000	8.60809E-005	5.39641E-002	9.41745E-001	3.57120E+000	9	...........
	148	1.98667	9.43084E-001	9.13377E-005	0.00000E+000	8.61391E-005	5.39641E-002	9.43198E-001	3.57119E+000	9	...........
	149	2	9.44498E-001	9.09126E-005	0.00000E+000	8.58668E-005	5.39641E-002	9.44644E-001	3.57110E+000	9	...........
	150	2.01333	9.45960E-001	9.12273E-005	0.00000E+000	8.62973E-005	5.39641E-002	9.46095E-001	3.57110E+000	9	...........
	151	2.02667	9.47424E-001	9.14857E-005	0.00000E+000	8.66757E-005	5.39641E-002	9.47541E-001	3.57110E+000	9	...........
	152	2.04	9.48803E-001	9.12450E-005	0.00000E+000	8.65735E-005	5.39641E-002	9.48939E-001	3.57110E+000	9	...........
	153	2.05333	9.50200E-001	9.12168E-005	0.00000E+000	8.66743E-005	5.39641E-002	9.50320E-001	3.57110E+000	9	...........
	154	2.06667	9.51549E-001	9.10970E-005	0.00000E+000	8.66833E-005	5.39641E-002	9.51693E-001	3.57110E+000	9	...........
	155	2.08	9.52919E-001	9.13085E-005	0.00000E+000	8.70096E-005	5.39641E-002	9.53045E-001	3.57110E+000	9	...........
	156	2.09333	9.54279E-001	9.11658E-005	0.00000E+000	8.69976E-005	5.39641E-002	9.54405E-001	3.57110E+000	9	...........
	157	2.10667	9.55611E-001	9.10658E-005	0.00000E+000	8.70234E-005	5.39641E-002	9.55763E-001	3.57110E+000	9	...........
	158	2.12	9.56928E-001	9.10720E-005	0.00000E+000	8.71493E-005	5.39641E-002	9.57068E-001	3.57110E+000	9	...........
	159	2.13333	9.58236E-001	9.12835E-005	0.00000E+000	8.74711E-005	5.39641E-002	9.58391E-001	3.57110E+000	9	...........
	160	2.14667	9.59544E-001	9.11783E-005	0.00000E+000	8.74895E-005	5.39641E-002	9.59715E-001	3.57110E+000	9	...........
	161	2.16	9.60840E-001	9.09668E-005	0.00000E+000	8.74046E-005	5.39641E-002	9.61010E-001	3.57110E+000	9	...........
	162	2.17333	9.62128E-001	9.10616E-005	0.00000E+000	8.76129E-005	5.39641E-002	9.62295E-001	3.57110E+000	9	...........
	163	2.18667	9.63395E-001	9.12075E-005	0.00000E+000	8.78688E-005	5.39641E-002	9.63553E-001	3.57110E+000	9	...........
	164	2.2	9.64667E-001	9.12762E-005	0.00000E+000	8.80511E-005	5.39641E-002	9.64811E-001	3.57110E+000	9	...........
	165	2.21333	9.65921E-001	9.10908E-005	0.00000E+000	8.79865E-005	5.39641E-002	9.66060E-001	3.57110E+000	9	...........
	166	2.22667	9.67145E-001	9.11595E-005	0.00000E+000	8.81645E-005	5.39641E-002	9.67283E-001	3.57110E+000	9	...........
	167	2.24	9.68357E-001	9.11241E-005	0.00000E+000	8.82407E-005	5.39641E-002	9.68511E-001	3.57110E+000	9	...........
	168	2.25333	9.69590E-001	9.12304E-005	0.00000E+000	8.84561E-005	5.39641E-002	9.69748E-001	3.57110E+000	9	...........
	169	2.26667	9.70774E-001	9.11241E-005	0.00000E+000	8.84609E-005	5.39641E-002	9.70971E-001	3.57110E+000	9	...........
	170	2.28	9.71992E-001	9.11168E-005	0.00000E+000	8.85648E-005	5.39641E-002	9.72190E-001	3.57110E+000	9	...........
	171	2.29333	9.73210E-001	9.10970E-005	0.00000E+000	8.86565E-005	5.39641E-002	9.73374E-001	3.57110E+000	9	...........
	172	2.30667	9.74373E-001	9.15680E-005	0.00000E+000	8.92213E-005	5.39641E-002	9.74538E-001	3.57110E+000	9	...........
	173	2.32	9.75543E-001	9.11022E-005	0.00000E+000	8.88742E-005	5.39641E-002	9.75690E-001	3.57110E+000	9	...........
	174	2.33333	9.76674E-001	9.11460E-005	0.00000E+000	8.90199E-005	5.39641E-002	9.76828E-001	3.57110E+000	9	...........
	175	2.34667	9.77835E-001	9.12189E-005	0.00000E+000	8.91971E-005	5.39641E-002	9.77973E-001	3.57110E+000	9	...........
	176	2.36	9.78968E-001	9.12127E-005	0.00000E+000	8.92943E-005	5.39641E-002	9.79087E-001	3.57110E+000	9	...........
	177	2.37333	9.80100E-001	9.11773E-005	0.00000E+000	8.93628E-005	5.39641E-002	9.80224E-001	3.57110E+000	9	...........
	178	2.38667	9.81228E-001	9.12366E-005	0.00000E+000	8.95239E-005	5.39641E-002	9.81346E-001	3.57110E+000	9	...........
	179	2.4	9.82316E-001	9.11741E-005	0.00000E+000	8.95618E-005	5.39641E-002	9.82445E-001	3.57110E+000	9	...........
	180	2.41333	9.83426E-001	9.13096E-005	0.00000E+000	8.97962E-005	5.39641E-002	9.83580E-001	3.57110E+000	9	...........
	181	2.42667	9.84514E-001	9.14940E-005	0.00000E+000	9.00771E-005	5.39641E-002	9.84665E-001	3.57110E+000	9	...........
	182	2.44	9.85593E-001	9.12502E-005	0.00000E+000	8.99356E-005	5.39641E-002	9.85741E-001	3.57110E+000	9	...........
	183	2.45333	9.86641E-001	9.11366E-005	0.00000E+000	8.99191E-005	5.39641E-002	9.86814E-001	3.57110E+000	9	...........
	184	2.46667	9.87713E-001	9.12825E-005	0.00000E+000	9.01609E-005	5.39641E-002	9.87897E-001	3.57110E+000	9	...........
	185	2.48	9.88776E-001	9.12210E-005	0.00000E+000	9.01971E-005	5.39641E-002	9.88936E-001	3.57110E+000	9	...........
	186	2.49333	9.89831E-001	9.13033E-005	0.00000E+000	9.03749E-005	5.39641E-002	9.89987E-001	3.57110E+000	9	...........
	187	2.50667	9.90859E-001	9.12981E-005	0.00000E+000	9.04635E-005	5.39641E-002	9.91019E-001	3.57110E+000	9	...........
	188	2.52	9.91873E-001	9.11793E-005	0.00000E+000	9.04383E-005	5.39641E-002	9.92036E-001	3.57110E+000	9	...........
	189	2.53333	9.92911E-001	9.13273E-005	0.00000E+000	9.06799E-005	5.39641E-002	9.93080E-001	3.57110E+000	9	...........
	190	2.54667	9.93914E-001	9.14242E-005	0.00000E+000	9.08678E-005	5.39641E-002	9.94097E-001	3.57110E+000	9	...........
	191	2.56	9.94948E-001	9.12804E-005	0.00000E+000	9.08192E-005	5.39641E-002	9.95104E-001	3.57110E+000	9	...........
	192	2.57333	9.95930E-001	9.14554E-005	0.00000E+000	9.10832E-005	5.39641E-002	9.96125E-001	3.57110E+000	9	...........
	193	2.58667	9.96957E-001	9.12502E-005	0.00000E+000	9.09725E-005	5.39641E-002	9.97140E-001	3.57110E+000	9	...........
	194	2.6	9.97953E-001	9.13221E-005	0.00000E+000	9.11351E-005	5.39641E-002	9.98152E-001	3.57110E+000	9	...........
	195	2.61333	9.98934E-001	9.12554E-005	0.00000E+000	9.11582E-005	5.39641E-002	9.99126E-001	3.57110E+000	9	...........
	196	2.62333	9.99779E-001	9.11807E-005	0.00000E+000	9.11606E-005	5.39641E-002	9.99976E-001	3.57110E+000	9	...........
STARTTIMEOFFSET	QUANT	232.4117	Start Time Offset (s)
