EXPLAIN
TAG	PWR800_CHARGE
TITLE	LABEL	PWR Cyclic Charge Discharge (Cell) - Charge Step	Test &Identifier
DATE	LABEL	10-7-2017	Date
TIME	LABEL	15:35:09	Time
NOTES	NOTES	3	&Notes...
	supercap test cell
	0.9mg
	6M KOH
PSTAT	PSTAT	IFC5000-01520	Potentiostat
CAPACITY	QUANT	1.00000E-003	Capacity (A-hr)
CELLTYPE	SELECTOR	1	&Cell Type
WORKINGCONNECTION	SELECTOR	0	&Working Lead
MAXCHARGETIME	VARIABLEANDUNITS	1.00000E+002	s	1.00000E+002	second(s)	Max &Charge Time
CHARGECURRENT	QUANT	9.00000E-005	&Charge Current (A) 
VOLTAGEFINISH	TWOPARAM	F	1.00000E-003	3.60000E+003	&Voltage Finish	 I (A) < 	Max Time(s)
SAMPLETIME	QUANT	1.00000E-002	Sa&mple Period (s)
CHARGESTOPAT1	MULTIPARAM	4	1.00000E+000	Charge Stop At &1	Voltage > Limit	V
CHARGESTOPAT2	MULTIPARAM	0	0.00000E+000	Charge Stop At &2	None	N/A
AESBHCSELECTOR	TOGGLE	F	Save Both Half Cells
IRCOMP	TOGGLE	F	IR &Measure
EOC	QUANT	0	Open Circuit (V)
SEQUENCER	TOGGLE	TRUE	Run as Sequence
PSTATMODEL	IQUANT	53	Pstat Model
PSTATSECTION	LABEL	IFC5000-01520	Pstat Section
PSTATSERIALNO	LABEL	01520	Pstat Serial Number
CTRLMODE	IQUANT	0	Control Mode
ELECTROMETER	IQUANT	1	RE=0 or CS=1
IESTAB	IQUANT	0	I/E Stability
CASPEED	IQUANT	4	Control Amp Speed
CONVENTION	IQUANT	1	Current Convention
ICHRANGE	IQUANT	2	Ich Range
ICHRANGEMODE	TOGGLE	T	Ich Auto Range
ICHOFFSETENABLE	TOGGLE	F	Ich Offset Enable
ICHOFFSET	QUANT	0	Ich Offset (V)
ICHFILTER	IQUANT	1	Ich Filter
VCHRANGE	IQUANT	2	Vch Range
VCHRANGEMODE	TOGGLE	T	Vch Auto Range
VCHOFFSETENABLE	TOGGLE	F	Vch Offset Enable
VCHOFFSET	QUANT	0	Vch Offset (V)
VCHFILTER	IQUANT	1	Vch Filter
IERANGELOWERLIMIT	IQUANT	9	I/E Range Lower Limit
IERANGEMODE	TOGGLE	F	I/E AutoRange
IERANGE	IQUANT	9	I/E Range
ACHSELECT	IQUANT	1	Ach Select
ACHRANGE	IQUANT	2	Ach Range
ACHOFFSETENABLE	TOGGLE	F	Ach Offset Enable
ACHOFFSET	QUANT	0	Ach Offset (V)
ACHFILTER	IQUANT	1	Ach Filter
CABLEID	IQUANT	14	Cable ID
DCCALDATE	LABEL	5-7-2017	DC Calibration Date
ACCALDATE	LABEL	12/3/2015	AC Calibration Date
FRAMEWORKVERSION	QUANT	7.01	Framework Version
INSTRUMENTVERSION	LABEL	4.00	Instrument Version
CURVE	TABLE	171
	Pt	T	Vf	Im	Vu	Pwr	Sig	Ach	Temp	IERange	Over
	#	s	V	A	V	W	V	V	deg C	#	bits
	0	0.013333	2.78470E-001	9.09574E-005	0.00000E+000	2.53289E-005	5.39641E-002	2.78509E-001	3.57360E+000	9	...........
	1	0.026667	2.98003E-001	9.10553E-005	0.00000E+000	2.71347E-005	5.39641E-002	2.98040E-001	3.57360E+000	9	...........
	2	0.04	3.16174E-001	9.10324E-005	0.00000E+000	2.87821E-005	5.39641E-002	3.16214E-001	3.57360E+000	9	...........
	3	0.053333	3.33210E-001	9.07417E-005	0.00000E+000	3.02361E-005	5.39641E-002	3.33247E-001	3.57360E+000	9	...........
	4	0.066667	3.49256E-001	9.11127E-005	0.00000E+000	3.18216E-005	5.39641E-002	3.49295E-001	3.57360E+000	9	...........
	5	0.08	3.64416E-001	9.08709E-005	0.00000E+000	3.31149E-005	5.39641E-002	3.64459E-001	3.57360E+000	9	...........
	6	0.093333	3.78790E-001	9.10731E-005	0.00000E+000	3.44976E-005	5.39641E-002	3.78833E-001	3.57360E+000	9	...........
	7	0.106667	3.92464E-001	9.07886E-005	0.00000E+000	3.56312E-005	5.39641E-002	3.92512E-001	3.57360E+000	9	...........
	8	0.12	4.05518E-001	9.11012E-005	0.00000E+000	3.69431E-005	5.39641E-002	4.05569E-001	3.57360E+000	9	...........
	9	0.133333	4.17986E-001	9.10147E-005	0.00000E+000	3.80429E-005	5.39641E-002	4.18046E-001	3.57360E+000	9	...........
	10	0.146667	4.29944E-001	9.10668E-005	0.00000E+000	3.91536E-005	5.39641E-002	4.30002E-001	3.57360E+000	9	...........
	11	0.16	4.41407E-001	9.09949E-005	0.00000E+000	4.01658E-005	5.39641E-002	4.41471E-001	3.57360E+000	9	...........
	12	0.173333	4.52440E-001	9.09126E-005	0.00000E+000	4.11325E-005	5.39641E-002	4.52500E-001	3.57360E+000	9	...........
	13	0.186667	4.63067E-001	9.08449E-005	0.00000E+000	4.20673E-005	5.39641E-002	4.63134E-001	3.57360E+000	9	...........
	14	0.2	4.73322E-001	9.10168E-005	0.00000E+000	4.30803E-005	5.39641E-002	4.73381E-001	3.57360E+000	9	...........
	15	0.213333	4.83218E-001	9.08959E-005	0.00000E+000	4.39226E-005	5.39641E-002	4.83284E-001	3.57360E+000	9	...........
	16	0.226667	4.92781E-001	9.12554E-005	0.00000E+000	4.49689E-005	5.39641E-002	4.92850E-001	3.57360E+000	9	...........
	17	0.24	5.02039E-001	9.10137E-005	0.00000E+000	4.56924E-005	5.39641E-002	5.02113E-001	3.57360E+000	9	...........
	18	0.253333	5.11015E-001	9.11793E-005	0.00000E+000	4.65940E-005	5.39641E-002	5.11091E-001	3.57360E+000	9	...........
	19	0.266667	5.19720E-001	9.08178E-005	0.00000E+000	4.71999E-005	5.39641E-002	5.19787E-001	3.57360E+000	9	...........
	20	0.28	5.28163E-001	9.13481E-005	0.00000E+000	4.82467E-005	5.39641E-002	5.28232E-001	3.57360E+000	9	...........
	21	0.293333	5.36266E-001	9.11314E-005	0.00000E+000	4.88706E-005	5.39641E-002	5.36361E-001	3.57360E+000	9	...........
	22	0.306667	5.44255E-001	9.09845E-005	0.00000E+000	4.95188E-005	5.39641E-002	5.44362E-001	3.57360E+000	9	...........
	23	0.32	5.52007E-001	9.10147E-005	0.00000E+000	5.02407E-005	5.39641E-002	5.52116E-001	3.57360E+000	9	...........
	24	0.333333	5.59541E-001	9.11033E-005	0.00000E+000	5.09760E-005	5.39641E-002	5.59684E-001	3.57360E+000	9	...........
	25	0.346667	5.66970E-001	9.07980E-005	0.00000E+000	5.14797E-005	5.39641E-002	5.67081E-001	3.57360E+000	9	...........
	26	0.36	5.74167E-001	9.09658E-005	0.00000E+000	5.22296E-005	5.39641E-002	5.74241E-001	3.57360E+000	9	...........
	27	0.373333	5.81165E-001	9.09783E-005	0.00000E+000	5.28734E-005	5.39641E-002	5.81300E-001	3.57360E+000	9	...........
	28	0.386667	5.88015E-001	9.11179E-005	0.00000E+000	5.35787E-005	5.39641E-002	5.88146E-001	3.57360E+000	9	...........
	29	0.4	5.94679E-001	9.09116E-005	0.00000E+000	5.40632E-005	5.39641E-002	5.94823E-001	3.57360E+000	9	...........
	30	0.413333	6.01206E-001	9.10595E-005	0.00000E+000	5.47455E-005	5.39641E-002	6.01353E-001	3.57360E+000	9	...........
	31	0.426667	6.07562E-001	9.11387E-005	0.00000E+000	5.53724E-005	5.39641E-002	6.07741E-001	3.57360E+000	9	...........
	32	0.44	6.13848E-001	9.08407E-005	0.00000E+000	5.57624E-005	5.39641E-002	6.14002E-001	3.57360E+000	9	...........
	33	0.453333	6.20009E-001	9.09595E-005	0.00000E+000	5.63957E-005	5.39641E-002	6.20112E-001	3.57360E+000	9	...........
	34	0.466667	6.25990E-001	9.10908E-005	0.00000E+000	5.70219E-005	5.39641E-002	6.26113E-001	3.57360E+000	9	...........
	35	0.48	6.31841E-001	9.11033E-005	0.00000E+000	5.75628E-005	5.39641E-002	6.31976E-001	3.57360E+000	9	...........
	36	0.493333	6.37626E-001	9.11189E-005	0.00000E+000	5.80998E-005	5.39641E-002	6.37754E-001	3.57360E+000	9	...........
	37	0.506667	6.43287E-001	9.10939E-005	0.00000E+000	5.85995E-005	5.39641E-002	6.43411E-001	3.57360E+000	9	...........
	38	0.52	6.48800E-001	9.08220E-005	0.00000E+000	5.89253E-005	5.39641E-002	6.48929E-001	3.57360E+000	9	...........
	39	0.533333	6.54248E-001	9.13304E-005	0.00000E+000	5.97528E-005	5.39641E-002	6.54362E-001	3.57360E+000	9	...........
	40	0.546667	6.59565E-001	9.09022E-005	0.00000E+000	5.99559E-005	5.39641E-002	6.59669E-001	3.57360E+000	9	...........
	41	0.56	6.64821E-001	9.10939E-005	0.00000E+000	6.05611E-005	5.39641E-002	6.64932E-001	3.57360E+000	9	...........
	42	0.573333	6.69983E-001	9.08824E-005	0.00000E+000	6.08896E-005	5.39641E-002	6.70078E-001	3.57360E+000	9	...........
	43	0.586667	6.75035E-001	9.07407E-005	0.00000E+000	6.12531E-005	5.39641E-002	6.75140E-001	3.57360E+000	9	...........
	44	0.6	6.79994E-001	9.13940E-005	0.00000E+000	6.21473E-005	5.39641E-002	6.80115E-001	3.57360E+000	9	...........
	45	0.613333	6.84847E-001	9.08199E-005	0.00000E+000	6.21977E-005	5.39641E-002	6.84964E-001	3.57360E+000	9	...........
	46	0.626667	6.89654E-001	9.08376E-005	0.00000E+000	6.26465E-005	5.39641E-002	6.89789E-001	3.57360E+000	9	...........
	47	0.64	6.94367E-001	9.11231E-005	0.00000E+000	6.32728E-005	5.39641E-002	6.94518E-001	3.57360E+000	9	...........
	48	0.653333	6.99026E-001	9.11095E-005	0.00000E+000	6.36879E-005	5.39641E-002	6.99168E-001	3.57360E+000	9	...........
	49	0.666667	7.03613E-001	9.12304E-005	0.00000E+000	6.41909E-005	5.39641E-002	7.03744E-001	3.57360E+000	9	...........
	50	0.68	7.08127E-001	9.10241E-005	0.00000E+000	6.44566E-005	5.39641E-002	7.08259E-001	3.57360E+000	9	...........
	51	0.693333	7.12551E-001	9.09918E-005	0.00000E+000	6.48363E-005	5.39641E-002	7.12688E-001	3.57360E+000	9	...........
	52	0.706667	7.16948E-001	9.13065E-005	0.00000E+000	6.54620E-005	5.39641E-002	7.17098E-001	3.57360E+000	9	...........
	53	0.72	7.21267E-001	9.08491E-005	0.00000E+000	6.55264E-005	5.39641E-002	7.21370E-001	3.57360E+000	9	...........
	54	0.733333	7.25495E-001	9.10210E-005	0.00000E+000	6.60352E-005	5.39641E-002	7.25601E-001	3.57360E+000	9	...........
	55	0.746667	7.29676E-001	9.10324E-005	0.00000E+000	6.64242E-005	5.39641E-002	7.29789E-001	3.57360E+000	9	...........
	56	0.76	7.33788E-001	9.10543E-005	0.00000E+000	6.68145E-005	5.39641E-002	7.33926E-001	3.57360E+000	9	...........
	57	0.773333	7.37864E-001	9.10783E-005	0.00000E+000	6.72034E-005	5.39641E-002	7.37970E-001	3.57360E+000	9	...........
	58	0.786667	7.41891E-001	9.11252E-005	0.00000E+000	6.76049E-005	5.39641E-002	7.42010E-001	3.57360E+000	9	...........
	59	0.8	7.45876E-001	9.11022E-005	0.00000E+000	6.79510E-005	5.39641E-002	7.45991E-001	3.57360E+000	9	...........
	60	0.813333	7.49801E-001	9.09314E-005	0.00000E+000	6.81804E-005	5.39641E-002	7.49916E-001	3.57360E+000	9	...........
	61	0.826667	7.53652E-001	9.09689E-005	0.00000E+000	6.85589E-005	5.39641E-002	7.53784E-001	3.57360E+000	9	...........
	62	0.84	7.57464E-001	9.13085E-005	0.00000E+000	6.91629E-005	5.39641E-002	7.57600E-001	3.57360E+000	9	...........
	63	0.853333	7.61233E-001	9.11147E-005	0.00000E+000	6.93595E-005	5.39641E-002	7.61341E-001	3.57360E+000	9	...........
	64	0.866667	7.64925E-001	9.10366E-005	0.00000E+000	6.96362E-005	5.39641E-002	7.65069E-001	3.57363E+000	9	...........
	65	0.88	7.68610E-001	9.10283E-005	0.00000E+000	6.99653E-005	5.39641E-002	7.68757E-001	3.57380E+000	9	...........
	66	0.893333	7.72214E-001	9.11272E-005	0.00000E+000	7.03698E-005	5.39641E-002	7.72369E-001	3.57380E+000	9	...........
	67	0.906667	7.75797E-001	9.10189E-005	0.00000E+000	7.06122E-005	5.39641E-002	7.75950E-001	3.57380E+000	9	...........
	68	0.92	7.79332E-001	9.08772E-005	0.00000E+000	7.08235E-005	5.39641E-002	7.79484E-001	3.57380E+000	9	...........
	69	0.933333	7.82818E-001	9.13127E-005	0.00000E+000	7.14812E-005	5.39641E-002	7.82979E-001	3.57380E+000	9	...........
	70	0.946667	7.86266E-001	9.11991E-005	0.00000E+000	7.17068E-005	5.39641E-002	7.86431E-001	3.57380E+000	9	...........
	71	0.96	7.89680E-001	9.11668E-005	0.00000E+000	7.19926E-005	5.39641E-002	7.89830E-001	3.57380E+000	9	...........
	72	0.97333	7.93057E-001	9.11606E-005	0.00000E+000	7.22955E-005	5.39641E-002	7.93216E-001	3.57380E+000	9	...........
	73	0.98667	7.96405E-001	9.10074E-005	0.00000E+000	7.24787E-005	5.39641E-002	7.96542E-001	3.57380E+000	9	...........
	74	1	7.99684E-001	9.10762E-005	0.00000E+000	7.28322E-005	5.39641E-002	7.99822E-001	3.57380E+000	9	...........
	75	1.01333	8.02957E-001	9.11272E-005	0.00000E+000	7.31712E-005	5.39641E-002	8.03105E-001	3.57380E+000	9	...........
	76	1.02667	8.06197E-001	9.08959E-005	0.00000E+000	7.32800E-005	5.39641E-002	8.06353E-001	3.57380E+000	9	...........
	77	1.04	8.09411E-001	9.09793E-005	0.00000E+000	7.36396E-005	5.39641E-002	8.09515E-001	3.57380E+000	9	...........
	78	1.05333	8.12587E-001	9.10491E-005	0.00000E+000	7.39853E-005	5.39641E-002	8.12698E-001	3.57380E+000	9	...........
	79	1.06667	8.15719E-001	9.09751E-005	0.00000E+000	7.42101E-005	5.39641E-002	8.15860E-001	3.57380E+000	9	...........
	80	1.08	8.18848E-001	9.13304E-005	0.00000E+000	7.47857E-005	5.39641E-002	8.18956E-001	3.57380E+000	9	...........
	81	1.09333	8.21923E-001	9.08324E-005	0.00000E+000	7.46572E-005	5.39641E-002	8.22031E-001	3.57380E+000	9	...........
	82	1.10667	8.24953E-001	9.09564E-005	0.00000E+000	7.50347E-005	5.39641E-002	8.25058E-001	3.57380E+000	9	...........
	83	1.12	8.27950E-001	9.10251E-005	0.00000E+000	7.53643E-005	5.39641E-002	8.28045E-001	3.57380E+000	9	...........
	84	1.13333	8.30931E-001	9.09616E-005	0.00000E+000	7.55828E-005	5.39641E-002	8.31040E-001	3.57380E+000	9	...........
	85	1.14667	8.33866E-001	9.07855E-005	0.00000E+000	7.57029E-005	5.39641E-002	8.34022E-001	3.57380E+000	9	...........
	86	1.16	8.36782E-001	9.09793E-005	0.00000E+000	7.61298E-005	5.39641E-002	8.36943E-001	3.57380E+000	9	...........
	87	1.17333	8.39638E-001	9.09460E-005	0.00000E+000	7.63617E-005	5.39641E-002	8.39828E-001	3.57380E+000	9	...........
	88	1.18667	8.42510E-001	9.12314E-005	0.00000E+000	7.68634E-005	5.39641E-002	8.42685E-001	3.57380E+000	9	...........
	89	1.2	8.45386E-001	9.12137E-005	0.00000E+000	7.71108E-005	5.39641E-002	8.45558E-001	3.57380E+000	9	...........
	90	1.21333	8.48176E-001	9.10616E-005	0.00000E+000	7.72363E-005	5.39641E-002	8.48361E-001	3.57380E+000	9	...........
	91	1.22667	8.50942E-001	9.10720E-005	0.00000E+000	7.74970E-005	5.39641E-002	8.51099E-001	3.57380E+000	9	...........
	92	1.24	8.53641E-001	9.10877E-005	0.00000E+000	7.77561E-005	5.39641E-002	8.53824E-001	3.57380E+000	9	...........
	93	1.25333	8.56360E-001	9.11137E-005	0.00000E+000	7.80262E-005	5.39641E-002	8.56543E-001	3.57380E+000	9	...........
	94	1.26667	8.59045E-001	9.12762E-005	0.00000E+000	7.84104E-005	5.39641E-002	8.59227E-001	3.57380E+000	9	...........
	95	1.28	8.61704E-001	9.11200E-005	0.00000E+000	7.85184E-005	5.39641E-002	8.61886E-001	3.57380E+000	9	...........
	96	1.29333	8.64310E-001	9.11200E-005	0.00000E+000	7.87559E-005	5.39641E-002	8.64501E-001	3.57380E+000	9	...........
	97	1.30667	8.66931E-001	9.09032E-005	0.00000E+000	7.88068E-005	5.39641E-002	8.67071E-001	3.57380E+000	9	...........
	98	1.32	8.69485E-001	9.11241E-005	0.00000E+000	7.92311E-005	5.39641E-002	8.69633E-001	3.57380E+000	9	...........
	99	1.33333	8.72030E-001	9.10043E-005	0.00000E+000	7.93585E-005	5.39641E-002	8.72182E-001	3.57380E+000	9	...........
	100	1.34667	8.74516E-001	9.11189E-005	0.00000E+000	7.96849E-005	5.39641E-002	8.74674E-001	3.57380E+000	9	...........
	101	1.36	8.76974E-001	9.10689E-005	0.00000E+000	7.98651E-005	5.39641E-002	8.77164E-001	3.57380E+000	9	...........
	102	1.37333	8.79418E-001	9.11033E-005	0.00000E+000	8.01178E-005	5.39641E-002	8.79594E-001	3.57380E+000	9	...........
	103	1.38667	8.81850E-001	9.12877E-005	0.00000E+000	8.05020E-005	5.39641E-002	8.82046E-001	3.57380E+000	9	...........
	104	1.4	8.84296E-001	9.10491E-005	0.00000E+000	8.05143E-005	5.39641E-002	8.84472E-001	3.57380E+000	9	...........
	105	1.41333	8.86668E-001	9.11231E-005	0.00000E+000	8.07959E-005	5.39641E-002	8.86877E-001	3.57380E+000	9	...........
	106	1.42667	8.89027E-001	9.13221E-005	0.00000E+000	8.11878E-005	5.39641E-002	8.89230E-001	3.57380E+000	9	...........
	107	1.44	8.91372E-001	9.09887E-005	0.00000E+000	8.11048E-005	5.39641E-002	8.91592E-001	3.57380E+000	9	...........
	108	1.45333	8.93698E-001	9.11835E-005	0.00000E+000	8.14905E-005	5.39641E-002	8.93913E-001	3.57380E+000	9	...........
	109	1.46667	8.95993E-001	9.11689E-005	0.00000E+000	8.16867E-005	5.39641E-002	8.96249E-001	3.57380E+000	9	...........
	110	1.48	8.98287E-001	9.11220E-005	0.00000E+000	8.18538E-005	5.39641E-002	8.98509E-001	3.57380E+000	9	...........
	111	1.49333	9.00524E-001	9.10137E-005	0.00000E+000	8.19600E-005	5.39641E-002	9.00747E-001	3.57380E+000	9	...........
	112	1.50667	9.02765E-001	9.11158E-005	0.00000E+000	8.22561E-005	5.39641E-002	9.02998E-001	3.57380E+000	9	...........
	113	1.52	9.04978E-001	9.06761E-005	0.00000E+000	8.20599E-005	5.39641E-002	9.05212E-001	3.57380E+000	9	...........
	114	1.53333	9.07159E-001	9.10126E-005	0.00000E+000	8.25629E-005	5.39641E-002	9.07378E-001	3.57380E+000	9	...........
	115	1.54667	9.09333E-001	9.09710E-005	0.00000E+000	8.27229E-005	5.39641E-002	9.09505E-001	3.57380E+000	9	...........
	116	1.56	9.11481E-001	9.12689E-005	0.00000E+000	8.31899E-005	5.39641E-002	9.11628E-001	3.57380E+000	9	...........
	117	1.57333	9.13588E-001	9.09866E-005	0.00000E+000	8.31242E-005	5.39641E-002	9.13760E-001	3.57380E+000	9	...........
	118	1.58667	9.15667E-001	9.10710E-005	0.00000E+000	8.33907E-005	5.39641E-002	9.15859E-001	3.57380E+000	9	...........
	119	1.6	9.17728E-001	9.08324E-005	0.00000E+000	8.33594E-005	5.39641E-002	9.17929E-001	3.57380E+000	9	...........
	120	1.61333	9.19774E-001	9.11335E-005	0.00000E+000	8.38222E-005	5.39641E-002	9.19975E-001	3.57380E+000	9	...........
	121	1.62667	9.21882E-001	9.11199E-005	0.00000E+000	8.40019E-005	5.39641E-002	9.22033E-001	3.57380E+000	9	...........
	122	1.64	9.23868E-001	9.11585E-005	0.00000E+000	8.42184E-005	5.39641E-002	9.24043E-001	3.57380E+000	9	...........
	123	1.65333	9.25867E-001	9.11866E-005	0.00000E+000	8.44267E-005	5.39641E-002	9.26003E-001	3.57380E+000	9	...........
	124	1.66667	9.27833E-001	9.09814E-005	0.00000E+000	8.44155E-005	5.39641E-002	9.27994E-001	3.57380E+000	9	...........
	125	1.68	9.29785E-001	9.09126E-005	0.00000E+000	8.45292E-005	5.39641E-002	9.29945E-001	3.57380E+000	9	...........
	126	1.69333	9.31705E-001	9.12585E-005	0.00000E+000	8.50260E-005	5.39641E-002	9.31868E-001	3.57380E+000	9	...........
	127	1.70667	9.33604E-001	9.09314E-005	0.00000E+000	8.48939E-005	5.39641E-002	9.33778E-001	3.57380E+000	9	...........
	128	1.72	9.35496E-001	9.09585E-005	0.00000E+000	8.50913E-005	5.39641E-002	9.35672E-001	3.57380E+000	9	...........
	129	1.73333	9.37369E-001	9.10835E-005	0.00000E+000	8.53788E-005	5.39641E-002	9.37560E-001	3.57380E+000	9	...........
	130	1.74667	9.39205E-001	9.10981E-005	0.00000E+000	8.55597E-005	5.39641E-002	9.39423E-001	3.57380E+000	9	...........
	131	1.76	9.41038E-001	9.09303E-005	0.00000E+000	8.55689E-005	5.39641E-002	9.41238E-001	3.57380E+000	9	...........
	132	1.77333	9.42851E-001	9.10668E-005	0.00000E+000	8.58624E-005	5.39641E-002	9.43044E-001	3.57380E+000	9	...........
	133	1.78667	9.44628E-001	9.09574E-005	0.00000E+000	8.59209E-005	5.39641E-002	9.44825E-001	3.57380E+000	9	...........
	134	1.8	9.46430E-001	9.10272E-005	0.00000E+000	8.61509E-005	5.39641E-002	9.46635E-001	3.57380E+000	9	...........
	135	1.81333	9.48231E-001	9.08209E-005	0.00000E+000	8.61192E-005	5.39641E-002	9.48434E-001	3.57380E+000	9	...........
	136	1.82667	9.49964E-001	9.10543E-005	0.00000E+000	8.64983E-005	5.39641E-002	9.50160E-001	3.57380E+000	9	...........
	137	1.84	9.51689E-001	9.10262E-005	0.00000E+000	8.66287E-005	5.39641E-002	9.51890E-001	3.57380E+000	9	...........
	138	1.85333	9.53405E-001	9.10366E-005	0.00000E+000	8.67948E-005	5.39641E-002	9.53590E-001	3.57380E+000	9	...........
	139	1.86667	9.55103E-001	9.11335E-005	0.00000E+000	8.70419E-005	5.39641E-002	9.55290E-001	3.57366E+000	9	...........
	140	1.88	9.56780E-001	9.09387E-005	0.00000E+000	8.70083E-005	5.39641E-002	9.56968E-001	3.57270E+000	9	...........
	141	1.89333	9.58416E-001	9.12095E-005	0.00000E+000	8.74167E-005	5.39641E-002	9.58634E-001	3.57270E+000	9	...........
	142	1.90667	9.60088E-001	9.10158E-005	0.00000E+000	8.73831E-005	5.39641E-002	9.60288E-001	3.57270E+000	9	...........
	143	1.92	9.61679E-001	9.08699E-005	0.00000E+000	8.73877E-005	5.39641E-002	9.61891E-001	3.57270E+000	9	...........
	144	1.93333	9.63290E-001	9.11293E-005	0.00000E+000	8.77840E-005	5.39641E-002	9.63511E-001	3.57270E+000	9	...........
	145	1.94667	9.64868E-001	9.12252E-005	0.00000E+000	8.80203E-005	5.39641E-002	9.65091E-001	3.57270E+000	9	...........
	146	1.96	9.66440E-001	9.11283E-005	0.00000E+000	8.80700E-005	5.39641E-002	9.66665E-001	3.57270E+000	9	...........
	147	1.97333	9.67993E-001	9.11783E-005	0.00000E+000	8.82599E-005	5.39641E-002	9.68201E-001	3.57270E+000	9	...........
	148	1.98667	9.69535E-001	9.10303E-005	0.00000E+000	8.82571E-005	5.39641E-002	9.69751E-001	3.57270E+000	9	...........
	149	2	9.71050E-001	9.06125E-005	0.00000E+000	8.79893E-005	5.39641E-002	9.71298E-001	3.57270E+000	9	...........
	150	2.01333	9.72606E-001	9.08720E-005	0.00000E+000	8.83826E-005	5.39641E-002	9.72848E-001	3.57270E+000	9	...........
	151	2.02667	9.74121E-001	9.09887E-005	0.00000E+000	8.86340E-005	5.39641E-002	9.74341E-001	3.57270E+000	9	...........
	152	2.04	9.75603E-001	9.11762E-005	0.00000E+000	8.89518E-005	5.39641E-002	9.75798E-001	3.57270E+000	9	...........
	153	2.05333	9.77068E-001	9.12168E-005	0.00000E+000	8.91250E-005	5.39641E-002	9.77241E-001	3.57270E+000	9	...........
	154	2.06667	9.78487E-001	9.10804E-005	0.00000E+000	8.91209E-005	5.39641E-002	9.78685E-001	3.57270E+000	9	...........
	155	2.08	9.79936E-001	9.09678E-005	0.00000E+000	8.91427E-005	5.39641E-002	9.80096E-001	3.57270E+000	9	...........
	156	2.09333	9.81332E-001	9.11408E-005	0.00000E+000	8.94393E-005	5.39641E-002	9.81529E-001	3.57270E+000	9	...........
	157	2.10667	9.82746E-001	9.09803E-005	0.00000E+000	8.94106E-005	5.39641E-002	9.82925E-001	3.57270E+000	9	...........
	158	2.12	9.84106E-001	9.10814E-005	0.00000E+000	8.96338E-005	5.39641E-002	9.84316E-001	3.57270E+000	9	...........
	159	2.13333	9.85482E-001	9.09460E-005	0.00000E+000	8.96256E-005	5.39641E-002	9.85694E-001	3.57270E+000	9	...........
	160	2.14667	9.86856E-001	9.11179E-005	0.00000E+000	8.99202E-005	5.39641E-002	9.87059E-001	3.57270E+000	9	...........
	161	2.16	9.88199E-001	9.09699E-005	0.00000E+000	8.98964E-005	5.39641E-002	9.88385E-001	3.57270E+000	9	...........
	162	2.17333	9.89553E-001	9.09251E-005	0.00000E+000	8.99753E-005	5.39641E-002	9.89701E-001	3.57270E+000	9	...........
	163	2.18667	9.90853E-001	9.09335E-005	0.00000E+000	9.01017E-005	5.39641E-002	9.91040E-001	3.57270E+000	9	...........
	164	2.2	9.92162E-001	9.10481E-005	0.00000E+000	9.03344E-005	5.39641E-002	9.92344E-001	3.57270E+000	9	...........
	165	2.21333	9.93480E-001	9.10158E-005	0.00000E+000	9.04223E-005	5.39641E-002	9.93674E-001	3.57270E+000	9	...........
	166	2.22667	9.94784E-001	9.11502E-005	0.00000E+000	9.06747E-005	5.39641E-002	9.94957E-001	3.57270E+000	9	...........
	167	2.24	9.96061E-001	9.10074E-005	0.00000E+000	9.06489E-005	5.39641E-002	9.96256E-001	3.57270E+000	9	...........
	168	2.25333	9.97309E-001	9.11575E-005	0.00000E+000	9.09121E-005	5.39641E-002	9.97544E-001	3.57270E+000	9	...........
	169	2.26667	9.98594E-001	9.10856E-005	0.00000E+000	9.09575E-005	5.39641E-002	9.98782E-001	3.57270E+000	9	...........
	170	2.27667	9.99646E-001	9.12307E-005	0.00000E+000	9.11984E-005	5.39641E-002	9.99866E-001	3.57270E+000	9	...........
STARTTIMEOFFSET	QUANT	1818.066	Start Time Offset (s)
