EXPLAIN
TAG	PWR800_CHARGE
TITLE	LABEL	PWR Cyclic Charge Discharge (Cell) - Charge Step	Test &Identifier
DATE	LABEL	10-7-2017	Date
TIME	LABEL	15:21:56	Time
NOTES	NOTES	3	&Notes...
	supercap test cell
	0.9mg
	6M KOH
PSTAT	PSTAT	IFC5000-01520	Potentiostat
CAPACITY	QUANT	1.00000E-003	Capacity (A-hr)
CELLTYPE	SELECTOR	1	&Cell Type
WORKINGCONNECTION	SELECTOR	0	&Working Lead
MAXCHARGETIME	VARIABLEANDUNITS	1.00000E+002	s	1.00000E+002	second(s)	Max &Charge Time
CHARGECURRENT	QUANT	9.00000E-005	&Charge Current (A) 
VOLTAGEFINISH	TWOPARAM	F	1.00000E-003	3.60000E+003	&Voltage Finish	 I (A) < 	Max Time(s)
SAMPLETIME	QUANT	1.00000E-002	Sa&mple Period (s)
CHARGESTOPAT1	MULTIPARAM	4	1.00000E+000	Charge Stop At &1	Voltage > Limit	V
CHARGESTOPAT2	MULTIPARAM	0	0.00000E+000	Charge Stop At &2	None	N/A
AESBHCSELECTOR	TOGGLE	F	Save Both Half Cells
IRCOMP	TOGGLE	F	IR &Measure
EOC	QUANT	0	Open Circuit (V)
SEQUENCER	TOGGLE	TRUE	Run as Sequence
PSTATMODEL	IQUANT	53	Pstat Model
PSTATSECTION	LABEL	IFC5000-01520	Pstat Section
PSTATSERIALNO	LABEL	01520	Pstat Serial Number
CTRLMODE	IQUANT	0	Control Mode
ELECTROMETER	IQUANT	1	RE=0 or CS=1
IESTAB	IQUANT	0	I/E Stability
CASPEED	IQUANT	4	Control Amp Speed
CONVENTION	IQUANT	1	Current Convention
ICHRANGE	IQUANT	2	Ich Range
ICHRANGEMODE	TOGGLE	T	Ich Auto Range
ICHOFFSETENABLE	TOGGLE	F	Ich Offset Enable
ICHOFFSET	QUANT	0	Ich Offset (V)
ICHFILTER	IQUANT	1	Ich Filter
VCHRANGE	IQUANT	2	Vch Range
VCHRANGEMODE	TOGGLE	T	Vch Auto Range
VCHOFFSETENABLE	TOGGLE	F	Vch Offset Enable
VCHOFFSET	QUANT	0	Vch Offset (V)
VCHFILTER	IQUANT	1	Vch Filter
IERANGELOWERLIMIT	IQUANT	9	I/E Range Lower Limit
IERANGEMODE	TOGGLE	F	I/E AutoRange
IERANGE	IQUANT	9	I/E Range
ACHSELECT	IQUANT	1	Ach Select
ACHRANGE	IQUANT	2	Ach Range
ACHOFFSETENABLE	TOGGLE	F	Ach Offset Enable
ACHOFFSET	QUANT	0	Ach Offset (V)
ACHFILTER	IQUANT	1	Ach Filter
CABLEID	IQUANT	14	Cable ID
DCCALDATE	LABEL	5-7-2017	DC Calibration Date
ACCALDATE	LABEL	12/3/2015	AC Calibration Date
FRAMEWORKVERSION	QUANT	7.01	Framework Version
INSTRUMENTVERSION	LABEL	4.00	Instrument Version
CURVE	TABLE	176
	Pt	T	Vf	Im	Vu	Pwr	Sig	Ach	Temp	IERange	Over
	#	s	V	A	V	W	V	V	deg C	#	bits
	0	0.013333	2.82466E-001	9.12137E-005	0.00000E+000	2.57648E-005	5.39641E-002	2.82512E-001	3.57270E+000	9	...........
	1	0.026667	3.01956E-001	9.11418E-005	0.00000E+000	2.75208E-005	5.39641E-002	3.01993E-001	3.57270E+000	9	...........
	2	0.04	3.20000E-001	9.09480E-005	0.00000E+000	2.91033E-005	5.39641E-002	3.20043E-001	3.57270E+000	9	...........
	3	0.053333	3.36851E-001	9.08480E-005	0.00000E+000	3.06022E-005	5.39641E-002	3.36889E-001	3.57270E+000	9	...........
	4	0.066667	3.52689E-001	9.11523E-005	0.00000E+000	3.21484E-005	5.39641E-002	3.52731E-001	3.57270E+000	9	...........
	5	0.08	3.67640E-001	9.08293E-005	0.00000E+000	3.33925E-005	5.39641E-002	3.67683E-001	3.57270E+000	9	...........
	6	0.093333	3.81812E-001	9.10606E-005	0.00000E+000	3.47680E-005	5.39641E-002	3.81855E-001	3.57270E+000	9	...........
	7	0.106667	3.95282E-001	9.11272E-005	0.00000E+000	3.60209E-005	5.39641E-002	3.95328E-001	3.57270E+000	9	...........
	8	0.12	4.08139E-001	9.10835E-005	0.00000E+000	3.71747E-005	5.39641E-002	4.08187E-001	3.57270E+000	9	...........
	9	0.133333	4.20435E-001	9.13929E-005	0.00000E+000	3.84248E-005	5.39641E-002	4.20492E-001	3.57270E+000	9	...........
	10	0.146667	4.32217E-001	9.07959E-005	0.00000E+000	3.92435E-005	5.39641E-002	4.32266E-001	3.57270E+000	9	...........
	11	0.16	4.43530E-001	9.10699E-005	0.00000E+000	4.03922E-005	5.39641E-002	4.43586E-001	3.57270E+000	9	...........
	12	0.173333	4.54418E-001	9.07397E-005	0.00000E+000	4.12338E-005	5.39641E-002	4.54471E-001	3.57270E+000	9	...........
	13	0.186667	4.64904E-001	9.12346E-005	0.00000E+000	4.24153E-005	5.39641E-002	4.64954E-001	3.57270E+000	9	...........
	14	0.2	4.75021E-001	9.09970E-005	0.00000E+000	4.32255E-005	5.39641E-002	4.75077E-001	3.57270E+000	9	...........
	15	0.213333	4.84801E-001	9.11741E-005	0.00000E+000	4.42013E-005	5.39641E-002	4.84865E-001	3.57270E+000	9	...........
	16	0.226667	4.94260E-001	9.10126E-005	0.00000E+000	4.49839E-005	5.39641E-002	4.94319E-001	3.57270E+000	9	...........
	17	0.24	5.03407E-001	9.09553E-005	0.00000E+000	4.57876E-005	5.39641E-002	5.03476E-001	3.57270E+000	9	...........
	18	0.253333	5.12270E-001	9.09824E-005	0.00000E+000	4.66076E-005	5.39641E-002	5.12335E-001	3.57270E+000	9	...........
	19	0.266667	5.20868E-001	9.08782E-005	0.00000E+000	4.73356E-005	5.39641E-002	5.20930E-001	3.57270E+000	9	...........
	20	0.28	5.29231E-001	9.12189E-005	0.00000E+000	4.82759E-005	5.39641E-002	5.29294E-001	3.57270E+000	9	...........
	21	0.293333	5.37271E-001	9.10324E-005	0.00000E+000	4.89091E-005	5.39641E-002	5.37371E-001	3.57270E+000	9	...........
	22	0.306667	5.45187E-001	9.13085E-005	0.00000E+000	4.97802E-005	5.39641E-002	5.45295E-001	3.57270E+000	9	...........
	23	0.32	5.52873E-001	9.09855E-005	0.00000E+000	5.03035E-005	5.39641E-002	5.52987E-001	3.57270E+000	9	...........
	24	0.333333	5.60367E-001	9.09272E-005	0.00000E+000	5.09526E-005	5.39641E-002	5.60484E-001	3.57270E+000	9	...........
	25	0.346667	5.67724E-001	9.10512E-005	0.00000E+000	5.16919E-005	5.39641E-002	5.67814E-001	3.57270E+000	9	...........
	26	0.36	5.74850E-001	9.07813E-005	0.00000E+000	5.21857E-005	5.39641E-002	5.74936E-001	3.57270E+000	9	...........
	27	0.373333	5.81789E-001	9.10970E-005	0.00000E+000	5.29992E-005	5.39641E-002	5.81907E-001	3.57270E+000	9	...........
	28	0.386667	5.88611E-001	9.09678E-005	0.00000E+000	5.35447E-005	5.39641E-002	5.88723E-001	3.57270E+000	9	...........
	29	0.4	5.95223E-001	9.12971E-005	0.00000E+000	5.43421E-005	5.39641E-002	5.95363E-001	3.57270E+000	9	...........
	30	0.413333	6.01716E-001	9.11241E-005	0.00000E+000	5.48309E-005	5.39641E-002	6.01855E-001	3.57270E+000	9	...........
	31	0.426667	6.08071E-001	9.11022E-005	0.00000E+000	5.53966E-005	5.39641E-002	6.08199E-001	3.57270E+000	9	...........
	32	0.44	6.14341E-001	9.11189E-005	0.00000E+000	5.59781E-005	5.39641E-002	6.14444E-001	3.57270E+000	9	...........
	33	0.453333	6.20446E-001	9.09189E-005	0.00000E+000	5.64102E-005	5.39641E-002	6.20537E-001	3.57270E+000	9	...........
	34	0.466667	6.26409E-001	9.10564E-005	0.00000E+000	5.70386E-005	5.39641E-002	6.26494E-001	3.57270E+000	9	...........
	35	0.48	6.32228E-001	9.10564E-005	0.00000E+000	5.75684E-005	5.39641E-002	6.32319E-001	3.57270E+000	9	...........
	36	0.493333	6.37947E-001	9.10064E-005	0.00000E+000	5.80573E-005	5.39641E-002	6.38043E-001	3.57270E+000	9	...........
	37	0.506667	6.43596E-001	9.09012E-005	0.00000E+000	5.85036E-005	5.39641E-002	6.43694E-001	3.57270E+000	9	...........
	38	0.52	6.49086E-001	9.10220E-005	0.00000E+000	5.90811E-005	5.39641E-002	6.49132E-001	3.57270E+000	9	...........
	39	0.533333	6.54481E-001	9.09928E-005	0.00000E+000	5.95531E-005	5.39641E-002	6.54553E-001	3.57270E+000	9	...........
	40	0.546667	6.59785E-001	9.09866E-005	0.00000E+000	6.00316E-005	5.39641E-002	6.59855E-001	3.57270E+000	9	...........
	41	0.56	6.64980E-001	9.12096E-005	0.00000E+000	6.06525E-005	5.39641E-002	6.65079E-001	3.57270E+000	9	...........
	42	0.573333	6.70124E-001	9.08814E-005	0.00000E+000	6.09018E-005	5.39641E-002	6.70190E-001	3.57270E+000	9	...........
	43	0.586667	6.75142E-001	9.10376E-005	0.00000E+000	6.14633E-005	5.39641E-002	6.75230E-001	3.57270E+000	9	...........
	44	0.6	6.80055E-001	9.11648E-005	0.00000E+000	6.19971E-005	5.39641E-002	6.80144E-001	3.57270E+000	9	...........
	45	0.613333	6.84888E-001	9.09564E-005	0.00000E+000	6.22950E-005	5.39641E-002	6.84964E-001	3.57270E+000	9	...........
	46	0.626667	6.89635E-001	9.11002E-005	0.00000E+000	6.28259E-005	5.39641E-002	6.89723E-001	3.57270E+000	9	...........
	47	0.64	6.94323E-001	9.10949E-005	0.00000E+000	6.32493E-005	5.39641E-002	6.94437E-001	3.57270E+000	9	...........
	48	0.653333	6.98945E-001	9.13565E-005	0.00000E+000	6.38531E-005	5.39641E-002	6.99049E-001	3.57270E+000	9	...........
	49	0.666667	7.03483E-001	9.10772E-005	0.00000E+000	6.40713E-005	5.39641E-002	7.03585E-001	3.57270E+000	9	...........
	50	0.68	7.07936E-001	9.09981E-005	0.00000E+000	6.44208E-005	5.39641E-002	7.08050E-001	3.57270E+000	9	...........
	51	0.693333	7.12303E-001	9.11158E-005	0.00000E+000	6.49021E-005	5.39641E-002	7.12414E-001	3.57270E+000	9	...........
	52	0.706667	7.16663E-001	9.09637E-005	0.00000E+000	6.51903E-005	5.39641E-002	7.16766E-001	3.57270E+000	9	...........
	53	0.72	7.20953E-001	9.08782E-005	0.00000E+000	6.55189E-005	5.39641E-002	7.21031E-001	3.57270E+000	9	...........
	54	0.733333	7.25154E-001	9.10470E-005	0.00000E+000	6.60232E-005	5.39641E-002	7.25221E-001	3.57270E+000	9	...........
	55	0.746667	7.29268E-001	9.11512E-005	0.00000E+000	6.64737E-005	5.39641E-002	7.29365E-001	3.57270E+000	9	...........
	56	0.76	7.33297E-001	9.07470E-005	0.00000E+000	6.65445E-005	5.39641E-002	7.33428E-001	3.57270E+000	9	...........
	57	0.773333	7.37294E-001	9.10804E-005	0.00000E+000	6.71530E-005	5.39641E-002	7.37423E-001	3.57270E+000	9	...........
	58	0.786667	7.41254E-001	9.11231E-005	0.00000E+000	6.75454E-005	5.39641E-002	7.41416E-001	3.57270E+000	9	...........
	59	0.8	7.45182E-001	9.08241E-005	0.00000E+000	6.76804E-005	5.39641E-002	7.45324E-001	3.57270E+000	9	...........
	60	0.813333	7.49036E-001	9.10908E-005	0.00000E+000	6.82302E-005	5.39641E-002	7.49160E-001	3.57270E+000	9	...........
	61	0.826667	7.52825E-001	9.11939E-005	0.00000E+000	6.86530E-005	5.39641E-002	7.52957E-001	3.57270E+000	9	...........
	62	0.84	7.56614E-001	9.09199E-005	0.00000E+000	6.87912E-005	5.39641E-002	7.56730E-001	3.57270E+000	9	...........
	63	0.853333	7.60290E-001	9.10376E-005	0.00000E+000	6.92150E-005	5.39641E-002	7.60412E-001	3.57270E+000	9	...........
	64	0.866667	7.63951E-001	9.12023E-005	0.00000E+000	6.96741E-005	5.39641E-002	7.64085E-001	3.57270E+000	9	...........
	65	0.88	7.67548E-001	9.10428E-005	0.00000E+000	6.98797E-005	5.39641E-002	7.67707E-001	3.57270E+000	9	...........
	66	0.893333	7.71124E-001	9.09647E-005	0.00000E+000	7.01451E-005	5.39641E-002	7.71269E-001	3.57270E+000	9	...........
	67	0.906667	7.74619E-001	9.10314E-005	0.00000E+000	7.05146E-005	5.39641E-002	7.74767E-001	3.57270E+000	9	...........
	68	0.92	7.78083E-001	9.11429E-005	0.00000E+000	7.09167E-005	5.39641E-002	7.78211E-001	3.57270E+000	9	...........
	69	0.933333	7.81511E-001	9.11585E-005	0.00000E+000	7.12414E-005	5.39641E-002	7.81659E-001	3.57270E+000	9	...........
	70	0.946667	7.84878E-001	9.10616E-005	0.00000E+000	7.14722E-005	5.39641E-002	7.85016E-001	3.57340E+000	9	...........
	71	0.96	7.88236E-001	9.10595E-005	0.00000E+000	7.17764E-005	5.39641E-002	7.88381E-001	3.57350E+000	9	...........
	72	0.97333	7.91525E-001	9.10428E-005	0.00000E+000	7.20627E-005	5.39641E-002	7.91674E-001	3.57350E+000	9	...........
	73	0.98667	7.94815E-001	9.11231E-005	0.00000E+000	7.24260E-005	5.39641E-002	7.94955E-001	3.57350E+000	9	...........
	74	1	7.98031E-001	9.11481E-005	0.00000E+000	7.27390E-005	5.39641E-002	7.98168E-001	3.57350E+000	9	...........
	75	1.01333	8.01248E-001	9.08157E-005	0.00000E+000	7.27659E-005	5.39641E-002	8.01363E-001	3.57350E+000	9	...........
	76	1.02667	8.04396E-001	9.12335E-005	0.00000E+000	7.33879E-005	5.39641E-002	8.04522E-001	3.57350E+000	9	...........
	77	1.04	8.07507E-001	9.09168E-005	0.00000E+000	7.34160E-005	5.39641E-002	8.07626E-001	3.57350E+000	9	...........
	78	1.05333	8.10560E-001	9.09949E-005	0.00000E+000	7.37568E-005	5.39641E-002	8.10705E-001	3.57350E+000	9	...........
	79	1.06667	8.13610E-001	9.09282E-005	0.00000E+000	7.39801E-005	5.39641E-002	8.13743E-001	3.57350E+000	9	...........
	80	1.08	8.16615E-001	9.10783E-005	0.00000E+000	7.43758E-005	5.39641E-002	8.16782E-001	3.57350E+000	9	...........
	81	1.09333	8.19634E-001	9.09637E-005	0.00000E+000	7.45569E-005	5.39641E-002	8.19798E-001	3.57350E+000	9	...........
	82	1.10667	8.22597E-001	9.11168E-005	0.00000E+000	7.49524E-005	5.39641E-002	8.22723E-001	3.57350E+000	9	...........
	83	1.12	8.25519E-001	9.09637E-005	0.00000E+000	7.50922E-005	5.39641E-002	8.25642E-001	3.57350E+000	9	...........
	84	1.13333	8.28404E-001	9.10595E-005	0.00000E+000	7.54341E-005	5.39641E-002	8.28530E-001	3.57350E+000	9	...........
	85	1.14667	8.31276E-001	9.12273E-005	0.00000E+000	7.58351E-005	5.39641E-002	8.31398E-001	3.57350E+000	9	...........
	86	1.16	8.34103E-001	9.10470E-005	0.00000E+000	7.59426E-005	5.39641E-002	8.34262E-001	3.57350E+000	9	...........
	87	1.17333	8.36911E-001	9.09835E-005	0.00000E+000	7.61450E-005	5.39641E-002	8.37070E-001	3.57350E+000	9	...........
	88	1.18667	8.39687E-001	9.11752E-005	0.00000E+000	7.65586E-005	5.39641E-002	8.39848E-001	3.57350E+000	9	...........
	89	1.2	8.42412E-001	9.11127E-005	0.00000E+000	7.67544E-005	5.39641E-002	8.42606E-001	3.57350E+000	9	...........
	90	1.21333	8.45175E-001	9.10408E-005	0.00000E+000	7.69454E-005	5.39641E-002	8.45343E-001	3.57350E+000	9	...........
	91	1.22667	8.47867E-001	9.09335E-005	0.00000E+000	7.70995E-005	5.39641E-002	8.48037E-001	3.57350E+000	9	...........
	92	1.24	8.50502E-001	9.14086E-005	0.00000E+000	7.77432E-005	5.39641E-002	8.50688E-001	3.57350E+000	9	...........
	93	1.25333	8.53108E-001	9.09981E-005	0.00000E+000	7.76312E-005	5.39641E-002	8.53293E-001	3.57350E+000	9	...........
	94	1.26667	8.55698E-001	9.11939E-005	0.00000E+000	7.80344E-005	5.39641E-002	8.55882E-001	3.57350E+000	9	...........
	95	1.28	8.58266E-001	9.10064E-005	0.00000E+000	7.81077E-005	5.39641E-002	8.58461E-001	3.57350E+000	9	...........
	96	1.29333	8.60831E-001	9.11127E-005	0.00000E+000	7.84326E-005	5.39641E-002	8.60996E-001	3.57350E+000	9	...........
	97	1.30667	8.63329E-001	9.07793E-005	0.00000E+000	7.83724E-005	5.39641E-002	8.63524E-001	3.57350E+000	9	...........
	98	1.32	8.65815E-001	9.08439E-005	0.00000E+000	7.86540E-005	5.39641E-002	8.66003E-001	3.57350E+000	9	...........
	99	1.33333	8.68282E-001	9.10324E-005	0.00000E+000	7.90418E-005	5.39641E-002	8.68498E-001	3.57350E+000	9	...........
	100	1.34667	8.70785E-001	9.10918E-005	0.00000E+000	7.93213E-005	5.39641E-002	8.70949E-001	3.57350E+000	9	...........
	101	1.36	8.73199E-001	9.11210E-005	0.00000E+000	7.95668E-005	5.39641E-002	8.73376E-001	3.57350E+000	9	...........
	102	1.37333	8.75566E-001	9.10001E-005	0.00000E+000	7.96766E-005	5.39641E-002	8.75762E-001	3.57350E+000	9	...........
	103	1.38667	8.77927E-001	9.12512E-005	0.00000E+000	8.01119E-005	5.39641E-002	8.78109E-001	3.57350E+000	9	...........
	104	1.4	8.80244E-001	9.12273E-005	0.00000E+000	8.03023E-005	5.39641E-002	8.80449E-001	3.57350E+000	9	...........
	105	1.41333	8.82581E-001	9.10804E-005	0.00000E+000	8.03858E-005	5.39641E-002	8.82769E-001	3.57350E+000	9	...........
	106	1.42667	8.84929E-001	9.10522E-005	0.00000E+000	8.05747E-005	5.39641E-002	8.85093E-001	3.57350E+000	9	...........
	107	1.44	8.87192E-001	9.11533E-005	0.00000E+000	8.08705E-005	5.39641E-002	8.87368E-001	3.57350E+000	9	...........
	108	1.45333	8.89459E-001	9.11793E-005	0.00000E+000	8.11003E-005	5.39641E-002	8.89617E-001	3.57350E+000	9	...........
	109	1.46667	8.91702E-001	9.10116E-005	0.00000E+000	8.11552E-005	5.39641E-002	8.91849E-001	3.57350E+000	9	...........
	110	1.48	8.93898E-001	9.10804E-005	0.00000E+000	8.14166E-005	5.39641E-002	8.94075E-001	3.57350E+000	9	...........
	111	1.49333	8.96126E-001	9.11012E-005	0.00000E+000	8.16382E-005	5.39641E-002	8.96295E-001	3.57350E+000	9	...........
	112	1.50667	8.98320E-001	9.10335E-005	0.00000E+000	8.17772E-005	5.39641E-002	8.98470E-001	3.57350E+000	9	...........
	113	1.52	9.00483E-001	9.10345E-005	0.00000E+000	8.19750E-005	5.39641E-002	9.00625E-001	3.57350E+000	9	...........
	114	1.53333	9.02614E-001	9.11835E-005	0.00000E+000	8.23035E-005	5.39641E-002	9.02747E-001	3.57350E+000	9	...........
	115	1.54667	9.04718E-001	9.12398E-005	0.00000E+000	8.25463E-005	5.39641E-002	9.04839E-001	3.57350E+000	9	...........
	116	1.56	9.06778E-001	9.10116E-005	0.00000E+000	8.25273E-005	5.39641E-002	9.06933E-001	3.57350E+000	9	...........
	117	1.57333	9.08875E-001	9.13200E-005	0.00000E+000	8.29984E-005	5.39641E-002	9.09025E-001	3.57350E+000	9	...........
	118	1.58667	9.10924E-001	9.11387E-005	0.00000E+000	8.30205E-005	5.39641E-002	9.11038E-001	3.57350E+000	9	...........
	119	1.6	9.12928E-001	9.12262E-005	0.00000E+000	8.32829E-005	5.39641E-002	9.13087E-001	3.57350E+000	9	...........
	120	1.61333	9.14961E-001	9.12502E-005	0.00000E+000	8.34903E-005	5.39641E-002	9.15122E-001	3.57350E+000	9	...........
	121	1.62667	9.16949E-001	9.10262E-005	0.00000E+000	8.34664E-005	5.39641E-002	9.17103E-001	3.57350E+000	9	...........
	122	1.64	9.18884E-001	9.10585E-005	0.00000E+000	8.36721E-005	5.39641E-002	9.19053E-001	3.57350E+000	9	...........
	123	1.65333	9.20887E-001	9.10481E-005	0.00000E+000	8.38449E-005	5.39641E-002	9.21039E-001	3.57350E+000	9	...........
	124	1.66667	9.22860E-001	9.11210E-005	0.00000E+000	8.40919E-005	5.39641E-002	9.22984E-001	3.57350E+000	9	...........
	125	1.68	9.24749E-001	9.11929E-005	0.00000E+000	8.43306E-005	5.39641E-002	9.24894E-001	3.57350E+000	9	...........
	126	1.69333	9.26646E-001	9.10001E-005	0.00000E+000	8.43249E-005	5.39641E-002	9.26780E-001	3.57350E+000	9	...........
	127	1.70667	9.28497E-001	9.09887E-005	0.00000E+000	8.44827E-005	5.39641E-002	9.28647E-001	3.57350E+000	9	...........
	128	1.72	9.30347E-001	9.10470E-005	0.00000E+000	8.47053E-005	5.39641E-002	9.30480E-001	3.57350E+000	9	...........
	129	1.73333	9.32185E-001	9.11762E-005	0.00000E+000	8.49931E-005	5.39641E-002	9.32327E-001	3.57350E+000	9	...........
	130	1.74667	9.33982E-001	9.09387E-005	0.00000E+000	8.49350E-005	5.39641E-002	9.34144E-001	3.57350E+000	9	...........
	131	1.76	9.35789E-001	9.11262E-005	0.00000E+000	8.52748E-005	5.39641E-002	9.35954E-001	3.57350E+000	9	...........
	132	1.77333	9.37552E-001	9.11387E-005	0.00000E+000	8.54473E-005	5.39641E-002	9.37730E-001	3.57350E+000	9	...........
	133	1.78667	9.39296E-001	9.09699E-005	0.00000E+000	8.54477E-005	5.39641E-002	9.39493E-001	3.57350E+000	9	...........
	134	1.8	9.41043E-001	9.09824E-005	0.00000E+000	8.56184E-005	5.39641E-002	9.41208E-001	3.57350E+000	9	...........
	135	1.81333	9.42762E-001	9.10064E-005	0.00000E+000	8.57974E-005	5.39641E-002	9.42940E-001	3.57350E+000	9	...........
	136	1.82667	9.44472E-001	9.13419E-005	0.00000E+000	8.62698E-005	5.39641E-002	9.44669E-001	3.57350E+000	9	...........
	137	1.84	9.46185E-001	9.12127E-005	0.00000E+000	8.63041E-005	5.39641E-002	9.46383E-001	3.57350E+000	9	...........
	138	1.85333	9.47913E-001	9.10199E-005	0.00000E+000	8.62790E-005	5.39641E-002	9.48079E-001	3.57350E+000	9	...........
	139	1.86667	9.49544E-001	9.12012E-005	0.00000E+000	8.65995E-005	5.39641E-002	9.49719E-001	3.57350E+000	9	...........
	140	1.88	9.51182E-001	9.11575E-005	0.00000E+000	8.67073E-005	5.39641E-002	9.51366E-001	3.57350E+000	9	...........
	141	1.89333	9.52785E-001	9.10804E-005	0.00000E+000	8.67800E-005	5.39641E-002	9.52980E-001	3.57350E+000	9	...........
	142	1.90667	9.54402E-001	9.10741E-005	0.00000E+000	8.69213E-005	5.39641E-002	9.54598E-001	3.57350E+000	9	...........
	143	1.92	9.55986E-001	9.10533E-005	0.00000E+000	8.70456E-005	5.39641E-002	9.56181E-001	3.57350E+000	9	...........
	144	1.93333	9.57557E-001	9.12835E-005	0.00000E+000	8.74091E-005	5.39641E-002	9.57760E-001	3.57350E+000	9	...........
	145	1.94667	9.59138E-001	9.09480E-005	0.00000E+000	8.72318E-005	5.39641E-002	9.59333E-001	3.57271E+000	9	...........
	146	1.96	9.60688E-001	9.12773E-005	0.00000E+000	8.76890E-005	5.39641E-002	9.60906E-001	3.57260E+000	9	...........
	147	1.97333	9.62247E-001	9.10637E-005	0.00000E+000	8.76258E-005	5.39641E-002	9.62444E-001	3.57260E+000	9	...........
	148	1.98667	9.63751E-001	9.10501E-005	0.00000E+000	8.77497E-005	5.39641E-002	9.63969E-001	3.57260E+000	9	...........
	149	2	9.65268E-001	9.11668E-005	0.00000E+000	8.80005E-005	5.39641E-002	9.65480E-001	3.57260E+000	9	...........
	150	2.01333	9.66744E-001	9.12137E-005	0.00000E+000	8.81803E-005	5.39641E-002	9.66970E-001	3.57260E+000	9	...........
	151	2.02667	9.68208E-001	9.12387E-005	0.00000E+000	8.83381E-005	5.39641E-002	9.68429E-001	3.57260E+000	9	...........
	152	2.04	9.69674E-001	9.11939E-005	0.00000E+000	8.84283E-005	5.39641E-002	9.69893E-001	3.57260E+000	9	...........
	153	2.05333	9.71104E-001	9.09512E-005	0.00000E+000	8.83230E-005	5.39641E-002	9.71373E-001	3.57260E+000	9	...........
	154	2.06667	9.72585E-001	9.13044E-005	0.00000E+000	8.88012E-005	5.39641E-002	9.72815E-001	3.57260E+000	9	...........
	155	2.08	9.74029E-001	9.09293E-005	0.00000E+000	8.85678E-005	5.39641E-002	9.74213E-001	3.57260E+000	9	...........
	156	2.09333	9.75418E-001	9.10376E-005	0.00000E+000	8.87998E-005	5.39641E-002	9.75633E-001	3.57260E+000	9	...........
	157	2.10667	9.76824E-001	9.10418E-005	0.00000E+000	8.89318E-005	5.39641E-002	9.77016E-001	3.57260E+000	9	...........
	158	2.12	9.78180E-001	9.11366E-005	0.00000E+000	8.91481E-005	5.39641E-002	9.78389E-001	3.57260E+000	9	...........
	159	2.13333	9.79552E-001	9.11616E-005	0.00000E+000	8.92976E-005	5.39641E-002	9.79730E-001	3.57260E+000	9	...........
	160	2.14667	9.80888E-001	9.09574E-005	0.00000E+000	8.92190E-005	5.39641E-002	9.81064E-001	3.57260E+000	9	...........
	161	2.16	9.82222E-001	9.10053E-005	0.00000E+000	8.93874E-005	5.39641E-002	9.82405E-001	3.57260E+000	9	...........
	162	2.17333	9.83544E-001	9.10303E-005	0.00000E+000	8.95323E-005	5.39641E-002	9.83718E-001	3.57260E+000	9	...........
	163	2.18667	9.84857E-001	9.11491E-005	0.00000E+000	8.97688E-005	5.39641E-002	9.85061E-001	3.57260E+000	9	...........
	164	2.2	9.86175E-001	9.09814E-005	0.00000E+000	8.97235E-005	5.39641E-002	9.86369E-001	3.57260E+000	9	...........
	165	2.21333	9.87471E-001	9.10064E-005	0.00000E+000	8.98662E-005	5.39641E-002	9.87675E-001	3.57260E+000	9	...........
	166	2.22667	9.88762E-001	9.13815E-005	0.00000E+000	9.03545E-005	5.39641E-002	9.88956E-001	3.57260E+000	9	...........
	167	2.24	9.90034E-001	9.08887E-005	0.00000E+000	8.99828E-005	5.39641E-002	9.90219E-001	3.57260E+000	9	...........
	168	2.25333	9.91305E-001	9.11637E-005	0.00000E+000	9.03711E-005	5.39641E-002	9.91462E-001	3.57260E+000	9	...........
	169	2.26667	9.92518E-001	9.09230E-005	0.00000E+000	9.02428E-005	5.39641E-002	9.92716E-001	3.57260E+000	9	...........
	170	2.28	9.93752E-001	9.13408E-005	0.00000E+000	9.07702E-005	5.39641E-002	9.93922E-001	3.57260E+000	9	...........
	171	2.29333	9.94979E-001	9.09793E-005	0.00000E+000	9.05225E-005	5.39641E-002	9.95181E-001	3.57260E+000	9	...........
	172	2.30667	9.96210E-001	9.11460E-005	0.00000E+000	9.08005E-005	5.39641E-002	9.96384E-001	3.57260E+000	9	...........
	173	2.32	9.97423E-001	9.10231E-005	0.00000E+000	9.07884E-005	5.39641E-002	9.97600E-001	3.57260E+000	9	...........
	174	2.33333	9.98618E-001	9.11835E-005	0.00000E+000	9.10575E-005	5.39641E-002	9.98797E-001	3.57260E+000	9	...........
	175	2.345	9.99720E-001	9.10686E-005	0.00000E+000	9.10431E-005	5.39641E-002	9.99915E-001	3.57260E+000	9	...........
STARTTIMEOFFSET	QUANT	1150.425	Start Time Offset (s)
