EXPLAIN
TAG	PWR800_CHARGE
TITLE	LABEL	PWR Cyclic Charge Discharge (Cell) - Charge Step	Test &Identifier
DATE	LABEL	10-7-2017	Date
TIME	LABEL	15:27:42	Time
NOTES	NOTES	3	&Notes...
	supercap test cell
	0.9mg
	6M KOH
PSTAT	PSTAT	IFC5000-01520	Potentiostat
CAPACITY	QUANT	1.00000E-003	Capacity (A-hr)
CELLTYPE	SELECTOR	1	&Cell Type
WORKINGCONNECTION	SELECTOR	0	&Working Lead
MAXCHARGETIME	VARIABLEANDUNITS	1.00000E+002	s	1.00000E+002	second(s)	Max &Charge Time
CHARGECURRENT	QUANT	9.00000E-005	&Charge Current (A) 
VOLTAGEFINISH	TWOPARAM	F	1.00000E-003	3.60000E+003	&Voltage Finish	 I (A) < 	Max Time(s)
SAMPLETIME	QUANT	1.00000E-002	Sa&mple Period (s)
CHARGESTOPAT1	MULTIPARAM	4	1.00000E+000	Charge Stop At &1	Voltage > Limit	V
CHARGESTOPAT2	MULTIPARAM	0	0.00000E+000	Charge Stop At &2	None	N/A
AESBHCSELECTOR	TOGGLE	F	Save Both Half Cells
IRCOMP	TOGGLE	F	IR &Measure
EOC	QUANT	0	Open Circuit (V)
SEQUENCER	TOGGLE	TRUE	Run as Sequence
PSTATMODEL	IQUANT	53	Pstat Model
PSTATSECTION	LABEL	IFC5000-01520	Pstat Section
PSTATSERIALNO	LABEL	01520	Pstat Serial Number
CTRLMODE	IQUANT	0	Control Mode
ELECTROMETER	IQUANT	1	RE=0 or CS=1
IESTAB	IQUANT	0	I/E Stability
CASPEED	IQUANT	4	Control Amp Speed
CONVENTION	IQUANT	1	Current Convention
ICHRANGE	IQUANT	2	Ich Range
ICHRANGEMODE	TOGGLE	T	Ich Auto Range
ICHOFFSETENABLE	TOGGLE	F	Ich Offset Enable
ICHOFFSET	QUANT	0	Ich Offset (V)
ICHFILTER	IQUANT	1	Ich Filter
VCHRANGE	IQUANT	2	Vch Range
VCHRANGEMODE	TOGGLE	T	Vch Auto Range
VCHOFFSETENABLE	TOGGLE	F	Vch Offset Enable
VCHOFFSET	QUANT	0	Vch Offset (V)
VCHFILTER	IQUANT	1	Vch Filter
IERANGELOWERLIMIT	IQUANT	9	I/E Range Lower Limit
IERANGEMODE	TOGGLE	F	I/E AutoRange
IERANGE	IQUANT	9	I/E Range
ACHSELECT	IQUANT	1	Ach Select
ACHRANGE	IQUANT	2	Ach Range
ACHOFFSETENABLE	TOGGLE	F	Ach Offset Enable
ACHOFFSET	QUANT	0	Ach Offset (V)
ACHFILTER	IQUANT	1	Ach Filter
CABLEID	IQUANT	14	Cable ID
DCCALDATE	LABEL	5-7-2017	DC Calibration Date
ACCALDATE	LABEL	12/3/2015	AC Calibration Date
FRAMEWORKVERSION	QUANT	7.01	Framework Version
INSTRUMENTVERSION	LABEL	4.00	Instrument Version
CURVE	TABLE	175
	Pt	T	Vf	Im	Vu	Pwr	Sig	Ach	Temp	IERange	Over
	#	s	V	A	V	W	V	V	deg C	#	bits
	0	0.013333	2.80185E-001	9.08324E-005	0.00000E+000	2.54499E-005	5.39641E-002	2.80226E-001	3.57270E+000	9	...........
	1	0.026667	2.99722E-001	9.07980E-005	0.00000E+000	2.72142E-005	5.39641E-002	2.99762E-001	3.57270E+000	9	...........
	2	0.04	3.17865E-001	9.09928E-005	0.00000E+000	2.89234E-005	5.39641E-002	3.17902E-001	3.57270E+000	9	...........
	3	0.053333	3.34821E-001	9.12012E-005	0.00000E+000	3.05361E-005	5.39641E-002	3.34860E-001	3.57270E+000	9	...........
	4	0.066667	3.50756E-001	9.11543E-005	0.00000E+000	3.19730E-005	5.39641E-002	3.50792E-001	3.57270E+000	9	...........
	5	0.08	3.65802E-001	9.09814E-005	0.00000E+000	3.32812E-005	5.39641E-002	3.65840E-001	3.57270E+000	9	...........
	6	0.093333	3.80067E-001	9.11200E-005	0.00000E+000	3.46317E-005	5.39641E-002	3.80109E-001	3.57270E+000	9	...........
	7	0.106667	3.93636E-001	9.11231E-005	0.00000E+000	3.58694E-005	5.39641E-002	3.93684E-001	3.57270E+000	9	...........
	8	0.12	4.06581E-001	9.09897E-005	0.00000E+000	3.69947E-005	5.39641E-002	4.06632E-001	3.57270E+000	9	...........
	9	0.133333	4.18948E-001	9.12231E-005	0.00000E+000	3.82178E-005	5.39641E-002	4.18998E-001	3.57270E+000	9	...........
	10	0.146667	4.30797E-001	9.10866E-005	0.00000E+000	3.92399E-005	5.39641E-002	4.30855E-001	3.57270E+000	9	...........
	11	0.16	4.42168E-001	9.11773E-005	0.00000E+000	4.03157E-005	5.39641E-002	4.42218E-001	3.57270E+000	9	...........
	12	0.173333	4.53105E-001	9.10908E-005	0.00000E+000	4.12737E-005	5.39641E-002	4.53158E-001	3.57270E+000	9	...........
	13	0.186667	4.63640E-001	9.12085E-005	0.00000E+000	4.22879E-005	5.39641E-002	4.63698E-001	3.57270E+000	9	...........
	14	0.2	4.73808E-001	9.11585E-005	0.00000E+000	4.31916E-005	5.39641E-002	4.73865E-001	3.57270E+000	9	...........
	15	0.213333	4.83637E-001	9.07313E-005	0.00000E+000	4.38810E-005	5.39641E-002	4.83697E-001	3.57270E+000	9	...........
	16	0.226667	4.93144E-001	9.09022E-005	0.00000E+000	4.48278E-005	5.39641E-002	4.93204E-001	3.57270E+000	9	...........
	17	0.24	5.02337E-001	9.11116E-005	0.00000E+000	4.57688E-005	5.39641E-002	5.02398E-001	3.57270E+000	9	...........
	18	0.253333	5.11255E-001	9.11200E-005	0.00000E+000	4.65856E-005	5.39641E-002	5.11324E-001	3.57270E+000	9	...........
	19	0.266667	5.19891E-001	9.11679E-005	0.00000E+000	4.73973E-005	5.39641E-002	5.19954E-001	3.57270E+000	9	...........
	20	0.28	5.28273E-001	9.07678E-005	0.00000E+000	4.79502E-005	5.39641E-002	5.28341E-001	3.57270E+000	9	...........
	21	0.293333	5.36374E-001	9.10231E-005	0.00000E+000	4.88224E-005	5.39641E-002	5.36460E-001	3.57270E+000	9	...........
	22	0.306667	5.44313E-001	9.10720E-005	0.00000E+000	4.95717E-005	5.39641E-002	5.44412E-001	3.57270E+000	9	...........
	23	0.32	5.52029E-001	9.09845E-005	0.00000E+000	5.02261E-005	5.39641E-002	5.52140E-001	3.57270E+000	9	...........
	24	0.333333	5.59548E-001	9.10095E-005	0.00000E+000	5.09242E-005	5.39641E-002	5.59656E-001	3.57270E+000	9	...........
	25	0.346667	5.66906E-001	9.10856E-005	0.00000E+000	5.16370E-005	5.39641E-002	5.67002E-001	3.57270E+000	9	...........
	26	0.36	5.74044E-001	9.10439E-005	0.00000E+000	5.22632E-005	5.39641E-002	5.74143E-001	3.57270E+000	9	...........
	27	0.373333	5.80985E-001	9.11814E-005	0.00000E+000	5.29750E-005	5.39641E-002	5.81110E-001	3.57270E+000	9	...........
	28	0.386667	5.87801E-001	9.08511E-005	0.00000E+000	5.34024E-005	5.39641E-002	5.87910E-001	3.57270E+000	9	...........
	29	0.4	5.94445E-001	9.10647E-005	0.00000E+000	5.41330E-005	5.39641E-002	5.94570E-001	3.57270E+000	9	...........
	30	0.413333	6.00936E-001	9.11095E-005	0.00000E+000	5.47510E-005	5.39641E-002	6.01048E-001	3.57270E+000	9	...........
	31	0.426667	6.07272E-001	9.10064E-005	0.00000E+000	5.52656E-005	5.39641E-002	6.07426E-001	3.57270E+000	9	...........
	32	0.44	6.13512E-001	9.08491E-005	0.00000E+000	5.57370E-005	5.39641E-002	6.13654E-001	3.57270E+000	9	...........
	33	0.453333	6.19628E-001	9.13190E-005	0.00000E+000	5.65838E-005	5.39641E-002	6.19717E-001	3.57270E+000	9	...........
	34	0.466667	6.25563E-001	9.10741E-005	0.00000E+000	5.69726E-005	5.39641E-002	6.25658E-001	3.57270E+000	9	...........
	35	0.48	6.31353E-001	9.10876E-005	0.00000E+000	5.75085E-005	5.39641E-002	6.31487E-001	3.57270E+000	9	...........
	36	0.493333	6.37068E-001	9.11866E-005	0.00000E+000	5.80921E-005	5.39641E-002	6.37186E-001	3.57270E+000	9	...........
	37	0.506667	6.42693E-001	9.11908E-005	0.00000E+000	5.86077E-005	5.39641E-002	6.42807E-001	3.57270E+000	9	...........
	38	0.52	6.48167E-001	9.09970E-005	0.00000E+000	5.89813E-005	5.39641E-002	6.48297E-001	3.57270E+000	9	...........
	39	0.533333	6.53564E-001	9.06876E-005	0.00000E+000	5.92702E-005	5.39641E-002	6.53696E-001	3.57270E+000	9	...........
	40	0.546667	6.58860E-001	9.10647E-005	0.00000E+000	5.99989E-005	5.39641E-002	6.58985E-001	3.57270E+000	9	...........
	41	0.56	6.64029E-001	9.10533E-005	0.00000E+000	6.04620E-005	5.39641E-002	6.64198E-001	3.57270E+000	9	...........
	42	0.573333	6.69176E-001	9.10439E-005	0.00000E+000	6.09244E-005	5.39641E-002	6.69294E-001	3.57270E+000	9	...........
	43	0.586667	6.74146E-001	9.11918E-005	0.00000E+000	6.14766E-005	5.39641E-002	6.74283E-001	3.57270E+000	9	...........
	44	0.6	6.79076E-001	9.09116E-005	0.00000E+000	6.17359E-005	5.39641E-002	6.79225E-001	3.57439E+000	9	...........
	45	0.613333	6.83890E-001	9.11043E-005	0.00000E+000	6.23054E-005	5.39641E-002	6.84020E-001	3.57540E+000	9	...........
	46	0.626667	6.88645E-001	9.07615E-005	0.00000E+000	6.25025E-005	5.39641E-002	6.88762E-001	3.57540E+000	9	...........
	47	0.64	6.93355E-001	9.12533E-005	0.00000E+000	6.32710E-005	5.39641E-002	6.93444E-001	3.57540E+000	9	...........
	48	0.653333	6.97941E-001	9.10804E-005	0.00000E+000	6.35687E-005	5.39641E-002	6.98052E-001	3.57540E+000	9	...........
	49	0.666667	7.02500E-001	9.11908E-005	0.00000E+000	6.40615E-005	5.39641E-002	7.02595E-001	3.57540E+000	9	...........
	50	0.68	7.06963E-001	9.10856E-005	0.00000E+000	6.43941E-005	5.39641E-002	7.07073E-001	3.57540E+000	9	...........
	51	0.693333	7.11331E-001	9.11314E-005	0.00000E+000	6.48246E-005	5.39641E-002	7.11460E-001	3.57540E+000	9	...........
	52	0.706667	7.15655E-001	9.11627E-005	0.00000E+000	6.52410E-005	5.39641E-002	7.15820E-001	3.57540E+000	9	...........
	53	0.72	7.19991E-001	9.09918E-005	0.00000E+000	6.55133E-005	5.39641E-002	7.20130E-001	3.57540E+000	9	...........
	54	0.733333	7.24195E-001	9.10741E-005	0.00000E+000	6.59554E-005	5.39641E-002	7.24316E-001	3.57540E+000	9	...........
	55	0.746667	7.28317E-001	9.11783E-005	0.00000E+000	6.64067E-005	5.39641E-002	7.28468E-001	3.57540E+000	9	...........
	56	0.76	7.32401E-001	9.12512E-005	0.00000E+000	6.68325E-005	5.39641E-002	7.32560E-001	3.57540E+000	9	...........
	57	0.773333	7.36411E-001	9.11137E-005	0.00000E+000	6.70971E-005	5.39641E-002	7.36536E-001	3.57540E+000	9	...........
	58	0.786667	7.40395E-001	9.11387E-005	0.00000E+000	6.74786E-005	5.39641E-002	7.40538E-001	3.57540E+000	9	...........
	59	0.8	7.44365E-001	9.09918E-005	0.00000E+000	6.77311E-005	5.39641E-002	7.44481E-001	3.57540E+000	9	...........
	60	0.813333	7.48225E-001	9.10564E-005	0.00000E+000	6.81307E-005	5.39641E-002	7.48321E-001	3.57540E+000	9	...........
	61	0.826667	7.52008E-001	9.08074E-005	0.00000E+000	6.82879E-005	5.39641E-002	7.52132E-001	3.57540E+000	9	...........
	62	0.84	7.55764E-001	9.10960E-005	0.00000E+000	6.88471E-005	5.39641E-002	7.55888E-001	3.57540E+000	9	...........
	63	0.853333	7.59452E-001	9.10168E-005	0.00000E+000	6.91229E-005	5.39641E-002	7.59552E-001	3.57540E+000	9	...........
	64	0.866667	7.63110E-001	9.10553E-005	0.00000E+000	6.94852E-005	5.39641E-002	7.63224E-001	3.57540E+000	9	...........
	65	0.88	7.66716E-001	9.08647E-005	0.00000E+000	6.96674E-005	5.39641E-002	7.66845E-001	3.57540E+000	9	...........
	66	0.893333	7.70311E-001	9.09960E-005	0.00000E+000	7.00952E-005	5.39641E-002	7.70422E-001	3.57540E+000	9	...........
	67	0.906667	7.73819E-001	9.10804E-005	0.00000E+000	7.04797E-005	5.39641E-002	7.73946E-001	3.57540E+000	9	...........
	68	0.92	7.77300E-001	9.11054E-005	0.00000E+000	7.08162E-005	5.39641E-002	7.77439E-001	3.57540E+000	9	...........
	69	0.933333	7.80768E-001	9.10043E-005	0.00000E+000	7.10532E-005	5.39641E-002	7.80900E-001	3.57540E+000	9	...........
	70	0.946667	7.84204E-001	9.11637E-005	0.00000E+000	7.14909E-005	5.39641E-002	7.84325E-001	3.57540E+000	9	...........
	71	0.96	7.87539E-001	9.09772E-005	0.00000E+000	7.16481E-005	5.39641E-002	7.87692E-001	3.57540E+000	9	...........
	72	0.97333	7.90856E-001	9.09939E-005	0.00000E+000	7.19631E-005	5.39641E-002	7.91017E-001	3.57540E+000	9	...........
	73	0.98667	7.94206E-001	9.10814E-005	0.00000E+000	7.23374E-005	5.39641E-002	7.94340E-001	3.57540E+000	9	...........
	74	1	7.97455E-001	9.11325E-005	0.00000E+000	7.26740E-005	5.39641E-002	7.97572E-001	3.57540E+000	9	...........
	75	1.01333	8.00656E-001	9.09282E-005	0.00000E+000	7.28022E-005	5.39641E-002	8.00801E-001	3.57540E+000	9	...........
	76	1.02667	8.03830E-001	9.07855E-005	0.00000E+000	7.29761E-005	5.39641E-002	8.03977E-001	3.57540E+000	9	...........
	77	1.04	8.06987E-001	9.12960E-005	0.00000E+000	7.36747E-005	5.39641E-002	8.07140E-001	3.57540E+000	9	...........
	78	1.05333	8.10098E-001	9.09209E-005	0.00000E+000	7.36549E-005	5.39641E-002	8.10226E-001	3.57540E+000	9	...........
	79	1.06667	8.13187E-001	9.11137E-005	0.00000E+000	7.40925E-005	5.39641E-002	8.13316E-001	3.57540E+000	9	...........
	80	1.08	8.16209E-001	9.09960E-005	0.00000E+000	7.42718E-005	5.39641E-002	8.16368E-001	3.57540E+000	9	...........
	81	1.09333	8.19238E-001	9.10658E-005	0.00000E+000	7.46045E-005	5.39641E-002	8.19397E-001	3.57540E+000	9	...........
	82	1.10667	8.22198E-001	9.07824E-005	0.00000E+000	7.46411E-005	5.39641E-002	8.22350E-001	3.57540E+000	9	...........
	83	1.12	8.25138E-001	9.11845E-005	0.00000E+000	7.52398E-005	5.39641E-002	8.25302E-001	3.57540E+000	9	...........
	84	1.13333	8.28041E-001	9.08814E-005	0.00000E+000	7.52535E-005	5.39641E-002	8.28197E-001	3.57540E+000	9	...........
	85	1.14667	8.30931E-001	9.12158E-005	0.00000E+000	7.57940E-005	5.39641E-002	8.31115E-001	3.57540E+000	9	...........
	86	1.16	8.33816E-001	9.09970E-005	0.00000E+000	7.58747E-005	5.39641E-002	8.33981E-001	3.57540E+000	9	...........
	87	1.17333	8.36639E-001	9.11658E-005	0.00000E+000	7.62729E-005	5.39641E-002	8.36837E-001	3.57540E+000	9	...........
	88	1.18667	8.39445E-001	9.10147E-005	0.00000E+000	7.64019E-005	5.39641E-002	8.39630E-001	3.57540E+000	9	...........
	89	1.2	8.42195E-001	9.10283E-005	0.00000E+000	7.66636E-005	5.39641E-002	8.42388E-001	3.57540E+000	9	...........
	90	1.21333	8.44961E-001	9.09595E-005	0.00000E+000	7.68572E-005	5.39641E-002	8.45164E-001	3.57540E+000	9	...........
	91	1.22667	8.47671E-001	9.10897E-005	0.00000E+000	7.72141E-005	5.39641E-002	8.47851E-001	3.57540E+000	9	...........
	92	1.24	8.50349E-001	9.10751E-005	0.00000E+000	7.74457E-005	5.39641E-002	8.50531E-001	3.57540E+000	9	...........
	93	1.25333	8.52980E-001	9.09366E-005	0.00000E+000	7.75671E-005	5.39641E-002	8.53177E-001	3.57540E+000	9	...........
	94	1.26667	8.55594E-001	9.08334E-005	0.00000E+000	7.77165E-005	5.39641E-002	8.55788E-001	3.57540E+000	9	...........
	95	1.28	8.58187E-001	9.08949E-005	0.00000E+000	7.80049E-005	5.39641E-002	8.58368E-001	3.57540E+000	9	...........
	96	1.29333	8.60772E-001	9.09220E-005	0.00000E+000	7.82631E-005	5.39641E-002	8.60913E-001	3.57540E+000	9	...........
	97	1.30667	8.63313E-001	9.08803E-005	0.00000E+000	7.84582E-005	5.39641E-002	8.63458E-001	3.57540E+000	9	...........
	98	1.32	8.65821E-001	9.11064E-005	0.00000E+000	7.88819E-005	5.39641E-002	8.65974E-001	3.57540E+000	9	...........
	99	1.33333	8.68302E-001	9.11054E-005	0.00000E+000	7.91070E-005	5.39641E-002	8.68452E-001	3.57540E+000	9	...........
	100	1.34667	8.70803E-001	9.10470E-005	0.00000E+000	7.92840E-005	5.39641E-002	8.70927E-001	3.57540E+000	9	...........
	101	1.36	8.73232E-001	9.11762E-005	0.00000E+000	7.96180E-005	5.39641E-002	8.73357E-001	3.57540E+000	9	...........
	102	1.37333	8.75633E-001	9.11064E-005	0.00000E+000	7.97757E-005	5.39641E-002	8.75771E-001	3.57540E+000	9	...........
	103	1.38667	8.78033E-001	9.08459E-005	0.00000E+000	7.97658E-005	5.39641E-002	8.78174E-001	3.57540E+000	9	...........
	104	1.4	8.80393E-001	9.09741E-005	0.00000E+000	8.00929E-005	5.39641E-002	8.80557E-001	3.57540E+000	9	...........
	105	1.41333	8.82759E-001	9.11793E-005	0.00000E+000	8.04894E-005	5.39641E-002	8.82904E-001	3.57540E+000	9	...........
	106	1.42667	8.85066E-001	9.12252E-005	0.00000E+000	8.07403E-005	5.39641E-002	8.85230E-001	3.57540E+000	9	...........
	107	1.44	8.87364E-001	9.09387E-005	0.00000E+000	8.06957E-005	5.39641E-002	8.87552E-001	3.57540E+000	9	...........
	108	1.45333	8.89619E-001	9.10356E-005	0.00000E+000	8.09870E-005	5.39641E-002	8.89798E-001	3.57540E+000	9	...........
	109	1.46667	8.91844E-001	9.11814E-005	0.00000E+000	8.13196E-005	5.39641E-002	8.92032E-001	3.57540E+000	9	...........
	110	1.48	8.94076E-001	9.08814E-005	0.00000E+000	8.12548E-005	5.39641E-002	8.94292E-001	3.57540E+000	9	...........
	111	1.49333	8.96299E-001	9.10533E-005	0.00000E+000	8.16109E-005	5.39641E-002	8.96538E-001	3.57540E+000	9	...........
	112	1.50667	8.98470E-001	9.11731E-005	0.00000E+000	8.19163E-005	5.39641E-002	8.98667E-001	3.57540E+000	9	...........
	113	1.52	9.00609E-001	9.09001E-005	0.00000E+000	8.18655E-005	5.39641E-002	9.00813E-001	3.57540E+000	9	...........
	114	1.53333	9.02725E-001	9.09105E-005	0.00000E+000	8.20672E-005	5.39641E-002	9.02953E-001	3.57540E+000	9	...........
	115	1.54667	9.04842E-001	9.09491E-005	0.00000E+000	8.22946E-005	5.39641E-002	9.05067E-001	3.57540E+000	9	...........
	116	1.56	9.06915E-001	9.15263E-005	0.00000E+000	8.30066E-005	5.39641E-002	9.07137E-001	3.57540E+000	9	...........
	117	1.57333	9.09020E-001	9.11898E-005	0.00000E+000	8.28933E-005	5.39641E-002	9.09209E-001	3.57540E+000	9	...........
	118	1.58667	9.11096E-001	9.11325E-005	0.00000E+000	8.30304E-005	5.39641E-002	9.11258E-001	3.57540E+000	9	...........
	119	1.6	9.13135E-001	9.09397E-005	0.00000E+000	8.30402E-005	5.39641E-002	9.13318E-001	3.57409E+000	9	...........
	120	1.61333	9.15146E-001	9.10262E-005	0.00000E+000	8.33022E-005	5.39641E-002	9.15352E-001	3.57330E+000	9	...........
	121	1.62667	9.17148E-001	9.09470E-005	0.00000E+000	8.34118E-005	5.39641E-002	9.17352E-001	3.57330E+000	9	...........
	122	1.64	9.19136E-001	9.10491E-005	0.00000E+000	8.36865E-005	5.39641E-002	9.19344E-001	3.57330E+000	9	...........
	123	1.65333	9.21178E-001	9.07386E-005	0.00000E+000	8.35864E-005	5.39641E-002	9.21338E-001	3.57330E+000	9	...........
	124	1.66667	9.23136E-001	9.13304E-005	0.00000E+000	8.43104E-005	5.39641E-002	9.23314E-001	3.57330E+000	9	...........
	125	1.68	9.25051E-001	9.10022E-005	0.00000E+000	8.41817E-005	5.39641E-002	9.25232E-001	3.57330E+000	9	...........
	126	1.69333	9.26985E-001	9.09220E-005	0.00000E+000	8.42834E-005	5.39641E-002	9.27179E-001	3.57330E+000	9	...........
	127	1.70667	9.28920E-001	9.08824E-005	0.00000E+000	8.44225E-005	5.39641E-002	9.29057E-001	3.57330E+000	9	...........
	128	1.72	9.30780E-001	9.09491E-005	0.00000E+000	8.46536E-005	5.39641E-002	9.30932E-001	3.57330E+000	9	...........
	129	1.73333	9.32640E-001	9.08772E-005	0.00000E+000	8.47557E-005	5.39641E-002	9.32806E-001	3.57330E+000	9	...........
	130	1.74667	9.34503E-001	9.09460E-005	0.00000E+000	8.49893E-005	5.39641E-002	9.34665E-001	3.57330E+000	9	...........
	131	1.76	9.36301E-001	9.12116E-005	0.00000E+000	8.54016E-005	5.39641E-002	9.36465E-001	3.57330E+000	9	...........
	132	1.77333	9.38089E-001	9.11898E-005	0.00000E+000	8.55441E-005	5.39641E-002	9.38263E-001	3.57330E+000	9	...........
	133	1.78667	9.39884E-001	9.08032E-005	0.00000E+000	8.53445E-005	5.39641E-002	9.40078E-001	3.57330E+000	9	...........
	134	1.8	9.41654E-001	9.10970E-005	0.00000E+000	8.57819E-005	5.39641E-002	9.41814E-001	3.57330E+000	9	...........
	135	1.81333	9.43393E-001	9.10679E-005	0.00000E+000	8.59127E-005	5.39641E-002	9.43569E-001	3.57330E+000	9	...........
	136	1.82667	9.45123E-001	9.11564E-005	0.00000E+000	8.61540E-005	5.39641E-002	9.45306E-001	3.57330E+000	9	...........
	137	1.84	9.46866E-001	9.08741E-005	0.00000E+000	8.60456E-005	5.39641E-002	9.47041E-001	3.57330E+000	9	...........
	138	1.85333	9.48556E-001	9.09543E-005	0.00000E+000	8.62752E-005	5.39641E-002	9.48738E-001	3.57330E+000	9	...........
	139	1.86667	9.50221E-001	9.09345E-005	0.00000E+000	8.64079E-005	5.39641E-002	9.50423E-001	3.57330E+000	9	...........
	140	1.88	9.51890E-001	9.11512E-005	0.00000E+000	8.67659E-005	5.39641E-002	9.52078E-001	3.57330E+000	9	...........
	141	1.89333	9.53539E-001	9.09814E-005	0.00000E+000	8.67543E-005	5.39641E-002	9.53720E-001	3.57330E+000	9	...........
	142	1.90667	9.55148E-001	9.08178E-005	0.00000E+000	8.67445E-005	5.39641E-002	9.55334E-001	3.57330E+000	9	...........
	143	1.92	9.56748E-001	9.10001E-005	0.00000E+000	8.70642E-005	5.39641E-002	9.56923E-001	3.57330E+000	9	...........
	144	1.93333	9.58332E-001	9.12512E-005	0.00000E+000	8.74490E-005	5.39641E-002	9.58524E-001	3.57330E+000	9	...........
	145	1.94667	9.59899E-001	9.12179E-005	0.00000E+000	8.75599E-005	5.39641E-002	9.60104E-001	3.57330E+000	9	...........
	146	1.96	9.61459E-001	9.08511E-005	0.00000E+000	8.73497E-005	5.39641E-002	9.61660E-001	3.57330E+000	9	...........
	147	1.97333	9.62996E-001	9.13690E-005	0.00000E+000	8.79880E-005	5.39641E-002	9.63190E-001	3.57330E+000	9	...........
	148	1.98667	9.64504E-001	9.09553E-005	0.00000E+000	8.77268E-005	5.39641E-002	9.64719E-001	3.57330E+000	9	...........
	149	2	9.66017E-001	9.11512E-005	0.00000E+000	8.80536E-005	5.39641E-002	9.66220E-001	3.57330E+000	9	...........
	150	2.01333	9.67512E-001	9.12148E-005	0.00000E+000	8.82513E-005	5.39641E-002	9.67723E-001	3.57330E+000	9	...........
	151	2.02667	9.68978E-001	9.11002E-005	0.00000E+000	8.82741E-005	5.39641E-002	9.69189E-001	3.57330E+000	9	...........
	152	2.04	9.70466E-001	9.12710E-005	0.00000E+000	8.85755E-005	5.39641E-002	9.70663E-001	3.57330E+000	9	...........
	153	2.05333	9.71928E-001	9.10668E-005	0.00000E+000	8.85104E-005	5.39641E-002	9.72126E-001	3.57330E+000	9	...........
	154	2.06667	9.73414E-001	9.10158E-005	0.00000E+000	8.85960E-005	5.39641E-002	9.73565E-001	3.57330E+000	9	...........
	155	2.08	9.74833E-001	9.10897E-005	0.00000E+000	8.87973E-005	5.39641E-002	9.75005E-001	3.57330E+000	9	...........
	156	2.09333	9.76254E-001	9.11252E-005	0.00000E+000	8.89612E-005	5.39641E-002	9.76423E-001	3.57330E+000	9	...........
	157	2.10667	9.77630E-001	9.09209E-005	0.00000E+000	8.88871E-005	5.39641E-002	9.77830E-001	3.57330E+000	9	...........
	158	2.12	9.79007E-001	9.10335E-005	0.00000E+000	8.91224E-005	5.39641E-002	9.79206E-001	3.57330E+000	9	...........
	159	2.13333	9.80399E-001	9.12085E-005	0.00000E+000	8.94207E-005	5.39641E-002	9.80595E-001	3.57330E+000	9	...........
	160	2.14667	9.81764E-001	9.09084E-005	0.00000E+000	8.92507E-005	5.39641E-002	9.81961E-001	3.57330E+000	9	...........
	161	2.16	9.83125E-001	9.10689E-005	0.00000E+000	8.95321E-005	5.39641E-002	9.83301E-001	3.57330E+000	9	...........
	162	2.17333	9.84433E-001	9.09105E-005	0.00000E+000	8.94953E-005	5.39641E-002	9.84654E-001	3.57330E+000	9	...........
	163	2.18667	9.85782E-001	9.07699E-005	0.00000E+000	8.94793E-005	5.39641E-002	9.85970E-001	3.57330E+000	9	...........
	164	2.2	9.87032E-001	9.10814E-005	0.00000E+000	8.99003E-005	5.39641E-002	9.87254E-001	3.57330E+000	9	...........
	165	2.21333	9.88358E-001	9.12669E-005	0.00000E+000	9.02043E-005	5.39641E-002	9.88536E-001	3.57330E+000	9	...........
	166	2.22667	9.89658E-001	9.13481E-005	0.00000E+000	9.04034E-005	5.39641E-002	9.89836E-001	3.57330E+000	9	...........
	167	2.24	9.90904E-001	9.11460E-005	0.00000E+000	9.03169E-005	5.39641E-002	9.91080E-001	3.57330E+000	9	...........
	168	2.25333	9.92144E-001	9.10970E-005	0.00000E+000	9.03814E-005	5.39641E-002	9.92327E-001	3.57330E+000	9	...........
	169	2.26667	9.93381E-001	9.13190E-005	0.00000E+000	9.07145E-005	5.39641E-002	9.93541E-001	3.57330E+000	9	...........
	170	2.28	9.94614E-001	9.12314E-005	0.00000E+000	9.07401E-005	5.39641E-002	9.94777E-001	3.57330E+000	9	...........
	171	2.29333	9.95854E-001	9.11127E-005	0.00000E+000	9.07349E-005	5.39641E-002	9.96011E-001	3.57330E+000	9	...........
	172	2.30667	9.97071E-001	9.10720E-005	0.00000E+000	9.08053E-005	5.39641E-002	9.97259E-001	3.57330E+000	9	...........
	173	2.32	9.98307E-001	9.10022E-005	0.00000E+000	9.08481E-005	5.39641E-002	9.98482E-001	3.57330E+000	9	...........
	174	2.33333	9.99482E-001	9.11408E-005	0.00000E+000	9.10936E-005	5.39641E-002	9.99675E-001	3.57330E+000	9	...........
STARTTIMEOFFSET	QUANT	1442.091	Start Time Offset (s)
