EXPLAIN
TAG	PWR800_CHARGE
TITLE	LABEL	PWR Cyclic Charge Discharge (Cell) - Charge Step	Test &Identifier
DATE	LABEL	10-7-2017	Date
TIME	LABEL	16:09:49	Time
NOTES	NOTES	3	&Notes...
	supercap test cell
	0.9mg
	6M KOH
PSTAT	PSTAT	IFC5000-01520	Potentiostat
CAPACITY	QUANT	1.00000E-003	Capacity (A-hr)
CELLTYPE	SELECTOR	1	&Cell Type
WORKINGCONNECTION	SELECTOR	0	&Working Lead
MAXCHARGETIME	VARIABLEANDUNITS	1.00000E+002	s	1.00000E+002	second(s)	Max &Charge Time
CHARGECURRENT	QUANT	9.00000E-005	&Charge Current (A) 
VOLTAGEFINISH	TWOPARAM	F	1.00000E-003	3.60000E+003	&Voltage Finish	 I (A) < 	Max Time(s)
SAMPLETIME	QUANT	1.00000E-002	Sa&mple Period (s)
CHARGESTOPAT1	MULTIPARAM	4	1.00000E+000	Charge Stop At &1	Voltage > Limit	V
CHARGESTOPAT2	MULTIPARAM	0	0.00000E+000	Charge Stop At &2	None	N/A
AESBHCSELECTOR	TOGGLE	F	Save Both Half Cells
IRCOMP	TOGGLE	F	IR &Measure
EOC	QUANT	0	Open Circuit (V)
SEQUENCER	TOGGLE	TRUE	Run as Sequence
PSTATMODEL	IQUANT	53	Pstat Model
PSTATSECTION	LABEL	IFC5000-01520	Pstat Section
PSTATSERIALNO	LABEL	01520	Pstat Serial Number
CTRLMODE	IQUANT	0	Control Mode
ELECTROMETER	IQUANT	1	RE=0 or CS=1
IESTAB	IQUANT	0	I/E Stability
CASPEED	IQUANT	4	Control Amp Speed
CONVENTION	IQUANT	1	Current Convention
ICHRANGE	IQUANT	2	Ich Range
ICHRANGEMODE	TOGGLE	T	Ich Auto Range
ICHOFFSETENABLE	TOGGLE	F	Ich Offset Enable
ICHOFFSET	QUANT	0	Ich Offset (V)
ICHFILTER	IQUANT	1	Ich Filter
VCHRANGE	IQUANT	2	Vch Range
VCHRANGEMODE	TOGGLE	T	Vch Auto Range
VCHOFFSETENABLE	TOGGLE	F	Vch Offset Enable
VCHOFFSET	QUANT	0	Vch Offset (V)
VCHFILTER	IQUANT	1	Vch Filter
IERANGELOWERLIMIT	IQUANT	9	I/E Range Lower Limit
IERANGEMODE	TOGGLE	F	I/E AutoRange
IERANGE	IQUANT	9	I/E Range
ACHSELECT	IQUANT	1	Ach Select
ACHRANGE	IQUANT	2	Ach Range
ACHOFFSETENABLE	TOGGLE	F	Ach Offset Enable
ACHOFFSET	QUANT	0	Ach Offset (V)
ACHFILTER	IQUANT	1	Ach Filter
CABLEID	IQUANT	14	Cable ID
DCCALDATE	LABEL	5-7-2017	DC Calibration Date
ACCALDATE	LABEL	12/3/2015	AC Calibration Date
FRAMEWORKVERSION	QUANT	7.01	Framework Version
INSTRUMENTVERSION	LABEL	4.00	Instrument Version
CURVE	TABLE	163
	Pt	T	Vf	Im	Vu	Pwr	Sig	Ach	Temp	IERange	Over
	#	s	V	A	V	W	V	V	deg C	#	bits
	0	0.013333	2.66128E-001	9.09564E-005	0.00000E+000	2.42061E-005	5.39641E-002	2.66177E-001	3.57340E+000	9	...........
	1	0.026667	2.85831E-001	9.08511E-005	0.00000E+000	2.59681E-005	5.39641E-002	2.85875E-001	3.57340E+000	9	...........
	2	0.04	3.04324E-001	9.08553E-005	0.00000E+000	2.76494E-005	5.39641E-002	3.04368E-001	3.57340E+000	9	...........
	3	0.053333	3.21789E-001	9.08126E-005	0.00000E+000	2.92225E-005	5.39641E-002	3.21834E-001	3.57340E+000	9	...........
	4	0.066667	3.38306E-001	9.07688E-005	0.00000E+000	3.07076E-005	5.39641E-002	3.38352E-001	3.57340E+000	9	...........
	5	0.08	3.53974E-001	9.10564E-005	0.00000E+000	3.22316E-005	5.39641E-002	3.54023E-001	3.57340E+000	9	...........
	6	0.093333	3.68891E-001	9.10106E-005	0.00000E+000	3.35730E-005	5.39641E-002	3.68939E-001	3.57340E+000	9	...........
	7	0.106667	3.83108E-001	9.08032E-005	0.00000E+000	3.47875E-005	5.39641E-002	3.83161E-001	3.57340E+000	9	...........
	8	0.12	3.96679E-001	9.07063E-005	0.00000E+000	3.59813E-005	5.39641E-002	3.96721E-001	3.57340E+000	9	...........
	9	0.133333	4.09654E-001	9.10533E-005	0.00000E+000	3.73003E-005	5.39641E-002	4.09700E-001	3.57340E+000	9	...........
	10	0.146667	4.22081E-001	9.11179E-005	0.00000E+000	3.84591E-005	5.39641E-002	4.22139E-001	3.57340E+000	9	...........
	11	0.16	4.34022E-001	9.10908E-005	0.00000E+000	3.95354E-005	5.39641E-002	4.34080E-001	3.57340E+000	9	...........
	12	0.173333	4.45487E-001	9.08209E-005	0.00000E+000	4.04596E-005	5.39641E-002	4.45549E-001	3.57340E+000	9	...........
	13	0.186667	4.56520E-001	9.09491E-005	0.00000E+000	4.15201E-005	5.39641E-002	4.56584E-001	3.57340E+000	9	...........
	14	0.2	4.67145E-001	9.10741E-005	0.00000E+000	4.25448E-005	5.39641E-002	4.67202E-001	3.57340E+000	9	...........
	15	0.213333	4.77391E-001	9.10272E-005	0.00000E+000	4.34556E-005	5.39641E-002	4.77455E-001	3.57340E+000	9	...........
	16	0.226667	4.87286E-001	9.09116E-005	0.00000E+000	4.42999E-005	5.39641E-002	4.87350E-001	3.57340E+000	9	...........
	17	0.24	4.96852E-001	9.10303E-005	0.00000E+000	4.52286E-005	5.39641E-002	4.96925E-001	3.57340E+000	9	...........
	18	0.253333	5.06120E-001	9.08637E-005	0.00000E+000	4.59879E-005	5.39641E-002	5.06187E-001	3.57340E+000	9	...........
	19	0.266667	5.15098E-001	9.10376E-005	0.00000E+000	4.68933E-005	5.39641E-002	5.15166E-001	3.57340E+000	9	...........
	20	0.28	5.23798E-001	9.10741E-005	0.00000E+000	4.77044E-005	5.39641E-002	5.23871E-001	3.57340E+000	9	...........
	21	0.293333	5.32209E-001	9.11616E-005	0.00000E+000	4.85170E-005	5.39641E-002	5.32275E-001	3.57340E+000	9	...........
	22	0.306667	5.40354E-001	9.08470E-005	0.00000E+000	4.90895E-005	5.39641E-002	5.40466E-001	3.57340E+000	9	...........
	23	0.32	5.48310E-001	9.07251E-005	0.00000E+000	4.97455E-005	5.39641E-002	5.48412E-001	3.57340E+000	9	...........
	24	0.333333	5.56076E-001	9.11450E-005	0.00000E+000	5.06835E-005	5.39641E-002	5.56181E-001	3.57340E+000	9	...........
	25	0.346667	5.63645E-001	9.12887E-005	0.00000E+000	5.14544E-005	5.39641E-002	5.63756E-001	3.57340E+000	9	...........
	26	0.36	5.71012E-001	9.08282E-005	0.00000E+000	5.18640E-005	5.39641E-002	5.71091E-001	3.57340E+000	9	...........
	27	0.373333	5.78150E-001	9.08668E-005	0.00000E+000	5.25346E-005	5.39641E-002	5.78290E-001	3.57340E+000	9	...........
	28	0.386667	5.85150E-001	9.07355E-005	0.00000E+000	5.30939E-005	5.39641E-002	5.85263E-001	3.57340E+000	9	...........
	29	0.4	5.91999E-001	9.11450E-005	0.00000E+000	5.39577E-005	5.39641E-002	5.92113E-001	3.57340E+000	9	...........
	30	0.413333	5.98680E-001	9.10835E-005	0.00000E+000	5.45299E-005	5.39641E-002	5.98787E-001	3.57340E+000	9	...........
	31	0.426667	6.05193E-001	9.12398E-005	0.00000E+000	5.52176E-005	5.39641E-002	6.05333E-001	3.57340E+000	9	...........
	32	0.44	6.11590E-001	9.07907E-005	0.00000E+000	5.55267E-005	5.39641E-002	6.11727E-001	3.57340E+000	9	...........
	33	0.453333	6.17879E-001	9.10147E-005	0.00000E+000	5.62360E-005	5.39641E-002	6.17986E-001	3.57340E+000	9	...........
	34	0.466667	6.23987E-001	9.10001E-005	0.00000E+000	5.67829E-005	5.39641E-002	6.24089E-001	3.57340E+000	9	...........
	35	0.48	6.29994E-001	9.10481E-005	0.00000E+000	5.73598E-005	5.39641E-002	6.30096E-001	3.57340E+000	9	...........
	36	0.493333	6.35863E-001	9.12064E-005	0.00000E+000	5.79948E-005	5.39641E-002	6.35982E-001	3.57340E+000	9	...........
	37	0.506667	6.41647E-001	9.11668E-005	0.00000E+000	5.84969E-005	5.39641E-002	6.41753E-001	3.57340E+000	9	...........
	38	0.52	6.47294E-001	9.12158E-005	0.00000E+000	5.90435E-005	5.39641E-002	6.47396E-001	3.57340E+000	9	...........
	39	0.533333	6.52841E-001	9.10293E-005	0.00000E+000	5.94277E-005	5.39641E-002	6.52948E-001	3.57340E+000	9	...........
	40	0.546667	6.58287E-001	9.08470E-005	0.00000E+000	5.98034E-005	5.39641E-002	6.58399E-001	3.57340E+000	9	...........
	41	0.56	6.63662E-001	9.10231E-005	0.00000E+000	6.04085E-005	5.39641E-002	6.63765E-001	3.57340E+000	9	...........
	42	0.573333	6.68937E-001	9.10762E-005	0.00000E+000	6.09243E-005	5.39641E-002	6.69039E-001	3.57340E+000	9	...........
	43	0.586667	6.74108E-001	9.08803E-005	0.00000E+000	6.12632E-005	5.39641E-002	6.74217E-001	3.57340E+000	9	...........
	44	0.6	6.79195E-001	9.10564E-005	0.00000E+000	6.18450E-005	5.39641E-002	6.79323E-001	3.57340E+000	9	...........
	45	0.613333	6.84178E-001	9.11189E-005	0.00000E+000	6.23416E-005	5.39641E-002	6.84287E-001	3.57340E+000	9	...........
	46	0.626667	6.89105E-001	9.08272E-005	0.00000E+000	6.25895E-005	5.39641E-002	6.89214E-001	3.57340E+000	9	...........
	47	0.64	6.93967E-001	9.10095E-005	0.00000E+000	6.31576E-005	5.39641E-002	6.94073E-001	3.57340E+000	9	...........
	48	0.653333	6.98763E-001	9.11397E-005	0.00000E+000	6.36851E-005	5.39641E-002	6.98879E-001	3.57340E+000	9	...........
	49	0.666667	7.03469E-001	9.09678E-005	0.00000E+000	6.39930E-005	5.39641E-002	7.03571E-001	3.57384E+000	9	...........
	50	0.68	7.08106E-001	9.08959E-005	0.00000E+000	6.43639E-005	5.39641E-002	7.08234E-001	3.57410E+000	9	...........
	51	0.693333	7.12677E-001	9.09991E-005	0.00000E+000	6.48530E-005	5.39641E-002	7.12784E-001	3.57410E+000	9	...........
	52	0.706667	7.17173E-001	9.12325E-005	0.00000E+000	6.54294E-005	5.39641E-002	7.17314E-001	3.57410E+000	9	...........
	53	0.72	7.21657E-001	9.12679E-005	0.00000E+000	6.58641E-005	5.39641E-002	7.21744E-001	3.57410E+000	9	...........
	54	0.733333	7.26056E-001	9.11668E-005	0.00000E+000	6.61922E-005	5.39641E-002	7.26111E-001	3.57410E+000	9	...........
	55	0.746667	7.30343E-001	9.10501E-005	0.00000E+000	6.64978E-005	5.39641E-002	7.30429E-001	3.57410E+000	9	...........
	56	0.76	7.34553E-001	9.07990E-005	0.00000E+000	6.66967E-005	5.39641E-002	7.34679E-001	3.57410E+000	9	...........
	57	0.773333	7.38752E-001	9.07949E-005	0.00000E+000	6.70749E-005	5.39641E-002	7.38870E-001	3.57410E+000	9	...........
	58	0.786667	7.42926E-001	9.10345E-005	0.00000E+000	6.76319E-005	5.39641E-002	7.43018E-001	3.57410E+000	9	...........
	59	0.8	7.47012E-001	9.11439E-005	0.00000E+000	6.80856E-005	5.39641E-002	7.47106E-001	3.57410E+000	9	...........
	60	0.813333	7.51054E-001	9.09366E-005	0.00000E+000	6.82983E-005	5.39641E-002	7.51157E-001	3.57410E+000	9	...........
	61	0.826667	7.55029E-001	9.10012E-005	0.00000E+000	6.87085E-005	5.39641E-002	7.55134E-001	3.57410E+000	9	...........
	62	0.84	7.58956E-001	9.10845E-005	0.00000E+000	6.91291E-005	5.39641E-002	7.59065E-001	3.57410E+000	9	...........
	63	0.853333	7.62872E-001	9.10345E-005	0.00000E+000	6.94477E-005	5.39641E-002	7.62989E-001	3.57410E+000	9	...........
	64	0.866667	7.66687E-001	9.09064E-005	0.00000E+000	6.96968E-005	5.39641E-002	7.66846E-001	3.57410E+000	9	...........
	65	0.88	7.70537E-001	9.10199E-005	0.00000E+000	7.01343E-005	5.39641E-002	7.70670E-001	3.57410E+000	9	...........
	66	0.893333	7.74313E-001	9.09574E-005	0.00000E+000	7.04295E-005	5.39641E-002	7.74439E-001	3.57410E+000	9	...........
	67	0.906667	7.78018E-001	9.10772E-005	0.00000E+000	7.08597E-005	5.39641E-002	7.78169E-001	3.57410E+000	9	...........
	68	0.92	7.81712E-001	9.10085E-005	0.00000E+000	7.11424E-005	5.39641E-002	7.81861E-001	3.57410E+000	9	...........
	69	0.933333	7.85323E-001	9.08272E-005	0.00000E+000	7.13287E-005	5.39641E-002	7.85480E-001	3.57410E+000	9	...........
	70	0.946667	7.88926E-001	9.07605E-005	0.00000E+000	7.16033E-005	5.39641E-002	7.89080E-001	3.57410E+000	9	...........
	71	0.96	7.92491E-001	9.10408E-005	0.00000E+000	7.21490E-005	5.39641E-002	7.92672E-001	3.57410E+000	9	...........
	72	0.97333	7.96047E-001	9.13512E-005	0.00000E+000	7.27199E-005	5.39641E-002	7.96222E-001	3.57410E+000	9	...........
	73	0.98667	7.99539E-001	9.09751E-005	0.00000E+000	7.27382E-005	5.39641E-002	7.99672E-001	3.57410E+000	9	...........
	74	1	8.02919E-001	9.09345E-005	0.00000E+000	7.30131E-005	5.39641E-002	8.03123E-001	3.57410E+000	9	...........
	75	1.01333	8.06319E-001	9.11595E-005	0.00000E+000	7.35037E-005	5.39641E-002	8.06497E-001	3.57410E+000	9	...........
	76	1.02667	8.09677E-001	9.10595E-005	0.00000E+000	7.37288E-005	5.39641E-002	8.09866E-001	3.57410E+000	9	...........
	77	1.04	8.13024E-001	9.11679E-005	0.00000E+000	7.41217E-005	5.39641E-002	8.13205E-001	3.57410E+000	9	...........
	78	1.05333	8.16308E-001	9.08980E-005	0.00000E+000	7.42008E-005	5.39641E-002	8.16501E-001	3.57410E+000	9	...........
	79	1.06667	8.19617E-001	9.11116E-005	0.00000E+000	7.46766E-005	5.39641E-002	8.19778E-001	3.57410E+000	9	...........
	80	1.08	8.22833E-001	9.10595E-005	0.00000E+000	7.49268E-005	5.39641E-002	8.22991E-001	3.57410E+000	9	...........
	81	1.09333	8.26057E-001	9.11648E-005	0.00000E+000	7.53073E-005	5.39641E-002	8.26223E-001	3.57410E+000	9	...........
	82	1.10667	8.29254E-001	9.08709E-005	0.00000E+000	7.53551E-005	5.39641E-002	8.29383E-001	3.57410E+000	9	...........
	83	1.12	8.32400E-001	9.08251E-005	0.00000E+000	7.56028E-005	5.39641E-002	8.32553E-001	3.57410E+000	9	...........
	84	1.13333	8.35469E-001	9.08188E-005	0.00000E+000	7.58763E-005	5.39641E-002	8.35661E-001	3.57410E+000	9	...........
	85	1.14667	8.38529E-001	9.09230E-005	0.00000E+000	7.62416E-005	5.39641E-002	8.38745E-001	3.57410E+000	9	...........
	86	1.16	8.41546E-001	9.09043E-005	0.00000E+000	7.65001E-005	5.39641E-002	8.41754E-001	3.57410E+000	9	...........
	87	1.17333	8.44569E-001	9.08574E-005	0.00000E+000	7.67353E-005	5.39641E-002	8.44781E-001	3.57410E+000	9	...........
	88	1.18667	8.47553E-001	9.08689E-005	0.00000E+000	7.70162E-005	5.39641E-002	8.47748E-001	3.57410E+000	9	...........
	89	1.2	8.50488E-001	9.11095E-005	0.00000E+000	7.74876E-005	5.39641E-002	8.50671E-001	3.57410E+000	9	...........
	90	1.21333	8.53392E-001	9.08095E-005	0.00000E+000	7.74961E-005	5.39641E-002	8.53577E-001	3.57410E+000	9	...........
	91	1.22667	8.56285E-001	9.08834E-005	0.00000E+000	7.78222E-005	5.39641E-002	8.56498E-001	3.57410E+000	9	...........
	92	1.24	8.59170E-001	9.10095E-005	0.00000E+000	7.81927E-005	5.39641E-002	8.59366E-001	3.57410E+000	9	...........
	93	1.25333	8.62009E-001	9.09637E-005	0.00000E+000	7.84115E-005	5.39641E-002	8.62192E-001	3.57410E+000	9	...........
	94	1.26667	8.64787E-001	9.13554E-005	0.00000E+000	7.90030E-005	5.39641E-002	8.64989E-001	3.57410E+000	9	...........
	95	1.28	8.67613E-001	9.10137E-005	0.00000E+000	7.89647E-005	5.39641E-002	8.67806E-001	3.57410E+000	9	...........
	96	1.29333	8.70404E-001	9.10981E-005	0.00000E+000	7.92922E-005	5.39641E-002	8.70591E-001	3.57410E+000	9	...........
	97	1.30667	8.73124E-001	9.09137E-005	0.00000E+000	7.93789E-005	5.39641E-002	8.73304E-001	3.57410E+000	9	...........
	98	1.32	8.75840E-001	9.09720E-005	0.00000E+000	7.96769E-005	5.39641E-002	8.76026E-001	3.57410E+000	9	...........
	99	1.33333	8.78524E-001	9.09897E-005	0.00000E+000	7.99366E-005	5.39641E-002	8.78703E-001	3.57410E+000	9	...........
	100	1.34667	8.81130E-001	9.09512E-005	0.00000E+000	8.01398E-005	5.39641E-002	8.81326E-001	3.57410E+000	9	...........
	101	1.36	8.83781E-001	9.10293E-005	0.00000E+000	8.04499E-005	5.39641E-002	8.83977E-001	3.57410E+000	9	...........
	102	1.37333	8.86367E-001	9.10481E-005	0.00000E+000	8.07020E-005	5.39641E-002	8.86567E-001	3.57410E+000	9	...........
	103	1.38667	8.88890E-001	9.11377E-005	0.00000E+000	8.10114E-005	5.39641E-002	8.89092E-001	3.57410E+000	9	...........
	104	1.4	8.91422E-001	9.11731E-005	0.00000E+000	8.12737E-005	5.39641E-002	8.91636E-001	3.57410E+000	9	...........
	105	1.41333	8.93911E-001	9.10564E-005	0.00000E+000	8.13963E-005	5.39641E-002	8.94124E-001	3.57410E+000	9	...........
	106	1.42667	8.96414E-001	9.09533E-005	0.00000E+000	8.15318E-005	5.39641E-002	8.96608E-001	3.57410E+000	9	...........
	107	1.44	8.98816E-001	9.09564E-005	0.00000E+000	8.17531E-005	5.39641E-002	8.99044E-001	3.57410E+000	9	...........
	108	1.45333	9.01233E-001	9.09241E-005	0.00000E+000	8.19438E-005	5.39641E-002	9.01444E-001	3.57410E+000	9	...........
	109	1.46667	9.03643E-001	9.12043E-005	0.00000E+000	8.24162E-005	5.39641E-002	9.03837E-001	3.57410E+000	9	...........
	110	1.48	9.05999E-001	9.10439E-005	0.00000E+000	8.24857E-005	5.39641E-002	9.06207E-001	3.57410E+000	9	...........
	111	1.49333	9.08345E-001	9.10689E-005	0.00000E+000	8.27219E-005	5.39641E-002	9.08570E-001	3.57410E+000	9	...........
	112	1.50667	9.10671E-001	9.09939E-005	0.00000E+000	8.28654E-005	5.39641E-002	9.10869E-001	3.57410E+000	9	...........
	113	1.52	9.12975E-001	9.11127E-005	0.00000E+000	8.31836E-005	5.39641E-002	9.13168E-001	3.57410E+000	9	...........
	114	1.53333	9.15243E-001	9.12252E-005	0.00000E+000	8.34932E-005	5.39641E-002	9.15450E-001	3.57410E+000	9	...........
	115	1.54667	9.17481E-001	9.10606E-005	0.00000E+000	8.35463E-005	5.39641E-002	9.17693E-001	3.57410E+000	9	...........
	116	1.56	9.19700E-001	9.10751E-005	0.00000E+000	8.37618E-005	5.39641E-002	9.19895E-001	3.57410E+000	9	...........
	117	1.57333	9.21948E-001	9.10585E-005	0.00000E+000	8.39512E-005	5.39641E-002	9.22102E-001	3.57410E+000	9	...........
	118	1.58667	9.24119E-001	9.10199E-005	0.00000E+000	8.41133E-005	5.39641E-002	9.24270E-001	3.57410E+000	9	...........
	119	1.6	9.26256E-001	9.11095E-005	0.00000E+000	8.43908E-005	5.39641E-002	9.26435E-001	3.57410E+000	9	...........
	120	1.61333	9.28385E-001	9.08928E-005	0.00000E+000	8.43835E-005	5.39641E-002	9.28554E-001	3.57410E+000	9	...........
	121	1.62667	9.30435E-001	9.11408E-005	0.00000E+000	8.48006E-005	5.39641E-002	9.30629E-001	3.57410E+000	9	...........
	122	1.64	9.32520E-001	9.11866E-005	0.00000E+000	8.50333E-005	5.39641E-002	9.32719E-001	3.57410E+000	9	...........
	123	1.65333	9.34604E-001	9.10866E-005	0.00000E+000	8.51299E-005	5.39641E-002	9.34780E-001	3.57410E+000	9	...........
	124	1.66667	9.36650E-001	9.10668E-005	0.00000E+000	8.52977E-005	5.39641E-002	9.36841E-001	3.57354E+000	9	...........
	125	1.68	9.38673E-001	9.09876E-005	0.00000E+000	8.54077E-005	5.39641E-002	9.38893E-001	3.57320E+000	9	...........
	126	1.69333	9.40673E-001	9.10408E-005	0.00000E+000	8.56396E-005	5.39641E-002	9.40884E-001	3.57320E+000	9	...........
	127	1.70667	9.42655E-001	9.11179E-005	0.00000E+000	8.58927E-005	5.39641E-002	9.42860E-001	3.57320E+000	9	...........
	128	1.72	9.44634E-001	9.10314E-005	0.00000E+000	8.59914E-005	5.39641E-002	9.44825E-001	3.57320E+000	9	...........
	129	1.73333	9.46614E-001	9.09366E-005	0.00000E+000	8.60818E-005	5.39641E-002	9.46820E-001	3.57320E+000	9	...........
	130	1.74667	9.48585E-001	9.10283E-005	0.00000E+000	8.63480E-005	5.39641E-002	9.48779E-001	3.57320E+000	9	...........
	131	1.76	9.50475E-001	9.10293E-005	0.00000E+000	8.65211E-005	5.39641E-002	9.50671E-001	3.57320E+000	9	...........
	132	1.77333	9.52333E-001	9.09783E-005	0.00000E+000	8.66416E-005	5.39641E-002	9.52536E-001	3.57320E+000	9	...........
	133	1.78667	9.54192E-001	9.10251E-005	0.00000E+000	8.68554E-005	5.39641E-002	9.54378E-001	3.57320E+000	9	...........
	134	1.8	9.56015E-001	9.10783E-005	0.00000E+000	8.70722E-005	5.39641E-002	9.56199E-001	3.57320E+000	9	...........
	135	1.81333	9.57812E-001	9.08126E-005	0.00000E+000	8.69814E-005	5.39641E-002	9.58013E-001	3.57320E+000	9	...........
	136	1.82667	9.59590E-001	9.12189E-005	0.00000E+000	8.75328E-005	5.39641E-002	9.59779E-001	3.57320E+000	9	...........
	137	1.84	9.61368E-001	9.09199E-005	0.00000E+000	8.74075E-005	5.39641E-002	9.61533E-001	3.57320E+000	9	...........
	138	1.85333	9.63101E-001	9.12752E-005	0.00000E+000	8.79072E-005	5.39641E-002	9.63261E-001	3.57320E+000	9	...........
	139	1.86667	9.64818E-001	9.08543E-005	0.00000E+000	8.76578E-005	5.39641E-002	9.64979E-001	3.57320E+000	9	...........
	140	1.88	9.66555E-001	9.09918E-005	0.00000E+000	8.79486E-005	5.39641E-002	9.66679E-001	3.57320E+000	9	...........
	141	1.89333	9.68236E-001	9.07230E-005	0.00000E+000	8.78412E-005	5.39641E-002	9.68385E-001	3.57320E+000	9	...........
	142	1.90667	9.69916E-001	9.08970E-005	0.00000E+000	8.81625E-005	5.39641E-002	9.70078E-001	3.57320E+000	9	...........
	143	1.92	9.71567E-001	9.08814E-005	0.00000E+000	8.82973E-005	5.39641E-002	9.71769E-001	3.57320E+000	9	...........
	144	1.93333	9.73244E-001	9.11627E-005	0.00000E+000	8.87235E-005	5.39641E-002	9.73401E-001	3.57320E+000	9	...........
	145	1.94667	9.74884E-001	9.10897E-005	0.00000E+000	8.88019E-005	5.39641E-002	9.75036E-001	3.57320E+000	9	...........
	146	1.96	9.76449E-001	9.09314E-005	0.00000E+000	8.87898E-005	5.39641E-002	9.76599E-001	3.57320E+000	9	...........
	147	1.97333	9.78050E-001	9.09928E-005	0.00000E+000	8.89956E-005	5.39641E-002	9.78203E-001	3.57320E+000	9	...........
	148	1.98667	9.79589E-001	9.09970E-005	0.00000E+000	8.91396E-005	5.39641E-002	9.79750E-001	3.57320E+000	9	...........
	149	2	9.81119E-001	9.11825E-005	0.00000E+000	8.94608E-005	5.39641E-002	9.81289E-001	3.57320E+000	9	...........
	150	2.01333	9.82642E-001	9.07251E-005	0.00000E+000	8.91503E-005	5.39641E-002	9.82809E-001	3.57320E+000	9	...........
	151	2.02667	9.84161E-001	9.07678E-005	0.00000E+000	8.93302E-005	5.39641E-002	9.84374E-001	3.57320E+000	9	...........
	152	2.04	9.85671E-001	9.09272E-005	0.00000E+000	8.96243E-005	5.39641E-002	9.85846E-001	3.57320E+000	9	...........
	153	2.05333	9.87153E-001	9.10783E-005	0.00000E+000	8.99082E-005	5.39641E-002	9.87326E-001	3.57320E+000	9	...........
	154	2.06667	9.88644E-001	9.10085E-005	0.00000E+000	8.99750E-005	5.39641E-002	9.88777E-001	3.57320E+000	9	...........
	155	2.08	9.90074E-001	9.10376E-005	0.00000E+000	9.01340E-005	5.39641E-002	9.90237E-001	3.57320E+000	9	...........
	156	2.09333	9.91529E-001	9.09251E-005	0.00000E+000	9.01549E-005	5.39641E-002	9.91669E-001	3.57320E+000	9	...........
	157	2.10667	9.92910E-001	9.09199E-005	0.00000E+000	9.02753E-005	5.39641E-002	9.93115E-001	3.57320E+000	9	...........
	158	2.12	9.94354E-001	9.11398E-005	0.00000E+000	9.06252E-005	5.39641E-002	9.94531E-001	3.57320E+000	9	...........
	159	2.13333	9.95753E-001	9.11293E-005	0.00000E+000	9.07423E-005	5.39641E-002	9.95940E-001	3.57320E+000	9	...........
	160	2.14667	9.97134E-001	9.07615E-005	0.00000E+000	9.05014E-005	5.39641E-002	9.97341E-001	3.57320E+000	9	...........
	161	2.16	9.98503E-001	9.10043E-005	0.00000E+000	9.08681E-005	5.39641E-002	9.98724E-001	3.57320E+000	9	...........
	162	2.17	9.99673E-001	9.07834E-005	0.00000E+000	9.07537E-005	5.39641E-002	9.99897E-001	3.57320E+000	9	...........
STARTTIMEOFFSET	QUANT	3554.11	Start Time Offset (s)
