EXPLAIN
TAG	PWR800_CHARGE
TITLE	LABEL	PWR Cyclic Charge Discharge (Cell) - Charge Step	Test &Identifier
DATE	LABEL	10-7-2017	Date
TIME	LABEL	15:17:56	Time
NOTES	NOTES	3	&Notes...
	supercap test cell
	0.9mg
	6M KOH
PSTAT	PSTAT	IFC5000-01520	Potentiostat
CAPACITY	QUANT	1.00000E-003	Capacity (A-hr)
CELLTYPE	SELECTOR	1	&Cell Type
WORKINGCONNECTION	SELECTOR	0	&Working Lead
MAXCHARGETIME	VARIABLEANDUNITS	1.00000E+002	s	1.00000E+002	second(s)	Max &Charge Time
CHARGECURRENT	QUANT	9.00000E-005	&Charge Current (A) 
VOLTAGEFINISH	TWOPARAM	F	1.00000E-003	3.60000E+003	&Voltage Finish	 I (A) < 	Max Time(s)
SAMPLETIME	QUANT	1.00000E-002	Sa&mple Period (s)
CHARGESTOPAT1	MULTIPARAM	4	1.00000E+000	Charge Stop At &1	Voltage > Limit	V
CHARGESTOPAT2	MULTIPARAM	0	0.00000E+000	Charge Stop At &2	None	N/A
AESBHCSELECTOR	TOGGLE	F	Save Both Half Cells
IRCOMP	TOGGLE	F	IR &Measure
EOC	QUANT	0	Open Circuit (V)
SEQUENCER	TOGGLE	TRUE	Run as Sequence
PSTATMODEL	IQUANT	53	Pstat Model
PSTATSECTION	LABEL	IFC5000-01520	Pstat Section
PSTATSERIALNO	LABEL	01520	Pstat Serial Number
CTRLMODE	IQUANT	0	Control Mode
ELECTROMETER	IQUANT	1	RE=0 or CS=1
IESTAB	IQUANT	0	I/E Stability
CASPEED	IQUANT	4	Control Amp Speed
CONVENTION	IQUANT	1	Current Convention
ICHRANGE	IQUANT	2	Ich Range
ICHRANGEMODE	TOGGLE	T	Ich Auto Range
ICHOFFSETENABLE	TOGGLE	F	Ich Offset Enable
ICHOFFSET	QUANT	0	Ich Offset (V)
ICHFILTER	IQUANT	1	Ich Filter
VCHRANGE	IQUANT	2	Vch Range
VCHRANGEMODE	TOGGLE	T	Vch Auto Range
VCHOFFSETENABLE	TOGGLE	F	Vch Offset Enable
VCHOFFSET	QUANT	0	Vch Offset (V)
VCHFILTER	IQUANT	1	Vch Filter
IERANGELOWERLIMIT	IQUANT	9	I/E Range Lower Limit
IERANGEMODE	TOGGLE	F	I/E AutoRange
IERANGE	IQUANT	9	I/E Range
ACHSELECT	IQUANT	1	Ach Select
ACHRANGE	IQUANT	2	Ach Range
ACHOFFSETENABLE	TOGGLE	F	Ach Offset Enable
ACHOFFSET	QUANT	0	Ach Offset (V)
ACHFILTER	IQUANT	1	Ach Filter
CABLEID	IQUANT	14	Cable ID
DCCALDATE	LABEL	5-7-2017	DC Calibration Date
ACCALDATE	LABEL	12/3/2015	AC Calibration Date
FRAMEWORKVERSION	QUANT	7.01	Framework Version
INSTRUMENTVERSION	LABEL	4.00	Instrument Version
CURVE	TABLE	180
	Pt	T	Vf	Im	Vu	Pwr	Sig	Ach	Temp	IERange	Over
	#	s	V	A	V	W	V	V	deg C	#	bits
	0	0.013333	2.87478E-001	9.12148E-005	0.00000E+000	2.62223E-005	5.39641E-002	2.87515E-001	3.57230E+000	9	...........
	1	0.026667	3.06822E-001	9.09637E-005	0.00000E+000	2.79097E-005	5.39641E-002	3.06856E-001	3.57230E+000	9	...........
	2	0.04	3.24694E-001	9.11377E-005	0.00000E+000	2.95919E-005	5.39641E-002	3.24728E-001	3.57230E+000	9	...........
	3	0.053333	3.41358E-001	9.11283E-005	0.00000E+000	3.11074E-005	5.39641E-002	3.41395E-001	3.57230E+000	9	...........
	4	0.066667	3.57003E-001	9.09855E-005	0.00000E+000	3.24821E-005	5.39641E-002	3.57046E-001	3.57230E+000	9	...........
	5	0.08	3.71748E-001	9.11533E-005	0.00000E+000	3.38860E-005	5.39641E-002	3.71792E-001	3.57230E+000	9	...........
	6	0.093333	3.85710E-001	9.10772E-005	0.00000E+000	3.51294E-005	5.39641E-002	3.85750E-001	3.57230E+000	9	...........
	7	0.106667	3.98989E-001	9.10970E-005	0.00000E+000	3.63468E-005	5.39641E-002	3.99032E-001	3.57230E+000	9	...........
	8	0.12	4.11656E-001	9.09418E-005	0.00000E+000	3.74367E-005	5.39641E-002	4.11700E-001	3.57230E+000	9	...........
	9	0.133333	4.23775E-001	9.11074E-005	0.00000E+000	3.86091E-005	5.39641E-002	4.23830E-001	3.57230E+000	9	...........
	10	0.146667	4.35400E-001	9.11804E-005	0.00000E+000	3.96999E-005	5.39641E-002	4.35449E-001	3.57230E+000	9	...........
	11	0.16	4.46566E-001	9.10293E-005	0.00000E+000	4.06506E-005	5.39641E-002	4.46619E-001	3.57230E+000	9	...........
	12	0.173333	4.57312E-001	9.10647E-005	0.00000E+000	4.16450E-005	5.39641E-002	4.57362E-001	3.57230E+000	9	...........
	13	0.186667	4.67673E-001	9.09814E-005	0.00000E+000	4.25495E-005	5.39641E-002	4.67720E-001	3.57230E+000	9	...........
	14	0.2	4.77662E-001	9.13294E-005	0.00000E+000	4.36246E-005	5.39641E-002	4.77710E-001	3.57230E+000	9	...........
	15	0.213333	4.87309E-001	9.10439E-005	0.00000E+000	4.43665E-005	5.39641E-002	4.87362E-001	3.57230E+000	9	...........
	16	0.226667	4.96640E-001	9.11648E-005	0.00000E+000	4.52761E-005	5.39641E-002	4.96702E-001	3.57230E+000	9	...........
	17	0.24	5.05680E-001	9.10022E-005	0.00000E+000	4.60180E-005	5.39641E-002	5.05739E-001	3.57230E+000	9	...........
	18	0.253333	5.14439E-001	9.14888E-005	0.00000E+000	4.70654E-005	5.39641E-002	5.14494E-001	3.57230E+000	9	...........
	19	0.266667	5.22944E-001	9.11252E-005	0.00000E+000	4.76534E-005	5.39641E-002	5.23002E-001	3.57230E+000	9	...........
	20	0.28	5.31189E-001	9.12439E-005	0.00000E+000	4.84678E-005	5.39641E-002	5.31253E-001	3.57230E+000	9	...........
	21	0.293333	5.39186E-001	9.11731E-005	0.00000E+000	4.91592E-005	5.39641E-002	5.39256E-001	3.57230E+000	9	...........
	22	0.306667	5.46979E-001	9.12491E-005	0.00000E+000	4.99113E-005	5.39641E-002	5.47025E-001	3.57230E+000	9	...........
	23	0.32	5.54570E-001	9.08386E-005	0.00000E+000	5.03764E-005	5.39641E-002	5.54635E-001	3.57230E+000	9	...........
	24	0.333333	5.61999E-001	9.10356E-005	0.00000E+000	5.11619E-005	5.39641E-002	5.62064E-001	3.57230E+000	9	...........
	25	0.346667	5.69234E-001	9.11898E-005	0.00000E+000	5.19083E-005	5.39641E-002	5.69255E-001	3.57230E+000	9	...........
	26	0.36	5.76233E-001	9.09533E-005	0.00000E+000	5.24103E-005	5.39641E-002	5.76287E-001	3.57230E+000	9	...........
	27	0.373333	5.83099E-001	9.09407E-005	0.00000E+000	5.30275E-005	5.39641E-002	5.83170E-001	3.57230E+000	9	...........
	28	0.386667	5.89836E-001	9.06959E-005	0.00000E+000	5.34957E-005	5.39641E-002	5.89923E-001	3.57230E+000	9	...........
	29	0.4	5.96387E-001	9.11345E-005	0.00000E+000	5.43514E-005	5.39641E-002	5.96490E-001	3.57230E+000	9	...........
	30	0.413333	6.02777E-001	9.12502E-005	0.00000E+000	5.50035E-005	5.39641E-002	6.02937E-001	3.57230E+000	9	...........
	31	0.426667	6.09062E-001	9.10939E-005	0.00000E+000	5.54818E-005	5.39641E-002	6.09190E-001	3.57230E+000	9	...........
	32	0.44	6.15225E-001	9.10366E-005	0.00000E+000	5.60080E-005	5.39641E-002	6.15346E-001	3.57230E+000	9	...........
	33	0.453333	6.21251E-001	9.12002E-005	0.00000E+000	5.66582E-005	5.39641E-002	6.21334E-001	3.57230E+000	9	...........
	34	0.466667	6.27102E-001	9.10699E-005	0.00000E+000	5.71101E-005	5.39641E-002	6.27221E-001	3.57230E+000	9	...........
	35	0.48	6.32868E-001	9.09970E-005	0.00000E+000	5.75891E-005	5.39641E-002	6.32966E-001	3.57230E+000	9	...........
	36	0.493333	6.38516E-001	9.11762E-005	0.00000E+000	5.82175E-005	5.39641E-002	6.38617E-001	3.57230E+000	9	...........
	37	0.506667	6.44056E-001	9.08772E-005	0.00000E+000	5.85300E-005	5.39641E-002	6.44164E-001	3.57230E+000	9	...........
	38	0.52	6.49476E-001	9.09168E-005	0.00000E+000	5.90483E-005	5.39641E-002	6.49588E-001	3.57230E+000	9	...........
	39	0.533333	6.54825E-001	9.12679E-005	0.00000E+000	5.97645E-005	5.39641E-002	6.54916E-001	3.57230E+000	9	...........
	40	0.546667	6.60025E-001	9.13200E-005	0.00000E+000	6.02735E-005	5.39641E-002	6.60143E-001	3.57230E+000	9	...........
	41	0.56	6.65192E-001	9.08168E-005	0.00000E+000	6.04106E-005	5.39641E-002	6.65314E-001	3.57230E+000	9	...........
	42	0.573333	6.70267E-001	9.07772E-005	0.00000E+000	6.08449E-005	5.39641E-002	6.70373E-001	3.57230E+000	9	...........
	43	0.586667	6.75201E-001	9.13106E-005	0.00000E+000	6.16530E-005	5.39641E-002	6.75295E-001	3.57230E+000	9	...........
	44	0.6	6.80055E-001	9.11179E-005	0.00000E+000	6.19652E-005	5.39641E-002	6.80154E-001	3.57230E+000	9	...........
	45	0.613333	6.84832E-001	9.12127E-005	0.00000E+000	6.24654E-005	5.39641E-002	6.84948E-001	3.57230E+000	9	...........
	46	0.626667	6.89538E-001	9.10679E-005	0.00000E+000	6.27947E-005	5.39641E-002	6.89650E-001	3.57230E+000	9	...........
	47	0.64	6.94175E-001	9.12721E-005	0.00000E+000	6.33588E-005	5.39641E-002	6.94273E-001	3.57230E+000	9	...........
	48	0.653333	6.98720E-001	9.11554E-005	0.00000E+000	6.36921E-005	5.39641E-002	6.98848E-001	3.57230E+000	9	...........
	49	0.666667	7.03196E-001	9.10720E-005	0.00000E+000	6.40415E-005	5.39641E-002	7.03304E-001	3.57255E+000	9	...........
	50	0.68	7.07580E-001	9.10845E-005	0.00000E+000	6.44496E-005	5.39641E-002	7.07709E-001	3.57330E+000	9	...........
	51	0.693333	7.11915E-001	9.10668E-005	0.00000E+000	6.48318E-005	5.39641E-002	7.12039E-001	3.57330E+000	9	...........
	52	0.706667	7.16191E-001	9.09949E-005	0.00000E+000	6.51698E-005	5.39641E-002	7.16326E-001	3.57330E+000	9	...........
	53	0.72	7.20441E-001	9.11325E-005	0.00000E+000	6.56556E-005	5.39641E-002	7.20534E-001	3.57330E+000	9	...........
	54	0.733333	7.24573E-001	9.12200E-005	0.00000E+000	6.60955E-005	5.39641E-002	7.24650E-001	3.57330E+000	9	...........
	55	0.746667	7.28636E-001	9.10918E-005	0.00000E+000	6.63728E-005	5.39641E-002	7.28733E-001	3.57330E+000	9	...........
	56	0.76	7.32636E-001	9.11679E-005	0.00000E+000	6.67929E-005	5.39641E-002	7.32749E-001	3.57330E+000	9	...........
	57	0.773333	7.36587E-001	9.11408E-005	0.00000E+000	6.71332E-005	5.39641E-002	7.36704E-001	3.57330E+000	9	...........
	58	0.786667	7.40480E-001	9.11804E-005	0.00000E+000	6.75173E-005	5.39641E-002	7.40594E-001	3.57330E+000	9	...........
	59	0.8	7.44352E-001	9.12262E-005	0.00000E+000	6.79044E-005	5.39641E-002	7.44461E-001	3.57330E+000	9	...........
	60	0.813333	7.48133E-001	9.09105E-005	0.00000E+000	6.80132E-005	5.39641E-002	7.48251E-001	3.57330E+000	9	...........
	61	0.826667	7.51872E-001	9.11512E-005	0.00000E+000	6.85340E-005	5.39641E-002	7.51991E-001	3.57330E+000	9	...........
	62	0.84	7.55583E-001	9.10793E-005	0.00000E+000	6.88180E-005	5.39641E-002	7.55701E-001	3.57330E+000	9	...........
	63	0.853333	7.59220E-001	9.10324E-005	0.00000E+000	6.91136E-005	5.39641E-002	7.59334E-001	3.57330E+000	9	...........
	64	0.866667	7.62815E-001	9.11825E-005	0.00000E+000	6.95553E-005	5.39641E-002	7.62919E-001	3.57330E+000	9	...........
	65	0.88	7.66315E-001	9.11689E-005	0.00000E+000	6.98641E-005	5.39641E-002	7.66467E-001	3.57330E+000	9	...........
	66	0.893333	7.69850E-001	9.13210E-005	0.00000E+000	7.03035E-005	5.39641E-002	7.69971E-001	3.57330E+000	9	...........
	67	0.906667	7.73308E-001	9.14054E-005	0.00000E+000	7.06846E-005	5.39641E-002	7.73424E-001	3.57330E+000	9	...........
	68	0.92	7.76698E-001	9.10991E-005	0.00000E+000	7.07565E-005	5.39641E-002	7.76850E-001	3.57330E+000	9	...........
	69	0.933333	7.80067E-001	9.11918E-005	0.00000E+000	7.11358E-005	5.39641E-002	7.80220E-001	3.57330E+000	9	...........
	70	0.946667	7.83387E-001	9.09001E-005	0.00000E+000	7.12100E-005	5.39641E-002	7.83526E-001	3.57330E+000	9	...........
	71	0.96	7.86662E-001	9.11314E-005	0.00000E+000	7.16896E-005	5.39641E-002	7.86807E-001	3.57330E+000	9	...........
	72	0.97333	7.89933E-001	9.11210E-005	0.00000E+000	7.19795E-005	5.39641E-002	7.90087E-001	3.57330E+000	9	...........
	73	0.98667	7.93152E-001	9.11158E-005	0.00000E+000	7.22687E-005	5.39641E-002	7.93346E-001	3.57330E+000	9	...........
	74	1	7.96357E-001	9.08053E-005	0.00000E+000	7.23134E-005	5.39641E-002	7.96479E-001	3.57330E+000	9	...........
	75	1.01333	7.99502E-001	9.10814E-005	0.00000E+000	7.28197E-005	5.39641E-002	7.99634E-001	3.57330E+000	9	...........
	76	1.02667	8.02622E-001	9.09407E-005	0.00000E+000	7.29910E-005	5.39641E-002	8.02745E-001	3.57330E+000	9	...........
	77	1.04	8.05689E-001	9.12085E-005	0.00000E+000	7.34857E-005	5.39641E-002	8.05833E-001	3.57330E+000	9	...........
	78	1.05333	8.08717E-001	9.09407E-005	0.00000E+000	7.35453E-005	5.39641E-002	8.08855E-001	3.57330E+000	9	...........
	79	1.06667	8.11718E-001	9.11314E-005	0.00000E+000	7.39730E-005	5.39641E-002	8.11870E-001	3.57330E+000	9	...........
	80	1.08	8.14690E-001	9.11106E-005	0.00000E+000	7.42269E-005	5.39641E-002	8.14858E-001	3.57330E+000	9	...........
	81	1.09333	8.17652E-001	9.13304E-005	0.00000E+000	7.46765E-005	5.39641E-002	8.17792E-001	3.57330E+000	9	...........
	82	1.10667	8.20566E-001	9.07542E-005	0.00000E+000	7.44698E-005	5.39641E-002	8.20710E-001	3.57330E+000	9	...........
	83	1.12	8.23449E-001	9.09220E-005	0.00000E+000	7.48697E-005	5.39641E-002	8.23560E-001	3.57330E+000	9	...........
	84	1.13333	8.26289E-001	9.11731E-005	0.00000E+000	7.53353E-005	5.39641E-002	8.26397E-001	3.57330E+000	9	...........
	85	1.14667	8.29107E-001	9.09991E-005	0.00000E+000	7.54479E-005	5.39641E-002	8.29216E-001	3.57330E+000	9	...........
	86	1.16	8.31911E-001	9.09678E-005	0.00000E+000	7.56772E-005	5.39641E-002	8.32011E-001	3.57330E+000	9	...........
	87	1.17333	8.34670E-001	9.10949E-005	0.00000E+000	7.60342E-005	5.39641E-002	8.34793E-001	3.57330E+000	9	...........
	88	1.18667	8.37363E-001	9.11616E-005	0.00000E+000	7.63354E-005	5.39641E-002	8.37537E-001	3.57330E+000	9	...........
	89	1.2	8.40091E-001	9.12679E-005	0.00000E+000	7.66733E-005	5.39641E-002	8.40232E-001	3.57330E+000	9	...........
	90	1.21333	8.42737E-001	9.09605E-005	0.00000E+000	7.66558E-005	5.39641E-002	8.42920E-001	3.57330E+000	9	...........
	91	1.22667	8.45405E-001	9.12346E-005	0.00000E+000	7.71302E-005	5.39641E-002	8.45569E-001	3.57330E+000	9	...........
	92	1.24	8.48016E-001	9.12283E-005	0.00000E+000	7.73631E-005	5.39641E-002	8.48193E-001	3.57330E+000	9	...........
	93	1.25333	8.50617E-001	9.09084E-005	0.00000E+000	7.73283E-005	5.39641E-002	8.50778E-001	3.57330E+000	9	...........
	94	1.26667	8.53167E-001	9.11179E-005	0.00000E+000	7.77387E-005	5.39641E-002	8.53327E-001	3.57330E+000	9	...........
	95	1.28	8.55671E-001	9.11929E-005	0.00000E+000	7.80311E-005	5.39641E-002	8.55839E-001	3.57330E+000	9	...........
	96	1.29333	8.58191E-001	9.11700E-005	0.00000E+000	7.82412E-005	5.39641E-002	8.58349E-001	3.57330E+000	9	...........
	97	1.30667	8.60685E-001	9.09532E-005	0.00000E+000	7.82821E-005	5.39641E-002	8.60816E-001	3.57330E+000	9	...........
	98	1.32	8.63128E-001	9.07636E-005	0.00000E+000	7.83406E-005	5.39641E-002	8.63248E-001	3.57330E+000	9	...........
	99	1.33333	8.65564E-001	9.09626E-005	0.00000E+000	7.87340E-005	5.39641E-002	8.65691E-001	3.57330E+000	9	...........
	100	1.34667	8.67981E-001	9.10856E-005	0.00000E+000	7.90605E-005	5.39641E-002	8.68129E-001	3.57330E+000	9	...........
	101	1.36	8.70391E-001	9.12794E-005	0.00000E+000	7.94487E-005	5.39641E-002	8.70546E-001	3.57330E+000	9	...........
	102	1.37333	8.72763E-001	9.11002E-005	0.00000E+000	7.95088E-005	5.39641E-002	8.72944E-001	3.57330E+000	9	...........
	103	1.38667	8.75109E-001	9.12398E-005	0.00000E+000	7.98447E-005	5.39641E-002	8.75287E-001	3.57330E+000	9	...........
	104	1.4	8.77437E-001	9.12429E-005	0.00000E+000	8.00599E-005	5.39641E-002	8.77592E-001	3.57330E+000	9	...........
	105	1.41333	8.79720E-001	9.09147E-005	0.00000E+000	7.99795E-005	5.39641E-002	8.79893E-001	3.57330E+000	9	...........
	106	1.42667	8.81987E-001	9.09418E-005	0.00000E+000	8.02095E-005	5.39641E-002	8.82192E-001	3.57330E+000	9	...........
	107	1.44	8.84276E-001	9.10585E-005	0.00000E+000	8.05208E-005	5.39641E-002	8.84461E-001	3.57330E+000	9	...........
	108	1.45333	8.86532E-001	9.11523E-005	0.00000E+000	8.08094E-005	5.39641E-002	8.86682E-001	3.57330E+000	9	...........
	109	1.46667	8.88712E-001	9.11356E-005	0.00000E+000	8.09933E-005	5.39641E-002	8.88880E-001	3.57330E+000	9	...........
	110	1.48	8.90904E-001	9.09689E-005	0.00000E+000	8.10446E-005	5.39641E-002	8.91079E-001	3.57330E+000	9	...........
	111	1.49333	8.93067E-001	9.12523E-005	0.00000E+000	8.14943E-005	5.39641E-002	8.93241E-001	3.57330E+000	9	...........
	112	1.50667	8.95212E-001	9.10303E-005	0.00000E+000	8.14915E-005	5.39641E-002	8.95422E-001	3.57330E+000	9	...........
	113	1.52	8.97319E-001	9.10606E-005	0.00000E+000	8.17104E-005	5.39641E-002	8.97512E-001	3.57330E+000	9	...........
	114	1.53333	8.99405E-001	9.14784E-005	0.00000E+000	8.22761E-005	5.39641E-002	8.99589E-001	3.57330E+000	9	...........
	115	1.54667	9.01465E-001	9.11116E-005	0.00000E+000	8.21339E-005	5.39641E-002	9.01659E-001	3.57330E+000	9	...........
	116	1.56	9.03522E-001	9.09303E-005	0.00000E+000	8.21575E-005	5.39641E-002	9.03718E-001	3.57330E+000	9	...........
	117	1.57333	9.05540E-001	9.10481E-005	0.00000E+000	8.24476E-005	5.39641E-002	9.05723E-001	3.57330E+000	9	...........
	118	1.58667	9.07554E-001	9.09699E-005	0.00000E+000	8.25601E-005	5.39641E-002	9.07773E-001	3.57330E+000	9	...........
	119	1.6	9.09554E-001	9.11200E-005	0.00000E+000	8.28785E-005	5.39641E-002	9.09760E-001	3.57330E+000	9	...........
	120	1.61333	9.11552E-001	9.10220E-005	0.00000E+000	8.29713E-005	5.39641E-002	9.11735E-001	3.57330E+000	9	...........
	121	1.62667	9.13500E-001	9.09689E-005	0.00000E+000	8.31001E-005	5.39641E-002	9.13714E-001	3.57330E+000	9	...........
	122	1.64	9.15442E-001	9.10012E-005	0.00000E+000	8.33063E-005	5.39641E-002	9.15665E-001	3.57330E+000	9	...........
	123	1.65333	9.17347E-001	9.11627E-005	0.00000E+000	8.36278E-005	5.39641E-002	9.17558E-001	3.57330E+000	9	...........
	124	1.66667	9.19214E-001	9.11033E-005	0.00000E+000	8.37434E-005	5.39641E-002	9.19420E-001	3.57310E+000	9	...........
	125	1.68	9.21128E-001	9.09553E-005	0.00000E+000	8.37815E-005	5.39641E-002	9.21319E-001	3.57250E+000	9	...........
	126	1.69333	9.23021E-001	9.10595E-005	0.00000E+000	8.40499E-005	5.39641E-002	9.23169E-001	3.57250E+000	9	...........
	127	1.70667	9.24861E-001	9.11272E-005	0.00000E+000	8.42800E-005	5.39641E-002	9.25038E-001	3.57250E+000	9	...........
	128	1.72	9.26659E-001	9.11387E-005	0.00000E+000	8.44545E-005	5.39641E-002	9.26853E-001	3.57250E+000	9	...........
	129	1.73333	9.28492E-001	9.13242E-005	0.00000E+000	8.47938E-005	5.39641E-002	9.28648E-001	3.57250E+000	9	...........
	130	1.74667	9.30268E-001	9.13294E-005	0.00000E+000	8.49608E-005	5.39641E-002	9.30425E-001	3.57250E+000	9	...........
	131	1.76	9.32041E-001	9.10522E-005	0.00000E+000	8.48644E-005	5.39641E-002	9.32210E-001	3.57250E+000	9	...........
	132	1.77333	9.33820E-001	9.08334E-005	0.00000E+000	8.48221E-005	5.39641E-002	9.34009E-001	3.57250E+000	9	...........
	133	1.78667	9.35573E-001	9.12721E-005	0.00000E+000	8.53917E-005	5.39641E-002	9.35745E-001	3.57250E+000	9	...........
	134	1.8	9.37282E-001	9.13440E-005	0.00000E+000	8.56150E-005	5.39641E-002	9.37472E-001	3.57250E+000	9	...........
	135	1.81333	9.38975E-001	9.11095E-005	0.00000E+000	8.55496E-005	5.39641E-002	9.39160E-001	3.57250E+000	9	...........
	136	1.82667	9.40658E-001	9.12627E-005	0.00000E+000	8.58470E-005	5.39641E-002	9.40824E-001	3.57250E+000	9	...........
	137	1.84	9.42327E-001	9.11116E-005	0.00000E+000	8.58570E-005	5.39641E-002	9.42514E-001	3.57250E+000	9	...........
	138	1.85333	9.43984E-001	9.14242E-005	0.00000E+000	8.63030E-005	5.39641E-002	9.44138E-001	3.57250E+000	9	...........
	139	1.86667	9.45601E-001	9.13325E-005	0.00000E+000	8.63641E-005	5.39641E-002	9.45785E-001	3.57250E+000	9	...........
	140	1.88	9.47273E-001	9.10897E-005	0.00000E+000	8.62868E-005	5.39641E-002	9.47439E-001	3.57250E+000	9	...........
	141	1.89333	9.48872E-001	9.11585E-005	0.00000E+000	8.64978E-005	5.39641E-002	9.49036E-001	3.57250E+000	9	...........
	142	1.90667	9.50455E-001	9.12023E-005	0.00000E+000	8.66837E-005	5.39641E-002	9.50638E-001	3.57250E+000	9	...........
	143	1.92	9.52055E-001	9.13117E-005	0.00000E+000	8.69337E-005	5.39641E-002	9.52223E-001	3.57250E+000	9	...........
	144	1.93333	9.53659E-001	9.12095E-005	0.00000E+000	8.69828E-005	5.39641E-002	9.53798E-001	3.57250E+000	9	...........
	145	1.94667	9.55197E-001	9.10793E-005	0.00000E+000	8.69987E-005	5.39641E-002	9.55363E-001	3.57250E+000	9	...........
	146	1.96	9.56758E-001	9.12106E-005	0.00000E+000	8.72664E-005	5.39641E-002	9.56876E-001	3.57250E+000	9	...........
	147	1.97333	9.58259E-001	9.10116E-005	0.00000E+000	8.72127E-005	5.39641E-002	9.58415E-001	3.57250E+000	9	...........
	148	1.98667	9.59780E-001	9.11127E-005	0.00000E+000	8.74481E-005	5.39641E-002	9.59918E-001	3.57250E+000	9	...........
	149	2	9.61265E-001	9.10949E-005	0.00000E+000	8.75664E-005	5.39641E-002	9.61410E-001	3.57250E+000	9	...........
	150	2.01333	9.62730E-001	9.11356E-005	0.00000E+000	8.77389E-005	5.39641E-002	9.62899E-001	3.57250E+000	9	...........
	151	2.02667	9.64179E-001	9.12064E-005	0.00000E+000	8.79393E-005	5.39641E-002	9.64346E-001	3.57250E+000	9	...........
	152	2.04	9.65627E-001	9.10960E-005	0.00000E+000	8.79647E-005	5.39641E-002	9.65798E-001	3.57250E+000	9	...........
	153	2.05333	9.67041E-001	9.11200E-005	0.00000E+000	8.81168E-005	5.39641E-002	9.67203E-001	3.57250E+000	9	...........
	154	2.06667	9.68441E-001	9.10470E-005	0.00000E+000	8.81736E-005	5.39641E-002	9.68630E-001	3.57250E+000	9	...........
	155	2.08	9.69847E-001	9.11554E-005	0.00000E+000	8.84068E-005	5.39641E-002	9.70043E-001	3.57250E+000	9	...........
	156	2.09333	9.71247E-001	9.09147E-005	0.00000E+000	8.83006E-005	5.39641E-002	9.71470E-001	3.57250E+000	9	...........
	157	2.10667	9.72631E-001	9.09678E-005	0.00000E+000	8.84781E-005	5.39641E-002	9.72841E-001	3.57250E+000	9	...........
	158	2.12	9.74035E-001	9.11543E-005	0.00000E+000	8.87875E-005	5.39641E-002	9.74191E-001	3.57250E+000	9	...........
	159	2.13333	9.75388E-001	9.11387E-005	0.00000E+000	8.88956E-005	5.39641E-002	9.75545E-001	3.57250E+000	9	...........
	160	2.14667	9.76717E-001	9.12054E-005	0.00000E+000	8.90819E-005	5.39641E-002	9.76884E-001	3.57250E+000	9	...........
	161	2.16	9.78034E-001	9.11887E-005	0.00000E+000	8.91857E-005	5.39641E-002	9.78222E-001	3.57250E+000	9	...........
	162	2.17333	9.79383E-001	9.13023E-005	0.00000E+000	8.94199E-005	5.39641E-002	9.79558E-001	3.57250E+000	9	...........
	163	2.18667	9.80699E-001	9.11731E-005	0.00000E+000	8.94133E-005	5.39641E-002	9.80875E-001	3.57250E+000	9	...........
	164	2.2	9.81984E-001	9.11304E-005	0.00000E+000	8.94886E-005	5.39641E-002	9.82169E-001	3.57250E+000	9	...........
	165	2.21333	9.83285E-001	9.09699E-005	0.00000E+000	8.94493E-005	5.39641E-002	9.83449E-001	3.57250E+000	9	...........
	166	2.22667	9.84554E-001	9.11512E-005	0.00000E+000	8.97433E-005	5.39641E-002	9.84740E-001	3.57250E+000	9	...........
	167	2.24	9.85810E-001	9.09324E-005	0.00000E+000	8.96420E-005	5.39641E-002	9.86010E-001	3.57250E+000	9	...........
	168	2.25333	9.87056E-001	9.13617E-005	0.00000E+000	9.01791E-005	5.39641E-002	9.87274E-001	3.57250E+000	9	...........
	169	2.26667	9.88320E-001	9.09178E-005	0.00000E+000	8.98560E-005	5.39641E-002	9.88496E-001	3.57250E+000	9	...........
	170	2.28	9.89558E-001	9.11200E-005	0.00000E+000	9.01685E-005	5.39641E-002	9.89730E-001	3.57250E+000	9	...........
	171	2.29333	9.90758E-001	9.12221E-005	0.00000E+000	9.03789E-005	5.39641E-002	9.90939E-001	3.57250E+000	9	...........
	172	2.30667	9.91957E-001	9.09053E-005	0.00000E+000	9.01741E-005	5.39641E-002	9.92144E-001	3.57250E+000	9	...........
	173	2.32	9.93149E-001	9.10126E-005	0.00000E+000	9.03891E-005	5.39641E-002	9.93359E-001	3.57250E+000	9	...........
	174	2.33333	9.94343E-001	9.10908E-005	0.00000E+000	9.05754E-005	5.39641E-002	9.94530E-001	3.57250E+000	9	...........
	175	2.34667	9.95528E-001	9.13690E-005	0.00000E+000	9.09604E-005	5.39641E-002	9.95690E-001	3.57250E+000	9	...........
	176	2.36	9.96674E-001	9.10887E-005	0.00000E+000	9.07857E-005	5.39641E-002	9.96860E-001	3.57250E+000	9	...........
	177	2.37333	9.97818E-001	9.11241E-005	0.00000E+000	9.09253E-005	5.39641E-002	9.98011E-001	3.57250E+000	9	...........
	178	2.38667	9.98991E-001	9.10856E-005	0.00000E+000	9.09936E-005	5.39641E-002	9.99121E-001	3.57250E+000	9	...........
	179	2.39333	9.99826E-001	9.06938E-005	0.00000E+000	9.06780E-005	5.39641E-002	9.99970E-001	3.57250E+000	9	...........
STARTTIMEOFFSET	QUANT	948.8713	Start Time Offset (s)
