EXPLAIN
TAG	PWR800_CHARGE
TITLE	LABEL	PWR Cyclic Charge Discharge (Cell) - Charge Step	Test &Identifier
DATE	LABEL	10-7-2017	Date
TIME	LABEL	15:55:34	Time
NOTES	NOTES	3	&Notes...
	supercap test cell
	0.9mg
	6M KOH
PSTAT	PSTAT	IFC5000-01520	Potentiostat
CAPACITY	QUANT	1.00000E-003	Capacity (A-hr)
CELLTYPE	SELECTOR	1	&Cell Type
WORKINGCONNECTION	SELECTOR	0	&Working Lead
MAXCHARGETIME	VARIABLEANDUNITS	1.00000E+002	s	1.00000E+002	second(s)	Max &Charge Time
CHARGECURRENT	QUANT	9.00000E-005	&Charge Current (A) 
VOLTAGEFINISH	TWOPARAM	F	1.00000E-003	3.60000E+003	&Voltage Finish	 I (A) < 	Max Time(s)
SAMPLETIME	QUANT	1.00000E-002	Sa&mple Period (s)
CHARGESTOPAT1	MULTIPARAM	4	1.00000E+000	Charge Stop At &1	Voltage > Limit	V
CHARGESTOPAT2	MULTIPARAM	0	0.00000E+000	Charge Stop At &2	None	N/A
AESBHCSELECTOR	TOGGLE	F	Save Both Half Cells
IRCOMP	TOGGLE	F	IR &Measure
EOC	QUANT	0	Open Circuit (V)
SEQUENCER	TOGGLE	TRUE	Run as Sequence
PSTATMODEL	IQUANT	53	Pstat Model
PSTATSECTION	LABEL	IFC5000-01520	Pstat Section
PSTATSERIALNO	LABEL	01520	Pstat Serial Number
CTRLMODE	IQUANT	0	Control Mode
ELECTROMETER	IQUANT	1	RE=0 or CS=1
IESTAB	IQUANT	0	I/E Stability
CASPEED	IQUANT	4	Control Amp Speed
CONVENTION	IQUANT	1	Current Convention
ICHRANGE	IQUANT	2	Ich Range
ICHRANGEMODE	TOGGLE	T	Ich Auto Range
ICHOFFSETENABLE	TOGGLE	F	Ich Offset Enable
ICHOFFSET	QUANT	0	Ich Offset (V)
ICHFILTER	IQUANT	1	Ich Filter
VCHRANGE	IQUANT	2	Vch Range
VCHRANGEMODE	TOGGLE	T	Vch Auto Range
VCHOFFSETENABLE	TOGGLE	F	Vch Offset Enable
VCHOFFSET	QUANT	0	Vch Offset (V)
VCHFILTER	IQUANT	1	Vch Filter
IERANGELOWERLIMIT	IQUANT	9	I/E Range Lower Limit
IERANGEMODE	TOGGLE	F	I/E AutoRange
IERANGE	IQUANT	9	I/E Range
ACHSELECT	IQUANT	1	Ach Select
ACHRANGE	IQUANT	2	Ach Range
ACHOFFSETENABLE	TOGGLE	F	Ach Offset Enable
ACHOFFSET	QUANT	0	Ach Offset (V)
ACHFILTER	IQUANT	1	Ach Filter
CABLEID	IQUANT	14	Cable ID
DCCALDATE	LABEL	5-7-2017	DC Calibration Date
ACCALDATE	LABEL	12/3/2015	AC Calibration Date
FRAMEWORKVERSION	QUANT	7.01	Framework Version
INSTRUMENTVERSION	LABEL	4.00	Instrument Version
CURVE	TABLE	165
	Pt	T	Vf	Im	Vu	Pwr	Sig	Ach	Temp	IERange	Over
	#	s	V	A	V	W	V	V	deg C	#	bits
	0	0.013333	2.67295E-001	9.08043E-005	0.00000E+000	2.42715E-005	5.39641E-002	2.67338E-001	3.57300E+000	9	...........
	1	0.026667	2.87063E-001	9.08074E-005	0.00000E+000	2.60674E-005	5.39641E-002	2.87102E-001	3.57300E+000	9	...........
	2	0.04	3.05572E-001	9.10366E-005	0.00000E+000	2.78182E-005	5.39641E-002	3.05619E-001	3.57300E+000	9	...........
	3	0.053333	3.23006E-001	9.07261E-005	0.00000E+000	2.93051E-005	5.39641E-002	3.23051E-001	3.57300E+000	9	...........
	4	0.066667	3.39477E-001	9.10897E-005	0.00000E+000	3.09229E-005	5.39641E-002	3.39524E-001	3.57300E+000	9	...........
	5	0.08	3.55090E-001	9.09803E-005	0.00000E+000	3.23062E-005	5.39641E-002	3.55137E-001	3.57300E+000	9	...........
	6	0.093333	3.69924E-001	9.08345E-005	0.00000E+000	3.36019E-005	5.39641E-002	3.69976E-001	3.57300E+000	9	...........
	7	0.106667	3.84067E-001	9.09522E-005	0.00000E+000	3.49318E-005	5.39641E-002	3.84117E-001	3.57300E+000	9	...........
	8	0.12	3.97549E-001	9.09460E-005	0.00000E+000	3.61555E-005	5.39641E-002	3.97600E-001	3.57300E+000	9	...........
	9	0.133333	4.10422E-001	9.08980E-005	0.00000E+000	3.73065E-005	5.39641E-002	4.10477E-001	3.57300E+000	9	...........
	10	0.146667	4.22775E-001	9.07220E-005	0.00000E+000	3.83550E-005	5.39641E-002	4.22828E-001	3.57300E+000	9	...........
	11	0.16	4.34621E-001	9.11033E-005	0.00000E+000	3.95954E-005	5.39641E-002	4.34681E-001	3.57300E+000	9	...........
	12	0.173333	4.46012E-001	9.11064E-005	0.00000E+000	4.06345E-005	5.39641E-002	4.46069E-001	3.57300E+000	9	...........
	13	0.186667	4.56964E-001	9.11491E-005	0.00000E+000	4.16519E-005	5.39641E-002	4.57024E-001	3.57300E+000	9	...........
	14	0.2	4.67527E-001	9.08668E-005	0.00000E+000	4.24826E-005	5.39641E-002	4.67586E-001	3.57300E+000	9	...........
	15	0.213333	4.77706E-001	9.07928E-005	0.00000E+000	4.33723E-005	5.39641E-002	4.77765E-001	3.57300E+000	9	...........
	16	0.226667	4.87538E-001	9.08887E-005	0.00000E+000	4.43117E-005	5.39641E-002	4.87609E-001	3.57300E+000	9	...........
	17	0.24	4.97054E-001	9.10554E-005	0.00000E+000	4.52595E-005	5.39641E-002	4.97123E-001	3.57300E+000	9	...........
	18	0.253333	5.06260E-001	9.11189E-005	0.00000E+000	4.61299E-005	5.39641E-002	5.06329E-001	3.57300E+000	9	...........
	19	0.266667	5.15191E-001	9.12398E-005	0.00000E+000	4.70059E-005	5.39641E-002	5.15263E-001	3.57300E+000	9	...........
	20	0.28	5.23858E-001	9.07324E-005	0.00000E+000	4.75309E-005	5.39641E-002	5.23928E-001	3.57300E+000	9	...........
	21	0.293333	5.32241E-001	9.12783E-005	0.00000E+000	4.85820E-005	5.39641E-002	5.32305E-001	3.57300E+000	9	...........
	22	0.306667	5.40361E-001	9.09397E-005	0.00000E+000	4.91403E-005	5.39641E-002	5.40461E-001	3.57300E+000	9	...........
	23	0.32	5.48332E-001	9.10501E-005	0.00000E+000	4.99257E-005	5.39641E-002	5.48424E-001	3.57300E+000	9	...........
	24	0.333333	5.56072E-001	9.10314E-005	0.00000E+000	5.06200E-005	5.39641E-002	5.56162E-001	3.57300E+000	9	...........
	25	0.346667	5.63634E-001	9.09282E-005	0.00000E+000	5.12502E-005	5.39641E-002	5.63742E-001	3.57300E+000	9	...........
	26	0.36	5.70994E-001	9.08209E-005	0.00000E+000	5.18582E-005	5.39641E-002	5.71072E-001	3.57300E+000	9	...........
	27	0.373333	5.78125E-001	9.09147E-005	0.00000E+000	5.25601E-005	5.39641E-002	5.78243E-001	3.57300E+000	9	...........
	28	0.386667	5.85113E-001	9.11658E-005	0.00000E+000	5.33423E-005	5.39641E-002	5.85227E-001	3.57300E+000	9	...........
	29	0.4	5.91939E-001	9.10147E-005	0.00000E+000	5.38752E-005	5.39641E-002	5.92078E-001	3.57300E+000	9	...........
	30	0.413333	5.98614E-001	9.09470E-005	0.00000E+000	5.44421E-005	5.39641E-002	5.98732E-001	3.57300E+000	9	...........
	31	0.426667	6.05099E-001	9.09960E-005	0.00000E+000	5.50616E-005	5.39641E-002	6.05248E-001	3.57300E+000	9	...........
	32	0.44	6.11470E-001	9.10981E-005	0.00000E+000	5.57037E-005	5.39641E-002	6.11622E-001	3.57300E+000	9	...........
	33	0.453333	6.17794E-001	9.10241E-005	0.00000E+000	5.62341E-005	5.39641E-002	6.17901E-001	3.57300E+000	9	...........
	34	0.466667	6.23900E-001	9.09501E-005	0.00000E+000	5.67437E-005	5.39641E-002	6.24007E-001	3.57300E+000	9	...........
	35	0.48	6.29872E-001	9.09397E-005	0.00000E+000	5.72804E-005	5.39641E-002	6.29992E-001	3.57300E+000	9	...........
	36	0.493333	6.35706E-001	9.09741E-005	0.00000E+000	5.78328E-005	5.39641E-002	6.35842E-001	3.57300E+000	9	...........
	37	0.506667	6.41481E-001	9.08345E-005	0.00000E+000	5.82686E-005	5.39641E-002	6.41622E-001	3.57300E+000	9	...........
	38	0.52	6.47113E-001	9.10220E-005	0.00000E+000	5.89015E-005	5.39641E-002	6.47217E-001	3.57300E+000	9	...........
	39	0.533333	6.52639E-001	9.10158E-005	0.00000E+000	5.94004E-005	5.39641E-002	6.52768E-001	3.57300E+000	9	...........
	40	0.546667	6.58041E-001	9.08272E-005	0.00000E+000	5.97680E-005	5.39641E-002	6.58163E-001	3.57300E+000	9	...........
	41	0.56	6.63352E-001	9.10710E-005	0.00000E+000	6.04121E-005	5.39641E-002	6.63503E-001	3.57300E+000	9	...........
	42	0.573333	6.68621E-001	9.11231E-005	0.00000E+000	6.09268E-005	5.39641E-002	6.68754E-001	3.57352E+000	9	...........
	43	0.586667	6.73724E-001	9.09855E-005	0.00000E+000	6.12992E-005	5.39641E-002	6.73863E-001	3.57370E+000	9	...........
	44	0.6	6.78795E-001	9.07626E-005	0.00000E+000	6.16092E-005	5.39641E-002	6.78930E-001	3.57370E+000	9	...........
	45	0.613333	6.83767E-001	9.10178E-005	0.00000E+000	6.22350E-005	5.39641E-002	6.83895E-001	3.57370E+000	9	...........
	46	0.626667	6.88647E-001	9.09772E-005	0.00000E+000	6.26512E-005	5.39641E-002	6.88788E-001	3.57370E+000	9	...........
	47	0.64	6.93458E-001	9.10637E-005	0.00000E+000	6.31488E-005	5.39641E-002	6.93604E-001	3.57370E+000	9	...........
	48	0.653333	6.98174E-001	9.12471E-005	0.00000E+000	6.37064E-005	5.39641E-002	6.98345E-001	3.57370E+000	9	...........
	49	0.666667	7.02866E-001	9.10283E-005	0.00000E+000	6.39807E-005	5.39641E-002	7.03008E-001	3.57370E+000	9	...........
	50	0.68	7.07445E-001	9.11814E-005	0.00000E+000	6.45059E-005	5.39641E-002	7.07598E-001	3.57370E+000	9	...........
	51	0.693333	7.11970E-001	9.09991E-005	0.00000E+000	6.47886E-005	5.39641E-002	7.12086E-001	3.57370E+000	9	...........
	52	0.706667	7.16450E-001	9.09689E-005	0.00000E+000	6.51746E-005	5.39641E-002	7.16588E-001	3.57370E+000	9	...........
	53	0.72	7.20864E-001	9.08793E-005	0.00000E+000	6.55116E-005	5.39641E-002	7.20999E-001	3.57370E+000	9	...........
	54	0.733333	7.25214E-001	9.07855E-005	0.00000E+000	6.58390E-005	5.39641E-002	7.25344E-001	3.57370E+000	9	...........
	55	0.746667	7.29506E-001	9.08793E-005	0.00000E+000	6.62970E-005	5.39641E-002	7.29633E-001	3.57370E+000	9	...........
	56	0.76	7.33688E-001	9.10804E-005	0.00000E+000	6.68245E-005	5.39641E-002	7.33830E-001	3.57370E+000	9	...........
	57	0.773333	7.37842E-001	9.09074E-005	0.00000E+000	6.70753E-005	5.39641E-002	7.37995E-001	3.57370E+000	9	...........
	58	0.786667	7.41967E-001	9.10189E-005	0.00000E+000	6.75330E-005	5.39641E-002	7.42114E-001	3.57370E+000	9	...........
	59	0.8	7.46027E-001	9.11887E-005	0.00000E+000	6.80293E-005	5.39641E-002	7.46189E-001	3.57370E+000	9	...........
	60	0.813333	7.50016E-001	9.07532E-005	0.00000E+000	6.80664E-005	5.39641E-002	7.50186E-001	3.57370E+000	9	...........
	61	0.826667	7.53968E-001	9.09303E-005	0.00000E+000	6.85585E-005	5.39641E-002	7.54141E-001	3.57370E+000	9	...........
	62	0.84	7.57900E-001	9.11908E-005	0.00000E+000	6.91135E-005	5.39641E-002	7.58050E-001	3.57370E+000	9	...........
	63	0.853333	7.61754E-001	9.10481E-005	0.00000E+000	6.93562E-005	5.39641E-002	7.61935E-001	3.57370E+000	9	...........
	64	0.866667	7.65587E-001	9.10574E-005	0.00000E+000	6.97124E-005	5.39641E-002	7.65756E-001	3.57370E+000	9	...........
	65	0.88	7.69402E-001	9.09689E-005	0.00000E+000	6.99916E-005	5.39641E-002	7.69560E-001	3.57370E+000	9	...........
	66	0.893333	7.73130E-001	9.10824E-005	0.00000E+000	7.04185E-005	5.39641E-002	7.73287E-001	3.57370E+000	9	...........
	67	0.906667	7.76794E-001	9.10449E-005	0.00000E+000	7.07231E-005	5.39641E-002	7.76947E-001	3.57370E+000	9	...........
	68	0.92	7.80434E-001	9.11366E-005	0.00000E+000	7.11261E-005	5.39641E-002	7.80592E-001	3.57370E+000	9	...........
	69	0.933333	7.84040E-001	9.10397E-005	0.00000E+000	7.13788E-005	5.39641E-002	7.84164E-001	3.57370E+000	9	...........
	70	0.946667	7.87583E-001	9.12033E-005	0.00000E+000	7.18301E-005	5.39641E-002	7.87716E-001	3.57370E+000	9	...........
	71	0.96	7.91085E-001	9.09918E-005	0.00000E+000	7.19822E-005	5.39641E-002	7.91231E-001	3.57370E+000	9	...........
	72	0.97333	7.94598E-001	9.09991E-005	0.00000E+000	7.23077E-005	5.39641E-002	7.94708E-001	3.57370E+000	9	...........
	73	0.98667	7.98016E-001	9.12085E-005	0.00000E+000	7.27859E-005	5.39641E-002	7.98126E-001	3.57370E+000	9	...........
	74	1	8.01413E-001	9.10408E-005	0.00000E+000	7.29612E-005	5.39641E-002	8.01532E-001	3.57370E+000	9	...........
	75	1.01333	8.04773E-001	9.09220E-005	0.00000E+000	7.31715E-005	5.39641E-002	8.04908E-001	3.57370E+000	9	...........
	76	1.02667	8.08101E-001	9.08157E-005	0.00000E+000	7.33883E-005	5.39641E-002	8.08237E-001	3.57370E+000	9	...........
	77	1.04	8.11390E-001	9.10074E-005	0.00000E+000	7.38425E-005	5.39641E-002	8.11526E-001	3.57370E+000	9	...........
	78	1.05333	8.14648E-001	9.11554E-005	0.00000E+000	7.42595E-005	5.39641E-002	8.14821E-001	3.57370E+000	9	...........
	79	1.06667	8.17894E-001	9.12773E-005	0.00000E+000	7.46551E-005	5.39641E-002	8.18061E-001	3.57370E+000	9	...........
	80	1.08	8.21084E-001	9.11262E-005	0.00000E+000	7.48222E-005	5.39641E-002	8.21230E-001	3.57370E+000	9	...........
	81	1.09333	8.24217E-001	9.11335E-005	0.00000E+000	7.51138E-005	5.39641E-002	8.24390E-001	3.57370E+000	9	...........
	82	1.10667	8.27340E-001	9.09866E-005	0.00000E+000	7.52768E-005	5.39641E-002	8.27500E-001	3.57370E+000	9	...........
	83	1.12	8.30432E-001	9.09335E-005	0.00000E+000	7.55141E-005	5.39641E-002	8.30596E-001	3.57370E+000	9	...........
	84	1.13333	8.33527E-001	9.10533E-005	0.00000E+000	7.58954E-005	5.39641E-002	8.33682E-001	3.57370E+000	9	...........
	85	1.14667	8.36534E-001	9.11314E-005	0.00000E+000	7.62346E-005	5.39641E-002	8.36721E-001	3.57370E+000	9	...........
	86	1.16	8.39533E-001	9.10210E-005	0.00000E+000	7.64151E-005	5.39641E-002	8.39714E-001	3.57370E+000	9	...........
	87	1.17333	8.42507E-001	9.09876E-005	0.00000E+000	7.66577E-005	5.39641E-002	8.42664E-001	3.57370E+000	9	...........
	88	1.18667	8.45481E-001	9.12023E-005	0.00000E+000	7.71098E-005	5.39641E-002	8.45647E-001	3.57370E+000	9	...........
	89	1.2	8.48395E-001	9.07365E-005	0.00000E+000	7.69804E-005	5.39641E-002	8.48549E-001	3.57370E+000	9	...........
	90	1.21333	8.51281E-001	9.09074E-005	0.00000E+000	7.73878E-005	5.39641E-002	8.51449E-001	3.57370E+000	9	...........
	91	1.22667	8.54135E-001	9.08772E-005	0.00000E+000	7.76214E-005	5.39641E-002	8.54294E-001	3.57370E+000	9	...........
	92	1.24	8.56936E-001	9.10220E-005	0.00000E+000	7.80000E-005	5.39641E-002	8.57134E-001	3.57370E+000	9	...........
	93	1.25333	8.59730E-001	9.09178E-005	0.00000E+000	7.81648E-005	5.39641E-002	8.59929E-001	3.57370E+000	9	...........
	94	1.26667	8.62488E-001	9.08511E-005	0.00000E+000	7.83580E-005	5.39641E-002	8.62698E-001	3.57370E+000	9	...........
	95	1.28	8.65206E-001	9.10481E-005	0.00000E+000	7.87753E-005	5.39641E-002	8.65418E-001	3.57370E+000	9	...........
	96	1.29333	8.67928E-001	9.08574E-005	0.00000E+000	7.88577E-005	5.39641E-002	8.68139E-001	3.57370E+000	9	...........
	97	1.30667	8.70652E-001	9.12835E-005	0.00000E+000	7.94762E-005	5.39641E-002	8.70844E-001	3.57370E+000	9	...........
	98	1.32	8.73320E-001	9.09439E-005	0.00000E+000	7.94231E-005	5.39641E-002	8.73524E-001	3.57370E+000	9	...........
	99	1.33333	8.75945E-001	9.09064E-005	0.00000E+000	7.96290E-005	5.39641E-002	8.76151E-001	3.57370E+000	9	...........
	100	1.34667	8.78560E-001	9.08511E-005	0.00000E+000	7.98182E-005	5.39641E-002	8.78746E-001	3.57370E+000	9	...........
	101	1.36	8.81142E-001	9.09668E-005	0.00000E+000	8.01547E-005	5.39641E-002	8.81333E-001	3.57370E+000	9	...........
	102	1.37333	8.83739E-001	9.11127E-005	0.00000E+000	8.05198E-005	5.39641E-002	8.83903E-001	3.57370E+000	9	...........
	103	1.38667	8.86259E-001	9.09928E-005	0.00000E+000	8.06432E-005	5.39641E-002	8.86464E-001	3.57370E+000	9	...........
	104	1.4	8.88779E-001	9.13148E-005	0.00000E+000	8.11586E-005	5.39641E-002	8.88957E-001	3.57370E+000	9	...........
	105	1.41333	8.91243E-001	9.12658E-005	0.00000E+000	8.13400E-005	5.39641E-002	8.91425E-001	3.57370E+000	9	...........
	106	1.42667	8.93718E-001	9.10293E-005	0.00000E+000	8.13545E-005	5.39641E-002	8.93872E-001	3.57370E+000	9	...........
	107	1.44	8.96138E-001	9.12491E-005	0.00000E+000	8.17718E-005	5.39641E-002	8.96350E-001	3.57370E+000	9	...........
	108	1.45333	8.98526E-001	9.10949E-005	0.00000E+000	8.18512E-005	5.39641E-002	8.98712E-001	3.57370E+000	9	...........
	109	1.46667	9.00902E-001	9.10741E-005	0.00000E+000	8.20488E-005	5.39641E-002	9.01084E-001	3.57370E+000	9	...........
	110	1.48	9.03265E-001	9.11043E-005	0.00000E+000	8.22914E-005	5.39641E-002	9.03429E-001	3.57370E+000	9	...........
	111	1.49333	9.05565E-001	9.13169E-005	0.00000E+000	8.26933E-005	5.39641E-002	9.05759E-001	3.57370E+000	9	...........
	112	1.50667	9.07867E-001	9.09626E-005	0.00000E+000	8.25820E-005	5.39641E-002	9.08063E-001	3.57370E+000	9	...........
	113	1.52	9.10140E-001	9.08386E-005	0.00000E+000	8.26759E-005	5.39641E-002	9.10329E-001	3.57370E+000	9	...........
	114	1.53333	9.12385E-001	9.09564E-005	0.00000E+000	8.29872E-005	5.39641E-002	9.12572E-001	3.57370E+000	9	...........
	115	1.54667	9.14617E-001	9.11637E-005	0.00000E+000	8.33799E-005	5.39641E-002	9.14802E-001	3.57370E+000	9	...........
	116	1.56	9.16812E-001	9.11241E-005	0.00000E+000	8.35436E-005	5.39641E-002	9.17030E-001	3.57370E+000	9	...........
	117	1.57333	9.19012E-001	9.12293E-005	0.00000E+000	8.38409E-005	5.39641E-002	9.19207E-001	3.57287E+000	9	...........
	118	1.58667	9.21237E-001	9.11210E-005	0.00000E+000	8.39440E-005	5.39641E-002	9.21395E-001	3.57260E+000	9	...........
	119	1.6	9.23371E-001	9.10158E-005	0.00000E+000	8.40414E-005	5.39641E-002	9.23555E-001	3.57260E+000	9	...........
	120	1.61333	9.25515E-001	9.09949E-005	0.00000E+000	8.42171E-005	5.39641E-002	9.25672E-001	3.57260E+000	9	...........
	121	1.62667	9.27580E-001	9.08949E-005	0.00000E+000	8.43123E-005	5.39641E-002	9.27783E-001	3.57260E+000	9	...........
	122	1.64	9.29669E-001	9.12262E-005	0.00000E+000	8.48102E-005	5.39641E-002	9.29829E-001	3.57260E+000	9	...........
	123	1.65333	9.31716E-001	9.09230E-005	0.00000E+000	8.47144E-005	5.39641E-002	9.31884E-001	3.57260E+000	9	...........
	124	1.66667	9.33732E-001	9.08230E-005	0.00000E+000	8.48043E-005	5.39641E-002	9.33903E-001	3.57260E+000	9	...........
	125	1.68	9.35729E-001	9.11533E-005	0.00000E+000	8.52947E-005	5.39641E-002	9.35908E-001	3.57260E+000	9	...........
	126	1.69333	9.37689E-001	9.09960E-005	0.00000E+000	8.53259E-005	5.39641E-002	9.37905E-001	3.57260E+000	9	...........
	127	1.70667	9.39669E-001	9.11450E-005	0.00000E+000	8.56461E-005	5.39641E-002	9.39854E-001	3.57260E+000	9	...........
	128	1.72	9.41602E-001	9.08595E-005	0.00000E+000	8.55535E-005	5.39641E-002	9.41790E-001	3.57260E+000	9	...........
	129	1.73333	9.43504E-001	9.08866E-005	0.00000E+000	8.57518E-005	5.39641E-002	9.43688E-001	3.57260E+000	9	...........
	130	1.74667	9.45395E-001	9.10876E-005	0.00000E+000	8.61138E-005	5.39641E-002	9.45586E-001	3.57260E+000	9	...........
	131	1.76	9.47329E-001	9.10762E-005	0.00000E+000	8.62791E-005	5.39641E-002	9.47501E-001	3.57260E+000	9	...........
	132	1.77333	9.49176E-001	9.10178E-005	0.00000E+000	8.63920E-005	5.39641E-002	9.49345E-001	3.57260E+000	9	...........
	133	1.78667	9.51025E-001	9.10606E-005	0.00000E+000	8.66009E-005	5.39641E-002	9.51208E-001	3.57260E+000	9	...........
	134	1.8	9.52844E-001	9.09501E-005	0.00000E+000	8.66612E-005	5.39641E-002	9.53023E-001	3.57260E+000	9	...........
	135	1.81333	9.54656E-001	9.10137E-005	0.00000E+000	8.68867E-005	5.39641E-002	9.54859E-001	3.57260E+000	9	...........
	136	1.82667	9.56430E-001	9.11106E-005	0.00000E+000	8.71409E-005	5.39641E-002	9.56633E-001	3.57260E+000	9	...........
	137	1.84	9.58182E-001	9.09939E-005	0.00000E+000	8.71887E-005	5.39641E-002	9.58395E-001	3.57260E+000	9	...........
	138	1.85333	9.59947E-001	9.11648E-005	0.00000E+000	8.75134E-005	5.39641E-002	9.60156E-001	3.57260E+000	9	...........
	139	1.86667	9.61702E-001	9.08303E-005	0.00000E+000	8.73517E-005	5.39641E-002	9.61903E-001	3.57260E+000	9	...........
	140	1.88	9.63396E-001	9.10814E-005	0.00000E+000	8.77475E-005	5.39641E-002	9.63634E-001	3.57260E+000	9	...........
	141	1.89333	9.65108E-001	9.09043E-005	0.00000E+000	8.77325E-005	5.39641E-002	9.65336E-001	3.57260E+000	9	...........
	142	1.90667	9.66814E-001	9.12366E-005	0.00000E+000	8.82088E-005	5.39641E-002	9.66999E-001	3.57260E+000	9	...........
	143	1.92	9.68487E-001	9.07949E-005	0.00000E+000	8.79337E-005	5.39641E-002	9.68706E-001	3.57260E+000	9	...........
	144	1.93333	9.70137E-001	9.10804E-005	0.00000E+000	8.83605E-005	5.39641E-002	9.70364E-001	3.57260E+000	9	...........
	145	1.94667	9.71754E-001	9.08928E-005	0.00000E+000	8.83255E-005	5.39641E-002	9.71999E-001	3.57260E+000	9	...........
	146	1.96	9.73407E-001	9.10877E-005	0.00000E+000	8.86654E-005	5.39641E-002	9.73621E-001	3.57260E+000	9	...........
	147	1.97333	9.75006E-001	9.10168E-005	0.00000E+000	8.87419E-005	5.39641E-002	9.75208E-001	3.57260E+000	9	...........
	148	1.98667	9.76550E-001	9.12252E-005	0.00000E+000	8.90859E-005	5.39641E-002	9.76774E-001	3.57260E+000	9	...........
	149	2	9.78110E-001	9.08887E-005	0.00000E+000	8.88991E-005	5.39641E-002	9.78336E-001	3.57260E+000	9	...........
	150	2.01333	9.79655E-001	9.11939E-005	0.00000E+000	8.93386E-005	5.39641E-002	9.79876E-001	3.57260E+000	9	...........
	151	2.02667	9.81159E-001	9.08397E-005	0.00000E+000	8.91282E-005	5.39641E-002	9.81384E-001	3.57260E+000	9	...........
	152	2.04	9.82661E-001	9.12419E-005	0.00000E+000	8.96598E-005	5.39641E-002	9.82889E-001	3.57260E+000	9	...........
	153	2.05333	9.84168E-001	9.11877E-005	0.00000E+000	8.97440E-005	5.39641E-002	9.84407E-001	3.57260E+000	9	...........
	154	2.06667	9.85669E-001	9.09803E-005	0.00000E+000	8.96765E-005	5.39641E-002	9.85880E-001	3.57260E+000	9	...........
	155	2.08	9.87133E-001	9.10439E-005	0.00000E+000	8.98724E-005	5.39641E-002	9.87359E-001	3.57260E+000	9	...........
	156	2.09333	9.88596E-001	9.11512E-005	0.00000E+000	9.01117E-005	5.39641E-002	9.88802E-001	3.57260E+000	9	...........
	157	2.10667	9.90040E-001	9.12116E-005	0.00000E+000	9.03032E-005	5.39641E-002	9.90250E-001	3.57260E+000	9	...........
	158	2.12	9.91457E-001	9.07761E-005	0.00000E+000	9.00006E-005	5.39641E-002	9.91680E-001	3.57260E+000	9	...........
	159	2.13333	9.92833E-001	9.10522E-005	0.00000E+000	9.03997E-005	5.39641E-002	9.93064E-001	3.57260E+000	9	...........
	160	2.14667	9.94223E-001	9.07918E-005	0.00000E+000	9.02672E-005	5.39641E-002	9.94442E-001	3.57260E+000	9	...........
	161	2.16	9.95593E-001	9.09741E-005	0.00000E+000	9.05732E-005	5.39641E-002	9.95825E-001	3.57260E+000	9	...........
	162	2.17333	9.96935E-001	9.11012E-005	0.00000E+000	9.08220E-005	5.39641E-002	9.97196E-001	3.57260E+000	9	...........
	163	2.18667	9.98329E-001	9.11179E-005	0.00000E+000	9.09656E-005	5.39641E-002	9.98531E-001	3.57260E+000	9	...........
	164	2.19833	9.99534E-001	9.09138E-005	0.00000E+000	9.08715E-005	5.39641E-002	9.99773E-001	3.57260E+000	9	...........
STARTTIMEOFFSET	QUANT	2844.013	Start Time Offset (s)
