EXPLAIN
TAG	PWR800_CHARGE
TITLE	LABEL	PWR Cyclic Charge Discharge (Cell) - Charge Step	Test &Identifier
DATE	LABEL	10-7-2017	Date
TIME	LABEL	15:18:50	Time
NOTES	NOTES	3	&Notes...
	supercap test cell
	0.9mg
	6M KOH
PSTAT	PSTAT	IFC5000-01520	Potentiostat
CAPACITY	QUANT	1.00000E-003	Capacity (A-hr)
CELLTYPE	SELECTOR	1	&Cell Type
WORKINGCONNECTION	SELECTOR	0	&Working Lead
MAXCHARGETIME	VARIABLEANDUNITS	1.00000E+002	s	1.00000E+002	second(s)	Max &Charge Time
CHARGECURRENT	QUANT	9.00000E-005	&Charge Current (A) 
VOLTAGEFINISH	TWOPARAM	F	1.00000E-003	3.60000E+003	&Voltage Finish	 I (A) < 	Max Time(s)
SAMPLETIME	QUANT	1.00000E-002	Sa&mple Period (s)
CHARGESTOPAT1	MULTIPARAM	4	1.00000E+000	Charge Stop At &1	Voltage > Limit	V
CHARGESTOPAT2	MULTIPARAM	0	0.00000E+000	Charge Stop At &2	None	N/A
AESBHCSELECTOR	TOGGLE	F	Save Both Half Cells
IRCOMP	TOGGLE	F	IR &Measure
EOC	QUANT	0	Open Circuit (V)
SEQUENCER	TOGGLE	TRUE	Run as Sequence
PSTATMODEL	IQUANT	53	Pstat Model
PSTATSECTION	LABEL	IFC5000-01520	Pstat Section
PSTATSERIALNO	LABEL	01520	Pstat Serial Number
CTRLMODE	IQUANT	0	Control Mode
ELECTROMETER	IQUANT	1	RE=0 or CS=1
IESTAB	IQUANT	0	I/E Stability
CASPEED	IQUANT	4	Control Amp Speed
CONVENTION	IQUANT	1	Current Convention
ICHRANGE	IQUANT	2	Ich Range
ICHRANGEMODE	TOGGLE	T	Ich Auto Range
ICHOFFSETENABLE	TOGGLE	F	Ich Offset Enable
ICHOFFSET	QUANT	0	Ich Offset (V)
ICHFILTER	IQUANT	1	Ich Filter
VCHRANGE	IQUANT	2	Vch Range
VCHRANGEMODE	TOGGLE	T	Vch Auto Range
VCHOFFSETENABLE	TOGGLE	F	Vch Offset Enable
VCHOFFSET	QUANT	0	Vch Offset (V)
VCHFILTER	IQUANT	1	Vch Filter
IERANGELOWERLIMIT	IQUANT	9	I/E Range Lower Limit
IERANGEMODE	TOGGLE	F	I/E AutoRange
IERANGE	IQUANT	9	I/E Range
ACHSELECT	IQUANT	1	Ach Select
ACHRANGE	IQUANT	2	Ach Range
ACHOFFSETENABLE	TOGGLE	F	Ach Offset Enable
ACHOFFSET	QUANT	0	Ach Offset (V)
ACHFILTER	IQUANT	1	Ach Filter
CABLEID	IQUANT	14	Cable ID
DCCALDATE	LABEL	5-7-2017	DC Calibration Date
ACCALDATE	LABEL	12/3/2015	AC Calibration Date
FRAMEWORKVERSION	QUANT	7.01	Framework Version
INSTRUMENTVERSION	LABEL	4.00	Instrument Version
CURVE	TABLE	179
	Pt	T	Vf	Im	Vu	Pwr	Sig	Ach	Temp	IERange	Over
	#	s	V	A	V	W	V	V	deg C	#	bits
	0	0.013333	2.87457E-001	9.10137E-005	0.00000E+000	2.61625E-005	5.39641E-002	2.87505E-001	3.57240E+000	9	...........
	1	0.026667	3.06797E-001	9.13127E-005	0.00000E+000	2.80145E-005	5.39641E-002	3.06837E-001	3.57240E+000	9	...........
	2	0.04	3.24678E-001	9.10626E-005	0.00000E+000	2.95660E-005	5.39641E-002	3.24719E-001	3.57240E+000	9	...........
	3	0.053333	3.41353E-001	9.10241E-005	0.00000E+000	3.10714E-005	5.39641E-002	3.41394E-001	3.57240E+000	9	...........
	4	0.066667	3.57015E-001	9.09814E-005	0.00000E+000	3.24817E-005	5.39641E-002	3.57053E-001	3.57240E+000	9	...........
	5	0.08	3.71776E-001	9.11241E-005	0.00000E+000	3.38778E-005	5.39641E-002	3.71818E-001	3.57240E+000	9	...........
	6	0.093333	3.85775E-001	9.08532E-005	0.00000E+000	3.50489E-005	5.39641E-002	3.85816E-001	3.57240E+000	9	...........
	7	0.106667	3.99092E-001	9.13315E-005	0.00000E+000	3.64496E-005	5.39641E-002	3.99135E-001	3.57240E+000	9	...........
	8	0.12	4.11778E-001	9.09418E-005	0.00000E+000	3.74478E-005	5.39641E-002	4.11828E-001	3.57240E+000	9	...........
	9	0.133333	4.23912E-001	9.12043E-005	0.00000E+000	3.86626E-005	5.39641E-002	4.23965E-001	3.57240E+000	9	...........
	10	0.146667	4.35551E-001	9.11877E-005	0.00000E+000	3.97169E-005	5.39641E-002	4.35601E-001	3.57240E+000	9	...........
	11	0.16	4.46722E-001	9.09126E-005	0.00000E+000	4.06127E-005	5.39641E-002	4.46775E-001	3.57276E+000	9	...........
	12	0.173333	4.57463E-001	9.10762E-005	0.00000E+000	4.16640E-005	5.39641E-002	4.57514E-001	3.57280E+000	9	...........
	13	0.186667	4.67819E-001	9.09689E-005	0.00000E+000	4.25570E-005	5.39641E-002	4.67874E-001	3.57280E+000	9	...........
	14	0.2	4.77818E-001	9.13106E-005	0.00000E+000	4.36298E-005	5.39641E-002	4.77871E-001	3.57280E+000	9	...........
	15	0.213333	4.87493E-001	9.08543E-005	0.00000E+000	4.42908E-005	5.39641E-002	4.87551E-001	3.57280E+000	9	...........
	16	0.226667	4.96839E-001	9.10908E-005	0.00000E+000	4.52575E-005	5.39641E-002	4.96900E-001	3.57280E+000	9	...........
	17	0.24	5.05898E-001	9.10429E-005	0.00000E+000	4.60584E-005	5.39641E-002	5.05954E-001	3.57280E+000	9	...........
	18	0.253333	5.14671E-001	9.13137E-005	0.00000E+000	4.69965E-005	5.39641E-002	5.14728E-001	3.57280E+000	9	...........
	19	0.266667	5.23169E-001	9.13179E-005	0.00000E+000	4.77747E-005	5.39641E-002	5.23232E-001	3.57280E+000	9	...........
	20	0.28	5.31413E-001	9.10918E-005	0.00000E+000	4.84073E-005	5.39641E-002	5.31468E-001	3.57280E+000	9	...........
	21	0.293333	5.39386E-001	9.09220E-005	0.00000E+000	4.90420E-005	5.39641E-002	5.39494E-001	3.57280E+000	9	...........
	22	0.306667	5.47205E-001	9.11064E-005	0.00000E+000	4.98539E-005	5.39641E-002	5.47276E-001	3.57280E+000	9	...........
	23	0.32	5.54790E-001	9.10241E-005	0.00000E+000	5.04993E-005	5.39641E-002	5.54912E-001	3.57280E+000	9	...........
	24	0.333333	5.62204E-001	9.10376E-005	0.00000E+000	5.11817E-005	5.39641E-002	5.62327E-001	3.57280E+000	9	...........
	25	0.346667	5.69458E-001	9.10522E-005	0.00000E+000	5.18504E-005	5.39641E-002	5.69566E-001	3.57280E+000	9	...........
	26	0.36	5.76512E-001	9.12346E-005	0.00000E+000	5.25978E-005	5.39641E-002	5.76616E-001	3.57280E+000	9	...........
	27	0.373333	5.83377E-001	9.10793E-005	0.00000E+000	5.31336E-005	5.39641E-002	5.83506E-001	3.57280E+000	9	...........
	28	0.386667	5.90131E-001	9.09595E-005	0.00000E+000	5.36780E-005	5.39641E-002	5.90250E-001	3.57280E+000	9	...........
	29	0.4	5.96683E-001	9.08355E-005	0.00000E+000	5.42000E-005	5.39641E-002	5.96801E-001	3.57280E+000	9	...........
	30	0.413333	6.03083E-001	9.10689E-005	0.00000E+000	5.49221E-005	5.39641E-002	6.03231E-001	3.57280E+000	9	...........
	31	0.426667	6.09333E-001	9.10043E-005	0.00000E+000	5.54519E-005	5.39641E-002	6.09490E-001	3.57280E+000	9	...........
	32	0.44	6.15521E-001	9.10293E-005	0.00000E+000	5.60305E-005	5.39641E-002	6.15636E-001	3.57280E+000	9	...........
	33	0.453333	6.21547E-001	9.12523E-005	0.00000E+000	5.67176E-005	5.39641E-002	6.21628E-001	3.57280E+000	9	...........
	34	0.466667	6.27417E-001	9.11012E-005	0.00000E+000	5.71584E-005	5.39641E-002	6.27532E-001	3.57280E+000	9	...........
	35	0.48	6.33183E-001	9.10981E-005	0.00000E+000	5.76817E-005	5.39641E-002	6.33273E-001	3.57280E+000	9	...........
	36	0.493333	6.38865E-001	9.14513E-005	0.00000E+000	5.84250E-005	5.39641E-002	6.38967E-001	3.57280E+000	9	...........
	37	0.506667	6.44407E-001	9.10293E-005	0.00000E+000	5.86599E-005	5.39641E-002	6.44509E-001	3.57280E+000	9	...........
	38	0.52	6.49824E-001	9.10158E-005	0.00000E+000	5.91442E-005	5.39641E-002	6.49942E-001	3.57280E+000	9	...........
	39	0.533333	6.55169E-001	9.11054E-005	0.00000E+000	5.96894E-005	5.39641E-002	6.55263E-001	3.57280E+000	9	...........
	40	0.546667	6.60389E-001	9.11054E-005	0.00000E+000	6.01650E-005	5.39641E-002	6.60499E-001	3.57280E+000	9	...........
	41	0.56	6.65540E-001	9.11314E-005	0.00000E+000	6.06516E-005	5.39641E-002	6.65652E-001	3.57280E+000	9	...........
	42	0.573333	6.70598E-001	9.14721E-005	0.00000E+000	6.13410E-005	5.39641E-002	6.70713E-001	3.57280E+000	9	...........
	43	0.586667	6.75547E-001	9.09824E-005	0.00000E+000	6.14629E-005	5.39641E-002	6.75682E-001	3.57280E+000	9	...........
	44	0.6	6.80428E-001	9.13002E-005	0.00000E+000	6.21232E-005	5.39641E-002	6.80544E-001	3.57280E+000	9	...........
	45	0.613333	6.85200E-001	9.11502E-005	0.00000E+000	6.24561E-005	5.39641E-002	6.85307E-001	3.57280E+000	9	...........
	46	0.626667	6.89895E-001	9.07209E-005	0.00000E+000	6.25879E-005	5.39641E-002	6.90005E-001	3.57280E+000	9	...........
	47	0.64	6.94506E-001	9.08824E-005	0.00000E+000	6.31183E-005	5.39641E-002	6.94615E-001	3.57280E+000	9	...........
	48	0.653333	6.99039E-001	9.09699E-005	0.00000E+000	6.35915E-005	5.39641E-002	6.99143E-001	3.57280E+000	9	...........
	49	0.666667	7.03513E-001	9.12346E-005	0.00000E+000	6.41847E-005	5.39641E-002	7.03600E-001	3.57280E+000	9	...........
	50	0.68	7.07883E-001	9.10262E-005	0.00000E+000	6.44359E-005	5.39641E-002	7.08025E-001	3.57280E+000	9	...........
	51	0.693333	7.12247E-001	9.11575E-005	0.00000E+000	6.49266E-005	5.39641E-002	7.12365E-001	3.57280E+000	9	...........
	52	0.706667	7.16515E-001	9.11022E-005	0.00000E+000	6.52761E-005	5.39641E-002	7.16656E-001	3.57280E+000	9	...........
	53	0.72	7.20749E-001	9.09241E-005	0.00000E+000	6.55334E-005	5.39641E-002	7.20850E-001	3.57280E+000	9	...........
	54	0.733333	7.24886E-001	9.10178E-005	0.00000E+000	6.59775E-005	5.39641E-002	7.24964E-001	3.57280E+000	9	...........
	55	0.746667	7.28951E-001	9.11325E-005	0.00000E+000	6.64311E-005	5.39641E-002	7.29041E-001	3.57280E+000	9	...........
	56	0.76	7.32949E-001	9.11418E-005	0.00000E+000	6.68023E-005	5.39641E-002	7.33061E-001	3.57280E+000	9	...........
	57	0.773333	7.36899E-001	9.09314E-005	0.00000E+000	6.70072E-005	5.39641E-002	7.37010E-001	3.57280E+000	9	...........
	58	0.786667	7.40809E-001	9.10845E-005	0.00000E+000	6.74762E-005	5.39641E-002	7.40931E-001	3.57280E+000	9	...........
	59	0.8	7.44707E-001	9.09470E-005	0.00000E+000	6.77288E-005	5.39641E-002	7.44808E-001	3.57280E+000	9	...........
	60	0.813333	7.48503E-001	9.10481E-005	0.00000E+000	6.81497E-005	5.39641E-002	7.48609E-001	3.57280E+000	9	...........
	61	0.826667	7.52243E-001	9.12992E-005	0.00000E+000	6.86792E-005	5.39641E-002	7.52370E-001	3.57280E+000	9	...........
	62	0.84	7.55995E-001	9.11293E-005	0.00000E+000	6.88933E-005	5.39641E-002	7.56090E-001	3.57280E+000	9	...........
	63	0.853333	7.59618E-001	9.08251E-005	0.00000E+000	6.89924E-005	5.39641E-002	7.59716E-001	3.57280E+000	9	...........
	64	0.866667	7.63210E-001	9.12346E-005	0.00000E+000	6.96311E-005	5.39641E-002	7.63315E-001	3.57280E+000	9	...........
	65	0.88	7.66741E-001	9.12168E-005	0.00000E+000	6.99397E-005	5.39641E-002	7.66876E-001	3.57280E+000	9	...........
	66	0.893333	7.70277E-001	9.11460E-005	0.00000E+000	7.02077E-005	5.39641E-002	7.70384E-001	3.57280E+000	9	...........
	67	0.906667	7.73755E-001	9.11648E-005	0.00000E+000	7.05392E-005	5.39641E-002	7.73866E-001	3.57280E+000	9	...........
	68	0.92	7.77155E-001	9.10949E-005	0.00000E+000	7.07949E-005	5.39641E-002	7.77287E-001	3.57280E+000	9	...........
	69	0.933333	7.80551E-001	9.08980E-005	0.00000E+000	7.09506E-005	5.39641E-002	7.80672E-001	3.57280E+000	9	...........
	70	0.946667	7.83911E-001	9.12304E-005	0.00000E+000	7.15165E-005	5.39641E-002	7.84020E-001	3.57280E+000	9	...........
	71	0.96	7.87201E-001	9.10720E-005	0.00000E+000	7.16920E-005	5.39641E-002	7.87300E-001	3.57280E+000	9	...........
	72	0.97333	7.90466E-001	9.11929E-005	0.00000E+000	7.20849E-005	5.39641E-002	7.90576E-001	3.57280E+000	9	...........
	73	0.98667	7.93729E-001	9.10366E-005	0.00000E+000	7.22583E-005	5.39641E-002	7.93841E-001	3.57280E+000	9	...........
	74	1	7.96931E-001	9.12689E-005	0.00000E+000	7.27350E-005	5.39641E-002	7.97030E-001	3.57280E+000	9	...........
	75	1.01333	8.00063E-001	9.12387E-005	0.00000E+000	7.29968E-005	5.39641E-002	8.00170E-001	3.57280E+000	9	...........
	76	1.02667	8.03173E-001	9.09960E-005	0.00000E+000	7.30855E-005	5.39641E-002	8.03287E-001	3.57280E+000	9	...........
	77	1.04	8.06234E-001	9.12658E-005	0.00000E+000	7.35816E-005	5.39641E-002	8.06378E-001	3.57280E+000	9	...........
	78	1.05333	8.09265E-001	9.11700E-005	0.00000E+000	7.37807E-005	5.39641E-002	8.09417E-001	3.57280E+000	9	...........
	79	1.06667	8.12288E-001	9.11991E-005	0.00000E+000	7.40800E-005	5.39641E-002	8.12447E-001	3.57280E+000	9	...........
	80	1.08	8.15275E-001	9.10606E-005	0.00000E+000	7.42394E-005	5.39641E-002	8.15441E-001	3.57280E+000	9	...........
	81	1.09333	8.18250E-001	9.11887E-005	0.00000E+000	7.46152E-005	5.39641E-002	8.18396E-001	3.57280E+000	9	...........
	82	1.10667	8.21177E-001	9.10241E-005	0.00000E+000	7.47469E-005	5.39641E-002	8.21315E-001	3.57280E+000	9	...........
	83	1.12	8.24048E-001	9.11085E-005	0.00000E+000	7.50778E-005	5.39641E-002	8.24210E-001	3.57280E+000	9	...........
	84	1.13333	8.26908E-001	9.11199E-005	0.00000E+000	7.53478E-005	5.39641E-002	8.27061E-001	3.57280E+000	9	...........
	85	1.14667	8.29712E-001	9.10564E-005	0.00000E+000	7.55506E-005	5.39641E-002	8.29873E-001	3.57280E+000	9	...........
	86	1.16	8.32498E-001	9.09908E-005	0.00000E+000	7.57496E-005	5.39641E-002	8.32656E-001	3.57253E+000	9	...........
	87	1.17333	8.35258E-001	9.09574E-005	0.00000E+000	7.59729E-005	5.39641E-002	8.35425E-001	3.57250E+000	9	...........
	88	1.18667	8.37994E-001	9.15304E-005	0.00000E+000	7.67019E-005	5.39641E-002	8.38195E-001	3.57250E+000	9	...........
	89	1.2	8.40717E-001	9.10345E-005	0.00000E+000	7.65343E-005	5.39641E-002	8.40887E-001	3.57250E+000	9	...........
	90	1.21333	8.43386E-001	9.06719E-005	0.00000E+000	7.64714E-005	5.39641E-002	8.43578E-001	3.57250E+000	9	...........
	91	1.22667	8.46047E-001	9.11762E-005	0.00000E+000	7.71393E-005	5.39641E-002	8.46250E-001	3.57250E+000	9	...........
	92	1.24	8.48671E-001	9.12002E-005	0.00000E+000	7.73990E-005	5.39641E-002	8.48862E-001	3.57250E+000	9	...........
	93	1.25333	8.51260E-001	9.09491E-005	0.00000E+000	7.74213E-005	5.39641E-002	8.51449E-001	3.57250E+000	9	...........
	94	1.26667	8.53787E-001	9.10814E-005	0.00000E+000	7.77641E-005	5.39641E-002	8.53963E-001	3.57250E+000	9	...........
	95	1.28	8.56313E-001	9.10335E-005	0.00000E+000	7.79531E-005	5.39641E-002	8.56541E-001	3.57250E+000	9	...........
	96	1.29333	8.58848E-001	9.08803E-005	0.00000E+000	7.80523E-005	5.39641E-002	8.59052E-001	3.57250E+000	9	...........
	97	1.30667	8.61360E-001	9.11002E-005	0.00000E+000	7.84700E-005	5.39641E-002	8.61544E-001	3.57250E+000	9	...........
	98	1.32	8.63818E-001	9.11002E-005	0.00000E+000	7.86940E-005	5.39641E-002	8.64003E-001	3.57250E+000	9	...........
	99	1.33333	8.66264E-001	9.06709E-005	0.00000E+000	7.85449E-005	5.39641E-002	8.66431E-001	3.57250E+000	9	...........
	100	1.34667	8.68674E-001	9.09512E-005	0.00000E+000	7.90069E-005	5.39641E-002	8.68847E-001	3.57250E+000	9	...........
	101	1.36	8.71076E-001	9.11220E-005	0.00000E+000	7.93742E-005	5.39641E-002	8.71251E-001	3.57250E+000	9	...........
	102	1.37333	8.73472E-001	9.11345E-005	0.00000E+000	7.96034E-005	5.39641E-002	8.73627E-001	3.57250E+000	9	...........
	103	1.38667	8.75825E-001	9.10856E-005	0.00000E+000	7.97750E-005	5.39641E-002	8.75996E-001	3.57250E+000	9	...........
	104	1.4	8.78136E-001	9.10293E-005	0.00000E+000	7.99361E-005	5.39641E-002	8.78322E-001	3.57250E+000	9	...........
	105	1.41333	8.80457E-001	9.08532E-005	0.00000E+000	7.99923E-005	5.39641E-002	8.80611E-001	3.57250E+000	9	...........
	106	1.42667	8.82745E-001	9.12137E-005	0.00000E+000	8.05185E-005	5.39641E-002	8.82918E-001	3.57250E+000	9	...........
	107	1.44	8.85014E-001	9.09178E-005	0.00000E+000	8.04635E-005	5.39641E-002	8.85183E-001	3.57250E+000	9	...........
	108	1.45333	8.87247E-001	9.12544E-005	0.00000E+000	8.09651E-005	5.39641E-002	8.87418E-001	3.57250E+000	9	...........
	109	1.46667	8.89449E-001	9.13721E-005	0.00000E+000	8.12708E-005	5.39641E-002	8.89617E-001	3.57250E+000	9	...........
	110	1.48	8.91598E-001	9.12346E-005	0.00000E+000	8.13446E-005	5.39641E-002	8.91784E-001	3.57250E+000	9	...........
	111	1.49333	8.93755E-001	9.10158E-005	0.00000E+000	8.13458E-005	5.39641E-002	8.93929E-001	3.57250E+000	9	...........
	112	1.50667	8.95899E-001	9.11252E-005	0.00000E+000	8.16389E-005	5.39641E-002	8.96118E-001	3.57250E+000	9	...........
	113	1.52	8.98006E-001	9.11116E-005	0.00000E+000	8.18188E-005	5.39641E-002	8.98217E-001	3.57250E+000	9	...........
	114	1.53333	9.00079E-001	9.10616E-005	0.00000E+000	8.19626E-005	5.39641E-002	9.00279E-001	3.57250E+000	9	...........
	115	1.54667	9.02185E-001	9.13429E-005	0.00000E+000	8.24082E-005	5.39641E-002	9.02367E-001	3.57250E+000	9	...........
	116	1.56	9.04256E-001	9.14763E-005	0.00000E+000	8.27179E-005	5.39641E-002	9.04458E-001	3.57250E+000	9	...........
	117	1.57333	9.06320E-001	9.09428E-005	0.00000E+000	8.24233E-005	5.39641E-002	9.06497E-001	3.57250E+000	9	...........
	118	1.58667	9.08381E-001	9.11866E-005	0.00000E+000	8.28322E-005	5.39641E-002	9.08563E-001	3.57250E+000	9	...........
	119	1.6	9.10393E-001	9.11439E-005	0.00000E+000	8.29768E-005	5.39641E-002	9.10564E-001	3.57250E+000	9	...........
	120	1.61333	9.12409E-001	9.11272E-005	0.00000E+000	8.31453E-005	5.39641E-002	9.12554E-001	3.57250E+000	9	...........
	121	1.62667	9.14379E-001	9.14013E-005	0.00000E+000	8.35754E-005	5.39641E-002	9.14567E-001	3.57250E+000	9	...........
	122	1.64	9.16338E-001	9.09866E-005	0.00000E+000	8.33744E-005	5.39641E-002	9.16523E-001	3.57250E+000	9	...........
	123	1.65333	9.18257E-001	9.11720E-005	0.00000E+000	8.37194E-005	5.39641E-002	9.18467E-001	3.57250E+000	9	...........
	124	1.66667	9.20213E-001	9.12408E-005	0.00000E+000	8.39610E-005	5.39641E-002	9.20380E-001	3.57250E+000	9	...........
	125	1.68	9.22145E-001	9.09397E-005	0.00000E+000	8.38596E-005	5.39641E-002	9.22298E-001	3.57250E+000	9	...........
	126	1.69333	9.24033E-001	9.10845E-005	0.00000E+000	8.41651E-005	5.39641E-002	9.24167E-001	3.57250E+000	9	...........
	127	1.70667	9.25862E-001	9.10772E-005	0.00000E+000	8.43250E-005	5.39641E-002	9.26025E-001	3.57250E+000	9	...........
	128	1.72	9.27719E-001	9.11231E-005	0.00000E+000	8.45366E-005	5.39641E-002	9.27886E-001	3.57250E+000	9	...........
	129	1.73333	9.29556E-001	9.10720E-005	0.00000E+000	8.46566E-005	5.39641E-002	9.29720E-001	3.57250E+000	9	...........
	130	1.74667	9.31343E-001	9.12939E-005	0.00000E+000	8.50260E-005	5.39641E-002	9.31522E-001	3.57250E+000	9	...........
	131	1.76	9.33125E-001	9.12012E-005	0.00000E+000	8.51021E-005	5.39641E-002	9.33310E-001	3.57250E+000	9	...........
	132	1.77333	9.34871E-001	9.11012E-005	0.00000E+000	8.51678E-005	5.39641E-002	9.35057E-001	3.57250E+000	9	...........
	133	1.78667	9.36594E-001	9.12012E-005	0.00000E+000	8.54185E-005	5.39641E-002	9.36785E-001	3.57250E+000	9	...........
	134	1.8	9.38311E-001	9.13179E-005	0.00000E+000	8.56846E-005	5.39641E-002	9.38491E-001	3.57250E+000	9	...........
	135	1.81333	9.40028E-001	9.11991E-005	0.00000E+000	8.57297E-005	5.39641E-002	9.40190E-001	3.57250E+000	9	...........
	136	1.82667	9.41737E-001	9.11825E-005	0.00000E+000	8.58699E-005	5.39641E-002	9.41873E-001	3.57250E+000	9	...........
	137	1.84	9.43408E-001	9.11095E-005	0.00000E+000	8.59534E-005	5.39641E-002	9.43560E-001	3.57250E+000	9	...........
	138	1.85333	9.45074E-001	9.12127E-005	0.00000E+000	8.62028E-005	5.39641E-002	9.45258E-001	3.57250E+000	9	...........
	139	1.86667	9.46806E-001	9.11939E-005	0.00000E+000	8.63430E-005	5.39641E-002	9.46945E-001	3.57250E+000	9	...........
	140	1.88	9.48428E-001	9.13325E-005	0.00000E+000	8.66223E-005	5.39641E-002	9.48604E-001	3.57250E+000	9	...........
	141	1.89333	9.50050E-001	9.10626E-005	0.00000E+000	8.65141E-005	5.39641E-002	9.50209E-001	3.57250E+000	9	...........
	142	1.90667	9.51626E-001	9.09314E-005	0.00000E+000	8.65326E-005	5.39641E-002	9.51825E-001	3.57250E+000	9	...........
	143	1.92	9.53195E-001	9.12794E-005	0.00000E+000	8.70070E-005	5.39641E-002	9.53384E-001	3.57250E+000	9	...........
	144	1.93333	9.54762E-001	9.11970E-005	0.00000E+000	8.70715E-005	5.39641E-002	9.54943E-001	3.57250E+000	9	...........
	145	1.94667	9.56306E-001	9.10324E-005	0.00000E+000	8.70549E-005	5.39641E-002	9.56490E-001	3.57250E+000	9	...........
	146	1.96	9.57820E-001	9.10824E-005	0.00000E+000	8.72406E-005	5.39641E-002	9.58008E-001	3.57250E+000	9	...........
	147	1.97333	9.59331E-001	9.10512E-005	0.00000E+000	8.73482E-005	5.39641E-002	9.59545E-001	3.57250E+000	9	...........
	148	1.98667	9.60834E-001	9.12481E-005	0.00000E+000	8.76743E-005	5.39641E-002	9.61034E-001	3.57250E+000	9	...........
	149	2	9.62316E-001	9.12752E-005	0.00000E+000	8.78356E-005	5.39641E-002	9.62533E-001	3.57250E+000	9	...........
	150	2.01333	9.63806E-001	9.11856E-005	0.00000E+000	8.78853E-005	5.39641E-002	9.64010E-001	3.57250E+000	9	...........
	151	2.02667	9.65266E-001	9.09522E-005	0.00000E+000	8.77930E-005	5.39641E-002	9.65491E-001	3.57250E+000	9	...........
	152	2.04	9.66731E-001	9.09710E-005	0.00000E+000	8.79445E-005	5.39641E-002	9.66943E-001	3.57250E+000	9	...........
	153	2.05333	9.68207E-001	9.11502E-005	0.00000E+000	8.82522E-005	5.39641E-002	9.68405E-001	3.57250E+000	9	...........
	154	2.06667	9.69644E-001	9.10845E-005	0.00000E+000	8.83195E-005	5.39641E-002	9.69856E-001	3.57250E+000	9	...........
	155	2.08	9.71044E-001	9.08178E-005	0.00000E+000	8.81881E-005	5.39641E-002	9.71280E-001	3.57250E+000	9	...........
	156	2.09333	9.72468E-001	9.10877E-005	0.00000E+000	8.85799E-005	5.39641E-002	9.72676E-001	3.57250E+000	9	...........
	157	2.10667	9.73884E-001	9.11731E-005	0.00000E+000	8.87920E-005	5.39641E-002	9.74051E-001	3.57250E+000	9	...........
	158	2.12	9.75271E-001	9.11606E-005	0.00000E+000	8.89062E-005	5.39641E-002	9.75475E-001	3.57250E+000	9	...........
	159	2.13333	9.76612E-001	9.08386E-005	0.00000E+000	8.87141E-005	5.39641E-002	9.76828E-001	3.57250E+000	9	...........
	160	2.14667	9.77955E-001	9.10887E-005	0.00000E+000	8.90807E-005	5.39641E-002	9.78165E-001	3.57250E+000	9	...........
	161	2.16	9.79321E-001	9.09866E-005	0.00000E+000	8.91051E-005	5.39641E-002	9.79513E-001	3.57205E+000	9	...........
	162	2.17333	9.80648E-001	9.11199E-005	0.00000E+000	8.93566E-005	5.39641E-002	9.80808E-001	3.57200E+000	9	...........
	163	2.18667	9.81959E-001	9.11283E-005	0.00000E+000	8.94843E-005	5.39641E-002	9.82138E-001	3.57200E+000	9	...........
	164	2.2	9.83271E-001	9.11158E-005	0.00000E+000	8.95915E-005	5.39641E-002	9.83456E-001	3.57200E+000	9	...........
	165	2.21333	9.84547E-001	9.10772E-005	0.00000E+000	8.96698E-005	5.39641E-002	9.84739E-001	3.57200E+000	9	...........
	166	2.22667	9.85841E-001	9.09605E-005	0.00000E+000	8.96726E-005	5.39641E-002	9.86009E-001	3.57200E+000	9	...........
	167	2.24	9.87076E-001	9.13450E-005	0.00000E+000	9.01645E-005	5.39641E-002	9.87251E-001	3.57200E+000	9	...........
	168	2.25333	9.88317E-001	9.10262E-005	0.00000E+000	8.99627E-005	5.39641E-002	9.88490E-001	3.57200E+000	9	...........
	169	2.26667	9.89573E-001	9.11366E-005	0.00000E+000	9.01864E-005	5.39641E-002	9.89719E-001	3.57200E+000	9	...........
	170	2.28	9.90820E-001	9.08147E-005	0.00000E+000	8.99810E-005	5.39641E-002	9.90962E-001	3.57200E+000	9	...........
	171	2.29333	9.92011E-001	9.10449E-005	0.00000E+000	9.03175E-005	5.39641E-002	9.92175E-001	3.57200E+000	9	...........
	172	2.30667	9.93215E-001	9.13044E-005	0.00000E+000	9.06848E-005	5.39641E-002	9.93394E-001	3.57200E+000	9	...........
	173	2.32	9.94419E-001	9.10147E-005	0.00000E+000	9.05067E-005	5.39641E-002	9.94589E-001	3.57200E+000	9	...........
	174	2.33333	9.95613E-001	9.09751E-005	0.00000E+000	9.05760E-005	5.39641E-002	9.95794E-001	3.57200E+000	9	...........
	175	2.34667	9.96785E-001	9.08887E-005	0.00000E+000	9.05964E-005	5.39641E-002	9.96987E-001	3.57200E+000	9	...........
	176	2.36	9.97990E-001	9.10366E-005	0.00000E+000	9.08536E-005	5.39641E-002	9.98154E-001	3.57200E+000	9	...........
	177	2.37333	9.99121E-001	9.10564E-005	0.00000E+000	9.09763E-005	5.39641E-002	9.99306E-001	3.57200E+000	9	...........
	178	2.37833	9.99913E-001	9.09543E-005	0.00000E+000	9.09463E-005	5.39641E-002	1.00012E+000	3.57200E+000	9	...........
STARTTIMEOFFSET	QUANT	994.081	Start Time Offset (s)
