EXPLAIN
TAG	PWR800_CHARGE
TITLE	LABEL	PWR Cyclic Charge Discharge (Cell) - Charge Step	Test &Identifier
DATE	LABEL	10-7-2017	Date
TIME	LABEL	16:19:48	Time
NOTES	NOTES	3	&Notes...
	supercap test cell
	0.9mg
	6M KOH
PSTAT	PSTAT	IFC5000-01520	Potentiostat
CAPACITY	QUANT	1.00000E-003	Capacity (A-hr)
CELLTYPE	SELECTOR	1	&Cell Type
WORKINGCONNECTION	SELECTOR	0	&Working Lead
MAXCHARGETIME	VARIABLEANDUNITS	1.00000E+002	s	1.00000E+002	second(s)	Max &Charge Time
CHARGECURRENT	QUANT	9.00000E-005	&Charge Current (A) 
VOLTAGEFINISH	TWOPARAM	F	1.00000E-003	3.60000E+003	&Voltage Finish	 I (A) < 	Max Time(s)
SAMPLETIME	QUANT	1.00000E-002	Sa&mple Period (s)
CHARGESTOPAT1	MULTIPARAM	4	1.00000E+000	Charge Stop At &1	Voltage > Limit	V
CHARGESTOPAT2	MULTIPARAM	0	0.00000E+000	Charge Stop At &2	None	N/A
AESBHCSELECTOR	TOGGLE	F	Save Both Half Cells
IRCOMP	TOGGLE	F	IR &Measure
EOC	QUANT	0	Open Circuit (V)
SEQUENCER	TOGGLE	TRUE	Run as Sequence
PSTATMODEL	IQUANT	53	Pstat Model
PSTATSECTION	LABEL	IFC5000-01520	Pstat Section
PSTATSERIALNO	LABEL	01520	Pstat Serial Number
CTRLMODE	IQUANT	0	Control Mode
ELECTROMETER	IQUANT	1	RE=0 or CS=1
IESTAB	IQUANT	0	I/E Stability
CASPEED	IQUANT	4	Control Amp Speed
CONVENTION	IQUANT	1	Current Convention
ICHRANGE	IQUANT	2	Ich Range
ICHRANGEMODE	TOGGLE	T	Ich Auto Range
ICHOFFSETENABLE	TOGGLE	F	Ich Offset Enable
ICHOFFSET	QUANT	0	Ich Offset (V)
ICHFILTER	IQUANT	1	Ich Filter
VCHRANGE	IQUANT	2	Vch Range
VCHRANGEMODE	TOGGLE	T	Vch Auto Range
VCHOFFSETENABLE	TOGGLE	F	Vch Offset Enable
VCHOFFSET	QUANT	0	Vch Offset (V)
VCHFILTER	IQUANT	1	Vch Filter
IERANGELOWERLIMIT	IQUANT	9	I/E Range Lower Limit
IERANGEMODE	TOGGLE	F	I/E AutoRange
IERANGE	IQUANT	9	I/E Range
ACHSELECT	IQUANT	1	Ach Select
ACHRANGE	IQUANT	2	Ach Range
ACHOFFSETENABLE	TOGGLE	F	Ach Offset Enable
ACHOFFSET	QUANT	0	Ach Offset (V)
ACHFILTER	IQUANT	1	Ach Filter
CABLEID	IQUANT	14	Cable ID
DCCALDATE	LABEL	5-7-2017	DC Calibration Date
ACCALDATE	LABEL	12/3/2015	AC Calibration Date
FRAMEWORKVERSION	QUANT	7.01	Framework Version
INSTRUMENTVERSION	LABEL	4.00	Instrument Version
CURVE	TABLE	162
	Pt	T	Vf	Im	Vu	Pwr	Sig	Ach	Temp	IERange	Over
	#	s	V	A	V	W	V	V	deg C	#	bits
	0	0.013333	2.57802E-001	9.06834E-005	0.00000E+000	2.33784E-005	5.39641E-002	2.57846E-001	3.57370E+000	9	...........
	1	0.026667	2.77635E-001	9.09512E-005	0.00000E+000	2.52512E-005	5.39641E-002	2.77673E-001	3.57370E+000	9	...........
	2	0.04	2.96306E-001	9.10189E-005	0.00000E+000	2.69694E-005	5.39641E-002	2.96344E-001	3.57370E+000	9	...........
	3	0.053333	3.13977E-001	9.09314E-005	0.00000E+000	2.85504E-005	5.39641E-002	3.14011E-001	3.57370E+000	9	...........
	4	0.066667	3.30727E-001	9.11481E-005	0.00000E+000	3.01452E-005	5.39641E-002	3.30773E-001	3.57370E+000	9	...........
	5	0.08	3.46661E-001	9.08782E-005	0.00000E+000	3.15040E-005	5.39641E-002	3.46708E-001	3.57370E+000	9	...........
	6	0.093333	3.61831E-001	9.11272E-005	0.00000E+000	3.29727E-005	5.39641E-002	3.61880E-001	3.57370E+000	9	...........
	7	0.106667	3.76296E-001	9.08772E-005	0.00000E+000	3.41967E-005	5.39641E-002	3.76347E-001	3.57370E+000	9	...........
	8	0.12	3.90114E-001	9.09824E-005	0.00000E+000	3.54935E-005	5.39641E-002	3.90168E-001	3.57370E+000	9	...........
	9	0.133333	4.03324E-001	9.07490E-005	0.00000E+000	3.66013E-005	5.39641E-002	4.03382E-001	3.57370E+000	9	...........
	10	0.146667	4.15994E-001	9.11304E-005	0.00000E+000	3.79097E-005	5.39641E-002	4.16052E-001	3.57370E+000	9	...........
	11	0.16	4.28140E-001	9.12794E-005	0.00000E+000	3.90803E-005	5.39641E-002	4.28203E-001	3.57370E+000	9	...........
	12	0.173333	4.39828E-001	9.09897E-005	0.00000E+000	4.00199E-005	5.39641E-002	4.39891E-001	3.57370E+000	9	...........
	13	0.186667	4.51065E-001	9.08970E-005	0.00000E+000	4.10004E-005	5.39641E-002	4.51130E-001	3.57370E+000	9	...........
	14	0.2	4.61889E-001	9.09824E-005	0.00000E+000	4.20238E-005	5.39641E-002	4.61952E-001	3.57370E+000	9	...........
	15	0.213333	4.72335E-001	9.07615E-005	0.00000E+000	4.28699E-005	5.39641E-002	4.72395E-001	3.57370E+000	9	...........
	16	0.226667	4.82417E-001	9.09074E-005	0.00000E+000	4.38552E-005	5.39641E-002	4.82485E-001	3.57370E+000	9	...........
	17	0.24	4.92152E-001	9.08095E-005	0.00000E+000	4.46921E-005	5.39641E-002	4.92225E-001	3.57370E+000	9	...........
	18	0.253333	5.01573E-001	9.07095E-005	0.00000E+000	4.54974E-005	5.39641E-002	5.01647E-001	3.57370E+000	9	...........
	19	0.266667	5.10699E-001	9.09960E-005	0.00000E+000	4.64715E-005	5.39641E-002	5.10770E-001	3.57370E+000	9	...........
	20	0.28	5.19552E-001	9.11637E-005	0.00000E+000	4.73643E-005	5.39641E-002	5.19623E-001	3.57370E+000	9	...........
	21	0.293333	5.28143E-001	9.12023E-005	0.00000E+000	4.81679E-005	5.39641E-002	5.28213E-001	3.57370E+000	9	...........
	22	0.306667	5.36401E-001	9.09522E-005	0.00000E+000	4.87868E-005	5.39641E-002	5.36482E-001	3.57370E+000	9	...........
	23	0.32	5.44499E-001	9.07074E-005	0.00000E+000	4.93901E-005	5.39641E-002	5.44611E-001	3.57370E+000	9	...........
	24	0.333333	5.52389E-001	9.09668E-005	0.00000E+000	5.02491E-005	5.39641E-002	5.52501E-001	3.57370E+000	9	...........
	25	0.346667	5.60067E-001	9.09407E-005	0.00000E+000	5.09329E-005	5.39641E-002	5.60166E-001	3.57370E+000	9	...........
	26	0.36	5.67586E-001	9.10845E-005	0.00000E+000	5.16983E-005	5.39641E-002	5.67684E-001	3.57370E+000	9	...........
	27	0.373333	5.74864E-001	9.10668E-005	0.00000E+000	5.23510E-005	5.39641E-002	5.74971E-001	3.57370E+000	9	...........
	28	0.386667	5.81958E-001	9.11627E-005	0.00000E+000	5.30528E-005	5.39641E-002	5.82081E-001	3.57370E+000	9	...........
	29	0.4	5.88940E-001	9.12648E-005	0.00000E+000	5.37495E-005	5.39641E-002	5.89065E-001	3.57370E+000	9	...........
	30	0.413333	5.95724E-001	9.10543E-005	0.00000E+000	5.42432E-005	5.39641E-002	5.95852E-001	3.57370E+000	9	...........
	31	0.426667	6.02362E-001	9.10491E-005	0.00000E+000	5.48445E-005	5.39641E-002	6.02528E-001	3.57370E+000	9	...........
	32	0.44	6.08820E-001	9.11095E-005	0.00000E+000	5.54693E-005	5.39641E-002	6.08993E-001	3.57370E+000	9	...........
	33	0.453333	6.15239E-001	9.10189E-005	0.00000E+000	5.59984E-005	5.39641E-002	6.15353E-001	3.57370E+000	9	...........
	34	0.466667	6.21450E-001	9.11366E-005	0.00000E+000	5.66368E-005	5.39641E-002	6.21586E-001	3.57370E+000	9	...........
	35	0.48	6.27565E-001	9.10022E-005	0.00000E+000	5.71098E-005	5.39641E-002	6.27667E-001	3.57370E+000	9	...........
	36	0.493333	6.33494E-001	9.10220E-005	0.00000E+000	5.76619E-005	5.39641E-002	6.33643E-001	3.57370E+000	9	...........
	37	0.506667	6.39364E-001	9.07313E-005	0.00000E+000	5.80103E-005	5.39641E-002	6.39499E-001	3.57370E+000	9	...........
	38	0.52	6.45112E-001	9.09314E-005	0.00000E+000	5.86609E-005	5.39641E-002	6.45243E-001	3.57370E+000	9	...........
	39	0.533333	6.50753E-001	9.10585E-005	0.00000E+000	5.92566E-005	5.39641E-002	6.50892E-001	3.57370E+000	9	...........
	40	0.546667	6.56276E-001	9.08116E-005	0.00000E+000	5.95975E-005	5.39641E-002	6.56406E-001	3.57370E+000	9	...........
	41	0.56	6.61695E-001	9.11533E-005	0.00000E+000	6.03157E-005	5.39641E-002	6.61814E-001	3.57370E+000	9	...........
	42	0.573333	6.67044E-001	9.11720E-005	0.00000E+000	6.08158E-005	5.39641E-002	6.67170E-001	3.57370E+000	9	...........
	43	0.586667	6.72294E-001	9.10251E-005	0.00000E+000	6.11956E-005	5.39641E-002	6.72418E-001	3.57370E+000	9	...........
	44	0.6	6.77449E-001	9.09272E-005	0.00000E+000	6.15986E-005	5.39641E-002	6.77562E-001	3.57370E+000	9	...........
	45	0.613333	6.82497E-001	9.07918E-005	0.00000E+000	6.19651E-005	5.39641E-002	6.82634E-001	3.57370E+000	9	...........
	46	0.626667	6.87491E-001	9.08814E-005	0.00000E+000	6.24801E-005	5.39641E-002	6.87617E-001	3.57370E+000	9	...........
	47	0.64	6.92385E-001	9.11314E-005	0.00000E+000	6.30980E-005	5.39641E-002	6.92547E-001	3.57370E+000	9	...........
	48	0.653333	6.97224E-001	9.10783E-005	0.00000E+000	6.35020E-005	5.39641E-002	6.97379E-001	3.57370E+000	9	...........
	49	0.666667	7.01992E-001	9.08001E-005	0.00000E+000	6.37409E-005	5.39641E-002	7.02133E-001	3.57370E+000	9	...........
	50	0.68	7.06681E-001	9.09908E-005	0.00000E+000	6.43015E-005	5.39641E-002	7.06816E-001	3.57370E+000	9	...........
	51	0.693333	7.11311E-001	9.08897E-005	0.00000E+000	6.46508E-005	5.39641E-002	7.11432E-001	3.57370E+000	9	...........
	52	0.706667	7.15854E-001	9.10731E-005	0.00000E+000	6.51950E-005	5.39641E-002	7.16005E-001	3.57370E+000	9	...........
	53	0.72	7.20380E-001	9.09428E-005	0.00000E+000	6.55134E-005	5.39641E-002	7.20476E-001	3.57370E+000	9	...........
	54	0.733333	7.24813E-001	9.10772E-005	0.00000E+000	6.60140E-005	5.39641E-002	7.24893E-001	3.57370E+000	9	...........
	55	0.746667	7.29181E-001	9.11366E-005	0.00000E+000	6.64551E-005	5.39641E-002	7.29294E-001	3.57370E+000	9	...........
	56	0.76	7.33490E-001	9.10689E-005	0.00000E+000	6.67981E-005	5.39641E-002	7.33608E-001	3.57370E+000	9	...........
	57	0.773333	7.37744E-001	9.09845E-005	0.00000E+000	6.71233E-005	5.39641E-002	7.37855E-001	3.57370E+000	9	...........
	58	0.786667	7.41964E-001	9.08439E-005	0.00000E+000	6.74029E-005	5.39641E-002	7.42085E-001	3.57370E+000	9	...........
	59	0.8	7.46130E-001	9.08063E-005	0.00000E+000	6.77533E-005	5.39641E-002	7.46261E-001	3.57370E+000	9	...........
	60	0.813333	7.50222E-001	9.10324E-005	0.00000E+000	6.82946E-005	5.39641E-002	7.50345E-001	3.57370E+000	9	...........
	61	0.826667	7.54233E-001	9.10658E-005	0.00000E+000	6.86848E-005	5.39641E-002	7.54376E-001	3.57370E+000	9	...........
	62	0.84	7.58234E-001	9.08241E-005	0.00000E+000	6.88659E-005	5.39641E-002	7.58347E-001	3.57370E+000	9	...........
	63	0.853333	7.62183E-001	9.11991E-005	0.00000E+000	6.95104E-005	5.39641E-002	7.62302E-001	3.57370E+000	9	...........
	64	0.866667	7.66097E-001	9.09168E-005	0.00000E+000	6.96511E-005	5.39641E-002	7.66220E-001	3.57370E+000	9	...........
	65	0.88	7.69986E-001	9.10585E-005	0.00000E+000	7.01138E-005	5.39641E-002	7.70099E-001	3.57370E+000	9	...........
	66	0.893333	7.73791E-001	9.11022E-005	0.00000E+000	7.04941E-005	5.39641E-002	7.73915E-001	3.57370E+000	9	...........
	67	0.906667	7.77558E-001	9.09532E-005	0.00000E+000	7.07214E-005	5.39641E-002	7.77687E-001	3.57370E+000	9	...........
	68	0.92	7.81294E-001	9.08907E-005	0.00000E+000	7.10124E-005	5.39641E-002	7.81416E-001	3.57370E+000	9	...........
	69	0.933333	7.84972E-001	9.11043E-005	0.00000E+000	7.15143E-005	5.39641E-002	7.85115E-001	3.57370E+000	9	...........
	70	0.946667	7.88628E-001	9.07824E-005	0.00000E+000	7.15935E-005	5.39641E-002	7.88752E-001	3.57370E+000	9	...........
	71	0.96	7.92235E-001	9.11939E-005	0.00000E+000	7.22471E-005	5.39641E-002	7.92364E-001	3.57370E+000	9	...........
	72	0.97333	7.95829E-001	9.10731E-005	0.00000E+000	7.24786E-005	5.39641E-002	7.95962E-001	3.57370E+000	9	...........
	73	0.98667	7.99346E-001	9.11043E-005	0.00000E+000	7.28238E-005	5.39641E-002	7.99460E-001	3.57345E+000	9	...........
	74	1	8.02838E-001	9.10616E-005	0.00000E+000	7.31077E-005	5.39641E-002	8.02975E-001	3.57290E+000	9	...........
	75	1.01333	8.06297E-001	9.07970E-005	0.00000E+000	7.32093E-005	5.39641E-002	8.06442E-001	3.57290E+000	9	...........
	76	1.02667	8.09698E-001	9.11752E-005	0.00000E+000	7.38244E-005	5.39641E-002	8.09842E-001	3.57290E+000	9	...........
	77	1.04	8.13069E-001	9.09168E-005	0.00000E+000	7.39217E-005	5.39641E-002	8.13226E-001	3.57290E+000	9	...........
	78	1.05333	8.16409E-001	9.12075E-005	0.00000E+000	7.44626E-005	5.39641E-002	8.16568E-001	3.57290E+000	9	...........
	79	1.06667	8.19734E-001	9.09355E-005	0.00000E+000	7.45430E-005	5.39641E-002	8.19878E-001	3.57290E+000	9	...........
	80	1.08	8.22973E-001	9.12158E-005	0.00000E+000	7.50682E-005	5.39641E-002	8.23156E-001	3.57290E+000	9	...........
	81	1.09333	8.26198E-001	9.08376E-005	0.00000E+000	7.50498E-005	5.39641E-002	8.26353E-001	3.57290E+000	9	...........
	82	1.10667	8.29394E-001	9.10887E-005	0.00000E+000	7.55484E-005	5.39641E-002	8.29558E-001	3.57290E+000	9	...........
	83	1.12	8.32562E-001	9.10314E-005	0.00000E+000	7.57892E-005	5.39641E-002	8.32738E-001	3.57290E+000	9	...........
	84	1.13333	8.35684E-001	9.12491E-005	0.00000E+000	7.62555E-005	5.39641E-002	8.35896E-001	3.57290E+000	9	...........
	85	1.14667	8.38814E-001	9.09512E-005	0.00000E+000	7.62911E-005	5.39641E-002	8.39023E-001	3.57290E+000	9	...........
	86	1.16	8.41896E-001	9.10314E-005	0.00000E+000	7.66390E-005	5.39641E-002	8.42088E-001	3.57290E+000	9	...........
	87	1.17333	8.44977E-001	9.10814E-005	0.00000E+000	7.69617E-005	5.39641E-002	8.45181E-001	3.57290E+000	9	...........
	88	1.18667	8.48047E-001	9.09137E-005	0.00000E+000	7.70991E-005	5.39641E-002	8.48206E-001	3.57290E+000	9	...........
	89	1.2	8.51061E-001	9.12033E-005	0.00000E+000	7.76196E-005	5.39641E-002	8.51223E-001	3.57290E+000	9	...........
	90	1.21333	8.54045E-001	9.11127E-005	0.00000E+000	7.78143E-005	5.39641E-002	8.54189E-001	3.57290E+000	9	...........
	91	1.22667	8.56962E-001	9.10158E-005	0.00000E+000	7.79970E-005	5.39641E-002	8.57139E-001	3.57290E+000	9	...........
	92	1.24	8.59860E-001	9.09262E-005	0.00000E+000	7.81838E-005	5.39641E-002	8.60026E-001	3.57290E+000	9	...........
	93	1.25333	8.62725E-001	9.10616E-005	0.00000E+000	7.85611E-005	5.39641E-002	8.62883E-001	3.57290E+000	9	...........
	94	1.26667	8.65525E-001	9.09230E-005	0.00000E+000	7.86962E-005	5.39641E-002	8.65722E-001	3.57290E+000	9	...........
	95	1.28	8.68350E-001	9.10647E-005	0.00000E+000	7.90760E-005	5.39641E-002	8.68546E-001	3.57290E+000	9	...........
	96	1.29333	8.71147E-001	9.10960E-005	0.00000E+000	7.93580E-005	5.39641E-002	8.71348E-001	3.57290E+000	9	...........
	97	1.30667	8.73864E-001	9.09460E-005	0.00000E+000	7.94744E-005	5.39641E-002	8.74069E-001	3.57290E+000	9	...........
	98	1.32	8.76569E-001	9.09887E-005	0.00000E+000	7.97579E-005	5.39641E-002	8.76778E-001	3.57290E+000	9	...........
	99	1.33333	8.79258E-001	9.08730E-005	0.00000E+000	7.99008E-005	5.39641E-002	8.79436E-001	3.57290E+000	9	...........
	100	1.34667	8.81922E-001	9.06438E-005	0.00000E+000	7.99408E-005	5.39641E-002	8.82106E-001	3.57290E+000	9	...........
	101	1.36	8.84568E-001	9.06053E-005	0.00000E+000	8.01465E-005	5.39641E-002	8.84728E-001	3.57290E+000	9	...........
	102	1.37333	8.87164E-001	9.08616E-005	0.00000E+000	8.06091E-005	5.39641E-002	8.87342E-001	3.57290E+000	9	...........
	103	1.38667	8.89733E-001	9.09501E-005	0.00000E+000	8.09213E-005	5.39641E-002	8.89867E-001	3.57290E+000	9	...........
	104	1.4	8.92270E-001	9.10699E-005	0.00000E+000	8.12590E-005	5.39641E-002	8.92414E-001	3.57290E+000	9	...........
	105	1.41333	8.94776E-001	9.12116E-005	0.00000E+000	8.16140E-005	5.39641E-002	8.94963E-001	3.57290E+000	9	...........
	106	1.42667	8.97277E-001	9.07157E-005	0.00000E+000	8.13971E-005	5.39641E-002	8.97449E-001	3.57290E+000	9	...........
	107	1.44	8.99758E-001	9.09335E-005	0.00000E+000	8.18181E-005	5.39641E-002	8.99929E-001	3.57290E+000	9	...........
	108	1.45333	9.02211E-001	9.12825E-005	0.00000E+000	8.23561E-005	5.39641E-002	9.02384E-001	3.57290E+000	9	...........
	109	1.46667	9.04617E-001	9.10699E-005	0.00000E+000	8.23834E-005	5.39641E-002	9.04823E-001	3.57290E+000	9	...........
	110	1.48	9.07018E-001	9.09105E-005	0.00000E+000	8.24575E-005	5.39641E-002	9.07223E-001	3.57290E+000	9	...........
	111	1.49333	9.09405E-001	9.09762E-005	0.00000E+000	8.27342E-005	5.39641E-002	9.09585E-001	3.57290E+000	9	...........
	112	1.50667	9.11753E-001	9.12231E-005	0.00000E+000	8.31730E-005	5.39641E-002	9.11927E-001	3.57290E+000	9	...........
	113	1.52	9.14065E-001	9.11429E-005	0.00000E+000	8.33106E-005	5.39641E-002	9.14272E-001	3.57290E+000	9	...........
	114	1.53333	9.16368E-001	9.07615E-005	0.00000E+000	8.31709E-005	5.39641E-002	9.16577E-001	3.57290E+000	9	...........
	115	1.54667	9.18613E-001	9.09720E-005	0.00000E+000	8.35681E-005	5.39641E-002	9.18824E-001	3.57290E+000	9	...........
	116	1.56	9.20921E-001	9.11606E-005	0.00000E+000	8.39517E-005	5.39641E-002	9.21090E-001	3.57290E+000	9	...........
	117	1.57333	9.23170E-001	9.10699E-005	0.00000E+000	8.40731E-005	5.39641E-002	9.23310E-001	3.57290E+000	9	...........
	118	1.58667	9.25358E-001	9.07063E-005	0.00000E+000	8.39359E-005	5.39641E-002	9.25515E-001	3.57290E+000	9	...........
	119	1.6	9.27520E-001	9.09897E-005	0.00000E+000	8.43948E-005	5.39641E-002	9.27694E-001	3.57290E+000	9	...........
	120	1.61333	9.29664E-001	9.09928E-005	0.00000E+000	8.45927E-005	5.39641E-002	9.29818E-001	3.57290E+000	9	...........
	121	1.62667	9.31795E-001	9.06813E-005	0.00000E+000	8.44964E-005	5.39641E-002	9.31927E-001	3.57290E+000	9	...........
	122	1.64	9.33904E-001	9.11012E-005	0.00000E+000	8.50798E-005	5.39641E-002	9.34062E-001	3.57290E+000	9	...........
	123	1.65333	9.35957E-001	9.10324E-005	0.00000E+000	8.52025E-005	5.39641E-002	9.36174E-001	3.57290E+000	9	...........
	124	1.66667	9.38009E-001	9.09491E-005	0.00000E+000	8.53111E-005	5.39641E-002	9.38190E-001	3.57290E+000	9	...........
	125	1.68	9.40039E-001	9.11377E-005	0.00000E+000	8.56729E-005	5.39641E-002	9.40234E-001	3.57290E+000	9	...........
	126	1.69333	9.42051E-001	9.11085E-005	0.00000E+000	8.58288E-005	5.39641E-002	9.42221E-001	3.57290E+000	9	...........
	127	1.70667	9.44017E-001	9.11002E-005	0.00000E+000	8.60001E-005	5.39641E-002	9.44218E-001	3.57290E+000	9	...........
	128	1.72	9.46015E-001	9.10366E-005	0.00000E+000	8.61220E-005	5.39641E-002	9.46210E-001	3.57290E+000	9	...........
	129	1.73333	9.47979E-001	9.10418E-005	0.00000E+000	8.63058E-005	5.39641E-002	9.48170E-001	3.57290E+000	9	...........
	130	1.74667	9.49894E-001	9.10251E-005	0.00000E+000	8.64642E-005	5.39641E-002	9.50088E-001	3.57290E+000	9	...........
	131	1.76	9.51776E-001	9.10001E-005	0.00000E+000	8.66117E-005	5.39641E-002	9.51999E-001	3.57290E+000	9	...........
	132	1.77333	9.53684E-001	9.10428E-005	0.00000E+000	8.68261E-005	5.39641E-002	9.53860E-001	3.57290E+000	9	...........
	133	1.78667	9.55530E-001	9.07897E-005	0.00000E+000	8.67522E-005	5.39641E-002	9.55743E-001	3.57290E+000	9	...........
	134	1.8	9.57367E-001	9.10574E-005	0.00000E+000	8.71753E-005	5.39641E-002	9.57580E-001	3.57290E+000	9	...........
	135	1.81333	9.59201E-001	9.11773E-005	0.00000E+000	8.74573E-005	5.39641E-002	9.59408E-001	3.57290E+000	9	...........
	136	1.82667	9.60985E-001	9.09407E-005	0.00000E+000	8.73927E-005	5.39641E-002	9.61199E-001	3.57290E+000	9	...........
	137	1.84	9.62758E-001	9.10897E-005	0.00000E+000	8.76974E-005	5.39641E-002	9.62985E-001	3.57290E+000	9	...........
	138	1.85333	9.64535E-001	9.08762E-005	0.00000E+000	8.76533E-005	5.39641E-002	9.64735E-001	3.57290E+000	9	...........
	139	1.86667	9.66276E-001	9.09251E-005	0.00000E+000	8.78588E-005	5.39641E-002	9.66463E-001	3.57290E+000	9	...........
	140	1.88	9.67965E-001	9.11106E-005	0.00000E+000	8.81919E-005	5.39641E-002	9.68175E-001	3.57290E+000	9	...........
	141	1.89333	9.69689E-001	9.13190E-005	0.00000E+000	8.85509E-005	5.39641E-002	9.69875E-001	3.57290E+000	9	...........
	142	1.90667	9.71354E-001	9.08397E-005	0.00000E+000	8.82375E-005	5.39641E-002	9.71573E-001	3.57290E+000	9	...........
	143	1.92	9.73069E-001	9.09157E-005	0.00000E+000	8.84672E-005	5.39641E-002	9.73248E-001	3.57290E+000	9	...........
	144	1.93333	9.74724E-001	9.07261E-005	0.00000E+000	8.84329E-005	5.39641E-002	9.74881E-001	3.57290E+000	9	...........
	145	1.94667	9.76350E-001	9.09543E-005	0.00000E+000	8.88032E-005	5.39641E-002	9.76528E-001	3.57290E+000	9	...........
	146	1.96	9.77948E-001	9.12325E-005	0.00000E+000	8.92206E-005	5.39641E-002	9.78141E-001	3.57290E+000	9	...........
	147	1.97333	9.79565E-001	9.11804E-005	0.00000E+000	8.93171E-005	5.39641E-002	9.79719E-001	3.57290E+000	9	...........
	148	1.98667	9.81117E-001	9.10314E-005	0.00000E+000	8.93124E-005	5.39641E-002	9.81290E-001	3.57296E+000	9	...........
	149	2	9.82702E-001	9.11804E-005	0.00000E+000	8.96032E-005	5.39641E-002	9.82864E-001	3.57310E+000	9	...........
	150	2.01333	9.84216E-001	9.11564E-005	0.00000E+000	8.97176E-005	5.39641E-002	9.84399E-001	3.57310E+000	9	...........
	151	2.02667	9.85728E-001	9.10481E-005	0.00000E+000	8.97486E-005	5.39641E-002	9.85925E-001	3.57310E+000	9	...........
	152	2.04	9.87214E-001	9.08418E-005	0.00000E+000	8.96802E-005	5.39641E-002	9.87445E-001	3.57310E+000	9	...........
	153	2.05333	9.88731E-001	9.10814E-005	0.00000E+000	9.00550E-005	5.39641E-002	9.88939E-001	3.57310E+000	9	...........
	154	2.06667	9.90206E-001	9.10106E-005	0.00000E+000	9.01192E-005	5.39641E-002	9.90395E-001	3.57310E+000	9	...........
	155	2.08	9.91638E-001	9.10783E-005	0.00000E+000	9.03167E-005	5.39641E-002	9.91854E-001	3.57310E+000	9	...........
	156	2.09333	9.93067E-001	9.09783E-005	0.00000E+000	9.03475E-005	5.39641E-002	9.93297E-001	3.57310E+000	9	...........
	157	2.10667	9.94478E-001	9.08407E-005	0.00000E+000	9.03391E-005	5.39641E-002	9.94682E-001	3.57310E+000	9	...........
	158	2.12	9.95912E-001	9.07667E-005	0.00000E+000	9.03957E-005	5.39641E-002	9.96109E-001	3.57310E+000	9	...........
	159	2.13333	9.97306E-001	9.10064E-005	0.00000E+000	9.07612E-005	5.39641E-002	9.97546E-001	3.57310E+000	9	...........
	160	2.14667	9.98714E-001	9.07980E-005	0.00000E+000	9.06813E-005	5.39641E-002	9.98930E-001	3.57310E+000	9	...........
	161	2.155	9.99812E-001	9.11360E-005	0.00000E+000	9.11189E-005	5.39641E-002	1.00005E+000	3.57310E+000	9	...........
STARTTIMEOFFSET	QUANT	4051.381	Start Time Offset (s)
