EXPLAIN
TAG	PWR800_CHARGE
TITLE	LABEL	PWR Cyclic Charge Discharge (Cell) - Charge Step	Test &Identifier
DATE	LABEL	10-7-2017	Date
TIME	LABEL	15:49:52	Time
NOTES	NOTES	3	&Notes...
	supercap test cell
	0.9mg
	6M KOH
PSTAT	PSTAT	IFC5000-01520	Potentiostat
CAPACITY	QUANT	1.00000E-003	Capacity (A-hr)
CELLTYPE	SELECTOR	1	&Cell Type
WORKINGCONNECTION	SELECTOR	0	&Working Lead
MAXCHARGETIME	VARIABLEANDUNITS	1.00000E+002	s	1.00000E+002	second(s)	Max &Charge Time
CHARGECURRENT	QUANT	9.00000E-005	&Charge Current (A) 
VOLTAGEFINISH	TWOPARAM	F	1.00000E-003	3.60000E+003	&Voltage Finish	 I (A) < 	Max Time(s)
SAMPLETIME	QUANT	1.00000E-002	Sa&mple Period (s)
CHARGESTOPAT1	MULTIPARAM	4	1.00000E+000	Charge Stop At &1	Voltage > Limit	V
CHARGESTOPAT2	MULTIPARAM	0	0.00000E+000	Charge Stop At &2	None	N/A
AESBHCSELECTOR	TOGGLE	F	Save Both Half Cells
IRCOMP	TOGGLE	F	IR &Measure
EOC	QUANT	0	Open Circuit (V)
SEQUENCER	TOGGLE	TRUE	Run as Sequence
PSTATMODEL	IQUANT	53	Pstat Model
PSTATSECTION	LABEL	IFC5000-01520	Pstat Section
PSTATSERIALNO	LABEL	01520	Pstat Serial Number
CTRLMODE	IQUANT	0	Control Mode
ELECTROMETER	IQUANT	1	RE=0 or CS=1
IESTAB	IQUANT	0	I/E Stability
CASPEED	IQUANT	4	Control Amp Speed
CONVENTION	IQUANT	1	Current Convention
ICHRANGE	IQUANT	2	Ich Range
ICHRANGEMODE	TOGGLE	T	Ich Auto Range
ICHOFFSETENABLE	TOGGLE	F	Ich Offset Enable
ICHOFFSET	QUANT	0	Ich Offset (V)
ICHFILTER	IQUANT	1	Ich Filter
VCHRANGE	IQUANT	2	Vch Range
VCHRANGEMODE	TOGGLE	T	Vch Auto Range
VCHOFFSETENABLE	TOGGLE	F	Vch Offset Enable
VCHOFFSET	QUANT	0	Vch Offset (V)
VCHFILTER	IQUANT	1	Vch Filter
IERANGELOWERLIMIT	IQUANT	9	I/E Range Lower Limit
IERANGEMODE	TOGGLE	F	I/E AutoRange
IERANGE	IQUANT	9	I/E Range
ACHSELECT	IQUANT	1	Ach Select
ACHRANGE	IQUANT	2	Ach Range
ACHOFFSETENABLE	TOGGLE	F	Ach Offset Enable
ACHOFFSET	QUANT	0	Ach Offset (V)
ACHFILTER	IQUANT	1	Ach Filter
CABLEID	IQUANT	14	Cable ID
DCCALDATE	LABEL	5-7-2017	DC Calibration Date
ACCALDATE	LABEL	12/3/2015	AC Calibration Date
FRAMEWORKVERSION	QUANT	7.01	Framework Version
INSTRUMENTVERSION	LABEL	4.00	Instrument Version
CURVE	TABLE	167
	Pt	T	Vf	Im	Vu	Pwr	Sig	Ach	Temp	IERange	Over
	#	s	V	A	V	W	V	V	deg C	#	bits
	0	0.013333	2.72484E-001	9.09605E-005	0.00000E+000	2.47853E-005	5.39641E-002	2.72529E-001	3.57310E+000	9	...........
	1	0.026667	2.92190E-001	9.10606E-005	0.00000E+000	2.66070E-005	5.39641E-002	2.92223E-001	3.57310E+000	9	...........
	2	0.04	3.10594E-001	9.10668E-005	0.00000E+000	2.82848E-005	5.39641E-002	3.10639E-001	3.57310E+000	9	...........
	3	0.053333	3.27897E-001	9.10522E-005	0.00000E+000	2.98557E-005	5.39641E-002	3.27938E-001	3.57310E+000	9	...........
	4	0.066667	3.44210E-001	9.09032E-005	0.00000E+000	3.12898E-005	5.39641E-002	3.44253E-001	3.57310E+000	9	...........
	5	0.08	3.59664E-001	9.10345E-005	0.00000E+000	3.27418E-005	5.39641E-002	3.59706E-001	3.57310E+000	9	...........
	6	0.093333	3.74325E-001	9.09803E-005	0.00000E+000	3.40562E-005	5.39641E-002	3.74370E-001	3.57310E+000	9	...........
	7	0.106667	3.88291E-001	9.09970E-005	0.00000E+000	3.53334E-005	5.39641E-002	3.88337E-001	3.57310E+000	9	...........
	8	0.12	4.01610E-001	9.09699E-005	0.00000E+000	3.65344E-005	5.39641E-002	4.01653E-001	3.57310E+000	9	...........
	9	0.133333	4.14348E-001	9.07157E-005	0.00000E+000	3.75879E-005	5.39641E-002	4.14404E-001	3.57310E+000	9	...........
	10	0.146667	4.26563E-001	9.11689E-005	0.00000E+000	3.88893E-005	5.39641E-002	4.26619E-001	3.57310E+000	9	...........
	11	0.16	4.38262E-001	9.08720E-005	0.00000E+000	3.98257E-005	5.39641E-002	4.38319E-001	3.57310E+000	9	...........
	12	0.173333	4.49509E-001	9.10991E-005	0.00000E+000	4.09498E-005	5.39641E-002	4.49565E-001	3.57310E+000	9	...........
	13	0.186667	4.60335E-001	9.09199E-005	0.00000E+000	4.18536E-005	5.39641E-002	4.60390E-001	3.57310E+000	9	...........
	14	0.2	4.70773E-001	9.09220E-005	0.00000E+000	4.28036E-005	5.39641E-002	4.70833E-001	3.57310E+000	9	...........
	15	0.213333	4.80852E-001	9.10574E-005	0.00000E+000	4.37851E-005	5.39641E-002	4.80916E-001	3.57310E+000	9	...........
	16	0.226667	4.90581E-001	9.09491E-005	0.00000E+000	4.46179E-005	5.39641E-002	4.90642E-001	3.57310E+000	9	...........
	17	0.24	4.99984E-001	9.11866E-005	0.00000E+000	4.55918E-005	5.39641E-002	5.00057E-001	3.57310E+000	9	...........
	18	0.253333	5.09112E-001	9.09585E-005	0.00000E+000	4.63081E-005	5.39641E-002	5.09178E-001	3.57310E+000	9	...........
	19	0.266667	5.17954E-001	9.09303E-005	0.00000E+000	4.70977E-005	5.39641E-002	5.18022E-001	3.57310E+000	9	...........
	20	0.28	5.26529E-001	9.11929E-005	0.00000E+000	4.80157E-005	5.39641E-002	5.26598E-001	3.57310E+000	9	...........
	21	0.293333	5.34798E-001	9.06636E-005	0.00000E+000	4.84867E-005	5.39641E-002	5.34864E-001	3.57310E+000	9	...........
	22	0.306667	5.42885E-001	9.11220E-005	0.00000E+000	4.94687E-005	5.39641E-002	5.42930E-001	3.57310E+000	9	...........
	23	0.32	5.50745E-001	9.09376E-005	0.00000E+000	5.00834E-005	5.39641E-002	5.50809E-001	3.57310E+000	9	...........
	24	0.333333	5.58385E-001	9.09918E-005	0.00000E+000	5.08085E-005	5.39641E-002	5.58467E-001	3.57310E+000	9	...........
	25	0.346667	5.65898E-001	9.10647E-005	0.00000E+000	5.15334E-005	5.39641E-002	5.65979E-001	3.57310E+000	9	...........
	26	0.36	5.73178E-001	9.07834E-005	0.00000E+000	5.20351E-005	5.39641E-002	5.73253E-001	3.57310E+000	9	...........
	27	0.373333	5.80276E-001	9.07615E-005	0.00000E+000	5.26667E-005	5.39641E-002	5.80361E-001	3.57310E+000	9	...........
	28	0.386667	5.87201E-001	9.10189E-005	0.00000E+000	5.34464E-005	5.39641E-002	5.87321E-001	3.57300E+000	9	...........
	29	0.4	5.93997E-001	9.09137E-005	0.00000E+000	5.40025E-005	5.39641E-002	5.94133E-001	3.57300E+000	9	...........
	30	0.413333	6.00622E-001	9.10147E-005	0.00000E+000	5.46655E-005	5.39641E-002	6.00747E-001	3.57300E+000	9	...........
	31	0.426667	6.07085E-001	9.10668E-005	0.00000E+000	5.52853E-005	5.39641E-002	6.07211E-001	3.57300E+000	9	...........
	32	0.44	6.13408E-001	9.10772E-005	0.00000E+000	5.58675E-005	5.39641E-002	6.13556E-001	3.57300E+000	9	...........
	33	0.453333	6.19644E-001	9.08720E-005	0.00000E+000	5.63083E-005	5.39641E-002	6.19739E-001	3.57300E+000	9	...........
	34	0.466667	6.25691E-001	9.10522E-005	0.00000E+000	5.69706E-005	5.39641E-002	6.25801E-001	3.57300E+000	9	...........
	35	0.48	6.31600E-001	9.08980E-005	0.00000E+000	5.74112E-005	5.39641E-002	6.31718E-001	3.57300E+000	9	...........
	36	0.493333	6.37411E-001	9.09335E-005	0.00000E+000	5.79620E-005	5.39641E-002	6.37506E-001	3.57300E+000	9	...........
	37	0.506667	6.43123E-001	9.11241E-005	0.00000E+000	5.86040E-005	5.39641E-002	6.43214E-001	3.57300E+000	9	...........
	38	0.52	6.48704E-001	9.08772E-005	0.00000E+000	5.89524E-005	5.39641E-002	6.48786E-001	3.57300E+000	9	...........
	39	0.533333	6.54177E-001	9.10939E-005	0.00000E+000	5.95915E-005	5.39641E-002	6.54288E-001	3.57300E+000	9	...........
	40	0.546667	6.59539E-001	9.10303E-005	0.00000E+000	6.00381E-005	5.39641E-002	6.59629E-001	3.57300E+000	9	...........
	41	0.56	6.64817E-001	9.09637E-005	0.00000E+000	6.04742E-005	5.39641E-002	6.64930E-001	3.57300E+000	9	...........
	42	0.573333	6.70004E-001	9.07407E-005	0.00000E+000	6.07966E-005	5.39641E-002	6.70118E-001	3.57300E+000	9	...........
	43	0.586667	6.75125E-001	9.10595E-005	0.00000E+000	6.14765E-005	5.39641E-002	6.75228E-001	3.57300E+000	9	...........
	44	0.6	6.80123E-001	9.09595E-005	0.00000E+000	6.18636E-005	5.39641E-002	6.80260E-001	3.57300E+000	9	...........
	45	0.613333	6.85030E-001	9.10647E-005	0.00000E+000	6.23820E-005	5.39641E-002	6.85165E-001	3.57300E+000	9	...........
	46	0.626667	6.89873E-001	9.09605E-005	0.00000E+000	6.27512E-005	5.39641E-002	6.90028E-001	3.57300E+000	9	...........
	47	0.64	6.94688E-001	9.09366E-005	0.00000E+000	6.31726E-005	5.39641E-002	6.94813E-001	3.57300E+000	9	...........
	48	0.653333	6.99385E-001	9.12773E-005	0.00000E+000	6.38379E-005	5.39641E-002	6.99518E-001	3.57300E+000	9	...........
	49	0.666667	7.04048E-001	9.09387E-005	0.00000E+000	6.40252E-005	5.39641E-002	7.04179E-001	3.57300E+000	9	...........
	50	0.68	7.08600E-001	9.08449E-005	0.00000E+000	6.43727E-005	5.39641E-002	7.08739E-001	3.57300E+000	9	...........
	51	0.693333	7.13077E-001	9.08689E-005	0.00000E+000	6.47965E-005	5.39641E-002	7.13221E-001	3.57300E+000	9	...........
	52	0.706667	7.17534E-001	9.12168E-005	0.00000E+000	6.54512E-005	5.39641E-002	7.17661E-001	3.57300E+000	9	...........
	53	0.72	7.21889E-001	9.07626E-005	0.00000E+000	6.55206E-005	5.39641E-002	7.21994E-001	3.57300E+000	9	...........
	54	0.733333	7.26185E-001	9.10929E-005	0.00000E+000	6.61502E-005	5.39641E-002	7.26276E-001	3.57300E+000	9	...........
	55	0.746667	7.30440E-001	9.09303E-005	0.00000E+000	6.64192E-005	5.39641E-002	7.30535E-001	3.57300E+000	9	...........
	56	0.76	7.34608E-001	9.09981E-005	0.00000E+000	6.68479E-005	5.39641E-002	7.34700E-001	3.57300E+000	9	...........
	57	0.773333	7.38756E-001	9.10533E-005	0.00000E+000	6.72661E-005	5.39641E-002	7.38873E-001	3.57300E+000	9	...........
	58	0.786667	7.42841E-001	9.08407E-005	0.00000E+000	6.74802E-005	5.39641E-002	7.42975E-001	3.57300E+000	9	...........
	59	0.8	7.46869E-001	9.10064E-005	0.00000E+000	6.79698E-005	5.39641E-002	7.46980E-001	3.57300E+000	9	...........
	60	0.813333	7.50848E-001	9.11960E-005	0.00000E+000	6.84743E-005	5.39641E-002	7.50969E-001	3.57300E+000	9	...........
	61	0.826667	7.54794E-001	9.07074E-005	0.00000E+000	6.84654E-005	5.39641E-002	7.54914E-001	3.57300E+000	9	...........
	62	0.84	7.58667E-001	9.07584E-005	0.00000E+000	6.88554E-005	5.39641E-002	7.58786E-001	3.57300E+000	9	...........
	63	0.853333	7.62478E-001	9.10168E-005	0.00000E+000	6.93983E-005	5.39641E-002	7.62627E-001	3.57300E+000	9	...........
	64	0.866667	7.66262E-001	9.10053E-005	0.00000E+000	6.97339E-005	5.39641E-002	7.66416E-001	3.57300E+000	9	...........
	65	0.88	7.70027E-001	9.09720E-005	0.00000E+000	7.00509E-005	5.39641E-002	7.70185E-001	3.57300E+000	9	...........
	66	0.893333	7.73727E-001	9.08241E-005	0.00000E+000	7.02731E-005	5.39641E-002	7.73870E-001	3.57300E+000	9	...........
	67	0.906667	7.77407E-001	9.11366E-005	0.00000E+000	7.08503E-005	5.39641E-002	7.77505E-001	3.57300E+000	9	...........
	68	0.92	7.81024E-001	9.08949E-005	0.00000E+000	7.09911E-005	5.39641E-002	7.81129E-001	3.57300E+000	9	...........
	69	0.933333	7.84593E-001	9.11147E-005	0.00000E+000	7.14880E-005	5.39641E-002	7.84675E-001	3.57300E+000	9	...........
	70	0.946667	7.88126E-001	9.11324E-005	0.00000E+000	7.18239E-005	5.39641E-002	7.88239E-001	3.57300E+000	9	...........
	71	0.96	7.91620E-001	9.10428E-005	0.00000E+000	7.20714E-005	5.39641E-002	7.91737E-001	3.57300E+000	9	...........
	72	0.97333	7.95127E-001	9.11022E-005	0.00000E+000	7.24378E-005	5.39641E-002	7.95230E-001	3.57300E+000	9	...........
	73	0.98667	7.98517E-001	9.10574E-005	0.00000E+000	7.27109E-005	5.39641E-002	7.98640E-001	3.57300E+000	9	...........
	74	1	8.01867E-001	9.10491E-005	0.00000E+000	7.30092E-005	5.39641E-002	8.01995E-001	3.57300E+000	9	...........
	75	1.01333	8.05213E-001	9.09532E-005	0.00000E+000	7.32367E-005	5.39641E-002	8.05367E-001	3.57300E+000	9	...........
	76	1.02667	8.08511E-001	9.11470E-005	0.00000E+000	7.36934E-005	5.39641E-002	8.08662E-001	3.57300E+000	9	...........
	77	1.04	8.11763E-001	9.10814E-005	0.00000E+000	7.39365E-005	5.39641E-002	8.11935E-001	3.57300E+000	9	...........
	78	1.05333	8.15009E-001	9.08709E-005	0.00000E+000	7.40606E-005	5.39641E-002	8.15191E-001	3.57300E+000	9	...........
	79	1.06667	8.18208E-001	9.10981E-005	0.00000E+000	7.45371E-005	5.39641E-002	8.18376E-001	3.57300E+000	9	...........
	80	1.08	8.21350E-001	9.11043E-005	0.00000E+000	7.48285E-005	5.39641E-002	8.21541E-001	3.57300E+000	9	...........
	81	1.09333	8.24471E-001	9.08022E-005	0.00000E+000	7.48638E-005	5.39641E-002	8.24655E-001	3.57300E+000	9	...........
	82	1.10667	8.27556E-001	9.10116E-005	0.00000E+000	7.53172E-005	5.39641E-002	8.27723E-001	3.57300E+000	9	...........
	83	1.12	8.30588E-001	9.10918E-005	0.00000E+000	7.56598E-005	5.39641E-002	8.30773E-001	3.57300E+000	9	...........
	84	1.13333	8.33607E-001	9.08595E-005	0.00000E+000	7.57411E-005	5.39641E-002	8.33792E-001	3.57300E+000	9	...........
	85	1.14667	8.36592E-001	9.12210E-005	0.00000E+000	7.63148E-005	5.39641E-002	8.36791E-001	3.57300E+000	9	...........
	86	1.16	8.39557E-001	9.08626E-005	0.00000E+000	7.62843E-005	5.39641E-002	8.39729E-001	3.57300E+000	9	...........
	87	1.17333	8.42478E-001	9.07897E-005	0.00000E+000	7.64883E-005	5.39641E-002	8.42672E-001	3.57300E+000	9	...........
	88	1.18667	8.45438E-001	9.09918E-005	0.00000E+000	7.69279E-005	5.39641E-002	8.45608E-001	3.57300E+000	9	...........
	89	1.2	8.48307E-001	9.11199E-005	0.00000E+000	7.72977E-005	5.39641E-002	8.48469E-001	3.57300E+000	9	...........
	90	1.21333	8.51102E-001	9.12168E-005	0.00000E+000	7.76349E-005	5.39641E-002	8.51298E-001	3.57300E+000	9	...........
	91	1.22667	8.53890E-001	9.09230E-005	0.00000E+000	7.76382E-005	5.39641E-002	8.54094E-001	3.57300E+000	9	...........
	92	1.24	8.56689E-001	9.10720E-005	0.00000E+000	7.80204E-005	5.39641E-002	8.56854E-001	3.57300E+000	9	...........
	93	1.25333	8.59418E-001	9.08803E-005	0.00000E+000	7.81042E-005	5.39641E-002	8.59601E-001	3.57300E+000	9	...........
	94	1.26667	8.62160E-001	9.11606E-005	0.00000E+000	7.85950E-005	5.39641E-002	8.62314E-001	3.57300E+000	9	...........
	95	1.28	8.64809E-001	9.12283E-005	0.00000E+000	7.88950E-005	5.39641E-002	8.65001E-001	3.57300E+000	9	...........
	96	1.29333	8.67507E-001	9.12596E-005	0.00000E+000	7.91683E-005	5.39641E-002	8.67687E-001	3.57300E+000	9	...........
	97	1.30667	8.70179E-001	9.11189E-005	0.00000E+000	7.92898E-005	5.39641E-002	8.70356E-001	3.57300E+000	9	...........
	98	1.32	8.72795E-001	9.08709E-005	0.00000E+000	7.93117E-005	5.39641E-002	8.72964E-001	3.57300E+000	9	...........
	99	1.33333	8.75359E-001	9.11481E-005	0.00000E+000	7.97873E-005	5.39641E-002	8.75556E-001	3.57300E+000	9	...........
	100	1.34667	8.77916E-001	9.11252E-005	0.00000E+000	8.00002E-005	5.39641E-002	8.78126E-001	3.57300E+000	9	...........
	101	1.36	8.80452E-001	9.10074E-005	0.00000E+000	8.01277E-005	5.39641E-002	8.80639E-001	3.57300E+000	9	...........
	102	1.37333	8.82982E-001	9.11804E-005	0.00000E+000	8.05106E-005	5.39641E-002	8.83174E-001	3.57300E+000	9	...........
	103	1.38667	8.85464E-001	9.11095E-005	0.00000E+000	8.06742E-005	5.39641E-002	8.85647E-001	3.57260E+000	9	...........
	104	1.4	8.87911E-001	9.10168E-005	0.00000E+000	8.08148E-005	5.39641E-002	8.88104E-001	3.57260E+000	9	...........
	105	1.41333	8.90343E-001	9.09168E-005	0.00000E+000	8.09471E-005	5.39641E-002	8.90526E-001	3.57260E+000	9	...........
	106	1.42667	8.92766E-001	9.10512E-005	0.00000E+000	8.12874E-005	5.39641E-002	8.92940E-001	3.57260E+000	9	...........
	107	1.44	8.95177E-001	9.10345E-005	0.00000E+000	8.14920E-005	5.39641E-002	8.95374E-001	3.57260E+000	9	...........
	108	1.45333	8.97567E-001	9.12762E-005	0.00000E+000	8.19265E-005	5.39641E-002	8.97740E-001	3.57260E+000	9	...........
	109	1.46667	8.99942E-001	9.09241E-005	0.00000E+000	8.18264E-005	5.39641E-002	9.00098E-001	3.57260E+000	9	...........
	110	1.48	9.02265E-001	9.07928E-005	0.00000E+000	8.19192E-005	5.39641E-002	9.02427E-001	3.57260E+000	9	...........
	111	1.49333	9.04566E-001	9.11241E-005	0.00000E+000	8.24278E-005	5.39641E-002	9.04713E-001	3.57260E+000	9	...........
	112	1.50667	9.06802E-001	9.10991E-005	0.00000E+000	8.26088E-005	5.39641E-002	9.06968E-001	3.57260E+000	9	...........
	113	1.52	9.09059E-001	9.13023E-005	0.00000E+000	8.29991E-005	5.39641E-002	9.09219E-001	3.57260E+000	9	...........
	114	1.53333	9.11293E-001	9.10158E-005	0.00000E+000	8.29420E-005	5.39641E-002	9.11438E-001	3.57260E+000	9	...........
	115	1.54667	9.13499E-001	9.11054E-005	0.00000E+000	8.32247E-005	5.39641E-002	9.13685E-001	3.57260E+000	9	...........
	116	1.56	9.15656E-001	9.12669E-005	0.00000E+000	8.35691E-005	5.39641E-002	9.15862E-001	3.57260E+000	9	...........
	117	1.57333	9.17828E-001	9.09772E-005	0.00000E+000	8.35014E-005	5.39641E-002	9.18032E-001	3.57260E+000	9	...........
	118	1.58667	9.19971E-001	9.09220E-005	0.00000E+000	8.36456E-005	5.39641E-002	9.20174E-001	3.57260E+000	9	...........
	119	1.6	9.22137E-001	9.10553E-005	0.00000E+000	8.39655E-005	5.39641E-002	9.22283E-001	3.57260E+000	9	...........
	120	1.61333	9.24201E-001	9.11523E-005	0.00000E+000	8.42430E-005	5.39641E-002	9.24383E-001	3.57260E+000	9	...........
	121	1.62667	9.26254E-001	9.09366E-005	0.00000E+000	8.42303E-005	5.39641E-002	9.26454E-001	3.57260E+000	9	...........
	122	1.64	9.28318E-001	9.11012E-005	0.00000E+000	8.45709E-005	5.39641E-002	9.28493E-001	3.57260E+000	9	...........
	123	1.65333	9.30345E-001	9.10335E-005	0.00000E+000	8.46926E-005	5.39641E-002	9.30504E-001	3.57260E+000	9	...........
	124	1.66667	9.32350E-001	9.11043E-005	0.00000E+000	8.49411E-005	5.39641E-002	9.32538E-001	3.57260E+000	9	...........
	125	1.68	9.34339E-001	9.10824E-005	0.00000E+000	8.51019E-005	5.39641E-002	9.34535E-001	3.57260E+000	9	...........
	126	1.69333	9.36329E-001	9.11627E-005	0.00000E+000	8.53582E-005	5.39641E-002	9.36498E-001	3.57260E+000	9	...........
	127	1.70667	9.38267E-001	9.07813E-005	0.00000E+000	8.51771E-005	5.39641E-002	9.38455E-001	3.57260E+000	9	...........
	128	1.72	9.40181E-001	9.09189E-005	0.00000E+000	8.54802E-005	5.39641E-002	9.40361E-001	3.57260E+000	9	...........
	129	1.73333	9.42062E-001	9.10272E-005	0.00000E+000	8.57533E-005	5.39641E-002	9.42239E-001	3.57260E+000	9	...........
	130	1.74667	9.43954E-001	9.11043E-005	0.00000E+000	8.59983E-005	5.39641E-002	9.44133E-001	3.57260E+000	9	...........
	131	1.76	9.45790E-001	9.08314E-005	0.00000E+000	8.59074E-005	5.39641E-002	9.46015E-001	3.57260E+000	9	...........
	132	1.77333	9.47683E-001	9.12637E-005	0.00000E+000	8.64891E-005	5.39641E-002	9.47858E-001	3.57260E+000	9	...........
	133	1.78667	9.49479E-001	9.09553E-005	0.00000E+000	8.63601E-005	5.39641E-002	9.49683E-001	3.57260E+000	9	...........
	134	1.8	9.51261E-001	9.08136E-005	0.00000E+000	8.63874E-005	5.39641E-002	9.51468E-001	3.57260E+000	9	...........
	135	1.81333	9.53039E-001	9.11397E-005	0.00000E+000	8.68597E-005	5.39641E-002	9.53228E-001	3.57260E+000	9	...........
	136	1.82667	9.54794E-001	9.12116E-005	0.00000E+000	8.70884E-005	5.39641E-002	9.54980E-001	3.57260E+000	9	...........
	137	1.84	9.56531E-001	9.10314E-005	0.00000E+000	8.70744E-005	5.39641E-002	9.56728E-001	3.57260E+000	9	...........
	138	1.85333	9.58256E-001	9.11804E-005	0.00000E+000	8.73741E-005	5.39641E-002	9.58451E-001	3.57260E+000	9	...........
	139	1.86667	9.59966E-001	9.11231E-005	0.00000E+000	8.74751E-005	5.39641E-002	9.60184E-001	3.57260E+000	9	...........
	140	1.88	9.61623E-001	9.06553E-005	0.00000E+000	8.71762E-005	5.39641E-002	9.61824E-001	3.57260E+000	9	...........
	141	1.89333	9.63284E-001	9.08814E-005	0.00000E+000	8.75445E-005	5.39641E-002	9.63504E-001	3.57260E+000	9	...........
	142	1.90667	9.64937E-001	9.10856E-005	0.00000E+000	8.78918E-005	5.39641E-002	9.65159E-001	3.57260E+000	9	...........
	143	1.92	9.66586E-001	9.11179E-005	0.00000E+000	8.80733E-005	5.39641E-002	9.66835E-001	3.57260E+000	9	...........
	144	1.93333	9.68203E-001	9.10220E-005	0.00000E+000	8.81278E-005	5.39641E-002	9.68434E-001	3.57260E+000	9	...........
	145	1.94667	9.69806E-001	9.10543E-005	0.00000E+000	8.83050E-005	5.39641E-002	9.70036E-001	3.57260E+000	9	...........
	146	1.96	9.71367E-001	9.11127E-005	0.00000E+000	8.85038E-005	5.39641E-002	9.71618E-001	3.57260E+000	9	...........
	147	1.97333	9.72976E-001	9.11252E-005	0.00000E+000	8.86626E-005	5.39641E-002	9.73184E-001	3.57260E+000	9	...........
	148	1.98667	9.74548E-001	9.13419E-005	0.00000E+000	8.90170E-005	5.39641E-002	9.74714E-001	3.57260E+000	9	...........
	149	2	9.76058E-001	9.08355E-005	0.00000E+000	8.86608E-005	5.39641E-002	9.76246E-001	3.57260E+000	9	...........
	150	2.01333	9.77582E-001	9.10168E-005	0.00000E+000	8.89763E-005	5.39641E-002	9.77776E-001	3.57260E+000	9	...........
	151	2.02667	9.79096E-001	9.13137E-005	0.00000E+000	8.94049E-005	5.39641E-002	9.79266E-001	3.57260E+000	9	...........
	152	2.04	9.80585E-001	9.12377E-005	0.00000E+000	8.94663E-005	5.39641E-002	9.80772E-001	3.57260E+000	9	...........
	153	2.05333	9.82054E-001	9.10637E-005	0.00000E+000	8.94295E-005	5.39641E-002	9.82212E-001	3.57260E+000	9	...........
	154	2.06667	9.83495E-001	9.11637E-005	0.00000E+000	8.96590E-005	5.39641E-002	9.83676E-001	3.57260E+000	9	...........
	155	2.08	9.84925E-001	9.08564E-005	0.00000E+000	8.94867E-005	5.39641E-002	9.85140E-001	3.57260E+000	9	...........
	156	2.09333	9.86358E-001	9.11918E-005	0.00000E+000	8.99478E-005	5.39641E-002	9.86570E-001	3.57260E+000	9	...........
	157	2.10667	9.87768E-001	9.11356E-005	0.00000E+000	9.00208E-005	5.39641E-002	9.87989E-001	3.57260E+000	9	...........
	158	2.12	9.89184E-001	9.10574E-005	0.00000E+000	9.00726E-005	5.39641E-002	9.89379E-001	3.57260E+000	9	...........
	159	2.13333	9.90573E-001	9.09772E-005	0.00000E+000	9.01195E-005	5.39641E-002	9.90794E-001	3.57260E+000	9	...........
	160	2.14667	9.91956E-001	9.09585E-005	0.00000E+000	9.02267E-005	5.39641E-002	9.92169E-001	3.57260E+000	9	...........
	161	2.16	9.93302E-001	9.12148E-005	0.00000E+000	9.06038E-005	5.39641E-002	9.93530E-001	3.57260E+000	9	...........
	162	2.17333	9.94658E-001	9.11210E-005	0.00000E+000	9.06342E-005	5.39641E-002	9.94866E-001	3.57260E+000	9	...........
	163	2.18667	9.95991E-001	9.10231E-005	0.00000E+000	9.06581E-005	5.39641E-002	9.96202E-001	3.57260E+000	9	...........
	164	2.2	9.97326E-001	9.08887E-005	0.00000E+000	9.06456E-005	5.39641E-002	9.97555E-001	3.57260E+000	9	...........
	165	2.21333	9.98671E-001	9.10064E-005	0.00000E+000	9.08854E-005	5.39641E-002	9.98877E-001	3.57260E+000	9	...........
	166	2.22167	9.99718E-001	9.13760E-005	0.00000E+000	9.13503E-005	5.39641E-002	9.99909E-001	3.57260E+000	9	...........
STARTTIMEOFFSET	QUANT	2557.749	Start Time Offset (s)
