EXPLAIN
TAG	PWR800_CHARGE
TITLE	LABEL	PWR Cyclic Charge Discharge (Cell) - Charge Step	Test &Identifier
DATE	LABEL	10-7-2017	Date
TIME	LABEL	15:47:00	Time
NOTES	NOTES	3	&Notes...
	supercap test cell
	0.9mg
	6M KOH
PSTAT	PSTAT	IFC5000-01520	Potentiostat
CAPACITY	QUANT	1.00000E-003	Capacity (A-hr)
CELLTYPE	SELECTOR	1	&Cell Type
WORKINGCONNECTION	SELECTOR	0	&Working Lead
MAXCHARGETIME	VARIABLEANDUNITS	1.00000E+002	s	1.00000E+002	second(s)	Max &Charge Time
CHARGECURRENT	QUANT	9.00000E-005	&Charge Current (A) 
VOLTAGEFINISH	TWOPARAM	F	1.00000E-003	3.60000E+003	&Voltage Finish	 I (A) < 	Max Time(s)
SAMPLETIME	QUANT	1.00000E-002	Sa&mple Period (s)
CHARGESTOPAT1	MULTIPARAM	4	1.00000E+000	Charge Stop At &1	Voltage > Limit	V
CHARGESTOPAT2	MULTIPARAM	0	0.00000E+000	Charge Stop At &2	None	N/A
AESBHCSELECTOR	TOGGLE	F	Save Both Half Cells
IRCOMP	TOGGLE	F	IR &Measure
EOC	QUANT	0	Open Circuit (V)
SEQUENCER	TOGGLE	TRUE	Run as Sequence
PSTATMODEL	IQUANT	53	Pstat Model
PSTATSECTION	LABEL	IFC5000-01520	Pstat Section
PSTATSERIALNO	LABEL	01520	Pstat Serial Number
CTRLMODE	IQUANT	0	Control Mode
ELECTROMETER	IQUANT	1	RE=0 or CS=1
IESTAB	IQUANT	0	I/E Stability
CASPEED	IQUANT	4	Control Amp Speed
CONVENTION	IQUANT	1	Current Convention
ICHRANGE	IQUANT	2	Ich Range
ICHRANGEMODE	TOGGLE	T	Ich Auto Range
ICHOFFSETENABLE	TOGGLE	F	Ich Offset Enable
ICHOFFSET	QUANT	0	Ich Offset (V)
ICHFILTER	IQUANT	1	Ich Filter
VCHRANGE	IQUANT	2	Vch Range
VCHRANGEMODE	TOGGLE	T	Vch Auto Range
VCHOFFSETENABLE	TOGGLE	F	Vch Offset Enable
VCHOFFSET	QUANT	0	Vch Offset (V)
VCHFILTER	IQUANT	1	Vch Filter
IERANGELOWERLIMIT	IQUANT	9	I/E Range Lower Limit
IERANGEMODE	TOGGLE	F	I/E AutoRange
IERANGE	IQUANT	9	I/E Range
ACHSELECT	IQUANT	1	Ach Select
ACHRANGE	IQUANT	2	Ach Range
ACHOFFSETENABLE	TOGGLE	F	Ach Offset Enable
ACHOFFSET	QUANT	0	Ach Offset (V)
ACHFILTER	IQUANT	1	Ach Filter
CABLEID	IQUANT	14	Cable ID
DCCALDATE	LABEL	5-7-2017	DC Calibration Date
ACCALDATE	LABEL	12/3/2015	AC Calibration Date
FRAMEWORKVERSION	QUANT	7.01	Framework Version
INSTRUMENTVERSION	LABEL	4.00	Instrument Version
CURVE	TABLE	168
	Pt	T	Vf	Im	Vu	Pwr	Sig	Ach	Temp	IERange	Over
	#	s	V	A	V	W	V	V	deg C	#	bits
	0	0.013333	2.71964E-001	9.11439E-005	0.00000E+000	2.47878E-005	5.39641E-002	2.72019E-001	3.57370E+000	9	...........
	1	0.026667	2.91642E-001	9.09241E-005	0.00000E+000	2.65173E-005	5.39641E-002	2.91683E-001	3.57370E+000	9	...........
	2	0.04	3.10010E-001	9.07397E-005	0.00000E+000	2.81302E-005	5.39641E-002	3.10055E-001	3.57370E+000	9	...........
	3	0.053333	3.27274E-001	9.08543E-005	0.00000E+000	2.97342E-005	5.39641E-002	3.27319E-001	3.57370E+000	9	...........
	4	0.066667	3.43561E-001	9.08657E-005	0.00000E+000	3.12179E-005	5.39641E-002	3.43604E-001	3.57370E+000	9	...........
	5	0.08	3.58984E-001	9.09981E-005	0.00000E+000	3.26668E-005	5.39641E-002	3.59028E-001	3.57370E+000	9	...........
	6	0.093333	3.73620E-001	9.10418E-005	0.00000E+000	3.40150E-005	5.39641E-002	3.73666E-001	3.57370E+000	9	...........
	7	0.106667	3.87546E-001	9.11575E-005	0.00000E+000	3.53277E-005	5.39641E-002	3.87592E-001	3.57370E+000	9	...........
	8	0.12	4.00838E-001	9.09314E-005	0.00000E+000	3.64488E-005	5.39641E-002	4.00888E-001	3.57370E+000	9	...........
	9	0.133333	4.13542E-001	9.09543E-005	0.00000E+000	3.76134E-005	5.39641E-002	4.13598E-001	3.57370E+000	9	...........
	10	0.146667	4.25707E-001	9.09668E-005	0.00000E+000	3.87252E-005	5.39641E-002	4.25768E-001	3.57370E+000	9	...........
	11	0.16	4.37385E-001	9.09887E-005	0.00000E+000	3.97971E-005	5.39641E-002	4.37445E-001	3.57370E+000	9	...........
	12	0.173333	4.48614E-001	9.10366E-005	0.00000E+000	4.08403E-005	5.39641E-002	4.48676E-001	3.57370E+000	9	...........
	13	0.186667	4.59440E-001	9.09762E-005	0.00000E+000	4.17981E-005	5.39641E-002	4.59502E-001	3.57370E+000	9	...........
	14	0.2	4.69865E-001	9.10053E-005	0.00000E+000	4.27602E-005	5.39641E-002	4.69927E-001	3.57370E+000	9	...........
	15	0.213333	4.79927E-001	9.11179E-005	0.00000E+000	4.37300E-005	5.39641E-002	4.79990E-001	3.57370E+000	9	...........
	16	0.226667	4.89651E-001	9.06959E-005	0.00000E+000	4.44094E-005	5.39641E-002	4.89718E-001	3.57370E+000	9	...........
	17	0.24	4.99059E-001	9.12137E-005	0.00000E+000	4.55211E-005	5.39641E-002	4.99127E-001	3.57370E+000	9	...........
	18	0.253333	5.08172E-001	9.09939E-005	0.00000E+000	4.62406E-005	5.39641E-002	5.08245E-001	3.57370E+000	9	...........
	19	0.266667	5.17005E-001	9.08782E-005	0.00000E+000	4.69845E-005	5.39641E-002	5.17077E-001	3.57370E+000	9	...........
	20	0.28	5.25579E-001	9.08074E-005	0.00000E+000	4.77265E-005	5.39641E-002	5.25654E-001	3.57370E+000	9	...........
	21	0.293333	5.33837E-001	9.08918E-005	0.00000E+000	4.85214E-005	5.39641E-002	5.33956E-001	3.57370E+000	9	...........
	22	0.306667	5.41879E-001	9.10793E-005	0.00000E+000	4.93540E-005	5.39641E-002	5.41985E-001	3.57370E+000	9	...........
	23	0.32	5.49745E-001	9.08980E-005	0.00000E+000	4.99707E-005	5.39641E-002	5.49834E-001	3.57370E+000	9	...........
	24	0.333333	5.57366E-001	9.10178E-005	0.00000E+000	5.07303E-005	5.39641E-002	5.57497E-001	3.57370E+000	9	...........
	25	0.346667	5.64871E-001	9.12043E-005	0.00000E+000	5.15187E-005	5.39641E-002	5.64978E-001	3.57370E+000	9	...........
	26	0.36	5.72138E-001	9.11314E-005	0.00000E+000	5.21397E-005	5.39641E-002	5.72226E-001	3.57370E+000	9	...........
	27	0.373333	5.79206E-001	9.10283E-005	0.00000E+000	5.27241E-005	5.39641E-002	5.79335E-001	3.57370E+000	9	...........
	28	0.386667	5.86107E-001	9.09803E-005	0.00000E+000	5.33242E-005	5.39641E-002	5.86237E-001	3.57370E+000	9	...........
	29	0.4	5.92903E-001	9.08928E-005	0.00000E+000	5.38906E-005	5.39641E-002	5.93006E-001	3.57370E+000	9	...........
	30	0.413333	5.99508E-001	9.11918E-005	0.00000E+000	5.46702E-005	5.39641E-002	5.99615E-001	3.57370E+000	9	...........
	31	0.426667	6.05932E-001	9.12262E-005	0.00000E+000	5.52768E-005	5.39641E-002	6.06071E-001	3.57370E+000	9	...........
	32	0.44	6.12253E-001	9.11033E-005	0.00000E+000	5.57782E-005	5.39641E-002	6.12392E-001	3.57370E+000	9	...........
	33	0.453333	6.18508E-001	9.13304E-005	0.00000E+000	5.64885E-005	5.39641E-002	6.18587E-001	3.57370E+000	9	...........
	34	0.466667	6.24541E-001	9.08616E-005	0.00000E+000	5.67468E-005	5.39641E-002	6.24647E-001	3.57370E+000	9	...........
	35	0.48	6.30463E-001	9.11450E-005	0.00000E+000	5.74635E-005	5.39641E-002	6.30559E-001	3.57370E+000	9	...........
	36	0.493333	6.36233E-001	9.10970E-005	0.00000E+000	5.79589E-005	5.39641E-002	6.36363E-001	3.57370E+000	9	...........
	37	0.506667	6.41944E-001	9.10824E-005	0.00000E+000	5.84698E-005	5.39641E-002	6.42063E-001	3.57370E+000	9	...........
	38	0.52	6.47516E-001	9.09105E-005	0.00000E+000	5.88660E-005	5.39641E-002	6.47609E-001	3.57370E+000	9	...........
	39	0.533333	6.53027E-001	9.10053E-005	0.00000E+000	5.94289E-005	5.39641E-002	6.53118E-001	3.57370E+000	9	...........
	40	0.546667	6.58394E-001	9.09845E-005	0.00000E+000	5.99036E-005	5.39641E-002	6.58474E-001	3.57365E+000	9	...........
	41	0.56	6.63672E-001	9.09324E-005	0.00000E+000	6.03493E-005	5.39641E-002	6.63783E-001	3.57320E+000	9	...........
	42	0.573333	6.68896E-001	9.09553E-005	0.00000E+000	6.08397E-005	5.39641E-002	6.68977E-001	3.57320E+000	9	...........
	43	0.586667	6.73978E-001	9.09855E-005	0.00000E+000	6.13223E-005	5.39641E-002	6.74085E-001	3.57320E+000	9	...........
	44	0.6	6.78999E-001	9.10762E-005	0.00000E+000	6.18406E-005	5.39641E-002	6.79102E-001	3.57320E+000	9	...........
	45	0.613333	6.83924E-001	9.12512E-005	0.00000E+000	6.24089E-005	5.39641E-002	6.84034E-001	3.57320E+000	9	...........
	46	0.626667	6.88796E-001	9.10064E-005	0.00000E+000	6.26848E-005	5.39641E-002	6.88890E-001	3.57320E+000	9	...........
	47	0.64	6.93600E-001	9.09845E-005	0.00000E+000	6.31069E-005	5.39641E-002	6.93693E-001	3.57320E+000	9	...........
	48	0.653333	6.98317E-001	9.11304E-005	0.00000E+000	6.36379E-005	5.39641E-002	6.98415E-001	3.57320E+000	9	...........
	49	0.666667	7.02960E-001	9.11929E-005	0.00000E+000	6.41049E-005	5.39641E-002	7.03047E-001	3.57320E+000	9	...........
	50	0.68	7.07508E-001	9.10012E-005	0.00000E+000	6.43841E-005	5.39641E-002	7.07630E-001	3.57320E+000	9	...........
	51	0.693333	7.11995E-001	9.10001E-005	0.00000E+000	6.47916E-005	5.39641E-002	7.12109E-001	3.57320E+000	9	...........
	52	0.706667	7.16414E-001	9.11220E-005	0.00000E+000	6.52811E-005	5.39641E-002	7.16539E-001	3.57320E+000	9	...........
	53	0.72	7.20809E-001	9.08511E-005	0.00000E+000	6.54863E-005	5.39641E-002	7.20894E-001	3.57320E+000	9	...........
	54	0.733333	7.25123E-001	9.12346E-005	0.00000E+000	6.61563E-005	5.39641E-002	7.25183E-001	3.57320E+000	9	...........
	55	0.746667	7.29347E-001	9.09981E-005	0.00000E+000	6.63692E-005	5.39641E-002	7.29416E-001	3.57320E+000	9	...........
	56	0.76	7.33495E-001	9.10866E-005	0.00000E+000	6.68116E-005	5.39641E-002	7.33594E-001	3.57320E+000	9	...........
	57	0.773333	7.37633E-001	9.09751E-005	0.00000E+000	6.71062E-005	5.39641E-002	7.37715E-001	3.57320E+000	9	...........
	58	0.786667	7.41749E-001	9.10856E-005	0.00000E+000	6.75627E-005	5.39641E-002	7.41816E-001	3.57320E+000	9	...........
	59	0.8	7.45767E-001	9.09949E-005	0.00000E+000	6.78610E-005	5.39641E-002	7.45865E-001	3.57320E+000	9	...........
	60	0.813333	7.49762E-001	9.10345E-005	0.00000E+000	6.82543E-005	5.39641E-002	7.49850E-001	3.57320E+000	9	...........
	61	0.826667	7.53682E-001	9.09178E-005	0.00000E+000	6.85232E-005	5.39641E-002	7.53783E-001	3.57320E+000	9	...........
	62	0.84	7.57568E-001	9.11377E-005	0.00000E+000	6.90429E-005	5.39641E-002	7.57694E-001	3.57320E+000	9	...........
	63	0.853333	7.61404E-001	9.10460E-005	0.00000E+000	6.93228E-005	5.39641E-002	7.61510E-001	3.57320E+000	9	...........
	64	0.866667	7.65183E-001	9.10637E-005	0.00000E+000	6.96804E-005	5.39641E-002	7.65324E-001	3.57320E+000	9	...........
	65	0.88	7.68919E-001	9.11564E-005	0.00000E+000	7.00919E-005	5.39641E-002	7.69069E-001	3.57320E+000	9	...........
	66	0.893333	7.72613E-001	9.11731E-005	0.00000E+000	7.04415E-005	5.39641E-002	7.72739E-001	3.57320E+000	9	...........
	67	0.906667	7.76262E-001	9.10689E-005	0.00000E+000	7.06933E-005	5.39641E-002	7.76394E-001	3.57320E+000	9	...........
	68	0.92	7.79857E-001	9.09855E-005	0.00000E+000	7.09557E-005	5.39641E-002	7.79989E-001	3.57320E+000	9	...........
	69	0.933333	7.83423E-001	9.10981E-005	0.00000E+000	7.13684E-005	5.39641E-002	7.83560E-001	3.57320E+000	9	...........
	70	0.946667	7.86931E-001	9.09189E-005	0.00000E+000	7.15469E-005	5.39641E-002	7.87082E-001	3.57320E+000	9	...........
	71	0.96	7.90397E-001	9.08053E-005	0.00000E+000	7.17723E-005	5.39641E-002	7.90566E-001	3.57320E+000	9	...........
	72	0.97333	7.93856E-001	9.10897E-005	0.00000E+000	7.23121E-005	5.39641E-002	7.94024E-001	3.57320E+000	9	...........
	73	0.98667	7.97245E-001	9.10345E-005	0.00000E+000	7.25768E-005	5.39641E-002	7.97395E-001	3.57320E+000	9	...........
	74	1	8.00592E-001	9.10168E-005	0.00000E+000	7.28673E-005	5.39641E-002	8.00757E-001	3.57320E+000	9	...........
	75	1.01333	8.03914E-001	9.09418E-005	0.00000E+000	7.31093E-005	5.39641E-002	8.04047E-001	3.57320E+000	9	...........
	76	1.02667	8.07184E-001	9.09480E-005	0.00000E+000	7.34118E-005	5.39641E-002	8.07341E-001	3.57320E+000	9	...........
	77	1.04	8.10447E-001	9.09616E-005	0.00000E+000	7.37196E-005	5.39641E-002	8.10590E-001	3.57320E+000	9	...........
	78	1.05333	8.13676E-001	9.11366E-005	0.00000E+000	7.41557E-005	5.39641E-002	8.13807E-001	3.57320E+000	9	...........
	79	1.06667	8.16860E-001	9.09647E-005	0.00000E+000	7.43054E-005	5.39641E-002	8.16986E-001	3.57320E+000	9	...........
	80	1.08	8.20037E-001	9.08991E-005	0.00000E+000	7.45406E-005	5.39641E-002	8.20147E-001	3.57320E+000	9	...........
	81	1.09333	8.23128E-001	9.11929E-005	0.00000E+000	7.50634E-005	5.39641E-002	8.23256E-001	3.57320E+000	9	...........
	82	1.10667	8.26202E-001	9.10064E-005	0.00000E+000	7.51896E-005	5.39641E-002	8.26323E-001	3.57320E+000	9	...........
	83	1.12	8.29220E-001	9.11804E-005	0.00000E+000	7.56086E-005	5.39641E-002	8.29352E-001	3.57320E+000	9	...........
	84	1.13333	8.32229E-001	9.11658E-005	0.00000E+000	7.58708E-005	5.39641E-002	8.32383E-001	3.57320E+000	9	...........
	85	1.14667	8.35174E-001	9.07938E-005	0.00000E+000	7.58286E-005	5.39641E-002	8.35370E-001	3.57320E+000	9	...........
	86	1.16	8.38130E-001	9.09824E-005	0.00000E+000	7.62551E-005	5.39641E-002	8.38318E-001	3.57320E+000	9	...........
	87	1.17333	8.41034E-001	9.08939E-005	0.00000E+000	7.64448E-005	5.39641E-002	8.41223E-001	3.57320E+000	9	...........
	88	1.18667	8.43923E-001	9.11700E-005	0.00000E+000	7.69405E-005	5.39641E-002	8.44131E-001	3.57320E+000	9	...........
	89	1.2	8.46826E-001	9.11439E-005	0.00000E+000	7.71830E-005	5.39641E-002	8.47008E-001	3.57320E+000	9	...........
	90	1.21333	8.49639E-001	9.11304E-005	0.00000E+000	7.74279E-005	5.39641E-002	8.49832E-001	3.57320E+000	9	...........
	91	1.22667	8.52445E-001	9.11460E-005	0.00000E+000	7.76970E-005	5.39641E-002	8.52637E-001	3.57320E+000	9	...........
	92	1.24	8.55219E-001	9.10408E-005	0.00000E+000	7.78598E-005	5.39641E-002	8.55422E-001	3.57320E+000	9	...........
	93	1.25333	8.57967E-001	9.10554E-005	0.00000E+000	7.81225E-005	5.39641E-002	8.58167E-001	3.57320E+000	9	...........
	94	1.26667	8.60712E-001	9.08782E-005	0.00000E+000	7.82200E-005	5.39641E-002	8.60894E-001	3.57320E+000	9	...........
	95	1.28	8.63392E-001	9.10001E-005	0.00000E+000	7.85688E-005	5.39641E-002	8.63586E-001	3.57320E+000	9	...........
	96	1.29333	8.66059E-001	9.10022E-005	0.00000E+000	7.88133E-005	5.39641E-002	8.66224E-001	3.57320E+000	9	...........
	97	1.30667	8.68697E-001	9.08553E-005	0.00000E+000	7.89258E-005	5.39641E-002	8.68887E-001	3.57320E+000	9	...........
	98	1.32	8.71354E-001	9.07720E-005	0.00000E+000	7.90945E-005	5.39641E-002	8.71508E-001	3.57320E+000	9	...........
	99	1.33333	8.73944E-001	9.10543E-005	0.00000E+000	7.95764E-005	5.39641E-002	8.74112E-001	3.57320E+000	9	...........
	100	1.34667	8.76534E-001	9.09199E-005	0.00000E+000	7.96944E-005	5.39641E-002	8.76699E-001	3.57320E+000	9	...........
	101	1.36	8.79086E-001	9.11043E-005	0.00000E+000	8.00886E-005	5.39641E-002	8.79247E-001	3.57320E+000	9	...........
	102	1.37333	8.81606E-001	9.09397E-005	0.00000E+000	8.01730E-005	5.39641E-002	8.81811E-001	3.57320E+000	9	...........
	103	1.38667	8.84112E-001	9.09501E-005	0.00000E+000	8.04101E-005	5.39641E-002	8.84305E-001	3.57320E+000	9	...........
	104	1.4	8.86597E-001	9.08657E-005	0.00000E+000	8.05613E-005	5.39641E-002	8.86747E-001	3.57320E+000	9	...........
	105	1.41333	8.89019E-001	9.10835E-005	0.00000E+000	8.09749E-005	5.39641E-002	8.89203E-001	3.57320E+000	9	...........
	106	1.42667	8.91460E-001	9.09543E-005	0.00000E+000	8.10821E-005	5.39641E-002	8.91628E-001	3.57320E+000	9	...........
	107	1.44	8.93829E-001	9.11918E-005	0.00000E+000	8.15099E-005	5.39641E-002	8.94028E-001	3.57320E+000	9	...........
	108	1.45333	8.96215E-001	9.08480E-005	0.00000E+000	8.14194E-005	5.39641E-002	8.96410E-001	3.57320E+000	9	...........
	109	1.46667	8.98549E-001	9.11231E-005	0.00000E+000	8.18785E-005	5.39641E-002	8.98755E-001	3.57320E+000	9	...........
	110	1.48	9.00886E-001	9.13190E-005	0.00000E+000	8.22679E-005	5.39641E-002	9.01050E-001	3.57320E+000	9	...........
	111	1.49333	9.03205E-001	9.08730E-005	0.00000E+000	8.20770E-005	5.39641E-002	9.03365E-001	3.57320E+000	9	...........
	112	1.50667	9.05491E-001	9.12273E-005	0.00000E+000	8.26055E-005	5.39641E-002	9.05629E-001	3.57320E+000	9	...........
	113	1.52	9.07724E-001	9.10824E-005	0.00000E+000	8.26778E-005	5.39641E-002	9.07895E-001	3.57320E+000	9	...........
	114	1.53333	9.09984E-001	9.11908E-005	0.00000E+000	8.29822E-005	5.39641E-002	9.10129E-001	3.57320E+000	9	...........
	115	1.54667	9.12165E-001	9.10491E-005	0.00000E+000	8.30518E-005	5.39641E-002	9.12315E-001	3.57315E+000	9	...........
	116	1.56	9.14332E-001	9.11793E-005	0.00000E+000	8.33682E-005	5.39641E-002	9.14505E-001	3.57270E+000	9	...........
	117	1.57333	9.16494E-001	9.10460E-005	0.00000E+000	8.34431E-005	5.39641E-002	9.16675E-001	3.57270E+000	9	...........
	118	1.58667	9.18597E-001	9.10356E-005	0.00000E+000	8.36250E-005	5.39641E-002	9.18808E-001	3.57270E+000	9	...........
	119	1.6	9.20761E-001	9.08668E-005	0.00000E+000	8.36665E-005	5.39641E-002	9.20922E-001	3.57270E+000	9	...........
	120	1.61333	9.22873E-001	9.10064E-005	0.00000E+000	8.39873E-005	5.39641E-002	9.23017E-001	3.57270E+000	9	...........
	121	1.62667	9.24927E-001	9.08814E-005	0.00000E+000	8.40586E-005	5.39641E-002	9.25062E-001	3.57270E+000	9	...........
	122	1.64	9.26967E-001	9.09449E-005	0.00000E+000	8.43029E-005	5.39641E-002	9.27102E-001	3.57270E+000	9	...........
	123	1.65333	9.28976E-001	9.09658E-005	0.00000E+000	8.45050E-005	5.39641E-002	9.29109E-001	3.57270E+000	9	...........
	124	1.66667	9.30962E-001	9.09730E-005	0.00000E+000	8.46924E-005	5.39641E-002	9.31110E-001	3.57270E+000	9	...........
	125	1.68	9.32940E-001	9.11793E-005	0.00000E+000	8.50649E-005	5.39641E-002	9.33100E-001	3.57270E+000	9	...........
	126	1.69333	9.34907E-001	9.09314E-005	0.00000E+000	8.50124E-005	5.39641E-002	9.35078E-001	3.57270E+000	9	...........
	127	1.70667	9.36848E-001	9.10116E-005	0.00000E+000	8.52640E-005	5.39641E-002	9.37014E-001	3.57270E+000	9	...........
	128	1.72	9.38762E-001	9.09616E-005	0.00000E+000	8.53913E-005	5.39641E-002	9.38939E-001	3.57270E+000	9	...........
	129	1.73333	9.40639E-001	9.11345E-005	0.00000E+000	8.57247E-005	5.39641E-002	9.40808E-001	3.57270E+000	9	...........
	130	1.74667	9.42516E-001	9.10501E-005	0.00000E+000	8.58162E-005	5.39641E-002	9.42694E-001	3.57270E+000	9	...........
	131	1.76	9.44370E-001	9.10585E-005	0.00000E+000	8.59929E-005	5.39641E-002	9.44543E-001	3.57270E+000	9	...........
	132	1.77333	9.46215E-001	9.07574E-005	0.00000E+000	8.58760E-005	5.39641E-002	9.46404E-001	3.57270E+000	9	...........
	133	1.78667	9.48062E-001	9.10210E-005	0.00000E+000	8.62935E-005	5.39641E-002	9.48261E-001	3.57270E+000	9	...........
	134	1.8	9.49881E-001	9.09022E-005	0.00000E+000	8.63463E-005	5.39641E-002	9.50048E-001	3.57270E+000	9	...........
	135	1.81333	9.51643E-001	9.10439E-005	0.00000E+000	8.66413E-005	5.39641E-002	9.51824E-001	3.57270E+000	9	...........
	136	1.82667	9.53440E-001	9.10356E-005	0.00000E+000	8.67970E-005	5.39641E-002	9.53606E-001	3.57270E+000	9	...........
	137	1.84	9.55188E-001	9.13346E-005	0.00000E+000	8.72417E-005	5.39641E-002	9.55370E-001	3.57270E+000	9	...........
	138	1.85333	9.56926E-001	9.10220E-005	0.00000E+000	8.71014E-005	5.39641E-002	9.57119E-001	3.57270E+000	9	...........
	139	1.86667	9.58618E-001	9.09126E-005	0.00000E+000	8.71505E-005	5.39641E-002	9.58850E-001	3.57270E+000	9	...........
	140	1.88	9.60340E-001	9.10543E-005	0.00000E+000	8.74431E-005	5.39641E-002	9.60556E-001	3.57270E+000	9	...........
	141	1.89333	9.62026E-001	9.12773E-005	0.00000E+000	8.78111E-005	5.39641E-002	9.62241E-001	3.57270E+000	9	...........
	142	1.90667	9.63696E-001	9.08553E-005	0.00000E+000	8.75569E-005	5.39641E-002	9.63893E-001	3.57270E+000	9	...........
	143	1.92	9.65341E-001	9.09762E-005	0.00000E+000	8.78230E-005	5.39641E-002	9.65544E-001	3.57270E+000	9	...........
	144	1.93333	9.66960E-001	9.08105E-005	0.00000E+000	8.78101E-005	5.39641E-002	9.67161E-001	3.57270E+000	9	...........
	145	1.94667	9.68553E-001	9.08845E-005	0.00000E+000	8.80264E-005	5.39641E-002	9.68788E-001	3.57270E+000	9	...........
	146	1.96	9.70154E-001	9.12742E-005	0.00000E+000	8.85500E-005	5.39641E-002	9.70385E-001	3.57270E+000	9	...........
	147	1.97333	9.71711E-001	9.11283E-005	0.00000E+000	8.85503E-005	5.39641E-002	9.71969E-001	3.57270E+000	9	...........
	148	1.98667	9.73345E-001	9.10272E-005	0.00000E+000	8.86009E-005	5.39641E-002	9.73549E-001	3.57270E+000	9	...........
	149	2	9.74880E-001	9.11314E-005	0.00000E+000	8.88422E-005	5.39641E-002	9.75085E-001	3.57270E+000	9	...........
	150	2.01333	9.76394E-001	9.09376E-005	0.00000E+000	8.87909E-005	5.39641E-002	9.76613E-001	3.57270E+000	9	...........
	151	2.02667	9.77897E-001	9.08626E-005	0.00000E+000	8.88542E-005	5.39641E-002	9.78104E-001	3.57270E+000	9	...........
	152	2.04	9.79405E-001	9.09262E-005	0.00000E+000	8.90535E-005	5.39641E-002	9.79606E-001	3.57270E+000	9	...........
	153	2.05333	9.80859E-001	9.10689E-005	0.00000E+000	8.93257E-005	5.39641E-002	9.81075E-001	3.57270E+000	9	...........
	154	2.06667	9.82322E-001	9.11335E-005	0.00000E+000	8.95224E-005	5.39641E-002	9.82544E-001	3.57270E+000	9	...........
	155	2.08	9.83776E-001	9.12221E-005	0.00000E+000	8.97421E-005	5.39641E-002	9.84001E-001	3.57270E+000	9	...........
	156	2.09333	9.85207E-001	9.09084E-005	0.00000E+000	8.95636E-005	5.39641E-002	9.85430E-001	3.57270E+000	9	...........
	157	2.10667	9.86639E-001	9.11512E-005	0.00000E+000	8.99333E-005	5.39641E-002	9.86849E-001	3.57270E+000	9	...........
	158	2.12	9.88013E-001	9.12252E-005	0.00000E+000	9.01316E-005	5.39641E-002	9.88241E-001	3.57270E+000	9	...........
	159	2.13333	9.89395E-001	9.09334E-005	0.00000E+000	8.99691E-005	5.39641E-002	9.89637E-001	3.57270E+000	9	...........
	160	2.14667	9.90766E-001	9.09678E-005	0.00000E+000	9.01279E-005	5.39641E-002	9.90974E-001	3.57270E+000	9	...........
	161	2.16	9.92094E-001	9.10022E-005	0.00000E+000	9.02828E-005	5.39641E-002	9.92332E-001	3.57270E+000	9	...........
	162	2.17333	9.93427E-001	9.10397E-005	0.00000E+000	9.04413E-005	5.39641E-002	9.93679E-001	3.57270E+000	9	...........
	163	2.18667	9.94787E-001	9.11845E-005	0.00000E+000	9.07092E-005	5.39641E-002	9.94991E-001	3.57270E+000	9	...........
	164	2.2	9.96091E-001	9.10772E-005	0.00000E+000	9.07212E-005	5.39641E-002	9.96316E-001	3.57270E+000	9	...........
	165	2.21333	9.97405E-001	9.09303E-005	0.00000E+000	9.06944E-005	5.39641E-002	9.97640E-001	3.57270E+000	9	...........
	166	2.22667	9.98688E-001	9.08772E-005	0.00000E+000	9.07580E-005	5.39641E-002	9.98925E-001	3.57270E+000	9	...........
	167	2.235	9.99730E-001	9.11377E-005	0.00000E+000	9.11130E-005	5.39641E-002	9.99967E-001	3.57270E+000	9	...........
STARTTIMEOFFSET	QUANT	2413.62	Start Time Offset (s)
