EXPLAIN
TAG	PWR800_CHARGE
TITLE	LABEL	PWR Cyclic Charge Discharge (Cell) - Charge Step	Test &Identifier
DATE	LABEL	10-7-2017	Date
TIME	LABEL	15:33:16	Time
NOTES	NOTES	3	&Notes...
	supercap test cell
	0.9mg
	6M KOH
PSTAT	PSTAT	IFC5000-01520	Potentiostat
CAPACITY	QUANT	1.00000E-003	Capacity (A-hr)
CELLTYPE	SELECTOR	1	&Cell Type
WORKINGCONNECTION	SELECTOR	0	&Working Lead
MAXCHARGETIME	VARIABLEANDUNITS	1.00000E+002	s	1.00000E+002	second(s)	Max &Charge Time
CHARGECURRENT	QUANT	9.00000E-005	&Charge Current (A) 
VOLTAGEFINISH	TWOPARAM	F	1.00000E-003	3.60000E+003	&Voltage Finish	 I (A) < 	Max Time(s)
SAMPLETIME	QUANT	1.00000E-002	Sa&mple Period (s)
CHARGESTOPAT1	MULTIPARAM	4	1.00000E+000	Charge Stop At &1	Voltage > Limit	V
CHARGESTOPAT2	MULTIPARAM	0	0.00000E+000	Charge Stop At &2	None	N/A
AESBHCSELECTOR	TOGGLE	F	Save Both Half Cells
IRCOMP	TOGGLE	F	IR &Measure
EOC	QUANT	0	Open Circuit (V)
SEQUENCER	TOGGLE	TRUE	Run as Sequence
PSTATMODEL	IQUANT	53	Pstat Model
PSTATSECTION	LABEL	IFC5000-01520	Pstat Section
PSTATSERIALNO	LABEL	01520	Pstat Serial Number
CTRLMODE	IQUANT	0	Control Mode
ELECTROMETER	IQUANT	1	RE=0 or CS=1
IESTAB	IQUANT	0	I/E Stability
CASPEED	IQUANT	4	Control Amp Speed
CONVENTION	IQUANT	1	Current Convention
ICHRANGE	IQUANT	2	Ich Range
ICHRANGEMODE	TOGGLE	T	Ich Auto Range
ICHOFFSETENABLE	TOGGLE	F	Ich Offset Enable
ICHOFFSET	QUANT	0	Ich Offset (V)
ICHFILTER	IQUANT	1	Ich Filter
VCHRANGE	IQUANT	2	Vch Range
VCHRANGEMODE	TOGGLE	T	Vch Auto Range
VCHOFFSETENABLE	TOGGLE	F	Vch Offset Enable
VCHOFFSET	QUANT	0	Vch Offset (V)
VCHFILTER	IQUANT	1	Vch Filter
IERANGELOWERLIMIT	IQUANT	9	I/E Range Lower Limit
IERANGEMODE	TOGGLE	F	I/E AutoRange
IERANGE	IQUANT	9	I/E Range
ACHSELECT	IQUANT	1	Ach Select
ACHRANGE	IQUANT	2	Ach Range
ACHOFFSETENABLE	TOGGLE	F	Ach Offset Enable
ACHOFFSET	QUANT	0	Ach Offset (V)
ACHFILTER	IQUANT	1	Ach Filter
CABLEID	IQUANT	14	Cable ID
DCCALDATE	LABEL	5-7-2017	DC Calibration Date
ACCALDATE	LABEL	12/3/2015	AC Calibration Date
FRAMEWORKVERSION	QUANT	7.01	Framework Version
INSTRUMENTVERSION	LABEL	4.00	Instrument Version
CURVE	TABLE	172
	Pt	T	Vf	Im	Vu	Pwr	Sig	Ach	Temp	IERange	Over
	#	s	V	A	V	W	V	V	deg C	#	bits
	0	0.013333	2.75911E-001	9.10470E-005	0.00000E+000	2.51209E-005	5.39641E-002	2.75952E-001	3.57340E+000	9	...........
	1	0.026667	2.95590E-001	9.11981E-005	0.00000E+000	2.69572E-005	5.39641E-002	2.95631E-001	3.57340E+000	9	...........
	2	0.04	3.13893E-001	9.07532E-005	0.00000E+000	2.84868E-005	5.39641E-002	3.13932E-001	3.57340E+000	9	...........
	3	0.053333	3.31026E-001	9.12366E-005	0.00000E+000	3.02017E-005	5.39641E-002	3.31064E-001	3.57340E+000	9	...........
	4	0.066667	3.47165E-001	9.10262E-005	0.00000E+000	3.16011E-005	5.39641E-002	3.47208E-001	3.57340E+000	9	...........
	5	0.08	3.62419E-001	9.09605E-005	0.00000E+000	3.29659E-005	5.39641E-002	3.62462E-001	3.57340E+000	9	...........
	6	0.093333	3.76873E-001	9.11970E-005	0.00000E+000	3.43697E-005	5.39641E-002	3.76918E-001	3.57340E+000	9	...........
	7	0.106667	3.90616E-001	9.08501E-005	0.00000E+000	3.54875E-005	5.39641E-002	3.90662E-001	3.57340E+000	9	...........
	8	0.12	4.03710E-001	9.08428E-005	0.00000E+000	3.66742E-005	5.39641E-002	4.03759E-001	3.57340E+000	9	...........
	9	0.133333	4.16230E-001	9.10335E-005	0.00000E+000	3.78909E-005	5.39641E-002	4.16283E-001	3.57340E+000	9	...........
	10	0.146667	4.28225E-001	9.10491E-005	0.00000E+000	3.89895E-005	5.39641E-002	4.28284E-001	3.57340E+000	9	...........
	11	0.16	4.39746E-001	9.09741E-005	0.00000E+000	4.00055E-005	5.39641E-002	4.39807E-001	3.57340E+000	9	...........
	12	0.173333	4.50824E-001	9.10335E-005	0.00000E+000	4.10401E-005	5.39641E-002	4.50886E-001	3.57340E+000	9	...........
	13	0.186667	4.61497E-001	9.09876E-005	0.00000E+000	4.19906E-005	5.39641E-002	4.61553E-001	3.57340E+000	9	...........
	14	0.2	4.71788E-001	9.10251E-005	0.00000E+000	4.29445E-005	5.39641E-002	4.71849E-001	3.57310E+000	9	...........
	15	0.213333	4.81725E-001	9.10647E-005	0.00000E+000	4.38682E-005	5.39641E-002	4.81782E-001	3.57280E+000	9	...........
	16	0.226667	4.91337E-001	9.08720E-005	0.00000E+000	4.46488E-005	5.39641E-002	4.91401E-001	3.57280E+000	9	...........
	17	0.24	5.00619E-001	9.09355E-005	0.00000E+000	4.55241E-005	5.39641E-002	5.00686E-001	3.57280E+000	9	...........
	18	0.253333	5.09632E-001	9.11627E-005	0.00000E+000	4.64594E-005	5.39641E-002	5.09699E-001	3.57280E+000	9	...........
	19	0.266667	5.18381E-001	9.09710E-005	0.00000E+000	4.71576E-005	5.39641E-002	5.18445E-001	3.57280E+000	9	...........
	20	0.28	5.26870E-001	9.08584E-005	0.00000E+000	4.78706E-005	5.39641E-002	5.26940E-001	3.57280E+000	9	...........
	21	0.293333	5.35051E-001	9.09762E-005	0.00000E+000	4.86769E-005	5.39641E-002	5.35146E-001	3.57280E+000	9	...........
	22	0.306667	5.43057E-001	9.10126E-005	0.00000E+000	4.94251E-005	5.39641E-002	5.43169E-001	3.57280E+000	9	...........
	23	0.32	5.50838E-001	9.08772E-005	0.00000E+000	5.00586E-005	5.39641E-002	5.50952E-001	3.57280E+000	9	...........
	24	0.333333	5.58420E-001	9.09491E-005	0.00000E+000	5.07878E-005	5.39641E-002	5.58549E-001	3.57280E+000	9	...........
	25	0.346667	5.65858E-001	9.10762E-005	0.00000E+000	5.15362E-005	5.39641E-002	5.65971E-001	3.57280E+000	9	...........
	26	0.36	5.73065E-001	9.09585E-005	0.00000E+000	5.21251E-005	5.39641E-002	5.73178E-001	3.57280E+000	9	...........
	27	0.373333	5.80056E-001	9.08303E-005	0.00000E+000	5.26866E-005	5.39641E-002	5.80187E-001	3.57280E+000	9	...........
	28	0.386667	5.86942E-001	9.07490E-005	0.00000E+000	5.32644E-005	5.39641E-002	5.87052E-001	3.57280E+000	9	...........
	29	0.4	5.93652E-001	9.10543E-005	0.00000E+000	5.40546E-005	5.39641E-002	5.93760E-001	3.57280E+000	9	...........
	30	0.413333	6.00183E-001	9.08428E-005	0.00000E+000	5.45223E-005	5.39641E-002	6.00311E-001	3.57280E+000	9	...........
	31	0.426667	6.06581E-001	9.09501E-005	0.00000E+000	5.51686E-005	5.39641E-002	6.06717E-001	3.57280E+000	9	...........
	32	0.44	6.12864E-001	9.11752E-005	0.00000E+000	5.58780E-005	5.39641E-002	6.13007E-001	3.57280E+000	9	...........
	33	0.453333	6.19049E-001	9.11043E-005	0.00000E+000	5.63980E-005	5.39641E-002	6.19137E-001	3.57280E+000	9	...........
	34	0.466667	6.25039E-001	9.11314E-005	0.00000E+000	5.69607E-005	5.39641E-002	6.25134E-001	3.57280E+000	9	...........
	35	0.48	6.30903E-001	9.10293E-005	0.00000E+000	5.74307E-005	5.39641E-002	6.31003E-001	3.57280E+000	9	...........
	36	0.493333	6.36664E-001	9.10178E-005	0.00000E+000	5.79478E-005	5.39641E-002	6.36776E-001	3.57280E+000	9	...........
	37	0.506667	6.42329E-001	9.10887E-005	0.00000E+000	5.85089E-005	5.39641E-002	6.42431E-001	3.57280E+000	9	...........
	38	0.52	6.47858E-001	9.10345E-005	0.00000E+000	5.89775E-005	5.39641E-002	6.47964E-001	3.57280E+000	9	...........
	39	0.533333	6.53254E-001	9.07261E-005	0.00000E+000	5.92672E-005	5.39641E-002	6.53404E-001	3.57280E+000	9	...........
	40	0.546667	6.58596E-001	9.09407E-005	0.00000E+000	5.98932E-005	5.39641E-002	6.58702E-001	3.57280E+000	9	...........
	41	0.56	6.63852E-001	9.11616E-005	0.00000E+000	6.05178E-005	5.39641E-002	6.63989E-001	3.57280E+000	9	...........
	42	0.573333	6.69027E-001	9.12992E-005	0.00000E+000	6.10816E-005	5.39641E-002	6.69154E-001	3.57280E+000	9	...........
	43	0.586667	6.74088E-001	9.09710E-005	0.00000E+000	6.13224E-005	5.39641E-002	6.74208E-001	3.57280E+000	9	...........
	44	0.6	6.79056E-001	9.09397E-005	0.00000E+000	6.17532E-005	5.39641E-002	6.79189E-001	3.57280E+000	9	...........
	45	0.613333	6.83929E-001	9.09293E-005	0.00000E+000	6.21892E-005	5.39641E-002	6.84042E-001	3.57280E+000	9	...........
	46	0.626667	6.88740E-001	9.11189E-005	0.00000E+000	6.27572E-005	5.39641E-002	6.88847E-001	3.57280E+000	9	...........
	47	0.64	6.93473E-001	9.09032E-005	0.00000E+000	6.30389E-005	5.39641E-002	6.93575E-001	3.57280E+000	9	...........
	48	0.653333	6.98112E-001	9.10564E-005	0.00000E+000	6.35676E-005	5.39641E-002	6.98232E-001	3.57280E+000	9	...........
	49	0.666667	7.02656E-001	9.12450E-005	0.00000E+000	6.41138E-005	5.39641E-002	7.02777E-001	3.57280E+000	9	...........
	50	0.68	7.07133E-001	9.10856E-005	0.00000E+000	6.44096E-005	5.39641E-002	7.07285E-001	3.57280E+000	9	...........
	51	0.693333	7.11563E-001	9.08501E-005	0.00000E+000	6.46456E-005	5.39641E-002	7.11703E-001	3.57280E+000	9	...........
	52	0.706667	7.15932E-001	9.11825E-005	0.00000E+000	6.52805E-005	5.39641E-002	7.16088E-001	3.57280E+000	9	...........
	53	0.72	7.20269E-001	9.10918E-005	0.00000E+000	6.56106E-005	5.39641E-002	7.20388E-001	3.57280E+000	9	...........
	54	0.733333	7.24503E-001	9.11783E-005	0.00000E+000	6.60589E-005	5.39641E-002	7.24636E-001	3.57280E+000	9	...........
	55	0.746667	7.28686E-001	9.08678E-005	0.00000E+000	6.62141E-005	5.39641E-002	7.28830E-001	3.57280E+000	9	...........
	56	0.76	7.32822E-001	9.07501E-005	0.00000E+000	6.65037E-005	5.39641E-002	7.32983E-001	3.57280E+000	9	...........
	57	0.773333	7.36910E-001	9.11304E-005	0.00000E+000	6.71549E-005	5.39641E-002	7.37045E-001	3.57280E+000	9	...........
	58	0.786667	7.40932E-001	9.12366E-005	0.00000E+000	6.76001E-005	5.39641E-002	7.41060E-001	3.57280E+000	9	...........
	59	0.8	7.44913E-001	9.09918E-005	0.00000E+000	6.77810E-005	5.39641E-002	7.45039E-001	3.57280E+000	9	...........
	60	0.813333	7.48802E-001	9.10314E-005	0.00000E+000	6.81645E-005	5.39641E-002	7.48923E-001	3.57280E+000	9	...........
	61	0.826667	7.52646E-001	9.11866E-005	0.00000E+000	6.86312E-005	5.39641E-002	7.52807E-001	3.57280E+000	9	...........
	62	0.84	7.56449E-001	9.11950E-005	0.00000E+000	6.89843E-005	5.39641E-002	7.56570E-001	3.57280E+000	9	...........
	63	0.853333	7.60191E-001	9.10658E-005	0.00000E+000	6.92274E-005	5.39641E-002	7.60329E-001	3.57280E+000	9	...........
	64	0.866667	7.63910E-001	9.09543E-005	0.00000E+000	6.94809E-005	5.39641E-002	7.64054E-001	3.57280E+000	9	...........
	65	0.88	7.67560E-001	9.12523E-005	0.00000E+000	7.00416E-005	5.39641E-002	7.67751E-001	3.57280E+000	9	...........
	66	0.893333	7.71205E-001	9.09616E-005	0.00000E+000	7.01500E-005	5.39641E-002	7.71372E-001	3.57280E+000	9	...........
	67	0.906667	7.74785E-001	9.11502E-005	0.00000E+000	7.06218E-005	5.39641E-002	7.74935E-001	3.57280E+000	9	...........
	68	0.92	7.78308E-001	9.11950E-005	0.00000E+000	7.09778E-005	5.39641E-002	7.78461E-001	3.57280E+000	9	...........
	69	0.933333	7.81812E-001	9.10491E-005	0.00000E+000	7.11832E-005	5.39641E-002	7.81969E-001	3.57280E+000	9	...........
	70	0.946667	7.85258E-001	9.09460E-005	0.00000E+000	7.14160E-005	5.39641E-002	7.85391E-001	3.57280E+000	9	...........
	71	0.96	7.88689E-001	9.09032E-005	0.00000E+000	7.16944E-005	5.39641E-002	7.88820E-001	3.57280E+000	9	...........
	72	0.97333	7.92078E-001	9.11793E-005	0.00000E+000	7.22211E-005	5.39641E-002	7.92225E-001	3.57280E+000	9	...........
	73	0.98667	7.95435E-001	9.12148E-005	0.00000E+000	7.25555E-005	5.39641E-002	7.95581E-001	3.57280E+000	9	...........
	74	1	7.98730E-001	9.10106E-005	0.00000E+000	7.26929E-005	5.39641E-002	7.98872E-001	3.57280E+000	9	...........
	75	1.01333	8.02012E-001	9.09387E-005	0.00000E+000	7.29339E-005	5.39641E-002	8.02136E-001	3.57280E+000	9	...........
	76	1.02667	8.05240E-001	9.09710E-005	0.00000E+000	7.32535E-005	5.39641E-002	8.05396E-001	3.57280E+000	9	...........
	77	1.04	8.08431E-001	9.12804E-005	0.00000E+000	7.37939E-005	5.39641E-002	8.08590E-001	3.57280E+000	9	...........
	78	1.05333	8.11591E-001	9.12158E-005	0.00000E+000	7.40300E-005	5.39641E-002	8.11753E-001	3.57280E+000	9	...........
	79	1.06667	8.14703E-001	9.12919E-005	0.00000E+000	7.43757E-005	5.39641E-002	8.14868E-001	3.57280E+000	9	...........
	80	1.08	8.17795E-001	9.10553E-005	0.00000E+000	7.44646E-005	5.39641E-002	8.17957E-001	3.57280E+000	9	...........
	81	1.09333	8.20890E-001	9.09574E-005	0.00000E+000	7.46660E-005	5.39641E-002	8.21022E-001	3.57280E+000	9	...........
	82	1.10667	8.23910E-001	9.07688E-005	0.00000E+000	7.47853E-005	5.39641E-002	8.24056E-001	3.57280E+000	9	...........
	83	1.12	8.26892E-001	9.11179E-005	0.00000E+000	7.53446E-005	5.39641E-002	8.27007E-001	3.57280E+000	9	...........
	84	1.13333	8.29843E-001	9.09626E-005	0.00000E+000	7.54847E-005	5.39641E-002	8.29998E-001	3.57280E+000	9	...........
	85	1.14667	8.32760E-001	9.10481E-005	0.00000E+000	7.58212E-005	5.39641E-002	8.32947E-001	3.57280E+000	9	...........
	86	1.16	8.35647E-001	9.12283E-005	0.00000E+000	7.62346E-005	5.39641E-002	8.35795E-001	3.57280E+000	9	...........
	87	1.17333	8.38523E-001	9.11325E-005	0.00000E+000	7.64166E-005	5.39641E-002	8.38674E-001	3.57280E+000	9	...........
	88	1.18667	8.41344E-001	9.08720E-005	0.00000E+000	7.64546E-005	5.39641E-002	8.41498E-001	3.57280E+000	9	...........
	89	1.2	8.44175E-001	9.09418E-005	0.00000E+000	7.67708E-005	5.39641E-002	8.44333E-001	3.57315E+000	9	...........
	90	1.21333	8.46963E-001	9.10220E-005	0.00000E+000	7.70923E-005	5.39641E-002	8.47123E-001	3.57350E+000	9	...........
	91	1.22667	8.49717E-001	9.11043E-005	0.00000E+000	7.74129E-005	5.39641E-002	8.49873E-001	3.57350E+000	9	...........
	92	1.24	8.52428E-001	9.09751E-005	0.00000E+000	7.75497E-005	5.39641E-002	8.52592E-001	3.57350E+000	9	...........
	93	1.25333	8.55130E-001	9.10595E-005	0.00000E+000	7.78677E-005	5.39641E-002	8.55297E-001	3.57350E+000	9	...........
	94	1.26667	8.57785E-001	9.11637E-005	0.00000E+000	7.81988E-005	5.39641E-002	8.58001E-001	3.57350E+000	9	...........
	95	1.28	8.60432E-001	9.12971E-005	0.00000E+000	7.85549E-005	5.39641E-002	8.60644E-001	3.57350E+000	9	...........
	96	1.29333	8.63049E-001	9.11616E-005	0.00000E+000	7.86770E-005	5.39641E-002	8.63262E-001	3.57350E+000	9	...........
	97	1.30667	8.65645E-001	9.07970E-005	0.00000E+000	7.85980E-005	5.39641E-002	8.65856E-001	3.57350E+000	9	...........
	98	1.32	8.68234E-001	9.09480E-005	0.00000E+000	7.89641E-005	5.39641E-002	8.68433E-001	3.57350E+000	9	...........
	99	1.33333	8.70818E-001	9.12825E-005	0.00000E+000	7.94905E-005	5.39641E-002	8.70989E-001	3.57350E+000	9	...........
	100	1.34667	8.73310E-001	9.09262E-005	0.00000E+000	7.94068E-005	5.39641E-002	8.73512E-001	3.57350E+000	9	...........
	101	1.36	8.75799E-001	9.10668E-005	0.00000E+000	7.97562E-005	5.39641E-002	8.75983E-001	3.57350E+000	9	...........
	102	1.37333	8.78262E-001	9.09095E-005	0.00000E+000	7.98424E-005	5.39641E-002	8.78443E-001	3.57350E+000	9	...........
	103	1.38667	8.80711E-001	9.11252E-005	0.00000E+000	8.02549E-005	5.39641E-002	8.80871E-001	3.57350E+000	9	...........
	104	1.4	8.83142E-001	9.11095E-005	0.00000E+000	8.04626E-005	5.39641E-002	8.83298E-001	3.57350E+000	9	...........
	105	1.41333	8.85521E-001	9.10481E-005	0.00000E+000	8.06250E-005	5.39641E-002	8.85697E-001	3.57350E+000	9	...........
	106	1.42667	8.87871E-001	9.11418E-005	0.00000E+000	8.09222E-005	5.39641E-002	8.88045E-001	3.57350E+000	9	...........
	107	1.44	8.90244E-001	9.09470E-005	0.00000E+000	8.09650E-005	5.39641E-002	8.90359E-001	3.57350E+000	9	...........
	108	1.45333	8.92563E-001	9.07324E-005	0.00000E+000	8.09843E-005	5.39641E-002	8.92684E-001	3.57350E+000	9	...........
	109	1.46667	8.94820E-001	9.09710E-005	0.00000E+000	8.14026E-005	5.39641E-002	8.95008E-001	3.57350E+000	9	...........
	110	1.48	8.97114E-001	9.10793E-005	0.00000E+000	8.17086E-005	5.39641E-002	8.97262E-001	3.57350E+000	9	...........
	111	1.49333	8.99358E-001	9.12533E-005	0.00000E+000	8.20694E-005	5.39641E-002	8.99499E-001	3.57350E+000	9	...........
	112	1.50667	9.01570E-001	9.11637E-005	0.00000E+000	8.21904E-005	5.39641E-002	9.01735E-001	3.57350E+000	9	...........
	113	1.52	9.03765E-001	9.06917E-005	0.00000E+000	8.19641E-005	5.39641E-002	9.03953E-001	3.57350E+000	9	...........
	114	1.53333	9.05940E-001	9.10314E-005	0.00000E+000	8.24690E-005	5.39641E-002	9.06112E-001	3.57350E+000	9	...........
	115	1.54667	9.08090E-001	9.10470E-005	0.00000E+000	8.26788E-005	5.39641E-002	9.08282E-001	3.57350E+000	9	...........
	116	1.56	9.10218E-001	9.09960E-005	0.00000E+000	8.28262E-005	5.39641E-002	9.10377E-001	3.57350E+000	9	...........
	117	1.57333	9.12310E-001	9.10772E-005	0.00000E+000	8.30907E-005	5.39641E-002	9.12484E-001	3.57350E+000	9	...........
	118	1.58667	9.14384E-001	9.12481E-005	0.00000E+000	8.34358E-005	5.39641E-002	9.14599E-001	3.57350E+000	9	...........
	119	1.6	9.16458E-001	9.09835E-005	0.00000E+000	8.33825E-005	5.39641E-002	9.16643E-001	3.57350E+000	9	...........
	120	1.61333	9.18515E-001	9.12439E-005	0.00000E+000	8.38089E-005	5.39641E-002	9.18693E-001	3.57350E+000	9	...........
	121	1.62667	9.20594E-001	9.10460E-005	0.00000E+000	8.38164E-005	5.39641E-002	9.20758E-001	3.57350E+000	9	...........
	122	1.64	9.22635E-001	9.09553E-005	0.00000E+000	8.39186E-005	5.39641E-002	9.22800E-001	3.57350E+000	9	...........
	123	1.65333	9.24633E-001	9.11179E-005	0.00000E+000	8.42506E-005	5.39641E-002	9.24777E-001	3.57350E+000	9	...........
	124	1.66667	9.26598E-001	9.09157E-005	0.00000E+000	8.42423E-005	5.39641E-002	9.26762E-001	3.57350E+000	9	...........
	125	1.68	9.28567E-001	9.08074E-005	0.00000E+000	8.43208E-005	5.39641E-002	9.28732E-001	3.57350E+000	9	...........
	126	1.69333	9.30503E-001	9.10283E-005	0.00000E+000	8.47021E-005	5.39641E-002	9.30634E-001	3.57350E+000	9	...........
	127	1.70667	9.32414E-001	9.12554E-005	0.00000E+000	8.50878E-005	5.39641E-002	9.32580E-001	3.57350E+000	9	...........
	128	1.72	9.34280E-001	9.09949E-005	0.00000E+000	8.50148E-005	5.39641E-002	9.34479E-001	3.57350E+000	9	...........
	129	1.73333	9.36150E-001	9.10543E-005	0.00000E+000	8.52405E-005	5.39641E-002	9.36342E-001	3.57350E+000	9	...........
	130	1.74667	9.38009E-001	9.10085E-005	0.00000E+000	8.53668E-005	5.39641E-002	9.38184E-001	3.57350E+000	9	...........
	131	1.76	9.39828E-001	9.09335E-005	0.00000E+000	8.54618E-005	5.39641E-002	9.40018E-001	3.57350E+000	9	...........
	132	1.77333	9.41619E-001	9.11648E-005	0.00000E+000	8.58425E-005	5.39641E-002	9.41829E-001	3.57350E+000	9	...........
	133	1.78667	9.43414E-001	9.10970E-005	0.00000E+000	8.59422E-005	5.39641E-002	9.43611E-001	3.57350E+000	9	...........
	134	1.8	9.45186E-001	9.10095E-005	0.00000E+000	8.60209E-005	5.39641E-002	9.45391E-001	3.57350E+000	9	...........
	135	1.81333	9.46996E-001	9.09783E-005	0.00000E+000	8.61561E-005	5.39641E-002	9.47196E-001	3.57350E+000	9	...........
	136	1.82667	9.48745E-001	9.10585E-005	0.00000E+000	8.63912E-005	5.39641E-002	9.48948E-001	3.57350E+000	9	...........
	137	1.84	9.50465E-001	9.13169E-005	0.00000E+000	8.67935E-005	5.39641E-002	9.50648E-001	3.57350E+000	9	...........
	138	1.85333	9.52173E-001	9.13012E-005	0.00000E+000	8.69346E-005	5.39641E-002	9.52376E-001	3.57350E+000	9	...........
	139	1.86667	9.53865E-001	9.10449E-005	0.00000E+000	8.68446E-005	5.39641E-002	9.54030E-001	3.57350E+000	9	...........
	140	1.88	9.55540E-001	9.12762E-005	0.00000E+000	8.72181E-005	5.39641E-002	9.55711E-001	3.57350E+000	9	...........
	141	1.89333	9.57189E-001	9.10126E-005	0.00000E+000	8.71163E-005	5.39641E-002	9.57350E-001	3.57350E+000	9	...........
	142	1.90667	9.58821E-001	9.08637E-005	0.00000E+000	8.71220E-005	5.39641E-002	9.58990E-001	3.57350E+000	9	...........
	143	1.92	9.60439E-001	9.11127E-005	0.00000E+000	8.75081E-005	5.39641E-002	9.60618E-001	3.57350E+000	9	...........
	144	1.93333	9.62042E-001	9.11304E-005	0.00000E+000	8.76712E-005	5.39641E-002	9.62209E-001	3.57350E+000	9	...........
	145	1.94667	9.63633E-001	9.10106E-005	0.00000E+000	8.77007E-005	5.39641E-002	9.63821E-001	3.57350E+000	9	...........
	146	1.96	9.65188E-001	9.12387E-005	0.00000E+000	8.80625E-005	5.39641E-002	9.65383E-001	3.57350E+000	9	...........
	147	1.97333	9.66742E-001	9.11272E-005	0.00000E+000	8.80966E-005	5.39641E-002	9.66945E-001	3.57350E+000	9	...........
	148	1.98667	9.68279E-001	9.09616E-005	0.00000E+000	8.80762E-005	5.39641E-002	9.68471E-001	3.57350E+000	9	...........
	149	2	9.69792E-001	9.12481E-005	0.00000E+000	8.84917E-005	5.39641E-002	9.70001E-001	3.57350E+000	9	...........
	150	2.01333	9.71288E-001	9.10303E-005	0.00000E+000	8.84167E-005	5.39641E-002	9.71529E-001	3.57350E+000	9	...........
	151	2.02667	9.72846E-001	9.09012E-005	0.00000E+000	8.84328E-005	5.39641E-002	9.73024E-001	3.57350E+000	9	...........
	152	2.04	9.74348E-001	9.10856E-005	0.00000E+000	8.87490E-005	5.39641E-002	9.74521E-001	3.57350E+000	9	...........
	153	2.05333	9.75805E-001	9.11200E-005	0.00000E+000	8.89153E-005	5.39641E-002	9.75979E-001	3.57350E+000	9	...........
	154	2.06667	9.77241E-001	9.09355E-005	0.00000E+000	8.88660E-005	5.39641E-002	9.77426E-001	3.57350E+000	9	...........
	155	2.08	9.78654E-001	9.09512E-005	0.00000E+000	8.90098E-005	5.39641E-002	9.78850E-001	3.57350E+000	9	...........
	156	2.09333	9.80101E-001	9.09855E-005	0.00000E+000	8.91750E-005	5.39641E-002	9.80284E-001	3.57350E+000	9	...........
	157	2.10667	9.81505E-001	9.07574E-005	0.00000E+000	8.90789E-005	5.39641E-002	9.81694E-001	3.57350E+000	9	...........
	158	2.12	9.82911E-001	9.13773E-005	0.00000E+000	8.98158E-005	5.39641E-002	9.83092E-001	3.57350E+000	9	...........
	159	2.13333	9.84293E-001	9.10533E-005	0.00000E+000	8.96231E-005	5.39641E-002	9.84491E-001	3.57350E+000	9	...........
	160	2.14667	9.85673E-001	9.10679E-005	0.00000E+000	8.97631E-005	5.39641E-002	9.85866E-001	3.57350E+000	9	...........
	161	2.16	9.87013E-001	9.08772E-005	0.00000E+000	8.96969E-005	5.39641E-002	9.87236E-001	3.57350E+000	9	...........
	162	2.17333	9.88364E-001	9.12054E-005	0.00000E+000	9.01441E-005	5.39641E-002	9.88589E-001	3.57350E+000	9	...........
	163	2.18667	9.89700E-001	9.08772E-005	0.00000E+000	8.99411E-005	5.39641E-002	9.89905E-001	3.57350E+000	9	...........
	164	2.2	9.91020E-001	9.10512E-005	0.00000E+000	9.02336E-005	5.39641E-002	9.91190E-001	3.57290E+000	9	...........
	165	2.21333	9.92301E-001	9.10793E-005	0.00000E+000	9.03781E-005	5.39641E-002	9.92506E-001	3.57230E+000	9	...........
	166	2.22667	9.93594E-001	9.11773E-005	0.00000E+000	9.05931E-005	5.39641E-002	9.93815E-001	3.57230E+000	9	...........
	167	2.24	9.94905E-001	9.09178E-005	0.00000E+000	9.04546E-005	5.39641E-002	9.95095E-001	3.57230E+000	9	...........
	168	2.25333	9.96171E-001	9.11856E-005	0.00000E+000	9.08364E-005	5.39641E-002	9.96375E-001	3.57230E+000	9	...........
	169	2.26667	9.97445E-001	9.07542E-005	0.00000E+000	9.05224E-005	5.39641E-002	9.97655E-001	3.57230E+000	9	...........
	170	2.28	9.98664E-001	9.10668E-005	0.00000E+000	9.09452E-005	5.39641E-002	9.98912E-001	3.57230E+000	9	...........
	171	2.28833	9.99694E-001	9.11460E-005	0.00000E+000	9.11181E-005	5.39641E-002	9.99883E-001	3.57230E+000	9	...........
STARTTIMEOFFSET	QUANT	1722.833	Start Time Offset (s)
