EXPLAIN
TAG	PWR800_CHARGE
TITLE	LABEL	PWR Cyclic Charge Discharge (Cell) - Charge Step	Test &Identifier
DATE	LABEL	10-7-2017	Date
TIME	LABEL	16:08:25	Time
NOTES	NOTES	3	&Notes...
	supercap test cell
	0.9mg
	6M KOH
PSTAT	PSTAT	IFC5000-01520	Potentiostat
CAPACITY	QUANT	1.00000E-003	Capacity (A-hr)
CELLTYPE	SELECTOR	1	&Cell Type
WORKINGCONNECTION	SELECTOR	0	&Working Lead
MAXCHARGETIME	VARIABLEANDUNITS	1.00000E+002	s	1.00000E+002	second(s)	Max &Charge Time
CHARGECURRENT	QUANT	9.00000E-005	&Charge Current (A) 
VOLTAGEFINISH	TWOPARAM	F	1.00000E-003	3.60000E+003	&Voltage Finish	 I (A) < 	Max Time(s)
SAMPLETIME	QUANT	1.00000E-002	Sa&mple Period (s)
CHARGESTOPAT1	MULTIPARAM	4	1.00000E+000	Charge Stop At &1	Voltage > Limit	V
CHARGESTOPAT2	MULTIPARAM	0	0.00000E+000	Charge Stop At &2	None	N/A
AESBHCSELECTOR	TOGGLE	F	Save Both Half Cells
IRCOMP	TOGGLE	F	IR &Measure
EOC	QUANT	0	Open Circuit (V)
SEQUENCER	TOGGLE	TRUE	Run as Sequence
PSTATMODEL	IQUANT	53	Pstat Model
PSTATSECTION	LABEL	IFC5000-01520	Pstat Section
PSTATSERIALNO	LABEL	01520	Pstat Serial Number
CTRLMODE	IQUANT	0	Control Mode
ELECTROMETER	IQUANT	1	RE=0 or CS=1
IESTAB	IQUANT	0	I/E Stability
CASPEED	IQUANT	4	Control Amp Speed
CONVENTION	IQUANT	1	Current Convention
ICHRANGE	IQUANT	2	Ich Range
ICHRANGEMODE	TOGGLE	T	Ich Auto Range
ICHOFFSETENABLE	TOGGLE	F	Ich Offset Enable
ICHOFFSET	QUANT	0	Ich Offset (V)
ICHFILTER	IQUANT	1	Ich Filter
VCHRANGE	IQUANT	2	Vch Range
VCHRANGEMODE	TOGGLE	T	Vch Auto Range
VCHOFFSETENABLE	TOGGLE	F	Vch Offset Enable
VCHOFFSET	QUANT	0	Vch Offset (V)
VCHFILTER	IQUANT	1	Vch Filter
IERANGELOWERLIMIT	IQUANT	9	I/E Range Lower Limit
IERANGEMODE	TOGGLE	F	I/E AutoRange
IERANGE	IQUANT	9	I/E Range
ACHSELECT	IQUANT	1	Ach Select
ACHRANGE	IQUANT	2	Ach Range
ACHOFFSETENABLE	TOGGLE	F	Ach Offset Enable
ACHOFFSET	QUANT	0	Ach Offset (V)
ACHFILTER	IQUANT	1	Ach Filter
CABLEID	IQUANT	14	Cable ID
DCCALDATE	LABEL	5-7-2017	DC Calibration Date
ACCALDATE	LABEL	12/3/2015	AC Calibration Date
FRAMEWORKVERSION	QUANT	7.01	Framework Version
INSTRUMENTVERSION	LABEL	4.00	Instrument Version
CURVE	TABLE	163
	Pt	T	Vf	Im	Vu	Pwr	Sig	Ach	Temp	IERange	Over
	#	s	V	A	V	W	V	V	deg C	#	bits
	0	0.013333	2.74895E-001	9.10064E-005	0.00000E+000	2.50172E-005	5.39641E-002	2.74944E-001	3.57320E+000	9	...........
	1	0.026667	2.94444E-001	9.07959E-005	0.00000E+000	2.67343E-005	5.39641E-002	2.94484E-001	3.57320E+000	9	...........
	2	0.04	3.12760E-001	9.09605E-005	0.00000E+000	2.84488E-005	5.39641E-002	3.12802E-001	3.57320E+000	9	...........
	3	0.053333	3.30005E-001	9.11418E-005	0.00000E+000	3.00773E-005	5.39641E-002	3.30050E-001	3.57320E+000	9	...........
	4	0.066667	3.46313E-001	9.09209E-005	0.00000E+000	3.14871E-005	5.39641E-002	3.46352E-001	3.57320E+000	9	...........
	5	0.08	3.61763E-001	9.09001E-005	0.00000E+000	3.28843E-005	5.39641E-002	3.61807E-001	3.57320E+000	9	...........
	6	0.093333	3.76456E-001	9.08887E-005	0.00000E+000	3.42156E-005	5.39641E-002	3.76500E-001	3.57320E+000	9	...........
	7	0.106667	3.90450E-001	9.09001E-005	0.00000E+000	3.54920E-005	5.39641E-002	3.90499E-001	3.57320E+000	9	...........
	8	0.12	4.03795E-001	9.09126E-005	0.00000E+000	3.67101E-005	5.39641E-002	4.03848E-001	3.57355E+000	9	...........
	9	0.133333	4.16554E-001	9.10637E-005	0.00000E+000	3.79329E-005	5.39641E-002	4.16606E-001	3.57360E+000	9	...........
	10	0.146667	4.28769E-001	9.07345E-005	0.00000E+000	3.89041E-005	5.39641E-002	4.28831E-001	3.57360E+000	9	...........
	11	0.16	4.40483E-001	9.10741E-005	0.00000E+000	4.01166E-005	5.39641E-002	4.40543E-001	3.57360E+000	9	...........
	12	0.173333	4.51731E-001	9.08845E-005	0.00000E+000	4.10553E-005	5.39641E-002	4.51791E-001	3.57360E+000	9	...........
	13	0.186667	4.62570E-001	9.10366E-005	0.00000E+000	4.21108E-005	5.39641E-002	4.62629E-001	3.57360E+000	9	...........
	14	0.2	4.73015E-001	9.09303E-005	0.00000E+000	4.30114E-005	5.39641E-002	4.73079E-001	3.57360E+000	9	...........
	15	0.213333	4.83100E-001	9.08834E-005	0.00000E+000	4.39057E-005	5.39641E-002	4.83157E-001	3.57360E+000	9	...........
	16	0.226667	4.92835E-001	9.08959E-005	0.00000E+000	4.47967E-005	5.39641E-002	4.92903E-001	3.57360E+000	9	...........
	17	0.24	5.02241E-001	9.07240E-005	0.00000E+000	4.55653E-005	5.39641E-002	5.02312E-001	3.57360E+000	9	...........
	18	0.253333	5.11359E-001	9.09512E-005	0.00000E+000	4.65087E-005	5.39641E-002	5.11428E-001	3.57360E+000	9	...........
	19	0.266667	5.20183E-001	9.08897E-005	0.00000E+000	4.72793E-005	5.39641E-002	5.20252E-001	3.57360E+000	9	...........
	20	0.28	5.28745E-001	9.08532E-005	0.00000E+000	4.80382E-005	5.39641E-002	5.28815E-001	3.57360E+000	9	...........
	21	0.293333	5.36970E-001	9.07907E-005	0.00000E+000	4.87519E-005	5.39641E-002	5.37059E-001	3.57360E+000	9	...........
	22	0.306667	5.45058E-001	9.10147E-005	0.00000E+000	4.96083E-005	5.39641E-002	5.45144E-001	3.57360E+000	9	...........
	23	0.32	5.52877E-001	9.09647E-005	0.00000E+000	5.02923E-005	5.39641E-002	5.52995E-001	3.57360E+000	9	...........
	24	0.333333	5.60532E-001	9.09991E-005	0.00000E+000	5.10079E-005	5.39641E-002	5.60636E-001	3.57360E+000	9	...........
	25	0.346667	5.68005E-001	9.09741E-005	0.00000E+000	5.16737E-005	5.39641E-002	5.68116E-001	3.57360E+000	9	...........
	26	0.36	5.75257E-001	9.10710E-005	0.00000E+000	5.23892E-005	5.39641E-002	5.75378E-001	3.57360E+000	9	...........
	27	0.373333	5.82342E-001	9.07001E-005	0.00000E+000	5.28184E-005	5.39641E-002	5.82465E-001	3.57360E+000	9	...........
	28	0.386667	5.89274E-001	9.10877E-005	0.00000E+000	5.36756E-005	5.39641E-002	5.89393E-001	3.57360E+000	9	...........
	29	0.4	5.96014E-001	9.07334E-005	0.00000E+000	5.40784E-005	5.39641E-002	5.96132E-001	3.57360E+000	9	...........
	30	0.413333	6.02607E-001	9.11106E-005	0.00000E+000	5.49038E-005	5.39641E-002	6.02753E-001	3.57360E+000	9	...........
	31	0.426667	6.09034E-001	9.10533E-005	0.00000E+000	5.54545E-005	5.39641E-002	6.09192E-001	3.57360E+000	9	...........
	32	0.44	6.15413E-001	9.09262E-005	0.00000E+000	5.59571E-005	5.39641E-002	6.15529E-001	3.57360E+000	9	...........
	33	0.453333	6.21611E-001	9.10553E-005	0.00000E+000	5.66010E-005	5.39641E-002	6.21704E-001	3.57360E+000	9	...........
	34	0.466667	6.27653E-001	9.09751E-005	0.00000E+000	5.71008E-005	5.39641E-002	6.27756E-001	3.57360E+000	9	...........
	35	0.48	6.33596E-001	9.11106E-005	0.00000E+000	5.77273E-005	5.39641E-002	6.33702E-001	3.57360E+000	9	...........
	36	0.493333	6.39409E-001	9.10751E-005	0.00000E+000	5.82343E-005	5.39641E-002	6.39539E-001	3.57360E+000	9	...........
	37	0.506667	6.45125E-001	9.09532E-005	0.00000E+000	5.86762E-005	5.39641E-002	6.45231E-001	3.57360E+000	9	...........
	38	0.52	6.50678E-001	9.11887E-005	0.00000E+000	5.93345E-005	5.39641E-002	6.50803E-001	3.57360E+000	9	...........
	39	0.533333	6.56166E-001	9.11116E-005	0.00000E+000	5.97844E-005	5.39641E-002	6.56267E-001	3.57360E+000	9	...........
	40	0.546667	6.61545E-001	9.11762E-005	0.00000E+000	6.03171E-005	5.39641E-002	6.61642E-001	3.57360E+000	9	...........
	41	0.56	6.66857E-001	9.09428E-005	0.00000E+000	6.06458E-005	5.39641E-002	6.66993E-001	3.57360E+000	9	...........
	42	0.573333	6.72085E-001	9.10491E-005	0.00000E+000	6.11927E-005	5.39641E-002	6.72177E-001	3.57360E+000	9	...........
	43	0.586667	6.77207E-001	9.09001E-005	0.00000E+000	6.15582E-005	5.39641E-002	6.77300E-001	3.57360E+000	9	...........
	44	0.6	6.82225E-001	9.08949E-005	0.00000E+000	6.20108E-005	5.39641E-002	6.82332E-001	3.57360E+000	9	...........
	45	0.613333	6.87152E-001	9.09970E-005	0.00000E+000	6.25287E-005	5.39641E-002	6.87278E-001	3.57360E+000	9	...........
	46	0.626667	6.92033E-001	9.09689E-005	0.00000E+000	6.29535E-005	5.39641E-002	6.92158E-001	3.57360E+000	9	...........
	47	0.64	6.96821E-001	9.10689E-005	0.00000E+000	6.34588E-005	5.39641E-002	6.96945E-001	3.57360E+000	9	...........
	48	0.653333	7.01563E-001	9.11147E-005	0.00000E+000	6.39228E-005	5.39641E-002	7.01675E-001	3.57360E+000	9	...........
	49	0.666667	7.06200E-001	9.15159E-005	0.00000E+000	6.46285E-005	5.39641E-002	7.06354E-001	3.57360E+000	9	...........
	50	0.68	7.10794E-001	9.10856E-005	0.00000E+000	6.47431E-005	5.39641E-002	7.10924E-001	3.57360E+000	9	...........
	51	0.693333	7.15320E-001	9.09001E-005	0.00000E+000	6.50226E-005	5.39641E-002	7.15465E-001	3.57360E+000	9	...........
	52	0.706667	7.19846E-001	9.09345E-005	0.00000E+000	6.54589E-005	5.39641E-002	7.19963E-001	3.57360E+000	9	...........
	53	0.72	7.24237E-001	9.11439E-005	0.00000E+000	6.60098E-005	5.39641E-002	7.24349E-001	3.57360E+000	9	...........
	54	0.733333	7.28551E-001	9.11512E-005	0.00000E+000	6.64083E-005	5.39641E-002	7.28689E-001	3.57360E+000	9	...........
	55	0.746667	7.32801E-001	9.08657E-005	0.00000E+000	6.65865E-005	5.39641E-002	7.32943E-001	3.57360E+000	9	...........
	56	0.76	7.37031E-001	9.09845E-005	0.00000E+000	6.70584E-005	5.39641E-002	7.37123E-001	3.57360E+000	9	...........
	57	0.773333	7.41183E-001	9.10033E-005	0.00000E+000	6.74501E-005	5.39641E-002	7.41328E-001	3.57360E+000	9	...........
	58	0.786667	7.45341E-001	9.10699E-005	0.00000E+000	6.78781E-005	5.39641E-002	7.45438E-001	3.57360E+000	9	...........
	59	0.8	7.49357E-001	9.06646E-005	0.00000E+000	6.79402E-005	5.39641E-002	7.49490E-001	3.57360E+000	9	...........
	60	0.813333	7.53392E-001	9.09783E-005	0.00000E+000	6.85423E-005	5.39641E-002	7.53491E-001	3.57360E+000	9	...........
	61	0.826667	7.57368E-001	9.11981E-005	0.00000E+000	6.90705E-005	5.39641E-002	7.57456E-001	3.57360E+000	9	...........
	62	0.84	7.61267E-001	9.07188E-005	0.00000E+000	6.90612E-005	5.39641E-002	7.61380E-001	3.57360E+000	9	...........
	63	0.853333	7.65108E-001	9.11460E-005	0.00000E+000	6.97365E-005	5.39641E-002	7.65235E-001	3.57360E+000	9	...........
	64	0.866667	7.68928E-001	9.07636E-005	0.00000E+000	6.97907E-005	5.39641E-002	7.69060E-001	3.57360E+000	9	...........
	65	0.88	7.72721E-001	9.10918E-005	0.00000E+000	7.03885E-005	5.39641E-002	7.72841E-001	3.57360E+000	9	...........
	66	0.893333	7.76453E-001	9.11595E-005	0.00000E+000	7.07811E-005	5.39641E-002	7.76590E-001	3.57360E+000	9	...........
	67	0.906667	7.80174E-001	9.10053E-005	0.00000E+000	7.10000E-005	5.39641E-002	7.80314E-001	3.57360E+000	9	...........
	68	0.92	7.83822E-001	9.07563E-005	0.00000E+000	7.11368E-005	5.39641E-002	7.83956E-001	3.57360E+000	9	...........
	69	0.933333	7.87455E-001	9.12085E-005	0.00000E+000	7.18226E-005	5.39641E-002	7.87577E-001	3.57360E+000	9	...........
	70	0.946667	7.91039E-001	9.09856E-005	0.00000E+000	7.19731E-005	5.39641E-002	7.91147E-001	3.57360E+000	9	...........
	71	0.96	7.94593E-001	9.10668E-005	0.00000E+000	7.23610E-005	5.39641E-002	7.94716E-001	3.57360E+000	9	...........
	72	0.97333	7.98070E-001	9.10647E-005	0.00000E+000	7.26760E-005	5.39641E-002	7.98175E-001	3.57360E+000	9	...........
	73	0.98667	8.01525E-001	9.09189E-005	0.00000E+000	7.28738E-005	5.39641E-002	8.01652E-001	3.57360E+000	9	...........
	74	1	8.04940E-001	9.08678E-005	0.00000E+000	7.31432E-005	5.39641E-002	8.05072E-001	3.57360E+000	9	...........
	75	1.01333	8.08310E-001	9.09209E-005	0.00000E+000	7.34923E-005	5.39641E-002	8.08462E-001	3.57360E+000	9	...........
	76	1.02667	8.11655E-001	9.09022E-005	0.00000E+000	7.37812E-005	5.39641E-002	8.11783E-001	3.57360E+000	9	...........
	77	1.04	8.14948E-001	9.10231E-005	0.00000E+000	7.41790E-005	5.39641E-002	8.15087E-001	3.57360E+000	9	...........
	78	1.05333	8.18229E-001	9.08459E-005	0.00000E+000	7.43328E-005	5.39641E-002	8.18391E-001	3.57360E+000	9	...........
	79	1.06667	8.21489E-001	9.08105E-005	0.00000E+000	7.45998E-005	5.39641E-002	8.21632E-001	3.57360E+000	9	...........
	80	1.08	8.24691E-001	9.11377E-005	0.00000E+000	7.51604E-005	5.39641E-002	8.24840E-001	3.57360E+000	9	...........
	81	1.09333	8.27860E-001	9.07803E-005	0.00000E+000	7.51534E-005	5.39641E-002	8.27988E-001	3.57360E+000	9	...........
	82	1.10667	8.30982E-001	9.11752E-005	0.00000E+000	7.57650E-005	5.39641E-002	8.31142E-001	3.57360E+000	9	...........
	83	1.12	8.34076E-001	9.10283E-005	0.00000E+000	7.59245E-005	5.39641E-002	8.34242E-001	3.57334E+000	9	...........
	84	1.13333	8.37145E-001	9.11116E-005	0.00000E+000	7.62736E-005	5.39641E-002	8.37317E-001	3.57330E+000	9	...........
	85	1.14667	8.40202E-001	9.09449E-005	0.00000E+000	7.64121E-005	5.39641E-002	8.40348E-001	3.57330E+000	9	...........
	86	1.16	8.43229E-001	9.11387E-005	0.00000E+000	7.68508E-005	5.39641E-002	8.43398E-001	3.57330E+000	9	...........
	87	1.17333	8.46255E-001	9.10137E-005	0.00000E+000	7.70208E-005	5.39641E-002	8.46386E-001	3.57330E+000	9	...........
	88	1.18667	8.49197E-001	9.09230E-005	0.00000E+000	7.72115E-005	5.39641E-002	8.49344E-001	3.57330E+000	9	...........
	89	1.2	8.52133E-001	9.11543E-005	0.00000E+000	7.76756E-005	5.39641E-002	8.52271E-001	3.57330E+000	9	...........
	90	1.21333	8.54989E-001	9.10293E-005	0.00000E+000	7.78290E-005	5.39641E-002	8.55157E-001	3.57330E+000	9	...........
	91	1.22667	8.57841E-001	9.09470E-005	0.00000E+000	7.80181E-005	5.39641E-002	8.58038E-001	3.57330E+000	9	...........
	92	1.24	8.60698E-001	9.09189E-005	0.00000E+000	7.82537E-005	5.39641E-002	8.60863E-001	3.57330E+000	9	...........
	93	1.25333	8.63472E-001	9.09022E-005	0.00000E+000	7.84915E-005	5.39641E-002	8.63663E-001	3.57330E+000	9	...........
	94	1.26667	8.66242E-001	9.09876E-005	0.00000E+000	7.88173E-005	5.39641E-002	8.66437E-001	3.57330E+000	9	...........
	95	1.28	8.68998E-001	9.10199E-005	0.00000E+000	7.90961E-005	5.39641E-002	8.69202E-001	3.57330E+000	9	...........
	96	1.29333	8.71745E-001	9.09032E-005	0.00000E+000	7.92444E-005	5.39641E-002	8.71922E-001	3.57330E+000	9	...........
	97	1.30667	8.74412E-001	9.10616E-005	0.00000E+000	7.96254E-005	5.39641E-002	8.74614E-001	3.57330E+000	9	...........
	98	1.32	8.77092E-001	9.10741E-005	0.00000E+000	7.98804E-005	5.39641E-002	8.77274E-001	3.57330E+000	9	...........
	99	1.33333	8.79728E-001	9.08730E-005	0.00000E+000	7.99435E-005	5.39641E-002	8.79931E-001	3.57330E+000	9	...........
	100	1.34667	8.82346E-001	9.09939E-005	0.00000E+000	8.02881E-005	5.39641E-002	8.82572E-001	3.57330E+000	9	...........
	101	1.36	8.84938E-001	9.07240E-005	0.00000E+000	8.02852E-005	5.39641E-002	8.85166E-001	3.57330E+000	9	...........
	102	1.37333	8.87491E-001	9.09741E-005	0.00000E+000	8.07387E-005	5.39641E-002	8.87702E-001	3.57330E+000	9	...........
	103	1.38667	8.90030E-001	9.11658E-005	0.00000E+000	8.11403E-005	5.39641E-002	8.90216E-001	3.57330E+000	9	...........
	104	1.4	8.92520E-001	9.10460E-005	0.00000E+000	8.12604E-005	5.39641E-002	8.92719E-001	3.57330E+000	9	...........
	105	1.41333	8.94998E-001	9.09314E-005	0.00000E+000	8.13834E-005	5.39641E-002	8.95230E-001	3.57330E+000	9	...........
	106	1.42667	8.97476E-001	9.11199E-005	0.00000E+000	8.17779E-005	5.39641E-002	8.97667E-001	3.57330E+000	9	...........
	107	1.44	8.99897E-001	9.09710E-005	0.00000E+000	8.18644E-005	5.39641E-002	9.00095E-001	3.57330E+000	9	...........
	108	1.45333	9.02297E-001	9.10439E-005	0.00000E+000	8.21487E-005	5.39641E-002	9.02485E-001	3.57330E+000	9	...........
	109	1.46667	9.04665E-001	9.10418E-005	0.00000E+000	8.23623E-005	5.39641E-002	9.04859E-001	3.57330E+000	9	...........
	110	1.48	9.07025E-001	9.11231E-005	0.00000E+000	8.26509E-005	5.39641E-002	9.07199E-001	3.57330E+000	9	...........
	111	1.49333	9.09358E-001	9.09241E-005	0.00000E+000	8.26825E-005	5.39641E-002	9.09535E-001	3.57330E+000	9	...........
	112	1.50667	9.11631E-001	9.10741E-005	0.00000E+000	8.30260E-005	5.39641E-002	9.11810E-001	3.57330E+000	9	...........
	113	1.52	9.13909E-001	9.12064E-005	0.00000E+000	8.33544E-005	5.39641E-002	9.14083E-001	3.57330E+000	9	...........
	114	1.53333	9.16144E-001	9.12544E-005	0.00000E+000	8.36021E-005	5.39641E-002	9.16359E-001	3.57330E+000	9	...........
	115	1.54667	9.18392E-001	9.09178E-005	0.00000E+000	8.34982E-005	5.39641E-002	9.18602E-001	3.57330E+000	9	...........
	116	1.56	9.20625E-001	9.11085E-005	0.00000E+000	8.38768E-005	5.39641E-002	9.20800E-001	3.57330E+000	9	...........
	117	1.57333	9.22840E-001	9.09272E-005	0.00000E+000	8.39113E-005	5.39641E-002	9.23009E-001	3.57330E+000	9	...........
	118	1.58667	9.25000E-001	9.08511E-005	0.00000E+000	8.40373E-005	5.39641E-002	9.25167E-001	3.57330E+000	9	...........
	119	1.6	9.27144E-001	9.07542E-005	0.00000E+000	8.41423E-005	5.39641E-002	9.27323E-001	3.57330E+000	9	...........
	120	1.61333	9.29274E-001	9.10751E-005	0.00000E+000	8.46337E-005	5.39641E-002	9.29453E-001	3.57330E+000	9	...........
	121	1.62667	9.31366E-001	9.08428E-005	0.00000E+000	8.46079E-005	5.39641E-002	9.31539E-001	3.57330E+000	9	...........
	122	1.64	9.33426E-001	9.05688E-005	0.00000E+000	8.45393E-005	5.39641E-002	9.33609E-001	3.57330E+000	9	...........
	123	1.65333	9.35482E-001	9.09564E-005	0.00000E+000	8.50881E-005	5.39641E-002	9.35679E-001	3.57330E+000	9	...........
	124	1.66667	9.37497E-001	9.08209E-005	0.00000E+000	8.51443E-005	5.39641E-002	9.37715E-001	3.57330E+000	9	...........
	125	1.68	9.39526E-001	9.10710E-005	0.00000E+000	8.55636E-005	5.39641E-002	9.39745E-001	3.57330E+000	9	...........
	126	1.69333	9.41517E-001	9.10595E-005	0.00000E+000	8.57341E-005	5.39641E-002	9.41699E-001	3.57330E+000	9	...........
	127	1.70667	9.43470E-001	9.11502E-005	0.00000E+000	8.59975E-005	5.39641E-002	9.43669E-001	3.57330E+000	9	...........
	128	1.72	9.45398E-001	9.10210E-005	0.00000E+000	8.60511E-005	5.39641E-002	9.45634E-001	3.57330E+000	9	...........
	129	1.73333	9.47370E-001	9.11668E-005	0.00000E+000	8.63687E-005	5.39641E-002	9.47574E-001	3.57330E+000	9	...........
	130	1.74667	9.49270E-001	9.09803E-005	0.00000E+000	8.63649E-005	5.39641E-002	9.49458E-001	3.57330E+000	9	...........
	131	1.76	9.51117E-001	9.10356E-005	0.00000E+000	8.65854E-005	5.39641E-002	9.51340E-001	3.57330E+000	9	...........
	132	1.77333	9.52966E-001	9.10720E-005	0.00000E+000	8.67886E-005	5.39641E-002	9.53196E-001	3.57330E+000	9	...........
	133	1.78667	9.54814E-001	9.09668E-005	0.00000E+000	8.68564E-005	5.39641E-002	9.55014E-001	3.57330E+000	9	...........
	134	1.8	9.56624E-001	9.11866E-005	0.00000E+000	8.72313E-005	5.39641E-002	9.56823E-001	3.57330E+000	9	...........
	135	1.81333	9.58414E-001	9.09928E-005	0.00000E+000	8.72088E-005	5.39641E-002	9.58631E-001	3.57330E+000	9	...........
	136	1.82667	9.60205E-001	9.09585E-005	0.00000E+000	8.73388E-005	5.39641E-002	9.60409E-001	3.57330E+000	9	...........
	137	1.84	9.61938E-001	9.10772E-005	0.00000E+000	8.76107E-005	5.39641E-002	9.62180E-001	3.57330E+000	9	...........
	138	1.85333	9.63705E-001	9.08532E-005	0.00000E+000	8.75557E-005	5.39641E-002	9.63924E-001	3.57330E+000	9	...........
	139	1.86667	9.65419E-001	9.09178E-005	0.00000E+000	8.77738E-005	5.39641E-002	9.65649E-001	3.57330E+000	9	...........
	140	1.88	9.67135E-001	9.09178E-005	0.00000E+000	8.79298E-005	5.39641E-002	9.67328E-001	3.57330E+000	9	...........
	141	1.89333	9.68806E-001	9.11366E-005	0.00000E+000	8.82937E-005	5.39641E-002	9.69024E-001	3.57330E+000	9	...........
	142	1.90667	9.70473E-001	9.08980E-005	0.00000E+000	8.82140E-005	5.39641E-002	9.70694E-001	3.57330E+000	9	...........
	143	1.92	9.72156E-001	9.09043E-005	0.00000E+000	8.83731E-005	5.39641E-002	9.72364E-001	3.57330E+000	9	...........
	144	1.93333	9.73823E-001	9.09387E-005	0.00000E+000	8.85581E-005	5.39641E-002	9.73989E-001	3.57330E+000	9	...........
	145	1.94667	9.75403E-001	9.11168E-005	0.00000E+000	8.88756E-005	5.39641E-002	9.75578E-001	3.57330E+000	9	...........
	146	1.96	9.76978E-001	9.08772E-005	0.00000E+000	8.87850E-005	5.39641E-002	9.77163E-001	3.57330E+000	9	...........
	147	1.97333	9.78571E-001	9.10147E-005	0.00000E+000	8.90643E-005	5.39641E-002	9.78743E-001	3.57330E+000	9	...........
	148	1.98667	9.80114E-001	9.09470E-005	0.00000E+000	8.91384E-005	5.39641E-002	9.80293E-001	3.57330E+000	9	...........
	149	2	9.81633E-001	9.09084E-005	0.00000E+000	8.92387E-005	5.39641E-002	9.81821E-001	3.57330E+000	9	...........
	150	2.01333	9.83167E-001	9.10137E-005	0.00000E+000	8.94817E-005	5.39641E-002	9.83355E-001	3.57330E+000	9	...........
	151	2.02667	9.84660E-001	9.09012E-005	0.00000E+000	8.95068E-005	5.39641E-002	9.84870E-001	3.57330E+000	9	...........
	152	2.04	9.86165E-001	9.08980E-005	0.00000E+000	8.96404E-005	5.39641E-002	9.86356E-001	3.57330E+000	9	...........
	153	2.05333	9.87644E-001	9.09699E-005	0.00000E+000	8.98459E-005	5.39641E-002	9.87864E-001	3.57330E+000	9	...........
	154	2.06667	9.89133E-001	9.10501E-005	0.00000E+000	9.00607E-005	5.39641E-002	9.89326E-001	3.57330E+000	9	...........
	155	2.08	9.90575E-001	9.09626E-005	0.00000E+000	9.01053E-005	5.39641E-002	9.90782E-001	3.57330E+000	9	...........
	156	2.09333	9.91976E-001	9.10741E-005	0.00000E+000	9.03433E-005	5.39641E-002	9.92212E-001	3.57330E+000	9	...........
	157	2.10667	9.93394E-001	9.08939E-005	0.00000E+000	9.02934E-005	5.39641E-002	9.93625E-001	3.57330E+000	9	...........
	158	2.12	9.94827E-001	9.11720E-005	0.00000E+000	9.07004E-005	5.39641E-002	9.95042E-001	3.57330E+000	9	...........
	159	2.13333	9.96208E-001	9.08887E-005	0.00000E+000	9.05440E-005	5.39641E-002	9.96435E-001	3.57330E+000	9	...........
	160	2.14667	9.97598E-001	9.10606E-005	0.00000E+000	9.08418E-005	5.39641E-002	9.97819E-001	3.57330E+000	9	...........
	161	2.16	9.98959E-001	9.11793E-005	0.00000E+000	9.10845E-005	5.39641E-002	9.99172E-001	3.57330E+000	9	...........
	162	2.165	9.99886E-001	9.09598E-005	0.00000E+000	9.09495E-005	5.39641E-002	1.00011E+000	3.57330E+000	9	...........
STARTTIMEOFFSET	QUANT	3484.035	Start Time Offset (s)
