EXPLAIN
TAG	PWR800_CHARGE
TITLE	LABEL	PWR Cyclic Charge Discharge (Cell) - Charge Step	Test &Identifier
DATE	LABEL	10-7-2017	Date
TIME	LABEL	15:18:44	Time
NOTES	NOTES	3	&Notes...
	supercap test cell
	0.9mg
	6M KOH
PSTAT	PSTAT	IFC5000-01520	Potentiostat
CAPACITY	QUANT	1.00000E-003	Capacity (A-hr)
CELLTYPE	SELECTOR	1	&Cell Type
WORKINGCONNECTION	SELECTOR	0	&Working Lead
MAXCHARGETIME	VARIABLEANDUNITS	1.00000E+002	s	1.00000E+002	second(s)	Max &Charge Time
CHARGECURRENT	QUANT	9.00000E-005	&Charge Current (A) 
VOLTAGEFINISH	TWOPARAM	F	1.00000E-003	3.60000E+003	&Voltage Finish	 I (A) < 	Max Time(s)
SAMPLETIME	QUANT	1.00000E-002	Sa&mple Period (s)
CHARGESTOPAT1	MULTIPARAM	4	1.00000E+000	Charge Stop At &1	Voltage > Limit	V
CHARGESTOPAT2	MULTIPARAM	0	0.00000E+000	Charge Stop At &2	None	N/A
AESBHCSELECTOR	TOGGLE	F	Save Both Half Cells
IRCOMP	TOGGLE	F	IR &Measure
EOC	QUANT	0	Open Circuit (V)
SEQUENCER	TOGGLE	TRUE	Run as Sequence
PSTATMODEL	IQUANT	53	Pstat Model
PSTATSECTION	LABEL	IFC5000-01520	Pstat Section
PSTATSERIALNO	LABEL	01520	Pstat Serial Number
CTRLMODE	IQUANT	0	Control Mode
ELECTROMETER	IQUANT	1	RE=0 or CS=1
IESTAB	IQUANT	0	I/E Stability
CASPEED	IQUANT	4	Control Amp Speed
CONVENTION	IQUANT	1	Current Convention
ICHRANGE	IQUANT	2	Ich Range
ICHRANGEMODE	TOGGLE	T	Ich Auto Range
ICHOFFSETENABLE	TOGGLE	F	Ich Offset Enable
ICHOFFSET	QUANT	0	Ich Offset (V)
ICHFILTER	IQUANT	1	Ich Filter
VCHRANGE	IQUANT	2	Vch Range
VCHRANGEMODE	TOGGLE	T	Vch Auto Range
VCHOFFSETENABLE	TOGGLE	F	Vch Offset Enable
VCHOFFSET	QUANT	0	Vch Offset (V)
VCHFILTER	IQUANT	1	Vch Filter
IERANGELOWERLIMIT	IQUANT	9	I/E Range Lower Limit
IERANGEMODE	TOGGLE	F	I/E AutoRange
IERANGE	IQUANT	9	I/E Range
ACHSELECT	IQUANT	1	Ach Select
ACHRANGE	IQUANT	2	Ach Range
ACHOFFSETENABLE	TOGGLE	F	Ach Offset Enable
ACHOFFSET	QUANT	0	Ach Offset (V)
ACHFILTER	IQUANT	1	Ach Filter
CABLEID	IQUANT	14	Cable ID
DCCALDATE	LABEL	5-7-2017	DC Calibration Date
ACCALDATE	LABEL	12/3/2015	AC Calibration Date
FRAMEWORKVERSION	QUANT	7.01	Framework Version
INSTRUMENTVERSION	LABEL	4.00	Instrument Version
CURVE	TABLE	179
	Pt	T	Vf	Im	Vu	Pwr	Sig	Ach	Temp	IERange	Over
	#	s	V	A	V	W	V	V	deg C	#	bits
	0	0.013333	2.86802E-001	9.09824E-005	0.00000E+000	2.60939E-005	5.39641E-002	2.86855E-001	3.57280E+000	9	...........
	1	0.026667	3.06137E-001	9.08907E-005	0.00000E+000	2.78250E-005	5.39641E-002	3.06177E-001	3.57280E+000	9	...........
	2	0.04	3.24009E-001	9.12096E-005	0.00000E+000	2.95528E-005	5.39641E-002	3.24049E-001	3.57280E+000	9	...........
	3	0.053333	3.40686E-001	9.10731E-005	0.00000E+000	3.10273E-005	5.39641E-002	3.40729E-001	3.57280E+000	9	...........
	4	0.066667	3.56344E-001	9.09491E-005	0.00000E+000	3.24092E-005	5.39641E-002	3.56383E-001	3.57280E+000	9	...........
	5	0.08	3.71124E-001	9.09376E-005	0.00000E+000	3.37492E-005	5.39641E-002	3.71164E-001	3.57280E+000	9	...........
	6	0.093333	3.85131E-001	9.10293E-005	0.00000E+000	3.50582E-005	5.39641E-002	3.85177E-001	3.57280E+000	9	...........
	7	0.106667	3.98445E-001	9.09616E-005	0.00000E+000	3.62432E-005	5.39641E-002	3.98483E-001	3.57280E+000	9	...........
	8	0.12	4.11134E-001	9.09730E-005	0.00000E+000	3.74021E-005	5.39641E-002	4.11178E-001	3.57280E+000	9	...........
	9	0.133333	4.23268E-001	9.09689E-005	0.00000E+000	3.85042E-005	5.39641E-002	4.23314E-001	3.57280E+000	9	...........
	10	0.146667	4.34899E-001	9.07553E-005	0.00000E+000	3.94694E-005	5.39641E-002	4.34948E-001	3.57280E+000	9	...........
	11	0.16	4.46077E-001	9.10679E-005	0.00000E+000	4.06233E-005	5.39641E-002	4.46128E-001	3.57280E+000	9	...........
	12	0.173333	4.56833E-001	9.10679E-005	0.00000E+000	4.16028E-005	5.39641E-002	4.56885E-001	3.57280E+000	9	...........
	13	0.186667	4.67201E-001	9.09178E-005	0.00000E+000	4.24769E-005	5.39641E-002	4.67251E-001	3.57280E+000	9	...........
	14	0.2	4.77197E-001	9.09689E-005	0.00000E+000	4.34101E-005	5.39641E-002	4.77253E-001	3.57280E+000	9	...........
	15	0.213333	4.86855E-001	9.10387E-005	0.00000E+000	4.43226E-005	5.39641E-002	4.86910E-001	3.57280E+000	9	...........
	16	0.226667	4.96201E-001	9.09658E-005	0.00000E+000	4.51373E-005	5.39641E-002	4.96262E-001	3.57280E+000	9	...........
	17	0.24	5.05256E-001	9.12429E-005	0.00000E+000	4.61010E-005	5.39641E-002	5.05319E-001	3.57280E+000	9	...........
	18	0.253333	5.14025E-001	9.06938E-005	0.00000E+000	4.66189E-005	5.39641E-002	5.14086E-001	3.57280E+000	9	...........
	19	0.266667	5.22530E-001	9.12387E-005	0.00000E+000	4.76750E-005	5.39641E-002	5.22593E-001	3.57280E+000	9	...........
	20	0.28	5.30774E-001	9.09835E-005	0.00000E+000	4.82917E-005	5.39641E-002	5.30844E-001	3.57280E+000	9	...........
	21	0.293333	5.38781E-001	9.10762E-005	0.00000E+000	4.90701E-005	5.39641E-002	5.38854E-001	3.57280E+000	9	...........
	22	0.306667	5.46583E-001	9.09480E-005	0.00000E+000	4.97107E-005	5.39641E-002	5.46700E-001	3.57280E+000	9	...........
	23	0.32	5.54211E-001	9.11783E-005	0.00000E+000	5.05320E-005	5.39641E-002	5.54311E-001	3.57280E+000	9	...........
	24	0.333333	5.61628E-001	9.10762E-005	0.00000E+000	5.11509E-005	5.39641E-002	5.61733E-001	3.57280E+000	9	...........
	25	0.346667	5.68907E-001	9.09272E-005	0.00000E+000	5.17291E-005	5.39641E-002	5.68996E-001	3.57280E+000	9	...........
	26	0.36	5.75974E-001	9.11731E-005	0.00000E+000	5.25134E-005	5.39641E-002	5.76032E-001	3.57280E+000	9	...........
	27	0.373333	5.82859E-001	9.08928E-005	0.00000E+000	5.29777E-005	5.39641E-002	5.82955E-001	3.57280E+000	9	...........
	28	0.386667	5.89623E-001	9.10752E-005	0.00000E+000	5.37000E-005	5.39641E-002	5.89732E-001	3.57280E+000	9	...........
	29	0.4	5.96213E-001	9.09876E-005	0.00000E+000	5.42480E-005	5.39641E-002	5.96327E-001	3.57280E+000	9	...........
	30	0.413333	6.02634E-001	9.10939E-005	0.00000E+000	5.48963E-005	5.39641E-002	6.02782E-001	3.57280E+000	9	...........
	31	0.426667	6.08923E-001	9.11179E-005	0.00000E+000	5.54837E-005	5.39641E-002	6.09041E-001	3.57280E+000	9	...........
	32	0.44	6.15101E-001	9.09783E-005	0.00000E+000	5.59608E-005	5.39641E-002	6.15218E-001	3.57280E+000	9	...........
	33	0.453333	6.21136E-001	9.13252E-005	0.00000E+000	5.67254E-005	5.39641E-002	6.21214E-001	3.57280E+000	9	...........
	34	0.466667	6.27011E-001	9.08532E-005	0.00000E+000	5.69659E-005	5.39641E-002	6.27107E-001	3.57280E+000	9	...........
	35	0.48	6.32764E-001	9.14513E-005	0.00000E+000	5.78671E-005	5.39641E-002	6.32868E-001	3.57280E+000	9	...........
	36	0.493333	6.38424E-001	9.12533E-005	0.00000E+000	5.82583E-005	5.39641E-002	6.38533E-001	3.57257E+000	9	...........
	37	0.506667	6.43992E-001	9.11137E-005	0.00000E+000	5.86765E-005	5.39641E-002	6.44082E-001	3.57250E+000	9	...........
	38	0.52	6.49421E-001	9.10741E-005	0.00000E+000	5.91455E-005	5.39641E-002	6.49512E-001	3.57250E+000	9	...........
	39	0.533333	6.54763E-001	9.10314E-005	0.00000E+000	5.96040E-005	5.39641E-002	6.54846E-001	3.57250E+000	9	...........
	40	0.546667	6.59987E-001	9.11252E-005	0.00000E+000	6.01414E-005	5.39641E-002	6.60054E-001	3.57250E+000	9	...........
	41	0.56	6.65112E-001	9.11460E-005	0.00000E+000	6.06223E-005	5.39641E-002	6.65237E-001	3.57250E+000	9	...........
	42	0.573333	6.70194E-001	9.09574E-005	0.00000E+000	6.09591E-005	5.39641E-002	6.70288E-001	3.57250E+000	9	...........
	43	0.586667	6.75161E-001	9.11272E-005	0.00000E+000	6.15256E-005	5.39641E-002	6.75263E-001	3.57250E+000	9	...........
	44	0.6	6.80036E-001	9.10053E-005	0.00000E+000	6.18870E-005	5.39641E-002	6.80160E-001	3.57250E+000	9	...........
	45	0.613333	6.84821E-001	9.11262E-005	0.00000E+000	6.24051E-005	5.39641E-002	6.84950E-001	3.57250E+000	9	...........
	46	0.626667	6.89539E-001	9.10960E-005	0.00000E+000	6.28142E-005	5.39641E-002	6.89667E-001	3.57250E+000	9	...........
	47	0.64	6.94203E-001	9.10345E-005	0.00000E+000	6.31964E-005	5.39641E-002	6.94299E-001	3.57250E+000	9	...........
	48	0.653333	6.98726E-001	9.10595E-005	0.00000E+000	6.36256E-005	5.39641E-002	6.98852E-001	3.57250E+000	9	...........
	49	0.666667	7.03245E-001	9.11137E-005	0.00000E+000	6.40753E-005	5.39641E-002	7.03333E-001	3.57250E+000	9	...........
	50	0.68	7.07669E-001	9.11814E-005	0.00000E+000	6.45263E-005	5.39641E-002	7.07761E-001	3.57250E+000	9	...........
	51	0.693333	7.12002E-001	9.13200E-005	0.00000E+000	6.50200E-005	5.39641E-002	7.12086E-001	3.57250E+000	9	...........
	52	0.706667	7.16274E-001	9.11512E-005	0.00000E+000	6.52892E-005	5.39641E-002	7.16386E-001	3.57250E+000	9	...........
	53	0.72	7.20525E-001	9.12241E-005	0.00000E+000	6.57293E-005	5.39641E-002	7.20596E-001	3.57250E+000	9	...........
	54	0.733333	7.24668E-001	9.11304E-005	0.00000E+000	6.60393E-005	5.39641E-002	7.24746E-001	3.57250E+000	9	...........
	55	0.746667	7.28723E-001	9.10178E-005	0.00000E+000	6.63268E-005	5.39641E-002	7.28838E-001	3.57250E+000	9	...........
	56	0.76	7.32738E-001	9.12752E-005	0.00000E+000	6.68808E-005	5.39641E-002	7.32863E-001	3.57250E+000	9	...........
	57	0.773333	7.36677E-001	9.11533E-005	0.00000E+000	6.71506E-005	5.39641E-002	7.36806E-001	3.57250E+000	9	...........
	58	0.786667	7.40579E-001	9.10397E-005	0.00000E+000	6.74221E-005	5.39641E-002	7.40728E-001	3.57250E+000	9	...........
	59	0.8	7.44472E-001	9.11877E-005	0.00000E+000	6.78866E-005	5.39641E-002	7.44588E-001	3.57250E+000	9	...........
	60	0.813333	7.48257E-001	9.09387E-005	0.00000E+000	6.80455E-005	5.39641E-002	7.48360E-001	3.57250E+000	9	...........
	61	0.826667	7.51988E-001	9.10741E-005	0.00000E+000	6.84866E-005	5.39641E-002	7.52127E-001	3.57250E+000	9	...........
	62	0.84	7.55726E-001	9.10626E-005	0.00000E+000	6.88184E-005	5.39641E-002	7.55830E-001	3.57250E+000	9	...........
	63	0.853333	7.59360E-001	9.10033E-005	0.00000E+000	6.91042E-005	5.39641E-002	7.59479E-001	3.57250E+000	9	...........
	64	0.866667	7.62953E-001	9.10626E-005	0.00000E+000	6.94766E-005	5.39641E-002	7.63075E-001	3.57250E+000	9	...........
	65	0.88	7.66517E-001	9.11210E-005	0.00000E+000	6.98458E-005	5.39641E-002	7.66669E-001	3.57250E+000	9	...........
	66	0.893333	7.70089E-001	9.09793E-005	0.00000E+000	7.00621E-005	5.39641E-002	7.70224E-001	3.57250E+000	9	...........
	67	0.906667	7.73575E-001	9.09814E-005	0.00000E+000	7.03809E-005	5.39641E-002	7.73695E-001	3.57250E+000	9	...........
	68	0.92	7.76985E-001	9.09887E-005	0.00000E+000	7.06968E-005	5.39641E-002	7.77131E-001	3.57250E+000	9	...........
	69	0.933333	7.80400E-001	9.10543E-005	0.00000E+000	7.10588E-005	5.39641E-002	7.80526E-001	3.57250E+000	9	...........
	70	0.946667	7.83742E-001	9.08949E-005	0.00000E+000	7.12382E-005	5.39641E-002	7.83835E-001	3.57250E+000	9	...........
	71	0.96	7.87046E-001	9.11512E-005	0.00000E+000	7.17402E-005	5.39641E-002	7.87150E-001	3.57250E+000	9	...........
	72	0.97333	7.90295E-001	9.08209E-005	0.00000E+000	7.17753E-005	5.39641E-002	7.90436E-001	3.57250E+000	9	...........
	73	0.98667	7.93556E-001	9.11241E-005	0.00000E+000	7.23121E-005	5.39641E-002	7.93710E-001	3.57250E+000	9	...........
	74	1	7.96751E-001	9.10887E-005	0.00000E+000	7.25750E-005	5.39641E-002	7.96886E-001	3.57250E+000	9	...........
	75	1.01333	7.99911E-001	9.11866E-005	0.00000E+000	7.29412E-005	5.39641E-002	8.00040E-001	3.57250E+000	9	...........
	76	1.02667	8.03031E-001	9.10679E-005	0.00000E+000	7.31303E-005	5.39641E-002	8.03162E-001	3.57250E+000	9	...........
	77	1.04	8.06126E-001	9.10178E-005	0.00000E+000	7.33718E-005	5.39641E-002	8.06262E-001	3.57250E+000	9	...........
	78	1.05333	8.09158E-001	9.12168E-005	0.00000E+000	7.38088E-005	5.39641E-002	8.09297E-001	3.57250E+000	9	...........
	79	1.06667	8.12167E-001	9.07886E-005	0.00000E+000	7.37355E-005	5.39641E-002	8.12315E-001	3.57250E+000	9	...........
	80	1.08	8.15140E-001	9.11991E-005	0.00000E+000	7.43401E-005	5.39641E-002	8.15310E-001	3.57250E+000	9	...........
	81	1.09333	8.18086E-001	9.08386E-005	0.00000E+000	7.43138E-005	5.39641E-002	8.18227E-001	3.57250E+000	9	...........
	82	1.10667	8.21011E-001	9.11450E-005	0.00000E+000	7.48310E-005	5.39641E-002	8.21135E-001	3.57250E+000	9	...........
	83	1.12	8.23852E-001	9.09105E-005	0.00000E+000	7.48968E-005	5.39641E-002	8.23988E-001	3.57250E+000	9	...........
	84	1.13333	8.26682E-001	9.09939E-005	0.00000E+000	7.52230E-005	5.39641E-002	8.26837E-001	3.57250E+000	9	...........
	85	1.14667	8.29471E-001	9.07834E-005	0.00000E+000	7.53022E-005	5.39641E-002	8.29655E-001	3.57250E+000	9	...........
	86	1.16	8.32260E-001	9.11272E-005	0.00000E+000	7.58416E-005	5.39641E-002	8.32446E-001	3.57250E+000	9	...........
	87	1.17333	8.34989E-001	9.11199E-005	0.00000E+000	7.60841E-005	5.39641E-002	8.35197E-001	3.57250E+000	9	...........
	88	1.18667	8.37722E-001	9.10626E-005	0.00000E+000	7.62852E-005	5.39641E-002	8.37915E-001	3.57250E+000	9	...........
	89	1.2	8.40391E-001	9.12439E-005	0.00000E+000	7.66806E-005	5.39641E-002	8.40583E-001	3.57250E+000	9	...........
	90	1.21333	8.43098E-001	9.09303E-005	0.00000E+000	7.66632E-005	5.39641E-002	8.43263E-001	3.57250E+000	9	...........
	91	1.22667	8.45768E-001	9.11231E-005	0.00000E+000	7.70690E-005	5.39641E-002	8.45935E-001	3.57250E+000	9	...........
	92	1.24	8.48406E-001	9.13304E-005	0.00000E+000	7.74853E-005	5.39641E-002	8.48598E-001	3.57250E+000	9	...........
	93	1.25333	8.50982E-001	9.11523E-005	0.00000E+000	7.75689E-005	5.39641E-002	8.51178E-001	3.57250E+000	9	...........
	94	1.26667	8.53567E-001	9.10251E-005	0.00000E+000	7.76960E-005	5.39641E-002	8.53729E-001	3.57250E+000	9	...........
	95	1.28	8.56069E-001	9.11908E-005	0.00000E+000	7.80656E-005	5.39641E-002	8.56273E-001	3.57250E+000	9	...........
	96	1.29333	8.58585E-001	9.06907E-005	0.00000E+000	7.78657E-005	5.39641E-002	8.58769E-001	3.57250E+000	9	...........
	97	1.30667	8.61128E-001	9.12106E-005	0.00000E+000	7.85440E-005	5.39641E-002	8.61266E-001	3.57250E+000	9	...........
	98	1.32	8.63531E-001	9.12210E-005	0.00000E+000	7.87721E-005	5.39641E-002	8.63726E-001	3.57250E+000	9	...........
	99	1.33333	8.65976E-001	9.10033E-005	0.00000E+000	7.88067E-005	5.39641E-002	8.66177E-001	3.57250E+000	9	...........
	100	1.34667	8.68407E-001	9.11220E-005	0.00000E+000	7.91310E-005	5.39641E-002	8.68597E-001	3.57250E+000	9	...........
	101	1.36	8.70807E-001	9.11877E-005	0.00000E+000	7.94069E-005	5.39641E-002	8.71007E-001	3.57250E+000	9	...........
	102	1.37333	8.73182E-001	9.10033E-005	0.00000E+000	7.94624E-005	5.39641E-002	8.73371E-001	3.57250E+000	9	...........
	103	1.38667	8.75508E-001	9.09262E-005	0.00000E+000	7.96065E-005	5.39641E-002	8.75711E-001	3.57250E+000	9	...........
	104	1.4	8.77821E-001	9.09970E-005	0.00000E+000	7.98791E-005	5.39641E-002	8.78003E-001	3.57250E+000	9	...........
	105	1.41333	8.80112E-001	9.12043E-005	0.00000E+000	8.02700E-005	5.39641E-002	8.80318E-001	3.57250E+000	9	...........
	106	1.42667	8.82416E-001	9.09689E-005	0.00000E+000	8.02724E-005	5.39641E-002	8.82594E-001	3.57250E+000	9	...........
	107	1.44	8.84695E-001	9.11741E-005	0.00000E+000	8.06613E-005	5.39641E-002	8.84854E-001	3.57250E+000	9	...........
	108	1.45333	8.86885E-001	9.10137E-005	0.00000E+000	8.07187E-005	5.39641E-002	8.87080E-001	3.57250E+000	9	...........
	109	1.46667	8.89118E-001	9.12398E-005	0.00000E+000	8.11229E-005	5.39641E-002	8.89288E-001	3.57250E+000	9	...........
	110	1.48	8.91302E-001	9.09366E-005	0.00000E+000	8.10520E-005	5.39641E-002	8.91488E-001	3.57250E+000	9	...........
	111	1.49333	8.93462E-001	9.11585E-005	0.00000E+000	8.14466E-005	5.39641E-002	8.93655E-001	3.57211E+000	9	...........
	112	1.50667	8.95626E-001	9.08418E-005	0.00000E+000	8.13603E-005	5.39641E-002	8.95865E-001	3.57200E+000	9	...........
	113	1.52	8.97771E-001	9.10793E-005	0.00000E+000	8.17683E-005	5.39641E-002	8.97967E-001	3.57200E+000	9	...........
	114	1.53333	8.99842E-001	9.12304E-005	0.00000E+000	8.20929E-005	5.39641E-002	9.00047E-001	3.57200E+000	9	...........
	115	1.54667	9.01957E-001	9.11481E-005	0.00000E+000	8.22117E-005	5.39641E-002	9.02137E-001	3.57200E+000	9	...........
	116	1.56	9.03996E-001	9.11272E-005	0.00000E+000	8.23786E-005	5.39641E-002	9.04200E-001	3.57200E+000	9	...........
	117	1.57333	9.06036E-001	9.08407E-005	0.00000E+000	8.23050E-005	5.39641E-002	9.06242E-001	3.57200E+000	9	...........
	118	1.58667	9.08080E-001	9.08928E-005	0.00000E+000	8.25379E-005	5.39641E-002	9.08285E-001	3.57200E+000	9	...........
	119	1.6	9.10098E-001	9.09970E-005	0.00000E+000	8.28162E-005	5.39641E-002	9.10279E-001	3.57200E+000	9	...........
	120	1.61333	9.12084E-001	9.09564E-005	0.00000E+000	8.29598E-005	5.39641E-002	9.12242E-001	3.57200E+000	9	...........
	121	1.62667	9.14022E-001	9.11741E-005	0.00000E+000	8.33351E-005	5.39641E-002	9.14229E-001	3.57200E+000	9	...........
	122	1.64	9.15985E-001	9.12429E-005	0.00000E+000	8.35771E-005	5.39641E-002	9.16190E-001	3.57200E+000	9	...........
	123	1.65333	9.17928E-001	9.10772E-005	0.00000E+000	8.36024E-005	5.39641E-002	9.18124E-001	3.57200E+000	9	...........
	124	1.66667	9.19889E-001	9.09772E-005	0.00000E+000	8.36889E-005	5.39641E-002	9.20067E-001	3.57200E+000	9	...........
	125	1.68	9.21868E-001	9.09835E-005	0.00000E+000	8.38748E-005	5.39641E-002	9.21998E-001	3.57200E+000	9	...........
	126	1.69333	9.23725E-001	9.08782E-005	0.00000E+000	8.39465E-005	5.39641E-002	9.23887E-001	3.57200E+000	9	...........
	127	1.70667	9.25582E-001	9.10512E-005	0.00000E+000	8.42754E-005	5.39641E-002	9.25734E-001	3.57200E+000	9	...........
	128	1.72	9.27394E-001	9.12616E-005	0.00000E+000	8.46355E-005	5.39641E-002	9.27555E-001	3.57200E+000	9	...........
	129	1.73333	9.29199E-001	9.11575E-005	0.00000E+000	8.47034E-005	5.39641E-002	9.29357E-001	3.57200E+000	9	...........
	130	1.74667	9.30967E-001	9.09418E-005	0.00000E+000	8.46638E-005	5.39641E-002	9.31144E-001	3.57200E+000	9	...........
	131	1.76	9.32735E-001	9.10949E-005	0.00000E+000	8.49674E-005	5.39641E-002	9.32891E-001	3.57200E+000	9	...........
	132	1.77333	9.34507E-001	9.10699E-005	0.00000E+000	8.51055E-005	5.39641E-002	9.34672E-001	3.57200E+000	9	...........
	133	1.78667	9.36235E-001	9.10449E-005	0.00000E+000	8.52395E-005	5.39641E-002	9.36410E-001	3.57200E+000	9	...........
	134	1.8	9.37952E-001	9.12210E-005	0.00000E+000	8.55609E-005	5.39641E-002	9.38133E-001	3.57200E+000	9	...........
	135	1.81333	9.39665E-001	9.12210E-005	0.00000E+000	8.57172E-005	5.39641E-002	9.39835E-001	3.57200E+000	9	...........
	136	1.82667	9.41369E-001	9.10428E-005	0.00000E+000	8.57049E-005	5.39641E-002	9.41510E-001	3.57200E+000	9	...........
	137	1.84	9.43042E-001	9.10293E-005	0.00000E+000	8.58445E-005	5.39641E-002	9.43191E-001	3.57200E+000	9	...........
	138	1.85333	9.44701E-001	9.12929E-005	0.00000E+000	8.62445E-005	5.39641E-002	9.44834E-001	3.57200E+000	9	...........
	139	1.86667	9.46356E-001	9.11762E-005	0.00000E+000	8.62852E-005	5.39641E-002	9.46504E-001	3.57200E+000	9	...........
	140	1.88	9.48028E-001	9.08355E-005	0.00000E+000	8.61146E-005	5.39641E-002	9.48153E-001	3.57200E+000	9	...........
	141	1.89333	9.49635E-001	9.10481E-005	0.00000E+000	8.64624E-005	5.39641E-002	9.49766E-001	3.57200E+000	9	...........
	142	1.90667	9.51212E-001	9.11314E-005	0.00000E+000	8.66853E-005	5.39641E-002	9.51364E-001	3.57200E+000	9	...........
	143	1.92	9.52802E-001	9.10762E-005	0.00000E+000	8.67776E-005	5.39641E-002	9.52958E-001	3.57200E+000	9	...........
	144	1.93333	9.54372E-001	9.09314E-005	0.00000E+000	8.67823E-005	5.39641E-002	9.54490E-001	3.57200E+000	9	...........
	145	1.94667	9.55900E-001	9.10053E-005	0.00000E+000	8.69920E-005	5.39641E-002	9.56064E-001	3.57200E+000	9	...........
	146	1.96	9.57444E-001	9.10335E-005	0.00000E+000	8.71595E-005	5.39641E-002	9.57595E-001	3.57200E+000	9	...........
	147	1.97333	9.58938E-001	9.10991E-005	0.00000E+000	8.73584E-005	5.39641E-002	9.59120E-001	3.57200E+000	9	...........
	148	1.98667	9.60464E-001	9.11689E-005	0.00000E+000	8.75645E-005	5.39641E-002	9.60655E-001	3.57200E+000	9	...........
	149	2	9.61948E-001	9.11387E-005	0.00000E+000	8.76707E-005	5.39641E-002	9.62160E-001	3.57200E+000	9	...........
	150	2.01333	9.63465E-001	9.11752E-005	0.00000E+000	8.78441E-005	5.39641E-002	9.63665E-001	3.57200E+000	9	...........
	151	2.02667	9.64918E-001	9.10418E-005	0.00000E+000	8.78479E-005	5.39641E-002	9.65114E-001	3.57200E+000	9	...........
	152	2.04	9.66382E-001	9.09730E-005	0.00000E+000	8.79147E-005	5.39641E-002	9.66556E-001	3.57200E+000	9	...........
	153	2.05333	9.67828E-001	9.14033E-005	0.00000E+000	8.84627E-005	5.39641E-002	9.68018E-001	3.57200E+000	9	...........
	154	2.06667	9.69260E-001	9.10533E-005	0.00000E+000	8.82543E-005	5.39641E-002	9.69441E-001	3.57200E+000	9	...........
	155	2.08	9.70668E-001	9.11970E-005	0.00000E+000	8.85220E-005	5.39641E-002	9.70870E-001	3.57200E+000	9	...........
	156	2.09333	9.72064E-001	9.09376E-005	0.00000E+000	8.83972E-005	5.39641E-002	9.72244E-001	3.57200E+000	9	...........
	157	2.10667	9.73484E-001	9.10751E-005	0.00000E+000	8.86602E-005	5.39641E-002	9.73628E-001	3.57200E+000	9	...........
	158	2.12	9.74853E-001	9.10595E-005	0.00000E+000	8.87696E-005	5.39641E-002	9.75005E-001	3.57200E+000	9	...........
	159	2.13333	9.76201E-001	9.11272E-005	0.00000E+000	8.89585E-005	5.39641E-002	9.76364E-001	3.57200E+000	9	...........
	160	2.14667	9.77541E-001	9.10397E-005	0.00000E+000	8.89951E-005	5.39641E-002	9.77714E-001	3.57200E+000	9	...........
	161	2.16	9.78881E-001	9.11773E-005	0.00000E+000	8.92517E-005	5.39641E-002	9.79039E-001	3.57200E+000	9	...........
	162	2.17333	9.80217E-001	9.09605E-005	0.00000E+000	8.91611E-005	5.39641E-002	9.80366E-001	3.57200E+000	9	...........
	163	2.18667	9.81517E-001	9.10251E-005	0.00000E+000	8.93427E-005	5.39641E-002	9.81679E-001	3.57200E+000	9	...........
	164	2.2	9.82796E-001	9.09908E-005	0.00000E+000	8.94253E-005	5.39641E-002	9.82986E-001	3.57200E+000	9	...........
	165	2.21333	9.84069E-001	9.11877E-005	0.00000E+000	8.97349E-005	5.39641E-002	9.84257E-001	3.57200E+000	9	...........
	166	2.22667	9.85368E-001	9.11179E-005	0.00000E+000	8.97846E-005	5.39641E-002	9.85537E-001	3.57200E+000	9	...........
	167	2.24	9.86646E-001	9.11502E-005	0.00000E+000	8.99329E-005	5.39641E-002	9.86826E-001	3.57200E+000	9	...........
	168	2.25333	9.87915E-001	9.10178E-005	0.00000E+000	8.99179E-005	5.39641E-002	9.88114E-001	3.57200E+000	9	...........
	169	2.26667	9.89153E-001	9.09522E-005	0.00000E+000	8.99657E-005	5.39641E-002	9.89316E-001	3.57200E+000	9	...........
	170	2.28	9.90389E-001	9.11960E-005	0.00000E+000	9.03195E-005	5.39641E-002	9.90559E-001	3.57200E+000	9	...........
	171	2.29333	9.91597E-001	9.11085E-005	0.00000E+000	9.03429E-005	5.39641E-002	9.91780E-001	3.57200E+000	9	...........
	172	2.30667	9.92777E-001	9.07261E-005	0.00000E+000	9.00708E-005	5.39641E-002	9.92974E-001	3.57200E+000	9	...........
	173	2.32	9.93966E-001	9.12450E-005	0.00000E+000	9.06944E-005	5.39641E-002	9.94181E-001	3.57200E+000	9	...........
	174	2.33333	9.95162E-001	9.10251E-005	0.00000E+000	9.05847E-005	5.39641E-002	9.95350E-001	3.57200E+000	9	...........
	175	2.34667	9.96302E-001	9.09470E-005	0.00000E+000	9.06107E-005	5.39641E-002	9.96492E-001	3.57200E+000	9	...........
	176	2.36	9.97474E-001	9.08876E-005	0.00000E+000	9.06580E-005	5.39641E-002	9.97700E-001	3.57200E+000	9	...........
	177	2.37333	9.98644E-001	9.11533E-005	0.00000E+000	9.10297E-005	5.39641E-002	9.98826E-001	3.57200E+000	9	...........
	178	2.38333	9.99649E-001	9.09960E-005	0.00000E+000	9.09640E-005	5.39641E-002	9.99834E-001	3.57200E+000	9	...........
STARTTIMEOFFSET	QUANT	989.57	Start Time Offset (s)
