EXPLAIN
TAG	PWR800_CHARGE
TITLE	LABEL	PWR Cyclic Charge Discharge (Cell) - Charge Step	Test &Identifier
DATE	LABEL	10-7-2017	Date
TIME	LABEL	15:11:21	Time
NOTES	NOTES	3	&Notes...
	supercap test cell
	0.9mg
	6M KOH
PSTAT	PSTAT	IFC5000-01520	Potentiostat
CAPACITY	QUANT	1.00000E-003	Capacity (A-hr)
CELLTYPE	SELECTOR	1	&Cell Type
WORKINGCONNECTION	SELECTOR	0	&Working Lead
MAXCHARGETIME	VARIABLEANDUNITS	1.00000E+002	s	1.00000E+002	second(s)	Max &Charge Time
CHARGECURRENT	QUANT	9.00000E-005	&Charge Current (A) 
VOLTAGEFINISH	TWOPARAM	F	1.00000E-003	3.60000E+003	&Voltage Finish	 I (A) < 	Max Time(s)
SAMPLETIME	QUANT	1.00000E-002	Sa&mple Period (s)
CHARGESTOPAT1	MULTIPARAM	4	1.00000E+000	Charge Stop At &1	Voltage > Limit	V
CHARGESTOPAT2	MULTIPARAM	0	0.00000E+000	Charge Stop At &2	None	N/A
AESBHCSELECTOR	TOGGLE	F	Save Both Half Cells
IRCOMP	TOGGLE	F	IR &Measure
EOC	QUANT	0	Open Circuit (V)
SEQUENCER	TOGGLE	TRUE	Run as Sequence
PSTATMODEL	IQUANT	53	Pstat Model
PSTATSECTION	LABEL	IFC5000-01520	Pstat Section
PSTATSERIALNO	LABEL	01520	Pstat Serial Number
CTRLMODE	IQUANT	0	Control Mode
ELECTROMETER	IQUANT	1	RE=0 or CS=1
IESTAB	IQUANT	0	I/E Stability
CASPEED	IQUANT	4	Control Amp Speed
CONVENTION	IQUANT	1	Current Convention
ICHRANGE	IQUANT	2	Ich Range
ICHRANGEMODE	TOGGLE	T	Ich Auto Range
ICHOFFSETENABLE	TOGGLE	F	Ich Offset Enable
ICHOFFSET	QUANT	0	Ich Offset (V)
ICHFILTER	IQUANT	1	Ich Filter
VCHRANGE	IQUANT	2	Vch Range
VCHRANGEMODE	TOGGLE	T	Vch Auto Range
VCHOFFSETENABLE	TOGGLE	F	Vch Offset Enable
VCHOFFSET	QUANT	0	Vch Offset (V)
VCHFILTER	IQUANT	1	Vch Filter
IERANGELOWERLIMIT	IQUANT	9	I/E Range Lower Limit
IERANGEMODE	TOGGLE	F	I/E AutoRange
IERANGE	IQUANT	9	I/E Range
ACHSELECT	IQUANT	1	Ach Select
ACHRANGE	IQUANT	2	Ach Range
ACHOFFSETENABLE	TOGGLE	F	Ach Offset Enable
ACHOFFSET	QUANT	0	Ach Offset (V)
ACHFILTER	IQUANT	1	Ach Filter
CABLEID	IQUANT	14	Cable ID
DCCALDATE	LABEL	5-7-2017	DC Calibration Date
ACCALDATE	LABEL	12/3/2015	AC Calibration Date
FRAMEWORKVERSION	QUANT	7.01	Framework Version
INSTRUMENTVERSION	LABEL	4.00	Instrument Version
CURVE	TABLE	184
	Pt	T	Vf	Im	Vu	Pwr	Sig	Ach	Temp	IERange	Over
	#	s	V	A	V	W	V	V	deg C	#	bits
	0	0.013333	2.90345E-001	9.11335E-005	0.00000E+000	2.64601E-005	5.39641E-002	2.90386E-001	3.57200E+000	9	...........
	1	0.026667	3.09469E-001	9.12377E-005	0.00000E+000	2.82353E-005	5.39641E-002	3.09506E-001	3.57200E+000	9	...........
	2	0.04	3.27105E-001	9.10053E-005	0.00000E+000	2.97683E-005	5.39641E-002	3.27138E-001	3.57200E+000	9	...........
	3	0.053333	3.43536E-001	9.10960E-005	0.00000E+000	3.12948E-005	5.39641E-002	3.43569E-001	3.57200E+000	9	...........
	4	0.066667	3.58959E-001	9.10658E-005	0.00000E+000	3.26888E-005	5.39641E-002	3.58996E-001	3.57200E+000	9	...........
	5	0.08	3.73517E-001	9.09908E-005	0.00000E+000	3.39866E-005	5.39641E-002	3.73554E-001	3.57200E+000	9	...........
	6	0.093333	3.87308E-001	9.09824E-005	0.00000E+000	3.52382E-005	5.39641E-002	3.87350E-001	3.57200E+000	9	...........
	7	0.106667	4.00423E-001	9.13440E-005	0.00000E+000	3.65763E-005	5.39641E-002	4.00473E-001	3.57200E+000	9	...........
	8	0.12	4.12937E-001	9.09585E-005	0.00000E+000	3.75601E-005	5.39641E-002	4.12979E-001	3.57200E+000	9	...........
	9	0.133333	4.24902E-001	9.10856E-005	0.00000E+000	3.87025E-005	5.39641E-002	4.24952E-001	3.57200E+000	9	...........
	10	0.146667	4.36373E-001	9.10960E-005	0.00000E+000	3.97518E-005	5.39641E-002	4.36426E-001	3.57200E+000	9	...........
	11	0.16	4.47392E-001	9.11095E-005	0.00000E+000	4.07617E-005	5.39641E-002	4.47451E-001	3.57200E+000	9	...........
	12	0.173333	4.57995E-001	9.11637E-005	0.00000E+000	4.17526E-005	5.39641E-002	4.58048E-001	3.57200E+000	9	...........
	13	0.186667	4.68226E-001	9.10887E-005	0.00000E+000	4.26501E-005	5.39641E-002	4.68278E-001	3.57200E+000	9	...........
	14	0.2	4.78105E-001	9.10543E-005	0.00000E+000	4.35336E-005	5.39641E-002	4.78155E-001	3.57200E+000	9	...........
	15	0.213333	4.87652E-001	9.12033E-005	0.00000E+000	4.44755E-005	5.39641E-002	4.87701E-001	3.57200E+000	9	...........
	16	0.226667	4.96884E-001	9.12116E-005	0.00000E+000	4.53216E-005	5.39641E-002	4.96943E-001	3.57200E+000	9	...........
	17	0.24	5.05828E-001	9.14304E-005	0.00000E+000	4.62481E-005	5.39641E-002	5.05884E-001	3.57200E+000	9	...........
	18	0.253333	5.14503E-001	9.08793E-005	0.00000E+000	4.67577E-005	5.39641E-002	5.14558E-001	3.57200E+000	9	...........
	19	0.266667	5.22931E-001	9.11908E-005	0.00000E+000	4.76865E-005	5.39641E-002	5.22986E-001	3.57200E+000	9	...........
	20	0.28	5.31111E-001	9.09262E-005	0.00000E+000	4.82919E-005	5.39641E-002	5.31162E-001	3.57200E+000	9	...........
	21	0.293333	5.39043E-001	9.11491E-005	0.00000E+000	4.91333E-005	5.39641E-002	5.39115E-001	3.57200E+000	9	...........
	22	0.306667	5.46797E-001	9.11637E-005	0.00000E+000	4.98481E-005	5.39641E-002	5.46876E-001	3.57200E+000	9	...........
	23	0.32	5.54359E-001	9.11210E-005	0.00000E+000	5.05137E-005	5.39641E-002	5.54432E-001	3.57200E+000	9	...........
	24	0.333333	5.61743E-001	9.11158E-005	0.00000E+000	5.11836E-005	5.39641E-002	5.61825E-001	3.57200E+000	9	...........
	25	0.346667	5.68947E-001	9.09105E-005	0.00000E+000	5.17233E-005	5.39641E-002	5.69016E-001	3.57200E+000	9	...........
	26	0.36	5.75937E-001	9.11387E-005	0.00000E+000	5.24901E-005	5.39641E-002	5.76031E-001	3.57200E+000	9	...........
	27	0.373333	5.82764E-001	9.10720E-005	0.00000E+000	5.30735E-005	5.39641E-002	5.82858E-001	3.57200E+000	9	...........
	28	0.386667	5.89446E-001	9.12116E-005	0.00000E+000	5.37643E-005	5.39641E-002	5.89590E-001	3.57200E+000	9	...........
	29	0.4	5.96015E-001	9.08584E-005	0.00000E+000	5.41530E-005	5.39641E-002	5.96087E-001	3.57200E+000	9	...........
	30	0.413333	6.02388E-001	9.10981E-005	0.00000E+000	5.48764E-005	5.39641E-002	6.02452E-001	3.57200E+000	9	...........
	31	0.426667	6.08619E-001	9.12856E-005	0.00000E+000	5.55581E-005	5.39641E-002	6.08696E-001	3.57200E+000	9	...........
	32	0.44	6.14781E-001	9.11679E-005	0.00000E+000	5.60483E-005	5.39641E-002	6.14853E-001	3.57200E+000	9	...........
	33	0.453333	6.20783E-001	9.11127E-005	0.00000E+000	5.65612E-005	5.39641E-002	6.20829E-001	3.57200E+000	9	...........
	34	0.466667	6.26603E-001	9.09574E-005	0.00000E+000	5.69942E-005	5.39641E-002	6.26673E-001	3.57200E+000	9	...........
	35	0.48	6.32315E-001	9.12387E-005	0.00000E+000	5.76916E-005	5.39641E-002	6.32386E-001	3.57200E+000	9	...........
	36	0.493333	6.37936E-001	9.08407E-005	0.00000E+000	5.79506E-005	5.39641E-002	6.38024E-001	3.57200E+000	9	...........
	37	0.506667	6.43458E-001	9.10522E-005	0.00000E+000	5.85883E-005	5.39641E-002	6.43548E-001	3.57200E+000	9	...........
	38	0.52	6.48876E-001	9.12033E-005	0.00000E+000	5.91797E-005	5.39641E-002	6.48967E-001	3.57200E+000	9	...........
	39	0.533333	6.54174E-001	9.09595E-005	0.00000E+000	5.95034E-005	5.39641E-002	6.54264E-001	3.57200E+000	9	...........
	40	0.546667	6.59350E-001	9.10512E-005	0.00000E+000	6.00346E-005	5.39641E-002	6.59447E-001	3.57200E+000	9	...........
	41	0.56	6.64448E-001	9.11366E-005	0.00000E+000	6.05556E-005	5.39641E-002	6.64532E-001	3.57200E+000	9	...........
	42	0.573333	6.69494E-001	9.09230E-005	0.00000E+000	6.08724E-005	5.39641E-002	6.69545E-001	3.57245E+000	9	...........
	43	0.586667	6.74432E-001	9.12293E-005	0.00000E+000	6.15280E-005	5.39641E-002	6.74490E-001	3.57250E+000	9	...........
	44	0.6	6.79247E-001	9.11543E-005	0.00000E+000	6.19164E-005	5.39641E-002	6.79344E-001	3.57250E+000	9	...........
	45	0.613333	6.84016E-001	9.12721E-005	0.00000E+000	6.24315E-005	5.39641E-002	6.84107E-001	3.57250E+000	9	...........
	46	0.626667	6.88656E-001	9.09105E-005	0.00000E+000	6.26061E-005	5.39641E-002	6.88784E-001	3.57250E+000	9	...........
	47	0.64	6.93266E-001	9.10991E-005	0.00000E+000	6.31560E-005	5.39641E-002	6.93385E-001	3.57250E+000	9	...........
	48	0.653333	6.97806E-001	9.13679E-005	0.00000E+000	6.37570E-005	5.39641E-002	6.97918E-001	3.57250E+000	9	...........
	49	0.666667	7.02270E-001	9.11085E-005	0.00000E+000	6.39827E-005	5.39641E-002	7.02357E-001	3.57250E+000	9	...........
	50	0.68	7.06635E-001	9.11168E-005	0.00000E+000	6.43863E-005	5.39641E-002	7.06720E-001	3.57250E+000	9	...........
	51	0.693333	7.10940E-001	9.10262E-005	0.00000E+000	6.47142E-005	5.39641E-002	7.11019E-001	3.57250E+000	9	...........
	52	0.706667	7.15161E-001	9.09741E-005	0.00000E+000	6.50611E-005	5.39641E-002	7.15268E-001	3.57250E+000	9	...........
	53	0.72	7.19387E-001	9.11179E-005	0.00000E+000	6.55490E-005	5.39641E-002	7.19454E-001	3.57250E+000	9	...........
	54	0.733333	7.23500E-001	9.11231E-005	0.00000E+000	6.59276E-005	5.39641E-002	7.23555E-001	3.57250E+000	9	...........
	55	0.746667	7.27519E-001	9.09324E-005	0.00000E+000	6.61551E-005	5.39641E-002	7.27594E-001	3.57250E+000	9	...........
	56	0.76	7.31467E-001	9.11054E-005	0.00000E+000	6.66405E-005	5.39641E-002	7.31585E-001	3.57250E+000	9	...........
	57	0.773333	7.35423E-001	9.10376E-005	0.00000E+000	6.69512E-005	5.39641E-002	7.35501E-001	3.57250E+000	9	...........
	58	0.786667	7.39265E-001	9.10845E-005	0.00000E+000	6.73356E-005	5.39641E-002	7.39364E-001	3.57250E+000	9	...........
	59	0.8	7.43141E-001	9.10772E-005	0.00000E+000	6.76832E-005	5.39641E-002	7.43231E-001	3.57250E+000	9	...........
	60	0.813333	7.46895E-001	9.12168E-005	0.00000E+000	6.81294E-005	5.39641E-002	7.46971E-001	3.57250E+000	9	...........
	61	0.826667	7.50569E-001	9.10033E-005	0.00000E+000	6.83042E-005	5.39641E-002	7.50655E-001	3.57250E+000	9	...........
	62	0.84	7.54198E-001	9.09835E-005	0.00000E+000	6.86195E-005	5.39641E-002	7.54309E-001	3.57250E+000	9	...........
	63	0.853333	7.57813E-001	9.10783E-005	0.00000E+000	6.90203E-005	5.39641E-002	7.57909E-001	3.57250E+000	9	...........
	64	0.866667	7.61367E-001	9.10303E-005	0.00000E+000	6.93075E-005	5.39641E-002	7.61465E-001	3.57250E+000	9	...........
	65	0.88	7.64855E-001	9.12335E-005	0.00000E+000	6.97804E-005	5.39641E-002	7.64977E-001	3.57250E+000	9	...........
	66	0.893333	7.68304E-001	9.11731E-005	0.00000E+000	7.00487E-005	5.39641E-002	7.68459E-001	3.57250E+000	9	...........
	67	0.906667	7.71737E-001	9.12221E-005	0.00000E+000	7.03994E-005	5.39641E-002	7.71849E-001	3.57250E+000	9	...........
	68	0.92	7.75122E-001	9.10241E-005	0.00000E+000	7.05548E-005	5.39641E-002	7.75256E-001	3.57250E+000	9	...........
	69	0.933333	7.78475E-001	9.12262E-005	0.00000E+000	7.10174E-005	5.39641E-002	7.78597E-001	3.57250E+000	9	...........
	70	0.946667	7.81768E-001	9.09199E-005	0.00000E+000	7.10783E-005	5.39641E-002	7.81890E-001	3.57250E+000	9	...........
	71	0.96	7.85030E-001	9.09241E-005	0.00000E+000	7.13782E-005	5.39641E-002	7.85139E-001	3.57250E+000	9	...........
	72	0.97333	7.88234E-001	9.12200E-005	0.00000E+000	7.19027E-005	5.39641E-002	7.88366E-001	3.57250E+000	9	...........
	73	0.98667	7.91400E-001	9.09981E-005	0.00000E+000	7.20159E-005	5.39641E-002	7.91556E-001	3.57250E+000	9	...........
	74	1	7.94593E-001	9.10762E-005	0.00000E+000	7.23685E-005	5.39641E-002	7.94692E-001	3.57250E+000	9	...........
	75	1.01333	7.97671E-001	9.10064E-005	0.00000E+000	7.25932E-005	5.39641E-002	7.97783E-001	3.57250E+000	9	...........
	76	1.02667	8.00752E-001	9.10543E-005	0.00000E+000	7.29119E-005	5.39641E-002	8.00862E-001	3.57250E+000	9	...........
	77	1.04	8.03772E-001	9.11106E-005	0.00000E+000	7.32322E-005	5.39641E-002	8.03893E-001	3.57250E+000	9	...........
	78	1.05333	8.06750E-001	9.10481E-005	0.00000E+000	7.34530E-005	5.39641E-002	8.06896E-001	3.57250E+000	9	...........
	79	1.06667	8.09717E-001	9.11147E-005	0.00000E+000	7.37771E-005	5.39641E-002	8.09825E-001	3.57250E+000	9	...........
	80	1.08	8.12646E-001	9.10929E-005	0.00000E+000	7.40262E-005	5.39641E-002	8.12771E-001	3.57250E+000	9	...........
	81	1.09333	8.15539E-001	9.13169E-005	0.00000E+000	7.44725E-005	5.39641E-002	8.15658E-001	3.57250E+000	9	...........
	82	1.10667	8.18408E-001	9.11762E-005	0.00000E+000	7.46193E-005	5.39641E-002	8.18550E-001	3.57250E+000	9	...........
	83	1.12	8.21259E-001	9.12867E-005	0.00000E+000	7.49700E-005	5.39641E-002	8.21386E-001	3.57250E+000	9	...........
	84	1.13333	8.24068E-001	9.11022E-005	0.00000E+000	7.50745E-005	5.39641E-002	8.24193E-001	3.57250E+000	9	...........
	85	1.14667	8.26821E-001	9.10376E-005	0.00000E+000	7.52718E-005	5.39641E-002	8.26932E-001	3.57250E+000	9	...........
	86	1.16	8.29523E-001	9.11450E-005	0.00000E+000	7.56068E-005	5.39641E-002	8.29651E-001	3.57250E+000	9	...........
	87	1.17333	8.32235E-001	9.12366E-005	0.00000E+000	7.59304E-005	5.39641E-002	8.32372E-001	3.57250E+000	9	...........
	88	1.18667	8.34899E-001	9.08616E-005	0.00000E+000	7.58602E-005	5.39641E-002	8.35050E-001	3.57250E+000	9	...........
	89	1.2	8.37561E-001	9.12095E-005	0.00000E+000	7.63936E-005	5.39641E-002	8.37718E-001	3.57250E+000	9	...........
	90	1.21333	8.40164E-001	9.12023E-005	0.00000E+000	7.66249E-005	5.39641E-002	8.40328E-001	3.57250E+000	9	...........
	91	1.22667	8.42739E-001	9.11397E-005	0.00000E+000	7.68070E-005	5.39641E-002	8.42918E-001	3.57250E+000	9	...........
	92	1.24	8.45328E-001	9.14502E-005	0.00000E+000	7.73054E-005	5.39641E-002	8.45492E-001	3.57250E+000	9	...........
	93	1.25333	8.47867E-001	9.14117E-005	0.00000E+000	7.75050E-005	5.39641E-002	8.48026E-001	3.57250E+000	9	...........
	94	1.26667	8.50371E-001	9.12679E-005	0.00000E+000	7.76115E-005	5.39641E-002	8.50538E-001	3.57250E+000	9	...........
	95	1.28	8.52899E-001	9.13096E-005	0.00000E+000	7.78779E-005	5.39641E-002	8.53032E-001	3.57250E+000	9	...........
	96	1.29333	8.55344E-001	9.10543E-005	0.00000E+000	7.78827E-005	5.39641E-002	8.55503E-001	3.57250E+000	9	...........
	97	1.30667	8.57782E-001	9.10366E-005	0.00000E+000	7.80896E-005	5.39641E-002	8.57957E-001	3.57250E+000	9	...........
	98	1.32	8.60209E-001	9.09501E-005	0.00000E+000	7.82361E-005	5.39641E-002	8.60362E-001	3.57250E+000	9	...........
	99	1.33333	8.62575E-001	9.12168E-005	0.00000E+000	7.86814E-005	5.39641E-002	8.62741E-001	3.57250E+000	9	...........
	100	1.34667	8.64916E-001	9.10481E-005	0.00000E+000	7.87489E-005	5.39641E-002	8.65093E-001	3.57250E+000	9	...........
	101	1.36	8.67254E-001	9.11398E-005	0.00000E+000	7.90414E-005	5.39641E-002	8.67422E-001	3.57250E+000	9	...........
	102	1.37333	8.69585E-001	9.10564E-005	0.00000E+000	7.91813E-005	5.39641E-002	8.69748E-001	3.57250E+000	9	...........
	103	1.38667	8.71872E-001	9.09418E-005	0.00000E+000	7.92896E-005	5.39641E-002	8.72054E-001	3.57250E+000	9	...........
	104	1.4	8.74138E-001	9.10324E-005	0.00000E+000	7.95749E-005	5.39641E-002	8.74328E-001	3.57250E+000	9	...........
	105	1.41333	8.76400E-001	9.08511E-005	0.00000E+000	7.96220E-005	5.39641E-002	8.76582E-001	3.57250E+000	9	...........
	106	1.42667	8.78609E-001	9.10647E-005	0.00000E+000	8.00103E-005	5.39641E-002	8.78787E-001	3.57250E+000	9	...........
	107	1.44	8.80798E-001	9.09449E-005	0.00000E+000	8.01041E-005	5.39641E-002	8.80982E-001	3.57250E+000	9	...........
	108	1.45333	8.82988E-001	9.11918E-005	0.00000E+000	8.05213E-005	5.39641E-002	8.83167E-001	3.57250E+000	9	...........
	109	1.46667	8.85151E-001	9.09501E-005	0.00000E+000	8.05046E-005	5.39641E-002	8.85318E-001	3.57250E+000	9	...........
	110	1.48	8.87286E-001	9.11033E-005	0.00000E+000	8.08346E-005	5.39641E-002	8.87462E-001	3.57250E+000	9	...........
	111	1.49333	8.89413E-001	9.10001E-005	0.00000E+000	8.09367E-005	5.39641E-002	8.89572E-001	3.57250E+000	9	...........
	112	1.50667	8.91531E-001	9.12929E-005	0.00000E+000	8.13904E-005	5.39641E-002	8.91707E-001	3.57250E+000	9	...........
	113	1.52	8.93634E-001	9.08449E-005	0.00000E+000	8.11821E-005	5.39641E-002	8.93799E-001	3.57250E+000	9	...........
	114	1.53333	8.95704E-001	9.07678E-005	0.00000E+000	8.13010E-005	5.39641E-002	8.95872E-001	3.57250E+000	9	...........
	115	1.54667	8.97741E-001	9.14085E-005	0.00000E+000	8.20612E-005	5.39641E-002	8.97887E-001	3.57250E+000	9	...........
	116	1.56	8.99773E-001	9.11481E-005	0.00000E+000	8.20126E-005	5.39641E-002	8.99880E-001	3.57250E+000	9	...........
	117	1.57333	9.01757E-001	9.10731E-005	0.00000E+000	8.21258E-005	5.39641E-002	9.01888E-001	3.57187E+000	9	...........
	118	1.58667	9.03729E-001	9.10741E-005	0.00000E+000	8.23063E-005	5.39641E-002	9.03908E-001	3.57180E+000	9	...........
	119	1.6	9.05696E-001	9.10647E-005	0.00000E+000	8.24770E-005	5.39641E-002	9.05855E-001	3.57180E+000	9	...........
	120	1.61333	9.07632E-001	9.11502E-005	0.00000E+000	8.27308E-005	5.39641E-002	9.07804E-001	3.57180E+000	9	...........
	121	1.62667	9.09566E-001	9.08199E-005	0.00000E+000	8.26067E-005	5.39641E-002	9.09720E-001	3.57180E+000	9	...........
	122	1.64	9.11488E-001	9.09918E-005	0.00000E+000	8.29380E-005	5.39641E-002	9.11635E-001	3.57180E+000	9	...........
	123	1.65333	9.13355E-001	9.11835E-005	0.00000E+000	8.32829E-005	5.39641E-002	9.13542E-001	3.57180E+000	9	...........
	124	1.66667	9.15250E-001	9.11491E-005	0.00000E+000	8.34242E-005	5.39641E-002	9.15423E-001	3.57180E+000	9	...........
	125	1.68	9.17089E-001	9.13242E-005	0.00000E+000	8.37524E-005	5.39641E-002	9.17304E-001	3.57180E+000	9	...........
	126	1.69333	9.18909E-001	9.10679E-005	0.00000E+000	8.36830E-005	5.39641E-002	9.19099E-001	3.57180E+000	9	...........
	127	1.70667	9.20733E-001	9.08855E-005	0.00000E+000	8.36813E-005	5.39641E-002	9.20937E-001	3.57180E+000	9	...........
	128	1.72	9.22554E-001	9.11231E-005	0.00000E+000	8.40659E-005	5.39641E-002	9.22717E-001	3.57180E+000	9	...........
	129	1.73333	9.24352E-001	9.07522E-005	0.00000E+000	8.38869E-005	5.39641E-002	9.24507E-001	3.57180E+000	9	...........
	130	1.74667	9.26102E-001	9.11168E-005	0.00000E+000	8.43835E-005	5.39641E-002	9.26290E-001	3.57180E+000	9	...........
	131	1.76	9.27866E-001	9.10522E-005	0.00000E+000	8.44842E-005	5.39641E-002	9.28033E-001	3.57180E+000	9	...........
	132	1.77333	9.29568E-001	9.11293E-005	0.00000E+000	8.47109E-005	5.39641E-002	9.29719E-001	3.57180E+000	9	...........
	133	1.78667	9.31294E-001	9.11700E-005	0.00000E+000	8.49061E-005	5.39641E-002	9.31444E-001	3.57180E+000	9	...........
	134	1.8	9.33003E-001	9.11054E-005	0.00000E+000	8.50015E-005	5.39641E-002	9.33168E-001	3.57180E+000	9	...........
	135	1.81333	9.34711E-001	9.13783E-005	0.00000E+000	8.54123E-005	5.39641E-002	9.34878E-001	3.57180E+000	9	...........
	136	1.82667	9.36359E-001	9.11179E-005	0.00000E+000	8.53190E-005	5.39641E-002	9.36525E-001	3.57180E+000	9	...........
	137	1.84	9.37993E-001	9.12856E-005	0.00000E+000	8.56253E-005	5.39641E-002	9.38186E-001	3.57180E+000	9	...........
	138	1.85333	9.39647E-001	9.10626E-005	0.00000E+000	8.55668E-005	5.39641E-002	9.39834E-001	3.57180E+000	9	...........
	139	1.86667	9.41267E-001	9.11377E-005	0.00000E+000	8.57849E-005	5.39641E-002	9.41420E-001	3.57180E+000	9	...........
	140	1.88	9.42861E-001	9.09282E-005	0.00000E+000	8.57327E-005	5.39641E-002	9.43043E-001	3.57180E+000	9	...........
	141	1.89333	9.44432E-001	9.11898E-005	0.00000E+000	8.61225E-005	5.39641E-002	9.44598E-001	3.57180E+000	9	...........
	142	1.90667	9.46016E-001	9.11533E-005	0.00000E+000	8.62325E-005	5.39641E-002	9.46195E-001	3.57180E+000	9	...........
	143	1.92	9.47613E-001	9.11283E-005	0.00000E+000	8.63543E-005	5.39641E-002	9.47760E-001	3.57180E+000	9	...........
	144	1.93333	9.49143E-001	9.06959E-005	0.00000E+000	8.60834E-005	5.39641E-002	9.49318E-001	3.57180E+000	9	...........
	145	1.94667	9.50682E-001	9.12335E-005	0.00000E+000	8.67340E-005	5.39641E-002	9.50836E-001	3.57180E+000	9	...........
	146	1.96	9.52201E-001	9.10595E-005	0.00000E+000	8.67070E-005	5.39641E-002	9.52373E-001	3.57180E+000	9	...........
	147	1.97333	9.53741E-001	9.12314E-005	0.00000E+000	8.70112E-005	5.39641E-002	9.53879E-001	3.57180E+000	9	...........
	148	1.98667	9.55209E-001	9.12856E-005	0.00000E+000	8.71969E-005	5.39641E-002	9.55369E-001	3.57180E+000	9	...........
	149	2	9.56680E-001	9.11106E-005	0.00000E+000	8.71637E-005	5.39641E-002	9.56833E-001	3.57180E+000	9	...........
	150	2.01333	9.58119E-001	9.11523E-005	0.00000E+000	8.73347E-005	5.39641E-002	9.58306E-001	3.57180E+000	9	...........
	151	2.02667	9.59569E-001	9.09793E-005	0.00000E+000	8.73009E-005	5.39641E-002	9.59739E-001	3.57180E+000	9	...........
	152	2.04	9.60990E-001	9.11908E-005	0.00000E+000	8.76335E-005	5.39641E-002	9.61144E-001	3.57180E+000	9	...........
	153	2.05333	9.62413E-001	9.12794E-005	0.00000E+000	8.78485E-005	5.39641E-002	9.62569E-001	3.57180E+000	9	...........
	154	2.06667	9.63815E-001	9.11856E-005	0.00000E+000	8.78860E-005	5.39641E-002	9.63970E-001	3.57180E+000	9	...........
	155	2.08	9.65186E-001	9.09762E-005	0.00000E+000	8.78089E-005	5.39641E-002	9.65375E-001	3.57180E+000	9	...........
	156	2.09333	9.66566E-001	9.09689E-005	0.00000E+000	8.79274E-005	5.39641E-002	9.66741E-001	3.57180E+000	9	...........
	157	2.10667	9.67923E-001	9.10804E-005	0.00000E+000	8.81588E-005	5.39641E-002	9.68123E-001	3.57180E+000	9	...........
	158	2.12	9.69268E-001	9.11502E-005	0.00000E+000	8.83490E-005	5.39641E-002	9.69459E-001	3.57180E+000	9	...........
	159	2.13333	9.70606E-001	9.13096E-005	0.00000E+000	8.86257E-005	5.39641E-002	9.70815E-001	3.57180E+000	9	...........
	160	2.14667	9.71966E-001	9.14054E-005	0.00000E+000	8.88429E-005	5.39641E-002	9.72193E-001	3.57180E+000	9	...........
	161	2.16	9.73315E-001	9.11741E-005	0.00000E+000	8.87411E-005	5.39641E-002	9.73461E-001	3.57180E+000	9	...........
	162	2.17333	9.74605E-001	9.11887E-005	0.00000E+000	8.88730E-005	5.39641E-002	9.74770E-001	3.57180E+000	9	...........
	163	2.18667	9.75903E-001	9.10428E-005	0.00000E+000	8.88490E-005	5.39641E-002	9.76063E-001	3.57180E+000	9	...........
	164	2.2	9.77168E-001	9.11022E-005	0.00000E+000	8.90222E-005	5.39641E-002	9.77346E-001	3.57180E+000	9	...........
	165	2.21333	9.78432E-001	9.10210E-005	0.00000E+000	8.90578E-005	5.39641E-002	9.78621E-001	3.57180E+000	9	...........
	166	2.22667	9.79700E-001	9.10793E-005	0.00000E+000	8.92304E-005	5.39641E-002	9.79895E-001	3.57180E+000	9	...........
	167	2.24	9.80955E-001	9.10908E-005	0.00000E+000	8.93560E-005	5.39641E-002	9.81126E-001	3.57180E+000	9	...........
	168	2.25333	9.82182E-001	9.11856E-005	0.00000E+000	8.95608E-005	5.39641E-002	9.82359E-001	3.57180E+000	9	...........
	169	2.26667	9.83376E-001	9.09960E-005	0.00000E+000	8.94833E-005	5.39641E-002	9.83590E-001	3.57180E+000	9	...........
	170	2.28	9.84592E-001	9.12179E-005	0.00000E+000	8.98124E-005	5.39641E-002	9.84801E-001	3.57180E+000	9	...........
	171	2.29333	9.85812E-001	9.10376E-005	0.00000E+000	8.97460E-005	5.39641E-002	9.86021E-001	3.57180E+000	9	...........
	172	2.30667	9.87020E-001	9.13012E-005	0.00000E+000	9.01161E-005	5.39641E-002	9.87219E-001	3.57180E+000	9	...........
	173	2.32	9.88188E-001	9.10335E-005	0.00000E+000	8.99582E-005	5.39641E-002	9.88394E-001	3.57180E+000	9	...........
	174	2.33333	9.89372E-001	9.11147E-005	0.00000E+000	9.01464E-005	5.39641E-002	9.89564E-001	3.57180E+000	9	...........
	175	2.34667	9.90524E-001	9.10178E-005	0.00000E+000	9.01553E-005	5.39641E-002	9.90722E-001	3.57180E+000	9	...........
	176	2.36	9.91679E-001	9.09928E-005	0.00000E+000	9.02357E-005	5.39641E-002	9.91886E-001	3.57180E+000	9	...........
	177	2.37333	9.92822E-001	9.10147E-005	0.00000E+000	9.03614E-005	5.39641E-002	9.93024E-001	3.57180E+000	9	...........
	178	2.38667	9.93948E-001	9.11866E-005	0.00000E+000	9.06347E-005	5.39641E-002	9.94171E-001	3.57180E+000	9	...........
	179	2.4	9.95106E-001	9.10241E-005	0.00000E+000	9.05786E-005	5.39641E-002	9.95286E-001	3.57180E+000	9	...........
	180	2.41333	9.96230E-001	9.11877E-005	0.00000E+000	9.08439E-005	5.39641E-002	9.96414E-001	3.57180E+000	9	...........
	181	2.42667	9.97363E-001	9.11783E-005	0.00000E+000	9.09378E-005	5.39641E-002	9.97580E-001	3.57180E+000	9	...........
	182	2.44	9.98500E-001	9.12241E-005	0.00000E+000	9.10873E-005	5.39641E-002	9.98676E-001	3.57180E+000	9	...........
	183	2.45333	9.99588E-001	9.14231E-005	0.00000E+000	9.13855E-005	5.39641E-002	9.99756E-001	3.57180E+000	9	...........
STARTTIMEOFFSET	QUANT	615.1382	Start Time Offset (s)
