EXPLAIN
TAG	PWR800_CHARGE
TITLE	LABEL	PWR Cyclic Charge Discharge (Cell) - Charge Step	Test &Identifier
DATE	LABEL	10-7-2017	Date
TIME	LABEL	15:43:37	Time
NOTES	NOTES	3	&Notes...
	supercap test cell
	0.9mg
	6M KOH
PSTAT	PSTAT	IFC5000-01520	Potentiostat
CAPACITY	QUANT	1.00000E-003	Capacity (A-hr)
CELLTYPE	SELECTOR	1	&Cell Type
WORKINGCONNECTION	SELECTOR	0	&Working Lead
MAXCHARGETIME	VARIABLEANDUNITS	1.00000E+002	s	1.00000E+002	second(s)	Max &Charge Time
CHARGECURRENT	QUANT	9.00000E-005	&Charge Current (A) 
VOLTAGEFINISH	TWOPARAM	F	1.00000E-003	3.60000E+003	&Voltage Finish	 I (A) < 	Max Time(s)
SAMPLETIME	QUANT	1.00000E-002	Sa&mple Period (s)
CHARGESTOPAT1	MULTIPARAM	4	1.00000E+000	Charge Stop At &1	Voltage > Limit	V
CHARGESTOPAT2	MULTIPARAM	0	0.00000E+000	Charge Stop At &2	None	N/A
AESBHCSELECTOR	TOGGLE	F	Save Both Half Cells
IRCOMP	TOGGLE	F	IR &Measure
EOC	QUANT	0	Open Circuit (V)
SEQUENCER	TOGGLE	TRUE	Run as Sequence
PSTATMODEL	IQUANT	53	Pstat Model
PSTATSECTION	LABEL	IFC5000-01520	Pstat Section
PSTATSERIALNO	LABEL	01520	Pstat Serial Number
CTRLMODE	IQUANT	0	Control Mode
ELECTROMETER	IQUANT	1	RE=0 or CS=1
IESTAB	IQUANT	0	I/E Stability
CASPEED	IQUANT	4	Control Amp Speed
CONVENTION	IQUANT	1	Current Convention
ICHRANGE	IQUANT	2	Ich Range
ICHRANGEMODE	TOGGLE	T	Ich Auto Range
ICHOFFSETENABLE	TOGGLE	F	Ich Offset Enable
ICHOFFSET	QUANT	0	Ich Offset (V)
ICHFILTER	IQUANT	1	Ich Filter
VCHRANGE	IQUANT	2	Vch Range
VCHRANGEMODE	TOGGLE	T	Vch Auto Range
VCHOFFSETENABLE	TOGGLE	F	Vch Offset Enable
VCHOFFSET	QUANT	0	Vch Offset (V)
VCHFILTER	IQUANT	1	Vch Filter
IERANGELOWERLIMIT	IQUANT	9	I/E Range Lower Limit
IERANGEMODE	TOGGLE	F	I/E AutoRange
IERANGE	IQUANT	9	I/E Range
ACHSELECT	IQUANT	1	Ach Select
ACHRANGE	IQUANT	2	Ach Range
ACHOFFSETENABLE	TOGGLE	F	Ach Offset Enable
ACHOFFSET	QUANT	0	Ach Offset (V)
ACHFILTER	IQUANT	1	Ach Filter
CABLEID	IQUANT	14	Cable ID
DCCALDATE	LABEL	5-7-2017	DC Calibration Date
ACCALDATE	LABEL	12/3/2015	AC Calibration Date
FRAMEWORKVERSION	QUANT	7.01	Framework Version
INSTRUMENTVERSION	LABEL	4.00	Instrument Version
CURVE	TABLE	169
	Pt	T	Vf	Im	Vu	Pwr	Sig	Ach	Temp	IERange	Over
	#	s	V	A	V	W	V	V	deg C	#	bits
	0	0.013333	2.72367E-001	9.07438E-005	0.00000E+000	2.47156E-005	5.39641E-002	2.72409E-001	3.57300E+000	9	...........
	1	0.026667	2.92054E-001	9.10428E-005	0.00000E+000	2.65894E-005	5.39641E-002	2.92088E-001	3.57300E+000	9	...........
	2	0.04	3.10411E-001	9.09616E-005	0.00000E+000	2.82355E-005	5.39641E-002	3.10451E-001	3.57300E+000	9	...........
	3	0.053333	3.27650E-001	9.08918E-005	0.00000E+000	2.97807E-005	5.39641E-002	3.27690E-001	3.57300E+000	9	...........
	4	0.066667	3.43908E-001	9.11054E-005	0.00000E+000	3.13319E-005	5.39641E-002	3.43947E-001	3.57300E+000	9	...........
	5	0.08	3.59297E-001	9.09470E-005	0.00000E+000	3.26770E-005	5.39641E-002	3.59338E-001	3.57300E+000	9	...........
	6	0.093333	3.73910E-001	9.10876E-005	0.00000E+000	3.40586E-005	5.39641E-002	3.73954E-001	3.57300E+000	9	...........
	7	0.106667	3.87813E-001	9.10178E-005	0.00000E+000	3.52979E-005	5.39641E-002	3.87854E-001	3.57300E+000	9	...........
	8	0.12	4.01075E-001	9.11345E-005	0.00000E+000	3.65518E-005	5.39641E-002	4.01121E-001	3.57300E+000	9	...........
	9	0.133333	4.13753E-001	9.09137E-005	0.00000E+000	3.76158E-005	5.39641E-002	4.13805E-001	3.57300E+000	9	...........
	10	0.146667	4.25906E-001	9.09470E-005	0.00000E+000	3.87349E-005	5.39641E-002	4.25963E-001	3.57300E+000	9	...........
	11	0.16	4.37561E-001	9.08834E-005	0.00000E+000	3.97671E-005	5.39641E-002	4.37618E-001	3.57300E+000	9	...........
	12	0.173333	4.48760E-001	9.08272E-005	0.00000E+000	4.07596E-005	5.39641E-002	4.48823E-001	3.57300E+000	9	...........
	13	0.186667	4.59549E-001	9.10533E-005	0.00000E+000	4.18435E-005	5.39641E-002	4.59607E-001	3.57300E+000	9	...........
	14	0.2	4.69943E-001	9.10918E-005	0.00000E+000	4.28080E-005	5.39641E-002	4.70004E-001	3.57300E+000	9	...........
	15	0.213333	4.79971E-001	9.10022E-005	0.00000E+000	4.36785E-005	5.39641E-002	4.80038E-001	3.57300E+000	9	...........
	16	0.226667	4.89666E-001	9.12887E-005	0.00000E+000	4.47010E-005	5.39641E-002	4.89735E-001	3.57300E+000	9	...........
	17	0.24	4.99044E-001	9.07522E-005	0.00000E+000	4.52893E-005	5.39641E-002	4.99111E-001	3.57280E+000	9	...........
	18	0.253333	5.08127E-001	9.12981E-005	0.00000E+000	4.63910E-005	5.39641E-002	5.08195E-001	3.57280E+000	9	...........
	19	0.266667	5.16940E-001	9.11533E-005	0.00000E+000	4.71207E-005	5.39641E-002	5.17009E-001	3.57280E+000	9	...........
	20	0.28	5.25484E-001	9.08678E-005	0.00000E+000	4.77496E-005	5.39641E-002	5.25557E-001	3.57280E+000	9	...........
	21	0.293333	5.33730E-001	9.10908E-005	0.00000E+000	4.86179E-005	5.39641E-002	5.33819E-001	3.57280E+000	9	...........
	22	0.306667	5.41767E-001	9.12293E-005	0.00000E+000	4.94250E-005	5.39641E-002	5.41869E-001	3.57280E+000	9	...........
	23	0.32	5.49593E-001	9.11231E-005	0.00000E+000	5.00806E-005	5.39641E-002	5.49730E-001	3.57280E+000	9	...........
	24	0.333333	5.57236E-001	9.09282E-005	0.00000E+000	5.06685E-005	5.39641E-002	5.57377E-001	3.57280E+000	9	...........
	25	0.346667	5.64710E-001	9.08657E-005	0.00000E+000	5.13128E-005	5.39641E-002	5.64862E-001	3.57280E+000	9	...........
	26	0.36	5.71977E-001	9.09824E-005	0.00000E+000	5.20398E-005	5.39641E-002	5.72136E-001	3.57280E+000	9	...........
	27	0.373333	5.79043E-001	9.08532E-005	0.00000E+000	5.26079E-005	5.39641E-002	5.79178E-001	3.57280E+000	9	...........
	28	0.386667	5.85956E-001	9.08970E-005	0.00000E+000	5.32616E-005	5.39641E-002	5.86108E-001	3.57280E+000	9	...........
	29	0.4	5.92724E-001	9.09168E-005	0.00000E+000	5.38886E-005	5.39641E-002	5.92877E-001	3.57280E+000	9	...........
	30	0.413333	5.99294E-001	9.12439E-005	0.00000E+000	5.46820E-005	5.39641E-002	5.99460E-001	3.57280E+000	9	...........
	31	0.426667	6.05732E-001	9.10585E-005	0.00000E+000	5.51570E-005	5.39641E-002	6.05898E-001	3.57280E+000	9	...........
	32	0.44	6.12040E-001	9.09678E-005	0.00000E+000	5.56760E-005	5.39641E-002	6.12212E-001	3.57280E+000	9	...........
	33	0.453333	6.18284E-001	9.10585E-005	0.00000E+000	5.63000E-005	5.39641E-002	6.18397E-001	3.57280E+000	9	...........
	34	0.466667	6.24357E-001	9.10762E-005	0.00000E+000	5.68641E-005	5.39641E-002	6.24444E-001	3.57280E+000	9	...........
	35	0.48	6.30273E-001	9.07834E-005	0.00000E+000	5.72184E-005	5.39641E-002	6.30397E-001	3.57280E+000	9	...........
	36	0.493333	6.36083E-001	9.10741E-005	0.00000E+000	5.79307E-005	5.39641E-002	6.36224E-001	3.57280E+000	9	...........
	37	0.506667	6.41824E-001	9.07845E-005	0.00000E+000	5.82676E-005	5.39641E-002	6.41937E-001	3.57280E+000	9	...........
	38	0.52	6.47381E-001	9.11637E-005	0.00000E+000	5.90176E-005	5.39641E-002	6.47489E-001	3.57280E+000	9	...........
	39	0.533333	6.52846E-001	9.09918E-005	0.00000E+000	5.94037E-005	5.39641E-002	6.52963E-001	3.57280E+000	9	...........
	40	0.546667	6.58237E-001	9.09585E-005	0.00000E+000	5.98722E-005	5.39641E-002	6.58324E-001	3.57280E+000	9	...........
	41	0.56	6.63513E-001	9.08376E-005	0.00000E+000	6.02719E-005	5.39641E-002	6.63637E-001	3.57280E+000	9	...........
	42	0.573333	6.68735E-001	9.10845E-005	0.00000E+000	6.09114E-005	5.39641E-002	6.68839E-001	3.57280E+000	9	...........
	43	0.586667	6.73827E-001	9.09928E-005	0.00000E+000	6.13134E-005	5.39641E-002	6.73899E-001	3.57280E+000	9	...........
	44	0.6	6.78832E-001	9.11595E-005	0.00000E+000	6.18820E-005	5.39641E-002	6.78924E-001	3.57280E+000	9	...........
	45	0.613333	6.83755E-001	9.07949E-005	0.00000E+000	6.20815E-005	5.39641E-002	6.83814E-001	3.57280E+000	9	...........
	46	0.626667	6.88577E-001	9.10824E-005	0.00000E+000	6.27173E-005	5.39641E-002	6.88670E-001	3.57280E+000	9	...........
	47	0.64	6.93354E-001	9.10887E-005	0.00000E+000	6.31567E-005	5.39641E-002	6.93442E-001	3.57280E+000	9	...........
	48	0.653333	6.98042E-001	9.10585E-005	0.00000E+000	6.35626E-005	5.39641E-002	6.98138E-001	3.57280E+000	9	...........
	49	0.666667	7.02647E-001	9.10064E-005	0.00000E+000	6.39454E-005	5.39641E-002	7.02742E-001	3.57280E+000	9	...........
	50	0.68	7.07185E-001	9.10012E-005	0.00000E+000	6.43547E-005	5.39641E-002	7.07314E-001	3.57280E+000	9	...........
	51	0.693333	7.11677E-001	9.11939E-005	0.00000E+000	6.49006E-005	5.39641E-002	7.11773E-001	3.57280E+000	9	...........
	52	0.706667	7.16095E-001	9.10501E-005	0.00000E+000	6.52005E-005	5.39641E-002	7.16235E-001	3.57280E+000	9	...........
	53	0.72	7.20490E-001	9.09647E-005	0.00000E+000	6.55392E-005	5.39641E-002	7.20604E-001	3.57280E+000	9	...........
	54	0.733333	7.24782E-001	9.11637E-005	0.00000E+000	6.60738E-005	5.39641E-002	7.24900E-001	3.57280E+000	9	...........
	55	0.746667	7.29002E-001	9.10929E-005	0.00000E+000	6.64069E-005	5.39641E-002	7.29146E-001	3.57280E+000	9	...........
	56	0.76	7.33162E-001	9.12335E-005	0.00000E+000	6.68890E-005	5.39641E-002	7.33310E-001	3.57280E+000	9	...........
	57	0.773333	7.37304E-001	9.11033E-005	0.00000E+000	6.71708E-005	5.39641E-002	7.37410E-001	3.57280E+000	9	...........
	58	0.786667	7.41385E-001	9.12752E-005	0.00000E+000	6.76701E-005	5.39641E-002	7.41489E-001	3.57280E+000	9	...........
	59	0.8	7.45397E-001	9.10501E-005	0.00000E+000	6.78685E-005	5.39641E-002	7.45516E-001	3.57280E+000	9	...........
	60	0.813333	7.49365E-001	9.10824E-005	0.00000E+000	6.82540E-005	5.39641E-002	7.49484E-001	3.57280E+000	9	...........
	61	0.826667	7.53281E-001	9.09116E-005	0.00000E+000	6.84820E-005	5.39641E-002	7.53411E-001	3.57280E+000	9	...........
	62	0.84	7.57175E-001	9.11939E-005	0.00000E+000	6.90498E-005	5.39641E-002	7.57297E-001	3.57280E+000	9	...........
	63	0.853333	7.60956E-001	9.11043E-005	0.00000E+000	6.93264E-005	5.39641E-002	7.61081E-001	3.57280E+000	9	...........
	64	0.866667	7.64689E-001	9.10595E-005	0.00000E+000	6.96322E-005	5.39641E-002	7.64810E-001	3.57280E+000	9	...........
	65	0.88	7.68409E-001	9.08428E-005	0.00000E+000	6.98045E-005	5.39641E-002	7.68574E-001	3.57280E+000	9	...........
	66	0.893333	7.72084E-001	9.11918E-005	0.00000E+000	7.04078E-005	5.39641E-002	7.72230E-001	3.57280E+000	9	...........
	67	0.906667	7.75698E-001	9.08199E-005	0.00000E+000	7.04488E-005	5.39641E-002	7.75837E-001	3.57280E+000	9	...........
	68	0.92	7.79303E-001	9.07793E-005	0.00000E+000	7.07446E-005	5.39641E-002	7.79441E-001	3.57280E+000	9	...........
	69	0.933333	7.82838E-001	9.10158E-005	0.00000E+000	7.12506E-005	5.39641E-002	7.82991E-001	3.57280E+000	9	...........
	70	0.946667	7.86333E-001	9.10345E-005	0.00000E+000	7.15835E-005	5.39641E-002	7.86479E-001	3.57280E+000	9	...........
	71	0.96	7.89812E-001	9.10887E-005	0.00000E+000	7.19430E-005	5.39641E-002	7.89932E-001	3.57280E+000	9	...........
	72	0.97333	7.93252E-001	9.09814E-005	0.00000E+000	7.21712E-005	5.39641E-002	7.93393E-001	3.57280E+000	9	...........
	73	0.98667	7.96653E-001	9.12137E-005	0.00000E+000	7.26657E-005	5.39641E-002	7.96775E-001	3.57280E+000	9	...........
	74	1	8.00006E-001	9.10595E-005	0.00000E+000	7.28481E-005	5.39641E-002	8.00112E-001	3.57280E+000	9	...........
	75	1.01333	8.03326E-001	9.09855E-005	0.00000E+000	7.30910E-005	5.39641E-002	8.03416E-001	3.57280E+000	9	...........
	76	1.02667	8.06575E-001	9.09887E-005	0.00000E+000	7.33891E-005	5.39641E-002	8.06710E-001	3.57280E+000	9	...........
	77	1.04	8.09822E-001	9.12064E-005	0.00000E+000	7.38610E-005	5.39641E-002	8.09947E-001	3.57280E+000	9	...........
	78	1.05333	8.13033E-001	9.08793E-005	0.00000E+000	7.38879E-005	5.39641E-002	8.13177E-001	3.57280E+000	9	...........
	79	1.06667	8.16241E-001	9.08959E-005	0.00000E+000	7.41930E-005	5.39641E-002	8.16375E-001	3.57280E+000	9	...........
	80	1.08	8.19421E-001	9.10199E-005	0.00000E+000	7.45836E-005	5.39641E-002	8.19561E-001	3.57280E+000	9	...........
	81	1.09333	8.22528E-001	9.08147E-005	0.00000E+000	7.46976E-005	5.39641E-002	8.22691E-001	3.57280E+000	9	...........
	82	1.10667	8.25592E-001	9.09835E-005	0.00000E+000	7.51152E-005	5.39641E-002	8.25753E-001	3.57280E+000	9	...........
	83	1.12	8.28641E-001	9.09147E-005	0.00000E+000	7.53357E-005	5.39641E-002	8.28786E-001	3.57280E+000	9	...........
	84	1.13333	8.31646E-001	9.09137E-005	0.00000E+000	7.56080E-005	5.39641E-002	8.31823E-001	3.57280E+000	9	...........
	85	1.14667	8.34635E-001	9.10387E-005	0.00000E+000	7.59841E-005	5.39641E-002	8.34816E-001	3.57280E+000	9	...........
	86	1.16	8.37572E-001	9.11939E-005	0.00000E+000	7.63815E-005	5.39641E-002	8.37770E-001	3.57280E+000	9	...........
	87	1.17333	8.40495E-001	9.11450E-005	0.00000E+000	7.66068E-005	5.39641E-002	8.40667E-001	3.57280E+000	9	...........
	88	1.18667	8.43398E-001	9.09522E-005	0.00000E+000	7.67089E-005	5.39641E-002	8.43588E-001	3.57280E+000	9	...........
	89	1.2	8.46294E-001	9.07251E-005	0.00000E+000	7.67801E-005	5.39641E-002	8.46468E-001	3.57280E+000	9	...........
	90	1.21333	8.49101E-001	9.09908E-005	0.00000E+000	7.72604E-005	5.39641E-002	8.49296E-001	3.57280E+000	9	...........
	91	1.22667	8.51893E-001	9.08699E-005	0.00000E+000	7.74114E-005	5.39641E-002	8.52073E-001	3.57280E+000	9	...........
	92	1.24	8.54622E-001	9.10491E-005	0.00000E+000	7.78126E-005	5.39641E-002	8.54833E-001	3.57300E+000	9	...........
	93	1.25333	8.57370E-001	9.08751E-005	0.00000E+000	7.79136E-005	5.39641E-002	8.57587E-001	3.57300E+000	9	...........
	94	1.26667	8.60102E-001	9.11158E-005	0.00000E+000	7.83689E-005	5.39641E-002	8.60293E-001	3.57300E+000	9	...........
	95	1.28	8.62782E-001	9.09772E-005	0.00000E+000	7.84935E-005	5.39641E-002	8.62992E-001	3.57300E+000	9	...........
	96	1.29333	8.65435E-001	9.09168E-005	0.00000E+000	7.86826E-005	5.39641E-002	8.65646E-001	3.57300E+000	9	...........
	97	1.30667	8.68112E-001	9.10731E-005	0.00000E+000	7.90616E-005	5.39641E-002	8.68308E-001	3.57300E+000	9	...........
	98	1.32	8.70728E-001	9.11241E-005	0.00000E+000	7.93443E-005	5.39641E-002	8.70946E-001	3.57300E+000	9	...........
	99	1.33333	8.73313E-001	9.09553E-005	0.00000E+000	7.94325E-005	5.39641E-002	8.73532E-001	3.57300E+000	9	...........
	100	1.34667	8.75876E-001	9.10335E-005	0.00000E+000	7.97341E-005	5.39641E-002	8.76058E-001	3.57300E+000	9	...........
	101	1.36	8.78380E-001	9.07834E-005	0.00000E+000	7.97423E-005	5.39641E-002	8.78573E-001	3.57300E+000	9	...........
	102	1.37333	8.80867E-001	9.09428E-005	0.00000E+000	8.01085E-005	5.39641E-002	8.81067E-001	3.57300E+000	9	...........
	103	1.38667	8.83360E-001	9.09699E-005	0.00000E+000	8.03592E-005	5.39641E-002	8.83569E-001	3.57300E+000	9	...........
	104	1.4	8.85833E-001	9.10564E-005	0.00000E+000	8.06607E-005	5.39641E-002	8.86017E-001	3.57300E+000	9	...........
	105	1.41333	8.88240E-001	9.08136E-005	0.00000E+000	8.06643E-005	5.39641E-002	8.88437E-001	3.57300E+000	9	...........
	106	1.42667	8.90648E-001	9.10189E-005	0.00000E+000	8.10658E-005	5.39641E-002	8.90810E-001	3.57300E+000	9	...........
	107	1.44	8.93018E-001	9.09835E-005	0.00000E+000	8.12498E-005	5.39641E-002	8.93163E-001	3.57300E+000	9	...........
	108	1.45333	8.95354E-001	9.11741E-005	0.00000E+000	8.16331E-005	5.39641E-002	8.95532E-001	3.57300E+000	9	...........
	109	1.46667	8.97666E-001	9.09564E-005	0.00000E+000	8.16484E-005	5.39641E-002	8.97853E-001	3.57300E+000	9	...........
	110	1.48	8.99950E-001	9.09960E-005	0.00000E+000	8.18918E-005	5.39641E-002	9.00128E-001	3.57300E+000	9	...........
	111	1.49333	9.02232E-001	9.09105E-005	0.00000E+000	8.20224E-005	5.39641E-002	9.02424E-001	3.57300E+000	9	...........
	112	1.50667	9.04469E-001	9.13242E-005	0.00000E+000	8.25999E-005	5.39641E-002	9.04683E-001	3.57300E+000	9	...........
	113	1.52	9.06694E-001	9.10085E-005	0.00000E+000	8.25168E-005	5.39641E-002	9.06915E-001	3.57300E+000	9	...........
	114	1.53333	9.08927E-001	9.07740E-005	0.00000E+000	8.25070E-005	5.39641E-002	9.09134E-001	3.57300E+000	9	...........
	115	1.54667	9.11108E-001	9.10033E-005	0.00000E+000	8.29138E-005	5.39641E-002	9.11325E-001	3.57300E+000	9	...........
	116	1.56	9.13298E-001	9.09887E-005	0.00000E+000	8.30997E-005	5.39641E-002	9.13499E-001	3.57300E+000	9	...........
	117	1.57333	9.15456E-001	9.09178E-005	0.00000E+000	8.32313E-005	5.39641E-002	9.15667E-001	3.57300E+000	9	...........
	118	1.58667	9.17566E-001	9.12075E-005	0.00000E+000	8.36888E-005	5.39641E-002	9.17789E-001	3.57300E+000	9	...........
	119	1.6	9.19693E-001	9.10481E-005	0.00000E+000	8.37362E-005	5.39641E-002	9.19902E-001	3.57300E+000	9	...........
	120	1.61333	9.21820E-001	9.10126E-005	0.00000E+000	8.38972E-005	5.39641E-002	9.22018E-001	3.57300E+000	9	...........
	121	1.62667	9.23854E-001	9.11898E-005	0.00000E+000	8.42460E-005	5.39641E-002	9.24035E-001	3.57300E+000	9	...........
	122	1.64	9.25880E-001	9.10585E-005	0.00000E+000	8.43092E-005	5.39641E-002	9.26069E-001	3.57300E+000	9	...........
	123	1.65333	9.27931E-001	9.09793E-005	0.00000E+000	8.44225E-005	5.39641E-002	9.28089E-001	3.57300E+000	9	...........
	124	1.66667	9.29896E-001	9.09626E-005	0.00000E+000	8.45858E-005	5.39641E-002	9.30067E-001	3.57300E+000	9	...........
	125	1.68	9.31852E-001	9.08449E-005	0.00000E+000	8.46540E-005	5.39641E-002	9.32042E-001	3.57300E+000	9	...........
	126	1.69333	9.33812E-001	9.10991E-005	0.00000E+000	8.50694E-005	5.39641E-002	9.33996E-001	3.57300E+000	9	...........
	127	1.70667	9.35754E-001	9.09678E-005	0.00000E+000	8.51235E-005	5.39641E-002	9.35930E-001	3.57300E+000	9	...........
	128	1.72	9.37660E-001	9.10762E-005	0.00000E+000	8.53985E-005	5.39641E-002	9.37865E-001	3.57300E+000	9	...........
	129	1.73333	9.39554E-001	9.09678E-005	0.00000E+000	8.54692E-005	5.39641E-002	9.39749E-001	3.57300E+000	9	...........
	130	1.74667	9.41426E-001	9.10783E-005	0.00000E+000	8.57434E-005	5.39641E-002	9.41593E-001	3.57300E+000	9	...........
	131	1.76	9.43285E-001	9.11054E-005	0.00000E+000	8.59383E-005	5.39641E-002	9.43454E-001	3.57300E+000	9	...........
	132	1.77333	9.45109E-001	9.09710E-005	0.00000E+000	8.59775E-005	5.39641E-002	9.45313E-001	3.57300E+000	9	...........
	133	1.78667	9.46979E-001	9.07751E-005	0.00000E+000	8.59621E-005	5.39641E-002	9.47158E-001	3.57300E+000	9	...........
	134	1.8	9.48805E-001	9.11606E-005	0.00000E+000	8.64936E-005	5.39641E-002	9.48988E-001	3.57300E+000	9	...........
	135	1.81333	9.50598E-001	9.09626E-005	0.00000E+000	8.64689E-005	5.39641E-002	9.50763E-001	3.57300E+000	9	...........
	136	1.82667	9.52365E-001	9.11773E-005	0.00000E+000	8.68340E-005	5.39641E-002	9.52535E-001	3.57300E+000	9	...........
	137	1.84	9.54137E-001	9.07563E-005	0.00000E+000	8.65939E-005	5.39641E-002	9.54289E-001	3.57300E+000	9	...........
	138	1.85333	9.55865E-001	9.09814E-005	0.00000E+000	8.69659E-005	5.39641E-002	9.56025E-001	3.57300E+000	9	...........
	139	1.86667	9.57557E-001	9.09084E-005	0.00000E+000	8.70500E-005	5.39641E-002	9.57733E-001	3.57300E+000	9	...........
	140	1.88	9.59238E-001	9.10960E-005	0.00000E+000	8.73828E-005	5.39641E-002	9.59425E-001	3.57300E+000	9	...........
	141	1.89333	9.60892E-001	9.09209E-005	0.00000E+000	8.73652E-005	5.39641E-002	9.61119E-001	3.57300E+000	9	...........
	142	1.90667	9.62561E-001	9.11585E-005	0.00000E+000	8.77456E-005	5.39641E-002	9.62749E-001	3.57300E+000	9	...........
	143	1.92	9.64182E-001	9.09626E-005	0.00000E+000	8.77045E-005	5.39641E-002	9.64400E-001	3.57300E+000	9	...........
	144	1.93333	9.65816E-001	9.08324E-005	0.00000E+000	8.77274E-005	5.39641E-002	9.66011E-001	3.57300E+000	9	...........
	145	1.94667	9.67426E-001	9.10366E-005	0.00000E+000	8.80712E-005	5.39641E-002	9.67625E-001	3.57300E+000	9	...........
	146	1.96	9.69030E-001	9.08105E-005	0.00000E+000	8.79981E-005	5.39641E-002	9.69231E-001	3.57300E+000	9	...........
	147	1.97333	9.70578E-001	9.08897E-005	0.00000E+000	8.82155E-005	5.39641E-002	9.70811E-001	3.57300E+000	9	...........
	148	1.98667	9.72144E-001	9.10949E-005	0.00000E+000	8.85574E-005	5.39641E-002	9.72375E-001	3.57300E+000	9	...........
	149	2	9.73714E-001	9.09574E-005	0.00000E+000	8.85665E-005	5.39641E-002	9.73901E-001	3.57300E+000	9	...........
	150	2.01333	9.75229E-001	9.08949E-005	0.00000E+000	8.86434E-005	5.39641E-002	9.75430E-001	3.57300E+000	9	...........
	151	2.02667	9.76730E-001	9.11335E-005	0.00000E+000	8.90128E-005	5.39641E-002	9.76934E-001	3.57300E+000	9	...........
	152	2.04	9.78219E-001	9.09491E-005	0.00000E+000	8.89681E-005	5.39641E-002	9.78416E-001	3.57300E+000	9	...........
	153	2.05333	9.79721E-001	9.10606E-005	0.00000E+000	8.92140E-005	5.39641E-002	9.79915E-001	3.57300E+000	9	...........
	154	2.06667	9.81174E-001	9.08407E-005	0.00000E+000	8.91306E-005	5.39641E-002	9.81356E-001	3.57300E+000	9	...........
	155	2.08	9.82606E-001	9.09720E-005	0.00000E+000	8.93896E-005	5.39641E-002	9.82822E-001	3.57300E+000	9	...........
	156	2.09333	9.84051E-001	9.11387E-005	0.00000E+000	8.96852E-005	5.39641E-002	9.84254E-001	3.57300E+000	9	...........
	157	2.10667	9.85463E-001	9.08939E-005	0.00000E+000	8.95725E-005	5.39641E-002	9.85690E-001	3.57300E+000	9	...........
	158	2.12	9.86882E-001	9.10585E-005	0.00000E+000	8.98640E-005	5.39641E-002	9.87082E-001	3.57300E+000	9	...........
	159	2.13333	9.88273E-001	9.09981E-005	0.00000E+000	8.99309E-005	5.39641E-002	9.88487E-001	3.57300E+000	9	...........
	160	2.14667	9.89640E-001	9.07188E-005	0.00000E+000	8.97790E-005	5.39641E-002	9.89852E-001	3.57300E+000	9	...........
	161	2.16	9.91035E-001	9.10001E-005	0.00000E+000	9.01843E-005	5.39641E-002	9.91224E-001	3.57300E+000	9	...........
	162	2.17333	9.92377E-001	9.10231E-005	0.00000E+000	9.03292E-005	5.39641E-002	9.92589E-001	3.57300E+000	9	...........
	163	2.18667	9.93706E-001	9.09314E-005	0.00000E+000	9.03591E-005	5.39641E-002	9.93921E-001	3.57300E+000	9	...........
	164	2.2	9.95052E-001	9.07897E-005	0.00000E+000	9.03404E-005	5.39641E-002	9.95247E-001	3.57300E+000	9	...........
	165	2.21333	9.96355E-001	9.10241E-005	0.00000E+000	9.06923E-005	5.39641E-002	9.96549E-001	3.57300E+000	9	...........
	166	2.22667	9.97676E-001	9.08626E-005	0.00000E+000	9.06515E-005	5.39641E-002	9.97907E-001	3.57300E+000	9	...........
	167	2.24	9.98954E-001	9.09147E-005	0.00000E+000	9.08196E-005	5.39641E-002	9.99180E-001	3.57280E+000	9	...........
	168	2.245	9.99883E-001	9.09543E-005	0.00000E+000	9.09436E-005	5.39641E-002	1.00009E+000	3.57280E+000	9	...........
STARTTIMEOFFSET	QUANT	2243.528	Start Time Offset (s)
