EXPLAIN
TAG	PWR800_CHARGE
TITLE	LABEL	PWR Cyclic Charge Discharge (Cell) - Charge Step	Test &Identifier
DATE	LABEL	10-7-2017	Date
TIME	LABEL	15:03:44	Time
NOTES	NOTES	3	&Notes...
	supercap test cell
	0.9mg
	6M KOH
PSTAT	PSTAT	IFC5000-01520	Potentiostat
CAPACITY	QUANT	1.00000E-003	Capacity (A-hr)
CELLTYPE	SELECTOR	1	&Cell Type
WORKINGCONNECTION	SELECTOR	0	&Working Lead
MAXCHARGETIME	VARIABLEANDUNITS	1.00000E+002	s	1.00000E+002	second(s)	Max &Charge Time
CHARGECURRENT	QUANT	9.00000E-005	&Charge Current (A) 
VOLTAGEFINISH	TWOPARAM	F	1.00000E-003	3.60000E+003	&Voltage Finish	 I (A) < 	Max Time(s)
SAMPLETIME	QUANT	1.00000E-002	Sa&mple Period (s)
CHARGESTOPAT1	MULTIPARAM	4	1.00000E+000	Charge Stop At &1	Voltage > Limit	V
CHARGESTOPAT2	MULTIPARAM	0	0.00000E+000	Charge Stop At &2	None	N/A
AESBHCSELECTOR	TOGGLE	F	Save Both Half Cells
IRCOMP	TOGGLE	F	IR &Measure
EOC	QUANT	0	Open Circuit (V)
SEQUENCER	TOGGLE	TRUE	Run as Sequence
PSTATMODEL	IQUANT	53	Pstat Model
PSTATSECTION	LABEL	IFC5000-01520	Pstat Section
PSTATSERIALNO	LABEL	01520	Pstat Serial Number
CTRLMODE	IQUANT	0	Control Mode
ELECTROMETER	IQUANT	1	RE=0 or CS=1
IESTAB	IQUANT	0	I/E Stability
CASPEED	IQUANT	4	Control Amp Speed
CONVENTION	IQUANT	1	Current Convention
ICHRANGE	IQUANT	2	Ich Range
ICHRANGEMODE	TOGGLE	T	Ich Auto Range
ICHOFFSETENABLE	TOGGLE	F	Ich Offset Enable
ICHOFFSET	QUANT	0	Ich Offset (V)
ICHFILTER	IQUANT	1	Ich Filter
VCHRANGE	IQUANT	2	Vch Range
VCHRANGEMODE	TOGGLE	T	Vch Auto Range
VCHOFFSETENABLE	TOGGLE	F	Vch Offset Enable
VCHOFFSET	QUANT	0	Vch Offset (V)
VCHFILTER	IQUANT	1	Vch Filter
IERANGELOWERLIMIT	IQUANT	9	I/E Range Lower Limit
IERANGEMODE	TOGGLE	F	I/E AutoRange
IERANGE	IQUANT	9	I/E Range
ACHSELECT	IQUANT	1	Ach Select
ACHRANGE	IQUANT	2	Ach Range
ACHOFFSETENABLE	TOGGLE	F	Ach Offset Enable
ACHOFFSET	QUANT	0	Ach Offset (V)
ACHFILTER	IQUANT	1	Ach Filter
CABLEID	IQUANT	14	Cable ID
DCCALDATE	LABEL	5-7-2017	DC Calibration Date
ACCALDATE	LABEL	12/3/2015	AC Calibration Date
FRAMEWORKVERSION	QUANT	7.01	Framework Version
INSTRUMENTVERSION	LABEL	4.00	Instrument Version
CURVE	TABLE	198
	Pt	T	Vf	Im	Vu	Pwr	Sig	Ach	Temp	IERange	Over
	#	s	V	A	V	W	V	V	deg C	#	bits
	0	0.013333	2.99800E-001	9.11762E-005	0.00000E+000	2.73346E-005	5.39641E-002	2.99841E-001	3.57140E+000	9	...........
	1	0.026667	3.18358E-001	9.11918E-005	0.00000E+000	2.90316E-005	5.39641E-002	3.18382E-001	3.57140E+000	9	...........
	2	0.04	3.35401E-001	9.09855E-005	0.00000E+000	3.05167E-005	5.39641E-002	3.35431E-001	3.57140E+000	9	...........
	3	0.053333	3.51248E-001	9.10835E-005	0.00000E+000	3.19929E-005	5.39641E-002	3.51278E-001	3.57140E+000	9	...........
	4	0.066667	3.66088E-001	9.09491E-005	0.00000E+000	3.32953E-005	5.39641E-002	3.66117E-001	3.57140E+000	9	...........
	5	0.08	3.80055E-001	9.12554E-005	0.00000E+000	3.46821E-005	5.39641E-002	3.80091E-001	3.57140E+000	9	...........
	6	0.093333	3.93302E-001	9.10033E-005	0.00000E+000	3.57918E-005	5.39641E-002	3.93341E-001	3.57140E+000	9	...........
	7	0.106667	4.05888E-001	9.11648E-005	0.00000E+000	3.70027E-005	5.39641E-002	4.05926E-001	3.57140E+000	9	...........
	8	0.12	4.17900E-001	9.11439E-005	0.00000E+000	3.80890E-005	5.39641E-002	4.17947E-001	3.57140E+000	9	...........
	9	0.133333	4.29396E-001	9.11710E-005	0.00000E+000	3.91485E-005	5.39641E-002	4.29440E-001	3.57140E+000	9	...........
	10	0.146667	4.40430E-001	9.11762E-005	0.00000E+000	4.01568E-005	5.39641E-002	4.40473E-001	3.57140E+000	9	...........
	11	0.16	4.51030E-001	9.11377E-005	0.00000E+000	4.11058E-005	5.39641E-002	4.51068E-001	3.57140E+000	9	...........
	12	0.173333	4.61220E-001	9.13304E-005	0.00000E+000	4.21234E-005	5.39641E-002	4.61263E-001	3.57140E+000	9	...........
	13	0.186667	4.71055E-001	9.10283E-005	0.00000E+000	4.28793E-005	5.39641E-002	4.71102E-001	3.57140E+000	9	...........
	14	0.2	4.80564E-001	9.12366E-005	0.00000E+000	4.38450E-005	5.39641E-002	4.80606E-001	3.57140E+000	9	...........
	15	0.213333	4.89765E-001	9.11793E-005	0.00000E+000	4.46565E-005	5.39641E-002	4.89813E-001	3.57140E+000	9	...........
	16	0.226667	4.98674E-001	9.11137E-005	0.00000E+000	4.54361E-005	5.39641E-002	4.98725E-001	3.57140E+000	9	...........
	17	0.24	5.07321E-001	9.10053E-005	0.00000E+000	4.61689E-005	5.39641E-002	5.07370E-001	3.57140E+000	9	...........
	18	0.253333	5.15703E-001	9.11252E-005	0.00000E+000	4.69935E-005	5.39641E-002	5.15751E-001	3.57140E+000	9	...........
	19	0.266667	5.23845E-001	9.10804E-005	0.00000E+000	4.77120E-005	5.39641E-002	5.23900E-001	3.57140E+000	9	...........
	20	0.28	5.31750E-001	9.11054E-005	0.00000E+000	4.84453E-005	5.39641E-002	5.31796E-001	3.57140E+000	9	...........
	21	0.293333	5.39451E-001	9.10470E-005	0.00000E+000	4.91154E-005	5.39641E-002	5.39507E-001	3.57140E+000	9	...........
	22	0.306667	5.46936E-001	9.10960E-005	0.00000E+000	4.98237E-005	5.39641E-002	5.47030E-001	3.57140E+000	9	...........
	23	0.32	5.54258E-001	9.11387E-005	0.00000E+000	5.05143E-005	5.39641E-002	5.54355E-001	3.57140E+000	9	...........
	24	0.333333	5.61428E-001	9.12721E-005	0.00000E+000	5.12427E-005	5.39641E-002	5.61522E-001	3.57140E+000	9	...........
	25	0.346667	5.68409E-001	9.11262E-005	0.00000E+000	5.17969E-005	5.39641E-002	5.68483E-001	3.57140E+000	9	...........
	26	0.36	5.75219E-001	9.10585E-005	0.00000E+000	5.23786E-005	5.39641E-002	5.75287E-001	3.57140E+000	9	...........
	27	0.373333	5.81853E-001	9.07282E-005	0.00000E+000	5.27905E-005	5.39641E-002	5.81928E-001	3.57140E+000	9	...........
	28	0.386667	5.88364E-001	9.12783E-005	0.00000E+000	5.37049E-005	5.39641E-002	5.88443E-001	3.57140E+000	9	...........
	29	0.4	5.94720E-001	9.10220E-005	0.00000E+000	5.41326E-005	5.39641E-002	5.94806E-001	3.57140E+000	9	...........
	30	0.413333	6.00931E-001	9.10335E-005	0.00000E+000	5.47048E-005	5.39641E-002	6.01001E-001	3.57140E+000	9	...........
	31	0.426667	6.06987E-001	9.13325E-005	0.00000E+000	5.54376E-005	5.39641E-002	6.07091E-001	3.57140E+000	9	...........
	32	0.44	6.12960E-001	9.10772E-005	0.00000E+000	5.58267E-005	5.39641E-002	6.13058E-001	3.57140E+000	9	...........
	33	0.453333	6.18831E-001	9.09803E-005	0.00000E+000	5.63015E-005	5.39641E-002	6.18867E-001	3.57140E+000	9	...........
	34	0.466667	6.24551E-001	9.09960E-005	0.00000E+000	5.68316E-005	5.39641E-002	6.24591E-001	3.57140E+000	9	...........
	35	0.48	6.30108E-001	9.11345E-005	0.00000E+000	5.74246E-005	5.39641E-002	6.30187E-001	3.57140E+000	9	...........
	36	0.493333	6.35593E-001	9.10574E-005	0.00000E+000	5.78754E-005	5.39641E-002	6.35683E-001	3.57140E+000	9	...........
	37	0.506667	6.40993E-001	9.10804E-005	0.00000E+000	5.83819E-005	5.39641E-002	6.41086E-001	3.57140E+000	9	...........
	38	0.52	6.46262E-001	9.12314E-005	0.00000E+000	5.89594E-005	5.39641E-002	6.46333E-001	3.57140E+000	9	...........
	39	0.533333	6.51428E-001	9.12283E-005	0.00000E+000	5.94287E-005	5.39641E-002	6.51511E-001	3.57140E+000	9	...........
	40	0.546667	6.56499E-001	9.09116E-005	0.00000E+000	5.96834E-005	5.39641E-002	6.56577E-001	3.57140E+000	9	...........
	41	0.56	6.61441E-001	9.14752E-005	0.00000E+000	6.05055E-005	5.39641E-002	6.61525E-001	3.57140E+000	9	...........
	42	0.573333	6.66350E-001	9.12512E-005	0.00000E+000	6.08053E-005	5.39641E-002	6.66445E-001	3.57140E+000	9	...........
	43	0.586667	6.71171E-001	9.09824E-005	0.00000E+000	6.10647E-005	5.39641E-002	6.71250E-001	3.57140E+000	9	...........
	44	0.6	6.75902E-001	9.12596E-005	0.00000E+000	6.16826E-005	5.39641E-002	6.75975E-001	3.57140E+000	9	...........
	45	0.613333	6.80480E-001	9.13460E-005	0.00000E+000	6.21592E-005	5.39641E-002	6.80584E-001	3.57140E+000	9	...........
	46	0.626667	6.85056E-001	9.12814E-005	0.00000E+000	6.25329E-005	5.39641E-002	6.85107E-001	3.57140E+000	9	...........
	47	0.64	6.89501E-001	9.11272E-005	0.00000E+000	6.28324E-005	5.39641E-002	6.89595E-001	3.57140E+000	9	...........
	48	0.653333	6.93914E-001	9.14221E-005	0.00000E+000	6.34391E-005	5.39641E-002	6.93988E-001	3.57140E+000	9	...........
	49	0.666667	6.98221E-001	9.10397E-005	0.00000E+000	6.35658E-005	5.39641E-002	6.98314E-001	3.57140E+000	9	...........
	50	0.68	7.02475E-001	9.12950E-005	0.00000E+000	6.41324E-005	5.39641E-002	7.02563E-001	3.57140E+000	9	...........
	51	0.693333	7.06664E-001	9.11085E-005	0.00000E+000	6.43831E-005	5.39641E-002	7.06746E-001	3.57140E+000	9	...........
	52	0.706667	7.10745E-001	9.12939E-005	0.00000E+000	6.48867E-005	5.39641E-002	7.10854E-001	3.57140E+000	9	...........
	53	0.72	7.14798E-001	9.12512E-005	0.00000E+000	6.52262E-005	5.39641E-002	7.14925E-001	3.57140E+000	9	...........
	54	0.733333	7.18827E-001	9.11283E-005	0.00000E+000	6.55055E-005	5.39641E-002	7.18934E-001	3.57140E+000	9	...........
	55	0.746667	7.22759E-001	9.12491E-005	0.00000E+000	6.59511E-005	5.39641E-002	7.22849E-001	3.57218E+000	9	...........
	56	0.76	7.26642E-001	9.14117E-005	0.00000E+000	6.64236E-005	5.39641E-002	7.26718E-001	3.57250E+000	9	...........
	57	0.773333	7.30440E-001	9.12221E-005	0.00000E+000	6.66323E-005	5.39641E-002	7.30544E-001	3.57250E+000	9	...........
	58	0.786667	7.34197E-001	9.10324E-005	0.00000E+000	6.68357E-005	5.39641E-002	7.34259E-001	3.57250E+000	9	...........
	59	0.8	7.37888E-001	9.12106E-005	0.00000E+000	6.73032E-005	5.39641E-002	7.37973E-001	3.57250E+000	9	...........
	60	0.813333	7.41514E-001	9.11877E-005	0.00000E+000	6.76170E-005	5.39641E-002	7.41624E-001	3.57250E+000	9	...........
	61	0.826667	7.45153E-001	9.12408E-005	0.00000E+000	6.79884E-005	5.39641E-002	7.45229E-001	3.57250E+000	9	...........
	62	0.84	7.48696E-001	9.13596E-005	0.00000E+000	6.84005E-005	5.39641E-002	7.48755E-001	3.57250E+000	9	...........
	63	0.853333	7.52188E-001	9.09449E-005	0.00000E+000	6.84077E-005	5.39641E-002	7.52256E-001	3.57250E+000	9	...........
	64	0.866667	7.55642E-001	9.12502E-005	0.00000E+000	6.89525E-005	5.39641E-002	7.55706E-001	3.57250E+000	9	...........
	65	0.88	7.59034E-001	9.12408E-005	0.00000E+000	6.92549E-005	5.39641E-002	7.59089E-001	3.57250E+000	9	...........
	66	0.893333	7.62368E-001	9.11762E-005	0.00000E+000	6.95098E-005	5.39641E-002	7.62450E-001	3.57250E+000	9	...........
	67	0.906667	7.65657E-001	9.10199E-005	0.00000E+000	6.96900E-005	5.39641E-002	7.65779E-001	3.57250E+000	9	...........
	68	0.92	7.68956E-001	9.14231E-005	0.00000E+000	7.03003E-005	5.39641E-002	7.69079E-001	3.57250E+000	9	...........
	69	0.933333	7.72206E-001	9.10991E-005	0.00000E+000	7.03472E-005	5.39641E-002	7.72321E-001	3.57250E+000	9	...........
	70	0.946667	7.75387E-001	9.14825E-005	0.00000E+000	7.09343E-005	5.39641E-002	7.75481E-001	3.57250E+000	9	...........
	71	0.96	7.78508E-001	9.10981E-005	0.00000E+000	7.09206E-005	5.39641E-002	7.78607E-001	3.57250E+000	9	...........
	72	0.97333	7.81642E-001	9.10335E-005	0.00000E+000	7.11555E-005	5.39641E-002	7.81729E-001	3.57250E+000	9	...........
	73	0.98667	7.84688E-001	9.13492E-005	0.00000E+000	7.16806E-005	5.39641E-002	7.84770E-001	3.57250E+000	9	...........
	74	1	7.87719E-001	9.11220E-005	0.00000E+000	7.17785E-005	5.39641E-002	7.87787E-001	3.57250E+000	9	...........
	75	1.01333	7.90665E-001	9.14054E-005	0.00000E+000	7.22711E-005	5.39641E-002	7.90766E-001	3.57250E+000	9	...........
	76	1.02667	7.93661E-001	9.11658E-005	0.00000E+000	7.23547E-005	5.39641E-002	7.93722E-001	3.57250E+000	9	...........
	77	1.04	7.96582E-001	9.10137E-005	0.00000E+000	7.24999E-005	5.39641E-002	7.96645E-001	3.57250E+000	9	...........
	78	1.05333	7.99453E-001	9.13637E-005	0.00000E+000	7.30410E-005	5.39641E-002	7.99535E-001	3.57250E+000	9	...........
	79	1.06667	8.02272E-001	9.11002E-005	0.00000E+000	7.30871E-005	5.39641E-002	8.02371E-001	3.57250E+000	9	...........
	80	1.08	8.05097E-001	9.11512E-005	0.00000E+000	7.33855E-005	5.39641E-002	8.05208E-001	3.57250E+000	9	...........
	81	1.09333	8.07861E-001	9.10272E-005	0.00000E+000	7.35374E-005	5.39641E-002	8.07962E-001	3.57250E+000	9	...........
	82	1.10667	8.10617E-001	9.12168E-005	0.00000E+000	7.39419E-005	5.39641E-002	8.10696E-001	3.57250E+000	9	...........
	83	1.12	8.13346E-001	9.11116E-005	0.00000E+000	7.41052E-005	5.39641E-002	8.13437E-001	3.57250E+000	9	...........
	84	1.13333	8.16033E-001	9.12741E-005	0.00000E+000	7.44827E-005	5.39641E-002	8.16146E-001	3.57250E+000	9	...........
	85	1.14667	8.18729E-001	9.13242E-005	0.00000E+000	7.47697E-005	5.39641E-002	8.18843E-001	3.57250E+000	9	...........
	86	1.16	8.21380E-001	9.11085E-005	0.00000E+000	7.48347E-005	5.39641E-002	8.21493E-001	3.57250E+000	9	...........
	87	1.17333	8.23950E-001	9.12335E-005	0.00000E+000	7.51718E-005	5.39641E-002	8.24091E-001	3.57250E+000	9	...........
	88	1.18667	8.26519E-001	9.12127E-005	0.00000E+000	7.53890E-005	5.39641E-002	8.26623E-001	3.57250E+000	9	...........
	89	1.2	8.29022E-001	9.10470E-005	0.00000E+000	7.54799E-005	5.39641E-002	8.29140E-001	3.57250E+000	9	...........
	90	1.21333	8.31538E-001	9.14211E-005	0.00000E+000	7.60200E-005	5.39641E-002	8.31661E-001	3.57250E+000	9	...........
	91	1.22667	8.34015E-001	9.12835E-005	0.00000E+000	7.61318E-005	5.39641E-002	8.34153E-001	3.57250E+000	9	...........
	92	1.24	8.36446E-001	9.13950E-005	0.00000E+000	7.64470E-005	5.39641E-002	8.36600E-001	3.57250E+000	9	...........
	93	1.25333	8.38895E-001	9.13794E-005	0.00000E+000	7.66577E-005	5.39641E-002	8.39022E-001	3.57250E+000	9	...........
	94	1.26667	8.41280E-001	9.10137E-005	0.00000E+000	7.65680E-005	5.39641E-002	8.41428E-001	3.57250E+000	9	...........
	95	1.28	8.43702E-001	9.11970E-005	0.00000E+000	7.69431E-005	5.39641E-002	8.43838E-001	3.57250E+000	9	...........
	96	1.29333	8.46120E-001	9.11606E-005	0.00000E+000	7.71328E-005	5.39641E-002	8.46251E-001	3.57250E+000	9	...........
	97	1.30667	8.48429E-001	9.11085E-005	0.00000E+000	7.72991E-005	5.39641E-002	8.48571E-001	3.57250E+000	9	...........
	98	1.32	8.50743E-001	9.11918E-005	0.00000E+000	7.75809E-005	5.39641E-002	8.50889E-001	3.57250E+000	9	...........
	99	1.33333	8.53047E-001	9.12533E-005	0.00000E+000	7.78433E-005	5.39641E-002	8.53177E-001	3.57250E+000	9	...........
	100	1.34667	8.55320E-001	9.11887E-005	0.00000E+000	7.79955E-005	5.39641E-002	8.55437E-001	3.57250E+000	9	...........
	101	1.36	8.57552E-001	9.14690E-005	0.00000E+000	7.84394E-005	5.39641E-002	8.57708E-001	3.57250E+000	9	...........
	102	1.37333	8.59797E-001	9.12262E-005	0.00000E+000	7.84360E-005	5.39641E-002	8.59927E-001	3.57250E+000	9	...........
	103	1.38667	8.62009E-001	9.12033E-005	0.00000E+000	7.86180E-005	5.39641E-002	8.62128E-001	3.57250E+000	9	...........
	104	1.4	8.64147E-001	9.13721E-005	0.00000E+000	7.89589E-005	5.39641E-002	8.64284E-001	3.57250E+000	9	...........
	105	1.41333	8.66300E-001	9.11397E-005	0.00000E+000	7.89544E-005	5.39641E-002	8.66427E-001	3.57250E+000	9	...........
	106	1.42667	8.68407E-001	9.12221E-005	0.00000E+000	7.92179E-005	5.39641E-002	8.68579E-001	3.57250E+000	9	...........
	107	1.44	8.70572E-001	9.13377E-005	0.00000E+000	7.95160E-005	5.39641E-002	8.70692E-001	3.57250E+000	9	...........
	108	1.45333	8.72640E-001	9.12731E-005	0.00000E+000	7.96486E-005	5.39641E-002	8.72771E-001	3.57250E+000	9	...........
	109	1.46667	8.74692E-001	9.11616E-005	0.00000E+000	7.97384E-005	5.39641E-002	8.74837E-001	3.57250E+000	9	...........
	110	1.48	8.76770E-001	9.12773E-005	0.00000E+000	8.00292E-005	5.39641E-002	8.76914E-001	3.57250E+000	9	...........
	111	1.49333	8.78811E-001	9.11908E-005	0.00000E+000	8.01395E-005	5.39641E-002	8.78944E-001	3.57250E+000	9	...........
	112	1.50667	8.80826E-001	9.14398E-005	0.00000E+000	8.05425E-005	5.39641E-002	8.80973E-001	3.57250E+000	9	...........
	113	1.52	8.82846E-001	9.13377E-005	0.00000E+000	8.06372E-005	5.39641E-002	8.83008E-001	3.57250E+000	9	...........
	114	1.53333	8.84826E-001	9.12648E-005	0.00000E+000	8.07534E-005	5.39641E-002	8.84963E-001	3.57250E+000	9	...........
	115	1.54667	8.86795E-001	9.12043E-005	0.00000E+000	8.08796E-005	5.39641E-002	8.86939E-001	3.57250E+000	9	...........
	116	1.56	8.88749E-001	9.13940E-005	0.00000E+000	8.12263E-005	5.39641E-002	8.88885E-001	3.57250E+000	9	...........
	117	1.57333	8.90646E-001	9.13315E-005	0.00000E+000	8.13440E-005	5.39641E-002	8.90801E-001	3.57250E+000	9	...........
	118	1.58667	8.92561E-001	9.12221E-005	0.00000E+000	8.14213E-005	5.39641E-002	8.92700E-001	3.57250E+000	9	...........
	119	1.6	8.94419E-001	9.08355E-005	0.00000E+000	8.12451E-005	5.39641E-002	8.94585E-001	3.57250E+000	9	...........
	120	1.61333	8.96315E-001	9.13033E-005	0.00000E+000	8.18366E-005	5.39641E-002	8.96479E-001	3.57250E+000	9	...........
	121	1.62667	8.98168E-001	9.12168E-005	0.00000E+000	8.19281E-005	5.39641E-002	8.98297E-001	3.57250E+000	9	...........
	122	1.64	9.00000E-001	9.12273E-005	0.00000E+000	8.21046E-005	5.39641E-002	9.00100E-001	3.57250E+000	9	...........
	123	1.65333	9.01802E-001	9.11533E-005	0.00000E+000	8.22022E-005	5.39641E-002	9.01952E-001	3.57250E+000	9	...........
	124	1.66667	9.03585E-001	9.10866E-005	0.00000E+000	8.23045E-005	5.39641E-002	9.03704E-001	3.57250E+000	9	...........
	125	1.68	9.05351E-001	9.10574E-005	0.00000E+000	8.24389E-005	5.39641E-002	9.05495E-001	3.57250E+000	9	...........
	126	1.69333	9.07108E-001	9.10397E-005	0.00000E+000	8.25829E-005	5.39641E-002	9.07234E-001	3.57250E+000	9	...........
	127	1.70667	9.08869E-001	9.13992E-005	0.00000E+000	8.30698E-005	5.39641E-002	9.09007E-001	3.57250E+000	9	...........
	128	1.72	9.10588E-001	9.12325E-005	0.00000E+000	8.30752E-005	5.39641E-002	9.10735E-001	3.57250E+000	9	...........
	129	1.73333	9.12321E-001	9.11512E-005	0.00000E+000	8.31592E-005	5.39641E-002	9.12445E-001	3.57250E+000	9	...........
	130	1.74667	9.14003E-001	9.13117E-005	0.00000E+000	8.34591E-005	5.39641E-002	9.14164E-001	3.57150E+000	9	...........
	131	1.76	9.15682E-001	9.09803E-005	0.00000E+000	8.33091E-005	5.39641E-002	9.15845E-001	3.57110E+000	9	...........
	132	1.77333	9.17348E-001	9.13481E-005	0.00000E+000	8.37980E-005	5.39641E-002	9.17517E-001	3.57110E+000	9	...........
	133	1.78667	9.19004E-001	9.13960E-005	0.00000E+000	8.39933E-005	5.39641E-002	9.19185E-001	3.57110E+000	9	...........
	134	1.8	9.20705E-001	9.12137E-005	0.00000E+000	8.39810E-005	5.39641E-002	9.20829E-001	3.57110E+000	9	...........
	135	1.81333	9.22355E-001	9.11408E-005	0.00000E+000	8.40641E-005	5.39641E-002	9.22450E-001	3.57110E+000	9	...........
	136	1.82667	9.23989E-001	9.12002E-005	0.00000E+000	8.42680E-005	5.39641E-002	9.24079E-001	3.57110E+000	9	...........
	137	1.84	9.25547E-001	9.11731E-005	0.00000E+000	8.43850E-005	5.39641E-002	9.25658E-001	3.57110E+000	9	...........
	138	1.85333	9.27137E-001	9.13221E-005	0.00000E+000	8.46680E-005	5.39641E-002	9.27257E-001	3.57110E+000	9	...........
	139	1.86667	9.28693E-001	9.13846E-005	0.00000E+000	8.48683E-005	5.39641E-002	9.28820E-001	3.57110E+000	9	...........
	140	1.88	9.30264E-001	9.12627E-005	0.00000E+000	8.48984E-005	5.39641E-002	9.30372E-001	3.57110E+000	9	...........
	141	1.89333	9.31795E-001	9.11179E-005	0.00000E+000	8.49031E-005	5.39641E-002	9.31905E-001	3.57110E+000	9	...........
	142	1.90667	9.33331E-001	9.13169E-005	0.00000E+000	8.52289E-005	5.39641E-002	9.33469E-001	3.57110E+000	9	...........
	143	1.92	9.34874E-001	9.10220E-005	0.00000E+000	8.50942E-005	5.39641E-002	9.35019E-001	3.57110E+000	9	...........
	144	1.93333	9.36376E-001	9.10845E-005	0.00000E+000	8.52894E-005	5.39641E-002	9.36538E-001	3.57110E+000	9	...........
	145	1.94667	9.37831E-001	9.15065E-005	0.00000E+000	8.58176E-005	5.39641E-002	9.37993E-001	3.57110E+000	9	...........
	146	1.96	9.39332E-001	9.13221E-005	0.00000E+000	8.57818E-005	5.39641E-002	9.39478E-001	3.57110E+000	9	...........
	147	1.97333	9.40779E-001	9.11710E-005	0.00000E+000	8.57718E-005	5.39641E-002	9.40915E-001	3.57110E+000	9	...........
	148	1.98667	9.42256E-001	9.12293E-005	0.00000E+000	8.59614E-005	5.39641E-002	9.42376E-001	3.57110E+000	9	...........
	149	2	9.43670E-001	9.13356E-005	0.00000E+000	8.61907E-005	5.39641E-002	9.43801E-001	3.57110E+000	9	...........
	150	2.01333	9.45083E-001	9.11074E-005	0.00000E+000	8.61041E-005	5.39641E-002	9.45211E-001	3.57110E+000	9	...........
	151	2.02667	9.46520E-001	9.12752E-005	0.00000E+000	8.63938E-005	5.39641E-002	9.46670E-001	3.57110E+000	9	...........
	152	2.04	9.47957E-001	9.13835E-005	0.00000E+000	8.66277E-005	5.39641E-002	9.48066E-001	3.57110E+000	9	...........
	153	2.05333	9.49314E-001	9.12023E-005	0.00000E+000	8.65795E-005	5.39641E-002	9.49441E-001	3.57110E+000	9	...........
	154	2.06667	9.50680E-001	9.11523E-005	0.00000E+000	8.66566E-005	5.39641E-002	9.50810E-001	3.57110E+000	9	...........
	155	2.08	9.52027E-001	9.13575E-005	0.00000E+000	8.69748E-005	5.39641E-002	9.52178E-001	3.57110E+000	9	...........
	156	2.09333	9.53408E-001	9.14033E-005	0.00000E+000	8.71446E-005	5.39641E-002	9.53521E-001	3.57110E+000	9	...........
	157	2.10667	9.54736E-001	9.12491E-005	0.00000E+000	8.71188E-005	5.39641E-002	9.54845E-001	3.57110E+000	9	...........
	158	2.12	9.56081E-001	9.12481E-005	0.00000E+000	8.72406E-005	5.39641E-002	9.56181E-001	3.57110E+000	9	...........
	159	2.13333	9.57355E-001	9.13387E-005	0.00000E+000	8.74436E-005	5.39641E-002	9.57478E-001	3.57110E+000	9	...........
	160	2.14667	9.58667E-001	9.14158E-005	0.00000E+000	8.76374E-005	5.39641E-002	9.58798E-001	3.57110E+000	9	...........
	161	2.16	9.59941E-001	9.09855E-005	0.00000E+000	8.73408E-005	5.39641E-002	9.60085E-001	3.57110E+000	9	...........
	162	2.17333	9.61210E-001	9.09564E-005	0.00000E+000	8.74282E-005	5.39641E-002	9.61361E-001	3.57110E+000	9	...........
	163	2.18667	9.62486E-001	9.12491E-005	0.00000E+000	8.78260E-005	5.39641E-002	9.62636E-001	3.57110E+000	9	...........
	164	2.2	9.63768E-001	9.12075E-005	0.00000E+000	8.79028E-005	5.39641E-002	9.63918E-001	3.57110E+000	9	...........
	165	2.21333	9.65003E-001	9.13044E-005	0.00000E+000	8.81090E-005	5.39641E-002	9.65146E-001	3.57110E+000	9	...........
	166	2.22667	9.66247E-001	9.09814E-005	0.00000E+000	8.79105E-005	5.39641E-002	9.66413E-001	3.57110E+000	9	...........
	167	2.24	9.67483E-001	9.12950E-005	0.00000E+000	8.83263E-005	5.39641E-002	9.67651E-001	3.57110E+000	9	...........
	168	2.25333	9.68692E-001	9.11835E-005	0.00000E+000	8.83287E-005	5.39641E-002	9.68869E-001	3.57110E+000	9	...........
	169	2.26667	9.69885E-001	9.12981E-005	0.00000E+000	8.85487E-005	5.39641E-002	9.70096E-001	3.57110E+000	9	...........
	170	2.28	9.71085E-001	9.11939E-005	0.00000E+000	8.85571E-005	5.39641E-002	9.71304E-001	3.57110E+000	9	...........
	171	2.29333	9.72295E-001	9.11898E-005	0.00000E+000	8.86633E-005	5.39641E-002	9.72491E-001	3.57110E+000	9	...........
	172	2.30667	9.73506E-001	9.12127E-005	0.00000E+000	8.87961E-005	5.39641E-002	9.73665E-001	3.57110E+000	9	...........
	173	2.32	9.74675E-001	9.11929E-005	0.00000E+000	8.88835E-005	5.39641E-002	9.74835E-001	3.57110E+000	9	...........
	174	2.33333	9.75835E-001	9.11220E-005	0.00000E+000	8.89200E-005	5.39641E-002	9.76009E-001	3.57110E+000	9	...........
	175	2.34667	9.76983E-001	9.15930E-005	0.00000E+000	8.94847E-005	5.39641E-002	9.77153E-001	3.57110E+000	9	...........
	176	2.36	9.78127E-001	9.11564E-005	0.00000E+000	8.91625E-005	5.39641E-002	9.78293E-001	3.57110E+000	9	...........
	177	2.37333	9.79260E-001	9.12262E-005	0.00000E+000	8.93341E-005	5.39641E-002	9.79438E-001	3.57110E+000	9	...........
	178	2.38667	9.80400E-001	9.11658E-005	0.00000E+000	8.93789E-005	5.39641E-002	9.80555E-001	3.57110E+000	9	...........
	179	2.4	9.81513E-001	9.12168E-005	0.00000E+000	8.95305E-005	5.39641E-002	9.81671E-001	3.57110E+000	9	...........
	180	2.41333	9.82600E-001	9.11981E-005	0.00000E+000	8.96112E-005	5.39641E-002	9.82770E-001	3.57110E+000	9	...........
	181	2.42667	9.83697E-001	9.12585E-005	0.00000E+000	8.97708E-005	5.39641E-002	9.83864E-001	3.57110E+000	9	...........
	182	2.44	9.84765E-001	9.10585E-005	0.00000E+000	8.96712E-005	5.39641E-002	9.84947E-001	3.57110E+000	9	...........
	183	2.45333	9.85835E-001	9.13752E-005	0.00000E+000	9.00808E-005	5.39641E-002	9.86031E-001	3.57110E+000	9	...........
	184	2.46667	9.86937E-001	9.15242E-005	0.00000E+000	9.03287E-005	5.39641E-002	9.87101E-001	3.57110E+000	9	...........
	185	2.48	9.87978E-001	9.12148E-005	0.00000E+000	9.01182E-005	5.39641E-002	9.88161E-001	3.57110E+000	9	...........
	186	2.49333	9.89036E-001	9.15700E-005	0.00000E+000	9.05660E-005	5.39641E-002	9.89211E-001	3.57110E+000	9	...........
	187	2.50667	9.90067E-001	9.14179E-005	0.00000E+000	9.05099E-005	5.39641E-002	9.90242E-001	3.57110E+000	9	...........
	188	2.52	9.91104E-001	9.12304E-005	0.00000E+000	9.04188E-005	5.39641E-002	9.91261E-001	3.57110E+000	9	...........
	189	2.53333	9.92116E-001	9.11991E-005	0.00000E+000	9.04801E-005	5.39641E-002	9.92287E-001	3.57110E+000	9	...........
	190	2.54667	9.93141E-001	9.10053E-005	0.00000E+000	9.03811E-005	5.39641E-002	9.93309E-001	3.57110E+000	9	...........
	191	2.56	9.94128E-001	9.10626E-005	0.00000E+000	9.05279E-005	5.39641E-002	9.94321E-001	3.57110E+000	9	...........
	192	2.57333	9.95153E-001	9.11595E-005	0.00000E+000	9.07177E-005	5.39641E-002	9.95311E-001	3.57110E+000	9	...........
	193	2.58667	9.96155E-001	9.13908E-005	0.00000E+000	9.10394E-005	5.39641E-002	9.96296E-001	3.57110E+000	9	...........
	194	2.6	9.97127E-001	9.09981E-005	0.00000E+000	9.07367E-005	5.39641E-002	9.97311E-001	3.57110E+000	9	...........
	195	2.61333	9.98139E-001	9.12814E-005	0.00000E+000	9.11116E-005	5.39641E-002	9.98294E-001	3.57110E+000	9	...........
	196	2.62667	9.99073E-001	9.13856E-005	0.00000E+000	9.13009E-005	5.39641E-002	9.99255E-001	3.57110E+000	9	...........
	197	2.635	9.99848E-001	9.10676E-005	0.00000E+000	9.10538E-005	5.39641E-002	1.00006E+000	3.57110E+000	9	...........
STARTTIMEOFFSET	QUANT	227.5067	Start Time Offset (s)
