EXPLAIN
TAG	PWR800_CHARGE
TITLE	LABEL	PWR Cyclic Charge Discharge (Cell) - Charge Step	Test &Identifier
DATE	LABEL	10-7-2017	Date
TIME	LABEL	16:01:29	Time
NOTES	NOTES	3	&Notes...
	supercap test cell
	0.9mg
	6M KOH
PSTAT	PSTAT	IFC5000-01520	Potentiostat
CAPACITY	QUANT	1.00000E-003	Capacity (A-hr)
CELLTYPE	SELECTOR	1	&Cell Type
WORKINGCONNECTION	SELECTOR	0	&Working Lead
MAXCHARGETIME	VARIABLEANDUNITS	1.00000E+002	s	1.00000E+002	second(s)	Max &Charge Time
CHARGECURRENT	QUANT	9.00000E-005	&Charge Current (A) 
VOLTAGEFINISH	TWOPARAM	F	1.00000E-003	3.60000E+003	&Voltage Finish	 I (A) < 	Max Time(s)
SAMPLETIME	QUANT	1.00000E-002	Sa&mple Period (s)
CHARGESTOPAT1	MULTIPARAM	4	1.00000E+000	Charge Stop At &1	Voltage > Limit	V
CHARGESTOPAT2	MULTIPARAM	0	0.00000E+000	Charge Stop At &2	None	N/A
AESBHCSELECTOR	TOGGLE	F	Save Both Half Cells
IRCOMP	TOGGLE	F	IR &Measure
EOC	QUANT	0	Open Circuit (V)
SEQUENCER	TOGGLE	TRUE	Run as Sequence
PSTATMODEL	IQUANT	53	Pstat Model
PSTATSECTION	LABEL	IFC5000-01520	Pstat Section
PSTATSERIALNO	LABEL	01520	Pstat Serial Number
CTRLMODE	IQUANT	0	Control Mode
ELECTROMETER	IQUANT	1	RE=0 or CS=1
IESTAB	IQUANT	0	I/E Stability
CASPEED	IQUANT	4	Control Amp Speed
CONVENTION	IQUANT	1	Current Convention
ICHRANGE	IQUANT	2	Ich Range
ICHRANGEMODE	TOGGLE	T	Ich Auto Range
ICHOFFSETENABLE	TOGGLE	F	Ich Offset Enable
ICHOFFSET	QUANT	0	Ich Offset (V)
ICHFILTER	IQUANT	1	Ich Filter
VCHRANGE	IQUANT	2	Vch Range
VCHRANGEMODE	TOGGLE	T	Vch Auto Range
VCHOFFSETENABLE	TOGGLE	F	Vch Offset Enable
VCHOFFSET	QUANT	0	Vch Offset (V)
VCHFILTER	IQUANT	1	Vch Filter
IERANGELOWERLIMIT	IQUANT	9	I/E Range Lower Limit
IERANGEMODE	TOGGLE	F	I/E AutoRange
IERANGE	IQUANT	9	I/E Range
ACHSELECT	IQUANT	1	Ach Select
ACHRANGE	IQUANT	2	Ach Range
ACHOFFSETENABLE	TOGGLE	F	Ach Offset Enable
ACHOFFSET	QUANT	0	Ach Offset (V)
ACHFILTER	IQUANT	1	Ach Filter
CABLEID	IQUANT	14	Cable ID
DCCALDATE	LABEL	5-7-2017	DC Calibration Date
ACCALDATE	LABEL	12/3/2015	AC Calibration Date
FRAMEWORKVERSION	QUANT	7.01	Framework Version
INSTRUMENTVERSION	LABEL	4.00	Instrument Version
CURVE	TABLE	164
	Pt	T	Vf	Im	Vu	Pwr	Sig	Ach	Temp	IERange	Over
	#	s	V	A	V	W	V	V	deg C	#	bits
	0	0.013333	2.66828E-001	9.08574E-005	0.00000E+000	2.42433E-005	5.39641E-002	2.66869E-001	3.57290E+000	9	...........
	1	0.026667	2.86593E-001	9.07345E-005	0.00000E+000	2.60039E-005	5.39641E-002	2.86627E-001	3.57290E+000	9	...........
	2	0.04	3.05123E-001	9.10533E-005	0.00000E+000	2.77825E-005	5.39641E-002	3.05161E-001	3.57290E+000	9	...........
	3	0.053333	3.22577E-001	9.10658E-005	0.00000E+000	2.93758E-005	5.39641E-002	3.22612E-001	3.57290E+000	9	...........
	4	0.066667	3.39086E-001	9.10804E-005	0.00000E+000	3.08840E-005	5.39641E-002	3.39117E-001	3.57290E+000	9	...........
	5	0.08	3.54731E-001	9.08814E-005	0.00000E+000	3.22384E-005	5.39641E-002	3.54776E-001	3.57290E+000	9	...........
	6	0.093333	3.69617E-001	9.09928E-005	0.00000E+000	3.36325E-005	5.39641E-002	3.69660E-001	3.57290E+000	9	...........
	7	0.106667	3.83789E-001	9.09720E-005	0.00000E+000	3.49141E-005	5.39641E-002	3.83834E-001	3.57290E+000	9	...........
	8	0.12	3.97310E-001	9.09855E-005	0.00000E+000	3.61495E-005	5.39641E-002	3.97359E-001	3.57290E+000	9	...........
	9	0.133333	4.10235E-001	9.11606E-005	0.00000E+000	3.73972E-005	5.39641E-002	4.10288E-001	3.57290E+000	9	...........
	10	0.146667	4.22622E-001	9.12491E-005	0.00000E+000	3.85639E-005	5.39641E-002	4.22678E-001	3.57290E+000	9	...........
	11	0.16	4.34513E-001	9.09887E-005	0.00000E+000	3.95358E-005	5.39641E-002	4.34567E-001	3.57290E+000	9	...........
	12	0.173333	4.45937E-001	9.14481E-005	0.00000E+000	4.07801E-005	5.39641E-002	4.45993E-001	3.57290E+000	9	...........
	13	0.186667	4.56924E-001	9.09012E-005	0.00000E+000	4.15349E-005	5.39641E-002	4.56982E-001	3.57290E+000	9	...........
	14	0.2	4.67504E-001	9.10283E-005	0.00000E+000	4.25561E-005	5.39641E-002	4.67563E-001	3.57290E+000	9	...........
	15	0.213333	4.77717E-001	9.09532E-005	0.00000E+000	4.34499E-005	5.39641E-002	4.77779E-001	3.57290E+000	9	...........
	16	0.226667	4.87583E-001	9.08355E-005	0.00000E+000	4.42899E-005	5.39641E-002	4.87647E-001	3.57290E+000	9	...........
	17	0.24	4.97129E-001	9.11908E-005	0.00000E+000	4.53336E-005	5.39641E-002	4.97200E-001	3.57290E+000	9	...........
	18	0.253333	5.06357E-001	9.10126E-005	0.00000E+000	4.60849E-005	5.39641E-002	5.06423E-001	3.57290E+000	9	...........
	19	0.266667	5.15306E-001	9.10762E-005	0.00000E+000	4.69321E-005	5.39641E-002	5.15378E-001	3.57290E+000	9	...........
	20	0.28	5.23984E-001	9.08782E-005	0.00000E+000	4.76188E-005	5.39641E-002	5.24062E-001	3.57290E+000	9	...........
	21	0.293333	5.32366E-001	9.09053E-005	0.00000E+000	4.83949E-005	5.39641E-002	5.32431E-001	3.57290E+000	9	...........
	22	0.306667	5.40471E-001	9.10637E-005	0.00000E+000	4.92173E-005	5.39641E-002	5.40591E-001	3.57290E+000	9	...........
	23	0.32	5.48430E-001	9.10178E-005	0.00000E+000	4.99169E-005	5.39641E-002	5.48550E-001	3.57290E+000	9	...........
	24	0.333333	5.56176E-001	9.08439E-005	0.00000E+000	5.05251E-005	5.39641E-002	5.56304E-001	3.57290E+000	9	...........
	25	0.346667	5.63729E-001	9.10783E-005	0.00000E+000	5.13434E-005	5.39641E-002	5.63861E-001	3.57290E+000	9	...........
	26	0.36	5.71116E-001	9.08574E-005	0.00000E+000	5.18901E-005	5.39641E-002	5.71177E-001	3.57290E+000	9	...........
	27	0.373333	5.78256E-001	9.07918E-005	0.00000E+000	5.25009E-005	5.39641E-002	5.78373E-001	3.57290E+000	9	...........
	28	0.386667	5.85223E-001	9.12221E-005	0.00000E+000	5.33852E-005	5.39641E-002	5.85331E-001	3.57290E+000	9	...........
	29	0.4	5.92071E-001	9.10418E-005	0.00000E+000	5.39033E-005	5.39641E-002	5.92181E-001	3.57290E+000	9	...........
	30	0.413333	5.98719E-001	9.10439E-005	0.00000E+000	5.45097E-005	5.39641E-002	5.98825E-001	3.57290E+000	9	...........
	31	0.426667	6.05230E-001	9.08397E-005	0.00000E+000	5.49789E-005	5.39641E-002	6.05336E-001	3.57290E+000	9	...........
	32	0.44	6.11596E-001	9.08887E-005	0.00000E+000	5.55872E-005	5.39641E-002	6.11718E-001	3.57290E+000	9	...........
	33	0.453333	6.17890E-001	9.09230E-005	0.00000E+000	5.61804E-005	5.39641E-002	6.17979E-001	3.57290E+000	9	...........
	34	0.466667	6.23978E-001	9.09960E-005	0.00000E+000	5.67795E-005	5.39641E-002	6.24054E-001	3.57290E+000	9	...........
	35	0.48	6.29949E-001	9.11262E-005	0.00000E+000	5.74049E-005	5.39641E-002	6.30059E-001	3.57290E+000	9	...........
	36	0.493333	6.35776E-001	9.10116E-005	0.00000E+000	5.78630E-005	5.39641E-002	6.35891E-001	3.57290E+000	9	...........
	37	0.506667	6.41549E-001	9.11200E-005	0.00000E+000	5.84579E-005	5.39641E-002	6.41658E-001	3.57290E+000	9	...........
	38	0.52	6.47183E-001	9.08939E-005	0.00000E+000	5.88250E-005	5.39641E-002	6.47273E-001	3.57290E+000	9	...........
	39	0.533333	6.52701E-001	9.10939E-005	0.00000E+000	5.94571E-005	5.39641E-002	6.52807E-001	3.57290E+000	9	...........
	40	0.546667	6.58125E-001	9.11095E-005	0.00000E+000	5.99614E-005	5.39641E-002	6.58224E-001	3.57290E+000	9	...........
	41	0.56	6.63449E-001	9.09355E-005	0.00000E+000	6.03311E-005	5.39641E-002	6.63563E-001	3.57290E+000	9	...........
	42	0.573333	6.68742E-001	9.09470E-005	0.00000E+000	6.08201E-005	5.39641E-002	6.68812E-001	3.57290E+000	9	...........
	43	0.586667	6.73879E-001	9.11877E-005	0.00000E+000	6.14495E-005	5.39641E-002	6.73958E-001	3.57290E+000	9	...........
	44	0.6	6.78927E-001	9.08626E-005	0.00000E+000	6.16891E-005	5.39641E-002	6.79049E-001	3.57290E+000	9	...........
	45	0.613333	6.83895E-001	9.10783E-005	0.00000E+000	6.22880E-005	5.39641E-002	6.84000E-001	3.57290E+000	9	...........
	46	0.626667	6.88821E-001	9.10626E-005	0.00000E+000	6.27259E-005	5.39641E-002	6.88922E-001	3.57290E+000	9	...........
	47	0.64	6.93700E-001	9.08501E-005	0.00000E+000	6.30227E-005	5.39641E-002	6.93780E-001	3.57290E+000	9	...........
	48	0.653333	6.98431E-001	9.10595E-005	0.00000E+000	6.35988E-005	5.39641E-002	6.98549E-001	3.57290E+000	9	...........
	49	0.666667	7.03145E-001	9.08470E-005	0.00000E+000	6.38786E-005	5.39641E-002	7.03214E-001	3.57290E+000	9	...........
	50	0.68	7.07750E-001	9.12273E-005	0.00000E+000	6.45661E-005	5.39641E-002	7.07851E-001	3.57392E+000	9	...........
	51	0.693333	7.12302E-001	9.10616E-005	0.00000E+000	6.48634E-005	5.39641E-002	7.12369E-001	3.57400E+000	9	...........
	52	0.706667	7.16796E-001	9.10210E-005	0.00000E+000	6.52435E-005	5.39641E-002	7.16881E-001	3.57400E+000	9	...........
	53	0.72	7.21246E-001	9.09803E-005	0.00000E+000	6.56192E-005	5.39641E-002	7.21318E-001	3.57400E+000	9	...........
	54	0.733333	7.25610E-001	9.11356E-005	0.00000E+000	6.61289E-005	5.39641E-002	7.25686E-001	3.57400E+000	9	...........
	55	0.746667	7.29889E-001	9.10387E-005	0.00000E+000	6.64481E-005	5.39641E-002	7.30014E-001	3.57400E+000	9	...........
	56	0.76	7.34125E-001	9.11825E-005	0.00000E+000	6.69393E-005	5.39641E-002	7.34261E-001	3.57400E+000	9	...........
	57	0.773333	7.38304E-001	9.08136E-005	0.00000E+000	6.70481E-005	5.39641E-002	7.38433E-001	3.57400E+000	9	...........
	58	0.786667	7.42461E-001	9.11648E-005	0.00000E+000	6.76863E-005	5.39641E-002	7.42594E-001	3.57400E+000	9	...........
	59	0.8	7.46527E-001	9.08564E-005	0.00000E+000	6.78267E-005	5.39641E-002	7.46662E-001	3.57400E+000	9	...........
	60	0.813333	7.50533E-001	9.09741E-005	0.00000E+000	6.82790E-005	5.39641E-002	7.50662E-001	3.57400E+000	9	...........
	61	0.826667	7.54498E-001	9.11970E-005	0.00000E+000	6.88080E-005	5.39641E-002	7.54640E-001	3.57400E+000	9	...........
	62	0.84	7.58432E-001	9.08386E-005	0.00000E+000	6.88949E-005	5.39641E-002	7.58547E-001	3.57400E+000	9	...........
	63	0.853333	7.62327E-001	9.11418E-005	0.00000E+000	6.94799E-005	5.39641E-002	7.62440E-001	3.57400E+000	9	...........
	64	0.866667	7.66148E-001	9.11137E-005	0.00000E+000	6.98066E-005	5.39641E-002	7.66312E-001	3.57400E+000	9	...........
	65	0.88	7.69957E-001	9.08095E-005	0.00000E+000	6.99194E-005	5.39641E-002	7.70126E-001	3.57400E+000	9	...........
	66	0.893333	7.73699E-001	9.11137E-005	0.00000E+000	7.04945E-005	5.39641E-002	7.73870E-001	3.57400E+000	9	...........
	67	0.906667	7.77395E-001	9.11345E-005	0.00000E+000	7.08475E-005	5.39641E-002	7.77556E-001	3.57400E+000	9	...........
	68	0.92	7.81053E-001	9.11877E-005	0.00000E+000	7.12224E-005	5.39641E-002	7.81224E-001	3.57400E+000	9	...........
	69	0.933333	7.84678E-001	9.12502E-005	0.00000E+000	7.16020E-005	5.39641E-002	7.84812E-001	3.57400E+000	9	...........
	70	0.946667	7.88270E-001	9.11856E-005	0.00000E+000	7.18789E-005	5.39641E-002	7.88386E-001	3.57400E+000	9	...........
	71	0.96	7.91800E-001	9.08303E-005	0.00000E+000	7.19195E-005	5.39641E-002	7.91950E-001	3.57400E+000	9	...........
	72	0.97333	7.95354E-001	9.11877E-005	0.00000E+000	7.25265E-005	5.39641E-002	7.95482E-001	3.57400E+000	9	...........
	73	0.98667	7.98813E-001	9.09147E-005	0.00000E+000	7.26238E-005	5.39641E-002	7.98912E-001	3.57400E+000	9	...........
	74	1	8.02229E-001	9.08762E-005	0.00000E+000	7.29035E-005	5.39641E-002	8.02355E-001	3.57400E+000	9	...........
	75	1.01333	8.05619E-001	9.10158E-005	0.00000E+000	7.33240E-005	5.39641E-002	8.05756E-001	3.57400E+000	9	...........
	76	1.02667	8.08969E-001	9.10418E-005	0.00000E+000	7.36500E-005	5.39641E-002	8.09117E-001	3.57400E+000	9	...........
	77	1.04	8.12288E-001	9.08814E-005	0.00000E+000	7.38218E-005	5.39641E-002	8.12433E-001	3.57400E+000	9	...........
	78	1.05333	8.15577E-001	9.11491E-005	0.00000E+000	7.43391E-005	5.39641E-002	8.15727E-001	3.57400E+000	9	...........
	79	1.06667	8.18862E-001	9.11085E-005	0.00000E+000	7.46052E-005	5.39641E-002	8.19006E-001	3.57400E+000	9	...........
	80	1.08	8.22087E-001	9.08626E-005	0.00000E+000	7.46969E-005	5.39641E-002	8.22227E-001	3.57400E+000	9	...........
	81	1.09333	8.25280E-001	9.10064E-005	0.00000E+000	7.51058E-005	5.39641E-002	8.25418E-001	3.57400E+000	9	...........
	82	1.10667	8.28413E-001	9.11731E-005	0.00000E+000	7.55289E-005	5.39641E-002	8.28543E-001	3.57400E+000	9	...........
	83	1.12	8.31553E-001	9.10637E-005	0.00000E+000	7.57242E-005	5.39641E-002	8.31678E-001	3.57400E+000	9	...........
	84	1.13333	8.34604E-001	9.10522E-005	0.00000E+000	7.59925E-005	5.39641E-002	8.34770E-001	3.57400E+000	9	...........
	85	1.14667	8.37651E-001	9.09835E-005	0.00000E+000	7.62124E-005	5.39641E-002	8.37816E-001	3.57400E+000	9	...........
	86	1.16	8.40671E-001	9.09970E-005	0.00000E+000	7.64985E-005	5.39641E-002	8.40858E-001	3.57400E+000	9	...........
	87	1.17333	8.43684E-001	9.09220E-005	0.00000E+000	7.67095E-005	5.39641E-002	8.43834E-001	3.57400E+000	9	...........
	88	1.18667	8.46651E-001	9.08793E-005	0.00000E+000	7.69430E-005	5.39641E-002	8.46812E-001	3.57400E+000	9	...........
	89	1.2	8.49578E-001	9.09335E-005	0.00000E+000	7.72551E-005	5.39641E-002	8.49757E-001	3.57400E+000	9	...........
	90	1.21333	8.52468E-001	9.11804E-005	0.00000E+000	7.77283E-005	5.39641E-002	8.52643E-001	3.57400E+000	9	...........
	91	1.22667	8.55305E-001	9.11127E-005	0.00000E+000	7.79291E-005	5.39641E-002	8.55496E-001	3.57400E+000	9	...........
	92	1.24	8.58134E-001	9.11012E-005	0.00000E+000	7.81770E-005	5.39641E-002	8.58323E-001	3.57400E+000	9	...........
	93	1.25333	8.60932E-001	9.10866E-005	0.00000E+000	7.84194E-005	5.39641E-002	8.61116E-001	3.57400E+000	9	...........
	94	1.26667	8.63727E-001	9.12502E-005	0.00000E+000	7.88152E-005	5.39641E-002	8.63903E-001	3.57400E+000	9	...........
	95	1.28	8.66485E-001	9.08834E-005	0.00000E+000	7.87492E-005	5.39641E-002	8.66681E-001	3.57400E+000	9	...........
	96	1.29333	8.69250E-001	9.10001E-005	0.00000E+000	7.91019E-005	5.39641E-002	8.69428E-001	3.57400E+000	9	...........
	97	1.30667	8.71964E-001	9.10376E-005	0.00000E+000	7.93815E-005	5.39641E-002	8.72141E-001	3.57400E+000	9	...........
	98	1.32	8.74632E-001	9.12033E-005	0.00000E+000	7.97693E-005	5.39641E-002	8.74843E-001	3.57400E+000	9	...........
	99	1.33333	8.77273E-001	9.07928E-005	0.00000E+000	7.96501E-005	5.39641E-002	8.77446E-001	3.57400E+000	9	...........
	100	1.34667	8.79867E-001	9.09022E-005	0.00000E+000	7.99818E-005	5.39641E-002	8.80047E-001	3.57400E+000	9	...........
	101	1.36	8.82461E-001	9.10272E-005	0.00000E+000	8.03280E-005	5.39641E-002	8.82663E-001	3.57400E+000	9	...........
	102	1.37333	8.85012E-001	9.10939E-005	0.00000E+000	8.06192E-005	5.39641E-002	8.85204E-001	3.57400E+000	9	...........
	103	1.38667	8.87542E-001	9.08678E-005	0.00000E+000	8.06490E-005	5.39641E-002	8.87745E-001	3.57400E+000	9	...........
	104	1.4	8.90024E-001	9.08803E-005	0.00000E+000	8.08857E-005	5.39641E-002	8.90209E-001	3.57400E+000	9	...........
	105	1.41333	8.92483E-001	9.09137E-005	0.00000E+000	8.11389E-005	5.39641E-002	8.92660E-001	3.57400E+000	9	...........
	106	1.42667	8.94926E-001	9.08459E-005	0.00000E+000	8.13004E-005	5.39641E-002	8.95142E-001	3.57400E+000	9	...........
	107	1.44	8.97363E-001	9.11470E-005	0.00000E+000	8.17920E-005	5.39641E-002	8.97578E-001	3.57400E+000	9	...........
	108	1.45333	8.99773E-001	9.10199E-005	0.00000E+000	8.18973E-005	5.39641E-002	8.99983E-001	3.57400E+000	9	...........
	109	1.46667	9.02140E-001	9.07990E-005	0.00000E+000	8.19134E-005	5.39641E-002	9.02352E-001	3.57400E+000	9	...........
	110	1.48	9.04509E-001	9.07667E-005	0.00000E+000	8.20994E-005	5.39641E-002	9.04692E-001	3.57400E+000	9	...........
	111	1.49333	9.06839E-001	9.08230E-005	0.00000E+000	8.23619E-005	5.39641E-002	9.07058E-001	3.57400E+000	9	...........
	112	1.50667	9.09197E-001	9.09751E-005	0.00000E+000	8.27144E-005	5.39641E-002	9.09398E-001	3.57400E+000	9	...........
	113	1.52	9.11490E-001	9.10887E-005	0.00000E+000	8.30264E-005	5.39641E-002	9.11674E-001	3.57400E+000	9	...........
	114	1.53333	9.13760E-001	9.08459E-005	0.00000E+000	8.30114E-005	5.39641E-002	9.13944E-001	3.57400E+000	9	...........
	115	1.54667	9.15984E-001	9.10970E-005	0.00000E+000	8.34434E-005	5.39641E-002	9.16194E-001	3.57400E+000	9	...........
	116	1.56	9.18181E-001	9.10262E-005	0.00000E+000	8.35785E-005	5.39641E-002	9.18388E-001	3.57400E+000	9	...........
	117	1.57333	9.20433E-001	9.11773E-005	0.00000E+000	8.39225E-005	5.39641E-002	9.20607E-001	3.57400E+000	9	...........
	118	1.58667	9.22639E-001	9.09449E-005	0.00000E+000	8.39093E-005	5.39641E-002	9.22782E-001	3.57400E+000	9	...........
	119	1.6	9.24751E-001	9.10887E-005	0.00000E+000	8.42343E-005	5.39641E-002	9.24935E-001	3.57400E+000	9	...........
	120	1.61333	9.26860E-001	9.07595E-005	0.00000E+000	8.41213E-005	5.39641E-002	9.27038E-001	3.57400E+000	9	...........
	121	1.62667	9.28940E-001	9.12377E-005	0.00000E+000	8.47543E-005	5.39641E-002	9.29135E-001	3.57400E+000	9	...........
	122	1.64	9.31032E-001	9.11908E-005	0.00000E+000	8.49015E-005	5.39641E-002	9.31200E-001	3.57400E+000	9	...........
	123	1.65333	9.33060E-001	9.10293E-005	0.00000E+000	8.49358E-005	5.39641E-002	9.33269E-001	3.57400E+000	9	...........
	124	1.66667	9.35130E-001	9.09480E-005	0.00000E+000	8.50482E-005	5.39641E-002	9.35285E-001	3.57400E+000	9	...........
	125	1.68	9.37112E-001	9.10397E-005	0.00000E+000	8.53144E-005	5.39641E-002	9.37313E-001	3.57270E+000	9	...........
	126	1.69333	9.39075E-001	9.09918E-005	0.00000E+000	8.54481E-005	5.39641E-002	9.39291E-001	3.57260E+000	9	...........
	127	1.70667	9.41052E-001	9.10929E-005	0.00000E+000	8.57231E-005	5.39641E-002	9.41220E-001	3.57260E+000	9	...........
	128	1.72	9.42976E-001	9.09376E-005	0.00000E+000	8.57520E-005	5.39641E-002	9.43168E-001	3.57260E+000	9	...........
	129	1.73333	9.44882E-001	9.10824E-005	0.00000E+000	8.60622E-005	5.39641E-002	9.45078E-001	3.57260E+000	9	...........
	130	1.74667	9.46830E-001	9.12689E-005	0.00000E+000	8.64162E-005	5.39641E-002	9.47018E-001	3.57260E+000	9	...........
	131	1.76	9.48716E-001	9.10626E-005	0.00000E+000	8.63926E-005	5.39641E-002	9.48888E-001	3.57260E+000	9	...........
	132	1.77333	9.50565E-001	9.11710E-005	0.00000E+000	8.66640E-005	5.39641E-002	9.50739E-001	3.57260E+000	9	...........
	133	1.78667	9.52407E-001	9.09428E-005	0.00000E+000	8.66146E-005	5.39641E-002	9.52580E-001	3.57260E+000	9	...........
	134	1.8	9.54229E-001	9.11783E-005	0.00000E+000	8.70050E-005	5.39641E-002	9.54396E-001	3.57260E+000	9	...........
	135	1.81333	9.56037E-001	9.08605E-005	0.00000E+000	8.68660E-005	5.39641E-002	9.56198E-001	3.57260E+000	9	...........
	136	1.82667	9.57807E-001	9.10335E-005	0.00000E+000	8.71925E-005	5.39641E-002	9.57986E-001	3.57260E+000	9	...........
	137	1.84	9.59606E-001	9.11429E-005	0.00000E+000	8.74613E-005	5.39641E-002	9.59801E-001	3.57260E+000	9	...........
	138	1.85333	9.61380E-001	9.08793E-005	0.00000E+000	8.73696E-005	5.39641E-002	9.61574E-001	3.57260E+000	9	...........
	139	1.86667	9.63115E-001	9.13710E-005	0.00000E+000	8.80008E-005	5.39641E-002	9.63313E-001	3.57260E+000	9	...........
	140	1.88	9.64841E-001	9.10408E-005	0.00000E+000	8.78398E-005	5.39641E-002	9.65030E-001	3.57260E+000	9	...........
	141	1.89333	9.66541E-001	9.10731E-005	0.00000E+000	8.80259E-005	5.39641E-002	9.66725E-001	3.57260E+000	9	...........
	142	1.90667	9.68187E-001	9.10616E-005	0.00000E+000	8.81646E-005	5.39641E-002	9.68376E-001	3.57260E+000	9	...........
	143	1.92	9.69845E-001	9.09178E-005	0.00000E+000	8.81762E-005	5.39641E-002	9.70048E-001	3.57260E+000	9	...........
	144	1.93333	9.71477E-001	9.13064E-005	0.00000E+000	8.87021E-005	5.39641E-002	9.71718E-001	3.57260E+000	9	...........
	145	1.94667	9.73144E-001	9.09262E-005	0.00000E+000	8.84842E-005	5.39641E-002	9.73329E-001	3.57260E+000	9	...........
	146	1.96	9.74725E-001	9.11679E-005	0.00000E+000	8.88636E-005	5.39641E-002	9.74913E-001	3.57260E+000	9	...........
	147	1.97333	9.76305E-001	9.11116E-005	0.00000E+000	8.89527E-005	5.39641E-002	9.76491E-001	3.57260E+000	9	...........
	148	1.98667	9.77824E-001	9.09658E-005	0.00000E+000	8.89485E-005	5.39641E-002	9.78035E-001	3.57260E+000	9	...........
	149	2	9.79395E-001	9.10762E-005	0.00000E+000	8.91995E-005	5.39641E-002	9.79600E-001	3.57260E+000	9	...........
	150	2.01333	9.80940E-001	9.09407E-005	0.00000E+000	8.92074E-005	5.39641E-002	9.81125E-001	3.57260E+000	9	...........
	151	2.02667	9.82455E-001	9.10543E-005	0.00000E+000	8.94567E-005	5.39641E-002	9.82657E-001	3.57260E+000	9	...........
	152	2.04	9.83954E-001	9.12095E-005	0.00000E+000	8.97460E-005	5.39641E-002	9.84161E-001	3.57260E+000	9	...........
	153	2.05333	9.85459E-001	9.11127E-005	0.00000E+000	8.97878E-005	5.39641E-002	9.85650E-001	3.57260E+000	9	...........
	154	2.06667	9.86919E-001	9.10512E-005	0.00000E+000	8.98601E-005	5.39641E-002	9.87131E-001	3.57260E+000	9	...........
	155	2.08	9.88399E-001	9.11783E-005	0.00000E+000	9.01206E-005	5.39641E-002	9.88580E-001	3.57260E+000	9	...........
	156	2.09333	9.89854E-001	9.09491E-005	0.00000E+000	9.00263E-005	5.39641E-002	9.90019E-001	3.57260E+000	9	...........
	157	2.10667	9.91269E-001	9.09137E-005	0.00000E+000	9.01199E-005	5.39641E-002	9.91444E-001	3.57260E+000	9	...........
	158	2.12	9.92665E-001	9.10929E-005	0.00000E+000	9.04247E-005	5.39641E-002	9.92866E-001	3.57260E+000	9	...........
	159	2.13333	9.94041E-001	9.08782E-005	0.00000E+000	9.03367E-005	5.39641E-002	9.94256E-001	3.57260E+000	9	...........
	160	2.14667	9.95426E-001	9.09574E-005	0.00000E+000	9.05413E-005	5.39641E-002	9.95626E-001	3.57260E+000	9	...........
	161	2.16	9.96790E-001	9.08657E-005	0.00000E+000	9.05740E-005	5.39641E-002	9.96997E-001	3.57260E+000	9	...........
	162	2.17333	9.98159E-001	9.10199E-005	0.00000E+000	9.08524E-005	5.39641E-002	9.98384E-001	3.57260E+000	9	...........
	163	2.18667	9.99480E-001	9.11856E-005	0.00000E+000	9.11381E-005	5.39641E-002	9.99696E-001	3.57260E+000	9	...........
STARTTIMEOFFSET	QUANT	3140.199	Start Time Offset (s)
