EXPLAIN
TAG	PWR800_CHARGE
TITLE	LABEL	PWR Cyclic Charge Discharge (Cell) - Charge Step	Test &Identifier
DATE	LABEL	10-7-2017	Date
TIME	LABEL	15:13:04	Time
NOTES	NOTES	3	&Notes...
	supercap test cell
	0.9mg
	6M KOH
PSTAT	PSTAT	IFC5000-01520	Potentiostat
CAPACITY	QUANT	1.00000E-003	Capacity (A-hr)
CELLTYPE	SELECTOR	1	&Cell Type
WORKINGCONNECTION	SELECTOR	0	&Working Lead
MAXCHARGETIME	VARIABLEANDUNITS	1.00000E+002	s	1.00000E+002	second(s)	Max &Charge Time
CHARGECURRENT	QUANT	9.00000E-005	&Charge Current (A) 
VOLTAGEFINISH	TWOPARAM	F	1.00000E-003	3.60000E+003	&Voltage Finish	 I (A) < 	Max Time(s)
SAMPLETIME	QUANT	1.00000E-002	Sa&mple Period (s)
CHARGESTOPAT1	MULTIPARAM	4	1.00000E+000	Charge Stop At &1	Voltage > Limit	V
CHARGESTOPAT2	MULTIPARAM	0	0.00000E+000	Charge Stop At &2	None	N/A
AESBHCSELECTOR	TOGGLE	F	Save Both Half Cells
IRCOMP	TOGGLE	F	IR &Measure
EOC	QUANT	0	Open Circuit (V)
SEQUENCER	TOGGLE	TRUE	Run as Sequence
PSTATMODEL	IQUANT	53	Pstat Model
PSTATSECTION	LABEL	IFC5000-01520	Pstat Section
PSTATSERIALNO	LABEL	01520	Pstat Serial Number
CTRLMODE	IQUANT	0	Control Mode
ELECTROMETER	IQUANT	1	RE=0 or CS=1
IESTAB	IQUANT	0	I/E Stability
CASPEED	IQUANT	4	Control Amp Speed
CONVENTION	IQUANT	1	Current Convention
ICHRANGE	IQUANT	2	Ich Range
ICHRANGEMODE	TOGGLE	T	Ich Auto Range
ICHOFFSETENABLE	TOGGLE	F	Ich Offset Enable
ICHOFFSET	QUANT	0	Ich Offset (V)
ICHFILTER	IQUANT	1	Ich Filter
VCHRANGE	IQUANT	2	Vch Range
VCHRANGEMODE	TOGGLE	T	Vch Auto Range
VCHOFFSETENABLE	TOGGLE	F	Vch Offset Enable
VCHOFFSET	QUANT	0	Vch Offset (V)
VCHFILTER	IQUANT	1	Vch Filter
IERANGELOWERLIMIT	IQUANT	9	I/E Range Lower Limit
IERANGEMODE	TOGGLE	F	I/E AutoRange
IERANGE	IQUANT	9	I/E Range
ACHSELECT	IQUANT	1	Ach Select
ACHRANGE	IQUANT	2	Ach Range
ACHOFFSETENABLE	TOGGLE	F	Ach Offset Enable
ACHOFFSET	QUANT	0	Ach Offset (V)
ACHFILTER	IQUANT	1	Ach Filter
CABLEID	IQUANT	14	Cable ID
DCCALDATE	LABEL	5-7-2017	DC Calibration Date
ACCALDATE	LABEL	12/3/2015	AC Calibration Date
FRAMEWORKVERSION	QUANT	7.01	Framework Version
INSTRUMENTVERSION	LABEL	4.00	Instrument Version
CURVE	TABLE	182
	Pt	T	Vf	Im	Vu	Pwr	Sig	Ach	Temp	IERange	Over
	#	s	V	A	V	W	V	V	deg C	#	bits
	0	0.013333	2.89869E-001	9.10689E-005	0.00000E+000	2.63981E-005	5.39641E-002	2.89913E-001	3.57250E+000	9	...........
	1	0.026667	3.09089E-001	9.11710E-005	0.00000E+000	2.81799E-005	5.39641E-002	3.09123E-001	3.57250E+000	9	...........
	2	0.04	3.26824E-001	9.14575E-005	0.00000E+000	2.98905E-005	5.39641E-002	3.26860E-001	3.57250E+000	9	...........
	3	0.053333	3.43350E-001	9.12710E-005	0.00000E+000	3.13379E-005	5.39641E-002	3.43389E-001	3.57250E+000	9	...........
	4	0.066667	3.58863E-001	9.12200E-005	0.00000E+000	3.27355E-005	5.39641E-002	3.58901E-001	3.57250E+000	9	...........
	5	0.08	3.73492E-001	9.10647E-005	0.00000E+000	3.40120E-005	5.39641E-002	3.73529E-001	3.57250E+000	9	...........
	6	0.093333	3.87353E-001	9.11158E-005	0.00000E+000	3.52940E-005	5.39641E-002	3.87394E-001	3.57250E+000	9	...........
	7	0.106667	4.00538E-001	9.08084E-005	0.00000E+000	3.63722E-005	5.39641E-002	4.00582E-001	3.57250E+000	9	...........
	8	0.12	4.13101E-001	9.07574E-005	0.00000E+000	3.74920E-005	5.39641E-002	4.13147E-001	3.57250E+000	9	...........
	9	0.133333	4.25133E-001	9.11752E-005	0.00000E+000	3.87615E-005	5.39641E-002	4.25182E-001	3.57250E+000	9	...........
	10	0.146667	4.36656E-001	9.09626E-005	0.00000E+000	3.97193E-005	5.39641E-002	4.36710E-001	3.57250E+000	9	...........
	11	0.16	4.47730E-001	9.11293E-005	0.00000E+000	4.08014E-005	5.39641E-002	4.47785E-001	3.57250E+000	9	...........
	12	0.173333	4.58393E-001	9.10199E-005	0.00000E+000	4.17229E-005	5.39641E-002	4.58443E-001	3.57250E+000	9	...........
	13	0.186667	4.68650E-001	9.08626E-005	0.00000E+000	4.25828E-005	5.39641E-002	4.68696E-001	3.57250E+000	9	...........
	14	0.2	4.78553E-001	9.08980E-005	0.00000E+000	4.34995E-005	5.39641E-002	4.78606E-001	3.57250E+000	9	...........
	15	0.213333	4.88137E-001	9.10335E-005	0.00000E+000	4.44368E-005	5.39641E-002	4.88189E-001	3.57250E+000	9	...........
	16	0.226667	4.97416E-001	9.08605E-005	0.00000E+000	4.51954E-005	5.39641E-002	4.97467E-001	3.57250E+000	9	...........
	17	0.24	5.06407E-001	9.11074E-005	0.00000E+000	4.61375E-005	5.39641E-002	5.06468E-001	3.57250E+000	9	...........
	18	0.253333	5.15133E-001	9.10272E-005	0.00000E+000	4.68911E-005	5.39641E-002	5.15199E-001	3.57250E+000	9	...........
	19	0.266667	5.23602E-001	9.11293E-005	0.00000E+000	4.77155E-005	5.39641E-002	5.23663E-001	3.57250E+000	9	...........
	20	0.28	5.31803E-001	9.11179E-005	0.00000E+000	4.84568E-005	5.39641E-002	5.31873E-001	3.57250E+000	9	...........
	21	0.293333	5.39765E-001	9.11179E-005	0.00000E+000	4.91822E-005	5.39641E-002	5.39879E-001	3.57250E+000	9	...........
	22	0.306667	5.47534E-001	9.10741E-005	0.00000E+000	4.98661E-005	5.39641E-002	5.47625E-001	3.57250E+000	9	...........
	23	0.32	5.55110E-001	9.11293E-005	0.00000E+000	5.05868E-005	5.39641E-002	5.55206E-001	3.57250E+000	9	...........
	24	0.333333	5.62486E-001	9.11075E-005	0.00000E+000	5.12466E-005	5.39641E-002	5.62602E-001	3.57250E+000	9	...........
	25	0.346667	5.69707E-001	9.11106E-005	0.00000E+000	5.19063E-005	5.39641E-002	5.69787E-001	3.57250E+000	9	...........
	26	0.36	5.76711E-001	9.12742E-005	0.00000E+000	5.26388E-005	5.39641E-002	5.76806E-001	3.57250E+000	9	...........
	27	0.373333	5.83566E-001	9.11408E-005	0.00000E+000	5.31866E-005	5.39641E-002	5.83655E-001	3.57250E+000	9	...........
	28	0.386667	5.90290E-001	9.12064E-005	0.00000E+000	5.38382E-005	5.39641E-002	5.90396E-001	3.57250E+000	9	...........
	29	0.4	5.96822E-001	9.10845E-005	0.00000E+000	5.43613E-005	5.39641E-002	5.96936E-001	3.57250E+000	9	...........
	30	0.413333	6.03188E-001	9.13085E-005	0.00000E+000	5.50762E-005	5.39641E-002	6.03343E-001	3.57250E+000	9	...........
	31	0.426667	6.09437E-001	9.12700E-005	0.00000E+000	5.56233E-005	5.39641E-002	6.09569E-001	3.57250E+000	9	...........
	32	0.44	6.15605E-001	9.10897E-005	0.00000E+000	5.60753E-005	5.39641E-002	6.15682E-001	3.57250E+000	9	...........
	33	0.453333	6.21617E-001	9.12273E-005	0.00000E+000	5.67085E-005	5.39641E-002	6.21661E-001	3.57250E+000	9	...........
	34	0.466667	6.27455E-001	9.11418E-005	0.00000E+000	5.71874E-005	5.39641E-002	6.27567E-001	3.57250E+000	9	...........
	35	0.48	6.33197E-001	9.12043E-005	0.00000E+000	5.77503E-005	5.39641E-002	6.33284E-001	3.57250E+000	9	...........
	36	0.493333	6.38841E-001	9.11595E-005	0.00000E+000	5.82365E-005	5.39641E-002	6.38966E-001	3.57250E+000	9	...........
	37	0.506667	6.44383E-001	9.09803E-005	0.00000E+000	5.86262E-005	5.39641E-002	6.44499E-001	3.57250E+000	9	...........
	38	0.52	6.49800E-001	9.10929E-005	0.00000E+000	5.91922E-005	5.39641E-002	6.49927E-001	3.57250E+000	9	...........
	39	0.533333	6.55142E-001	9.08595E-005	0.00000E+000	5.95259E-005	5.39641E-002	6.55233E-001	3.57250E+000	9	...........
	40	0.546667	6.60333E-001	9.09418E-005	0.00000E+000	6.00519E-005	5.39641E-002	6.60438E-001	3.57250E+000	9	...........
	41	0.56	6.65442E-001	9.09918E-005	0.00000E+000	6.05498E-005	5.39641E-002	6.65569E-001	3.57250E+000	9	...........
	42	0.573333	6.70494E-001	9.09960E-005	0.00000E+000	6.10123E-005	5.39641E-002	6.70570E-001	3.57250E+000	9	...........
	43	0.586667	6.75400E-001	9.09647E-005	0.00000E+000	6.14375E-005	5.39641E-002	6.75515E-001	3.57250E+000	9	...........
	44	0.6	6.80250E-001	9.12179E-005	0.00000E+000	6.20510E-005	5.39641E-002	6.80353E-001	3.57250E+000	9	...........
	45	0.613333	6.85007E-001	9.11293E-005	0.00000E+000	6.24242E-005	5.39641E-002	6.85129E-001	3.57250E+000	9	...........
	46	0.626667	6.89685E-001	9.09626E-005	0.00000E+000	6.27356E-005	5.39641E-002	6.89819E-001	3.57250E+000	9	...........
	47	0.64	6.94323E-001	9.10033E-005	0.00000E+000	6.31857E-005	5.39641E-002	6.94429E-001	3.57250E+000	9	...........
	48	0.653333	6.98818E-001	9.12095E-005	0.00000E+000	6.37389E-005	5.39641E-002	6.98953E-001	3.57250E+000	9	...........
	49	0.666667	7.03266E-001	9.10866E-005	0.00000E+000	6.40581E-005	5.39641E-002	7.03373E-001	3.57250E+000	9	...........
	50	0.68	7.07619E-001	9.11293E-005	0.00000E+000	6.44849E-005	5.39641E-002	7.07756E-001	3.57250E+000	9	...........
	51	0.693333	7.11948E-001	9.09209E-005	0.00000E+000	6.47310E-005	5.39641E-002	7.12075E-001	3.57250E+000	9	...........
	52	0.706667	7.16229E-001	9.10668E-005	0.00000E+000	6.52247E-005	5.39641E-002	7.16336E-001	3.57250E+000	9	...........
	53	0.72	7.20419E-001	9.11231E-005	0.00000E+000	6.56468E-005	5.39641E-002	7.20520E-001	3.57250E+000	9	...........
	54	0.733333	7.24554E-001	9.12450E-005	0.00000E+000	6.61119E-005	5.39641E-002	7.24625E-001	3.57295E+000	9	...........
	55	0.746667	7.28571E-001	9.10991E-005	0.00000E+000	6.63721E-005	5.39641E-002	7.28670E-001	3.57310E+000	9	...........
	56	0.76	7.32555E-001	9.11429E-005	0.00000E+000	6.67671E-005	5.39641E-002	7.32666E-001	3.57310E+000	9	...........
	57	0.773333	7.36490E-001	9.12554E-005	0.00000E+000	6.72087E-005	5.39641E-002	7.36585E-001	3.57310E+000	9	...........
	58	0.786667	7.40385E-001	9.11345E-005	0.00000E+000	6.74746E-005	5.39641E-002	7.40469E-001	3.57310E+000	9	...........
	59	0.8	7.44206E-001	9.10616E-005	0.00000E+000	6.77686E-005	5.39641E-002	7.44324E-001	3.57310E+000	9	...........
	60	0.813333	7.47989E-001	9.09855E-005	0.00000E+000	6.80562E-005	5.39641E-002	7.48091E-001	3.57310E+000	9	...........
	61	0.826667	7.51697E-001	9.12679E-005	0.00000E+000	6.86058E-005	5.39641E-002	7.51806E-001	3.57310E+000	9	...........
	62	0.84	7.55367E-001	9.11960E-005	0.00000E+000	6.88864E-005	5.39641E-002	7.55491E-001	3.57310E+000	9	...........
	63	0.853333	7.58996E-001	9.11252E-005	0.00000E+000	6.91636E-005	5.39641E-002	7.59109E-001	3.57310E+000	9	...........
	64	0.866667	7.62572E-001	9.08709E-005	0.00000E+000	6.92956E-005	5.39641E-002	7.62649E-001	3.57310E+000	9	...........
	65	0.88	7.66092E-001	9.09824E-005	0.00000E+000	6.97009E-005	5.39641E-002	7.66200E-001	3.57310E+000	9	...........
	66	0.893333	7.69603E-001	9.10220E-005	0.00000E+000	7.00508E-005	5.39641E-002	7.69705E-001	3.57310E+000	9	...........
	67	0.906667	7.73033E-001	9.11127E-005	0.00000E+000	7.04331E-005	5.39641E-002	7.73142E-001	3.57310E+000	9	...........
	68	0.92	7.76432E-001	9.10022E-005	0.00000E+000	7.06570E-005	5.39641E-002	7.76529E-001	3.57310E+000	9	...........
	69	0.933333	7.79803E-001	9.11137E-005	0.00000E+000	7.10508E-005	5.39641E-002	7.79882E-001	3.57310E+000	9	...........
	70	0.946667	7.83090E-001	9.10178E-005	0.00000E+000	7.12751E-005	5.39641E-002	7.83207E-001	3.57310E+000	9	...........
	71	0.96	7.86353E-001	9.09449E-005	0.00000E+000	7.15148E-005	5.39641E-002	7.86425E-001	3.57310E+000	9	...........
	72	0.97333	7.89577E-001	9.09387E-005	0.00000E+000	7.18031E-005	5.39641E-002	7.89680E-001	3.57310E+000	9	...........
	73	0.98667	7.92757E-001	9.13898E-005	0.00000E+000	7.24499E-005	5.39641E-002	7.92867E-001	3.57310E+000	9	...........
	74	1	7.95914E-001	9.11470E-005	0.00000E+000	7.25452E-005	5.39641E-002	7.96036E-001	3.57310E+000	9	...........
	75	1.01333	7.99008E-001	9.12814E-005	0.00000E+000	7.29346E-005	5.39641E-002	7.99107E-001	3.57310E+000	9	...........
	76	1.02667	8.02095E-001	9.11470E-005	0.00000E+000	7.31086E-005	5.39641E-002	8.02172E-001	3.57310E+000	9	...........
	77	1.04	8.05115E-001	9.10866E-005	0.00000E+000	7.33352E-005	5.39641E-002	8.05231E-001	3.57310E+000	9	...........
	78	1.05333	8.08126E-001	9.10303E-005	0.00000E+000	7.35640E-005	5.39641E-002	8.08242E-001	3.57310E+000	9	...........
	79	1.06667	8.11112E-001	9.12575E-005	0.00000E+000	7.40201E-005	5.39641E-002	8.11226E-001	3.57310E+000	9	...........
	80	1.08	8.14057E-001	9.11418E-005	0.00000E+000	7.41947E-005	5.39641E-002	8.14205E-001	3.57310E+000	9	...........
	81	1.09333	8.16998E-001	9.11022E-005	0.00000E+000	7.44304E-005	5.39641E-002	8.17116E-001	3.57310E+000	9	...........
	82	1.10667	8.19898E-001	9.13315E-005	0.00000E+000	7.48825E-005	5.39641E-002	8.20015E-001	3.57310E+000	9	...........
	83	1.12	8.22768E-001	9.10679E-005	0.00000E+000	7.49277E-005	5.39641E-002	8.22867E-001	3.57310E+000	9	...........
	84	1.13333	8.25603E-001	9.11991E-005	0.00000E+000	7.52943E-005	5.39641E-002	8.25705E-001	3.57310E+000	9	...........
	85	1.14667	8.28385E-001	9.09209E-005	0.00000E+000	7.53176E-005	5.39641E-002	8.28475E-001	3.57310E+000	9	...........
	86	1.16	8.31145E-001	9.11793E-005	0.00000E+000	7.57832E-005	5.39641E-002	8.31242E-001	3.57310E+000	9	...........
	87	1.17333	8.33860E-001	9.10616E-005	0.00000E+000	7.59326E-005	5.39641E-002	8.34003E-001	3.57310E+000	9	...........
	88	1.18667	8.36556E-001	9.11564E-005	0.00000E+000	7.62574E-005	5.39641E-002	8.36705E-001	3.57310E+000	9	...........
	89	1.2	8.39230E-001	9.09876E-005	0.00000E+000	7.63596E-005	5.39641E-002	8.39364E-001	3.57310E+000	9	...........
	90	1.21333	8.41861E-001	9.13419E-005	0.00000E+000	7.68972E-005	5.39641E-002	8.42002E-001	3.57310E+000	9	...........
	91	1.22667	8.44501E-001	9.12408E-005	0.00000E+000	7.70530E-005	5.39641E-002	8.44646E-001	3.57310E+000	9	...........
	92	1.24	8.47098E-001	9.09949E-005	0.00000E+000	7.70816E-005	5.39641E-002	8.47226E-001	3.57310E+000	9	...........
	93	1.25333	8.49653E-001	9.11116E-005	0.00000E+000	7.74132E-005	5.39641E-002	8.49793E-001	3.57310E+000	9	...........
	94	1.26667	8.52211E-001	9.13658E-005	0.00000E+000	7.78630E-005	5.39641E-002	8.52328E-001	3.57310E+000	9	...........
	95	1.28	8.54717E-001	9.11345E-005	0.00000E+000	7.78943E-005	5.39641E-002	8.54854E-001	3.57310E+000	9	...........
	96	1.29333	8.57177E-001	9.10491E-005	0.00000E+000	7.80452E-005	5.39641E-002	8.57352E-001	3.57310E+000	9	...........
	97	1.30667	8.59674E-001	9.12929E-005	0.00000E+000	7.84821E-005	5.39641E-002	8.59808E-001	3.57310E+000	9	...........
	98	1.32	8.62089E-001	9.11970E-005	0.00000E+000	7.86200E-005	5.39641E-002	8.62236E-001	3.57310E+000	9	...........
	99	1.33333	8.64481E-001	9.11502E-005	0.00000E+000	7.87976E-005	5.39641E-002	8.64647E-001	3.57310E+000	9	...........
	100	1.34667	8.66881E-001	9.12804E-005	0.00000E+000	7.91292E-005	5.39641E-002	8.67018E-001	3.57310E+000	9	...........
	101	1.36	8.69264E-001	9.11074E-005	0.00000E+000	7.91964E-005	5.39641E-002	8.69409E-001	3.57310E+000	9	...........
	102	1.37333	8.71631E-001	9.11304E-005	0.00000E+000	7.94321E-005	5.39641E-002	8.71764E-001	3.57310E+000	9	...........
	103	1.38667	8.73947E-001	9.10658E-005	0.00000E+000	7.95866E-005	5.39641E-002	8.74108E-001	3.57310E+000	9	...........
	104	1.4	8.76248E-001	9.10553E-005	0.00000E+000	7.97870E-005	5.39641E-002	8.76416E-001	3.57310E+000	9	...........
	105	1.41333	8.78516E-001	9.10897E-005	0.00000E+000	8.00238E-005	5.39641E-002	8.78667E-001	3.57310E+000	9	...........
	106	1.42667	8.80777E-001	9.10251E-005	0.00000E+000	8.01728E-005	5.39641E-002	8.80941E-001	3.57310E+000	9	...........
	107	1.44	8.83020E-001	9.11918E-005	0.00000E+000	8.05242E-005	5.39641E-002	8.83170E-001	3.57310E+000	9	...........
	108	1.45333	8.85232E-001	9.09126E-005	0.00000E+000	8.04788E-005	5.39641E-002	8.85363E-001	3.57310E+000	9	...........
	109	1.46667	8.87377E-001	9.13044E-005	0.00000E+000	8.10214E-005	5.39641E-002	8.87552E-001	3.57310E+000	9	...........
	110	1.48	8.89538E-001	9.09876E-005	0.00000E+000	8.09369E-005	5.39641E-002	8.89704E-001	3.57310E+000	9	...........
	111	1.49333	8.91668E-001	9.10428E-005	0.00000E+000	8.11800E-005	5.39641E-002	8.91856E-001	3.57310E+000	9	...........
	112	1.50667	8.93789E-001	9.09876E-005	0.00000E+000	8.13238E-005	5.39641E-002	8.93977E-001	3.57310E+000	9	...........
	113	1.52	8.95898E-001	9.11595E-005	0.00000E+000	8.16696E-005	5.39641E-002	8.96113E-001	3.57310E+000	9	...........
	114	1.53333	8.97971E-001	9.09845E-005	0.00000E+000	8.17014E-005	5.39641E-002	8.98157E-001	3.57310E+000	9	...........
	115	1.54667	9.00004E-001	9.08303E-005	0.00000E+000	8.17476E-005	5.39641E-002	9.00188E-001	3.57310E+000	9	...........
	116	1.56	9.02055E-001	9.11793E-005	0.00000E+000	8.22488E-005	5.39641E-002	9.02230E-001	3.57310E+000	9	...........
	117	1.57333	9.04082E-001	9.10085E-005	0.00000E+000	8.22791E-005	5.39641E-002	9.04244E-001	3.57310E+000	9	...........
	118	1.58667	9.06066E-001	9.09512E-005	0.00000E+000	8.24078E-005	5.39641E-002	9.06223E-001	3.57310E+000	9	...........
	119	1.6	9.08016E-001	9.09689E-005	0.00000E+000	8.26012E-005	5.39641E-002	9.08219E-001	3.57310E+000	9	...........
	120	1.61333	9.09988E-001	9.11783E-005	0.00000E+000	8.29711E-005	5.39641E-002	9.10157E-001	3.57310E+000	9	...........
	121	1.62667	9.11923E-001	9.09772E-005	0.00000E+000	8.29643E-005	5.39641E-002	9.12087E-001	3.57310E+000	9	...........
	122	1.64	9.13818E-001	9.15784E-005	0.00000E+000	8.36860E-005	5.39641E-002	9.13990E-001	3.57310E+000	9	...........
	123	1.65333	9.15722E-001	9.11575E-005	0.00000E+000	8.34749E-005	5.39641E-002	9.15884E-001	3.57310E+000	9	...........
	124	1.66667	9.17581E-001	9.13315E-005	0.00000E+000	8.38040E-005	5.39641E-002	9.17759E-001	3.57310E+000	9	...........
	125	1.68	9.19440E-001	9.11929E-005	0.00000E+000	8.38464E-005	5.39641E-002	9.19623E-001	3.57310E+000	9	...........
	126	1.69333	9.21326E-001	9.10835E-005	0.00000E+000	8.39176E-005	5.39641E-002	9.21450E-001	3.57310E+000	9	...........
	127	1.70667	9.23166E-001	9.10043E-005	0.00000E+000	8.40121E-005	5.39641E-002	9.23297E-001	3.57310E+000	9	...........
	128	1.72	9.24978E-001	9.13648E-005	0.00000E+000	8.45105E-005	5.39641E-002	9.25102E-001	3.57310E+000	9	...........
	129	1.73333	9.26791E-001	9.11064E-005	0.00000E+000	8.44366E-005	5.39641E-002	9.26915E-001	3.57257E+000	9	...........
	130	1.74667	9.28550E-001	9.11314E-005	0.00000E+000	8.46200E-005	5.39641E-002	9.28681E-001	3.57240E+000	9	...........
	131	1.76	9.30288E-001	9.10699E-005	0.00000E+000	8.47213E-005	5.39641E-002	9.30429E-001	3.57240E+000	9	...........
	132	1.77333	9.32035E-001	9.10303E-005	0.00000E+000	8.48434E-005	5.39641E-002	9.32145E-001	3.57240E+000	9	...........
	133	1.78667	9.33748E-001	9.11304E-005	0.00000E+000	8.50928E-005	5.39641E-002	9.33900E-001	3.57240E+000	9	...........
	134	1.8	9.35471E-001	9.11283E-005	0.00000E+000	8.52479E-005	5.39641E-002	9.35605E-001	3.57240E+000	9	...........
	135	1.81333	9.37152E-001	9.11179E-005	0.00000E+000	8.53912E-005	5.39641E-002	9.37280E-001	3.57240E+000	9	...........
	136	1.82667	9.38828E-001	9.12669E-005	0.00000E+000	8.56839E-005	5.39641E-002	9.38950E-001	3.57240E+000	9	...........
	137	1.84	9.40503E-001	9.13908E-005	0.00000E+000	8.59533E-005	5.39641E-002	9.40638E-001	3.57240E+000	9	...........
	138	1.85333	9.42142E-001	9.11710E-005	0.00000E+000	8.58960E-005	5.39641E-002	9.42291E-001	3.57240E+000	9	...........
	139	1.86667	9.43783E-001	9.10824E-005	0.00000E+000	8.59620E-005	5.39641E-002	9.43933E-001	3.57240E+000	9	...........
	140	1.88	9.45371E-001	9.10116E-005	0.00000E+000	8.60397E-005	5.39641E-002	9.45540E-001	3.57240E+000	9	...........
	141	1.89333	9.47018E-001	9.11627E-005	0.00000E+000	8.63326E-005	5.39641E-002	9.47179E-001	3.57240E+000	9	...........
	142	1.90667	9.48603E-001	9.12575E-005	0.00000E+000	8.65671E-005	5.39641E-002	9.48761E-001	3.57240E+000	9	...........
	143	1.92	9.50163E-001	9.13377E-005	0.00000E+000	8.67857E-005	5.39641E-002	9.50313E-001	3.57240E+000	9	...........
	144	1.93333	9.51686E-001	9.11960E-005	0.00000E+000	8.67899E-005	5.39641E-002	9.51874E-001	3.57240E+000	9	...........
	145	1.94667	9.53239E-001	9.11762E-005	0.00000E+000	8.69127E-005	5.39641E-002	9.53401E-001	3.57240E+000	9	...........
	146	1.96	9.54753E-001	9.08762E-005	0.00000E+000	8.67643E-005	5.39641E-002	9.54904E-001	3.57240E+000	9	...........
	147	1.97333	9.56264E-001	9.11002E-005	0.00000E+000	8.71158E-005	5.39641E-002	9.56430E-001	3.57240E+000	9	...........
	148	1.98667	9.57759E-001	9.12679E-005	0.00000E+000	8.74127E-005	5.39641E-002	9.57913E-001	3.57240E+000	9	...........
	149	2	9.59220E-001	9.12023E-005	0.00000E+000	8.74830E-005	5.39641E-002	9.59406E-001	3.57240E+000	9	...........
	150	2.01333	9.60671E-001	9.09616E-005	0.00000E+000	8.73842E-005	5.39641E-002	9.60861E-001	3.57240E+000	9	...........
	151	2.02667	9.62131E-001	9.12679E-005	0.00000E+000	8.78117E-005	5.39641E-002	9.62324E-001	3.57240E+000	9	...........
	152	2.04	9.63561E-001	9.10418E-005	0.00000E+000	8.77244E-005	5.39641E-002	9.63783E-001	3.57240E+000	9	...........
	153	2.05333	9.64983E-001	9.12189E-005	0.00000E+000	8.80247E-005	5.39641E-002	9.65188E-001	3.57240E+000	9	...........
	154	2.06667	9.66401E-001	9.12627E-005	0.00000E+000	8.81964E-005	5.39641E-002	9.66585E-001	3.57240E+000	9	...........
	155	2.08	9.67803E-001	9.10314E-005	0.00000E+000	8.81004E-005	5.39641E-002	9.67988E-001	3.57240E+000	9	...........
	156	2.09333	9.69186E-001	9.12783E-005	0.00000E+000	8.84657E-005	5.39641E-002	9.69388E-001	3.57240E+000	9	...........
	157	2.10667	9.70556E-001	9.09678E-005	0.00000E+000	8.82894E-005	5.39641E-002	9.70759E-001	3.57240E+000	9	...........
	158	2.12	9.71916E-001	9.09887E-005	0.00000E+000	8.84333E-005	5.39641E-002	9.72131E-001	3.57240E+000	9	...........
	159	2.13333	9.73285E-001	9.10793E-005	0.00000E+000	8.86461E-005	5.39641E-002	9.73461E-001	3.57240E+000	9	...........
	160	2.14667	9.74617E-001	9.12335E-005	0.00000E+000	8.89177E-005	5.39641E-002	9.74788E-001	3.57240E+000	9	...........
	161	2.16	9.75946E-001	9.11679E-005	0.00000E+000	8.89749E-005	5.39641E-002	9.76101E-001	3.57240E+000	9	...........
	162	2.17333	9.77245E-001	9.12346E-005	0.00000E+000	8.91585E-005	5.39641E-002	9.77404E-001	3.57240E+000	9	...........
	163	2.18667	9.78544E-001	9.11345E-005	0.00000E+000	8.91792E-005	5.39641E-002	9.78705E-001	3.57240E+000	9	...........
	164	2.2	9.79837E-001	9.11533E-005	0.00000E+000	8.93154E-005	5.39641E-002	9.79983E-001	3.57240E+000	9	...........
	165	2.21333	9.81104E-001	9.11387E-005	0.00000E+000	8.94166E-005	5.39641E-002	9.81276E-001	3.57240E+000	9	...........
	166	2.22667	9.82385E-001	9.09282E-005	0.00000E+000	8.93265E-005	5.39641E-002	9.82538E-001	3.57240E+000	9	...........
	167	2.24	9.83635E-001	9.10856E-005	0.00000E+000	8.95949E-005	5.39641E-002	9.83802E-001	3.57240E+000	9	...........
	168	2.25333	9.84869E-001	9.13252E-005	0.00000E+000	8.99434E-005	5.39641E-002	9.85046E-001	3.57240E+000	9	...........
	169	2.26667	9.86111E-001	9.10918E-005	0.00000E+000	8.98266E-005	5.39641E-002	9.86284E-001	3.57240E+000	9	...........
	170	2.28	9.87326E-001	9.11377E-005	0.00000E+000	8.99826E-005	5.39641E-002	9.87516E-001	3.57240E+000	9	...........
	171	2.29333	9.88566E-001	9.12231E-005	0.00000E+000	9.01800E-005	5.39641E-002	9.88725E-001	3.57240E+000	9	...........
	172	2.30667	9.89772E-001	9.12960E-005	0.00000E+000	9.03623E-005	5.39641E-002	9.89942E-001	3.57240E+000	9	...........
	173	2.32	9.90973E-001	9.10293E-005	0.00000E+000	9.02076E-005	5.39641E-002	9.91129E-001	3.57240E+000	9	...........
	174	2.33333	9.92127E-001	9.08897E-005	0.00000E+000	9.01741E-005	5.39641E-002	9.92334E-001	3.57240E+000	9	...........
	175	2.34667	9.93300E-001	9.11491E-005	0.00000E+000	9.05384E-005	5.39641E-002	9.93481E-001	3.57240E+000	9	...........
	176	2.36	9.94440E-001	9.09241E-005	0.00000E+000	9.04186E-005	5.39641E-002	9.94616E-001	3.57240E+000	9	...........
	177	2.37333	9.95586E-001	9.12377E-005	0.00000E+000	9.08349E-005	5.39641E-002	9.95781E-001	3.57240E+000	9	...........
	178	2.38667	9.96745E-001	9.12804E-005	0.00000E+000	9.09833E-005	5.39641E-002	9.96929E-001	3.57240E+000	9	...........
	179	2.4	9.97909E-001	9.13023E-005	0.00000E+000	9.11114E-005	5.39641E-002	9.98092E-001	3.57240E+000	9	...........
	180	2.41333	9.99034E-001	9.11648E-005	0.00000E+000	9.10767E-005	5.39641E-002	9.99191E-001	3.57240E+000	9	...........
	181	2.42	9.99846E-001	9.11918E-005	0.00000E+000	9.11778E-005	5.39641E-002	1.00003E+000	3.57240E+000	9	...........
STARTTIMEOFFSET	QUANT	702.4183	Start Time Offset (s)
