EXPLAIN
TAG	PWR800_CHARGE
TITLE	LABEL	PWR Cyclic Charge Discharge (Cell) - Charge Step	Test &Identifier
DATE	LABEL	10-7-2017	Date
TIME	LABEL	15:19:22	Time
NOTES	NOTES	3	&Notes...
	supercap test cell
	0.9mg
	6M KOH
PSTAT	PSTAT	IFC5000-01520	Potentiostat
CAPACITY	QUANT	1.00000E-003	Capacity (A-hr)
CELLTYPE	SELECTOR	1	&Cell Type
WORKINGCONNECTION	SELECTOR	0	&Working Lead
MAXCHARGETIME	VARIABLEANDUNITS	1.00000E+002	s	1.00000E+002	second(s)	Max &Charge Time
CHARGECURRENT	QUANT	9.00000E-005	&Charge Current (A) 
VOLTAGEFINISH	TWOPARAM	F	1.00000E-003	3.60000E+003	&Voltage Finish	 I (A) < 	Max Time(s)
SAMPLETIME	QUANT	1.00000E-002	Sa&mple Period (s)
CHARGESTOPAT1	MULTIPARAM	4	1.00000E+000	Charge Stop At &1	Voltage > Limit	V
CHARGESTOPAT2	MULTIPARAM	0	0.00000E+000	Charge Stop At &2	None	N/A
AESBHCSELECTOR	TOGGLE	F	Save Both Half Cells
IRCOMP	TOGGLE	F	IR &Measure
EOC	QUANT	0	Open Circuit (V)
SEQUENCER	TOGGLE	TRUE	Run as Sequence
PSTATMODEL	IQUANT	53	Pstat Model
PSTATSECTION	LABEL	IFC5000-01520	Pstat Section
PSTATSERIALNO	LABEL	01520	Pstat Serial Number
CTRLMODE	IQUANT	0	Control Mode
ELECTROMETER	IQUANT	1	RE=0 or CS=1
IESTAB	IQUANT	0	I/E Stability
CASPEED	IQUANT	4	Control Amp Speed
CONVENTION	IQUANT	1	Current Convention
ICHRANGE	IQUANT	2	Ich Range
ICHRANGEMODE	TOGGLE	T	Ich Auto Range
ICHOFFSETENABLE	TOGGLE	F	Ich Offset Enable
ICHOFFSET	QUANT	0	Ich Offset (V)
ICHFILTER	IQUANT	1	Ich Filter
VCHRANGE	IQUANT	2	Vch Range
VCHRANGEMODE	TOGGLE	T	Vch Auto Range
VCHOFFSETENABLE	TOGGLE	F	Vch Offset Enable
VCHOFFSET	QUANT	0	Vch Offset (V)
VCHFILTER	IQUANT	1	Vch Filter
IERANGELOWERLIMIT	IQUANT	9	I/E Range Lower Limit
IERANGEMODE	TOGGLE	F	I/E AutoRange
IERANGE	IQUANT	9	I/E Range
ACHSELECT	IQUANT	1	Ach Select
ACHRANGE	IQUANT	2	Ach Range
ACHOFFSETENABLE	TOGGLE	F	Ach Offset Enable
ACHOFFSET	QUANT	0	Ach Offset (V)
ACHFILTER	IQUANT	1	Ach Filter
CABLEID	IQUANT	14	Cable ID
DCCALDATE	LABEL	5-7-2017	DC Calibration Date
ACCALDATE	LABEL	12/3/2015	AC Calibration Date
FRAMEWORKVERSION	QUANT	7.01	Framework Version
INSTRUMENTVERSION	LABEL	4.00	Instrument Version
CURVE	TABLE	179
	Pt	T	Vf	Im	Vu	Pwr	Sig	Ach	Temp	IERange	Over
	#	s	V	A	V	W	V	V	deg C	#	bits
	0	0.013333	2.88072E-001	9.12794E-005	0.00000E+000	2.62950E-005	5.39641E-002	2.88111E-001	3.57290E+000	9	...........
	1	0.026667	3.07354E-001	9.09585E-005	0.00000E+000	2.79564E-005	5.39641E-002	3.07391E-001	3.57290E+000	9	...........
	2	0.04	3.25166E-001	9.07324E-005	0.00000E+000	2.95031E-005	5.39641E-002	3.25207E-001	3.57290E+000	9	...........
	3	0.053333	3.41790E-001	9.07001E-005	0.00000E+000	3.10003E-005	5.39641E-002	3.41825E-001	3.57290E+000	9	...........
	4	0.066667	3.57396E-001	9.10116E-005	0.00000E+000	3.25272E-005	5.39641E-002	3.57436E-001	3.57290E+000	9	...........
	5	0.08	3.72127E-001	9.11491E-005	0.00000E+000	3.39190E-005	5.39641E-002	3.72170E-001	3.57290E+000	9	...........
	6	0.093333	3.86088E-001	9.11335E-005	0.00000E+000	3.51856E-005	5.39641E-002	3.86133E-001	3.57290E+000	9	...........
	7	0.106667	3.99368E-001	9.11252E-005	0.00000E+000	3.63924E-005	5.39641E-002	3.99413E-001	3.57290E+000	9	...........
	8	0.12	4.12037E-001	9.11210E-005	0.00000E+000	3.75452E-005	5.39641E-002	4.12087E-001	3.57290E+000	9	...........
	9	0.133333	4.24150E-001	9.11189E-005	0.00000E+000	3.86481E-005	5.39641E-002	4.24202E-001	3.57290E+000	9	...........
	10	0.146667	4.35777E-001	9.09012E-005	0.00000E+000	3.96127E-005	5.39641E-002	4.35830E-001	3.57290E+000	9	...........
	11	0.16	4.46942E-001	9.09626E-005	0.00000E+000	4.06550E-005	5.39641E-002	4.46994E-001	3.57290E+000	9	...........
	12	0.173333	4.57669E-001	9.11022E-005	0.00000E+000	4.16947E-005	5.39641E-002	4.57727E-001	3.57290E+000	9	...........
	13	0.186667	4.68020E-001	9.09460E-005	0.00000E+000	4.25645E-005	5.39641E-002	4.68074E-001	3.57251E+000	9	...........
	14	0.2	4.78001E-001	9.09293E-005	0.00000E+000	4.34643E-005	5.39641E-002	4.78056E-001	3.57220E+000	9	...........
	15	0.213333	4.87663E-001	9.10137E-005	0.00000E+000	4.43840E-005	5.39641E-002	4.87718E-001	3.57220E+000	9	...........
	16	0.226667	4.97007E-001	9.11523E-005	0.00000E+000	4.53033E-005	5.39641E-002	4.97067E-001	3.57220E+000	9	...........
	17	0.24	5.06054E-001	9.09939E-005	0.00000E+000	4.60478E-005	5.39641E-002	5.06114E-001	3.57220E+000	9	...........
	18	0.253333	5.14820E-001	9.12981E-005	0.00000E+000	4.70021E-005	5.39641E-002	5.14884E-001	3.57220E+000	9	...........
	19	0.266667	5.23335E-001	9.12304E-005	0.00000E+000	4.77441E-005	5.39641E-002	5.23397E-001	3.57220E+000	9	...........
	20	0.28	5.31583E-001	9.11356E-005	0.00000E+000	4.84461E-005	5.39641E-002	5.31654E-001	3.57220E+000	9	...........
	21	0.293333	5.39585E-001	9.09887E-005	0.00000E+000	4.90961E-005	5.39641E-002	5.39690E-001	3.57220E+000	9	...........
	22	0.306667	5.47391E-001	9.11158E-005	0.00000E+000	4.98760E-005	5.39641E-002	5.47520E-001	3.57220E+000	9	...........
	23	0.32	5.55010E-001	9.10949E-005	0.00000E+000	5.05586E-005	5.39641E-002	5.55139E-001	3.57220E+000	9	...........
	24	0.333333	5.62418E-001	9.09272E-005	0.00000E+000	5.11391E-005	5.39641E-002	5.62554E-001	3.57220E+000	9	...........
	25	0.346667	5.69672E-001	9.11627E-005	0.00000E+000	5.19328E-005	5.39641E-002	5.69800E-001	3.57220E+000	9	...........
	26	0.36	5.76738E-001	9.12054E-005	0.00000E+000	5.26016E-005	5.39641E-002	5.76861E-001	3.57220E+000	9	...........
	27	0.373333	5.83596E-001	9.08636E-005	0.00000E+000	5.30276E-005	5.39641E-002	5.83751E-001	3.57220E+000	9	...........
	28	0.386667	5.90332E-001	9.10918E-005	0.00000E+000	5.37744E-005	5.39641E-002	5.90465E-001	3.57220E+000	9	...........
	29	0.4	5.96907E-001	9.11095E-005	0.00000E+000	5.43839E-005	5.39641E-002	5.97026E-001	3.57220E+000	9	...........
	30	0.413333	6.03316E-001	9.14804E-005	0.00000E+000	5.51916E-005	5.39641E-002	6.03473E-001	3.57220E+000	9	...........
	31	0.426667	6.09613E-001	9.10439E-005	0.00000E+000	5.55015E-005	5.39641E-002	6.09718E-001	3.57220E+000	9	...........
	32	0.44	6.15791E-001	9.10366E-005	0.00000E+000	5.60596E-005	5.39641E-002	6.15892E-001	3.57220E+000	9	...........
	33	0.453333	6.21796E-001	9.12189E-005	0.00000E+000	5.67196E-005	5.39641E-002	6.21884E-001	3.57220E+000	9	...........
	34	0.466667	6.27687E-001	9.09303E-005	0.00000E+000	5.70758E-005	5.39641E-002	6.27776E-001	3.57220E+000	9	...........
	35	0.48	6.33444E-001	9.09480E-005	0.00000E+000	5.76105E-005	5.39641E-002	6.33549E-001	3.57220E+000	9	...........
	36	0.493333	6.39115E-001	9.11095E-005	0.00000E+000	5.82295E-005	5.39641E-002	6.39242E-001	3.57220E+000	9	...........
	37	0.506667	6.44663E-001	9.08939E-005	0.00000E+000	5.85959E-005	5.39641E-002	6.44774E-001	3.57220E+000	9	...........
	38	0.52	6.50117E-001	9.08157E-005	0.00000E+000	5.90408E-005	5.39641E-002	6.50226E-001	3.57220E+000	9	...........
	39	0.533333	6.55455E-001	9.12439E-005	0.00000E+000	5.98063E-005	5.39641E-002	6.55573E-001	3.57220E+000	9	...........
	40	0.546667	6.60687E-001	9.10772E-005	0.00000E+000	6.01735E-005	5.39641E-002	6.60803E-001	3.57220E+000	9	...........
	41	0.56	6.65835E-001	9.09762E-005	0.00000E+000	6.05751E-005	5.39641E-002	6.65967E-001	3.57220E+000	9	...........
	42	0.573333	6.70884E-001	9.11804E-005	0.00000E+000	6.11715E-005	5.39641E-002	6.70990E-001	3.57220E+000	9	...........
	43	0.586667	6.75840E-001	9.12794E-005	0.00000E+000	6.16902E-005	5.39641E-002	6.75938E-001	3.57220E+000	9	...........
	44	0.6	6.80710E-001	9.12346E-005	0.00000E+000	6.21043E-005	5.39641E-002	6.80804E-001	3.57220E+000	9	...........
	45	0.613333	6.85451E-001	9.10408E-005	0.00000E+000	6.24040E-005	5.39641E-002	6.85589E-001	3.57220E+000	9	...........
	46	0.626667	6.90156E-001	9.10293E-005	0.00000E+000	6.28245E-005	5.39641E-002	6.90284E-001	3.57220E+000	9	...........
	47	0.64	6.94788E-001	9.10553E-005	0.00000E+000	6.32642E-005	5.39641E-002	6.94873E-001	3.57220E+000	9	...........
	48	0.653333	6.99317E-001	9.10595E-005	0.00000E+000	6.36795E-005	5.39641E-002	6.99439E-001	3.57220E+000	9	...........
	49	0.666667	7.03819E-001	9.09991E-005	0.00000E+000	6.40469E-005	5.39641E-002	7.03914E-001	3.57220E+000	9	...........
	50	0.68	7.08209E-001	9.11585E-005	0.00000E+000	6.45593E-005	5.39641E-002	7.08336E-001	3.57220E+000	9	...........
	51	0.693333	7.12584E-001	9.09710E-005	0.00000E+000	6.48244E-005	5.39641E-002	7.12678E-001	3.57220E+000	9	...........
	52	0.706667	7.16821E-001	9.11335E-005	0.00000E+000	6.53264E-005	5.39641E-002	7.16990E-001	3.57220E+000	9	...........
	53	0.72	7.21089E-001	9.08345E-005	0.00000E+000	6.54998E-005	5.39641E-002	7.21189E-001	3.57220E+000	9	...........
	54	0.733333	7.25221E-001	9.11043E-005	0.00000E+000	6.60707E-005	5.39641E-002	7.25316E-001	3.57220E+000	9	...........
	55	0.746667	7.29300E-001	9.11533E-005	0.00000E+000	6.64781E-005	5.39641E-002	7.29400E-001	3.57220E+000	9	...........
	56	0.76	7.33312E-001	9.11418E-005	0.00000E+000	6.68354E-005	5.39641E-002	7.33414E-001	3.57220E+000	9	...........
	57	0.773333	7.37263E-001	9.14596E-005	0.00000E+000	6.74298E-005	5.39641E-002	7.37355E-001	3.57220E+000	9	...........
	58	0.786667	7.41177E-001	9.10533E-005	0.00000E+000	6.74866E-005	5.39641E-002	7.41280E-001	3.57220E+000	9	...........
	59	0.8	7.45077E-001	9.10866E-005	0.00000E+000	6.78665E-005	5.39641E-002	7.45146E-001	3.57220E+000	9	...........
	60	0.813333	7.48866E-001	9.11533E-005	0.00000E+000	6.82616E-005	5.39641E-002	7.48944E-001	3.57220E+000	9	...........
	61	0.826667	7.52622E-001	9.11272E-005	0.00000E+000	6.85844E-005	5.39641E-002	7.52702E-001	3.57220E+000	9	...........
	62	0.84	7.56326E-001	9.09689E-005	0.00000E+000	6.88021E-005	5.39641E-002	7.56397E-001	3.57220E+000	9	...........
	63	0.853333	7.59980E-001	9.10783E-005	0.00000E+000	6.92177E-005	5.39641E-002	7.60059E-001	3.57220E+000	9	...........
	64	0.866667	7.63602E-001	9.09689E-005	0.00000E+000	6.94640E-005	5.39641E-002	7.63680E-001	3.57220E+000	9	...........
	65	0.88	7.67159E-001	9.11199E-005	0.00000E+000	6.99035E-005	5.39641E-002	7.67292E-001	3.57220E+000	9	...........
	66	0.893333	7.70676E-001	9.10283E-005	0.00000E+000	7.01533E-005	5.39641E-002	7.70784E-001	3.57220E+000	9	...........
	67	0.906667	7.74145E-001	9.09783E-005	0.00000E+000	7.04304E-005	5.39641E-002	7.74245E-001	3.57220E+000	9	...........
	68	0.92	7.77578E-001	9.10439E-005	0.00000E+000	7.07937E-005	5.39641E-002	7.77669E-001	3.57220E+000	9	...........
	69	0.933333	7.80966E-001	9.12075E-005	0.00000E+000	7.12300E-005	5.39641E-002	7.81084E-001	3.57220E+000	9	...........
	70	0.946667	7.84324E-001	9.10970E-005	0.00000E+000	7.14496E-005	5.39641E-002	7.84402E-001	3.57220E+000	9	...........
	71	0.96	7.87593E-001	9.11054E-005	0.00000E+000	7.17539E-005	5.39641E-002	7.87684E-001	3.57220E+000	9	...........
	72	0.97333	7.90844E-001	9.12877E-005	0.00000E+000	7.21943E-005	5.39641E-002	7.90961E-001	3.57220E+000	9	...........
	73	0.98667	7.94104E-001	9.10991E-005	0.00000E+000	7.23421E-005	5.39641E-002	7.94187E-001	3.57220E+000	9	...........
	74	1	7.97280E-001	9.10022E-005	0.00000E+000	7.25542E-005	5.39641E-002	7.97365E-001	3.57220E+000	9	...........
	75	1.01333	8.00408E-001	9.12960E-005	0.00000E+000	7.30741E-005	5.39641E-002	8.00510E-001	3.57220E+000	9	...........
	76	1.02667	8.03546E-001	9.09189E-005	0.00000E+000	7.30575E-005	5.39641E-002	8.03631E-001	3.57220E+000	9	...........
	77	1.04	8.06606E-001	9.12648E-005	0.00000E+000	7.36147E-005	5.39641E-002	8.06732E-001	3.57220E+000	9	...........
	78	1.05333	8.09651E-001	9.11002E-005	0.00000E+000	7.37593E-005	5.39641E-002	8.09767E-001	3.57220E+000	9	...........
	79	1.06667	8.12646E-001	9.14263E-005	0.00000E+000	7.42971E-005	5.39641E-002	8.12796E-001	3.57220E+000	9	...........
	80	1.08	8.15627E-001	9.08845E-005	0.00000E+000	7.41278E-005	5.39641E-002	8.15782E-001	3.57220E+000	9	...........
	81	1.09333	8.18591E-001	9.09616E-005	0.00000E+000	7.44604E-005	5.39641E-002	8.18752E-001	3.57220E+000	9	...........
	82	1.10667	8.21513E-001	9.10116E-005	0.00000E+000	7.47672E-005	5.39641E-002	8.21690E-001	3.57220E+000	9	...........
	83	1.12	8.24424E-001	9.13148E-005	0.00000E+000	7.52821E-005	5.39641E-002	8.24597E-001	3.57220E+000	9	...........
	84	1.13333	8.27287E-001	9.11366E-005	0.00000E+000	7.53962E-005	5.39641E-002	8.27411E-001	3.57220E+000	9	...........
	85	1.14667	8.30104E-001	9.09783E-005	0.00000E+000	7.55215E-005	5.39641E-002	8.30241E-001	3.57220E+000	9	...........
	86	1.16	8.32901E-001	9.12377E-005	0.00000E+000	7.59919E-005	5.39641E-002	8.33041E-001	3.57220E+000	9	...........
	87	1.17333	8.35649E-001	9.10272E-005	0.00000E+000	7.60668E-005	5.39641E-002	8.35805E-001	3.57220E+000	9	...........
	88	1.18667	8.38376E-001	9.11793E-005	0.00000E+000	7.64426E-005	5.39641E-002	8.38533E-001	3.57231E+000	9	...........
	89	1.2	8.41071E-001	9.11918E-005	0.00000E+000	7.66988E-005	5.39641E-002	8.41223E-001	3.57240E+000	9	...........
	90	1.21333	8.43747E-001	9.11835E-005	0.00000E+000	7.69358E-005	5.39641E-002	8.43907E-001	3.57240E+000	9	...........
	91	1.22667	8.46438E-001	9.11127E-005	0.00000E+000	7.71212E-005	5.39641E-002	8.46554E-001	3.57240E+000	9	...........
	92	1.24	8.49046E-001	9.09824E-005	0.00000E+000	7.72483E-005	5.39641E-002	8.49176E-001	3.57240E+000	9	...........
	93	1.25333	8.51631E-001	9.12627E-005	0.00000E+000	7.77222E-005	5.39641E-002	8.51774E-001	3.57240E+000	9	...........
	94	1.26667	8.54212E-001	9.12085E-005	0.00000E+000	7.79114E-005	5.39641E-002	8.54334E-001	3.57240E+000	9	...........
	95	1.28	8.56733E-001	9.09480E-005	0.00000E+000	7.79182E-005	5.39641E-002	8.56872E-001	3.57240E+000	9	...........
	96	1.29333	8.59248E-001	9.11220E-005	0.00000E+000	7.82964E-005	5.39641E-002	8.59416E-001	3.57240E+000	9	...........
	97	1.30667	8.61750E-001	9.12846E-005	0.00000E+000	7.86645E-005	5.39641E-002	8.61904E-001	3.57240E+000	9	...........
	98	1.32	8.64183E-001	9.11502E-005	0.00000E+000	7.87704E-005	5.39641E-002	8.64362E-001	3.57240E+000	9	...........
	99	1.33333	8.66654E-001	9.12252E-005	0.00000E+000	7.90607E-005	5.39641E-002	8.66831E-001	3.57240E+000	9	...........
	100	1.34667	8.69100E-001	9.11960E-005	0.00000E+000	7.92585E-005	5.39641E-002	8.69273E-001	3.57240E+000	9	...........
	101	1.36	8.71506E-001	9.10876E-005	0.00000E+000	7.93834E-005	5.39641E-002	8.71687E-001	3.57240E+000	9	...........
	102	1.37333	8.73881E-001	9.12398E-005	0.00000E+000	7.97327E-005	5.39641E-002	8.74053E-001	3.57240E+000	9	...........
	103	1.38667	8.76226E-001	9.11210E-005	0.00000E+000	7.98426E-005	5.39641E-002	8.76417E-001	3.57240E+000	9	...........
	104	1.4	8.78579E-001	9.11512E-005	0.00000E+000	8.00835E-005	5.39641E-002	8.78744E-001	3.57240E+000	9	...........
	105	1.41333	8.80890E-001	9.09491E-005	0.00000E+000	8.01161E-005	5.39641E-002	8.81063E-001	3.57240E+000	9	...........
	106	1.42667	8.83194E-001	9.12325E-005	0.00000E+000	8.05760E-005	5.39641E-002	8.83352E-001	3.57240E+000	9	...........
	107	1.44	8.85454E-001	9.10929E-005	0.00000E+000	8.06585E-005	5.39641E-002	8.85622E-001	3.57240E+000	9	...........
	108	1.45333	8.87687E-001	9.09668E-005	0.00000E+000	8.07500E-005	5.39641E-002	8.87838E-001	3.57240E+000	9	...........
	109	1.46667	8.89903E-001	9.11512E-005	0.00000E+000	8.11157E-005	5.39641E-002	8.90042E-001	3.57240E+000	9	...........
	110	1.48	8.92066E-001	9.08105E-005	0.00000E+000	8.10090E-005	5.39641E-002	8.92215E-001	3.57240E+000	9	...........
	111	1.49333	8.94227E-001	9.10814E-005	0.00000E+000	8.14474E-005	5.39641E-002	8.94389E-001	3.57240E+000	9	...........
	112	1.50667	8.96393E-001	9.10626E-005	0.00000E+000	8.16279E-005	5.39641E-002	8.96565E-001	3.57240E+000	9	...........
	113	1.52	8.98505E-001	9.09209E-005	0.00000E+000	8.16929E-005	5.39641E-002	8.98662E-001	3.57240E+000	9	...........
	114	1.53333	9.00591E-001	9.11491E-005	0.00000E+000	8.20880E-005	5.39641E-002	9.00768E-001	3.57240E+000	9	...........
	115	1.54667	9.02693E-001	9.12033E-005	0.00000E+000	8.23285E-005	5.39641E-002	9.02845E-001	3.57240E+000	9	...........
	116	1.56	9.04731E-001	9.12116E-005	0.00000E+000	8.25220E-005	5.39641E-002	9.04910E-001	3.57240E+000	9	...........
	117	1.57333	9.06740E-001	9.09668E-005	0.00000E+000	8.24833E-005	5.39641E-002	9.06908E-001	3.57240E+000	9	...........
	118	1.58667	9.08746E-001	9.14304E-005	0.00000E+000	8.30870E-005	5.39641E-002	9.08934E-001	3.57240E+000	9	...........
	119	1.6	9.10764E-001	9.13054E-005	0.00000E+000	8.31577E-005	5.39641E-002	9.10912E-001	3.57240E+000	9	...........
	120	1.61333	9.12724E-001	9.12981E-005	0.00000E+000	8.33300E-005	5.39641E-002	9.12895E-001	3.57240E+000	9	...........
	121	1.62667	9.14691E-001	9.10939E-005	0.00000E+000	8.33228E-005	5.39641E-002	9.14858E-001	3.57240E+000	9	...........
	122	1.64	9.16596E-001	9.11991E-005	0.00000E+000	8.35928E-005	5.39641E-002	9.16822E-001	3.57240E+000	9	...........
	123	1.65333	9.18502E-001	9.11804E-005	0.00000E+000	8.37494E-005	5.39641E-002	9.18724E-001	3.57240E+000	9	...........
	124	1.66667	9.20400E-001	9.10168E-005	0.00000E+000	8.37719E-005	5.39641E-002	9.20615E-001	3.57240E+000	9	...........
	125	1.68	9.22351E-001	9.07428E-005	0.00000E+000	8.36967E-005	5.39641E-002	9.22510E-001	3.57240E+000	9	...........
	126	1.69333	9.24196E-001	9.11460E-005	0.00000E+000	8.42367E-005	5.39641E-002	9.24362E-001	3.57240E+000	9	...........
	127	1.70667	9.26050E-001	9.11752E-005	0.00000E+000	8.44328E-005	5.39641E-002	9.26233E-001	3.57240E+000	9	...........
	128	1.72	9.27867E-001	9.10824E-005	0.00000E+000	8.45124E-005	5.39641E-002	9.28062E-001	3.57240E+000	9	...........
	129	1.73333	9.29685E-001	9.10793E-005	0.00000E+000	8.46751E-005	5.39641E-002	9.29843E-001	3.57240E+000	9	...........
	130	1.74667	9.31461E-001	9.08751E-005	0.00000E+000	8.46466E-005	5.39641E-002	9.31603E-001	3.57240E+000	9	...........
	131	1.76	9.33253E-001	9.11668E-005	0.00000E+000	8.50817E-005	5.39641E-002	9.33395E-001	3.57240E+000	9	...........
	132	1.77333	9.34991E-001	9.14513E-005	0.00000E+000	8.55061E-005	5.39641E-002	9.35148E-001	3.57240E+000	9	...........
	133	1.78667	9.36741E-001	9.11898E-005	0.00000E+000	8.54212E-005	5.39641E-002	9.36899E-001	3.57240E+000	9	...........
	134	1.8	9.38429E-001	9.12669E-005	0.00000E+000	8.56475E-005	5.39641E-002	9.38613E-001	3.57240E+000	9	...........
	135	1.81333	9.40149E-001	9.14283E-005	0.00000E+000	8.59563E-005	5.39641E-002	9.40306E-001	3.57240E+000	9	...........
	136	1.82667	9.41845E-001	9.11356E-005	0.00000E+000	8.58355E-005	5.39641E-002	9.41984E-001	3.57240E+000	9	...........
	137	1.84	9.43528E-001	9.11283E-005	0.00000E+000	8.59821E-005	5.39641E-002	9.43675E-001	3.57240E+000	9	...........
	138	1.85333	9.45157E-001	9.10960E-005	0.00000E+000	8.61000E-005	5.39641E-002	9.45343E-001	3.57240E+000	9	...........
	139	1.86667	9.46849E-001	9.09178E-005	0.00000E+000	8.60854E-005	5.39641E-002	9.47008E-001	3.57240E+000	9	...........
	140	1.88	9.48484E-001	9.11252E-005	0.00000E+000	8.64308E-005	5.39641E-002	9.48618E-001	3.57240E+000	9	...........
	141	1.89333	9.50081E-001	9.10022E-005	0.00000E+000	8.64595E-005	5.39641E-002	9.50230E-001	3.57240E+000	9	...........
	142	1.90667	9.51669E-001	9.12450E-005	0.00000E+000	8.68351E-005	5.39641E-002	9.51831E-001	3.57240E+000	9	...........
	143	1.92	9.53274E-001	9.11345E-005	0.00000E+000	8.68762E-005	5.39641E-002	9.53425E-001	3.57240E+000	9	...........
	144	1.93333	9.54841E-001	9.10897E-005	0.00000E+000	8.69762E-005	5.39641E-002	9.54988E-001	3.57240E+000	9	...........
	145	1.94667	9.56389E-001	9.10491E-005	0.00000E+000	8.70783E-005	5.39641E-002	9.56544E-001	3.57240E+000	9	...........
	146	1.96	9.57922E-001	9.09387E-005	0.00000E+000	8.71121E-005	5.39641E-002	9.58074E-001	3.57240E+000	9	...........
	147	1.97333	9.59446E-001	9.10908E-005	0.00000E+000	8.73967E-005	5.39641E-002	9.59631E-001	3.57240E+000	9	...........
	148	1.98667	9.60964E-001	9.13023E-005	0.00000E+000	8.77382E-005	5.39641E-002	9.61153E-001	3.57240E+000	9	...........
	149	2	9.62430E-001	9.09084E-005	0.00000E+000	8.74930E-005	5.39641E-002	9.62625E-001	3.57240E+000	9	...........
	150	2.01333	9.63910E-001	9.11762E-005	0.00000E+000	8.78857E-005	5.39641E-002	9.64118E-001	3.57240E+000	9	...........
	151	2.02667	9.65383E-001	9.12762E-005	0.00000E+000	8.81165E-005	5.39641E-002	9.65594E-001	3.57240E+000	9	...........
	152	2.04	9.66879E-001	9.11970E-005	0.00000E+000	8.81765E-005	5.39641E-002	9.67054E-001	3.57240E+000	9	...........
	153	2.05333	9.68306E-001	9.10877E-005	0.00000E+000	8.82007E-005	5.39641E-002	9.68480E-001	3.57240E+000	9	...........
	154	2.06667	9.69712E-001	9.10043E-005	0.00000E+000	8.82480E-005	5.39641E-002	9.69930E-001	3.57240E+000	9	...........
	155	2.08	9.71132E-001	9.10418E-005	0.00000E+000	8.84136E-005	5.39641E-002	9.71365E-001	3.57240E+000	9	...........
	156	2.09333	9.72565E-001	9.11147E-005	0.00000E+000	8.86150E-005	5.39641E-002	9.72774E-001	3.57240E+000	9	...........
	157	2.10667	9.73980E-001	9.09251E-005	0.00000E+000	8.85593E-005	5.39641E-002	9.74140E-001	3.57240E+000	9	...........
	158	2.12	9.75328E-001	9.10001E-005	0.00000E+000	8.87550E-005	5.39641E-002	9.75499E-001	3.57240E+000	9	...........
	159	2.13333	9.76686E-001	9.13054E-005	0.00000E+000	8.91767E-005	5.39641E-002	9.76870E-001	3.57240E+000	9	...........
	160	2.14667	9.78010E-001	9.11022E-005	0.00000E+000	8.90989E-005	5.39641E-002	9.78191E-001	3.57240E+000	9	...........
	161	2.16	9.79342E-001	9.12064E-005	0.00000E+000	8.93223E-005	5.39641E-002	9.79518E-001	3.57240E+000	9	...........
	162	2.17333	9.80651E-001	9.09564E-005	0.00000E+000	8.91965E-005	5.39641E-002	9.80834E-001	3.57240E+000	9	...........
	163	2.18667	9.81948E-001	9.12064E-005	0.00000E+000	8.95600E-005	5.39641E-002	9.82118E-001	3.57218E+000	9	...........
	164	2.2	9.83262E-001	9.13012E-005	0.00000E+000	8.97731E-005	5.39641E-002	9.83439E-001	3.57200E+000	9	...........
	165	2.21333	9.84558E-001	9.10168E-005	0.00000E+000	8.96113E-005	5.39641E-002	9.84757E-001	3.57200E+000	9	...........
	166	2.22667	9.85822E-001	9.09397E-005	0.00000E+000	8.96504E-005	5.39641E-002	9.86015E-001	3.57200E+000	9	...........
	167	2.24	9.87071E-001	9.11564E-005	0.00000E+000	8.99779E-005	5.39641E-002	9.87275E-001	3.57200E+000	9	...........
	168	2.25333	9.88325E-001	9.10439E-005	0.00000E+000	8.99810E-005	5.39641E-002	9.88515E-001	3.57200E+000	9	...........
	169	2.26667	9.89557E-001	9.09762E-005	0.00000E+000	9.00261E-005	5.39641E-002	9.89755E-001	3.57200E+000	9	...........
	170	2.28	9.90789E-001	9.10616E-005	0.00000E+000	9.02228E-005	5.39641E-002	9.90976E-001	3.57200E+000	9	...........
	171	2.29333	9.91976E-001	9.14158E-005	0.00000E+000	9.06823E-005	5.39641E-002	9.92159E-001	3.57200E+000	9	...........
	172	2.30667	9.93148E-001	9.08699E-005	0.00000E+000	9.02473E-005	5.39641E-002	9.93366E-001	3.57200E+000	9	...........
	173	2.32	9.94341E-001	9.11137E-005	0.00000E+000	9.05981E-005	5.39641E-002	9.94551E-001	3.57200E+000	9	...........
	174	2.33333	9.95521E-001	9.10699E-005	0.00000E+000	9.06620E-005	5.39641E-002	9.95714E-001	3.57200E+000	9	...........
	175	2.34667	9.96687E-001	9.11720E-005	0.00000E+000	9.08700E-005	5.39641E-002	9.96882E-001	3.57200E+000	9	...........
	176	2.36	9.97858E-001	9.11731E-005	0.00000E+000	9.09778E-005	5.39641E-002	9.98066E-001	3.57200E+000	9	...........
	177	2.37333	9.99009E-001	9.11397E-005	0.00000E+000	9.10495E-005	5.39641E-002	9.99202E-001	3.57200E+000	9	...........
	178	2.38	9.99851E-001	9.10105E-005	0.00000E+000	9.09970E-005	5.39641E-002	1.00007E+000	3.57200E+000	9	...........
STARTTIMEOFFSET	QUANT	1021.11	Start Time Offset (s)
