EXPLAIN
TAG	PWR800_CHARGE
TITLE	LABEL	PWR Cyclic Charge Discharge (Cell) - Charge Step	Test &Identifier
DATE	LABEL	10-7-2017	Date
TIME	LABEL	16:24:03	Time
NOTES	NOTES	3	&Notes...
	supercap test cell
	0.9mg
	6M KOH
PSTAT	PSTAT	IFC5000-01520	Potentiostat
CAPACITY	QUANT	1.00000E-003	Capacity (A-hr)
CELLTYPE	SELECTOR	1	&Cell Type
WORKINGCONNECTION	SELECTOR	0	&Working Lead
MAXCHARGETIME	VARIABLEANDUNITS	1.00000E+002	s	1.00000E+002	second(s)	Max &Charge Time
CHARGECURRENT	QUANT	9.00000E-005	&Charge Current (A) 
VOLTAGEFINISH	TWOPARAM	F	1.00000E-003	3.60000E+003	&Voltage Finish	 I (A) < 	Max Time(s)
SAMPLETIME	QUANT	1.00000E-002	Sa&mple Period (s)
CHARGESTOPAT1	MULTIPARAM	4	1.00000E+000	Charge Stop At &1	Voltage > Limit	V
CHARGESTOPAT2	MULTIPARAM	0	0.00000E+000	Charge Stop At &2	None	N/A
AESBHCSELECTOR	TOGGLE	F	Save Both Half Cells
IRCOMP	TOGGLE	F	IR &Measure
EOC	QUANT	0	Open Circuit (V)
SEQUENCER	TOGGLE	TRUE	Run as Sequence
PSTATMODEL	IQUANT	53	Pstat Model
PSTATSECTION	LABEL	IFC5000-01520	Pstat Section
PSTATSERIALNO	LABEL	01520	Pstat Serial Number
CTRLMODE	IQUANT	0	Control Mode
ELECTROMETER	IQUANT	1	RE=0 or CS=1
IESTAB	IQUANT	0	I/E Stability
CASPEED	IQUANT	4	Control Amp Speed
CONVENTION	IQUANT	1	Current Convention
ICHRANGE	IQUANT	2	Ich Range
ICHRANGEMODE	TOGGLE	T	Ich Auto Range
ICHOFFSETENABLE	TOGGLE	F	Ich Offset Enable
ICHOFFSET	QUANT	0	Ich Offset (V)
ICHFILTER	IQUANT	1	Ich Filter
VCHRANGE	IQUANT	2	Vch Range
VCHRANGEMODE	TOGGLE	T	Vch Auto Range
VCHOFFSETENABLE	TOGGLE	F	Vch Offset Enable
VCHOFFSET	QUANT	0	Vch Offset (V)
VCHFILTER	IQUANT	1	Vch Filter
IERANGELOWERLIMIT	IQUANT	9	I/E Range Lower Limit
IERANGEMODE	TOGGLE	F	I/E AutoRange
IERANGE	IQUANT	9	I/E Range
ACHSELECT	IQUANT	1	Ach Select
ACHRANGE	IQUANT	2	Ach Range
ACHOFFSETENABLE	TOGGLE	F	Ach Offset Enable
ACHOFFSET	QUANT	0	Ach Offset (V)
ACHFILTER	IQUANT	1	Ach Filter
CABLEID	IQUANT	14	Cable ID
DCCALDATE	LABEL	5-7-2017	DC Calibration Date
ACCALDATE	LABEL	12/3/2015	AC Calibration Date
FRAMEWORKVERSION	QUANT	7.01	Framework Version
INSTRUMENTVERSION	LABEL	4.00	Instrument Version
CURVE	TABLE	161
	Pt	T	Vf	Im	Vu	Pwr	Sig	Ach	Temp	IERange	Over
	#	s	V	A	V	W	V	V	deg C	#	bits
	0	0.013333	2.62010E-001	9.07699E-005	0.00000E+000	2.37826E-005	5.39641E-002	2.62060E-001	3.57330E+000	9	...........
	1	0.026667	2.81695E-001	9.10574E-005	0.00000E+000	2.56505E-005	5.39641E-002	2.81729E-001	3.57330E+000	9	...........
	2	0.04	3.00209E-001	9.06146E-005	0.00000E+000	2.72033E-005	5.39641E-002	3.00250E-001	3.57330E+000	9	...........
	3	0.053333	3.17729E-001	9.08939E-005	0.00000E+000	2.88796E-005	5.39641E-002	3.17769E-001	3.57330E+000	9	...........
	4	0.066667	3.34352E-001	9.09762E-005	0.00000E+000	3.04181E-005	5.39641E-002	3.34392E-001	3.57330E+000	9	...........
	5	0.08	3.50157E-001	9.09553E-005	0.00000E+000	3.18487E-005	5.39641E-002	3.50202E-001	3.57330E+000	9	...........
	6	0.093333	3.65207E-001	9.07167E-005	0.00000E+000	3.31304E-005	5.39641E-002	3.65256E-001	3.57330E+000	9	...........
	7	0.106667	3.79556E-001	9.08824E-005	0.00000E+000	3.44950E-005	5.39641E-002	3.79604E-001	3.57330E+000	9	...........
	8	0.12	3.93256E-001	9.09262E-005	0.00000E+000	3.57573E-005	5.39641E-002	3.93306E-001	3.57330E+000	9	...........
	9	0.133333	4.06372E-001	9.09585E-005	0.00000E+000	3.69630E-005	5.39641E-002	4.06423E-001	3.57330E+000	9	...........
	10	0.146667	4.18939E-001	9.10470E-005	0.00000E+000	3.81431E-005	5.39641E-002	4.18996E-001	3.57330E+000	9	...........
	11	0.16	4.30999E-001	9.09387E-005	0.00000E+000	3.91945E-005	5.39641E-002	4.31057E-001	3.57330E+000	9	...........
	12	0.173333	4.42574E-001	9.08855E-005	0.00000E+000	4.02236E-005	5.39641E-002	4.42638E-001	3.57330E+000	9	...........
	13	0.186667	4.53719E-001	9.11012E-005	0.00000E+000	4.13343E-005	5.39641E-002	4.53786E-001	3.57330E+000	9	...........
	14	0.2	4.64469E-001	9.09053E-005	0.00000E+000	4.22227E-005	5.39641E-002	4.64532E-001	3.57330E+000	9	...........
	15	0.213333	4.74833E-001	9.10356E-005	0.00000E+000	4.32266E-005	5.39641E-002	4.74897E-001	3.57330E+000	9	...........
	16	0.226667	4.84824E-001	9.08803E-005	0.00000E+000	4.40610E-005	5.39641E-002	4.84893E-001	3.57330E+000	9	...........
	17	0.24	4.94479E-001	9.08793E-005	0.00000E+000	4.49379E-005	5.39641E-002	4.94549E-001	3.57330E+000	9	...........
	18	0.253333	5.03830E-001	9.08439E-005	0.00000E+000	4.57698E-005	5.39641E-002	5.03902E-001	3.57330E+000	9	...........
	19	0.266667	5.12887E-001	9.10908E-005	0.00000E+000	4.67193E-005	5.39641E-002	5.12963E-001	3.57330E+000	9	...........
	20	0.28	5.21674E-001	9.11512E-005	0.00000E+000	4.75512E-005	5.39641E-002	5.21752E-001	3.57330E+000	9	...........
	21	0.293333	5.30210E-001	9.09887E-005	0.00000E+000	4.82431E-005	5.39641E-002	5.30274E-001	3.57330E+000	9	...........
	22	0.306667	5.38388E-001	9.09585E-005	0.00000E+000	4.89709E-005	5.39641E-002	5.38531E-001	3.57330E+000	9	...........
	23	0.32	5.46433E-001	9.08626E-005	0.00000E+000	4.96504E-005	5.39641E-002	5.46585E-001	3.57330E+000	9	...........
	24	0.333333	5.54278E-001	9.08782E-005	0.00000E+000	5.03718E-005	5.39641E-002	5.54419E-001	3.57330E+000	9	...........
	25	0.346667	5.61897E-001	9.08543E-005	0.00000E+000	5.10507E-005	5.39641E-002	5.62065E-001	3.57330E+000	9	...........
	26	0.36	5.69359E-001	9.08626E-005	0.00000E+000	5.17335E-005	5.39641E-002	5.69497E-001	3.57330E+000	9	...........
	27	0.373333	5.76597E-001	9.11095E-005	0.00000E+000	5.25335E-005	5.39641E-002	5.76741E-001	3.57327E+000	9	...........
	28	0.386667	5.83642E-001	9.11533E-005	0.00000E+000	5.32009E-005	5.39641E-002	5.83797E-001	3.57320E+000	9	...........
	29	0.4	5.90570E-001	9.10491E-005	0.00000E+000	5.37708E-005	5.39641E-002	5.90725E-001	3.57320E+000	9	...........
	30	0.413333	5.97288E-001	9.09658E-005	0.00000E+000	5.43328E-005	5.39641E-002	5.97433E-001	3.57320E+000	9	...........
	31	0.426667	6.03883E-001	9.10168E-005	0.00000E+000	5.49635E-005	5.39641E-002	6.04038E-001	3.57320E+000	9	...........
	32	0.44	6.10312E-001	9.12262E-005	0.00000E+000	5.56765E-005	5.39641E-002	6.10477E-001	3.57320E+000	9	...........
	33	0.453333	6.16678E-001	9.11585E-005	0.00000E+000	5.62154E-005	5.39641E-002	6.16796E-001	3.57320E+000	9	...........
	34	0.466667	6.22834E-001	9.10168E-005	0.00000E+000	5.66884E-005	5.39641E-002	6.22943E-001	3.57320E+000	9	...........
	35	0.48	6.28879E-001	9.09532E-005	0.00000E+000	5.71986E-005	5.39641E-002	6.29007E-001	3.57320E+000	9	...........
	36	0.493333	6.34795E-001	9.10043E-005	0.00000E+000	5.77691E-005	5.39641E-002	6.34949E-001	3.57320E+000	9	...........
	37	0.506667	6.40634E-001	9.09605E-005	0.00000E+000	5.82725E-005	5.39641E-002	6.40771E-001	3.57320E+000	9	...........
	38	0.52	6.46360E-001	9.09657E-005	0.00000E+000	5.87966E-005	5.39641E-002	6.46486E-001	3.57320E+000	9	...........
	39	0.533333	6.51957E-001	9.10022E-005	0.00000E+000	5.93296E-005	5.39641E-002	6.52093E-001	3.57320E+000	9	...........
	40	0.546667	6.57493E-001	9.08022E-005	0.00000E+000	5.97018E-005	5.39641E-002	6.57599E-001	3.57320E+000	9	...........
	41	0.56	6.62893E-001	9.09428E-005	0.00000E+000	6.02853E-005	5.39641E-002	6.63010E-001	3.57320E+000	9	...........
	42	0.573333	6.68253E-001	9.12096E-005	0.00000E+000	6.09511E-005	5.39641E-002	6.68334E-001	3.57320E+000	9	...........
	43	0.586667	6.73462E-001	9.08355E-005	0.00000E+000	6.11742E-005	5.39641E-002	6.73557E-001	3.57320E+000	9	...........
	44	0.6	6.78606E-001	9.11335E-005	0.00000E+000	6.18437E-005	5.39641E-002	6.78708E-001	3.57320E+000	9	...........
	45	0.613333	6.83648E-001	9.10616E-005	0.00000E+000	6.22541E-005	5.39641E-002	6.83743E-001	3.57320E+000	9	...........
	46	0.626667	6.88607E-001	9.08001E-005	0.00000E+000	6.25256E-005	5.39641E-002	6.88727E-001	3.57320E+000	9	...........
	47	0.64	6.93509E-001	9.11377E-005	0.00000E+000	6.32048E-005	5.39641E-002	6.93619E-001	3.57320E+000	9	...........
	48	0.653333	6.98317E-001	9.10647E-005	0.00000E+000	6.35921E-005	5.39641E-002	6.98458E-001	3.57320E+000	9	...........
	49	0.666667	7.03075E-001	9.08272E-005	0.00000E+000	6.38583E-005	5.39641E-002	7.03205E-001	3.57320E+000	9	...........
	50	0.68	7.07754E-001	9.07397E-005	0.00000E+000	6.42214E-005	5.39641E-002	7.07896E-001	3.57320E+000	9	...........
	51	0.693333	7.12362E-001	9.11825E-005	0.00000E+000	6.49549E-005	5.39641E-002	7.12496E-001	3.57320E+000	9	...........
	52	0.706667	7.16936E-001	9.08178E-005	0.00000E+000	6.51106E-005	5.39641E-002	7.17079E-001	3.57320E+000	9	...........
	53	0.72	7.21441E-001	9.09418E-005	0.00000E+000	6.56091E-005	5.39641E-002	7.21558E-001	3.57320E+000	9	...........
	54	0.733333	7.25868E-001	9.11470E-005	0.00000E+000	6.61608E-005	5.39641E-002	7.25980E-001	3.57320E+000	9	...........
	55	0.746667	7.30224E-001	9.11220E-005	0.00000E+000	6.65395E-005	5.39641E-002	7.30344E-001	3.57320E+000	9	...........
	56	0.76	7.34519E-001	9.10616E-005	0.00000E+000	6.68865E-005	5.39641E-002	7.34648E-001	3.57320E+000	9	...........
	57	0.773333	7.38769E-001	9.09428E-005	0.00000E+000	6.71858E-005	5.39641E-002	7.38898E-001	3.57320E+000	9	...........
	58	0.786667	7.43016E-001	9.09428E-005	0.00000E+000	6.75720E-005	5.39641E-002	7.43133E-001	3.57320E+000	9	...........
	59	0.8	7.47129E-001	9.12179E-005	0.00000E+000	6.81515E-005	5.39641E-002	7.47295E-001	3.57320E+000	9	...........
	60	0.813333	7.51235E-001	9.10053E-005	0.00000E+000	6.83664E-005	5.39641E-002	7.51400E-001	3.57320E+000	9	...........
	61	0.826667	7.55319E-001	9.06824E-005	0.00000E+000	6.84941E-005	5.39641E-002	7.55444E-001	3.57320E+000	9	...........
	62	0.84	7.59296E-001	9.08834E-005	0.00000E+000	6.90074E-005	5.39641E-002	7.59429E-001	3.57320E+000	9	...........
	63	0.853333	7.63245E-001	9.10012E-005	0.00000E+000	6.94562E-005	5.39641E-002	7.63400E-001	3.57320E+000	9	...........
	64	0.866667	7.67156E-001	9.08230E-005	0.00000E+000	6.96754E-005	5.39641E-002	7.67331E-001	3.57320E+000	9	...........
	65	0.88	7.71024E-001	9.08616E-005	0.00000E+000	7.00564E-005	5.39641E-002	7.71167E-001	3.57320E+000	9	...........
	66	0.893333	7.74854E-001	9.09324E-005	0.00000E+000	7.04594E-005	5.39641E-002	7.74996E-001	3.57320E+000	9	...........
	67	0.906667	7.78603E-001	9.09366E-005	0.00000E+000	7.08035E-005	5.39641E-002	7.78780E-001	3.57320E+000	9	...........
	68	0.92	7.82362E-001	9.08511E-005	0.00000E+000	7.10785E-005	5.39641E-002	7.82495E-001	3.57320E+000	9	...........
	69	0.933333	7.86056E-001	9.09751E-005	0.00000E+000	7.15115E-005	5.39641E-002	7.86157E-001	3.57320E+000	9	...........
	70	0.946667	7.89706E-001	9.10397E-005	0.00000E+000	7.18946E-005	5.39641E-002	7.89832E-001	3.57320E+000	9	...........
	71	0.96	7.93352E-001	9.09949E-005	0.00000E+000	7.21910E-005	5.39641E-002	7.93473E-001	3.57320E+000	9	...........
	72	0.97333	7.96943E-001	9.07490E-005	0.00000E+000	7.23219E-005	5.39641E-002	7.97055E-001	3.57320E+000	9	...........
	73	0.98667	8.00471E-001	9.09647E-005	0.00000E+000	7.28146E-005	5.39641E-002	8.00595E-001	3.57320E+000	9	...........
	74	1	8.03950E-001	9.10564E-005	0.00000E+000	7.32048E-005	5.39641E-002	8.04082E-001	3.57320E+000	9	...........
	75	1.01333	8.07406E-001	9.09460E-005	0.00000E+000	7.34303E-005	5.39641E-002	8.07533E-001	3.57320E+000	9	...........
	76	1.02667	8.10789E-001	9.11220E-005	0.00000E+000	7.38807E-005	5.39641E-002	8.10933E-001	3.57320E+000	9	...........
	77	1.04	8.14172E-001	9.10481E-005	0.00000E+000	7.41288E-005	5.39641E-002	8.14308E-001	3.57320E+000	9	...........
	78	1.05333	8.17544E-001	9.07865E-005	0.00000E+000	7.42220E-005	5.39641E-002	8.17685E-001	3.57320E+000	9	...........
	79	1.06667	8.20881E-001	9.11439E-005	0.00000E+000	7.48183E-005	5.39641E-002	8.21022E-001	3.57320E+000	9	...........
	80	1.08	8.24136E-001	9.11762E-005	0.00000E+000	7.51416E-005	5.39641E-002	8.24286E-001	3.57320E+000	9	...........
	81	1.09333	8.27356E-001	9.10866E-005	0.00000E+000	7.53611E-005	5.39641E-002	8.27516E-001	3.57320E+000	9	...........
	82	1.10667	8.30546E-001	9.07991E-005	0.00000E+000	7.54128E-005	5.39641E-002	8.30722E-001	3.57320E+000	9	...........
	83	1.12	8.33763E-001	9.09970E-005	0.00000E+000	7.58700E-005	5.39641E-002	8.33942E-001	3.57320E+000	9	...........
	84	1.13333	8.36881E-001	9.12398E-005	0.00000E+000	7.63568E-005	5.39641E-002	8.37080E-001	3.57320E+000	9	...........
	85	1.14667	8.40001E-001	9.08491E-005	0.00000E+000	7.63133E-005	5.39641E-002	8.40174E-001	3.57320E+000	9	...........
	86	1.16	8.43079E-001	9.11127E-005	0.00000E+000	7.68152E-005	5.39641E-002	8.43268E-001	3.57320E+000	9	...........
	87	1.17333	8.46152E-001	9.09376E-005	0.00000E+000	7.69470E-005	5.39641E-002	8.46340E-001	3.57320E+000	9	...........
	88	1.18667	8.49179E-001	9.07720E-005	0.00000E+000	7.70816E-005	5.39641E-002	8.49359E-001	3.57320E+000	9	...........
	89	1.2	8.52165E-001	9.10626E-005	0.00000E+000	7.76004E-005	5.39641E-002	8.52348E-001	3.57320E+000	9	...........
	90	1.21333	8.55125E-001	9.10689E-005	0.00000E+000	7.78753E-005	5.39641E-002	8.55293E-001	3.57320E+000	9	...........
	91	1.22667	8.58032E-001	9.10897E-005	0.00000E+000	7.81579E-005	5.39641E-002	8.58219E-001	3.57320E+000	9	...........
	92	1.24	8.60958E-001	9.11450E-005	0.00000E+000	7.84720E-005	5.39641E-002	8.61131E-001	3.57320E+000	9	...........
	93	1.25333	8.63789E-001	9.09543E-005	0.00000E+000	7.85654E-005	5.39641E-002	8.63949E-001	3.57320E+000	9	...........
	94	1.26667	8.66632E-001	9.10481E-005	0.00000E+000	7.89051E-005	5.39641E-002	8.66799E-001	3.57320E+000	9	...........
	95	1.28	8.69488E-001	9.09491E-005	0.00000E+000	7.90791E-005	5.39641E-002	8.69618E-001	3.57320E+000	9	...........
	96	1.29333	8.72271E-001	9.10106E-005	0.00000E+000	7.93859E-005	5.39641E-002	8.72421E-001	3.57320E+000	9	...........
	97	1.30667	8.75026E-001	9.12794E-005	0.00000E+000	7.98718E-005	5.39641E-002	8.75211E-001	3.57320E+000	9	...........
	98	1.32	8.77753E-001	9.07199E-005	0.00000E+000	7.96297E-005	5.39641E-002	8.77917E-001	3.57320E+000	9	...........
	99	1.33333	8.80447E-001	9.08397E-005	0.00000E+000	7.99795E-005	5.39641E-002	8.80616E-001	3.57320E+000	9	...........
	100	1.34667	8.83160E-001	9.08636E-005	0.00000E+000	8.02472E-005	5.39641E-002	8.83339E-001	3.57320E+000	9	...........
	101	1.36	8.85778E-001	9.10106E-005	0.00000E+000	8.06151E-005	5.39641E-002	8.85937E-001	3.57320E+000	9	...........
	102	1.37333	8.88362E-001	9.12304E-005	0.00000E+000	8.10456E-005	5.39641E-002	8.88520E-001	3.57312E+000	9	...........
	103	1.38667	8.90922E-001	9.11460E-005	0.00000E+000	8.12040E-005	5.39641E-002	8.91087E-001	3.57290E+000	9	...........
	104	1.4	8.93454E-001	9.10554E-005	0.00000E+000	8.13538E-005	5.39641E-002	8.93629E-001	3.57290E+000	9	...........
	105	1.41333	8.96011E-001	9.07345E-005	0.00000E+000	8.12991E-005	5.39641E-002	8.96180E-001	3.57290E+000	9	...........
	106	1.42667	8.98501E-001	9.09012E-005	0.00000E+000	8.16748E-005	5.39641E-002	8.98672E-001	3.57290E+000	9	...........
	107	1.44	9.00981E-001	9.11773E-005	0.00000E+000	8.21489E-005	5.39641E-002	9.01158E-001	3.57290E+000	9	...........
	108	1.45333	9.03415E-001	9.11064E-005	0.00000E+000	8.23069E-005	5.39641E-002	9.03587E-001	3.57290E+000	9	...........
	109	1.46667	9.05855E-001	9.10960E-005	0.00000E+000	8.25198E-005	5.39641E-002	9.06013E-001	3.57290E+000	9	...........
	110	1.48	9.08242E-001	9.10460E-005	0.00000E+000	8.26918E-005	5.39641E-002	9.08447E-001	3.57290E+000	9	...........
	111	1.49333	9.10623E-001	9.11585E-005	0.00000E+000	8.30110E-005	5.39641E-002	9.10794E-001	3.57290E+000	9	...........
	112	1.50667	9.12948E-001	9.11074E-005	0.00000E+000	8.31763E-005	5.39641E-002	9.13135E-001	3.57290E+000	9	...........
	113	1.52	9.15263E-001	9.11970E-005	0.00000E+000	8.34693E-005	5.39641E-002	9.15450E-001	3.57290E+000	9	...........
	114	1.53333	9.17542E-001	9.10085E-005	0.00000E+000	8.35041E-005	5.39641E-002	9.17739E-001	3.57290E+000	9	...........
	115	1.54667	9.19830E-001	9.09293E-005	0.00000E+000	8.36395E-005	5.39641E-002	9.20017E-001	3.57290E+000	9	...........
	116	1.56	9.22134E-001	9.11877E-005	0.00000E+000	8.40872E-005	5.39641E-002	9.22274E-001	3.57290E+000	9	...........
	117	1.57333	9.24342E-001	9.10012E-005	0.00000E+000	8.41162E-005	5.39641E-002	9.24489E-001	3.57290E+000	9	...........
	118	1.58667	9.26553E-001	9.10137E-005	0.00000E+000	8.43290E-005	5.39641E-002	9.26695E-001	3.57290E+000	9	...........
	119	1.6	9.28745E-001	9.12252E-005	0.00000E+000	8.47249E-005	5.39641E-002	9.28863E-001	3.57290E+000	9	...........
	120	1.61333	9.30894E-001	9.08793E-005	0.00000E+000	8.45990E-005	5.39641E-002	9.31024E-001	3.57290E+000	9	...........
	121	1.62667	9.33018E-001	9.10595E-005	0.00000E+000	8.49601E-005	5.39641E-002	9.33184E-001	3.57290E+000	9	...........
	122	1.64	9.35133E-001	9.08741E-005	0.00000E+000	8.49794E-005	5.39641E-002	9.35302E-001	3.57290E+000	9	...........
	123	1.65333	9.37227E-001	9.08709E-005	0.00000E+000	8.51667E-005	5.39641E-002	9.37411E-001	3.57290E+000	9	...........
	124	1.66667	9.39285E-001	9.10231E-005	0.00000E+000	8.54966E-005	5.39641E-002	9.39481E-001	3.57290E+000	9	...........
	125	1.68	9.41322E-001	9.11304E-005	0.00000E+000	8.57830E-005	5.39641E-002	9.41508E-001	3.57290E+000	9	...........
	126	1.69333	9.43349E-001	9.11418E-005	0.00000E+000	8.59785E-005	5.39641E-002	9.43510E-001	3.57290E+000	9	...........
	127	1.70667	9.45326E-001	9.11116E-005	0.00000E+000	8.61302E-005	5.39641E-002	9.45499E-001	3.57290E+000	9	...........
	128	1.72	9.47327E-001	9.11606E-005	0.00000E+000	8.63588E-005	5.39641E-002	9.47479E-001	3.57290E+000	9	...........
	129	1.73333	9.49250E-001	9.08824E-005	0.00000E+000	8.62701E-005	5.39641E-002	9.49436E-001	3.57290E+000	9	...........
	130	1.74667	9.51175E-001	9.09772E-005	0.00000E+000	8.65353E-005	5.39641E-002	9.51349E-001	3.57290E+000	9	...........
	131	1.76	9.53060E-001	9.10731E-005	0.00000E+000	8.67981E-005	5.39641E-002	9.53258E-001	3.57290E+000	9	...........
	132	1.77333	9.54949E-001	9.08845E-005	0.00000E+000	8.67901E-005	5.39641E-002	9.55099E-001	3.57290E+000	9	...........
	133	1.78667	9.56805E-001	9.10283E-005	0.00000E+000	8.70963E-005	5.39641E-002	9.56973E-001	3.57290E+000	9	...........
	134	1.8	9.58633E-001	9.09689E-005	0.00000E+000	8.72058E-005	5.39641E-002	9.58799E-001	3.57290E+000	9	...........
	135	1.81333	9.60444E-001	9.08866E-005	0.00000E+000	8.72915E-005	5.39641E-002	9.60620E-001	3.57290E+000	9	...........
	136	1.82667	9.62228E-001	9.07626E-005	0.00000E+000	8.73343E-005	5.39641E-002	9.62398E-001	3.57290E+000	9	...........
	137	1.84	9.64005E-001	9.09866E-005	0.00000E+000	8.77116E-005	5.39641E-002	9.64189E-001	3.57290E+000	9	...........
	138	1.85333	9.65758E-001	9.07584E-005	0.00000E+000	8.76507E-005	5.39641E-002	9.65923E-001	3.57290E+000	9	...........
	139	1.86667	9.67503E-001	9.10470E-005	0.00000E+000	8.80882E-005	5.39641E-002	9.67693E-001	3.57290E+000	9	...........
	140	1.88	9.69210E-001	9.10606E-005	0.00000E+000	8.82568E-005	5.39641E-002	9.69391E-001	3.57290E+000	9	...........
	141	1.89333	9.70863E-001	9.08980E-005	0.00000E+000	8.82495E-005	5.39641E-002	9.71100E-001	3.57290E+000	9	...........
	142	1.90667	9.72597E-001	9.09710E-005	0.00000E+000	8.84781E-005	5.39641E-002	9.72774E-001	3.57290E+000	9	...........
	143	1.92	9.74282E-001	9.08824E-005	0.00000E+000	8.85450E-005	5.39641E-002	9.74433E-001	3.57290E+000	9	...........
	144	1.93333	9.75911E-001	9.10272E-005	0.00000E+000	8.88345E-005	5.39641E-002	9.76085E-001	3.57290E+000	9	...........
	145	1.94667	9.77539E-001	9.09814E-005	0.00000E+000	8.89378E-005	5.39641E-002	9.77721E-001	3.57290E+000	9	...........
	146	1.96	9.79153E-001	9.10929E-005	0.00000E+000	8.91939E-005	5.39641E-002	9.79313E-001	3.57290E+000	9	...........
	147	1.97333	9.80744E-001	9.11127E-005	0.00000E+000	8.93582E-005	5.39641E-002	9.80904E-001	3.57290E+000	9	...........
	148	1.98667	9.82329E-001	9.10668E-005	0.00000E+000	8.94576E-005	5.39641E-002	9.82511E-001	3.57290E+000	9	...........
	149	2	9.83899E-001	9.11408E-005	0.00000E+000	8.96733E-005	5.39641E-002	9.84084E-001	3.57290E+000	9	...........
	150	2.01333	9.85437E-001	9.08293E-005	0.00000E+000	8.95065E-005	5.39641E-002	9.85656E-001	3.57290E+000	9	...........
	151	2.02667	9.86939E-001	9.10366E-005	0.00000E+000	8.98475E-005	5.39641E-002	9.87164E-001	3.57290E+000	9	...........
	152	2.04	9.88447E-001	9.12293E-005	0.00000E+000	9.01754E-005	5.39641E-002	9.88649E-001	3.57290E+000	9	...........
	153	2.05333	9.89939E-001	9.09522E-005	0.00000E+000	9.00371E-005	5.39641E-002	9.90155E-001	3.57290E+000	9	...........
	154	2.06667	9.91393E-001	9.10647E-005	0.00000E+000	9.02809E-005	5.39641E-002	9.91645E-001	3.57290E+000	9	...........
	155	2.08	9.92888E-001	9.10220E-005	0.00000E+000	9.03747E-005	5.39641E-002	9.93125E-001	3.57290E+000	9	...........
	156	2.09333	9.94303E-001	9.08887E-005	0.00000E+000	9.03708E-005	5.39641E-002	9.94537E-001	3.57290E+000	9	...........
	157	2.10667	9.95757E-001	9.11054E-005	0.00000E+000	9.07188E-005	5.39641E-002	9.95961E-001	3.57290E+000	9	...........
	158	2.12	9.97169E-001	9.08657E-005	0.00000E+000	9.06085E-005	5.39641E-002	9.97381E-001	3.57290E+000	9	...........
	159	2.13333	9.98582E-001	9.10845E-005	0.00000E+000	9.09553E-005	5.39641E-002	9.98779E-001	3.57290E+000	9	...........
	160	2.14167	9.99724E-001	9.09193E-005	0.00000E+000	9.08942E-005	5.39641E-002	9.99921E-001	3.57290E+000	9	...........
STARTTIMEOFFSET	QUANT	4263.305	Start Time Offset (s)
