EXPLAIN
TAG	PWR800_CHARGE
TITLE	LABEL	PWR Cyclic Charge Discharge (Cell) - Charge Step	Test &Identifier
DATE	LABEL	10-7-2017	Date
TIME	LABEL	15:00:22	Time
NOTES	NOTES	3	&Notes...
	supercap test cell
	0.9mg
	6M KOH
PSTAT	PSTAT	IFC5000-01520	Potentiostat
CAPACITY	QUANT	1.00000E-003	Capacity (A-hr)
CELLTYPE	SELECTOR	1	&Cell Type
WORKINGCONNECTION	SELECTOR	0	&Working Lead
MAXCHARGETIME	VARIABLEANDUNITS	1.00000E+002	s	1.00000E+002	second(s)	Max &Charge Time
CHARGECURRENT	QUANT	9.00000E-005	&Charge Current (A) 
VOLTAGEFINISH	TWOPARAM	F	1.00000E-003	3.60000E+003	&Voltage Finish	 I (A) < 	Max Time(s)
SAMPLETIME	QUANT	1.00000E-002	Sa&mple Period (s)
CHARGESTOPAT1	MULTIPARAM	4	1.00000E+000	Charge Stop At &1	Voltage > Limit	V
CHARGESTOPAT2	MULTIPARAM	0	0.00000E+000	Charge Stop At &2	None	N/A
AESBHCSELECTOR	TOGGLE	F	Save Both Half Cells
IRCOMP	TOGGLE	F	IR &Measure
EOC	QUANT	0	Open Circuit (V)
SEQUENCER	TOGGLE	TRUE	Run as Sequence
PSTATMODEL	IQUANT	53	Pstat Model
PSTATSECTION	LABEL	IFC5000-01520	Pstat Section
PSTATSERIALNO	LABEL	01520	Pstat Serial Number
CTRLMODE	IQUANT	0	Control Mode
ELECTROMETER	IQUANT	1	RE=0 or CS=1
IESTAB	IQUANT	0	I/E Stability
CASPEED	IQUANT	4	Control Amp Speed
CONVENTION	IQUANT	1	Current Convention
ICHRANGE	IQUANT	2	Ich Range
ICHRANGEMODE	TOGGLE	T	Ich Auto Range
ICHOFFSETENABLE	TOGGLE	F	Ich Offset Enable
ICHOFFSET	QUANT	0	Ich Offset (V)
ICHFILTER	IQUANT	1	Ich Filter
VCHRANGE	IQUANT	2	Vch Range
VCHRANGEMODE	TOGGLE	T	Vch Auto Range
VCHOFFSETENABLE	TOGGLE	F	Vch Offset Enable
VCHOFFSET	QUANT	0	Vch Offset (V)
VCHFILTER	IQUANT	1	Vch Filter
IERANGELOWERLIMIT	IQUANT	9	I/E Range Lower Limit
IERANGEMODE	TOGGLE	F	I/E AutoRange
IERANGE	IQUANT	9	I/E Range
ACHSELECT	IQUANT	1	Ach Select
ACHRANGE	IQUANT	2	Ach Range
ACHOFFSETENABLE	TOGGLE	F	Ach Offset Enable
ACHOFFSET	QUANT	0	Ach Offset (V)
ACHFILTER	IQUANT	1	Ach Filter
CABLEID	IQUANT	14	Cable ID
DCCALDATE	LABEL	5-7-2017	DC Calibration Date
ACCALDATE	LABEL	12/3/2015	AC Calibration Date
FRAMEWORKVERSION	QUANT	7.01	Framework Version
INSTRUMENTVERSION	LABEL	4.00	Instrument Version
CURVE	TABLE	219
	Pt	T	Vf	Im	Vu	Pwr	Sig	Ach	Temp	IERange	Over
	#	s	V	A	V	W	V	V	deg C	#	bits
	0	0.013333	3.03413E-001	9.12054E-005	0.00000E+000	2.76729E-005	5.39641E-002	3.03437E-001	3.57150E+000	9	...........
	1	0.026667	3.21358E-001	9.09439E-005	0.00000E+000	2.92255E-005	5.39641E-002	3.21383E-001	3.57150E+000	9	...........
	2	0.04	3.37802E-001	9.12106E-005	0.00000E+000	3.08111E-005	5.39641E-002	3.37827E-001	3.57150E+000	9	...........
	3	0.053333	3.53054E-001	9.11898E-005	0.00000E+000	3.21949E-005	5.39641E-002	3.53082E-001	3.57150E+000	9	...........
	4	0.066667	3.67322E-001	9.10397E-005	0.00000E+000	3.34409E-005	5.39641E-002	3.67352E-001	3.57150E+000	9	...........
	5	0.08	3.80761E-001	9.13804E-005	0.00000E+000	3.47941E-005	5.39641E-002	3.80790E-001	3.57150E+000	9	...........
	6	0.093333	3.93487E-001	9.13054E-005	0.00000E+000	3.59275E-005	5.39641E-002	3.93515E-001	3.57150E+000	9	...........
	7	0.106667	4.05597E-001	9.10168E-005	0.00000E+000	3.69162E-005	5.39641E-002	4.05625E-001	3.57150E+000	9	...........
	8	0.12	4.17146E-001	9.10970E-005	0.00000E+000	3.80007E-005	5.39641E-002	4.17180E-001	3.57150E+000	9	...........
	9	0.133333	4.28202E-001	9.11470E-005	0.00000E+000	3.90294E-005	5.39641E-002	4.28240E-001	3.57150E+000	9	...........
	10	0.146667	4.38807E-001	9.12335E-005	0.00000E+000	4.00339E-005	5.39641E-002	4.38847E-001	3.57150E+000	9	...........
	11	0.16	4.49015E-001	9.11095E-005	0.00000E+000	4.09095E-005	5.39641E-002	4.49059E-001	3.57150E+000	9	...........
	12	0.173333	4.58855E-001	9.13398E-005	0.00000E+000	4.19117E-005	5.39641E-002	4.58893E-001	3.57150E+000	9	...........
	13	0.186667	4.68358E-001	9.11002E-005	0.00000E+000	4.26675E-005	5.39641E-002	4.68397E-001	3.57150E+000	9	...........
	14	0.2	4.77540E-001	9.11773E-005	0.00000E+000	4.35408E-005	5.39641E-002	4.77583E-001	3.57150E+000	9	...........
	15	0.213333	4.86433E-001	9.14877E-005	0.00000E+000	4.45027E-005	5.39641E-002	4.86475E-001	3.57150E+000	9	...........
	16	0.226667	4.95053E-001	9.12346E-005	0.00000E+000	4.51660E-005	5.39641E-002	4.95101E-001	3.57150E+000	9	...........
	17	0.24	5.03432E-001	9.12210E-005	0.00000E+000	4.59236E-005	5.39641E-002	5.03473E-001	3.57150E+000	9	...........
	18	0.253333	5.11568E-001	9.11856E-005	0.00000E+000	4.66477E-005	5.39641E-002	5.11615E-001	3.57150E+000	9	...........
	19	0.266667	5.19476E-001	9.11502E-005	0.00000E+000	4.73503E-005	5.39641E-002	5.19524E-001	3.57150E+000	9	...........
	20	0.28	5.27179E-001	9.12544E-005	0.00000E+000	4.81074E-005	5.39641E-002	5.27225E-001	3.57150E+000	9	...........
	21	0.293333	5.34636E-001	9.13596E-005	0.00000E+000	4.88442E-005	5.39641E-002	5.34703E-001	3.57150E+000	9	...........
	22	0.306667	5.41934E-001	9.14138E-005	0.00000E+000	4.95402E-005	5.39641E-002	5.42010E-001	3.57150E+000	9	...........
	23	0.32	5.49018E-001	9.12877E-005	0.00000E+000	5.01186E-005	5.39641E-002	5.49105E-001	3.57150E+000	9	...........
	24	0.333333	5.55969E-001	9.12158E-005	0.00000E+000	5.07132E-005	5.39641E-002	5.56036E-001	3.57150E+000	9	...........
	25	0.346667	5.62749E-001	9.12002E-005	0.00000E+000	5.13228E-005	5.39641E-002	5.62855E-001	3.57150E+000	9	...........
	26	0.36	5.69406E-001	9.11981E-005	0.00000E+000	5.19287E-005	5.39641E-002	5.69452E-001	3.57150E+000	9	...........
	27	0.373333	5.75845E-001	9.12637E-005	0.00000E+000	5.25538E-005	5.39641E-002	5.75947E-001	3.57150E+000	9	...........
	28	0.386667	5.82178E-001	9.11429E-005	0.00000E+000	5.30614E-005	5.39641E-002	5.82252E-001	3.57150E+000	9	...........
	29	0.4	5.88366E-001	9.12627E-005	0.00000E+000	5.36959E-005	5.39641E-002	5.88451E-001	3.57150E+000	9	...........
	30	0.413333	5.94402E-001	9.13335E-005	0.00000E+000	5.42889E-005	5.39641E-002	5.94483E-001	3.57150E+000	9	...........
	31	0.426667	6.00306E-001	9.11043E-005	0.00000E+000	5.46904E-005	5.39641E-002	6.00383E-001	3.57150E+000	9	...........
	32	0.44	6.06084E-001	9.12210E-005	0.00000E+000	5.52876E-005	5.39641E-002	6.06193E-001	3.57150E+000	9	...........
	33	0.453333	6.11773E-001	9.09772E-005	0.00000E+000	5.56574E-005	5.39641E-002	6.11858E-001	3.57150E+000	9	...........
	34	0.466667	6.17406E-001	9.13335E-005	0.00000E+000	5.63899E-005	5.39641E-002	6.17461E-001	3.57150E+000	9	...........
	35	0.48	6.22867E-001	9.12481E-005	0.00000E+000	5.68354E-005	5.39641E-002	6.22878E-001	3.57150E+000	9	...........
	36	0.493333	6.28195E-001	9.12669E-005	0.00000E+000	5.73334E-005	5.39641E-002	6.28244E-001	3.57150E+000	9	...........
	37	0.506667	6.33427E-001	9.11158E-005	0.00000E+000	5.77152E-005	5.39641E-002	6.33459E-001	3.57150E+000	9	...........
	38	0.52	6.38574E-001	9.11720E-005	0.00000E+000	5.82201E-005	5.39641E-002	6.38626E-001	3.57150E+000	9	...........
	39	0.533333	6.43624E-001	9.11720E-005	0.00000E+000	5.86805E-005	5.39641E-002	6.43676E-001	3.57150E+000	9	...........
	40	0.546667	6.48516E-001	9.11877E-005	0.00000E+000	5.91367E-005	5.39641E-002	6.48579E-001	3.57150E+000	9	...........
	41	0.56	6.53392E-001	9.12940E-005	0.00000E+000	5.96507E-005	5.39641E-002	6.53441E-001	3.57150E+000	9	...........
	42	0.573333	6.58150E-001	9.11241E-005	0.00000E+000	5.99733E-005	5.39641E-002	6.58192E-001	3.57150E+000	9	...........
	43	0.586667	6.62818E-001	9.12846E-005	0.00000E+000	6.05050E-005	5.39641E-002	6.62899E-001	3.57150E+000	9	...........
	44	0.6	6.67461E-001	9.12335E-005	0.00000E+000	6.08948E-005	5.39641E-002	6.67515E-001	3.57150E+000	9	...........
	45	0.613333	6.71959E-001	9.10897E-005	0.00000E+000	6.12085E-005	5.39641E-002	6.72004E-001	3.57150E+000	9	...........
	46	0.626667	6.76386E-001	9.13221E-005	0.00000E+000	6.17690E-005	5.39641E-002	6.76458E-001	3.57150E+000	9	...........
	47	0.64	6.80741E-001	9.12127E-005	0.00000E+000	6.20922E-005	5.39641E-002	6.80822E-001	3.57150E+000	9	...........
	48	0.653333	6.85027E-001	9.14054E-005	0.00000E+000	6.26152E-005	5.39641E-002	6.85087E-001	3.57150E+000	9	...........
	49	0.666667	6.89226E-001	9.13856E-005	0.00000E+000	6.29854E-005	5.39641E-002	6.89315E-001	3.57150E+000	9	...........
	50	0.68	6.93381E-001	9.10949E-005	0.00000E+000	6.31635E-005	5.39641E-002	6.93455E-001	3.57150E+000	9	...........
	51	0.693333	6.97454E-001	9.12544E-005	0.00000E+000	6.36457E-005	5.39641E-002	6.97520E-001	3.57150E+000	9	...........
	52	0.706667	7.01463E-001	9.13033E-005	0.00000E+000	6.40459E-005	5.39641E-002	7.01540E-001	3.57150E+000	9	...........
	53	0.72	7.05413E-001	9.11033E-005	0.00000E+000	6.42655E-005	5.39641E-002	7.05472E-001	3.57150E+000	9	...........
	54	0.733333	7.09281E-001	9.12075E-005	0.00000E+000	6.46917E-005	5.39641E-002	7.09361E-001	3.57150E+000	9	...........
	55	0.746667	7.13104E-001	9.14773E-005	0.00000E+000	6.52328E-005	5.39641E-002	7.13178E-001	3.57150E+000	9	...........
	56	0.76	7.16888E-001	9.10981E-005	0.00000E+000	6.53071E-005	5.39641E-002	7.16974E-001	3.57150E+000	9	...........
	57	0.773333	7.20628E-001	9.12804E-005	0.00000E+000	6.57792E-005	5.39641E-002	7.20681E-001	3.57189E+000	9	...........
	58	0.786667	7.24264E-001	9.11106E-005	0.00000E+000	6.59881E-005	5.39641E-002	7.24313E-001	3.57200E+000	9	...........
	59	0.8	7.27839E-001	9.12939E-005	0.00000E+000	6.64473E-005	5.39641E-002	7.27919E-001	3.57200E+000	9	...........
	60	0.813333	7.31376E-001	9.13502E-005	0.00000E+000	6.68113E-005	5.39641E-002	7.31453E-001	3.57200E+000	9	...........
	61	0.826667	7.34862E-001	9.12043E-005	0.00000E+000	6.70226E-005	5.39641E-002	7.34946E-001	3.57200E+000	9	...........
	62	0.84	7.38308E-001	9.12335E-005	0.00000E+000	6.73584E-005	5.39641E-002	7.38401E-001	3.57200E+000	9	...........
	63	0.853333	7.41716E-001	9.13273E-005	0.00000E+000	6.77389E-005	5.39641E-002	7.41820E-001	3.57200E+000	9	...........
	64	0.866667	7.45082E-001	9.11272E-005	0.00000E+000	6.78973E-005	5.39641E-002	7.45171E-001	3.57200E+000	9	...........
	65	0.88	7.48358E-001	9.15513E-005	0.00000E+000	6.85131E-005	5.39641E-002	7.48465E-001	3.57200E+000	9	...........
	66	0.893333	7.51607E-001	9.11825E-005	0.00000E+000	6.85334E-005	5.39641E-002	7.51691E-001	3.57200E+000	9	...........
	67	0.906667	7.54839E-001	9.14138E-005	0.00000E+000	6.90027E-005	5.39641E-002	7.54919E-001	3.57200E+000	9	...........
	68	0.92	7.58008E-001	9.12960E-005	0.00000E+000	6.92031E-005	5.39641E-002	7.58086E-001	3.57200E+000	9	...........
	69	0.933333	7.61115E-001	9.12627E-005	0.00000E+000	6.94614E-005	5.39641E-002	7.61196E-001	3.57200E+000	9	...........
	70	0.946667	7.64194E-001	9.09168E-005	0.00000E+000	6.94781E-005	5.39641E-002	7.64266E-001	3.57200E+000	9	...........
	71	0.96	7.67229E-001	9.13023E-005	0.00000E+000	7.00497E-005	5.39641E-002	7.67321E-001	3.57200E+000	9	...........
	72	0.97333	7.70240E-001	9.13512E-005	0.00000E+000	7.03624E-005	5.39641E-002	7.70315E-001	3.57200E+000	9	...........
	73	0.98667	7.73187E-001	9.12398E-005	0.00000E+000	7.05454E-005	5.39641E-002	7.73269E-001	3.57200E+000	9	...........
	74	1	7.76113E-001	9.11220E-005	0.00000E+000	7.07210E-005	5.39641E-002	7.76175E-001	3.57200E+000	9	...........
	75	1.01333	7.78972E-001	9.11783E-005	0.00000E+000	7.10253E-005	5.39641E-002	7.79051E-001	3.57200E+000	9	...........
	76	1.02667	7.81832E-001	9.12950E-005	0.00000E+000	7.13773E-005	5.39641E-002	7.81925E-001	3.57200E+000	9	...........
	77	1.04	7.84658E-001	9.09303E-005	0.00000E+000	7.13492E-005	5.39641E-002	7.84751E-001	3.57200E+000	9	...........
	78	1.05333	7.87437E-001	9.14179E-005	0.00000E+000	7.19859E-005	5.39641E-002	7.87514E-001	3.57200E+000	9	...........
	79	1.06667	7.90170E-001	9.11345E-005	0.00000E+000	7.20117E-005	5.39641E-002	7.90279E-001	3.57200E+000	9	...........
	80	1.08	7.92908E-001	9.10804E-005	0.00000E+000	7.22184E-005	5.39641E-002	7.93019E-001	3.57200E+000	9	...........
	81	1.09333	7.95615E-001	9.13585E-005	0.00000E+000	7.26863E-005	5.39641E-002	7.95694E-001	3.57200E+000	9	...........
	82	1.10667	7.98254E-001	9.13429E-005	0.00000E+000	7.29148E-005	5.39641E-002	7.98335E-001	3.57200E+000	9	...........
	83	1.12	8.00876E-001	9.12669E-005	0.00000E+000	7.30935E-005	5.39641E-002	8.00949E-001	3.57200E+000	9	...........
	84	1.13333	8.03455E-001	9.12773E-005	0.00000E+000	7.33371E-005	5.39641E-002	8.03542E-001	3.57200E+000	9	...........
	85	1.14667	8.06024E-001	9.09845E-005	0.00000E+000	7.33357E-005	5.39641E-002	8.06102E-001	3.57200E+000	9	...........
	86	1.16	8.08538E-001	9.14158E-005	0.00000E+000	7.39132E-005	5.39641E-002	8.08608E-001	3.57200E+000	9	...........
	87	1.17333	8.10995E-001	9.12616E-005	0.00000E+000	7.40127E-005	5.39641E-002	8.11106E-001	3.57200E+000	9	...........
	88	1.18667	8.13483E-001	9.13669E-005	0.00000E+000	7.43254E-005	5.39641E-002	8.13563E-001	3.57200E+000	9	...........
	89	1.2	8.15904E-001	9.11720E-005	0.00000E+000	7.43877E-005	5.39641E-002	8.16015E-001	3.57200E+000	9	...........
	90	1.21333	8.18356E-001	9.14023E-005	0.00000E+000	7.47997E-005	5.39641E-002	8.18437E-001	3.57200E+000	9	...........
	91	1.22667	8.20750E-001	9.11074E-005	0.00000E+000	7.47764E-005	5.39641E-002	8.20826E-001	3.57200E+000	9	...........
	92	1.24	8.23091E-001	9.12606E-005	0.00000E+000	7.51157E-005	5.39641E-002	8.23207E-001	3.57200E+000	9	...........
	93	1.25333	8.25443E-001	9.11189E-005	0.00000E+000	7.52135E-005	5.39641E-002	8.25553E-001	3.57200E+000	9	...........
	94	1.26667	8.27719E-001	9.12179E-005	0.00000E+000	7.55027E-005	5.39641E-002	8.27842E-001	3.57200E+000	9	...........
	95	1.28	8.29979E-001	9.13606E-005	0.00000E+000	7.58274E-005	5.39641E-002	8.30106E-001	3.57200E+000	9	...........
	96	1.29333	8.32247E-001	9.13419E-005	0.00000E+000	7.60190E-005	5.39641E-002	8.32380E-001	3.57200E+000	9	...........
	97	1.30667	8.34489E-001	9.13856E-005	0.00000E+000	7.62603E-005	5.39641E-002	8.34627E-001	3.57200E+000	9	...........
	98	1.32	8.36706E-001	9.10741E-005	0.00000E+000	7.62022E-005	5.39641E-002	8.36837E-001	3.57200E+000	9	...........
	99	1.33333	8.38892E-001	9.11439E-005	0.00000E+000	7.64599E-005	5.39641E-002	8.39026E-001	3.57200E+000	9	...........
	100	1.34667	8.41051E-001	9.13596E-005	0.00000E+000	7.68381E-005	5.39641E-002	8.41195E-001	3.57200E+000	9	...........
	101	1.36	8.43212E-001	9.12585E-005	0.00000E+000	7.69503E-005	5.39641E-002	8.43352E-001	3.57200E+000	9	...........
	102	1.37333	8.45379E-001	9.13783E-005	0.00000E+000	7.72493E-005	5.39641E-002	8.45501E-001	3.57200E+000	9	...........
	103	1.38667	8.47485E-001	9.11439E-005	0.00000E+000	7.72431E-005	5.39641E-002	8.47616E-001	3.57200E+000	9	...........
	104	1.4	8.49554E-001	9.14044E-005	0.00000E+000	7.76530E-005	5.39641E-002	8.49698E-001	3.57200E+000	9	...........
	105	1.41333	8.51636E-001	9.12960E-005	0.00000E+000	7.77510E-005	5.39641E-002	8.51753E-001	3.57200E+000	9	...........
	106	1.42667	8.53657E-001	9.14013E-005	0.00000E+000	7.80253E-005	5.39641E-002	8.53787E-001	3.57200E+000	9	...........
	107	1.44	8.55665E-001	9.11314E-005	0.00000E+000	7.79780E-005	5.39641E-002	8.55781E-001	3.57200E+000	9	...........
	108	1.45333	8.57661E-001	9.13742E-005	0.00000E+000	7.83681E-005	5.39641E-002	8.57778E-001	3.57200E+000	9	...........
	109	1.46667	8.59639E-001	9.12116E-005	0.00000E+000	7.84091E-005	5.39641E-002	8.59773E-001	3.57200E+000	9	...........
	110	1.48	8.61614E-001	9.14117E-005	0.00000E+000	7.87615E-005	5.39641E-002	8.61742E-001	3.57200E+000	9	...........
	111	1.49333	8.63529E-001	9.15648E-005	0.00000E+000	7.90689E-005	5.39641E-002	8.63689E-001	3.57200E+000	9	...........
	112	1.50667	8.65446E-001	9.13961E-005	0.00000E+000	7.90984E-005	5.39641E-002	8.65616E-001	3.57200E+000	9	...........
	113	1.52	8.67366E-001	9.13492E-005	0.00000E+000	7.92331E-005	5.39641E-002	8.67517E-001	3.57200E+000	9	...........
	114	1.53333	8.69280E-001	9.14982E-005	0.00000E+000	7.95375E-005	5.39641E-002	8.69438E-001	3.57200E+000	9	...........
	115	1.54667	8.71175E-001	9.13481E-005	0.00000E+000	7.95802E-005	5.39641E-002	8.71321E-001	3.57200E+000	9	...........
	116	1.56	8.73029E-001	9.11866E-005	0.00000E+000	7.96086E-005	5.39641E-002	8.73179E-001	3.57200E+000	9	...........
	117	1.57333	8.74851E-001	9.12523E-005	0.00000E+000	7.98321E-005	5.39641E-002	8.75013E-001	3.57200E+000	9	...........
	118	1.58667	8.76707E-001	9.10793E-005	0.00000E+000	7.98499E-005	5.39641E-002	8.76823E-001	3.57200E+000	9	...........
	119	1.6	8.78495E-001	9.14461E-005	0.00000E+000	8.03349E-005	5.39641E-002	8.78606E-001	3.57200E+000	9	...........
	120	1.61333	8.80271E-001	9.13585E-005	0.00000E+000	8.04202E-005	5.39641E-002	8.80412E-001	3.57200E+000	9	...........
	121	1.62667	8.82031E-001	9.13700E-005	0.00000E+000	8.05912E-005	5.39641E-002	8.82164E-001	3.57200E+000	9	...........
	122	1.64	8.83826E-001	9.12231E-005	0.00000E+000	8.06253E-005	5.39641E-002	8.83944E-001	3.57200E+000	9	...........
	123	1.65333	8.85559E-001	9.11564E-005	0.00000E+000	8.07244E-005	5.39641E-002	8.85689E-001	3.57200E+000	9	...........
	124	1.66667	8.87241E-001	9.14804E-005	0.00000E+000	8.11652E-005	5.39641E-002	8.87399E-001	3.57200E+000	9	...........
	125	1.68	8.88961E-001	9.13804E-005	0.00000E+000	8.12337E-005	5.39641E-002	8.89079E-001	3.57200E+000	9	...........
	126	1.69333	8.90632E-001	9.11429E-005	0.00000E+000	8.11747E-005	5.39641E-002	8.90756E-001	3.57200E+000	9	...........
	127	1.70667	8.92299E-001	9.12231E-005	0.00000E+000	8.13982E-005	5.39641E-002	8.92427E-001	3.57200E+000	9	...........
	128	1.72	8.93937E-001	9.13367E-005	0.00000E+000	8.16492E-005	5.39641E-002	8.94087E-001	3.57200E+000	9	...........
	129	1.73333	8.95592E-001	9.11418E-005	0.00000E+000	8.16259E-005	5.39641E-002	8.95759E-001	3.57200E+000	9	...........
	130	1.74667	8.97224E-001	9.11564E-005	0.00000E+000	8.17877E-005	5.39641E-002	8.97380E-001	3.57200E+000	9	...........
	131	1.76	8.98836E-001	9.12898E-005	0.00000E+000	8.20546E-005	5.39641E-002	8.98989E-001	3.57200E+000	9	...........
	132	1.77333	9.00443E-001	9.09970E-005	0.00000E+000	8.19376E-005	5.39641E-002	9.00573E-001	3.57098E+000	9	...........
	133	1.78667	9.02041E-001	9.14659E-005	0.00000E+000	8.25060E-005	5.39641E-002	9.02195E-001	3.57070E+000	9	...........
	134	1.8	9.03613E-001	9.13273E-005	0.00000E+000	8.25245E-005	5.39641E-002	9.03773E-001	3.57070E+000	9	...........
	135	1.81333	9.05196E-001	9.11137E-005	0.00000E+000	8.24758E-005	5.39641E-002	9.05344E-001	3.57070E+000	9	...........
	136	1.82667	9.06734E-001	9.09772E-005	0.00000E+000	8.24921E-005	5.39641E-002	9.06902E-001	3.57070E+000	9	...........
	137	1.84	9.08288E-001	9.13179E-005	0.00000E+000	8.29430E-005	5.39641E-002	9.08455E-001	3.57070E+000	9	...........
	138	1.85333	9.09814E-001	9.11241E-005	0.00000E+000	8.29060E-005	5.39641E-002	9.09957E-001	3.57070E+000	9	...........
	139	1.86667	9.11314E-001	9.12106E-005	0.00000E+000	8.31215E-005	5.39641E-002	9.11468E-001	3.57070E+000	9	...........
	140	1.88	9.12795E-001	9.13315E-005	0.00000E+000	8.33669E-005	5.39641E-002	9.12965E-001	3.57070E+000	9	...........
	141	1.89333	9.14287E-001	9.12418E-005	0.00000E+000	8.34212E-005	5.39641E-002	9.14460E-001	3.57070E+000	9	...........
	142	1.90667	9.15792E-001	9.13325E-005	0.00000E+000	8.36416E-005	5.39641E-002	9.15943E-001	3.57070E+000	9	...........
	143	1.92	9.17255E-001	9.13565E-005	0.00000E+000	8.37972E-005	5.39641E-002	9.17424E-001	3.57070E+000	9	...........
	144	1.93333	9.18703E-001	9.12033E-005	0.00000E+000	8.37888E-005	5.39641E-002	9.18875E-001	3.57070E+000	9	...........
	145	1.94667	9.20156E-001	9.12960E-005	0.00000E+000	8.40066E-005	5.39641E-002	9.20315E-001	3.57070E+000	9	...........
	146	1.96	9.21653E-001	9.10106E-005	0.00000E+000	8.38802E-005	5.39641E-002	9.21757E-001	3.57070E+000	9	...........
	147	1.97333	9.23061E-001	9.12200E-005	0.00000E+000	8.42016E-005	5.39641E-002	9.23178E-001	3.57070E+000	9	...........
	148	1.98667	9.24463E-001	9.14627E-005	0.00000E+000	8.45539E-005	5.39641E-002	9.24580E-001	3.57070E+000	9	...........
	149	2	9.25845E-001	9.12023E-005	0.00000E+000	8.44391E-005	5.39641E-002	9.25959E-001	3.57070E+000	9	...........
	150	2.01333	9.27214E-001	9.12919E-005	0.00000E+000	8.46471E-005	5.39641E-002	9.27327E-001	3.57070E+000	9	...........
	151	2.02667	9.28593E-001	9.12377E-005	0.00000E+000	8.47227E-005	5.39641E-002	9.28705E-001	3.57070E+000	9	...........
	152	2.04	9.29938E-001	9.12064E-005	0.00000E+000	8.48163E-005	5.39641E-002	9.30070E-001	3.57070E+000	9	...........
	153	2.05333	9.31289E-001	9.12189E-005	0.00000E+000	8.49512E-005	5.39641E-002	9.31400E-001	3.57070E+000	9	...........
	154	2.06667	9.32616E-001	9.11314E-005	0.00000E+000	8.49906E-005	5.39641E-002	9.32737E-001	3.57070E+000	9	...........
	155	2.08	9.33939E-001	9.11700E-005	0.00000E+000	8.51472E-005	5.39641E-002	9.34081E-001	3.57070E+000	9	...........
	156	2.09333	9.35266E-001	9.13346E-005	0.00000E+000	8.54221E-005	5.39641E-002	9.35419E-001	3.57070E+000	9	...........
	157	2.10667	9.36561E-001	9.13637E-005	0.00000E+000	8.55678E-005	5.39641E-002	9.36699E-001	3.57070E+000	9	...........
	158	2.12	9.37876E-001	9.13731E-005	0.00000E+000	8.56966E-005	5.39641E-002	9.38000E-001	3.57070E+000	9	...........
	159	2.13333	9.39156E-001	9.11970E-005	0.00000E+000	8.56483E-005	5.39641E-002	9.39306E-001	3.57070E+000	9	...........
	160	2.14667	9.40448E-001	9.14544E-005	0.00000E+000	8.60081E-005	5.39641E-002	9.40578E-001	3.57070E+000	9	...........
	161	2.16	9.41714E-001	9.11689E-005	0.00000E+000	8.58551E-005	5.39641E-002	9.41815E-001	3.57070E+000	9	...........
	162	2.17333	9.42941E-001	9.10876E-005	0.00000E+000	8.58903E-005	5.39641E-002	9.43066E-001	3.57070E+000	9	...........
	163	2.18667	9.44170E-001	9.12825E-005	0.00000E+000	8.61862E-005	5.39641E-002	9.44314E-001	3.57070E+000	9	...........
	164	2.2	9.45393E-001	9.11689E-005	0.00000E+000	8.61905E-005	5.39641E-002	9.45553E-001	3.57070E+000	9	...........
	165	2.21333	9.46654E-001	9.13502E-005	0.00000E+000	8.64770E-005	5.39641E-002	9.46785E-001	3.57070E+000	9	...........
	166	2.22667	9.47879E-001	9.11637E-005	0.00000E+000	8.64122E-005	5.39641E-002	9.47979E-001	3.57070E+000	9	...........
	167	2.24	9.49056E-001	9.12137E-005	0.00000E+000	8.65669E-005	5.39641E-002	9.49204E-001	3.57070E+000	9	...........
	168	2.25333	9.50264E-001	9.09824E-005	0.00000E+000	8.64573E-005	5.39641E-002	9.50395E-001	3.57070E+000	9	...........
	169	2.26667	9.51441E-001	9.12356E-005	0.00000E+000	8.68053E-005	5.39641E-002	9.51560E-001	3.57070E+000	9	...........
	170	2.28	9.52632E-001	9.09449E-005	0.00000E+000	8.66371E-005	5.39641E-002	9.52739E-001	3.57070E+000	9	...........
	171	2.29333	9.53804E-001	9.11231E-005	0.00000E+000	8.69135E-005	5.39641E-002	9.53896E-001	3.57070E+000	9	...........
	172	2.30667	9.54957E-001	9.12960E-005	0.00000E+000	8.71838E-005	5.39641E-002	9.55051E-001	3.57070E+000	9	...........
	173	2.32	9.56121E-001	9.11220E-005	0.00000E+000	8.71237E-005	5.39641E-002	9.56201E-001	3.57070E+000	9	...........
	174	2.33333	9.57238E-001	9.11429E-005	0.00000E+000	8.72454E-005	5.39641E-002	9.57343E-001	3.57070E+000	9	...........
	175	2.34667	9.58343E-001	9.10595E-005	0.00000E+000	8.72663E-005	5.39641E-002	9.58471E-001	3.57070E+000	9	...........
	176	2.36	9.59476E-001	9.12137E-005	0.00000E+000	8.75174E-005	5.39641E-002	9.59588E-001	3.57070E+000	9	...........
	177	2.37333	9.60579E-001	9.16138E-005	0.00000E+000	8.80023E-005	5.39641E-002	9.60719E-001	3.57070E+000	9	...........
	178	2.38667	9.61694E-001	9.11022E-005	0.00000E+000	8.76125E-005	5.39641E-002	9.61839E-001	3.57070E+000	9	...........
	179	2.4	9.62794E-001	9.12116E-005	0.00000E+000	8.78180E-005	5.39641E-002	9.62950E-001	3.57070E+000	9	...........
	180	2.41333	9.63876E-001	9.11272E-005	0.00000E+000	8.78354E-005	5.39641E-002	9.64040E-001	3.57070E+000	9	...........
	181	2.42667	9.64938E-001	9.10053E-005	0.00000E+000	8.78145E-005	5.39641E-002	9.65105E-001	3.57070E+000	9	...........
	182	2.44	9.66031E-001	9.13033E-005	0.00000E+000	8.82018E-005	5.39641E-002	9.66165E-001	3.57070E+000	9	...........
	183	2.45333	9.67109E-001	9.13106E-005	0.00000E+000	8.83073E-005	5.39641E-002	9.67248E-001	3.57070E+000	9	...........
	184	2.46667	9.68140E-001	9.12106E-005	0.00000E+000	8.83047E-005	5.39641E-002	9.68286E-001	3.57070E+000	9	...........
	185	2.48	9.69173E-001	9.09845E-005	0.00000E+000	8.81798E-005	5.39641E-002	9.69330E-001	3.57070E+000	9	...........
	186	2.49333	9.70228E-001	9.12992E-005	0.00000E+000	8.85810E-005	5.39641E-002	9.70381E-001	3.57070E+000	9	...........
	187	2.50667	9.71229E-001	9.13367E-005	0.00000E+000	8.87088E-005	5.39641E-002	9.71409E-001	3.57070E+000	9	...........
	188	2.52	9.72300E-001	9.13408E-005	0.00000E+000	8.88106E-005	5.39641E-002	9.72449E-001	3.57070E+000	9	...........
	189	2.53333	9.73347E-001	9.11450E-005	0.00000E+000	8.87157E-005	5.39641E-002	9.73483E-001	3.57070E+000	9	...........
	190	2.54667	9.74358E-001	9.12106E-005	0.00000E+000	8.88718E-005	5.39641E-002	9.74478E-001	3.57070E+000	9	...........
	191	2.56	9.75372E-001	9.13190E-005	0.00000E+000	8.90699E-005	5.39641E-002	9.75476E-001	3.57070E+000	9	...........
	192	2.57333	9.76360E-001	9.13408E-005	0.00000E+000	8.91815E-005	5.39641E-002	9.76484E-001	3.57070E+000	9	...........
	193	2.58667	9.77344E-001	9.14013E-005	0.00000E+000	8.93305E-005	5.39641E-002	9.77474E-001	3.57070E+000	9	...........
	194	2.6	9.78303E-001	9.13877E-005	0.00000E+000	8.94049E-005	5.39641E-002	9.78470E-001	3.57070E+000	9	...........
	195	2.61333	9.79305E-001	9.12221E-005	0.00000E+000	8.93342E-005	5.39641E-002	9.79413E-001	3.57070E+000	9	...........
	196	2.62667	9.80269E-001	9.12346E-005	0.00000E+000	8.94344E-005	5.39641E-002	9.80380E-001	3.57070E+000	9	...........
	197	2.64	9.81215E-001	9.14586E-005	0.00000E+000	8.97405E-005	5.39641E-002	9.81330E-001	3.57070E+000	9	...........
	198	2.65333	9.82162E-001	9.12898E-005	0.00000E+000	8.96613E-005	5.39641E-002	9.82315E-001	3.57070E+000	9	...........
	199	2.66667	9.83130E-001	9.10783E-005	0.00000E+000	8.95418E-005	5.39641E-002	9.83269E-001	3.57070E+000	9	...........
	200	2.68	9.84041E-001	9.12325E-005	0.00000E+000	8.97765E-005	5.39641E-002	9.84195E-001	3.57070E+000	9	...........
	201	2.69333	9.84978E-001	9.15878E-005	0.00000E+000	9.02119E-005	5.39641E-002	9.85146E-001	3.57070E+000	9	...........
	202	2.70667	9.85905E-001	9.13763E-005	0.00000E+000	9.00883E-005	5.39641E-002	9.86080E-001	3.57070E+000	9	...........
	203	2.72	9.86801E-001	9.13575E-005	0.00000E+000	9.01517E-005	5.39641E-002	9.86997E-001	3.57070E+000	9	...........
	204	2.73333	9.87710E-001	9.12523E-005	0.00000E+000	9.01308E-005	5.39641E-002	9.87875E-001	3.57070E+000	9	...........
	205	2.74667	9.88632E-001	9.14127E-005	0.00000E+000	9.03735E-005	5.39641E-002	9.88776E-001	3.57070E+000	9	...........
	206	2.76	9.89521E-001	9.11793E-005	0.00000E+000	9.02239E-005	5.39641E-002	9.89671E-001	3.57070E+000	9	...........
	207	2.77333	9.90382E-001	9.10158E-005	0.00000E+000	9.01404E-005	5.39641E-002	9.90550E-001	3.57070E+000	9	...........
	208	2.78667	9.91275E-001	9.13169E-005	0.00000E+000	9.05202E-005	5.39641E-002	9.91397E-001	3.57070E+000	9	...........
	209	2.8	9.92148E-001	9.11533E-005	0.00000E+000	9.04376E-005	5.39641E-002	9.92289E-001	3.57070E+000	9	...........
	210	2.81333	9.93041E-001	9.12606E-005	0.00000E+000	9.06255E-005	5.39641E-002	9.93159E-001	3.57070E+000	9	...........
	211	2.82667	9.93870E-001	9.14127E-005	0.00000E+000	9.08524E-005	5.39641E-002	9.94044E-001	3.57070E+000	9	...........
	212	2.84	9.94740E-001	9.13242E-005	0.00000E+000	9.08438E-005	5.39641E-002	9.94905E-001	3.57070E+000	9	...........
	213	2.85333	9.95628E-001	9.10574E-005	0.00000E+000	9.06593E-005	5.39641E-002	9.95754E-001	3.57070E+000	9	...........
	214	2.86667	9.96457E-001	9.13408E-005	0.00000E+000	9.10172E-005	5.39641E-002	9.96602E-001	3.57070E+000	9	...........
	215	2.88	9.97260E-001	9.13346E-005	0.00000E+000	9.10843E-005	5.39641E-002	9.97461E-001	3.57070E+000	9	...........
	216	2.89333	9.98142E-001	9.12033E-005	0.00000E+000	9.10338E-005	5.39641E-002	9.98321E-001	3.57070E+000	9	...........
	217	2.90667	9.98973E-001	9.10668E-005	0.00000E+000	9.09733E-005	5.39641E-002	9.99135E-001	3.57070E+000	9	...........
	218	2.91833	9.99736E-001	9.14258E-005	0.00000E+000	9.14017E-005	5.39641E-002	9.99915E-001	3.57070E+000	9	...........
STARTTIMEOFFSET	QUANT	55.06167	Start Time Offset (s)
