EXPLAIN
TAG	PWR800_CHARGE
TITLE	LABEL	PWR Cyclic Charge Discharge (Cell) - Charge Step	Test &Identifier
DATE	LABEL	10-7-2017	Date
TIME	LABEL	15:06:29	Time
NOTES	NOTES	3	&Notes...
	supercap test cell
	0.9mg
	6M KOH
PSTAT	PSTAT	IFC5000-01520	Potentiostat
CAPACITY	QUANT	1.00000E-003	Capacity (A-hr)
CELLTYPE	SELECTOR	1	&Cell Type
WORKINGCONNECTION	SELECTOR	0	&Working Lead
MAXCHARGETIME	VARIABLEANDUNITS	1.00000E+002	s	1.00000E+002	second(s)	Max &Charge Time
CHARGECURRENT	QUANT	9.00000E-005	&Charge Current (A) 
VOLTAGEFINISH	TWOPARAM	F	1.00000E-003	3.60000E+003	&Voltage Finish	 I (A) < 	Max Time(s)
SAMPLETIME	QUANT	1.00000E-002	Sa&mple Period (s)
CHARGESTOPAT1	MULTIPARAM	4	1.00000E+000	Charge Stop At &1	Voltage > Limit	V
CHARGESTOPAT2	MULTIPARAM	0	0.00000E+000	Charge Stop At &2	None	N/A
AESBHCSELECTOR	TOGGLE	F	Save Both Half Cells
IRCOMP	TOGGLE	F	IR &Measure
EOC	QUANT	0	Open Circuit (V)
SEQUENCER	TOGGLE	TRUE	Run as Sequence
PSTATMODEL	IQUANT	53	Pstat Model
PSTATSECTION	LABEL	IFC5000-01520	Pstat Section
PSTATSERIALNO	LABEL	01520	Pstat Serial Number
CTRLMODE	IQUANT	0	Control Mode
ELECTROMETER	IQUANT	1	RE=0 or CS=1
IESTAB	IQUANT	0	I/E Stability
CASPEED	IQUANT	4	Control Amp Speed
CONVENTION	IQUANT	1	Current Convention
ICHRANGE	IQUANT	2	Ich Range
ICHRANGEMODE	TOGGLE	T	Ich Auto Range
ICHOFFSETENABLE	TOGGLE	F	Ich Offset Enable
ICHOFFSET	QUANT	0	Ich Offset (V)
ICHFILTER	IQUANT	1	Ich Filter
VCHRANGE	IQUANT	2	Vch Range
VCHRANGEMODE	TOGGLE	T	Vch Auto Range
VCHOFFSETENABLE	TOGGLE	F	Vch Offset Enable
VCHOFFSET	QUANT	0	Vch Offset (V)
VCHFILTER	IQUANT	1	Vch Filter
IERANGELOWERLIMIT	IQUANT	9	I/E Range Lower Limit
IERANGEMODE	TOGGLE	F	I/E AutoRange
IERANGE	IQUANT	9	I/E Range
ACHSELECT	IQUANT	1	Ach Select
ACHRANGE	IQUANT	2	Ach Range
ACHOFFSETENABLE	TOGGLE	F	Ach Offset Enable
ACHOFFSET	QUANT	0	Ach Offset (V)
ACHFILTER	IQUANT	1	Ach Filter
CABLEID	IQUANT	14	Cable ID
DCCALDATE	LABEL	5-7-2017	DC Calibration Date
ACCALDATE	LABEL	12/3/2015	AC Calibration Date
FRAMEWORKVERSION	QUANT	7.01	Framework Version
INSTRUMENTVERSION	LABEL	4.00	Instrument Version
CURVE	TABLE	191
	Pt	T	Vf	Im	Vu	Pwr	Sig	Ach	Temp	IERange	Over
	#	s	V	A	V	W	V	V	deg C	#	bits
	0	0.013333	2.93640E-001	9.08897E-005	0.00000E+000	2.66888E-005	5.39641E-002	2.93674E-001	3.57190E+000	9	...........
	1	0.026667	3.12499E-001	9.11429E-005	0.00000E+000	2.84821E-005	5.39641E-002	3.12526E-001	3.57190E+000	9	...........
	2	0.04	3.29863E-001	9.10626E-005	0.00000E+000	3.00382E-005	5.39641E-002	3.29898E-001	3.57190E+000	9	...........
	3	0.053333	3.46020E-001	9.11595E-005	0.00000E+000	3.15430E-005	5.39641E-002	3.46052E-001	3.57190E+000	9	...........
	4	0.066667	3.61179E-001	9.09720E-005	0.00000E+000	3.28571E-005	5.39641E-002	3.61206E-001	3.57190E+000	9	...........
	5	0.08	3.75455E-001	9.11304E-005	0.00000E+000	3.42153E-005	5.39641E-002	3.75487E-001	3.57190E+000	9	...........
	6	0.093333	3.88986E-001	9.10679E-005	0.00000E+000	3.54242E-005	5.39641E-002	3.89017E-001	3.57190E+000	9	...........
	7	0.106667	4.01855E-001	9.10929E-005	0.00000E+000	3.66062E-005	5.39641E-002	4.01886E-001	3.57190E+000	9	...........
	8	0.12	4.14119E-001	9.12356E-005	0.00000E+000	3.77824E-005	5.39641E-002	4.14165E-001	3.57190E+000	9	...........
	9	0.133333	4.25861E-001	9.09730E-005	0.00000E+000	3.87419E-005	5.39641E-002	4.25910E-001	3.57190E+000	9	...........
	10	0.146667	4.37129E-001	9.11314E-005	0.00000E+000	3.98361E-005	5.39641E-002	4.37173E-001	3.57190E+000	9	...........
	11	0.16	4.47951E-001	9.10272E-005	0.00000E+000	4.07757E-005	5.39641E-002	4.47996E-001	3.57190E+000	9	...........
	12	0.173333	4.58376E-001	9.11356E-005	0.00000E+000	4.17743E-005	5.39641E-002	4.58420E-001	3.57190E+000	9	...........
	13	0.186667	4.68438E-001	9.11095E-005	0.00000E+000	4.26792E-005	5.39641E-002	4.68485E-001	3.57190E+000	9	...........
	14	0.2	4.78158E-001	9.09970E-005	0.00000E+000	4.35110E-005	5.39641E-002	4.78204E-001	3.57190E+000	9	...........
	15	0.213333	4.87546E-001	9.12575E-005	0.00000E+000	4.44923E-005	5.39641E-002	4.87601E-001	3.57190E+000	9	...........
	16	0.226667	4.96631E-001	9.10574E-005	0.00000E+000	4.52219E-005	5.39641E-002	4.96684E-001	3.57190E+000	9	...........
	17	0.24	5.05449E-001	9.08272E-005	0.00000E+000	4.59085E-005	5.39641E-002	5.05503E-001	3.57166E+000	9	...........
	18	0.253333	5.14015E-001	9.14659E-005	0.00000E+000	4.70148E-005	5.39641E-002	5.14075E-001	3.57160E+000	9	...........
	19	0.266667	5.22338E-001	9.12762E-005	0.00000E+000	4.76771E-005	5.39641E-002	5.22400E-001	3.57160E+000	9	...........
	20	0.28	5.30424E-001	9.09189E-005	0.00000E+000	4.82256E-005	5.39641E-002	5.30484E-001	3.57160E+000	9	...........
	21	0.293333	5.38257E-001	9.11064E-005	0.00000E+000	4.90386E-005	5.39641E-002	5.38355E-001	3.57160E+000	9	...........
	22	0.306667	5.45919E-001	9.09730E-005	0.00000E+000	4.96640E-005	5.39641E-002	5.46002E-001	3.57160E+000	9	...........
	23	0.32	5.53395E-001	9.11429E-005	0.00000E+000	5.04380E-005	5.39641E-002	5.53497E-001	3.57160E+000	9	...........
	24	0.333333	5.60685E-001	9.14429E-005	0.00000E+000	5.12707E-005	5.39641E-002	5.60796E-001	3.57160E+000	9	...........
	25	0.346667	5.67818E-001	9.12596E-005	0.00000E+000	5.18188E-005	5.39641E-002	5.67916E-001	3.57160E+000	9	...........
	26	0.36	5.74731E-001	9.11408E-005	0.00000E+000	5.23815E-005	5.39641E-002	5.74846E-001	3.57160E+000	9	...........
	27	0.373333	5.81508E-001	9.10814E-005	0.00000E+000	5.29645E-005	5.39641E-002	5.81627E-001	3.57160E+000	9	...........
	28	0.386667	5.88135E-001	9.12762E-005	0.00000E+000	5.36827E-005	5.39641E-002	5.88263E-001	3.57160E+000	9	...........
	29	0.4	5.94624E-001	9.11825E-005	0.00000E+000	5.42193E-005	5.39641E-002	5.94710E-001	3.57160E+000	9	...........
	30	0.413333	6.00935E-001	9.11325E-005	0.00000E+000	5.47647E-005	5.39641E-002	6.01050E-001	3.57160E+000	9	...........
	31	0.426667	6.07120E-001	9.13023E-005	0.00000E+000	5.54314E-005	5.39641E-002	6.07242E-001	3.57160E+000	9	...........
	32	0.44	6.13187E-001	9.10043E-005	0.00000E+000	5.58026E-005	5.39641E-002	6.13312E-001	3.57160E+000	9	...........
	33	0.453333	6.19161E-001	9.11533E-005	0.00000E+000	5.64386E-005	5.39641E-002	6.19234E-001	3.57160E+000	9	...........
	34	0.466667	6.24950E-001	9.13961E-005	0.00000E+000	5.71180E-005	5.39641E-002	6.25026E-001	3.57160E+000	9	...........
	35	0.48	6.30633E-001	9.09814E-005	0.00000E+000	5.73759E-005	5.39641E-002	6.30708E-001	3.57160E+000	9	...........
	36	0.493333	6.36180E-001	9.10616E-005	0.00000E+000	5.79316E-005	5.39641E-002	6.36282E-001	3.57160E+000	9	...........
	37	0.506667	6.41699E-001	9.09335E-005	0.00000E+000	5.83519E-005	5.39641E-002	6.41803E-001	3.57160E+000	9	...........
	38	0.52	6.47082E-001	9.13387E-005	0.00000E+000	5.91036E-005	5.39641E-002	6.47166E-001	3.57160E+000	9	...........
	39	0.533333	6.52353E-001	9.11377E-005	0.00000E+000	5.94539E-005	5.39641E-002	6.52439E-001	3.57160E+000	9	...........
	40	0.546667	6.57523E-001	9.12168E-005	0.00000E+000	5.99772E-005	5.39641E-002	6.57614E-001	3.57160E+000	9	...........
	41	0.56	6.62583E-001	9.12877E-005	0.00000E+000	6.04856E-005	5.39641E-002	6.62698E-001	3.57160E+000	9	...........
	42	0.573333	6.67601E-001	9.11783E-005	0.00000E+000	6.08707E-005	5.39641E-002	6.67684E-001	3.57160E+000	9	...........
	43	0.586667	6.72474E-001	9.11470E-005	0.00000E+000	6.12940E-005	5.39641E-002	6.72545E-001	3.57160E+000	9	...........
	44	0.6	6.77267E-001	9.11981E-005	0.00000E+000	6.17654E-005	5.39641E-002	6.77338E-001	3.57160E+000	9	...........
	45	0.613333	6.81971E-001	9.11220E-005	0.00000E+000	6.21426E-005	5.39641E-002	6.82040E-001	3.57160E+000	9	...........
	46	0.626667	6.86599E-001	9.12439E-005	0.00000E+000	6.26480E-005	5.39641E-002	6.86673E-001	3.57160E+000	9	...........
	47	0.64	6.91182E-001	9.14492E-005	0.00000E+000	6.32080E-005	5.39641E-002	6.91242E-001	3.57160E+000	9	...........
	48	0.653333	6.95677E-001	9.11731E-005	0.00000E+000	6.34270E-005	5.39641E-002	6.95737E-001	3.57160E+000	9	...........
	49	0.666667	7.00048E-001	9.10626E-005	0.00000E+000	6.37482E-005	5.39641E-002	7.00114E-001	3.57160E+000	9	...........
	50	0.68	7.04399E-001	9.10470E-005	0.00000E+000	6.41335E-005	5.39641E-002	7.04450E-001	3.57160E+000	9	...........
	51	0.693333	7.08667E-001	9.12887E-005	0.00000E+000	6.46933E-005	5.39641E-002	7.08738E-001	3.57160E+000	9	...........
	52	0.706667	7.12849E-001	9.11033E-005	0.00000E+000	6.49428E-005	5.39641E-002	7.12911E-001	3.57160E+000	9	...........
	53	0.72	7.16990E-001	9.09657E-005	0.00000E+000	6.52215E-005	5.39641E-002	7.17075E-001	3.57160E+000	9	...........
	54	0.733333	7.21073E-001	9.10356E-005	0.00000E+000	6.56433E-005	5.39641E-002	7.21095E-001	3.57160E+000	9	...........
	55	0.746667	7.25058E-001	9.12210E-005	0.00000E+000	6.61405E-005	5.39641E-002	7.25093E-001	3.57160E+000	9	...........
	56	0.76	7.28987E-001	9.13617E-005	0.00000E+000	6.66015E-005	5.39641E-002	7.29029E-001	3.57160E+000	9	...........
	57	0.773333	7.32882E-001	9.09981E-005	0.00000E+000	6.66909E-005	5.39641E-002	7.32944E-001	3.57160E+000	9	...........
	58	0.786667	7.36700E-001	9.11616E-005	0.00000E+000	6.71588E-005	5.39641E-002	7.36773E-001	3.57160E+000	9	...........
	59	0.8	7.40481E-001	9.10251E-005	0.00000E+000	6.74024E-005	5.39641E-002	7.40568E-001	3.57160E+000	9	...........
	60	0.813333	7.44239E-001	9.11575E-005	0.00000E+000	6.78429E-005	5.39641E-002	7.44318E-001	3.57160E+000	9	...........
	61	0.826667	7.47875E-001	9.10970E-005	0.00000E+000	6.81292E-005	5.39641E-002	7.47975E-001	3.57160E+000	9	...........
	62	0.84	7.51512E-001	9.12158E-005	0.00000E+000	6.85497E-005	5.39641E-002	7.51601E-001	3.57160E+000	9	...........
	63	0.853333	7.55083E-001	9.11345E-005	0.00000E+000	6.88141E-005	5.39641E-002	7.55194E-001	3.57160E+000	9	...........
	64	0.866667	7.58602E-001	9.11866E-005	0.00000E+000	6.91743E-005	5.39641E-002	7.58707E-001	3.57160E+000	9	...........
	65	0.88	7.62064E-001	9.13658E-005	0.00000E+000	6.96266E-005	5.39641E-002	7.62171E-001	3.57160E+000	9	...........
	66	0.893333	7.65454E-001	9.12002E-005	0.00000E+000	6.98096E-005	5.39641E-002	7.65584E-001	3.57160E+000	9	...........
	67	0.906667	7.68839E-001	9.10814E-005	0.00000E+000	7.00270E-005	5.39641E-002	7.68975E-001	3.57160E+000	9	...........
	68	0.92	7.72166E-001	9.11158E-005	0.00000E+000	7.03565E-005	5.39641E-002	7.72284E-001	3.57160E+000	9	...........
	69	0.933333	7.75456E-001	9.12158E-005	0.00000E+000	7.07338E-005	5.39641E-002	7.75569E-001	3.57160E+000	9	...........
	70	0.946667	7.78684E-001	9.09595E-005	0.00000E+000	7.08287E-005	5.39641E-002	7.78787E-001	3.57160E+000	9	...........
	71	0.96	7.81925E-001	9.10470E-005	0.00000E+000	7.11920E-005	5.39641E-002	7.82025E-001	3.57160E+000	9	...........
	72	0.97333	7.85073E-001	9.10043E-005	0.00000E+000	7.14450E-005	5.39641E-002	7.85172E-001	3.57160E+000	9	...........
	73	0.98667	7.88209E-001	9.10845E-005	0.00000E+000	7.17936E-005	5.39641E-002	7.88295E-001	3.57160E+000	9	...........
	74	1	7.91261E-001	9.08949E-005	0.00000E+000	7.19216E-005	5.39641E-002	7.91385E-001	3.57160E+000	9	...........
	75	1.01333	7.94361E-001	9.11741E-005	0.00000E+000	7.24252E-005	5.39641E-002	7.94463E-001	3.57160E+000	9	...........
	76	1.02667	7.97367E-001	9.11022E-005	0.00000E+000	7.26420E-005	5.39641E-002	7.97441E-001	3.57160E+000	9	...........
	77	1.04	8.00332E-001	9.10814E-005	0.00000E+000	7.28954E-005	5.39641E-002	8.00429E-001	3.57160E+000	9	...........
	78	1.05333	8.03246E-001	9.12158E-005	0.00000E+000	7.32687E-005	5.39641E-002	8.03364E-001	3.57160E+000	9	...........
	79	1.06667	8.06156E-001	9.11825E-005	0.00000E+000	7.35073E-005	5.39641E-002	8.06262E-001	3.57160E+000	9	...........
	80	1.08	8.09009E-001	9.14929E-005	0.00000E+000	7.40186E-005	5.39641E-002	8.09145E-001	3.57160E+000	9	...........
	81	1.09333	8.11834E-001	9.11293E-005	0.00000E+000	7.39819E-005	5.39641E-002	8.11965E-001	3.57160E+000	9	...........
	82	1.10667	8.14600E-001	9.10887E-005	0.00000E+000	7.42008E-005	5.39641E-002	8.14765E-001	3.57160E+000	9	...........
	83	1.12	8.17364E-001	9.11418E-005	0.00000E+000	7.44960E-005	5.39641E-002	8.17517E-001	3.57160E+000	9	...........
	84	1.13333	8.20132E-001	9.10116E-005	0.00000E+000	7.46415E-005	5.39641E-002	8.20250E-001	3.57160E+000	9	...........
	85	1.14667	8.22823E-001	9.11241E-005	0.00000E+000	7.49790E-005	5.39641E-002	8.22951E-001	3.57160E+000	9	...........
	86	1.16	8.25497E-001	9.10522E-005	0.00000E+000	7.51633E-005	5.39641E-002	8.25615E-001	3.57160E+000	9	...........
	87	1.17333	8.28148E-001	9.11710E-005	0.00000E+000	7.55030E-005	5.39641E-002	8.28242E-001	3.57160E+000	9	...........
	88	1.18667	8.30732E-001	9.12294E-005	0.00000E+000	7.57872E-005	5.39641E-002	8.30862E-001	3.57160E+000	9	...........
	89	1.2	8.33363E-001	9.11283E-005	0.00000E+000	7.59430E-005	5.39641E-002	8.33495E-001	3.57160E+000	9	...........
	90	1.21333	8.35914E-001	9.12471E-005	0.00000E+000	7.62747E-005	5.39641E-002	8.36051E-001	3.57160E+000	9	...........
	91	1.22667	8.38460E-001	9.11700E-005	0.00000E+000	7.64424E-005	5.39641E-002	8.38563E-001	3.57160E+000	9	...........
	92	1.24	8.40957E-001	9.10835E-005	0.00000E+000	7.65973E-005	5.39641E-002	8.41084E-001	3.57176E+000	9	...........
	93	1.25333	8.43442E-001	9.11689E-005	0.00000E+000	7.68957E-005	5.39641E-002	8.43575E-001	3.57180E+000	9	...........
	94	1.26667	8.45917E-001	9.11179E-005	0.00000E+000	7.70781E-005	5.39641E-002	8.46039E-001	3.57180E+000	9	...........
	95	1.28	8.48335E-001	9.11408E-005	0.00000E+000	7.73179E-005	5.39641E-002	8.48484E-001	3.57180E+000	9	...........
	96	1.29333	8.50728E-001	9.12106E-005	0.00000E+000	7.75954E-005	5.39641E-002	8.50897E-001	3.57180E+000	9	...........
	97	1.30667	8.53124E-001	9.12252E-005	0.00000E+000	7.78264E-005	5.39641E-002	8.53282E-001	3.57180E+000	9	...........
	98	1.32	8.55470E-001	9.11252E-005	0.00000E+000	7.79549E-005	5.39641E-002	8.55614E-001	3.57180E+000	9	...........
	99	1.33333	8.57798E-001	9.09376E-005	0.00000E+000	7.80061E-005	5.39641E-002	8.57967E-001	3.57180E+000	9	...........
	100	1.34667	8.60122E-001	9.11241E-005	0.00000E+000	7.83778E-005	5.39641E-002	8.60291E-001	3.57180E+000	9	...........
	101	1.36	8.62440E-001	9.12325E-005	0.00000E+000	7.86826E-005	5.39641E-002	8.62619E-001	3.57180E+000	9	...........
	102	1.37333	8.64717E-001	9.10824E-005	0.00000E+000	7.87606E-005	5.39641E-002	8.64868E-001	3.57180E+000	9	...........
	103	1.38667	8.66974E-001	9.13888E-005	0.00000E+000	7.92317E-005	5.39641E-002	8.67109E-001	3.57180E+000	9	...........
	104	1.4	8.69210E-001	9.11762E-005	0.00000E+000	7.92513E-005	5.39641E-002	8.69349E-001	3.57180E+000	9	...........
	105	1.41333	8.71442E-001	9.14190E-005	0.00000E+000	7.96664E-005	5.39641E-002	8.71577E-001	3.57180E+000	9	...........
	106	1.42667	8.73628E-001	9.13398E-005	0.00000E+000	7.97970E-005	5.39641E-002	8.73774E-001	3.57180E+000	9	...........
	107	1.44	8.75805E-001	9.10189E-005	0.00000E+000	7.97148E-005	5.39641E-002	8.75927E-001	3.57180E+000	9	...........
	108	1.45333	8.77948E-001	9.10929E-005	0.00000E+000	7.99748E-005	5.39641E-002	8.78036E-001	3.57180E+000	9	...........
	109	1.46667	8.80074E-001	9.10387E-005	0.00000E+000	8.01208E-005	5.39641E-002	8.80183E-001	3.57180E+000	9	...........
	110	1.48	8.82164E-001	9.10376E-005	0.00000E+000	8.03101E-005	5.39641E-002	8.82298E-001	3.57180E+000	9	...........
	111	1.49333	8.84279E-001	9.09595E-005	0.00000E+000	8.04336E-005	5.39641E-002	8.84386E-001	3.57180E+000	9	...........
	112	1.50667	8.86300E-001	9.11887E-005	0.00000E+000	8.08206E-005	5.39641E-002	8.86444E-001	3.57180E+000	9	...........
	113	1.52	8.88368E-001	9.13450E-005	0.00000E+000	8.11480E-005	5.39641E-002	8.88501E-001	3.57180E+000	9	...........
	114	1.53333	8.90398E-001	9.11970E-005	0.00000E+000	8.12017E-005	5.39641E-002	8.90533E-001	3.57180E+000	9	...........
	115	1.54667	8.92390E-001	9.10981E-005	0.00000E+000	8.12950E-005	5.39641E-002	8.92544E-001	3.57180E+000	9	...........
	116	1.56	8.94366E-001	9.11356E-005	0.00000E+000	8.15085E-005	5.39641E-002	8.94535E-001	3.57180E+000	9	...........
	117	1.57333	8.96378E-001	9.12554E-005	0.00000E+000	8.17993E-005	5.39641E-002	8.96533E-001	3.57180E+000	9	...........
	118	1.58667	8.98292E-001	9.10481E-005	0.00000E+000	8.17878E-005	5.39641E-002	8.98464E-001	3.57180E+000	9	...........
	119	1.6	9.00220E-001	9.10824E-005	0.00000E+000	8.19943E-005	5.39641E-002	9.00370E-001	3.57180E+000	9	...........
	120	1.61333	9.02140E-001	9.12179E-005	0.00000E+000	8.22913E-005	5.39641E-002	9.02309E-001	3.57180E+000	9	...........
	121	1.62667	9.04009E-001	9.09981E-005	0.00000E+000	8.22631E-005	5.39641E-002	9.04175E-001	3.57180E+000	9	...........
	122	1.64	9.05904E-001	9.12012E-005	0.00000E+000	8.26195E-005	5.39641E-002	9.06062E-001	3.57180E+000	9	...........
	123	1.65333	9.07748E-001	9.12439E-005	0.00000E+000	8.28265E-005	5.39641E-002	9.07939E-001	3.57180E+000	9	...........
	124	1.66667	9.09610E-001	9.11252E-005	0.00000E+000	8.28884E-005	5.39641E-002	9.09757E-001	3.57180E+000	9	...........
	125	1.68	9.11426E-001	9.10897E-005	0.00000E+000	8.30215E-005	5.39641E-002	9.11595E-001	3.57180E+000	9	...........
	126	1.69333	9.13214E-001	9.12012E-005	0.00000E+000	8.32862E-005	5.39641E-002	9.13388E-001	3.57180E+000	9	...........
	127	1.70667	9.15012E-001	9.12325E-005	0.00000E+000	8.34788E-005	5.39641E-002	9.15195E-001	3.57180E+000	9	...........
	128	1.72	9.16774E-001	9.13325E-005	0.00000E+000	8.37313E-005	5.39641E-002	9.16964E-001	3.57180E+000	9	...........
	129	1.73333	9.18500E-001	9.13981E-005	0.00000E+000	8.39492E-005	5.39641E-002	9.18693E-001	3.57180E+000	9	...........
	130	1.74667	9.20240E-001	9.11304E-005	0.00000E+000	8.38618E-005	5.39641E-002	9.20427E-001	3.57180E+000	9	...........
	131	1.76	9.22031E-001	9.12033E-005	0.00000E+000	8.40923E-005	5.39641E-002	9.22150E-001	3.57180E+000	9	...........
	132	1.77333	9.23735E-001	9.12023E-005	0.00000E+000	8.42468E-005	5.39641E-002	9.23865E-001	3.57180E+000	9	...........
	133	1.78667	9.25406E-001	9.11908E-005	0.00000E+000	8.43885E-005	5.39641E-002	9.25542E-001	3.57180E+000	9	...........
	134	1.8	9.27089E-001	9.10074E-005	0.00000E+000	8.43720E-005	5.39641E-002	9.27258E-001	3.57180E+000	9	...........
	135	1.81333	9.28743E-001	9.12429E-005	0.00000E+000	8.47412E-005	5.39641E-002	9.28892E-001	3.57180E+000	9	...........
	136	1.82667	9.30362E-001	9.10679E-005	0.00000E+000	8.47260E-005	5.39641E-002	9.30490E-001	3.57180E+000	9	...........
	137	1.84	9.31972E-001	9.09751E-005	0.00000E+000	8.47863E-005	5.39641E-002	9.32117E-001	3.57180E+000	9	...........
	138	1.85333	9.33574E-001	9.13356E-005	0.00000E+000	8.52686E-005	5.39641E-002	9.33733E-001	3.57180E+000	9	...........
	139	1.86667	9.35148E-001	9.13148E-005	0.00000E+000	8.53929E-005	5.39641E-002	9.35343E-001	3.57180E+000	9	...........
	140	1.88	9.36745E-001	9.08220E-005	0.00000E+000	8.50770E-005	5.39641E-002	9.36905E-001	3.57180E+000	9	...........
	141	1.89333	9.38321E-001	9.11627E-005	0.00000E+000	8.55398E-005	5.39641E-002	9.38475E-001	3.57180E+000	9	...........
	142	1.90667	9.39830E-001	9.14221E-005	0.00000E+000	8.59212E-005	5.39641E-002	9.40023E-001	3.57180E+000	9	...........
	143	1.92	9.41368E-001	9.14033E-005	0.00000E+000	8.60442E-005	5.39641E-002	9.41539E-001	3.57180E+000	9	...........
	144	1.93333	9.42869E-001	9.12043E-005	0.00000E+000	8.59937E-005	5.39641E-002	9.43033E-001	3.57180E+000	9	...........
	145	1.94667	9.44369E-001	9.13523E-005	0.00000E+000	8.62703E-005	5.39641E-002	9.44555E-001	3.57180E+000	9	...........
	146	1.96	9.45885E-001	9.12377E-005	0.00000E+000	8.63003E-005	5.39641E-002	9.46030E-001	3.57180E+000	9	...........
	147	1.97333	9.47428E-001	9.10908E-005	0.00000E+000	8.63019E-005	5.39641E-002	9.47550E-001	3.57180E+000	9	...........
	148	1.98667	9.48895E-001	9.14044E-005	0.00000E+000	8.67331E-005	5.39641E-002	9.49020E-001	3.57180E+000	9	...........
	149	2	9.50331E-001	9.11606E-005	0.00000E+000	8.66328E-005	5.39641E-002	9.50474E-001	3.57180E+000	9	...........
	150	2.01333	9.51739E-001	9.11387E-005	0.00000E+000	8.67403E-005	5.39641E-002	9.51903E-001	3.57180E+000	9	...........
	151	2.02667	9.53190E-001	9.11064E-005	0.00000E+000	8.68417E-005	5.39641E-002	9.53334E-001	3.57180E+000	9	...........
	152	2.04	9.54588E-001	9.09783E-005	0.00000E+000	8.68467E-005	5.39641E-002	9.54740E-001	3.57180E+000	9	...........
	153	2.05333	9.55987E-001	9.10960E-005	0.00000E+000	8.70866E-005	5.39641E-002	9.56150E-001	3.57180E+000	9	...........
	154	2.06667	9.57385E-001	9.13033E-005	0.00000E+000	8.74125E-005	5.39641E-002	9.57541E-001	3.57180E+000	9	...........
	155	2.08	9.58767E-001	9.10929E-005	0.00000E+000	8.73368E-005	5.39641E-002	9.58946E-001	3.57180E+000	9	...........
	156	2.09333	9.60140E-001	9.13169E-005	0.00000E+000	8.76770E-005	5.39641E-002	9.60323E-001	3.57180E+000	9	...........
	157	2.10667	9.61511E-001	9.11929E-005	0.00000E+000	8.76829E-005	5.39641E-002	9.61688E-001	3.57180E+000	9	...........
	158	2.12	9.62862E-001	9.13815E-005	0.00000E+000	8.79878E-005	5.39641E-002	9.63038E-001	3.57180E+000	9	...........
	159	2.13333	9.64198E-001	9.13346E-005	0.00000E+000	8.80646E-005	5.39641E-002	9.64363E-001	3.57180E+000	9	...........
	160	2.14667	9.65512E-001	9.11022E-005	0.00000E+000	8.79603E-005	5.39641E-002	9.65654E-001	3.57180E+000	9	...........
	161	2.16	9.66821E-001	9.11022E-005	0.00000E+000	8.80796E-005	5.39641E-002	9.66958E-001	3.57180E+000	9	...........
	162	2.17333	9.68113E-001	9.12033E-005	0.00000E+000	8.82951E-005	5.39641E-002	9.68231E-001	3.57180E+000	9	...........
	163	2.18667	9.69406E-001	9.11689E-005	0.00000E+000	8.83797E-005	5.39641E-002	9.69560E-001	3.57180E+000	9	...........
	164	2.2	9.70673E-001	9.12210E-005	0.00000E+000	8.85457E-005	5.39641E-002	9.70825E-001	3.57180E+000	9	...........
	165	2.21333	9.71949E-001	9.10616E-005	0.00000E+000	8.85073E-005	5.39641E-002	9.72129E-001	3.57180E+000	9	...........
	166	2.22667	9.73271E-001	9.12033E-005	0.00000E+000	8.87655E-005	5.39641E-002	9.73385E-001	3.57180E+000	9	...........
	167	2.24	9.74492E-001	9.09908E-005	0.00000E+000	8.86697E-005	5.39641E-002	9.74645E-001	3.57164E+000	9	...........
	168	2.25333	9.75702E-001	9.11773E-005	0.00000E+000	8.89618E-005	5.39641E-002	9.75848E-001	3.57160E+000	9	...........
	169	2.26667	9.76956E-001	9.14231E-005	0.00000E+000	8.93164E-005	5.39641E-002	9.77093E-001	3.57160E+000	9	...........
	170	2.28	9.78159E-001	9.10637E-005	0.00000E+000	8.90748E-005	5.39641E-002	9.78306E-001	3.57160E+000	9	...........
	171	2.29333	9.79357E-001	9.10699E-005	0.00000E+000	8.91900E-005	5.39641E-002	9.79501E-001	3.57160E+000	9	...........
	172	2.30667	9.80555E-001	9.11825E-005	0.00000E+000	8.94094E-005	5.39641E-002	9.80705E-001	3.57160E+000	9	...........
	173	2.32	9.81717E-001	9.12377E-005	0.00000E+000	8.95696E-005	5.39641E-002	9.81884E-001	3.57160E+000	9	...........
	174	2.33333	9.82875E-001	9.11325E-005	0.00000E+000	8.95718E-005	5.39641E-002	9.83041E-001	3.57160E+000	9	...........
	175	2.34667	9.84021E-001	9.12867E-005	0.00000E+000	8.98280E-005	5.39641E-002	9.84196E-001	3.57160E+000	9	...........
	176	2.36	9.85166E-001	9.13606E-005	0.00000E+000	9.00053E-005	5.39641E-002	9.85356E-001	3.57160E+000	9	...........
	177	2.37333	9.86328E-001	9.12252E-005	0.00000E+000	8.99780E-005	5.39641E-002	9.86519E-001	3.57160E+000	9	...........
	178	2.38667	9.87441E-001	9.13085E-005	0.00000E+000	9.01618E-005	5.39641E-002	9.87656E-001	3.57160E+000	9	...........
	179	2.4	9.88584E-001	9.08293E-005	0.00000E+000	8.97924E-005	5.39641E-002	9.88740E-001	3.57160E+000	9	...........
	180	2.41333	9.89687E-001	9.11387E-005	0.00000E+000	9.01988E-005	5.39641E-002	9.89856E-001	3.57160E+000	9	...........
	181	2.42667	9.90773E-001	9.12773E-005	0.00000E+000	9.04350E-005	5.39641E-002	9.90934E-001	3.57160E+000	9	...........
	182	2.44	9.91857E-001	9.12658E-005	0.00000E+000	9.05226E-005	5.39641E-002	9.92010E-001	3.57160E+000	9	...........
	183	2.45333	9.92936E-001	9.13835E-005	0.00000E+000	9.07380E-005	5.39641E-002	9.93092E-001	3.57160E+000	9	...........
	184	2.46667	9.94015E-001	9.13294E-005	0.00000E+000	9.07828E-005	5.39641E-002	9.94154E-001	3.57160E+000	9	...........
	185	2.48	9.95088E-001	9.11668E-005	0.00000E+000	9.07190E-005	5.39641E-002	9.95217E-001	3.57160E+000	9	...........
	186	2.49333	9.96136E-001	9.10126E-005	0.00000E+000	9.06609E-005	5.39641E-002	9.96300E-001	3.57160E+000	9	...........
	187	2.50667	9.97199E-001	9.11835E-005	0.00000E+000	9.09281E-005	5.39641E-002	9.97384E-001	3.57160E+000	9	...........
	188	2.52	9.98247E-001	9.13419E-005	0.00000E+000	9.11817E-005	5.39641E-002	9.98420E-001	3.57160E+000	9	...........
	189	2.53333	9.99290E-001	9.10387E-005	0.00000E+000	9.09740E-005	5.39641E-002	9.99452E-001	3.57160E+000	9	...........
	190	2.53833	9.99983E-001	9.09404E-005	0.00000E+000	9.09388E-005	5.39641E-002	1.00014E+000	3.57160E+000	9	...........
STARTTIMEOFFSET	QUANT	367.2033	Start Time Offset (s)
