EXPLAIN
TAG	PWR800_CHARGE
TITLE	LABEL	PWR Cyclic Charge Discharge (Cell) - Charge Step	Test &Identifier
DATE	LABEL	10-7-2017	Date
TIME	LABEL	16:09:29	Time
NOTES	NOTES	3	&Notes...
	supercap test cell
	0.9mg
	6M KOH
PSTAT	PSTAT	IFC5000-01520	Potentiostat
CAPACITY	QUANT	1.00000E-003	Capacity (A-hr)
CELLTYPE	SELECTOR	1	&Cell Type
WORKINGCONNECTION	SELECTOR	0	&Working Lead
MAXCHARGETIME	VARIABLEANDUNITS	1.00000E+002	s	1.00000E+002	second(s)	Max &Charge Time
CHARGECURRENT	QUANT	9.00000E-005	&Charge Current (A) 
VOLTAGEFINISH	TWOPARAM	F	1.00000E-003	3.60000E+003	&Voltage Finish	 I (A) < 	Max Time(s)
SAMPLETIME	QUANT	1.00000E-002	Sa&mple Period (s)
CHARGESTOPAT1	MULTIPARAM	4	1.00000E+000	Charge Stop At &1	Voltage > Limit	V
CHARGESTOPAT2	MULTIPARAM	0	0.00000E+000	Charge Stop At &2	None	N/A
AESBHCSELECTOR	TOGGLE	F	Save Both Half Cells
IRCOMP	TOGGLE	F	IR &Measure
EOC	QUANT	0	Open Circuit (V)
SEQUENCER	TOGGLE	TRUE	Run as Sequence
PSTATMODEL	IQUANT	53	Pstat Model
PSTATSECTION	LABEL	IFC5000-01520	Pstat Section
PSTATSERIALNO	LABEL	01520	Pstat Serial Number
CTRLMODE	IQUANT	0	Control Mode
ELECTROMETER	IQUANT	1	RE=0 or CS=1
IESTAB	IQUANT	0	I/E Stability
CASPEED	IQUANT	4	Control Amp Speed
CONVENTION	IQUANT	1	Current Convention
ICHRANGE	IQUANT	2	Ich Range
ICHRANGEMODE	TOGGLE	T	Ich Auto Range
ICHOFFSETENABLE	TOGGLE	F	Ich Offset Enable
ICHOFFSET	QUANT	0	Ich Offset (V)
ICHFILTER	IQUANT	1	Ich Filter
VCHRANGE	IQUANT	2	Vch Range
VCHRANGEMODE	TOGGLE	T	Vch Auto Range
VCHOFFSETENABLE	TOGGLE	F	Vch Offset Enable
VCHOFFSET	QUANT	0	Vch Offset (V)
VCHFILTER	IQUANT	1	Vch Filter
IERANGELOWERLIMIT	IQUANT	9	I/E Range Lower Limit
IERANGEMODE	TOGGLE	F	I/E AutoRange
IERANGE	IQUANT	9	I/E Range
ACHSELECT	IQUANT	1	Ach Select
ACHRANGE	IQUANT	2	Ach Range
ACHOFFSETENABLE	TOGGLE	F	Ach Offset Enable
ACHOFFSET	QUANT	0	Ach Offset (V)
ACHFILTER	IQUANT	1	Ach Filter
CABLEID	IQUANT	14	Cable ID
DCCALDATE	LABEL	5-7-2017	DC Calibration Date
ACCALDATE	LABEL	12/3/2015	AC Calibration Date
FRAMEWORKVERSION	QUANT	7.01	Framework Version
INSTRUMENTVERSION	LABEL	4.00	Instrument Version
CURVE	TABLE	163
	Pt	T	Vf	Im	Vu	Pwr	Sig	Ach	Temp	IERange	Over
	#	s	V	A	V	W	V	V	deg C	#	bits
	0	0.013333	2.64941E-001	9.07928E-005	0.00000E+000	2.40547E-005	5.39641E-002	2.64989E-001	3.57310E+000	9	...........
	1	0.026667	2.84707E-001	9.09824E-005	0.00000E+000	2.59033E-005	5.39641E-002	2.84745E-001	3.57310E+000	9	...........
	2	0.04	3.03255E-001	9.09209E-005	0.00000E+000	2.75723E-005	5.39641E-002	3.03299E-001	3.57310E+000	9	...........
	3	0.053333	3.20768E-001	9.08782E-005	0.00000E+000	2.91509E-005	5.39641E-002	3.20809E-001	3.57310E+000	9	...........
	4	0.066667	3.37336E-001	9.10106E-005	0.00000E+000	3.07011E-005	5.39641E-002	3.37379E-001	3.57310E+000	9	...........
	5	0.08	3.53072E-001	9.09543E-005	0.00000E+000	3.21134E-005	5.39641E-002	3.53115E-001	3.57310E+000	9	...........
	6	0.093333	3.68040E-001	9.08491E-005	0.00000E+000	3.34361E-005	5.39641E-002	3.68082E-001	3.57310E+000	9	...........
	7	0.106667	3.82294E-001	9.07178E-005	0.00000E+000	3.46808E-005	5.39641E-002	3.82344E-001	3.57310E+000	9	...........
	8	0.12	3.95898E-001	9.10574E-005	0.00000E+000	3.60495E-005	5.39641E-002	3.95946E-001	3.57310E+000	9	...........
	9	0.133333	4.08910E-001	9.09783E-005	0.00000E+000	3.72019E-005	5.39641E-002	4.08956E-001	3.57310E+000	9	...........
	10	0.146667	4.21371E-001	9.06928E-005	0.00000E+000	3.82153E-005	5.39641E-002	4.21426E-001	3.57310E+000	9	...........
	11	0.16	4.33315E-001	9.12168E-005	0.00000E+000	3.95256E-005	5.39641E-002	4.33372E-001	3.57310E+000	9	...........
	12	0.173333	4.44795E-001	9.13679E-005	0.00000E+000	4.06400E-005	5.39641E-002	4.44851E-001	3.57310E+000	9	...........
	13	0.186667	4.55850E-001	9.08032E-005	0.00000E+000	4.13927E-005	5.39641E-002	4.55907E-001	3.57310E+000	9	...........
	14	0.2	4.66500E-001	9.10626E-005	0.00000E+000	4.24807E-005	5.39641E-002	4.66553E-001	3.57310E+000	9	...........
	15	0.213333	4.76765E-001	9.09772E-005	0.00000E+000	4.33748E-005	5.39641E-002	4.76822E-001	3.57310E+000	9	...........
	16	0.226667	4.86693E-001	9.11033E-005	0.00000E+000	4.43393E-005	5.39641E-002	4.86756E-001	3.57310E+000	9	...........
	17	0.24	4.96289E-001	9.09428E-005	0.00000E+000	4.51339E-005	5.39641E-002	4.96361E-001	3.57310E+000	9	...........
	18	0.253333	5.05569E-001	9.11252E-005	0.00000E+000	4.60701E-005	5.39641E-002	5.05640E-001	3.57310E+000	9	...........
	19	0.266667	5.14548E-001	9.08501E-005	0.00000E+000	4.67467E-005	5.39641E-002	5.14626E-001	3.57310E+000	9	...........
	20	0.28	5.23256E-001	9.11043E-005	0.00000E+000	4.76709E-005	5.39641E-002	5.23327E-001	3.57310E+000	9	...........
	21	0.293333	5.31683E-001	9.08793E-005	0.00000E+000	4.83190E-005	5.39641E-002	5.31755E-001	3.57310E+000	9	...........
	22	0.306667	5.39840E-001	9.10949E-005	0.00000E+000	4.91767E-005	5.39641E-002	5.39957E-001	3.57310E+000	9	...........
	23	0.32	5.47805E-001	9.09189E-005	0.00000E+000	4.98058E-005	5.39641E-002	5.47919E-001	3.57310E+000	9	...........
	24	0.333333	5.55565E-001	9.06730E-005	0.00000E+000	5.03748E-005	5.39641E-002	5.55667E-001	3.57310E+000	9	...........
	25	0.346667	5.63155E-001	9.07532E-005	0.00000E+000	5.11081E-005	5.39641E-002	5.63255E-001	3.57310E+000	9	...........
	26	0.36	5.70544E-001	9.10220E-005	0.00000E+000	5.19320E-005	5.39641E-002	5.70607E-001	3.57310E+000	9	...........
	27	0.373333	5.77704E-001	9.09543E-005	0.00000E+000	5.25446E-005	5.39641E-002	5.77805E-001	3.57310E+000	9	...........
	28	0.386667	5.84706E-001	9.11095E-005	0.00000E+000	5.32723E-005	5.39641E-002	5.84826E-001	3.57310E+000	9	...........
	29	0.4	5.91618E-001	9.10741E-005	0.00000E+000	5.38810E-005	5.39641E-002	5.91748E-001	3.57310E+000	9	...........
	30	0.413333	5.98315E-001	9.11522E-005	0.00000E+000	5.45378E-005	5.39641E-002	5.98451E-001	3.57310E+000	9	...........
	31	0.426667	6.04847E-001	9.09803E-005	0.00000E+000	5.50292E-005	5.39641E-002	6.05013E-001	3.57310E+000	9	...........
	32	0.44	6.11262E-001	9.10835E-005	0.00000E+000	5.56759E-005	5.39641E-002	6.11419E-001	3.57310E+000	9	...........
	33	0.453333	6.17595E-001	9.12710E-005	0.00000E+000	5.63685E-005	5.39641E-002	6.17714E-001	3.57310E+000	9	...........
	34	0.466667	6.23743E-001	9.11252E-005	0.00000E+000	5.68387E-005	5.39641E-002	6.23843E-001	3.57310E+000	9	...........
	35	0.48	6.29768E-001	9.07397E-005	0.00000E+000	5.71449E-005	5.39641E-002	6.29902E-001	3.57310E+000	9	...........
	36	0.493333	6.35671E-001	9.07855E-005	0.00000E+000	5.77097E-005	5.39641E-002	6.35791E-001	3.57310E+000	9	...........
	37	0.506667	6.41497E-001	9.10991E-005	0.00000E+000	5.84398E-005	5.39641E-002	6.41618E-001	3.57310E+000	9	...........
	38	0.52	6.47152E-001	9.09157E-005	0.00000E+000	5.88363E-005	5.39641E-002	6.47288E-001	3.57310E+000	9	...........
	39	0.533333	6.52709E-001	9.08626E-005	0.00000E+000	5.93068E-005	5.39641E-002	6.52829E-001	3.57310E+000	9	...........
	40	0.546667	6.58168E-001	9.10231E-005	0.00000E+000	5.99085E-005	5.39641E-002	6.58278E-001	3.57310E+000	9	...........
	41	0.56	6.63559E-001	9.11074E-005	0.00000E+000	6.04552E-005	5.39641E-002	6.63665E-001	3.57310E+000	9	...........
	42	0.573333	6.68849E-001	9.11731E-005	0.00000E+000	6.09810E-005	5.39641E-002	6.68952E-001	3.57370E+000	9	...........
	43	0.586667	6.74003E-001	9.12127E-005	0.00000E+000	6.14776E-005	5.39641E-002	6.74137E-001	3.57470E+000	9	...........
	44	0.6	6.79110E-001	9.11022E-005	0.00000E+000	6.18684E-005	5.39641E-002	6.79230E-001	3.57470E+000	9	...........
	45	0.613333	6.84117E-001	9.11898E-005	0.00000E+000	6.23844E-005	5.39641E-002	6.84232E-001	3.57470E+000	9	...........
	46	0.626667	6.89045E-001	9.10085E-005	0.00000E+000	6.27089E-005	5.39641E-002	6.89183E-001	3.57470E+000	9	...........
	47	0.64	6.93933E-001	9.09116E-005	0.00000E+000	6.30865E-005	5.39641E-002	6.94017E-001	3.57470E+000	9	...........
	48	0.653333	6.98700E-001	9.11210E-005	0.00000E+000	6.36662E-005	5.39641E-002	6.98799E-001	3.57470E+000	9	...........
	49	0.666667	7.03436E-001	9.12023E-005	0.00000E+000	6.41550E-005	5.39641E-002	7.03524E-001	3.57470E+000	9	...........
	50	0.68	7.08079E-001	9.13961E-005	0.00000E+000	6.47157E-005	5.39641E-002	7.08209E-001	3.57470E+000	9	...........
	51	0.693333	7.12646E-001	9.11137E-005	0.00000E+000	6.49318E-005	5.39641E-002	7.12770E-001	3.57470E+000	9	...........
	52	0.706667	7.17171E-001	9.10022E-005	0.00000E+000	6.52642E-005	5.39641E-002	7.17281E-001	3.57470E+000	9	...........
	53	0.72	7.21618E-001	9.09532E-005	0.00000E+000	6.56335E-005	5.39641E-002	7.21730E-001	3.57470E+000	9	...........
	54	0.733333	7.26001E-001	9.08959E-005	0.00000E+000	6.59905E-005	5.39641E-002	7.26094E-001	3.57470E+000	9	...........
	55	0.746667	7.30303E-001	9.08866E-005	0.00000E+000	6.63747E-005	5.39641E-002	7.30414E-001	3.57470E+000	9	...........
	56	0.76	7.34553E-001	9.11773E-005	0.00000E+000	6.69745E-005	5.39641E-002	7.34668E-001	3.57470E+000	9	...........
	57	0.773333	7.38749E-001	9.10783E-005	0.00000E+000	6.72840E-005	5.39641E-002	7.38885E-001	3.57470E+000	9	...........
	58	0.786667	7.42945E-001	9.11033E-005	0.00000E+000	6.76847E-005	5.39641E-002	7.43078E-001	3.57470E+000	9	...........
	59	0.8	7.47085E-001	9.08136E-005	0.00000E+000	6.78455E-005	5.39641E-002	7.47208E-001	3.57470E+000	9	...........
	60	0.813333	7.51153E-001	9.08699E-005	0.00000E+000	6.82572E-005	5.39641E-002	7.51299E-001	3.57470E+000	9	...........
	61	0.826667	7.55182E-001	9.10960E-005	0.00000E+000	6.87940E-005	5.39641E-002	7.55325E-001	3.57470E+000	9	...........
	62	0.84	7.59131E-001	9.10012E-005	0.00000E+000	6.90818E-005	5.39641E-002	7.59244E-001	3.57470E+000	9	...........
	63	0.853333	7.63038E-001	9.10043E-005	0.00000E+000	6.94398E-005	5.39641E-002	7.63175E-001	3.57470E+000	9	...........
	64	0.866667	7.66879E-001	9.12637E-005	0.00000E+000	6.99882E-005	5.39641E-002	7.67047E-001	3.57470E+000	9	...........
	65	0.88	7.70734E-001	9.09730E-005	0.00000E+000	7.01160E-005	5.39641E-002	7.70855E-001	3.57470E+000	9	...........
	66	0.893333	7.74491E-001	9.10866E-005	0.00000E+000	7.05458E-005	5.39641E-002	7.74617E-001	3.57470E+000	9	...........
	67	0.906667	7.78203E-001	9.10689E-005	0.00000E+000	7.08701E-005	5.39641E-002	7.78351E-001	3.57470E+000	9	...........
	68	0.92	7.81920E-001	9.09074E-005	0.00000E+000	7.10824E-005	5.39641E-002	7.82059E-001	3.57470E+000	9	...........
	69	0.933333	7.85577E-001	9.10856E-005	0.00000E+000	7.15547E-005	5.39641E-002	7.85684E-001	3.57470E+000	9	...........
	70	0.946667	7.89171E-001	9.09251E-005	0.00000E+000	7.17554E-005	5.39641E-002	7.89306E-001	3.57470E+000	9	...........
	71	0.96	7.92747E-001	9.10512E-005	0.00000E+000	7.21805E-005	5.39641E-002	7.92891E-001	3.57470E+000	9	...........
	72	0.97333	7.96293E-001	9.09262E-005	0.00000E+000	7.24039E-005	5.39641E-002	7.96426E-001	3.57470E+000	9	...........
	73	0.98667	7.99791E-001	9.09355E-005	0.00000E+000	7.27294E-005	5.39641E-002	7.99896E-001	3.57470E+000	9	...........
	74	1	8.03235E-001	9.10001E-005	0.00000E+000	7.30945E-005	5.39641E-002	8.03400E-001	3.57470E+000	9	...........
	75	1.01333	8.06657E-001	9.08814E-005	0.00000E+000	7.33101E-005	5.39641E-002	8.06817E-001	3.57470E+000	9	...........
	76	1.02667	8.10025E-001	9.10512E-005	0.00000E+000	7.37537E-005	5.39641E-002	8.10182E-001	3.57470E+000	9	...........
	77	1.04	8.13366E-001	9.10439E-005	0.00000E+000	7.40520E-005	5.39641E-002	8.13532E-001	3.57470E+000	9	...........
	78	1.05333	8.16677E-001	9.12523E-005	0.00000E+000	7.45236E-005	5.39641E-002	8.16886E-001	3.57470E+000	9	...........
	79	1.06667	8.19983E-001	9.08251E-005	0.00000E+000	7.44751E-005	5.39641E-002	8.20162E-001	3.57470E+000	9	...........
	80	1.08	8.23241E-001	9.08418E-005	0.00000E+000	7.47846E-005	5.39641E-002	8.23388E-001	3.57470E+000	9	...........
	81	1.09333	8.26414E-001	9.10585E-005	0.00000E+000	7.52520E-005	5.39641E-002	8.26578E-001	3.57470E+000	9	...........
	82	1.10667	8.29559E-001	9.09803E-005	0.00000E+000	7.54736E-005	5.39641E-002	8.29723E-001	3.57470E+000	9	...........
	83	1.12	8.32687E-001	9.09324E-005	0.00000E+000	7.57182E-005	5.39641E-002	8.32866E-001	3.57470E+000	9	...........
	84	1.13333	8.35754E-001	9.10449E-005	0.00000E+000	7.60912E-005	5.39641E-002	8.35952E-001	3.57470E+000	9	...........
	85	1.14667	8.38820E-001	9.11502E-005	0.00000E+000	7.64586E-005	5.39641E-002	8.39008E-001	3.57470E+000	9	...........
	86	1.16	8.41855E-001	9.09064E-005	0.00000E+000	7.65300E-005	5.39641E-002	8.42035E-001	3.57470E+000	9	...........
	87	1.17333	8.44899E-001	9.09126E-005	0.00000E+000	7.68119E-005	5.39641E-002	8.45092E-001	3.57470E+000	9	...........
	88	1.18667	8.47867E-001	9.09699E-005	0.00000E+000	7.71304E-005	5.39641E-002	8.48051E-001	3.57470E+000	9	...........
	89	1.2	8.50818E-001	9.10178E-005	0.00000E+000	7.74397E-005	5.39641E-002	8.51012E-001	3.57470E+000	9	...........
	90	1.21333	8.53711E-001	9.09460E-005	0.00000E+000	7.76415E-005	5.39641E-002	8.53897E-001	3.57470E+000	9	...........
	91	1.22667	8.56579E-001	9.11950E-005	0.00000E+000	7.81157E-005	5.39641E-002	8.56809E-001	3.57470E+000	9	...........
	92	1.24	8.59475E-001	9.11752E-005	0.00000E+000	7.83628E-005	5.39641E-002	8.59683E-001	3.57470E+000	9	...........
	93	1.25333	8.62305E-001	9.06261E-005	0.00000E+000	7.81473E-005	5.39641E-002	8.62496E-001	3.57470E+000	9	...........
	94	1.26667	8.65099E-001	9.08345E-005	0.00000E+000	7.85808E-005	5.39641E-002	8.65309E-001	3.57470E+000	9	...........
	95	1.28	8.67903E-001	9.12314E-005	0.00000E+000	7.91801E-005	5.39641E-002	8.68101E-001	3.57470E+000	9	...........
	96	1.29333	8.70672E-001	9.11720E-005	0.00000E+000	7.93809E-005	5.39641E-002	8.70869E-001	3.57470E+000	9	...........
	97	1.30667	8.73393E-001	9.09043E-005	0.00000E+000	7.93952E-005	5.39641E-002	8.73599E-001	3.57470E+000	9	...........
	98	1.32	8.76065E-001	9.12252E-005	0.00000E+000	7.99192E-005	5.39641E-002	8.76283E-001	3.57470E+000	9	...........
	99	1.33333	8.78749E-001	9.13148E-005	0.00000E+000	8.02427E-005	5.39641E-002	8.78932E-001	3.57470E+000	9	...........
	100	1.34667	8.81338E-001	9.09137E-005	0.00000E+000	8.01257E-005	5.39641E-002	8.81583E-001	3.57470E+000	9	...........
	101	1.36	8.83969E-001	9.08553E-005	0.00000E+000	8.03133E-005	5.39641E-002	8.84184E-001	3.57470E+000	9	...........
	102	1.37333	8.86548E-001	9.10814E-005	0.00000E+000	8.07480E-005	5.39641E-002	8.86747E-001	3.57470E+000	9	...........
	103	1.38667	8.89088E-001	9.07720E-005	0.00000E+000	8.07042E-005	5.39641E-002	8.89293E-001	3.57470E+000	9	...........
	104	1.4	8.91607E-001	9.08053E-005	0.00000E+000	8.09627E-005	5.39641E-002	8.91812E-001	3.57470E+000	9	...........
	105	1.41333	8.94126E-001	9.09178E-005	0.00000E+000	8.12920E-005	5.39641E-002	8.94332E-001	3.57470E+000	9	...........
	106	1.42667	8.96630E-001	9.14388E-005	0.00000E+000	8.19868E-005	5.39641E-002	8.96819E-001	3.57470E+000	9	...........
	107	1.44	8.99075E-001	9.08980E-005	0.00000E+000	8.17241E-005	5.39641E-002	8.99294E-001	3.57470E+000	9	...........
	108	1.45333	9.01495E-001	9.11377E-005	0.00000E+000	8.21601E-005	5.39641E-002	9.01685E-001	3.57470E+000	9	...........
	109	1.46667	9.03847E-001	9.08230E-005	0.00000E+000	8.20901E-005	5.39641E-002	9.04065E-001	3.57470E+000	9	...........
	110	1.48	9.06195E-001	9.10210E-005	0.00000E+000	8.24828E-005	5.39641E-002	9.06394E-001	3.57470E+000	9	...........
	111	1.49333	9.08537E-001	9.09480E-005	0.00000E+000	8.26297E-005	5.39641E-002	9.08743E-001	3.57470E+000	9	...........
	112	1.50667	9.10858E-001	9.11199E-005	0.00000E+000	8.29973E-005	5.39641E-002	9.11039E-001	3.57470E+000	9	...........
	113	1.52	9.13131E-001	9.12012E-005	0.00000E+000	8.32787E-005	5.39641E-002	9.13348E-001	3.57470E+000	9	...........
	114	1.53333	9.15415E-001	9.09949E-005	0.00000E+000	8.32981E-005	5.39641E-002	9.15619E-001	3.57470E+000	9	...........
	115	1.54667	9.17664E-001	9.09074E-005	0.00000E+000	8.34225E-005	5.39641E-002	9.17874E-001	3.57470E+000	9	...........
	116	1.56	9.19908E-001	9.10856E-005	0.00000E+000	8.37903E-005	5.39641E-002	9.20113E-001	3.57470E+000	9	...........
	117	1.57333	9.22162E-001	9.10241E-005	0.00000E+000	8.39390E-005	5.39641E-002	9.22329E-001	3.57395E+000	9	...........
	118	1.58667	9.24349E-001	9.11533E-005	0.00000E+000	8.42575E-005	5.39641E-002	9.24515E-001	3.57270E+000	9	...........
	119	1.6	9.26495E-001	9.08564E-005	0.00000E+000	8.41780E-005	5.39641E-002	9.26668E-001	3.57270E+000	9	...........
	120	1.61333	9.28632E-001	9.12804E-005	0.00000E+000	8.47659E-005	5.39641E-002	9.28798E-001	3.57270E+000	9	...........
	121	1.62667	9.30728E-001	9.08866E-005	0.00000E+000	8.45907E-005	5.39641E-002	9.30887E-001	3.57270E+000	9	...........
	122	1.64	9.32787E-001	9.10397E-005	0.00000E+000	8.49207E-005	5.39641E-002	9.32978E-001	3.57270E+000	9	...........
	123	1.65333	9.34881E-001	9.09043E-005	0.00000E+000	8.49847E-005	5.39641E-002	9.35048E-001	3.57270E+000	9	...........
	124	1.66667	9.36921E-001	9.08428E-005	0.00000E+000	8.51126E-005	5.39641E-002	9.37092E-001	3.57270E+000	9	...........
	125	1.68	9.38926E-001	9.09908E-005	0.00000E+000	8.54336E-005	5.39641E-002	9.39126E-001	3.57270E+000	9	...........
	126	1.69333	9.40929E-001	9.07417E-005	0.00000E+000	8.53816E-005	5.39641E-002	9.41128E-001	3.57270E+000	9	...........
	127	1.70667	9.42876E-001	9.10356E-005	0.00000E+000	8.58353E-005	5.39641E-002	9.43069E-001	3.57270E+000	9	...........
	128	1.72	9.44827E-001	9.10897E-005	0.00000E+000	8.60640E-005	5.39641E-002	9.45039E-001	3.57270E+000	9	...........
	129	1.73333	9.46781E-001	9.10481E-005	0.00000E+000	8.62026E-005	5.39641E-002	9.47011E-001	3.57270E+000	9	...........
	130	1.74667	9.48720E-001	9.10283E-005	0.00000E+000	8.63603E-005	5.39641E-002	9.48909E-001	3.57270E+000	9	...........
	131	1.76	9.50604E-001	9.10303E-005	0.00000E+000	8.65338E-005	5.39641E-002	9.50788E-001	3.57270E+000	9	...........
	132	1.77333	9.52443E-001	9.09835E-005	0.00000E+000	8.66566E-005	5.39641E-002	9.52638E-001	3.57270E+000	9	...........
	133	1.78667	9.54295E-001	9.10189E-005	0.00000E+000	8.68589E-005	5.39641E-002	9.54471E-001	3.57270E+000	9	...........
	134	1.8	9.56132E-001	9.11762E-005	0.00000E+000	8.71765E-005	5.39641E-002	9.56304E-001	3.57270E+000	9	...........
	135	1.81333	9.57929E-001	9.10074E-005	0.00000E+000	8.71787E-005	5.39641E-002	9.58115E-001	3.57270E+000	9	...........
	136	1.82667	9.59709E-001	9.11366E-005	0.00000E+000	8.74646E-005	5.39641E-002	9.59923E-001	3.57270E+000	9	...........
	137	1.84	9.61470E-001	9.10522E-005	0.00000E+000	8.75440E-005	5.39641E-002	9.61680E-001	3.57270E+000	9	...........
	138	1.85333	9.63211E-001	9.10554E-005	0.00000E+000	8.77055E-005	5.39641E-002	9.63444E-001	3.57270E+000	9	...........
	139	1.86667	9.64943E-001	9.10793E-005	0.00000E+000	8.78864E-005	5.39641E-002	9.65158E-001	3.57270E+000	9	...........
	140	1.88	9.66691E-001	9.08897E-005	0.00000E+000	8.78623E-005	5.39641E-002	9.66875E-001	3.57270E+000	9	...........
	141	1.89333	9.68377E-001	9.09908E-005	0.00000E+000	8.81133E-005	5.39641E-002	9.68565E-001	3.57270E+000	9	...........
	142	1.90667	9.70057E-001	9.11877E-005	0.00000E+000	8.84573E-005	5.39641E-002	9.70256E-001	3.57270E+000	9	...........
	143	1.92	9.71718E-001	9.09918E-005	0.00000E+000	8.84184E-005	5.39641E-002	9.71946E-001	3.57270E+000	9	...........
	144	1.93333	9.73411E-001	9.13148E-005	0.00000E+000	8.88868E-005	5.39641E-002	9.73606E-001	3.57270E+000	9	...........
	145	1.94667	9.75013E-001	9.10637E-005	0.00000E+000	8.87883E-005	5.39641E-002	9.75235E-001	3.57270E+000	9	...........
	146	1.96	9.76612E-001	9.11668E-005	0.00000E+000	8.90347E-005	5.39641E-002	9.76830E-001	3.57270E+000	9	...........
	147	1.97333	9.78175E-001	9.09918E-005	0.00000E+000	8.90059E-005	5.39641E-002	9.78403E-001	3.57270E+000	9	...........
	148	1.98667	9.79741E-001	9.10262E-005	0.00000E+000	8.91821E-005	5.39641E-002	9.79966E-001	3.57270E+000	9	...........
	149	2	9.81294E-001	9.11012E-005	0.00000E+000	8.93971E-005	5.39641E-002	9.81518E-001	3.57270E+000	9	...........
	150	2.01333	9.82821E-001	9.11616E-005	0.00000E+000	8.95956E-005	5.39641E-002	9.83026E-001	3.57270E+000	9	...........
	151	2.02667	9.84328E-001	9.10856E-005	0.00000E+000	8.96580E-005	5.39641E-002	9.84546E-001	3.57270E+000	9	...........
	152	2.04	9.85808E-001	9.08168E-005	0.00000E+000	8.95279E-005	5.39641E-002	9.86031E-001	3.57270E+000	9	...........
	153	2.05333	9.87294E-001	9.10793E-005	0.00000E+000	8.99220E-005	5.39641E-002	9.87516E-001	3.57270E+000	9	...........
	154	2.06667	9.88787E-001	9.11022E-005	0.00000E+000	9.00807E-005	5.39641E-002	9.88995E-001	3.57270E+000	9	...........
	155	2.08	9.90240E-001	9.12106E-005	0.00000E+000	9.03204E-005	5.39641E-002	9.90425E-001	3.57270E+000	9	...........
	156	2.09333	9.91669E-001	9.11398E-005	0.00000E+000	9.03805E-005	5.39641E-002	9.91857E-001	3.57270E+000	9	...........
	157	2.10667	9.93078E-001	9.10647E-005	0.00000E+000	9.04344E-005	5.39641E-002	9.93277E-001	3.57270E+000	9	...........
	158	2.12	9.94441E-001	9.11137E-005	0.00000E+000	9.06072E-005	5.39641E-002	9.94654E-001	3.57270E+000	9	...........
	159	2.13333	9.95873E-001	9.10470E-005	0.00000E+000	9.06713E-005	5.39641E-002	9.96062E-001	3.57270E+000	9	...........
	160	2.14667	9.97251E-001	9.08116E-005	0.00000E+000	9.05619E-005	5.39641E-002	9.97475E-001	3.57270E+000	9	...........
	161	2.16	9.98647E-001	9.11199E-005	0.00000E+000	9.09966E-005	5.39641E-002	9.98887E-001	3.57270E+000	9	...........
	162	2.16833	9.99734E-001	9.10760E-005	0.00000E+000	9.10517E-005	5.39641E-002	9.99981E-001	3.57270E+000	9	...........
STARTTIMEOFFSET	QUANT	3537.6	Start Time Offset (s)
