EXPLAIN
TAG	PWR800_CHARGE
TITLE	LABEL	PWR Cyclic Charge Discharge (Cell) - Charge Step	Test &Identifier
DATE	LABEL	10-7-2017	Date
TIME	LABEL	15:48:06	Time
NOTES	NOTES	3	&Notes...
	supercap test cell
	0.9mg
	6M KOH
PSTAT	PSTAT	IFC5000-01520	Potentiostat
CAPACITY	QUANT	1.00000E-003	Capacity (A-hr)
CELLTYPE	SELECTOR	1	&Cell Type
WORKINGCONNECTION	SELECTOR	0	&Working Lead
MAXCHARGETIME	VARIABLEANDUNITS	1.00000E+002	s	1.00000E+002	second(s)	Max &Charge Time
CHARGECURRENT	QUANT	9.00000E-005	&Charge Current (A) 
VOLTAGEFINISH	TWOPARAM	F	1.00000E-003	3.60000E+003	&Voltage Finish	 I (A) < 	Max Time(s)
SAMPLETIME	QUANT	1.00000E-002	Sa&mple Period (s)
CHARGESTOPAT1	MULTIPARAM	4	1.00000E+000	Charge Stop At &1	Voltage > Limit	V
CHARGESTOPAT2	MULTIPARAM	0	0.00000E+000	Charge Stop At &2	None	N/A
AESBHCSELECTOR	TOGGLE	F	Save Both Half Cells
IRCOMP	TOGGLE	F	IR &Measure
EOC	QUANT	0	Open Circuit (V)
SEQUENCER	TOGGLE	TRUE	Run as Sequence
PSTATMODEL	IQUANT	53	Pstat Model
PSTATSECTION	LABEL	IFC5000-01520	Pstat Section
PSTATSERIALNO	LABEL	01520	Pstat Serial Number
CTRLMODE	IQUANT	0	Control Mode
ELECTROMETER	IQUANT	1	RE=0 or CS=1
IESTAB	IQUANT	0	I/E Stability
CASPEED	IQUANT	4	Control Amp Speed
CONVENTION	IQUANT	1	Current Convention
ICHRANGE	IQUANT	2	Ich Range
ICHRANGEMODE	TOGGLE	T	Ich Auto Range
ICHOFFSETENABLE	TOGGLE	F	Ich Offset Enable
ICHOFFSET	QUANT	0	Ich Offset (V)
ICHFILTER	IQUANT	1	Ich Filter
VCHRANGE	IQUANT	2	Vch Range
VCHRANGEMODE	TOGGLE	T	Vch Auto Range
VCHOFFSETENABLE	TOGGLE	F	Vch Offset Enable
VCHOFFSET	QUANT	0	Vch Offset (V)
VCHFILTER	IQUANT	1	Vch Filter
IERANGELOWERLIMIT	IQUANT	9	I/E Range Lower Limit
IERANGEMODE	TOGGLE	F	I/E AutoRange
IERANGE	IQUANT	9	I/E Range
ACHSELECT	IQUANT	1	Ach Select
ACHRANGE	IQUANT	2	Ach Range
ACHOFFSETENABLE	TOGGLE	F	Ach Offset Enable
ACHOFFSET	QUANT	0	Ach Offset (V)
ACHFILTER	IQUANT	1	Ach Filter
CABLEID	IQUANT	14	Cable ID
DCCALDATE	LABEL	5-7-2017	DC Calibration Date
ACCALDATE	LABEL	12/3/2015	AC Calibration Date
FRAMEWORKVERSION	QUANT	7.01	Framework Version
INSTRUMENTVERSION	LABEL	4.00	Instrument Version
CURVE	TABLE	168
	Pt	T	Vf	Im	Vu	Pwr	Sig	Ach	Temp	IERange	Over
	#	s	V	A	V	W	V	V	deg C	#	bits
	0	0.013333	2.74049E-001	9.10199E-005	0.00000E+000	2.49439E-005	5.39641E-002	2.74097E-001	3.57290E+000	9	...........
	1	0.026667	2.93673E-001	9.08116E-005	0.00000E+000	2.66689E-005	5.39641E-002	2.93712E-001	3.57290E+000	9	...........
	2	0.04	3.11999E-001	9.09439E-005	0.00000E+000	2.83744E-005	5.39641E-002	3.12042E-001	3.57290E+000	9	...........
	3	0.053333	3.29218E-001	9.10970E-005	0.00000E+000	2.99908E-005	5.39641E-002	3.29259E-001	3.57290E+000	9	...........
	4	0.066667	3.45449E-001	9.10606E-005	0.00000E+000	3.14568E-005	5.39641E-002	3.45490E-001	3.57290E+000	9	...........
	5	0.08	3.60819E-001	9.09918E-005	0.00000E+000	3.28315E-005	5.39641E-002	3.60866E-001	3.57290E+000	9	...........
	6	0.093333	3.75415E-001	9.08355E-005	0.00000E+000	3.41010E-005	5.39641E-002	3.75463E-001	3.57290E+000	9	...........
	7	0.106667	3.89307E-001	9.11554E-005	0.00000E+000	3.54874E-005	5.39641E-002	3.89358E-001	3.57290E+000	9	...........
	8	0.12	4.02566E-001	9.08741E-005	0.00000E+000	3.65828E-005	5.39641E-002	4.02616E-001	3.57290E+000	9	...........
	9	0.133333	4.15246E-001	9.12919E-005	0.00000E+000	3.79085E-005	5.39641E-002	4.15301E-001	3.57290E+000	9	...........
	10	0.146667	4.27383E-001	9.09324E-005	0.00000E+000	3.88630E-005	5.39641E-002	4.27439E-001	3.57290E+000	9	...........
	11	0.16	4.39027E-001	9.11804E-005	0.00000E+000	4.00307E-005	5.39641E-002	4.39084E-001	3.57290E+000	9	...........
	12	0.173333	4.50206E-001	9.09855E-005	0.00000E+000	4.09623E-005	5.39641E-002	4.50267E-001	3.57290E+000	9	...........
	13	0.186667	4.60961E-001	9.10606E-005	0.00000E+000	4.19753E-005	5.39641E-002	4.61018E-001	3.57290E+000	9	...........
	14	0.2	4.71321E-001	9.09376E-005	0.00000E+000	4.28608E-005	5.39641E-002	4.71385E-001	3.57290E+000	9	...........
	15	0.213333	4.81332E-001	9.11898E-005	0.00000E+000	4.38925E-005	5.39641E-002	4.81398E-001	3.57290E+000	9	...........
	16	0.226667	4.91010E-001	9.07647E-005	0.00000E+000	4.45664E-005	5.39641E-002	4.91077E-001	3.57290E+000	9	...........
	17	0.24	5.00367E-001	9.10001E-005	0.00000E+000	4.55335E-005	5.39641E-002	5.00434E-001	3.57290E+000	9	...........
	18	0.253333	5.09432E-001	9.09345E-005	0.00000E+000	4.63249E-005	5.39641E-002	5.09509E-001	3.57290E+000	9	...........
	19	0.266667	5.18233E-001	9.08001E-005	0.00000E+000	4.70556E-005	5.39641E-002	5.18303E-001	3.57290E+000	9	...........
	20	0.28	5.26759E-001	9.09282E-005	0.00000E+000	4.78973E-005	5.39641E-002	5.26833E-001	3.57290E+000	9	...........
	21	0.293333	5.34989E-001	9.11627E-005	0.00000E+000	4.87710E-005	5.39641E-002	5.35061E-001	3.57290E+000	9	...........
	22	0.306667	5.43005E-001	9.08647E-005	0.00000E+000	4.93399E-005	5.39641E-002	5.43082E-001	3.57290E+000	9	...........
	23	0.32	5.50810E-001	9.09772E-005	0.00000E+000	5.01112E-005	5.39641E-002	5.50884E-001	3.57290E+000	9	...........
	24	0.333333	5.58400E-001	9.11127E-005	0.00000E+000	5.08773E-005	5.39641E-002	5.58501E-001	3.57290E+000	9	...........
	25	0.346667	5.65859E-001	9.09533E-005	0.00000E+000	5.14667E-005	5.39641E-002	5.65966E-001	3.57290E+000	9	...........
	26	0.36	5.73105E-001	9.10345E-005	0.00000E+000	5.21723E-005	5.39641E-002	5.73165E-001	3.57290E+000	9	...........
	27	0.373333	5.80133E-001	9.11616E-005	0.00000E+000	5.28859E-005	5.39641E-002	5.80250E-001	3.57290E+000	9	...........
	28	0.386667	5.87027E-001	9.11460E-005	0.00000E+000	5.35052E-005	5.39641E-002	5.87137E-001	3.57290E+000	9	...........
	29	0.4	5.93763E-001	9.07782E-005	0.00000E+000	5.39008E-005	5.39641E-002	5.93870E-001	3.57290E+000	9	...........
	30	0.413333	6.00330E-001	9.09449E-005	0.00000E+000	5.45969E-005	5.39641E-002	6.00448E-001	3.57290E+000	9	...........
	31	0.426667	6.06749E-001	9.07574E-005	0.00000E+000	5.50670E-005	5.39641E-002	6.06878E-001	3.57290E+000	9	...........
	32	0.44	6.13036E-001	9.08241E-005	0.00000E+000	5.56784E-005	5.39641E-002	6.13178E-001	3.57290E+000	9	...........
	33	0.453333	6.19255E-001	9.11825E-005	0.00000E+000	5.64652E-005	5.39641E-002	6.19351E-001	3.57290E+000	9	...........
	34	0.466667	6.25249E-001	9.10085E-005	0.00000E+000	5.69029E-005	5.39641E-002	6.25354E-001	3.57290E+000	9	...........
	35	0.48	6.31146E-001	9.11200E-005	0.00000E+000	5.75100E-005	5.39641E-002	6.31257E-001	3.57290E+000	9	...........
	36	0.493333	6.36908E-001	9.10877E-005	0.00000E+000	5.80145E-005	5.39641E-002	6.37039E-001	3.57290E+000	9	...........
	37	0.506667	6.42613E-001	9.13481E-005	0.00000E+000	5.87015E-005	5.39641E-002	6.42739E-001	3.57290E+000	9	...........
	38	0.52	6.48172E-001	9.10303E-005	0.00000E+000	5.90033E-005	5.39641E-002	6.48307E-001	3.57290E+000	9	...........
	39	0.533333	6.53637E-001	9.09064E-005	0.00000E+000	5.94197E-005	5.39641E-002	6.53750E-001	3.57290E+000	9	...........
	40	0.546667	6.58986E-001	9.10533E-005	0.00000E+000	6.00028E-005	5.39641E-002	6.59113E-001	3.57290E+000	9	...........
	41	0.56	6.64237E-001	9.09105E-005	0.00000E+000	6.03861E-005	5.39641E-002	6.64365E-001	3.57290E+000	9	...........
	42	0.573333	6.69430E-001	9.13210E-005	0.00000E+000	6.11330E-005	5.39641E-002	6.69538E-001	3.57290E+000	9	...........
	43	0.586667	6.74508E-001	9.07845E-005	0.00000E+000	6.12349E-005	5.39641E-002	6.74624E-001	3.57600E+000	9	...........
	44	0.6	6.79506E-001	9.10981E-005	0.00000E+000	6.19017E-005	5.39641E-002	6.79644E-001	3.57600E+000	9	...........
	45	0.613333	6.84394E-001	9.09480E-005	0.00000E+000	6.22443E-005	5.39641E-002	6.84538E-001	3.57600E+000	9	...........
	46	0.626667	6.89247E-001	9.08616E-005	0.00000E+000	6.26261E-005	5.39641E-002	6.89405E-001	3.57600E+000	9	...........
	47	0.64	6.94024E-001	9.10585E-005	0.00000E+000	6.31968E-005	5.39641E-002	6.94163E-001	3.57600E+000	9	...........
	48	0.653333	6.98702E-001	9.10689E-005	0.00000E+000	6.36300E-005	5.39641E-002	6.98844E-001	3.57600E+000	9	...........
	49	0.666667	7.03304E-001	9.10772E-005	0.00000E+000	6.40550E-005	5.39641E-002	7.03442E-001	3.57600E+000	9	...........
	50	0.68	7.07822E-001	9.10001E-005	0.00000E+000	6.44119E-005	5.39641E-002	7.07978E-001	3.57600E+000	9	...........
	51	0.693333	7.12291E-001	9.09689E-005	0.00000E+000	6.47963E-005	5.39641E-002	7.12425E-001	3.57600E+000	9	...........
	52	0.706667	7.16700E-001	9.08251E-005	0.00000E+000	6.50944E-005	5.39641E-002	7.16853E-001	3.57600E+000	9	...........
	53	0.72	7.21077E-001	9.08772E-005	0.00000E+000	6.55294E-005	5.39641E-002	7.21229E-001	3.57600E+000	9	...........
	54	0.733333	7.25359E-001	9.10772E-005	0.00000E+000	6.60637E-005	5.39641E-002	7.25490E-001	3.57600E+000	9	...........
	55	0.746667	7.29596E-001	9.11272E-005	0.00000E+000	6.64861E-005	5.39641E-002	7.29735E-001	3.57600E+000	9	...........
	56	0.76	7.33738E-001	9.08678E-005	0.00000E+000	6.66731E-005	5.39641E-002	7.33896E-001	3.57600E+000	9	...........
	57	0.773333	7.37828E-001	9.11199E-005	0.00000E+000	6.72308E-005	5.39641E-002	7.37995E-001	3.57600E+000	9	...........
	58	0.786667	7.41916E-001	9.09376E-005	0.00000E+000	6.74680E-005	5.39641E-002	7.42065E-001	3.57600E+000	9	...........
	59	0.8	7.45930E-001	9.09251E-005	0.00000E+000	6.78237E-005	5.39641E-002	7.46093E-001	3.57600E+000	9	...........
	60	0.813333	7.49897E-001	9.10324E-005	0.00000E+000	6.82650E-005	5.39641E-002	7.50041E-001	3.57600E+000	9	...........
	61	0.826667	7.53808E-001	9.12950E-005	0.00000E+000	6.88189E-005	5.39641E-002	7.53941E-001	3.57600E+000	9	...........
	62	0.84	7.57656E-001	9.10501E-005	0.00000E+000	6.89847E-005	5.39641E-002	7.57797E-001	3.57600E+000	9	...........
	63	0.853333	7.61458E-001	9.10720E-005	0.00000E+000	6.93475E-005	5.39641E-002	7.61592E-001	3.57600E+000	9	...........
	64	0.866667	7.65232E-001	9.08699E-005	0.00000E+000	6.95365E-005	5.39641E-002	7.65380E-001	3.57600E+000	9	...........
	65	0.88	7.68974E-001	9.10908E-005	0.00000E+000	7.00465E-005	5.39641E-002	7.69109E-001	3.57600E+000	9	...........
	66	0.893333	7.72659E-001	9.10533E-005	0.00000E+000	7.03532E-005	5.39641E-002	7.72770E-001	3.57600E+000	9	...........
	67	0.906667	7.76298E-001	9.11481E-005	0.00000E+000	7.07581E-005	5.39641E-002	7.76395E-001	3.57600E+000	9	...........
	68	0.92	7.79881E-001	9.10168E-005	0.00000E+000	7.09823E-005	5.39641E-002	7.80042E-001	3.57600E+000	9	...........
	69	0.933333	7.83441E-001	9.08334E-005	0.00000E+000	7.11626E-005	5.39641E-002	7.83566E-001	3.57600E+000	9	...........
	70	0.946667	7.86945E-001	9.09678E-005	0.00000E+000	7.15867E-005	5.39641E-002	7.87081E-001	3.57600E+000	9	...........
	71	0.96	7.90409E-001	9.09032E-005	0.00000E+000	7.18507E-005	5.39641E-002	7.90550E-001	3.57600E+000	9	...........
	72	0.97333	7.93845E-001	9.09355E-005	0.00000E+000	7.21887E-005	5.39641E-002	7.94011E-001	3.57600E+000	9	...........
	73	0.98667	7.97252E-001	9.09710E-005	0.00000E+000	7.25268E-005	5.39641E-002	7.97385E-001	3.57600E+000	9	...........
	74	1	8.00615E-001	9.10095E-005	0.00000E+000	7.28636E-005	5.39641E-002	8.00745E-001	3.57600E+000	9	...........
	75	1.01333	8.03907E-001	9.10856E-005	0.00000E+000	7.32243E-005	5.39641E-002	8.04052E-001	3.57600E+000	9	...........
	76	1.02667	8.07177E-001	9.11002E-005	0.00000E+000	7.35340E-005	5.39641E-002	8.07337E-001	3.57600E+000	9	...........
	77	1.04	8.10403E-001	9.09439E-005	0.00000E+000	7.37012E-005	5.39641E-002	8.10581E-001	3.57600E+000	9	...........
	78	1.05333	8.13645E-001	9.12335E-005	0.00000E+000	7.42317E-005	5.39641E-002	8.13810E-001	3.57600E+000	9	...........
	79	1.06667	8.16822E-001	9.11564E-005	0.00000E+000	7.44586E-005	5.39641E-002	8.16982E-001	3.57600E+000	9	...........
	80	1.08	8.19995E-001	9.11168E-005	0.00000E+000	7.47153E-005	5.39641E-002	8.20132E-001	3.57600E+000	9	...........
	81	1.09333	8.23093E-001	9.09439E-005	0.00000E+000	7.48553E-005	5.39641E-002	8.23268E-001	3.57600E+000	9	...........
	82	1.10667	8.26174E-001	9.08866E-005	0.00000E+000	7.50881E-005	5.39641E-002	8.26350E-001	3.57600E+000	9	...........
	83	1.12	8.29187E-001	9.11220E-005	0.00000E+000	7.55572E-005	5.39641E-002	8.29372E-001	3.57600E+000	9	...........
	84	1.13333	8.32223E-001	9.09303E-005	0.00000E+000	7.56743E-005	5.39641E-002	8.32413E-001	3.57600E+000	9	...........
	85	1.14667	8.35201E-001	9.09626E-005	0.00000E+000	7.59721E-005	5.39641E-002	8.35416E-001	3.57600E+000	9	...........
	86	1.16	8.38176E-001	9.09637E-005	0.00000E+000	7.62436E-005	5.39641E-002	8.38372E-001	3.57600E+000	9	...........
	87	1.17333	8.41074E-001	9.09835E-005	0.00000E+000	7.65238E-005	5.39641E-002	8.41298E-001	3.57600E+000	9	...........
	88	1.18667	8.44005E-001	9.10220E-005	0.00000E+000	7.68230E-005	5.39641E-002	8.44226E-001	3.57600E+000	9	...........
	89	1.2	8.46881E-001	9.09918E-005	0.00000E+000	7.70592E-005	5.39641E-002	8.47071E-001	3.57600E+000	9	...........
	90	1.21333	8.49715E-001	9.09835E-005	0.00000E+000	7.73101E-005	5.39641E-002	8.49924E-001	3.57600E+000	9	...........
	91	1.22667	8.52523E-001	9.10585E-005	0.00000E+000	7.76294E-005	5.39641E-002	8.52732E-001	3.57600E+000	9	...........
	92	1.24	8.55301E-001	9.10408E-005	0.00000E+000	7.78673E-005	5.39641E-002	8.55506E-001	3.57600E+000	9	...........
	93	1.25333	8.58050E-001	9.12825E-005	0.00000E+000	7.83249E-005	5.39641E-002	8.58266E-001	3.57600E+000	9	...........
	94	1.26667	8.60785E-001	9.10449E-005	0.00000E+000	7.83701E-005	5.39641E-002	8.60983E-001	3.57600E+000	9	...........
	95	1.28	8.63451E-001	9.11877E-005	0.00000E+000	7.87360E-005	5.39641E-002	8.63648E-001	3.57600E+000	9	...........
	96	1.29333	8.66119E-001	9.08397E-005	0.00000E+000	7.86780E-005	5.39641E-002	8.66302E-001	3.57600E+000	9	...........
	97	1.30667	8.68760E-001	9.10658E-005	0.00000E+000	7.91143E-005	5.39641E-002	8.68944E-001	3.57600E+000	9	...........
	98	1.32	8.71394E-001	9.08855E-005	0.00000E+000	7.91971E-005	5.39641E-002	8.71576E-001	3.57600E+000	9	...........
	99	1.33333	8.74007E-001	9.09116E-005	0.00000E+000	7.94573E-005	5.39641E-002	8.74177E-001	3.57600E+000	9	...........
	100	1.34667	8.76577E-001	9.09970E-005	0.00000E+000	7.97659E-005	5.39641E-002	8.76749E-001	3.57600E+000	9	...........
	101	1.36	8.79139E-001	9.09241E-005	0.00000E+000	7.99349E-005	5.39641E-002	8.79292E-001	3.57600E+000	9	...........
	102	1.37333	8.81644E-001	9.11054E-005	0.00000E+000	8.03225E-005	5.39641E-002	8.81801E-001	3.57600E+000	9	...........
	103	1.38667	8.84138E-001	9.08543E-005	0.00000E+000	8.03277E-005	5.39641E-002	8.84294E-001	3.57600E+000	9	...........
	104	1.4	8.86573E-001	9.12137E-005	0.00000E+000	8.08676E-005	5.39641E-002	8.86757E-001	3.57600E+000	9	...........
	105	1.41333	8.89025E-001	9.10689E-005	0.00000E+000	8.09625E-005	5.39641E-002	8.89201E-001	3.57600E+000	9	...........
	106	1.42667	8.91422E-001	9.10804E-005	0.00000E+000	8.11911E-005	5.39641E-002	8.91589E-001	3.57600E+000	9	...........
	107	1.44	8.93803E-001	9.11627E-005	0.00000E+000	8.14815E-005	5.39641E-002	8.93983E-001	3.57600E+000	9	...........
	108	1.45333	8.96194E-001	9.12252E-005	0.00000E+000	8.17555E-005	5.39641E-002	8.96380E-001	3.57600E+000	9	...........
	109	1.46667	8.98516E-001	9.10679E-005	0.00000E+000	8.18259E-005	5.39641E-002	8.98717E-001	3.57600E+000	9	...........
	110	1.48	9.00833E-001	9.11147E-005	0.00000E+000	8.20792E-005	5.39641E-002	9.01050E-001	3.57600E+000	9	...........
	111	1.49333	9.03140E-001	9.10887E-005	0.00000E+000	8.22659E-005	5.39641E-002	9.03334E-001	3.57600E+000	9	...........
	112	1.50667	9.05384E-001	9.11272E-005	0.00000E+000	8.25051E-005	5.39641E-002	9.05602E-001	3.57600E+000	9	...........
	113	1.52	9.07637E-001	9.09762E-005	0.00000E+000	8.25733E-005	5.39641E-002	9.07854E-001	3.57600E+000	9	...........
	114	1.53333	9.09858E-001	9.09605E-005	0.00000E+000	8.27612E-005	5.39641E-002	9.10058E-001	3.57600E+000	9	...........
	115	1.54667	9.12055E-001	9.09783E-005	0.00000E+000	8.29772E-005	5.39641E-002	9.12258E-001	3.57600E+000	9	...........
	116	1.56	9.14228E-001	9.10647E-005	0.00000E+000	8.32539E-005	5.39641E-002	9.14438E-001	3.57600E+000	9	...........
	117	1.57333	9.16380E-001	9.11939E-005	0.00000E+000	8.35683E-005	5.39641E-002	9.16617E-001	3.57600E+000	9	...........
	118	1.58667	9.18507E-001	9.13096E-005	0.00000E+000	8.38685E-005	5.39641E-002	9.18737E-001	3.57260E+000	9	...........
	119	1.6	9.20643E-001	9.10324E-005	0.00000E+000	8.38084E-005	5.39641E-002	9.20825E-001	3.57260E+000	9	...........
	120	1.61333	9.22752E-001	9.09387E-005	0.00000E+000	8.39139E-005	5.39641E-002	9.22918E-001	3.57260E+000	9	...........
	121	1.62667	9.24809E-001	9.10095E-005	0.00000E+000	8.41665E-005	5.39641E-002	9.24974E-001	3.57260E+000	9	...........
	122	1.64	9.26863E-001	9.11210E-005	0.00000E+000	8.44567E-005	5.39641E-002	9.27029E-001	3.57260E+000	9	...........
	123	1.65333	9.28864E-001	9.08626E-005	0.00000E+000	8.43990E-005	5.39641E-002	9.29048E-001	3.57260E+000	9	...........
	124	1.66667	9.30847E-001	9.11939E-005	0.00000E+000	8.48876E-005	5.39641E-002	9.31044E-001	3.57260E+000	9	...........
	125	1.68	9.32830E-001	9.09230E-005	0.00000E+000	8.48157E-005	5.39641E-002	9.33019E-001	3.57260E+000	9	...........
	126	1.69333	9.34779E-001	9.12491E-005	0.00000E+000	8.52978E-005	5.39641E-002	9.34998E-001	3.57260E+000	9	...........
	127	1.70667	9.36720E-001	9.10064E-005	0.00000E+000	8.52475E-005	5.39641E-002	9.36934E-001	3.57260E+000	9	...........
	128	1.72	9.38635E-001	9.12033E-005	0.00000E+000	8.56066E-005	5.39641E-002	9.38846E-001	3.57260E+000	9	...........
	129	1.73333	9.40527E-001	9.10543E-005	0.00000E+000	8.56390E-005	5.39641E-002	9.40745E-001	3.57260E+000	9	...........
	130	1.74667	9.42406E-001	9.11543E-005	0.00000E+000	8.59044E-005	5.39641E-002	9.42605E-001	3.57260E+000	9	...........
	131	1.76	9.44260E-001	9.10053E-005	0.00000E+000	8.59327E-005	5.39641E-002	9.44436E-001	3.57260E+000	9	...........
	132	1.77333	9.46126E-001	9.10366E-005	0.00000E+000	8.61321E-005	5.39641E-002	9.46285E-001	3.57260E+000	9	...........
	133	1.78667	9.47946E-001	9.11533E-005	0.00000E+000	8.64084E-005	5.39641E-002	9.48118E-001	3.57260E+000	9	...........
	134	1.8	9.49745E-001	9.10470E-005	0.00000E+000	8.64714E-005	5.39641E-002	9.49908E-001	3.57260E+000	9	...........
	135	1.81333	9.51511E-001	9.08605E-005	0.00000E+000	8.64547E-005	5.39641E-002	9.51673E-001	3.57260E+000	9	...........
	136	1.82667	9.53289E-001	9.10699E-005	0.00000E+000	8.68160E-005	5.39641E-002	9.53439E-001	3.57260E+000	9	...........
	137	1.84	9.55016E-001	9.10918E-005	0.00000E+000	8.69941E-005	5.39641E-002	9.55203E-001	3.57260E+000	9	...........
	138	1.85333	9.56750E-001	9.08480E-005	0.00000E+000	8.69188E-005	5.39641E-002	9.56916E-001	3.57260E+000	9	...........
	139	1.86667	9.58468E-001	9.09126E-005	0.00000E+000	8.71368E-005	5.39641E-002	9.58635E-001	3.57260E+000	9	...........
	140	1.88	9.60149E-001	9.11356E-005	0.00000E+000	8.75037E-005	5.39641E-002	9.60335E-001	3.57260E+000	9	...........
	141	1.89333	9.61836E-001	9.08887E-005	0.00000E+000	8.74199E-005	5.39641E-002	9.61996E-001	3.57260E+000	9	...........
	142	1.90667	9.63489E-001	9.12585E-005	0.00000E+000	8.79266E-005	5.39641E-002	9.63668E-001	3.57260E+000	9	...........
	143	1.92	9.65106E-001	9.10022E-005	0.00000E+000	8.78268E-005	5.39641E-002	9.65289E-001	3.57260E+000	9	...........
	144	1.93333	9.66707E-001	9.10001E-005	0.00000E+000	8.79705E-005	5.39641E-002	9.66900E-001	3.57260E+000	9	...........
	145	1.94667	9.68313E-001	9.11918E-005	0.00000E+000	8.83022E-005	5.39641E-002	9.68491E-001	3.57260E+000	9	...........
	146	1.96	9.69867E-001	9.10658E-005	0.00000E+000	8.83217E-005	5.39641E-002	9.70078E-001	3.57260E+000	9	...........
	147	1.97333	9.71414E-001	9.10220E-005	0.00000E+000	8.84201E-005	5.39641E-002	9.71640E-001	3.57260E+000	9	...........
	148	1.98667	9.73040E-001	9.08720E-005	0.00000E+000	8.84221E-005	5.39641E-002	9.73208E-001	3.57260E+000	9	...........
	149	2	9.74557E-001	9.12064E-005	0.00000E+000	8.88858E-005	5.39641E-002	9.74746E-001	3.57260E+000	9	...........
	150	2.01333	9.76071E-001	9.10564E-005	0.00000E+000	8.88775E-005	5.39641E-002	9.76268E-001	3.57260E+000	9	...........
	151	2.02667	9.77582E-001	9.13315E-005	0.00000E+000	8.92839E-005	5.39641E-002	9.77773E-001	3.57260E+000	9	...........
	152	2.04	9.79085E-001	9.11168E-005	0.00000E+000	8.92111E-005	5.39641E-002	9.79295E-001	3.57260E+000	9	...........
	153	2.05333	9.80568E-001	9.11439E-005	0.00000E+000	8.93728E-005	5.39641E-002	9.80759E-001	3.57260E+000	9	...........
	154	2.06667	9.82042E-001	9.10220E-005	0.00000E+000	8.93874E-005	5.39641E-002	9.82206E-001	3.57260E+000	9	...........
	155	2.08	9.83476E-001	9.12533E-005	0.00000E+000	8.97455E-005	5.39641E-002	9.83652E-001	3.57260E+000	9	...........
	156	2.09333	9.84874E-001	9.10606E-005	0.00000E+000	8.96832E-005	5.39641E-002	9.85091E-001	3.57260E+000	9	...........
	157	2.10667	9.86300E-001	9.10585E-005	0.00000E+000	8.98110E-005	5.39641E-002	9.86497E-001	3.57260E+000	9	...........
	158	2.12	9.87693E-001	9.12023E-005	0.00000E+000	9.00798E-005	5.39641E-002	9.87911E-001	3.57260E+000	9	...........
	159	2.13333	9.89091E-001	9.12085E-005	0.00000E+000	9.02135E-005	5.39641E-002	9.89315E-001	3.57260E+000	9	...........
	160	2.14667	9.90476E-001	9.09189E-005	0.00000E+000	9.00530E-005	5.39641E-002	9.90662E-001	3.57260E+000	9	...........
	161	2.16	9.91831E-001	9.10856E-005	0.00000E+000	9.03414E-005	5.39641E-002	9.92030E-001	3.57260E+000	9	...........
	162	2.17333	9.93181E-001	9.09512E-005	0.00000E+000	9.03310E-005	5.39641E-002	9.93357E-001	3.57260E+000	9	...........
	163	2.18667	9.94511E-001	9.08282E-005	0.00000E+000	9.03297E-005	5.39641E-002	9.94667E-001	3.57260E+000	9	...........
	164	2.2	9.95839E-001	9.13335E-005	0.00000E+000	9.09535E-005	5.39641E-002	9.95990E-001	3.57260E+000	9	...........
	165	2.21333	9.97140E-001	9.11523E-005	0.00000E+000	9.08915E-005	5.39641E-002	9.97341E-001	3.57260E+000	9	...........
	166	2.22667	9.98455E-001	9.11074E-005	0.00000E+000	9.09667E-005	5.39641E-002	9.98637E-001	3.57260E+000	9	...........
	167	2.23833	9.99643E-001	9.09841E-005	0.00000E+000	9.09516E-005	5.39641E-002	9.99827E-001	3.57260E+000	9	...........
STARTTIMEOFFSET	QUANT	2468.778	Start Time Offset (s)
