EXPLAIN
TAG	PWR800_CHARGE
TITLE	LABEL	PWR Cyclic Charge Discharge (Cell) - Charge Step	Test &Identifier
DATE	LABEL	10-7-2017	Date
TIME	LABEL	15:05:38	Time
NOTES	NOTES	3	&Notes...
	supercap test cell
	0.9mg
	6M KOH
PSTAT	PSTAT	IFC5000-01520	Potentiostat
CAPACITY	QUANT	1.00000E-003	Capacity (A-hr)
CELLTYPE	SELECTOR	1	&Cell Type
WORKINGCONNECTION	SELECTOR	0	&Working Lead
MAXCHARGETIME	VARIABLEANDUNITS	1.00000E+002	s	1.00000E+002	second(s)	Max &Charge Time
CHARGECURRENT	QUANT	9.00000E-005	&Charge Current (A) 
VOLTAGEFINISH	TWOPARAM	F	1.00000E-003	3.60000E+003	&Voltage Finish	 I (A) < 	Max Time(s)
SAMPLETIME	QUANT	1.00000E-002	Sa&mple Period (s)
CHARGESTOPAT1	MULTIPARAM	4	1.00000E+000	Charge Stop At &1	Voltage > Limit	V
CHARGESTOPAT2	MULTIPARAM	0	0.00000E+000	Charge Stop At &2	None	N/A
AESBHCSELECTOR	TOGGLE	F	Save Both Half Cells
IRCOMP	TOGGLE	F	IR &Measure
EOC	QUANT	0	Open Circuit (V)
SEQUENCER	TOGGLE	TRUE	Run as Sequence
PSTATMODEL	IQUANT	53	Pstat Model
PSTATSECTION	LABEL	IFC5000-01520	Pstat Section
PSTATSERIALNO	LABEL	01520	Pstat Serial Number
CTRLMODE	IQUANT	0	Control Mode
ELECTROMETER	IQUANT	1	RE=0 or CS=1
IESTAB	IQUANT	0	I/E Stability
CASPEED	IQUANT	4	Control Amp Speed
CONVENTION	IQUANT	1	Current Convention
ICHRANGE	IQUANT	2	Ich Range
ICHRANGEMODE	TOGGLE	T	Ich Auto Range
ICHOFFSETENABLE	TOGGLE	F	Ich Offset Enable
ICHOFFSET	QUANT	0	Ich Offset (V)
ICHFILTER	IQUANT	1	Ich Filter
VCHRANGE	IQUANT	2	Vch Range
VCHRANGEMODE	TOGGLE	T	Vch Auto Range
VCHOFFSETENABLE	TOGGLE	F	Vch Offset Enable
VCHOFFSET	QUANT	0	Vch Offset (V)
VCHFILTER	IQUANT	1	Vch Filter
IERANGELOWERLIMIT	IQUANT	9	I/E Range Lower Limit
IERANGEMODE	TOGGLE	F	I/E AutoRange
IERANGE	IQUANT	9	I/E Range
ACHSELECT	IQUANT	1	Ach Select
ACHRANGE	IQUANT	2	Ach Range
ACHOFFSETENABLE	TOGGLE	F	Ach Offset Enable
ACHOFFSET	QUANT	0	Ach Offset (V)
ACHFILTER	IQUANT	1	Ach Filter
CABLEID	IQUANT	14	Cable ID
DCCALDATE	LABEL	5-7-2017	DC Calibration Date
ACCALDATE	LABEL	12/3/2015	AC Calibration Date
FRAMEWORKVERSION	QUANT	7.01	Framework Version
INSTRUMENTVERSION	LABEL	4.00	Instrument Version
CURVE	TABLE	192
	Pt	T	Vf	Im	Vu	Pwr	Sig	Ach	Temp	IERange	Over
	#	s	V	A	V	W	V	V	deg C	#	bits
	0	0.013333	2.94490E-001	9.09699E-005	0.00000E+000	2.67897E-005	5.39641E-002	2.94528E-001	3.57160E+000	9	...........
	1	0.026667	3.13333E-001	9.12981E-005	0.00000E+000	2.86067E-005	5.39641E-002	3.13369E-001	3.57160E+000	9	...........
	2	0.04	3.30683E-001	9.10314E-005	0.00000E+000	3.01025E-005	5.39641E-002	3.30715E-001	3.57160E+000	9	...........
	3	0.053333	3.46811E-001	9.11241E-005	0.00000E+000	3.16029E-005	5.39641E-002	3.46844E-001	3.57160E+000	9	...........
	4	0.066667	3.61923E-001	9.12095E-005	0.00000E+000	3.30108E-005	5.39641E-002	3.61953E-001	3.57160E+000	9	...........
	5	0.08	3.76157E-001	9.11595E-005	0.00000E+000	3.42903E-005	5.39641E-002	3.76189E-001	3.57160E+000	9	...........
	6	0.093333	3.89638E-001	9.11397E-005	0.00000E+000	3.55115E-005	5.39641E-002	3.89668E-001	3.57160E+000	9	...........
	7	0.106667	4.02458E-001	9.11689E-005	0.00000E+000	3.66916E-005	5.39641E-002	4.02491E-001	3.57160E+000	9	...........
	8	0.12	4.14702E-001	9.12304E-005	0.00000E+000	3.78335E-005	5.39641E-002	4.14741E-001	3.57160E+000	9	...........
	9	0.133333	4.26411E-001	9.11585E-005	0.00000E+000	3.88710E-005	5.39641E-002	4.26446E-001	3.57160E+000	9	...........
	10	0.146667	4.37641E-001	9.11543E-005	0.00000E+000	3.98929E-005	5.39641E-002	4.37686E-001	3.57160E+000	9	...........
	11	0.16	4.48439E-001	9.09407E-005	0.00000E+000	4.07814E-005	5.39641E-002	4.48485E-001	3.57160E+000	9	...........
	12	0.173333	4.58848E-001	9.12689E-005	0.00000E+000	4.18786E-005	5.39641E-002	4.58894E-001	3.57160E+000	9	...........
	13	0.186667	4.68894E-001	9.11064E-005	0.00000E+000	4.27193E-005	5.39641E-002	4.68936E-001	3.57160E+000	9	...........
	14	0.2	4.78590E-001	9.09637E-005	0.00000E+000	4.35343E-005	5.39641E-002	4.78635E-001	3.57160E+000	9	...........
	15	0.213333	4.87970E-001	9.13033E-005	0.00000E+000	4.45533E-005	5.39641E-002	4.88016E-001	3.57160E+000	9	...........
	16	0.226667	4.97038E-001	9.09991E-005	0.00000E+000	4.52300E-005	5.39641E-002	4.97092E-001	3.57160E+000	9	...........
	17	0.24	5.05830E-001	9.11429E-005	0.00000E+000	4.61028E-005	5.39641E-002	5.05885E-001	3.57160E+000	9	...........
	18	0.253333	5.14367E-001	9.12023E-005	0.00000E+000	4.69114E-005	5.39641E-002	5.14417E-001	3.57160E+000	9	...........
	19	0.266667	5.22656E-001	9.13679E-005	0.00000E+000	4.77540E-005	5.39641E-002	5.22711E-001	3.57160E+000	9	...........
	20	0.28	5.30719E-001	9.12533E-005	0.00000E+000	4.84299E-005	5.39641E-002	5.30770E-001	3.57160E+000	9	...........
	21	0.293333	5.38554E-001	9.13648E-005	0.00000E+000	4.92049E-005	5.39641E-002	5.38640E-001	3.57160E+000	9	...........
	22	0.306667	5.46202E-001	9.10012E-005	0.00000E+000	4.97050E-005	5.39641E-002	5.46267E-001	3.57160E+000	9	...........
	23	0.32	5.53650E-001	9.11970E-005	0.00000E+000	5.04912E-005	5.39641E-002	5.53734E-001	3.57160E+000	9	...........
	24	0.333333	5.60923E-001	9.11127E-005	0.00000E+000	5.11071E-005	5.39641E-002	5.60984E-001	3.57160E+000	9	...........
	25	0.346667	5.68031E-001	9.09803E-005	0.00000E+000	5.16797E-005	5.39641E-002	5.68106E-001	3.57160E+000	9	...........
	26	0.36	5.74928E-001	9.10720E-005	0.00000E+000	5.23598E-005	5.39641E-002	5.75005E-001	3.57160E+000	9	...........
	27	0.373333	5.81638E-001	9.12637E-005	0.00000E+000	5.30824E-005	5.39641E-002	5.81750E-001	3.57160E+000	9	...........
	28	0.386667	5.88251E-001	9.10241E-005	0.00000E+000	5.35450E-005	5.39641E-002	5.88370E-001	3.57160E+000	9	...........
	29	0.4	5.94715E-001	9.11398E-005	0.00000E+000	5.42022E-005	5.39641E-002	5.94825E-001	3.57160E+000	9	...........
	30	0.413333	6.01002E-001	9.12564E-005	0.00000E+000	5.48453E-005	5.39641E-002	6.01137E-001	3.57160E+000	9	...........
	31	0.426667	6.07167E-001	9.10845E-005	0.00000E+000	5.53035E-005	5.39641E-002	6.07321E-001	3.57160E+000	9	...........
	32	0.44	6.13244E-001	9.13565E-005	0.00000E+000	5.60238E-005	5.39641E-002	6.13386E-001	3.57160E+000	9	...........
	33	0.453333	6.19212E-001	9.09876E-005	0.00000E+000	5.63406E-005	5.39641E-002	6.19297E-001	3.57160E+000	9	...........
	34	0.466667	6.24987E-001	9.11116E-005	0.00000E+000	5.69436E-005	5.39641E-002	6.25074E-001	3.57160E+000	9	...........
	35	0.48	6.30666E-001	9.13450E-005	0.00000E+000	5.76082E-005	5.39641E-002	6.30769E-001	3.57160E+000	9	...........
	36	0.493333	6.36238E-001	9.12762E-005	0.00000E+000	5.80734E-005	5.39641E-002	6.36357E-001	3.57160E+000	9	...........
	37	0.506667	6.41740E-001	9.11408E-005	0.00000E+000	5.84887E-005	5.39641E-002	6.41841E-001	3.57160E+000	9	...........
	38	0.52	6.47062E-001	9.09762E-005	0.00000E+000	5.88672E-005	5.39641E-002	6.47163E-001	3.57160E+000	9	...........
	39	0.533333	6.52321E-001	9.09960E-005	0.00000E+000	5.93586E-005	5.39641E-002	6.52407E-001	3.57160E+000	9	...........
	40	0.546667	6.57477E-001	9.09689E-005	0.00000E+000	5.98099E-005	5.39641E-002	6.57573E-001	3.57160E+000	9	...........
	41	0.56	6.62530E-001	9.09522E-005	0.00000E+000	6.02586E-005	5.39641E-002	6.62628E-001	3.57160E+000	9	...........
	42	0.573333	6.67511E-001	9.11179E-005	0.00000E+000	6.08221E-005	5.39641E-002	6.67605E-001	3.57160E+000	9	...........
	43	0.586667	6.72400E-001	9.11970E-005	0.00000E+000	6.13209E-005	5.39641E-002	6.72467E-001	3.57160E+000	9	...........
	44	0.6	6.77190E-001	9.12075E-005	0.00000E+000	6.17648E-005	5.39641E-002	6.77260E-001	3.57160E+000	9	...........
	45	0.613333	6.81882E-001	9.12898E-005	0.00000E+000	6.22489E-005	5.39641E-002	6.81959E-001	3.57160E+000	9	...........
	46	0.626667	6.86510E-001	9.10804E-005	0.00000E+000	6.25276E-005	5.39641E-002	6.86570E-001	3.57160E+000	9	...........
	47	0.64	6.91046E-001	9.13981E-005	0.00000E+000	6.31603E-005	5.39641E-002	6.91115E-001	3.57348E+000	9	...........
	48	0.653333	6.95536E-001	9.13096E-005	0.00000E+000	6.35091E-005	5.39641E-002	6.95608E-001	3.57460E+000	9	...........
	49	0.666667	6.99913E-001	9.13877E-005	0.00000E+000	6.39634E-005	5.39641E-002	6.99980E-001	3.57460E+000	9	...........
	50	0.68	7.04224E-001	9.11033E-005	0.00000E+000	6.41571E-005	5.39641E-002	7.04300E-001	3.57460E+000	9	...........
	51	0.693333	7.08463E-001	9.11700E-005	0.00000E+000	6.45906E-005	5.39641E-002	7.08571E-001	3.57460E+000	9	...........
	52	0.706667	7.12627E-001	9.12741E-005	0.00000E+000	6.50444E-005	5.39641E-002	7.12724E-001	3.57460E+000	9	...........
	53	0.72	7.16764E-001	9.11325E-005	0.00000E+000	6.53204E-005	5.39641E-002	7.16858E-001	3.57460E+000	9	...........
	54	0.733333	7.20843E-001	9.11262E-005	0.00000E+000	6.56877E-005	5.39641E-002	7.20930E-001	3.57460E+000	9	...........
	55	0.746667	7.24834E-001	9.13117E-005	0.00000E+000	6.61858E-005	5.39641E-002	7.24923E-001	3.57460E+000	9	...........
	56	0.76	7.28723E-001	9.10991E-005	0.00000E+000	6.63860E-005	5.39641E-002	7.28851E-001	3.57460E+000	9	...........
	57	0.773333	7.32602E-001	9.12721E-005	0.00000E+000	6.68661E-005	5.39641E-002	7.32721E-001	3.57460E+000	9	...........
	58	0.786667	7.36411E-001	9.12439E-005	0.00000E+000	6.71930E-005	5.39641E-002	7.36513E-001	3.57460E+000	9	...........
	59	0.8	7.40170E-001	9.10679E-005	0.00000E+000	6.74057E-005	5.39641E-002	7.40283E-001	3.57460E+000	9	...........
	60	0.813333	7.43915E-001	9.09543E-005	0.00000E+000	6.76623E-005	5.39641E-002	7.44024E-001	3.57460E+000	9	...........
	61	0.826667	7.47564E-001	9.09939E-005	0.00000E+000	6.80237E-005	5.39641E-002	7.47654E-001	3.57460E+000	9	...........
	62	0.84	7.51157E-001	9.12054E-005	0.00000E+000	6.85095E-005	5.39641E-002	7.51250E-001	3.57460E+000	9	...........
	63	0.853333	7.54705E-001	9.10387E-005	0.00000E+000	6.87074E-005	5.39641E-002	7.54805E-001	3.57460E+000	9	...........
	64	0.866667	7.58178E-001	9.11783E-005	0.00000E+000	6.91294E-005	5.39641E-002	7.58301E-001	3.57460E+000	9	...........
	65	0.88	7.61659E-001	9.11418E-005	0.00000E+000	6.94190E-005	5.39641E-002	7.61739E-001	3.57460E+000	9	...........
	66	0.893333	7.64998E-001	9.12429E-005	0.00000E+000	6.98006E-005	5.39641E-002	7.65132E-001	3.57460E+000	9	...........
	67	0.906667	7.68380E-001	9.12741E-005	0.00000E+000	7.01333E-005	5.39641E-002	7.68525E-001	3.57460E+000	9	...........
	68	0.92	7.71714E-001	9.11533E-005	0.00000E+000	7.03443E-005	5.39641E-002	7.71826E-001	3.57460E+000	9	...........
	69	0.933333	7.74957E-001	9.12335E-005	0.00000E+000	7.07020E-005	5.39641E-002	7.75080E-001	3.57460E+000	9	...........
	70	0.946667	7.78187E-001	9.11585E-005	0.00000E+000	7.09383E-005	5.39641E-002	7.78270E-001	3.57460E+000	9	...........
	71	0.96	7.81389E-001	9.11377E-005	0.00000E+000	7.12140E-005	5.39641E-002	7.81457E-001	3.57460E+000	9	...........
	72	0.97333	7.84524E-001	9.13794E-005	0.00000E+000	7.16893E-005	5.39641E-002	7.84559E-001	3.57460E+000	9	...........
	73	0.98667	7.87636E-001	9.12908E-005	0.00000E+000	7.19040E-005	5.39641E-002	7.87705E-001	3.57460E+000	9	...........
	74	1	7.90684E-001	9.13835E-005	0.00000E+000	7.22555E-005	5.39641E-002	7.90785E-001	3.57460E+000	9	...........
	75	1.01333	7.93754E-001	9.10314E-005	0.00000E+000	7.22565E-005	5.39641E-002	7.93862E-001	3.57460E+000	9	...........
	76	1.02667	7.96766E-001	9.11866E-005	0.00000E+000	7.26544E-005	5.39641E-002	7.96844E-001	3.57460E+000	9	...........
	77	1.04	7.99702E-001	9.10137E-005	0.00000E+000	7.27838E-005	5.39641E-002	7.99805E-001	3.57460E+000	9	...........
	78	1.05333	8.02633E-001	9.11512E-005	0.00000E+000	7.31610E-005	5.39641E-002	8.02735E-001	3.57460E+000	9	...........
	79	1.06667	8.05520E-001	9.10804E-005	0.00000E+000	7.33671E-005	5.39641E-002	8.05646E-001	3.57460E+000	9	...........
	80	1.08	8.08409E-001	9.13596E-005	0.00000E+000	7.38559E-005	5.39641E-002	8.08487E-001	3.57460E+000	9	...........
	81	1.09333	8.11251E-001	9.10720E-005	0.00000E+000	7.38823E-005	5.39641E-002	8.11317E-001	3.57460E+000	9	...........
	82	1.10667	8.14060E-001	9.11116E-005	0.00000E+000	7.41703E-005	5.39641E-002	8.14145E-001	3.57460E+000	9	...........
	83	1.12	8.16852E-001	9.11825E-005	0.00000E+000	7.44826E-005	5.39641E-002	8.16941E-001	3.57460E+000	9	...........
	84	1.13333	8.19632E-001	9.10210E-005	0.00000E+000	7.46037E-005	5.39641E-002	8.19716E-001	3.57460E+000	9	...........
	85	1.14667	8.22357E-001	9.10845E-005	0.00000E+000	7.49040E-005	5.39641E-002	8.22447E-001	3.57460E+000	9	...........
	86	1.16	8.25026E-001	9.09876E-005	0.00000E+000	7.50672E-005	5.39641E-002	8.25135E-001	3.57460E+000	9	...........
	87	1.17333	8.27662E-001	9.13648E-005	0.00000E+000	7.56192E-005	5.39641E-002	8.27768E-001	3.57460E+000	9	...........
	88	1.18667	8.30265E-001	9.12689E-005	0.00000E+000	7.57774E-005	5.39641E-002	8.30412E-001	3.57460E+000	9	...........
	89	1.2	8.32847E-001	9.11252E-005	0.00000E+000	7.58933E-005	5.39641E-002	8.32980E-001	3.57460E+000	9	...........
	90	1.21333	8.35401E-001	9.12679E-005	0.00000E+000	7.62453E-005	5.39641E-002	8.35547E-001	3.57460E+000	9	...........
	91	1.22667	8.37931E-001	9.10272E-005	0.00000E+000	7.62745E-005	5.39641E-002	8.38070E-001	3.57460E+000	9	...........
	92	1.24	8.40448E-001	9.10283E-005	0.00000E+000	7.65045E-005	5.39641E-002	8.40556E-001	3.57460E+000	9	...........
	93	1.25333	8.42910E-001	9.12710E-005	0.00000E+000	7.69333E-005	5.39641E-002	8.43031E-001	3.57460E+000	9	...........
	94	1.26667	8.45393E-001	9.12064E-005	0.00000E+000	7.71052E-005	5.39641E-002	8.45523E-001	3.57460E+000	9	...........
	95	1.28	8.47817E-001	9.13179E-005	0.00000E+000	7.74209E-005	5.39641E-002	8.47936E-001	3.57460E+000	9	...........
	96	1.29333	8.50204E-001	9.10272E-005	0.00000E+000	7.73917E-005	5.39641E-002	8.50332E-001	3.57460E+000	9	...........
	97	1.30667	8.52579E-001	9.11189E-005	0.00000E+000	7.76861E-005	5.39641E-002	8.52691E-001	3.57460E+000	9	...........
	98	1.32	8.54921E-001	9.11939E-005	0.00000E+000	7.79636E-005	5.39641E-002	8.55041E-001	3.57460E+000	9	...........
	99	1.33333	8.57226E-001	9.11429E-005	0.00000E+000	7.81300E-005	5.39641E-002	8.57399E-001	3.57460E+000	9	...........
	100	1.34667	8.59532E-001	9.11231E-005	0.00000E+000	7.83232E-005	5.39641E-002	8.59679E-001	3.57460E+000	9	...........
	101	1.36	8.61800E-001	9.12398E-005	0.00000E+000	7.86304E-005	5.39641E-002	8.61964E-001	3.57460E+000	9	...........
	102	1.37333	8.64030E-001	9.11898E-005	0.00000E+000	7.87906E-005	5.39641E-002	8.64168E-001	3.57460E+000	9	...........
	103	1.38667	8.66244E-001	9.12762E-005	0.00000E+000	7.90675E-005	5.39641E-002	8.66396E-001	3.57460E+000	9	...........
	104	1.4	8.68460E-001	9.12283E-005	0.00000E+000	7.92281E-005	5.39641E-002	8.68614E-001	3.57460E+000	9	...........
	105	1.41333	8.70691E-001	9.11439E-005	0.00000E+000	7.93582E-005	5.39641E-002	8.70838E-001	3.57460E+000	9	...........
	106	1.42667	8.72857E-001	9.09439E-005	0.00000E+000	7.93810E-005	5.39641E-002	8.73008E-001	3.57460E+000	9	...........
	107	1.44	8.75010E-001	9.10981E-005	0.00000E+000	7.97117E-005	5.39641E-002	8.75188E-001	3.57460E+000	9	...........
	108	1.45333	8.77159E-001	9.13981E-005	0.00000E+000	8.01707E-005	5.39641E-002	8.77292E-001	3.57460E+000	9	...........
	109	1.46667	8.79246E-001	9.13075E-005	0.00000E+000	8.02818E-005	5.39641E-002	8.79379E-001	3.57460E+000	9	...........
	110	1.48	8.81302E-001	9.10533E-005	0.00000E+000	8.02454E-005	5.39641E-002	8.81468E-001	3.57460E+000	9	...........
	111	1.49333	8.83420E-001	9.13408E-005	0.00000E+000	8.06924E-005	5.39641E-002	8.83567E-001	3.57460E+000	9	...........
	112	1.50667	8.85467E-001	9.11147E-005	0.00000E+000	8.06791E-005	5.39641E-002	8.85604E-001	3.57460E+000	9	...........
	113	1.52	8.87486E-001	9.14356E-005	0.00000E+000	8.11478E-005	5.39641E-002	8.87621E-001	3.57460E+000	9	...........
	114	1.53333	8.89491E-001	9.10168E-005	0.00000E+000	8.09587E-005	5.39641E-002	8.89619E-001	3.57460E+000	9	...........
	115	1.54667	8.91476E-001	9.12596E-005	0.00000E+000	8.13557E-005	5.39641E-002	8.91597E-001	3.57460E+000	9	...........
	116	1.56	8.93434E-001	9.11012E-005	0.00000E+000	8.13929E-005	5.39641E-002	8.93577E-001	3.57460E+000	9	...........
	117	1.57333	8.95416E-001	9.12617E-005	0.00000E+000	8.17172E-005	5.39641E-002	8.95584E-001	3.57460E+000	9	...........
	118	1.58667	8.97357E-001	9.12700E-005	0.00000E+000	8.19017E-005	5.39641E-002	8.97513E-001	3.57460E+000	9	...........
	119	1.6	8.99279E-001	9.11377E-005	0.00000E+000	8.19582E-005	5.39641E-002	8.99434E-001	3.57460E+000	9	...........
	120	1.61333	9.01184E-001	9.12241E-005	0.00000E+000	8.22098E-005	5.39641E-002	9.01349E-001	3.57460E+000	9	...........
	121	1.62667	9.03065E-001	9.10491E-005	0.00000E+000	8.22233E-005	5.39641E-002	9.03212E-001	3.57460E+000	9	...........
	122	1.64	9.04921E-001	9.11627E-005	0.00000E+000	8.24950E-005	5.39641E-002	9.05073E-001	3.57254E+000	9	...........
	123	1.65333	9.06763E-001	9.11064E-005	0.00000E+000	8.26119E-005	5.39641E-002	9.06939E-001	3.57130E+000	9	...........
	124	1.66667	9.08611E-001	9.10001E-005	0.00000E+000	8.26837E-005	5.39641E-002	9.08758E-001	3.57130E+000	9	...........
	125	1.68	9.10399E-001	9.13648E-005	0.00000E+000	8.31784E-005	5.39641E-002	9.10548E-001	3.57130E+000	9	...........
	126	1.69333	9.12191E-001	9.11043E-005	0.00000E+000	8.31045E-005	5.39641E-002	9.12343E-001	3.57130E+000	9	...........
	127	1.70667	9.13954E-001	9.11939E-005	0.00000E+000	8.33471E-005	5.39641E-002	9.14103E-001	3.57130E+000	9	...........
	128	1.72	9.15730E-001	9.12929E-005	0.00000E+000	8.35996E-005	5.39641E-002	9.15868E-001	3.57130E+000	9	...........
	129	1.73333	9.17433E-001	9.12387E-005	0.00000E+000	8.37054E-005	5.39641E-002	9.17599E-001	3.57130E+000	9	...........
	130	1.74667	9.19156E-001	9.11054E-005	0.00000E+000	8.37401E-005	5.39641E-002	9.19318E-001	3.57130E+000	9	...........
	131	1.76	9.20933E-001	9.12804E-005	0.00000E+000	8.40631E-005	5.39641E-002	9.21057E-001	3.57130E+000	9	...........
	132	1.77333	9.22645E-001	9.12085E-005	0.00000E+000	8.41531E-005	5.39641E-002	9.22760E-001	3.57130E+000	9	...........
	133	1.78667	9.24314E-001	9.11543E-005	0.00000E+000	8.42553E-005	5.39641E-002	9.24430E-001	3.57130E+000	9	...........
	134	1.8	9.25965E-001	9.12335E-005	0.00000E+000	8.44790E-005	5.39641E-002	9.26128E-001	3.57130E+000	9	...........
	135	1.81333	9.27646E-001	9.12273E-005	0.00000E+000	8.46266E-005	5.39641E-002	9.27765E-001	3.57130E+000	9	...........
	136	1.82667	9.29259E-001	9.14450E-005	0.00000E+000	8.49761E-005	5.39641E-002	9.29384E-001	3.57130E+000	9	...........
	137	1.84	9.30854E-001	9.14252E-005	0.00000E+000	8.51036E-005	5.39641E-002	9.30957E-001	3.57130E+000	9	...........
	138	1.85333	9.32441E-001	9.10189E-005	0.00000E+000	8.48698E-005	5.39641E-002	9.32569E-001	3.57130E+000	9	...........
	139	1.86667	9.34038E-001	9.11783E-005	0.00000E+000	8.51640E-005	5.39641E-002	9.34147E-001	3.57130E+000	9	...........
	140	1.88	9.35580E-001	9.10918E-005	0.00000E+000	8.52237E-005	5.39641E-002	9.35725E-001	3.57130E+000	9	...........
	141	1.89333	9.37150E-001	9.11512E-005	0.00000E+000	8.54224E-005	5.39641E-002	9.37286E-001	3.57130E+000	9	...........
	142	1.90667	9.38692E-001	9.11377E-005	0.00000E+000	8.55502E-005	5.39641E-002	9.38839E-001	3.57130E+000	9	...........
	143	1.92	9.40229E-001	9.11689E-005	0.00000E+000	8.57197E-005	5.39641E-002	9.40391E-001	3.57130E+000	9	...........
	144	1.93333	9.41742E-001	9.11710E-005	0.00000E+000	8.58596E-005	5.39641E-002	9.41889E-001	3.57130E+000	9	...........
	145	1.94667	9.43240E-001	9.11991E-005	0.00000E+000	8.60227E-005	5.39641E-002	9.43388E-001	3.57130E+000	9	...........
	146	1.96	9.44727E-001	9.14690E-005	0.00000E+000	8.64132E-005	5.39641E-002	9.44891E-001	3.57130E+000	9	...........
	147	1.97333	9.46190E-001	9.11168E-005	0.00000E+000	8.62138E-005	5.39641E-002	9.46385E-001	3.57130E+000	9	...........
	148	1.98667	9.47724E-001	9.13669E-005	0.00000E+000	8.65906E-005	5.39641E-002	9.47849E-001	3.57130E+000	9	...........
	149	2	9.49145E-001	9.15305E-005	0.00000E+000	8.68756E-005	5.39641E-002	9.49276E-001	3.57130E+000	9	...........
	150	2.01333	9.50583E-001	9.12116E-005	0.00000E+000	8.67042E-005	5.39641E-002	9.50719E-001	3.57130E+000	9	...........
	151	2.02667	9.51961E-001	9.11252E-005	0.00000E+000	8.67476E-005	5.39641E-002	9.52125E-001	3.57130E+000	9	...........
	152	2.04	9.53388E-001	9.09199E-005	0.00000E+000	8.66819E-005	5.39641E-002	9.53526E-001	3.57130E+000	9	...........
	153	2.05333	9.54766E-001	9.11241E-005	0.00000E+000	8.70022E-005	5.39641E-002	9.54909E-001	3.57130E+000	9	...........
	154	2.06667	9.56134E-001	9.13012E-005	0.00000E+000	8.72962E-005	5.39641E-002	9.56285E-001	3.57130E+000	9	...........
	155	2.08	9.57533E-001	9.12210E-005	0.00000E+000	8.73471E-005	5.39641E-002	9.57660E-001	3.57130E+000	9	...........
	156	2.09333	9.58861E-001	9.11095E-005	0.00000E+000	8.73614E-005	5.39641E-002	9.59018E-001	3.57130E+000	9	...........
	157	2.10667	9.60220E-001	9.12450E-005	0.00000E+000	8.76153E-005	5.39641E-002	9.60358E-001	3.57130E+000	9	...........
	158	2.12	9.61557E-001	9.12981E-005	0.00000E+000	8.77883E-005	5.39641E-002	9.61679E-001	3.57130E+000	9	...........
	159	2.13333	9.62866E-001	9.12710E-005	0.00000E+000	8.78818E-005	5.39641E-002	9.62995E-001	3.57130E+000	9	...........
	160	2.14667	9.64167E-001	9.14315E-005	0.00000E+000	8.81552E-005	5.39641E-002	9.64325E-001	3.57130E+000	9	...........
	161	2.16	9.65446E-001	9.12439E-005	0.00000E+000	8.80911E-005	5.39641E-002	9.65613E-001	3.57130E+000	9	...........
	162	2.17333	9.66756E-001	9.11272E-005	0.00000E+000	8.80978E-005	5.39641E-002	9.66920E-001	3.57130E+000	9	...........
	163	2.18667	9.68043E-001	9.12960E-005	0.00000E+000	8.83785E-005	5.39641E-002	9.68188E-001	3.57130E+000	9	...........
	164	2.2	9.69305E-001	9.11793E-005	0.00000E+000	8.83806E-005	5.39641E-002	9.69461E-001	3.57130E+000	9	...........
	165	2.21333	9.70551E-001	9.11752E-005	0.00000E+000	8.84902E-005	5.39641E-002	9.70745E-001	3.57130E+000	9	...........
	166	2.22667	9.71809E-001	9.11908E-005	0.00000E+000	8.86201E-005	5.39641E-002	9.72020E-001	3.57130E+000	9	...........
	167	2.24	9.73112E-001	9.12898E-005	0.00000E+000	8.88352E-005	5.39641E-002	9.73246E-001	3.57130E+000	9	...........
	168	2.25333	9.74340E-001	9.11887E-005	0.00000E+000	8.88488E-005	5.39641E-002	9.74464E-001	3.57130E+000	9	...........
	169	2.26667	9.75534E-001	9.13940E-005	0.00000E+000	8.91580E-005	5.39641E-002	9.75684E-001	3.57130E+000	9	...........
	170	2.28	9.76737E-001	9.12127E-005	0.00000E+000	8.90908E-005	5.39641E-002	9.76893E-001	3.57130E+000	9	...........
	171	2.29333	9.77929E-001	9.12596E-005	0.00000E+000	8.92454E-005	5.39641E-002	9.78104E-001	3.57130E+000	9	...........
	172	2.30667	9.79143E-001	9.12127E-005	0.00000E+000	8.93103E-005	5.39641E-002	9.79289E-001	3.57130E+000	9	...........
	173	2.32	9.80316E-001	9.10439E-005	0.00000E+000	8.92518E-005	5.39641E-002	9.80453E-001	3.57130E+000	9	...........
	174	2.33333	9.81455E-001	9.12721E-005	0.00000E+000	8.95795E-005	5.39641E-002	9.81599E-001	3.57130E+000	9	...........
	175	2.34667	9.82615E-001	9.11679E-005	0.00000E+000	8.95829E-005	5.39641E-002	9.82769E-001	3.57130E+000	9	...........
	176	2.36	9.83781E-001	9.13867E-005	0.00000E+000	8.99045E-005	5.39641E-002	9.83894E-001	3.57130E+000	9	...........
	177	2.37333	9.84914E-001	9.11762E-005	0.00000E+000	8.98007E-005	5.39641E-002	9.85069E-001	3.57130E+000	9	...........
	178	2.38667	9.86033E-001	9.13825E-005	0.00000E+000	9.01062E-005	5.39641E-002	9.86182E-001	3.57130E+000	9	...........
	179	2.4	9.87133E-001	9.09084E-005	0.00000E+000	8.97387E-005	5.39641E-002	9.87297E-001	3.57130E+000	9	...........
	180	2.41333	9.88258E-001	9.11325E-005	0.00000E+000	9.00624E-005	5.39641E-002	9.88432E-001	3.57130E+000	9	...........
	181	2.42667	9.89357E-001	9.13825E-005	0.00000E+000	9.04099E-005	5.39641E-002	9.89535E-001	3.57130E+000	9	...........
	182	2.44	9.90455E-001	9.12283E-005	0.00000E+000	9.03575E-005	5.39641E-002	9.90620E-001	3.57130E+000	9	...........
	183	2.45333	9.91528E-001	9.14481E-005	0.00000E+000	9.06734E-005	5.39641E-002	9.91685E-001	3.57130E+000	9	...........
	184	2.46667	9.92567E-001	9.13012E-005	0.00000E+000	9.06226E-005	5.39641E-002	9.92762E-001	3.57130E+000	9	...........
	185	2.48	9.93665E-001	9.13710E-005	0.00000E+000	9.07922E-005	5.39641E-002	9.93835E-001	3.57130E+000	9	...........
	186	2.49333	9.94715E-001	9.13367E-005	0.00000E+000	9.08540E-005	5.39641E-002	9.94880E-001	3.57130E+000	9	...........
	187	2.50667	9.95773E-001	9.11648E-005	0.00000E+000	9.07794E-005	5.39641E-002	9.95936E-001	3.57130E+000	9	...........
	188	2.52	9.96804E-001	9.12481E-005	0.00000E+000	9.09564E-005	5.39641E-002	9.97000E-001	3.57130E+000	9	...........
	189	2.53333	9.97869E-001	9.10543E-005	0.00000E+000	9.08603E-005	5.39641E-002	9.98019E-001	3.57130E+000	9	...........
	190	2.54667	9.98879E-001	9.12106E-005	0.00000E+000	9.11084E-005	5.39641E-002	9.99075E-001	3.57130E+000	9	...........
	191	2.55667	9.99773E-001	9.11474E-005	0.00000E+000	9.11267E-005	5.39641E-002	9.99941E-001	3.57130E+000	9	...........
STARTTIMEOFFSET	QUANT	324.2183	Start Time Offset (s)
