EXPLAIN
TAG	PWR800_CHARGE
TITLE	LABEL	PWR Cyclic Charge Discharge (Cell) - Charge Step	Test &Identifier
DATE	LABEL	10-7-2017	Date
TIME	LABEL	16:02:34	Time
NOTES	NOTES	3	&Notes...
	supercap test cell
	0.9mg
	6M KOH
PSTAT	PSTAT	IFC5000-01520	Potentiostat
CAPACITY	QUANT	1.00000E-003	Capacity (A-hr)
CELLTYPE	SELECTOR	1	&Cell Type
WORKINGCONNECTION	SELECTOR	0	&Working Lead
MAXCHARGETIME	VARIABLEANDUNITS	1.00000E+002	s	1.00000E+002	second(s)	Max &Charge Time
CHARGECURRENT	QUANT	9.00000E-005	&Charge Current (A) 
VOLTAGEFINISH	TWOPARAM	F	1.00000E-003	3.60000E+003	&Voltage Finish	 I (A) < 	Max Time(s)
SAMPLETIME	QUANT	1.00000E-002	Sa&mple Period (s)
CHARGESTOPAT1	MULTIPARAM	4	1.00000E+000	Charge Stop At &1	Voltage > Limit	V
CHARGESTOPAT2	MULTIPARAM	0	0.00000E+000	Charge Stop At &2	None	N/A
AESBHCSELECTOR	TOGGLE	F	Save Both Half Cells
IRCOMP	TOGGLE	F	IR &Measure
EOC	QUANT	0	Open Circuit (V)
SEQUENCER	TOGGLE	TRUE	Run as Sequence
PSTATMODEL	IQUANT	53	Pstat Model
PSTATSECTION	LABEL	IFC5000-01520	Pstat Section
PSTATSERIALNO	LABEL	01520	Pstat Serial Number
CTRLMODE	IQUANT	0	Control Mode
ELECTROMETER	IQUANT	1	RE=0 or CS=1
IESTAB	IQUANT	0	I/E Stability
CASPEED	IQUANT	4	Control Amp Speed
CONVENTION	IQUANT	1	Current Convention
ICHRANGE	IQUANT	2	Ich Range
ICHRANGEMODE	TOGGLE	T	Ich Auto Range
ICHOFFSETENABLE	TOGGLE	F	Ich Offset Enable
ICHOFFSET	QUANT	0	Ich Offset (V)
ICHFILTER	IQUANT	1	Ich Filter
VCHRANGE	IQUANT	2	Vch Range
VCHRANGEMODE	TOGGLE	T	Vch Auto Range
VCHOFFSETENABLE	TOGGLE	F	Vch Offset Enable
VCHOFFSET	QUANT	0	Vch Offset (V)
VCHFILTER	IQUANT	1	Vch Filter
IERANGELOWERLIMIT	IQUANT	9	I/E Range Lower Limit
IERANGEMODE	TOGGLE	F	I/E AutoRange
IERANGE	IQUANT	9	I/E Range
ACHSELECT	IQUANT	1	Ach Select
ACHRANGE	IQUANT	2	Ach Range
ACHOFFSETENABLE	TOGGLE	F	Ach Offset Enable
ACHOFFSET	QUANT	0	Ach Offset (V)
ACHFILTER	IQUANT	1	Ach Filter
CABLEID	IQUANT	14	Cable ID
DCCALDATE	LABEL	5-7-2017	DC Calibration Date
ACCALDATE	LABEL	12/3/2015	AC Calibration Date
FRAMEWORKVERSION	QUANT	7.01	Framework Version
INSTRUMENTVERSION	LABEL	4.00	Instrument Version
CURVE	TABLE	164
	Pt	T	Vf	Im	Vu	Pwr	Sig	Ach	Temp	IERange	Over
	#	s	V	A	V	W	V	V	deg C	#	bits
	0	0.013333	2.82479E-001	9.09387E-005	0.00000E+000	2.56883E-005	5.39641E-002	2.82521E-001	3.57310E+000	9	...........
	1	0.026667	3.01871E-001	9.11022E-005	0.00000E+000	2.75011E-005	5.39641E-002	3.01908E-001	3.57310E+000	9	...........
	2	0.04	3.20003E-001	9.08855E-005	0.00000E+000	2.90837E-005	5.39641E-002	3.20047E-001	3.57310E+000	9	...........
	3	0.053333	3.37039E-001	9.11366E-005	0.00000E+000	3.07166E-005	5.39641E-002	3.37086E-001	3.57310E+000	9	...........
	4	0.066667	3.53126E-001	9.07970E-005	0.00000E+000	3.20628E-005	5.39641E-002	3.53171E-001	3.57310E+000	9	...........
	5	0.08	3.68362E-001	9.10845E-005	0.00000E+000	3.35521E-005	5.39641E-002	3.68405E-001	3.57310E+000	9	...........
	6	0.093333	3.82845E-001	9.11054E-005	0.00000E+000	3.48793E-005	5.39641E-002	3.82893E-001	3.57310E+000	9	...........
	7	0.106667	3.96623E-001	9.10606E-005	0.00000E+000	3.61167E-005	5.39641E-002	3.96672E-001	3.57310E+000	9	...........
	8	0.12	4.09765E-001	9.09814E-005	0.00000E+000	3.72809E-005	5.39641E-002	4.09817E-001	3.57310E+000	9	...........
	9	0.133333	4.22312E-001	9.11314E-005	0.00000E+000	3.84859E-005	5.39641E-002	4.22370E-001	3.57310E+000	9	...........
	10	0.146667	4.34318E-001	9.11116E-005	0.00000E+000	3.95714E-005	5.39641E-002	4.34382E-001	3.57310E+000	9	...........
	11	0.16	4.45835E-001	9.10762E-005	0.00000E+000	4.06049E-005	5.39641E-002	4.45894E-001	3.57310E+000	9	...........
	12	0.173333	4.56900E-001	9.08824E-005	0.00000E+000	4.15242E-005	5.39641E-002	4.56957E-001	3.57310E+000	9	...........
	13	0.186667	4.67544E-001	9.08939E-005	0.00000E+000	4.24969E-005	5.39641E-002	4.67605E-001	3.57310E+000	9	...........
	14	0.2	4.77802E-001	9.08887E-005	0.00000E+000	4.34268E-005	5.39641E-002	4.77862E-001	3.57310E+000	9	...........
	15	0.213333	4.87703E-001	9.11866E-005	0.00000E+000	4.44719E-005	5.39641E-002	4.87767E-001	3.57310E+000	9	...........
	16	0.226667	4.97262E-001	9.08543E-005	0.00000E+000	4.51784E-005	5.39641E-002	4.97333E-001	3.57310E+000	9	...........
	17	0.24	5.06530E-001	9.07813E-005	0.00000E+000	4.59835E-005	5.39641E-002	5.06603E-001	3.57310E+000	9	...........
	18	0.253333	5.15507E-001	9.14700E-005	0.00000E+000	4.71535E-005	5.39641E-002	5.15584E-001	3.57310E+000	9	...........
	19	0.266667	5.24206E-001	9.10668E-005	0.00000E+000	4.77378E-005	5.39641E-002	5.24285E-001	3.57310E+000	9	...........
	20	0.28	5.32592E-001	9.11158E-005	0.00000E+000	4.85276E-005	5.39641E-002	5.32681E-001	3.57310E+000	9	...........
	21	0.293333	5.40741E-001	9.07928E-005	0.00000E+000	4.90954E-005	5.39641E-002	5.40827E-001	3.57310E+000	9	...........
	22	0.306667	5.48694E-001	9.09345E-005	0.00000E+000	4.98952E-005	5.39641E-002	5.48782E-001	3.57310E+000	9	...........
	23	0.32	5.56393E-001	9.07376E-005	0.00000E+000	5.04858E-005	5.39641E-002	5.56510E-001	3.57310E+000	9	...........
	24	0.333333	5.63952E-001	9.11033E-005	0.00000E+000	5.13779E-005	5.39641E-002	5.64068E-001	3.57310E+000	9	...........
	25	0.346667	5.71316E-001	9.08699E-005	0.00000E+000	5.19155E-005	5.39641E-002	5.71400E-001	3.57310E+000	9	...........
	26	0.36	5.78438E-001	9.11085E-005	0.00000E+000	5.27006E-005	5.39641E-002	5.78555E-001	3.57310E+000	9	...........
	27	0.373333	5.85423E-001	9.09908E-005	0.00000E+000	5.32681E-005	5.39641E-002	5.85553E-001	3.57310E+000	9	...........
	28	0.386667	5.92263E-001	9.09324E-005	0.00000E+000	5.38559E-005	5.39641E-002	5.92368E-001	3.57310E+000	9	...........
	29	0.4	5.98920E-001	9.09637E-005	0.00000E+000	5.44800E-005	5.39641E-002	5.99028E-001	3.57310E+000	9	...........
	30	0.413333	6.05414E-001	9.09084E-005	0.00000E+000	5.50372E-005	5.39641E-002	6.05546E-001	3.57310E+000	9	...........
	31	0.426667	6.11793E-001	9.07980E-005	0.00000E+000	5.55495E-005	5.39641E-002	6.11934E-001	3.57310E+000	9	...........
	32	0.44	6.18081E-001	9.09845E-005	0.00000E+000	5.62358E-005	5.39641E-002	6.18184E-001	3.57310E+000	9	...........
	33	0.453333	6.24153E-001	9.11929E-005	0.00000E+000	5.69183E-005	5.39641E-002	6.24252E-001	3.57310E+000	9	...........
	34	0.466667	6.30147E-001	9.08480E-005	0.00000E+000	5.72476E-005	5.39641E-002	6.30236E-001	3.57310E+000	9	...........
	35	0.48	6.35951E-001	9.07490E-005	0.00000E+000	5.77120E-005	5.39641E-002	6.36057E-001	3.57310E+000	9	...........
	36	0.493333	6.41719E-001	9.11231E-005	0.00000E+000	5.84754E-005	5.39641E-002	6.41807E-001	3.57310E+000	9	...........
	37	0.506667	6.47354E-001	9.10481E-005	0.00000E+000	5.89404E-005	5.39641E-002	6.47423E-001	3.57310E+000	9	...........
	38	0.52	6.52879E-001	9.12867E-005	0.00000E+000	5.95991E-005	5.39641E-002	6.52958E-001	3.57310E+000	9	...........
	39	0.533333	6.58291E-001	9.08803E-005	0.00000E+000	5.98257E-005	5.39641E-002	6.58388E-001	3.57347E+000	9	...........
	40	0.546667	6.63607E-001	9.12241E-005	0.00000E+000	6.05369E-005	5.39641E-002	6.63767E-001	3.57610E+000	9	...........
	41	0.56	6.68886E-001	9.10439E-005	0.00000E+000	6.08980E-005	5.39641E-002	6.69012E-001	3.57610E+000	9	...........
	42	0.573333	6.74044E-001	9.08366E-005	0.00000E+000	6.12279E-005	5.39641E-002	6.74147E-001	3.57610E+000	9	...........
	43	0.586667	6.79091E-001	9.09272E-005	0.00000E+000	6.17479E-005	5.39641E-002	6.79232E-001	3.57610E+000	9	...........
	44	0.6	6.84056E-001	9.12137E-005	0.00000E+000	6.23952E-005	5.39641E-002	6.84190E-001	3.57610E+000	9	...........
	45	0.613333	6.88967E-001	9.12606E-005	0.00000E+000	6.28756E-005	5.39641E-002	6.89085E-001	3.57610E+000	9	...........
	46	0.626667	6.93784E-001	9.10960E-005	0.00000E+000	6.32009E-005	5.39641E-002	6.93909E-001	3.57610E+000	9	...........
	47	0.64	6.98511E-001	9.08907E-005	0.00000E+000	6.34882E-005	5.39641E-002	6.98655E-001	3.57610E+000	9	...........
	48	0.653333	7.03204E-001	9.09981E-005	0.00000E+000	6.39902E-005	5.39641E-002	7.03310E-001	3.57610E+000	9	...........
	49	0.666667	7.07793E-001	9.10595E-005	0.00000E+000	6.44513E-005	5.39641E-002	7.07913E-001	3.57610E+000	9	...........
	50	0.68	7.12346E-001	9.08574E-005	0.00000E+000	6.47219E-005	5.39641E-002	7.12438E-001	3.57610E+000	9	...........
	51	0.693333	7.16846E-001	9.09314E-005	0.00000E+000	6.51838E-005	5.39641E-002	7.16951E-001	3.57610E+000	9	...........
	52	0.706667	7.21287E-001	9.10387E-005	0.00000E+000	6.56650E-005	5.39641E-002	7.21383E-001	3.57610E+000	9	...........
	53	0.72	7.25635E-001	9.11408E-005	0.00000E+000	6.61349E-005	5.39641E-002	7.25738E-001	3.57610E+000	9	...........
	54	0.733333	7.29909E-001	9.09981E-005	0.00000E+000	6.64203E-005	5.39641E-002	7.30049E-001	3.57610E+000	9	...........
	55	0.746667	7.34150E-001	9.11877E-005	0.00000E+000	6.69455E-005	5.39641E-002	7.34294E-001	3.57610E+000	9	...........
	56	0.76	7.38324E-001	9.09783E-005	0.00000E+000	6.71715E-005	5.39641E-002	7.38483E-001	3.57610E+000	9	...........
	57	0.773333	7.42501E-001	9.07490E-005	0.00000E+000	6.73812E-005	5.39641E-002	7.42628E-001	3.57610E+000	9	...........
	58	0.786667	7.46592E-001	9.11710E-005	0.00000E+000	6.80676E-005	5.39641E-002	7.46679E-001	3.57610E+000	9	...........
	59	0.8	7.50601E-001	9.11575E-005	0.00000E+000	6.84229E-005	5.39641E-002	7.50716E-001	3.57610E+000	9	...........
	60	0.813333	7.54587E-001	9.09105E-005	0.00000E+000	6.85999E-005	5.39641E-002	7.54685E-001	3.57610E+000	9	...........
	61	0.826667	7.58519E-001	9.09251E-005	0.00000E+000	6.89685E-005	5.39641E-002	7.58570E-001	3.57610E+000	9	...........
	62	0.84	7.62387E-001	9.08751E-005	0.00000E+000	6.92820E-005	5.39641E-002	7.62474E-001	3.57610E+000	9	...........
	63	0.853333	7.66226E-001	9.08928E-005	0.00000E+000	6.96444E-005	5.39641E-002	7.66334E-001	3.57610E+000	9	...........
	64	0.866667	7.70055E-001	9.10585E-005	0.00000E+000	7.01200E-005	5.39641E-002	7.70152E-001	3.57610E+000	9	...........
	65	0.88	7.73797E-001	9.08668E-005	0.00000E+000	7.03125E-005	5.39641E-002	7.73887E-001	3.57610E+000	9	...........
	66	0.893333	7.77469E-001	9.09970E-005	0.00000E+000	7.07473E-005	5.39641E-002	7.77584E-001	3.57610E+000	9	...........
	67	0.906667	7.81145E-001	9.11137E-005	0.00000E+000	7.11730E-005	5.39641E-002	7.81256E-001	3.57610E+000	9	...........
	68	0.92	7.84748E-001	9.10397E-005	0.00000E+000	7.14432E-005	5.39641E-002	7.84859E-001	3.57610E+000	9	...........
	69	0.933333	7.88329E-001	9.11460E-005	0.00000E+000	7.18530E-005	5.39641E-002	7.88451E-001	3.57610E+000	9	...........
	70	0.946667	7.91880E-001	9.09116E-005	0.00000E+000	7.19911E-005	5.39641E-002	7.92009E-001	3.57610E+000	9	...........
	71	0.96	7.95412E-001	9.08887E-005	0.00000E+000	7.22939E-005	5.39641E-002	7.95515E-001	3.57610E+000	9	...........
	72	0.97333	7.98874E-001	9.10428E-005	0.00000E+000	7.27318E-005	5.39641E-002	7.98982E-001	3.57610E+000	9	...........
	73	0.98667	8.02310E-001	9.10428E-005	0.00000E+000	7.30446E-005	5.39641E-002	8.02416E-001	3.57610E+000	9	...........
	74	1	8.05677E-001	9.13023E-005	0.00000E+000	7.35601E-005	5.39641E-002	8.05807E-001	3.57610E+000	9	...........
	75	1.01333	8.09018E-001	9.09418E-005	0.00000E+000	7.35735E-005	5.39641E-002	8.09150E-001	3.57610E+000	9	...........
	76	1.02667	8.12300E-001	9.10751E-005	0.00000E+000	7.39804E-005	5.39641E-002	8.12458E-001	3.57610E+000	9	...........
	77	1.04	8.15570E-001	9.09616E-005	0.00000E+000	7.41856E-005	5.39641E-002	8.15733E-001	3.57610E+000	9	...........
	78	1.05333	8.18850E-001	9.12491E-005	0.00000E+000	7.47194E-005	5.39641E-002	8.18987E-001	3.57610E+000	9	...........
	79	1.06667	8.22056E-001	9.09012E-005	0.00000E+000	7.47259E-005	5.39641E-002	8.22210E-001	3.57610E+000	9	...........
	80	1.08	8.25249E-001	9.10553E-005	0.00000E+000	7.51433E-005	5.39641E-002	8.25405E-001	3.57610E+000	9	...........
	81	1.09333	8.28391E-001	9.11845E-005	0.00000E+000	7.55365E-005	5.39641E-002	8.28545E-001	3.57610E+000	9	...........
	82	1.10667	8.31502E-001	9.08959E-005	0.00000E+000	7.55802E-005	5.39641E-002	8.31683E-001	3.57610E+000	9	...........
	83	1.12	8.34609E-001	9.10022E-005	0.00000E+000	7.59512E-005	5.39641E-002	8.34788E-001	3.57610E+000	9	...........
	84	1.13333	8.37685E-001	9.11241E-005	0.00000E+000	7.63333E-005	5.39641E-002	8.37884E-001	3.57610E+000	9	...........
	85	1.14667	8.40731E-001	9.11814E-005	0.00000E+000	7.66590E-005	5.39641E-002	8.40897E-001	3.57610E+000	9	...........
	86	1.16	8.43733E-001	9.08720E-005	0.00000E+000	7.66717E-005	5.39641E-002	8.43911E-001	3.57610E+000	9	...........
	87	1.17333	8.46717E-001	9.09209E-005	0.00000E+000	7.69843E-005	5.39641E-002	8.46877E-001	3.57610E+000	9	...........
	88	1.18667	8.49624E-001	9.09512E-005	0.00000E+000	7.72743E-005	5.39641E-002	8.49803E-001	3.57610E+000	9	...........
	89	1.2	8.52498E-001	9.10147E-005	0.00000E+000	7.75898E-005	5.39641E-002	8.52651E-001	3.57610E+000	9	...........
	90	1.21333	8.55345E-001	9.09949E-005	0.00000E+000	7.78321E-005	5.39641E-002	8.55509E-001	3.57610E+000	9	...........
	91	1.22667	8.58206E-001	9.11752E-005	0.00000E+000	7.82471E-005	5.39641E-002	8.58349E-001	3.57610E+000	9	...........
	92	1.24	8.61012E-001	9.10606E-005	0.00000E+000	7.84042E-005	5.39641E-002	8.61157E-001	3.57610E+000	9	...........
	93	1.25333	8.63792E-001	9.10564E-005	0.00000E+000	7.86538E-005	5.39641E-002	8.63933E-001	3.57610E+000	9	...........
	94	1.26667	8.66529E-001	9.12929E-005	0.00000E+000	7.91080E-005	5.39641E-002	8.66708E-001	3.57610E+000	9	...........
	95	1.28	8.69313E-001	9.10345E-005	0.00000E+000	7.91375E-005	5.39641E-002	8.69467E-001	3.57610E+000	9	...........
	96	1.29333	8.72001E-001	9.09512E-005	0.00000E+000	7.93095E-005	5.39641E-002	8.72187E-001	3.57610E+000	9	...........
	97	1.30667	8.74680E-001	9.12762E-005	0.00000E+000	7.98375E-005	5.39641E-002	8.74873E-001	3.57610E+000	9	...........
	98	1.32	8.77316E-001	9.09689E-005	0.00000E+000	7.98084E-005	5.39641E-002	8.77504E-001	3.57610E+000	9	...........
	99	1.33333	8.79937E-001	9.11720E-005	0.00000E+000	8.02256E-005	5.39641E-002	8.80118E-001	3.57610E+000	9	...........
	100	1.34667	8.82518E-001	9.11825E-005	0.00000E+000	8.04701E-005	5.39641E-002	8.82729E-001	3.57610E+000	9	...........
	101	1.36	8.85056E-001	9.08157E-005	0.00000E+000	8.03770E-005	5.39641E-002	8.85274E-001	3.57610E+000	9	...........
	102	1.37333	8.87572E-001	9.09460E-005	0.00000E+000	8.07211E-005	5.39641E-002	8.87802E-001	3.57610E+000	9	...........
	103	1.38667	8.90058E-001	9.11575E-005	0.00000E+000	8.11354E-005	5.39641E-002	8.90273E-001	3.57610E+000	9	...........
	104	1.4	8.92520E-001	9.10439E-005	0.00000E+000	8.12585E-005	5.39641E-002	8.92730E-001	3.57610E+000	9	...........
	105	1.41333	8.94962E-001	9.11679E-005	0.00000E+000	8.15918E-005	5.39641E-002	8.95213E-001	3.57610E+000	9	...........
	106	1.42667	8.97397E-001	9.07834E-005	0.00000E+000	8.14688E-005	5.39641E-002	8.97628E-001	3.57610E+000	9	...........
	107	1.44	8.99795E-001	9.10616E-005	0.00000E+000	8.19368E-005	5.39641E-002	9.00002E-001	3.57610E+000	9	...........
	108	1.45333	9.02169E-001	9.11648E-005	0.00000E+000	8.22460E-005	5.39641E-002	9.02398E-001	3.57610E+000	9	...........
	109	1.46667	9.04502E-001	9.11929E-005	0.00000E+000	8.24841E-005	5.39641E-002	9.04728E-001	3.57610E+000	9	...........
	110	1.48	9.06827E-001	9.10887E-005	0.00000E+000	8.26016E-005	5.39641E-002	9.07048E-001	3.57610E+000	9	...........
	111	1.49333	9.09139E-001	9.10043E-005	0.00000E+000	8.27355E-005	5.39641E-002	9.09340E-001	3.57610E+000	9	...........
	112	1.50667	9.11407E-001	9.08824E-005	0.00000E+000	8.28309E-005	5.39641E-002	9.11612E-001	3.57610E+000	9	...........
	113	1.52	9.13664E-001	9.08084E-005	0.00000E+000	8.29684E-005	5.39641E-002	9.13892E-001	3.57610E+000	9	...........
	114	1.53333	9.15901E-001	9.11845E-005	0.00000E+000	8.35160E-005	5.39641E-002	9.16132E-001	3.57567E+000	9	...........
	115	1.54667	9.18081E-001	9.11408E-005	0.00000E+000	8.36746E-005	5.39641E-002	9.18303E-001	3.57270E+000	9	...........
	116	1.56	9.20298E-001	9.09053E-005	0.00000E+000	8.36600E-005	5.39641E-002	9.20495E-001	3.57270E+000	9	...........
	117	1.57333	9.22492E-001	9.08699E-005	0.00000E+000	8.38268E-005	5.39641E-002	9.22645E-001	3.57270E+000	9	...........
	118	1.58667	9.24622E-001	9.10053E-005	0.00000E+000	8.41455E-005	5.39641E-002	9.24799E-001	3.57270E+000	9	...........
	119	1.6	9.26765E-001	9.09376E-005	0.00000E+000	8.42778E-005	5.39641E-002	9.26933E-001	3.57270E+000	9	...........
	120	1.61333	9.28868E-001	9.10804E-005	0.00000E+000	8.46017E-005	5.39641E-002	9.29023E-001	3.57270E+000	9	...........
	121	1.62667	9.30933E-001	9.08626E-005	0.00000E+000	8.45870E-005	5.39641E-002	9.31097E-001	3.57270E+000	9	...........
	122	1.64	9.32991E-001	9.09939E-005	0.00000E+000	8.48965E-005	5.39641E-002	9.33139E-001	3.57270E+000	9	...........
	123	1.65333	9.35024E-001	9.10189E-005	0.00000E+000	8.51049E-005	5.39641E-002	9.35169E-001	3.57270E+000	9	...........
	124	1.66667	9.36995E-001	9.08001E-005	0.00000E+000	8.50793E-005	5.39641E-002	9.37162E-001	3.57270E+000	9	...........
	125	1.68	9.38941E-001	9.09480E-005	0.00000E+000	8.53948E-005	5.39641E-002	9.39138E-001	3.57270E+000	9	...........
	126	1.69333	9.40912E-001	9.11283E-005	0.00000E+000	8.57437E-005	5.39641E-002	9.41091E-001	3.57270E+000	9	...........
	127	1.70667	9.42839E-001	9.10991E-005	0.00000E+000	8.58918E-005	5.39641E-002	9.43033E-001	3.57270E+000	9	...........
	128	1.72	9.44773E-001	9.10908E-005	0.00000E+000	8.60601E-005	5.39641E-002	9.44955E-001	3.57270E+000	9	...........
	129	1.73333	9.46683E-001	9.07178E-005	0.00000E+000	8.58809E-005	5.39641E-002	9.46874E-001	3.57270E+000	9	...........
	130	1.74667	9.48606E-001	9.11085E-005	0.00000E+000	8.64260E-005	5.39641E-002	9.48780E-001	3.57270E+000	9	...........
	131	1.76	9.50480E-001	9.10428E-005	0.00000E+000	8.65344E-005	5.39641E-002	9.50633E-001	3.57270E+000	9	...........
	132	1.77333	9.52301E-001	9.10553E-005	0.00000E+000	8.67121E-005	5.39641E-002	9.52476E-001	3.57270E+000	9	...........
	133	1.78667	9.54133E-001	9.09866E-005	0.00000E+000	8.68133E-005	5.39641E-002	9.54291E-001	3.57270E+000	9	...........
	134	1.8	9.55888E-001	9.11085E-005	0.00000E+000	8.70896E-005	5.39641E-002	9.56064E-001	3.57270E+000	9	...........
	135	1.81333	9.57647E-001	9.08126E-005	0.00000E+000	8.69664E-005	5.39641E-002	9.57834E-001	3.57270E+000	9	...........
	136	1.82667	9.59427E-001	9.09345E-005	0.00000E+000	8.72450E-005	5.39641E-002	9.59599E-001	3.57270E+000	9	...........
	137	1.84	9.61173E-001	9.08709E-005	0.00000E+000	8.73427E-005	5.39641E-002	9.61353E-001	3.57270E+000	9	...........
	138	1.85333	9.62886E-001	9.10866E-005	0.00000E+000	8.77060E-005	5.39641E-002	9.63098E-001	3.57270E+000	9	...........
	139	1.86667	9.64599E-001	9.11314E-005	0.00000E+000	8.79053E-005	5.39641E-002	9.64789E-001	3.57270E+000	9	...........
	140	1.88	9.66262E-001	9.10178E-005	0.00000E+000	8.79471E-005	5.39641E-002	9.66471E-001	3.57270E+000	9	...........
	141	1.89333	9.67925E-001	9.12783E-005	0.00000E+000	8.83506E-005	5.39641E-002	9.68144E-001	3.57270E+000	9	...........
	142	1.90667	9.69576E-001	9.09689E-005	0.00000E+000	8.82012E-005	5.39641E-002	9.69805E-001	3.57270E+000	9	...........
	143	1.92	9.71218E-001	9.08907E-005	0.00000E+000	8.82747E-005	5.39641E-002	9.71454E-001	3.57270E+000	9	...........
	144	1.93333	9.72877E-001	9.11387E-005	0.00000E+000	8.86668E-005	5.39641E-002	9.73085E-001	3.57270E+000	9	...........
	145	1.94667	9.74482E-001	9.10689E-005	0.00000E+000	8.87450E-005	5.39641E-002	9.74675E-001	3.57270E+000	9	...........
	146	1.96	9.76071E-001	9.08928E-005	0.00000E+000	8.87178E-005	5.39641E-002	9.76251E-001	3.57270E+000	9	...........
	147	1.97333	9.77624E-001	9.09230E-005	0.00000E+000	8.88885E-005	5.39641E-002	9.77819E-001	3.57270E+000	9	...........
	148	1.98667	9.79192E-001	9.11137E-005	0.00000E+000	8.92178E-005	5.39641E-002	9.79348E-001	3.57270E+000	9	...........
	149	2	9.80736E-001	9.10772E-005	0.00000E+000	8.93228E-005	5.39641E-002	9.80890E-001	3.57270E+000	9	...........
	150	2.01333	9.82252E-001	9.11866E-005	0.00000E+000	8.95682E-005	5.39641E-002	9.82414E-001	3.57270E+000	9	...........
	151	2.02667	9.83731E-001	9.10345E-005	0.00000E+000	8.95535E-005	5.39641E-002	9.83942E-001	3.57270E+000	9	...........
	152	2.04	9.85253E-001	9.11304E-005	0.00000E+000	8.97865E-005	5.39641E-002	9.85454E-001	3.57270E+000	9	...........
	153	2.05333	9.86726E-001	9.09053E-005	0.00000E+000	8.96987E-005	5.39641E-002	9.86923E-001	3.57270E+000	9	...........
	154	2.06667	9.88187E-001	9.11158E-005	0.00000E+000	9.00394E-005	5.39641E-002	9.88382E-001	3.57270E+000	9	...........
	155	2.08	9.89626E-001	9.10397E-005	0.00000E+000	9.00953E-005	5.39641E-002	9.89831E-001	3.57270E+000	9	...........
	156	2.09333	9.91045E-001	9.09522E-005	0.00000E+000	9.01377E-005	5.39641E-002	9.91227E-001	3.57270E+000	9	...........
	157	2.10667	9.92406E-001	9.13200E-005	0.00000E+000	9.06265E-005	5.39641E-002	9.92643E-001	3.57270E+000	9	...........
	158	2.12	9.93800E-001	9.10137E-005	0.00000E+000	9.04494E-005	5.39641E-002	9.94022E-001	3.57270E+000	9	...........
	159	2.13333	9.95221E-001	9.11793E-005	0.00000E+000	9.07435E-005	5.39641E-002	9.95420E-001	3.57270E+000	9	...........
	160	2.14667	9.96551E-001	9.12064E-005	0.00000E+000	9.08919E-005	5.39641E-002	9.96796E-001	3.57270E+000	9	...........
	161	2.16	9.97925E-001	9.10522E-005	0.00000E+000	9.08633E-005	5.39641E-002	9.98161E-001	3.57270E+000	9	...........
	162	2.17333	9.99291E-001	9.10731E-005	0.00000E+000	9.10085E-005	5.39641E-002	9.99521E-001	3.57270E+000	9	...........
	163	2.175	1.00002E+000	9.05125E-005	0.00000E+000	9.05140E-005	5.39641E-002	1.00034E+000	3.57270E+000	9	...........
STARTTIMEOFFSET	QUANT	3194.337	Start Time Offset (s)
