EXPLAIN
TAG	PWR800_CHARGE
TITLE	LABEL	PWR Cyclic Charge Discharge (Cell) - Charge Step	Test &Identifier
DATE	LABEL	10-7-2017	Date
TIME	LABEL	16:10:49	Time
NOTES	NOTES	3	&Notes...
	supercap test cell
	0.9mg
	6M KOH
PSTAT	PSTAT	IFC5000-01520	Potentiostat
CAPACITY	QUANT	1.00000E-003	Capacity (A-hr)
CELLTYPE	SELECTOR	1	&Cell Type
WORKINGCONNECTION	SELECTOR	0	&Working Lead
MAXCHARGETIME	VARIABLEANDUNITS	1.00000E+002	s	1.00000E+002	second(s)	Max &Charge Time
CHARGECURRENT	QUANT	9.00000E-005	&Charge Current (A) 
VOLTAGEFINISH	TWOPARAM	F	1.00000E-003	3.60000E+003	&Voltage Finish	 I (A) < 	Max Time(s)
SAMPLETIME	QUANT	1.00000E-002	Sa&mple Period (s)
CHARGESTOPAT1	MULTIPARAM	4	1.00000E+000	Charge Stop At &1	Voltage > Limit	V
CHARGESTOPAT2	MULTIPARAM	0	0.00000E+000	Charge Stop At &2	None	N/A
AESBHCSELECTOR	TOGGLE	F	Save Both Half Cells
IRCOMP	TOGGLE	F	IR &Measure
EOC	QUANT	0	Open Circuit (V)
SEQUENCER	TOGGLE	TRUE	Run as Sequence
PSTATMODEL	IQUANT	53	Pstat Model
PSTATSECTION	LABEL	IFC5000-01520	Pstat Section
PSTATSERIALNO	LABEL	01520	Pstat Serial Number
CTRLMODE	IQUANT	0	Control Mode
ELECTROMETER	IQUANT	1	RE=0 or CS=1
IESTAB	IQUANT	0	I/E Stability
CASPEED	IQUANT	4	Control Amp Speed
CONVENTION	IQUANT	1	Current Convention
ICHRANGE	IQUANT	2	Ich Range
ICHRANGEMODE	TOGGLE	T	Ich Auto Range
ICHOFFSETENABLE	TOGGLE	F	Ich Offset Enable
ICHOFFSET	QUANT	0	Ich Offset (V)
ICHFILTER	IQUANT	1	Ich Filter
VCHRANGE	IQUANT	2	Vch Range
VCHRANGEMODE	TOGGLE	T	Vch Auto Range
VCHOFFSETENABLE	TOGGLE	F	Vch Offset Enable
VCHOFFSET	QUANT	0	Vch Offset (V)
VCHFILTER	IQUANT	1	Vch Filter
IERANGELOWERLIMIT	IQUANT	9	I/E Range Lower Limit
IERANGEMODE	TOGGLE	F	I/E AutoRange
IERANGE	IQUANT	9	I/E Range
ACHSELECT	IQUANT	1	Ach Select
ACHRANGE	IQUANT	2	Ach Range
ACHOFFSETENABLE	TOGGLE	F	Ach Offset Enable
ACHOFFSET	QUANT	0	Ach Offset (V)
ACHFILTER	IQUANT	1	Ach Filter
CABLEID	IQUANT	14	Cable ID
DCCALDATE	LABEL	5-7-2017	DC Calibration Date
ACCALDATE	LABEL	12/3/2015	AC Calibration Date
FRAMEWORKVERSION	QUANT	7.01	Framework Version
INSTRUMENTVERSION	LABEL	4.00	Instrument Version
CURVE	TABLE	163
	Pt	T	Vf	Im	Vu	Pwr	Sig	Ach	Temp	IERange	Over
	#	s	V	A	V	W	V	V	deg C	#	bits
	0	0.013333	2.69662E-001	9.06626E-005	0.00000E+000	2.44482E-005	5.39641E-002	2.69698E-001	3.57300E+000	9	...........
	1	0.026667	2.89308E-001	9.09043E-005	0.00000E+000	2.62994E-005	5.39641E-002	2.89344E-001	3.57300E+000	9	...........
	2	0.04	3.07750E-001	9.10231E-005	0.00000E+000	2.80124E-005	5.39641E-002	3.07787E-001	3.57300E+000	9	...........
	3	0.053333	3.25133E-001	9.10949E-005	0.00000E+000	2.96180E-005	5.39641E-002	3.25176E-001	3.57300E+000	9	...........
	4	0.066667	3.41598E-001	9.10918E-005	0.00000E+000	3.11168E-005	5.39641E-002	3.41634E-001	3.57300E+000	9	...........
	5	0.08	3.57210E-001	9.10908E-005	0.00000E+000	3.25385E-005	5.39641E-002	3.57251E-001	3.57300E+000	9	...........
	6	0.093333	3.72048E-001	9.08866E-005	0.00000E+000	3.38142E-005	5.39641E-002	3.72091E-001	3.57300E+000	9	...........
	7	0.106667	3.86174E-001	9.08084E-005	0.00000E+000	3.50679E-005	5.39641E-002	3.86224E-001	3.57300E+000	9	...........
	8	0.12	3.99677E-001	9.09199E-005	0.00000E+000	3.63386E-005	5.39641E-002	3.99720E-001	3.57300E+000	9	...........
	9	0.133333	4.12577E-001	9.09637E-005	0.00000E+000	3.75295E-005	5.39641E-002	4.12628E-001	3.57300E+000	9	...........
	10	0.146667	4.24932E-001	9.12262E-005	0.00000E+000	3.87649E-005	5.39641E-002	4.24990E-001	3.57300E+000	9	...........
	11	0.16	4.36794E-001	9.12095E-005	0.00000E+000	3.98397E-005	5.39641E-002	4.36853E-001	3.57300E+000	9	...........
	12	0.173333	4.48183E-001	9.10043E-005	0.00000E+000	4.07866E-005	5.39641E-002	4.48241E-001	3.57300E+000	9	...........
	13	0.186667	4.59157E-001	9.11252E-005	0.00000E+000	4.18407E-005	5.39641E-002	4.59213E-001	3.57300E+000	9	...........
	14	0.2	4.69715E-001	9.08949E-005	0.00000E+000	4.26947E-005	5.39641E-002	4.69777E-001	3.57300E+000	9	...........
	15	0.213333	4.79891E-001	9.07959E-005	0.00000E+000	4.35722E-005	5.39641E-002	4.79953E-001	3.57300E+000	9	...........
	16	0.226667	4.89731E-001	9.09668E-005	0.00000E+000	4.45492E-005	5.39641E-002	4.89796E-001	3.57300E+000	9	...........
	17	0.24	4.99230E-001	9.10116E-005	0.00000E+000	4.54357E-005	5.39641E-002	4.99304E-001	3.57300E+000	9	...........
	18	0.253333	5.08432E-001	9.09689E-005	0.00000E+000	4.62515E-005	5.39641E-002	5.08501E-001	3.57300E+000	9	...........
	19	0.266667	5.17358E-001	9.07042E-005	0.00000E+000	4.69265E-005	5.39641E-002	5.17424E-001	3.57300E+000	9	...........
	20	0.28	5.26005E-001	9.08793E-005	0.00000E+000	4.78030E-005	5.39641E-002	5.26079E-001	3.57300E+000	9	...........
	21	0.293333	5.34351E-001	9.10366E-005	0.00000E+000	4.86455E-005	5.39641E-002	5.34409E-001	3.57300E+000	9	...........
	22	0.306667	5.42478E-001	9.09282E-005	0.00000E+000	4.93266E-005	5.39641E-002	5.42576E-001	3.57300E+000	9	...........
	23	0.32	5.50407E-001	9.12596E-005	0.00000E+000	5.02299E-005	5.39641E-002	5.50506E-001	3.57300E+000	9	...........
	24	0.333333	5.58114E-001	9.09730E-005	0.00000E+000	5.07733E-005	5.39641E-002	5.58217E-001	3.57300E+000	9	...........
	25	0.346667	5.65654E-001	9.09095E-005	0.00000E+000	5.14233E-005	5.39641E-002	5.65778E-001	3.57300E+000	9	...........
	26	0.36	5.72958E-001	9.10147E-005	0.00000E+000	5.21476E-005	5.39641E-002	5.73078E-001	3.57300E+000	9	...........
	27	0.373333	5.80111E-001	9.11418E-005	0.00000E+000	5.28724E-005	5.39641E-002	5.80221E-001	3.57300E+000	9	...........
	28	0.386667	5.87071E-001	9.09053E-005	0.00000E+000	5.33679E-005	5.39641E-002	5.87186E-001	3.57300E+000	9	...........
	29	0.4	5.93867E-001	9.09220E-005	0.00000E+000	5.39956E-005	5.39641E-002	5.94006E-001	3.57300E+000	9	...........
	30	0.413333	6.00511E-001	9.09824E-005	0.00000E+000	5.46359E-005	5.39641E-002	6.00658E-001	3.57300E+000	9	...........
	31	0.426667	6.07020E-001	9.07938E-005	0.00000E+000	5.51136E-005	5.39641E-002	6.07168E-001	3.57300E+000	9	...........
	32	0.44	6.13416E-001	9.11439E-005	0.00000E+000	5.59091E-005	5.39641E-002	6.13564E-001	3.57300E+000	9	...........
	33	0.453333	6.19695E-001	9.08574E-005	0.00000E+000	5.63039E-005	5.39641E-002	6.19786E-001	3.57300E+000	9	...........
	34	0.466667	6.25780E-001	9.09720E-005	0.00000E+000	5.69285E-005	5.39641E-002	6.25888E-001	3.57300E+000	9	...........
	35	0.48	6.31734E-001	9.09428E-005	0.00000E+000	5.74516E-005	5.39641E-002	6.31844E-001	3.57300E+000	9	...........
	36	0.493333	6.37570E-001	9.09772E-005	0.00000E+000	5.80043E-005	5.39641E-002	6.37712E-001	3.57300E+000	9	...........
	37	0.506667	6.43327E-001	9.09803E-005	0.00000E+000	5.85301E-005	5.39641E-002	6.43472E-001	3.57300E+000	9	...........
	38	0.52	6.48950E-001	9.10751E-005	0.00000E+000	5.91032E-005	5.39641E-002	6.49087E-001	3.57300E+000	9	...........
	39	0.533333	6.54492E-001	9.10470E-005	0.00000E+000	5.95896E-005	5.39641E-002	6.54619E-001	3.57300E+000	9	...........
	40	0.546667	6.59965E-001	9.09043E-005	0.00000E+000	5.99937E-005	5.39641E-002	6.60062E-001	3.57300E+000	9	...........
	41	0.56	6.65309E-001	9.08313E-005	0.00000E+000	6.04309E-005	5.39641E-002	6.65443E-001	3.57300E+000	9	...........
	42	0.573333	6.70581E-001	9.09803E-005	0.00000E+000	6.10096E-005	5.39641E-002	6.70677E-001	3.57300E+000	9	...........
	43	0.586667	6.75740E-001	9.07438E-005	0.00000E+000	6.13192E-005	5.39641E-002	6.75853E-001	3.57300E+000	9	...........
	44	0.6	6.80793E-001	9.08855E-005	0.00000E+000	6.18742E-005	5.39641E-002	6.80927E-001	3.57300E+000	9	...........
	45	0.613333	6.85771E-001	9.10147E-005	0.00000E+000	6.24153E-005	5.39641E-002	6.85893E-001	3.57300E+000	9	...........
	46	0.626667	6.90680E-001	9.09064E-005	0.00000E+000	6.27873E-005	5.39641E-002	6.90819E-001	3.57300E+000	9	...........
	47	0.64	6.95497E-001	9.11668E-005	0.00000E+000	6.34063E-005	5.39641E-002	6.95623E-001	3.57300E+000	9	...........
	48	0.653333	7.00230E-001	9.09512E-005	0.00000E+000	6.36868E-005	5.39641E-002	7.00345E-001	3.57300E+000	9	...........
	49	0.666667	7.04912E-001	9.08564E-005	0.00000E+000	6.40457E-005	5.39641E-002	7.05039E-001	3.57300E+000	9	...........
	50	0.68	7.09474E-001	9.08668E-005	0.00000E+000	6.44676E-005	5.39641E-002	7.09625E-001	3.57300E+000	9	...........
	51	0.693333	7.14014E-001	9.08491E-005	0.00000E+000	6.48675E-005	5.39641E-002	7.14139E-001	3.57300E+000	9	...........
	52	0.706667	7.18528E-001	9.08636E-005	0.00000E+000	6.52881E-005	5.39641E-002	7.18636E-001	3.57300E+000	9	...........
	53	0.72	7.22917E-001	9.10929E-005	0.00000E+000	6.58526E-005	5.39641E-002	7.23033E-001	3.57300E+000	9	...........
	54	0.733333	7.27254E-001	9.09168E-005	0.00000E+000	6.61196E-005	5.39641E-002	7.27396E-001	3.57300E+000	9	...........
	55	0.746667	7.31544E-001	9.09418E-005	0.00000E+000	6.65279E-005	5.39641E-002	7.31684E-001	3.57300E+000	9	...........
	56	0.76	7.35791E-001	9.09793E-005	0.00000E+000	6.69417E-005	5.39641E-002	7.35934E-001	3.57300E+000	9	...........
	57	0.773333	7.39990E-001	9.09397E-005	0.00000E+000	6.72945E-005	5.39641E-002	7.40144E-001	3.57300E+000	9	...........
	58	0.786667	7.44174E-001	9.08459E-005	0.00000E+000	6.76052E-005	5.39641E-002	7.44295E-001	3.57300E+000	9	...........
	59	0.8	7.48239E-001	9.10231E-005	0.00000E+000	6.81070E-005	5.39641E-002	7.48376E-001	3.57300E+000	9	...........
	60	0.813333	7.52243E-001	9.10085E-005	0.00000E+000	6.84605E-005	5.39641E-002	7.52389E-001	3.57300E+000	9	...........
	61	0.826667	7.56245E-001	9.09387E-005	0.00000E+000	6.87719E-005	5.39641E-002	7.56351E-001	3.57300E+000	9	...........
	62	0.84	7.60147E-001	9.08251E-005	0.00000E+000	6.90405E-005	5.39641E-002	7.60269E-001	3.57300E+000	9	...........
	63	0.853333	7.64038E-001	9.08866E-005	0.00000E+000	6.94407E-005	5.39641E-002	7.64155E-001	3.57300E+000	9	...........
	64	0.866667	7.67883E-001	9.08689E-005	0.00000E+000	6.97766E-005	5.39641E-002	7.68035E-001	3.57300E+000	9	...........
	65	0.88	7.71707E-001	9.09345E-005	0.00000E+000	7.01748E-005	5.39641E-002	7.71859E-001	3.57300E+000	9	...........
	66	0.893333	7.75481E-001	9.08251E-005	0.00000E+000	7.04331E-005	5.39641E-002	7.75602E-001	3.57300E+000	9	...........
	67	0.906667	7.79219E-001	9.07563E-005	0.00000E+000	7.07191E-005	5.39641E-002	7.79335E-001	3.57300E+000	9	...........
	68	0.92	7.82896E-001	9.09460E-005	0.00000E+000	7.12012E-005	5.39641E-002	7.83021E-001	3.57300E+000	9	...........
	69	0.933333	7.86540E-001	9.09845E-005	0.00000E+000	7.15629E-005	5.39641E-002	7.86637E-001	3.57300E+000	9	...........
	70	0.946667	7.90123E-001	9.08449E-005	0.00000E+000	7.17787E-005	5.39641E-002	7.90242E-001	3.57300E+000	9	...........
	71	0.96	7.93687E-001	9.09960E-005	0.00000E+000	7.22223E-005	5.39641E-002	7.93826E-001	3.57300E+000	9	...........
	72	0.97333	7.97205E-001	9.11793E-005	0.00000E+000	7.26886E-005	5.39641E-002	7.97322E-001	3.57300E+000	9	...........
	73	0.98667	8.00679E-001	9.10064E-005	0.00000E+000	7.28669E-005	5.39641E-002	8.00792E-001	3.57300E+000	9	...........
	74	1	8.04095E-001	9.09981E-005	0.00000E+000	7.31711E-005	5.39641E-002	8.04230E-001	3.57300E+000	9	...........
	75	1.01333	8.07482E-001	9.10033E-005	0.00000E+000	7.34835E-005	5.39641E-002	8.07621E-001	3.57300E+000	9	...........
	76	1.02667	8.10825E-001	9.10262E-005	0.00000E+000	7.38063E-005	5.39641E-002	8.10985E-001	3.57324E+000	9	...........
	77	1.04	8.14162E-001	9.09209E-005	0.00000E+000	7.40244E-005	5.39641E-002	8.14288E-001	3.57330E+000	9	...........
	78	1.05333	8.17459E-001	9.11179E-005	0.00000E+000	7.44851E-005	5.39641E-002	8.17596E-001	3.57330E+000	9	...........
	79	1.06667	8.20751E-001	9.09928E-005	0.00000E+000	7.46825E-005	5.39641E-002	8.20881E-001	3.57330E+000	9	...........
	80	1.08	8.23961E-001	9.09897E-005	0.00000E+000	7.49720E-005	5.39641E-002	8.24108E-001	3.57330E+000	9	...........
	81	1.09333	8.27136E-001	9.09522E-005	0.00000E+000	7.52298E-005	5.39641E-002	8.27297E-001	3.57330E+000	9	...........
	82	1.10667	8.30296E-001	9.09074E-005	0.00000E+000	7.54800E-005	5.39641E-002	8.30457E-001	3.57330E+000	9	...........
	83	1.12	8.33438E-001	9.10918E-005	0.00000E+000	7.59194E-005	5.39641E-002	8.33591E-001	3.57330E+000	9	...........
	84	1.13333	8.36522E-001	9.08147E-005	0.00000E+000	7.59685E-005	5.39641E-002	8.36698E-001	3.57330E+000	9	...........
	85	1.14667	8.39574E-001	9.10595E-005	0.00000E+000	7.64512E-005	5.39641E-002	8.39736E-001	3.57330E+000	9	...........
	86	1.16	8.42578E-001	9.08511E-005	0.00000E+000	7.65492E-005	5.39641E-002	8.42777E-001	3.57330E+000	9	...........
	87	1.17333	8.45594E-001	9.08584E-005	0.00000E+000	7.68293E-005	5.39641E-002	8.45779E-001	3.57330E+000	9	...........
	88	1.18667	8.48555E-001	9.11252E-005	0.00000E+000	7.73247E-005	5.39641E-002	8.48717E-001	3.57330E+000	9	...........
	89	1.2	8.51492E-001	9.09043E-005	0.00000E+000	7.74043E-005	5.39641E-002	8.51658E-001	3.57330E+000	9	...........
	90	1.21333	8.54368E-001	9.12137E-005	0.00000E+000	7.79301E-005	5.39641E-002	8.54566E-001	3.57330E+000	9	...........
	91	1.22667	8.57248E-001	9.11210E-005	0.00000E+000	7.81133E-005	5.39641E-002	8.57441E-001	3.57330E+000	9	...........
	92	1.24	8.60082E-001	9.06751E-005	0.00000E+000	7.79880E-005	5.39641E-002	8.60284E-001	3.57330E+000	9	...........
	93	1.25333	8.62909E-001	9.09032E-005	0.00000E+000	7.84412E-005	5.39641E-002	8.63103E-001	3.57330E+000	9	...........
	94	1.26667	8.65689E-001	9.09564E-005	0.00000E+000	7.87399E-005	5.39641E-002	8.65862E-001	3.57330E+000	9	...........
	95	1.28	8.68449E-001	9.10418E-005	0.00000E+000	7.90651E-005	5.39641E-002	8.68612E-001	3.57330E+000	9	...........
	96	1.29333	8.71235E-001	9.09460E-005	0.00000E+000	7.92353E-005	5.39641E-002	8.71376E-001	3.57330E+000	9	...........
	97	1.30667	8.73908E-001	9.10491E-005	0.00000E+000	7.95685E-005	5.39641E-002	8.74073E-001	3.57330E+000	9	...........
	98	1.32	8.76612E-001	9.12356E-005	0.00000E+000	7.99782E-005	5.39641E-002	8.76781E-001	3.57330E+000	9	...........
	99	1.33333	8.79250E-001	9.11241E-005	0.00000E+000	8.01209E-005	5.39641E-002	8.79413E-001	3.57330E+000	9	...........
	100	1.34667	8.81890E-001	9.10585E-005	0.00000E+000	8.03036E-005	5.39641E-002	8.82073E-001	3.57330E+000	9	...........
	101	1.36	8.84503E-001	9.09043E-005	0.00000E+000	8.04051E-005	5.39641E-002	8.84700E-001	3.57330E+000	9	...........
	102	1.37333	8.87094E-001	9.11710E-005	0.00000E+000	8.08773E-005	5.39641E-002	8.87295E-001	3.57330E+000	9	...........
	103	1.38667	8.89633E-001	9.09668E-005	0.00000E+000	8.09270E-005	5.39641E-002	8.89812E-001	3.57330E+000	9	...........
	104	1.4	8.92115E-001	9.10262E-005	0.00000E+000	8.12058E-005	5.39641E-002	8.92342E-001	3.57330E+000	9	...........
	105	1.41333	8.94617E-001	9.08553E-005	0.00000E+000	8.12807E-005	5.39641E-002	8.94852E-001	3.57330E+000	9	...........
	106	1.42667	8.97108E-001	9.11575E-005	0.00000E+000	8.17781E-005	5.39641E-002	8.97338E-001	3.57330E+000	9	...........
	107	1.44	8.99536E-001	9.08897E-005	0.00000E+000	8.17586E-005	5.39641E-002	8.99745E-001	3.57330E+000	9	...........
	108	1.45333	9.01954E-001	9.11856E-005	0.00000E+000	8.22452E-005	5.39641E-002	9.02139E-001	3.57330E+000	9	...........
	109	1.46667	9.04327E-001	9.09512E-005	0.00000E+000	8.22496E-005	5.39641E-002	9.04527E-001	3.57330E+000	9	...........
	110	1.48	9.06678E-001	9.09720E-005	0.00000E+000	8.24823E-005	5.39641E-002	9.06882E-001	3.57330E+000	9	...........
	111	1.49333	9.09051E-001	9.11168E-005	0.00000E+000	8.28299E-005	5.39641E-002	9.09235E-001	3.57330E+000	9	...........
	112	1.50667	9.11346E-001	9.10929E-005	0.00000E+000	8.30171E-005	5.39641E-002	9.11528E-001	3.57330E+000	9	...........
	113	1.52	9.13639E-001	9.10033E-005	0.00000E+000	8.31441E-005	5.39641E-002	9.13814E-001	3.57330E+000	9	...........
	114	1.53333	9.15932E-001	9.10366E-005	0.00000E+000	8.33834E-005	5.39641E-002	9.16100E-001	3.57330E+000	9	...........
	115	1.54667	9.18152E-001	9.09876E-005	0.00000E+000	8.35405E-005	5.39641E-002	9.18364E-001	3.57330E+000	9	...........
	116	1.56	9.20398E-001	9.09626E-005	0.00000E+000	8.37218E-005	5.39641E-002	9.20570E-001	3.57330E+000	9	...........
	117	1.57333	9.22617E-001	9.09418E-005	0.00000E+000	8.39045E-005	5.39641E-002	9.22782E-001	3.57330E+000	9	...........
	118	1.58667	9.24803E-001	9.08313E-005	0.00000E+000	8.40011E-005	5.39641E-002	9.24964E-001	3.57330E+000	9	...........
	119	1.6	9.26940E-001	9.12116E-005	0.00000E+000	8.45477E-005	5.39641E-002	9.27113E-001	3.57330E+000	9	...........
	120	1.61333	9.29071E-001	9.10783E-005	0.00000E+000	8.46182E-005	5.39641E-002	9.29234E-001	3.57330E+000	9	...........
	121	1.62667	9.31161E-001	9.11074E-005	0.00000E+000	8.48357E-005	5.39641E-002	9.31337E-001	3.57330E+000	9	...........
	122	1.64	9.33249E-001	9.09730E-005	0.00000E+000	8.49005E-005	5.39641E-002	9.33426E-001	3.57330E+000	9	...........
	123	1.65333	9.35320E-001	9.11835E-005	0.00000E+000	8.52857E-005	5.39641E-002	9.35495E-001	3.57330E+000	9	...........
	124	1.66667	9.37342E-001	9.10043E-005	0.00000E+000	8.53021E-005	5.39641E-002	9.37530E-001	3.57330E+000	9	...........
	125	1.68	9.39337E-001	9.09543E-005	0.00000E+000	8.54368E-005	5.39641E-002	9.39523E-001	3.57330E+000	9	...........
	126	1.69333	9.41362E-001	9.09793E-005	0.00000E+000	8.56444E-005	5.39641E-002	9.41523E-001	3.57330E+000	9	...........
	127	1.70667	9.43329E-001	9.12398E-005	0.00000E+000	8.60691E-005	5.39641E-002	9.43490E-001	3.57330E+000	9	...........
	128	1.72	9.45266E-001	9.09585E-005	0.00000E+000	8.59799E-005	5.39641E-002	9.45461E-001	3.57330E+000	9	...........
	129	1.73333	9.47237E-001	9.08907E-005	0.00000E+000	8.60950E-005	5.39641E-002	9.47408E-001	3.57330E+000	9	...........
	130	1.74667	9.49141E-001	9.08293E-005	0.00000E+000	8.62098E-005	5.39641E-002	9.49329E-001	3.57330E+000	9	...........
	131	1.76	9.51037E-001	9.09803E-005	0.00000E+000	8.65256E-005	5.39641E-002	9.51215E-001	3.57330E+000	9	...........
	132	1.77333	9.52906E-001	9.10647E-005	0.00000E+000	8.67761E-005	5.39641E-002	9.53075E-001	3.57330E+000	9	...........
	133	1.78667	9.54756E-001	9.11981E-005	0.00000E+000	8.70719E-005	5.39641E-002	9.54908E-001	3.57330E+000	9	...........
	134	1.8	9.56566E-001	9.08418E-005	0.00000E+000	8.68962E-005	5.39641E-002	9.56740E-001	3.57330E+000	9	...........
	135	1.81333	9.58368E-001	9.06157E-005	0.00000E+000	8.68432E-005	5.39641E-002	9.58554E-001	3.57330E+000	9	...........
	136	1.82667	9.60128E-001	9.09012E-005	0.00000E+000	8.72767E-005	5.39641E-002	9.60348E-001	3.57330E+000	9	...........
	137	1.84	9.61887E-001	9.08063E-005	0.00000E+000	8.73454E-005	5.39641E-002	9.62104E-001	3.57330E+000	9	...........
	138	1.85333	9.63629E-001	9.08907E-005	0.00000E+000	8.75849E-005	5.39641E-002	9.63859E-001	3.57330E+000	9	...........
	139	1.86667	9.65357E-001	9.06167E-005	0.00000E+000	8.74775E-005	5.39641E-002	9.65551E-001	3.57330E+000	9	...........
	140	1.88	9.67069E-001	9.06313E-005	0.00000E+000	8.76467E-005	5.39641E-002	9.67258E-001	3.57330E+000	9	...........
	141	1.89333	9.68728E-001	9.08887E-005	0.00000E+000	8.80464E-005	5.39641E-002	9.68918E-001	3.57330E+000	9	...........
	142	1.90667	9.70403E-001	9.12616E-005	0.00000E+000	8.85605E-005	5.39641E-002	9.70616E-001	3.57330E+000	9	...........
	143	1.92	9.72103E-001	9.10595E-005	0.00000E+000	8.85193E-005	5.39641E-002	9.72299E-001	3.57330E+000	9	...........
	144	1.93333	9.73780E-001	9.12512E-005	0.00000E+000	8.88586E-005	5.39641E-002	9.73951E-001	3.57330E+000	9	...........
	145	1.94667	9.75406E-001	9.08241E-005	0.00000E+000	8.85903E-005	5.39641E-002	9.75594E-001	3.57330E+000	9	...........
	146	1.96	9.77029E-001	9.10553E-005	0.00000E+000	8.89637E-005	5.39641E-002	9.77171E-001	3.57330E+000	9	...........
	147	1.97333	9.78588E-001	9.10376E-005	0.00000E+000	8.90884E-005	5.39641E-002	9.78773E-001	3.57330E+000	9	...........
	148	1.98667	9.80137E-001	9.10158E-005	0.00000E+000	8.92080E-005	5.39641E-002	9.80309E-001	3.57330E+000	9	...........
	149	2	9.81665E-001	9.09199E-005	0.00000E+000	8.92529E-005	5.39641E-002	9.81845E-001	3.57330E+000	9	...........
	150	2.01333	9.83190E-001	9.10616E-005	0.00000E+000	8.95308E-005	5.39641E-002	9.83374E-001	3.57330E+000	9	...........
	151	2.02667	9.84697E-001	9.07918E-005	0.00000E+000	8.94023E-005	5.39641E-002	9.84894E-001	3.57282E+000	9	...........
	152	2.04	9.86185E-001	9.10053E-005	0.00000E+000	8.97481E-005	5.39641E-002	9.86390E-001	3.57270E+000	9	...........
	153	2.05333	9.87685E-001	9.12095E-005	0.00000E+000	9.00863E-005	5.39641E-002	9.87857E-001	3.57270E+000	9	...........
	154	2.06667	9.89165E-001	9.11095E-005	0.00000E+000	9.01223E-005	5.39641E-002	9.89364E-001	3.57270E+000	9	...........
	155	2.08	9.90601E-001	9.08220E-005	0.00000E+000	8.99684E-005	5.39641E-002	9.90804E-001	3.57270E+000	9	...........
	156	2.09333	9.92023E-001	9.10720E-005	0.00000E+000	9.03456E-005	5.39641E-002	9.92255E-001	3.57270E+000	9	...........
	157	2.10667	9.93445E-001	9.10137E-005	0.00000E+000	9.04171E-005	5.39641E-002	9.93684E-001	3.57270E+000	9	...........
	158	2.12	9.94860E-001	9.09241E-005	0.00000E+000	9.04568E-005	5.39641E-002	9.95067E-001	3.57270E+000	9	...........
	159	2.13333	9.96267E-001	9.08866E-005	0.00000E+000	9.05473E-005	5.39641E-002	9.96477E-001	3.57270E+000	9	...........
	160	2.14667	9.97666E-001	9.09668E-005	0.00000E+000	9.07545E-005	5.39641E-002	9.97891E-001	3.57270E+000	9	...........
	161	2.16	9.99064E-001	9.10710E-005	0.00000E+000	9.09858E-005	5.39641E-002	9.99259E-001	3.57270E+000	9	...........
	162	2.165	9.99996E-001	9.11904E-005	0.00000E+000	9.11901E-005	5.39641E-002	1.00021E+000	3.57270E+000	9	...........
STARTTIMEOFFSET	QUANT	3603.587	Start Time Offset (s)
