EXPLAIN
TAG	PWR800_CHARGE
TITLE	LABEL	PWR Cyclic Charge Discharge (Cell) - Charge Step	Test &Identifier
DATE	LABEL	10-7-2017	Date
TIME	LABEL	15:03:04	Time
NOTES	NOTES	3	&Notes...
	supercap test cell
	0.9mg
	6M KOH
PSTAT	PSTAT	IFC5000-01520	Potentiostat
CAPACITY	QUANT	1.00000E-003	Capacity (A-hr)
CELLTYPE	SELECTOR	1	&Cell Type
WORKINGCONNECTION	SELECTOR	0	&Working Lead
MAXCHARGETIME	VARIABLEANDUNITS	1.00000E+002	s	1.00000E+002	second(s)	Max &Charge Time
CHARGECURRENT	QUANT	9.00000E-005	&Charge Current (A) 
VOLTAGEFINISH	TWOPARAM	F	1.00000E-003	3.60000E+003	&Voltage Finish	 I (A) < 	Max Time(s)
SAMPLETIME	QUANT	1.00000E-002	Sa&mple Period (s)
CHARGESTOPAT1	MULTIPARAM	4	1.00000E+000	Charge Stop At &1	Voltage > Limit	V
CHARGESTOPAT2	MULTIPARAM	0	0.00000E+000	Charge Stop At &2	None	N/A
AESBHCSELECTOR	TOGGLE	F	Save Both Half Cells
IRCOMP	TOGGLE	F	IR &Measure
EOC	QUANT	0	Open Circuit (V)
SEQUENCER	TOGGLE	TRUE	Run as Sequence
PSTATMODEL	IQUANT	53	Pstat Model
PSTATSECTION	LABEL	IFC5000-01520	Pstat Section
PSTATSERIALNO	LABEL	01520	Pstat Serial Number
CTRLMODE	IQUANT	0	Control Mode
ELECTROMETER	IQUANT	1	RE=0 or CS=1
IESTAB	IQUANT	0	I/E Stability
CASPEED	IQUANT	4	Control Amp Speed
CONVENTION	IQUANT	1	Current Convention
ICHRANGE	IQUANT	2	Ich Range
ICHRANGEMODE	TOGGLE	T	Ich Auto Range
ICHOFFSETENABLE	TOGGLE	F	Ich Offset Enable
ICHOFFSET	QUANT	0	Ich Offset (V)
ICHFILTER	IQUANT	1	Ich Filter
VCHRANGE	IQUANT	2	Vch Range
VCHRANGEMODE	TOGGLE	T	Vch Auto Range
VCHOFFSETENABLE	TOGGLE	F	Vch Offset Enable
VCHOFFSET	QUANT	0	Vch Offset (V)
VCHFILTER	IQUANT	1	Vch Filter
IERANGELOWERLIMIT	IQUANT	9	I/E Range Lower Limit
IERANGEMODE	TOGGLE	F	I/E AutoRange
IERANGE	IQUANT	9	I/E Range
ACHSELECT	IQUANT	1	Ach Select
ACHRANGE	IQUANT	2	Ach Range
ACHOFFSETENABLE	TOGGLE	F	Ach Offset Enable
ACHOFFSET	QUANT	0	Ach Offset (V)
ACHFILTER	IQUANT	1	Ach Filter
CABLEID	IQUANT	14	Cable ID
DCCALDATE	LABEL	5-7-2017	DC Calibration Date
ACCALDATE	LABEL	12/3/2015	AC Calibration Date
FRAMEWORKVERSION	QUANT	7.01	Framework Version
INSTRUMENTVERSION	LABEL	4.00	Instrument Version
CURVE	TABLE	200
	Pt	T	Vf	Im	Vu	Pwr	Sig	Ach	Temp	IERange	Over
	#	s	V	A	V	W	V	V	deg C	#	bits
	0	0.013333	2.97957E-001	9.12356E-005	0.00000E+000	2.71843E-005	5.39641E-002	2.97995E-001	3.57140E+000	9	...........
	1	0.026667	3.16505E-001	9.10512E-005	0.00000E+000	2.88182E-005	5.39641E-002	3.16532E-001	3.57140E+000	9	...........
	2	0.04	3.33542E-001	9.09522E-005	0.00000E+000	3.03364E-005	5.39641E-002	3.33577E-001	3.57140E+000	9	...........
	3	0.053333	3.49384E-001	9.12387E-005	0.00000E+000	3.18773E-005	5.39641E-002	3.49412E-001	3.57140E+000	9	...........
	4	0.066667	3.64213E-001	9.10710E-005	0.00000E+000	3.31692E-005	5.39641E-002	3.64244E-001	3.57140E+000	9	...........
	5	0.08	3.78182E-001	9.10877E-005	0.00000E+000	3.44477E-005	5.39641E-002	3.78209E-001	3.57140E+000	9	...........
	6	0.093333	3.91409E-001	9.15148E-005	0.00000E+000	3.58197E-005	5.39641E-002	3.91442E-001	3.57140E+000	9	...........
	7	0.106667	4.03993E-001	9.12439E-005	0.00000E+000	3.68619E-005	5.39641E-002	4.04023E-001	3.57140E+000	9	...........
	8	0.12	4.15989E-001	9.10856E-005	0.00000E+000	3.78906E-005	5.39641E-002	4.16025E-001	3.57140E+000	9	...........
	9	0.133333	4.27460E-001	9.10158E-005	0.00000E+000	3.89056E-005	5.39641E-002	4.27499E-001	3.57140E+000	9	...........
	10	0.146667	4.38466E-001	9.11689E-005	0.00000E+000	3.99745E-005	5.39641E-002	4.38512E-001	3.57140E+000	9	...........
	11	0.16	4.49059E-001	9.11262E-005	0.00000E+000	4.09210E-005	5.39641E-002	4.49101E-001	3.57140E+000	9	...........
	12	0.173333	4.59270E-001	9.14086E-005	0.00000E+000	4.19812E-005	5.39641E-002	4.59314E-001	3.57133E+000	9	...........
	13	0.186667	4.69110E-001	9.10491E-005	0.00000E+000	4.27121E-005	5.39641E-002	4.69154E-001	3.57130E+000	9	...........
	14	0.2	4.78606E-001	9.12200E-005	0.00000E+000	4.36585E-005	5.39641E-002	4.78650E-001	3.57130E+000	9	...........
	15	0.213333	4.87795E-001	9.13252E-005	0.00000E+000	4.45480E-005	5.39641E-002	4.87841E-001	3.57130E+000	9	...........
	16	0.226667	4.96693E-001	9.11064E-005	0.00000E+000	4.52519E-005	5.39641E-002	4.96749E-001	3.57130E+000	9	...........
	17	0.24	5.05334E-001	9.12335E-005	0.00000E+000	4.61034E-005	5.39641E-002	5.05381E-001	3.57130E+000	9	...........
	18	0.253333	5.13726E-001	9.09522E-005	0.00000E+000	4.67245E-005	5.39641E-002	5.13771E-001	3.57130E+000	9	...........
	19	0.266667	5.21878E-001	9.11856E-005	0.00000E+000	4.75878E-005	5.39641E-002	5.21927E-001	3.57130E+000	9	...........
	20	0.28	5.29790E-001	9.10991E-005	0.00000E+000	4.82634E-005	5.39641E-002	5.29843E-001	3.57130E+000	9	...........
	21	0.293333	5.37478E-001	9.11720E-005	0.00000E+000	4.90029E-005	5.39641E-002	5.37529E-001	3.57130E+000	9	...........
	22	0.306667	5.44999E-001	9.13117E-005	0.00000E+000	4.97648E-005	5.39641E-002	5.45065E-001	3.57130E+000	9	...........
	23	0.32	5.52337E-001	9.12554E-005	0.00000E+000	5.04037E-005	5.39641E-002	5.52410E-001	3.57130E+000	9	...........
	24	0.333333	5.59481E-001	9.12731E-005	0.00000E+000	5.10655E-005	5.39641E-002	5.59556E-001	3.57130E+000	9	...........
	25	0.346667	5.66491E-001	9.13648E-005	0.00000E+000	5.17573E-005	5.39641E-002	5.66537E-001	3.57130E+000	9	...........
	26	0.36	5.73272E-001	9.10001E-005	0.00000E+000	5.21678E-005	5.39641E-002	5.73348E-001	3.57130E+000	9	...........
	27	0.373333	5.79913E-001	9.10074E-005	0.00000E+000	5.27764E-005	5.39641E-002	5.80001E-001	3.57130E+000	9	...........
	28	0.386667	5.86419E-001	9.13283E-005	0.00000E+000	5.35567E-005	5.39641E-002	5.86498E-001	3.57130E+000	9	...........
	29	0.4	5.92791E-001	9.12512E-005	0.00000E+000	5.40929E-005	5.39641E-002	5.92873E-001	3.57130E+000	9	...........
	30	0.413333	5.99014E-001	9.14273E-005	0.00000E+000	5.47662E-005	5.39641E-002	5.99085E-001	3.57130E+000	9	...........
	31	0.426667	6.05088E-001	9.10574E-005	0.00000E+000	5.50977E-005	5.39641E-002	6.05170E-001	3.57130E+000	9	...........
	32	0.44	6.11030E-001	9.12439E-005	0.00000E+000	5.57528E-005	5.39641E-002	6.11128E-001	3.57130E+000	9	...........
	33	0.453333	6.16937E-001	9.13419E-005	0.00000E+000	5.63522E-005	5.39641E-002	6.16993E-001	3.57130E+000	9	...........
	34	0.466667	6.22623E-001	9.12919E-005	0.00000E+000	5.68404E-005	5.39641E-002	6.22667E-001	3.57130E+000	9	...........
	35	0.48	6.28185E-001	9.11481E-005	0.00000E+000	5.72578E-005	5.39641E-002	6.28244E-001	3.57130E+000	9	...........
	36	0.493333	6.33653E-001	9.09803E-005	0.00000E+000	5.76500E-005	5.39641E-002	6.33699E-001	3.57130E+000	9	...........
	37	0.506667	6.39036E-001	9.10418E-005	0.00000E+000	5.81790E-005	5.39641E-002	6.39076E-001	3.57130E+000	9	...........
	38	0.52	6.44315E-001	9.13398E-005	0.00000E+000	5.88516E-005	5.39641E-002	6.44341E-001	3.57130E+000	9	...........
	39	0.533333	6.49470E-001	9.10679E-005	0.00000E+000	5.91459E-005	5.39641E-002	6.49484E-001	3.57130E+000	9	...........
	40	0.546667	6.54553E-001	9.11898E-005	0.00000E+000	5.96886E-005	5.39641E-002	6.54563E-001	3.57130E+000	9	...........
	41	0.56	6.59513E-001	9.13929E-005	0.00000E+000	6.02748E-005	5.39641E-002	6.59537E-001	3.57130E+000	9	...........
	42	0.573333	6.64407E-001	9.12742E-005	0.00000E+000	6.06432E-005	5.39641E-002	6.64460E-001	3.57130E+000	9	...........
	43	0.586667	6.69254E-001	9.10439E-005	0.00000E+000	6.09315E-005	5.39641E-002	6.69285E-001	3.57130E+000	9	...........
	44	0.6	6.73949E-001	9.11450E-005	0.00000E+000	6.14271E-005	5.39641E-002	6.74008E-001	3.57130E+000	9	...........
	45	0.613333	6.78595E-001	9.11283E-005	0.00000E+000	6.18392E-005	5.39641E-002	6.78655E-001	3.57130E+000	9	...........
	46	0.626667	6.83144E-001	9.12210E-005	0.00000E+000	6.23171E-005	5.39641E-002	6.83212E-001	3.57130E+000	9	...........
	47	0.64	6.87593E-001	9.11377E-005	0.00000E+000	6.26656E-005	5.39641E-002	6.87678E-001	3.57130E+000	9	...........
	48	0.653333	6.92010E-001	9.12814E-005	0.00000E+000	6.31676E-005	5.39641E-002	6.92108E-001	3.57130E+000	9	...........
	49	0.666667	6.96328E-001	9.11335E-005	0.00000E+000	6.34588E-005	5.39641E-002	6.96430E-001	3.57130E+000	9	...........
	50	0.68	7.00569E-001	9.11356E-005	0.00000E+000	6.38468E-005	5.39641E-002	7.00655E-001	3.57130E+000	9	...........
	51	0.693333	7.04754E-001	9.13606E-005	0.00000E+000	6.43868E-005	5.39641E-002	7.04856E-001	3.57130E+000	9	...........
	52	0.706667	7.08862E-001	9.10897E-005	0.00000E+000	6.45701E-005	5.39641E-002	7.08966E-001	3.57130E+000	9	...........
	53	0.72	7.12917E-001	9.12846E-005	0.00000E+000	6.50784E-005	5.39641E-002	7.13048E-001	3.57130E+000	9	...........
	54	0.733333	7.16928E-001	9.13721E-005	0.00000E+000	6.55072E-005	5.39641E-002	7.17050E-001	3.57130E+000	9	...........
	55	0.746667	7.20887E-001	9.10960E-005	0.00000E+000	6.56699E-005	5.39641E-002	7.20993E-001	3.57130E+000	9	...........
	56	0.76	7.24731E-001	9.11877E-005	0.00000E+000	6.60865E-005	5.39641E-002	7.24851E-001	3.57130E+000	9	...........
	57	0.773333	7.28526E-001	9.11804E-005	0.00000E+000	6.64273E-005	5.39641E-002	7.28653E-001	3.57130E+000	9	...........
	58	0.786667	7.32258E-001	9.10345E-005	0.00000E+000	6.66608E-005	5.39641E-002	7.32400E-001	3.57130E+000	9	...........
	59	0.8	7.35961E-001	9.10522E-005	0.00000E+000	6.70109E-005	5.39641E-002	7.36085E-001	3.57130E+000	9	...........
	60	0.813333	7.39581E-001	9.13919E-005	0.00000E+000	6.75917E-005	5.39641E-002	7.39736E-001	3.57130E+000	9	...........
	61	0.826667	7.43227E-001	9.12148E-005	0.00000E+000	6.77933E-005	5.39641E-002	7.43354E-001	3.57130E+000	9	...........
	62	0.84	7.46754E-001	9.12273E-005	0.00000E+000	6.81243E-005	5.39641E-002	7.46869E-001	3.57130E+000	9	...........
	63	0.853333	7.50221E-001	9.12377E-005	0.00000E+000	6.84484E-005	5.39641E-002	7.50345E-001	3.57130E+000	9	...........
	64	0.866667	7.53650E-001	9.11793E-005	0.00000E+000	6.87173E-005	5.39641E-002	7.53772E-001	3.57130E+000	9	...........
	65	0.88	7.57044E-001	9.12096E-005	0.00000E+000	6.90496E-005	5.39641E-002	7.57184E-001	3.57130E+000	9	...........
	66	0.893333	7.60406E-001	9.11095E-005	0.00000E+000	6.92803E-005	5.39641E-002	7.60511E-001	3.57130E+000	9	...........
	67	0.906667	7.63707E-001	9.12450E-005	0.00000E+000	6.96845E-005	5.39641E-002	7.63814E-001	3.57130E+000	9	...........
	68	0.92	7.66964E-001	9.11564E-005	0.00000E+000	6.99137E-005	5.39641E-002	7.67104E-001	3.57130E+000	9	...........
	69	0.933333	7.70209E-001	9.12794E-005	0.00000E+000	7.03041E-005	5.39641E-002	7.70326E-001	3.57130E+000	9	...........
	70	0.946667	7.73396E-001	9.11450E-005	0.00000E+000	7.04911E-005	5.39641E-002	7.73486E-001	3.57130E+000	9	...........
	71	0.96	7.76502E-001	9.12262E-005	0.00000E+000	7.08374E-005	5.39641E-002	7.76607E-001	3.57130E+000	9	...........
	72	0.97333	7.79581E-001	9.13106E-005	0.00000E+000	7.11840E-005	5.39641E-002	7.79705E-001	3.57130E+000	9	...........
	73	0.98667	7.82666E-001	9.12033E-005	0.00000E+000	7.13817E-005	5.39641E-002	7.82767E-001	3.57130E+000	9	...........
	74	1	7.85689E-001	9.11158E-005	0.00000E+000	7.15887E-005	5.39641E-002	7.85791E-001	3.57130E+000	9	...........
	75	1.01333	7.88668E-001	9.13221E-005	0.00000E+000	7.20228E-005	5.39641E-002	7.88759E-001	3.57130E+000	9	...........
	76	1.02667	7.91614E-001	9.14065E-005	0.00000E+000	7.23586E-005	5.39641E-002	7.91701E-001	3.57130E+000	9	...........
	77	1.04	7.94536E-001	9.12314E-005	0.00000E+000	7.24867E-005	5.39641E-002	7.94627E-001	3.57130E+000	9	...........
	78	1.05333	7.97396E-001	9.10658E-005	0.00000E+000	7.26155E-005	5.39641E-002	7.97473E-001	3.57130E+000	9	...........
	79	1.06667	8.00217E-001	9.11793E-005	0.00000E+000	7.29633E-005	5.39641E-002	8.00318E-001	3.57130E+000	9	...........
	80	1.08	8.03018E-001	9.11595E-005	0.00000E+000	7.32028E-005	5.39641E-002	8.03083E-001	3.57130E+000	9	...........
	81	1.09333	8.05789E-001	9.13304E-005	0.00000E+000	7.35931E-005	5.39641E-002	8.05875E-001	3.57130E+000	9	...........
	82	1.10667	8.08537E-001	9.10835E-005	0.00000E+000	7.36443E-005	5.39641E-002	8.08600E-001	3.57130E+000	9	...........
	83	1.12	8.11240E-001	9.11752E-005	0.00000E+000	7.39649E-005	5.39641E-002	8.11285E-001	3.57130E+000	9	...........
	84	1.13333	8.13895E-001	9.13773E-005	0.00000E+000	7.43715E-005	5.39641E-002	8.13971E-001	3.57130E+000	9	...........
	85	1.14667	8.16501E-001	9.11158E-005	0.00000E+000	7.43961E-005	5.39641E-002	8.16603E-001	3.57130E+000	9	...........
	86	1.16	8.19142E-001	9.12835E-005	0.00000E+000	7.47741E-005	5.39641E-002	8.19245E-001	3.57130E+000	9	...........
	87	1.17333	8.21736E-001	9.10022E-005	0.00000E+000	7.47798E-005	5.39641E-002	8.21811E-001	3.57145E+000	9	...........
	88	1.18667	8.24275E-001	9.11335E-005	0.00000E+000	7.51190E-005	5.39641E-002	8.24398E-001	3.57150E+000	9	...........
	89	1.2	8.26814E-001	9.12023E-005	0.00000E+000	7.54073E-005	5.39641E-002	8.26910E-001	3.57150E+000	9	...........
	90	1.21333	8.29313E-001	9.11845E-005	0.00000E+000	7.56205E-005	5.39641E-002	8.29405E-001	3.57150E+000	9	...........
	91	1.22667	8.31790E-001	9.11741E-005	0.00000E+000	7.58377E-005	5.39641E-002	8.31906E-001	3.57150E+000	9	...........
	92	1.24	8.34232E-001	9.13096E-005	0.00000E+000	7.61734E-005	5.39641E-002	8.34347E-001	3.57150E+000	9	...........
	93	1.25333	8.36649E-001	9.14388E-005	0.00000E+000	7.65022E-005	5.39641E-002	8.36773E-001	3.57150E+000	9	...........
	94	1.26667	8.39042E-001	9.10522E-005	0.00000E+000	7.63966E-005	5.39641E-002	8.39161E-001	3.57150E+000	9	...........
	95	1.28	8.41405E-001	9.13096E-005	0.00000E+000	7.68283E-005	5.39641E-002	8.41511E-001	3.57150E+000	9	...........
	96	1.29333	8.43763E-001	9.14013E-005	0.00000E+000	7.71210E-005	5.39641E-002	8.43872E-001	3.57150E+000	9	...........
	97	1.30667	8.46100E-001	9.13502E-005	0.00000E+000	7.72914E-005	5.39641E-002	8.46203E-001	3.57150E+000	9	...........
	98	1.32	8.48397E-001	9.11710E-005	0.00000E+000	7.73493E-005	5.39641E-002	8.48509E-001	3.57150E+000	9	...........
	99	1.33333	8.50658E-001	9.14086E-005	0.00000E+000	7.77575E-005	5.39641E-002	8.50776E-001	3.57150E+000	9	...........
	100	1.34667	8.52920E-001	9.09897E-005	0.00000E+000	7.76070E-005	5.39641E-002	8.53026E-001	3.57150E+000	9	...........
	101	1.36	8.55151E-001	9.11627E-005	0.00000E+000	7.79579E-005	5.39641E-002	8.55249E-001	3.57150E+000	9	...........
	102	1.37333	8.57376E-001	9.12408E-005	0.00000E+000	7.82277E-005	5.39641E-002	8.57508E-001	3.57150E+000	9	...........
	103	1.38667	8.59557E-001	9.12095E-005	0.00000E+000	7.83998E-005	5.39641E-002	8.59692E-001	3.57150E+000	9	...........
	104	1.4	8.61731E-001	9.13398E-005	0.00000E+000	7.87103E-005	5.39641E-002	8.61862E-001	3.57150E+000	9	...........
	105	1.41333	8.63848E-001	9.16388E-005	0.00000E+000	7.91620E-005	5.39641E-002	8.63981E-001	3.57150E+000	9	...........
	106	1.42667	8.65974E-001	9.14356E-005	0.00000E+000	7.91809E-005	5.39641E-002	8.66122E-001	3.57150E+000	9	...........
	107	1.44	8.68070E-001	9.10418E-005	0.00000E+000	7.90306E-005	5.39641E-002	8.68232E-001	3.57150E+000	9	...........
	108	1.45333	8.70203E-001	9.11866E-005	0.00000E+000	7.93509E-005	5.39641E-002	8.70354E-001	3.57150E+000	9	...........
	109	1.46667	8.72276E-001	9.11835E-005	0.00000E+000	7.95372E-005	5.39641E-002	8.72416E-001	3.57150E+000	9	...........
	110	1.48	8.74311E-001	9.10970E-005	0.00000E+000	7.96471E-005	5.39641E-002	8.74464E-001	3.57150E+000	9	...........
	111	1.49333	8.76319E-001	9.13450E-005	0.00000E+000	8.00474E-005	5.39641E-002	8.76492E-001	3.57150E+000	9	...........
	112	1.50667	8.78331E-001	9.11752E-005	0.00000E+000	8.00820E-005	5.39641E-002	8.78484E-001	3.57150E+000	9	...........
	113	1.52	8.80308E-001	9.12210E-005	0.00000E+000	8.03026E-005	5.39641E-002	8.80467E-001	3.57150E+000	9	...........
	114	1.53333	8.82305E-001	9.09980E-005	0.00000E+000	8.02880E-005	5.39641E-002	8.82429E-001	3.57150E+000	9	...........
	115	1.54667	8.84286E-001	9.10981E-005	0.00000E+000	8.05567E-005	5.39641E-002	8.84403E-001	3.57150E+000	9	...........
	116	1.56	8.86191E-001	9.13502E-005	0.00000E+000	8.09538E-005	5.39641E-002	8.86357E-001	3.57150E+000	9	...........
	117	1.57333	8.88106E-001	9.15138E-005	0.00000E+000	8.12739E-005	5.39641E-002	8.88291E-001	3.57150E+000	9	...........
	118	1.58667	8.90024E-001	9.13054E-005	0.00000E+000	8.12640E-005	5.39641E-002	8.90191E-001	3.57150E+000	9	...........
	119	1.6	8.91899E-001	9.12366E-005	0.00000E+000	8.13738E-005	5.39641E-002	8.92071E-001	3.57150E+000	9	...........
	120	1.61333	8.93747E-001	9.13783E-005	0.00000E+000	8.16691E-005	5.39641E-002	8.93925E-001	3.57150E+000	9	...........
	121	1.62667	8.95629E-001	9.11762E-005	0.00000E+000	8.16600E-005	5.39641E-002	8.95820E-001	3.57150E+000	9	...........
	122	1.64	8.97504E-001	9.10949E-005	0.00000E+000	8.17581E-005	5.39641E-002	8.97649E-001	3.57150E+000	9	...........
	123	1.65333	8.99296E-001	9.10512E-005	0.00000E+000	8.18820E-005	5.39641E-002	8.99459E-001	3.57150E+000	9	...........
	124	1.66667	9.01114E-001	9.12387E-005	0.00000E+000	8.22165E-005	5.39641E-002	9.01245E-001	3.57150E+000	9	...........
	125	1.68	9.02908E-001	9.13752E-005	0.00000E+000	8.25034E-005	5.39641E-002	9.03042E-001	3.57150E+000	9	...........
	126	1.69333	9.04665E-001	9.12981E-005	0.00000E+000	8.25942E-005	5.39641E-002	9.04834E-001	3.57150E+000	9	...........
	127	1.70667	9.06426E-001	9.11648E-005	0.00000E+000	8.26341E-005	5.39641E-002	9.06565E-001	3.57150E+000	9	...........
	128	1.72	9.08177E-001	9.11491E-005	0.00000E+000	8.27795E-005	5.39641E-002	9.08332E-001	3.57150E+000	9	...........
	129	1.73333	9.09919E-001	9.10397E-005	0.00000E+000	8.28388E-005	5.39641E-002	9.10048E-001	3.57150E+000	9	...........
	130	1.74667	9.11618E-001	9.13127E-005	0.00000E+000	8.32423E-005	5.39641E-002	9.11762E-001	3.57150E+000	9	...........
	131	1.76	9.13309E-001	9.10991E-005	0.00000E+000	8.32016E-005	5.39641E-002	9.13452E-001	3.57150E+000	9	...........
	132	1.77333	9.14971E-001	9.13440E-005	0.00000E+000	8.35771E-005	5.39641E-002	9.15128E-001	3.57150E+000	9	...........
	133	1.78667	9.16636E-001	9.12377E-005	0.00000E+000	8.36318E-005	5.39641E-002	9.16810E-001	3.57150E+000	9	...........
	134	1.8	9.18270E-001	9.11502E-005	0.00000E+000	8.37004E-005	5.39641E-002	9.18458E-001	3.57150E+000	9	...........
	135	1.81333	9.19923E-001	9.13637E-005	0.00000E+000	8.40476E-005	5.39641E-002	9.20095E-001	3.57150E+000	9	...........
	136	1.82667	9.21606E-001	9.14138E-005	0.00000E+000	8.42475E-005	5.39641E-002	9.21724E-001	3.57150E+000	9	...........
	137	1.84	9.23214E-001	9.10887E-005	0.00000E+000	8.40943E-005	5.39641E-002	9.23330E-001	3.57150E+000	9	...........
	138	1.85333	9.24812E-001	9.12794E-005	0.00000E+000	8.44162E-005	5.39641E-002	9.24924E-001	3.57150E+000	9	...........
	139	1.86667	9.26374E-001	9.11408E-005	0.00000E+000	8.44304E-005	5.39641E-002	9.26503E-001	3.57150E+000	9	...........
	140	1.88	9.27934E-001	9.11283E-005	0.00000E+000	8.45611E-005	5.39641E-002	9.28054E-001	3.57150E+000	9	...........
	141	1.89333	9.29459E-001	9.10470E-005	0.00000E+000	8.46244E-005	5.39641E-002	9.29568E-001	3.57150E+000	9	...........
	142	1.90667	9.30992E-001	9.14013E-005	0.00000E+000	8.50938E-005	5.39641E-002	9.31096E-001	3.57150E+000	9	...........
	143	1.92	9.32507E-001	9.11887E-005	0.00000E+000	8.50341E-005	5.39641E-002	9.32628E-001	3.57150E+000	9	...........
	144	1.93333	9.34009E-001	9.12418E-005	0.00000E+000	8.52207E-005	5.39641E-002	9.34148E-001	3.57150E+000	9	...........
	145	1.94667	9.35498E-001	9.11002E-005	0.00000E+000	8.52240E-005	5.39641E-002	9.35633E-001	3.57150E+000	9	...........
	146	1.96	9.36955E-001	9.12252E-005	0.00000E+000	8.54739E-005	5.39641E-002	9.37114E-001	3.57150E+000	9	...........
	147	1.97333	9.38405E-001	9.11648E-005	0.00000E+000	8.55494E-005	5.39641E-002	9.38568E-001	3.57150E+000	9	...........
	148	1.98667	9.39864E-001	9.12460E-005	0.00000E+000	8.57588E-005	5.39641E-002	9.40034E-001	3.57150E+000	9	...........
	149	2	9.41316E-001	9.11637E-005	0.00000E+000	8.58138E-005	5.39641E-002	9.41446E-001	3.57150E+000	9	...........
	150	2.01333	9.42737E-001	9.14711E-005	0.00000E+000	8.62332E-005	5.39641E-002	9.42870E-001	3.57150E+000	9	...........
	151	2.02667	9.44129E-001	9.14033E-005	0.00000E+000	8.62966E-005	5.39641E-002	9.44285E-001	3.57150E+000	9	...........
	152	2.04	9.45525E-001	9.08782E-005	0.00000E+000	8.59276E-005	5.39641E-002	9.45688E-001	3.57150E+000	9	...........
	153	2.05333	9.46954E-001	9.12554E-005	0.00000E+000	8.64146E-005	5.39641E-002	9.47111E-001	3.57150E+000	9	...........
	154	2.06667	9.48336E-001	9.11575E-005	0.00000E+000	8.64479E-005	5.39641E-002	9.48501E-001	3.57150E+000	9	...........
	155	2.08	9.49701E-001	9.14857E-005	0.00000E+000	8.68840E-005	5.39641E-002	9.49865E-001	3.57150E+000	9	...........
	156	2.09333	9.51042E-001	9.09845E-005	0.00000E+000	8.65301E-005	5.39641E-002	9.51224E-001	3.57150E+000	9	...........
	157	2.10667	9.52371E-001	9.13398E-005	0.00000E+000	8.69894E-005	5.39641E-002	9.52545E-001	3.57150E+000	9	...........
	158	2.12	9.53700E-001	9.09272E-005	0.00000E+000	8.67173E-005	5.39641E-002	9.53873E-001	3.57150E+000	9	...........
	159	2.13333	9.55017E-001	9.13533E-005	0.00000E+000	8.72440E-005	5.39641E-002	9.55160E-001	3.57150E+000	9	...........
	160	2.14667	9.56344E-001	9.10918E-005	0.00000E+000	8.71151E-005	5.39641E-002	9.56481E-001	3.57150E+000	9	...........
	161	2.16	9.57632E-001	9.11200E-005	0.00000E+000	8.72593E-005	5.39641E-002	9.57783E-001	3.57150E+000	9	...........
	162	2.17333	9.58918E-001	9.13304E-005	0.00000E+000	8.75784E-005	5.39641E-002	9.59075E-001	3.57112E+000	9	...........
	163	2.18667	9.60200E-001	9.09668E-005	0.00000E+000	8.73463E-005	5.39641E-002	9.60331E-001	3.57100E+000	9	...........
	164	2.2	9.61437E-001	9.10866E-005	0.00000E+000	8.75740E-005	5.39641E-002	9.61605E-001	3.57100E+000	9	...........
	165	2.21333	9.62695E-001	9.11012E-005	0.00000E+000	8.77026E-005	5.39641E-002	9.62845E-001	3.57100E+000	9	...........
	166	2.22667	9.63916E-001	9.10137E-005	0.00000E+000	8.77296E-005	5.39641E-002	9.64068E-001	3.57100E+000	9	...........
	167	2.24	9.65137E-001	9.12158E-005	0.00000E+000	8.80357E-005	5.39641E-002	9.65290E-001	3.57100E+000	9	...........
	168	2.25333	9.66385E-001	9.12231E-005	0.00000E+000	8.81566E-005	5.39641E-002	9.66503E-001	3.57100E+000	9	...........
	169	2.26667	9.67592E-001	9.13002E-005	0.00000E+000	8.83413E-005	5.39641E-002	9.67740E-001	3.57100E+000	9	...........
	170	2.28	9.68794E-001	9.14773E-005	0.00000E+000	8.86227E-005	5.39641E-002	9.68946E-001	3.57100E+000	9	...........
	171	2.29333	9.69979E-001	9.13158E-005	0.00000E+000	8.85744E-005	5.39641E-002	9.70148E-001	3.57100E+000	9	...........
	172	2.30667	9.71148E-001	9.11679E-005	0.00000E+000	8.85375E-005	5.39641E-002	9.71344E-001	3.57100E+000	9	...........
	173	2.32	9.72357E-001	9.12502E-005	0.00000E+000	8.87278E-005	5.39641E-002	9.72522E-001	3.57100E+000	9	...........
	174	2.33333	9.73556E-001	9.10324E-005	0.00000E+000	8.86252E-005	5.39641E-002	9.73693E-001	3.57100E+000	9	...........
	175	2.34667	9.74693E-001	9.12210E-005	0.00000E+000	8.89125E-005	5.39641E-002	9.74833E-001	3.57100E+000	9	...........
	176	2.36	9.75823E-001	9.13304E-005	0.00000E+000	8.91223E-005	5.39641E-002	9.75975E-001	3.57100E+000	9	...........
	177	2.37333	9.76959E-001	9.08772E-005	0.00000E+000	8.87833E-005	5.39641E-002	9.77093E-001	3.57100E+000	9	...........
	178	2.38667	9.78059E-001	9.10762E-005	0.00000E+000	8.90779E-005	5.39641E-002	9.78218E-001	3.57100E+000	9	...........
	179	2.4	9.79206E-001	9.12200E-005	0.00000E+000	8.93231E-005	5.39641E-002	9.79335E-001	3.57100E+000	9	...........
	180	2.41333	9.80299E-001	9.13825E-005	0.00000E+000	8.95822E-005	5.39641E-002	9.80446E-001	3.57100E+000	9	...........
	181	2.42667	9.81384E-001	9.10720E-005	0.00000E+000	8.93766E-005	5.39641E-002	9.81546E-001	3.57100E+000	9	...........
	182	2.44	9.82478E-001	9.09355E-005	0.00000E+000	8.93422E-005	5.39641E-002	9.82630E-001	3.57100E+000	9	...........
	183	2.45333	9.83572E-001	9.13387E-005	0.00000E+000	8.98383E-005	5.39641E-002	9.83684E-001	3.57100E+000	9	...........
	184	2.46667	9.84618E-001	9.11908E-005	0.00000E+000	8.97881E-005	5.39641E-002	9.84779E-001	3.57100E+000	9	...........
	185	2.48	9.85699E-001	9.12158E-005	0.00000E+000	8.99114E-005	5.39641E-002	9.85847E-001	3.57100E+000	9	...........
	186	2.49333	9.86746E-001	9.12325E-005	0.00000E+000	9.00233E-005	5.39641E-002	9.86917E-001	3.57100E+000	9	...........
	187	2.50667	9.87778E-001	9.11970E-005	0.00000E+000	9.00824E-005	5.39641E-002	9.87964E-001	3.57100E+000	9	...........
	188	2.52	9.88836E-001	9.09324E-005	0.00000E+000	8.99172E-005	5.39641E-002	9.88982E-001	3.57100E+000	9	...........
	189	2.53333	9.89841E-001	9.12564E-005	0.00000E+000	9.03294E-005	5.39641E-002	9.90007E-001	3.57100E+000	9	...........
	190	2.54667	9.90851E-001	9.12960E-005	0.00000E+000	9.04608E-005	5.39641E-002	9.91001E-001	3.57100E+000	9	...........
	191	2.56	9.91872E-001	9.14179E-005	0.00000E+000	9.06749E-005	5.39641E-002	9.92022E-001	3.57100E+000	9	...........
	192	2.57333	9.92861E-001	9.12491E-005	0.00000E+000	9.05977E-005	5.39641E-002	9.93049E-001	3.57100E+000	9	...........
	193	2.58667	9.93852E-001	9.14471E-005	0.00000E+000	9.08849E-005	5.39641E-002	9.94035E-001	3.57100E+000	9	...........
	194	2.6	9.94845E-001	9.12095E-005	0.00000E+000	9.07394E-005	5.39641E-002	9.95025E-001	3.57100E+000	9	...........
	195	2.61333	9.95841E-001	9.11585E-005	0.00000E+000	9.07794E-005	5.39641E-002	9.95999E-001	3.57100E+000	9	...........
	196	2.62667	9.96807E-001	9.12221E-005	0.00000E+000	9.09308E-005	5.39641E-002	9.96957E-001	3.57100E+000	9	...........
	197	2.64	9.97799E-001	9.11627E-005	0.00000E+000	9.09620E-005	5.39641E-002	9.97946E-001	3.57100E+000	9	...........
	198	2.65333	9.98747E-001	9.12179E-005	0.00000E+000	9.11036E-005	5.39641E-002	9.98875E-001	3.57100E+000	9	...........
	199	2.66667	9.99706E-001	9.14763E-005	0.00000E+000	9.14494E-005	5.39641E-002	9.99842E-001	3.57100E+000	9	...........
STARTTIMEOFFSET	QUANT	192.9583	Start Time Offset (s)
