EXPLAIN
TAG	PWR800_CHARGE
TITLE	LABEL	PWR Cyclic Charge Discharge (Cell) - Charge Step	Test &Identifier
DATE	LABEL	10-7-2017	Date
TIME	LABEL	15:52:44	Time
NOTES	NOTES	3	&Notes...
	supercap test cell
	0.9mg
	6M KOH
PSTAT	PSTAT	IFC5000-01520	Potentiostat
CAPACITY	QUANT	1.00000E-003	Capacity (A-hr)
CELLTYPE	SELECTOR	1	&Cell Type
WORKINGCONNECTION	SELECTOR	0	&Working Lead
MAXCHARGETIME	VARIABLEANDUNITS	1.00000E+002	s	1.00000E+002	second(s)	Max &Charge Time
CHARGECURRENT	QUANT	9.00000E-005	&Charge Current (A) 
VOLTAGEFINISH	TWOPARAM	F	1.00000E-003	3.60000E+003	&Voltage Finish	 I (A) < 	Max Time(s)
SAMPLETIME	QUANT	1.00000E-002	Sa&mple Period (s)
CHARGESTOPAT1	MULTIPARAM	4	1.00000E+000	Charge Stop At &1	Voltage > Limit	V
CHARGESTOPAT2	MULTIPARAM	0	0.00000E+000	Charge Stop At &2	None	N/A
AESBHCSELECTOR	TOGGLE	F	Save Both Half Cells
IRCOMP	TOGGLE	F	IR &Measure
EOC	QUANT	0	Open Circuit (V)
SEQUENCER	TOGGLE	TRUE	Run as Sequence
PSTATMODEL	IQUANT	53	Pstat Model
PSTATSECTION	LABEL	IFC5000-01520	Pstat Section
PSTATSERIALNO	LABEL	01520	Pstat Serial Number
CTRLMODE	IQUANT	0	Control Mode
ELECTROMETER	IQUANT	1	RE=0 or CS=1
IESTAB	IQUANT	0	I/E Stability
CASPEED	IQUANT	4	Control Amp Speed
CONVENTION	IQUANT	1	Current Convention
ICHRANGE	IQUANT	2	Ich Range
ICHRANGEMODE	TOGGLE	T	Ich Auto Range
ICHOFFSETENABLE	TOGGLE	F	Ich Offset Enable
ICHOFFSET	QUANT	0	Ich Offset (V)
ICHFILTER	IQUANT	1	Ich Filter
VCHRANGE	IQUANT	2	Vch Range
VCHRANGEMODE	TOGGLE	T	Vch Auto Range
VCHOFFSETENABLE	TOGGLE	F	Vch Offset Enable
VCHOFFSET	QUANT	0	Vch Offset (V)
VCHFILTER	IQUANT	1	Vch Filter
IERANGELOWERLIMIT	IQUANT	9	I/E Range Lower Limit
IERANGEMODE	TOGGLE	F	I/E AutoRange
IERANGE	IQUANT	9	I/E Range
ACHSELECT	IQUANT	1	Ach Select
ACHRANGE	IQUANT	2	Ach Range
ACHOFFSETENABLE	TOGGLE	F	Ach Offset Enable
ACHOFFSET	QUANT	0	Ach Offset (V)
ACHFILTER	IQUANT	1	Ach Filter
CABLEID	IQUANT	14	Cable ID
DCCALDATE	LABEL	5-7-2017	DC Calibration Date
ACCALDATE	LABEL	12/3/2015	AC Calibration Date
FRAMEWORKVERSION	QUANT	7.01	Framework Version
INSTRUMENTVERSION	LABEL	4.00	Instrument Version
CURVE	TABLE	166
	Pt	T	Vf	Im	Vu	Pwr	Sig	Ach	Temp	IERange	Over
	#	s	V	A	V	W	V	V	deg C	#	bits
	0	0.013333	2.70939E-001	9.11814E-005	0.00000E+000	2.47046E-005	5.39641E-002	2.70972E-001	3.57260E+000	9	...........
	1	0.026667	2.90666E-001	9.07167E-005	0.00000E+000	2.63683E-005	5.39641E-002	2.90708E-001	3.57260E+000	9	...........
	2	0.04	3.09117E-001	9.10637E-005	0.00000E+000	2.81494E-005	5.39641E-002	3.09158E-001	3.57260E+000	9	...........
	3	0.053333	3.26461E-001	9.10158E-005	0.00000E+000	2.97131E-005	5.39641E-002	3.26509E-001	3.57260E+000	9	...........
	4	0.066667	3.42829E-001	9.07918E-005	0.00000E+000	3.11261E-005	5.39641E-002	3.42871E-001	3.57260E+000	9	...........
	5	0.08	3.58328E-001	9.09428E-005	0.00000E+000	3.25874E-005	5.39641E-002	3.58371E-001	3.57260E+000	9	...........
	6	0.093333	3.73048E-001	9.09845E-005	0.00000E+000	3.39416E-005	5.39641E-002	3.73091E-001	3.57260E+000	9	...........
	7	0.106667	3.87061E-001	9.11293E-005	0.00000E+000	3.52726E-005	5.39641E-002	3.87115E-001	3.57265E+000	9	...........
	8	0.12	4.00437E-001	9.08230E-005	0.00000E+000	3.63689E-005	5.39641E-002	4.00490E-001	3.57290E+000	9	...........
	9	0.133333	4.13220E-001	9.08230E-005	0.00000E+000	3.75298E-005	5.39641E-002	4.13276E-001	3.57290E+000	9	...........
	10	0.146667	4.25462E-001	9.10147E-005	0.00000E+000	3.87233E-005	5.39641E-002	4.25517E-001	3.57290E+000	9	...........
	11	0.16	4.37196E-001	9.08022E-005	0.00000E+000	3.96984E-005	5.39641E-002	4.37251E-001	3.57290E+000	9	...........
	12	0.173333	4.48481E-001	9.09532E-005	0.00000E+000	4.07908E-005	5.39641E-002	4.48537E-001	3.57290E+000	9	...........
	13	0.186667	4.59338E-001	9.08220E-005	0.00000E+000	4.17180E-005	5.39641E-002	4.59392E-001	3.57290E+000	9	...........
	14	0.2	4.69808E-001	9.10616E-005	0.00000E+000	4.27815E-005	5.39641E-002	4.69858E-001	3.57290E+000	9	...........
	15	0.213333	4.79912E-001	9.09970E-005	0.00000E+000	4.36705E-005	5.39641E-002	4.79968E-001	3.57290E+000	9	...........
	16	0.226667	4.89678E-001	9.10741E-005	0.00000E+000	4.45970E-005	5.39641E-002	4.89742E-001	3.57290E+000	9	...........
	17	0.24	4.99126E-001	9.07803E-005	0.00000E+000	4.53108E-005	5.39641E-002	4.99196E-001	3.57290E+000	9	...........
	18	0.253333	5.08287E-001	9.11450E-005	0.00000E+000	4.63278E-005	5.39641E-002	5.08350E-001	3.57290E+000	9	...........
	19	0.266667	5.17155E-001	9.07032E-005	0.00000E+000	4.69076E-005	5.39641E-002	5.17220E-001	3.57290E+000	9	...........
	20	0.28	5.25765E-001	9.09407E-005	0.00000E+000	4.78135E-005	5.39641E-002	5.25825E-001	3.57290E+000	9	...........
	21	0.293333	5.34046E-001	9.08491E-005	0.00000E+000	4.85176E-005	5.39641E-002	5.34109E-001	3.57290E+000	9	...........
	22	0.306667	5.42139E-001	9.11450E-005	0.00000E+000	4.94133E-005	5.39641E-002	5.42214E-001	3.57290E+000	9	...........
	23	0.32	5.50002E-001	9.09126E-005	0.00000E+000	5.00021E-005	5.39641E-002	5.50081E-001	3.57290E+000	9	...........
	24	0.333333	5.57683E-001	9.08282E-005	0.00000E+000	5.06533E-005	5.39641E-002	5.57802E-001	3.57290E+000	9	...........
	25	0.346667	5.65197E-001	9.10772E-005	0.00000E+000	5.14765E-005	5.39641E-002	5.65322E-001	3.57290E+000	9	...........
	26	0.36	5.72486E-001	9.08939E-005	0.00000E+000	5.20354E-005	5.39641E-002	5.72608E-001	3.57290E+000	9	...........
	27	0.373333	5.79598E-001	9.10804E-005	0.00000E+000	5.27900E-005	5.39641E-002	5.79726E-001	3.57290E+000	9	...........
	28	0.386667	5.86534E-001	9.10491E-005	0.00000E+000	5.34034E-005	5.39641E-002	5.86676E-001	3.57290E+000	9	...........
	29	0.4	5.93358E-001	9.11877E-005	0.00000E+000	5.41070E-005	5.39641E-002	5.93460E-001	3.57290E+000	9	...........
	30	0.413333	5.99963E-001	9.11366E-005	0.00000E+000	5.46786E-005	5.39641E-002	6.00087E-001	3.57290E+000	9	...........
	31	0.426667	6.06433E-001	9.09835E-005	0.00000E+000	5.51754E-005	5.39641E-002	6.06565E-001	3.57290E+000	9	...........
	32	0.44	6.12768E-001	9.11804E-005	0.00000E+000	5.58724E-005	5.39641E-002	6.12890E-001	3.57290E+000	9	...........
	33	0.453333	6.19011E-001	9.10699E-005	0.00000E+000	5.63733E-005	5.39641E-002	6.19098E-001	3.57290E+000	9	...........
	34	0.466667	6.25074E-001	9.09324E-005	0.00000E+000	5.68395E-005	5.39641E-002	6.25177E-001	3.57290E+000	9	...........
	35	0.48	6.31007E-001	9.10106E-005	0.00000E+000	5.74283E-005	5.39641E-002	6.31114E-001	3.57290E+000	9	...........
	36	0.493333	6.36793E-001	9.08897E-005	0.00000E+000	5.78779E-005	5.39641E-002	6.36934E-001	3.57290E+000	9	...........
	37	0.506667	6.42528E-001	9.08345E-005	0.00000E+000	5.83637E-005	5.39641E-002	6.42643E-001	3.57290E+000	9	...........
	38	0.52	6.48102E-001	9.09387E-005	0.00000E+000	5.89376E-005	5.39641E-002	6.48223E-001	3.57290E+000	9	...........
	39	0.533333	6.53596E-001	9.10220E-005	0.00000E+000	5.94916E-005	5.39641E-002	6.53719E-001	3.57290E+000	9	...........
	40	0.546667	6.58973E-001	9.09678E-005	0.00000E+000	5.99453E-005	5.39641E-002	6.59118E-001	3.57290E+000	9	...........
	41	0.56	6.64261E-001	9.11210E-005	0.00000E+000	6.05281E-005	5.39641E-002	6.64412E-001	3.57290E+000	9	...........
	42	0.573333	6.69473E-001	9.08220E-005	0.00000E+000	6.08028E-005	5.39641E-002	6.69590E-001	3.57290E+000	9	...........
	43	0.586667	6.74568E-001	9.06980E-005	0.00000E+000	6.11820E-005	5.39641E-002	6.74704E-001	3.57290E+000	9	...........
	44	0.6	6.79606E-001	9.09908E-005	0.00000E+000	6.18379E-005	5.39641E-002	6.79735E-001	3.57290E+000	9	...........
	45	0.613333	6.84549E-001	9.06428E-005	0.00000E+000	6.20495E-005	5.39641E-002	6.84655E-001	3.57290E+000	9	...........
	46	0.626667	6.89433E-001	9.12179E-005	0.00000E+000	6.28886E-005	5.39641E-002	6.89562E-001	3.57290E+000	9	...........
	47	0.64	6.94258E-001	9.09522E-005	0.00000E+000	6.31443E-005	5.39641E-002	6.94375E-001	3.57290E+000	9	...........
	48	0.653333	6.98945E-001	9.09418E-005	0.00000E+000	6.35633E-005	5.39641E-002	6.99084E-001	3.57290E+000	9	...........
	49	0.666667	7.03579E-001	9.11377E-005	0.00000E+000	6.41225E-005	5.39641E-002	7.03713E-001	3.57290E+000	9	...........
	50	0.68	7.08156E-001	9.11481E-005	0.00000E+000	6.45470E-005	5.39641E-002	7.08294E-001	3.57290E+000	9	...........
	51	0.693333	7.12669E-001	9.13367E-005	0.00000E+000	6.50928E-005	5.39641E-002	7.12803E-001	3.57290E+000	9	...........
	52	0.706667	7.17126E-001	9.10199E-005	0.00000E+000	6.52728E-005	5.39641E-002	7.17254E-001	3.57290E+000	9	...........
	53	0.72	7.21527E-001	9.09314E-005	0.00000E+000	6.56094E-005	5.39641E-002	7.21613E-001	3.57290E+000	9	...........
	54	0.733333	7.25822E-001	9.10970E-005	0.00000E+000	6.61203E-005	5.39641E-002	7.25934E-001	3.57290E+000	9	...........
	55	0.746667	7.30106E-001	9.09772E-005	0.00000E+000	6.64230E-005	5.39641E-002	7.30251E-001	3.57290E+000	9	...........
	56	0.76	7.34307E-001	9.10731E-005	0.00000E+000	6.68756E-005	5.39641E-002	7.34463E-001	3.57290E+000	9	...........
	57	0.773333	7.38436E-001	9.11679E-005	0.00000E+000	6.73216E-005	5.39641E-002	7.38576E-001	3.57290E+000	9	...........
	58	0.786667	7.42552E-001	9.09470E-005	0.00000E+000	6.75329E-005	5.39641E-002	7.42703E-001	3.57290E+000	9	...........
	59	0.8	7.46570E-001	9.11054E-005	0.00000E+000	6.80165E-005	5.39641E-002	7.46740E-001	3.57290E+000	9	...........
	60	0.813333	7.50570E-001	9.12502E-005	0.00000E+000	6.84897E-005	5.39641E-002	7.50692E-001	3.57290E+000	9	...........
	61	0.826667	7.54483E-001	9.09470E-005	0.00000E+000	6.86179E-005	5.39641E-002	7.54645E-001	3.57290E+000	9	...........
	62	0.84	7.58418E-001	9.11314E-005	0.00000E+000	6.91157E-005	5.39641E-002	7.58547E-001	3.57290E+000	9	...........
	63	0.853333	7.62253E-001	9.10991E-005	0.00000E+000	6.94406E-005	5.39641E-002	7.62375E-001	3.57290E+000	9	...........
	64	0.866667	7.66046E-001	9.10189E-005	0.00000E+000	6.97246E-005	5.39641E-002	7.66201E-001	3.57290E+000	9	...........
	65	0.88	7.69845E-001	9.12085E-005	0.00000E+000	7.02164E-005	5.39641E-002	7.69981E-001	3.57290E+000	9	...........
	66	0.893333	7.73527E-001	9.10220E-005	0.00000E+000	7.04080E-005	5.39641E-002	7.73670E-001	3.57290E+000	9	...........
	67	0.906667	7.77199E-001	9.07949E-005	0.00000E+000	7.05657E-005	5.39641E-002	7.77342E-001	3.57290E+000	9	...........
	68	0.92	7.80835E-001	9.09949E-005	0.00000E+000	7.10520E-005	5.39641E-002	7.80974E-001	3.57290E+000	9	...........
	69	0.933333	7.84381E-001	9.08491E-005	0.00000E+000	7.12603E-005	5.39641E-002	7.84550E-001	3.57290E+000	9	...........
	70	0.946667	7.87950E-001	9.11064E-005	0.00000E+000	7.17873E-005	5.39641E-002	7.88055E-001	3.57290E+000	9	...........
	71	0.96	7.91408E-001	9.06928E-005	0.00000E+000	7.17750E-005	5.39641E-002	7.91526E-001	3.57290E+000	9	...........
	72	0.97333	7.94926E-001	9.08459E-005	0.00000E+000	7.22158E-005	5.39641E-002	7.95010E-001	3.57290E+000	9	...........
	73	0.98667	7.98324E-001	9.10095E-005	0.00000E+000	7.26551E-005	5.39641E-002	7.98425E-001	3.57290E+000	9	...........
	74	1	8.01705E-001	9.09220E-005	0.00000E+000	7.28926E-005	5.39641E-002	8.01822E-001	3.57290E+000	9	...........
	75	1.01333	8.05038E-001	9.08970E-005	0.00000E+000	7.31755E-005	5.39641E-002	8.05152E-001	3.57290E+000	9	...........
	76	1.02667	8.08351E-001	9.09105E-005	0.00000E+000	7.34877E-005	5.39641E-002	8.08455E-001	3.57290E+000	9	...........
	77	1.04	8.11589E-001	9.11898E-005	0.00000E+000	7.40086E-005	5.39641E-002	8.11736E-001	3.57290E+000	9	...........
	78	1.05333	8.14844E-001	9.11825E-005	0.00000E+000	7.42995E-005	5.39641E-002	8.15002E-001	3.57290E+000	9	...........
	79	1.06667	8.18048E-001	9.11262E-005	0.00000E+000	7.45456E-005	5.39641E-002	8.18226E-001	3.57290E+000	9	...........
	80	1.08	8.21259E-001	9.10939E-005	0.00000E+000	7.48117E-005	5.39641E-002	8.21421E-001	3.57290E+000	9	...........
	81	1.09333	8.24419E-001	9.11720E-005	0.00000E+000	7.51639E-005	5.39641E-002	8.24587E-001	3.57290E+000	9	...........
	82	1.10667	8.27519E-001	9.10439E-005	0.00000E+000	7.53405E-005	5.39641E-002	8.27691E-001	3.57293E+000	9	...........
	83	1.12	8.30600E-001	9.06396E-005	0.00000E+000	7.52853E-005	5.39641E-002	8.30758E-001	3.57310E+000	9	...........
	84	1.13333	8.33640E-001	9.11345E-005	0.00000E+000	7.59734E-005	5.39641E-002	8.33835E-001	3.57310E+000	9	...........
	85	1.14667	8.36671E-001	9.08991E-005	0.00000E+000	7.60526E-005	5.39641E-002	8.36860E-001	3.57310E+000	9	...........
	86	1.16	8.39652E-001	9.13273E-005	0.00000E+000	7.66831E-005	5.39641E-002	8.39817E-001	3.57310E+000	9	...........
	87	1.17333	8.42602E-001	9.08209E-005	0.00000E+000	7.65259E-005	5.39641E-002	8.42747E-001	3.57310E+000	9	...........
	88	1.18667	8.45538E-001	9.10397E-005	0.00000E+000	7.69775E-005	5.39641E-002	8.45686E-001	3.57310E+000	9	...........
	89	1.2	8.48411E-001	9.12794E-005	0.00000E+000	7.74424E-005	5.39641E-002	8.48566E-001	3.57310E+000	9	...........
	90	1.21333	8.51267E-001	9.08032E-005	0.00000E+000	7.72978E-005	5.39641E-002	8.51422E-001	3.57310E+000	9	...........
	91	1.22667	8.54065E-001	9.10335E-005	0.00000E+000	7.77485E-005	5.39641E-002	8.54214E-001	3.57310E+000	9	...........
	92	1.24	8.56862E-001	9.11043E-005	0.00000E+000	7.80638E-005	5.39641E-002	8.57022E-001	3.57310E+000	9	...........
	93	1.25333	8.59632E-001	9.09699E-005	0.00000E+000	7.82006E-005	5.39641E-002	8.59799E-001	3.57310E+000	9	...........
	94	1.26667	8.62373E-001	9.11252E-005	0.00000E+000	7.85838E-005	5.39641E-002	8.62556E-001	3.57310E+000	9	...........
	95	1.28	8.65071E-001	9.11408E-005	0.00000E+000	7.88433E-005	5.39641E-002	8.65267E-001	3.57310E+000	9	...........
	96	1.29333	8.67782E-001	9.10595E-005	0.00000E+000	7.90198E-005	5.39641E-002	8.67967E-001	3.57310E+000	9	...........
	97	1.30667	8.70464E-001	9.12054E-005	0.00000E+000	7.93910E-005	5.39641E-002	8.70636E-001	3.57310E+000	9	...........
	98	1.32	8.73092E-001	9.11054E-005	0.00000E+000	7.95433E-005	5.39641E-002	8.73278E-001	3.57310E+000	9	...........
	99	1.33333	8.75700E-001	9.10470E-005	0.00000E+000	7.97299E-005	5.39641E-002	8.75896E-001	3.57310E+000	9	...........
	100	1.34667	8.78270E-001	9.08636E-005	0.00000E+000	7.98028E-005	5.39641E-002	8.78459E-001	3.57310E+000	9	...........
	101	1.36	8.80798E-001	9.08939E-005	0.00000E+000	8.00592E-005	5.39641E-002	8.80984E-001	3.57310E+000	9	...........
	102	1.37333	8.83325E-001	9.09501E-005	0.00000E+000	8.03385E-005	5.39641E-002	8.83530E-001	3.57310E+000	9	...........
	103	1.38667	8.85833E-001	9.11543E-005	0.00000E+000	8.07475E-005	5.39641E-002	8.86020E-001	3.57310E+000	9	...........
	104	1.4	8.88256E-001	9.08553E-005	0.00000E+000	8.07028E-005	5.39641E-002	8.88464E-001	3.57310E+000	9	...........
	105	1.41333	8.90696E-001	9.10366E-005	0.00000E+000	8.10859E-005	5.39641E-002	8.90914E-001	3.57310E+000	9	...........
	106	1.42667	8.93123E-001	9.11012E-005	0.00000E+000	8.13646E-005	5.39641E-002	8.93327E-001	3.57310E+000	9	...........
	107	1.44	8.95536E-001	9.08543E-005	0.00000E+000	8.13633E-005	5.39641E-002	8.95767E-001	3.57310E+000	9	...........
	108	1.45333	8.97910E-001	9.10085E-005	0.00000E+000	8.17174E-005	5.39641E-002	8.98138E-001	3.57310E+000	9	...........
	109	1.46667	9.00262E-001	9.07928E-005	0.00000E+000	8.17373E-005	5.39641E-002	9.00468E-001	3.57310E+000	9	...........
	110	1.48	9.02595E-001	9.11627E-005	0.00000E+000	8.22830E-005	5.39641E-002	9.02802E-001	3.57310E+000	9	...........
	111	1.49333	9.04892E-001	9.10814E-005	0.00000E+000	8.24188E-005	5.39641E-002	9.05115E-001	3.57310E+000	9	...........
	112	1.50667	9.07157E-001	9.11595E-005	0.00000E+000	8.26960E-005	5.39641E-002	9.07403E-001	3.57310E+000	9	...........
	113	1.52	9.09438E-001	9.10220E-005	0.00000E+000	8.27788E-005	5.39641E-002	9.09663E-001	3.57310E+000	9	...........
	114	1.53333	9.11662E-001	9.10804E-005	0.00000E+000	8.30345E-005	5.39641E-002	9.11904E-001	3.57310E+000	9	...........
	115	1.54667	9.13854E-001	9.09032E-005	0.00000E+000	8.30723E-005	5.39641E-002	9.14078E-001	3.57310E+000	9	...........
	116	1.56	9.16062E-001	9.09241E-005	0.00000E+000	8.32921E-005	5.39641E-002	9.16320E-001	3.57310E+000	9	...........
	117	1.57333	9.18227E-001	9.10106E-005	0.00000E+000	8.35684E-005	5.39641E-002	9.18462E-001	3.57310E+000	9	...........
	118	1.58667	9.20440E-001	9.09918E-005	0.00000E+000	8.37525E-005	5.39641E-002	9.20633E-001	3.57310E+000	9	...........
	119	1.6	9.22599E-001	9.10376E-005	0.00000E+000	8.39912E-005	5.39641E-002	9.22755E-001	3.57310E+000	9	...........
	120	1.61333	9.24681E-001	9.10533E-005	0.00000E+000	8.41952E-005	5.39641E-002	9.24847E-001	3.57310E+000	9	...........
	121	1.62667	9.26731E-001	9.07542E-005	0.00000E+000	8.41048E-005	5.39641E-002	9.26919E-001	3.57310E+000	9	...........
	122	1.64	9.28801E-001	9.09699E-005	0.00000E+000	8.44930E-005	5.39641E-002	9.28948E-001	3.57310E+000	9	...........
	123	1.65333	9.30815E-001	9.10491E-005	0.00000E+000	8.47499E-005	5.39641E-002	9.30970E-001	3.57310E+000	9	...........
	124	1.66667	9.32816E-001	9.10303E-005	0.00000E+000	8.49146E-005	5.39641E-002	9.32966E-001	3.57310E+000	9	...........
	125	1.68	9.34797E-001	9.09199E-005	0.00000E+000	8.49917E-005	5.39641E-002	9.34975E-001	3.57310E+000	9	...........
	126	1.69333	9.36743E-001	9.12398E-005	0.00000E+000	8.54682E-005	5.39641E-002	9.36945E-001	3.57310E+000	9	...........
	127	1.70667	9.38691E-001	9.11304E-005	0.00000E+000	8.55433E-005	5.39641E-002	9.38903E-001	3.57310E+000	9	...........
	128	1.72	9.40597E-001	9.08876E-005	0.00000E+000	8.54886E-005	5.39641E-002	9.40798E-001	3.57310E+000	9	...........
	129	1.73333	9.42467E-001	9.09710E-005	0.00000E+000	8.57372E-005	5.39641E-002	9.42688E-001	3.57310E+000	9	...........
	130	1.74667	9.44352E-001	9.12096E-005	0.00000E+000	8.61339E-005	5.39641E-002	9.44554E-001	3.57310E+000	9	...........
	131	1.76	9.46232E-001	9.08741E-005	0.00000E+000	8.59880E-005	5.39641E-002	9.46428E-001	3.57310E+000	9	...........
	132	1.77333	9.48103E-001	9.12533E-005	0.00000E+000	8.65175E-005	5.39641E-002	9.48281E-001	3.57310E+000	9	...........
	133	1.78667	9.49918E-001	9.09855E-005	0.00000E+000	8.64288E-005	5.39641E-002	9.50085E-001	3.57310E+000	9	...........
	134	1.8	9.51738E-001	9.10251E-005	0.00000E+000	8.66321E-005	5.39641E-002	9.51888E-001	3.57310E+000	9	...........
	135	1.81333	9.53524E-001	9.10283E-005	0.00000E+000	8.67976E-005	5.39641E-002	9.53696E-001	3.57310E+000	9	...........
	136	1.82667	9.55293E-001	9.11335E-005	0.00000E+000	8.70592E-005	5.39641E-002	9.55470E-001	3.57310E+000	9	...........
	137	1.84	9.57060E-001	9.10043E-005	0.00000E+000	8.70966E-005	5.39641E-002	9.57233E-001	3.57310E+000	9	...........
	138	1.85333	9.58791E-001	9.10126E-005	0.00000E+000	8.72621E-005	5.39641E-002	9.58988E-001	3.57310E+000	9	...........
	139	1.86667	9.60519E-001	9.11887E-005	0.00000E+000	8.75885E-005	5.39641E-002	9.60706E-001	3.57310E+000	9	...........
	140	1.88	9.62207E-001	9.09585E-005	0.00000E+000	8.75209E-005	5.39641E-002	9.62408E-001	3.57310E+000	9	...........
	141	1.89333	9.63875E-001	9.12033E-005	0.00000E+000	8.79086E-005	5.39641E-002	9.64098E-001	3.57310E+000	9	...........
	142	1.90667	9.65520E-001	9.12439E-005	0.00000E+000	8.80978E-005	5.39641E-002	9.65753E-001	3.57310E+000	9	...........
	143	1.92	9.67168E-001	9.09835E-005	0.00000E+000	8.79963E-005	5.39641E-002	9.67385E-001	3.57310E+000	9	...........
	144	1.93333	9.68778E-001	9.08209E-005	0.00000E+000	8.79853E-005	5.39641E-002	9.69001E-001	3.57310E+000	9	...........
	145	1.94667	9.70384E-001	9.10543E-005	0.00000E+000	8.83576E-005	5.39641E-002	9.70640E-001	3.57310E+000	9	...........
	146	1.96	9.71991E-001	9.09845E-005	0.00000E+000	8.84361E-005	5.39641E-002	9.72253E-001	3.57310E+000	9	...........
	147	1.97333	9.73608E-001	9.10626E-005	0.00000E+000	8.86593E-005	5.39641E-002	9.73832E-001	3.57310E+000	9	...........
	148	1.98667	9.75201E-001	9.11908E-005	0.00000E+000	8.89293E-005	5.39641E-002	9.75398E-001	3.57310E+000	9	...........
	149	2	9.76741E-001	9.10626E-005	0.00000E+000	8.89446E-005	5.39641E-002	9.76944E-001	3.57310E+000	9	...........
	150	2.01333	9.78306E-001	9.08001E-005	0.00000E+000	8.88302E-005	5.39641E-002	9.78483E-001	3.57310E+000	9	...........
	151	2.02667	9.79815E-001	9.07647E-005	0.00000E+000	8.89326E-005	5.39641E-002	9.80000E-001	3.57310E+000	9	...........
	152	2.04	9.81318E-001	9.09022E-005	0.00000E+000	8.92040E-005	5.39641E-002	9.81521E-001	3.57310E+000	9	...........
	153	2.05333	9.82790E-001	9.09084E-005	0.00000E+000	8.93439E-005	5.39641E-002	9.83001E-001	3.57310E+000	9	...........
	154	2.06667	9.84250E-001	9.07022E-005	0.00000E+000	8.92736E-005	5.39641E-002	9.84480E-001	3.57310E+000	9	...........
	155	2.08	9.85743E-001	9.10095E-005	0.00000E+000	8.97120E-005	5.39641E-002	9.85936E-001	3.57310E+000	9	...........
	156	2.09333	9.87169E-001	9.07615E-005	0.00000E+000	8.95970E-005	5.39641E-002	9.87377E-001	3.57310E+000	9	...........
	157	2.10667	9.88626E-001	9.09157E-005	0.00000E+000	8.98816E-005	5.39641E-002	9.88822E-001	3.57310E+000	9	...........
	158	2.12	9.90027E-001	9.10376E-005	0.00000E+000	9.01298E-005	5.39641E-002	9.90207E-001	3.57310E+000	9	...........
	159	2.13333	9.91403E-001	9.07240E-005	0.00000E+000	8.99441E-005	5.39641E-002	9.91597E-001	3.57310E+000	9	...........
	160	2.14667	9.92763E-001	9.10574E-005	0.00000E+000	9.03985E-005	5.39641E-002	9.93004E-001	3.57310E+000	9	...........
	161	2.16	9.94153E-001	9.09168E-005	0.00000E+000	9.03852E-005	5.39641E-002	9.94349E-001	3.57310E+000	9	...........
	162	2.17333	9.95513E-001	9.10772E-005	0.00000E+000	9.06686E-005	5.39641E-002	9.95672E-001	3.57310E+000	9	...........
	163	2.18667	9.96844E-001	9.09126E-005	0.00000E+000	9.06257E-005	5.39641E-002	9.97036E-001	3.57310E+000	9	...........
	164	2.2	9.98188E-001	9.07709E-005	0.00000E+000	9.06064E-005	5.39641E-002	9.98379E-001	3.57310E+000	9	...........
	165	2.21333	9.99500E-001	9.09605E-005	0.00000E+000	9.09150E-005	5.39641E-002	9.99700E-001	3.57310E+000	9	...........
STARTTIMEOFFSET	QUANT	2701.234	Start Time Offset (s)
