EXPLAIN
TAG	PWR800_CHARGE
TITLE	LABEL	PWR Cyclic Charge Discharge (Cell) - Charge Step	Test &Identifier
DATE	LABEL	10-7-2017	Date
TIME	LABEL	16:02:59	Time
NOTES	NOTES	3	&Notes...
	supercap test cell
	0.9mg
	6M KOH
PSTAT	PSTAT	IFC5000-01520	Potentiostat
CAPACITY	QUANT	1.00000E-003	Capacity (A-hr)
CELLTYPE	SELECTOR	1	&Cell Type
WORKINGCONNECTION	SELECTOR	0	&Working Lead
MAXCHARGETIME	VARIABLEANDUNITS	1.00000E+002	s	1.00000E+002	second(s)	Max &Charge Time
CHARGECURRENT	QUANT	9.00000E-005	&Charge Current (A) 
VOLTAGEFINISH	TWOPARAM	F	1.00000E-003	3.60000E+003	&Voltage Finish	 I (A) < 	Max Time(s)
SAMPLETIME	QUANT	1.00000E-002	Sa&mple Period (s)
CHARGESTOPAT1	MULTIPARAM	4	1.00000E+000	Charge Stop At &1	Voltage > Limit	V
CHARGESTOPAT2	MULTIPARAM	0	0.00000E+000	Charge Stop At &2	None	N/A
AESBHCSELECTOR	TOGGLE	F	Save Both Half Cells
IRCOMP	TOGGLE	F	IR &Measure
EOC	QUANT	0	Open Circuit (V)
SEQUENCER	TOGGLE	TRUE	Run as Sequence
PSTATMODEL	IQUANT	53	Pstat Model
PSTATSECTION	LABEL	IFC5000-01520	Pstat Section
PSTATSERIALNO	LABEL	01520	Pstat Serial Number
CTRLMODE	IQUANT	0	Control Mode
ELECTROMETER	IQUANT	1	RE=0 or CS=1
IESTAB	IQUANT	0	I/E Stability
CASPEED	IQUANT	4	Control Amp Speed
CONVENTION	IQUANT	1	Current Convention
ICHRANGE	IQUANT	2	Ich Range
ICHRANGEMODE	TOGGLE	T	Ich Auto Range
ICHOFFSETENABLE	TOGGLE	F	Ich Offset Enable
ICHOFFSET	QUANT	0	Ich Offset (V)
ICHFILTER	IQUANT	1	Ich Filter
VCHRANGE	IQUANT	2	Vch Range
VCHRANGEMODE	TOGGLE	T	Vch Auto Range
VCHOFFSETENABLE	TOGGLE	F	Vch Offset Enable
VCHOFFSET	QUANT	0	Vch Offset (V)
VCHFILTER	IQUANT	1	Vch Filter
IERANGELOWERLIMIT	IQUANT	9	I/E Range Lower Limit
IERANGEMODE	TOGGLE	F	I/E AutoRange
IERANGE	IQUANT	9	I/E Range
ACHSELECT	IQUANT	1	Ach Select
ACHRANGE	IQUANT	2	Ach Range
ACHOFFSETENABLE	TOGGLE	F	Ach Offset Enable
ACHOFFSET	QUANT	0	Ach Offset (V)
ACHFILTER	IQUANT	1	Ach Filter
CABLEID	IQUANT	14	Cable ID
DCCALDATE	LABEL	5-7-2017	DC Calibration Date
ACCALDATE	LABEL	12/3/2015	AC Calibration Date
FRAMEWORKVERSION	QUANT	7.01	Framework Version
INSTRUMENTVERSION	LABEL	4.00	Instrument Version
CURVE	TABLE	163
	Pt	T	Vf	Im	Vu	Pwr	Sig	Ach	Temp	IERange	Over
	#	s	V	A	V	W	V	V	deg C	#	bits
	0	0.013333	2.90825E-001	9.08991E-005	0.00000E+000	2.64357E-005	5.39641E-002	2.90878E-001	3.57330E+000	9	...........
	1	0.026667	3.10002E-001	9.09230E-005	0.00000E+000	2.81863E-005	5.39641E-002	3.10041E-001	3.57330E+000	9	...........
	2	0.04	3.27895E-001	9.09918E-005	0.00000E+000	2.98358E-005	5.39641E-002	3.27944E-001	3.57330E+000	9	...........
	3	0.053333	3.44702E-001	9.10970E-005	0.00000E+000	3.14014E-005	5.39641E-002	3.44750E-001	3.57330E+000	9	...........
	4	0.066667	3.60554E-001	9.10574E-005	0.00000E+000	3.28311E-005	5.39641E-002	3.60602E-001	3.57330E+000	9	...........
	5	0.08	3.75549E-001	9.10710E-005	0.00000E+000	3.42016E-005	5.39641E-002	3.75594E-001	3.57330E+000	9	...........
	6	0.093333	3.89770E-001	9.08605E-005	0.00000E+000	3.54147E-005	5.39641E-002	3.89815E-001	3.57330E+000	9	...........
	7	0.106667	4.03286E-001	9.10564E-005	0.00000E+000	3.67218E-005	5.39641E-002	4.03338E-001	3.57330E+000	9	...........
	8	0.12	4.16177E-001	9.07782E-005	0.00000E+000	3.77798E-005	5.39641E-002	4.16234E-001	3.57330E+000	9	...........
	9	0.133333	4.28501E-001	9.08803E-005	0.00000E+000	3.89423E-005	5.39641E-002	4.28558E-001	3.57330E+000	9	...........
	10	0.146667	4.40308E-001	9.07553E-005	0.00000E+000	3.99603E-005	5.39641E-002	4.40369E-001	3.57330E+000	9	...........
	11	0.16	4.51635E-001	9.09439E-005	0.00000E+000	4.10734E-005	5.39641E-002	4.51694E-001	3.57330E+000	9	...........
	12	0.173333	4.62522E-001	9.10720E-005	0.00000E+000	4.21228E-005	5.39641E-002	4.62577E-001	3.57330E+000	9	...........
	13	0.186667	4.72988E-001	9.11950E-005	0.00000E+000	4.31341E-005	5.39641E-002	4.73049E-001	3.57330E+000	9	...........
	14	0.2	4.83084E-001	9.12960E-005	0.00000E+000	4.41037E-005	5.39641E-002	4.83145E-001	3.57330E+000	9	...........
	15	0.213333	4.92831E-001	9.08970E-005	0.00000E+000	4.47969E-005	5.39641E-002	4.92896E-001	3.57330E+000	9	...........
	16	0.226667	5.02249E-001	9.11585E-005	0.00000E+000	4.57843E-005	5.39641E-002	5.02313E-001	3.57330E+000	9	...........
	17	0.24	5.11364E-001	9.09376E-005	0.00000E+000	4.65022E-005	5.39641E-002	5.11432E-001	3.57330E+000	9	...........
	18	0.253333	5.20179E-001	9.12502E-005	0.00000E+000	4.74665E-005	5.39641E-002	5.20249E-001	3.57330E+000	9	...........
	19	0.266667	5.28722E-001	9.10481E-005	0.00000E+000	4.81391E-005	5.39641E-002	5.28798E-001	3.57330E+000	9	...........
	20	0.28	5.36943E-001	9.09189E-005	0.00000E+000	4.88182E-005	5.39641E-002	5.37041E-001	3.57330E+000	9	...........
	21	0.293333	5.45022E-001	9.08105E-005	0.00000E+000	4.94937E-005	5.39641E-002	5.45117E-001	3.57330E+000	9	...........
	22	0.306667	5.52854E-001	9.08293E-005	0.00000E+000	5.02154E-005	5.39641E-002	5.52971E-001	3.57330E+000	9	...........
	23	0.32	5.60471E-001	9.11179E-005	0.00000E+000	5.10689E-005	5.39641E-002	5.60621E-001	3.57330E+000	9	...........
	24	0.333333	5.67948E-001	9.11054E-005	0.00000E+000	5.17431E-005	5.39641E-002	5.68081E-001	3.57330E+000	9	...........
	25	0.346667	5.75163E-001	9.10887E-005	0.00000E+000	5.23908E-005	5.39641E-002	5.75312E-001	3.57330E+000	9	...........
	26	0.36	5.82195E-001	9.08241E-005	0.00000E+000	5.28773E-005	5.39641E-002	5.82342E-001	3.57330E+000	9	...........
	27	0.373333	5.89088E-001	9.09814E-005	0.00000E+000	5.35960E-005	5.39641E-002	5.89268E-001	3.57330E+000	9	...........
	28	0.386667	5.95835E-001	9.10074E-005	0.00000E+000	5.42254E-005	5.39641E-002	5.95976E-001	3.57330E+000	9	...........
	29	0.4	6.02414E-001	9.12762E-005	0.00000E+000	5.49861E-005	5.39641E-002	6.02571E-001	3.57330E+000	9	...........
	30	0.413333	6.08820E-001	9.10314E-005	0.00000E+000	5.54217E-005	5.39641E-002	6.08978E-001	3.57330E+000	9	...........
	31	0.426667	6.15161E-001	9.09647E-005	0.00000E+000	5.59580E-005	5.39641E-002	6.15292E-001	3.57330E+000	9	...........
	32	0.44	6.21317E-001	9.10481E-005	0.00000E+000	5.65697E-005	5.39641E-002	6.21419E-001	3.57326E+000	9	...........
	33	0.453333	6.27310E-001	9.10606E-005	0.00000E+000	5.71232E-005	5.39641E-002	6.27436E-001	3.57320E+000	9	...........
	34	0.466667	6.33204E-001	9.10293E-005	0.00000E+000	5.76401E-005	5.39641E-002	6.33318E-001	3.57320E+000	9	...........
	35	0.48	6.38988E-001	9.10324E-005	0.00000E+000	5.81686E-005	5.39641E-002	6.39131E-001	3.57320E+000	9	...........
	36	0.493333	6.44673E-001	9.09981E-005	0.00000E+000	5.86640E-005	5.39641E-002	6.44793E-001	3.57320E+000	9	...........
	37	0.506667	6.50213E-001	9.11189E-005	0.00000E+000	5.92467E-005	5.39641E-002	6.50361E-001	3.57320E+000	9	...........
	38	0.52	6.55711E-001	9.11460E-005	0.00000E+000	5.97655E-005	5.39641E-002	6.55804E-001	3.57320E+000	9	...........
	39	0.533333	6.61043E-001	9.10272E-005	0.00000E+000	6.01729E-005	5.39641E-002	6.61169E-001	3.57320E+000	9	...........
	40	0.546667	6.66310E-001	9.10074E-005	0.00000E+000	6.06392E-005	5.39641E-002	6.66474E-001	3.57320E+000	9	...........
	41	0.56	6.71517E-001	9.10293E-005	0.00000E+000	6.11277E-005	5.39641E-002	6.71625E-001	3.57320E+000	9	...........
	42	0.573333	6.76578E-001	9.12377E-005	0.00000E+000	6.17294E-005	5.39641E-002	6.76699E-001	3.57320E+000	9	...........
	43	0.586667	6.81605E-001	9.10918E-005	0.00000E+000	6.20886E-005	5.39641E-002	6.81710E-001	3.57320E+000	9	...........
	44	0.6	6.86540E-001	9.09407E-005	0.00000E+000	6.24345E-005	5.39641E-002	6.86660E-001	3.57320E+000	9	...........
	45	0.613333	6.91392E-001	9.10689E-005	0.00000E+000	6.29643E-005	5.39641E-002	6.91510E-001	3.57320E+000	9	...........
	46	0.626667	6.96209E-001	9.10074E-005	0.00000E+000	6.33602E-005	5.39641E-002	6.96298E-001	3.57320E+000	9	...........
	47	0.64	7.00870E-001	9.12189E-005	0.00000E+000	6.39327E-005	5.39641E-002	7.00983E-001	3.57320E+000	9	...........
	48	0.653333	7.05485E-001	9.10491E-005	0.00000E+000	6.42337E-005	5.39641E-002	7.05601E-001	3.57320E+000	9	...........
	49	0.666667	7.10033E-001	9.11012E-005	0.00000E+000	6.46848E-005	5.39641E-002	7.10164E-001	3.57320E+000	9	...........
	50	0.68	7.14548E-001	9.10814E-005	0.00000E+000	6.50820E-005	5.39641E-002	7.14669E-001	3.57320E+000	9	...........
	51	0.693333	7.19010E-001	9.11491E-005	0.00000E+000	6.55371E-005	5.39641E-002	7.19129E-001	3.57320E+000	9	...........
	52	0.706667	7.23386E-001	9.10345E-005	0.00000E+000	6.58531E-005	5.39641E-002	7.23503E-001	3.57320E+000	9	...........
	53	0.72	7.27692E-001	9.09918E-005	0.00000E+000	6.62140E-005	5.39641E-002	7.27806E-001	3.57320E+000	9	...........
	54	0.733333	7.31929E-001	9.11606E-005	0.00000E+000	6.67231E-005	5.39641E-002	7.32078E-001	3.57320E+000	9	...........
	55	0.746667	7.36124E-001	9.10553E-005	0.00000E+000	6.70280E-005	5.39641E-002	7.36268E-001	3.57320E+000	9	...........
	56	0.76	7.40293E-001	9.10085E-005	0.00000E+000	6.73729E-005	5.39641E-002	7.40445E-001	3.57320E+000	9	...........
	57	0.773333	7.44413E-001	9.09668E-005	0.00000E+000	6.77168E-005	5.39641E-002	7.44554E-001	3.57320E+000	9	...........
	58	0.786667	7.48449E-001	9.09897E-005	0.00000E+000	6.81012E-005	5.39641E-002	7.48580E-001	3.57320E+000	9	...........
	59	0.8	7.52436E-001	9.08866E-005	0.00000E+000	6.83863E-005	5.39641E-002	7.52595E-001	3.57320E+000	9	...........
	60	0.813333	7.56391E-001	9.11366E-005	0.00000E+000	6.89349E-005	5.39641E-002	7.56535E-001	3.57320E+000	9	...........
	61	0.826667	7.60295E-001	9.10543E-005	0.00000E+000	6.92281E-005	5.39641E-002	7.60402E-001	3.57320E+000	9	...........
	62	0.84	7.64139E-001	9.11252E-005	0.00000E+000	6.96323E-005	5.39641E-002	7.64272E-001	3.57320E+000	9	...........
	63	0.853333	7.67953E-001	9.12825E-005	0.00000E+000	7.01006E-005	5.39641E-002	7.68112E-001	3.57320E+000	9	...........
	64	0.866667	7.71717E-001	9.11481E-005	0.00000E+000	7.03405E-005	5.39641E-002	7.71857E-001	3.57320E+000	9	...........
	65	0.88	7.75434E-001	9.08668E-005	0.00000E+000	7.04612E-005	5.39641E-002	7.75542E-001	3.57320E+000	9	...........
	66	0.893333	7.79091E-001	9.13252E-005	0.00000E+000	7.11506E-005	5.39641E-002	7.79215E-001	3.57320E+000	9	...........
	67	0.906667	7.82737E-001	9.11064E-005	0.00000E+000	7.13124E-005	5.39641E-002	7.82852E-001	3.57320E+000	9	...........
	68	0.92	7.86337E-001	9.09084E-005	0.00000E+000	7.14847E-005	5.39641E-002	7.86421E-001	3.57320E+000	9	...........
	69	0.933333	7.89848E-001	9.09814E-005	0.00000E+000	7.18615E-005	5.39641E-002	7.89981E-001	3.57320E+000	9	...........
	70	0.946667	7.93377E-001	9.09324E-005	0.00000E+000	7.21437E-005	5.39641E-002	7.93511E-001	3.57320E+000	9	...........
	71	0.96	7.96830E-001	9.11668E-005	0.00000E+000	7.26444E-005	5.39641E-002	7.96956E-001	3.57320E+000	9	...........
	72	0.97333	8.00260E-001	9.07855E-005	0.00000E+000	7.26520E-005	5.39641E-002	8.00402E-001	3.57320E+000	9	...........
	73	0.98667	8.03628E-001	9.11845E-005	0.00000E+000	7.32785E-005	5.39641E-002	8.03775E-001	3.57320E+000	9	...........
	74	1	8.06985E-001	9.10658E-005	0.00000E+000	7.34887E-005	5.39641E-002	8.07116E-001	3.57320E+000	9	...........
	75	1.01333	8.10306E-001	9.10168E-005	0.00000E+000	7.37514E-005	5.39641E-002	8.10405E-001	3.57320E+000	9	...........
	76	1.02667	8.13607E-001	9.11304E-005	0.00000E+000	7.41443E-005	5.39641E-002	8.13693E-001	3.57320E+000	9	...........
	77	1.04	8.16858E-001	9.11491E-005	0.00000E+000	7.44559E-005	5.39641E-002	8.16958E-001	3.57320E+000	9	...........
	78	1.05333	8.20102E-001	9.09397E-005	0.00000E+000	7.45798E-005	5.39641E-002	8.20230E-001	3.57320E+000	9	...........
	79	1.06667	8.23297E-001	9.07918E-005	0.00000E+000	7.47486E-005	5.39641E-002	8.23421E-001	3.57320E+000	9	...........
	80	1.08	8.26438E-001	9.07845E-005	0.00000E+000	7.50277E-005	5.39641E-002	8.26592E-001	3.57320E+000	9	...........
	81	1.09333	8.29562E-001	9.09001E-005	0.00000E+000	7.54073E-005	5.39641E-002	8.29681E-001	3.57320E+000	9	...........
	82	1.10667	8.32629E-001	9.09658E-005	0.00000E+000	7.57407E-005	5.39641E-002	8.32792E-001	3.57320E+000	9	...........
	83	1.12	8.35695E-001	9.11939E-005	0.00000E+000	7.62103E-005	5.39641E-002	8.35871E-001	3.57320E+000	9	...........
	84	1.13333	8.38743E-001	9.07980E-005	0.00000E+000	7.61562E-005	5.39641E-002	8.38898E-001	3.57320E+000	9	...........
	85	1.14667	8.41718E-001	9.12794E-005	0.00000E+000	7.68314E-005	5.39641E-002	8.41899E-001	3.57320E+000	9	...........
	86	1.16	8.44710E-001	9.09043E-005	0.00000E+000	7.67878E-005	5.39641E-002	8.44892E-001	3.57320E+000	9	...........
	87	1.17333	8.47649E-001	9.09032E-005	0.00000E+000	7.70540E-005	5.39641E-002	8.47815E-001	3.57320E+000	9	...........
	88	1.18667	8.50543E-001	9.11512E-005	0.00000E+000	7.75280E-005	5.39641E-002	8.50717E-001	3.57320E+000	9	...........
	89	1.2	8.53413E-001	9.11845E-005	0.00000E+000	7.78181E-005	5.39641E-002	8.53574E-001	3.57320E+000	9	...........
	90	1.21333	8.56258E-001	9.11012E-005	0.00000E+000	7.80061E-005	5.39641E-002	8.56406E-001	3.57320E+000	9	...........
	91	1.22667	8.59074E-001	9.09720E-005	0.00000E+000	7.81517E-005	5.39641E-002	8.59237E-001	3.57320E+000	9	...........
	92	1.24	8.61900E-001	9.08449E-005	0.00000E+000	7.82992E-005	5.39641E-002	8.62033E-001	3.57320E+000	9	...........
	93	1.25333	8.64625E-001	9.11002E-005	0.00000E+000	7.87675E-005	5.39641E-002	8.64796E-001	3.57320E+000	9	...........
	94	1.26667	8.67373E-001	9.10366E-005	0.00000E+000	7.89627E-005	5.39641E-002	8.67529E-001	3.57320E+000	9	...........
	95	1.28	8.70126E-001	9.09741E-005	0.00000E+000	7.91589E-005	5.39641E-002	8.70269E-001	3.57320E+000	9	...........
	96	1.29333	8.72833E-001	9.09324E-005	0.00000E+000	7.93688E-005	5.39641E-002	8.73011E-001	3.57320E+000	9	...........
	97	1.30667	8.75506E-001	9.11012E-005	0.00000E+000	7.97597E-005	5.39641E-002	8.75679E-001	3.57320E+000	9	...........
	98	1.32	8.78115E-001	9.09845E-005	0.00000E+000	7.98948E-005	5.39641E-002	8.78288E-001	3.57320E+000	9	...........
	99	1.33333	8.80694E-001	9.10449E-005	0.00000E+000	8.01828E-005	5.39641E-002	8.80874E-001	3.57320E+000	9	...........
	100	1.34667	8.83273E-001	9.09814E-005	0.00000E+000	8.03614E-005	5.39641E-002	8.83442E-001	3.57320E+000	9	...........
	101	1.36	8.85844E-001	9.08543E-005	0.00000E+000	8.04827E-005	5.39641E-002	8.86018E-001	3.57320E+000	9	...........
	102	1.37333	8.88363E-001	9.06396E-005	0.00000E+000	8.05209E-005	5.39641E-002	8.88541E-001	3.57320E+000	9	...........
	103	1.38667	8.90884E-001	9.08887E-005	0.00000E+000	8.09713E-005	5.39641E-002	8.91037E-001	3.57320E+000	9	...........
	104	1.4	8.93387E-001	9.08022E-005	0.00000E+000	8.11214E-005	5.39641E-002	8.93560E-001	3.57320E+000	9	...........
	105	1.41333	8.95856E-001	9.08459E-005	0.00000E+000	8.13849E-005	5.39641E-002	8.96037E-001	3.57320E+000	9	...........
	106	1.42667	8.98298E-001	9.09668E-005	0.00000E+000	8.17153E-005	5.39641E-002	8.98460E-001	3.57320E+000	9	...........
	107	1.44	9.00683E-001	9.08991E-005	0.00000E+000	8.18713E-005	5.39641E-002	9.00882E-001	3.57309E+000	9	...........
	108	1.45333	9.03071E-001	9.09428E-005	0.00000E+000	8.21279E-005	5.39641E-002	9.03262E-001	3.57290E+000	9	...........
	109	1.46667	9.05429E-001	9.12596E-005	0.00000E+000	8.26290E-005	5.39641E-002	9.05593E-001	3.57290E+000	9	...........
	110	1.48	9.07756E-001	9.09803E-005	0.00000E+000	8.25879E-005	5.39641E-002	9.07944E-001	3.57290E+000	9	...........
	111	1.49333	9.10030E-001	9.11325E-005	0.00000E+000	8.29333E-005	5.39641E-002	9.10194E-001	3.57290E+000	9	...........
	112	1.50667	9.12272E-001	9.10106E-005	0.00000E+000	8.30264E-005	5.39641E-002	9.12432E-001	3.57290E+000	9	...........
	113	1.52	9.14517E-001	9.09981E-005	0.00000E+000	8.32193E-005	5.39641E-002	9.14699E-001	3.57290E+000	9	...........
	114	1.53333	9.16732E-001	9.09939E-005	0.00000E+000	8.34170E-005	5.39641E-002	9.16932E-001	3.57290E+000	9	...........
	115	1.54667	9.18941E-001	9.12908E-005	0.00000E+000	8.38909E-005	5.39641E-002	9.19102E-001	3.57290E+000	9	...........
	116	1.56	9.21163E-001	9.10908E-005	0.00000E+000	8.39095E-005	5.39641E-002	9.21303E-001	3.57290E+000	9	...........
	117	1.57333	9.23319E-001	9.11648E-005	0.00000E+000	8.41741E-005	5.39641E-002	9.23477E-001	3.57290E+000	9	...........
	118	1.58667	9.25436E-001	9.08647E-005	0.00000E+000	8.40894E-005	5.39641E-002	9.25607E-001	3.57290E+000	9	...........
	119	1.6	9.27552E-001	9.12095E-005	0.00000E+000	8.46016E-005	5.39641E-002	9.27709E-001	3.57290E+000	9	...........
	120	1.61333	9.29619E-001	9.09730E-005	0.00000E+000	8.45703E-005	5.39641E-002	9.29744E-001	3.57290E+000	9	...........
	121	1.62667	9.31672E-001	9.10418E-005	0.00000E+000	8.48211E-005	5.39641E-002	9.31808E-001	3.57290E+000	9	...........
	122	1.64	9.33705E-001	9.09366E-005	0.00000E+000	8.49080E-005	5.39641E-002	9.33864E-001	3.57290E+000	9	...........
	123	1.65333	9.35739E-001	9.11095E-005	0.00000E+000	8.52547E-005	5.39641E-002	9.35923E-001	3.57290E+000	9	...........
	124	1.66667	9.37747E-001	9.10439E-005	0.00000E+000	8.53761E-005	5.39641E-002	9.37944E-001	3.57290E+000	9	...........
	125	1.68	9.39741E-001	9.10595E-005	0.00000E+000	8.55724E-005	5.39641E-002	9.39928E-001	3.57290E+000	9	...........
	126	1.69333	9.41710E-001	9.12366E-005	0.00000E+000	8.59184E-005	5.39641E-002	9.41869E-001	3.57290E+000	9	...........
	127	1.70667	9.43635E-001	9.09366E-005	0.00000E+000	8.58110E-005	5.39641E-002	9.43790E-001	3.57290E+000	9	...........
	128	1.72	9.45516E-001	9.10220E-005	0.00000E+000	8.60628E-005	5.39641E-002	9.45710E-001	3.57290E+000	9	...........
	129	1.73333	9.47457E-001	9.06709E-005	0.00000E+000	8.59067E-005	5.39641E-002	9.47611E-001	3.57290E+000	9	...........
	130	1.74667	9.49329E-001	9.09835E-005	0.00000E+000	8.63732E-005	5.39641E-002	9.49511E-001	3.57290E+000	9	...........
	131	1.76	9.51165E-001	9.09387E-005	0.00000E+000	8.64977E-005	5.39641E-002	9.51388E-001	3.57290E+000	9	...........
	132	1.77333	9.53005E-001	9.09668E-005	0.00000E+000	8.66918E-005	5.39641E-002	9.53214E-001	3.57290E+000	9	...........
	133	1.78667	9.54827E-001	9.09647E-005	0.00000E+000	8.68556E-005	5.39641E-002	9.55014E-001	3.57290E+000	9	...........
	134	1.8	9.56600E-001	9.09991E-005	0.00000E+000	8.70497E-005	5.39641E-002	9.56799E-001	3.57290E+000	9	...........
	135	1.81333	9.58349E-001	9.09835E-005	0.00000E+000	8.71939E-005	5.39641E-002	9.58559E-001	3.57290E+000	9	...........
	136	1.82667	9.60118E-001	9.06699E-005	0.00000E+000	8.70537E-005	5.39641E-002	9.60308E-001	3.57290E+000	9	...........
	137	1.84	9.61832E-001	9.10835E-005	0.00000E+000	8.76070E-005	5.39641E-002	9.62045E-001	3.57290E+000	9	...........
	138	1.85333	9.63543E-001	9.10189E-005	0.00000E+000	8.77006E-005	5.39641E-002	9.63755E-001	3.57290E+000	9	...........
	139	1.86667	9.65219E-001	9.09095E-005	0.00000E+000	8.77476E-005	5.39641E-002	9.65446E-001	3.57290E+000	9	...........
	140	1.88	9.66930E-001	9.10856E-005	0.00000E+000	8.80734E-005	5.39641E-002	9.67123E-001	3.57290E+000	9	...........
	141	1.89333	9.68598E-001	9.12491E-005	0.00000E+000	8.83837E-005	5.39641E-002	9.68803E-001	3.57290E+000	9	...........
	142	1.90667	9.70243E-001	9.11502E-005	0.00000E+000	8.84378E-005	5.39641E-002	9.70466E-001	3.57290E+000	9	...........
	143	1.92	9.71906E-001	9.09105E-005	0.00000E+000	8.83565E-005	5.39641E-002	9.72125E-001	3.57290E+000	9	...........
	144	1.93333	9.73575E-001	9.12460E-005	0.00000E+000	8.88348E-005	5.39641E-002	9.73764E-001	3.57290E+000	9	...........
	145	1.94667	9.75153E-001	9.09449E-005	0.00000E+000	8.86852E-005	5.39641E-002	9.75332E-001	3.57290E+000	9	...........
	146	1.96	9.76719E-001	9.12418E-005	0.00000E+000	8.91176E-005	5.39641E-002	9.76918E-001	3.57290E+000	9	...........
	147	1.97333	9.78283E-001	9.11095E-005	0.00000E+000	8.91309E-005	5.39641E-002	9.78481E-001	3.57290E+000	9	...........
	148	1.98667	9.79809E-001	9.07595E-005	0.00000E+000	8.89269E-005	5.39641E-002	9.80004E-001	3.57290E+000	9	...........
	149	2	9.81337E-001	9.11491E-005	0.00000E+000	8.94480E-005	5.39641E-002	9.81509E-001	3.57290E+000	9	...........
	150	2.01333	9.82830E-001	9.08324E-005	0.00000E+000	8.92728E-005	5.39641E-002	9.82996E-001	3.57290E+000	9	...........
	151	2.02667	9.84283E-001	9.11481E-005	0.00000E+000	8.97155E-005	5.39641E-002	9.84485E-001	3.57290E+000	9	...........
	152	2.04	9.85743E-001	9.09282E-005	0.00000E+000	8.96319E-005	5.39641E-002	9.85939E-001	3.57290E+000	9	...........
	153	2.05333	9.87188E-001	9.07074E-005	0.00000E+000	8.95452E-005	5.39641E-002	9.87382E-001	3.57290E+000	9	...........
	154	2.06667	9.88637E-001	9.12304E-005	0.00000E+000	9.01937E-005	5.39641E-002	9.88861E-001	3.57290E+000	9	...........
	155	2.08	9.90059E-001	9.09970E-005	0.00000E+000	9.00924E-005	5.39641E-002	9.90264E-001	3.57290E+000	9	...........
	156	2.09333	9.91425E-001	9.11127E-005	0.00000E+000	9.03314E-005	5.39641E-002	9.91637E-001	3.57290E+000	9	...........
	157	2.10667	9.92810E-001	9.12179E-005	0.00000E+000	9.05620E-005	5.39641E-002	9.93022E-001	3.57290E+000	9	...........
	158	2.12	9.94215E-001	9.11616E-005	0.00000E+000	9.06343E-005	5.39641E-002	9.94434E-001	3.57290E+000	9	...........
	159	2.13333	9.95597E-001	9.10168E-005	0.00000E+000	9.06160E-005	5.39641E-002	9.95804E-001	3.57290E+000	9	...........
	160	2.14667	9.96970E-001	9.10481E-005	0.00000E+000	9.07722E-005	5.39641E-002	9.97180E-001	3.57290E+000	9	...........
	161	2.16	9.98317E-001	9.10262E-005	0.00000E+000	9.08729E-005	5.39641E-002	9.98517E-001	3.57290E+000	9	...........
	162	2.17167	9.99559E-001	9.09579E-005	0.00000E+000	9.09177E-005	5.39641E-002	9.99736E-001	3.57290E+000	9	...........
STARTTIMEOFFSET	QUANT	3215.116	Start Time Offset (s)
