EXPLAIN
TAG	PWR800_CHARGE
TITLE	LABEL	PWR Cyclic Charge Discharge (Cell) - Charge Step	Test &Identifier
DATE	LABEL	10-7-2017	Date
TIME	LABEL	15:57:09	Time
NOTES	NOTES	3	&Notes...
	supercap test cell
	0.9mg
	6M KOH
PSTAT	PSTAT	IFC5000-01520	Potentiostat
CAPACITY	QUANT	1.00000E-003	Capacity (A-hr)
CELLTYPE	SELECTOR	1	&Cell Type
WORKINGCONNECTION	SELECTOR	0	&Working Lead
MAXCHARGETIME	VARIABLEANDUNITS	1.00000E+002	s	1.00000E+002	second(s)	Max &Charge Time
CHARGECURRENT	QUANT	9.00000E-005	&Charge Current (A) 
VOLTAGEFINISH	TWOPARAM	F	1.00000E-003	3.60000E+003	&Voltage Finish	 I (A) < 	Max Time(s)
SAMPLETIME	QUANT	1.00000E-002	Sa&mple Period (s)
CHARGESTOPAT1	MULTIPARAM	4	1.00000E+000	Charge Stop At &1	Voltage > Limit	V
CHARGESTOPAT2	MULTIPARAM	0	0.00000E+000	Charge Stop At &2	None	N/A
AESBHCSELECTOR	TOGGLE	F	Save Both Half Cells
IRCOMP	TOGGLE	F	IR &Measure
EOC	QUANT	0	Open Circuit (V)
SEQUENCER	TOGGLE	TRUE	Run as Sequence
PSTATMODEL	IQUANT	53	Pstat Model
PSTATSECTION	LABEL	IFC5000-01520	Pstat Section
PSTATSERIALNO	LABEL	01520	Pstat Serial Number
CTRLMODE	IQUANT	0	Control Mode
ELECTROMETER	IQUANT	1	RE=0 or CS=1
IESTAB	IQUANT	0	I/E Stability
CASPEED	IQUANT	4	Control Amp Speed
CONVENTION	IQUANT	1	Current Convention
ICHRANGE	IQUANT	2	Ich Range
ICHRANGEMODE	TOGGLE	T	Ich Auto Range
ICHOFFSETENABLE	TOGGLE	F	Ich Offset Enable
ICHOFFSET	QUANT	0	Ich Offset (V)
ICHFILTER	IQUANT	1	Ich Filter
VCHRANGE	IQUANT	2	Vch Range
VCHRANGEMODE	TOGGLE	T	Vch Auto Range
VCHOFFSETENABLE	TOGGLE	F	Vch Offset Enable
VCHOFFSET	QUANT	0	Vch Offset (V)
VCHFILTER	IQUANT	1	Vch Filter
IERANGELOWERLIMIT	IQUANT	9	I/E Range Lower Limit
IERANGEMODE	TOGGLE	F	I/E AutoRange
IERANGE	IQUANT	9	I/E Range
ACHSELECT	IQUANT	1	Ach Select
ACHRANGE	IQUANT	2	Ach Range
ACHOFFSETENABLE	TOGGLE	F	Ach Offset Enable
ACHOFFSET	QUANT	0	Ach Offset (V)
ACHFILTER	IQUANT	1	Ach Filter
CABLEID	IQUANT	14	Cable ID
DCCALDATE	LABEL	5-7-2017	DC Calibration Date
ACCALDATE	LABEL	12/3/2015	AC Calibration Date
FRAMEWORKVERSION	QUANT	7.01	Framework Version
INSTRUMENTVERSION	LABEL	4.00	Instrument Version
CURVE	TABLE	165
	Pt	T	Vf	Im	Vu	Pwr	Sig	Ach	Temp	IERange	Over
	#	s	V	A	V	W	V	V	deg C	#	bits
	0	0.013333	2.69163E-001	9.10804E-005	0.00000E+000	2.45155E-005	5.39641E-002	2.69203E-001	3.57330E+000	9	...........
	1	0.026667	2.88918E-001	9.10189E-005	0.00000E+000	2.62970E-005	5.39641E-002	2.88958E-001	3.57330E+000	9	...........
	2	0.04	3.07398E-001	9.07292E-005	0.00000E+000	2.78900E-005	5.39641E-002	3.07444E-001	3.57330E+000	9	...........
	3	0.053333	3.24799E-001	9.08345E-005	0.00000E+000	2.95029E-005	5.39641E-002	3.24845E-001	3.57330E+000	9	...........
	4	0.066667	3.41244E-001	9.09241E-005	0.00000E+000	3.10273E-005	5.39641E-002	3.41293E-001	3.57330E+000	9	...........
	5	0.08	3.56831E-001	9.07053E-005	0.00000E+000	3.23665E-005	5.39641E-002	3.56879E-001	3.57330E+000	9	...........
	6	0.093333	3.71626E-001	9.08272E-005	0.00000E+000	3.37538E-005	5.39641E-002	3.71672E-001	3.57330E+000	9	...........
	7	0.106667	3.85712E-001	9.09647E-005	0.00000E+000	3.50862E-005	5.39641E-002	3.85761E-001	3.57330E+000	9	...........
	8	0.12	3.99156E-001	9.09730E-005	0.00000E+000	3.63124E-005	5.39641E-002	3.99207E-001	3.57330E+000	9	...........
	9	0.133333	4.12003E-001	9.10199E-005	0.00000E+000	3.75005E-005	5.39641E-002	4.12063E-001	3.57330E+000	9	...........
	10	0.146667	4.24300E-001	9.09949E-005	0.00000E+000	3.86092E-005	5.39641E-002	4.24366E-001	3.57330E+000	9	...........
	11	0.16	4.36102E-001	9.08793E-005	0.00000E+000	3.96326E-005	5.39641E-002	4.36162E-001	3.57330E+000	9	...........
	12	0.173333	4.47440E-001	9.06334E-005	0.00000E+000	4.05530E-005	5.39641E-002	4.47506E-001	3.57330E+000	9	...........
	13	0.186667	4.58358E-001	9.09220E-005	0.00000E+000	4.16748E-005	5.39641E-002	4.58418E-001	3.57330E+000	9	...........
	14	0.2	4.68880E-001	9.10012E-005	0.00000E+000	4.26687E-005	5.39641E-002	4.68941E-001	3.57330E+000	9	...........
	15	0.213333	4.79031E-001	9.11356E-005	0.00000E+000	4.36568E-005	5.39641E-002	4.79097E-001	3.57330E+000	9	...........
	16	0.226667	4.88820E-001	9.09095E-005	0.00000E+000	4.44383E-005	5.39641E-002	4.88892E-001	3.57330E+000	9	...........
	17	0.24	4.98296E-001	9.10595E-005	0.00000E+000	4.53746E-005	5.39641E-002	4.98371E-001	3.57330E+000	9	...........
	18	0.253333	5.07477E-001	9.06574E-005	0.00000E+000	4.60066E-005	5.39641E-002	5.07550E-001	3.57330E+000	9	...........
	19	0.266667	5.16375E-001	9.06813E-005	0.00000E+000	4.68255E-005	5.39641E-002	5.16444E-001	3.57330E+000	9	...........
	20	0.28	5.25006E-001	9.11189E-005	0.00000E+000	4.78379E-005	5.39641E-002	5.25079E-001	3.57330E+000	9	...........
	21	0.293333	5.33335E-001	9.10189E-005	0.00000E+000	4.85436E-005	5.39641E-002	5.33406E-001	3.57330E+000	9	...........
	22	0.306667	5.41427E-001	9.10856E-005	0.00000E+000	4.93161E-005	5.39641E-002	5.41540E-001	3.57330E+000	9	...........
	23	0.32	5.49344E-001	9.08814E-005	0.00000E+000	4.99252E-005	5.39641E-002	5.49440E-001	3.57330E+000	9	...........
	24	0.333333	5.57042E-001	9.07199E-005	0.00000E+000	5.05348E-005	5.39641E-002	5.57132E-001	3.57330E+000	9	...........
	25	0.346667	5.64588E-001	9.11585E-005	0.00000E+000	5.14670E-005	5.39641E-002	5.64685E-001	3.57330E+000	9	...........
	26	0.36	5.71892E-001	9.09678E-005	0.00000E+000	5.20237E-005	5.39641E-002	5.71991E-001	3.57330E+000	9	...........
	27	0.373333	5.79032E-001	9.10512E-005	0.00000E+000	5.27215E-005	5.39641E-002	5.79130E-001	3.57330E+000	9	...........
	28	0.386667	5.85959E-001	9.09366E-005	0.00000E+000	5.32851E-005	5.39641E-002	5.86096E-001	3.57330E+000	9	...........
	29	0.4	5.92788E-001	9.10387E-005	0.00000E+000	5.39666E-005	5.39641E-002	5.92905E-001	3.57330E+000	9	...........
	30	0.413333	5.99410E-001	9.11304E-005	0.00000E+000	5.46245E-005	5.39641E-002	5.99541E-001	3.57330E+000	9	...........
	31	0.426667	6.05873E-001	9.08616E-005	0.00000E+000	5.50506E-005	5.39641E-002	6.06017E-001	3.57330E+000	9	...........
	32	0.44	6.12260E-001	9.09303E-005	0.00000E+000	5.56730E-005	5.39641E-002	6.12398E-001	3.57330E+000	9	...........
	33	0.453333	6.18543E-001	9.11127E-005	0.00000E+000	5.63571E-005	5.39641E-002	6.18669E-001	3.57330E+000	9	...........
	34	0.466667	6.24631E-001	9.10231E-005	0.00000E+000	5.68558E-005	5.39641E-002	6.24723E-001	3.57330E+000	9	...........
	35	0.48	6.30574E-001	9.11189E-005	0.00000E+000	5.74573E-005	5.39641E-002	6.30696E-001	3.57330E+000	9	...........
	36	0.493333	6.36398E-001	9.09928E-005	0.00000E+000	5.79077E-005	5.39641E-002	6.36524E-001	3.57330E+000	9	...........
	37	0.506667	6.42164E-001	9.07855E-005	0.00000E+000	5.82992E-005	5.39641E-002	6.42261E-001	3.57330E+000	9	...........
	38	0.52	6.47756E-001	9.11814E-005	0.00000E+000	5.90633E-005	5.39641E-002	6.47877E-001	3.57330E+000	9	...........
	39	0.533333	6.53285E-001	9.09657E-005	0.00000E+000	5.94266E-005	5.39641E-002	6.53388E-001	3.57330E+000	9	...........
	40	0.546667	6.58686E-001	9.08032E-005	0.00000E+000	5.98108E-005	5.39641E-002	6.58809E-001	3.57330E+000	9	...........
	41	0.56	6.63999E-001	9.06751E-005	0.00000E+000	6.02082E-005	5.39641E-002	6.64140E-001	3.57330E+000	9	...........
	42	0.573333	6.69261E-001	9.09439E-005	0.00000E+000	6.08652E-005	5.39641E-002	6.69362E-001	3.57330E+000	9	...........
	43	0.586667	6.74392E-001	9.09637E-005	0.00000E+000	6.13452E-005	5.39641E-002	6.74519E-001	3.57330E+000	9	...........
	44	0.6	6.79453E-001	9.08459E-005	0.00000E+000	6.17255E-005	5.39641E-002	6.79582E-001	3.57330E+000	9	...........
	45	0.613333	6.84411E-001	9.10939E-005	0.00000E+000	6.23456E-005	5.39641E-002	6.84527E-001	3.57330E+000	9	...........
	46	0.626667	6.89319E-001	9.07699E-005	0.00000E+000	6.25694E-005	5.39641E-002	6.89454E-001	3.57330E+000	9	...........
	47	0.64	6.94157E-001	9.07699E-005	0.00000E+000	6.30085E-005	5.39641E-002	6.94279E-001	3.57330E+000	9	...........
	48	0.653333	6.98881E-001	9.09689E-005	0.00000E+000	6.35764E-005	5.39641E-002	6.99013E-001	3.57330E+000	9	...........
	49	0.666667	7.03570E-001	9.09876E-005	0.00000E+000	6.40162E-005	5.39641E-002	7.03712E-001	3.57350E+000	9	...........
	50	0.68	7.08176E-001	9.09397E-005	0.00000E+000	6.44013E-005	5.39641E-002	7.08323E-001	3.57410E+000	9	...........
	51	0.693333	7.12694E-001	9.08032E-005	0.00000E+000	6.47149E-005	5.39641E-002	7.12841E-001	3.57410E+000	9	...........
	52	0.706667	7.17204E-001	9.08491E-005	0.00000E+000	6.51573E-005	5.39641E-002	7.17349E-001	3.57410E+000	9	...........
	53	0.72	7.21617E-001	9.09157E-005	0.00000E+000	6.56063E-005	5.39641E-002	7.21743E-001	3.57410E+000	9	...........
	54	0.733333	7.25950E-001	9.11293E-005	0.00000E+000	6.61553E-005	5.39641E-002	7.26089E-001	3.57410E+000	9	...........
	55	0.746667	7.30248E-001	9.09220E-005	0.00000E+000	6.63956E-005	5.39641E-002	7.30393E-001	3.57410E+000	9	...........
	56	0.76	7.34467E-001	9.10106E-005	0.00000E+000	6.68442E-005	5.39641E-002	7.34598E-001	3.57410E+000	9	...........
	57	0.773333	7.38603E-001	9.10553E-005	0.00000E+000	6.72538E-005	5.39641E-002	7.38765E-001	3.57410E+000	9	...........
	58	0.786667	7.42750E-001	9.09428E-005	0.00000E+000	6.75478E-005	5.39641E-002	7.42911E-001	3.57410E+000	9	...........
	59	0.8	7.46817E-001	9.09345E-005	0.00000E+000	6.79115E-005	5.39641E-002	7.46946E-001	3.57410E+000	9	...........
	60	0.813333	7.50835E-001	9.09314E-005	0.00000E+000	6.82745E-005	5.39641E-002	7.50972E-001	3.57410E+000	9	...........
	61	0.826667	7.54785E-001	9.11804E-005	0.00000E+000	6.88216E-005	5.39641E-002	7.54925E-001	3.57410E+000	9	...........
	62	0.84	7.58709E-001	9.09710E-005	0.00000E+000	6.90205E-005	5.39641E-002	7.58824E-001	3.57410E+000	9	...........
	63	0.853333	7.62567E-001	9.11991E-005	0.00000E+000	6.95454E-005	5.39641E-002	7.62675E-001	3.57410E+000	9	...........
	64	0.866667	7.66363E-001	9.10856E-005	0.00000E+000	6.98046E-005	5.39641E-002	7.66519E-001	3.57410E+000	9	...........
	65	0.88	7.70172E-001	9.10897E-005	0.00000E+000	7.01548E-005	5.39641E-002	7.70291E-001	3.57410E+000	9	...........
	66	0.893333	7.73921E-001	9.11700E-005	0.00000E+000	7.05584E-005	5.39641E-002	7.74007E-001	3.57410E+000	9	...........
	67	0.906667	7.77559E-001	9.13033E-005	0.00000E+000	7.09937E-005	5.39641E-002	7.77702E-001	3.57410E+000	9	...........
	68	0.92	7.81260E-001	9.09345E-005	0.00000E+000	7.10435E-005	5.39641E-002	7.81376E-001	3.57410E+000	9	...........
	69	0.933333	7.84874E-001	9.10908E-005	0.00000E+000	7.14948E-005	5.39641E-002	7.85001E-001	3.57410E+000	9	...........
	70	0.946667	7.88425E-001	9.11095E-005	0.00000E+000	7.18331E-005	5.39641E-002	7.88544E-001	3.57410E+000	9	...........
	71	0.96	7.91953E-001	9.11304E-005	0.00000E+000	7.21710E-005	5.39641E-002	7.92112E-001	3.57410E+000	9	...........
	72	0.97333	7.95467E-001	9.09689E-005	0.00000E+000	7.23627E-005	5.39641E-002	7.95590E-001	3.57410E+000	9	...........
	73	0.98667	7.98897E-001	9.10262E-005	0.00000E+000	7.27205E-005	5.39641E-002	7.98985E-001	3.57410E+000	9	...........
	74	1	8.02303E-001	9.10043E-005	0.00000E+000	7.30130E-005	5.39641E-002	8.02378E-001	3.57410E+000	9	...........
	75	1.01333	8.05660E-001	9.10126E-005	0.00000E+000	7.33253E-005	5.39641E-002	8.05743E-001	3.57410E+000	9	...........
	76	1.02667	8.08987E-001	9.09960E-005	0.00000E+000	7.36145E-005	5.39641E-002	8.09053E-001	3.57410E+000	9	...........
	77	1.04	8.12254E-001	9.09335E-005	0.00000E+000	7.38611E-005	5.39641E-002	8.12333E-001	3.57410E+000	9	...........
	78	1.05333	8.15504E-001	9.10137E-005	0.00000E+000	7.42220E-005	5.39641E-002	8.15616E-001	3.57410E+000	9	...........
	79	1.06667	8.18754E-001	9.08991E-005	0.00000E+000	7.44240E-005	5.39641E-002	8.18871E-001	3.57410E+000	9	...........
	80	1.08	8.21973E-001	9.10595E-005	0.00000E+000	7.48484E-005	5.39641E-002	8.22077E-001	3.57410E+000	9	...........
	81	1.09333	8.25103E-001	9.12387E-005	0.00000E+000	7.52813E-005	5.39641E-002	8.25217E-001	3.57410E+000	9	...........
	82	1.10667	8.28212E-001	9.10376E-005	0.00000E+000	7.53985E-005	5.39641E-002	8.28297E-001	3.57410E+000	9	...........
	83	1.12	8.31281E-001	9.08689E-005	0.00000E+000	7.55376E-005	5.39641E-002	8.31413E-001	3.57410E+000	9	...........
	84	1.13333	8.34310E-001	9.10553E-005	0.00000E+000	7.59684E-005	5.39641E-002	8.34472E-001	3.57410E+000	9	...........
	85	1.14667	8.37345E-001	9.09605E-005	0.00000E+000	7.61653E-005	5.39641E-002	8.37506E-001	3.57410E+000	9	...........
	86	1.16	8.40338E-001	9.10470E-005	0.00000E+000	7.65103E-005	5.39641E-002	8.40507E-001	3.57410E+000	9	...........
	87	1.17333	8.43333E-001	9.09001E-005	0.00000E+000	7.66591E-005	5.39641E-002	8.43512E-001	3.57410E+000	9	...........
	88	1.18667	8.46299E-001	9.09116E-005	0.00000E+000	7.69384E-005	5.39641E-002	8.46477E-001	3.57410E+000	9	...........
	89	1.2	8.49205E-001	9.10658E-005	0.00000E+000	7.73335E-005	5.39641E-002	8.49394E-001	3.57410E+000	9	...........
	90	1.21333	8.52115E-001	9.09803E-005	0.00000E+000	7.75257E-005	5.39641E-002	8.52294E-001	3.57410E+000	9	...........
	91	1.22667	8.54954E-001	9.09418E-005	0.00000E+000	7.77510E-005	5.39641E-002	8.55177E-001	3.57410E+000	9	...........
	92	1.24	8.57800E-001	9.12283E-005	0.00000E+000	7.82556E-005	5.39641E-002	8.58018E-001	3.57410E+000	9	...........
	93	1.25333	8.60617E-001	9.08980E-005	0.00000E+000	7.82284E-005	5.39641E-002	8.60837E-001	3.57410E+000	9	...........
	94	1.26667	8.63396E-001	9.11241E-005	0.00000E+000	7.86762E-005	5.39641E-002	8.63559E-001	3.57410E+000	9	...........
	95	1.28	8.66113E-001	9.11022E-005	0.00000E+000	7.89048E-005	5.39641E-002	8.66308E-001	3.57410E+000	9	...........
	96	1.29333	8.68849E-001	9.09116E-005	0.00000E+000	7.89884E-005	5.39641E-002	8.69046E-001	3.57410E+000	9	...........
	97	1.30667	8.71541E-001	9.10178E-005	0.00000E+000	7.93258E-005	5.39641E-002	8.71714E-001	3.57410E+000	9	...........
	98	1.32	8.74186E-001	9.09220E-005	0.00000E+000	7.94827E-005	5.39641E-002	8.74357E-001	3.57410E+000	9	...........
	99	1.33333	8.76821E-001	9.12575E-005	0.00000E+000	8.00164E-005	5.39641E-002	8.77001E-001	3.57410E+000	9	...........
	100	1.34667	8.79409E-001	9.07709E-005	0.00000E+000	7.98248E-005	5.39641E-002	8.79598E-001	3.57410E+000	9	...........
	101	1.36	8.81996E-001	9.10835E-005	0.00000E+000	8.03353E-005	5.39641E-002	8.82188E-001	3.57410E+000	9	...........
	102	1.37333	8.84551E-001	9.09741E-005	0.00000E+000	8.04712E-005	5.39641E-002	8.84753E-001	3.57410E+000	9	...........
	103	1.38667	8.87069E-001	9.11189E-005	0.00000E+000	8.08288E-005	5.39641E-002	8.87266E-001	3.57410E+000	9	...........
	104	1.4	8.89571E-001	9.11970E-005	0.00000E+000	8.11263E-005	5.39641E-002	8.89755E-001	3.57410E+000	9	...........
	105	1.41333	8.92034E-001	9.10929E-005	0.00000E+000	8.12579E-005	5.39641E-002	8.92237E-001	3.57410E+000	9	...........
	106	1.42667	8.94491E-001	9.08647E-005	0.00000E+000	8.12776E-005	5.39641E-002	8.94694E-001	3.57410E+000	9	...........
	107	1.44	8.96917E-001	9.11356E-005	0.00000E+000	8.17410E-005	5.39641E-002	8.97127E-001	3.57410E+000	9	...........
	108	1.45333	8.99321E-001	9.12825E-005	0.00000E+000	8.20923E-005	5.39641E-002	8.99514E-001	3.57410E+000	9	...........
	109	1.46667	9.01672E-001	9.12491E-005	0.00000E+000	8.22768E-005	5.39641E-002	9.01894E-001	3.57410E+000	9	...........
	110	1.48	9.04019E-001	9.12033E-005	0.00000E+000	8.24495E-005	5.39641E-002	9.04250E-001	3.57410E+000	9	...........
	111	1.49333	9.06340E-001	9.12762E-005	0.00000E+000	8.27273E-005	5.39641E-002	9.06562E-001	3.57410E+000	9	...........
	112	1.50667	9.08670E-001	9.10147E-005	0.00000E+000	8.27023E-005	5.39641E-002	9.08894E-001	3.57410E+000	9	...........
	113	1.52	9.10932E-001	9.08147E-005	0.00000E+000	8.27260E-005	5.39641E-002	9.11158E-001	3.57410E+000	9	...........
	114	1.53333	9.13171E-001	9.08407E-005	0.00000E+000	8.29531E-005	5.39641E-002	9.13404E-001	3.57410E+000	9	...........
	115	1.54667	9.15397E-001	9.09751E-005	0.00000E+000	8.32784E-005	5.39641E-002	9.15650E-001	3.57410E+000	9	...........
	116	1.56	9.17606E-001	9.11971E-005	0.00000E+000	8.36829E-005	5.39641E-002	9.17852E-001	3.57410E+000	9	...........
	117	1.57333	9.19778E-001	9.10376E-005	0.00000E+000	8.37344E-005	5.39641E-002	9.20013E-001	3.57410E+000	9	...........
	118	1.58667	9.21980E-001	9.08011E-005	0.00000E+000	8.37168E-005	5.39641E-002	9.22158E-001	3.57410E+000	9	...........
	119	1.6	9.24104E-001	9.10814E-005	0.00000E+000	8.41687E-005	5.39641E-002	9.24274E-001	3.57410E+000	9	...........
	120	1.61333	9.26199E-001	9.10783E-005	0.00000E+000	8.43566E-005	5.39641E-002	9.26384E-001	3.57410E+000	9	...........
	121	1.62667	9.28293E-001	9.10481E-005	0.00000E+000	8.45193E-005	5.39641E-002	9.28494E-001	3.57410E+000	9	...........
	122	1.64	9.30377E-001	9.09730E-005	0.00000E+000	8.46392E-005	5.39641E-002	9.30550E-001	3.57410E+000	9	...........
	123	1.65333	9.32425E-001	9.10366E-005	0.00000E+000	8.48848E-005	5.39641E-002	9.32595E-001	3.57410E+000	9	...........
	124	1.66667	9.34441E-001	9.09730E-005	0.00000E+000	8.50089E-005	5.39641E-002	9.34655E-001	3.57380E+000	9	...........
	125	1.68	9.36421E-001	9.10481E-005	0.00000E+000	8.52593E-005	5.39641E-002	9.36628E-001	3.57290E+000	9	...........
	126	1.69333	9.38386E-001	9.10668E-005	0.00000E+000	8.54558E-005	5.39641E-002	9.38614E-001	3.57290E+000	9	...........
	127	1.70667	9.40369E-001	9.11877E-005	0.00000E+000	8.57501E-005	5.39641E-002	9.40568E-001	3.57290E+000	9	...........
	128	1.72	9.42287E-001	9.09543E-005	0.00000E+000	8.57051E-005	5.39641E-002	9.42493E-001	3.57290E+000	9	...........
	129	1.73333	9.44209E-001	9.10231E-005	0.00000E+000	8.59448E-005	5.39641E-002	9.44401E-001	3.57290E+000	9	...........
	130	1.74667	9.46111E-001	9.08126E-005	0.00000E+000	8.59188E-005	5.39641E-002	9.46324E-001	3.57290E+000	9	...........
	131	1.76	9.48061E-001	9.10574E-005	0.00000E+000	8.63280E-005	5.39641E-002	9.48224E-001	3.57290E+000	9	...........
	132	1.77333	9.49903E-001	9.09605E-005	0.00000E+000	8.64036E-005	5.39641E-002	9.50088E-001	3.57290E+000	9	...........
	133	1.78667	9.51752E-001	9.10366E-005	0.00000E+000	8.66443E-005	5.39641E-002	9.51943E-001	3.57290E+000	9	...........
	134	1.8	9.53579E-001	9.10939E-005	0.00000E+000	8.68652E-005	5.39641E-002	9.53764E-001	3.57290E+000	9	...........
	135	1.81333	9.55377E-001	9.09366E-005	0.00000E+000	8.68787E-005	5.39641E-002	9.55533E-001	3.57290E+000	9	...........
	136	1.82667	9.57150E-001	9.12210E-005	0.00000E+000	8.73122E-005	5.39641E-002	9.57323E-001	3.57290E+000	9	...........
	137	1.84	9.58880E-001	9.08762E-005	0.00000E+000	8.71393E-005	5.39641E-002	9.59069E-001	3.57290E+000	9	...........
	138	1.85333	9.60599E-001	9.09564E-005	0.00000E+000	8.73726E-005	5.39641E-002	9.60825E-001	3.57290E+000	9	...........
	139	1.86667	9.62321E-001	9.10533E-005	0.00000E+000	8.76225E-005	5.39641E-002	9.62531E-001	3.57290E+000	9	...........
	140	1.88	9.63998E-001	9.10397E-005	0.00000E+000	8.77621E-005	5.39641E-002	9.64243E-001	3.57290E+000	9	...........
	141	1.89333	9.65708E-001	9.10428E-005	0.00000E+000	8.79208E-005	5.39641E-002	9.65926E-001	3.57290E+000	9	...........
	142	1.90667	9.67368E-001	9.13262E-005	0.00000E+000	8.83461E-005	5.39641E-002	9.67615E-001	3.57290E+000	9	...........
	143	1.92	9.69041E-001	9.11366E-005	0.00000E+000	8.83151E-005	5.39641E-002	9.69273E-001	3.57290E+000	9	...........
	144	1.93333	9.70664E-001	9.09137E-005	0.00000E+000	8.82466E-005	5.39641E-002	9.70914E-001	3.57290E+000	9	...........
	145	1.94667	9.72311E-001	9.07147E-005	0.00000E+000	8.82028E-005	5.39641E-002	9.72551E-001	3.57290E+000	9	...........
	146	1.96	9.73926E-001	9.08355E-005	0.00000E+000	8.84671E-005	5.39641E-002	9.74148E-001	3.57290E+000	9	...........
	147	1.97333	9.75519E-001	9.08553E-005	0.00000E+000	8.86311E-005	5.39641E-002	9.75725E-001	3.57290E+000	9	...........
	148	1.98667	9.77084E-001	9.10543E-005	0.00000E+000	8.89677E-005	5.39641E-002	9.77291E-001	3.57290E+000	9	...........
	149	2	9.78646E-001	9.11491E-005	0.00000E+000	8.92027E-005	5.39641E-002	9.78859E-001	3.57290E+000	9	...........
	150	2.01333	9.80187E-001	9.09428E-005	0.00000E+000	8.91410E-005	5.39641E-002	9.80385E-001	3.57290E+000	9	...........
	151	2.02667	9.81713E-001	9.10533E-005	0.00000E+000	8.93882E-005	5.39641E-002	9.81936E-001	3.57290E+000	9	...........
	152	2.04	9.83215E-001	9.11950E-005	0.00000E+000	8.96642E-005	5.39641E-002	9.83431E-001	3.57290E+000	9	...........
	153	2.05333	9.84679E-001	9.08897E-005	0.00000E+000	8.94972E-005	5.39641E-002	9.84907E-001	3.57290E+000	9	...........
	154	2.06667	9.86143E-001	9.08887E-005	0.00000E+000	8.96292E-005	5.39641E-002	9.86380E-001	3.57290E+000	9	...........
	155	2.08	9.87590E-001	9.10022E-005	0.00000E+000	8.98729E-005	5.39641E-002	9.87857E-001	3.57290E+000	9	...........
	156	2.09333	9.89038E-001	9.07897E-005	0.00000E+000	8.97945E-005	5.39641E-002	9.89262E-001	3.57290E+000	9	...........
	157	2.10667	9.90462E-001	9.10283E-005	0.00000E+000	9.01601E-005	5.39641E-002	9.90679E-001	3.57290E+000	9	...........
	158	2.12	9.91866E-001	9.11116E-005	0.00000E+000	9.03705E-005	5.39641E-002	9.92062E-001	3.57290E+000	9	...........
	159	2.13333	9.93251E-001	9.10116E-005	0.00000E+000	9.03974E-005	5.39641E-002	9.93447E-001	3.57290E+000	9	...........
	160	2.14667	9.94617E-001	9.09783E-005	0.00000E+000	9.04885E-005	5.39641E-002	9.94845E-001	3.57290E+000	9	...........
	161	2.16	9.96001E-001	9.09814E-005	0.00000E+000	9.06175E-005	5.39641E-002	9.96226E-001	3.57290E+000	9	...........
	162	2.17333	9.97365E-001	9.08063E-005	0.00000E+000	9.05671E-005	5.39641E-002	9.97607E-001	3.57290E+000	9	...........
	163	2.18667	9.98751E-001	9.08668E-005	0.00000E+000	9.07532E-005	5.39641E-002	9.98979E-001	3.57290E+000	9	...........
	164	2.195	9.99806E-001	9.09310E-005	0.00000E+000	9.09133E-005	5.39641E-002	1.00005E+000	3.57290E+000	9	...........
STARTTIMEOFFSET	QUANT	2923.441	Start Time Offset (s)
