EXPLAIN
TAG	PWR800_CHARGE
TITLE	LABEL	PWR Cyclic Charge Discharge (Cell) - Charge Step	Test &Identifier
DATE	LABEL	10-7-2017	Date
TIME	LABEL	15:58:54	Time
NOTES	NOTES	3	&Notes...
	supercap test cell
	0.9mg
	6M KOH
PSTAT	PSTAT	IFC5000-01520	Potentiostat
CAPACITY	QUANT	1.00000E-003	Capacity (A-hr)
CELLTYPE	SELECTOR	1	&Cell Type
WORKINGCONNECTION	SELECTOR	0	&Working Lead
MAXCHARGETIME	VARIABLEANDUNITS	1.00000E+002	s	1.00000E+002	second(s)	Max &Charge Time
CHARGECURRENT	QUANT	9.00000E-005	&Charge Current (A) 
VOLTAGEFINISH	TWOPARAM	F	1.00000E-003	3.60000E+003	&Voltage Finish	 I (A) < 	Max Time(s)
SAMPLETIME	QUANT	1.00000E-002	Sa&mple Period (s)
CHARGESTOPAT1	MULTIPARAM	4	1.00000E+000	Charge Stop At &1	Voltage > Limit	V
CHARGESTOPAT2	MULTIPARAM	0	0.00000E+000	Charge Stop At &2	None	N/A
AESBHCSELECTOR	TOGGLE	F	Save Both Half Cells
IRCOMP	TOGGLE	F	IR &Measure
EOC	QUANT	0	Open Circuit (V)
SEQUENCER	TOGGLE	TRUE	Run as Sequence
PSTATMODEL	IQUANT	53	Pstat Model
PSTATSECTION	LABEL	IFC5000-01520	Pstat Section
PSTATSERIALNO	LABEL	01520	Pstat Serial Number
CTRLMODE	IQUANT	0	Control Mode
ELECTROMETER	IQUANT	1	RE=0 or CS=1
IESTAB	IQUANT	0	I/E Stability
CASPEED	IQUANT	4	Control Amp Speed
CONVENTION	IQUANT	1	Current Convention
ICHRANGE	IQUANT	2	Ich Range
ICHRANGEMODE	TOGGLE	T	Ich Auto Range
ICHOFFSETENABLE	TOGGLE	F	Ich Offset Enable
ICHOFFSET	QUANT	0	Ich Offset (V)
ICHFILTER	IQUANT	1	Ich Filter
VCHRANGE	IQUANT	2	Vch Range
VCHRANGEMODE	TOGGLE	T	Vch Auto Range
VCHOFFSETENABLE	TOGGLE	F	Vch Offset Enable
VCHOFFSET	QUANT	0	Vch Offset (V)
VCHFILTER	IQUANT	1	Vch Filter
IERANGELOWERLIMIT	IQUANT	9	I/E Range Lower Limit
IERANGEMODE	TOGGLE	F	I/E AutoRange
IERANGE	IQUANT	9	I/E Range
ACHSELECT	IQUANT	1	Ach Select
ACHRANGE	IQUANT	2	Ach Range
ACHOFFSETENABLE	TOGGLE	F	Ach Offset Enable
ACHOFFSET	QUANT	0	Ach Offset (V)
ACHFILTER	IQUANT	1	Ach Filter
CABLEID	IQUANT	14	Cable ID
DCCALDATE	LABEL	5-7-2017	DC Calibration Date
ACCALDATE	LABEL	12/3/2015	AC Calibration Date
FRAMEWORKVERSION	QUANT	7.01	Framework Version
INSTRUMENTVERSION	LABEL	4.00	Instrument Version
CURVE	TABLE	164
	Pt	T	Vf	Im	Vu	Pwr	Sig	Ach	Temp	IERange	Over
	#	s	V	A	V	W	V	V	deg C	#	bits
	0	0.013333	2.67464E-001	9.08209E-005	0.00000E+000	2.42914E-005	5.39641E-002	2.67508E-001	3.57310E+000	9	...........
	1	0.026667	2.87234E-001	9.09543E-005	0.00000E+000	2.61252E-005	5.39641E-002	2.87272E-001	3.57310E+000	9	...........
	2	0.04	3.05755E-001	9.07511E-005	0.00000E+000	2.77476E-005	5.39641E-002	3.05793E-001	3.57310E+000	9	...........
	3	0.053333	3.23189E-001	9.08178E-005	0.00000E+000	2.93513E-005	5.39641E-002	3.23229E-001	3.57310E+000	9	...........
	4	0.066667	3.39666E-001	9.10668E-005	0.00000E+000	3.09323E-005	5.39641E-002	3.39712E-001	3.57310E+000	9	...........
	5	0.08	3.55299E-001	9.09001E-005	0.00000E+000	3.22967E-005	5.39641E-002	3.55336E-001	3.57310E+000	9	...........
	6	0.093333	3.70137E-001	9.10106E-005	0.00000E+000	3.36863E-005	5.39641E-002	3.70185E-001	3.57310E+000	9	...........
	7	0.106667	3.84280E-001	9.09730E-005	0.00000E+000	3.49592E-005	5.39641E-002	3.84325E-001	3.57310E+000	9	...........
	8	0.12	3.97774E-001	9.10220E-005	0.00000E+000	3.62062E-005	5.39641E-002	3.97820E-001	3.57310E+000	9	...........
	9	0.133333	4.10666E-001	9.11887E-005	0.00000E+000	3.74481E-005	5.39641E-002	4.10720E-001	3.57310E+000	9	...........
	10	0.146667	4.23024E-001	9.09480E-005	0.00000E+000	3.84732E-005	5.39641E-002	4.23084E-001	3.57310E+000	9	...........
	11	0.16	4.34875E-001	9.10043E-005	0.00000E+000	3.95755E-005	5.39641E-002	4.34933E-001	3.57310E+000	9	...........
	12	0.173333	4.46264E-001	9.10679E-005	0.00000E+000	4.06403E-005	5.39641E-002	4.46325E-001	3.57310E+000	9	...........
	13	0.186667	4.57220E-001	9.11231E-005	0.00000E+000	4.16633E-005	5.39641E-002	4.57275E-001	3.57310E+000	9	...........
	14	0.2	4.67774E-001	9.09470E-005	0.00000E+000	4.25426E-005	5.39641E-002	4.67835E-001	3.57310E+000	9	...........
	15	0.213333	4.77965E-001	9.09262E-005	0.00000E+000	4.34596E-005	5.39641E-002	4.78028E-001	3.57310E+000	9	...........
	16	0.226667	4.87816E-001	9.11116E-005	0.00000E+000	4.44457E-005	5.39641E-002	4.87878E-001	3.57310E+000	9	...........
	17	0.24	4.97323E-001	9.10658E-005	0.00000E+000	4.52891E-005	5.39641E-002	4.97392E-001	3.57310E+000	9	...........
	18	0.253333	5.06546E-001	9.11231E-005	0.00000E+000	4.61581E-005	5.39641E-002	5.06614E-001	3.57310E+000	9	...........
	19	0.266667	5.15486E-001	9.09605E-005	0.00000E+000	4.68889E-005	5.39641E-002	5.15552E-001	3.57310E+000	9	...........
	20	0.28	5.24146E-001	9.11533E-005	0.00000E+000	4.77776E-005	5.39641E-002	5.24215E-001	3.57310E+000	9	...........
	21	0.293333	5.32488E-001	9.09564E-005	0.00000E+000	4.84332E-005	5.39641E-002	5.32569E-001	3.57310E+000	9	...........
	22	0.306667	5.40622E-001	9.08762E-005	0.00000E+000	4.91297E-005	5.39641E-002	5.40721E-001	3.57310E+000	9	...........
	23	0.32	5.48579E-001	9.10731E-005	0.00000E+000	4.99608E-005	5.39641E-002	5.48651E-001	3.57310E+000	9	...........
	24	0.333333	5.56296E-001	9.09105E-005	0.00000E+000	5.05731E-005	5.39641E-002	5.56410E-001	3.57310E+000	9	...........
	25	0.346667	5.63872E-001	9.10741E-005	0.00000E+000	5.13542E-005	5.39641E-002	5.63980E-001	3.57310E+000	9	...........
	26	0.36	5.71215E-001	9.09189E-005	0.00000E+000	5.19342E-005	5.39641E-002	5.71310E-001	3.57310E+000	9	...........
	27	0.373333	5.78350E-001	9.10043E-005	0.00000E+000	5.26324E-005	5.39641E-002	5.78488E-001	3.57310E+000	9	...........
	28	0.386667	5.85364E-001	9.11085E-005	0.00000E+000	5.33316E-005	5.39641E-002	5.85478E-001	3.57310E+000	9	...........
	29	0.4	5.92204E-001	9.11241E-005	0.00000E+000	5.39641E-005	5.39641E-002	5.92335E-001	3.57310E+000	9	...........
	30	0.413333	5.98872E-001	9.11450E-005	0.00000E+000	5.45841E-005	5.39641E-002	5.99012E-001	3.57310E+000	9	...........
	31	0.426667	6.05384E-001	9.11950E-005	0.00000E+000	5.52080E-005	5.39641E-002	6.05537E-001	3.57310E+000	9	...........
	32	0.44	6.11760E-001	9.10845E-005	0.00000E+000	5.57219E-005	5.39641E-002	6.11911E-001	3.57310E+000	9	...........
	33	0.453333	6.18065E-001	9.09991E-005	0.00000E+000	5.62433E-005	5.39641E-002	6.18168E-001	3.57310E+000	9	...........
	34	0.466667	6.24167E-001	9.07178E-005	0.00000E+000	5.66231E-005	5.39641E-002	6.24293E-001	3.57310E+000	9	...........
	35	0.48	6.30153E-001	9.11616E-005	0.00000E+000	5.74458E-005	5.39641E-002	6.30273E-001	3.57310E+000	9	...........
	36	0.493333	6.36006E-001	9.08136E-005	0.00000E+000	5.77581E-005	5.39641E-002	6.36142E-001	3.57310E+000	9	...........
	37	0.506667	6.41810E-001	9.12189E-005	0.00000E+000	5.85452E-005	5.39641E-002	6.41934E-001	3.57310E+000	9	...........
	38	0.52	6.47441E-001	9.10981E-005	0.00000E+000	5.89806E-005	5.39641E-002	6.47578E-001	3.57310E+000	9	...........
	39	0.533333	6.52998E-001	9.10345E-005	0.00000E+000	5.94453E-005	5.39641E-002	6.53153E-001	3.57310E+000	9	...........
	40	0.546667	6.58446E-001	9.11335E-005	0.00000E+000	6.00065E-005	5.39641E-002	6.58572E-001	3.57310E+000	9	...........
	41	0.56	6.63804E-001	9.08428E-005	0.00000E+000	6.03018E-005	5.39641E-002	6.63957E-001	3.57316E+000	9	...........
	42	0.573333	6.69135E-001	9.10595E-005	0.00000E+000	6.09311E-005	5.39641E-002	6.69243E-001	3.57360E+000	9	...........
	43	0.586667	6.74281E-001	9.09532E-005	0.00000E+000	6.13280E-005	5.39641E-002	6.74397E-001	3.57360E+000	9	...........
	44	0.6	6.79374E-001	9.13085E-005	0.00000E+000	6.20326E-005	5.39641E-002	6.79499E-001	3.57360E+000	9	...........
	45	0.613333	6.84357E-001	9.07345E-005	0.00000E+000	6.20947E-005	5.39641E-002	6.84473E-001	3.57360E+000	9	...........
	46	0.626667	6.89254E-001	9.09908E-005	0.00000E+000	6.27157E-005	5.39641E-002	6.89383E-001	3.57360E+000	9	...........
	47	0.64	6.94117E-001	9.09939E-005	0.00000E+000	6.31604E-005	5.39641E-002	6.94209E-001	3.57360E+000	9	...........
	48	0.653333	6.98862E-001	9.11981E-005	0.00000E+000	6.37349E-005	5.39641E-002	6.98982E-001	3.57360E+000	9	...........
	49	0.666667	7.03553E-001	9.11564E-005	0.00000E+000	6.41333E-005	5.39641E-002	7.03683E-001	3.57360E+000	9	...........
	50	0.68	7.08167E-001	9.12627E-005	0.00000E+000	6.46292E-005	5.39641E-002	7.08325E-001	3.57360E+000	9	...........
	51	0.693333	7.12716E-001	9.09168E-005	0.00000E+000	6.47979E-005	5.39641E-002	7.12866E-001	3.57360E+000	9	...........
	52	0.706667	7.17203E-001	9.07709E-005	0.00000E+000	6.51012E-005	5.39641E-002	7.17376E-001	3.57360E+000	9	...........
	53	0.72	7.21662E-001	9.10262E-005	0.00000E+000	6.56901E-005	5.39641E-002	7.21821E-001	3.57360E+000	9	...........
	54	0.733333	7.26020E-001	9.10345E-005	0.00000E+000	6.60928E-005	5.39641E-002	7.26163E-001	3.57360E+000	9	...........
	55	0.746667	7.30310E-001	9.10564E-005	0.00000E+000	6.64994E-005	5.39641E-002	7.30486E-001	3.57360E+000	9	...........
	56	0.76	7.34569E-001	9.10960E-005	0.00000E+000	6.69163E-005	5.39641E-002	7.34711E-001	3.57360E+000	9	...........
	57	0.773333	7.38741E-001	9.10835E-005	0.00000E+000	6.72871E-005	5.39641E-002	7.38900E-001	3.57360E+000	9	...........
	58	0.786667	7.42921E-001	9.08814E-005	0.00000E+000	6.75177E-005	5.39641E-002	7.43053E-001	3.57360E+000	9	...........
	59	0.8	7.46971E-001	9.11064E-005	0.00000E+000	6.80539E-005	5.39641E-002	7.47126E-001	3.57360E+000	9	...........
	60	0.813333	7.51009E-001	9.09105E-005	0.00000E+000	6.82746E-005	5.39641E-002	7.51124E-001	3.57360E+000	9	...........
	61	0.826667	7.54979E-001	9.09783E-005	0.00000E+000	6.86867E-005	5.39641E-002	7.55091E-001	3.57360E+000	9	...........
	62	0.84	7.58907E-001	9.12346E-005	0.00000E+000	6.92385E-005	5.39641E-002	7.59037E-001	3.57360E+000	9	...........
	63	0.853333	7.62787E-001	9.10689E-005	0.00000E+000	6.94662E-005	5.39641E-002	7.62905E-001	3.57360E+000	9	...........
	64	0.866667	7.66615E-001	9.09376E-005	0.00000E+000	6.97141E-005	5.39641E-002	7.66746E-001	3.57360E+000	9	...........
	65	0.88	7.70416E-001	9.09491E-005	0.00000E+000	7.00686E-005	5.39641E-002	7.70546E-001	3.57360E+000	9	...........
	66	0.893333	7.74163E-001	9.10939E-005	0.00000E+000	7.05215E-005	5.39641E-002	7.74279E-001	3.57360E+000	9	...........
	67	0.906667	7.77853E-001	9.10501E-005	0.00000E+000	7.08236E-005	5.39641E-002	7.77975E-001	3.57360E+000	9	...........
	68	0.92	7.81537E-001	9.09543E-005	0.00000E+000	7.10841E-005	5.39641E-002	7.81661E-001	3.57360E+000	9	...........
	69	0.933333	7.85150E-001	9.11845E-005	0.00000E+000	7.15936E-005	5.39641E-002	7.85251E-001	3.57360E+000	9	...........
	70	0.946667	7.88720E-001	9.10887E-005	0.00000E+000	7.18435E-005	5.39641E-002	7.88825E-001	3.57360E+000	9	...........
	71	0.96	7.92260E-001	9.09199E-005	0.00000E+000	7.20322E-005	5.39641E-002	7.92399E-001	3.57360E+000	9	...........
	72	0.97333	7.95789E-001	9.08980E-005	0.00000E+000	7.23357E-005	5.39641E-002	7.95896E-001	3.57360E+000	9	...........
	73	0.98667	7.99231E-001	9.10168E-005	0.00000E+000	7.27434E-005	5.39641E-002	7.99363E-001	3.57360E+000	9	...........
	74	1	8.02626E-001	9.12273E-005	0.00000E+000	7.32213E-005	5.39641E-002	8.02754E-001	3.57360E+000	9	...........
	75	1.01333	8.05986E-001	9.10543E-005	0.00000E+000	7.33885E-005	5.39641E-002	8.06133E-001	3.57360E+000	9	...........
	76	1.02667	8.09303E-001	9.09470E-005	0.00000E+000	7.36037E-005	5.39641E-002	8.09466E-001	3.57360E+000	9	...........
	77	1.04	8.12628E-001	9.10376E-005	0.00000E+000	7.39797E-005	5.39641E-002	8.12776E-001	3.57360E+000	9	...........
	78	1.05333	8.15912E-001	9.09001E-005	0.00000E+000	7.41665E-005	5.39641E-002	8.16052E-001	3.57360E+000	9	...........
	79	1.06667	8.19178E-001	9.11762E-005	0.00000E+000	7.46895E-005	5.39641E-002	8.19317E-001	3.57360E+000	9	...........
	80	1.08	8.22423E-001	9.09262E-005	0.00000E+000	7.47798E-005	5.39641E-002	8.22552E-001	3.57360E+000	9	...........
	81	1.09333	8.25608E-001	9.09074E-005	0.00000E+000	7.50539E-005	5.39641E-002	8.25746E-001	3.57360E+000	9	...........
	82	1.10667	8.28779E-001	9.09157E-005	0.00000E+000	7.53491E-005	5.39641E-002	8.28886E-001	3.57360E+000	9	...........
	83	1.12	8.31881E-001	9.11804E-005	0.00000E+000	7.58513E-005	5.39641E-002	8.32030E-001	3.57360E+000	9	...........
	84	1.13333	8.34966E-001	9.10574E-005	0.00000E+000	7.60299E-005	5.39641E-002	8.35135E-001	3.57360E+000	9	...........
	85	1.14667	8.38029E-001	9.10106E-005	0.00000E+000	7.62695E-005	5.39641E-002	8.38193E-001	3.57360E+000	9	...........
	86	1.16	8.41069E-001	9.10856E-005	0.00000E+000	7.66092E-005	5.39641E-002	8.41247E-001	3.57360E+000	9	...........
	87	1.17333	8.44113E-001	9.09022E-005	0.00000E+000	7.67318E-005	5.39641E-002	8.44270E-001	3.57360E+000	9	...........
	88	1.18667	8.47111E-001	9.10606E-005	0.00000E+000	7.71384E-005	5.39641E-002	8.47269E-001	3.57360E+000	9	...........
	89	1.2	8.50039E-001	9.12054E-005	0.00000E+000	7.75282E-005	5.39641E-002	8.50188E-001	3.57360E+000	9	...........
	90	1.21333	8.52953E-001	9.10783E-005	0.00000E+000	7.76855E-005	5.39641E-002	8.53111E-001	3.57360E+000	9	...........
	91	1.22667	8.55814E-001	9.10814E-005	0.00000E+000	7.79487E-005	5.39641E-002	8.56017E-001	3.57360E+000	9	...........
	92	1.24	8.58668E-001	9.09991E-005	0.00000E+000	7.81380E-005	5.39641E-002	8.58878E-001	3.57360E+000	9	...........
	93	1.25333	8.61511E-001	9.11637E-005	0.00000E+000	7.85385E-005	5.39641E-002	8.61701E-001	3.57360E+000	9	...........
	94	1.26667	8.64250E-001	9.11231E-005	0.00000E+000	7.87531E-005	5.39641E-002	8.64452E-001	3.57360E+000	9	...........
	95	1.28	8.67021E-001	9.08772E-005	0.00000E+000	7.87924E-005	5.39641E-002	8.67239E-001	3.57360E+000	9	...........
	96	1.29333	8.69780E-001	9.10168E-005	0.00000E+000	7.91646E-005	5.39641E-002	8.69984E-001	3.57360E+000	9	...........
	97	1.30667	8.72469E-001	9.12231E-005	0.00000E+000	7.95893E-005	5.39641E-002	8.72674E-001	3.57360E+000	9	...........
	98	1.32	8.75126E-001	9.10553E-005	0.00000E+000	7.96849E-005	5.39641E-002	8.75333E-001	3.57360E+000	9	...........
	99	1.33333	8.77791E-001	9.10303E-005	0.00000E+000	7.99056E-005	5.39641E-002	8.77983E-001	3.57360E+000	9	...........
	100	1.34667	8.80399E-001	9.09449E-005	0.00000E+000	8.00678E-005	5.39641E-002	8.80606E-001	3.57360E+000	9	...........
	101	1.36	8.83019E-001	9.10293E-005	0.00000E+000	8.03806E-005	5.39641E-002	8.83196E-001	3.57360E+000	9	...........
	102	1.37333	8.85574E-001	9.06678E-005	0.00000E+000	8.02930E-005	5.39641E-002	8.85748E-001	3.57360E+000	9	...........
	103	1.38667	8.88118E-001	9.10543E-005	0.00000E+000	8.08670E-005	5.39641E-002	8.88293E-001	3.57360E+000	9	...........
	104	1.4	8.90638E-001	9.09449E-005	0.00000E+000	8.09990E-005	5.39641E-002	8.90837E-001	3.57360E+000	9	...........
	105	1.41333	8.93085E-001	9.11220E-005	0.00000E+000	8.13797E-005	5.39641E-002	8.93285E-001	3.57360E+000	9	...........
	106	1.42667	8.95559E-001	9.11262E-005	0.00000E+000	8.16089E-005	5.39641E-002	8.95768E-001	3.57360E+000	9	...........
	107	1.44	8.97996E-001	9.11387E-005	0.00000E+000	8.18422E-005	5.39641E-002	8.98195E-001	3.57360E+000	9	...........
	108	1.45333	9.00388E-001	9.11116E-005	0.00000E+000	8.20358E-005	5.39641E-002	9.00604E-001	3.57360E+000	9	...........
	109	1.46667	9.02805E-001	9.10439E-005	0.00000E+000	8.21949E-005	5.39641E-002	9.03005E-001	3.57360E+000	9	...........
	110	1.48	9.05152E-001	9.09043E-005	0.00000E+000	8.22822E-005	5.39641E-002	9.05359E-001	3.57360E+000	9	...........
	111	1.49333	9.07483E-001	9.10001E-005	0.00000E+000	8.25811E-005	5.39641E-002	9.07704E-001	3.57360E+000	9	...........
	112	1.50667	9.09819E-001	9.11022E-005	0.00000E+000	8.28865E-005	5.39641E-002	9.10014E-001	3.57360E+000	9	...........
	113	1.52	9.12086E-001	9.11970E-005	0.00000E+000	8.31796E-005	5.39641E-002	9.12292E-001	3.57360E+000	9	...........
	114	1.53333	9.14371E-001	9.09345E-005	0.00000E+000	8.31478E-005	5.39641E-002	9.14537E-001	3.57360E+000	9	...........
	115	1.54667	9.16586E-001	9.11366E-005	0.00000E+000	8.35346E-005	5.39641E-002	9.16798E-001	3.57360E+000	9	...........
	116	1.56	9.18802E-001	9.09543E-005	0.00000E+000	8.35690E-005	5.39641E-002	9.18998E-001	3.57361E+000	9	...........
	117	1.57333	9.21011E-001	9.08689E-005	0.00000E+000	8.36912E-005	5.39641E-002	9.21184E-001	3.57370E+000	9	...........
	118	1.58667	9.23186E-001	9.10439E-005	0.00000E+000	8.40505E-005	5.39641E-002	9.23363E-001	3.57370E+000	9	...........
	119	1.6	9.25323E-001	9.08772E-005	0.00000E+000	8.40908E-005	5.39641E-002	9.25512E-001	3.57370E+000	9	...........
	120	1.61333	9.27454E-001	9.13460E-005	0.00000E+000	8.47193E-005	5.39641E-002	9.27624E-001	3.57370E+000	9	...........
	121	1.62667	9.29482E-001	9.09970E-005	0.00000E+000	8.45801E-005	5.39641E-002	9.29667E-001	3.57370E+000	9	...........
	122	1.64	9.31526E-001	9.09147E-005	0.00000E+000	8.46894E-005	5.39641E-002	9.31689E-001	3.57370E+000	9	...........
	123	1.65333	9.33565E-001	9.10616E-005	0.00000E+000	8.50119E-005	5.39641E-002	9.33752E-001	3.57370E+000	9	...........
	124	1.66667	9.35563E-001	9.08345E-005	0.00000E+000	8.49814E-005	5.39641E-002	9.35768E-001	3.57370E+000	9	...........
	125	1.68	9.37562E-001	9.09084E-005	0.00000E+000	8.52323E-005	5.39641E-002	9.37760E-001	3.57370E+000	9	...........
	126	1.69333	9.39515E-001	9.11335E-005	0.00000E+000	8.56213E-005	5.39641E-002	9.39708E-001	3.57370E+000	9	...........
	127	1.70667	9.41483E-001	9.10887E-005	0.00000E+000	8.57585E-005	5.39641E-002	9.41643E-001	3.57370E+000	9	...........
	128	1.72	9.43426E-001	9.08699E-005	0.00000E+000	8.57291E-005	5.39641E-002	9.43586E-001	3.57370E+000	9	...........
	129	1.73333	9.45336E-001	9.11554E-005	0.00000E+000	8.61724E-005	5.39641E-002	9.45526E-001	3.57370E+000	9	...........
	130	1.74667	9.47280E-001	9.11481E-005	0.00000E+000	8.63428E-005	5.39641E-002	9.47434E-001	3.57370E+000	9	...........
	131	1.76	9.49156E-001	9.07990E-005	0.00000E+000	8.61825E-005	5.39641E-002	9.49331E-001	3.57370E+000	9	...........
	132	1.77333	9.51055E-001	9.11179E-005	0.00000E+000	8.66581E-005	5.39641E-002	9.51204E-001	3.57370E+000	9	...........
	133	1.78667	9.52916E-001	9.10241E-005	0.00000E+000	8.67383E-005	5.39641E-002	9.53084E-001	3.57370E+000	9	...........
	134	1.8	9.54759E-001	9.10335E-005	0.00000E+000	8.69151E-005	5.39641E-002	9.54910E-001	3.57370E+000	9	...........
	135	1.81333	9.56554E-001	9.09824E-005	0.00000E+000	8.70296E-005	5.39641E-002	9.56726E-001	3.57370E+000	9	...........
	136	1.82667	9.58332E-001	9.10283E-005	0.00000E+000	8.72353E-005	5.39641E-002	9.58520E-001	3.57370E+000	9	...........
	137	1.84	9.60101E-001	9.13127E-005	0.00000E+000	8.76694E-005	5.39641E-002	9.60265E-001	3.57370E+000	9	...........
	138	1.85333	9.61841E-001	9.09647E-005	0.00000E+000	8.74936E-005	5.39641E-002	9.62039E-001	3.57370E+000	9	...........
	139	1.86667	9.63561E-001	9.08397E-005	0.00000E+000	8.75296E-005	5.39641E-002	9.63776E-001	3.57370E+000	9	...........
	140	1.88	9.65242E-001	9.08043E-005	0.00000E+000	8.76481E-005	5.39641E-002	9.65455E-001	3.57370E+000	9	...........
	141	1.89333	9.66951E-001	9.09710E-005	0.00000E+000	8.79645E-005	5.39641E-002	9.67149E-001	3.57370E+000	9	...........
	142	1.90667	9.68633E-001	9.07459E-005	0.00000E+000	8.78995E-005	5.39641E-002	9.68824E-001	3.57370E+000	9	...........
	143	1.92	9.70265E-001	9.11929E-005	0.00000E+000	8.84813E-005	5.39641E-002	9.70481E-001	3.57370E+000	9	...........
	144	1.93333	9.71902E-001	9.10345E-005	0.00000E+000	8.84766E-005	5.39641E-002	9.72108E-001	3.57370E+000	9	...........
	145	1.94667	9.73559E-001	9.09699E-005	0.00000E+000	8.85646E-005	5.39641E-002	9.73734E-001	3.57370E+000	9	...........
	146	1.96	9.75179E-001	9.11356E-005	0.00000E+000	8.88735E-005	5.39641E-002	9.75332E-001	3.57370E+000	9	...........
	147	1.97333	9.76767E-001	9.10314E-005	0.00000E+000	8.89165E-005	5.39641E-002	9.76954E-001	3.57370E+000	9	...........
	148	1.98667	9.78348E-001	9.11043E-005	0.00000E+000	8.91317E-005	5.39641E-002	9.78500E-001	3.57370E+000	9	...........
	149	2	9.79890E-001	9.10856E-005	0.00000E+000	8.92538E-005	5.39641E-002	9.80048E-001	3.57370E+000	9	...........
	150	2.01333	9.81419E-001	9.08803E-005	0.00000E+000	8.91917E-005	5.39641E-002	9.81586E-001	3.57370E+000	9	...........
	151	2.02667	9.82915E-001	9.09772E-005	0.00000E+000	8.94228E-005	5.39641E-002	9.83082E-001	3.57370E+000	9	...........
	152	2.04	9.84410E-001	9.10877E-005	0.00000E+000	8.96676E-005	5.39641E-002	9.84592E-001	3.57370E+000	9	...........
	153	2.05333	9.85895E-001	9.09970E-005	0.00000E+000	8.97135E-005	5.39641E-002	9.86100E-001	3.57370E+000	9	...........
	154	2.06667	9.87365E-001	9.08678E-005	0.00000E+000	8.97197E-005	5.39641E-002	9.87581E-001	3.57370E+000	9	...........
	155	2.08	9.88851E-001	9.10491E-005	0.00000E+000	9.00340E-005	5.39641E-002	9.89054E-001	3.57370E+000	9	...........
	156	2.09333	9.90275E-001	9.11814E-005	0.00000E+000	9.02947E-005	5.39641E-002	9.90479E-001	3.57370E+000	9	...........
	157	2.10667	9.91713E-001	9.13752E-005	0.00000E+000	9.06180E-005	5.39641E-002	9.91901E-001	3.57370E+000	9	...........
	158	2.12	9.93082E-001	9.11752E-005	0.00000E+000	9.05444E-005	5.39641E-002	9.93266E-001	3.57370E+000	9	...........
	159	2.13333	9.94461E-001	9.11074E-005	0.00000E+000	9.06028E-005	5.39641E-002	9.94640E-001	3.57370E+000	9	...........
	160	2.14667	9.95843E-001	9.11460E-005	0.00000E+000	9.07671E-005	5.39641E-002	9.96030E-001	3.57370E+000	9	...........
	161	2.16	9.97198E-001	9.10897E-005	0.00000E+000	9.08345E-005	5.39641E-002	9.97417E-001	3.57370E+000	9	...........
	162	2.17333	9.98565E-001	9.12721E-005	0.00000E+000	9.11411E-005	5.39641E-002	9.98762E-001	3.57370E+000	9	...........
	163	2.18333	9.99724E-001	9.10682E-005	0.00000E+000	9.10431E-005	5.39641E-002	9.99919E-001	3.57370E+000	9	...........
STARTTIMEOFFSET	QUANT	3011.047	Start Time Offset (s)
