EXPLAIN
TAG	PWR800_CHARGE
TITLE	LABEL	PWR Cyclic Charge Discharge (Cell) - Charge Step	Test &Identifier
DATE	LABEL	10-7-2017	Date
TIME	LABEL	15:55:19	Time
NOTES	NOTES	3	&Notes...
	supercap test cell
	0.9mg
	6M KOH
PSTAT	PSTAT	IFC5000-01520	Potentiostat
CAPACITY	QUANT	1.00000E-003	Capacity (A-hr)
CELLTYPE	SELECTOR	1	&Cell Type
WORKINGCONNECTION	SELECTOR	0	&Working Lead
MAXCHARGETIME	VARIABLEANDUNITS	1.00000E+002	s	1.00000E+002	second(s)	Max &Charge Time
CHARGECURRENT	QUANT	9.00000E-005	&Charge Current (A) 
VOLTAGEFINISH	TWOPARAM	F	1.00000E-003	3.60000E+003	&Voltage Finish	 I (A) < 	Max Time(s)
SAMPLETIME	QUANT	1.00000E-002	Sa&mple Period (s)
CHARGESTOPAT1	MULTIPARAM	4	1.00000E+000	Charge Stop At &1	Voltage > Limit	V
CHARGESTOPAT2	MULTIPARAM	0	0.00000E+000	Charge Stop At &2	None	N/A
AESBHCSELECTOR	TOGGLE	F	Save Both Half Cells
IRCOMP	TOGGLE	F	IR &Measure
EOC	QUANT	0	Open Circuit (V)
SEQUENCER	TOGGLE	TRUE	Run as Sequence
PSTATMODEL	IQUANT	53	Pstat Model
PSTATSECTION	LABEL	IFC5000-01520	Pstat Section
PSTATSERIALNO	LABEL	01520	Pstat Serial Number
CTRLMODE	IQUANT	0	Control Mode
ELECTROMETER	IQUANT	1	RE=0 or CS=1
IESTAB	IQUANT	0	I/E Stability
CASPEED	IQUANT	4	Control Amp Speed
CONVENTION	IQUANT	1	Current Convention
ICHRANGE	IQUANT	2	Ich Range
ICHRANGEMODE	TOGGLE	T	Ich Auto Range
ICHOFFSETENABLE	TOGGLE	F	Ich Offset Enable
ICHOFFSET	QUANT	0	Ich Offset (V)
ICHFILTER	IQUANT	1	Ich Filter
VCHRANGE	IQUANT	2	Vch Range
VCHRANGEMODE	TOGGLE	T	Vch Auto Range
VCHOFFSETENABLE	TOGGLE	F	Vch Offset Enable
VCHOFFSET	QUANT	0	Vch Offset (V)
VCHFILTER	IQUANT	1	Vch Filter
IERANGELOWERLIMIT	IQUANT	9	I/E Range Lower Limit
IERANGEMODE	TOGGLE	F	I/E AutoRange
IERANGE	IQUANT	9	I/E Range
ACHSELECT	IQUANT	1	Ach Select
ACHRANGE	IQUANT	2	Ach Range
ACHOFFSETENABLE	TOGGLE	F	Ach Offset Enable
ACHOFFSET	QUANT	0	Ach Offset (V)
ACHFILTER	IQUANT	1	Ach Filter
CABLEID	IQUANT	14	Cable ID
DCCALDATE	LABEL	5-7-2017	DC Calibration Date
ACCALDATE	LABEL	12/3/2015	AC Calibration Date
FRAMEWORKVERSION	QUANT	7.01	Framework Version
INSTRUMENTVERSION	LABEL	4.00	Instrument Version
CURVE	TABLE	165
	Pt	T	Vf	Im	Vu	Pwr	Sig	Ach	Temp	IERange	Over
	#	s	V	A	V	W	V	V	deg C	#	bits
	0	0.013333	2.74402E-001	9.10866E-005	0.00000E+000	2.49943E-005	5.39641E-002	2.74434E-001	3.57300E+000	9	...........
	1	0.026667	2.94020E-001	9.10272E-005	0.00000E+000	2.67638E-005	5.39641E-002	2.94045E-001	3.57300E+000	9	...........
	2	0.04	3.12356E-001	9.09803E-005	0.00000E+000	2.84183E-005	5.39641E-002	3.12395E-001	3.57300E+000	9	...........
	3	0.053333	3.29619E-001	9.09126E-005	0.00000E+000	2.99665E-005	5.39641E-002	3.29656E-001	3.57300E+000	9	...........
	4	0.066667	3.45900E-001	9.08678E-005	0.00000E+000	3.14312E-005	5.39641E-002	3.45940E-001	3.57300E+000	9	...........
	5	0.08	3.61319E-001	9.08876E-005	0.00000E+000	3.28394E-005	5.39641E-002	3.61372E-001	3.57300E+000	9	...........
	6	0.093333	3.75958E-001	9.11085E-005	0.00000E+000	3.42530E-005	5.39641E-002	3.76001E-001	3.57300E+000	9	...........
	7	0.106667	3.89891E-001	9.09439E-005	0.00000E+000	3.54582E-005	5.39641E-002	3.89938E-001	3.57300E+000	9	...........
	8	0.12	4.03183E-001	9.09168E-005	0.00000E+000	3.66561E-005	5.39641E-002	4.03229E-001	3.57300E+000	9	...........
	9	0.133333	4.15887E-001	9.11939E-005	0.00000E+000	3.79264E-005	5.39641E-002	4.15938E-001	3.57300E+000	9	...........
	10	0.146667	4.28056E-001	9.10449E-005	0.00000E+000	3.89724E-005	5.39641E-002	4.28116E-001	3.57300E+000	9	...........
	11	0.16	4.39743E-001	9.10085E-005	0.00000E+000	4.00203E-005	5.39641E-002	4.39798E-001	3.57300E+000	9	...........
	12	0.173333	4.50955E-001	9.10481E-005	0.00000E+000	4.10586E-005	5.39641E-002	4.51012E-001	3.57300E+000	9	...........
	13	0.186667	4.61753E-001	9.10856E-005	0.00000E+000	4.20590E-005	5.39641E-002	4.61819E-001	3.57300E+000	9	...........
	14	0.2	4.72168E-001	9.11002E-005	0.00000E+000	4.30146E-005	5.39641E-002	4.72232E-001	3.57300E+000	9	...........
	15	0.213333	4.82215E-001	9.08115E-005	0.00000E+000	4.37907E-005	5.39641E-002	4.82282E-001	3.57300E+000	9	...........
	16	0.226667	4.91925E-001	9.06897E-005	0.00000E+000	4.46125E-005	5.39641E-002	4.91996E-001	3.57300E+000	9	...........
	17	0.24	5.01309E-001	9.09262E-005	0.00000E+000	4.55821E-005	5.39641E-002	5.01382E-001	3.57300E+000	9	...........
	18	0.253333	5.10409E-001	9.08251E-005	0.00000E+000	4.63580E-005	5.39641E-002	5.10479E-001	3.57300E+000	9	...........
	19	0.266667	5.19219E-001	9.09345E-005	0.00000E+000	4.72149E-005	5.39641E-002	5.19289E-001	3.57300E+000	9	...........
	20	0.28	5.27772E-001	9.08053E-005	0.00000E+000	4.79245E-005	5.39641E-002	5.27847E-001	3.57300E+000	9	...........
	21	0.293333	5.35986E-001	9.10949E-005	0.00000E+000	4.88257E-005	5.39641E-002	5.36083E-001	3.57300E+000	9	...........
	22	0.306667	5.44047E-001	9.12491E-005	0.00000E+000	4.96439E-005	5.39641E-002	5.44142E-001	3.57300E+000	9	...........
	23	0.32	5.51870E-001	9.09095E-005	0.00000E+000	5.01703E-005	5.39641E-002	5.51984E-001	3.57300E+000	9	...........
	24	0.333333	5.59473E-001	9.11720E-005	0.00000E+000	5.10083E-005	5.39641E-002	5.59597E-001	3.57300E+000	9	...........
	25	0.346667	5.66961E-001	9.09658E-005	0.00000E+000	5.15740E-005	5.39641E-002	5.67087E-001	3.57300E+000	9	...........
	26	0.36	5.74202E-001	9.10116E-005	0.00000E+000	5.22591E-005	5.39641E-002	5.74327E-001	3.57300E+000	9	...........
	27	0.373333	5.81264E-001	9.07991E-005	0.00000E+000	5.27782E-005	5.39641E-002	5.81411E-001	3.57300E+000	9	...........
	28	0.386667	5.88203E-001	9.10158E-005	0.00000E+000	5.35357E-005	5.39641E-002	5.88353E-001	3.57300E+000	9	...........
	29	0.4	5.94975E-001	9.10501E-005	0.00000E+000	5.41726E-005	5.39641E-002	5.95108E-001	3.57300E+000	9	...........
	30	0.413333	6.01560E-001	9.09637E-005	0.00000E+000	5.47201E-005	5.39641E-002	6.01723E-001	3.57300E+000	9	...........
	31	0.426667	6.08009E-001	9.10647E-005	0.00000E+000	5.53681E-005	5.39641E-002	6.08176E-001	3.57300E+000	9	...........
	32	0.44	6.14345E-001	9.11127E-005	0.00000E+000	5.59746E-005	5.39641E-002	6.14477E-001	3.57300E+000	9	...........
	33	0.453333	6.20541E-001	9.11606E-005	0.00000E+000	5.65689E-005	5.39641E-002	6.20667E-001	3.57300E+000	9	...........
	34	0.466667	6.26603E-001	9.08928E-005	0.00000E+000	5.69537E-005	5.39641E-002	6.26729E-001	3.57300E+000	9	...........
	35	0.48	6.32490E-001	9.12293E-005	0.00000E+000	5.77017E-005	5.39641E-002	6.32637E-001	3.57300E+000	9	...........
	36	0.493333	6.38307E-001	9.10022E-005	0.00000E+000	5.80874E-005	5.39641E-002	6.38429E-001	3.57300E+000	9	...........
	37	0.506667	6.44003E-001	9.12033E-005	0.00000E+000	5.87352E-005	5.39641E-002	6.44101E-001	3.57300E+000	9	...........
	38	0.52	6.49561E-001	9.10637E-005	0.00000E+000	5.91515E-005	5.39641E-002	6.49671E-001	3.57300E+000	9	...........
	39	0.533333	6.55049E-001	9.09991E-005	0.00000E+000	5.96088E-005	5.39641E-002	6.55178E-001	3.57310E+000	9	...........
	40	0.546667	6.60428E-001	9.09043E-005	0.00000E+000	6.00357E-005	5.39641E-002	6.60545E-001	3.57320E+000	9	...........
	41	0.56	6.65745E-001	9.11293E-005	0.00000E+000	6.06689E-005	5.39641E-002	6.65884E-001	3.57320E+000	9	...........
	42	0.573333	6.70954E-001	9.09803E-005	0.00000E+000	6.10437E-005	5.39641E-002	6.71070E-001	3.57320E+000	9	...........
	43	0.586667	6.76061E-001	9.10324E-005	0.00000E+000	6.15435E-005	5.39641E-002	6.76170E-001	3.57320E+000	9	...........
	44	0.6	6.81056E-001	9.11377E-005	0.00000E+000	6.20698E-005	5.39641E-002	6.81184E-001	3.57320E+000	9	...........
	45	0.613333	6.86006E-001	9.09189E-005	0.00000E+000	6.23709E-005	5.39641E-002	6.86124E-001	3.57320E+000	9	...........
	46	0.626667	6.90876E-001	9.10210E-005	0.00000E+000	6.28842E-005	5.39641E-002	6.90982E-001	3.57320E+000	9	...........
	47	0.64	6.95659E-001	9.09147E-005	0.00000E+000	6.32456E-005	5.39641E-002	6.95782E-001	3.57320E+000	9	...........
	48	0.653333	7.00356E-001	9.10626E-005	0.00000E+000	6.37763E-005	5.39641E-002	7.00477E-001	3.57320E+000	9	...........
	49	0.666667	7.04961E-001	9.09564E-005	0.00000E+000	6.41207E-005	5.39641E-002	7.05104E-001	3.57320E+000	9	...........
	50	0.68	7.09530E-001	9.11095E-005	0.00000E+000	6.46449E-005	5.39641E-002	7.09673E-001	3.57320E+000	9	...........
	51	0.693333	7.14027E-001	9.10231E-005	0.00000E+000	6.49929E-005	5.39641E-002	7.14181E-001	3.57320E+000	9	...........
	52	0.706667	7.18521E-001	9.09230E-005	0.00000E+000	6.53301E-005	5.39641E-002	7.18646E-001	3.57320E+000	9	...........
	53	0.72	7.22914E-001	9.09293E-005	0.00000E+000	6.57340E-005	5.39641E-002	7.23023E-001	3.57320E+000	9	...........
	54	0.733333	7.27224E-001	9.12908E-005	0.00000E+000	6.63889E-005	5.39641E-002	7.27343E-001	3.57320E+000	9	...........
	55	0.746667	7.31474E-001	9.12137E-005	0.00000E+000	6.67205E-005	5.39641E-002	7.31610E-001	3.57320E+000	9	...........
	56	0.76	7.35666E-001	9.09157E-005	0.00000E+000	6.68836E-005	5.39641E-002	7.35793E-001	3.57320E+000	9	...........
	57	0.773333	7.39809E-001	9.09178E-005	0.00000E+000	6.72618E-005	5.39641E-002	7.39950E-001	3.57320E+000	9	...........
	58	0.786667	7.43924E-001	9.09303E-005	0.00000E+000	6.76452E-005	5.39641E-002	7.44031E-001	3.57320E+000	9	...........
	59	0.8	7.47924E-001	9.08303E-005	0.00000E+000	6.79342E-005	5.39641E-002	7.48053E-001	3.57320E+000	9	...........
	60	0.813333	7.51899E-001	9.11262E-005	0.00000E+000	6.85177E-005	5.39641E-002	7.52030E-001	3.57320E+000	9	...........
	61	0.826667	7.55837E-001	9.09418E-005	0.00000E+000	6.87372E-005	5.39641E-002	7.55971E-001	3.57320E+000	9	...........
	62	0.84	7.59736E-001	9.12148E-005	0.00000E+000	6.92991E-005	5.39641E-002	7.59861E-001	3.57320E+000	9	...........
	63	0.853333	7.63581E-001	9.10939E-005	0.00000E+000	6.95576E-005	5.39641E-002	7.63709E-001	3.57320E+000	9	...........
	64	0.866667	7.67375E-001	9.10835E-005	0.00000E+000	6.98952E-005	5.39641E-002	7.67529E-001	3.57320E+000	9	...........
	65	0.88	7.71093E-001	9.10178E-005	0.00000E+000	7.01832E-005	5.39641E-002	7.71260E-001	3.57320E+000	9	...........
	66	0.893333	7.74794E-001	9.09824E-005	0.00000E+000	7.04926E-005	5.39641E-002	7.74967E-001	3.57320E+000	9	...........
	67	0.906667	7.78430E-001	9.08907E-005	0.00000E+000	7.07521E-005	5.39641E-002	7.78607E-001	3.57320E+000	9	...........
	68	0.92	7.82052E-001	9.08220E-005	0.00000E+000	7.10275E-005	5.39641E-002	7.82197E-001	3.57320E+000	9	...........
	69	0.933333	7.85626E-001	9.09168E-005	0.00000E+000	7.14265E-005	5.39641E-002	7.85761E-001	3.57320E+000	9	...........
	70	0.946667	7.89161E-001	9.09126E-005	0.00000E+000	7.17447E-005	5.39641E-002	7.89320E-001	3.57320E+000	9	...........
	71	0.96	7.92674E-001	9.11106E-005	0.00000E+000	7.22210E-005	5.39641E-002	7.92852E-001	3.57320E+000	9	...........
	72	0.97333	7.96162E-001	9.07834E-005	0.00000E+000	7.22783E-005	5.39641E-002	7.96308E-001	3.57320E+000	9	...........
	73	0.98667	7.99579E-001	9.08699E-005	0.00000E+000	7.26577E-005	5.39641E-002	7.99738E-001	3.57320E+000	9	...........
	74	1	8.02956E-001	9.10137E-005	0.00000E+000	7.30799E-005	5.39641E-002	8.03117E-001	3.57320E+000	9	...........
	75	1.01333	8.06306E-001	9.12564E-005	0.00000E+000	7.35806E-005	5.39641E-002	8.06473E-001	3.57320E+000	9	...........
	76	1.02667	8.09637E-001	9.11481E-005	0.00000E+000	7.37969E-005	5.39641E-002	8.09777E-001	3.57320E+000	9	...........
	77	1.04	8.12916E-001	9.10335E-005	0.00000E+000	7.40025E-005	5.39641E-002	8.13077E-001	3.57320E+000	9	...........
	78	1.05333	8.16162E-001	9.08105E-005	0.00000E+000	7.41161E-005	5.39641E-002	8.16332E-001	3.57320E+000	9	...........
	79	1.06667	8.19408E-001	9.10345E-005	0.00000E+000	7.45944E-005	5.39641E-002	8.19563E-001	3.57320E+000	9	...........
	80	1.08	8.22572E-001	9.10866E-005	0.00000E+000	7.49253E-005	5.39641E-002	8.22757E-001	3.57320E+000	9	...........
	81	1.09333	8.25752E-001	9.09116E-005	0.00000E+000	7.50704E-005	5.39641E-002	8.25915E-001	3.57320E+000	9	...........
	82	1.10667	8.28867E-001	9.11856E-005	0.00000E+000	7.55807E-005	5.39641E-002	8.29003E-001	3.57320E+000	9	...........
	83	1.12	8.31955E-001	9.08845E-005	0.00000E+000	7.56118E-005	5.39641E-002	8.32118E-001	3.57320E+000	9	...........
	84	1.13333	8.34990E-001	9.11314E-005	0.00000E+000	7.60938E-005	5.39641E-002	8.35168E-001	3.57320E+000	9	...........
	85	1.14667	8.38021E-001	9.08866E-005	0.00000E+000	7.61649E-005	5.39641E-002	8.38182E-001	3.57320E+000	9	...........
	86	1.16	8.40985E-001	9.08334E-005	0.00000E+000	7.63895E-005	5.39641E-002	8.41162E-001	3.57320E+000	9	...........
	87	1.17333	8.43953E-001	9.11429E-005	0.00000E+000	7.69203E-005	5.39641E-002	8.44136E-001	3.57320E+000	9	...........
	88	1.18667	8.46896E-001	9.09658E-005	0.00000E+000	7.70385E-005	5.39641E-002	8.47058E-001	3.57320E+000	9	...........
	89	1.2	8.49770E-001	9.11012E-005	0.00000E+000	7.74151E-005	5.39641E-002	8.49959E-001	3.57320E+000	9	...........
	90	1.21333	8.52632E-001	9.10501E-005	0.00000E+000	7.76322E-005	5.39641E-002	8.52818E-001	3.57320E+000	9	...........
	91	1.22667	8.55468E-001	9.08366E-005	0.00000E+000	7.77077E-005	5.39641E-002	8.55661E-001	3.57320E+000	9	...........
	92	1.24	8.58251E-001	9.09887E-005	0.00000E+000	7.80911E-005	5.39641E-002	8.58468E-001	3.57320E+000	9	...........
	93	1.25333	8.61058E-001	9.09022E-005	0.00000E+000	7.82721E-005	5.39641E-002	8.61242E-001	3.57320E+000	9	...........
	94	1.26667	8.63789E-001	9.10814E-005	0.00000E+000	7.86752E-005	5.39641E-002	8.63964E-001	3.57320E+000	9	...........
	95	1.28	8.66500E-001	9.10053E-005	0.00000E+000	7.88562E-005	5.39641E-002	8.66687E-001	3.57320E+000	9	...........
	96	1.29333	8.69229E-001	9.12252E-005	0.00000E+000	7.92956E-005	5.39641E-002	8.69407E-001	3.57320E+000	9	...........
	97	1.30667	8.71899E-001	9.10470E-005	0.00000E+000	7.93838E-005	5.39641E-002	8.72064E-001	3.57320E+000	9	...........
	98	1.32	8.74513E-001	9.10533E-005	0.00000E+000	7.96273E-005	5.39641E-002	8.74702E-001	3.57320E+000	9	...........
	99	1.33333	8.77104E-001	9.11033E-005	0.00000E+000	7.99071E-005	5.39641E-002	8.77291E-001	3.57320E+000	9	...........
	100	1.34667	8.79688E-001	9.11668E-005	0.00000E+000	8.01984E-005	5.39641E-002	8.79852E-001	3.57320E+000	9	...........
	101	1.36	8.82229E-001	9.10543E-005	0.00000E+000	8.03307E-005	5.39641E-002	8.82407E-001	3.57320E+000	9	...........
	102	1.37333	8.84761E-001	9.11470E-005	0.00000E+000	8.06433E-005	5.39641E-002	8.84951E-001	3.57320E+000	9	...........
	103	1.38667	8.87262E-001	9.08345E-005	0.00000E+000	8.05940E-005	5.39641E-002	8.87462E-001	3.57320E+000	9	...........
	104	1.4	8.89738E-001	9.10491E-005	0.00000E+000	8.10098E-005	5.39641E-002	8.89928E-001	3.57320E+000	9	...........
	105	1.41333	8.92175E-001	9.09856E-005	0.00000E+000	8.11750E-005	5.39641E-002	8.92382E-001	3.57320E+000	9	...........
	106	1.42667	8.94611E-001	9.09074E-005	0.00000E+000	8.13268E-005	5.39641E-002	8.94825E-001	3.57320E+000	9	...........
	107	1.44	8.97044E-001	9.09616E-005	0.00000E+000	8.15966E-005	5.39641E-002	8.97259E-001	3.57320E+000	9	...........
	108	1.45333	8.99420E-001	9.10949E-005	0.00000E+000	8.19326E-005	5.39641E-002	8.99637E-001	3.57320E+000	9	...........
	109	1.46667	9.01765E-001	9.09835E-005	0.00000E+000	8.20457E-005	5.39641E-002	9.01993E-001	3.57320E+000	9	...........
	110	1.48	9.04107E-001	9.09334E-005	0.00000E+000	8.22136E-005	5.39641E-002	9.04327E-001	3.57320E+000	9	...........
	111	1.49333	9.06414E-001	9.10376E-005	0.00000E+000	8.25178E-005	5.39641E-002	9.06644E-001	3.57320E+000	9	...........
	112	1.50667	9.08714E-001	9.11085E-005	0.00000E+000	8.27915E-005	5.39641E-002	9.08919E-001	3.57320E+000	9	...........
	113	1.52	9.10969E-001	9.10981E-005	0.00000E+000	8.29875E-005	5.39641E-002	9.11142E-001	3.57320E+000	9	...........
	114	1.53333	9.13176E-001	9.11460E-005	0.00000E+000	8.32324E-005	5.39641E-002	9.13382E-001	3.57290E+000	9	...........
	115	1.54667	9.15396E-001	9.10158E-005	0.00000E+000	8.33155E-005	5.39641E-002	9.15582E-001	3.57260E+000	9	...........
	116	1.56	9.17588E-001	9.09355E-005	0.00000E+000	8.34414E-005	5.39641E-002	9.17802E-001	3.57260E+000	9	...........
	117	1.57333	9.19738E-001	9.09970E-005	0.00000E+000	8.36934E-005	5.39641E-002	9.19935E-001	3.57260E+000	9	...........
	118	1.58667	9.21953E-001	9.08741E-005	0.00000E+000	8.37817E-005	5.39641E-002	9.22114E-001	3.57260E+000	9	...........
	119	1.6	9.24072E-001	9.08866E-005	0.00000E+000	8.39857E-005	5.39641E-002	9.24228E-001	3.57260E+000	9	...........
	120	1.61333	9.26162E-001	9.08741E-005	0.00000E+000	8.41641E-005	5.39641E-002	9.26354E-001	3.57260E+000	9	...........
	121	1.62667	9.28272E-001	9.09845E-005	0.00000E+000	8.44584E-005	5.39641E-002	9.28430E-001	3.57260E+000	9	...........
	122	1.64	9.30348E-001	9.10241E-005	0.00000E+000	8.46841E-005	5.39641E-002	9.30500E-001	3.57260E+000	9	...........
	123	1.65333	9.32362E-001	9.09637E-005	0.00000E+000	8.48111E-005	5.39641E-002	9.32525E-001	3.57260E+000	9	...........
	124	1.66667	9.34369E-001	9.09293E-005	0.00000E+000	8.49615E-005	5.39641E-002	9.34558E-001	3.57260E+000	9	...........
	125	1.68	9.36357E-001	9.09866E-005	0.00000E+000	8.51960E-005	5.39641E-002	9.36525E-001	3.57260E+000	9	...........
	126	1.69333	9.38321E-001	9.10126E-005	0.00000E+000	8.53990E-005	5.39641E-002	9.38485E-001	3.57260E+000	9	...........
	127	1.70667	9.40245E-001	9.10637E-005	0.00000E+000	8.56222E-005	5.39641E-002	9.40441E-001	3.57260E+000	9	...........
	128	1.72	9.42156E-001	9.09407E-005	0.00000E+000	8.56804E-005	5.39641E-002	9.42358E-001	3.57260E+000	9	...........
	129	1.73333	9.44082E-001	9.12241E-005	0.00000E+000	8.61230E-005	5.39641E-002	9.44258E-001	3.57260E+000	9	...........
	130	1.74667	9.45975E-001	9.10949E-005	0.00000E+000	8.61735E-005	5.39641E-002	9.46174E-001	3.57260E+000	9	...........
	131	1.76	9.47881E-001	9.09855E-005	0.00000E+000	8.62434E-005	5.39641E-002	9.48046E-001	3.57260E+000	9	...........
	132	1.77333	9.49740E-001	9.09772E-005	0.00000E+000	8.64047E-005	5.39641E-002	9.49893E-001	3.57260E+000	9	...........
	133	1.78667	9.51556E-001	9.08397E-005	0.00000E+000	8.64390E-005	5.39641E-002	9.51730E-001	3.57260E+000	9	...........
	134	1.8	9.53371E-001	9.09605E-005	0.00000E+000	8.67192E-005	5.39641E-002	9.53538E-001	3.57260E+000	9	...........
	135	1.81333	9.55138E-001	9.11189E-005	0.00000E+000	8.70311E-005	5.39641E-002	9.55311E-001	3.57260E+000	9	...........
	136	1.82667	9.56916E-001	9.11470E-005	0.00000E+000	8.72201E-005	5.39641E-002	9.57071E-001	3.57260E+000	9	...........
	137	1.84	9.58642E-001	9.09314E-005	0.00000E+000	8.71706E-005	5.39641E-002	9.58818E-001	3.57260E+000	9	...........
	138	1.85333	9.60378E-001	9.11366E-005	0.00000E+000	8.75256E-005	5.39641E-002	9.60554E-001	3.57260E+000	9	...........
	139	1.86667	9.62091E-001	9.08876E-005	0.00000E+000	8.74421E-005	5.39641E-002	9.62275E-001	3.57260E+000	9	...........
	140	1.88	9.63764E-001	9.11710E-005	0.00000E+000	8.78673E-005	5.39641E-002	9.63998E-001	3.57260E+000	9	...........
	141	1.89333	9.65439E-001	9.11418E-005	0.00000E+000	8.79919E-005	5.39641E-002	9.65651E-001	3.57260E+000	9	...........
	142	1.90667	9.67089E-001	9.11043E-005	0.00000E+000	8.81060E-005	5.39641E-002	9.67318E-001	3.57260E+000	9	...........
	143	1.92	9.68717E-001	9.09428E-005	0.00000E+000	8.80979E-005	5.39641E-002	9.68979E-001	3.57260E+000	9	...........
	144	1.93333	9.70323E-001	9.06980E-005	0.00000E+000	8.80063E-005	5.39641E-002	9.70594E-001	3.57260E+000	9	...........
	145	1.94667	9.71954E-001	9.09783E-005	0.00000E+000	8.84267E-005	5.39641E-002	9.72236E-001	3.57260E+000	9	...........
	146	1.96	9.73619E-001	9.11158E-005	0.00000E+000	8.87120E-005	5.39641E-002	9.73834E-001	3.57260E+000	9	...........
	147	1.97333	9.75202E-001	9.09637E-005	0.00000E+000	8.87079E-005	5.39641E-002	9.75428E-001	3.57260E+000	9	...........
	148	1.98667	9.76759E-001	9.08887E-005	0.00000E+000	8.87763E-005	5.39641E-002	9.76981E-001	3.57260E+000	9	...........
	149	2	9.78283E-001	9.12804E-005	0.00000E+000	8.92981E-005	5.39641E-002	9.78515E-001	3.57260E+000	9	...........
	150	2.01333	9.79830E-001	9.08918E-005	0.00000E+000	8.90585E-005	5.39641E-002	9.80039E-001	3.57260E+000	9	...........
	151	2.02667	9.81340E-001	9.09168E-005	0.00000E+000	8.92203E-005	5.39641E-002	9.81550E-001	3.57260E+000	9	...........
	152	2.04	9.82848E-001	9.09939E-005	0.00000E+000	8.94332E-005	5.39641E-002	9.83045E-001	3.57260E+000	9	...........
	153	2.05333	9.84308E-001	9.09762E-005	0.00000E+000	8.95485E-005	5.39641E-002	9.84547E-001	3.57260E+000	9	...........
	154	2.06667	9.85817E-001	9.10408E-005	0.00000E+000	8.97495E-005	5.39641E-002	9.86004E-001	3.57260E+000	9	...........
	155	2.08	9.87233E-001	9.10033E-005	0.00000E+000	8.98414E-005	5.39641E-002	9.87462E-001	3.57260E+000	9	...........
	156	2.09333	9.88674E-001	9.12304E-005	0.00000E+000	9.01972E-005	5.39641E-002	9.88884E-001	3.57260E+000	9	...........
	157	2.10667	9.90117E-001	9.09824E-005	0.00000E+000	9.00833E-005	5.39641E-002	9.90294E-001	3.57260E+000	9	...........
	158	2.12	9.91499E-001	9.07990E-005	0.00000E+000	9.00272E-005	5.39641E-002	9.91702E-001	3.57260E+000	9	...........
	159	2.13333	9.92902E-001	9.11199E-005	0.00000E+000	9.04732E-005	5.39641E-002	9.93105E-001	3.57260E+000	9	...........
	160	2.14667	9.94268E-001	9.09762E-005	0.00000E+000	9.04547E-005	5.39641E-002	9.94482E-001	3.57260E+000	9	...........
	161	2.16	9.95663E-001	9.09553E-005	0.00000E+000	9.05609E-005	5.39641E-002	9.95855E-001	3.57260E+000	9	...........
	162	2.17333	9.96999E-001	9.11668E-005	0.00000E+000	9.08932E-005	5.39641E-002	9.97244E-001	3.57260E+000	9	...........
	163	2.18667	9.98384E-001	9.10887E-005	0.00000E+000	9.09415E-005	5.39641E-002	9.98590E-001	3.57260E+000	9	...........
	164	2.19833	9.99640E-001	9.12758E-005	0.00000E+000	9.12430E-005	5.39641E-002	9.99840E-001	3.57260E+000	9	...........
STARTTIMEOFFSET	QUANT	2831.455	Start Time Offset (s)
