EXPLAIN
TAG	PWR800_CHARGE
TITLE	LABEL	PWR Cyclic Charge Discharge (Cell) - Charge Step	Test &Identifier
DATE	LABEL	10-7-2017	Date
TIME	LABEL	15:57:04	Time
NOTES	NOTES	3	&Notes...
	supercap test cell
	0.9mg
	6M KOH
PSTAT	PSTAT	IFC5000-01520	Potentiostat
CAPACITY	QUANT	1.00000E-003	Capacity (A-hr)
CELLTYPE	SELECTOR	1	&Cell Type
WORKINGCONNECTION	SELECTOR	0	&Working Lead
MAXCHARGETIME	VARIABLEANDUNITS	1.00000E+002	s	1.00000E+002	second(s)	Max &Charge Time
CHARGECURRENT	QUANT	9.00000E-005	&Charge Current (A) 
VOLTAGEFINISH	TWOPARAM	F	1.00000E-003	3.60000E+003	&Voltage Finish	 I (A) < 	Max Time(s)
SAMPLETIME	QUANT	1.00000E-002	Sa&mple Period (s)
CHARGESTOPAT1	MULTIPARAM	4	1.00000E+000	Charge Stop At &1	Voltage > Limit	V
CHARGESTOPAT2	MULTIPARAM	0	0.00000E+000	Charge Stop At &2	None	N/A
AESBHCSELECTOR	TOGGLE	F	Save Both Half Cells
IRCOMP	TOGGLE	F	IR &Measure
EOC	QUANT	0	Open Circuit (V)
SEQUENCER	TOGGLE	TRUE	Run as Sequence
PSTATMODEL	IQUANT	53	Pstat Model
PSTATSECTION	LABEL	IFC5000-01520	Pstat Section
PSTATSERIALNO	LABEL	01520	Pstat Serial Number
CTRLMODE	IQUANT	0	Control Mode
ELECTROMETER	IQUANT	1	RE=0 or CS=1
IESTAB	IQUANT	0	I/E Stability
CASPEED	IQUANT	4	Control Amp Speed
CONVENTION	IQUANT	1	Current Convention
ICHRANGE	IQUANT	2	Ich Range
ICHRANGEMODE	TOGGLE	T	Ich Auto Range
ICHOFFSETENABLE	TOGGLE	F	Ich Offset Enable
ICHOFFSET	QUANT	0	Ich Offset (V)
ICHFILTER	IQUANT	1	Ich Filter
VCHRANGE	IQUANT	2	Vch Range
VCHRANGEMODE	TOGGLE	T	Vch Auto Range
VCHOFFSETENABLE	TOGGLE	F	Vch Offset Enable
VCHOFFSET	QUANT	0	Vch Offset (V)
VCHFILTER	IQUANT	1	Vch Filter
IERANGELOWERLIMIT	IQUANT	9	I/E Range Lower Limit
IERANGEMODE	TOGGLE	F	I/E AutoRange
IERANGE	IQUANT	9	I/E Range
ACHSELECT	IQUANT	1	Ach Select
ACHRANGE	IQUANT	2	Ach Range
ACHOFFSETENABLE	TOGGLE	F	Ach Offset Enable
ACHOFFSET	QUANT	0	Ach Offset (V)
ACHFILTER	IQUANT	1	Ach Filter
CABLEID	IQUANT	14	Cable ID
DCCALDATE	LABEL	5-7-2017	DC Calibration Date
ACCALDATE	LABEL	12/3/2015	AC Calibration Date
FRAMEWORKVERSION	QUANT	7.01	Framework Version
INSTRUMENTVERSION	LABEL	4.00	Instrument Version
CURVE	TABLE	165
	Pt	T	Vf	Im	Vu	Pwr	Sig	Ach	Temp	IERange	Over
	#	s	V	A	V	W	V	V	deg C	#	bits
	0	0.013333	2.65037E-001	9.11283E-005	0.00000E+000	2.41523E-005	5.39641E-002	2.65093E-001	3.57350E+000	9	...........
	1	0.026667	2.84899E-001	9.10751E-005	0.00000E+000	2.59472E-005	5.39641E-002	2.84939E-001	3.57350E+000	9	...........
	2	0.04	3.03498E-001	9.10460E-005	0.00000E+000	2.76322E-005	5.39641E-002	3.03543E-001	3.57350E+000	9	...........
	3	0.053333	3.21024E-001	9.10449E-005	0.00000E+000	2.92276E-005	5.39641E-002	3.21070E-001	3.57350E+000	9	...........
	4	0.066667	3.37577E-001	9.09095E-005	0.00000E+000	3.06890E-005	5.39641E-002	3.37618E-001	3.57350E+000	9	...........
	5	0.08	3.53269E-001	9.09209E-005	0.00000E+000	3.21195E-005	5.39641E-002	3.53317E-001	3.57350E+000	9	...........
	6	0.093333	3.68196E-001	9.08543E-005	0.00000E+000	3.34522E-005	5.39641E-002	3.68241E-001	3.57350E+000	9	...........
	7	0.106667	3.82400E-001	9.08605E-005	0.00000E+000	3.47451E-005	5.39641E-002	3.82452E-001	3.57350E+000	9	...........
	8	0.12	3.95958E-001	9.07834E-005	0.00000E+000	3.59465E-005	5.39641E-002	3.96015E-001	3.57350E+000	9	...........
	9	0.133333	4.08925E-001	9.10533E-005	0.00000E+000	3.72339E-005	5.39641E-002	4.08982E-001	3.57350E+000	9	...........
	10	0.146667	4.21344E-001	9.08418E-005	0.00000E+000	3.82756E-005	5.39641E-002	4.21406E-001	3.57350E+000	9	...........
	11	0.16	4.33262E-001	9.11825E-005	0.00000E+000	3.95059E-005	5.39641E-002	4.33321E-001	3.57350E+000	9	...........
	12	0.173333	4.44706E-001	9.08407E-005	0.00000E+000	4.03974E-005	5.39641E-002	4.44771E-001	3.57350E+000	9	...........
	13	0.186667	4.55712E-001	9.11575E-005	0.00000E+000	4.15415E-005	5.39641E-002	4.55773E-001	3.57350E+000	9	...........
	14	0.2	4.66323E-001	9.11814E-005	0.00000E+000	4.25200E-005	5.39641E-002	4.66387E-001	3.57350E+000	9	...........
	15	0.213333	4.76563E-001	9.09397E-005	0.00000E+000	4.33385E-005	5.39641E-002	4.76628E-001	3.57350E+000	9	...........
	16	0.226667	4.86453E-001	9.09699E-005	0.00000E+000	4.42525E-005	5.39641E-002	4.86523E-001	3.57350E+000	9	...........
	17	0.24	4.96025E-001	9.09522E-005	0.00000E+000	4.51146E-005	5.39641E-002	4.96092E-001	3.57350E+000	9	...........
	18	0.253333	5.05290E-001	9.08355E-005	0.00000E+000	4.58983E-005	5.39641E-002	5.05360E-001	3.57350E+000	9	...........
	19	0.266667	5.14267E-001	9.10981E-005	0.00000E+000	4.68487E-005	5.39641E-002	5.14342E-001	3.57350E+000	9	...........
	20	0.28	5.22968E-001	9.10116E-005	0.00000E+000	4.75961E-005	5.39641E-002	5.23045E-001	3.57350E+000	9	...........
	21	0.293333	5.31392E-001	9.09387E-005	0.00000E+000	4.83241E-005	5.39641E-002	5.31462E-001	3.57350E+000	9	...........
	22	0.306667	5.39528E-001	9.11554E-005	0.00000E+000	4.91809E-005	5.39641E-002	5.39641E-001	3.57350E+000	9	...........
	23	0.32	5.47509E-001	9.10418E-005	0.00000E+000	4.98462E-005	5.39641E-002	5.47650E-001	3.57350E+000	9	...........
	24	0.333333	5.55295E-001	9.08897E-005	0.00000E+000	5.04706E-005	5.39641E-002	5.55387E-001	3.57350E+000	9	...........
	25	0.346667	5.62872E-001	9.08522E-005	0.00000E+000	5.11381E-005	5.39641E-002	5.62999E-001	3.57350E+000	9	...........
	26	0.36	5.70250E-001	9.10762E-005	0.00000E+000	5.19362E-005	5.39641E-002	5.70373E-001	3.57350E+000	9	...........
	27	0.373333	5.77402E-001	9.08480E-005	0.00000E+000	5.24559E-005	5.39641E-002	5.77543E-001	3.57350E+000	9	...........
	28	0.386667	5.84419E-001	9.12346E-005	0.00000E+000	5.33192E-005	5.39641E-002	5.84567E-001	3.57350E+000	9	...........
	29	0.4	5.91305E-001	9.09835E-005	0.00000E+000	5.37990E-005	5.39641E-002	5.91446E-001	3.57350E+000	9	...........
	30	0.413333	5.98020E-001	9.09220E-005	0.00000E+000	5.43732E-005	5.39641E-002	5.98142E-001	3.57350E+000	9	...........
	31	0.426667	6.04556E-001	9.11210E-005	0.00000E+000	5.50878E-005	5.39641E-002	6.04690E-001	3.57350E+000	9	...........
	32	0.44	6.10958E-001	9.10658E-005	0.00000E+000	5.56374E-005	5.39641E-002	6.11107E-001	3.57350E+000	9	...........
	33	0.453333	6.17281E-001	9.10303E-005	0.00000E+000	5.61913E-005	5.39641E-002	6.17398E-001	3.57350E+000	9	...........
	34	0.466667	6.23414E-001	9.08605E-005	0.00000E+000	5.66438E-005	5.39641E-002	6.23513E-001	3.57350E+000	9	...........
	35	0.48	6.29397E-001	9.11523E-005	0.00000E+000	5.73709E-005	5.39641E-002	6.29529E-001	3.57350E+000	9	...........
	36	0.493333	6.35297E-001	9.10387E-005	0.00000E+000	5.78366E-005	5.39641E-002	6.35403E-001	3.57350E+000	9	...........
	37	0.506667	6.41087E-001	9.07740E-005	0.00000E+000	5.81941E-005	5.39641E-002	6.41227E-001	3.57350E+000	9	...........
	38	0.52	6.46754E-001	9.10710E-005	0.00000E+000	5.89005E-005	5.39641E-002	6.46853E-001	3.57350E+000	9	...........
	39	0.533333	6.52304E-001	9.08720E-005	0.00000E+000	5.92761E-005	5.39641E-002	6.52432E-001	3.57350E+000	9	...........
	40	0.546667	6.57733E-001	9.11054E-005	0.00000E+000	5.99230E-005	5.39641E-002	6.57858E-001	3.57350E+000	9	...........
	41	0.56	6.63070E-001	9.07876E-005	0.00000E+000	6.01985E-005	5.39641E-002	6.63213E-001	3.57350E+000	9	...........
	42	0.573333	6.68368E-001	9.09074E-005	0.00000E+000	6.07596E-005	5.39641E-002	6.68459E-001	3.57350E+000	9	...........
	43	0.586667	6.73525E-001	9.10001E-005	0.00000E+000	6.12909E-005	5.39641E-002	6.73633E-001	3.57350E+000	9	...........
	44	0.6	6.78610E-001	9.11168E-005	0.00000E+000	6.18328E-005	5.39641E-002	6.78723E-001	3.57350E+000	9	...........
	45	0.613333	6.83618E-001	9.09605E-005	0.00000E+000	6.21822E-005	5.39641E-002	6.83682E-001	3.57350E+000	9	...........
	46	0.626667	6.88521E-001	9.11095E-005	0.00000E+000	6.27308E-005	5.39641E-002	6.88627E-001	3.57350E+000	9	...........
	47	0.64	6.93390E-001	9.06792E-005	0.00000E+000	6.28761E-005	5.39641E-002	6.93463E-001	3.57350E+000	9	...........
	48	0.653333	6.98163E-001	9.10981E-005	0.00000E+000	6.36013E-005	5.39641E-002	6.98254E-001	3.57385E+000	9	...........
	49	0.666667	7.02852E-001	9.08741E-005	0.00000E+000	6.38711E-005	5.39641E-002	7.02937E-001	3.57400E+000	9	...........
	50	0.68	7.07453E-001	9.09460E-005	0.00000E+000	6.43400E-005	5.39641E-002	7.07579E-001	3.57400E+000	9	...........
	51	0.693333	7.12013E-001	9.11220E-005	0.00000E+000	6.48801E-005	5.39641E-002	7.12120E-001	3.57400E+000	9	...........
	52	0.706667	7.16509E-001	9.11168E-005	0.00000E+000	6.52860E-005	5.39641E-002	7.16643E-001	3.57400E+000	9	...........
	53	0.72	7.20957E-001	9.09439E-005	0.00000E+000	6.55666E-005	5.39641E-002	7.21066E-001	3.57400E+000	9	...........
	54	0.733333	7.25346E-001	9.10939E-005	0.00000E+000	6.60746E-005	5.39641E-002	7.25440E-001	3.57400E+000	9	...........
	55	0.746667	7.29620E-001	9.10606E-005	0.00000E+000	6.64396E-005	5.39641E-002	7.29760E-001	3.57400E+000	9	...........
	56	0.76	7.33841E-001	9.08491E-005	0.00000E+000	6.66688E-005	5.39641E-002	7.33983E-001	3.57400E+000	9	...........
	57	0.773333	7.38010E-001	9.07918E-005	0.00000E+000	6.70053E-005	5.39641E-002	7.38149E-001	3.57400E+000	9	...........
	58	0.786667	7.42158E-001	9.09314E-005	0.00000E+000	6.74855E-005	5.39641E-002	7.42309E-001	3.57400E+000	9	...........
	59	0.8	7.46246E-001	9.10137E-005	0.00000E+000	6.79186E-005	5.39641E-002	7.46399E-001	3.57400E+000	9	...........
	60	0.813333	7.50262E-001	9.10710E-005	0.00000E+000	6.83271E-005	5.39641E-002	7.50394E-001	3.57400E+000	9	...........
	61	0.826667	7.54258E-001	9.09324E-005	0.00000E+000	6.85865E-005	5.39641E-002	7.54386E-001	3.57400E+000	9	...........
	62	0.84	7.58175E-001	9.10606E-005	0.00000E+000	6.90399E-005	5.39641E-002	7.58316E-001	3.57400E+000	9	...........
	63	0.853333	7.62064E-001	9.11366E-005	0.00000E+000	6.94520E-005	5.39641E-002	7.62190E-001	3.57400E+000	9	...........
	64	0.866667	7.65886E-001	9.09751E-005	0.00000E+000	6.96766E-005	5.39641E-002	7.66046E-001	3.57400E+000	9	...........
	65	0.88	7.69701E-001	9.12731E-005	0.00000E+000	7.02530E-005	5.39641E-002	7.69862E-001	3.57400E+000	9	...........
	66	0.893333	7.73435E-001	9.10939E-005	0.00000E+000	7.04552E-005	5.39641E-002	7.73579E-001	3.57400E+000	9	...........
	67	0.906667	7.77125E-001	9.10762E-005	0.00000E+000	7.07776E-005	5.39641E-002	7.77285E-001	3.57400E+000	9	...........
	68	0.92	7.80809E-001	9.10074E-005	0.00000E+000	7.10594E-005	5.39641E-002	7.80912E-001	3.57400E+000	9	...........
	69	0.933333	7.84413E-001	9.10908E-005	0.00000E+000	7.14528E-005	5.39641E-002	7.84537E-001	3.57400E+000	9	...........
	70	0.946667	7.88009E-001	9.09772E-005	0.00000E+000	7.16908E-005	5.39641E-002	7.88114E-001	3.57400E+000	9	...........
	71	0.96	7.91533E-001	9.11762E-005	0.00000E+000	7.21690E-005	5.39641E-002	7.91679E-001	3.57400E+000	9	...........
	72	0.97333	7.95070E-001	9.11012E-005	0.00000E+000	7.24319E-005	5.39641E-002	7.95187E-001	3.57400E+000	9	...........
	73	0.98667	7.98503E-001	9.10543E-005	0.00000E+000	7.27071E-005	5.39641E-002	7.98621E-001	3.57400E+000	9	...........
	74	1	8.01913E-001	9.10543E-005	0.00000E+000	7.30176E-005	5.39641E-002	8.02028E-001	3.57400E+000	9	...........
	75	1.01333	8.05295E-001	9.08230E-005	0.00000E+000	7.31393E-005	5.39641E-002	8.05435E-001	3.57400E+000	9	...........
	76	1.02667	8.08623E-001	9.08793E-005	0.00000E+000	7.34870E-005	5.39641E-002	8.08766E-001	3.57400E+000	9	...........
	77	1.04	8.11938E-001	9.09585E-005	0.00000E+000	7.38526E-005	5.39641E-002	8.12091E-001	3.57400E+000	9	...........
	78	1.05333	8.15215E-001	9.09553E-005	0.00000E+000	7.41482E-005	5.39641E-002	8.15405E-001	3.57400E+000	9	...........
	79	1.06667	8.18473E-001	9.08834E-005	0.00000E+000	7.43856E-005	5.39641E-002	8.18625E-001	3.57400E+000	9	...........
	80	1.08	8.21670E-001	9.09032E-005	0.00000E+000	7.46925E-005	5.39641E-002	8.21828E-001	3.57400E+000	9	...........
	81	1.09333	8.24831E-001	9.09887E-005	0.00000E+000	7.50503E-005	5.39641E-002	8.25002E-001	3.57400E+000	9	...........
	82	1.10667	8.27971E-001	9.10501E-005	0.00000E+000	7.53869E-005	5.39641E-002	8.28106E-001	3.57400E+000	9	...........
	83	1.12	8.31070E-001	9.12554E-005	0.00000E+000	7.58396E-005	5.39641E-002	8.31217E-001	3.57400E+000	9	...........
	84	1.13333	8.34150E-001	9.07876E-005	0.00000E+000	7.57304E-005	5.39641E-002	8.34301E-001	3.57400E+000	9	...........
	85	1.14667	8.37186E-001	9.12731E-005	0.00000E+000	7.64126E-005	5.39641E-002	8.37360E-001	3.57400E+000	9	...........
	86	1.16	8.40194E-001	9.10647E-005	0.00000E+000	7.65121E-005	5.39641E-002	8.40376E-001	3.57400E+000	9	...........
	87	1.17333	8.43181E-001	9.08553E-005	0.00000E+000	7.66074E-005	5.39641E-002	8.43358E-001	3.57400E+000	9	...........
	88	1.18667	8.46174E-001	9.11543E-005	0.00000E+000	7.71324E-005	5.39641E-002	8.46321E-001	3.57400E+000	9	...........
	89	1.2	8.49093E-001	9.10533E-005	0.00000E+000	7.73127E-005	5.39641E-002	8.49251E-001	3.57400E+000	9	...........
	90	1.21333	8.51990E-001	9.09543E-005	0.00000E+000	7.74922E-005	5.39641E-002	8.52122E-001	3.57400E+000	9	...........
	91	1.22667	8.54821E-001	9.11481E-005	0.00000E+000	7.79153E-005	5.39641E-002	8.54973E-001	3.57400E+000	9	...........
	92	1.24	8.57676E-001	9.09720E-005	0.00000E+000	7.80245E-005	5.39641E-002	8.57824E-001	3.57400E+000	9	...........
	93	1.25333	8.60468E-001	9.10793E-005	0.00000E+000	7.83709E-005	5.39641E-002	8.60639E-001	3.57400E+000	9	...........
	94	1.26667	8.63258E-001	9.11398E-005	0.00000E+000	7.86771E-005	5.39641E-002	8.63422E-001	3.57400E+000	9	...........
	95	1.28	8.65996E-001	9.10512E-005	0.00000E+000	7.88500E-005	5.39641E-002	8.66156E-001	3.57400E+000	9	...........
	96	1.29333	8.68733E-001	9.12033E-005	0.00000E+000	7.92313E-005	5.39641E-002	8.68909E-001	3.57400E+000	9	...........
	97	1.30667	8.71452E-001	9.10689E-005	0.00000E+000	7.93622E-005	5.39641E-002	8.71606E-001	3.57400E+000	9	...........
	98	1.32	8.74136E-001	9.09501E-005	0.00000E+000	7.95028E-005	5.39641E-002	8.74299E-001	3.57400E+000	9	...........
	99	1.33333	8.76760E-001	9.06407E-005	0.00000E+000	7.94702E-005	5.39641E-002	8.76936E-001	3.57400E+000	9	...........
	100	1.34667	8.79348E-001	9.09512E-005	0.00000E+000	7.99777E-005	5.39641E-002	8.79514E-001	3.57400E+000	9	...........
	101	1.36	8.81946E-001	9.07428E-005	0.00000E+000	8.00303E-005	5.39641E-002	8.82137E-001	3.57400E+000	9	...........
	102	1.37333	8.84521E-001	9.12366E-005	0.00000E+000	8.07007E-005	5.39641E-002	8.84700E-001	3.57400E+000	9	...........
	103	1.38667	8.87035E-001	9.09491E-005	0.00000E+000	8.06751E-005	5.39641E-002	8.87237E-001	3.57400E+000	9	...........
	104	1.4	8.89563E-001	9.10991E-005	0.00000E+000	8.10384E-005	5.39641E-002	8.89722E-001	3.57400E+000	9	...........
	105	1.41333	8.92024E-001	9.09428E-005	0.00000E+000	8.11232E-005	5.39641E-002	8.92218E-001	3.57400E+000	9	...........
	106	1.42667	8.94476E-001	9.11397E-005	0.00000E+000	8.15223E-005	5.39641E-002	8.94678E-001	3.57400E+000	9	...........
	107	1.44	8.96907E-001	9.10470E-005	0.00000E+000	8.16607E-005	5.39641E-002	8.97112E-001	3.57400E+000	9	...........
	108	1.45333	8.99320E-001	9.09814E-005	0.00000E+000	8.18214E-005	5.39641E-002	8.99534E-001	3.57400E+000	9	...........
	109	1.46667	9.01713E-001	9.11627E-005	0.00000E+000	8.22026E-005	5.39641E-002	9.01898E-001	3.57400E+000	9	...........
	110	1.48	9.04052E-001	9.07657E-005	0.00000E+000	8.20569E-005	5.39641E-002	9.04272E-001	3.57400E+000	9	...........
	111	1.49333	9.06346E-001	9.12314E-005	0.00000E+000	8.26873E-005	5.39641E-002	9.06565E-001	3.57400E+000	9	...........
	112	1.50667	9.08651E-001	9.10418E-005	0.00000E+000	8.27252E-005	5.39641E-002	9.08874E-001	3.57400E+000	9	...........
	113	1.52	9.10938E-001	9.09012E-005	0.00000E+000	8.28053E-005	5.39641E-002	9.11138E-001	3.57400E+000	9	...........
	114	1.53333	9.13198E-001	9.10626E-005	0.00000E+000	8.31582E-005	5.39641E-002	9.13398E-001	3.57400E+000	9	...........
	115	1.54667	9.15450E-001	9.12241E-005	0.00000E+000	8.35111E-005	5.39641E-002	9.15652E-001	3.57400E+000	9	...........
	116	1.56	9.17642E-001	9.08178E-005	0.00000E+000	8.33382E-005	5.39641E-002	9.17852E-001	3.57400E+000	9	...........
	117	1.57333	9.19859E-001	9.08491E-005	0.00000E+000	8.35683E-005	5.39641E-002	9.20065E-001	3.57400E+000	9	...........
	118	1.58667	9.22080E-001	9.09908E-005	0.00000E+000	8.39007E-005	5.39641E-002	9.22235E-001	3.57400E+000	9	...........
	119	1.6	9.24217E-001	9.10616E-005	0.00000E+000	8.41607E-005	5.39641E-002	9.24358E-001	3.57400E+000	9	...........
	120	1.61333	9.26336E-001	9.10564E-005	0.00000E+000	8.43488E-005	5.39641E-002	9.26490E-001	3.57400E+000	9	...........
	121	1.62667	9.28441E-001	9.11054E-005	0.00000E+000	8.45859E-005	5.39641E-002	9.28569E-001	3.57400E+000	9	...........
	122	1.64	9.30498E-001	9.09314E-005	0.00000E+000	8.46114E-005	5.39641E-002	9.30630E-001	3.57400E+000	9	...........
	123	1.65333	9.32547E-001	9.07813E-005	0.00000E+000	8.46579E-005	5.39641E-002	9.32679E-001	3.57301E+000	9	...........
	124	1.66667	9.34584E-001	9.10074E-005	0.00000E+000	8.50541E-005	5.39641E-002	9.34722E-001	3.57260E+000	9	...........
	125	1.68	9.36584E-001	9.08209E-005	0.00000E+000	8.50614E-005	5.39641E-002	9.36739E-001	3.57260E+000	9	...........
	126	1.69333	9.38558E-001	9.10949E-005	0.00000E+000	8.54979E-005	5.39641E-002	9.38739E-001	3.57260E+000	9	...........
	127	1.70667	9.40525E-001	9.09084E-005	0.00000E+000	8.55017E-005	5.39641E-002	9.40705E-001	3.57260E+000	9	...........
	128	1.72	9.42461E-001	9.09553E-005	0.00000E+000	8.57219E-005	5.39641E-002	9.42646E-001	3.57260E+000	9	...........
	129	1.73333	9.44387E-001	9.09668E-005	0.00000E+000	8.59078E-005	5.39641E-002	9.44566E-001	3.57260E+000	9	...........
	130	1.74667	9.46299E-001	9.10981E-005	0.00000E+000	8.62060E-005	5.39641E-002	9.46488E-001	3.57260E+000	9	...........
	131	1.76	9.48212E-001	9.10460E-005	0.00000E+000	8.63309E-005	5.39641E-002	9.48360E-001	3.57260E+000	9	...........
	132	1.77333	9.50065E-001	9.11679E-005	0.00000E+000	8.66154E-005	5.39641E-002	9.50213E-001	3.57260E+000	9	...........
	133	1.78667	9.51911E-001	9.07751E-005	0.00000E+000	8.64098E-005	5.39641E-002	9.52078E-001	3.57260E+000	9	...........
	134	1.8	9.53728E-001	9.10658E-005	0.00000E+000	8.68519E-005	5.39641E-002	9.53898E-001	3.57260E+000	9	...........
	135	1.81333	9.55555E-001	9.11418E-005	0.00000E+000	8.70910E-005	5.39641E-002	9.55695E-001	3.57260E+000	9	...........
	136	1.82667	9.57320E-001	9.09387E-005	0.00000E+000	8.70574E-005	5.39641E-002	9.57498E-001	3.57260E+000	9	...........
	137	1.84	9.59106E-001	9.10699E-005	0.00000E+000	8.73457E-005	5.39641E-002	9.59288E-001	3.57260E+000	9	...........
	138	1.85333	9.60873E-001	9.12189E-005	0.00000E+000	8.76498E-005	5.39641E-002	9.61055E-001	3.57260E+000	9	...........
	139	1.86667	9.62595E-001	9.13283E-005	0.00000E+000	8.79122E-005	5.39641E-002	9.62775E-001	3.57260E+000	9	...........
	140	1.88	9.64302E-001	9.07313E-005	0.00000E+000	8.74924E-005	5.39641E-002	9.64510E-001	3.57260E+000	9	...........
	141	1.89333	9.65997E-001	9.09595E-005	0.00000E+000	8.78666E-005	5.39641E-002	9.66191E-001	3.57260E+000	9	...........
	142	1.90667	9.67664E-001	9.09220E-005	0.00000E+000	8.79819E-005	5.39641E-002	9.67851E-001	3.57260E+000	9	...........
	143	1.92	9.69315E-001	9.12085E-005	0.00000E+000	8.84097E-005	5.39641E-002	9.69513E-001	3.57260E+000	9	...........
	144	1.93333	9.70923E-001	9.12012E-005	0.00000E+000	8.85493E-005	5.39641E-002	9.71150E-001	3.57260E+000	9	...........
	145	1.94667	9.72601E-001	9.10585E-005	0.00000E+000	8.85636E-005	5.39641E-002	9.72796E-001	3.57260E+000	9	...........
	146	1.96	9.74209E-001	9.11252E-005	0.00000E+000	8.87749E-005	5.39641E-002	9.74385E-001	3.57260E+000	9	...........
	147	1.97333	9.75792E-001	9.09887E-005	0.00000E+000	8.87860E-005	5.39641E-002	9.75971E-001	3.57260E+000	9	...........
	148	1.98667	9.77341E-001	9.11825E-005	0.00000E+000	8.91164E-005	5.39641E-002	9.77541E-001	3.57260E+000	9	...........
	149	2	9.78902E-001	9.09230E-005	0.00000E+000	8.90047E-005	5.39641E-002	9.79081E-001	3.57260E+000	9	...........
	150	2.01333	9.80433E-001	9.09803E-005	0.00000E+000	8.92001E-005	5.39641E-002	9.80610E-001	3.57260E+000	9	...........
	151	2.02667	9.81906E-001	9.08303E-005	0.00000E+000	8.91868E-005	5.39641E-002	9.82121E-001	3.57260E+000	9	...........
	152	2.04	9.83394E-001	9.09262E-005	0.00000E+000	8.94162E-005	5.39641E-002	9.83597E-001	3.57260E+000	9	...........
	153	2.05333	9.84875E-001	9.09543E-005	0.00000E+000	8.95787E-005	5.39641E-002	9.85099E-001	3.57260E+000	9	...........
	154	2.06667	9.86346E-001	9.07813E-005	0.00000E+000	8.95418E-005	5.39641E-002	9.86584E-001	3.57260E+000	9	...........
	155	2.08	9.87825E-001	9.06719E-005	0.00000E+000	8.95680E-005	5.39641E-002	9.88044E-001	3.57260E+000	9	...........
	156	2.09333	9.89282E-001	9.11783E-005	0.00000E+000	9.02011E-005	5.39641E-002	9.89492E-001	3.57260E+000	9	...........
	157	2.10667	9.90689E-001	9.11137E-005	0.00000E+000	9.02653E-005	5.39641E-002	9.90894E-001	3.57260E+000	9	...........
	158	2.12	9.92073E-001	9.09293E-005	0.00000E+000	9.02085E-005	5.39641E-002	9.92290E-001	3.57260E+000	9	...........
	159	2.13333	9.93462E-001	9.11543E-005	0.00000E+000	9.05584E-005	5.39641E-002	9.93677E-001	3.57260E+000	9	...........
	160	2.14667	9.94833E-001	9.10116E-005	0.00000E+000	9.05413E-005	5.39641E-002	9.95041E-001	3.57260E+000	9	...........
	161	2.16	9.96216E-001	9.10970E-005	0.00000E+000	9.07523E-005	5.39641E-002	9.96422E-001	3.57260E+000	9	...........
	162	2.17333	9.97566E-001	9.09803E-005	0.00000E+000	9.07589E-005	5.39641E-002	9.97794E-001	3.57260E+000	9	...........
	163	2.18667	9.98904E-001	9.08689E-005	0.00000E+000	9.07693E-005	5.39641E-002	9.99125E-001	3.57260E+000	9	...........
	164	2.19167	9.99836E-001	9.08821E-005	0.00000E+000	9.08671E-005	5.39641E-002	1.00005E+000	3.57260E+000	9	...........
STARTTIMEOFFSET	QUANT	2919.266	Start Time Offset (s)
