EXPLAIN
TAG	PWR800_CHARGE
TITLE	LABEL	PWR Cyclic Charge Discharge (Cell) - Charge Step	Test &Identifier
DATE	LABEL	10-7-2017	Date
TIME	LABEL	15:30:09	Time
NOTES	NOTES	3	&Notes...
	supercap test cell
	0.9mg
	6M KOH
PSTAT	PSTAT	IFC5000-01520	Potentiostat
CAPACITY	QUANT	1.00000E-003	Capacity (A-hr)
CELLTYPE	SELECTOR	1	&Cell Type
WORKINGCONNECTION	SELECTOR	0	&Working Lead
MAXCHARGETIME	VARIABLEANDUNITS	1.00000E+002	s	1.00000E+002	second(s)	Max &Charge Time
CHARGECURRENT	QUANT	9.00000E-005	&Charge Current (A) 
VOLTAGEFINISH	TWOPARAM	F	1.00000E-003	3.60000E+003	&Voltage Finish	 I (A) < 	Max Time(s)
SAMPLETIME	QUANT	1.00000E-002	Sa&mple Period (s)
CHARGESTOPAT1	MULTIPARAM	4	1.00000E+000	Charge Stop At &1	Voltage > Limit	V
CHARGESTOPAT2	MULTIPARAM	0	0.00000E+000	Charge Stop At &2	None	N/A
AESBHCSELECTOR	TOGGLE	F	Save Both Half Cells
IRCOMP	TOGGLE	F	IR &Measure
EOC	QUANT	0	Open Circuit (V)
SEQUENCER	TOGGLE	TRUE	Run as Sequence
PSTATMODEL	IQUANT	53	Pstat Model
PSTATSECTION	LABEL	IFC5000-01520	Pstat Section
PSTATSERIALNO	LABEL	01520	Pstat Serial Number
CTRLMODE	IQUANT	0	Control Mode
ELECTROMETER	IQUANT	1	RE=0 or CS=1
IESTAB	IQUANT	0	I/E Stability
CASPEED	IQUANT	4	Control Amp Speed
CONVENTION	IQUANT	1	Current Convention
ICHRANGE	IQUANT	2	Ich Range
ICHRANGEMODE	TOGGLE	T	Ich Auto Range
ICHOFFSETENABLE	TOGGLE	F	Ich Offset Enable
ICHOFFSET	QUANT	0	Ich Offset (V)
ICHFILTER	IQUANT	1	Ich Filter
VCHRANGE	IQUANT	2	Vch Range
VCHRANGEMODE	TOGGLE	T	Vch Auto Range
VCHOFFSETENABLE	TOGGLE	F	Vch Offset Enable
VCHOFFSET	QUANT	0	Vch Offset (V)
VCHFILTER	IQUANT	1	Vch Filter
IERANGELOWERLIMIT	IQUANT	9	I/E Range Lower Limit
IERANGEMODE	TOGGLE	F	I/E AutoRange
IERANGE	IQUANT	9	I/E Range
ACHSELECT	IQUANT	1	Ach Select
ACHRANGE	IQUANT	2	Ach Range
ACHOFFSETENABLE	TOGGLE	F	Ach Offset Enable
ACHOFFSET	QUANT	0	Ach Offset (V)
ACHFILTER	IQUANT	1	Ach Filter
CABLEID	IQUANT	14	Cable ID
DCCALDATE	LABEL	5-7-2017	DC Calibration Date
ACCALDATE	LABEL	12/3/2015	AC Calibration Date
FRAMEWORKVERSION	QUANT	7.01	Framework Version
INSTRUMENTVERSION	LABEL	4.00	Instrument Version
CURVE	TABLE	174
	Pt	T	Vf	Im	Vu	Pwr	Sig	Ach	Temp	IERange	Over
	#	s	V	A	V	W	V	V	deg C	#	bits
	0	0.013333	2.80668E-001	9.06917E-005	0.00000E+000	2.54543E-005	5.39641E-002	2.80718E-001	3.57260E+000	9	...........
	1	0.026667	3.00209E-001	9.10251E-005	0.00000E+000	2.73266E-005	5.39641E-002	3.00249E-001	3.57260E+000	9	...........
	2	0.04	3.18338E-001	9.08376E-005	0.00000E+000	2.89171E-005	5.39641E-002	3.18380E-001	3.57260E+000	9	...........
	3	0.053333	3.35293E-001	9.08032E-005	0.00000E+000	3.04456E-005	5.39641E-002	3.35331E-001	3.57260E+000	9	...........
	4	0.066667	3.51231E-001	9.09845E-005	0.00000E+000	3.19566E-005	5.39641E-002	3.51276E-001	3.57260E+000	9	...........
	5	0.08	3.66301E-001	9.11022E-005	0.00000E+000	3.33709E-005	5.39641E-002	3.66339E-001	3.57260E+000	9	...........
	6	0.093333	3.80584E-001	9.08678E-005	0.00000E+000	3.45828E-005	5.39641E-002	3.80630E-001	3.57260E+000	9	...........
	7	0.106667	3.94167E-001	9.09762E-005	0.00000E+000	3.58598E-005	5.39641E-002	3.94212E-001	3.57260E+000	9	...........
	8	0.12	4.07133E-001	9.10720E-005	0.00000E+000	3.70785E-005	5.39641E-002	4.07178E-001	3.57260E+000	9	...........
	9	0.133333	4.19528E-001	9.10699E-005	0.00000E+000	3.82064E-005	5.39641E-002	4.19574E-001	3.57260E+000	9	...........
	10	0.146667	4.31394E-001	9.08157E-005	0.00000E+000	3.91773E-005	5.39641E-002	4.31449E-001	3.57260E+000	9	...........
	11	0.16	4.42779E-001	9.08230E-005	0.00000E+000	4.02145E-005	5.39641E-002	4.42829E-001	3.57260E+000	9	...........
	12	0.173333	4.53724E-001	9.09157E-005	0.00000E+000	4.12506E-005	5.39641E-002	4.53787E-001	3.57260E+000	9	...........
	13	0.186667	4.64253E-001	9.08595E-005	0.00000E+000	4.21818E-005	5.39641E-002	4.64312E-001	3.57260E+000	9	...........
	14	0.2	4.74415E-001	9.10303E-005	0.00000E+000	4.31862E-005	5.39641E-002	4.74480E-001	3.57260E+000	9	...........
	15	0.213333	4.84244E-001	9.10158E-005	0.00000E+000	4.40738E-005	5.39641E-002	4.84300E-001	3.57260E+000	9	...........
	16	0.226667	4.93741E-001	9.09345E-005	0.00000E+000	4.48981E-005	5.39641E-002	4.93807E-001	3.57260E+000	9	...........
	17	0.24	5.02934E-001	9.09637E-005	0.00000E+000	4.57487E-005	5.39641E-002	5.02995E-001	3.57260E+000	9	...........
	18	0.253333	5.11837E-001	9.09460E-005	0.00000E+000	4.65495E-005	5.39641E-002	5.11906E-001	3.57260E+000	9	...........
	19	0.266667	5.20490E-001	9.10272E-005	0.00000E+000	4.73787E-005	5.39641E-002	5.20558E-001	3.57260E+000	9	...........
	20	0.28	5.28895E-001	9.09970E-005	0.00000E+000	4.81279E-005	5.39641E-002	5.28960E-001	3.57260E+000	9	...........
	21	0.293333	5.36966E-001	9.11189E-005	0.00000E+000	4.89278E-005	5.39641E-002	5.37069E-001	3.57260E+000	9	...........
	22	0.306667	5.44910E-001	9.07459E-005	0.00000E+000	4.94484E-005	5.39641E-002	5.44977E-001	3.57260E+000	9	...........
	23	0.32	5.52623E-001	9.08991E-005	0.00000E+000	5.02329E-005	5.39641E-002	5.52704E-001	3.57260E+000	9	...........
	24	0.333333	5.60142E-001	9.07709E-005	0.00000E+000	5.08446E-005	5.39641E-002	5.60224E-001	3.57260E+000	9	...........
	25	0.346667	5.67504E-001	9.09491E-005	0.00000E+000	5.16139E-005	5.39641E-002	5.67576E-001	3.57260E+000	9	...........
	26	0.36	5.74650E-001	9.09845E-005	0.00000E+000	5.22842E-005	5.39641E-002	5.74703E-001	3.57260E+000	9	...........
	27	0.373333	5.81595E-001	9.10564E-005	0.00000E+000	5.29580E-005	5.39641E-002	5.81673E-001	3.57260E+000	9	...........
	28	0.386667	5.88421E-001	9.10595E-005	0.00000E+000	5.35814E-005	5.39641E-002	5.88501E-001	3.57260E+000	9	...........
	29	0.4	5.95061E-001	9.09355E-005	0.00000E+000	5.41122E-005	5.39641E-002	5.95161E-001	3.57260E+000	9	...........
	30	0.413333	6.01570E-001	9.09949E-005	0.00000E+000	5.47398E-005	5.39641E-002	6.01696E-001	3.57260E+000	9	...........
	31	0.426667	6.07897E-001	9.10397E-005	0.00000E+000	5.53428E-005	5.39641E-002	6.08055E-001	3.57260E+000	9	...........
	32	0.44	6.14208E-001	9.08324E-005	0.00000E+000	5.57900E-005	5.39641E-002	6.14307E-001	3.57260E+000	9	...........
	33	0.453333	6.20299E-001	9.11283E-005	0.00000E+000	5.65268E-005	5.39641E-002	6.20407E-001	3.57260E+000	9	...........
	34	0.466667	6.26275E-001	9.11356E-005	0.00000E+000	5.70760E-005	5.39641E-002	6.26402E-001	3.57260E+000	9	...........
	35	0.48	6.32118E-001	9.11981E-005	0.00000E+000	5.76479E-005	5.39641E-002	6.32233E-001	3.57260E+000	9	...........
	36	0.493333	6.37803E-001	9.11085E-005	0.00000E+000	5.81093E-005	5.39641E-002	6.37963E-001	3.57260E+000	9	...........
	37	0.506667	6.43462E-001	9.12762E-005	0.00000E+000	5.87328E-005	5.39641E-002	6.43584E-001	3.57260E+000	9	...........
	38	0.52	6.48957E-001	9.09522E-005	0.00000E+000	5.90241E-005	5.39641E-002	6.49092E-001	3.57260E+000	9	...........
	39	0.533333	6.54378E-001	9.09376E-005	0.00000E+000	5.95076E-005	5.39641E-002	6.54497E-001	3.57260E+000	9	...........
	40	0.546667	6.59657E-001	9.08407E-005	0.00000E+000	5.99237E-005	5.39641E-002	6.59755E-001	3.57260E+000	9	...........
	41	0.56	6.64856E-001	9.09095E-005	0.00000E+000	6.04417E-005	5.39641E-002	6.64970E-001	3.57260E+000	9	...........
	42	0.573333	6.69978E-001	9.10293E-005	0.00000E+000	6.09876E-005	5.39641E-002	6.70082E-001	3.57260E+000	9	...........
	43	0.586667	6.74973E-001	9.11210E-005	0.00000E+000	6.15042E-005	5.39641E-002	6.75089E-001	3.57260E+000	9	...........
	44	0.6	6.79941E-001	9.10741E-005	0.00000E+000	6.19251E-005	5.39641E-002	6.80072E-001	3.57260E+000	9	...........
	45	0.613333	6.84765E-001	9.11825E-005	0.00000E+000	6.24385E-005	5.39641E-002	6.84915E-001	3.57260E+000	9	...........
	46	0.626667	6.89545E-001	9.09855E-005	0.00000E+000	6.27386E-005	5.39641E-002	6.89699E-001	3.57260E+000	9	...........
	47	0.64	6.94266E-001	9.12064E-005	0.00000E+000	6.33215E-005	5.39641E-002	6.94415E-001	3.57260E+000	9	...........
	48	0.653333	6.98880E-001	9.08782E-005	0.00000E+000	6.35130E-005	5.39641E-002	6.99010E-001	3.57260E+000	9	...........
	49	0.666667	7.03435E-001	9.09658E-005	0.00000E+000	6.39885E-005	5.39641E-002	7.03566E-001	3.57260E+000	9	...........
	50	0.68	7.07894E-001	9.09897E-005	0.00000E+000	6.44111E-005	5.39641E-002	7.08043E-001	3.57260E+000	9	...........
	51	0.693333	7.12318E-001	9.12794E-005	0.00000E+000	6.50200E-005	5.39641E-002	7.12445E-001	3.57260E+000	9	...........
	52	0.706667	7.16676E-001	9.10939E-005	0.00000E+000	6.52848E-005	5.39641E-002	7.16821E-001	3.57260E+000	9	...........
	53	0.72	7.20994E-001	9.09876E-005	0.00000E+000	6.56015E-005	5.39641E-002	7.21104E-001	3.57260E+000	9	...........
	54	0.733333	7.25242E-001	9.13106E-005	0.00000E+000	6.62223E-005	5.39641E-002	7.25323E-001	3.57260E+000	9	...........
	55	0.746667	7.29371E-001	9.10887E-005	0.00000E+000	6.64374E-005	5.39641E-002	7.29466E-001	3.57260E+000	9	...........
	56	0.76	7.33446E-001	9.10866E-005	0.00000E+000	6.68071E-005	5.39641E-002	7.33575E-001	3.57260E+000	9	...........
	57	0.773333	7.37513E-001	9.09960E-005	0.00000E+000	6.71107E-005	5.39641E-002	7.37620E-001	3.57260E+000	9	...........
	58	0.786667	7.41513E-001	9.08741E-005	0.00000E+000	6.73843E-005	5.39641E-002	7.41638E-001	3.57260E+000	9	...........
	59	0.8	7.45489E-001	9.10033E-005	0.00000E+000	6.78420E-005	5.39641E-002	7.45600E-001	3.57260E+000	9	...........
	60	0.813333	7.49387E-001	9.13929E-005	0.00000E+000	6.84887E-005	5.39641E-002	7.49462E-001	3.57260E+000	9	...........
	61	0.826667	7.53179E-001	9.08699E-005	0.00000E+000	6.84413E-005	5.39641E-002	7.53296E-001	3.57260E+000	9	...........
	62	0.84	7.57010E-001	9.11741E-005	0.00000E+000	6.90197E-005	5.39641E-002	7.57094E-001	3.57260E+000	9	...........
	63	0.853333	7.60716E-001	9.10731E-005	0.00000E+000	6.92808E-005	5.39641E-002	7.60830E-001	3.57260E+000	9	...........
	64	0.866667	7.64385E-001	9.13033E-005	0.00000E+000	6.97909E-005	5.39641E-002	7.64496E-001	3.57260E+000	9	...........
	65	0.88	7.68022E-001	9.11731E-005	0.00000E+000	7.00229E-005	5.39641E-002	7.68174E-001	3.57260E+000	9	...........
	66	0.893333	7.71610E-001	9.09741E-005	0.00000E+000	7.01965E-005	5.39641E-002	7.71756E-001	3.57260E+000	9	...........
	67	0.906667	7.75182E-001	9.12669E-005	0.00000E+000	7.07484E-005	5.39641E-002	7.75312E-001	3.57260E+000	9	...........
	68	0.92	7.78694E-001	9.12158E-005	0.00000E+000	7.10292E-005	5.39641E-002	7.78820E-001	3.57260E+000	9	...........
	69	0.933333	7.82187E-001	9.11210E-005	0.00000E+000	7.12736E-005	5.39641E-002	7.82314E-001	3.57287E+000	9	...........
	70	0.946667	7.85616E-001	9.11116E-005	0.00000E+000	7.15787E-005	5.39641E-002	7.85747E-001	3.57370E+000	9	...........
	71	0.96	7.88996E-001	9.13221E-005	0.00000E+000	7.20527E-005	5.39641E-002	7.89127E-001	3.57370E+000	9	...........
	72	0.97333	7.92372E-001	9.10168E-005	0.00000E+000	7.21191E-005	5.39641E-002	7.92497E-001	3.57370E+000	9	...........
	73	0.98667	7.95707E-001	9.09637E-005	0.00000E+000	7.23804E-005	5.39641E-002	7.95810E-001	3.57370E+000	9	...........
	74	1	7.98970E-001	9.12127E-005	0.00000E+000	7.28762E-005	5.39641E-002	7.99072E-001	3.57370E+000	9	...........
	75	1.01333	8.02199E-001	9.09595E-005	0.00000E+000	7.29676E-005	5.39641E-002	8.02306E-001	3.57370E+000	9	...........
	76	1.02667	8.05405E-001	9.11648E-005	0.00000E+000	7.34246E-005	5.39641E-002	8.05532E-001	3.57370E+000	9	...........
	77	1.04	8.08538E-001	9.10251E-005	0.00000E+000	7.35973E-005	5.39641E-002	8.08678E-001	3.57370E+000	9	...........
	78	1.05333	8.11675E-001	9.12658E-005	0.00000E+000	7.40782E-005	5.39641E-002	8.11785E-001	3.57370E+000	9	...........
	79	1.06667	8.14714E-001	9.10428E-005	0.00000E+000	7.41739E-005	5.39641E-002	8.14886E-001	3.57370E+000	9	...........
	80	1.08	8.17785E-001	9.10303E-005	0.00000E+000	7.44432E-005	5.39641E-002	8.17918E-001	3.57370E+000	9	...........
	81	1.09333	8.20815E-001	9.11950E-005	0.00000E+000	7.48542E-005	5.39641E-002	8.20965E-001	3.57370E+000	9	...........
	82	1.10667	8.23793E-001	9.11095E-005	0.00000E+000	7.50554E-005	5.39641E-002	8.23966E-001	3.57370E+000	9	...........
	83	1.12	8.26757E-001	9.11262E-005	0.00000E+000	7.53392E-005	5.39641E-002	8.26900E-001	3.57370E+000	9	...........
	84	1.13333	8.29676E-001	9.10824E-005	0.00000E+000	7.55689E-005	5.39641E-002	8.29822E-001	3.57370E+000	9	...........
	85	1.14667	8.32565E-001	9.10981E-005	0.00000E+000	7.58451E-005	5.39641E-002	8.32747E-001	3.57370E+000	9	...........
	86	1.16	8.35425E-001	9.12335E-005	0.00000E+000	7.62188E-005	5.39641E-002	8.35608E-001	3.57370E+000	9	...........
	87	1.17333	8.38257E-001	9.11043E-005	0.00000E+000	7.63689E-005	5.39641E-002	8.38402E-001	3.57370E+000	9	...........
	88	1.18667	8.41047E-001	9.10335E-005	0.00000E+000	7.65635E-005	5.39641E-002	8.41218E-001	3.57370E+000	9	...........
	89	1.2	8.43856E-001	9.10772E-005	0.00000E+000	7.68560E-005	5.39641E-002	8.44007E-001	3.57370E+000	9	...........
	90	1.21333	8.46638E-001	9.10418E-005	0.00000E+000	7.70795E-005	5.39641E-002	8.46811E-001	3.57370E+000	9	...........
	91	1.22667	8.49382E-001	9.09470E-005	0.00000E+000	7.72487E-005	5.39641E-002	8.49552E-001	3.57370E+000	9	...........
	92	1.24	8.52089E-001	9.06365E-005	0.00000E+000	7.72304E-005	5.39641E-002	8.52254E-001	3.57370E+000	9	...........
	93	1.25333	8.54725E-001	9.12168E-005	0.00000E+000	7.79653E-005	5.39641E-002	8.54888E-001	3.57370E+000	9	...........
	94	1.26667	8.57352E-001	9.08772E-005	0.00000E+000	7.79137E-005	5.39641E-002	8.57531E-001	3.57370E+000	9	...........
	95	1.28	8.59954E-001	9.09553E-005	0.00000E+000	7.82174E-005	5.39641E-002	8.60136E-001	3.57370E+000	9	...........
	96	1.29333	8.62544E-001	9.11898E-005	0.00000E+000	7.86552E-005	5.39641E-002	8.62746E-001	3.57370E+000	9	...........
	97	1.30667	8.65102E-001	9.12002E-005	0.00000E+000	7.88975E-005	5.39641E-002	8.65312E-001	3.57370E+000	9	...........
	98	1.32	8.67623E-001	9.12200E-005	0.00000E+000	7.91446E-005	5.39641E-002	8.67831E-001	3.57370E+000	9	...........
	99	1.33333	8.70161E-001	9.11106E-005	0.00000E+000	7.92808E-005	5.39641E-002	8.70352E-001	3.57370E+000	9	...........
	100	1.34667	8.72650E-001	9.11710E-005	0.00000E+000	7.95604E-005	5.39641E-002	8.72849E-001	3.57370E+000	9	...........
	101	1.36	8.75092E-001	9.09762E-005	0.00000E+000	7.96126E-005	5.39641E-002	8.75307E-001	3.57370E+000	9	...........
	102	1.37333	8.77524E-001	9.11481E-005	0.00000E+000	7.99847E-005	5.39641E-002	8.77693E-001	3.57370E+000	9	...........
	103	1.38667	8.79895E-001	9.13012E-005	0.00000E+000	8.03355E-005	5.39641E-002	8.80106E-001	3.57370E+000	9	...........
	104	1.4	8.82314E-001	9.11585E-005	0.00000E+000	8.04304E-005	5.39641E-002	8.82496E-001	3.57370E+000	9	...........
	105	1.41333	8.84688E-001	9.11127E-005	0.00000E+000	8.06063E-005	5.39641E-002	8.84871E-001	3.57370E+000	9	...........
	106	1.42667	8.87032E-001	9.09116E-005	0.00000E+000	8.06415E-005	5.39641E-002	8.87227E-001	3.57370E+000	9	...........
	107	1.44	8.89331E-001	9.10189E-005	0.00000E+000	8.09460E-005	5.39641E-002	8.89544E-001	3.57370E+000	9	...........
	108	1.45333	8.91621E-001	9.08543E-005	0.00000E+000	8.10076E-005	5.39641E-002	8.91814E-001	3.57370E+000	9	...........
	109	1.46667	8.93856E-001	9.09793E-005	0.00000E+000	8.13224E-005	5.39641E-002	8.94075E-001	3.57370E+000	9	...........
	110	1.48	8.96118E-001	9.08095E-005	0.00000E+000	8.13760E-005	5.39641E-002	8.96317E-001	3.57370E+000	9	...........
	111	1.49333	8.98307E-001	9.11439E-005	0.00000E+000	8.18752E-005	5.39641E-002	8.98527E-001	3.57370E+000	9	...........
	112	1.50667	9.00498E-001	9.11189E-005	0.00000E+000	8.20524E-005	5.39641E-002	9.00728E-001	3.57370E+000	9	...........
	113	1.52	9.02673E-001	9.11856E-005	0.00000E+000	8.23107E-005	5.39641E-002	9.02899E-001	3.57370E+000	9	...........
	114	1.53333	9.04850E-001	9.10616E-005	0.00000E+000	8.23971E-005	5.39641E-002	9.05077E-001	3.57370E+000	9	...........
	115	1.54667	9.06960E-001	9.12023E-005	0.00000E+000	8.27168E-005	5.39641E-002	9.07220E-001	3.57370E+000	9	...........
	116	1.56	9.09129E-001	9.10428E-005	0.00000E+000	8.27697E-005	5.39641E-002	9.09359E-001	3.57370E+000	9	...........
	117	1.57333	9.11231E-001	9.10491E-005	0.00000E+000	8.29667E-005	5.39641E-002	9.11438E-001	3.57370E+000	9	...........
	118	1.58667	9.13303E-001	9.10866E-005	0.00000E+000	8.31896E-005	5.39641E-002	9.13519E-001	3.57370E+000	9	...........
	119	1.6	9.15351E-001	9.10574E-005	0.00000E+000	8.33495E-005	5.39641E-002	9.15564E-001	3.57370E+000	9	...........
	120	1.61333	9.17395E-001	9.10397E-005	0.00000E+000	8.35194E-005	5.39641E-002	9.17568E-001	3.57370E+000	9	...........
	121	1.62667	9.19400E-001	9.11314E-005	0.00000E+000	8.37862E-005	5.39641E-002	9.19568E-001	3.57370E+000	9	...........
	122	1.64	9.21454E-001	9.10449E-005	0.00000E+000	8.38938E-005	5.39641E-002	9.21599E-001	3.57370E+000	9	...........
	123	1.65333	9.23430E-001	9.10637E-005	0.00000E+000	8.40910E-005	5.39641E-002	9.23570E-001	3.57370E+000	9	...........
	124	1.66667	9.25357E-001	9.11450E-005	0.00000E+000	8.43416E-005	5.39641E-002	9.25515E-001	3.57370E+000	9	...........
	125	1.68	9.27280E-001	9.10324E-005	0.00000E+000	8.44126E-005	5.39641E-002	9.27454E-001	3.57370E+000	9	...........
	126	1.69333	9.29186E-001	9.10397E-005	0.00000E+000	8.45929E-005	5.39641E-002	9.29358E-001	3.57370E+000	9	...........
	127	1.70667	9.31063E-001	9.10741E-005	0.00000E+000	8.47957E-005	5.39641E-002	9.31228E-001	3.57370E+000	9	...........
	128	1.72	9.32956E-001	9.10241E-005	0.00000E+000	8.49215E-005	5.39641E-002	9.33108E-001	3.57370E+000	9	...........
	129	1.73333	9.34813E-001	9.08168E-005	0.00000E+000	8.48967E-005	5.39641E-002	9.34988E-001	3.57370E+000	9	...........
	130	1.74667	9.36629E-001	9.06886E-005	0.00000E+000	8.49416E-005	5.39641E-002	9.36809E-001	3.57370E+000	9	...........
	131	1.76	9.38433E-001	9.11262E-005	0.00000E+000	8.55159E-005	5.39641E-002	9.38616E-001	3.57370E+000	9	...........
	132	1.77333	9.40186E-001	9.11325E-005	0.00000E+000	8.56815E-005	5.39641E-002	9.40394E-001	3.57370E+000	9	...........
	133	1.78667	9.41982E-001	9.09960E-005	0.00000E+000	8.57166E-005	5.39641E-002	9.42146E-001	3.57370E+000	9	...........
	134	1.8	9.43720E-001	9.12085E-005	0.00000E+000	8.60753E-005	5.39641E-002	9.43885E-001	3.57370E+000	9	...........
	135	1.81333	9.45476E-001	9.10460E-005	0.00000E+000	8.60818E-005	5.39641E-002	9.45634E-001	3.57370E+000	9	...........
	136	1.82667	9.47268E-001	9.10262E-005	0.00000E+000	8.62262E-005	5.39641E-002	9.47389E-001	3.57370E+000	9	...........
	137	1.84	9.48968E-001	9.11043E-005	0.00000E+000	8.64551E-005	5.39641E-002	9.49084E-001	3.57370E+000	9	...........
	138	1.85333	9.50662E-001	9.12054E-005	0.00000E+000	8.67055E-005	5.39641E-002	9.50781E-001	3.57370E+000	9	...........
	139	1.86667	9.52337E-001	9.12168E-005	0.00000E+000	8.68692E-005	5.39641E-002	9.52460E-001	3.57370E+000	9	...........
	140	1.88	9.54009E-001	9.08876E-005	0.00000E+000	8.67076E-005	5.39641E-002	9.54129E-001	3.57370E+000	9	...........
	141	1.89333	9.55638E-001	9.08741E-005	0.00000E+000	8.68427E-005	5.39641E-002	9.55784E-001	3.57370E+000	9	...........
	142	1.90667	9.57258E-001	9.11304E-005	0.00000E+000	8.72353E-005	5.39641E-002	9.57396E-001	3.57370E+000	9	...........
	143	1.92	9.58870E-001	9.10210E-005	0.00000E+000	8.72772E-005	5.39641E-002	9.59033E-001	3.57370E+000	9	...........
	144	1.93333	9.60463E-001	9.12471E-005	0.00000E+000	8.76394E-005	5.39641E-002	9.60613E-001	3.57335E+000	9	...........
	145	1.94667	9.62024E-001	9.11460E-005	0.00000E+000	8.76847E-005	5.39641E-002	9.62200E-001	3.57230E+000	9	...........
	146	1.96	9.63576E-001	9.11752E-005	0.00000E+000	8.78542E-005	5.39641E-002	9.63739E-001	3.57230E+000	9	...........
	147	1.97333	9.65131E-001	9.11450E-005	0.00000E+000	8.79668E-005	5.39641E-002	9.65286E-001	3.57230E+000	9	...........
	148	1.98667	9.66631E-001	9.11022E-005	0.00000E+000	8.80623E-005	5.39641E-002	9.66800E-001	3.57230E+000	9	...........
	149	2	9.68147E-001	9.08480E-005	0.00000E+000	8.79542E-005	5.39641E-002	9.68333E-001	3.57230E+000	9	...........
	150	2.01333	9.69649E-001	9.11502E-005	0.00000E+000	8.83836E-005	5.39641E-002	9.69824E-001	3.57230E+000	9	...........
	151	2.02667	9.71125E-001	9.10876E-005	0.00000E+000	8.84575E-005	5.39641E-002	9.71349E-001	3.57230E+000	9	...........
	152	2.04	9.72653E-001	9.11502E-005	0.00000E+000	8.86575E-005	5.39641E-002	9.72831E-001	3.57230E+000	9	...........
	153	2.05333	9.74131E-001	9.11835E-005	0.00000E+000	8.88247E-005	5.39641E-002	9.74295E-001	3.57230E+000	9	...........
	154	2.06667	9.75558E-001	9.10001E-005	0.00000E+000	8.87759E-005	5.39641E-002	9.75740E-001	3.57230E+000	9	...........
	155	2.08	9.76971E-001	9.11429E-005	0.00000E+000	8.90440E-005	5.39641E-002	9.77180E-001	3.57230E+000	9	...........
	156	2.09333	9.78392E-001	9.07876E-005	0.00000E+000	8.88258E-005	5.39641E-002	9.78593E-001	3.57230E+000	9	...........
	157	2.10667	9.79790E-001	9.09835E-005	0.00000E+000	8.91447E-005	5.39641E-002	9.79979E-001	3.57230E+000	9	...........
	158	2.12	9.81180E-001	9.10178E-005	0.00000E+000	8.93049E-005	5.39641E-002	9.81356E-001	3.57230E+000	9	...........
	159	2.13333	9.82536E-001	9.10637E-005	0.00000E+000	8.94733E-005	5.39641E-002	9.82742E-001	3.57230E+000	9	...........
	160	2.14667	9.83896E-001	9.10303E-005	0.00000E+000	8.95644E-005	5.39641E-002	9.84102E-001	3.57230E+000	9	...........
	161	2.16	9.85253E-001	9.08116E-005	0.00000E+000	8.94724E-005	5.39641E-002	9.85456E-001	3.57230E+000	9	...........
	162	2.17333	9.86587E-001	9.08616E-005	0.00000E+000	8.96429E-005	5.39641E-002	9.86786E-001	3.57230E+000	9	...........
	163	2.18667	9.87929E-001	9.09658E-005	0.00000E+000	8.98677E-005	5.39641E-002	9.88109E-001	3.57230E+000	9	...........
	164	2.2	9.89267E-001	9.10064E-005	0.00000E+000	9.00296E-005	5.39641E-002	9.89446E-001	3.57230E+000	9	...........
	165	2.21333	9.90564E-001	9.09460E-005	0.00000E+000	9.00878E-005	5.39641E-002	9.90745E-001	3.57230E+000	9	...........
	166	2.22667	9.91839E-001	9.08501E-005	0.00000E+000	9.01087E-005	5.39641E-002	9.92032E-001	3.57230E+000	9	...........
	167	2.24	9.93102E-001	9.09762E-005	0.00000E+000	9.03486E-005	5.39641E-002	9.93304E-001	3.57230E+000	9	...........
	168	2.25333	9.94380E-001	9.09845E-005	0.00000E+000	9.04732E-005	5.39641E-002	9.94581E-001	3.57230E+000	9	...........
	169	2.26667	9.95633E-001	9.09387E-005	0.00000E+000	9.05415E-005	5.39641E-002	9.95842E-001	3.57230E+000	9	...........
	170	2.28	9.96871E-001	9.10272E-005	0.00000E+000	9.07424E-005	5.39641E-002	9.97101E-001	3.57230E+000	9	...........
	171	2.29333	9.98133E-001	9.11575E-005	0.00000E+000	9.09873E-005	5.39641E-002	9.98350E-001	3.57230E+000	9	...........
	172	2.30667	9.99363E-001	9.08668E-005	0.00000E+000	9.08089E-005	5.39641E-002	9.99599E-001	3.57230E+000	9	...........
	173	2.30833	1.00004E+000	9.09793E-005	0.00000E+000	9.09826E-005	5.39641E-002	1.00030E+000	3.57230E+000	9	...........
STARTTIMEOFFSET	QUANT	1565.769	Start Time Offset (s)
