EXPLAIN
TAG	PWR800_CHARGE
TITLE	LABEL	PWR Cyclic Charge Discharge (Cell) - Charge Step	Test &Identifier
DATE	LABEL	10-7-2017	Date
TIME	LABEL	15:17:29	Time
NOTES	NOTES	3	&Notes...
	supercap test cell
	0.9mg
	6M KOH
PSTAT	PSTAT	IFC5000-01520	Potentiostat
CAPACITY	QUANT	1.00000E-003	Capacity (A-hr)
CELLTYPE	SELECTOR	1	&Cell Type
WORKINGCONNECTION	SELECTOR	0	&Working Lead
MAXCHARGETIME	VARIABLEANDUNITS	1.00000E+002	s	1.00000E+002	second(s)	Max &Charge Time
CHARGECURRENT	QUANT	9.00000E-005	&Charge Current (A) 
VOLTAGEFINISH	TWOPARAM	F	1.00000E-003	3.60000E+003	&Voltage Finish	 I (A) < 	Max Time(s)
SAMPLETIME	QUANT	1.00000E-002	Sa&mple Period (s)
CHARGESTOPAT1	MULTIPARAM	4	1.00000E+000	Charge Stop At &1	Voltage > Limit	V
CHARGESTOPAT2	MULTIPARAM	0	0.00000E+000	Charge Stop At &2	None	N/A
AESBHCSELECTOR	TOGGLE	F	Save Both Half Cells
IRCOMP	TOGGLE	F	IR &Measure
EOC	QUANT	0	Open Circuit (V)
SEQUENCER	TOGGLE	TRUE	Run as Sequence
PSTATMODEL	IQUANT	53	Pstat Model
PSTATSECTION	LABEL	IFC5000-01520	Pstat Section
PSTATSERIALNO	LABEL	01520	Pstat Serial Number
CTRLMODE	IQUANT	0	Control Mode
ELECTROMETER	IQUANT	1	RE=0 or CS=1
IESTAB	IQUANT	0	I/E Stability
CASPEED	IQUANT	4	Control Amp Speed
CONVENTION	IQUANT	1	Current Convention
ICHRANGE	IQUANT	2	Ich Range
ICHRANGEMODE	TOGGLE	T	Ich Auto Range
ICHOFFSETENABLE	TOGGLE	F	Ich Offset Enable
ICHOFFSET	QUANT	0	Ich Offset (V)
ICHFILTER	IQUANT	1	Ich Filter
VCHRANGE	IQUANT	2	Vch Range
VCHRANGEMODE	TOGGLE	T	Vch Auto Range
VCHOFFSETENABLE	TOGGLE	F	Vch Offset Enable
VCHOFFSET	QUANT	0	Vch Offset (V)
VCHFILTER	IQUANT	1	Vch Filter
IERANGELOWERLIMIT	IQUANT	9	I/E Range Lower Limit
IERANGEMODE	TOGGLE	F	I/E AutoRange
IERANGE	IQUANT	9	I/E Range
ACHSELECT	IQUANT	1	Ach Select
ACHRANGE	IQUANT	2	Ach Range
ACHOFFSETENABLE	TOGGLE	F	Ach Offset Enable
ACHOFFSET	QUANT	0	Ach Offset (V)
ACHFILTER	IQUANT	1	Ach Filter
CABLEID	IQUANT	14	Cable ID
DCCALDATE	LABEL	5-7-2017	DC Calibration Date
ACCALDATE	LABEL	12/3/2015	AC Calibration Date
FRAMEWORKVERSION	QUANT	7.01	Framework Version
INSTRUMENTVERSION	LABEL	4.00	Instrument Version
CURVE	TABLE	180
	Pt	T	Vf	Im	Vu	Pwr	Sig	Ach	Temp	IERange	Over
	#	s	V	A	V	W	V	V	deg C	#	bits
	0	0.013333	2.87888E-001	9.13242E-005	0.00000E+000	2.62911E-005	5.39641E-002	2.87934E-001	3.57270E+000	9	...........
	1	0.026667	3.07183E-001	9.09147E-005	0.00000E+000	2.79274E-005	5.39641E-002	3.07223E-001	3.57270E+000	9	...........
	2	0.04	3.25021E-001	9.09335E-005	0.00000E+000	2.95552E-005	5.39641E-002	3.25056E-001	3.57270E+000	9	...........
	3	0.053333	3.41654E-001	9.09772E-005	0.00000E+000	3.10827E-005	5.39641E-002	3.41697E-001	3.57270E+000	9	...........
	4	0.066667	3.57281E-001	9.09991E-005	0.00000E+000	3.25122E-005	5.39641E-002	3.57324E-001	3.57270E+000	9	...........
	5	0.08	3.72014E-001	9.08511E-005	0.00000E+000	3.37979E-005	5.39641E-002	3.72057E-001	3.57270E+000	9	...........
	6	0.093333	3.85972E-001	9.09053E-005	0.00000E+000	3.50869E-005	5.39641E-002	3.86016E-001	3.57270E+000	9	...........
	7	0.106667	3.99261E-001	9.09918E-005	0.00000E+000	3.63295E-005	5.39641E-002	3.99300E-001	3.57270E+000	9	...........
	8	0.12	4.11919E-001	9.11231E-005	0.00000E+000	3.75353E-005	5.39641E-002	4.11961E-001	3.57270E+000	9	...........
	9	0.133333	4.24005E-001	9.09720E-005	0.00000E+000	3.85726E-005	5.39641E-002	4.24052E-001	3.57270E+000	9	...........
	10	0.146667	4.35601E-001	9.07490E-005	0.00000E+000	3.95304E-005	5.39641E-002	4.35642E-001	3.57270E+000	9	...........
	11	0.16	4.46736E-001	9.11304E-005	0.00000E+000	4.07113E-005	5.39641E-002	4.46782E-001	3.57270E+000	9	...........
	12	0.173333	4.57450E-001	9.10720E-005	0.00000E+000	4.16609E-005	5.39641E-002	4.57497E-001	3.57270E+000	9	...........
	13	0.186667	4.67771E-001	9.09501E-005	0.00000E+000	4.25438E-005	5.39641E-002	4.67825E-001	3.57270E+000	9	...........
	14	0.2	4.77742E-001	9.11741E-005	0.00000E+000	4.35577E-005	5.39641E-002	4.77789E-001	3.57270E+000	9	...........
	15	0.213333	4.87372E-001	9.12106E-005	0.00000E+000	4.44535E-005	5.39641E-002	4.87425E-001	3.57270E+000	9	...........
	16	0.226667	4.96698E-001	9.10647E-005	0.00000E+000	4.52317E-005	5.39641E-002	4.96756E-001	3.57270E+000	9	...........
	17	0.24	5.05735E-001	9.11783E-005	0.00000E+000	4.61120E-005	5.39641E-002	5.05796E-001	3.57270E+000	9	...........
	18	0.253333	5.14491E-001	9.09491E-005	0.00000E+000	4.67925E-005	5.39641E-002	5.14553E-001	3.57270E+000	9	...........
	19	0.266667	5.22988E-001	9.11825E-005	0.00000E+000	4.76874E-005	5.39641E-002	5.23047E-001	3.57270E+000	9	...........
	20	0.28	5.31235E-001	9.09220E-005	0.00000E+000	4.83009E-005	5.39641E-002	5.31289E-001	3.57270E+000	9	...........
	21	0.293333	5.39216E-001	9.11606E-005	0.00000E+000	4.91552E-005	5.39641E-002	5.39310E-001	3.57270E+000	9	...........
	22	0.306667	5.47037E-001	9.11054E-005	0.00000E+000	4.98380E-005	5.39641E-002	5.47136E-001	3.57270E+000	9	...........
	23	0.32	5.54625E-001	9.10783E-005	0.00000E+000	5.05143E-005	5.39641E-002	5.54744E-001	3.57270E+000	9	...........
	24	0.333333	5.62018E-001	9.09439E-005	0.00000E+000	5.11121E-005	5.39641E-002	5.62141E-001	3.57270E+000	9	...........
	25	0.346667	5.69241E-001	9.09480E-005	0.00000E+000	5.17713E-005	5.39641E-002	5.69342E-001	3.57270E+000	9	...........
	26	0.36	5.76254E-001	9.10939E-005	0.00000E+000	5.24933E-005	5.39641E-002	5.76386E-001	3.57270E+000	9	...........
	27	0.373333	5.83124E-001	9.10720E-005	0.00000E+000	5.31063E-005	5.39641E-002	5.83246E-001	3.57270E+000	9	...........
	28	0.386667	5.89873E-001	9.10147E-005	0.00000E+000	5.36871E-005	5.39641E-002	5.89983E-001	3.57270E+000	9	...........
	29	0.4	5.96423E-001	9.09126E-005	0.00000E+000	5.42224E-005	5.39641E-002	5.96545E-001	3.57270E+000	9	...........
	30	0.413333	6.02817E-001	9.10908E-005	0.00000E+000	5.49110E-005	5.39641E-002	6.02958E-001	3.57270E+000	9	...........
	31	0.426667	6.09094E-001	9.09168E-005	0.00000E+000	5.53769E-005	5.39641E-002	6.09222E-001	3.57269E+000	9	...........
	32	0.44	6.15285E-001	9.12783E-005	0.00000E+000	5.61622E-005	5.39641E-002	6.15379E-001	3.57260E+000	9	...........
	33	0.453333	6.21276E-001	9.06719E-005	0.00000E+000	5.63323E-005	5.39641E-002	6.21359E-001	3.57260E+000	9	...........
	34	0.466667	6.27131E-001	9.11804E-005	0.00000E+000	5.71820E-005	5.39641E-002	6.27241E-001	3.57260E+000	9	...........
	35	0.48	6.32883E-001	9.12002E-005	0.00000E+000	5.77190E-005	5.39641E-002	6.32986E-001	3.57260E+000	9	...........
	36	0.493333	6.38521E-001	9.11252E-005	0.00000E+000	5.81853E-005	5.39641E-002	6.38639E-001	3.57260E+000	9	...........
	37	0.506667	6.44089E-001	9.10074E-005	0.00000E+000	5.86169E-005	5.39641E-002	6.44161E-001	3.57260E+000	9	...........
	38	0.52	6.49514E-001	9.11158E-005	0.00000E+000	5.91810E-005	5.39641E-002	6.49576E-001	3.57260E+000	9	...........
	39	0.533333	6.54833E-001	9.11950E-005	0.00000E+000	5.97175E-005	5.39641E-002	6.54898E-001	3.57260E+000	9	...........
	40	0.546667	6.60040E-001	9.08824E-005	0.00000E+000	5.99861E-005	5.39641E-002	6.60136E-001	3.57260E+000	9	...........
	41	0.56	6.65181E-001	9.12512E-005	0.00000E+000	6.06986E-005	5.39641E-002	6.65294E-001	3.57260E+000	9	...........
	42	0.573333	6.70255E-001	9.08793E-005	0.00000E+000	6.09123E-005	5.39641E-002	6.70348E-001	3.57260E+000	9	...........
	43	0.586667	6.75197E-001	9.12262E-005	0.00000E+000	6.15957E-005	5.39641E-002	6.75305E-001	3.57260E+000	9	...........
	44	0.6	6.80069E-001	9.10074E-005	0.00000E+000	6.18913E-005	5.39641E-002	6.80177E-001	3.57260E+000	9	...........
	45	0.613333	6.84841E-001	9.08407E-005	0.00000E+000	6.22114E-005	5.39641E-002	6.84969E-001	3.57260E+000	9	...........
	46	0.626667	6.89575E-001	9.11502E-005	0.00000E+000	6.28549E-005	5.39641E-002	6.89679E-001	3.57260E+000	9	...........
	47	0.64	6.94191E-001	9.08845E-005	0.00000E+000	6.30911E-005	5.39641E-002	6.94283E-001	3.57260E+000	9	...........
	48	0.653333	6.98697E-001	9.12627E-005	0.00000E+000	6.37650E-005	5.39641E-002	6.98812E-001	3.57260E+000	9	...........
	49	0.666667	7.03156E-001	9.10606E-005	0.00000E+000	6.40298E-005	5.39641E-002	7.03299E-001	3.57260E+000	9	...........
	50	0.68	7.07548E-001	9.11970E-005	0.00000E+000	6.45263E-005	5.39641E-002	7.07673E-001	3.57260E+000	9	...........
	51	0.693333	7.11873E-001	9.10897E-005	0.00000E+000	6.48444E-005	5.39641E-002	7.12024E-001	3.57260E+000	9	...........
	52	0.706667	7.16165E-001	9.10564E-005	0.00000E+000	6.52114E-005	5.39641E-002	7.16316E-001	3.57260E+000	9	...........
	53	0.72	7.20403E-001	9.12377E-005	0.00000E+000	6.57279E-005	5.39641E-002	7.20523E-001	3.57260E+000	9	...........
	54	0.733333	7.24554E-001	9.10991E-005	0.00000E+000	6.60063E-005	5.39641E-002	7.24631E-001	3.57260E+000	9	...........
	55	0.746667	7.28602E-001	9.11762E-005	0.00000E+000	6.64312E-005	5.39641E-002	7.28735E-001	3.57260E+000	9	...........
	56	0.76	7.32600E-001	9.09199E-005	0.00000E+000	6.66079E-005	5.39641E-002	7.32721E-001	3.57260E+000	9	...........
	57	0.773333	7.36587E-001	9.12481E-005	0.00000E+000	6.72122E-005	5.39641E-002	7.36683E-001	3.57260E+000	9	...........
	58	0.786667	7.40488E-001	9.10908E-005	0.00000E+000	6.74516E-005	5.39641E-002	7.40586E-001	3.57260E+000	9	...........
	59	0.8	7.44393E-001	9.08355E-005	0.00000E+000	6.76173E-005	5.39641E-002	7.44489E-001	3.57260E+000	9	...........
	60	0.813333	7.48198E-001	9.12231E-005	0.00000E+000	6.82529E-005	5.39641E-002	7.48313E-001	3.57260E+000	9	...........
	61	0.826667	7.51973E-001	9.11022E-005	0.00000E+000	6.85064E-005	5.39641E-002	7.52089E-001	3.57260E+000	9	...........
	62	0.84	7.55687E-001	9.10564E-005	0.00000E+000	6.88101E-005	5.39641E-002	7.55785E-001	3.57260E+000	9	...........
	63	0.853333	7.59335E-001	9.12439E-005	0.00000E+000	6.92847E-005	5.39641E-002	7.59431E-001	3.57260E+000	9	...........
	64	0.866667	7.62935E-001	9.10793E-005	0.00000E+000	6.94876E-005	5.39641E-002	7.63037E-001	3.57260E+000	9	...........
	65	0.88	7.66485E-001	9.11345E-005	0.00000E+000	6.98532E-005	5.39641E-002	7.66615E-001	3.57260E+000	9	...........
	66	0.893333	7.70030E-001	9.11595E-005	0.00000E+000	7.01956E-005	5.39641E-002	7.70157E-001	3.57260E+000	9	...........
	67	0.906667	7.73481E-001	9.11252E-005	0.00000E+000	7.04836E-005	5.39641E-002	7.73596E-001	3.57260E+000	9	...........
	68	0.92	7.76919E-001	9.08272E-005	0.00000E+000	7.05653E-005	5.39641E-002	7.77037E-001	3.57260E+000	9	...........
	69	0.933333	7.80294E-001	9.10231E-005	0.00000E+000	7.10247E-005	5.39641E-002	7.80430E-001	3.57260E+000	9	...........
	70	0.946667	7.83639E-001	9.10970E-005	0.00000E+000	7.13871E-005	5.39641E-002	7.83762E-001	3.57260E+000	9	...........
	71	0.96	7.86922E-001	9.13190E-005	0.00000E+000	7.18609E-005	5.39641E-002	7.87051E-001	3.57260E+000	9	...........
	72	0.97333	7.90167E-001	9.10220E-005	0.00000E+000	7.19226E-005	5.39641E-002	7.90300E-001	3.57260E+000	9	...........
	73	0.98667	7.93396E-001	9.14815E-005	0.00000E+000	7.25810E-005	5.39641E-002	7.93542E-001	3.57260E+000	9	...........
	74	1	7.96596E-001	9.11064E-005	0.00000E+000	7.25750E-005	5.39641E-002	7.96707E-001	3.57260E+000	9	...........
	75	1.01333	7.99712E-001	9.12314E-005	0.00000E+000	7.29589E-005	5.39641E-002	7.99837E-001	3.57260E+000	9	...........
	76	1.02667	8.02813E-001	9.10231E-005	0.00000E+000	7.30745E-005	5.39641E-002	8.02941E-001	3.57260E+000	9	...........
	77	1.04	8.05881E-001	9.11262E-005	0.00000E+000	7.34368E-005	5.39641E-002	8.05992E-001	3.57260E+000	9	...........
	78	1.05333	8.08918E-001	9.11272E-005	0.00000E+000	7.37145E-005	5.39641E-002	8.09028E-001	3.57260E+000	9	...........
	79	1.06667	8.11884E-001	9.10345E-005	0.00000E+000	7.39095E-005	5.39641E-002	8.12047E-001	3.57260E+000	9	...........
	80	1.08	8.14863E-001	9.10835E-005	0.00000E+000	7.42205E-005	5.39641E-002	8.15023E-001	3.57260E+000	9	...........
	81	1.09333	8.17825E-001	9.09282E-005	0.00000E+000	7.43634E-005	5.39641E-002	8.17945E-001	3.57260E+000	9	...........
	82	1.10667	8.20731E-001	9.11585E-005	0.00000E+000	7.48166E-005	5.39641E-002	8.20877E-001	3.57260E+000	9	...........
	83	1.12	8.23610E-001	9.11377E-005	0.00000E+000	7.50619E-005	5.39641E-002	8.23746E-001	3.57260E+000	9	...........
	84	1.13333	8.26431E-001	9.10720E-005	0.00000E+000	7.52647E-005	5.39641E-002	8.26568E-001	3.57260E+000	9	...........
	85	1.14667	8.29228E-001	9.10053E-005	0.00000E+000	7.54642E-005	5.39641E-002	8.29343E-001	3.57260E+000	9	...........
	86	1.16	8.31999E-001	9.09189E-005	0.00000E+000	7.56444E-005	5.39641E-002	8.32141E-001	3.57260E+000	9	...........
	87	1.17333	8.34756E-001	9.12325E-005	0.00000E+000	7.61569E-005	5.39641E-002	8.34883E-001	3.57260E+000	9	...........
	88	1.18667	8.37440E-001	9.14263E-005	0.00000E+000	7.65640E-005	5.39641E-002	8.37596E-001	3.57260E+000	9	...........
	89	1.2	8.40147E-001	9.10189E-005	0.00000E+000	7.64692E-005	5.39641E-002	8.40301E-001	3.57260E+000	9	...........
	90	1.21333	8.42809E-001	9.09147E-005	0.00000E+000	7.66237E-005	5.39641E-002	8.42988E-001	3.57260E+000	9	...........
	91	1.22667	8.45500E-001	9.12158E-005	0.00000E+000	7.71230E-005	5.39641E-002	8.45637E-001	3.57260E+000	9	...........
	92	1.24	8.48107E-001	9.10814E-005	0.00000E+000	7.72468E-005	5.39641E-002	8.48243E-001	3.57260E+000	9	...........
	93	1.25333	8.50690E-001	9.10303E-005	0.00000E+000	7.74386E-005	5.39641E-002	8.50844E-001	3.57260E+000	9	...........
	94	1.26667	8.53221E-001	9.09574E-005	0.00000E+000	7.76067E-005	5.39641E-002	8.53404E-001	3.57260E+000	9	...........
	95	1.28	8.55771E-001	9.09637E-005	0.00000E+000	7.78441E-005	5.39641E-002	8.55956E-001	3.57260E+000	9	...........
	96	1.29333	8.58307E-001	9.11200E-005	0.00000E+000	7.82089E-005	5.39641E-002	8.58479E-001	3.57260E+000	9	...........
	97	1.30667	8.60812E-001	9.12314E-005	0.00000E+000	7.85331E-005	5.39641E-002	8.60957E-001	3.57260E+000	9	...........
	98	1.32	8.63286E-001	9.10866E-005	0.00000E+000	7.86337E-005	5.39641E-002	8.63423E-001	3.57260E+000	9	...........
	99	1.33333	8.65705E-001	9.09470E-005	0.00000E+000	7.87333E-005	5.39641E-002	8.65837E-001	3.57260E+000	9	...........
	100	1.34667	8.68109E-001	9.10553E-005	0.00000E+000	7.90459E-005	5.39641E-002	8.68244E-001	3.57260E+000	9	...........
	101	1.36	8.70528E-001	9.10210E-005	0.00000E+000	7.92363E-005	5.39641E-002	8.70664E-001	3.57260E+000	9	...........
	102	1.37333	8.72879E-001	9.11668E-005	0.00000E+000	7.95776E-005	5.39641E-002	8.73024E-001	3.57260E+000	9	...........
	103	1.38667	8.75191E-001	9.14940E-005	0.00000E+000	8.00747E-005	5.39641E-002	8.75347E-001	3.57260E+000	9	...........
	104	1.4	8.77488E-001	9.12221E-005	0.00000E+000	8.00463E-005	5.39641E-002	8.77648E-001	3.57260E+000	9	...........
	105	1.41333	8.79779E-001	9.11366E-005	0.00000E+000	8.01801E-005	5.39641E-002	8.79949E-001	3.57260E+000	9	...........
	106	1.42667	8.82070E-001	9.11710E-005	0.00000E+000	8.04192E-005	5.39641E-002	8.82248E-001	3.57259E+000	9	...........
	107	1.44	8.84342E-001	9.11460E-005	0.00000E+000	8.06042E-005	5.39641E-002	8.84525E-001	3.57250E+000	9	...........
	108	1.45333	8.86562E-001	9.12064E-005	0.00000E+000	8.08601E-005	5.39641E-002	8.86760E-001	3.57250E+000	9	...........
	109	1.46667	8.88774E-001	9.12564E-005	0.00000E+000	8.11063E-005	5.39641E-002	8.88932E-001	3.57250E+000	9	...........
	110	1.48	8.90952E-001	9.10220E-005	0.00000E+000	8.10962E-005	5.39641E-002	8.91127E-001	3.57250E+000	9	...........
	111	1.49333	8.93105E-001	9.09012E-005	0.00000E+000	8.11843E-005	5.39641E-002	8.93277E-001	3.57250E+000	9	...........
	112	1.50667	8.95247E-001	9.09439E-005	0.00000E+000	8.14173E-005	5.39641E-002	8.95450E-001	3.57250E+000	9	...........
	113	1.52	8.97366E-001	9.11929E-005	0.00000E+000	8.18334E-005	5.39641E-002	8.97573E-001	3.57250E+000	9	...........
	114	1.53333	8.99451E-001	9.09908E-005	0.00000E+000	8.18418E-005	5.39641E-002	8.99640E-001	3.57250E+000	9	...........
	115	1.54667	9.01515E-001	9.10397E-005	0.00000E+000	8.20736E-005	5.39641E-002	9.01717E-001	3.57250E+000	9	...........
	116	1.56	9.03543E-001	9.11668E-005	0.00000E+000	8.23731E-005	5.39641E-002	9.03762E-001	3.57250E+000	9	...........
	117	1.57333	9.05589E-001	9.11283E-005	0.00000E+000	8.25247E-005	5.39641E-002	9.05788E-001	3.57250E+000	9	...........
	118	1.58667	9.07591E-001	9.10824E-005	0.00000E+000	8.26656E-005	5.39641E-002	9.07819E-001	3.57250E+000	9	...........
	119	1.6	9.09615E-001	9.09949E-005	0.00000E+000	8.27704E-005	5.39641E-002	9.09823E-001	3.57250E+000	9	...........
	120	1.61333	9.11591E-001	9.11470E-005	0.00000E+000	8.30888E-005	5.39641E-002	9.11777E-001	3.57250E+000	9	...........
	121	1.62667	9.13525E-001	9.10564E-005	0.00000E+000	8.31823E-005	5.39641E-002	9.13737E-001	3.57250E+000	9	...........
	122	1.64	9.15479E-001	9.10397E-005	0.00000E+000	8.33449E-005	5.39641E-002	9.15663E-001	3.57250E+000	9	...........
	123	1.65333	9.17387E-001	9.12200E-005	0.00000E+000	8.36840E-005	5.39641E-002	9.17575E-001	3.57250E+000	9	...........
	124	1.66667	9.19269E-001	9.08959E-005	0.00000E+000	8.35578E-005	5.39641E-002	9.19462E-001	3.57250E+000	9	...........
	125	1.68	9.21202E-001	9.14075E-005	0.00000E+000	8.42048E-005	5.39641E-002	9.21348E-001	3.57250E+000	9	...........
	126	1.69333	9.23064E-001	9.10376E-005	0.00000E+000	8.40335E-005	5.39641E-002	9.23225E-001	3.57250E+000	9	...........
	127	1.70667	9.24924E-001	9.11491E-005	0.00000E+000	8.43061E-005	5.39641E-002	9.25055E-001	3.57250E+000	9	...........
	128	1.72	9.26738E-001	9.11356E-005	0.00000E+000	8.44588E-005	5.39641E-002	9.26883E-001	3.57250E+000	9	...........
	129	1.73333	9.28553E-001	9.09387E-005	0.00000E+000	8.44414E-005	5.39641E-002	9.28671E-001	3.57250E+000	9	...........
	130	1.74667	9.30328E-001	9.10804E-005	0.00000E+000	8.47346E-005	5.39641E-002	9.30412E-001	3.57250E+000	9	...........
	131	1.76	9.32082E-001	9.11564E-005	0.00000E+000	8.49653E-005	5.39641E-002	9.32184E-001	3.57250E+000	9	...........
	132	1.77333	9.33843E-001	9.12627E-005	0.00000E+000	8.52250E-005	5.39641E-002	9.33963E-001	3.57250E+000	9	...........
	133	1.78667	9.35583E-001	9.10137E-005	0.00000E+000	8.51509E-005	5.39641E-002	9.35693E-001	3.57250E+000	9	...........
	134	1.8	9.37288E-001	9.09387E-005	0.00000E+000	8.52357E-005	5.39641E-002	9.37425E-001	3.57250E+000	9	...........
	135	1.81333	9.38995E-001	9.11241E-005	0.00000E+000	8.55651E-005	5.39641E-002	9.39144E-001	3.57250E+000	9	...........
	136	1.82667	9.40667E-001	9.07876E-005	0.00000E+000	8.54009E-005	5.39641E-002	9.40826E-001	3.57250E+000	9	...........
	137	1.84	9.42353E-001	9.10283E-005	0.00000E+000	8.57808E-005	5.39641E-002	9.42521E-001	3.57250E+000	9	...........
	138	1.85333	9.44002E-001	9.12648E-005	0.00000E+000	8.61541E-005	5.39641E-002	9.44183E-001	3.57250E+000	9	...........
	139	1.86667	9.45650E-001	9.11512E-005	0.00000E+000	8.61971E-005	5.39641E-002	9.45864E-001	3.57250E+000	9	...........
	140	1.88	9.47337E-001	9.10939E-005	0.00000E+000	8.62966E-005	5.39641E-002	9.47495E-001	3.57250E+000	9	...........
	141	1.89333	9.48942E-001	9.11825E-005	0.00000E+000	8.65269E-005	5.39641E-002	9.49121E-001	3.57250E+000	9	...........
	142	1.90667	9.50514E-001	9.11970E-005	0.00000E+000	8.66841E-005	5.39641E-002	9.50693E-001	3.57250E+000	9	...........
	143	1.92	9.52073E-001	9.10783E-005	0.00000E+000	8.67132E-005	5.39641E-002	9.52264E-001	3.57250E+000	9	...........
	144	1.93333	9.53669E-001	9.09512E-005	0.00000E+000	8.67373E-005	5.39641E-002	9.53808E-001	3.57250E+000	9	...........
	145	1.94667	9.55184E-001	9.13575E-005	0.00000E+000	8.72633E-005	5.39641E-002	9.55309E-001	3.57250E+000	9	...........
	146	1.96	9.56706E-001	9.11106E-005	0.00000E+000	8.71661E-005	5.39641E-002	9.56843E-001	3.57250E+000	9	...........
	147	1.97333	9.58223E-001	9.11731E-005	0.00000E+000	8.73642E-005	5.39641E-002	9.58370E-001	3.57250E+000	9	...........
	148	1.98667	9.59725E-001	9.10835E-005	0.00000E+000	8.74151E-005	5.39641E-002	9.59903E-001	3.57250E+000	9	...........
	149	2	9.61197E-001	9.13544E-005	0.00000E+000	8.78095E-005	5.39641E-002	9.61394E-001	3.57250E+000	9	...........
	150	2.01333	9.62663E-001	9.09981E-005	0.00000E+000	8.76005E-005	5.39641E-002	9.62853E-001	3.57250E+000	9	...........
	151	2.02667	9.64103E-001	9.11814E-005	0.00000E+000	8.79083E-005	5.39641E-002	9.64303E-001	3.57250E+000	9	...........
	152	2.04	9.65561E-001	9.11575E-005	0.00000E+000	8.80181E-005	5.39641E-002	9.65741E-001	3.57250E+000	9	...........
	153	2.05333	9.66999E-001	9.11929E-005	0.00000E+000	8.81834E-005	5.39641E-002	9.67163E-001	3.57250E+000	9	...........
	154	2.06667	9.68382E-001	9.11866E-005	0.00000E+000	8.83035E-005	5.39641E-002	9.68601E-001	3.57250E+000	9	...........
	155	2.08	9.69796E-001	9.11543E-005	0.00000E+000	8.84011E-005	5.39641E-002	9.69994E-001	3.57250E+000	9	...........
	156	2.09333	9.71159E-001	9.13658E-005	0.00000E+000	8.87308E-005	5.39641E-002	9.71404E-001	3.57250E+000	9	...........
	157	2.10667	9.72580E-001	9.11658E-005	0.00000E+000	8.86660E-005	5.39641E-002	9.72780E-001	3.57250E+000	9	...........
	158	2.12	9.73979E-001	9.09116E-005	0.00000E+000	8.85460E-005	5.39641E-002	9.74149E-001	3.57250E+000	9	...........
	159	2.13333	9.75313E-001	9.10366E-005	0.00000E+000	8.87892E-005	5.39641E-002	9.75518E-001	3.57250E+000	9	...........
	160	2.14667	9.76637E-001	9.12898E-005	0.00000E+000	8.91570E-005	5.39641E-002	9.76848E-001	3.57250E+000	9	...........
	161	2.16	9.77944E-001	9.09887E-005	0.00000E+000	8.89818E-005	5.39641E-002	9.78180E-001	3.57250E+000	9	...........
	162	2.17333	9.79285E-001	9.11064E-005	0.00000E+000	8.92191E-005	5.39641E-002	9.79491E-001	3.57250E+000	9	...........
	163	2.18667	9.80579E-001	9.12273E-005	0.00000E+000	8.94555E-005	5.39641E-002	9.80775E-001	3.57250E+000	9	...........
	164	2.2	9.81863E-001	9.09553E-005	0.00000E+000	8.93057E-005	5.39641E-002	9.82089E-001	3.57250E+000	9	...........
	165	2.21333	9.83144E-001	9.08564E-005	0.00000E+000	8.93248E-005	5.39641E-002	9.83359E-001	3.57250E+000	9	...........
	166	2.22667	9.84395E-001	9.11908E-005	0.00000E+000	8.97678E-005	5.39641E-002	9.84654E-001	3.57250E+000	9	...........
	167	2.24	9.85675E-001	9.10856E-005	0.00000E+000	8.97807E-005	5.39641E-002	9.85936E-001	3.57250E+000	9	...........
	168	2.25333	9.86939E-001	9.11679E-005	0.00000E+000	8.99771E-005	5.39641E-002	9.87190E-001	3.57250E+000	9	...........
	169	2.26667	9.88179E-001	9.12106E-005	0.00000E+000	9.01324E-005	5.39641E-002	9.88416E-001	3.57250E+000	9	...........
	170	2.28	9.89405E-001	9.10303E-005	0.00000E+000	9.00658E-005	5.39641E-002	9.89631E-001	3.57250E+000	9	...........
	171	2.29333	9.90624E-001	9.10856E-005	0.00000E+000	9.02315E-005	5.39641E-002	9.90832E-001	3.57250E+000	9	...........
	172	2.30667	9.91821E-001	9.10751E-005	0.00000E+000	9.03302E-005	5.39641E-002	9.92024E-001	3.57250E+000	9	...........
	173	2.32	9.93008E-001	9.13023E-005	0.00000E+000	9.06639E-005	5.39641E-002	9.93207E-001	3.57250E+000	9	...........
	174	2.33333	9.94200E-001	9.11606E-005	0.00000E+000	9.06319E-005	5.39641E-002	9.94394E-001	3.57250E+000	9	...........
	175	2.34667	9.95407E-001	9.12481E-005	0.00000E+000	9.08290E-005	5.39641E-002	9.95581E-001	3.57250E+000	9	...........
	176	2.36	9.96537E-001	9.10710E-005	0.00000E+000	9.07556E-005	5.39641E-002	9.96744E-001	3.57250E+000	9	...........
	177	2.37333	9.97713E-001	9.11439E-005	0.00000E+000	9.09354E-005	5.39641E-002	9.97926E-001	3.57250E+000	9	...........
	178	2.38667	9.98869E-001	9.12544E-005	0.00000E+000	9.11512E-005	5.39641E-002	9.99076E-001	3.57250E+000	9	...........
	179	2.395	9.99804E-001	9.13777E-005	0.00000E+000	9.13598E-005	5.39641E-002	9.99995E-001	3.57250E+000	9	...........
STARTTIMEOFFSET	QUANT	926.2279	Start Time Offset (s)
