EXPLAIN
TAG	PWR800_CHARGE
TITLE	LABEL	PWR Cyclic Charge Discharge (Cell) - Charge Step	Test &Identifier
DATE	LABEL	10-7-2017	Date
TIME	LABEL	15:59:39	Time
NOTES	NOTES	3	&Notes...
	supercap test cell
	0.9mg
	6M KOH
PSTAT	PSTAT	IFC5000-01520	Potentiostat
CAPACITY	QUANT	1.00000E-003	Capacity (A-hr)
CELLTYPE	SELECTOR	1	&Cell Type
WORKINGCONNECTION	SELECTOR	0	&Working Lead
MAXCHARGETIME	VARIABLEANDUNITS	1.00000E+002	s	1.00000E+002	second(s)	Max &Charge Time
CHARGECURRENT	QUANT	9.00000E-005	&Charge Current (A) 
VOLTAGEFINISH	TWOPARAM	F	1.00000E-003	3.60000E+003	&Voltage Finish	 I (A) < 	Max Time(s)
SAMPLETIME	QUANT	1.00000E-002	Sa&mple Period (s)
CHARGESTOPAT1	MULTIPARAM	4	1.00000E+000	Charge Stop At &1	Voltage > Limit	V
CHARGESTOPAT2	MULTIPARAM	0	0.00000E+000	Charge Stop At &2	None	N/A
AESBHCSELECTOR	TOGGLE	F	Save Both Half Cells
IRCOMP	TOGGLE	F	IR &Measure
EOC	QUANT	0	Open Circuit (V)
SEQUENCER	TOGGLE	TRUE	Run as Sequence
PSTATMODEL	IQUANT	53	Pstat Model
PSTATSECTION	LABEL	IFC5000-01520	Pstat Section
PSTATSERIALNO	LABEL	01520	Pstat Serial Number
CTRLMODE	IQUANT	0	Control Mode
ELECTROMETER	IQUANT	1	RE=0 or CS=1
IESTAB	IQUANT	0	I/E Stability
CASPEED	IQUANT	4	Control Amp Speed
CONVENTION	IQUANT	1	Current Convention
ICHRANGE	IQUANT	2	Ich Range
ICHRANGEMODE	TOGGLE	T	Ich Auto Range
ICHOFFSETENABLE	TOGGLE	F	Ich Offset Enable
ICHOFFSET	QUANT	0	Ich Offset (V)
ICHFILTER	IQUANT	1	Ich Filter
VCHRANGE	IQUANT	2	Vch Range
VCHRANGEMODE	TOGGLE	T	Vch Auto Range
VCHOFFSETENABLE	TOGGLE	F	Vch Offset Enable
VCHOFFSET	QUANT	0	Vch Offset (V)
VCHFILTER	IQUANT	1	Vch Filter
IERANGELOWERLIMIT	IQUANT	9	I/E Range Lower Limit
IERANGEMODE	TOGGLE	F	I/E AutoRange
IERANGE	IQUANT	9	I/E Range
ACHSELECT	IQUANT	1	Ach Select
ACHRANGE	IQUANT	2	Ach Range
ACHOFFSETENABLE	TOGGLE	F	Ach Offset Enable
ACHOFFSET	QUANT	0	Ach Offset (V)
ACHFILTER	IQUANT	1	Ach Filter
CABLEID	IQUANT	14	Cable ID
DCCALDATE	LABEL	5-7-2017	DC Calibration Date
ACCALDATE	LABEL	12/3/2015	AC Calibration Date
FRAMEWORKVERSION	QUANT	7.01	Framework Version
INSTRUMENTVERSION	LABEL	4.00	Instrument Version
CURVE	TABLE	164
	Pt	T	Vf	Im	Vu	Pwr	Sig	Ach	Temp	IERange	Over
	#	s	V	A	V	W	V	V	deg C	#	bits
	0	0.013333	2.69840E-001	9.12116E-005	0.00000E+000	2.46126E-005	5.39641E-002	2.69884E-001	3.57330E+000	9	...........
	1	0.026667	2.89548E-001	9.08907E-005	0.00000E+000	2.63172E-005	5.39641E-002	2.89581E-001	3.57330E+000	9	...........
	2	0.04	3.07991E-001	9.09710E-005	0.00000E+000	2.80183E-005	5.39641E-002	3.08032E-001	3.57330E+000	9	...........
	3	0.053333	3.25363E-001	9.08001E-005	0.00000E+000	2.95430E-005	5.39641E-002	3.25406E-001	3.57330E+000	9	...........
	4	0.066667	3.41789E-001	9.08543E-005	0.00000E+000	3.10530E-005	5.39641E-002	3.41832E-001	3.57330E+000	9	...........
	5	0.08	3.57367E-001	9.09303E-005	0.00000E+000	3.24955E-005	5.39641E-002	3.57408E-001	3.57330E+000	9	...........
	6	0.093333	3.72153E-001	9.08063E-005	0.00000E+000	3.37938E-005	5.39641E-002	3.72195E-001	3.57330E+000	9	...........
	7	0.106667	3.86236E-001	9.10689E-005	0.00000E+000	3.51741E-005	5.39641E-002	3.86286E-001	3.57330E+000	9	...........
	8	0.12	3.99676E-001	9.08657E-005	0.00000E+000	3.63168E-005	5.39641E-002	3.99725E-001	3.57330E+000	9	...........
	9	0.133333	4.12523E-001	9.08053E-005	0.00000E+000	3.74593E-005	5.39641E-002	4.12580E-001	3.57330E+000	9	...........
	10	0.146667	4.24812E-001	9.08011E-005	0.00000E+000	3.85735E-005	5.39641E-002	4.24877E-001	3.57330E+000	9	...........
	11	0.16	4.36622E-001	9.10543E-005	0.00000E+000	3.97563E-005	5.39641E-002	4.36679E-001	3.57330E+000	9	...........
	12	0.173333	4.47966E-001	9.09439E-005	0.00000E+000	4.07397E-005	5.39641E-002	4.48026E-001	3.57330E+000	9	...........
	13	0.186667	4.58880E-001	9.10022E-005	0.00000E+000	4.17591E-005	5.39641E-002	4.58940E-001	3.57330E+000	9	...........
	14	0.2	4.69399E-001	9.10668E-005	0.00000E+000	4.27467E-005	5.39641E-002	4.69465E-001	3.57330E+000	9	...........
	15	0.213333	4.79563E-001	9.10814E-005	0.00000E+000	4.36792E-005	5.39641E-002	4.79624E-001	3.57330E+000	9	...........
	16	0.226667	4.89376E-001	9.10283E-005	0.00000E+000	4.45470E-005	5.39641E-002	4.89440E-001	3.57330E+000	9	...........
	17	0.24	4.98861E-001	9.10720E-005	0.00000E+000	4.54323E-005	5.39641E-002	4.98931E-001	3.57330E+000	9	...........
	18	0.253333	5.08048E-001	9.10679E-005	0.00000E+000	4.62668E-005	5.39641E-002	5.08120E-001	3.57330E+000	9	...........
	19	0.266667	5.16950E-001	9.08897E-005	0.00000E+000	4.69854E-005	5.39641E-002	5.17020E-001	3.57330E+000	9	...........
	20	0.28	5.25584E-001	9.10147E-005	0.00000E+000	4.78359E-005	5.39641E-002	5.25659E-001	3.57330E+000	9	...........
	21	0.293333	5.33902E-001	9.09616E-005	0.00000E+000	4.85646E-005	5.39641E-002	5.33988E-001	3.57330E+000	9	...........
	22	0.306667	5.42008E-001	9.10793E-005	0.00000E+000	4.93657E-005	5.39641E-002	5.42099E-001	3.57330E+000	9	...........
	23	0.32	5.49918E-001	9.09626E-005	0.00000E+000	5.00220E-005	5.39641E-002	5.50035E-001	3.57330E+000	9	...........
	24	0.333333	5.57588E-001	9.09460E-005	0.00000E+000	5.07103E-005	5.39641E-002	5.57717E-001	3.57330E+000	9	...........
	25	0.346667	5.65104E-001	9.10866E-005	0.00000E+000	5.14734E-005	5.39641E-002	5.65248E-001	3.57330E+000	9	...........
	26	0.36	5.72407E-001	9.12335E-005	0.00000E+000	5.22227E-005	5.39641E-002	5.72541E-001	3.57330E+000	9	...........
	27	0.373333	5.79514E-001	9.10877E-005	0.00000E+000	5.27866E-005	5.39641E-002	5.79677E-001	3.57330E+000	9	...........
	28	0.386667	5.86483E-001	9.08439E-005	0.00000E+000	5.32784E-005	5.39641E-002	5.86646E-001	3.57330E+000	9	...........
	29	0.4	5.93317E-001	9.09397E-005	0.00000E+000	5.39561E-005	5.39641E-002	5.93445E-001	3.57330E+000	9	...........
	30	0.413333	5.99927E-001	9.11793E-005	0.00000E+000	5.47009E-005	5.39641E-002	6.00085E-001	3.57330E+000	9	...........
	31	0.426667	6.06423E-001	9.11689E-005	0.00000E+000	5.52869E-005	5.39641E-002	6.06573E-001	3.57330E+000	9	...........
	32	0.44	6.12790E-001	9.09335E-005	0.00000E+000	5.57232E-005	5.39641E-002	6.12930E-001	3.57330E+000	9	...........
	33	0.453333	6.19066E-001	9.10710E-005	0.00000E+000	5.63790E-005	5.39641E-002	6.19151E-001	3.57330E+000	9	...........
	34	0.466667	6.25146E-001	9.07886E-005	0.00000E+000	5.67562E-005	5.39641E-002	6.25246E-001	3.57330E+000	9	...........
	35	0.48	6.31087E-001	9.07959E-005	0.00000E+000	5.73001E-005	5.39641E-002	6.31202E-001	3.57330E+000	9	...........
	36	0.493333	6.36907E-001	9.09397E-005	0.00000E+000	5.79201E-005	5.39641E-002	6.37031E-001	3.57330E+000	9	...........
	37	0.506667	6.42660E-001	9.10981E-005	0.00000E+000	5.85451E-005	5.39641E-002	6.42789E-001	3.57330E+000	9	...........
	38	0.52	6.48282E-001	9.08011E-005	0.00000E+000	5.88648E-005	5.39641E-002	6.48391E-001	3.57330E+000	9	...........
	39	0.533333	6.53777E-001	9.09241E-005	0.00000E+000	5.94441E-005	5.39641E-002	6.53914E-001	3.57330E+000	9	...........
	40	0.546667	6.59218E-001	9.10137E-005	0.00000E+000	5.99978E-005	5.39641E-002	6.59312E-001	3.57330E+000	9	...........
	41	0.56	6.64516E-001	9.08782E-005	0.00000E+000	6.03900E-005	5.39641E-002	6.64652E-001	3.57330E+000	9	...........
	42	0.573333	6.69778E-001	9.08949E-005	0.00000E+000	6.08794E-005	5.39641E-002	6.69869E-001	3.57330E+000	9	...........
	43	0.586667	6.74896E-001	9.10376E-005	0.00000E+000	6.14409E-005	5.39641E-002	6.75002E-001	3.57330E+000	9	...........
	44	0.6	6.79946E-001	9.08220E-005	0.00000E+000	6.17541E-005	5.39641E-002	6.80052E-001	3.57330E+000	9	...........
	45	0.613333	6.84902E-001	9.11856E-005	0.00000E+000	6.24532E-005	5.39641E-002	6.85000E-001	3.57330E+000	9	...........
	46	0.626667	6.89773E-001	9.10751E-005	0.00000E+000	6.28211E-005	5.39641E-002	6.89903E-001	3.57330E+000	9	...........
	47	0.64	6.94613E-001	9.10116E-005	0.00000E+000	6.32178E-005	5.39641E-002	6.94687E-001	3.57330E+000	9	...........
	48	0.653333	6.99320E-001	9.11022E-005	0.00000E+000	6.37096E-005	5.39641E-002	6.99420E-001	3.57330E+000	9	...........
	49	0.666667	7.04007E-001	9.10356E-005	0.00000E+000	6.40896E-005	5.39641E-002	7.04108E-001	3.57330E+000	9	...........
	50	0.68	7.08591E-001	9.09157E-005	0.00000E+000	6.44221E-005	5.39641E-002	7.08690E-001	3.57330E+000	9	...........
	51	0.693333	7.13112E-001	9.10001E-005	0.00000E+000	6.48933E-005	5.39641E-002	7.13215E-001	3.57330E+000	9	...........
	52	0.706667	7.17630E-001	9.12335E-005	0.00000E+000	6.54719E-005	5.39641E-002	7.17745E-001	3.57330E+000	9	...........
	53	0.72	7.22061E-001	9.09626E-005	0.00000E+000	6.56805E-005	5.39641E-002	7.22155E-001	3.57330E+000	9	...........
	54	0.733333	7.26411E-001	9.11012E-005	0.00000E+000	6.61769E-005	5.39641E-002	7.26520E-001	3.57330E+000	9	...........
	55	0.746667	7.30705E-001	9.08095E-005	0.00000E+000	6.63550E-005	5.39641E-002	7.30811E-001	3.57330E+000	9	...........
	56	0.76	7.34912E-001	9.09876E-005	0.00000E+000	6.68679E-005	5.39641E-002	7.35040E-001	3.57330E+000	9	...........
	57	0.773333	7.39066E-001	9.09970E-005	0.00000E+000	6.72528E-005	5.39641E-002	7.39200E-001	3.57330E+000	9	...........
	58	0.786667	7.43250E-001	9.12679E-005	0.00000E+000	6.78349E-005	5.39641E-002	7.43356E-001	3.57330E+000	9	...........
	59	0.8	7.47300E-001	9.10460E-005	0.00000E+000	6.80387E-005	5.39641E-002	7.47441E-001	3.57330E+000	9	...........
	60	0.813333	7.51327E-001	9.12002E-005	0.00000E+000	6.85211E-005	5.39641E-002	7.51445E-001	3.57330E+000	9	...........
	61	0.826667	7.55304E-001	9.12450E-005	0.00000E+000	6.89177E-005	5.39641E-002	7.55422E-001	3.57330E+000	9	...........
	62	0.84	7.59211E-001	9.08772E-005	0.00000E+000	6.89949E-005	5.39641E-002	7.59334E-001	3.57409E+000	9	...........
	63	0.853333	7.63080E-001	9.09741E-005	0.00000E+000	6.94205E-005	5.39641E-002	7.63204E-001	3.57410E+000	9	...........
	64	0.866667	7.66896E-001	9.09605E-005	0.00000E+000	6.97573E-005	5.39641E-002	7.67057E-001	3.57410E+000	9	...........
	65	0.88	7.70725E-001	9.11825E-005	0.00000E+000	7.02766E-005	5.39641E-002	7.70871E-001	3.57410E+000	9	...........
	66	0.893333	7.74473E-001	9.09449E-005	0.00000E+000	7.04343E-005	5.39641E-002	7.74595E-001	3.57410E+000	9	...........
	67	0.906667	7.78164E-001	9.11523E-005	0.00000E+000	7.09314E-005	5.39641E-002	7.78290E-001	3.57410E+000	9	...........
	68	0.92	7.81853E-001	9.09585E-005	0.00000E+000	7.11161E-005	5.39641E-002	7.81974E-001	3.57410E+000	9	...........
	69	0.933333	7.85450E-001	9.09918E-005	0.00000E+000	7.14695E-005	5.39641E-002	7.85574E-001	3.57410E+000	9	...........
	70	0.946667	7.89013E-001	9.11043E-005	0.00000E+000	7.18825E-005	5.39641E-002	7.89152E-001	3.57410E+000	9	...........
	71	0.96	7.92582E-001	9.07136E-005	0.00000E+000	7.18980E-005	5.39641E-002	7.92709E-001	3.57410E+000	9	...........
	72	0.97333	7.96073E-001	9.10293E-005	0.00000E+000	7.24660E-005	5.39641E-002	7.96196E-001	3.57410E+000	9	...........
	73	0.98667	7.99504E-001	9.07511E-005	0.00000E+000	7.25559E-005	5.39641E-002	7.99634E-001	3.57410E+000	9	...........
	74	1	8.02911E-001	9.10418E-005	0.00000E+000	7.30984E-005	5.39641E-002	8.03056E-001	3.57410E+000	9	...........
	75	1.01333	8.06296E-001	9.10168E-005	0.00000E+000	7.33865E-005	5.39641E-002	8.06460E-001	3.57410E+000	9	...........
	76	1.02667	8.09646E-001	9.10064E-005	0.00000E+000	7.36829E-005	5.39641E-002	8.09795E-001	3.57410E+000	9	...........
	77	1.04	8.12949E-001	9.09595E-005	0.00000E+000	7.39455E-005	5.39641E-002	8.13108E-001	3.57410E+000	9	...........
	78	1.05333	8.16214E-001	9.10699E-005	0.00000E+000	7.43326E-005	5.39641E-002	8.16377E-001	3.57410E+000	9	...........
	79	1.06667	8.19474E-001	9.09793E-005	0.00000E+000	7.45552E-005	5.39641E-002	8.19620E-001	3.57410E+000	9	...........
	80	1.08	8.22634E-001	9.10012E-005	0.00000E+000	7.48607E-005	5.39641E-002	8.22812E-001	3.57410E+000	9	...........
	81	1.09333	8.25794E-001	9.09157E-005	0.00000E+000	7.50777E-005	5.39641E-002	8.25977E-001	3.57410E+000	9	...........
	82	1.10667	8.28920E-001	9.09564E-005	0.00000E+000	7.53956E-005	5.39641E-002	8.29083E-001	3.57410E+000	9	...........
	83	1.12	8.32006E-001	9.08876E-005	0.00000E+000	7.56191E-005	5.39641E-002	8.32177E-001	3.57410E+000	9	...........
	84	1.13333	8.35051E-001	9.11345E-005	0.00000E+000	7.61020E-005	5.39641E-002	8.35237E-001	3.57410E+000	9	...........
	85	1.14667	8.38074E-001	9.07980E-005	0.00000E+000	7.60954E-005	5.39641E-002	8.38253E-001	3.57410E+000	9	...........
	86	1.16	8.41066E-001	9.09751E-005	0.00000E+000	7.65161E-005	5.39641E-002	8.41246E-001	3.57410E+000	9	...........
	87	1.17333	8.44071E-001	9.11304E-005	0.00000E+000	7.69205E-005	5.39641E-002	8.44241E-001	3.57410E+000	9	...........
	88	1.18667	8.47036E-001	9.10772E-005	0.00000E+000	7.71457E-005	5.39641E-002	8.47214E-001	3.57410E+000	9	...........
	89	1.2	8.49959E-001	9.09658E-005	0.00000E+000	7.73172E-005	5.39641E-002	8.50121E-001	3.57410E+000	9	...........
	90	1.21333	8.52878E-001	9.11970E-005	0.00000E+000	7.77800E-005	5.39641E-002	8.53037E-001	3.57410E+000	9	...........
	91	1.22667	8.55723E-001	9.10439E-005	0.00000E+000	7.79083E-005	5.39641E-002	8.55903E-001	3.57410E+000	9	...........
	92	1.24	8.58564E-001	9.11012E-005	0.00000E+000	7.82162E-005	5.39641E-002	8.58731E-001	3.57410E+000	9	...........
	93	1.25333	8.61360E-001	9.10991E-005	0.00000E+000	7.84691E-005	5.39641E-002	8.61533E-001	3.57410E+000	9	...........
	94	1.26667	8.64122E-001	9.11898E-005	0.00000E+000	7.87991E-005	5.39641E-002	8.64311E-001	3.57410E+000	9	...........
	95	1.28	8.66896E-001	9.11314E-005	0.00000E+000	7.90014E-005	5.39641E-002	8.67063E-001	3.57410E+000	9	...........
	96	1.29333	8.69640E-001	9.13044E-005	0.00000E+000	7.94020E-005	5.39641E-002	8.69818E-001	3.57410E+000	9	...........
	97	1.30667	8.72369E-001	9.11575E-005	0.00000E+000	7.95229E-005	5.39641E-002	8.72539E-001	3.57410E+000	9	...........
	98	1.32	8.75015E-001	9.09480E-005	0.00000E+000	7.95809E-005	5.39641E-002	8.75216E-001	3.57410E+000	9	...........
	99	1.33333	8.77670E-001	9.09345E-005	0.00000E+000	7.98104E-005	5.39641E-002	8.77849E-001	3.57410E+000	9	...........
	100	1.34667	8.80252E-001	9.08584E-005	0.00000E+000	7.99783E-005	5.39641E-002	8.80451E-001	3.57410E+000	9	...........
	101	1.36	8.82839E-001	9.11085E-005	0.00000E+000	8.04341E-005	5.39641E-002	8.83045E-001	3.57410E+000	9	...........
	102	1.37333	8.85410E-001	9.10460E-005	0.00000E+000	8.06130E-005	5.39641E-002	8.85612E-001	3.57410E+000	9	...........
	103	1.38667	8.87933E-001	9.09720E-005	0.00000E+000	8.07771E-005	5.39641E-002	8.88146E-001	3.57410E+000	9	...........
	104	1.4	8.90452E-001	9.10731E-005	0.00000E+000	8.10962E-005	5.39641E-002	8.90626E-001	3.57410E+000	9	...........
	105	1.41333	8.92931E-001	9.08834E-005	0.00000E+000	8.11527E-005	5.39641E-002	8.93115E-001	3.57410E+000	9	...........
	106	1.42667	8.95362E-001	9.10064E-005	0.00000E+000	8.14837E-005	5.39641E-002	8.95580E-001	3.57410E+000	9	...........
	107	1.44	8.97832E-001	9.08887E-005	0.00000E+000	8.16027E-005	5.39641E-002	8.98015E-001	3.57410E+000	9	...........
	108	1.45333	9.00232E-001	9.11793E-005	0.00000E+000	8.20825E-005	5.39641E-002	9.00430E-001	3.57410E+000	9	...........
	109	1.46667	9.02618E-001	9.09730E-005	0.00000E+000	8.21139E-005	5.39641E-002	9.02832E-001	3.57410E+000	9	...........
	110	1.48	9.04965E-001	9.08188E-005	0.00000E+000	8.21878E-005	5.39641E-002	9.05184E-001	3.57410E+000	9	...........
	111	1.49333	9.07307E-001	9.10272E-005	0.00000E+000	8.25896E-005	5.39641E-002	9.07518E-001	3.57410E+000	9	...........
	112	1.50667	9.09639E-001	9.09981E-005	0.00000E+000	8.27754E-005	5.39641E-002	9.09817E-001	3.57410E+000	9	...........
	113	1.52	9.11901E-001	9.09918E-005	0.00000E+000	8.29755E-005	5.39641E-002	9.12090E-001	3.57410E+000	9	...........
	114	1.53333	9.14147E-001	9.09553E-005	0.00000E+000	8.31465E-005	5.39641E-002	9.14354E-001	3.57410E+000	9	...........
	115	1.54667	9.16371E-001	9.08605E-005	0.00000E+000	8.32620E-005	5.39641E-002	9.16573E-001	3.57410E+000	9	...........
	116	1.56	9.18572E-001	9.11543E-005	0.00000E+000	8.37318E-005	5.39641E-002	9.18764E-001	3.57410E+000	9	...........
	117	1.57333	9.20817E-001	9.10356E-005	0.00000E+000	8.38271E-005	5.39641E-002	9.20955E-001	3.57410E+000	9	...........
	118	1.58667	9.22995E-001	9.09439E-005	0.00000E+000	8.39408E-005	5.39641E-002	9.23138E-001	3.57410E+000	9	...........
	119	1.6	9.25120E-001	9.10428E-005	0.00000E+000	8.42255E-005	5.39641E-002	9.25239E-001	3.57410E+000	9	...........
	120	1.61333	9.27189E-001	9.10366E-005	0.00000E+000	8.44081E-005	5.39641E-002	9.27333E-001	3.57410E+000	9	...........
	121	1.62667	9.29275E-001	9.11991E-005	0.00000E+000	8.47491E-005	5.39641E-002	9.29408E-001	3.57410E+000	9	...........
	122	1.64	9.31304E-001	9.10439E-005	0.00000E+000	8.47896E-005	5.39641E-002	9.31477E-001	3.57410E+000	9	...........
	123	1.65333	9.33330E-001	9.12418E-005	0.00000E+000	8.51588E-005	5.39641E-002	9.33510E-001	3.57410E+000	9	...........
	124	1.66667	9.35358E-001	9.13377E-005	0.00000E+000	8.54335E-005	5.39641E-002	9.35540E-001	3.57410E+000	9	...........
	125	1.68	9.37340E-001	9.11335E-005	0.00000E+000	8.54231E-005	5.39641E-002	9.37541E-001	3.57410E+000	9	...........
	126	1.69333	9.39331E-001	9.10074E-005	0.00000E+000	8.54861E-005	5.39641E-002	9.39521E-001	3.57410E+000	9	...........
	127	1.70667	9.41283E-001	9.10731E-005	0.00000E+000	8.57255E-005	5.39641E-002	9.41479E-001	3.57410E+000	9	...........
	128	1.72	9.43229E-001	9.09387E-005	0.00000E+000	8.57760E-005	5.39641E-002	9.43374E-001	3.57410E+000	9	...........
	129	1.73333	9.45122E-001	9.11147E-005	0.00000E+000	8.61145E-005	5.39641E-002	9.45304E-001	3.57410E+000	9	...........
	130	1.74667	9.47093E-001	9.09449E-005	0.00000E+000	8.61333E-005	5.39641E-002	9.47246E-001	3.57410E+000	9	...........
	131	1.76	9.48967E-001	9.12523E-005	0.00000E+000	8.65954E-005	5.39641E-002	9.49110E-001	3.57410E+000	9	...........
	132	1.77333	9.50829E-001	9.10699E-005	0.00000E+000	8.65919E-005	5.39641E-002	9.51006E-001	3.57410E+000	9	...........
	133	1.78667	9.52661E-001	9.08480E-005	0.00000E+000	8.65474E-005	5.39641E-002	9.52854E-001	3.57410E+000	9	...........
	134	1.8	9.54487E-001	9.08605E-005	0.00000E+000	8.67252E-005	5.39641E-002	9.54645E-001	3.57410E+000	9	...........
	135	1.81333	9.56280E-001	9.12054E-005	0.00000E+000	8.72179E-005	5.39641E-002	9.56448E-001	3.57410E+000	9	...........
	136	1.82667	9.58042E-001	9.08980E-005	0.00000E+000	8.70841E-005	5.39641E-002	9.58243E-001	3.57410E+000	9	...........
	137	1.84	9.59810E-001	9.11325E-005	0.00000E+000	8.74698E-005	5.39641E-002	9.60000E-001	3.57380E+000	9	...........
	138	1.85333	9.61564E-001	9.09605E-005	0.00000E+000	8.74644E-005	5.39641E-002	9.61760E-001	3.57380E+000	9	...........
	139	1.86667	9.63275E-001	9.10053E-005	0.00000E+000	8.76632E-005	5.39641E-002	9.63481E-001	3.57380E+000	9	...........
	140	1.88	9.64958E-001	9.09751E-005	0.00000E+000	8.77872E-005	5.39641E-002	9.65184E-001	3.57380E+000	9	...........
	141	1.89333	9.66669E-001	9.10168E-005	0.00000E+000	8.79831E-005	5.39641E-002	9.66868E-001	3.57380E+000	9	...........
	142	1.90667	9.68333E-001	9.11304E-005	0.00000E+000	8.82446E-005	5.39641E-002	9.68519E-001	3.57380E+000	9	...........
	143	1.92	9.69969E-001	9.12981E-005	0.00000E+000	8.85563E-005	5.39641E-002	9.70193E-001	3.57380E+000	9	...........
	144	1.93333	9.71589E-001	9.11127E-005	0.00000E+000	8.85241E-005	5.39641E-002	9.71810E-001	3.57380E+000	9	...........
	145	1.94667	9.73289E-001	9.11502E-005	0.00000E+000	8.87154E-005	5.39641E-002	9.73459E-001	3.57380E+000	9	...........
	146	1.96	9.74874E-001	9.08928E-005	0.00000E+000	8.86091E-005	5.39641E-002	9.75076E-001	3.57380E+000	9	...........
	147	1.97333	9.76461E-001	9.10439E-005	0.00000E+000	8.89008E-005	5.39641E-002	9.76653E-001	3.57380E+000	9	...........
	148	1.98667	9.78045E-001	9.08897E-005	0.00000E+000	8.88942E-005	5.39641E-002	9.78227E-001	3.57380E+000	9	...........
	149	2	9.79596E-001	9.08991E-005	0.00000E+000	8.90444E-005	5.39641E-002	9.79753E-001	3.57380E+000	9	...........
	150	2.01333	9.81102E-001	9.09814E-005	0.00000E+000	8.92620E-005	5.39641E-002	9.81276E-001	3.57380E+000	9	...........
	151	2.02667	9.82582E-001	9.10189E-005	0.00000E+000	8.94335E-005	5.39641E-002	9.82760E-001	3.57380E+000	9	...........
	152	2.04	9.84054E-001	9.10731E-005	0.00000E+000	8.96208E-005	5.39641E-002	9.84261E-001	3.57380E+000	9	...........
	153	2.05333	9.85544E-001	9.09366E-005	0.00000E+000	8.96220E-005	5.39641E-002	9.85759E-001	3.57380E+000	9	...........
	154	2.06667	9.86982E-001	9.10241E-005	0.00000E+000	8.98392E-005	5.39641E-002	9.87206E-001	3.57380E+000	9	...........
	155	2.08	9.88457E-001	9.08907E-005	0.00000E+000	8.98416E-005	5.39641E-002	9.88646E-001	3.57380E+000	9	...........
	156	2.09333	9.89906E-001	9.10991E-005	0.00000E+000	9.01796E-005	5.39641E-002	9.90079E-001	3.57380E+000	9	...........
	157	2.10667	9.91282E-001	9.09126E-005	0.00000E+000	9.01200E-005	5.39641E-002	9.91488E-001	3.57380E+000	9	...........
	158	2.12	9.92658E-001	9.13096E-005	0.00000E+000	9.06392E-005	5.39641E-002	9.92857E-001	3.57380E+000	9	...........
	159	2.13333	9.94031E-001	9.11877E-005	0.00000E+000	9.06434E-005	5.39641E-002	9.94232E-001	3.57380E+000	9	...........
	160	2.14667	9.95457E-001	9.09220E-005	0.00000E+000	9.05089E-005	5.39641E-002	9.95627E-001	3.57380E+000	9	...........
	161	2.16	9.96822E-001	9.11439E-005	0.00000E+000	9.08543E-005	5.39641E-002	9.97034E-001	3.57380E+000	9	...........
	162	2.17333	9.98214E-001	9.09012E-005	0.00000E+000	9.07388E-005	5.39641E-002	9.98414E-001	3.57380E+000	9	...........
	163	2.18667	9.99531E-001	9.09449E-005	0.00000E+000	9.09022E-005	5.39641E-002	9.99754E-001	3.57380E+000	9	...........
STARTTIMEOFFSET	QUANT	3048.548	Start Time Offset (s)
