EXPLAIN
TAG	PWR800_CHARGE
TITLE	LABEL	PWR Cyclic Charge Discharge (Cell) - Charge Step	Test &Identifier
DATE	LABEL	10-7-2017	Date
TIME	LABEL	15:34:48	Time
NOTES	NOTES	3	&Notes...
	supercap test cell
	0.9mg
	6M KOH
PSTAT	PSTAT	IFC5000-01520	Potentiostat
CAPACITY	QUANT	1.00000E-003	Capacity (A-hr)
CELLTYPE	SELECTOR	1	&Cell Type
WORKINGCONNECTION	SELECTOR	0	&Working Lead
MAXCHARGETIME	VARIABLEANDUNITS	1.00000E+002	s	1.00000E+002	second(s)	Max &Charge Time
CHARGECURRENT	QUANT	9.00000E-005	&Charge Current (A) 
VOLTAGEFINISH	TWOPARAM	F	1.00000E-003	3.60000E+003	&Voltage Finish	 I (A) < 	Max Time(s)
SAMPLETIME	QUANT	1.00000E-002	Sa&mple Period (s)
CHARGESTOPAT1	MULTIPARAM	4	1.00000E+000	Charge Stop At &1	Voltage > Limit	V
CHARGESTOPAT2	MULTIPARAM	0	0.00000E+000	Charge Stop At &2	None	N/A
AESBHCSELECTOR	TOGGLE	F	Save Both Half Cells
IRCOMP	TOGGLE	F	IR &Measure
EOC	QUANT	0	Open Circuit (V)
SEQUENCER	TOGGLE	TRUE	Run as Sequence
PSTATMODEL	IQUANT	53	Pstat Model
PSTATSECTION	LABEL	IFC5000-01520	Pstat Section
PSTATSERIALNO	LABEL	01520	Pstat Serial Number
CTRLMODE	IQUANT	0	Control Mode
ELECTROMETER	IQUANT	1	RE=0 or CS=1
IESTAB	IQUANT	0	I/E Stability
CASPEED	IQUANT	4	Control Amp Speed
CONVENTION	IQUANT	1	Current Convention
ICHRANGE	IQUANT	2	Ich Range
ICHRANGEMODE	TOGGLE	T	Ich Auto Range
ICHOFFSETENABLE	TOGGLE	F	Ich Offset Enable
ICHOFFSET	QUANT	0	Ich Offset (V)
ICHFILTER	IQUANT	1	Ich Filter
VCHRANGE	IQUANT	2	Vch Range
VCHRANGEMODE	TOGGLE	T	Vch Auto Range
VCHOFFSETENABLE	TOGGLE	F	Vch Offset Enable
VCHOFFSET	QUANT	0	Vch Offset (V)
VCHFILTER	IQUANT	1	Vch Filter
IERANGELOWERLIMIT	IQUANT	9	I/E Range Lower Limit
IERANGEMODE	TOGGLE	F	I/E AutoRange
IERANGE	IQUANT	9	I/E Range
ACHSELECT	IQUANT	1	Ach Select
ACHRANGE	IQUANT	2	Ach Range
ACHOFFSETENABLE	TOGGLE	F	Ach Offset Enable
ACHOFFSET	QUANT	0	Ach Offset (V)
ACHFILTER	IQUANT	1	Ach Filter
CABLEID	IQUANT	14	Cable ID
DCCALDATE	LABEL	5-7-2017	DC Calibration Date
ACCALDATE	LABEL	12/3/2015	AC Calibration Date
FRAMEWORKVERSION	QUANT	7.01	Framework Version
INSTRUMENTVERSION	LABEL	4.00	Instrument Version
CURVE	TABLE	171
	Pt	T	Vf	Im	Vu	Pwr	Sig	Ach	Temp	IERange	Over
	#	s	V	A	V	W	V	V	deg C	#	bits
	0	0.013333	2.75872E-001	9.07397E-005	0.00000E+000	2.50325E-005	5.39641E-002	2.75916E-001	3.57310E+000	9	...........
	1	0.026667	2.95524E-001	9.10689E-005	0.00000E+000	2.69130E-005	5.39641E-002	2.95566E-001	3.57310E+000	9	...........
	2	0.04	3.13811E-001	9.07636E-005	0.00000E+000	2.84826E-005	5.39641E-002	3.13855E-001	3.57310E+000	9	...........
	3	0.053333	3.30953E-001	9.08709E-005	0.00000E+000	3.00740E-005	5.39641E-002	3.30992E-001	3.57310E+000	9	...........
	4	0.066667	3.47101E-001	9.08668E-005	0.00000E+000	3.15399E-005	5.39641E-002	3.47141E-001	3.57310E+000	9	...........
	5	0.08	3.62355E-001	9.11679E-005	0.00000E+000	3.30351E-005	5.39641E-002	3.62401E-001	3.57310E+000	9	...........
	6	0.093333	3.76835E-001	9.12491E-005	0.00000E+000	3.43859E-005	5.39641E-002	3.76881E-001	3.57310E+000	9	...........
	7	0.106667	3.90605E-001	9.10418E-005	0.00000E+000	3.55614E-005	5.39641E-002	3.90657E-001	3.57310E+000	9	...........
	8	0.12	4.03738E-001	9.11991E-005	0.00000E+000	3.68205E-005	5.39641E-002	4.03788E-001	3.57310E+000	9	...........
	9	0.133333	4.16296E-001	9.10647E-005	0.00000E+000	3.79099E-005	5.39641E-002	4.16349E-001	3.57310E+000	9	...........
	10	0.146667	4.28318E-001	9.09855E-005	0.00000E+000	3.89707E-005	5.39641E-002	4.28376E-001	3.57310E+000	9	...........
	11	0.16	4.39857E-001	9.10314E-005	0.00000E+000	4.00408E-005	5.39641E-002	4.39923E-001	3.57310E+000	9	...........
	12	0.173333	4.50961E-001	9.08261E-005	0.00000E+000	4.09591E-005	5.39641E-002	4.51021E-001	3.57310E+000	9	...........
	13	0.186667	4.61644E-001	9.10751E-005	0.00000E+000	4.20443E-005	5.39641E-002	4.61707E-001	3.57310E+000	9	...........
	14	0.2	4.71955E-001	9.10668E-005	0.00000E+000	4.29794E-005	5.39641E-002	4.72015E-001	3.57310E+000	9	...........
	15	0.213333	4.81900E-001	9.10397E-005	0.00000E+000	4.38721E-005	5.39641E-002	4.81966E-001	3.57310E+000	9	...........
	16	0.226667	4.91524E-001	9.10356E-005	0.00000E+000	4.47462E-005	5.39641E-002	4.91590E-001	3.57310E+000	9	...........
	17	0.24	5.00826E-001	9.12127E-005	0.00000E+000	4.56817E-005	5.39641E-002	5.00890E-001	3.57310E+000	9	...........
	18	0.253333	5.09836E-001	9.07907E-005	0.00000E+000	4.62884E-005	5.39641E-002	5.09910E-001	3.57310E+000	9	...........
	19	0.266667	5.18586E-001	9.12210E-005	0.00000E+000	4.73059E-005	5.39641E-002	5.18657E-001	3.57310E+000	9	...........
	20	0.28	5.27076E-001	9.12898E-005	0.00000E+000	4.81166E-005	5.39641E-002	5.27150E-001	3.57310E+000	9	...........
	21	0.293333	5.35255E-001	9.08793E-005	0.00000E+000	4.86436E-005	5.39641E-002	5.35351E-001	3.57310E+000	9	...........
	22	0.306667	5.43275E-001	9.10303E-005	0.00000E+000	4.94545E-005	5.39641E-002	5.43380E-001	3.57310E+000	9	...........
	23	0.32	5.51084E-001	9.10637E-005	0.00000E+000	5.01837E-005	5.39641E-002	5.51159E-001	3.57310E+000	9	...........
	24	0.333333	5.58653E-001	9.10137E-005	0.00000E+000	5.08451E-005	5.39641E-002	5.58755E-001	3.57310E+000	9	...........
	25	0.346667	5.66097E-001	9.11252E-005	0.00000E+000	5.15857E-005	5.39641E-002	5.66190E-001	3.57310E+000	9	...........
	26	0.36	5.73308E-001	9.10283E-005	0.00000E+000	5.21873E-005	5.39641E-002	5.73410E-001	3.57310E+000	9	...........
	27	0.373333	5.80337E-001	9.09064E-005	0.00000E+000	5.27563E-005	5.39641E-002	5.80452E-001	3.57310E+000	9	...........
	28	0.386667	5.87218E-001	9.09522E-005	0.00000E+000	5.34088E-005	5.39641E-002	5.87332E-001	3.57310E+000	9	...........
	29	0.4	5.93933E-001	9.10408E-005	0.00000E+000	5.40722E-005	5.39641E-002	5.94072E-001	3.57310E+000	9	...........
	30	0.413333	6.00483E-001	9.11720E-005	0.00000E+000	5.47473E-005	5.39641E-002	6.00622E-001	3.57305E+000	9	...........
	31	0.426667	6.06892E-001	9.12502E-005	0.00000E+000	5.53790E-005	5.39641E-002	6.07043E-001	3.57300E+000	9	...........
	32	0.44	6.13198E-001	9.08459E-005	0.00000E+000	5.57065E-005	5.39641E-002	6.13338E-001	3.57300E+000	9	...........
	33	0.453333	6.19378E-001	9.11054E-005	0.00000E+000	5.64286E-005	5.39641E-002	6.19481E-001	3.57300E+000	9	...........
	34	0.466667	6.25395E-001	9.08428E-005	0.00000E+000	5.68126E-005	5.39641E-002	6.25493E-001	3.57300E+000	9	...........
	35	0.48	6.31275E-001	9.10033E-005	0.00000E+000	5.74481E-005	5.39641E-002	6.31369E-001	3.57300E+000	9	...........
	36	0.493333	6.37051E-001	9.11648E-005	0.00000E+000	5.80766E-005	5.39641E-002	6.37174E-001	3.57300E+000	9	...........
	37	0.506667	6.42755E-001	9.08313E-005	0.00000E+000	5.83823E-005	5.39641E-002	6.42858E-001	3.57300E+000	9	...........
	38	0.52	6.48300E-001	9.09418E-005	0.00000E+000	5.89575E-005	5.39641E-002	6.48413E-001	3.57300E+000	9	...........
	39	0.533333	6.53752E-001	9.10356E-005	0.00000E+000	5.95147E-005	5.39641E-002	6.53880E-001	3.57300E+000	9	...........
	40	0.546667	6.59105E-001	9.10449E-005	0.00000E+000	6.00082E-005	5.39641E-002	6.59217E-001	3.57300E+000	9	...........
	41	0.56	6.64359E-001	9.12231E-005	0.00000E+000	6.06049E-005	5.39641E-002	6.64500E-001	3.57300E+000	9	...........
	42	0.573333	6.69568E-001	9.07709E-005	0.00000E+000	6.07773E-005	5.39641E-002	6.69665E-001	3.57300E+000	9	...........
	43	0.586667	6.74635E-001	9.09876E-005	0.00000E+000	6.13834E-005	5.39641E-002	6.74765E-001	3.57300E+000	9	...........
	44	0.6	6.79628E-001	9.07324E-005	0.00000E+000	6.16642E-005	5.39641E-002	6.79759E-001	3.57300E+000	9	...........
	45	0.613333	6.84509E-001	9.13544E-005	0.00000E+000	6.25329E-005	5.39641E-002	6.84623E-001	3.57300E+000	9	...........
	46	0.626667	6.89329E-001	9.11356E-005	0.00000E+000	6.28224E-005	5.39641E-002	6.89458E-001	3.57300E+000	9	...........
	47	0.64	6.94084E-001	9.07876E-005	0.00000E+000	6.30142E-005	5.39641E-002	6.94200E-001	3.57300E+000	9	...........
	48	0.653333	6.98742E-001	9.10501E-005	0.00000E+000	6.36206E-005	5.39641E-002	6.98885E-001	3.57300E+000	9	...........
	49	0.666667	7.03340E-001	9.12346E-005	0.00000E+000	6.41689E-005	5.39641E-002	7.03490E-001	3.57300E+000	9	...........
	50	0.68	7.07859E-001	9.10356E-005	0.00000E+000	6.44404E-005	5.39641E-002	7.08015E-001	3.57300E+000	9	...........
	51	0.693333	7.12333E-001	9.12346E-005	0.00000E+000	6.49894E-005	5.39641E-002	7.12478E-001	3.57300E+000	9	...........
	52	0.706667	7.16755E-001	9.10241E-005	0.00000E+000	6.52420E-005	5.39641E-002	7.16903E-001	3.57300E+000	9	...........
	53	0.72	7.21098E-001	9.14440E-005	0.00000E+000	6.59401E-005	5.39641E-002	7.21225E-001	3.57300E+000	9	...........
	54	0.733333	7.25351E-001	9.09574E-005	0.00000E+000	6.59760E-005	5.39641E-002	7.25479E-001	3.57300E+000	9	...........
	55	0.746667	7.29536E-001	9.11825E-005	0.00000E+000	6.65209E-005	5.39641E-002	7.29683E-001	3.57300E+000	9	...........
	56	0.76	7.33676E-001	9.10283E-005	0.00000E+000	6.67853E-005	5.39641E-002	7.33810E-001	3.57300E+000	9	...........
	57	0.773333	7.37769E-001	9.06803E-005	0.00000E+000	6.69011E-005	5.39641E-002	7.37876E-001	3.57300E+000	9	...........
	58	0.786667	7.41808E-001	9.10679E-005	0.00000E+000	6.75549E-005	5.39641E-002	7.41943E-001	3.57300E+000	9	...........
	59	0.8	7.45805E-001	9.11741E-005	0.00000E+000	6.79981E-005	5.39641E-002	7.45909E-001	3.57300E+000	9	...........
	60	0.813333	7.49706E-001	9.09856E-005	0.00000E+000	6.82124E-005	5.39641E-002	7.49822E-001	3.57300E+000	9	...........
	61	0.826667	7.53570E-001	9.10366E-005	0.00000E+000	6.86025E-005	5.39641E-002	7.53701E-001	3.57300E+000	9	...........
	62	0.84	7.57385E-001	9.10303E-005	0.00000E+000	6.89450E-005	5.39641E-002	7.57532E-001	3.57300E+000	9	...........
	63	0.853333	7.61148E-001	9.10741E-005	0.00000E+000	6.93208E-005	5.39641E-002	7.61265E-001	3.57300E+000	9	...........
	64	0.866667	7.64889E-001	9.08532E-005	0.00000E+000	6.94926E-005	5.39641E-002	7.65006E-001	3.57300E+000	9	...........
	65	0.88	7.68573E-001	9.10877E-005	0.00000E+000	7.00075E-005	5.39641E-002	7.68726E-001	3.57300E+000	9	...........
	66	0.893333	7.72243E-001	9.11335E-005	0.00000E+000	7.03772E-005	5.39641E-002	7.72381E-001	3.57300E+000	9	...........
	67	0.906667	7.75832E-001	9.10116E-005	0.00000E+000	7.06097E-005	5.39641E-002	7.75975E-001	3.57300E+000	9	...........
	68	0.92	7.79368E-001	9.10856E-005	0.00000E+000	7.09892E-005	5.39641E-002	7.79516E-001	3.57300E+000	9	...........
	69	0.933333	7.82893E-001	9.10606E-005	0.00000E+000	7.12907E-005	5.39641E-002	7.83031E-001	3.57300E+000	9	...........
	70	0.946667	7.86341E-001	9.10376E-005	0.00000E+000	7.15866E-005	5.39641E-002	7.86480E-001	3.57300E+000	9	...........
	71	0.96	7.89778E-001	9.10689E-005	0.00000E+000	7.19242E-005	5.39641E-002	7.89911E-001	3.57300E+000	9	...........
	72	0.97333	7.93196E-001	9.09564E-005	0.00000E+000	7.21462E-005	5.39641E-002	7.93348E-001	3.57300E+000	9	...........
	73	0.98667	7.96560E-001	9.10220E-005	0.00000E+000	7.25045E-005	5.39641E-002	7.96687E-001	3.57300E+000	9	...........
	74	1	7.99856E-001	9.08386E-005	0.00000E+000	7.26578E-005	5.39641E-002	7.99987E-001	3.57300E+000	9	...........
	75	1.01333	8.03131E-001	9.12158E-005	0.00000E+000	7.32582E-005	5.39641E-002	8.03272E-001	3.57300E+000	9	...........
	76	1.02667	8.06349E-001	9.09564E-005	0.00000E+000	7.33426E-005	5.39641E-002	8.06503E-001	3.57300E+000	9	...........
	77	1.04	8.09544E-001	9.11929E-005	0.00000E+000	7.38247E-005	5.39641E-002	8.09692E-001	3.57300E+000	9	...........
	78	1.05333	8.12711E-001	9.11283E-005	0.00000E+000	7.40609E-005	5.39641E-002	8.12856E-001	3.57300E+000	9	...........
	79	1.06667	8.15823E-001	9.09084E-005	0.00000E+000	7.41652E-005	5.39641E-002	8.16015E-001	3.57300E+000	9	...........
	80	1.08	8.18945E-001	9.09741E-005	0.00000E+000	7.45028E-005	5.39641E-002	8.19122E-001	3.57300E+000	9	...........
	81	1.09333	8.22024E-001	9.10189E-005	0.00000E+000	7.48197E-005	5.39641E-002	8.22182E-001	3.57300E+000	9	...........
	82	1.10667	8.25028E-001	9.08574E-005	0.00000E+000	7.49599E-005	5.39641E-002	8.25215E-001	3.57300E+000	9	...........
	83	1.12	8.28051E-001	9.09480E-005	0.00000E+000	7.53096E-005	5.39641E-002	8.28187E-001	3.57300E+000	9	...........
	84	1.13333	8.30991E-001	9.09449E-005	0.00000E+000	7.55744E-005	5.39641E-002	8.31165E-001	3.57300E+000	9	...........
	85	1.14667	8.33902E-001	9.11137E-005	0.00000E+000	7.59799E-005	5.39641E-002	8.34081E-001	3.57300E+000	9	...........
	86	1.16	8.36814E-001	9.11158E-005	0.00000E+000	7.62470E-005	5.39641E-002	8.36976E-001	3.57300E+000	9	...........
	87	1.17333	8.39666E-001	9.10251E-005	0.00000E+000	7.64307E-005	5.39641E-002	8.39808E-001	3.57300E+000	9	...........
	88	1.18667	8.42489E-001	9.09730E-005	0.00000E+000	7.66438E-005	5.39641E-002	8.42648E-001	3.57300E+000	9	...........
	89	1.2	8.45363E-001	9.12627E-005	0.00000E+000	7.71501E-005	5.39641E-002	8.45496E-001	3.57300E+000	9	...........
	90	1.21333	8.48126E-001	9.15398E-005	0.00000E+000	7.76373E-005	5.39641E-002	8.48278E-001	3.57300E+000	9	...........
	91	1.22667	8.50875E-001	9.09626E-005	0.00000E+000	7.73978E-005	5.39641E-002	8.51029E-001	3.57300E+000	9	...........
	92	1.24	8.53608E-001	9.11814E-005	0.00000E+000	7.78332E-005	5.39641E-002	8.53769E-001	3.57300E+000	9	...........
	93	1.25333	8.56307E-001	9.10116E-005	0.00000E+000	7.79338E-005	5.39641E-002	8.56482E-001	3.57300E+000	9	...........
	94	1.26667	8.59006E-001	9.10272E-005	0.00000E+000	7.81930E-005	5.39641E-002	8.59147E-001	3.57300E+000	9	...........
	95	1.28	8.61650E-001	9.08730E-005	0.00000E+000	7.83007E-005	5.39641E-002	8.61806E-001	3.57300E+000	9	...........
	96	1.29333	8.64260E-001	9.11502E-005	0.00000E+000	7.87774E-005	5.39641E-002	8.64429E-001	3.57300E+000	9	...........
	97	1.30667	8.66862E-001	9.08959E-005	0.00000E+000	7.87942E-005	5.39641E-002	8.67042E-001	3.57300E+000	9	...........
	98	1.32	8.69434E-001	9.09126E-005	0.00000E+000	7.90425E-005	5.39641E-002	8.69633E-001	3.57300E+000	9	...........
	99	1.33333	8.72012E-001	9.08282E-005	0.00000E+000	7.92033E-005	5.39641E-002	8.72186E-001	3.57300E+000	9	...........
	100	1.34667	8.74515E-001	9.09334E-005	0.00000E+000	7.95226E-005	5.39641E-002	8.74689E-001	3.57300E+000	9	...........
	101	1.36	8.77011E-001	9.14700E-005	0.00000E+000	8.02202E-005	5.39641E-002	8.77201E-001	3.57300E+000	9	...........
	102	1.37333	8.79469E-001	9.09814E-005	0.00000E+000	8.00153E-005	5.39641E-002	8.79656E-001	3.57300E+000	9	...........
	103	1.38667	8.81916E-001	9.12502E-005	0.00000E+000	8.04750E-005	5.39641E-002	8.82113E-001	3.57300E+000	9	...........
	104	1.4	8.84340E-001	9.10804E-005	0.00000E+000	8.05460E-005	5.39641E-002	8.84526E-001	3.57300E+000	9	...........
	105	1.41333	8.86720E-001	9.11991E-005	0.00000E+000	8.08681E-005	5.39641E-002	8.86927E-001	3.57271E+000	9	...........
	106	1.42667	8.89098E-001	9.10533E-005	0.00000E+000	8.09552E-005	5.39641E-002	8.89292E-001	3.57240E+000	9	...........
	107	1.44	8.91453E-001	9.09147E-005	0.00000E+000	8.10462E-005	5.39641E-002	8.91630E-001	3.57240E+000	9	...........
	108	1.45333	8.93753E-001	9.11804E-005	0.00000E+000	8.14927E-005	5.39641E-002	8.93967E-001	3.57240E+000	9	...........
	109	1.46667	8.96091E-001	9.11835E-005	0.00000E+000	8.17087E-005	5.39641E-002	8.96315E-001	3.57240E+000	9	...........
	110	1.48	8.98377E-001	9.11710E-005	0.00000E+000	8.19059E-005	5.39641E-002	8.98598E-001	3.57240E+000	9	...........
	111	1.49333	9.00631E-001	9.11116E-005	0.00000E+000	8.20579E-005	5.39641E-002	9.00847E-001	3.57240E+000	9	...........
	112	1.50667	9.02868E-001	9.09918E-005	0.00000E+000	8.21535E-005	5.39641E-002	9.03078E-001	3.57240E+000	9	...........
	113	1.52	9.05085E-001	9.09626E-005	0.00000E+000	8.23289E-005	5.39641E-002	9.05299E-001	3.57240E+000	9	...........
	114	1.53333	9.07286E-001	9.14409E-005	0.00000E+000	8.29630E-005	5.39641E-002	9.07485E-001	3.57240E+000	9	...........
	115	1.54667	9.09466E-001	9.09866E-005	0.00000E+000	8.27492E-005	5.39641E-002	9.09653E-001	3.57240E+000	9	...........
	116	1.56	9.11606E-001	9.09960E-005	0.00000E+000	8.29525E-005	5.39641E-002	9.11779E-001	3.57240E+000	9	...........
	117	1.57333	9.13688E-001	9.12887E-005	0.00000E+000	8.34094E-005	5.39641E-002	9.13919E-001	3.57240E+000	9	...........
	118	1.58667	9.15812E-001	9.09626E-005	0.00000E+000	8.33047E-005	5.39641E-002	9.16017E-001	3.57240E+000	9	...........
	119	1.6	9.17869E-001	9.10189E-005	0.00000E+000	8.35435E-005	5.39641E-002	9.18092E-001	3.57240E+000	9	...........
	120	1.61333	9.19910E-001	9.11095E-005	0.00000E+000	8.38126E-005	5.39641E-002	9.20127E-001	3.57240E+000	9	...........
	121	1.62667	9.22012E-001	9.12481E-005	0.00000E+000	8.41319E-005	5.39641E-002	9.22179E-001	3.57240E+000	9	...........
	122	1.64	9.24018E-001	9.11418E-005	0.00000E+000	8.42167E-005	5.39641E-002	9.24199E-001	3.57240E+000	9	...........
	123	1.65333	9.26014E-001	9.09730E-005	0.00000E+000	8.42423E-005	5.39641E-002	9.26188E-001	3.57240E+000	9	...........
	124	1.66667	9.27979E-001	9.09699E-005	0.00000E+000	8.44182E-005	5.39641E-002	9.28174E-001	3.57240E+000	9	...........
	125	1.68	9.29924E-001	9.12544E-005	0.00000E+000	8.48596E-005	5.39641E-002	9.30094E-001	3.57240E+000	9	...........
	126	1.69333	9.31840E-001	9.06959E-005	0.00000E+000	8.45140E-005	5.39641E-002	9.31995E-001	3.57240E+000	9	...........
	127	1.70667	9.33745E-001	9.10585E-005	0.00000E+000	8.50254E-005	5.39641E-002	9.33939E-001	3.57240E+000	9	...........
	128	1.72	9.35636E-001	9.09022E-005	0.00000E+000	8.50514E-005	5.39641E-002	9.35852E-001	3.57240E+000	9	...........
	129	1.73333	9.37544E-001	9.09522E-005	0.00000E+000	8.52717E-005	5.39641E-002	9.37750E-001	3.57240E+000	9	...........
	130	1.74667	9.39369E-001	9.08897E-005	0.00000E+000	8.53789E-005	5.39641E-002	9.39564E-001	3.57240E+000	9	...........
	131	1.76	9.41206E-001	9.09876E-005	0.00000E+000	8.56381E-005	5.39641E-002	9.41395E-001	3.57240E+000	9	...........
	132	1.77333	9.43006E-001	9.09960E-005	0.00000E+000	8.58098E-005	5.39641E-002	9.43203E-001	3.57240E+000	9	...........
	133	1.78667	9.44788E-001	9.12116E-005	0.00000E+000	8.61757E-005	5.39641E-002	9.44975E-001	3.57240E+000	9	...........
	134	1.8	9.46593E-001	9.09897E-005	0.00000E+000	8.61302E-005	5.39641E-002	9.46793E-001	3.57240E+000	9	...........
	135	1.81333	9.48384E-001	9.12293E-005	0.00000E+000	8.65205E-005	5.39641E-002	9.48589E-001	3.57240E+000	9	...........
	136	1.82667	9.50120E-001	9.12085E-005	0.00000E+000	8.66590E-005	5.39641E-002	9.50298E-001	3.57240E+000	9	...........
	137	1.84	9.51804E-001	9.09012E-005	0.00000E+000	8.65201E-005	5.39641E-002	9.52023E-001	3.57240E+000	9	...........
	138	1.85333	9.53526E-001	9.10074E-005	0.00000E+000	8.67780E-005	5.39641E-002	9.53733E-001	3.57240E+000	9	...........
	139	1.86667	9.55226E-001	9.11314E-005	0.00000E+000	8.70511E-005	5.39641E-002	9.55418E-001	3.57240E+000	9	...........
	140	1.88	9.56905E-001	9.10689E-005	0.00000E+000	8.71443E-005	5.39641E-002	9.57103E-001	3.57240E+000	9	...........
	141	1.89333	9.58548E-001	9.09366E-005	0.00000E+000	8.71671E-005	5.39641E-002	9.58754E-001	3.57240E+000	9	...........
	142	1.90667	9.60201E-001	9.08095E-005	0.00000E+000	8.71954E-005	5.39641E-002	9.60418E-001	3.57240E+000	9	...........
	143	1.92	9.61818E-001	9.14086E-005	0.00000E+000	8.79184E-005	5.39641E-002	9.62026E-001	3.57240E+000	9	...........
	144	1.93333	9.63429E-001	9.12960E-005	0.00000E+000	8.79572E-005	5.39641E-002	9.63640E-001	3.57240E+000	9	...........
	145	1.94667	9.65003E-001	9.10428E-005	0.00000E+000	8.78566E-005	5.39641E-002	9.65234E-001	3.57240E+000	9	...........
	146	1.96	9.66594E-001	9.10303E-005	0.00000E+000	8.79894E-005	5.39641E-002	9.66806E-001	3.57240E+000	9	...........
	147	1.97333	9.68153E-001	9.10647E-005	0.00000E+000	8.81646E-005	5.39641E-002	9.68360E-001	3.57240E+000	9	...........
	148	1.98667	9.69695E-001	9.09491E-005	0.00000E+000	8.81928E-005	5.39641E-002	9.69915E-001	3.57240E+000	9	...........
	149	2	9.71213E-001	9.10710E-005	0.00000E+000	8.84493E-005	5.39641E-002	9.71475E-001	3.57240E+000	9	...........
	150	2.01333	9.72801E-001	9.11377E-005	0.00000E+000	8.86588E-005	5.39641E-002	9.72959E-001	3.57240E+000	9	...........
	151	2.02667	9.74309E-001	9.10574E-005	0.00000E+000	8.87181E-005	5.39641E-002	9.74458E-001	3.57240E+000	9	...........
	152	2.04	9.75770E-001	9.09793E-005	0.00000E+000	8.87748E-005	5.39641E-002	9.75940E-001	3.57240E+000	9	...........
	153	2.05333	9.77254E-001	9.10439E-005	0.00000E+000	8.89730E-005	5.39641E-002	9.77423E-001	3.57240E+000	9	...........
	154	2.06667	9.78692E-001	9.09595E-005	0.00000E+000	8.90213E-005	5.39641E-002	9.78883E-001	3.57240E+000	9	...........
	155	2.08	9.80135E-001	9.12742E-005	0.00000E+000	8.94610E-005	5.39641E-002	9.80294E-001	3.57240E+000	9	...........
	156	2.09333	9.81533E-001	9.09199E-005	0.00000E+000	8.92409E-005	5.39641E-002	9.81723E-001	3.57240E+000	9	...........
	157	2.10667	9.82917E-001	9.09074E-005	0.00000E+000	8.93544E-005	5.39641E-002	9.83121E-001	3.57240E+000	9	...........
	158	2.12	9.84284E-001	9.11533E-005	0.00000E+000	8.97207E-005	5.39641E-002	9.84502E-001	3.57240E+000	9	...........
	159	2.13333	9.85676E-001	9.11377E-005	0.00000E+000	8.98322E-005	5.39641E-002	9.85905E-001	3.57240E+000	9	...........
	160	2.14667	9.87011E-001	9.11866E-005	0.00000E+000	9.00022E-005	5.39641E-002	9.87241E-001	3.57240E+000	9	...........
	161	2.16	9.88383E-001	9.10512E-005	0.00000E+000	8.99934E-005	5.39641E-002	9.88595E-001	3.57240E+000	9	...........
	162	2.17333	9.89720E-001	9.12200E-005	0.00000E+000	9.02822E-005	5.39641E-002	9.89916E-001	3.57240E+000	9	...........
	163	2.18667	9.91028E-001	9.10043E-005	0.00000E+000	9.01878E-005	5.39641E-002	9.91232E-001	3.57240E+000	9	...........
	164	2.2	9.92301E-001	9.09387E-005	0.00000E+000	9.02385E-005	5.39641E-002	9.92522E-001	3.57240E+000	9	...........
	165	2.21333	9.93607E-001	9.13856E-005	0.00000E+000	9.08014E-005	5.39641E-002	9.93819E-001	3.57240E+000	9	...........
	166	2.22667	9.94908E-001	9.12929E-005	0.00000E+000	9.08280E-005	5.39641E-002	9.95095E-001	3.57240E+000	9	...........
	167	2.24	9.96180E-001	9.09814E-005	0.00000E+000	9.06338E-005	5.39641E-002	9.96362E-001	3.57240E+000	9	...........
	168	2.25333	9.97441E-001	9.10554E-005	0.00000E+000	9.08224E-005	5.39641E-002	9.97689E-001	3.57240E+000	9	...........
	169	2.26667	9.98712E-001	9.09293E-005	0.00000E+000	9.08122E-005	5.39641E-002	9.98921E-001	3.57240E+000	9	...........
	170	2.275	9.99732E-001	9.11727E-005	0.00000E+000	9.11482E-005	5.39641E-002	9.99937E-001	3.57240E+000	9	...........
STARTTIMEOFFSET	QUANT	1800.78	Start Time Offset (s)
