EXPLAIN
TAG	PWR800_CHARGE
TITLE	LABEL	PWR Cyclic Charge Discharge (Cell) - Charge Step	Test &Identifier
DATE	LABEL	10-7-2017	Date
TIME	LABEL	15:17:51	Time
NOTES	NOTES	3	&Notes...
	supercap test cell
	0.9mg
	6M KOH
PSTAT	PSTAT	IFC5000-01520	Potentiostat
CAPACITY	QUANT	1.00000E-003	Capacity (A-hr)
CELLTYPE	SELECTOR	1	&Cell Type
WORKINGCONNECTION	SELECTOR	0	&Working Lead
MAXCHARGETIME	VARIABLEANDUNITS	1.00000E+002	s	1.00000E+002	second(s)	Max &Charge Time
CHARGECURRENT	QUANT	9.00000E-005	&Charge Current (A) 
VOLTAGEFINISH	TWOPARAM	F	1.00000E-003	3.60000E+003	&Voltage Finish	 I (A) < 	Max Time(s)
SAMPLETIME	QUANT	1.00000E-002	Sa&mple Period (s)
CHARGESTOPAT1	MULTIPARAM	4	1.00000E+000	Charge Stop At &1	Voltage > Limit	V
CHARGESTOPAT2	MULTIPARAM	0	0.00000E+000	Charge Stop At &2	None	N/A
AESBHCSELECTOR	TOGGLE	F	Save Both Half Cells
IRCOMP	TOGGLE	F	IR &Measure
EOC	QUANT	0	Open Circuit (V)
SEQUENCER	TOGGLE	TRUE	Run as Sequence
PSTATMODEL	IQUANT	53	Pstat Model
PSTATSECTION	LABEL	IFC5000-01520	Pstat Section
PSTATSERIALNO	LABEL	01520	Pstat Serial Number
CTRLMODE	IQUANT	0	Control Mode
ELECTROMETER	IQUANT	1	RE=0 or CS=1
IESTAB	IQUANT	0	I/E Stability
CASPEED	IQUANT	4	Control Amp Speed
CONVENTION	IQUANT	1	Current Convention
ICHRANGE	IQUANT	2	Ich Range
ICHRANGEMODE	TOGGLE	T	Ich Auto Range
ICHOFFSETENABLE	TOGGLE	F	Ich Offset Enable
ICHOFFSET	QUANT	0	Ich Offset (V)
ICHFILTER	IQUANT	1	Ich Filter
VCHRANGE	IQUANT	2	Vch Range
VCHRANGEMODE	TOGGLE	T	Vch Auto Range
VCHOFFSETENABLE	TOGGLE	F	Vch Offset Enable
VCHOFFSET	QUANT	0	Vch Offset (V)
VCHFILTER	IQUANT	1	Vch Filter
IERANGELOWERLIMIT	IQUANT	9	I/E Range Lower Limit
IERANGEMODE	TOGGLE	F	I/E AutoRange
IERANGE	IQUANT	9	I/E Range
ACHSELECT	IQUANT	1	Ach Select
ACHRANGE	IQUANT	2	Ach Range
ACHOFFSETENABLE	TOGGLE	F	Ach Offset Enable
ACHOFFSET	QUANT	0	Ach Offset (V)
ACHFILTER	IQUANT	1	Ach Filter
CABLEID	IQUANT	14	Cable ID
DCCALDATE	LABEL	5-7-2017	DC Calibration Date
ACCALDATE	LABEL	12/3/2015	AC Calibration Date
FRAMEWORKVERSION	QUANT	7.01	Framework Version
INSTRUMENTVERSION	LABEL	4.00	Instrument Version
CURVE	TABLE	180
	Pt	T	Vf	Im	Vu	Pwr	Sig	Ach	Temp	IERange	Over
	#	s	V	A	V	W	V	V	deg C	#	bits
	0	0.013333	2.87041E-001	9.11845E-005	0.00000E+000	2.61737E-005	5.39641E-002	2.87083E-001	3.57242E+000	9	...........
	1	0.026667	3.06379E-001	9.13346E-005	0.00000E+000	2.79830E-005	5.39641E-002	3.06417E-001	3.57310E+000	9	...........
	2	0.04	3.24243E-001	9.10731E-005	0.00000E+000	2.95298E-005	5.39641E-002	3.24282E-001	3.57310E+000	9	...........
	3	0.053333	3.40911E-001	9.09209E-005	0.00000E+000	3.09960E-005	5.39641E-002	3.40953E-001	3.57310E+000	9	...........
	4	0.066667	3.56556E-001	9.10689E-005	0.00000E+000	3.24712E-005	5.39641E-002	3.56603E-001	3.57310E+000	9	...........
	5	0.08	3.71314E-001	9.11835E-005	0.00000E+000	3.38577E-005	5.39641E-002	3.71359E-001	3.57310E+000	9	...........
	6	0.093333	3.85302E-001	9.12210E-005	0.00000E+000	3.51477E-005	5.39641E-002	3.85341E-001	3.57310E+000	9	...........
	7	0.106667	3.98597E-001	9.08407E-005	0.00000E+000	3.62088E-005	5.39641E-002	3.98641E-001	3.57310E+000	9	...........
	8	0.12	4.11292E-001	9.09605E-005	0.00000E+000	3.74113E-005	5.39641E-002	4.11340E-001	3.57310E+000	9	...........
	9	0.133333	4.23423E-001	9.11095E-005	0.00000E+000	3.85778E-005	5.39641E-002	4.23474E-001	3.57310E+000	9	...........
	10	0.146667	4.35048E-001	9.12502E-005	0.00000E+000	3.96982E-005	5.39641E-002	4.35101E-001	3.57310E+000	9	...........
	11	0.16	4.46210E-001	9.10897E-005	0.00000E+000	4.06451E-005	5.39641E-002	4.46267E-001	3.57310E+000	9	...........
	12	0.173333	4.56940E-001	9.12241E-005	0.00000E+000	4.16840E-005	5.39641E-002	4.56996E-001	3.57310E+000	9	...........
	13	0.186667	4.67271E-001	9.08178E-005	0.00000E+000	4.24365E-005	5.39641E-002	4.67327E-001	3.57310E+000	9	...........
	14	0.2	4.77252E-001	9.08553E-005	0.00000E+000	4.33609E-005	5.39641E-002	4.77302E-001	3.57310E+000	9	...........
	15	0.213333	4.86903E-001	9.10626E-005	0.00000E+000	4.43386E-005	5.39641E-002	4.86954E-001	3.57310E+000	9	...........
	16	0.226667	4.96239E-001	9.09595E-005	0.00000E+000	4.51377E-005	5.39641E-002	4.96296E-001	3.57310E+000	9	...........
	17	0.24	5.05277E-001	9.11158E-005	0.00000E+000	4.60387E-005	5.39641E-002	5.05341E-001	3.57310E+000	9	...........
	18	0.253333	5.14042E-001	9.11835E-005	0.00000E+000	4.68721E-005	5.39641E-002	5.14103E-001	3.57310E+000	9	...........
	19	0.266667	5.22545E-001	9.11074E-005	0.00000E+000	4.76078E-005	5.39641E-002	5.22606E-001	3.57310E+000	9	...........
	20	0.28	5.30790E-001	9.10418E-005	0.00000E+000	4.83240E-005	5.39641E-002	5.30855E-001	3.57310E+000	9	...........
	21	0.293333	5.38764E-001	9.11241E-005	0.00000E+000	4.90944E-005	5.39641E-002	5.38862E-001	3.57310E+000	9	...........
	22	0.306667	5.46571E-001	9.11512E-005	0.00000E+000	4.98206E-005	5.39641E-002	5.46671E-001	3.57310E+000	9	...........
	23	0.32	5.54194E-001	9.10710E-005	0.00000E+000	5.04710E-005	5.39641E-002	5.54281E-001	3.57310E+000	9	...........
	24	0.333333	5.61588E-001	9.10824E-005	0.00000E+000	5.11508E-005	5.39641E-002	5.61710E-001	3.57310E+000	9	...........
	25	0.346667	5.68847E-001	9.08532E-005	0.00000E+000	5.16816E-005	5.39641E-002	5.68928E-001	3.57310E+000	9	...........
	26	0.36	5.75840E-001	9.14804E-005	0.00000E+000	5.26781E-005	5.39641E-002	5.75947E-001	3.57310E+000	9	...........
	27	0.373333	5.82718E-001	9.09970E-005	0.00000E+000	5.30256E-005	5.39641E-002	5.82805E-001	3.57310E+000	9	...........
	28	0.386667	5.89457E-001	9.11272E-005	0.00000E+000	5.37156E-005	5.39641E-002	5.89538E-001	3.57310E+000	9	...........
	29	0.4	5.95999E-001	9.11283E-005	0.00000E+000	5.43124E-005	5.39641E-002	5.96083E-001	3.57310E+000	9	...........
	30	0.413333	6.02379E-001	9.10178E-005	0.00000E+000	5.48272E-005	5.39641E-002	6.02481E-001	3.57310E+000	9	...........
	31	0.426667	6.08663E-001	9.09543E-005	0.00000E+000	5.53605E-005	5.39641E-002	6.08760E-001	3.57310E+000	9	...........
	32	0.44	6.14851E-001	9.12023E-005	0.00000E+000	5.60758E-005	5.39641E-002	6.14919E-001	3.57310E+000	9	...........
	33	0.453333	6.20872E-001	9.09314E-005	0.00000E+000	5.64568E-005	5.39641E-002	6.20944E-001	3.57310E+000	9	...........
	34	0.466667	6.26776E-001	9.11658E-005	0.00000E+000	5.71405E-005	5.39641E-002	6.26852E-001	3.57310E+000	9	...........
	35	0.48	6.32543E-001	9.12710E-005	0.00000E+000	5.77328E-005	5.39641E-002	6.32631E-001	3.57310E+000	9	...........
	36	0.493333	6.38176E-001	9.10481E-005	0.00000E+000	5.81047E-005	5.39641E-002	6.38308E-001	3.57310E+000	9	...........
	37	0.506667	6.43781E-001	9.08782E-005	0.00000E+000	5.85056E-005	5.39641E-002	6.43881E-001	3.57310E+000	9	...........
	38	0.52	6.49181E-001	9.09605E-005	0.00000E+000	5.90499E-005	5.39641E-002	6.49304E-001	3.57310E+000	9	...........
	39	0.533333	6.54515E-001	9.12179E-005	0.00000E+000	5.97034E-005	5.39641E-002	6.54656E-001	3.57310E+000	9	...........
	40	0.546667	6.59754E-001	9.10001E-005	0.00000E+000	6.00377E-005	5.39641E-002	6.59877E-001	3.57310E+000	9	...........
	41	0.56	6.64898E-001	9.12075E-005	0.00000E+000	6.06437E-005	5.39641E-002	6.65048E-001	3.57310E+000	9	...........
	42	0.573333	6.69972E-001	9.10658E-005	0.00000E+000	6.10115E-005	5.39641E-002	6.70078E-001	3.57310E+000	9	...........
	43	0.586667	6.74925E-001	9.10668E-005	0.00000E+000	6.14632E-005	5.39641E-002	6.75029E-001	3.57310E+000	9	...........
	44	0.6	6.79784E-001	9.11220E-005	0.00000E+000	6.19433E-005	5.39641E-002	6.79882E-001	3.57310E+000	9	...........
	45	0.613333	6.84539E-001	9.10491E-005	0.00000E+000	6.23267E-005	5.39641E-002	6.84627E-001	3.57310E+000	9	...........
	46	0.626667	6.89237E-001	9.11898E-005	0.00000E+000	6.28514E-005	5.39641E-002	6.89334E-001	3.57310E+000	9	...........
	47	0.64	6.93875E-001	9.12148E-005	0.00000E+000	6.32917E-005	5.39641E-002	6.93975E-001	3.57310E+000	9	...........
	48	0.653333	6.98435E-001	9.11543E-005	0.00000E+000	6.36653E-005	5.39641E-002	6.98530E-001	3.57310E+000	9	...........
	49	0.666667	7.02897E-001	9.11783E-005	0.00000E+000	6.40890E-005	5.39641E-002	7.02972E-001	3.57310E+000	9	...........
	50	0.68	7.07295E-001	9.10793E-005	0.00000E+000	6.44200E-005	5.39641E-002	7.07396E-001	3.57310E+000	9	...........
	51	0.693333	7.11616E-001	9.10470E-005	0.00000E+000	6.47905E-005	5.39641E-002	7.11721E-001	3.57310E+000	9	...........
	52	0.706667	7.15877E-001	9.12158E-005	0.00000E+000	6.52993E-005	5.39641E-002	7.15989E-001	3.57310E+000	9	...........
	53	0.72	7.20101E-001	9.09157E-005	0.00000E+000	6.54685E-005	5.39641E-002	7.20188E-001	3.57310E+000	9	...........
	54	0.733333	7.24239E-001	9.11866E-005	0.00000E+000	6.60409E-005	5.39641E-002	7.24285E-001	3.57310E+000	9	...........
	55	0.746667	7.28287E-001	9.08293E-005	0.00000E+000	6.61498E-005	5.39641E-002	7.28393E-001	3.57310E+000	9	...........
	56	0.76	7.32317E-001	9.11533E-005	0.00000E+000	6.67531E-005	5.39641E-002	7.32425E-001	3.57310E+000	9	...........
	57	0.773333	7.36280E-001	9.11741E-005	0.00000E+000	6.71297E-005	5.39641E-002	7.36383E-001	3.57310E+000	9	...........
	58	0.786667	7.40194E-001	9.11877E-005	0.00000E+000	6.74965E-005	5.39641E-002	7.40331E-001	3.57310E+000	9	...........
	59	0.8	7.44114E-001	9.11960E-005	0.00000E+000	6.78602E-005	5.39641E-002	7.44240E-001	3.57310E+000	9	...........
	60	0.813333	7.47908E-001	9.13283E-005	0.00000E+000	6.83052E-005	5.39641E-002	7.48019E-001	3.57310E+000	9	...........
	61	0.826667	7.51650E-001	9.11595E-005	0.00000E+000	6.85201E-005	5.39641E-002	7.51755E-001	3.57310E+000	9	...........
	62	0.84	7.55357E-001	9.08991E-005	0.00000E+000	6.86612E-005	5.39641E-002	7.55477E-001	3.57310E+000	9	...........
	63	0.853333	7.59004E-001	9.11366E-005	0.00000E+000	6.91731E-005	5.39641E-002	7.59127E-001	3.57310E+000	9	...........
	64	0.866667	7.62593E-001	9.11043E-005	0.00000E+000	6.94755E-005	5.39641E-002	7.62717E-001	3.57310E+000	9	...........
	65	0.88	7.66122E-001	9.11002E-005	0.00000E+000	6.97938E-005	5.39641E-002	7.66279E-001	3.57310E+000	9	...........
	66	0.893333	7.69661E-001	9.11158E-005	0.00000E+000	7.01283E-005	5.39641E-002	7.69816E-001	3.57310E+000	9	...........
	67	0.906667	7.73141E-001	9.10949E-005	0.00000E+000	7.04292E-005	5.39641E-002	7.73256E-001	3.57310E+000	9	...........
	68	0.92	7.76577E-001	9.10543E-005	0.00000E+000	7.07107E-005	5.39641E-002	7.76710E-001	3.57310E+000	9	...........
	69	0.933333	7.79972E-001	9.12981E-005	0.00000E+000	7.12100E-005	5.39641E-002	7.80096E-001	3.57310E+000	9	...........
	70	0.946667	7.83342E-001	9.09439E-005	0.00000E+000	7.12402E-005	5.39641E-002	7.83451E-001	3.57310E+000	9	...........
	71	0.96	7.86640E-001	9.09803E-005	0.00000E+000	7.15687E-005	5.39641E-002	7.86734E-001	3.57310E+000	9	...........
	72	0.97333	7.89895E-001	9.08376E-005	0.00000E+000	7.17521E-005	5.39641E-002	7.89989E-001	3.57310E+000	9	...........
	73	0.98667	7.93136E-001	9.12658E-005	0.00000E+000	7.23862E-005	5.39641E-002	7.93262E-001	3.57310E+000	9	...........
	74	1	7.96319E-001	9.10637E-005	0.00000E+000	7.25158E-005	5.39641E-002	7.96448E-001	3.57310E+000	9	...........
	75	1.01333	7.99491E-001	9.09741E-005	0.00000E+000	7.27329E-005	5.39641E-002	7.99587E-001	3.57302E+000	9	...........
	76	1.02667	8.02588E-001	9.11512E-005	0.00000E+000	7.31569E-005	5.39641E-002	8.02720E-001	3.57280E+000	9	...........
	77	1.04	8.05668E-001	9.10231E-005	0.00000E+000	7.33344E-005	5.39641E-002	8.05815E-001	3.57280E+000	9	...........
	78	1.05333	8.08703E-001	9.10731E-005	0.00000E+000	7.36510E-005	5.39641E-002	8.08846E-001	3.57280E+000	9	...........
	79	1.06667	8.11714E-001	9.10116E-005	0.00000E+000	7.38754E-005	5.39641E-002	8.11848E-001	3.57280E+000	9	...........
	80	1.08	8.14666E-001	9.10345E-005	0.00000E+000	7.41628E-005	5.39641E-002	8.14850E-001	3.57280E+000	9	...........
	81	1.09333	8.17616E-001	9.12981E-005	0.00000E+000	7.46468E-005	5.39641E-002	8.17771E-001	3.57280E+000	9	...........
	82	1.10667	8.20526E-001	9.06355E-005	0.00000E+000	7.43687E-005	5.39641E-002	8.20700E-001	3.57280E+000	9	...........
	83	1.12	8.23401E-001	9.09553E-005	0.00000E+000	7.48927E-005	5.39641E-002	8.23560E-001	3.57280E+000	9	...........
	84	1.13333	8.26247E-001	9.11543E-005	0.00000E+000	7.53160E-005	5.39641E-002	8.26411E-001	3.57280E+000	9	...........
	85	1.14667	8.29078E-001	9.13304E-005	0.00000E+000	7.57200E-005	5.39641E-002	8.29203E-001	3.57280E+000	9	...........
	86	1.16	8.31849E-001	9.10856E-005	0.00000E+000	7.57694E-005	5.39641E-002	8.32027E-001	3.57280E+000	9	...........
	87	1.17333	8.34622E-001	9.09949E-005	0.00000E+000	7.59464E-005	5.39641E-002	8.34782E-001	3.57280E+000	9	...........
	88	1.18667	8.37352E-001	9.10251E-005	0.00000E+000	7.62201E-005	5.39641E-002	8.37528E-001	3.57280E+000	9	...........
	89	1.2	8.40041E-001	9.13190E-005	0.00000E+000	7.67116E-005	5.39641E-002	8.40203E-001	3.57280E+000	9	...........
	90	1.21333	8.42692E-001	9.11887E-005	0.00000E+000	7.68440E-005	5.39641E-002	8.42882E-001	3.57280E+000	9	...........
	91	1.22667	8.45386E-001	9.12398E-005	0.00000E+000	7.71329E-005	5.39641E-002	8.45553E-001	3.57280E+000	9	...........
	92	1.24	8.48009E-001	9.09803E-005	0.00000E+000	7.71521E-005	5.39641E-002	8.48204E-001	3.57280E+000	9	...........
	93	1.25333	8.50637E-001	9.11408E-005	0.00000E+000	7.75277E-005	5.39641E-002	8.50801E-001	3.57280E+000	9	...........
	94	1.26667	8.53172E-001	9.10949E-005	0.00000E+000	7.77196E-005	5.39641E-002	8.53336E-001	3.57280E+000	9	...........
	95	1.28	8.55701E-001	9.12293E-005	0.00000E+000	7.80651E-005	5.39641E-002	8.55901E-001	3.57280E+000	9	...........
	96	1.29333	8.58242E-001	9.11397E-005	0.00000E+000	7.82200E-005	5.39641E-002	8.58426E-001	3.57280E+000	9	...........
	97	1.30667	8.60740E-001	9.11366E-005	0.00000E+000	7.84449E-005	5.39641E-002	8.60922E-001	3.57280E+000	9	...........
	98	1.32	8.63182E-001	9.13221E-005	0.00000E+000	7.88275E-005	5.39641E-002	8.63361E-001	3.57280E+000	9	...........
	99	1.33333	8.65616E-001	9.11314E-005	0.00000E+000	7.88848E-005	5.39641E-002	8.65808E-001	3.57280E+000	9	...........
	100	1.34667	8.68050E-001	9.13356E-005	0.00000E+000	7.92839E-005	5.39641E-002	8.68226E-001	3.57280E+000	9	...........
	101	1.36	8.70461E-001	9.10918E-005	0.00000E+000	7.92918E-005	5.39641E-002	8.70648E-001	3.57280E+000	9	...........
	102	1.37333	8.72838E-001	9.10981E-005	0.00000E+000	7.95138E-005	5.39641E-002	8.73023E-001	3.57280E+000	9	...........
	103	1.38667	8.75182E-001	9.10449E-005	0.00000E+000	7.96809E-005	5.39641E-002	8.75353E-001	3.57280E+000	9	...........
	104	1.4	8.77514E-001	9.10929E-005	0.00000E+000	7.99353E-005	5.39641E-002	8.77691E-001	3.57280E+000	9	...........
	105	1.41333	8.79795E-001	9.10106E-005	0.00000E+000	8.00707E-005	5.39641E-002	8.79962E-001	3.57280E+000	9	...........
	106	1.42667	8.82062E-001	9.11179E-005	0.00000E+000	8.03716E-005	5.39641E-002	8.82246E-001	3.57280E+000	9	...........
	107	1.44	8.84322E-001	9.11689E-005	0.00000E+000	8.06227E-005	5.39641E-002	8.84468E-001	3.57280E+000	9	...........
	108	1.45333	8.86550E-001	9.09147E-005	0.00000E+000	8.06005E-005	5.39641E-002	8.86687E-001	3.57280E+000	9	...........
	109	1.46667	8.88740E-001	9.12544E-005	0.00000E+000	8.11014E-005	5.39641E-002	8.88884E-001	3.57280E+000	9	...........
	110	1.48	8.90918E-001	9.12460E-005	0.00000E+000	8.12927E-005	5.39641E-002	8.91054E-001	3.57280E+000	9	...........
	111	1.49333	8.93063E-001	9.10877E-005	0.00000E+000	8.13470E-005	5.39641E-002	8.93212E-001	3.57280E+000	9	...........
	112	1.50667	8.95176E-001	9.12992E-005	0.00000E+000	8.17288E-005	5.39641E-002	8.95353E-001	3.57280E+000	9	...........
	113	1.52	8.97317E-001	9.09335E-005	0.00000E+000	8.15961E-005	5.39641E-002	8.97477E-001	3.57280E+000	9	...........
	114	1.53333	8.99411E-001	9.11658E-005	0.00000E+000	8.19955E-005	5.39641E-002	8.99565E-001	3.57280E+000	9	...........
	115	1.54667	9.01485E-001	9.13763E-005	0.00000E+000	8.23743E-005	5.39641E-002	9.01672E-001	3.57280E+000	9	...........
	116	1.56	9.03558E-001	9.11418E-005	0.00000E+000	8.23519E-005	5.39641E-002	9.03758E-001	3.57280E+000	9	...........
	117	1.57333	9.05581E-001	9.15398E-005	0.00000E+000	8.28967E-005	5.39641E-002	9.05785E-001	3.57280E+000	9	...........
	118	1.58667	9.07617E-001	9.11116E-005	0.00000E+000	8.26944E-005	5.39641E-002	9.07793E-001	3.57280E+000	9	...........
	119	1.6	9.09620E-001	9.08845E-005	0.00000E+000	8.26704E-005	5.39641E-002	9.09789E-001	3.57280E+000	9	...........
	120	1.61333	9.11610E-001	9.10929E-005	0.00000E+000	8.30411E-005	5.39641E-002	9.11772E-001	3.57280E+000	9	...........
	121	1.62667	9.13568E-001	9.13783E-005	0.00000E+000	8.34803E-005	5.39641E-002	9.13753E-001	3.57280E+000	9	...........
	122	1.64	9.15525E-001	9.10106E-005	0.00000E+000	8.33224E-005	5.39641E-002	9.15710E-001	3.57280E+000	9	...........
	123	1.65333	9.17442E-001	9.10918E-005	0.00000E+000	8.35714E-005	5.39641E-002	9.17598E-001	3.57280E+000	9	...........
	124	1.66667	9.19325E-001	9.10783E-005	0.00000E+000	8.37305E-005	5.39641E-002	9.19493E-001	3.57280E+000	9	...........
	125	1.68	9.21249E-001	9.12262E-005	0.00000E+000	8.40421E-005	5.39641E-002	9.21392E-001	3.57280E+000	9	...........
	126	1.69333	9.23104E-001	9.12085E-005	0.00000E+000	8.41949E-005	5.39641E-002	9.23254E-001	3.57280E+000	9	...........
	127	1.70667	9.24972E-001	9.10616E-005	0.00000E+000	8.42294E-005	5.39641E-002	9.25097E-001	3.57280E+000	9	...........
	128	1.72	9.26804E-001	9.11512E-005	0.00000E+000	8.44793E-005	5.39641E-002	9.26937E-001	3.57280E+000	9	...........
	129	1.73333	9.28600E-001	9.09908E-005	0.00000E+000	8.44940E-005	5.39641E-002	9.28738E-001	3.57280E+000	9	...........
	130	1.74667	9.30379E-001	9.10647E-005	0.00000E+000	8.47247E-005	5.39641E-002	9.30510E-001	3.57280E+000	9	...........
	131	1.76	9.32140E-001	9.11668E-005	0.00000E+000	8.49802E-005	5.39641E-002	9.32285E-001	3.57280E+000	9	...........
	132	1.77333	9.33930E-001	9.11689E-005	0.00000E+000	8.51454E-005	5.39641E-002	9.34052E-001	3.57280E+000	9	...........
	133	1.78667	9.35665E-001	9.14179E-005	0.00000E+000	8.55365E-005	5.39641E-002	9.35827E-001	3.57280E+000	9	...........
	134	1.8	9.37398E-001	9.10033E-005	0.00000E+000	8.53063E-005	5.39641E-002	9.37553E-001	3.57280E+000	9	...........
	135	1.81333	9.39091E-001	9.11220E-005	0.00000E+000	8.55719E-005	5.39641E-002	9.39285E-001	3.57280E+000	9	...........
	136	1.82667	9.40797E-001	9.10637E-005	0.00000E+000	8.56724E-005	5.39641E-002	9.40950E-001	3.57280E+000	9	...........
	137	1.84	9.42455E-001	9.10543E-005	0.00000E+000	8.58146E-005	5.39641E-002	9.42608E-001	3.57280E+000	9	...........
	138	1.85333	9.44067E-001	9.09335E-005	0.00000E+000	8.58472E-005	5.39641E-002	9.44266E-001	3.57280E+000	9	...........
	139	1.86667	9.45703E-001	9.11950E-005	0.00000E+000	8.62434E-005	5.39641E-002	9.45878E-001	3.57280E+000	9	...........
	140	1.88	9.47363E-001	9.12075E-005	0.00000E+000	8.64066E-005	5.39641E-002	9.47520E-001	3.57280E+000	9	...........
	141	1.89333	9.48955E-001	9.08564E-005	0.00000E+000	8.62186E-005	5.39641E-002	9.49124E-001	3.57280E+000	9	...........
	142	1.90667	9.50522E-001	9.10345E-005	0.00000E+000	8.65303E-005	5.39641E-002	9.50706E-001	3.57280E+000	9	...........
	143	1.92	9.52120E-001	9.10178E-005	0.00000E+000	8.66599E-005	5.39641E-002	9.52269E-001	3.57280E+000	9	...........
	144	1.93333	9.53685E-001	9.10637E-005	0.00000E+000	8.68461E-005	5.39641E-002	9.53841E-001	3.57280E+000	9	...........
	145	1.94667	9.55236E-001	9.11481E-005	0.00000E+000	8.70679E-005	5.39641E-002	9.55401E-001	3.57280E+000	9	...........
	146	1.96	9.56764E-001	9.11241E-005	0.00000E+000	8.71843E-005	5.39641E-002	9.56938E-001	3.57280E+000	9	...........
	147	1.97333	9.58304E-001	9.14617E-005	0.00000E+000	8.76481E-005	5.39641E-002	9.58484E-001	3.57280E+000	9	...........
	148	1.98667	9.59782E-001	9.10772E-005	0.00000E+000	8.74143E-005	5.39641E-002	9.59979E-001	3.57280E+000	9	...........
	149	2	9.61269E-001	9.10762E-005	0.00000E+000	8.75487E-005	5.39641E-002	9.61451E-001	3.57280E+000	9	...........
	150	2.01333	9.62748E-001	9.10178E-005	0.00000E+000	8.76273E-005	5.39641E-002	9.62916E-001	3.57265E+000	9	...........
	151	2.02667	9.64198E-001	9.10001E-005	0.00000E+000	8.77421E-005	5.39641E-002	9.64390E-001	3.57220E+000	9	...........
	152	2.04	9.65638E-001	9.09053E-005	0.00000E+000	8.77817E-005	5.39641E-002	9.65823E-001	3.57220E+000	9	...........
	153	2.05333	9.67068E-001	9.10012E-005	0.00000E+000	8.80043E-005	5.39641E-002	9.67228E-001	3.57220E+000	9	...........
	154	2.06667	9.68503E-001	9.12033E-005	0.00000E+000	8.83307E-005	5.39641E-002	9.68665E-001	3.57220E+000	9	...........
	155	2.08	9.69936E-001	9.12783E-005	0.00000E+000	8.85341E-005	5.39641E-002	9.70104E-001	3.57220E+000	9	...........
	156	2.09333	9.71330E-001	9.07751E-005	0.00000E+000	8.81726E-005	5.39641E-002	9.71528E-001	3.57220E+000	9	...........
	157	2.10667	9.72752E-001	9.11512E-005	0.00000E+000	8.86675E-005	5.39641E-002	9.72914E-001	3.57220E+000	9	...........
	158	2.12	9.74162E-001	9.13877E-005	0.00000E+000	8.90264E-005	5.39641E-002	9.74289E-001	3.57220E+000	9	...........
	159	2.13333	9.75527E-001	9.09845E-005	0.00000E+000	8.87578E-005	5.39641E-002	9.75663E-001	3.57220E+000	9	...........
	160	2.14667	9.76864E-001	9.10043E-005	0.00000E+000	8.88988E-005	5.39641E-002	9.76999E-001	3.57220E+000	9	...........
	161	2.16	9.78158E-001	9.13408E-005	0.00000E+000	8.93458E-005	5.39641E-002	9.78321E-001	3.57220E+000	9	...........
	162	2.17333	9.79465E-001	9.11283E-005	0.00000E+000	8.92569E-005	5.39641E-002	9.79620E-001	3.57220E+000	9	...........
	163	2.18667	9.80760E-001	9.09928E-005	0.00000E+000	8.92422E-005	5.39641E-002	9.80919E-001	3.57220E+000	9	...........
	164	2.2	9.82044E-001	9.11991E-005	0.00000E+000	8.95616E-005	5.39641E-002	9.82217E-001	3.57220E+000	9	...........
	165	2.21333	9.83336E-001	9.10251E-005	0.00000E+000	8.95083E-005	5.39641E-002	9.83505E-001	3.57220E+000	9	...........
	166	2.22667	9.84605E-001	9.10720E-005	0.00000E+000	8.96700E-005	5.39641E-002	9.84785E-001	3.57220E+000	9	...........
	167	2.24	9.85885E-001	9.11387E-005	0.00000E+000	8.98522E-005	5.39641E-002	9.86055E-001	3.57220E+000	9	...........
	168	2.25333	9.87113E-001	9.12544E-005	0.00000E+000	9.00783E-005	5.39641E-002	9.87294E-001	3.57220E+000	9	...........
	169	2.26667	9.88358E-001	9.10272E-005	0.00000E+000	8.99675E-005	5.39641E-002	9.88545E-001	3.57220E+000	9	...........
	170	2.28	9.89605E-001	9.11022E-005	0.00000E+000	9.01552E-005	5.39641E-002	9.89782E-001	3.57220E+000	9	...........
	171	2.29333	9.90805E-001	9.12710E-005	0.00000E+000	9.04318E-005	5.39641E-002	9.90976E-001	3.57220E+000	9	...........
	172	2.30667	9.91994E-001	9.12314E-005	0.00000E+000	9.05011E-005	5.39641E-002	9.92177E-001	3.57220E+000	9	...........
	173	2.32	9.93191E-001	9.10397E-005	0.00000E+000	9.04198E-005	5.39641E-002	9.93366E-001	3.57220E+000	9	...........
	174	2.33333	9.94386E-001	9.09595E-005	0.00000E+000	9.04489E-005	5.39641E-002	9.94565E-001	3.57220E+000	9	...........
	175	2.34667	9.95578E-001	9.09032E-005	0.00000E+000	9.05013E-005	5.39641E-002	9.95742E-001	3.57220E+000	9	...........
	176	2.36	9.96731E-001	9.08157E-005	0.00000E+000	9.05188E-005	5.39641E-002	9.96896E-001	3.57220E+000	9	...........
	177	2.37333	9.97891E-001	9.10543E-005	0.00000E+000	9.08623E-005	5.39641E-002	9.98071E-001	3.57220E+000	9	...........
	178	2.38667	9.99027E-001	9.10887E-005	0.00000E+000	9.10001E-005	5.39641E-002	9.99226E-001	3.57220E+000	9	...........
	179	2.39333	9.99883E-001	9.12460E-005	0.00000E+000	9.12354E-005	5.39641E-002	1.00009E+000	3.57220E+000	9	...........
STARTTIMEOFFSET	QUANT	944.343	Start Time Offset (s)
