EXPLAIN
TAG	PWR800_CHARGE
TITLE	LABEL	PWR Cyclic Charge Discharge (Cell) - Charge Step	Test &Identifier
DATE	LABEL	10-7-2017	Date
TIME	LABEL	16:12:13	Time
NOTES	NOTES	3	&Notes...
	supercap test cell
	0.9mg
	6M KOH
PSTAT	PSTAT	IFC5000-01520	Potentiostat
CAPACITY	QUANT	1.00000E-003	Capacity (A-hr)
CELLTYPE	SELECTOR	1	&Cell Type
WORKINGCONNECTION	SELECTOR	0	&Working Lead
MAXCHARGETIME	VARIABLEANDUNITS	1.00000E+002	s	1.00000E+002	second(s)	Max &Charge Time
CHARGECURRENT	QUANT	9.00000E-005	&Charge Current (A) 
VOLTAGEFINISH	TWOPARAM	F	1.00000E-003	3.60000E+003	&Voltage Finish	 I (A) < 	Max Time(s)
SAMPLETIME	QUANT	1.00000E-002	Sa&mple Period (s)
CHARGESTOPAT1	MULTIPARAM	4	1.00000E+000	Charge Stop At &1	Voltage > Limit	V
CHARGESTOPAT2	MULTIPARAM	0	0.00000E+000	Charge Stop At &2	None	N/A
AESBHCSELECTOR	TOGGLE	F	Save Both Half Cells
IRCOMP	TOGGLE	F	IR &Measure
EOC	QUANT	0	Open Circuit (V)
SEQUENCER	TOGGLE	TRUE	Run as Sequence
PSTATMODEL	IQUANT	53	Pstat Model
PSTATSECTION	LABEL	IFC5000-01520	Pstat Section
PSTATSERIALNO	LABEL	01520	Pstat Serial Number
CTRLMODE	IQUANT	0	Control Mode
ELECTROMETER	IQUANT	1	RE=0 or CS=1
IESTAB	IQUANT	0	I/E Stability
CASPEED	IQUANT	4	Control Amp Speed
CONVENTION	IQUANT	1	Current Convention
ICHRANGE	IQUANT	2	Ich Range
ICHRANGEMODE	TOGGLE	T	Ich Auto Range
ICHOFFSETENABLE	TOGGLE	F	Ich Offset Enable
ICHOFFSET	QUANT	0	Ich Offset (V)
ICHFILTER	IQUANT	1	Ich Filter
VCHRANGE	IQUANT	2	Vch Range
VCHRANGEMODE	TOGGLE	T	Vch Auto Range
VCHOFFSETENABLE	TOGGLE	F	Vch Offset Enable
VCHOFFSET	QUANT	0	Vch Offset (V)
VCHFILTER	IQUANT	1	Vch Filter
IERANGELOWERLIMIT	IQUANT	9	I/E Range Lower Limit
IERANGEMODE	TOGGLE	F	I/E AutoRange
IERANGE	IQUANT	9	I/E Range
ACHSELECT	IQUANT	1	Ach Select
ACHRANGE	IQUANT	2	Ach Range
ACHOFFSETENABLE	TOGGLE	F	Ach Offset Enable
ACHOFFSET	QUANT	0	Ach Offset (V)
ACHFILTER	IQUANT	1	Ach Filter
CABLEID	IQUANT	14	Cable ID
DCCALDATE	LABEL	5-7-2017	DC Calibration Date
ACCALDATE	LABEL	12/3/2015	AC Calibration Date
FRAMEWORKVERSION	QUANT	7.01	Framework Version
INSTRUMENTVERSION	LABEL	4.00	Instrument Version
CURVE	TABLE	162
	Pt	T	Vf	Im	Vu	Pwr	Sig	Ach	Temp	IERange	Over
	#	s	V	A	V	W	V	V	deg C	#	bits
	0	0.013333	2.67594E-001	9.07636E-005	0.00000E+000	2.42878E-005	5.39641E-002	2.67644E-001	3.57360E+000	9	...........
	1	0.026667	2.87262E-001	9.09981E-005	0.00000E+000	2.61403E-005	5.39641E-002	2.87301E-001	3.57360E+000	9	...........
	2	0.04	3.05732E-001	9.10085E-005	0.00000E+000	2.78242E-005	5.39641E-002	3.05774E-001	3.57360E+000	9	...........
	3	0.053333	3.23171E-001	9.11814E-005	0.00000E+000	2.94672E-005	5.39641E-002	3.23213E-001	3.57360E+000	9	...........
	4	0.066667	3.39669E-001	9.08730E-005	0.00000E+000	3.08668E-005	5.39641E-002	3.39707E-001	3.57360E+000	9	...........
	5	0.08	3.55328E-001	9.11022E-005	0.00000E+000	3.23712E-005	5.39641E-002	3.55373E-001	3.57360E+000	9	...........
	6	0.093333	3.70214E-001	9.10178E-005	0.00000E+000	3.36961E-005	5.39641E-002	3.70266E-001	3.57360E+000	9	...........
	7	0.106667	3.84396E-001	9.10720E-005	0.00000E+000	3.50077E-005	5.39641E-002	3.84443E-001	3.57360E+000	9	...........
	8	0.12	3.97937E-001	9.08866E-005	0.00000E+000	3.61671E-005	5.39641E-002	3.97985E-001	3.57360E+000	9	...........
	9	0.133333	4.10891E-001	9.10022E-005	0.00000E+000	3.73920E-005	5.39641E-002	4.10942E-001	3.57360E+000	9	...........
	10	0.146667	4.23290E-001	9.10012E-005	0.00000E+000	3.85199E-005	5.39641E-002	4.23353E-001	3.57360E+000	9	...........
	11	0.16	4.35192E-001	9.09835E-005	0.00000E+000	3.95952E-005	5.39641E-002	4.35259E-001	3.57360E+000	9	...........
	12	0.173333	4.46624E-001	9.09355E-005	0.00000E+000	4.06140E-005	5.39641E-002	4.46686E-001	3.57360E+000	9	...........
	13	0.186667	4.57622E-001	9.09626E-005	0.00000E+000	4.16265E-005	5.39641E-002	4.57686E-001	3.57360E+000	9	...........
	14	0.2	4.68228E-001	9.09428E-005	0.00000E+000	4.25820E-005	5.39641E-002	4.68290E-001	3.57360E+000	9	...........
	15	0.213333	4.78445E-001	9.07438E-005	0.00000E+000	4.34159E-005	5.39641E-002	4.78509E-001	3.57360E+000	9	...........
	16	0.226667	4.88323E-001	9.10522E-005	0.00000E+000	4.44629E-005	5.39641E-002	4.88391E-001	3.57360E+000	9	...........
	17	0.24	4.97870E-001	9.09220E-005	0.00000E+000	4.52674E-005	5.39641E-002	4.97942E-001	3.57360E+000	9	...........
	18	0.253333	5.07105E-001	9.10428E-005	0.00000E+000	4.61683E-005	5.39641E-002	5.07173E-001	3.57360E+000	9	...........
	19	0.266667	5.16055E-001	9.09762E-005	0.00000E+000	4.69487E-005	5.39641E-002	5.16123E-001	3.57360E+000	9	...........
	20	0.28	5.24723E-001	9.07959E-005	0.00000E+000	4.76427E-005	5.39641E-002	5.24803E-001	3.57360E+000	9	...........
	21	0.293333	5.33094E-001	9.08126E-005	0.00000E+000	4.84117E-005	5.39641E-002	5.33160E-001	3.57360E+000	9	...........
	22	0.306667	5.41249E-001	9.08991E-005	0.00000E+000	4.91990E-005	5.39641E-002	5.41349E-001	3.57360E+000	9	...........
	23	0.32	5.49198E-001	9.09137E-005	0.00000E+000	4.99296E-005	5.39641E-002	5.49299E-001	3.57360E+000	9	...........
	24	0.333333	5.56939E-001	9.11127E-005	0.00000E+000	5.07441E-005	5.39641E-002	5.57050E-001	3.57360E+000	9	...........
	25	0.346667	5.64484E-001	9.10501E-005	0.00000E+000	5.13963E-005	5.39641E-002	5.64611E-001	3.57360E+000	9	...........
	26	0.36	5.71840E-001	9.07470E-005	0.00000E+000	5.18928E-005	5.39641E-002	5.71941E-001	3.57360E+000	9	...........
	27	0.373333	5.78990E-001	9.09053E-005	0.00000E+000	5.26333E-005	5.39641E-002	5.79095E-001	3.57360E+000	9	...........
	28	0.386667	5.85982E-001	9.10929E-005	0.00000E+000	5.33788E-005	5.39641E-002	5.86083E-001	3.57360E+000	9	...........
	29	0.4	5.92812E-001	9.07709E-005	0.00000E+000	5.38101E-005	5.39641E-002	5.92917E-001	3.57360E+000	9	...........
	30	0.413333	5.99465E-001	9.10543E-005	0.00000E+000	5.45839E-005	5.39641E-002	5.99603E-001	3.57360E+000	9	...........
	31	0.426667	6.05949E-001	9.10210E-005	0.00000E+000	5.51541E-005	5.39641E-002	6.06115E-001	3.57360E+000	9	...........
	32	0.44	6.12329E-001	9.10949E-005	0.00000E+000	5.57801E-005	5.39641E-002	6.12495E-001	3.57360E+000	9	...........
	33	0.453333	6.18629E-001	9.09824E-005	0.00000E+000	5.62843E-005	5.39641E-002	6.18729E-001	3.57360E+000	9	...........
	34	0.466667	6.24755E-001	9.09855E-005	0.00000E+000	5.68437E-005	5.39641E-002	6.24836E-001	3.57360E+000	9	...........
	35	0.48	6.30747E-001	9.10376E-005	0.00000E+000	5.74217E-005	5.39641E-002	6.30844E-001	3.57356E+000	9	...........
	36	0.493333	6.36623E-001	9.10106E-005	0.00000E+000	5.79394E-005	5.39641E-002	6.36744E-001	3.57330E+000	9	...........
	37	0.506667	6.42421E-001	9.08439E-005	0.00000E+000	5.83600E-005	5.39641E-002	6.42537E-001	3.57330E+000	9	...........
	38	0.52	6.48066E-001	9.08980E-005	0.00000E+000	5.89079E-005	5.39641E-002	6.48184E-001	3.57330E+000	9	...........
	39	0.533333	6.53618E-001	9.10835E-005	0.00000E+000	5.95338E-005	5.39641E-002	6.53724E-001	3.57330E+000	9	...........
	40	0.546667	6.59071E-001	9.11804E-005	0.00000E+000	6.00944E-005	5.39641E-002	6.59153E-001	3.57330E+000	9	...........
	41	0.56	6.64428E-001	9.12366E-005	0.00000E+000	6.06202E-005	5.39641E-002	6.64534E-001	3.57330E+000	9	...........
	42	0.573333	6.69706E-001	9.11085E-005	0.00000E+000	6.10159E-005	5.39641E-002	6.69820E-001	3.57330E+000	9	...........
	43	0.586667	6.74886E-001	9.09564E-005	0.00000E+000	6.13852E-005	5.39641E-002	6.74989E-001	3.57330E+000	9	...........
	44	0.6	6.79984E-001	9.11908E-005	0.00000E+000	6.20083E-005	5.39641E-002	6.80122E-001	3.57330E+000	9	...........
	45	0.613333	6.84991E-001	9.10679E-005	0.00000E+000	6.23806E-005	5.39641E-002	6.85114E-001	3.57330E+000	9	...........
	46	0.626667	6.89909E-001	9.09001E-005	0.00000E+000	6.27128E-005	5.39641E-002	6.90047E-001	3.57330E+000	9	...........
	47	0.64	6.94779E-001	9.10553E-005	0.00000E+000	6.32634E-005	5.39641E-002	6.94899E-001	3.57330E+000	9	...........
	48	0.653333	6.99562E-001	9.10428E-005	0.00000E+000	6.36902E-005	5.39641E-002	6.99685E-001	3.57330E+000	9	...........
	49	0.666667	7.04247E-001	9.09887E-005	0.00000E+000	6.40785E-005	5.39641E-002	7.04409E-001	3.57330E+000	9	...........
	50	0.68	7.08843E-001	9.10418E-005	0.00000E+000	6.45344E-005	5.39641E-002	7.09011E-001	3.57330E+000	9	...........
	51	0.693333	7.13409E-001	9.12335E-005	0.00000E+000	6.50868E-005	5.39641E-002	7.13537E-001	3.57330E+000	9	...........
	52	0.706667	7.17966E-001	9.10408E-005	0.00000E+000	6.53641E-005	5.39641E-002	7.18094E-001	3.57330E+000	9	...........
	53	0.72	7.22401E-001	9.11877E-005	0.00000E+000	6.58741E-005	5.39641E-002	7.22516E-001	3.57330E+000	9	...........
	54	0.733333	7.26764E-001	9.09595E-005	0.00000E+000	6.61061E-005	5.39641E-002	7.26903E-001	3.57330E+000	9	...........
	55	0.746667	7.31093E-001	9.11106E-005	0.00000E+000	6.66103E-005	5.39641E-002	7.31228E-001	3.57330E+000	9	...........
	56	0.76	7.35329E-001	9.09678E-005	0.00000E+000	6.68913E-005	5.39641E-002	7.35473E-001	3.57330E+000	9	...........
	57	0.773333	7.39520E-001	9.11189E-005	0.00000E+000	6.73842E-005	5.39641E-002	7.39669E-001	3.57330E+000	9	...........
	58	0.786667	7.43709E-001	9.08980E-005	0.00000E+000	6.76017E-005	5.39641E-002	7.43839E-001	3.57330E+000	9	...........
	59	0.8	7.47788E-001	9.11689E-005	0.00000E+000	6.81750E-005	5.39641E-002	7.47887E-001	3.57330E+000	9	...........
	60	0.813333	7.51842E-001	9.11325E-005	0.00000E+000	6.85172E-005	5.39641E-002	7.51939E-001	3.57330E+000	9	...........
	61	0.826667	7.55871E-001	9.10710E-005	0.00000E+000	6.88379E-005	5.39641E-002	7.55947E-001	3.57330E+000	9	...........
	62	0.84	7.59812E-001	9.08668E-005	0.00000E+000	6.90417E-005	5.39641E-002	7.59904E-001	3.57330E+000	9	...........
	63	0.853333	7.63717E-001	9.11523E-005	0.00000E+000	6.96146E-005	5.39641E-002	7.63810E-001	3.57330E+000	9	...........
	64	0.866667	7.67579E-001	9.09564E-005	0.00000E+000	6.98162E-005	5.39641E-002	7.67710E-001	3.57330E+000	9	...........
	65	0.88	7.71400E-001	9.10710E-005	0.00000E+000	7.02522E-005	5.39641E-002	7.71542E-001	3.57330E+000	9	...........
	66	0.893333	7.75179E-001	9.11773E-005	0.00000E+000	7.06787E-005	5.39641E-002	7.75314E-001	3.57330E+000	9	...........
	67	0.906667	7.78904E-001	9.11095E-005	0.00000E+000	7.09656E-005	5.39641E-002	7.79054E-001	3.57330E+000	9	...........
	68	0.92	7.82604E-001	9.10376E-005	0.00000E+000	7.12465E-005	5.39641E-002	7.82750E-001	3.57330E+000	9	...........
	69	0.933333	7.86242E-001	9.06907E-005	0.00000E+000	7.13048E-005	5.39641E-002	7.86359E-001	3.57330E+000	9	...........
	70	0.946667	7.89821E-001	9.10158E-005	0.00000E+000	7.18861E-005	5.39641E-002	7.89980E-001	3.57330E+000	9	...........
	71	0.96	7.93403E-001	9.12544E-005	0.00000E+000	7.24015E-005	5.39641E-002	7.93559E-001	3.57330E+000	9	...........
	72	0.97333	7.96921E-001	9.10137E-005	0.00000E+000	7.25307E-005	5.39641E-002	7.97056E-001	3.57330E+000	9	...........
	73	0.98667	8.00397E-001	9.10293E-005	0.00000E+000	7.28596E-005	5.39641E-002	8.00543E-001	3.57330E+000	9	...........
	74	1	8.03822E-001	9.08782E-005	0.00000E+000	7.30499E-005	5.39641E-002	8.03990E-001	3.57330E+000	9	...........
	75	1.01333	8.07220E-001	9.11408E-005	0.00000E+000	7.35706E-005	5.39641E-002	8.07390E-001	3.57330E+000	9	...........
	76	1.02667	8.10582E-001	9.07834E-005	0.00000E+000	7.35874E-005	5.39641E-002	8.10747E-001	3.57330E+000	9	...........
	77	1.04	8.13931E-001	9.08459E-005	0.00000E+000	7.39423E-005	5.39641E-002	8.14101E-001	3.57330E+000	9	...........
	78	1.05333	8.17210E-001	9.11856E-005	0.00000E+000	7.45177E-005	5.39641E-002	8.17401E-001	3.57330E+000	9	...........
	79	1.06667	8.20515E-001	9.10574E-005	0.00000E+000	7.47140E-005	5.39641E-002	8.20683E-001	3.57330E+000	9	...........
	80	1.08	8.23740E-001	9.09876E-005	0.00000E+000	7.49501E-005	5.39641E-002	8.23906E-001	3.57330E+000	9	...........
	81	1.09333	8.26958E-001	9.10595E-005	0.00000E+000	7.53024E-005	5.39641E-002	8.27112E-001	3.57330E+000	9	...........
	82	1.10667	8.30126E-001	9.08605E-005	0.00000E+000	7.54257E-005	5.39641E-002	8.30296E-001	3.57330E+000	9	...........
	83	1.12	8.33276E-001	9.09262E-005	0.00000E+000	7.57665E-005	5.39641E-002	8.33453E-001	3.57330E+000	9	...........
	84	1.13333	8.36359E-001	9.09960E-005	0.00000E+000	7.61053E-005	5.39641E-002	8.36541E-001	3.57330E+000	9	...........
	85	1.14667	8.39440E-001	9.11606E-005	0.00000E+000	7.65239E-005	5.39641E-002	8.39578E-001	3.57330E+000	9	...........
	86	1.16	8.42447E-001	9.07855E-005	0.00000E+000	7.64819E-005	5.39641E-002	8.42610E-001	3.57330E+000	9	...........
	87	1.17333	8.45499E-001	9.11564E-005	0.00000E+000	7.70726E-005	5.39641E-002	8.45648E-001	3.57330E+000	9	...........
	88	1.18667	8.48464E-001	9.10887E-005	0.00000E+000	7.72855E-005	5.39641E-002	8.48628E-001	3.57330E+000	9	...........
	89	1.2	8.51420E-001	9.12544E-005	0.00000E+000	7.76958E-005	5.39641E-002	8.51561E-001	3.57330E+000	9	...........
	90	1.21333	8.54328E-001	9.10324E-005	0.00000E+000	7.77716E-005	5.39641E-002	8.54467E-001	3.57330E+000	9	...........
	91	1.22667	8.57194E-001	9.10283E-005	0.00000E+000	7.80289E-005	5.39641E-002	8.57381E-001	3.57330E+000	9	...........
	92	1.24	8.60064E-001	9.08970E-005	0.00000E+000	7.81773E-005	5.39641E-002	8.60239E-001	3.57330E+000	9	...........
	93	1.25333	8.62899E-001	9.11689E-005	0.00000E+000	7.86696E-005	5.39641E-002	8.63067E-001	3.57330E+000	9	...........
	94	1.26667	8.65703E-001	9.08970E-005	0.00000E+000	7.86898E-005	5.39641E-002	8.65886E-001	3.57330E+000	9	...........
	95	1.28	8.68500E-001	9.09084E-005	0.00000E+000	7.89540E-005	5.39641E-002	8.68663E-001	3.57330E+000	9	...........
	96	1.29333	8.71286E-001	9.10001E-005	0.00000E+000	7.92871E-005	5.39641E-002	8.71448E-001	3.57330E+000	9	...........
	97	1.30667	8.74012E-001	9.09845E-005	0.00000E+000	7.95215E-005	5.39641E-002	8.74174E-001	3.57330E+000	9	...........
	98	1.32	8.76717E-001	9.10345E-005	0.00000E+000	7.98115E-005	5.39641E-002	8.76867E-001	3.57330E+000	9	...........
	99	1.33333	8.79394E-001	9.11595E-005	0.00000E+000	8.01651E-005	5.39641E-002	8.79542E-001	3.57330E+000	9	...........
	100	1.34667	8.82017E-001	9.11606E-005	0.00000E+000	8.04052E-005	5.39641E-002	8.82179E-001	3.57330E+000	9	...........
	101	1.36	8.84648E-001	9.10699E-005	0.00000E+000	8.05649E-005	5.39641E-002	8.84793E-001	3.57330E+000	9	...........
	102	1.37333	8.87211E-001	9.09908E-005	0.00000E+000	8.07280E-005	5.39641E-002	8.87387E-001	3.57330E+000	9	...........
	103	1.38667	8.89759E-001	9.12544E-005	0.00000E+000	8.11944E-005	5.39641E-002	8.89925E-001	3.57330E+000	9	...........
	104	1.4	8.92262E-001	9.11825E-005	0.00000E+000	8.13587E-005	5.39641E-002	8.92452E-001	3.57330E+000	9	...........
	105	1.41333	8.94782E-001	9.08928E-005	0.00000E+000	8.13293E-005	5.39641E-002	8.94985E-001	3.57330E+000	9	...........
	106	1.42667	8.97251E-001	9.12960E-005	0.00000E+000	8.19154E-005	5.39641E-002	8.97459E-001	3.57330E+000	9	...........
	107	1.44	8.99688E-001	9.10689E-005	0.00000E+000	8.19336E-005	5.39641E-002	8.99893E-001	3.57330E+000	9	...........
	108	1.45333	9.02107E-001	9.09387E-005	0.00000E+000	8.20364E-005	5.39641E-002	9.02318E-001	3.57330E+000	9	...........
	109	1.46667	9.04508E-001	9.09762E-005	0.00000E+000	8.22887E-005	5.39641E-002	9.04723E-001	3.57330E+000	9	...........
	110	1.48	9.06850E-001	9.08439E-005	0.00000E+000	8.23818E-005	5.39641E-002	9.07090E-001	3.57324E+000	9	...........
	111	1.49333	9.09219E-001	9.09157E-005	0.00000E+000	8.26623E-005	5.39641E-002	9.09427E-001	3.57280E+000	9	...........
	112	1.50667	9.11538E-001	9.10460E-005	0.00000E+000	8.29919E-005	5.39641E-002	9.11744E-001	3.57280E+000	9	...........
	113	1.52	9.13824E-001	9.11981E-005	0.00000E+000	8.33390E-005	5.39641E-002	9.14053E-001	3.57280E+000	9	...........
	114	1.53333	9.16093E-001	9.11033E-005	0.00000E+000	8.34590E-005	5.39641E-002	9.16333E-001	3.57280E+000	9	...........
	115	1.54667	9.18362E-001	9.09564E-005	0.00000E+000	8.35309E-005	5.39641E-002	9.18579E-001	3.57280E+000	9	...........
	116	1.56	9.20634E-001	9.10262E-005	0.00000E+000	8.38018E-005	5.39641E-002	9.20814E-001	3.57280E+000	9	...........
	117	1.57333	9.22886E-001	9.11429E-005	0.00000E+000	8.41145E-005	5.39641E-002	9.23022E-001	3.57280E+000	9	...........
	118	1.58667	9.25052E-001	9.09178E-005	0.00000E+000	8.41037E-005	5.39641E-002	9.25204E-001	3.57280E+000	9	...........
	119	1.6	9.27217E-001	9.11981E-005	0.00000E+000	8.45604E-005	5.39641E-002	9.27363E-001	3.57280E+000	9	...........
	120	1.61333	9.29382E-001	9.08980E-005	0.00000E+000	8.44790E-005	5.39641E-002	9.29501E-001	3.57280E+000	9	...........
	121	1.62667	9.31459E-001	9.10106E-005	0.00000E+000	8.47726E-005	5.39641E-002	9.31613E-001	3.57280E+000	9	...........
	122	1.64	9.33543E-001	9.10251E-005	0.00000E+000	8.49759E-005	5.39641E-002	9.33709E-001	3.57280E+000	9	...........
	123	1.65333	9.35590E-001	9.10856E-005	0.00000E+000	8.52187E-005	5.39641E-002	9.35790E-001	3.57280E+000	9	...........
	124	1.66667	9.37644E-001	9.09147E-005	0.00000E+000	8.52456E-005	5.39641E-002	9.37824E-001	3.57280E+000	9	...........
	125	1.68	9.39711E-001	9.10772E-005	0.00000E+000	8.55863E-005	5.39641E-002	9.39880E-001	3.57280E+000	9	...........
	126	1.69333	9.41697E-001	9.08168E-005	0.00000E+000	8.55219E-005	5.39641E-002	9.41828E-001	3.57280E+000	9	...........
	127	1.70667	9.43656E-001	9.10626E-005	0.00000E+000	8.59319E-005	5.39641E-002	9.43770E-001	3.57280E+000	9	...........
	128	1.72	9.45596E-001	9.09991E-005	0.00000E+000	8.60484E-005	5.39641E-002	9.45738E-001	3.57280E+000	9	...........
	129	1.73333	9.47553E-001	9.10449E-005	0.00000E+000	8.62699E-005	5.39641E-002	9.47678E-001	3.57280E+000	9	...........
	130	1.74667	9.49462E-001	9.08303E-005	0.00000E+000	8.62400E-005	5.39641E-002	9.49591E-001	3.57280E+000	9	...........
	131	1.76	9.51353E-001	9.09814E-005	0.00000E+000	8.65554E-005	5.39641E-002	9.51519E-001	3.57280E+000	9	...........
	132	1.77333	9.53255E-001	9.09762E-005	0.00000E+000	8.67235E-005	5.39641E-002	9.53399E-001	3.57280E+000	9	...........
	133	1.78667	9.55082E-001	9.10616E-005	0.00000E+000	8.69713E-005	5.39641E-002	9.55274E-001	3.57280E+000	9	...........
	134	1.8	9.56908E-001	9.10574E-005	0.00000E+000	8.71336E-005	5.39641E-002	9.57096E-001	3.57280E+000	9	...........
	135	1.81333	9.58747E-001	9.10158E-005	0.00000E+000	8.72611E-005	5.39641E-002	9.58939E-001	3.57280E+000	9	...........
	136	1.82667	9.60538E-001	9.07751E-005	0.00000E+000	8.71929E-005	5.39641E-002	9.60748E-001	3.57280E+000	9	...........
	137	1.84	9.62327E-001	9.10876E-005	0.00000E+000	8.76561E-005	5.39641E-002	9.62539E-001	3.57280E+000	9	...........
	138	1.85333	9.64054E-001	9.08574E-005	0.00000E+000	8.75914E-005	5.39641E-002	9.64285E-001	3.57280E+000	9	...........
	139	1.86667	9.65800E-001	9.09387E-005	0.00000E+000	8.78285E-005	5.39641E-002	9.66013E-001	3.57280E+000	9	...........
	140	1.88	9.67505E-001	9.10022E-005	0.00000E+000	8.80451E-005	5.39641E-002	9.67731E-001	3.57280E+000	9	...........
	141	1.89333	9.69207E-001	9.11189E-005	0.00000E+000	8.83131E-005	5.39641E-002	9.69418E-001	3.57280E+000	9	...........
	142	1.90667	9.70888E-001	9.11012E-005	0.00000E+000	8.84490E-005	5.39641E-002	9.71121E-001	3.57280E+000	9	...........
	143	1.92	9.72592E-001	9.09637E-005	0.00000E+000	8.84706E-005	5.39641E-002	9.72800E-001	3.57280E+000	9	...........
	144	1.93333	9.74249E-001	9.12637E-005	0.00000E+000	8.89136E-005	5.39641E-002	9.74415E-001	3.57280E+000	9	...........
	145	1.94667	9.75856E-001	9.12002E-005	0.00000E+000	8.89982E-005	5.39641E-002	9.76029E-001	3.57280E+000	9	...........
	146	1.96	9.77431E-001	9.10064E-005	0.00000E+000	8.89525E-005	5.39641E-002	9.77619E-001	3.57280E+000	9	...........
	147	1.97333	9.79033E-001	9.10022E-005	0.00000E+000	8.90942E-005	5.39641E-002	9.79205E-001	3.57280E+000	9	...........
	148	1.98667	9.80579E-001	9.12523E-005	0.00000E+000	8.94800E-005	5.39641E-002	9.80725E-001	3.57280E+000	9	...........
	149	2	9.82108E-001	9.10699E-005	0.00000E+000	8.94405E-005	5.39641E-002	9.82283E-001	3.57280E+000	9	...........
	150	2.01333	9.83636E-001	9.10616E-005	0.00000E+000	8.95715E-005	5.39641E-002	9.83824E-001	3.57280E+000	9	...........
	151	2.02667	9.85127E-001	9.11272E-005	0.00000E+000	8.97719E-005	5.39641E-002	9.85320E-001	3.57280E+000	9	...........
	152	2.04	9.86607E-001	9.09574E-005	0.00000E+000	8.97393E-005	5.39641E-002	9.86812E-001	3.57280E+000	9	...........
	153	2.05333	9.88089E-001	9.08616E-005	0.00000E+000	8.97793E-005	5.39641E-002	9.88292E-001	3.57280E+000	9	...........
	154	2.06667	9.89598E-001	9.09418E-005	0.00000E+000	8.99959E-005	5.39641E-002	9.89800E-001	3.57280E+000	9	...........
	155	2.08	9.91059E-001	9.09793E-005	0.00000E+000	9.01658E-005	5.39641E-002	9.91274E-001	3.57280E+000	9	...........
	156	2.09333	9.92491E-001	9.12867E-005	0.00000E+000	9.06012E-005	5.39641E-002	9.92701E-001	3.57280E+000	9	...........
	157	2.10667	9.93928E-001	9.08480E-005	0.00000E+000	9.02964E-005	5.39641E-002	9.94147E-001	3.57280E+000	9	...........
	158	2.12	9.95371E-001	9.07313E-005	0.00000E+000	9.03113E-005	5.39641E-002	9.95552E-001	3.57280E+000	9	...........
	159	2.13333	9.96775E-001	9.10001E-005	0.00000E+000	9.07066E-005	5.39641E-002	9.96946E-001	3.57280E+000	9	...........
	160	2.14667	9.98190E-001	9.10564E-005	0.00000E+000	9.08916E-005	5.39641E-002	9.98385E-001	3.57280E+000	9	...........
	161	2.15833	9.99473E-001	9.11650E-005	0.00000E+000	9.11170E-005	5.39641E-002	9.99689E-001	3.57280E+000	9	...........
STARTTIMEOFFSET	QUANT	3673.589	Start Time Offset (s)
