EXPLAIN
TAG	PWR800_CHARGE
TITLE	LABEL	PWR Cyclic Charge Discharge (Cell) - Charge Step	Test &Identifier
DATE	LABEL	10-7-2017	Date
TIME	LABEL	15:21:19	Time
NOTES	NOTES	3	&Notes...
	supercap test cell
	0.9mg
	6M KOH
PSTAT	PSTAT	IFC5000-01520	Potentiostat
CAPACITY	QUANT	1.00000E-003	Capacity (A-hr)
CELLTYPE	SELECTOR	1	&Cell Type
WORKINGCONNECTION	SELECTOR	0	&Working Lead
MAXCHARGETIME	VARIABLEANDUNITS	1.00000E+002	s	1.00000E+002	second(s)	Max &Charge Time
CHARGECURRENT	QUANT	9.00000E-005	&Charge Current (A) 
VOLTAGEFINISH	TWOPARAM	F	1.00000E-003	3.60000E+003	&Voltage Finish	 I (A) < 	Max Time(s)
SAMPLETIME	QUANT	1.00000E-002	Sa&mple Period (s)
CHARGESTOPAT1	MULTIPARAM	4	1.00000E+000	Charge Stop At &1	Voltage > Limit	V
CHARGESTOPAT2	MULTIPARAM	0	0.00000E+000	Charge Stop At &2	None	N/A
AESBHCSELECTOR	TOGGLE	F	Save Both Half Cells
IRCOMP	TOGGLE	F	IR &Measure
EOC	QUANT	0	Open Circuit (V)
SEQUENCER	TOGGLE	TRUE	Run as Sequence
PSTATMODEL	IQUANT	53	Pstat Model
PSTATSECTION	LABEL	IFC5000-01520	Pstat Section
PSTATSERIALNO	LABEL	01520	Pstat Serial Number
CTRLMODE	IQUANT	0	Control Mode
ELECTROMETER	IQUANT	1	RE=0 or CS=1
IESTAB	IQUANT	0	I/E Stability
CASPEED	IQUANT	4	Control Amp Speed
CONVENTION	IQUANT	1	Current Convention
ICHRANGE	IQUANT	2	Ich Range
ICHRANGEMODE	TOGGLE	T	Ich Auto Range
ICHOFFSETENABLE	TOGGLE	F	Ich Offset Enable
ICHOFFSET	QUANT	0	Ich Offset (V)
ICHFILTER	IQUANT	1	Ich Filter
VCHRANGE	IQUANT	2	Vch Range
VCHRANGEMODE	TOGGLE	T	Vch Auto Range
VCHOFFSETENABLE	TOGGLE	F	Vch Offset Enable
VCHOFFSET	QUANT	0	Vch Offset (V)
VCHFILTER	IQUANT	1	Vch Filter
IERANGELOWERLIMIT	IQUANT	9	I/E Range Lower Limit
IERANGEMODE	TOGGLE	F	I/E AutoRange
IERANGE	IQUANT	9	I/E Range
ACHSELECT	IQUANT	1	Ach Select
ACHRANGE	IQUANT	2	Ach Range
ACHOFFSETENABLE	TOGGLE	F	Ach Offset Enable
ACHOFFSET	QUANT	0	Ach Offset (V)
ACHFILTER	IQUANT	1	Ach Filter
CABLEID	IQUANT	14	Cable ID
DCCALDATE	LABEL	5-7-2017	DC Calibration Date
ACCALDATE	LABEL	12/3/2015	AC Calibration Date
FRAMEWORKVERSION	QUANT	7.01	Framework Version
INSTRUMENTVERSION	LABEL	4.00	Instrument Version
CURVE	TABLE	177
	Pt	T	Vf	Im	Vu	Pwr	Sig	Ach	Temp	IERange	Over
	#	s	V	A	V	W	V	V	deg C	#	bits
	0	0.013333	2.85265E-001	9.12043E-005	0.00000E+000	2.60174E-005	5.39641E-002	2.85315E-001	3.57240E+000	9	...........
	1	0.026667	3.04656E-001	9.09981E-005	0.00000E+000	2.77231E-005	5.39641E-002	3.04693E-001	3.57240E+000	9	...........
	2	0.04	3.22605E-001	9.11543E-005	0.00000E+000	2.94069E-005	5.39641E-002	3.22643E-001	3.57240E+000	9	...........
	3	0.053333	3.39369E-001	9.09564E-005	0.00000E+000	3.08678E-005	5.39641E-002	3.39410E-001	3.57240E+000	9	...........
	4	0.066667	3.55118E-001	9.10231E-005	0.00000E+000	3.23239E-005	5.39641E-002	3.55161E-001	3.57240E+000	9	...........
	5	0.08	3.69980E-001	9.10428E-005	0.00000E+000	3.36841E-005	5.39641E-002	3.70025E-001	3.57240E+000	9	...........
	6	0.093333	3.84072E-001	9.10679E-005	0.00000E+000	3.49766E-005	5.39641E-002	3.84114E-001	3.57240E+000	9	...........
	7	0.106667	3.97466E-001	9.13023E-005	0.00000E+000	3.62896E-005	5.39641E-002	3.97510E-001	3.57240E+000	9	...........
	8	0.12	4.10245E-001	9.11825E-005	0.00000E+000	3.74072E-005	5.39641E-002	4.10292E-001	3.57240E+000	9	...........
	9	0.133333	4.22458E-001	9.10751E-005	0.00000E+000	3.84754E-005	5.39641E-002	4.22509E-001	3.57240E+000	9	...........
	10	0.146667	4.34162E-001	9.10543E-005	0.00000E+000	3.95323E-005	5.39641E-002	4.34218E-001	3.57240E+000	9	...........
	11	0.16	4.45413E-001	9.09230E-005	0.00000E+000	4.04983E-005	5.39641E-002	4.45463E-001	3.57240E+000	9	...........
	12	0.173333	4.56231E-001	9.12825E-005	0.00000E+000	4.16459E-005	5.39641E-002	4.56283E-001	3.57240E+000	9	...........
	13	0.186667	4.66654E-001	9.09303E-005	0.00000E+000	4.24330E-005	5.39641E-002	4.66703E-001	3.57240E+000	9	...........
	14	0.2	4.76714E-001	9.08834E-005	0.00000E+000	4.33254E-005	5.39641E-002	4.76768E-001	3.57240E+000	9	...........
	15	0.213333	4.86428E-001	9.10095E-005	0.00000E+000	4.42696E-005	5.39641E-002	4.86485E-001	3.57240E+000	9	...........
	16	0.226667	4.95821E-001	9.10293E-005	0.00000E+000	4.51343E-005	5.39641E-002	4.95885E-001	3.57240E+000	9	...........
	17	0.24	5.04927E-001	9.12200E-005	0.00000E+000	4.60594E-005	5.39641E-002	5.04992E-001	3.57240E+000	9	...........
	18	0.253333	5.13751E-001	9.08053E-005	0.00000E+000	4.66513E-005	5.39641E-002	5.13816E-001	3.57240E+000	9	...........
	19	0.266667	5.22310E-001	9.09418E-005	0.00000E+000	4.74998E-005	5.39641E-002	5.22376E-001	3.57240E+000	9	...........
	20	0.28	5.30611E-001	9.10533E-005	0.00000E+000	4.83139E-005	5.39641E-002	5.30685E-001	3.57240E+000	9	...........
	21	0.293333	5.38640E-001	9.09126E-005	0.00000E+000	4.89692E-005	5.39641E-002	5.38750E-001	3.57240E+000	9	...........
	22	0.306667	5.46538E-001	9.09960E-005	0.00000E+000	4.97328E-005	5.39641E-002	5.46607E-001	3.57240E+000	9	...........
	23	0.32	5.54176E-001	9.10356E-005	0.00000E+000	5.04497E-005	5.39641E-002	5.54252E-001	3.57240E+000	9	...........
	24	0.333333	5.61640E-001	9.12200E-005	0.00000E+000	5.12328E-005	5.39641E-002	5.61730E-001	3.57240E+000	9	...........
	25	0.346667	5.68937E-001	9.10751E-005	0.00000E+000	5.18160E-005	5.39641E-002	5.68995E-001	3.57240E+000	9	...........
	26	0.36	5.76019E-001	9.13262E-005	0.00000E+000	5.26057E-005	5.39641E-002	5.76090E-001	3.57240E+000	9	...........
	27	0.373333	5.82941E-001	9.11450E-005	0.00000E+000	5.31321E-005	5.39641E-002	5.83040E-001	3.57240E+000	9	...........
	28	0.386667	5.89687E-001	9.11450E-005	0.00000E+000	5.37470E-005	5.39641E-002	5.89808E-001	3.57240E+000	9	...........
	29	0.4	5.96316E-001	9.10929E-005	0.00000E+000	5.43201E-005	5.39641E-002	5.96437E-001	3.57240E+000	9	...........
	30	0.413333	6.02764E-001	9.11272E-005	0.00000E+000	5.49282E-005	5.39641E-002	6.02908E-001	3.57240E+000	9	...........
	31	0.426667	6.09074E-001	9.10501E-005	0.00000E+000	5.54563E-005	5.39641E-002	6.09213E-001	3.57240E+000	9	...........
	32	0.44	6.15319E-001	9.11439E-005	0.00000E+000	5.60826E-005	5.39641E-002	6.15441E-001	3.57240E+000	9	...........
	33	0.453333	6.21397E-001	9.08928E-005	0.00000E+000	5.64806E-005	5.39641E-002	6.21474E-001	3.57240E+000	9	...........
	34	0.466667	6.27307E-001	9.08168E-005	0.00000E+000	5.69700E-005	5.39641E-002	6.27422E-001	3.57240E+000	9	...........
	35	0.48	6.33098E-001	9.13210E-005	0.00000E+000	5.78152E-005	5.39641E-002	6.33224E-001	3.57240E+000	9	...........
	36	0.493333	6.38804E-001	9.09647E-005	0.00000E+000	5.81086E-005	5.39641E-002	6.38921E-001	3.57240E+000	9	...........
	37	0.506667	6.44393E-001	9.12835E-005	0.00000E+000	5.88225E-005	5.39641E-002	6.44523E-001	3.57240E+000	9	...........
	38	0.52	6.49862E-001	9.11950E-005	0.00000E+000	5.92641E-005	5.39641E-002	6.49990E-001	3.57240E+000	9	...........
	39	0.533333	6.55221E-001	9.11627E-005	0.00000E+000	5.97317E-005	5.39641E-002	6.55353E-001	3.57240E+000	9	...........
	40	0.546667	6.60484E-001	9.11637E-005	0.00000E+000	6.02122E-005	5.39641E-002	6.60608E-001	3.57240E+000	9	...........
	41	0.56	6.65654E-001	9.11304E-005	0.00000E+000	6.06613E-005	5.39641E-002	6.65813E-001	3.57240E+000	9	...........
	42	0.573333	6.70751E-001	9.10991E-005	0.00000E+000	6.11048E-005	5.39641E-002	6.70880E-001	3.57240E+000	9	...........
	43	0.586667	6.75735E-001	9.09376E-005	0.00000E+000	6.14497E-005	5.39641E-002	6.75827E-001	3.57240E+000	9	...........
	44	0.6	6.80635E-001	9.11064E-005	0.00000E+000	6.20103E-005	5.39641E-002	6.80737E-001	3.57240E+000	9	...........
	45	0.613333	6.85440E-001	9.12471E-005	0.00000E+000	6.25444E-005	5.39641E-002	6.85554E-001	3.57240E+000	9	...........
	46	0.626667	6.90207E-001	9.09293E-005	0.00000E+000	6.27600E-005	5.39641E-002	6.90295E-001	3.57240E+000	9	...........
	47	0.64	6.94862E-001	9.09209E-005	0.00000E+000	6.31775E-005	5.39641E-002	6.94968E-001	3.57240E+000	9	...........
	48	0.653333	6.99442E-001	9.11085E-005	0.00000E+000	6.37252E-005	5.39641E-002	6.99532E-001	3.57240E+000	9	...........
	49	0.666667	7.03960E-001	9.11741E-005	0.00000E+000	6.41830E-005	5.39641E-002	7.04063E-001	3.57240E+000	9	...........
	50	0.68	7.08382E-001	9.10251E-005	0.00000E+000	6.44806E-005	5.39641E-002	7.08514E-001	3.57240E+000	9	...........
	51	0.693333	7.12754E-001	9.11877E-005	0.00000E+000	6.49943E-005	5.39641E-002	7.12843E-001	3.57240E+000	9	...........
	52	0.706667	7.17051E-001	9.09397E-005	0.00000E+000	6.52084E-005	5.39641E-002	7.17175E-001	3.57240E+000	9	...........
	53	0.72	7.21289E-001	9.09001E-005	0.00000E+000	6.55653E-005	5.39641E-002	7.21405E-001	3.57240E+000	9	...........
	54	0.733333	7.25457E-001	9.10543E-005	0.00000E+000	6.60560E-005	5.39641E-002	7.25560E-001	3.57240E+000	9	...........
	55	0.746667	7.29556E-001	9.08803E-005	0.00000E+000	6.63023E-005	5.39641E-002	7.29674E-001	3.57240E+000	9	...........
	56	0.76	7.33601E-001	9.11408E-005	0.00000E+000	6.68610E-005	5.39641E-002	7.33716E-001	3.57240E+000	9	...........
	57	0.773333	7.37562E-001	9.10324E-005	0.00000E+000	6.71420E-005	5.39641E-002	7.37706E-001	3.57240E+000	9	...........
	58	0.786667	7.41507E-001	9.10335E-005	0.00000E+000	6.75019E-005	5.39641E-002	7.41654E-001	3.57240E+000	9	...........
	59	0.8	7.45416E-001	9.12252E-005	0.00000E+000	6.80007E-005	5.39641E-002	7.45544E-001	3.57240E+000	9	...........
	60	0.813333	7.49252E-001	9.10001E-005	0.00000E+000	6.81820E-005	5.39641E-002	7.49374E-001	3.57240E+000	9	...........
	61	0.826667	7.53030E-001	9.12148E-005	0.00000E+000	6.86874E-005	5.39641E-002	7.53146E-001	3.57240E+000	9	...........
	62	0.84	7.56789E-001	9.13846E-005	0.00000E+000	6.91588E-005	5.39641E-002	7.56899E-001	3.57240E+000	9	...........
	63	0.853333	7.60487E-001	9.12043E-005	0.00000E+000	6.93598E-005	5.39641E-002	7.60597E-001	3.57240E+000	9	...........
	64	0.866667	7.64121E-001	9.11908E-005	0.00000E+000	6.96808E-005	5.39641E-002	7.64227E-001	3.57240E+000	9	...........
	65	0.88	7.67714E-001	9.08762E-005	0.00000E+000	6.97669E-005	5.39641E-002	7.67846E-001	3.57240E+000	9	...........
	66	0.893333	7.71255E-001	9.11898E-005	0.00000E+000	7.03306E-005	5.39641E-002	7.71384E-001	3.57240E+000	9	...........
	67	0.906667	7.74744E-001	9.13596E-005	0.00000E+000	7.07803E-005	5.39641E-002	7.74886E-001	3.57309E+000	9	...........
	68	0.92	7.78203E-001	9.09803E-005	0.00000E+000	7.08012E-005	5.39641E-002	7.78321E-001	3.57350E+000	9	...........
	69	0.933333	7.81630E-001	9.11335E-005	0.00000E+000	7.12327E-005	5.39641E-002	7.81755E-001	3.57350E+000	9	...........
	70	0.946667	7.84983E-001	9.13106E-005	0.00000E+000	7.16773E-005	5.39641E-002	7.85127E-001	3.57350E+000	9	...........
	71	0.96	7.88333E-001	9.11241E-005	0.00000E+000	7.18361E-005	5.39641E-002	7.88456E-001	3.57350E+000	9	...........
	72	0.97333	7.91635E-001	9.10220E-005	0.00000E+000	7.20562E-005	5.39641E-002	7.91749E-001	3.57350E+000	9	...........
	73	0.98667	7.94931E-001	9.10679E-005	0.00000E+000	7.23927E-005	5.39641E-002	7.95035E-001	3.57350E+000	9	...........
	74	1	7.98164E-001	9.09355E-005	0.00000E+000	7.25815E-005	5.39641E-002	7.98236E-001	3.57350E+000	9	...........
	75	1.01333	8.01333E-001	9.12325E-005	0.00000E+000	7.31076E-005	5.39641E-002	8.01412E-001	3.57350E+000	9	...........
	76	1.02667	8.04424E-001	9.10856E-005	0.00000E+000	7.32714E-005	5.39641E-002	8.04563E-001	3.57350E+000	9	...........
	77	1.04	8.07524E-001	9.10460E-005	0.00000E+000	7.35218E-005	5.39641E-002	8.07650E-001	3.57350E+000	9	...........
	78	1.05333	8.10587E-001	9.09491E-005	0.00000E+000	7.37222E-005	5.39641E-002	8.10692E-001	3.57350E+000	9	...........
	79	1.06667	8.13621E-001	9.11002E-005	0.00000E+000	7.41210E-005	5.39641E-002	8.13746E-001	3.57350E+000	9	...........
	80	1.08	8.16606E-001	9.12971E-005	0.00000E+000	7.45537E-005	5.39641E-002	8.16766E-001	3.57350E+000	9	...........
	81	1.09333	8.19604E-001	9.10647E-005	0.00000E+000	7.46370E-005	5.39641E-002	8.19752E-001	3.57350E+000	9	...........
	82	1.10667	8.22520E-001	9.11283E-005	0.00000E+000	7.49549E-005	5.39641E-002	8.22680E-001	3.57350E+000	9	...........
	83	1.12	8.25417E-001	9.11356E-005	0.00000E+000	7.52248E-005	5.39641E-002	8.25592E-001	3.57350E+000	9	...........
	84	1.13333	8.28291E-001	9.08261E-005	0.00000E+000	7.52305E-005	5.39641E-002	8.28435E-001	3.57350E+000	9	...........
	85	1.14667	8.31142E-001	9.11804E-005	0.00000E+000	7.57839E-005	5.39641E-002	8.31270E-001	3.57350E+000	9	...........
	86	1.16	8.33952E-001	9.11241E-005	0.00000E+000	7.59931E-005	5.39641E-002	8.34080E-001	3.57350E+000	9	...........
	87	1.17333	8.36724E-001	9.08636E-005	0.00000E+000	7.60278E-005	5.39641E-002	8.36866E-001	3.57350E+000	9	...........
	88	1.18667	8.39479E-001	9.11262E-005	0.00000E+000	7.64986E-005	5.39641E-002	8.39617E-001	3.57350E+000	9	...........
	89	1.2	8.42191E-001	9.09303E-005	0.00000E+000	7.65807E-005	5.39641E-002	8.42340E-001	3.57350E+000	9	...........
	90	1.21333	8.44936E-001	9.10137E-005	0.00000E+000	7.69008E-005	5.39641E-002	8.45091E-001	3.57350E+000	9	...........
	91	1.22667	8.47595E-001	9.08918E-005	0.00000E+000	7.70394E-005	5.39641E-002	8.47749E-001	3.57350E+000	9	...........
	92	1.24	8.50227E-001	9.10720E-005	0.00000E+000	7.74319E-005	5.39641E-002	8.50419E-001	3.57350E+000	9	...........
	93	1.25333	8.52853E-001	9.11835E-005	0.00000E+000	7.77661E-005	5.39641E-002	8.53016E-001	3.57350E+000	9	...........
	94	1.26667	8.55434E-001	9.11939E-005	0.00000E+000	7.80104E-005	5.39641E-002	8.55623E-001	3.57350E+000	9	...........
	95	1.28	8.58006E-001	9.08980E-005	0.00000E+000	7.79911E-005	5.39641E-002	8.58183E-001	3.57350E+000	9	...........
	96	1.29333	8.60563E-001	9.09397E-005	0.00000E+000	7.82594E-005	5.39641E-002	8.60734E-001	3.57350E+000	9	...........
	97	1.30667	8.63055E-001	9.12523E-005	0.00000E+000	7.87558E-005	5.39641E-002	8.63244E-001	3.57350E+000	9	...........
	98	1.32	8.65521E-001	9.12377E-005	0.00000E+000	7.89682E-005	5.39641E-002	8.65749E-001	3.57350E+000	9	...........
	99	1.33333	8.68026E-001	9.10866E-005	0.00000E+000	7.90656E-005	5.39641E-002	8.68248E-001	3.57350E+000	9	...........
	100	1.34667	8.70521E-001	9.14867E-005	0.00000E+000	7.96411E-005	5.39641E-002	8.70713E-001	3.57350E+000	9	...........
	101	1.36	8.72940E-001	9.11887E-005	0.00000E+000	7.96023E-005	5.39641E-002	8.73126E-001	3.57350E+000	9	...........
	102	1.37333	8.75339E-001	9.11877E-005	0.00000E+000	7.98201E-005	5.39641E-002	8.75533E-001	3.57350E+000	9	...........
	103	1.38667	8.77723E-001	9.10543E-005	0.00000E+000	7.99205E-005	5.39641E-002	8.77888E-001	3.57350E+000	9	...........
	104	1.4	8.80062E-001	9.08741E-005	0.00000E+000	7.99748E-005	5.39641E-002	8.80251E-001	3.57350E+000	9	...........
	105	1.41333	8.82428E-001	9.11804E-005	0.00000E+000	8.04601E-005	5.39641E-002	8.82583E-001	3.57350E+000	9	...........
	106	1.42667	8.84740E-001	9.10272E-005	0.00000E+000	8.05354E-005	5.39641E-002	8.84894E-001	3.57350E+000	9	...........
	107	1.44	8.86999E-001	9.10251E-005	0.00000E+000	8.07392E-005	5.39641E-002	8.87169E-001	3.57350E+000	9	...........
	108	1.45333	8.89234E-001	9.11533E-005	0.00000E+000	8.10566E-005	5.39641E-002	8.89426E-001	3.57350E+000	9	...........
	109	1.46667	8.91462E-001	9.08553E-005	0.00000E+000	8.09941E-005	5.39641E-002	8.91634E-001	3.57350E+000	9	...........
	110	1.48	8.93664E-001	9.10303E-005	0.00000E+000	8.13506E-005	5.39641E-002	8.93848E-001	3.57350E+000	9	...........
	111	1.49333	8.95843E-001	9.11064E-005	0.00000E+000	8.16170E-005	5.39641E-002	8.96069E-001	3.57350E+000	9	...........
	112	1.50667	8.98012E-001	9.14054E-005	0.00000E+000	8.20832E-005	5.39641E-002	8.98215E-001	3.57350E+000	9	...........
	113	1.52	9.00143E-001	9.12314E-005	0.00000E+000	8.21213E-005	5.39641E-002	9.00324E-001	3.57350E+000	9	...........
	114	1.53333	9.02249E-001	9.12867E-005	0.00000E+000	8.23633E-005	5.39641E-002	9.02437E-001	3.57350E+000	9	...........
	115	1.54667	9.04322E-001	9.08501E-005	0.00000E+000	8.21577E-005	5.39641E-002	9.04530E-001	3.57350E+000	9	...........
	116	1.56	9.06396E-001	9.11700E-005	0.00000E+000	8.26361E-005	5.39641E-002	9.06589E-001	3.57350E+000	9	...........
	117	1.57333	9.08475E-001	9.11272E-005	0.00000E+000	8.27868E-005	5.39641E-002	9.08669E-001	3.57350E+000	9	...........
	118	1.58667	9.10509E-001	9.10293E-005	0.00000E+000	8.28830E-005	5.39641E-002	9.10708E-001	3.57350E+000	9	...........
	119	1.6	9.12526E-001	9.10522E-005	0.00000E+000	8.30875E-005	5.39641E-002	9.12722E-001	3.57350E+000	9	...........
	120	1.61333	9.14522E-001	9.12148E-005	0.00000E+000	8.34179E-005	5.39641E-002	9.14715E-001	3.57350E+000	9	...........
	121	1.62667	9.16498E-001	9.09605E-005	0.00000E+000	8.33651E-005	5.39641E-002	9.16699E-001	3.57350E+000	9	...........
	122	1.64	9.18480E-001	9.09856E-005	0.00000E+000	8.35684E-005	5.39641E-002	9.18659E-001	3.57350E+000	9	...........
	123	1.65333	9.20447E-001	9.09803E-005	0.00000E+000	8.37425E-005	5.39641E-002	9.20629E-001	3.57350E+000	9	...........
	124	1.66667	9.22454E-001	9.11200E-005	0.00000E+000	8.40539E-005	5.39641E-002	9.22562E-001	3.57350E+000	9	...........
	125	1.68	9.24331E-001	9.12491E-005	0.00000E+000	8.43444E-005	5.39641E-002	9.24462E-001	3.57350E+000	9	...........
	126	1.69333	9.26226E-001	9.09262E-005	0.00000E+000	8.42182E-005	5.39641E-002	9.26349E-001	3.57350E+000	9	...........
	127	1.70667	9.28078E-001	9.13460E-005	0.00000E+000	8.47763E-005	5.39641E-002	9.28222E-001	3.57350E+000	9	...........
	128	1.72	9.29906E-001	9.09658E-005	0.00000E+000	8.45896E-005	5.39641E-002	9.30069E-001	3.57350E+000	9	...........
	129	1.73333	9.31742E-001	9.07480E-005	0.00000E+000	8.45537E-005	5.39641E-002	9.31893E-001	3.57350E+000	9	...........
	130	1.74667	9.33554E-001	9.11585E-005	0.00000E+000	8.51014E-005	5.39641E-002	9.33719E-001	3.57350E+000	9	...........
	131	1.76	9.35346E-001	9.13096E-005	0.00000E+000	8.54060E-005	5.39641E-002	9.35509E-001	3.57350E+000	9	...........
	132	1.77333	9.37118E-001	9.09741E-005	0.00000E+000	8.52534E-005	5.39641E-002	9.37306E-001	3.57350E+000	9	...........
	133	1.78667	9.38878E-001	9.10272E-005	0.00000E+000	8.54635E-005	5.39641E-002	9.39056E-001	3.57350E+000	9	...........
	134	1.8	9.40603E-001	9.09720E-005	0.00000E+000	8.55685E-005	5.39641E-002	9.40793E-001	3.57350E+000	9	...........
	135	1.81333	9.42320E-001	9.12783E-005	0.00000E+000	8.60134E-005	5.39641E-002	9.42486E-001	3.57350E+000	9	...........
	136	1.82667	9.44027E-001	9.11533E-005	0.00000E+000	8.60511E-005	5.39641E-002	9.44206E-001	3.57350E+000	9	...........
	137	1.84	9.45706E-001	9.12116E-005	0.00000E+000	8.62594E-005	5.39641E-002	9.45903E-001	3.57350E+000	9	...........
	138	1.85333	9.47427E-001	9.11418E-005	0.00000E+000	8.63502E-005	5.39641E-002	9.47585E-001	3.57350E+000	9	...........
	139	1.86667	9.49050E-001	9.10679E-005	0.00000E+000	8.64279E-005	5.39641E-002	9.49223E-001	3.57350E+000	9	...........
	140	1.88	9.50693E-001	9.11241E-005	0.00000E+000	8.66310E-005	5.39641E-002	9.50855E-001	3.57350E+000	9	...........
	141	1.89333	9.52307E-001	9.12023E-005	0.00000E+000	8.68526E-005	5.39641E-002	9.52499E-001	3.57350E+000	9	...........
	142	1.90667	9.53927E-001	9.10376E-005	0.00000E+000	8.68432E-005	5.39641E-002	9.54108E-001	3.57262E+000	9	...........
	143	1.92	9.55506E-001	9.11845E-005	0.00000E+000	8.71274E-005	5.39641E-002	9.55708E-001	3.57210E+000	9	...........
	144	1.93333	9.57088E-001	9.10637E-005	0.00000E+000	8.71559E-005	5.39641E-002	9.57286E-001	3.57210E+000	9	...........
	145	1.94667	9.58638E-001	9.11074E-005	0.00000E+000	8.73391E-005	5.39641E-002	9.58848E-001	3.57210E+000	9	...........
	146	1.96	9.60184E-001	9.10231E-005	0.00000E+000	8.73989E-005	5.39641E-002	9.60385E-001	3.57210E+000	9	...........
	147	1.97333	9.61698E-001	9.10512E-005	0.00000E+000	8.75637E-005	5.39641E-002	9.61919E-001	3.57210E+000	9	...........
	148	1.98667	9.63182E-001	9.09845E-005	0.00000E+000	8.76347E-005	5.39641E-002	9.63411E-001	3.57210E+000	9	...........
	149	2	9.64682E-001	9.12710E-005	0.00000E+000	8.80475E-005	5.39641E-002	9.64905E-001	3.57210E+000	9	...........
	150	2.01333	9.66169E-001	9.10106E-005	0.00000E+000	8.79315E-005	5.39641E-002	9.66381E-001	3.57210E+000	9	...........
	151	2.02667	9.67655E-001	9.11898E-005	0.00000E+000	8.82403E-005	5.39641E-002	9.67859E-001	3.57210E+000	9	...........
	152	2.04	9.69097E-001	9.11814E-005	0.00000E+000	8.83637E-005	5.39641E-002	9.69325E-001	3.57210E+000	9	...........
	153	2.05333	9.70563E-001	9.11252E-005	0.00000E+000	8.84427E-005	5.39641E-002	9.70795E-001	3.57210E+000	9	...........
	154	2.06667	9.72007E-001	9.09824E-005	0.00000E+000	8.84355E-005	5.39641E-002	9.72259E-001	3.57210E+000	9	...........
	155	2.08	9.73461E-001	9.11720E-005	0.00000E+000	8.87524E-005	5.39641E-002	9.73661E-001	3.57210E+000	9	...........
	156	2.09333	9.74874E-001	9.10085E-005	0.00000E+000	8.87218E-005	5.39641E-002	9.75081E-001	3.57210E+000	9	...........
	157	2.10667	9.76262E-001	9.12481E-005	0.00000E+000	8.90821E-005	5.39641E-002	9.76464E-001	3.57210E+000	9	...........
	158	2.12	9.77616E-001	9.09418E-005	0.00000E+000	8.89062E-005	5.39641E-002	9.77840E-001	3.57210E+000	9	...........
	159	2.13333	9.78986E-001	9.12794E-005	0.00000E+000	8.93612E-005	5.39641E-002	9.79200E-001	3.57210E+000	9	...........
	160	2.14667	9.80355E-001	9.12158E-005	0.00000E+000	8.94239E-005	5.39641E-002	9.80541E-001	3.57210E+000	9	...........
	161	2.16	9.81698E-001	9.12366E-005	0.00000E+000	8.95668E-005	5.39641E-002	9.81872E-001	3.57210E+000	9	...........
	162	2.17333	9.83037E-001	9.10408E-005	0.00000E+000	8.94965E-005	5.39641E-002	9.83222E-001	3.57210E+000	9	...........
	163	2.18667	9.84358E-001	9.12252E-005	0.00000E+000	8.97982E-005	5.39641E-002	9.84559E-001	3.57210E+000	9	...........
	164	2.2	9.85636E-001	9.12210E-005	0.00000E+000	8.99107E-005	5.39641E-002	9.85856E-001	3.57210E+000	9	...........
	165	2.21333	9.86916E-001	9.13148E-005	0.00000E+000	9.01200E-005	5.39641E-002	9.87132E-001	3.57210E+000	9	...........
	166	2.22667	9.88202E-001	9.11502E-005	0.00000E+000	9.00747E-005	5.39641E-002	9.88422E-001	3.57210E+000	9	...........
	167	2.24	9.89492E-001	9.11137E-005	0.00000E+000	9.01563E-005	5.39641E-002	9.89682E-001	3.57210E+000	9	...........
	168	2.25333	9.90735E-001	9.10168E-005	0.00000E+000	9.01735E-005	5.39641E-002	9.90937E-001	3.57210E+000	9	...........
	169	2.26667	9.91992E-001	9.10262E-005	0.00000E+000	9.02972E-005	5.39641E-002	9.92186E-001	3.57210E+000	9	...........
	170	2.28	9.93215E-001	9.10991E-005	0.00000E+000	9.04810E-005	5.39641E-002	9.93415E-001	3.57210E+000	9	...........
	171	2.29333	9.94439E-001	9.13127E-005	0.00000E+000	9.08049E-005	5.39641E-002	9.94630E-001	3.57210E+000	9	...........
	172	2.30667	9.95677E-001	9.11241E-005	0.00000E+000	9.07302E-005	5.39641E-002	9.95850E-001	3.57210E+000	9	...........
	173	2.32	9.96876E-001	9.12158E-005	0.00000E+000	9.09309E-005	5.39641E-002	9.97081E-001	3.57210E+000	9	...........
	174	2.33333	9.98073E-001	9.12033E-005	0.00000E+000	9.10275E-005	5.39641E-002	9.98262E-001	3.57210E+000	9	...........
	175	2.34667	9.99236E-001	9.12742E-005	0.00000E+000	9.12044E-005	5.39641E-002	9.99447E-001	3.57210E+000	9	...........
	176	2.35	9.99951E-001	9.10335E-005	0.00000E+000	9.10290E-005	5.39641E-002	1.00018E+000	3.57210E+000	9	...........
STARTTIMEOFFSET	QUANT	1119.326	Start Time Offset (s)
