EXPLAIN
TAG	PWR800_CHARGE
TITLE	LABEL	PWR Cyclic Charge Discharge (Cell) - Charge Step	Test &Identifier
DATE	LABEL	10-7-2017	Date
TIME	LABEL	15:41:09	Time
NOTES	NOTES	3	&Notes...
	supercap test cell
	0.9mg
	6M KOH
PSTAT	PSTAT	IFC5000-01520	Potentiostat
CAPACITY	QUANT	1.00000E-003	Capacity (A-hr)
CELLTYPE	SELECTOR	1	&Cell Type
WORKINGCONNECTION	SELECTOR	0	&Working Lead
MAXCHARGETIME	VARIABLEANDUNITS	1.00000E+002	s	1.00000E+002	second(s)	Max &Charge Time
CHARGECURRENT	QUANT	9.00000E-005	&Charge Current (A) 
VOLTAGEFINISH	TWOPARAM	F	1.00000E-003	3.60000E+003	&Voltage Finish	 I (A) < 	Max Time(s)
SAMPLETIME	QUANT	1.00000E-002	Sa&mple Period (s)
CHARGESTOPAT1	MULTIPARAM	4	1.00000E+000	Charge Stop At &1	Voltage > Limit	V
CHARGESTOPAT2	MULTIPARAM	0	0.00000E+000	Charge Stop At &2	None	N/A
AESBHCSELECTOR	TOGGLE	F	Save Both Half Cells
IRCOMP	TOGGLE	F	IR &Measure
EOC	QUANT	0	Open Circuit (V)
SEQUENCER	TOGGLE	TRUE	Run as Sequence
PSTATMODEL	IQUANT	53	Pstat Model
PSTATSECTION	LABEL	IFC5000-01520	Pstat Section
PSTATSERIALNO	LABEL	01520	Pstat Serial Number
CTRLMODE	IQUANT	0	Control Mode
ELECTROMETER	IQUANT	1	RE=0 or CS=1
IESTAB	IQUANT	0	I/E Stability
CASPEED	IQUANT	4	Control Amp Speed
CONVENTION	IQUANT	1	Current Convention
ICHRANGE	IQUANT	2	Ich Range
ICHRANGEMODE	TOGGLE	T	Ich Auto Range
ICHOFFSETENABLE	TOGGLE	F	Ich Offset Enable
ICHOFFSET	QUANT	0	Ich Offset (V)
ICHFILTER	IQUANT	1	Ich Filter
VCHRANGE	IQUANT	2	Vch Range
VCHRANGEMODE	TOGGLE	T	Vch Auto Range
VCHOFFSETENABLE	TOGGLE	F	Vch Offset Enable
VCHOFFSET	QUANT	0	Vch Offset (V)
VCHFILTER	IQUANT	1	Vch Filter
IERANGELOWERLIMIT	IQUANT	9	I/E Range Lower Limit
IERANGEMODE	TOGGLE	F	I/E AutoRange
IERANGE	IQUANT	9	I/E Range
ACHSELECT	IQUANT	1	Ach Select
ACHRANGE	IQUANT	2	Ach Range
ACHOFFSETENABLE	TOGGLE	F	Ach Offset Enable
ACHOFFSET	QUANT	0	Ach Offset (V)
ACHFILTER	IQUANT	1	Ach Filter
CABLEID	IQUANT	14	Cable ID
DCCALDATE	LABEL	5-7-2017	DC Calibration Date
ACCALDATE	LABEL	12/3/2015	AC Calibration Date
FRAMEWORKVERSION	QUANT	7.01	Framework Version
INSTRUMENTVERSION	LABEL	4.00	Instrument Version
CURVE	TABLE	170
	Pt	T	Vf	Im	Vu	Pwr	Sig	Ach	Temp	IERange	Over
	#	s	V	A	V	W	V	V	deg C	#	bits
	0	0.013333	2.77568E-001	9.09668E-005	0.00000E+000	2.52495E-005	5.39641E-002	2.77622E-001	3.57300E+000	9	...........
	1	0.026667	2.97136E-001	9.08647E-005	0.00000E+000	2.69992E-005	5.39641E-002	2.97179E-001	3.57300E+000	9	...........
	2	0.04	3.15353E-001	9.09533E-005	0.00000E+000	2.86824E-005	5.39641E-002	3.15398E-001	3.57300E+000	9	...........
	3	0.053333	3.32439E-001	9.08418E-005	0.00000E+000	3.01994E-005	5.39641E-002	3.32482E-001	3.57300E+000	9	...........
	4	0.066667	3.48538E-001	9.07053E-005	0.00000E+000	3.16142E-005	5.39641E-002	3.48583E-001	3.57300E+000	9	...........
	5	0.08	3.63756E-001	9.09928E-005	0.00000E+000	3.30992E-005	5.39641E-002	3.63805E-001	3.57300E+000	9	...........
	6	0.093333	3.78193E-001	9.08803E-005	0.00000E+000	3.43703E-005	5.39641E-002	3.78240E-001	3.57300E+000	9	...........
	7	0.106667	3.91941E-001	9.09272E-005	0.00000E+000	3.56381E-005	5.39641E-002	3.91993E-001	3.57300E+000	9	...........
	8	0.12	4.05054E-001	9.09793E-005	0.00000E+000	3.68515E-005	5.39641E-002	4.05108E-001	3.57300E+000	9	...........
	9	0.133333	4.17587E-001	9.09303E-005	0.00000E+000	3.79713E-005	5.39641E-002	4.17648E-001	3.57300E+000	9	...........
	10	0.146667	4.29596E-001	9.12960E-005	0.00000E+000	3.92204E-005	5.39641E-002	4.29653E-001	3.57300E+000	9	...........
	11	0.16	4.41110E-001	9.11439E-005	0.00000E+000	4.02044E-005	5.39641E-002	4.41170E-001	3.57300E+000	9	...........
	12	0.173333	4.52179E-001	9.08991E-005	0.00000E+000	4.11027E-005	5.39641E-002	4.52239E-001	3.57300E+000	9	...........
	13	0.186667	4.62842E-001	9.09658E-005	0.00000E+000	4.21027E-005	5.39641E-002	4.62904E-001	3.57300E+000	9	...........
	14	0.2	4.73128E-001	9.10387E-005	0.00000E+000	4.30729E-005	5.39641E-002	4.73189E-001	3.57300E+000	9	...........
	15	0.213333	4.83053E-001	9.09741E-005	0.00000E+000	4.39453E-005	5.39641E-002	4.83112E-001	3.57300E+000	9	...........
	16	0.226667	4.92637E-001	9.10887E-005	0.00000E+000	4.48737E-005	5.39641E-002	4.92698E-001	3.57300E+000	9	...........
	17	0.24	5.01913E-001	9.10835E-005	0.00000E+000	4.57160E-005	5.39641E-002	5.01975E-001	3.57300E+000	9	...........
	18	0.253333	5.10899E-001	9.09407E-005	0.00000E+000	4.64615E-005	5.39641E-002	5.10970E-001	3.57300E+000	9	...........
	19	0.266667	5.19620E-001	9.09876E-005	0.00000E+000	4.72790E-005	5.39641E-002	5.19687E-001	3.57300E+000	9	...........
	20	0.28	5.28093E-001	9.12241E-005	0.00000E+000	4.81749E-005	5.39641E-002	5.28161E-001	3.57300E+000	9	...........
	21	0.293333	5.36252E-001	9.07397E-005	0.00000E+000	4.86593E-005	5.39641E-002	5.36332E-001	3.57300E+000	9	...........
	22	0.306667	5.44234E-001	9.08855E-005	0.00000E+000	4.94630E-005	5.39641E-002	5.44322E-001	3.57300E+000	9	...........
	23	0.32	5.52003E-001	9.09553E-005	0.00000E+000	5.02076E-005	5.39641E-002	5.52122E-001	3.57300E+000	9	...........
	24	0.333333	5.59553E-001	9.10189E-005	0.00000E+000	5.09299E-005	5.39641E-002	5.59697E-001	3.57300E+000	9	...........
	25	0.346667	5.66973E-001	9.09168E-005	0.00000E+000	5.15474E-005	5.39641E-002	5.67093E-001	3.57300E+000	9	...........
	26	0.36	5.74136E-001	9.09168E-005	0.00000E+000	5.21986E-005	5.39641E-002	5.74268E-001	3.57300E+000	9	...........
	27	0.373333	5.81130E-001	9.11043E-005	0.00000E+000	5.29434E-005	5.39641E-002	5.81276E-001	3.57300E+000	9	...........
	28	0.386667	5.87989E-001	9.08605E-005	0.00000E+000	5.34250E-005	5.39641E-002	5.88148E-001	3.57300E+000	9	...........
	29	0.4	5.94706E-001	9.09647E-005	0.00000E+000	5.40973E-005	5.39641E-002	5.94845E-001	3.57300E+000	9	...........
	30	0.413333	6.01256E-001	9.09668E-005	0.00000E+000	5.46943E-005	5.39641E-002	6.01397E-001	3.57300E+000	9	...........
	31	0.426667	6.07616E-001	9.11783E-005	0.00000E+000	5.54014E-005	5.39641E-002	6.07778E-001	3.57300E+000	9	...........
	32	0.44	6.13901E-001	9.12846E-005	0.00000E+000	5.60397E-005	5.39641E-002	6.14037E-001	3.57300E+000	9	...........
	33	0.453333	6.20044E-001	9.10522E-005	0.00000E+000	5.64564E-005	5.39641E-002	6.20161E-001	3.57300E+000	9	...........
	34	0.466667	6.26048E-001	9.07636E-005	0.00000E+000	5.68224E-005	5.39641E-002	6.26138E-001	3.57300E+000	9	...........
	35	0.48	6.31894E-001	9.08991E-005	0.00000E+000	5.74386E-005	5.39641E-002	6.32008E-001	3.57300E+000	9	...........
	36	0.493333	6.37642E-001	9.11679E-005	0.00000E+000	5.81325E-005	5.39641E-002	6.37762E-001	3.57300E+000	9	...........
	37	0.506667	6.43330E-001	9.10418E-005	0.00000E+000	5.85700E-005	5.39641E-002	6.43436E-001	3.57300E+000	9	...........
	38	0.52	6.48850E-001	9.13888E-005	0.00000E+000	5.92976E-005	5.39641E-002	6.48979E-001	3.57300E+000	9	...........
	39	0.533333	6.54283E-001	9.05396E-005	0.00000E+000	5.92386E-005	5.39641E-002	6.54410E-001	3.57300E+000	9	...........
	40	0.546667	6.59625E-001	9.10189E-005	0.00000E+000	6.00384E-005	5.39641E-002	6.59713E-001	3.57300E+000	9	...........
	41	0.56	6.64843E-001	9.08032E-005	0.00000E+000	6.03699E-005	5.39641E-002	6.64979E-001	3.57300E+000	9	...........
	42	0.573333	6.70005E-001	9.10085E-005	0.00000E+000	6.09762E-005	5.39641E-002	6.70117E-001	3.57300E+000	9	...........
	43	0.586667	6.75048E-001	9.11179E-005	0.00000E+000	6.15090E-005	5.39641E-002	6.75180E-001	3.57300E+000	9	...........
	44	0.6	6.80029E-001	9.08397E-005	0.00000E+000	6.17736E-005	5.39641E-002	6.80162E-001	3.57300E+000	9	...........
	45	0.613333	6.84891E-001	9.08834E-005	0.00000E+000	6.22452E-005	5.39641E-002	6.85033E-001	3.57300E+000	9	...........
	46	0.626667	6.89678E-001	9.10001E-005	0.00000E+000	6.27608E-005	5.39641E-002	6.89844E-001	3.57300E+000	9	...........
	47	0.64	6.94446E-001	9.10106E-005	0.00000E+000	6.32019E-005	5.39641E-002	6.94575E-001	3.57300E+000	9	...........
	48	0.653333	6.99090E-001	9.09522E-005	0.00000E+000	6.35838E-005	5.39641E-002	6.99215E-001	3.57300E+000	9	...........
	49	0.666667	7.03698E-001	9.13585E-005	0.00000E+000	6.42888E-005	5.39641E-002	7.03809E-001	3.57300E+000	9	...........
	50	0.68	7.08219E-001	9.10699E-005	0.00000E+000	6.44975E-005	5.39641E-002	7.08343E-001	3.57300E+000	9	...........
	51	0.693333	7.12647E-001	9.08136E-005	0.00000E+000	6.47181E-005	5.39641E-002	7.12769E-001	3.57300E+000	9	...........
	52	0.706667	7.17070E-001	9.11064E-005	0.00000E+000	6.53297E-005	5.39641E-002	7.17210E-001	3.57300E+000	9	...........
	53	0.72	7.21432E-001	9.09012E-005	0.00000E+000	6.55790E-005	5.39641E-002	7.21551E-001	3.57300E+000	9	...........
	54	0.733333	7.25718E-001	9.10658E-005	0.00000E+000	6.60881E-005	5.39641E-002	7.25798E-001	3.57300E+000	9	...........
	55	0.746667	7.29922E-001	9.10574E-005	0.00000E+000	6.64649E-005	5.39641E-002	7.30009E-001	3.57300E+000	9	...........
	56	0.76	7.34048E-001	9.11179E-005	0.00000E+000	6.68849E-005	5.39641E-002	7.34170E-001	3.57300E+000	9	...........
	57	0.773333	7.38127E-001	9.10356E-005	0.00000E+000	6.71958E-005	5.39641E-002	7.38281E-001	3.57300E+000	9	...........
	58	0.786667	7.42183E-001	9.10772E-005	0.00000E+000	6.75960E-005	5.39641E-002	7.42349E-001	3.57300E+000	9	...........
	59	0.8	7.46192E-001	9.12023E-005	0.00000E+000	6.80544E-005	5.39641E-002	7.46333E-001	3.57300E+000	9	...........
	60	0.813333	7.50107E-001	9.10460E-005	0.00000E+000	6.82943E-005	5.39641E-002	7.50273E-001	3.57300E+000	9	...........
	61	0.826667	7.54026E-001	9.08574E-005	0.00000E+000	6.85089E-005	5.39641E-002	7.54170E-001	3.57300E+000	9	...........
	62	0.84	7.57892E-001	9.08647E-005	0.00000E+000	6.88656E-005	5.39641E-002	7.57984E-001	3.57300E+000	9	...........
	63	0.853333	7.61632E-001	9.08063E-005	0.00000E+000	6.91610E-005	5.39641E-002	7.61775E-001	3.57300E+000	9	...........
	64	0.866667	7.65396E-001	9.10033E-005	0.00000E+000	6.96535E-005	5.39641E-002	7.65512E-001	3.57300E+000	9	...........
	65	0.88	7.69118E-001	9.12429E-005	0.00000E+000	7.01766E-005	5.39641E-002	7.69242E-001	3.57300E+000	9	...........
	66	0.893333	7.72792E-001	9.09626E-005	0.00000E+000	7.02952E-005	5.39641E-002	7.72887E-001	3.57300E+000	9	...........
	67	0.906667	7.76378E-001	9.09439E-005	0.00000E+000	7.06069E-005	5.39641E-002	7.76492E-001	3.57300E+000	9	...........
	68	0.92	7.79935E-001	9.11325E-005	0.00000E+000	7.10774E-005	5.39641E-002	7.80030E-001	3.57323E+000	9	...........
	69	0.933333	7.83471E-001	9.09157E-005	0.00000E+000	7.12298E-005	5.39641E-002	7.83566E-001	3.57390E+000	9	...........
	70	0.946667	7.86932E-001	9.11158E-005	0.00000E+000	7.17020E-005	5.39641E-002	7.87056E-001	3.57390E+000	9	...........
	71	0.96	7.90385E-001	9.11439E-005	0.00000E+000	7.20388E-005	5.39641E-002	7.90506E-001	3.57390E+000	9	...........
	72	0.97333	7.93801E-001	9.12616E-005	0.00000E+000	7.24436E-005	5.39641E-002	7.93946E-001	3.57390E+000	9	...........
	73	0.98667	7.97164E-001	9.09022E-005	0.00000E+000	7.24639E-005	5.39641E-002	7.97310E-001	3.57390E+000	9	...........
	74	1	8.00487E-001	9.10210E-005	0.00000E+000	7.28611E-005	5.39641E-002	8.00626E-001	3.57390E+000	9	...........
	75	1.01333	8.03790E-001	9.09376E-005	0.00000E+000	7.30947E-005	5.39641E-002	8.03925E-001	3.57390E+000	9	...........
	76	1.02667	8.07052E-001	9.12387E-005	0.00000E+000	7.36344E-005	5.39641E-002	8.07227E-001	3.57390E+000	9	...........
	77	1.04	8.10286E-001	9.10751E-005	0.00000E+000	7.37969E-005	5.39641E-002	8.10433E-001	3.57390E+000	9	...........
	78	1.05333	8.13515E-001	9.11210E-005	0.00000E+000	7.41283E-005	5.39641E-002	8.13671E-001	3.57390E+000	9	...........
	79	1.06667	8.16653E-001	9.11012E-005	0.00000E+000	7.43981E-005	5.39641E-002	8.16853E-001	3.57390E+000	9	...........
	80	1.08	8.19856E-001	9.08668E-005	0.00000E+000	7.44976E-005	5.39641E-002	8.20016E-001	3.57390E+000	9	...........
	81	1.09333	8.22941E-001	9.09616E-005	0.00000E+000	7.48560E-005	5.39641E-002	8.23120E-001	3.57390E+000	9	...........
	82	1.10667	8.26010E-001	9.09928E-005	0.00000E+000	7.51610E-005	5.39641E-002	8.26185E-001	3.57390E+000	9	...........
	83	1.12	8.29020E-001	9.09928E-005	0.00000E+000	7.54349E-005	5.39641E-002	8.29207E-001	3.57390E+000	9	...........
	84	1.13333	8.32024E-001	9.09178E-005	0.00000E+000	7.56458E-005	5.39641E-002	8.32213E-001	3.57390E+000	9	...........
	85	1.14667	8.34955E-001	9.10408E-005	0.00000E+000	7.60149E-005	5.39641E-002	8.35161E-001	3.57390E+000	9	...........
	86	1.16	8.37882E-001	9.12523E-005	0.00000E+000	7.64587E-005	5.39641E-002	8.38067E-001	3.57390E+000	9	...........
	87	1.17333	8.40790E-001	9.09241E-005	0.00000E+000	7.64480E-005	5.39641E-002	8.40962E-001	3.57390E+000	9	...........
	88	1.18667	8.43661E-001	9.11272E-005	0.00000E+000	7.68805E-005	5.39641E-002	8.43850E-001	3.57390E+000	9	...........
	89	1.2	8.46531E-001	9.07605E-005	0.00000E+000	7.68315E-005	5.39641E-002	8.46702E-001	3.57390E+000	9	...........
	90	1.21333	8.49312E-001	9.05761E-005	0.00000E+000	7.69273E-005	5.39641E-002	8.49506E-001	3.57390E+000	9	...........
	91	1.22667	8.52114E-001	9.10043E-005	0.00000E+000	7.75460E-005	5.39641E-002	8.52271E-001	3.57390E+000	9	...........
	92	1.24	8.54844E-001	9.10293E-005	0.00000E+000	7.78158E-005	5.39641E-002	8.55018E-001	3.57390E+000	9	...........
	93	1.25333	8.57553E-001	9.10189E-005	0.00000E+000	7.80535E-005	5.39641E-002	8.57751E-001	3.57390E+000	9	...........
	94	1.26667	8.60252E-001	9.10908E-005	0.00000E+000	7.83610E-005	5.39641E-002	8.60432E-001	3.57390E+000	9	...........
	95	1.28	8.62899E-001	9.10481E-005	0.00000E+000	7.85653E-005	5.39641E-002	8.63111E-001	3.57390E+000	9	...........
	96	1.29333	8.65550E-001	9.09720E-005	0.00000E+000	7.87408E-005	5.39641E-002	8.65768E-001	3.57390E+000	9	...........
	97	1.30667	8.68175E-001	9.09668E-005	0.00000E+000	7.89751E-005	5.39641E-002	8.68396E-001	3.57390E+000	9	...........
	98	1.32	8.70801E-001	9.09293E-005	0.00000E+000	7.91813E-005	5.39641E-002	8.70998E-001	3.57390E+000	9	...........
	99	1.33333	8.73358E-001	9.10970E-005	0.00000E+000	7.95603E-005	5.39641E-002	8.73572E-001	3.57390E+000	9	...........
	100	1.34667	8.75875E-001	9.11470E-005	0.00000E+000	7.98334E-005	5.39641E-002	8.76108E-001	3.57390E+000	9	...........
	101	1.36	8.78405E-001	9.13387E-005	0.00000E+000	8.02324E-005	5.39641E-002	8.78606E-001	3.57390E+000	9	...........
	102	1.37333	8.80894E-001	9.12721E-005	0.00000E+000	8.04011E-005	5.39641E-002	8.81093E-001	3.57390E+000	9	...........
	103	1.38667	8.83404E-001	9.09647E-005	0.00000E+000	8.03586E-005	5.39641E-002	8.83577E-001	3.57390E+000	9	...........
	104	1.4	8.85833E-001	9.10762E-005	0.00000E+000	8.06783E-005	5.39641E-002	8.86022E-001	3.57390E+000	9	...........
	105	1.41333	8.88211E-001	9.11741E-005	0.00000E+000	8.09819E-005	5.39641E-002	8.88430E-001	3.57390E+000	9	...........
	106	1.42667	8.90588E-001	9.09939E-005	0.00000E+000	8.10381E-005	5.39641E-002	8.90788E-001	3.57390E+000	9	...........
	107	1.44	8.92944E-001	9.10595E-005	0.00000E+000	8.13111E-005	5.39641E-002	8.93163E-001	3.57390E+000	9	...........
	108	1.45333	8.95256E-001	9.08407E-005	0.00000E+000	8.13257E-005	5.39641E-002	8.95487E-001	3.57390E+000	9	...........
	109	1.46667	8.97578E-001	9.07136E-005	0.00000E+000	8.14226E-005	5.39641E-002	8.97775E-001	3.57390E+000	9	...........
	110	1.48	8.99846E-001	9.07438E-005	0.00000E+000	8.16555E-005	5.39641E-002	9.00052E-001	3.57390E+000	9	...........
	111	1.49333	9.02116E-001	9.08762E-005	0.00000E+000	8.19808E-005	5.39641E-002	9.02313E-001	3.57390E+000	9	...........
	112	1.50667	9.04337E-001	9.08105E-005	0.00000E+000	8.21233E-005	5.39641E-002	9.04530E-001	3.57390E+000	9	...........
	113	1.52	9.06536E-001	9.11418E-005	0.00000E+000	8.26234E-005	5.39641E-002	9.06738E-001	3.57390E+000	9	...........
	114	1.53333	9.08765E-001	9.09689E-005	0.00000E+000	8.26693E-005	5.39641E-002	9.08955E-001	3.57390E+000	9	...........
	115	1.54667	9.10942E-001	9.09897E-005	0.00000E+000	8.28863E-005	5.39641E-002	9.11125E-001	3.57390E+000	9	...........
	116	1.56	9.13088E-001	9.13137E-005	0.00000E+000	8.33775E-005	5.39641E-002	9.13274E-001	3.57390E+000	9	...........
	117	1.57333	9.15233E-001	9.08907E-005	0.00000E+000	8.31862E-005	5.39641E-002	9.15424E-001	3.57390E+000	9	...........
	118	1.58667	9.17353E-001	9.09178E-005	0.00000E+000	8.34037E-005	5.39641E-002	9.17542E-001	3.57390E+000	9	...........
	119	1.6	9.19418E-001	9.09710E-005	0.00000E+000	8.36403E-005	5.39641E-002	9.19610E-001	3.57390E+000	9	...........
	120	1.61333	9.21555E-001	9.11741E-005	0.00000E+000	8.40219E-005	5.39641E-002	9.21695E-001	3.57390E+000	9	...........
	121	1.62667	9.23615E-001	9.10116E-005	0.00000E+000	8.40597E-005	5.39641E-002	9.23762E-001	3.57390E+000	9	...........
	122	1.64	9.25614E-001	9.10824E-005	0.00000E+000	8.43071E-005	5.39641E-002	9.25768E-001	3.57390E+000	9	...........
	123	1.65333	9.27614E-001	9.11377E-005	0.00000E+000	8.45406E-005	5.39641E-002	9.27804E-001	3.57390E+000	9	...........
	124	1.66667	9.29587E-001	9.09407E-005	0.00000E+000	8.45374E-005	5.39641E-002	9.29759E-001	3.57390E+000	9	...........
	125	1.68	9.31577E-001	9.10147E-005	0.00000E+000	8.47872E-005	5.39641E-002	9.31733E-001	3.57390E+000	9	...........
	126	1.69333	9.33509E-001	9.10866E-005	0.00000E+000	8.50302E-005	5.39641E-002	9.33688E-001	3.57390E+000	9	...........
	127	1.70667	9.35456E-001	9.11689E-005	0.00000E+000	8.52845E-005	5.39641E-002	9.35615E-001	3.57390E+000	9	...........
	128	1.72	9.37323E-001	9.09949E-005	0.00000E+000	8.52916E-005	5.39641E-002	9.37518E-001	3.57390E+000	9	...........
	129	1.73333	9.39187E-001	9.10053E-005	0.00000E+000	8.54711E-005	5.39641E-002	9.39350E-001	3.57390E+000	9	...........
	130	1.74667	9.41042E-001	9.08824E-005	0.00000E+000	8.55241E-005	5.39641E-002	9.41171E-001	3.57390E+000	9	...........
	131	1.76	9.42860E-001	9.08345E-005	0.00000E+000	8.56442E-005	5.39641E-002	9.43011E-001	3.57390E+000	9	...........
	132	1.77333	9.44691E-001	9.09241E-005	0.00000E+000	8.58951E-005	5.39641E-002	9.44841E-001	3.57390E+000	9	...........
	133	1.78667	9.46551E-001	9.12523E-005	0.00000E+000	8.63749E-005	5.39641E-002	9.46691E-001	3.57390E+000	9	...........
	134	1.8	9.48346E-001	9.12002E-005	0.00000E+000	8.64893E-005	5.39641E-002	9.48514E-001	3.57390E+000	9	...........
	135	1.81333	9.50108E-001	9.09866E-005	0.00000E+000	8.64470E-005	5.39641E-002	9.50288E-001	3.57390E+000	9	...........
	136	1.82667	9.51842E-001	9.11575E-005	0.00000E+000	8.67675E-005	5.39641E-002	9.52039E-001	3.57390E+000	9	...........
	137	1.84	9.53578E-001	9.11908E-005	0.00000E+000	8.69575E-005	5.39641E-002	9.53764E-001	3.57390E+000	9	...........
	138	1.85333	9.55246E-001	9.10574E-005	0.00000E+000	8.69822E-005	5.39641E-002	9.55455E-001	3.57390E+000	9	...........
	139	1.86667	9.56940E-001	9.10689E-005	0.00000E+000	8.71475E-005	5.39641E-002	9.57126E-001	3.57390E+000	9	...........
	140	1.88	9.58604E-001	9.09314E-005	0.00000E+000	8.71672E-005	5.39641E-002	9.58840E-001	3.57390E+000	9	...........
	141	1.89333	9.60271E-001	9.09324E-005	0.00000E+000	8.73198E-005	5.39641E-002	9.60488E-001	3.57390E+000	9	...........
	142	1.90667	9.61916E-001	9.10658E-005	0.00000E+000	8.75976E-005	5.39641E-002	9.62135E-001	3.57390E+000	9	...........
	143	1.92	9.63540E-001	9.09345E-005	0.00000E+000	8.76190E-005	5.39641E-002	9.63770E-001	3.57355E+000	9	...........
	144	1.93333	9.65142E-001	9.11335E-005	0.00000E+000	8.79568E-005	5.39641E-002	9.65360E-001	3.57250E+000	9	...........
	145	1.94667	9.66745E-001	9.10064E-005	0.00000E+000	8.79800E-005	5.39641E-002	9.66955E-001	3.57250E+000	9	...........
	146	1.96	9.68309E-001	9.12096E-005	0.00000E+000	8.83191E-005	5.39641E-002	9.68540E-001	3.57250E+000	9	...........
	147	1.97333	9.69876E-001	9.09355E-005	0.00000E+000	8.81962E-005	5.39641E-002	9.70101E-001	3.57250E+000	9	...........
	148	1.98667	9.71418E-001	9.07949E-005	0.00000E+000	8.81998E-005	5.39641E-002	9.71666E-001	3.57250E+000	9	...........
	149	2	9.73027E-001	9.09168E-005	0.00000E+000	8.84645E-005	5.39641E-002	9.73235E-001	3.57250E+000	9	...........
	150	2.01333	9.74558E-001	9.10991E-005	0.00000E+000	8.87814E-005	5.39641E-002	9.74770E-001	3.57250E+000	9	...........
	151	2.02667	9.76070E-001	9.11793E-005	0.00000E+000	8.89974E-005	5.39641E-002	9.76283E-001	3.57250E+000	9	...........
	152	2.04	9.77560E-001	9.10043E-005	0.00000E+000	8.89622E-005	5.39641E-002	9.77776E-001	3.57250E+000	9	...........
	153	2.05333	9.79026E-001	9.09991E-005	0.00000E+000	8.90905E-005	5.39641E-002	9.79246E-001	3.57250E+000	9	...........
	154	2.06667	9.80465E-001	9.09689E-005	0.00000E+000	8.91918E-005	5.39641E-002	9.80666E-001	3.57250E+000	9	...........
	155	2.08	9.81883E-001	9.10199E-005	0.00000E+000	8.93709E-005	5.39641E-002	9.82104E-001	3.57250E+000	9	...........
	156	2.09333	9.83320E-001	9.09105E-005	0.00000E+000	8.93941E-005	5.39641E-002	9.83529E-001	3.57250E+000	9	...........
	157	2.10667	9.84755E-001	9.12127E-005	0.00000E+000	8.98222E-005	5.39641E-002	9.84974E-001	3.57250E+000	9	...........
	158	2.12	9.86158E-001	9.11502E-005	0.00000E+000	8.98885E-005	5.39641E-002	9.86365E-001	3.57250E+000	9	...........
	159	2.13333	9.87505E-001	9.10793E-005	0.00000E+000	8.99413E-005	5.39641E-002	9.87742E-001	3.57250E+000	9	...........
	160	2.14667	9.88908E-001	9.09428E-005	0.00000E+000	8.99341E-005	5.39641E-002	9.89084E-001	3.57250E+000	9	...........
	161	2.16	9.90262E-001	9.10689E-005	0.00000E+000	9.01821E-005	5.39641E-002	9.90465E-001	3.57250E+000	9	...........
	162	2.17333	9.91594E-001	9.07865E-005	0.00000E+000	9.00234E-005	5.39641E-002	9.91799E-001	3.57250E+000	9	...........
	163	2.18667	9.92886E-001	9.10939E-005	0.00000E+000	9.04458E-005	5.39641E-002	9.93127E-001	3.57250E+000	9	...........
	164	2.2	9.94209E-001	9.11335E-005	0.00000E+000	9.06057E-005	5.39641E-002	9.94405E-001	3.57250E+000	9	...........
	165	2.21333	9.95517E-001	9.09980E-005	0.00000E+000	9.05901E-005	5.39641E-002	9.95697E-001	3.57250E+000	9	...........
	166	2.22667	9.96767E-001	9.10116E-005	0.00000E+000	9.07174E-005	5.39641E-002	9.96991E-001	3.57250E+000	9	...........
	167	2.24	9.98057E-001	9.13346E-005	0.00000E+000	9.11571E-005	5.39641E-002	9.98269E-001	3.57250E+000	9	...........
	168	2.25333	9.99341E-001	9.12481E-005	0.00000E+000	9.11880E-005	5.39641E-002	9.99551E-001	3.57250E+000	9	...........
	169	2.255	1.00008E+000	9.03625E-005	0.00000E+000	9.03694E-005	5.39641E-002	1.00025E+000	3.57250E+000	9	...........
STARTTIMEOFFSET	QUANT	2119.493	Start Time Offset (s)
