EXPLAIN
TAG	PWR800_CHARGE
TITLE	LABEL	PWR Cyclic Charge Discharge (Cell) - Charge Step	Test &Identifier
DATE	LABEL	10-7-2017	Date
TIME	LABEL	15:43:21	Time
NOTES	NOTES	3	&Notes...
	supercap test cell
	0.9mg
	6M KOH
PSTAT	PSTAT	IFC5000-01520	Potentiostat
CAPACITY	QUANT	1.00000E-003	Capacity (A-hr)
CELLTYPE	SELECTOR	1	&Cell Type
WORKINGCONNECTION	SELECTOR	0	&Working Lead
MAXCHARGETIME	VARIABLEANDUNITS	1.00000E+002	s	1.00000E+002	second(s)	Max &Charge Time
CHARGECURRENT	QUANT	9.00000E-005	&Charge Current (A) 
VOLTAGEFINISH	TWOPARAM	F	1.00000E-003	3.60000E+003	&Voltage Finish	 I (A) < 	Max Time(s)
SAMPLETIME	QUANT	1.00000E-002	Sa&mple Period (s)
CHARGESTOPAT1	MULTIPARAM	4	1.00000E+000	Charge Stop At &1	Voltage > Limit	V
CHARGESTOPAT2	MULTIPARAM	0	0.00000E+000	Charge Stop At &2	None	N/A
AESBHCSELECTOR	TOGGLE	F	Save Both Half Cells
IRCOMP	TOGGLE	F	IR &Measure
EOC	QUANT	0	Open Circuit (V)
SEQUENCER	TOGGLE	TRUE	Run as Sequence
PSTATMODEL	IQUANT	53	Pstat Model
PSTATSECTION	LABEL	IFC5000-01520	Pstat Section
PSTATSERIALNO	LABEL	01520	Pstat Serial Number
CTRLMODE	IQUANT	0	Control Mode
ELECTROMETER	IQUANT	1	RE=0 or CS=1
IESTAB	IQUANT	0	I/E Stability
CASPEED	IQUANT	4	Control Amp Speed
CONVENTION	IQUANT	1	Current Convention
ICHRANGE	IQUANT	2	Ich Range
ICHRANGEMODE	TOGGLE	T	Ich Auto Range
ICHOFFSETENABLE	TOGGLE	F	Ich Offset Enable
ICHOFFSET	QUANT	0	Ich Offset (V)
ICHFILTER	IQUANT	1	Ich Filter
VCHRANGE	IQUANT	2	Vch Range
VCHRANGEMODE	TOGGLE	T	Vch Auto Range
VCHOFFSETENABLE	TOGGLE	F	Vch Offset Enable
VCHOFFSET	QUANT	0	Vch Offset (V)
VCHFILTER	IQUANT	1	Vch Filter
IERANGELOWERLIMIT	IQUANT	9	I/E Range Lower Limit
IERANGEMODE	TOGGLE	F	I/E AutoRange
IERANGE	IQUANT	9	I/E Range
ACHSELECT	IQUANT	1	Ach Select
ACHRANGE	IQUANT	2	Ach Range
ACHOFFSETENABLE	TOGGLE	F	Ach Offset Enable
ACHOFFSET	QUANT	0	Ach Offset (V)
ACHFILTER	IQUANT	1	Ach Filter
CABLEID	IQUANT	14	Cable ID
DCCALDATE	LABEL	5-7-2017	DC Calibration Date
ACCALDATE	LABEL	12/3/2015	AC Calibration Date
FRAMEWORKVERSION	QUANT	7.01	Framework Version
INSTRUMENTVERSION	LABEL	4.00	Instrument Version
CURVE	TABLE	169
	Pt	T	Vf	Im	Vu	Pwr	Sig	Ach	Temp	IERange	Over
	#	s	V	A	V	W	V	V	deg C	#	bits
	0	0.013333	2.69641E-001	9.10428E-005	0.00000E+000	2.45489E-005	5.39641E-002	2.69684E-001	3.57290E+000	9	...........
	1	0.026667	2.89425E-001	9.09605E-005	0.00000E+000	2.63262E-005	5.39641E-002	2.89462E-001	3.57290E+000	9	...........
	2	0.04	3.07894E-001	9.09282E-005	0.00000E+000	2.79963E-005	5.39641E-002	3.07935E-001	3.57290E+000	9	...........
	3	0.053333	3.25233E-001	9.08157E-005	0.00000E+000	2.95362E-005	5.39641E-002	3.25274E-001	3.57290E+000	9	...........
	4	0.066667	3.41575E-001	9.09282E-005	0.00000E+000	3.10588E-005	5.39641E-002	3.41622E-001	3.57290E+000	9	...........
	5	0.08	3.57044E-001	9.09585E-005	0.00000E+000	3.24762E-005	5.39641E-002	3.57093E-001	3.57290E+000	9	...........
	6	0.093333	3.71733E-001	9.09543E-005	0.00000E+000	3.38108E-005	5.39641E-002	3.71778E-001	3.57290E+000	9	...........
	7	0.106667	3.85719E-001	9.06917E-005	0.00000E+000	3.49816E-005	5.39641E-002	3.85769E-001	3.57290E+000	9	...........
	8	0.12	3.99065E-001	9.09407E-005	0.00000E+000	3.62912E-005	5.39641E-002	3.99119E-001	3.57290E+000	9	...........
	9	0.133333	4.11818E-001	9.11220E-005	0.00000E+000	3.75257E-005	5.39641E-002	4.11871E-001	3.57290E+000	9	...........
	10	0.146667	4.24037E-001	9.11741E-005	0.00000E+000	3.86612E-005	5.39641E-002	4.24101E-001	3.57290E+000	9	...........
	11	0.16	4.35764E-001	9.08480E-005	0.00000E+000	3.95883E-005	5.39641E-002	4.35828E-001	3.57290E+000	9	...........
	12	0.173333	4.47043E-001	9.08699E-005	0.00000E+000	4.06228E-005	5.39641E-002	4.47107E-001	3.57290E+000	9	...........
	13	0.186667	4.57905E-001	9.10814E-005	0.00000E+000	4.17066E-005	5.39641E-002	4.57968E-001	3.57290E+000	9	...........
	14	0.2	4.68382E-001	9.09793E-005	0.00000E+000	4.26131E-005	5.39641E-002	4.68444E-001	3.57290E+000	9	...........
	15	0.213333	4.78478E-001	9.08897E-005	0.00000E+000	4.34887E-005	5.39641E-002	4.78545E-001	3.57290E+000	9	...........
	16	0.226667	4.88244E-001	9.09616E-005	0.00000E+000	4.44114E-005	5.39641E-002	4.88311E-001	3.57290E+000	9	...........
	17	0.24	4.97685E-001	9.07803E-005	0.00000E+000	4.51800E-005	5.39641E-002	4.97760E-001	3.57290E+000	9	...........
	18	0.253333	5.06833E-001	9.12200E-005	0.00000E+000	4.62333E-005	5.39641E-002	5.06909E-001	3.57290E+000	9	...........
	19	0.266667	5.15694E-001	9.09876E-005	0.00000E+000	4.69218E-005	5.39641E-002	5.15770E-001	3.57290E+000	9	...........
	20	0.28	5.24288E-001	9.11304E-005	0.00000E+000	4.77786E-005	5.39641E-002	5.24361E-001	3.57290E+000	9	...........
	21	0.293333	5.32588E-001	9.08959E-005	0.00000E+000	4.84101E-005	5.39641E-002	5.32677E-001	3.57290E+000	9	...........
	22	0.306667	5.40669E-001	9.08439E-005	0.00000E+000	4.91164E-005	5.39641E-002	5.40767E-001	3.57290E+000	9	...........
	23	0.32	5.48552E-001	9.11418E-005	0.00000E+000	4.99960E-005	5.39641E-002	5.48684E-001	3.57290E+000	9	...........
	24	0.333333	5.56248E-001	9.08709E-005	0.00000E+000	5.05468E-005	5.39641E-002	5.56364E-001	3.57290E+000	9	...........
	25	0.346667	5.63752E-001	9.08595E-005	0.00000E+000	5.12222E-005	5.39641E-002	5.63876E-001	3.57290E+000	9	...........
	26	0.36	5.71075E-001	9.11116E-005	0.00000E+000	5.20316E-005	5.39641E-002	5.71178E-001	3.57290E+000	9	...........
	27	0.373333	5.78195E-001	9.10449E-005	0.00000E+000	5.26417E-005	5.39641E-002	5.78297E-001	3.57290E+000	9	...........
	28	0.386667	5.85116E-001	9.08814E-005	0.00000E+000	5.31762E-005	5.39641E-002	5.85233E-001	3.57290E+000	9	...........
	29	0.4	5.91921E-001	9.07657E-005	0.00000E+000	5.37262E-005	5.39641E-002	5.92045E-001	3.57290E+000	9	...........
	30	0.413333	5.98539E-001	9.11543E-005	0.00000E+000	5.45594E-005	5.39641E-002	5.98648E-001	3.57290E+000	9	...........
	31	0.426667	6.04994E-001	9.08845E-005	0.00000E+000	5.49845E-005	5.39641E-002	6.05123E-001	3.57290E+000	9	...........
	32	0.44	6.11322E-001	9.07855E-005	0.00000E+000	5.54992E-005	5.39641E-002	6.11458E-001	3.57290E+000	9	...........
	33	0.453333	6.17613E-001	9.09262E-005	0.00000E+000	5.61572E-005	5.39641E-002	6.17697E-001	3.57290E+000	9	...........
	34	0.466667	6.23666E-001	9.11345E-005	0.00000E+000	5.68375E-005	5.39641E-002	6.23772E-001	3.57297E+000	9	...........
	35	0.48	6.29593E-001	9.10668E-005	0.00000E+000	5.73350E-005	5.39641E-002	6.29718E-001	3.57310E+000	9	...........
	36	0.493333	6.35400E-001	9.08970E-005	0.00000E+000	5.77559E-005	5.39641E-002	6.35531E-001	3.57310E+000	9	...........
	37	0.506667	6.41161E-001	9.09887E-005	0.00000E+000	5.83384E-005	5.39641E-002	6.41288E-001	3.57310E+000	9	...........
	38	0.52	6.46778E-001	9.10595E-005	0.00000E+000	5.88953E-005	5.39641E-002	6.46901E-001	3.57310E+000	9	...........
	39	0.533333	6.52294E-001	9.08209E-005	0.00000E+000	5.92419E-005	5.39641E-002	6.52412E-001	3.57310E+000	9	...........
	40	0.546667	6.57721E-001	9.10220E-005	0.00000E+000	5.98671E-005	5.39641E-002	6.57802E-001	3.57310E+000	9	...........
	41	0.56	6.63015E-001	9.10012E-005	0.00000E+000	6.03352E-005	5.39641E-002	6.63127E-001	3.57310E+000	9	...........
	42	0.573333	6.68260E-001	9.10606E-005	0.00000E+000	6.08521E-005	5.39641E-002	6.68343E-001	3.57310E+000	9	...........
	43	0.586667	6.73360E-001	9.09699E-005	0.00000E+000	6.12555E-005	5.39641E-002	6.73463E-001	3.57310E+000	9	...........
	44	0.6	6.78377E-001	9.07761E-005	0.00000E+000	6.15805E-005	5.39641E-002	6.78505E-001	3.57310E+000	9	...........
	45	0.613333	6.83335E-001	9.13940E-005	0.00000E+000	6.24527E-005	5.39641E-002	6.83434E-001	3.57310E+000	9	...........
	46	0.626667	6.88184E-001	9.09334E-005	0.00000E+000	6.25790E-005	5.39641E-002	6.88292E-001	3.57310E+000	9	...........
	47	0.64	6.92995E-001	9.10856E-005	0.00000E+000	6.31218E-005	5.39641E-002	6.93088E-001	3.57310E+000	9	...........
	48	0.653333	6.97723E-001	9.09491E-005	0.00000E+000	6.34573E-005	5.39641E-002	6.97840E-001	3.57310E+000	9	...........
	49	0.666667	7.02337E-001	9.08616E-005	0.00000E+000	6.38155E-005	5.39641E-002	7.02458E-001	3.57310E+000	9	...........
	50	0.68	7.06894E-001	9.12981E-005	0.00000E+000	6.45381E-005	5.39641E-002	7.07015E-001	3.57310E+000	9	...........
	51	0.693333	7.11389E-001	9.09626E-005	0.00000E+000	6.47098E-005	5.39641E-002	7.11510E-001	3.57310E+000	9	...........
	52	0.706667	7.15849E-001	9.13429E-005	0.00000E+000	6.53877E-005	5.39641E-002	7.15958E-001	3.57310E+000	9	...........
	53	0.72	7.20255E-001	9.08084E-005	0.00000E+000	6.54052E-005	5.39641E-002	7.20336E-001	3.57310E+000	9	...........
	54	0.733333	7.24543E-001	9.11158E-005	0.00000E+000	6.60173E-005	5.39641E-002	7.24644E-001	3.57310E+000	9	...........
	55	0.746667	7.28765E-001	9.09533E-005	0.00000E+000	6.62835E-005	5.39641E-002	7.28874E-001	3.57310E+000	9	...........
	56	0.76	7.32947E-001	9.11439E-005	0.00000E+000	6.68037E-005	5.39641E-002	7.33061E-001	3.57310E+000	9	...........
	57	0.773333	7.37079E-001	9.08063E-005	0.00000E+000	6.69314E-005	5.39641E-002	7.37171E-001	3.57310E+000	9	...........
	58	0.786667	7.41154E-001	9.09501E-005	0.00000E+000	6.74081E-005	5.39641E-002	7.41249E-001	3.57310E+000	9	...........
	59	0.8	7.45181E-001	9.09126E-005	0.00000E+000	6.77463E-005	5.39641E-002	7.45279E-001	3.57310E+000	9	...........
	60	0.813333	7.49150E-001	9.11439E-005	0.00000E+000	6.82804E-005	5.39641E-002	7.49264E-001	3.57310E+000	9	...........
	61	0.826667	7.53061E-001	9.12148E-005	0.00000E+000	6.86903E-005	5.39641E-002	7.53146E-001	3.57310E+000	9	...........
	62	0.84	7.56922E-001	9.11158E-005	0.00000E+000	6.89676E-005	5.39641E-002	7.57041E-001	3.57310E+000	9	...........
	63	0.853333	7.60745E-001	9.09741E-005	0.00000E+000	6.92081E-005	5.39641E-002	7.60852E-001	3.57310E+000	9	...........
	64	0.866667	7.64519E-001	9.11689E-005	0.00000E+000	6.97004E-005	5.39641E-002	7.64654E-001	3.57310E+000	9	...........
	65	0.88	7.68244E-001	9.10178E-005	0.00000E+000	6.99239E-005	5.39641E-002	7.68396E-001	3.57310E+000	9	...........
	66	0.893333	7.71920E-001	9.06699E-005	0.00000E+000	6.99899E-005	5.39641E-002	7.72052E-001	3.57310E+000	9	...........
	67	0.906667	7.75554E-001	9.09793E-005	0.00000E+000	7.05594E-005	5.39641E-002	7.75671E-001	3.57310E+000	9	...........
	68	0.92	7.79129E-001	9.07292E-005	0.00000E+000	7.06898E-005	5.39641E-002	7.79294E-001	3.57310E+000	9	...........
	69	0.933333	7.82704E-001	9.11106E-005	0.00000E+000	7.13127E-005	5.39641E-002	7.82837E-001	3.57310E+000	9	...........
	70	0.946667	7.86193E-001	9.10918E-005	0.00000E+000	7.16158E-005	5.39641E-002	7.86319E-001	3.57310E+000	9	...........
	71	0.96	7.89660E-001	9.09866E-005	0.00000E+000	7.18484E-005	5.39641E-002	7.89799E-001	3.57310E+000	9	...........
	72	0.97333	7.93121E-001	9.10147E-005	0.00000E+000	7.21857E-005	5.39641E-002	7.93265E-001	3.57310E+000	9	...........
	73	0.98667	7.96545E-001	9.09855E-005	0.00000E+000	7.24740E-005	5.39641E-002	7.96640E-001	3.57310E+000	9	...........
	74	1	7.99885E-001	9.13325E-005	0.00000E+000	7.30554E-005	5.39641E-002	7.99982E-001	3.57310E+000	9	...........
	75	1.01333	8.03180E-001	9.12356E-005	0.00000E+000	7.32786E-005	5.39641E-002	8.03319E-001	3.57310E+000	9	...........
	76	1.02667	8.06442E-001	9.08543E-005	0.00000E+000	7.32687E-005	5.39641E-002	8.06620E-001	3.57310E+000	9	...........
	77	1.04	8.09684E-001	9.08918E-005	0.00000E+000	7.35937E-005	5.39641E-002	8.09813E-001	3.57310E+000	9	...........
	78	1.05333	8.12867E-001	9.12116E-005	0.00000E+000	7.41429E-005	5.39641E-002	8.13047E-001	3.57310E+000	9	...........
	79	1.06667	8.16053E-001	9.11585E-005	0.00000E+000	7.43902E-005	5.39641E-002	8.16246E-001	3.57310E+000	9	...........
	80	1.08	8.19239E-001	9.08282E-005	0.00000E+000	7.44100E-005	5.39641E-002	8.19406E-001	3.57310E+000	9	...........
	81	1.09333	8.22333E-001	9.09137E-005	0.00000E+000	7.47613E-005	5.39641E-002	8.22495E-001	3.57310E+000	9	...........
	82	1.10667	8.25398E-001	9.09199E-005	0.00000E+000	7.50451E-005	5.39641E-002	8.25575E-001	3.57310E+000	9	...........
	83	1.12	8.28429E-001	9.10001E-005	0.00000E+000	7.53871E-005	5.39641E-002	8.28583E-001	3.57310E+000	9	...........
	84	1.13333	8.31459E-001	9.10106E-005	0.00000E+000	7.56715E-005	5.39641E-002	8.31617E-001	3.57310E+000	9	...........
	85	1.14667	8.34431E-001	9.09876E-005	0.00000E+000	7.59229E-005	5.39641E-002	8.34595E-001	3.57310E+000	9	...........
	86	1.16	8.37371E-001	9.08866E-005	0.00000E+000	7.61058E-005	5.39641E-002	8.37548E-001	3.57310E+000	9	...........
	87	1.17333	8.40297E-001	9.10981E-005	0.00000E+000	7.65494E-005	5.39641E-002	8.40472E-001	3.57310E+000	9	...........
	88	1.18667	8.43191E-001	9.09501E-005	0.00000E+000	7.66883E-005	5.39641E-002	8.43377E-001	3.57310E+000	9	...........
	89	1.2	8.46060E-001	9.09241E-005	0.00000E+000	7.69273E-005	5.39641E-002	8.46258E-001	3.57310E+000	9	...........
	90	1.21333	8.48869E-001	9.09699E-005	0.00000E+000	7.72215E-005	5.39641E-002	8.49069E-001	3.57310E+000	9	...........
	91	1.22667	8.51684E-001	9.10949E-005	0.00000E+000	7.75841E-005	5.39641E-002	8.51842E-001	3.57310E+000	9	...........
	92	1.24	8.54426E-001	9.10991E-005	0.00000E+000	7.78375E-005	5.39641E-002	8.54601E-001	3.57310E+000	9	...........
	93	1.25333	8.57177E-001	9.09699E-005	0.00000E+000	7.79773E-005	5.39641E-002	8.57373E-001	3.57310E+000	9	...........
	94	1.26667	8.59892E-001	9.10981E-005	0.00000E+000	7.83345E-005	5.39641E-002	8.60069E-001	3.57310E+000	9	...........
	95	1.28	8.62585E-001	9.09282E-005	0.00000E+000	7.84334E-005	5.39641E-002	8.62776E-001	3.57310E+000	9	...........
	96	1.29333	8.65252E-001	9.11960E-005	0.00000E+000	7.89076E-005	5.39641E-002	8.65441E-001	3.57310E+000	9	...........
	97	1.30667	8.67900E-001	9.09324E-005	0.00000E+000	7.89202E-005	5.39641E-002	8.68113E-001	3.57310E+000	9	...........
	98	1.32	8.70562E-001	9.08241E-005	0.00000E+000	7.90680E-005	5.39641E-002	8.70742E-001	3.57310E+000	9	...........
	99	1.33333	8.73133E-001	9.12168E-005	0.00000E+000	7.96444E-005	5.39641E-002	8.73312E-001	3.57310E+000	9	...........
	100	1.34667	8.75679E-001	9.09512E-005	0.00000E+000	7.96440E-005	5.39641E-002	8.75871E-001	3.57310E+000	9	...........
	101	1.36	8.78225E-001	9.09397E-005	0.00000E+000	7.98655E-005	5.39641E-002	8.78376E-001	3.57310E+000	9	...........
	102	1.37333	8.80704E-001	9.07730E-005	0.00000E+000	7.99442E-005	5.39641E-002	8.80886E-001	3.57310E+000	9	...........
	103	1.38667	8.83192E-001	9.09428E-005	0.00000E+000	8.03199E-005	5.39641E-002	8.83381E-001	3.57310E+000	9	...........
	104	1.4	8.85644E-001	9.10637E-005	0.00000E+000	8.06500E-005	5.39641E-002	8.85814E-001	3.57310E+000	9	...........
	105	1.41333	8.88052E-001	9.11898E-005	0.00000E+000	8.09813E-005	5.39641E-002	8.88248E-001	3.57310E+000	9	...........
	106	1.42667	8.90491E-001	9.08918E-005	0.00000E+000	8.09383E-005	5.39641E-002	8.90662E-001	3.57310E+000	9	...........
	107	1.44	8.92860E-001	9.11720E-005	0.00000E+000	8.14039E-005	5.39641E-002	8.93054E-001	3.57310E+000	9	...........
	108	1.45333	8.95227E-001	9.09814E-005	0.00000E+000	8.14490E-005	5.39641E-002	8.95442E-001	3.57310E+000	9	...........
	109	1.46667	8.97562E-001	9.08928E-005	0.00000E+000	8.15819E-005	5.39641E-002	8.97760E-001	3.57288E+000	9	...........
	110	1.48	8.99879E-001	9.10470E-005	0.00000E+000	8.19313E-005	5.39641E-002	9.00073E-001	3.57250E+000	9	...........
	111	1.49333	9.02159E-001	9.08657E-005	0.00000E+000	8.19753E-005	5.39641E-002	9.02372E-001	3.57250E+000	9	...........
	112	1.50667	9.04392E-001	9.10251E-005	0.00000E+000	8.23224E-005	5.39641E-002	9.04583E-001	3.57250E+000	9	...........
	113	1.52	9.06592E-001	9.11147E-005	0.00000E+000	8.26039E-005	5.39641E-002	9.06808E-001	3.57250E+000	9	...........
	114	1.53333	9.08834E-001	9.08991E-005	0.00000E+000	8.26121E-005	5.39641E-002	9.09044E-001	3.57250E+000	9	...........
	115	1.54667	9.11032E-001	9.07220E-005	0.00000E+000	8.26506E-005	5.39641E-002	9.11202E-001	3.57250E+000	9	...........
	116	1.56	9.13178E-001	9.10231E-005	0.00000E+000	8.31202E-005	5.39641E-002	9.13398E-001	3.57250E+000	9	...........
	117	1.57333	9.15317E-001	9.08991E-005	0.00000E+000	8.32015E-005	5.39641E-002	9.15552E-001	3.57250E+000	9	...........
	118	1.58667	9.17471E-001	9.08459E-005	0.00000E+000	8.33485E-005	5.39641E-002	9.17693E-001	3.57250E+000	9	...........
	119	1.6	9.19579E-001	9.09647E-005	0.00000E+000	8.36492E-005	5.39641E-002	9.19804E-001	3.57250E+000	9	...........
	120	1.61333	9.21720E-001	9.09668E-005	0.00000E+000	8.38459E-005	5.39641E-002	9.21915E-001	3.57250E+000	9	...........
	121	1.62667	9.23785E-001	9.10324E-005	0.00000E+000	8.40944E-005	5.39641E-002	9.23962E-001	3.57250E+000	9	...........
	122	1.64	9.25815E-001	9.11866E-005	0.00000E+000	8.44219E-005	5.39641E-002	9.25997E-001	3.57250E+000	9	...........
	123	1.65333	9.27846E-001	9.09064E-005	0.00000E+000	8.43471E-005	5.39641E-002	9.28023E-001	3.57250E+000	9	...........
	124	1.66667	9.29813E-001	9.11991E-005	0.00000E+000	8.47981E-005	5.39641E-002	9.30010E-001	3.57250E+000	9	...........
	125	1.68	9.31803E-001	9.08595E-005	0.00000E+000	8.46632E-005	5.39641E-002	9.31984E-001	3.57250E+000	9	...........
	126	1.69333	9.33748E-001	9.10543E-005	0.00000E+000	8.50218E-005	5.39641E-002	9.33935E-001	3.57250E+000	9	...........
	127	1.70667	9.35681E-001	9.07688E-005	0.00000E+000	8.49307E-005	5.39641E-002	9.35879E-001	3.57250E+000	9	...........
	128	1.72	9.37592E-001	9.11825E-005	0.00000E+000	8.54919E-005	5.39641E-002	9.37784E-001	3.57250E+000	9	...........
	129	1.73333	9.39484E-001	9.11377E-005	0.00000E+000	8.56223E-005	5.39641E-002	9.39685E-001	3.57250E+000	9	...........
	130	1.74667	9.41361E-001	9.13117E-005	0.00000E+000	8.59572E-005	5.39641E-002	9.41539E-001	3.57250E+000	9	...........
	131	1.76	9.43191E-001	9.09220E-005	0.00000E+000	8.57568E-005	5.39641E-002	9.43381E-001	3.57250E+000	9	...........
	132	1.77333	9.45002E-001	9.11970E-005	0.00000E+000	8.61814E-005	5.39641E-002	9.45203E-001	3.57250E+000	9	...........
	133	1.78667	9.46858E-001	9.10783E-005	0.00000E+000	8.62382E-005	5.39641E-002	9.47058E-001	3.57250E+000	9	...........
	134	1.8	9.48666E-001	9.07605E-005	0.00000E+000	8.61014E-005	5.39641E-002	9.48878E-001	3.57250E+000	9	...........
	135	1.81333	9.50486E-001	9.10064E-005	0.00000E+000	8.65003E-005	5.39641E-002	9.50679E-001	3.57250E+000	9	...........
	136	1.82667	9.52243E-001	9.08324E-005	0.00000E+000	8.64945E-005	5.39641E-002	9.52444E-001	3.57250E+000	9	...........
	137	1.84	9.54018E-001	9.09824E-005	0.00000E+000	8.67988E-005	5.39641E-002	9.54195E-001	3.57250E+000	9	...........
	138	1.85333	9.55761E-001	9.10553E-005	0.00000E+000	8.70271E-005	5.39641E-002	9.55930E-001	3.57250E+000	9	...........
	139	1.86667	9.57454E-001	9.11054E-005	0.00000E+000	8.72292E-005	5.39641E-002	9.57623E-001	3.57250E+000	9	...........
	140	1.88	9.59156E-001	9.10356E-005	0.00000E+000	8.73173E-005	5.39641E-002	9.59349E-001	3.57250E+000	9	...........
	141	1.89333	9.60813E-001	9.09449E-005	0.00000E+000	8.73810E-005	5.39641E-002	9.61034E-001	3.57250E+000	9	...........
	142	1.90667	9.62480E-001	9.10595E-005	0.00000E+000	8.76429E-005	5.39641E-002	9.62671E-001	3.57250E+000	9	...........
	143	1.92	9.64112E-001	9.08147E-005	0.00000E+000	8.75555E-005	5.39641E-002	9.64330E-001	3.57250E+000	9	...........
	144	1.93333	9.65735E-001	9.09460E-005	0.00000E+000	8.78297E-005	5.39641E-002	9.65926E-001	3.57250E+000	9	...........
	145	1.94667	9.67324E-001	9.10814E-005	0.00000E+000	8.81052E-005	5.39641E-002	9.67541E-001	3.57250E+000	9	...........
	146	1.96	9.68901E-001	9.08366E-005	0.00000E+000	8.80116E-005	5.39641E-002	9.69104E-001	3.57250E+000	9	...........
	147	1.97333	9.70461E-001	9.09460E-005	0.00000E+000	8.82595E-005	5.39641E-002	9.70710E-001	3.57250E+000	9	...........
	148	1.98667	9.72027E-001	9.09616E-005	0.00000E+000	8.84171E-005	5.39641E-002	9.72274E-001	3.57250E+000	9	...........
	149	2	9.73619E-001	9.10783E-005	0.00000E+000	8.86755E-005	5.39641E-002	9.73805E-001	3.57250E+000	9	...........
	150	2.01333	9.75138E-001	9.09543E-005	0.00000E+000	8.86930E-005	5.39641E-002	9.75311E-001	3.57250E+000	9	...........
	151	2.02667	9.76662E-001	9.11950E-005	0.00000E+000	8.90667E-005	5.39641E-002	9.76820E-001	3.57250E+000	9	...........
	152	2.04	9.78164E-001	9.08855E-005	0.00000E+000	8.89010E-005	5.39641E-002	9.78323E-001	3.57250E+000	9	...........
	153	2.05333	9.79676E-001	9.09855E-005	0.00000E+000	8.91364E-005	5.39641E-002	9.79810E-001	3.57250E+000	9	...........
	154	2.06667	9.81122E-001	9.09658E-005	0.00000E+000	8.92485E-005	5.39641E-002	9.81275E-001	3.57250E+000	9	...........
	155	2.08	9.82585E-001	9.08366E-005	0.00000E+000	8.92546E-005	5.39641E-002	9.82746E-001	3.57250E+000	9	...........
	156	2.09333	9.84015E-001	9.10824E-005	0.00000E+000	8.96265E-005	5.39641E-002	9.84206E-001	3.57250E+000	9	...........
	157	2.10667	9.85441E-001	9.12439E-005	0.00000E+000	8.99155E-005	5.39641E-002	9.85625E-001	3.57250E+000	9	...........
	158	2.12	9.86829E-001	9.09960E-005	0.00000E+000	8.97974E-005	5.39641E-002	9.87009E-001	3.57250E+000	9	...........
	159	2.13333	9.88224E-001	9.09126E-005	0.00000E+000	8.98420E-005	5.39641E-002	9.88406E-001	3.57250E+000	9	...........
	160	2.14667	9.89611E-001	9.12210E-005	0.00000E+000	9.02733E-005	5.39641E-002	9.89797E-001	3.57250E+000	9	...........
	161	2.16	9.90973E-001	9.10751E-005	0.00000E+000	9.02530E-005	5.39641E-002	9.91165E-001	3.57250E+000	9	...........
	162	2.17333	9.92311E-001	9.09543E-005	0.00000E+000	9.02549E-005	5.39641E-002	9.92517E-001	3.57250E+000	9	...........
	163	2.18667	9.93630E-001	9.10251E-005	0.00000E+000	9.04453E-005	5.39641E-002	9.93849E-001	3.57250E+000	9	...........
	164	2.2	9.94999E-001	9.07563E-005	0.00000E+000	9.03025E-005	5.39641E-002	9.95187E-001	3.57250E+000	9	...........
	165	2.21333	9.96298E-001	9.09314E-005	0.00000E+000	9.05948E-005	5.39641E-002	9.96490E-001	3.57250E+000	9	...........
	166	2.22667	9.97624E-001	9.14742E-005	0.00000E+000	9.12568E-005	5.39641E-002	9.97846E-001	3.57250E+000	9	...........
	167	2.24	9.98914E-001	9.09720E-005	0.00000E+000	9.08732E-005	5.39641E-002	9.99130E-001	3.57250E+000	9	...........
	168	2.24667	9.99889E-001	9.11481E-005	0.00000E+000	9.11379E-005	5.39641E-002	1.00011E+000	3.57250E+000	9	...........
STARTTIMEOFFSET	QUANT	2230.716	Start Time Offset (s)
