EXPLAIN
TAG	PWR800_CHARGE
TITLE	LABEL	PWR Cyclic Charge Discharge (Cell) - Charge Step	Test &Identifier
DATE	LABEL	10-7-2017	Date
TIME	LABEL	15:00:41	Time
NOTES	NOTES	3	&Notes...
	supercap test cell
	0.9mg
	6M KOH
PSTAT	PSTAT	IFC5000-01520	Potentiostat
CAPACITY	QUANT	1.00000E-003	Capacity (A-hr)
CELLTYPE	SELECTOR	1	&Cell Type
WORKINGCONNECTION	SELECTOR	0	&Working Lead
MAXCHARGETIME	VARIABLEANDUNITS	1.00000E+002	s	1.00000E+002	second(s)	Max &Charge Time
CHARGECURRENT	QUANT	9.00000E-005	&Charge Current (A) 
VOLTAGEFINISH	TWOPARAM	F	1.00000E-003	3.60000E+003	&Voltage Finish	 I (A) < 	Max Time(s)
SAMPLETIME	QUANT	1.00000E-002	Sa&mple Period (s)
CHARGESTOPAT1	MULTIPARAM	4	1.00000E+000	Charge Stop At &1	Voltage > Limit	V
CHARGESTOPAT2	MULTIPARAM	0	0.00000E+000	Charge Stop At &2	None	N/A
AESBHCSELECTOR	TOGGLE	F	Save Both Half Cells
IRCOMP	TOGGLE	F	IR &Measure
EOC	QUANT	0	Open Circuit (V)
SEQUENCER	TOGGLE	TRUE	Run as Sequence
PSTATMODEL	IQUANT	53	Pstat Model
PSTATSECTION	LABEL	IFC5000-01520	Pstat Section
PSTATSERIALNO	LABEL	01520	Pstat Serial Number
CTRLMODE	IQUANT	0	Control Mode
ELECTROMETER	IQUANT	1	RE=0 or CS=1
IESTAB	IQUANT	0	I/E Stability
CASPEED	IQUANT	4	Control Amp Speed
CONVENTION	IQUANT	1	Current Convention
ICHRANGE	IQUANT	2	Ich Range
ICHRANGEMODE	TOGGLE	T	Ich Auto Range
ICHOFFSETENABLE	TOGGLE	F	Ich Offset Enable
ICHOFFSET	QUANT	0	Ich Offset (V)
ICHFILTER	IQUANT	1	Ich Filter
VCHRANGE	IQUANT	2	Vch Range
VCHRANGEMODE	TOGGLE	T	Vch Auto Range
VCHOFFSETENABLE	TOGGLE	F	Vch Offset Enable
VCHOFFSET	QUANT	0	Vch Offset (V)
VCHFILTER	IQUANT	1	Vch Filter
IERANGELOWERLIMIT	IQUANT	9	I/E Range Lower Limit
IERANGEMODE	TOGGLE	F	I/E AutoRange
IERANGE	IQUANT	9	I/E Range
ACHSELECT	IQUANT	1	Ach Select
ACHRANGE	IQUANT	2	Ach Range
ACHOFFSETENABLE	TOGGLE	F	Ach Offset Enable
ACHOFFSET	QUANT	0	Ach Offset (V)
ACHFILTER	IQUANT	1	Ach Filter
CABLEID	IQUANT	14	Cable ID
DCCALDATE	LABEL	5-7-2017	DC Calibration Date
ACCALDATE	LABEL	12/3/2015	AC Calibration Date
FRAMEWORKVERSION	QUANT	7.01	Framework Version
INSTRUMENTVERSION	LABEL	4.00	Instrument Version
CURVE	TABLE	215
	Pt	T	Vf	Im	Vu	Pwr	Sig	Ach	Temp	IERange	Over
	#	s	V	A	V	W	V	V	deg C	#	bits
	0	0.013333	3.14687E-001	9.09220E-005	0.00000E+000	2.86119E-005	5.39641E-002	3.14727E-001	3.57100E+000	9	...........
	1	0.026667	3.32323E-001	9.10710E-005	0.00000E+000	3.02649E-005	5.39641E-002	3.32354E-001	3.57100E+000	9	...........
	2	0.04	3.48488E-001	9.11710E-005	0.00000E+000	3.17720E-005	5.39641E-002	3.48519E-001	3.57100E+000	9	...........
	3	0.053333	3.63504E-001	9.11637E-005	0.00000E+000	3.31384E-005	5.39641E-002	3.63532E-001	3.57100E+000	9	...........
	4	0.066667	3.77532E-001	9.11679E-005	0.00000E+000	3.44188E-005	5.39641E-002	3.77561E-001	3.57100E+000	9	...........
	5	0.08	3.90737E-001	9.11564E-005	0.00000E+000	3.56182E-005	5.39641E-002	3.90773E-001	3.57100E+000	9	...........
	6	0.093333	4.03234E-001	9.11231E-005	0.00000E+000	3.67440E-005	5.39641E-002	4.03266E-001	3.57100E+000	9	...........
	7	0.106667	4.15106E-001	9.13492E-005	0.00000E+000	3.79196E-005	5.39641E-002	4.15146E-001	3.57100E+000	9	...........
	8	0.12	4.26450E-001	9.14117E-005	0.00000E+000	3.89825E-005	5.39641E-002	4.26491E-001	3.57100E+000	9	...........
	9	0.133333	4.37306E-001	9.11991E-005	0.00000E+000	3.98819E-005	5.39641E-002	4.37347E-001	3.57100E+000	9	...........
	10	0.146667	4.47730E-001	9.11845E-005	0.00000E+000	4.08260E-005	5.39641E-002	4.47772E-001	3.57100E+000	9	...........
	11	0.16	4.57766E-001	9.11762E-005	0.00000E+000	4.17374E-005	5.39641E-002	4.57813E-001	3.57100E+000	9	...........
	12	0.173333	4.67426E-001	9.13835E-005	0.00000E+000	4.27150E-005	5.39641E-002	4.67462E-001	3.57100E+000	9	...........
	13	0.186667	4.76765E-001	9.09939E-005	0.00000E+000	4.33827E-005	5.39641E-002	4.76805E-001	3.57100E+000	9	...........
	14	0.2	4.85794E-001	9.10231E-005	0.00000E+000	4.42185E-005	5.39641E-002	4.85837E-001	3.57100E+000	9	...........
	15	0.213333	4.94534E-001	9.10387E-005	0.00000E+000	4.50218E-005	5.39641E-002	4.94578E-001	3.57100E+000	9	...........
	16	0.226667	5.02997E-001	9.11252E-005	0.00000E+000	4.58357E-005	5.39641E-002	5.03044E-001	3.57117E+000	9	...........
	17	0.24	5.11223E-001	9.12512E-005	0.00000E+000	4.66497E-005	5.39641E-002	5.11268E-001	3.57170E+000	9	...........
	18	0.253333	5.19226E-001	9.09543E-005	0.00000E+000	4.72259E-005	5.39641E-002	5.19266E-001	3.57170E+000	9	...........
	19	0.266667	5.26984E-001	9.10595E-005	0.00000E+000	4.79869E-005	5.39641E-002	5.27036E-001	3.57170E+000	9	...........
	20	0.28	5.34533E-001	9.11720E-005	0.00000E+000	4.87345E-005	5.39641E-002	5.34572E-001	3.57170E+000	9	...........
	21	0.293333	5.41919E-001	9.11491E-005	0.00000E+000	4.93955E-005	5.39641E-002	5.41969E-001	3.57170E+000	9	...........
	22	0.306667	5.49089E-001	9.09897E-005	0.00000E+000	4.99615E-005	5.39641E-002	5.49142E-001	3.57170E+000	9	...........
	23	0.32	5.56067E-001	9.12346E-005	0.00000E+000	5.07325E-005	5.39641E-002	5.56150E-001	3.57170E+000	9	...........
	24	0.333333	5.62937E-001	9.13637E-005	0.00000E+000	5.14320E-005	5.39641E-002	5.63011E-001	3.57170E+000	9	...........
	25	0.346667	5.69619E-001	9.12721E-005	0.00000E+000	5.19903E-005	5.39641E-002	5.69692E-001	3.57170E+000	9	...........
	26	0.36	5.76148E-001	9.12210E-005	0.00000E+000	5.25568E-005	5.39641E-002	5.76208E-001	3.57170E+000	9	...........
	27	0.373333	5.82502E-001	9.14690E-005	0.00000E+000	5.32808E-005	5.39641E-002	5.82580E-001	3.57170E+000	9	...........
	28	0.386667	5.88757E-001	9.12533E-005	0.00000E+000	5.37260E-005	5.39641E-002	5.88838E-001	3.57170E+000	9	...........
	29	0.4	5.94848E-001	9.11293E-005	0.00000E+000	5.42081E-005	5.39641E-002	5.94930E-001	3.57170E+000	9	...........
	30	0.413333	6.00778E-001	9.11689E-005	0.00000E+000	5.47723E-005	5.39641E-002	6.00891E-001	3.57170E+000	9	...........
	31	0.426667	6.06591E-001	9.13690E-005	0.00000E+000	5.54236E-005	5.39641E-002	6.06726E-001	3.57170E+000	9	...........
	32	0.44	6.12333E-001	9.12648E-005	0.00000E+000	5.58844E-005	5.39641E-002	6.12427E-001	3.57170E+000	9	...........
	33	0.453333	6.17995E-001	9.13117E-005	0.00000E+000	5.64301E-005	5.39641E-002	6.18064E-001	3.57170E+000	9	...........
	34	0.466667	6.23478E-001	9.10085E-005	0.00000E+000	5.67418E-005	5.39641E-002	6.23526E-001	3.57170E+000	9	...........
	35	0.48	6.28831E-001	9.13356E-005	0.00000E+000	5.74347E-005	5.39641E-002	6.28874E-001	3.57170E+000	9	...........
	36	0.493333	6.34092E-001	9.13085E-005	0.00000E+000	5.78980E-005	5.39641E-002	6.34123E-001	3.57170E+000	9	...........
	37	0.506667	6.39265E-001	9.12825E-005	0.00000E+000	5.83537E-005	5.39641E-002	6.39322E-001	3.57170E+000	9	...........
	38	0.52	6.44368E-001	9.11887E-005	0.00000E+000	5.87591E-005	5.39641E-002	6.44424E-001	3.57170E+000	9	...........
	39	0.533333	6.49319E-001	9.12429E-005	0.00000E+000	5.92457E-005	5.39641E-002	6.49393E-001	3.57170E+000	9	...........
	40	0.546667	6.54227E-001	9.12158E-005	0.00000E+000	5.96758E-005	5.39641E-002	6.54298E-001	3.57170E+000	9	...........
	41	0.56	6.59014E-001	9.11575E-005	0.00000E+000	6.00740E-005	5.39641E-002	6.59077E-001	3.57170E+000	9	...........
	42	0.573333	6.63728E-001	9.12189E-005	0.00000E+000	6.05446E-005	5.39641E-002	6.63815E-001	3.57170E+000	9	...........
	43	0.586667	6.68391E-001	9.13179E-005	0.00000E+000	6.10361E-005	5.39641E-002	6.68449E-001	3.57170E+000	9	...........
	44	0.6	6.72924E-001	9.09876E-005	0.00000E+000	6.12278E-005	5.39641E-002	6.72985E-001	3.57170E+000	9	...........
	45	0.613333	6.77386E-001	9.13533E-005	0.00000E+000	6.18814E-005	5.39641E-002	6.77443E-001	3.57170E+000	9	...........
	46	0.626667	6.81786E-001	9.13137E-005	0.00000E+000	6.22564E-005	5.39641E-002	6.81839E-001	3.57170E+000	9	...........
	47	0.64	6.86103E-001	9.12648E-005	0.00000E+000	6.26170E-005	5.39641E-002	6.86175E-001	3.57170E+000	9	...........
	48	0.653333	6.90339E-001	9.11147E-005	0.00000E+000	6.29001E-005	5.39641E-002	6.90412E-001	3.57170E+000	9	...........
	49	0.666667	6.94531E-001	9.12231E-005	0.00000E+000	6.33572E-005	5.39641E-002	6.94583E-001	3.57170E+000	9	...........
	50	0.68	6.98618E-001	9.11960E-005	0.00000E+000	6.37112E-005	5.39641E-002	6.98675E-001	3.57170E+000	9	...........
	51	0.693333	7.02645E-001	9.11970E-005	0.00000E+000	6.40791E-005	5.39641E-002	7.02688E-001	3.57170E+000	9	...........
	52	0.706667	7.06593E-001	9.12887E-005	0.00000E+000	6.45039E-005	5.39641E-002	7.06656E-001	3.57170E+000	9	...........
	53	0.72	7.10472E-001	9.11929E-005	0.00000E+000	6.47899E-005	5.39641E-002	7.10561E-001	3.57170E+000	9	...........
	54	0.733333	7.14307E-001	9.11752E-005	0.00000E+000	6.51270E-005	5.39641E-002	7.14396E-001	3.57170E+000	9	...........
	55	0.746667	7.18148E-001	9.13585E-005	0.00000E+000	6.56090E-005	5.39641E-002	7.18215E-001	3.57170E+000	9	...........
	56	0.76	7.21867E-001	9.12658E-005	0.00000E+000	6.58818E-005	5.39641E-002	7.21920E-001	3.57170E+000	9	...........
	57	0.773333	7.25513E-001	9.11575E-005	0.00000E+000	6.61360E-005	5.39641E-002	7.25586E-001	3.57170E+000	9	...........
	58	0.786667	7.29116E-001	9.08095E-005	0.00000E+000	6.62106E-005	5.39641E-002	7.29198E-001	3.57170E+000	9	...........
	59	0.8	7.32667E-001	9.10637E-005	0.00000E+000	6.67194E-005	5.39641E-002	7.32741E-001	3.57170E+000	9	...........
	60	0.813333	7.36167E-001	9.13742E-005	0.00000E+000	6.72667E-005	5.39641E-002	7.36241E-001	3.57170E+000	9	...........
	61	0.826667	7.39615E-001	9.12429E-005	0.00000E+000	6.74846E-005	5.39641E-002	7.39694E-001	3.57170E+000	9	...........
	62	0.84	7.43056E-001	9.15294E-005	0.00000E+000	6.80115E-005	5.39641E-002	7.43126E-001	3.57170E+000	9	...........
	63	0.853333	7.46415E-001	9.11106E-005	0.00000E+000	6.80063E-005	5.39641E-002	7.46480E-001	3.57170E+000	9	...........
	64	0.866667	7.49707E-001	9.13137E-005	0.00000E+000	6.84586E-005	5.39641E-002	7.49764E-001	3.57170E+000	9	...........
	65	0.88	7.52972E-001	9.10376E-005	0.00000E+000	6.85488E-005	5.39641E-002	7.53039E-001	3.57170E+000	9	...........
	66	0.893333	7.56182E-001	9.10616E-005	0.00000E+000	6.88592E-005	5.39641E-002	7.56260E-001	3.57170E+000	9	...........
	67	0.906667	7.59360E-001	9.12543E-005	0.00000E+000	6.92949E-005	5.39641E-002	7.59414E-001	3.57170E+000	9	...........
	68	0.92	7.62467E-001	9.12241E-005	0.00000E+000	6.95554E-005	5.39641E-002	7.62519E-001	3.57170E+000	9	...........
	69	0.933333	7.65552E-001	9.11533E-005	0.00000E+000	6.97826E-005	5.39641E-002	7.65631E-001	3.57170E+000	9	...........
	70	0.946667	7.68605E-001	9.13367E-005	0.00000E+000	7.02019E-005	5.39641E-002	7.68705E-001	3.57170E+000	9	...........
	71	0.96	7.71650E-001	9.11106E-005	0.00000E+000	7.03055E-005	5.39641E-002	7.71706E-001	3.57170E+000	9	...........
	72	0.97333	7.74596E-001	9.13367E-005	0.00000E+000	7.07491E-005	5.39641E-002	7.74656E-001	3.57170E+000	9	...........
	73	0.98667	7.77516E-001	9.12220E-005	0.00000E+000	7.09266E-005	5.39641E-002	7.77596E-001	3.57170E+000	9	...........
	74	1	7.80451E-001	9.12960E-005	0.00000E+000	7.12521E-005	5.39641E-002	7.80496E-001	3.57170E+000	9	...........
	75	1.01333	7.83281E-001	9.11356E-005	0.00000E+000	7.13848E-005	5.39641E-002	7.83369E-001	3.57170E+000	9	...........
	76	1.02667	7.86132E-001	9.10699E-005	0.00000E+000	7.15930E-005	5.39641E-002	7.86162E-001	3.57170E+000	9	...........
	77	1.04	7.88899E-001	9.12512E-005	0.00000E+000	7.19880E-005	5.39641E-002	7.88966E-001	3.57170E+000	9	...........
	78	1.05333	7.91638E-001	9.11325E-005	0.00000E+000	7.21439E-005	5.39641E-002	7.91746E-001	3.57170E+000	9	...........
	79	1.06667	7.94420E-001	9.11752E-005	0.00000E+000	7.24314E-005	5.39641E-002	7.94506E-001	3.57170E+000	9	...........
	80	1.08	7.97095E-001	9.11387E-005	0.00000E+000	7.26462E-005	5.39641E-002	7.97180E-001	3.57170E+000	9	...........
	81	1.09333	7.99768E-001	9.12700E-005	0.00000E+000	7.29948E-005	5.39641E-002	7.99840E-001	3.57170E+000	9	...........
	82	1.10667	8.02384E-001	9.09981E-005	0.00000E+000	7.30154E-005	5.39641E-002	8.02480E-001	3.57170E+000	9	...........
	83	1.12	8.05015E-001	9.13262E-005	0.00000E+000	7.35190E-005	5.39641E-002	8.05115E-001	3.57170E+000	9	...........
	84	1.13333	8.07579E-001	9.12262E-005	0.00000E+000	7.36724E-005	5.39641E-002	8.07676E-001	3.57170E+000	9	...........
	85	1.14667	8.10133E-001	9.13888E-005	0.00000E+000	7.40371E-005	5.39641E-002	8.10205E-001	3.57170E+000	9	...........
	86	1.16	8.12644E-001	9.13679E-005	0.00000E+000	7.42496E-005	5.39641E-002	8.12747E-001	3.57170E+000	9	...........
	87	1.17333	8.15103E-001	9.11887E-005	0.00000E+000	7.43282E-005	5.39641E-002	8.15220E-001	3.57170E+000	9	...........
	88	1.18667	8.17596E-001	9.10106E-005	0.00000E+000	7.44099E-005	5.39641E-002	8.17692E-001	3.57170E+000	9	...........
	89	1.2	8.20068E-001	9.12533E-005	0.00000E+000	7.48339E-005	5.39641E-002	8.20157E-001	3.57170E+000	9	...........
	90	1.21333	8.22458E-001	9.11845E-005	0.00000E+000	7.49955E-005	5.39641E-002	8.22531E-001	3.57170E+000	9	...........
	91	1.22667	8.24832E-001	9.11741E-005	0.00000E+000	7.52034E-005	5.39641E-002	8.24938E-001	3.57157E+000	9	...........
	92	1.24	8.27182E-001	9.11429E-005	0.00000E+000	7.53918E-005	5.39641E-002	8.27241E-001	3.57120E+000	9	...........
	93	1.25333	8.29484E-001	9.13210E-005	0.00000E+000	7.57494E-005	5.39641E-002	8.29576E-001	3.57120E+000	9	...........
	94	1.26667	8.31791E-001	9.13554E-005	0.00000E+000	7.59886E-005	5.39641E-002	8.31887E-001	3.57120E+000	9	...........
	95	1.28	8.34067E-001	9.11335E-005	0.00000E+000	7.60115E-005	5.39641E-002	8.34160E-001	3.57120E+000	9	...........
	96	1.29333	8.36295E-001	9.10939E-005	0.00000E+000	7.61814E-005	5.39641E-002	8.36406E-001	3.57120E+000	9	...........
	97	1.30667	8.38543E-001	9.10908E-005	0.00000E+000	7.63835E-005	5.39641E-002	8.38647E-001	3.57120E+000	9	...........
	98	1.32	8.40706E-001	9.12867E-005	0.00000E+000	7.67452E-005	5.39641E-002	8.40838E-001	3.57120E+000	9	...........
	99	1.33333	8.42915E-001	9.13064E-005	0.00000E+000	7.69636E-005	5.39641E-002	8.43051E-001	3.57120E+000	9	...........
	100	1.34667	8.45108E-001	9.11345E-005	0.00000E+000	7.70185E-005	5.39641E-002	8.45240E-001	3.57120E+000	9	...........
	101	1.36	8.47271E-001	9.12106E-005	0.00000E+000	7.72801E-005	5.39641E-002	8.47376E-001	3.57120E+000	9	...........
	102	1.37333	8.49383E-001	9.11491E-005	0.00000E+000	7.74205E-005	5.39641E-002	8.49517E-001	3.57120E+000	9	...........
	103	1.38667	8.51465E-001	9.14356E-005	0.00000E+000	7.78542E-005	5.39641E-002	8.51587E-001	3.57120E+000	9	...........
	104	1.4	8.53533E-001	9.12825E-005	0.00000E+000	7.79126E-005	5.39641E-002	8.53636E-001	3.57120E+000	9	...........
	105	1.41333	8.55595E-001	9.13085E-005	0.00000E+000	7.81231E-005	5.39641E-002	8.55699E-001	3.57120E+000	9	...........
	106	1.42667	8.57633E-001	9.10366E-005	0.00000E+000	7.80760E-005	5.39641E-002	8.57729E-001	3.57120E+000	9	...........
	107	1.44	8.59634E-001	9.10220E-005	0.00000E+000	7.82456E-005	5.39641E-002	8.59747E-001	3.57120E+000	9	...........
	108	1.45333	8.61651E-001	9.11095E-005	0.00000E+000	7.85046E-005	5.39641E-002	8.61742E-001	3.57120E+000	9	...........
	109	1.46667	8.63601E-001	9.12898E-005	0.00000E+000	7.88379E-005	5.39641E-002	8.63722E-001	3.57120E+000	9	...........
	110	1.48	8.65554E-001	9.11804E-005	0.00000E+000	7.89215E-005	5.39641E-002	8.65668E-001	3.57120E+000	9	...........
	111	1.49333	8.67511E-001	9.13117E-005	0.00000E+000	7.92138E-005	5.39641E-002	8.67593E-001	3.57120E+000	9	...........
	112	1.50667	8.69460E-001	9.12710E-005	0.00000E+000	7.93565E-005	5.39641E-002	8.69574E-001	3.57120E+000	9	...........
	113	1.52	8.71375E-001	9.13023E-005	0.00000E+000	7.95585E-005	5.39641E-002	8.71487E-001	3.57120E+000	9	...........
	114	1.53333	8.73247E-001	9.11408E-005	0.00000E+000	7.95884E-005	5.39641E-002	8.73382E-001	3.57120E+000	9	...........
	115	1.54667	8.75125E-001	9.11397E-005	0.00000E+000	7.97587E-005	5.39641E-002	8.75244E-001	3.57120E+000	9	...........
	116	1.56	8.76988E-001	9.11231E-005	0.00000E+000	7.99139E-005	5.39641E-002	8.77108E-001	3.57120E+000	9	...........
	117	1.57333	8.78811E-001	9.12960E-005	0.00000E+000	8.02320E-005	5.39641E-002	8.78932E-001	3.57120E+000	9	...........
	118	1.58667	8.80628E-001	9.13002E-005	0.00000E+000	8.04015E-005	5.39641E-002	8.80744E-001	3.57120E+000	9	...........
	119	1.6	8.82418E-001	9.10658E-005	0.00000E+000	8.03580E-005	5.39641E-002	8.82568E-001	3.57120E+000	9	...........
	120	1.61333	8.84247E-001	9.11439E-005	0.00000E+000	8.05937E-005	5.39641E-002	8.84359E-001	3.57120E+000	9	...........
	121	1.62667	8.85986E-001	9.10877E-005	0.00000E+000	8.07024E-005	5.39641E-002	8.86126E-001	3.57120E+000	9	...........
	122	1.64	8.87722E-001	9.13242E-005	0.00000E+000	8.10705E-005	5.39641E-002	8.87869E-001	3.57120E+000	9	...........
	123	1.65333	8.89465E-001	9.13690E-005	0.00000E+000	8.12695E-005	5.39641E-002	8.89589E-001	3.57120E+000	9	...........
	124	1.66667	8.91171E-001	9.12283E-005	0.00000E+000	8.13000E-005	5.39641E-002	8.91314E-001	3.57120E+000	9	...........
	125	1.68	8.92905E-001	9.13825E-005	0.00000E+000	8.15959E-005	5.39641E-002	8.93031E-001	3.57120E+000	9	...........
	126	1.69333	8.94542E-001	9.14148E-005	0.00000E+000	8.17744E-005	5.39641E-002	8.94718E-001	3.57120E+000	9	...........
	127	1.70667	8.96286E-001	9.12491E-005	0.00000E+000	8.17854E-005	5.39641E-002	8.96424E-001	3.57120E+000	9	...........
	128	1.72	8.97913E-001	9.13606E-005	0.00000E+000	8.20339E-005	5.39641E-002	8.98049E-001	3.57120E+000	9	...........
	129	1.73333	8.99550E-001	9.11470E-005	0.00000E+000	8.19913E-005	5.39641E-002	8.99693E-001	3.57120E+000	9	...........
	130	1.74667	9.01186E-001	9.11116E-005	0.00000E+000	8.21085E-005	5.39641E-002	9.01329E-001	3.57120E+000	9	...........
	131	1.76	9.02821E-001	9.11137E-005	0.00000E+000	8.22594E-005	5.39641E-002	9.02964E-001	3.57120E+000	9	...........
	132	1.77333	9.04416E-001	9.13335E-005	0.00000E+000	8.26035E-005	5.39641E-002	9.04572E-001	3.57120E+000	9	...........
	133	1.78667	9.05989E-001	9.14627E-005	0.00000E+000	8.28642E-005	5.39641E-002	9.06148E-001	3.57120E+000	9	...........
	134	1.8	9.07567E-001	9.13533E-005	0.00000E+000	8.29093E-005	5.39641E-002	9.07728E-001	3.57120E+000	9	...........
	135	1.81333	9.09150E-001	9.13721E-005	0.00000E+000	8.30709E-005	5.39641E-002	9.09303E-001	3.57120E+000	9	...........
	136	1.82667	9.10699E-001	9.12856E-005	0.00000E+000	8.31337E-005	5.39641E-002	9.10827E-001	3.57120E+000	9	...........
	137	1.84	9.12229E-001	9.13273E-005	0.00000E+000	8.33114E-005	5.39641E-002	9.12344E-001	3.57120E+000	9	...........
	138	1.85333	9.13742E-001	9.10595E-005	0.00000E+000	8.32049E-005	5.39641E-002	9.13887E-001	3.57120E+000	9	...........
	139	1.86667	9.15263E-001	9.09824E-005	0.00000E+000	8.32729E-005	5.39641E-002	9.15407E-001	3.57120E+000	9	...........
	140	1.88	9.16754E-001	9.14982E-005	0.00000E+000	8.38813E-005	5.39641E-002	9.16914E-001	3.57120E+000	9	...........
	141	1.89333	9.18225E-001	9.11908E-005	0.00000E+000	8.37336E-005	5.39641E-002	9.18385E-001	3.57120E+000	9	...........
	142	1.90667	9.19673E-001	9.12408E-005	0.00000E+000	8.39117E-005	5.39641E-002	9.19858E-001	3.57120E+000	9	...........
	143	1.92	9.21204E-001	9.11022E-005	0.00000E+000	8.39238E-005	5.39641E-002	9.21323E-001	3.57120E+000	9	...........
	144	1.93333	9.22650E-001	9.12460E-005	0.00000E+000	8.41881E-005	5.39641E-002	9.22760E-001	3.57120E+000	9	...........
	145	1.94667	9.24085E-001	9.15148E-005	0.00000E+000	8.45675E-005	5.39641E-002	9.24189E-001	3.57120E+000	9	...........
	146	1.96	9.25493E-001	9.12241E-005	0.00000E+000	8.44273E-005	5.39641E-002	9.25610E-001	3.57120E+000	9	...........
	147	1.97333	9.26903E-001	9.11981E-005	0.00000E+000	8.45318E-005	5.39641E-002	9.27030E-001	3.57120E+000	9	...........
	148	1.98667	9.28306E-001	9.10491E-005	0.00000E+000	8.45214E-005	5.39641E-002	9.28432E-001	3.57120E+000	9	...........
	149	2	9.29698E-001	9.12231E-005	0.00000E+000	8.48099E-005	5.39641E-002	9.29804E-001	3.57120E+000	9	...........
	150	2.01333	9.31066E-001	9.12544E-005	0.00000E+000	8.49638E-005	5.39641E-002	9.31180E-001	3.57120E+000	9	...........
	151	2.02667	9.32422E-001	9.11731E-005	0.00000E+000	8.50118E-005	5.39641E-002	9.32540E-001	3.57120E+000	9	...........
	152	2.04	9.33790E-001	9.10314E-005	0.00000E+000	8.50042E-005	5.39641E-002	9.33899E-001	3.57120E+000	9	...........
	153	2.05333	9.35118E-001	9.11116E-005	0.00000E+000	8.52001E-005	5.39641E-002	9.35229E-001	3.57120E+000	9	...........
	154	2.06667	9.36458E-001	9.13304E-005	0.00000E+000	8.55270E-005	5.39641E-002	9.36557E-001	3.57120E+000	9	...........
	155	2.08	9.37780E-001	9.10856E-005	0.00000E+000	8.54183E-005	5.39641E-002	9.37879E-001	3.57120E+000	9	...........
	156	2.09333	9.39092E-001	9.12752E-005	0.00000E+000	8.57158E-005	5.39641E-002	9.39208E-001	3.57120E+000	9	...........
	157	2.10667	9.40417E-001	9.09605E-005	0.00000E+000	8.55408E-005	5.39641E-002	9.40506E-001	3.57120E+000	9	...........
	158	2.12	9.41673E-001	9.14086E-005	0.00000E+000	8.60770E-005	5.39641E-002	9.41786E-001	3.57120E+000	9	...........
	159	2.13333	9.42936E-001	9.12450E-005	0.00000E+000	8.60382E-005	5.39641E-002	9.43038E-001	3.57120E+000	9	...........
	160	2.14667	9.44222E-001	9.12742E-005	0.00000E+000	8.61830E-005	5.39641E-002	9.44300E-001	3.57120E+000	9	...........
	161	2.16	9.45450E-001	9.10949E-005	0.00000E+000	8.61257E-005	5.39641E-002	9.45575E-001	3.57120E+000	9	...........
	162	2.17333	9.46749E-001	9.15190E-005	0.00000E+000	8.66455E-005	5.39641E-002	9.46858E-001	3.57120E+000	9	...........
	163	2.18667	9.47994E-001	9.11616E-005	0.00000E+000	8.64207E-005	5.39641E-002	9.48093E-001	3.57120E+000	9	...........
	164	2.2	9.49225E-001	9.11231E-005	0.00000E+000	8.64963E-005	5.39641E-002	9.49339E-001	3.57120E+000	9	...........
	165	2.21333	9.50459E-001	9.13742E-005	0.00000E+000	8.68474E-005	5.39641E-002	9.50543E-001	3.57120E+000	9	...........
	166	2.22667	9.51666E-001	9.14033E-005	0.00000E+000	8.69854E-005	5.39641E-002	9.51750E-001	3.57110E+000	9	...........
	167	2.24	9.52857E-001	9.15430E-005	0.00000E+000	8.72274E-005	5.39641E-002	9.52973E-001	3.57080E+000	9	...........
	168	2.25333	9.54030E-001	9.12867E-005	0.00000E+000	8.70902E-005	5.39641E-002	9.54146E-001	3.57080E+000	9	...........
	169	2.26667	9.55224E-001	9.10283E-005	0.00000E+000	8.69524E-005	5.39641E-002	9.55330E-001	3.57080E+000	9	...........
	170	2.28	9.56400E-001	9.14513E-005	0.00000E+000	8.74640E-005	5.39641E-002	9.56508E-001	3.57080E+000	9	...........
	171	2.29333	9.57564E-001	9.10731E-005	0.00000E+000	8.72083E-005	5.39641E-002	9.57680E-001	3.57080E+000	9	...........
	172	2.30667	9.58695E-001	9.13669E-005	0.00000E+000	8.75929E-005	5.39641E-002	9.58824E-001	3.57080E+000	9	...........
	173	2.32	9.59849E-001	9.14648E-005	0.00000E+000	8.77924E-005	5.39641E-002	9.59971E-001	3.57080E+000	9	...........
	174	2.33333	9.60950E-001	9.12450E-005	0.00000E+000	8.76819E-005	5.39641E-002	9.61126E-001	3.57080E+000	9	...........
	175	2.34667	9.62058E-001	9.12710E-005	0.00000E+000	8.78080E-005	5.39641E-002	9.62251E-001	3.57080E+000	9	...........
	176	2.36	9.63166E-001	9.12221E-005	0.00000E+000	8.78620E-005	5.39641E-002	9.63348E-001	3.57080E+000	9	...........
	177	2.37333	9.64275E-001	9.11814E-005	0.00000E+000	8.79240E-005	5.39641E-002	9.64470E-001	3.57080E+000	9	...........
	178	2.38667	9.65377E-001	9.13533E-005	0.00000E+000	8.81904E-005	5.39641E-002	9.65538E-001	3.57080E+000	9	...........
	179	2.4	9.66505E-001	9.12710E-005	0.00000E+000	8.82139E-005	5.39641E-002	9.66630E-001	3.57080E+000	9	...........
	180	2.41333	9.67548E-001	9.12408E-005	0.00000E+000	8.82798E-005	5.39641E-002	9.67700E-001	3.57080E+000	9	...........
	181	2.42667	9.68626E-001	9.13117E-005	0.00000E+000	8.84468E-005	5.39641E-002	9.68784E-001	3.57080E+000	9	...........
	182	2.44	9.69711E-001	9.10168E-005	0.00000E+000	8.82600E-005	5.39641E-002	9.69839E-001	3.57080E+000	9	...........
	183	2.45333	9.70728E-001	9.12377E-005	0.00000E+000	8.85669E-005	5.39641E-002	9.70929E-001	3.57080E+000	9	...........
	184	2.46667	9.71784E-001	9.11845E-005	0.00000E+000	8.86117E-005	5.39641E-002	9.71991E-001	3.57080E+000	9	...........
	185	2.48	9.72885E-001	9.10814E-005	0.00000E+000	8.86117E-005	5.39641E-002	9.73018E-001	3.57080E+000	9	...........
	186	2.49333	9.73928E-001	9.14138E-005	0.00000E+000	8.90304E-005	5.39641E-002	9.74068E-001	3.57080E+000	9	...........
	187	2.50667	9.74946E-001	9.13908E-005	0.00000E+000	8.91011E-005	5.39641E-002	9.75089E-001	3.57080E+000	9	...........
	188	2.52	9.75958E-001	9.10210E-005	0.00000E+000	8.88327E-005	5.39641E-002	9.76089E-001	3.57080E+000	9	...........
	189	2.53333	9.76952E-001	9.13950E-005	0.00000E+000	8.92886E-005	5.39641E-002	9.77088E-001	3.57080E+000	9	...........
	190	2.54667	9.77935E-001	9.10824E-005	0.00000E+000	8.90727E-005	5.39641E-002	9.78098E-001	3.57080E+000	9	...........
	191	2.56	9.78936E-001	9.12127E-005	0.00000E+000	8.92913E-005	5.39641E-002	9.79079E-001	3.57080E+000	9	...........
	192	2.57333	9.79902E-001	9.14409E-005	0.00000E+000	8.96031E-005	5.39641E-002	9.80046E-001	3.57080E+000	9	...........
	193	2.58667	9.80883E-001	9.15117E-005	0.00000E+000	8.97622E-005	5.39641E-002	9.81040E-001	3.57080E+000	9	...........
	194	2.6	9.81842E-001	9.14158E-005	0.00000E+000	8.97559E-005	5.39641E-002	9.81983E-001	3.57080E+000	9	...........
	195	2.61333	9.82788E-001	9.12450E-005	0.00000E+000	8.96745E-005	5.39641E-002	9.82949E-001	3.57080E+000	9	...........
	196	2.62667	9.83749E-001	9.12439E-005	0.00000E+000	8.97611E-005	5.39641E-002	9.83927E-001	3.57080E+000	9	...........
	197	2.64	9.84712E-001	9.11439E-005	0.00000E+000	8.97505E-005	5.39641E-002	9.84894E-001	3.57080E+000	9	...........
	198	2.65333	9.85669E-001	9.10866E-005	0.00000E+000	8.97813E-005	5.39641E-002	9.85832E-001	3.57080E+000	9	...........
	199	2.66667	9.86587E-001	9.14492E-005	0.00000E+000	9.02226E-005	5.39641E-002	9.86786E-001	3.57080E+000	9	...........
	200	2.68	9.87536E-001	9.11200E-005	0.00000E+000	8.99843E-005	5.39641E-002	9.87668E-001	3.57080E+000	9	...........
	201	2.69333	9.88461E-001	9.13929E-005	0.00000E+000	9.03383E-005	5.39641E-002	9.88591E-001	3.57080E+000	9	...........
	202	2.70667	9.89390E-001	9.13023E-005	0.00000E+000	9.03335E-005	5.39641E-002	9.89515E-001	3.57080E+000	9	...........
	203	2.72	9.90297E-001	9.11283E-005	0.00000E+000	9.02441E-005	5.39641E-002	9.90431E-001	3.57080E+000	9	...........
	204	2.73333	9.91190E-001	9.12387E-005	0.00000E+000	9.04349E-005	5.39641E-002	9.91316E-001	3.57080E+000	9	...........
	205	2.74667	9.92086E-001	9.14002E-005	0.00000E+000	9.06768E-005	5.39641E-002	9.92210E-001	3.57080E+000	9	...........
	206	2.76	9.92965E-001	9.12220E-005	0.00000E+000	9.05803E-005	5.39641E-002	9.93134E-001	3.57080E+000	9	...........
	207	2.77333	9.93869E-001	9.11252E-005	0.00000E+000	9.05664E-005	5.39641E-002	9.94015E-001	3.57080E+000	9	...........
	208	2.78667	9.94764E-001	9.13815E-005	0.00000E+000	9.09030E-005	5.39641E-002	9.94905E-001	3.57080E+000	9	...........
	209	2.8	9.95661E-001	9.11366E-005	0.00000E+000	9.07412E-005	5.39641E-002	9.95806E-001	3.57080E+000	9	...........
	210	2.81333	9.96532E-001	9.12679E-005	0.00000E+000	9.09514E-005	5.39641E-002	9.96680E-001	3.57080E+000	9	...........
	211	2.82667	9.97384E-001	9.10856E-005	0.00000E+000	9.08473E-005	5.39641E-002	9.97566E-001	3.57080E+000	9	...........
	212	2.84	9.98278E-001	9.10272E-005	0.00000E+000	9.08705E-005	5.39641E-002	9.98430E-001	3.57080E+000	9	...........
	213	2.85333	9.99149E-001	9.12533E-005	0.00000E+000	9.11757E-005	5.39641E-002	9.99287E-001	3.57080E+000	9	...........
	214	2.86333	9.99853E-001	9.15683E-005	0.00000E+000	9.15548E-005	5.39641E-002	1.00004E+000	3.57080E+000	9	...........
STARTTIMEOFFSET	QUANT	70.95168	Start Time Offset (s)
