EXPLAIN
TAG	PWR800_CHARGE
TITLE	LABEL	PWR Cyclic Charge Discharge (Cell) - Charge Step	Test &Identifier
DATE	LABEL	10-7-2017	Date
TIME	LABEL	15:02:11	Time
NOTES	NOTES	3	&Notes...
	supercap test cell
	0.9mg
	6M KOH
PSTAT	PSTAT	IFC5000-01520	Potentiostat
CAPACITY	QUANT	1.00000E-003	Capacity (A-hr)
CELLTYPE	SELECTOR	1	&Cell Type
WORKINGCONNECTION	SELECTOR	0	&Working Lead
MAXCHARGETIME	VARIABLEANDUNITS	1.00000E+002	s	1.00000E+002	second(s)	Max &Charge Time
CHARGECURRENT	QUANT	9.00000E-005	&Charge Current (A) 
VOLTAGEFINISH	TWOPARAM	F	1.00000E-003	3.60000E+003	&Voltage Finish	 I (A) < 	Max Time(s)
SAMPLETIME	QUANT	1.00000E-002	Sa&mple Period (s)
CHARGESTOPAT1	MULTIPARAM	4	1.00000E+000	Charge Stop At &1	Voltage > Limit	V
CHARGESTOPAT2	MULTIPARAM	0	0.00000E+000	Charge Stop At &2	None	N/A
AESBHCSELECTOR	TOGGLE	F	Save Both Half Cells
IRCOMP	TOGGLE	F	IR &Measure
EOC	QUANT	0	Open Circuit (V)
SEQUENCER	TOGGLE	TRUE	Run as Sequence
PSTATMODEL	IQUANT	53	Pstat Model
PSTATSECTION	LABEL	IFC5000-01520	Pstat Section
PSTATSERIALNO	LABEL	01520	Pstat Serial Number
CTRLMODE	IQUANT	0	Control Mode
ELECTROMETER	IQUANT	1	RE=0 or CS=1
IESTAB	IQUANT	0	I/E Stability
CASPEED	IQUANT	4	Control Amp Speed
CONVENTION	IQUANT	1	Current Convention
ICHRANGE	IQUANT	2	Ich Range
ICHRANGEMODE	TOGGLE	T	Ich Auto Range
ICHOFFSETENABLE	TOGGLE	F	Ich Offset Enable
ICHOFFSET	QUANT	0	Ich Offset (V)
ICHFILTER	IQUANT	1	Ich Filter
VCHRANGE	IQUANT	2	Vch Range
VCHRANGEMODE	TOGGLE	T	Vch Auto Range
VCHOFFSETENABLE	TOGGLE	F	Vch Offset Enable
VCHOFFSET	QUANT	0	Vch Offset (V)
VCHFILTER	IQUANT	1	Vch Filter
IERANGELOWERLIMIT	IQUANT	9	I/E Range Lower Limit
IERANGEMODE	TOGGLE	F	I/E AutoRange
IERANGE	IQUANT	9	I/E Range
ACHSELECT	IQUANT	1	Ach Select
ACHRANGE	IQUANT	2	Ach Range
ACHOFFSETENABLE	TOGGLE	F	Ach Offset Enable
ACHOFFSET	QUANT	0	Ach Offset (V)
ACHFILTER	IQUANT	1	Ach Filter
CABLEID	IQUANT	14	Cable ID
DCCALDATE	LABEL	5-7-2017	DC Calibration Date
ACCALDATE	LABEL	12/3/2015	AC Calibration Date
FRAMEWORKVERSION	QUANT	7.01	Framework Version
INSTRUMENTVERSION	LABEL	4.00	Instrument Version
CURVE	TABLE	201
	Pt	T	Vf	Im	Vu	Pwr	Sig	Ach	Temp	IERange	Over
	#	s	V	A	V	W	V	V	deg C	#	bits
	0	0.013333	3.88278E-001	9.12939E-005	0.00000E+000	3.54475E-005	5.39641E-002	3.88312E-001	3.57130E+000	9	...........
	1	0.026667	4.04378E-001	9.09637E-005	0.00000E+000	3.67837E-005	5.39641E-002	4.04417E-001	3.57130E+000	9	...........
	2	0.04	4.19073E-001	9.08845E-005	0.00000E+000	3.80872E-005	5.39641E-002	4.19118E-001	3.57130E+000	9	...........
	3	0.053333	4.32672E-001	9.13919E-005	0.00000E+000	3.95427E-005	5.39641E-002	4.32707E-001	3.57130E+000	9	...........
	4	0.066667	4.45335E-001	9.12158E-005	0.00000E+000	4.06216E-005	5.39641E-002	4.45378E-001	3.57130E+000	9	...........
	5	0.08	4.57230E-001	9.11168E-005	0.00000E+000	4.16614E-005	5.39641E-002	4.57267E-001	3.57130E+000	9	...........
	6	0.093333	4.68455E-001	9.10689E-005	0.00000E+000	4.26617E-005	5.39641E-002	4.68498E-001	3.57130E+000	9	...........
	7	0.106667	4.79112E-001	9.11345E-005	0.00000E+000	4.36637E-005	5.39641E-002	4.79150E-001	3.57130E+000	9	...........
	8	0.12	4.89258E-001	9.11668E-005	0.00000E+000	4.46041E-005	5.39641E-002	4.89301E-001	3.57130E+000	9	...........
	9	0.133333	4.98938E-001	9.11637E-005	0.00000E+000	4.54850E-005	5.39641E-002	4.98990E-001	3.57130E+000	9	...........
	10	0.146667	5.08214E-001	9.12293E-005	0.00000E+000	4.63640E-005	5.39641E-002	5.08262E-001	3.57130E+000	9	...........
	11	0.16	5.17134E-001	9.13200E-005	0.00000E+000	4.72246E-005	5.39641E-002	5.17177E-001	3.57130E+000	9	...........
	12	0.173333	5.25703E-001	9.12054E-005	0.00000E+000	4.79469E-005	5.39641E-002	5.25753E-001	3.57130E+000	9	...........
	13	0.186667	5.33961E-001	9.10835E-005	0.00000E+000	4.86351E-005	5.39641E-002	5.34006E-001	3.57130E+000	9	...........
	14	0.2	5.41950E-001	9.11085E-005	0.00000E+000	4.93763E-005	5.39641E-002	5.41991E-001	3.57130E+000	9	...........
	15	0.213333	5.49681E-001	9.11054E-005	0.00000E+000	5.00789E-005	5.39641E-002	5.49725E-001	3.57130E+000	9	...........
	16	0.226667	5.57154E-001	9.09730E-005	0.00000E+000	5.06860E-005	5.39641E-002	5.57200E-001	3.57130E+000	9	...........
	17	0.24	5.64454E-001	9.12429E-005	0.00000E+000	5.15024E-005	5.39641E-002	5.64490E-001	3.57130E+000	9	...........
	18	0.253333	5.71496E-001	9.11116E-005	0.00000E+000	5.20700E-005	5.39641E-002	5.71536E-001	3.57130E+000	9	...........
	19	0.266667	5.78335E-001	9.13304E-005	0.00000E+000	5.28196E-005	5.39641E-002	5.78396E-001	3.57130E+000	9	...........
	20	0.28	5.84995E-001	9.12148E-005	0.00000E+000	5.33602E-005	5.39641E-002	5.85083E-001	3.57130E+000	9	...........
	21	0.293333	5.91538E-001	9.13304E-005	0.00000E+000	5.40254E-005	5.39641E-002	5.91621E-001	3.57130E+000	9	...........
	22	0.306667	5.97869E-001	9.14065E-005	0.00000E+000	5.46491E-005	5.39641E-002	5.97933E-001	3.57130E+000	9	...........
	23	0.32	6.04008E-001	9.15127E-005	0.00000E+000	5.52745E-005	5.39641E-002	6.04105E-001	3.57130E+000	9	...........
	24	0.333333	6.10008E-001	9.10418E-005	0.00000E+000	5.55362E-005	5.39641E-002	6.10118E-001	3.57130E+000	9	...........
	25	0.346667	6.15925E-001	9.11648E-005	0.00000E+000	5.61507E-005	5.39641E-002	6.16018E-001	3.57130E+000	9	...........
	26	0.36	6.21690E-001	9.12033E-005	0.00000E+000	5.67002E-005	5.39641E-002	6.21749E-001	3.57130E+000	9	...........
	27	0.373333	6.27278E-001	9.12710E-005	0.00000E+000	5.72523E-005	5.39641E-002	6.27386E-001	3.57130E+000	9	...........
	28	0.386667	6.32772E-001	9.12794E-005	0.00000E+000	5.77590E-005	5.39641E-002	6.32837E-001	3.57130E+000	9	...........
	29	0.4	6.38146E-001	9.14565E-005	0.00000E+000	5.83626E-005	5.39641E-002	6.38262E-001	3.57130E+000	9	...........
	30	0.413333	6.43429E-001	9.11356E-005	0.00000E+000	5.86393E-005	5.39641E-002	6.43528E-001	3.57130E+000	9	...........
	31	0.426667	6.48591E-001	9.12981E-005	0.00000E+000	5.92151E-005	5.39641E-002	6.48673E-001	3.57130E+000	9	...........
	32	0.44	6.53629E-001	9.10158E-005	0.00000E+000	5.94906E-005	5.39641E-002	6.53726E-001	3.57130E+000	9	...........
	33	0.453333	6.58575E-001	9.10689E-005	0.00000E+000	5.99757E-005	5.39641E-002	6.58608E-001	3.57130E+000	9	...........
	34	0.466667	6.63423E-001	9.13544E-005	0.00000E+000	6.06066E-005	5.39641E-002	6.63450E-001	3.57130E+000	9	...........
	35	0.48	6.68186E-001	9.11470E-005	0.00000E+000	6.09032E-005	5.39641E-002	6.68189E-001	3.57130E+000	9	...........
	36	0.493333	6.72825E-001	9.12606E-005	0.00000E+000	6.14024E-005	5.39641E-002	6.72829E-001	3.57130E+000	9	...........
	37	0.506667	6.77392E-001	9.12752E-005	0.00000E+000	6.18291E-005	5.39641E-002	6.77402E-001	3.57130E+000	9	...........
	38	0.52	6.81855E-001	9.09678E-005	0.00000E+000	6.20268E-005	5.39641E-002	6.81910E-001	3.57130E+000	9	...........
	39	0.533333	6.86294E-001	9.10658E-005	0.00000E+000	6.24979E-005	5.39641E-002	6.86340E-001	3.57130E+000	9	...........
	40	0.546667	6.90620E-001	9.13085E-005	0.00000E+000	6.30595E-005	5.39641E-002	6.90704E-001	3.57130E+000	9	...........
	41	0.56	6.94884E-001	9.12523E-005	0.00000E+000	6.34098E-005	5.39641E-002	6.94952E-001	3.57130E+000	9	...........
	42	0.573333	6.99054E-001	9.12283E-005	0.00000E+000	6.37735E-005	5.39641E-002	6.99129E-001	3.57130E+000	9	...........
	43	0.586667	7.03188E-001	9.12450E-005	0.00000E+000	6.41623E-005	5.39641E-002	7.03246E-001	3.57130E+000	9	...........
	44	0.6	7.07208E-001	9.11252E-005	0.00000E+000	6.44444E-005	5.39641E-002	7.07283E-001	3.57130E+000	9	...........
	45	0.613333	7.11184E-001	9.11179E-005	0.00000E+000	6.48016E-005	5.39641E-002	7.11254E-001	3.57189E+000	9	...........
	46	0.626667	7.15098E-001	9.14065E-005	0.00000E+000	6.53646E-005	5.39641E-002	7.15189E-001	3.57520E+000	9	...........
	47	0.64	7.18992E-001	9.12710E-005	0.00000E+000	6.56231E-005	5.39641E-002	7.19046E-001	3.57520E+000	9	...........
	48	0.653333	7.22792E-001	9.11700E-005	0.00000E+000	6.58970E-005	5.39641E-002	7.22840E-001	3.57520E+000	9	...........
	49	0.666667	7.26530E-001	9.12398E-005	0.00000E+000	6.62884E-005	5.39641E-002	7.26584E-001	3.57520E+000	9	...........
	50	0.68	7.30191E-001	9.13294E-005	0.00000E+000	6.66879E-005	5.39641E-002	7.30273E-001	3.57520E+000	9	...........
	51	0.693333	7.33794E-001	9.09855E-005	0.00000E+000	6.67646E-005	5.39641E-002	7.33873E-001	3.57520E+000	9	...........
	52	0.706667	7.37370E-001	9.11793E-005	0.00000E+000	6.72329E-005	5.39641E-002	7.37448E-001	3.57520E+000	9	...........
	53	0.72	7.40860E-001	9.14784E-005	0.00000E+000	6.77727E-005	5.39641E-002	7.40966E-001	3.57520E+000	9	...........
	54	0.733333	7.44360E-001	9.10460E-005	0.00000E+000	6.77710E-005	5.39641E-002	7.44439E-001	3.57520E+000	9	...........
	55	0.746667	7.47745E-001	9.11835E-005	0.00000E+000	6.81820E-005	5.39641E-002	7.47836E-001	3.57520E+000	9	...........
	56	0.76	7.51093E-001	9.12575E-005	0.00000E+000	6.85428E-005	5.39641E-002	7.51169E-001	3.57520E+000	9	...........
	57	0.773333	7.54433E-001	9.11064E-005	0.00000E+000	6.87337E-005	5.39641E-002	7.54492E-001	3.57520E+000	9	...........
	58	0.786667	7.57703E-001	9.11960E-005	0.00000E+000	6.90995E-005	5.39641E-002	7.57764E-001	3.57520E+000	9	...........
	59	0.8	7.60918E-001	9.12366E-005	0.00000E+000	6.94236E-005	5.39641E-002	7.60979E-001	3.57520E+000	9	...........
	60	0.813333	7.64113E-001	9.09293E-005	0.00000E+000	6.94802E-005	5.39641E-002	7.64145E-001	3.57520E+000	9	...........
	61	0.826667	7.67215E-001	9.13846E-005	0.00000E+000	7.01116E-005	5.39641E-002	7.67317E-001	3.57520E+000	9	...........
	62	0.84	7.70352E-001	9.12283E-005	0.00000E+000	7.02780E-005	5.39641E-002	7.70451E-001	3.57520E+000	9	...........
	63	0.853333	7.73401E-001	9.14502E-005	0.00000E+000	7.07277E-005	5.39641E-002	7.73490E-001	3.57520E+000	9	...........
	64	0.866667	7.76413E-001	9.13377E-005	0.00000E+000	7.09158E-005	5.39641E-002	7.76499E-001	3.57520E+000	9	...........
	65	0.88	7.79404E-001	9.10606E-005	0.00000E+000	7.09730E-005	5.39641E-002	7.79506E-001	3.57520E+000	9	...........
	66	0.893333	7.82357E-001	9.14117E-005	0.00000E+000	7.15165E-005	5.39641E-002	7.82462E-001	3.57520E+000	9	...........
	67	0.906667	7.85258E-001	9.10241E-005	0.00000E+000	7.14774E-005	5.39641E-002	7.85327E-001	3.57520E+000	9	...........
	68	0.92	7.88119E-001	9.12554E-005	0.00000E+000	7.19201E-005	5.39641E-002	7.88199E-001	3.57520E+000	9	...........
	69	0.933333	7.90946E-001	9.12491E-005	0.00000E+000	7.21732E-005	5.39641E-002	7.91055E-001	3.57520E+000	9	...........
	70	0.946667	7.93756E-001	9.14148E-005	0.00000E+000	7.25611E-005	5.39641E-002	7.93870E-001	3.57520E+000	9	...........
	71	0.96	7.96543E-001	9.10033E-005	0.00000E+000	7.24880E-005	5.39641E-002	7.96613E-001	3.57520E+000	9	...........
	72	0.97333	7.99278E-001	9.11189E-005	0.00000E+000	7.28293E-005	5.39641E-002	7.99352E-001	3.57520E+000	9	...........
	73	0.98667	8.01982E-001	9.11679E-005	0.00000E+000	7.31150E-005	5.39641E-002	8.02057E-001	3.57520E+000	9	...........
	74	1	8.04609E-001	9.09324E-005	0.00000E+000	7.31650E-005	5.39641E-002	8.04707E-001	3.57520E+000	9	...........
	75	1.01333	8.07263E-001	9.11929E-005	0.00000E+000	7.36167E-005	5.39641E-002	8.07348E-001	3.57520E+000	9	...........
	76	1.02667	8.09858E-001	9.12096E-005	0.00000E+000	7.38668E-005	5.39641E-002	8.09936E-001	3.57520E+000	9	...........
	77	1.04	8.12412E-001	9.10814E-005	0.00000E+000	7.39956E-005	5.39641E-002	8.12502E-001	3.57520E+000	9	...........
	78	1.05333	8.14960E-001	9.13606E-005	0.00000E+000	7.44553E-005	5.39641E-002	8.15047E-001	3.57520E+000	9	...........
	79	1.06667	8.17480E-001	9.11189E-005	0.00000E+000	7.44879E-005	5.39641E-002	8.17585E-001	3.57520E+000	9	...........
	80	1.08	8.19997E-001	9.11252E-005	0.00000E+000	7.47224E-005	5.39641E-002	8.20098E-001	3.57520E+000	9	...........
	81	1.09333	8.22457E-001	9.14013E-005	0.00000E+000	7.51736E-005	5.39641E-002	8.22583E-001	3.57520E+000	9	...........
	82	1.10667	8.24896E-001	9.12700E-005	0.00000E+000	7.52883E-005	5.39641E-002	8.25033E-001	3.57520E+000	9	...........
	83	1.12	8.27320E-001	9.13012E-005	0.00000E+000	7.55353E-005	5.39641E-002	8.27425E-001	3.57520E+000	9	...........
	84	1.13333	8.29677E-001	9.13929E-005	0.00000E+000	7.58266E-005	5.39641E-002	8.29797E-001	3.57520E+000	9	...........
	85	1.14667	8.32020E-001	9.12835E-005	0.00000E+000	7.59497E-005	5.39641E-002	8.32162E-001	3.57520E+000	9	...........
	86	1.16	8.34339E-001	9.11523E-005	0.00000E+000	7.60518E-005	5.39641E-002	8.34478E-001	3.57520E+000	9	...........
	87	1.17333	8.36656E-001	9.12908E-005	0.00000E+000	7.63790E-005	5.39641E-002	8.36792E-001	3.57520E+000	9	...........
	88	1.18667	8.38948E-001	9.11439E-005	0.00000E+000	7.64650E-005	5.39641E-002	8.39077E-001	3.57520E+000	9	...........
	89	1.2	8.41215E-001	9.13950E-005	0.00000E+000	7.68828E-005	5.39641E-002	8.41330E-001	3.57520E+000	9	...........
	90	1.21333	8.43452E-001	9.12471E-005	0.00000E+000	7.69625E-005	5.39641E-002	8.43603E-001	3.57520E+000	9	...........
	91	1.22667	8.45704E-001	9.11502E-005	0.00000E+000	7.70861E-005	5.39641E-002	8.45829E-001	3.57520E+000	9	...........
	92	1.24	8.47905E-001	9.12377E-005	0.00000E+000	7.73609E-005	5.39641E-002	8.48031E-001	3.57520E+000	9	...........
	93	1.25333	8.50086E-001	9.10470E-005	0.00000E+000	7.73978E-005	5.39641E-002	8.50199E-001	3.57520E+000	9	...........
	94	1.26667	8.52224E-001	9.12106E-005	0.00000E+000	7.77318E-005	5.39641E-002	8.52353E-001	3.57520E+000	9	...........
	95	1.28	8.54362E-001	9.11147E-005	0.00000E+000	7.78450E-005	5.39641E-002	8.54486E-001	3.57520E+000	9	...........
	96	1.29333	8.56482E-001	9.11825E-005	0.00000E+000	7.80961E-005	5.39641E-002	8.56596E-001	3.57520E+000	9	...........
	97	1.30667	8.58596E-001	9.08043E-005	0.00000E+000	7.79642E-005	5.39641E-002	8.58711E-001	3.57520E+000	9	...........
	98	1.32	8.60688E-001	9.12408E-005	0.00000E+000	7.85299E-005	5.39641E-002	8.60782E-001	3.57520E+000	9	...........
	99	1.33333	8.62742E-001	9.10178E-005	0.00000E+000	7.85249E-005	5.39641E-002	8.62837E-001	3.57520E+000	9	...........
	100	1.34667	8.64750E-001	9.10710E-005	0.00000E+000	7.87536E-005	5.39641E-002	8.64862E-001	3.57520E+000	9	...........
	101	1.36	8.66793E-001	9.14346E-005	0.00000E+000	7.92549E-005	5.39641E-002	8.66898E-001	3.57520E+000	9	...........
	102	1.37333	8.68794E-001	9.11762E-005	0.00000E+000	7.92133E-005	5.39641E-002	8.68911E-001	3.57520E+000	9	...........
	103	1.38667	8.70790E-001	9.11460E-005	0.00000E+000	7.93690E-005	5.39641E-002	8.70897E-001	3.57520E+000	9	...........
	104	1.4	8.72735E-001	9.11200E-005	0.00000E+000	7.95236E-005	5.39641E-002	8.72867E-001	3.57520E+000	9	...........
	105	1.41333	8.74676E-001	9.11179E-005	0.00000E+000	7.96986E-005	5.39641E-002	8.74827E-001	3.57520E+000	9	...........
	106	1.42667	8.76620E-001	9.11418E-005	0.00000E+000	7.98968E-005	5.39641E-002	8.76767E-001	3.57520E+000	9	...........
	107	1.44	8.78494E-001	9.11127E-005	0.00000E+000	8.00419E-005	5.39641E-002	8.78648E-001	3.57520E+000	9	...........
	108	1.45333	8.80393E-001	9.11502E-005	0.00000E+000	8.02480E-005	5.39641E-002	8.80533E-001	3.57520E+000	9	...........
	109	1.46667	8.82277E-001	9.15596E-005	0.00000E+000	8.07810E-005	5.39641E-002	8.82416E-001	3.57520E+000	9	...........
	110	1.48	8.84131E-001	9.11950E-005	0.00000E+000	8.06283E-005	5.39641E-002	8.84278E-001	3.57520E+000	9	...........
	111	1.49333	8.85968E-001	9.09783E-005	0.00000E+000	8.06038E-005	5.39641E-002	8.86098E-001	3.57520E+000	9	...........
	112	1.50667	8.87760E-001	9.11189E-005	0.00000E+000	8.08917E-005	5.39641E-002	8.87898E-001	3.57520E+000	9	...........
	113	1.52	8.89574E-001	9.13033E-005	0.00000E+000	8.12211E-005	5.39641E-002	8.89686E-001	3.57520E+000	9	...........
	114	1.53333	8.91343E-001	9.12033E-005	0.00000E+000	8.12935E-005	5.39641E-002	8.91496E-001	3.57520E+000	9	...........
	115	1.54667	8.93088E-001	9.13315E-005	0.00000E+000	8.15670E-005	5.39641E-002	8.93240E-001	3.57520E+000	9	...........
	116	1.56	8.94852E-001	9.12158E-005	0.00000E+000	8.16247E-005	5.39641E-002	8.95032E-001	3.57520E+000	9	...........
	117	1.57333	8.96622E-001	9.12731E-005	0.00000E+000	8.18374E-005	5.39641E-002	8.96778E-001	3.57520E+000	9	...........
	118	1.58667	8.98353E-001	9.11012E-005	0.00000E+000	8.18411E-005	5.39641E-002	8.98507E-001	3.57520E+000	9	...........
	119	1.6	9.00020E-001	9.14481E-005	0.00000E+000	8.23052E-005	5.39641E-002	9.00172E-001	3.57520E+000	9	...........
	120	1.61333	9.01708E-001	9.12346E-005	0.00000E+000	8.22670E-005	5.39641E-002	9.01867E-001	3.57464E+000	9	...........
	121	1.62667	9.03355E-001	9.14648E-005	0.00000E+000	8.26252E-005	5.39641E-002	9.03545E-001	3.57150E+000	9	...........
	122	1.64	9.05012E-001	9.12564E-005	0.00000E+000	8.25882E-005	5.39641E-002	9.05185E-001	3.57150E+000	9	...........
	123	1.65333	9.06658E-001	9.11054E-005	0.00000E+000	8.26014E-005	5.39641E-002	9.06832E-001	3.57150E+000	9	...........
	124	1.66667	9.08306E-001	9.15753E-005	0.00000E+000	8.31783E-005	5.39641E-002	9.08457E-001	3.57150E+000	9	...........
	125	1.68	9.09924E-001	9.12106E-005	0.00000E+000	8.29947E-005	5.39641E-002	9.10068E-001	3.57150E+000	9	...........
	126	1.69333	9.11536E-001	9.13158E-005	0.00000E+000	8.32376E-005	5.39641E-002	9.11659E-001	3.57150E+000	9	...........
	127	1.70667	9.13121E-001	9.13950E-005	0.00000E+000	8.34547E-005	5.39641E-002	9.13252E-001	3.57150E+000	9	...........
	128	1.72	9.14711E-001	9.11637E-005	0.00000E+000	8.33884E-005	5.39641E-002	9.14853E-001	3.57150E+000	9	...........
	129	1.73333	9.16276E-001	9.11199E-005	0.00000E+000	8.34911E-005	5.39641E-002	9.16430E-001	3.57150E+000	9	...........
	130	1.74667	9.17814E-001	9.12794E-005	0.00000E+000	8.37775E-005	5.39641E-002	9.17962E-001	3.57150E+000	9	...........
	131	1.76	9.19349E-001	9.11168E-005	0.00000E+000	8.37681E-005	5.39641E-002	9.19470E-001	3.57150E+000	9	...........
	132	1.77333	9.20923E-001	9.13773E-005	0.00000E+000	8.41515E-005	5.39641E-002	9.21049E-001	3.57150E+000	9	...........
	133	1.78667	9.22426E-001	9.11012E-005	0.00000E+000	8.40341E-005	5.39641E-002	9.22547E-001	3.57150E+000	9	...........
	134	1.8	9.23917E-001	9.13148E-005	0.00000E+000	8.43672E-005	5.39641E-002	9.24033E-001	3.57150E+000	9	...........
	135	1.81333	9.25392E-001	9.14679E-005	0.00000E+000	8.46437E-005	5.39641E-002	9.25525E-001	3.57150E+000	9	...........
	136	1.82667	9.26864E-001	9.12939E-005	0.00000E+000	8.46171E-005	5.39641E-002	9.27005E-001	3.57150E+000	9	...........
	137	1.84	9.28330E-001	9.11241E-005	0.00000E+000	8.45932E-005	5.39641E-002	9.28472E-001	3.57150E+000	9	...........
	138	1.85333	9.29768E-001	9.14700E-005	0.00000E+000	8.50459E-005	5.39641E-002	9.29908E-001	3.57150E+000	9	...........
	139	1.86667	9.31208E-001	9.11929E-005	0.00000E+000	8.49195E-005	5.39641E-002	9.31337E-001	3.57150E+000	9	...........
	140	1.88	9.32626E-001	9.10762E-005	0.00000E+000	8.49400E-005	5.39641E-002	9.32761E-001	3.57150E+000	9	...........
	141	1.89333	9.34032E-001	9.12533E-005	0.00000E+000	8.52335E-005	5.39641E-002	9.34163E-001	3.57150E+000	9	...........
	142	1.90667	9.35443E-001	9.13335E-005	0.00000E+000	8.54374E-005	5.39641E-002	9.35576E-001	3.57150E+000	9	...........
	143	1.92	9.36814E-001	9.11523E-005	0.00000E+000	8.53927E-005	5.39641E-002	9.36962E-001	3.57150E+000	9	...........
	144	1.93333	9.38189E-001	9.12939E-005	0.00000E+000	8.56510E-005	5.39641E-002	9.38370E-001	3.57150E+000	9	...........
	145	1.94667	9.39551E-001	9.12960E-005	0.00000E+000	8.57773E-005	5.39641E-002	9.39719E-001	3.57150E+000	9	...........
	146	1.96	9.40908E-001	9.10772E-005	0.00000E+000	8.56953E-005	5.39641E-002	9.41060E-001	3.57150E+000	9	...........
	147	1.97333	9.42273E-001	9.13992E-005	0.00000E+000	8.61230E-005	5.39641E-002	9.42384E-001	3.57150E+000	9	...........
	148	1.98667	9.43588E-001	9.14033E-005	0.00000E+000	8.62471E-005	5.39641E-002	9.43731E-001	3.57150E+000	9	...........
	149	2	9.44909E-001	9.12992E-005	0.00000E+000	8.62694E-005	5.39641E-002	9.45051E-001	3.57150E+000	9	...........
	150	2.01333	9.46239E-001	9.11022E-005	0.00000E+000	8.62045E-005	5.39641E-002	9.46394E-001	3.57150E+000	9	...........
	151	2.02667	9.47592E-001	9.13283E-005	0.00000E+000	8.65420E-005	5.39641E-002	9.47704E-001	3.57150E+000	9	...........
	152	2.04	9.48865E-001	9.12648E-005	0.00000E+000	8.65979E-005	5.39641E-002	9.49006E-001	3.57150E+000	9	...........
	153	2.05333	9.50131E-001	9.12908E-005	0.00000E+000	8.67383E-005	5.39641E-002	9.50271E-001	3.57150E+000	9	...........
	154	2.06667	9.51419E-001	9.13658E-005	0.00000E+000	8.69272E-005	5.39641E-002	9.51544E-001	3.57150E+000	9	...........
	155	2.08	9.52662E-001	9.09991E-005	0.00000E+000	8.66914E-005	5.39641E-002	9.52795E-001	3.57150E+000	9	...........
	156	2.09333	9.53923E-001	9.13210E-005	0.00000E+000	8.71132E-005	5.39641E-002	9.54043E-001	3.57150E+000	9	...........
	157	2.10667	9.55148E-001	9.12335E-005	0.00000E+000	8.71415E-005	5.39641E-002	9.55270E-001	3.57150E+000	9	...........
	158	2.12	9.56357E-001	9.10481E-005	0.00000E+000	8.70745E-005	5.39641E-002	9.56504E-001	3.57150E+000	9	...........
	159	2.13333	9.57590E-001	9.10866E-005	0.00000E+000	8.72237E-005	5.39641E-002	9.57736E-001	3.57150E+000	9	...........
	160	2.14667	9.58768E-001	9.13002E-005	0.00000E+000	8.75357E-005	5.39641E-002	9.58946E-001	3.57150E+000	9	...........
	161	2.16	9.59996E-001	9.12596E-005	0.00000E+000	8.76088E-005	5.39641E-002	9.60146E-001	3.57150E+000	9	...........
	162	2.17333	9.61152E-001	9.12783E-005	0.00000E+000	8.77323E-005	5.39641E-002	9.61306E-001	3.57150E+000	9	...........
	163	2.18667	9.62346E-001	9.12075E-005	0.00000E+000	8.77731E-005	5.39641E-002	9.62508E-001	3.57150E+000	9	...........
	164	2.2	9.63506E-001	9.11345E-005	0.00000E+000	8.78087E-005	5.39641E-002	9.63681E-001	3.57150E+000	9	...........
	165	2.21333	9.64672E-001	9.13627E-005	0.00000E+000	8.81350E-005	5.39641E-002	9.64848E-001	3.57150E+000	9	...........
	166	2.22667	9.65815E-001	9.14992E-005	0.00000E+000	8.83713E-005	5.39641E-002	9.65989E-001	3.57150E+000	9	...........
	167	2.24	9.66958E-001	9.11679E-005	0.00000E+000	8.81555E-005	5.39641E-002	9.67120E-001	3.57150E+000	9	...........
	168	2.25333	9.68126E-001	9.11700E-005	0.00000E+000	8.82640E-005	5.39641E-002	9.68254E-001	3.57150E+000	9	...........
	169	2.26667	9.69245E-001	9.13075E-005	0.00000E+000	8.84993E-005	5.39641E-002	9.69406E-001	3.57150E+000	9	...........
	170	2.28	9.70355E-001	9.11845E-005	0.00000E+000	8.84814E-005	5.39641E-002	9.70529E-001	3.57150E+000	9	...........
	171	2.29333	9.71464E-001	9.12241E-005	0.00000E+000	8.86210E-005	5.39641E-002	9.71636E-001	3.57150E+000	9	...........
	172	2.30667	9.72617E-001	9.11147E-005	0.00000E+000	8.86198E-005	5.39641E-002	9.72776E-001	3.57150E+000	9	...........
	173	2.32	9.73730E-001	9.11252E-005	0.00000E+000	8.87313E-005	5.39641E-002	9.73845E-001	3.57150E+000	9	...........
	174	2.33333	9.74787E-001	9.13304E-005	0.00000E+000	8.90277E-005	5.39641E-002	9.74910E-001	3.57150E+000	9	...........
	175	2.34667	9.75843E-001	9.12168E-005	0.00000E+000	8.90134E-005	5.39641E-002	9.75996E-001	3.57150E+000	9	...........
	176	2.36	9.76918E-001	9.10887E-005	0.00000E+000	8.89861E-005	5.39641E-002	9.77063E-001	3.57150E+000	9	...........
	177	2.37333	9.77963E-001	9.12377E-005	0.00000E+000	8.92271E-005	5.39641E-002	9.78109E-001	3.57150E+000	9	...........
	178	2.38667	9.79003E-001	9.13929E-005	0.00000E+000	8.94740E-005	5.39641E-002	9.79148E-001	3.57150E+000	9	...........
	179	2.4	9.80036E-001	9.11637E-005	0.00000E+000	8.93437E-005	5.39641E-002	9.80171E-001	3.57150E+000	9	...........
	180	2.41333	9.81064E-001	9.13148E-005	0.00000E+000	8.95857E-005	5.39641E-002	9.81190E-001	3.57150E+000	9	...........
	181	2.42667	9.82071E-001	9.13315E-005	0.00000E+000	8.96939E-005	5.39641E-002	9.82220E-001	3.57150E+000	9	...........
	182	2.44	9.83064E-001	9.12304E-005	0.00000E+000	8.96853E-005	5.39641E-002	9.83211E-001	3.57150E+000	9	...........
	183	2.45333	9.84068E-001	9.12971E-005	0.00000E+000	8.98425E-005	5.39641E-002	9.84230E-001	3.57150E+000	9	...........
	184	2.46667	9.85063E-001	9.10762E-005	0.00000E+000	8.97158E-005	5.39641E-002	9.85239E-001	3.57150E+000	9	...........
	185	2.48	9.86053E-001	9.11408E-005	0.00000E+000	8.98697E-005	5.39641E-002	9.86234E-001	3.57150E+000	9	...........
	186	2.49333	9.87009E-001	9.10991E-005	0.00000E+000	8.99156E-005	5.39641E-002	9.87219E-001	3.57150E+000	9	...........
	187	2.50667	9.87995E-001	9.14065E-005	0.00000E+000	9.03092E-005	5.39641E-002	9.88190E-001	3.57150E+000	9	...........
	188	2.52	9.88966E-001	9.13304E-005	0.00000E+000	9.03226E-005	5.39641E-002	9.89145E-001	3.57150E+000	9	...........
	189	2.53333	9.89927E-001	9.11418E-005	0.00000E+000	9.02238E-005	5.39641E-002	9.90101E-001	3.57150E+000	9	...........
	190	2.54667	9.90896E-001	9.09855E-005	0.00000E+000	9.01572E-005	5.39641E-002	9.91060E-001	3.57150E+000	9	...........
	191	2.56	9.91825E-001	9.13648E-005	0.00000E+000	9.06179E-005	5.39641E-002	9.92002E-001	3.57150E+000	9	...........
	192	2.57333	9.92755E-001	9.11606E-005	0.00000E+000	9.05001E-005	5.39641E-002	9.92934E-001	3.57150E+000	9	...........
	193	2.58667	9.93690E-001	9.13085E-005	0.00000E+000	9.07324E-005	5.39641E-002	9.93860E-001	3.57150E+000	9	...........
	194	2.6	9.94623E-001	9.12273E-005	0.00000E+000	9.07367E-005	5.39641E-002	9.94774E-001	3.57150E+000	9	...........
	195	2.61333	9.95558E-001	9.12627E-005	0.00000E+000	9.08573E-005	5.39641E-002	9.95682E-001	3.57141E+000	9	...........
	196	2.62667	9.96458E-001	9.14086E-005	0.00000E+000	9.10848E-005	5.39641E-002	9.96606E-001	3.57090E+000	9	...........
	197	2.64	9.97355E-001	9.11397E-005	0.00000E+000	9.08987E-005	5.39641E-002	9.97541E-001	3.57090E+000	9	...........
	198	2.65333	9.98275E-001	9.09345E-005	0.00000E+000	9.07777E-005	5.39641E-002	9.98439E-001	3.57090E+000	9	...........
	199	2.66667	9.99176E-001	9.10293E-005	0.00000E+000	9.09543E-005	5.39641E-002	9.99324E-001	3.57090E+000	9	...........
	200	2.67333	9.99838E-001	9.13023E-005	0.00000E+000	9.12875E-005	5.39641E-002	9.99987E-001	3.57090E+000	9	...........
STARTTIMEOFFSET	QUANT	148.0717	Start Time Offset (s)
