EXPLAIN
TAG	PWR800_CHARGE
TITLE	LABEL	PWR Cyclic Charge Discharge (Cell) - Charge Step	Test &Identifier
DATE	LABEL	10-7-2017	Date
TIME	LABEL	16:25:32	Time
NOTES	NOTES	3	&Notes...
	supercap test cell
	0.9mg
	6M KOH
PSTAT	PSTAT	IFC5000-01520	Potentiostat
CAPACITY	QUANT	1.00000E-003	Capacity (A-hr)
CELLTYPE	SELECTOR	1	&Cell Type
WORKINGCONNECTION	SELECTOR	0	&Working Lead
MAXCHARGETIME	VARIABLEANDUNITS	1.00000E+002	s	1.00000E+002	second(s)	Max &Charge Time
CHARGECURRENT	QUANT	9.00000E-005	&Charge Current (A) 
VOLTAGEFINISH	TWOPARAM	F	1.00000E-003	3.60000E+003	&Voltage Finish	 I (A) < 	Max Time(s)
SAMPLETIME	QUANT	1.00000E-002	Sa&mple Period (s)
CHARGESTOPAT1	MULTIPARAM	4	1.00000E+000	Charge Stop At &1	Voltage > Limit	V
CHARGESTOPAT2	MULTIPARAM	0	0.00000E+000	Charge Stop At &2	None	N/A
AESBHCSELECTOR	TOGGLE	F	Save Both Half Cells
IRCOMP	TOGGLE	F	IR &Measure
EOC	QUANT	0	Open Circuit (V)
SEQUENCER	TOGGLE	TRUE	Run as Sequence
PSTATMODEL	IQUANT	53	Pstat Model
PSTATSECTION	LABEL	IFC5000-01520	Pstat Section
PSTATSERIALNO	LABEL	01520	Pstat Serial Number
CTRLMODE	IQUANT	0	Control Mode
ELECTROMETER	IQUANT	1	RE=0 or CS=1
IESTAB	IQUANT	0	I/E Stability
CASPEED	IQUANT	4	Control Amp Speed
CONVENTION	IQUANT	1	Current Convention
ICHRANGE	IQUANT	2	Ich Range
ICHRANGEMODE	TOGGLE	T	Ich Auto Range
ICHOFFSETENABLE	TOGGLE	F	Ich Offset Enable
ICHOFFSET	QUANT	0	Ich Offset (V)
ICHFILTER	IQUANT	1	Ich Filter
VCHRANGE	IQUANT	2	Vch Range
VCHRANGEMODE	TOGGLE	T	Vch Auto Range
VCHOFFSETENABLE	TOGGLE	F	Vch Offset Enable
VCHOFFSET	QUANT	0	Vch Offset (V)
VCHFILTER	IQUANT	1	Vch Filter
IERANGELOWERLIMIT	IQUANT	9	I/E Range Lower Limit
IERANGEMODE	TOGGLE	F	I/E AutoRange
IERANGE	IQUANT	9	I/E Range
ACHSELECT	IQUANT	1	Ach Select
ACHRANGE	IQUANT	2	Ach Range
ACHOFFSETENABLE	TOGGLE	F	Ach Offset Enable
ACHOFFSET	QUANT	0	Ach Offset (V)
ACHFILTER	IQUANT	1	Ach Filter
CABLEID	IQUANT	14	Cable ID
DCCALDATE	LABEL	5-7-2017	DC Calibration Date
ACCALDATE	LABEL	12/3/2015	AC Calibration Date
FRAMEWORKVERSION	QUANT	7.01	Framework Version
INSTRUMENTVERSION	LABEL	4.00	Instrument Version
CURVE	TABLE	161
	Pt	T	Vf	Im	Vu	Pwr	Sig	Ach	Temp	IERange	Over
	#	s	V	A	V	W	V	V	deg C	#	bits
	0	0.013333	2.64185E-001	9.07511E-005	0.00000E+000	2.39751E-005	5.39641E-002	2.64232E-001	3.57330E+000	9	...........
	1	0.026667	2.83812E-001	9.06438E-005	0.00000E+000	2.57258E-005	5.39641E-002	2.83851E-001	3.57330E+000	9	...........
	2	0.04	3.02291E-001	9.07292E-005	0.00000E+000	2.74266E-005	5.39641E-002	3.02331E-001	3.57330E+000	9	...........
	3	0.053333	3.19775E-001	9.08751E-005	0.00000E+000	2.90596E-005	5.39641E-002	3.19821E-001	3.57330E+000	9	...........
	4	0.066667	3.36350E-001	9.10283E-005	0.00000E+000	3.06174E-005	5.39641E-002	3.36395E-001	3.57330E+000	9	...........
	5	0.08	3.52107E-001	9.08241E-005	0.00000E+000	3.19798E-005	5.39641E-002	3.52155E-001	3.57330E+000	9	...........
	6	0.093333	3.67123E-001	9.09137E-005	0.00000E+000	3.33765E-005	5.39641E-002	3.67168E-001	3.57330E+000	9	...........
	7	0.106667	3.81429E-001	9.10033E-005	0.00000E+000	3.47113E-005	5.39641E-002	3.81481E-001	3.57330E+000	9	...........
	8	0.12	3.95090E-001	9.07990E-005	0.00000E+000	3.58738E-005	5.39641E-002	3.95142E-001	3.57330E+000	9	...........
	9	0.133333	4.08164E-001	9.11377E-005	0.00000E+000	3.71991E-005	5.39641E-002	4.08220E-001	3.57330E+000	9	...........
	10	0.146667	4.20687E-001	9.11616E-005	0.00000E+000	3.83505E-005	5.39641E-002	4.20745E-001	3.57330E+000	9	...........
	11	0.16	4.32708E-001	9.07282E-005	0.00000E+000	3.92588E-005	5.39641E-002	4.32764E-001	3.57330E+000	9	...........
	12	0.173333	4.44254E-001	9.11356E-005	0.00000E+000	4.04874E-005	5.39641E-002	4.44312E-001	3.57330E+000	9	...........
	13	0.186667	4.55360E-001	9.09001E-005	0.00000E+000	4.13922E-005	5.39641E-002	4.55420E-001	3.57330E+000	9	...........
	14	0.2	4.66060E-001	9.11595E-005	0.00000E+000	4.24858E-005	5.39641E-002	4.66124E-001	3.57330E+000	9	...........
	15	0.213333	4.76373E-001	9.10585E-005	0.00000E+000	4.33778E-005	5.39641E-002	4.76431E-001	3.57330E+000	9	...........
	16	0.226667	4.86325E-001	9.08522E-005	0.00000E+000	4.41837E-005	5.39641E-002	4.86391E-001	3.57330E+000	9	...........
	17	0.24	4.95960E-001	9.10356E-005	0.00000E+000	4.51500E-005	5.39641E-002	4.96029E-001	3.57330E+000	9	...........
	18	0.253333	5.05274E-001	9.09908E-005	0.00000E+000	4.59752E-005	5.39641E-002	5.05342E-001	3.57330E+000	9	...........
	19	0.266667	5.14295E-001	9.07355E-005	0.00000E+000	4.66649E-005	5.39641E-002	5.14368E-001	3.57330E+000	9	...........
	20	0.28	5.23029E-001	9.08126E-005	0.00000E+000	4.74976E-005	5.39641E-002	5.23100E-001	3.57330E+000	9	...........
	21	0.293333	5.31481E-001	9.09626E-005	0.00000E+000	4.83449E-005	5.39641E-002	5.31564E-001	3.57330E+000	9	...........
	22	0.306667	5.39643E-001	9.10616E-005	0.00000E+000	4.91408E-005	5.39641E-002	5.39772E-001	3.57330E+000	9	...........
	23	0.32	5.47658E-001	9.08428E-005	0.00000E+000	4.97507E-005	5.39641E-002	5.47794E-001	3.57330E+000	9	...........
	24	0.333333	5.55449E-001	9.09043E-005	0.00000E+000	5.04927E-005	5.39641E-002	5.55587E-001	3.57330E+000	9	...........
	25	0.346667	5.63063E-001	9.08595E-005	0.00000E+000	5.11596E-005	5.39641E-002	5.63235E-001	3.57330E+000	9	...........
	26	0.36	5.70494E-001	9.08626E-005	0.00000E+000	5.18365E-005	5.39641E-002	5.70612E-001	3.57330E+000	9	...........
	27	0.373333	5.77701E-001	9.09960E-005	0.00000E+000	5.25685E-005	5.39641E-002	5.77848E-001	3.57330E+000	9	...........
	28	0.386667	5.84730E-001	9.08939E-005	0.00000E+000	5.31484E-005	5.39641E-002	5.84885E-001	3.57330E+000	9	...........
	29	0.4	5.91664E-001	9.08970E-005	0.00000E+000	5.37805E-005	5.39641E-002	5.91816E-001	3.57330E+000	9	...........
	30	0.413333	5.98400E-001	9.07668E-005	0.00000E+000	5.43148E-005	5.39641E-002	5.98532E-001	3.57330E+000	9	...........
	31	0.426667	6.04940E-001	9.09908E-005	0.00000E+000	5.50439E-005	5.39641E-002	6.05112E-001	3.57330E+000	9	...........
	32	0.44	6.11355E-001	9.10741E-005	0.00000E+000	5.56786E-005	5.39641E-002	6.11543E-001	3.57330E+000	9	...........
	33	0.453333	6.17716E-001	9.10147E-005	0.00000E+000	5.62213E-005	5.39641E-002	6.17823E-001	3.57330E+000	9	...........
	34	0.466667	6.23876E-001	9.08803E-005	0.00000E+000	5.66980E-005	5.39641E-002	6.23971E-001	3.57330E+000	9	...........
	35	0.48	6.29907E-001	9.08605E-005	0.00000E+000	5.72337E-005	5.39641E-002	6.30014E-001	3.57330E+000	9	...........
	36	0.493333	6.35833E-001	9.09105E-005	0.00000E+000	5.78039E-005	5.39641E-002	6.35947E-001	3.57330E+000	9	...........
	37	0.506667	6.41652E-001	9.12304E-005	0.00000E+000	5.85382E-005	5.39641E-002	6.41801E-001	3.57330E+000	9	...........
	38	0.52	6.47336E-001	9.11637E-005	0.00000E+000	5.90135E-005	5.39641E-002	6.47439E-001	3.57330E+000	9	...........
	39	0.533333	6.52901E-001	9.09074E-005	0.00000E+000	5.93536E-005	5.39641E-002	6.53031E-001	3.57330E+000	9	...........
	40	0.546667	6.58387E-001	9.10356E-005	0.00000E+000	5.99367E-005	5.39641E-002	6.58508E-001	3.57330E+000	9	...........
	41	0.56	6.63770E-001	9.08147E-005	0.00000E+000	6.02801E-005	5.39641E-002	6.63910E-001	3.57330E+000	9	...........
	42	0.573333	6.69074E-001	9.09793E-005	0.00000E+000	6.08719E-005	5.39641E-002	6.69200E-001	3.57330E+000	9	...........
	43	0.586667	6.74257E-001	9.09553E-005	0.00000E+000	6.13273E-005	5.39641E-002	6.74387E-001	3.57330E+000	9	...........
	44	0.6	6.79373E-001	9.09564E-005	0.00000E+000	6.17933E-005	5.39641E-002	6.79514E-001	3.57330E+000	9	...........
	45	0.613333	6.84408E-001	9.08689E-005	0.00000E+000	6.21914E-005	5.39641E-002	6.84525E-001	3.57330E+000	9	...........
	46	0.626667	6.89347E-001	9.09637E-005	0.00000E+000	6.27056E-005	5.39641E-002	6.89477E-001	3.57330E+000	9	...........
	47	0.64	6.94254E-001	9.11022E-005	0.00000E+000	6.32481E-005	5.39641E-002	6.94357E-001	3.57330E+000	9	...........
	48	0.653333	6.99041E-001	9.09585E-005	0.00000E+000	6.35837E-005	5.39641E-002	6.99185E-001	3.57330E+000	9	...........
	49	0.666667	7.03787E-001	9.09689E-005	0.00000E+000	6.40227E-005	5.39641E-002	7.03890E-001	3.57330E+000	9	...........
	50	0.68	7.08406E-001	9.06240E-005	0.00000E+000	6.41986E-005	5.39641E-002	7.08554E-001	3.57330E+000	9	...........
	51	0.693333	7.12997E-001	9.10658E-005	0.00000E+000	6.49297E-005	5.39641E-002	7.13124E-001	3.57330E+000	9	...........
	52	0.706667	7.17577E-001	9.11054E-005	0.00000E+000	6.53751E-005	5.39641E-002	7.17683E-001	3.57330E+000	9	...........
	53	0.72	7.22046E-001	9.08605E-005	0.00000E+000	6.56055E-005	5.39641E-002	7.22153E-001	3.57330E+000	9	...........
	54	0.733333	7.26482E-001	9.10324E-005	0.00000E+000	6.61335E-005	5.39641E-002	7.26585E-001	3.57330E+000	9	...........
	55	0.746667	7.30840E-001	9.08480E-005	0.00000E+000	6.63954E-005	5.39641E-002	7.30973E-001	3.57330E+000	9	...........
	56	0.76	7.35103E-001	9.08543E-005	0.00000E+000	6.67873E-005	5.39641E-002	7.35234E-001	3.57330E+000	9	...........
	57	0.773333	7.39350E-001	9.09605E-005	0.00000E+000	6.72516E-005	5.39641E-002	7.39501E-001	3.57330E+000	9	...........
	58	0.786667	7.43605E-001	9.08116E-005	0.00000E+000	6.75279E-005	5.39641E-002	7.43720E-001	3.57330E+000	9	...........
	59	0.8	7.47739E-001	9.09512E-005	0.00000E+000	6.80077E-005	5.39641E-002	7.47855E-001	3.57330E+000	9	...........
	60	0.813333	7.51822E-001	9.10960E-005	0.00000E+000	6.84879E-005	5.39641E-002	7.51946E-001	3.57355E+000	9	...........
	61	0.826667	7.55892E-001	9.11898E-005	0.00000E+000	6.89296E-005	5.39641E-002	7.56002E-001	3.57430E+000	9	...........
	62	0.84	7.59862E-001	9.10137E-005	0.00000E+000	6.91579E-005	5.39641E-002	7.59996E-001	3.57430E+000	9	...........
	63	0.853333	7.63826E-001	9.08595E-005	0.00000E+000	6.94008E-005	5.39641E-002	7.63935E-001	3.57430E+000	9	...........
	64	0.866667	7.67736E-001	9.12325E-005	0.00000E+000	7.00425E-005	5.39641E-002	7.67881E-001	3.57430E+000	9	...........
	65	0.88	7.71633E-001	9.11908E-005	0.00000E+000	7.03658E-005	5.39641E-002	7.71732E-001	3.57430E+000	9	...........
	66	0.893333	7.75432E-001	9.09064E-005	0.00000E+000	7.04917E-005	5.39641E-002	7.75559E-001	3.57430E+000	9	...........
	67	0.906667	7.79206E-001	9.10564E-005	0.00000E+000	7.09517E-005	5.39641E-002	7.79355E-001	3.57430E+000	9	...........
	68	0.92	7.82965E-001	9.09147E-005	0.00000E+000	7.11830E-005	5.39641E-002	7.83100E-001	3.57430E+000	9	...........
	69	0.933333	7.86637E-001	9.08907E-005	0.00000E+000	7.14980E-005	5.39641E-002	7.86804E-001	3.57430E+000	9	...........
	70	0.946667	7.90272E-001	9.10345E-005	0.00000E+000	7.19420E-005	5.39641E-002	7.90422E-001	3.57430E+000	9	...........
	71	0.96	7.93907E-001	9.10752E-005	0.00000E+000	7.23052E-005	5.39641E-002	7.94060E-001	3.57430E+000	9	...........
	72	0.97333	7.97462E-001	9.09574E-005	0.00000E+000	7.25351E-005	5.39641E-002	7.97610E-001	3.57430E+000	9	...........
	73	0.98667	8.01003E-001	9.10585E-005	0.00000E+000	7.29381E-005	5.39641E-002	8.01156E-001	3.57430E+000	9	...........
	74	1	8.04483E-001	9.11627E-005	0.00000E+000	7.33388E-005	5.39641E-002	8.04661E-001	3.57430E+000	9	...........
	75	1.01333	8.07944E-001	9.09314E-005	0.00000E+000	7.34674E-005	5.39641E-002	8.08106E-001	3.57430E+000	9	...........
	76	1.02667	8.11330E-001	9.11731E-005	0.00000E+000	7.39715E-005	5.39641E-002	8.11506E-001	3.57430E+000	9	...........
	77	1.04	8.14713E-001	9.09814E-005	0.00000E+000	7.41237E-005	5.39641E-002	8.14901E-001	3.57430E+000	9	...........
	78	1.05333	8.18060E-001	9.09730E-005	0.00000E+000	7.44214E-005	5.39641E-002	8.18256E-001	3.57430E+000	9	...........
	79	1.06667	8.21388E-001	9.10522E-005	0.00000E+000	7.47892E-005	5.39641E-002	8.21567E-001	3.57430E+000	9	...........
	80	1.08	8.24674E-001	9.07584E-005	0.00000E+000	7.48461E-005	5.39641E-002	8.24852E-001	3.57430E+000	9	...........
	81	1.09333	8.27910E-001	9.10033E-005	0.00000E+000	7.53425E-005	5.39641E-002	8.28078E-001	3.57430E+000	9	...........
	82	1.10667	8.31144E-001	9.09741E-005	0.00000E+000	7.56125E-005	5.39641E-002	8.31297E-001	3.57430E+000	9	...........
	83	1.12	8.34302E-001	9.09314E-005	0.00000E+000	7.58642E-005	5.39641E-002	8.34468E-001	3.57430E+000	9	...........
	84	1.13333	8.37458E-001	9.10647E-005	0.00000E+000	7.62629E-005	5.39641E-002	8.37601E-001	3.57430E+000	9	...........
	85	1.14667	8.40565E-001	9.08532E-005	0.00000E+000	7.63680E-005	5.39641E-002	8.40689E-001	3.57430E+000	9	...........
	86	1.16	8.43668E-001	9.11773E-005	0.00000E+000	7.69234E-005	5.39641E-002	8.43785E-001	3.57430E+000	9	...........
	87	1.17333	8.46741E-001	9.11033E-005	0.00000E+000	7.71408E-005	5.39641E-002	8.46867E-001	3.57430E+000	9	...........
	88	1.18667	8.49761E-001	9.08782E-005	0.00000E+000	7.72247E-005	5.39641E-002	8.49906E-001	3.57430E+000	9	...........
	89	1.2	8.52738E-001	9.10553E-005	0.00000E+000	7.76463E-005	5.39641E-002	8.52876E-001	3.57430E+000	9	...........
	90	1.21333	8.55686E-001	9.07303E-005	0.00000E+000	7.76367E-005	5.39641E-002	8.55844E-001	3.57430E+000	9	...........
	91	1.22667	8.58601E-001	9.09022E-005	0.00000E+000	7.80487E-005	5.39641E-002	8.58788E-001	3.57430E+000	9	...........
	92	1.24	8.61529E-001	9.10491E-005	0.00000E+000	7.84414E-005	5.39641E-002	8.61712E-001	3.57430E+000	9	...........
	93	1.25333	8.64362E-001	9.12252E-005	0.00000E+000	7.88516E-005	5.39641E-002	8.64559E-001	3.57430E+000	9	...........
	94	1.26667	8.67199E-001	9.10199E-005	0.00000E+000	7.89324E-005	5.39641E-002	8.67421E-001	3.57430E+000	9	...........
	95	1.28	8.70034E-001	9.07907E-005	0.00000E+000	7.89910E-005	5.39641E-002	8.70249E-001	3.57430E+000	9	...........
	96	1.29333	8.72823E-001	9.08991E-005	0.00000E+000	7.93388E-005	5.39641E-002	8.73008E-001	3.57430E+000	9	...........
	97	1.30667	8.75556E-001	9.08689E-005	0.00000E+000	7.95608E-005	5.39641E-002	8.75742E-001	3.57430E+000	9	...........
	98	1.32	8.78267E-001	9.09626E-005	0.00000E+000	7.98895E-005	5.39641E-002	8.78464E-001	3.57430E+000	9	...........
	99	1.33333	8.80961E-001	9.09355E-005	0.00000E+000	8.01106E-005	5.39641E-002	8.81156E-001	3.57430E+000	9	...........
	100	1.34667	8.83659E-001	9.10845E-005	0.00000E+000	8.04877E-005	5.39641E-002	8.83837E-001	3.57430E+000	9	...........
	101	1.36	8.86264E-001	9.07907E-005	0.00000E+000	8.04645E-005	5.39641E-002	8.86474E-001	3.57430E+000	9	...........
	102	1.37333	8.88904E-001	9.09783E-005	0.00000E+000	8.08709E-005	5.39641E-002	8.89072E-001	3.57430E+000	9	...........
	103	1.38667	8.91487E-001	9.09658E-005	0.00000E+000	8.10948E-005	5.39641E-002	8.91649E-001	3.57430E+000	9	...........
	104	1.4	8.94022E-001	9.10533E-005	0.00000E+000	8.14036E-005	5.39641E-002	8.94207E-001	3.57430E+000	9	...........
	105	1.41333	8.96580E-001	9.08636E-005	0.00000E+000	8.14665E-005	5.39641E-002	8.96760E-001	3.57430E+000	9	...........
	106	1.42667	8.99066E-001	9.09605E-005	0.00000E+000	8.17796E-005	5.39641E-002	8.99253E-001	3.57430E+000	9	...........
	107	1.44	9.01548E-001	9.12221E-005	0.00000E+000	8.22411E-005	5.39641E-002	9.01724E-001	3.57430E+000	9	...........
	108	1.45333	9.03992E-001	9.09230E-005	0.00000E+000	8.21937E-005	5.39641E-002	9.04172E-001	3.57430E+000	9	...........
	109	1.46667	9.06424E-001	9.06949E-005	0.00000E+000	8.22080E-005	5.39641E-002	9.06575E-001	3.57430E+000	9	...........
	110	1.48	9.08842E-001	9.11283E-005	0.00000E+000	8.28212E-005	5.39641E-002	9.08987E-001	3.57430E+000	9	...........
	111	1.49333	9.11211E-001	9.09012E-005	0.00000E+000	8.28301E-005	5.39641E-002	9.11349E-001	3.57430E+000	9	...........
	112	1.50667	9.13533E-001	9.11387E-005	0.00000E+000	8.32582E-005	5.39641E-002	9.13703E-001	3.57430E+000	9	...........
	113	1.52	9.15836E-001	9.11918E-005	0.00000E+000	8.35168E-005	5.39641E-002	9.16023E-001	3.57430E+000	9	...........
	114	1.53333	9.18123E-001	9.10491E-005	0.00000E+000	8.35943E-005	5.39641E-002	9.18299E-001	3.57430E+000	9	...........
	115	1.54667	9.20393E-001	9.09553E-005	0.00000E+000	8.37146E-005	5.39641E-002	9.20585E-001	3.57430E+000	9	...........
	116	1.56	9.22676E-001	9.09647E-005	0.00000E+000	8.39310E-005	5.39641E-002	9.22844E-001	3.57430E+000	9	...........
	117	1.57333	9.24892E-001	9.09689E-005	0.00000E+000	8.41364E-005	5.39641E-002	9.25054E-001	3.57430E+000	9	...........
	118	1.58667	9.27072E-001	9.08751E-005	0.00000E+000	8.42477E-005	5.39641E-002	9.27242E-001	3.57430E+000	9	...........
	119	1.6	9.29219E-001	9.09428E-005	0.00000E+000	8.45058E-005	5.39641E-002	9.29380E-001	3.57430E+000	9	...........
	120	1.61333	9.31361E-001	9.08126E-005	0.00000E+000	8.45793E-005	5.39641E-002	9.31523E-001	3.57430E+000	9	...........
	121	1.62667	9.33458E-001	9.07626E-005	0.00000E+000	8.47230E-005	5.39641E-002	9.33649E-001	3.57430E+000	9	...........
	122	1.64	9.35578E-001	9.09053E-005	0.00000E+000	8.50491E-005	5.39641E-002	9.35751E-001	3.57430E+000	9	...........
	123	1.65333	9.37640E-001	9.10053E-005	0.00000E+000	8.53303E-005	5.39641E-002	9.37838E-001	3.57430E+000	9	...........
	124	1.66667	9.39691E-001	9.11533E-005	0.00000E+000	8.56559E-005	5.39641E-002	9.39908E-001	3.57430E+000	9	...........
	125	1.68	9.41734E-001	9.11606E-005	0.00000E+000	8.58491E-005	5.39641E-002	9.41901E-001	3.57430E+000	9	...........
	126	1.69333	9.43715E-001	9.10095E-005	0.00000E+000	8.58871E-005	5.39641E-002	9.43894E-001	3.57430E+000	9	...........
	127	1.70667	9.45666E-001	9.09678E-005	0.00000E+000	8.60252E-005	5.39641E-002	9.45871E-001	3.57430E+000	9	...........
	128	1.72	9.47688E-001	9.07813E-005	0.00000E+000	8.60324E-005	5.39641E-002	9.47866E-001	3.57430E+000	9	...........
	129	1.73333	9.49609E-001	9.08470E-005	0.00000E+000	8.62691E-005	5.39641E-002	9.49793E-001	3.57430E+000	9	...........
	130	1.74667	9.51518E-001	9.10804E-005	0.00000E+000	8.66646E-005	5.39641E-002	9.51709E-001	3.57430E+000	9	...........
	131	1.76	9.53426E-001	9.09407E-005	0.00000E+000	8.67053E-005	5.39641E-002	9.53603E-001	3.57430E+000	9	...........
	132	1.77333	9.55313E-001	9.11793E-005	0.00000E+000	8.71048E-005	5.39641E-002	9.55478E-001	3.57430E+000	9	...........
	133	1.78667	9.57149E-001	9.08949E-005	0.00000E+000	8.70000E-005	5.39641E-002	9.57308E-001	3.57430E+000	9	...........
	134	1.8	9.58962E-001	9.09668E-005	0.00000E+000	8.72337E-005	5.39641E-002	9.59166E-001	3.57430E+000	9	...........
	135	1.81333	9.60787E-001	9.10231E-005	0.00000E+000	8.74537E-005	5.39641E-002	9.60996E-001	3.57395E+000	9	...........
	136	1.82667	9.62590E-001	9.08282E-005	0.00000E+000	8.74303E-005	5.39641E-002	9.62786E-001	3.57290E+000	9	...........
	137	1.84	9.64358E-001	9.10856E-005	0.00000E+000	8.78391E-005	5.39641E-002	9.64561E-001	3.57290E+000	9	...........
	138	1.85333	9.66091E-001	9.11898E-005	0.00000E+000	8.80976E-005	5.39641E-002	9.66305E-001	3.57290E+000	9	...........
	139	1.86667	9.67834E-001	9.07678E-005	0.00000E+000	8.78482E-005	5.39641E-002	9.68034E-001	3.57290E+000	9	...........
	140	1.88	9.69540E-001	9.08876E-005	0.00000E+000	8.81192E-005	5.39641E-002	9.69775E-001	3.57290E+000	9	...........
	141	1.89333	9.71234E-001	9.11377E-005	0.00000E+000	8.85160E-005	5.39641E-002	9.71480E-001	3.57290E+000	9	...........
	142	1.90667	9.72971E-001	9.12460E-005	0.00000E+000	8.87797E-005	5.39641E-002	9.73175E-001	3.57290E+000	9	...........
	143	1.92	9.74612E-001	9.11918E-005	0.00000E+000	8.88766E-005	5.39641E-002	9.74833E-001	3.57290E+000	9	...........
	144	1.93333	9.76278E-001	9.09460E-005	0.00000E+000	8.87886E-005	5.39641E-002	9.76470E-001	3.57290E+000	9	...........
	145	1.94667	9.77909E-001	9.09876E-005	0.00000E+000	8.89776E-005	5.39641E-002	9.78099E-001	3.57290E+000	9	...........
	146	1.96	9.79520E-001	9.11991E-005	0.00000E+000	8.93314E-005	5.39641E-002	9.79695E-001	3.57290E+000	9	...........
	147	1.97333	9.81095E-001	9.09418E-005	0.00000E+000	8.92226E-005	5.39641E-002	9.81265E-001	3.57290E+000	9	...........
	148	1.98667	9.82637E-001	9.10126E-005	0.00000E+000	8.94324E-005	5.39641E-002	9.82844E-001	3.57290E+000	9	...........
	149	2	9.84178E-001	9.11074E-005	0.00000E+000	8.96659E-005	5.39641E-002	9.84405E-001	3.57290E+000	9	...........
	150	2.01333	9.85704E-001	9.08959E-005	0.00000E+000	8.95965E-005	5.39641E-002	9.85935E-001	3.57290E+000	9	...........
	151	2.02667	9.87209E-001	9.10574E-005	0.00000E+000	8.98927E-005	5.39641E-002	9.87431E-001	3.57290E+000	9	...........
	152	2.04	9.88727E-001	9.09835E-005	0.00000E+000	8.99578E-005	5.39641E-002	9.88924E-001	3.57290E+000	9	...........
	153	2.05333	9.90184E-001	9.10012E-005	0.00000E+000	9.01079E-005	5.39641E-002	9.90396E-001	3.57290E+000	9	...........
	154	2.06667	9.91638E-001	9.10647E-005	0.00000E+000	9.03032E-005	5.39641E-002	9.91847E-001	3.57290E+000	9	...........
	155	2.08	9.93081E-001	9.07542E-005	0.00000E+000	9.01263E-005	5.39641E-002	9.93301E-001	3.57290E+000	9	...........
	156	2.09333	9.94493E-001	9.11304E-005	0.00000E+000	9.06285E-005	5.39641E-002	9.94729E-001	3.57290E+000	9	...........
	157	2.10667	9.95947E-001	9.12366E-005	0.00000E+000	9.08669E-005	5.39641E-002	9.96165E-001	3.57290E+000	9	...........
	158	2.12	9.97368E-001	9.08970E-005	0.00000E+000	9.06577E-005	5.39641E-002	9.97592E-001	3.57290E+000	9	...........
	159	2.13333	9.98747E-001	9.09605E-005	0.00000E+000	9.08466E-005	5.39641E-002	9.98975E-001	3.57290E+000	9	...........
	160	2.14	9.99796E-001	9.07667E-005	0.00000E+000	9.07482E-005	5.39641E-002	9.99990E-001	3.57290E+000	9	...........
STARTTIMEOFFSET	QUANT	4336.611	Start Time Offset (s)
