EXPLAIN
TAG	PWR800_CHARGE
TITLE	LABEL	PWR Cyclic Charge Discharge (Cell) - Charge Step	Test &Identifier
DATE	LABEL	10-7-2017	Date
TIME	LABEL	15:44:48	Time
NOTES	NOTES	3	&Notes...
	supercap test cell
	0.9mg
	6M KOH
PSTAT	PSTAT	IFC5000-01520	Potentiostat
CAPACITY	QUANT	1.00000E-003	Capacity (A-hr)
CELLTYPE	SELECTOR	1	&Cell Type
WORKINGCONNECTION	SELECTOR	0	&Working Lead
MAXCHARGETIME	VARIABLEANDUNITS	1.00000E+002	s	1.00000E+002	second(s)	Max &Charge Time
CHARGECURRENT	QUANT	9.00000E-005	&Charge Current (A) 
VOLTAGEFINISH	TWOPARAM	F	1.00000E-003	3.60000E+003	&Voltage Finish	 I (A) < 	Max Time(s)
SAMPLETIME	QUANT	1.00000E-002	Sa&mple Period (s)
CHARGESTOPAT1	MULTIPARAM	4	1.00000E+000	Charge Stop At &1	Voltage > Limit	V
CHARGESTOPAT2	MULTIPARAM	0	0.00000E+000	Charge Stop At &2	None	N/A
AESBHCSELECTOR	TOGGLE	F	Save Both Half Cells
IRCOMP	TOGGLE	F	IR &Measure
EOC	QUANT	0	Open Circuit (V)
SEQUENCER	TOGGLE	TRUE	Run as Sequence
PSTATMODEL	IQUANT	53	Pstat Model
PSTATSECTION	LABEL	IFC5000-01520	Pstat Section
PSTATSERIALNO	LABEL	01520	Pstat Serial Number
CTRLMODE	IQUANT	0	Control Mode
ELECTROMETER	IQUANT	1	RE=0 or CS=1
IESTAB	IQUANT	0	I/E Stability
CASPEED	IQUANT	4	Control Amp Speed
CONVENTION	IQUANT	1	Current Convention
ICHRANGE	IQUANT	2	Ich Range
ICHRANGEMODE	TOGGLE	T	Ich Auto Range
ICHOFFSETENABLE	TOGGLE	F	Ich Offset Enable
ICHOFFSET	QUANT	0	Ich Offset (V)
ICHFILTER	IQUANT	1	Ich Filter
VCHRANGE	IQUANT	2	Vch Range
VCHRANGEMODE	TOGGLE	T	Vch Auto Range
VCHOFFSETENABLE	TOGGLE	F	Vch Offset Enable
VCHOFFSET	QUANT	0	Vch Offset (V)
VCHFILTER	IQUANT	1	Vch Filter
IERANGELOWERLIMIT	IQUANT	9	I/E Range Lower Limit
IERANGEMODE	TOGGLE	F	I/E AutoRange
IERANGE	IQUANT	9	I/E Range
ACHSELECT	IQUANT	1	Ach Select
ACHRANGE	IQUANT	2	Ach Range
ACHOFFSETENABLE	TOGGLE	F	Ach Offset Enable
ACHOFFSET	QUANT	0	Ach Offset (V)
ACHFILTER	IQUANT	1	Ach Filter
CABLEID	IQUANT	14	Cable ID
DCCALDATE	LABEL	5-7-2017	DC Calibration Date
ACCALDATE	LABEL	12/3/2015	AC Calibration Date
FRAMEWORKVERSION	QUANT	7.01	Framework Version
INSTRUMENTVERSION	LABEL	4.00	Instrument Version
CURVE	TABLE	168
	Pt	T	Vf	Im	Vu	Pwr	Sig	Ach	Temp	IERange	Over
	#	s	V	A	V	W	V	V	deg C	#	bits
	0	0.013333	2.74506E-001	9.10001E-005	0.00000E+000	2.49801E-005	5.39641E-002	2.74556E-001	3.57250E+000	9	...........
	1	0.026667	2.94159E-001	9.08053E-005	0.00000E+000	2.67112E-005	5.39641E-002	2.94201E-001	3.57250E+000	9	...........
	2	0.04	3.12487E-001	9.08074E-005	0.00000E+000	2.83762E-005	5.39641E-002	3.12527E-001	3.57250E+000	9	...........
	3	0.053333	3.29697E-001	9.11752E-005	0.00000E+000	3.00602E-005	5.39641E-002	3.29739E-001	3.57254E+000	9	...........
	4	0.066667	3.45921E-001	9.07855E-005	0.00000E+000	3.14046E-005	5.39641E-002	3.45969E-001	3.57280E+000	9	...........
	5	0.08	3.61271E-001	9.11012E-005	0.00000E+000	3.29122E-005	5.39641E-002	3.61314E-001	3.57280E+000	9	...........
	6	0.093333	3.75838E-001	9.11074E-005	0.00000E+000	3.42417E-005	5.39641E-002	3.75882E-001	3.57280E+000	9	...........
	7	0.106667	3.89692E-001	9.10991E-005	0.00000E+000	3.55006E-005	5.39641E-002	3.89737E-001	3.57280E+000	9	...........
	8	0.12	4.02912E-001	9.09658E-005	0.00000E+000	3.66512E-005	5.39641E-002	4.02959E-001	3.57280E+000	9	...........
	9	0.133333	4.15550E-001	9.10731E-005	0.00000E+000	3.78454E-005	5.39641E-002	4.15603E-001	3.57280E+000	9	...........
	10	0.146667	4.27660E-001	9.08116E-005	0.00000E+000	3.88365E-005	5.39641E-002	4.27716E-001	3.57280E+000	9	...........
	11	0.16	4.39277E-001	9.05813E-005	0.00000E+000	3.97903E-005	5.39641E-002	4.39338E-001	3.57280E+000	9	...........
	12	0.173333	4.50463E-001	9.08657E-005	0.00000E+000	4.09316E-005	5.39641E-002	4.50520E-001	3.57280E+000	9	...........
	13	0.186667	4.61219E-001	9.08199E-005	0.00000E+000	4.18878E-005	5.39641E-002	4.61277E-001	3.57280E+000	9	...........
	14	0.2	4.71589E-001	9.10877E-005	0.00000E+000	4.29559E-005	5.39641E-002	4.71651E-001	3.57280E+000	9	...........
	15	0.213333	4.81607E-001	9.07428E-005	0.00000E+000	4.37024E-005	5.39641E-002	4.81668E-001	3.57280E+000	9	...........
	16	0.226667	4.91292E-001	9.07772E-005	0.00000E+000	4.45981E-005	5.39641E-002	4.91355E-001	3.57280E+000	9	...........
	17	0.24	5.00641E-001	9.09126E-005	0.00000E+000	4.55146E-005	5.39641E-002	5.00712E-001	3.57280E+000	9	...........
	18	0.253333	5.09708E-001	9.10960E-005	0.00000E+000	4.64323E-005	5.39641E-002	5.09778E-001	3.57280E+000	9	...........
	19	0.266667	5.18484E-001	9.09845E-005	0.00000E+000	4.71740E-005	5.39641E-002	5.18555E-001	3.57280E+000	9	...........
	20	0.28	5.27009E-001	9.10751E-005	0.00000E+000	4.79974E-005	5.39641E-002	5.27076E-001	3.57280E+000	9	...........
	21	0.293333	5.35223E-001	9.09908E-005	0.00000E+000	4.87004E-005	5.39641E-002	5.35286E-001	3.57280E+000	9	...........
	22	0.306667	5.43270E-001	9.08011E-005	0.00000E+000	4.93295E-005	5.39641E-002	5.43337E-001	3.57280E+000	9	...........
	23	0.32	5.51103E-001	9.08709E-005	0.00000E+000	5.00792E-005	5.39641E-002	5.51181E-001	3.57280E+000	9	...........
	24	0.333333	5.58724E-001	9.10106E-005	0.00000E+000	5.08498E-005	5.39641E-002	5.58817E-001	3.57280E+000	9	...........
	25	0.346667	5.66192E-001	9.09314E-005	0.00000E+000	5.14846E-005	5.39641E-002	5.66308E-001	3.57280E+000	9	...........
	26	0.36	5.73412E-001	9.08595E-005	0.00000E+000	5.20999E-005	5.39641E-002	5.73515E-001	3.57280E+000	9	...........
	27	0.373333	5.80465E-001	9.10012E-005	0.00000E+000	5.28230E-005	5.39641E-002	5.80578E-001	3.57280E+000	9	...........
	28	0.386667	5.87365E-001	9.11199E-005	0.00000E+000	5.35206E-005	5.39641E-002	5.87473E-001	3.57280E+000	9	...........
	29	0.4	5.94118E-001	9.10731E-005	0.00000E+000	5.41082E-005	5.39641E-002	5.94251E-001	3.57280E+000	9	...........
	30	0.413333	6.00680E-001	9.11158E-005	0.00000E+000	5.47314E-005	5.39641E-002	6.00816E-001	3.57280E+000	9	...........
	31	0.426667	6.07087E-001	9.08355E-005	0.00000E+000	5.51451E-005	5.39641E-002	6.07255E-001	3.57280E+000	9	...........
	32	0.44	6.13404E-001	9.09168E-005	0.00000E+000	5.57688E-005	5.39641E-002	6.13559E-001	3.57280E+000	9	...........
	33	0.453333	6.19620E-001	9.09137E-005	0.00000E+000	5.63320E-005	5.39641E-002	6.19723E-001	3.57280E+000	9	...........
	34	0.466667	6.25653E-001	9.10106E-005	0.00000E+000	5.69410E-005	5.39641E-002	6.25766E-001	3.57280E+000	9	...........
	35	0.48	6.31556E-001	9.08595E-005	0.00000E+000	5.73829E-005	5.39641E-002	6.31679E-001	3.57280E+000	9	...........
	36	0.493333	6.37358E-001	9.11575E-005	0.00000E+000	5.81000E-005	5.39641E-002	6.37491E-001	3.57280E+000	9	...........
	37	0.506667	6.43069E-001	9.08678E-005	0.00000E+000	5.84343E-005	5.39641E-002	6.43198E-001	3.57280E+000	9	...........
	38	0.52	6.48630E-001	9.10345E-005	0.00000E+000	5.90477E-005	5.39641E-002	6.48753E-001	3.57280E+000	9	...........
	39	0.533333	6.54093E-001	9.10033E-005	0.00000E+000	5.95246E-005	5.39641E-002	6.54234E-001	3.57280E+000	9	...........
	40	0.546667	6.59460E-001	9.06782E-005	0.00000E+000	5.97987E-005	5.39641E-002	6.59583E-001	3.57280E+000	9	...........
	41	0.56	6.64752E-001	9.09126E-005	0.00000E+000	6.04344E-005	5.39641E-002	6.64895E-001	3.57280E+000	9	...........
	42	0.573333	6.69962E-001	9.08126E-005	0.00000E+000	6.08410E-005	5.39641E-002	6.70079E-001	3.57280E+000	9	...........
	43	0.586667	6.75038E-001	9.09084E-005	0.00000E+000	6.13667E-005	5.39641E-002	6.75157E-001	3.57280E+000	9	...........
	44	0.6	6.80043E-001	9.09585E-005	0.00000E+000	6.18556E-005	5.39641E-002	6.80167E-001	3.57280E+000	9	...........
	45	0.613333	6.84931E-001	9.07928E-005	0.00000E+000	6.21868E-005	5.39641E-002	6.85069E-001	3.57280E+000	9	...........
	46	0.626667	6.89790E-001	9.08814E-005	0.00000E+000	6.26891E-005	5.39641E-002	6.89914E-001	3.57280E+000	9	...........
	47	0.64	6.94548E-001	9.08386E-005	0.00000E+000	6.30918E-005	5.39641E-002	6.94680E-001	3.57280E+000	9	...........
	48	0.653333	6.99245E-001	9.10866E-005	0.00000E+000	6.36918E-005	5.39641E-002	6.99369E-001	3.57280E+000	9	...........
	49	0.666667	7.03868E-001	9.12002E-005	0.00000E+000	6.41929E-005	5.39641E-002	7.03988E-001	3.57280E+000	9	...........
	50	0.68	7.08417E-001	9.09616E-005	0.00000E+000	6.44387E-005	5.39641E-002	7.08565E-001	3.57280E+000	9	...........
	51	0.693333	7.12894E-001	9.11804E-005	0.00000E+000	6.50019E-005	5.39641E-002	7.13019E-001	3.57280E+000	9	...........
	52	0.706667	7.17339E-001	9.08918E-005	0.00000E+000	6.52002E-005	5.39641E-002	7.17454E-001	3.57280E+000	9	...........
	53	0.72	7.21707E-001	9.09710E-005	0.00000E+000	6.56544E-005	5.39641E-002	7.21803E-001	3.57280E+000	9	...........
	54	0.733333	7.25968E-001	9.08668E-005	0.00000E+000	6.59664E-005	5.39641E-002	7.26084E-001	3.57280E+000	9	...........
	55	0.746667	7.30178E-001	9.10606E-005	0.00000E+000	6.64904E-005	5.39641E-002	7.30316E-001	3.57280E+000	9	...........
	56	0.76	7.34339E-001	9.09616E-005	0.00000E+000	6.67966E-005	5.39641E-002	7.34450E-001	3.57280E+000	9	...........
	57	0.773333	7.38459E-001	9.09105E-005	0.00000E+000	6.71337E-005	5.39641E-002	7.38596E-001	3.57280E+000	9	...........
	58	0.786667	7.42531E-001	9.10595E-005	0.00000E+000	6.76145E-005	5.39641E-002	7.42678E-001	3.57280E+000	9	...........
	59	0.8	7.46530E-001	9.09918E-005	0.00000E+000	6.79281E-005	5.39641E-002	7.46658E-001	3.57280E+000	9	...........
	60	0.813333	7.50504E-001	9.07074E-005	0.00000E+000	6.80762E-005	5.39641E-002	7.50616E-001	3.57280E+000	9	...........
	61	0.826667	7.54405E-001	9.11460E-005	0.00000E+000	6.87610E-005	5.39641E-002	7.54539E-001	3.57280E+000	9	...........
	62	0.84	7.58278E-001	9.10574E-005	0.00000E+000	6.90468E-005	5.39641E-002	7.58389E-001	3.57280E+000	9	...........
	63	0.853333	7.62088E-001	9.10647E-005	0.00000E+000	6.93993E-005	5.39641E-002	7.62215E-001	3.57280E+000	9	...........
	64	0.866667	7.65848E-001	9.11616E-005	0.00000E+000	6.98160E-005	5.39641E-002	7.66002E-001	3.57280E+000	9	...........
	65	0.88	7.69583E-001	9.09616E-005	0.00000E+000	7.00025E-005	5.39641E-002	7.69725E-001	3.57280E+000	9	...........
	66	0.893333	7.73247E-001	9.09074E-005	0.00000E+000	7.02939E-005	5.39641E-002	7.73414E-001	3.57280E+000	9	...........
	67	0.906667	7.76877E-001	9.12867E-005	0.00000E+000	7.09185E-005	5.39641E-002	7.77034E-001	3.57280E+000	9	...........
	68	0.92	7.80490E-001	9.12762E-005	0.00000E+000	7.12402E-005	5.39641E-002	7.80601E-001	3.57280E+000	9	...........
	69	0.933333	7.84021E-001	9.11283E-005	0.00000E+000	7.14465E-005	5.39641E-002	7.84145E-001	3.57280E+000	9	...........
	70	0.946667	7.87517E-001	9.09918E-005	0.00000E+000	7.16576E-005	5.39641E-002	7.87647E-001	3.57280E+000	9	...........
	71	0.96	7.90976E-001	9.11054E-005	0.00000E+000	7.20622E-005	5.39641E-002	7.91110E-001	3.57280E+000	9	...........
	72	0.97333	7.94441E-001	9.09512E-005	0.00000E+000	7.22554E-005	5.39641E-002	7.94575E-001	3.57280E+000	9	...........
	73	0.98667	7.97821E-001	9.10762E-005	0.00000E+000	7.26625E-005	5.39641E-002	7.97965E-001	3.57280E+000	9	...........
	74	1	8.01204E-001	9.10012E-005	0.00000E+000	7.29105E-005	5.39641E-002	8.01314E-001	3.57280E+000	9	...........
	75	1.01333	8.04500E-001	9.11022E-005	0.00000E+000	7.32918E-005	5.39641E-002	8.04637E-001	3.57280E+000	9	...........
	76	1.02667	8.07791E-001	9.09345E-005	0.00000E+000	7.34561E-005	5.39641E-002	8.07926E-001	3.57280E+000	9	...........
	77	1.04	8.11004E-001	9.11783E-005	0.00000E+000	7.39459E-005	5.39641E-002	8.11155E-001	3.57280E+000	9	...........
	78	1.05333	8.14195E-001	9.10178E-005	0.00000E+000	7.41063E-005	5.39641E-002	8.14367E-001	3.57281E+000	9	...........
	79	1.06667	8.17382E-001	9.12241E-005	0.00000E+000	7.45650E-005	5.39641E-002	8.17547E-001	3.57290E+000	9	...........
	80	1.08	8.20548E-001	9.09147E-005	0.00000E+000	7.45999E-005	5.39641E-002	8.20705E-001	3.57290E+000	9	...........
	81	1.09333	8.23655E-001	9.12158E-005	0.00000E+000	7.51303E-005	5.39641E-002	8.23825E-001	3.57290E+000	9	...........
	82	1.10667	8.26723E-001	9.09939E-005	0.00000E+000	7.52268E-005	5.39641E-002	8.26862E-001	3.57290E+000	9	...........
	83	1.12	8.29752E-001	9.11106E-005	0.00000E+000	7.55992E-005	5.39641E-002	8.29902E-001	3.57290E+000	9	...........
	84	1.13333	8.32752E-001	9.13315E-005	0.00000E+000	7.60564E-005	5.39641E-002	8.32921E-001	3.57290E+000	9	...........
	85	1.14667	8.35727E-001	9.09668E-005	0.00000E+000	7.60234E-005	5.39641E-002	8.35885E-001	3.57290E+000	9	...........
	86	1.16	8.38685E-001	9.09376E-005	0.00000E+000	7.62680E-005	5.39641E-002	8.38828E-001	3.57290E+000	9	...........
	87	1.17333	8.41591E-001	9.09324E-005	0.00000E+000	7.65279E-005	5.39641E-002	8.41765E-001	3.57290E+000	9	...........
	88	1.18667	8.44499E-001	9.09366E-005	0.00000E+000	7.67958E-005	5.39641E-002	8.44676E-001	3.57290E+000	9	...........
	89	1.2	8.47356E-001	9.12262E-005	0.00000E+000	7.73011E-005	5.39641E-002	8.47532E-001	3.57290E+000	9	...........
	90	1.21333	8.50198E-001	9.09939E-005	0.00000E+000	7.73628E-005	5.39641E-002	8.50343E-001	3.57290E+000	9	...........
	91	1.22667	8.53010E-001	9.09595E-005	0.00000E+000	7.75894E-005	5.39641E-002	8.53174E-001	3.57290E+000	9	...........
	92	1.24	8.55758E-001	9.10033E-005	0.00000E+000	7.78767E-005	5.39641E-002	8.55951E-001	3.57290E+000	9	...........
	93	1.25333	8.58515E-001	9.09137E-005	0.00000E+000	7.80507E-005	5.39641E-002	8.58674E-001	3.57290E+000	9	...........
	94	1.26667	8.61230E-001	9.09168E-005	0.00000E+000	7.83002E-005	5.39641E-002	8.61393E-001	3.57290E+000	9	...........
	95	1.28	8.63889E-001	9.11439E-005	0.00000E+000	7.87383E-005	5.39641E-002	8.64078E-001	3.57290E+000	9	...........
	96	1.29333	8.66567E-001	9.09887E-005	0.00000E+000	7.88478E-005	5.39641E-002	8.66748E-001	3.57290E+000	9	...........
	97	1.30667	8.69226E-001	9.10731E-005	0.00000E+000	7.91631E-005	5.39641E-002	8.69398E-001	3.57290E+000	9	...........
	98	1.32	8.71840E-001	9.09949E-005	0.00000E+000	7.93330E-005	5.39641E-002	8.71986E-001	3.57290E+000	9	...........
	99	1.33333	8.74383E-001	9.08376E-005	0.00000E+000	7.94269E-005	5.39641E-002	8.74559E-001	3.57290E+000	9	...........
	100	1.34667	8.76939E-001	9.11439E-005	0.00000E+000	7.99277E-005	5.39641E-002	8.77098E-001	3.57290E+000	9	...........
	101	1.36	8.79401E-001	9.11366E-005	0.00000E+000	8.01457E-005	5.39641E-002	8.79601E-001	3.57290E+000	9	...........
	102	1.37333	8.81907E-001	9.08939E-005	0.00000E+000	8.01600E-005	5.39641E-002	8.82113E-001	3.57290E+000	9	...........
	103	1.38667	8.84395E-001	9.08084E-005	0.00000E+000	8.03105E-005	5.39641E-002	8.84575E-001	3.57290E+000	9	...........
	104	1.4	8.86799E-001	9.11147E-005	0.00000E+000	8.08005E-005	5.39641E-002	8.87004E-001	3.57290E+000	9	...........
	105	1.41333	8.89211E-001	9.07303E-005	0.00000E+000	8.06784E-005	5.39641E-002	8.89397E-001	3.57290E+000	9	...........
	106	1.42667	8.91591E-001	9.10522E-005	0.00000E+000	8.11813E-005	5.39641E-002	8.91787E-001	3.57290E+000	9	...........
	107	1.44	8.93963E-001	9.08261E-005	0.00000E+000	8.11952E-005	5.39641E-002	8.94167E-001	3.57290E+000	9	...........
	108	1.45333	8.96351E-001	9.09908E-005	0.00000E+000	8.15597E-005	5.39641E-002	8.96555E-001	3.57290E+000	9	...........
	109	1.46667	8.98652E-001	9.11325E-005	0.00000E+000	8.18964E-005	5.39641E-002	8.98869E-001	3.57290E+000	9	...........
	110	1.48	9.00961E-001	9.11043E-005	0.00000E+000	8.20814E-005	5.39641E-002	9.01162E-001	3.57290E+000	9	...........
	111	1.49333	9.03233E-001	9.10137E-005	0.00000E+000	8.22065E-005	5.39641E-002	9.03445E-001	3.57290E+000	9	...........
	112	1.50667	9.05474E-001	9.09553E-005	0.00000E+000	8.23577E-005	5.39641E-002	9.05685E-001	3.57290E+000	9	...........
	113	1.52	9.07721E-001	9.09512E-005	0.00000E+000	8.25582E-005	5.39641E-002	9.07920E-001	3.57290E+000	9	...........
	114	1.53333	9.09956E-001	9.08345E-005	0.00000E+000	8.26554E-005	5.39641E-002	9.10102E-001	3.57290E+000	9	...........
	115	1.54667	9.12130E-001	9.07626E-005	0.00000E+000	8.27873E-005	5.39641E-002	9.12298E-001	3.57290E+000	9	...........
	116	1.56	9.14283E-001	9.10741E-005	0.00000E+000	8.32675E-005	5.39641E-002	9.14465E-001	3.57290E+000	9	...........
	117	1.57333	9.16445E-001	9.11356E-005	0.00000E+000	8.35208E-005	5.39641E-002	9.16619E-001	3.57290E+000	9	...........
	118	1.58667	9.18546E-001	9.08595E-005	0.00000E+000	8.34586E-005	5.39641E-002	9.18730E-001	3.57290E+000	9	...........
	119	1.6	9.20685E-001	9.08907E-005	0.00000E+000	8.36818E-005	5.39641E-002	9.20835E-001	3.57290E+000	9	...........
	120	1.61333	9.22789E-001	9.08293E-005	0.00000E+000	8.38162E-005	5.39641E-002	9.22915E-001	3.57290E+000	9	...........
	121	1.62667	9.24845E-001	9.08522E-005	0.00000E+000	8.40241E-005	5.39641E-002	9.24978E-001	3.57290E+000	9	...........
	122	1.64	9.26883E-001	9.11991E-005	0.00000E+000	8.45309E-005	5.39641E-002	9.27029E-001	3.57290E+000	9	...........
	123	1.65333	9.28887E-001	9.08168E-005	0.00000E+000	8.43585E-005	5.39641E-002	9.29039E-001	3.57290E+000	9	...........
	124	1.66667	9.30869E-001	9.08324E-005	0.00000E+000	8.45531E-005	5.39641E-002	9.31018E-001	3.57290E+000	9	...........
	125	1.68	9.32842E-001	9.10428E-005	0.00000E+000	8.49286E-005	5.39641E-002	9.33025E-001	3.57290E+000	9	...........
	126	1.69333	9.34804E-001	9.11356E-005	0.00000E+000	8.51939E-005	5.39641E-002	9.34987E-001	3.57290E+000	9	...........
	127	1.70667	9.36729E-001	9.09262E-005	0.00000E+000	8.51732E-005	5.39641E-002	9.36928E-001	3.57290E+000	9	...........
	128	1.72	9.38631E-001	9.09324E-005	0.00000E+000	8.53520E-005	5.39641E-002	9.38833E-001	3.57290E+000	9	...........
	129	1.73333	9.40523E-001	9.11283E-005	0.00000E+000	8.57082E-005	5.39641E-002	9.40690E-001	3.57290E+000	9	...........
	130	1.74667	9.42392E-001	9.07678E-005	0.00000E+000	8.55389E-005	5.39641E-002	9.42574E-001	3.57290E+000	9	...........
	131	1.76	9.44229E-001	9.10637E-005	0.00000E+000	8.59850E-005	5.39641E-002	9.44439E-001	3.57290E+000	9	...........
	132	1.77333	9.46072E-001	9.10606E-005	0.00000E+000	8.61499E-005	5.39641E-002	9.46280E-001	3.57290E+000	9	...........
	133	1.78667	9.47904E-001	9.09147E-005	0.00000E+000	8.61784E-005	5.39641E-002	9.48109E-001	3.57290E+000	9	...........
	134	1.8	9.49722E-001	9.09230E-005	0.00000E+000	8.63516E-005	5.39641E-002	9.49903E-001	3.57290E+000	9	...........
	135	1.81333	9.51488E-001	9.09887E-005	0.00000E+000	8.65746E-005	5.39641E-002	9.51696E-001	3.57290E+000	9	...........
	136	1.82667	9.53269E-001	9.09168E-005	0.00000E+000	8.66681E-005	5.39641E-002	9.53456E-001	3.57290E+000	9	...........
	137	1.84	9.55027E-001	9.09126E-005	0.00000E+000	8.68240E-005	5.39641E-002	9.55229E-001	3.57290E+000	9	...........
	138	1.85333	9.56750E-001	9.09939E-005	0.00000E+000	8.70584E-005	5.39641E-002	9.56956E-001	3.57290E+000	9	...........
	139	1.86667	9.58452E-001	9.12325E-005	0.00000E+000	8.74419E-005	5.39641E-002	9.58688E-001	3.57290E+000	9	...........
	140	1.88	9.60158E-001	9.10356E-005	0.00000E+000	8.74085E-005	5.39641E-002	9.60379E-001	3.57290E+000	9	...........
	141	1.89333	9.61827E-001	9.09564E-005	0.00000E+000	8.74843E-005	5.39641E-002	9.62028E-001	3.57290E+000	9	...........
	142	1.90667	9.63471E-001	9.11804E-005	0.00000E+000	8.78497E-005	5.39641E-002	9.63700E-001	3.57290E+000	9	...........
	143	1.92	9.65091E-001	9.08991E-005	0.00000E+000	8.77258E-005	5.39641E-002	9.65325E-001	3.57290E+000	9	...........
	144	1.93333	9.66725E-001	9.10376E-005	0.00000E+000	8.80084E-005	5.39641E-002	9.66945E-001	3.57290E+000	9	...........
	145	1.94667	9.68338E-001	9.12116E-005	0.00000E+000	8.83237E-005	5.39641E-002	9.68563E-001	3.57290E+000	9	...........
	146	1.96	9.69909E-001	9.11689E-005	0.00000E+000	8.84255E-005	5.39641E-002	9.70140E-001	3.57290E+000	9	...........
	147	1.97333	9.71437E-001	9.10481E-005	0.00000E+000	8.84474E-005	5.39641E-002	9.71698E-001	3.57290E+000	9	...........
	148	1.98667	9.73074E-001	9.10293E-005	0.00000E+000	8.85782E-005	5.39641E-002	9.73254E-001	3.57290E+000	9	...........
	149	2	9.74597E-001	9.09533E-005	0.00000E+000	8.86427E-005	5.39641E-002	9.74811E-001	3.57290E+000	9	...........
	150	2.01333	9.76130E-001	9.11856E-005	0.00000E+000	8.90090E-005	5.39641E-002	9.76344E-001	3.57290E+000	9	...........
	151	2.02667	9.77629E-001	9.09637E-005	0.00000E+000	8.89287E-005	5.39641E-002	9.77830E-001	3.57290E+000	9	...........
	152	2.04	9.79143E-001	9.10189E-005	0.00000E+000	8.91205E-005	5.39641E-002	9.79339E-001	3.57290E+000	9	...........
	153	2.05333	9.80626E-001	9.09314E-005	0.00000E+000	8.91697E-005	5.39641E-002	9.80796E-001	3.57289E+000	9	...........
	154	2.06667	9.82066E-001	9.11075E-005	0.00000E+000	8.94735E-005	5.39641E-002	9.82259E-001	3.57280E+000	9	...........
	155	2.08	9.83499E-001	9.10460E-005	0.00000E+000	8.95436E-005	5.39641E-002	9.83690E-001	3.57280E+000	9	...........
	156	2.09333	9.84948E-001	9.12179E-005	0.00000E+000	8.98449E-005	5.39641E-002	9.85130E-001	3.57280E+000	9	...........
	157	2.10667	9.86360E-001	9.10668E-005	0.00000E+000	8.98246E-005	5.39641E-002	9.86564E-001	3.57280E+000	9	...........
	158	2.12	9.87731E-001	9.08439E-005	0.00000E+000	8.97293E-005	5.39641E-002	9.87944E-001	3.57280E+000	9	...........
	159	2.13333	9.89146E-001	9.11366E-005	0.00000E+000	9.01474E-005	5.39641E-002	9.89319E-001	3.57280E+000	9	...........
	160	2.14667	9.90509E-001	9.11304E-005	0.00000E+000	9.02654E-005	5.39641E-002	9.90667E-001	3.57280E+000	9	...........
	161	2.16	9.91818E-001	9.06897E-005	0.00000E+000	8.99476E-005	5.39641E-002	9.92010E-001	3.57280E+000	9	...........
	162	2.17333	9.93155E-001	9.09730E-005	0.00000E+000	9.03503E-005	5.39641E-002	9.93354E-001	3.57280E+000	9	...........
	163	2.18667	9.94478E-001	9.11054E-005	0.00000E+000	9.06023E-005	5.39641E-002	9.94661E-001	3.57280E+000	9	...........
	164	2.2	9.95804E-001	9.10001E-005	0.00000E+000	9.06183E-005	5.39641E-002	9.95991E-001	3.57280E+000	9	...........
	165	2.21333	9.97106E-001	9.09585E-005	0.00000E+000	9.06952E-005	5.39641E-002	9.97322E-001	3.57280E+000	9	...........
	166	2.22667	9.98410E-001	9.10637E-005	0.00000E+000	9.09189E-005	5.39641E-002	9.98621E-001	3.57280E+000	9	...........
	167	2.23833	9.99620E-001	9.10365E-005	0.00000E+000	9.10019E-005	5.39641E-002	9.99816E-001	3.57280E+000	9	...........
STARTTIMEOFFSET	QUANT	2303.152	Start Time Offset (s)
