EXPLAIN
TAG	PWR800_CHARGE
TITLE	LABEL	PWR Cyclic Charge Discharge (Cell) - Charge Step	Test &Identifier
DATE	LABEL	10-7-2017	Date
TIME	LABEL	15:25:31	Time
NOTES	NOTES	3	&Notes...
	supercap test cell
	0.9mg
	6M KOH
PSTAT	PSTAT	IFC5000-01520	Potentiostat
CAPACITY	QUANT	1.00000E-003	Capacity (A-hr)
CELLTYPE	SELECTOR	1	&Cell Type
WORKINGCONNECTION	SELECTOR	0	&Working Lead
MAXCHARGETIME	VARIABLEANDUNITS	1.00000E+002	s	1.00000E+002	second(s)	Max &Charge Time
CHARGECURRENT	QUANT	9.00000E-005	&Charge Current (A) 
VOLTAGEFINISH	TWOPARAM	F	1.00000E-003	3.60000E+003	&Voltage Finish	 I (A) < 	Max Time(s)
SAMPLETIME	QUANT	1.00000E-002	Sa&mple Period (s)
CHARGESTOPAT1	MULTIPARAM	4	1.00000E+000	Charge Stop At &1	Voltage > Limit	V
CHARGESTOPAT2	MULTIPARAM	0	0.00000E+000	Charge Stop At &2	None	N/A
AESBHCSELECTOR	TOGGLE	F	Save Both Half Cells
IRCOMP	TOGGLE	F	IR &Measure
EOC	QUANT	0	Open Circuit (V)
SEQUENCER	TOGGLE	TRUE	Run as Sequence
PSTATMODEL	IQUANT	53	Pstat Model
PSTATSECTION	LABEL	IFC5000-01520	Pstat Section
PSTATSERIALNO	LABEL	01520	Pstat Serial Number
CTRLMODE	IQUANT	0	Control Mode
ELECTROMETER	IQUANT	1	RE=0 or CS=1
IESTAB	IQUANT	0	I/E Stability
CASPEED	IQUANT	4	Control Amp Speed
CONVENTION	IQUANT	1	Current Convention
ICHRANGE	IQUANT	2	Ich Range
ICHRANGEMODE	TOGGLE	T	Ich Auto Range
ICHOFFSETENABLE	TOGGLE	F	Ich Offset Enable
ICHOFFSET	QUANT	0	Ich Offset (V)
ICHFILTER	IQUANT	1	Ich Filter
VCHRANGE	IQUANT	2	Vch Range
VCHRANGEMODE	TOGGLE	T	Vch Auto Range
VCHOFFSETENABLE	TOGGLE	F	Vch Offset Enable
VCHOFFSET	QUANT	0	Vch Offset (V)
VCHFILTER	IQUANT	1	Vch Filter
IERANGELOWERLIMIT	IQUANT	9	I/E Range Lower Limit
IERANGEMODE	TOGGLE	F	I/E AutoRange
IERANGE	IQUANT	9	I/E Range
ACHSELECT	IQUANT	1	Ach Select
ACHRANGE	IQUANT	2	Ach Range
ACHOFFSETENABLE	TOGGLE	F	Ach Offset Enable
ACHOFFSET	QUANT	0	Ach Offset (V)
ACHFILTER	IQUANT	1	Ach Filter
CABLEID	IQUANT	14	Cable ID
DCCALDATE	LABEL	5-7-2017	DC Calibration Date
ACCALDATE	LABEL	12/3/2015	AC Calibration Date
FRAMEWORKVERSION	QUANT	7.01	Framework Version
INSTRUMENTVERSION	LABEL	4.00	Instrument Version
CURVE	TABLE	175
	Pt	T	Vf	Im	Vu	Pwr	Sig	Ach	Temp	IERange	Over
	#	s	V	A	V	W	V	V	deg C	#	bits
	0	0.013333	2.82079E-001	9.11241E-005	0.00000E+000	2.57042E-005	5.39641E-002	2.82133E-001	3.57260E+000	9	...........
	1	0.026667	3.01569E-001	9.09699E-005	0.00000E+000	2.74337E-005	5.39641E-002	3.01605E-001	3.57260E+000	9	...........
	2	0.04	3.19634E-001	9.09595E-005	0.00000E+000	2.90738E-005	5.39641E-002	3.19675E-001	3.57260E+000	9	...........
	3	0.053333	3.36509E-001	9.08991E-005	0.00000E+000	3.05884E-005	5.39641E-002	3.36549E-001	3.57260E+000	9	...........
	4	0.066667	3.52387E-001	9.10449E-005	0.00000E+000	3.20830E-005	5.39641E-002	3.52427E-001	3.57260E+000	9	...........
	5	0.08	3.67383E-001	9.11210E-005	0.00000E+000	3.34763E-005	5.39641E-002	3.67428E-001	3.57260E+000	9	...........
	6	0.093333	3.81600E-001	9.09658E-005	0.00000E+000	3.47125E-005	5.39641E-002	3.81645E-001	3.57260E+000	9	...........
	7	0.106667	3.95120E-001	9.11668E-005	0.00000E+000	3.60219E-005	5.39641E-002	3.95162E-001	3.57260E+000	9	...........
	8	0.12	4.08021E-001	9.11460E-005	0.00000E+000	3.71895E-005	5.39641E-002	4.08070E-001	3.57260E+000	9	...........
	9	0.133333	4.20348E-001	9.09480E-005	0.00000E+000	3.82298E-005	5.39641E-002	4.20405E-001	3.57260E+000	9	...........
	10	0.146667	4.32168E-001	9.10449E-005	0.00000E+000	3.93467E-005	5.39641E-002	4.32223E-001	3.57260E+000	9	...........
	11	0.16	4.43533E-001	9.10668E-005	0.00000E+000	4.03911E-005	5.39641E-002	4.43593E-001	3.57260E+000	9	...........
	12	0.173333	4.54457E-001	9.11648E-005	0.00000E+000	4.14305E-005	5.39641E-002	4.54521E-001	3.57260E+000	9	...........
	13	0.186667	4.64979E-001	9.09980E-005	0.00000E+000	4.23122E-005	5.39641E-002	4.65033E-001	3.57260E+000	9	...........
	14	0.2	4.75119E-001	9.10866E-005	0.00000E+000	4.32769E-005	5.39641E-002	4.75181E-001	3.57260E+000	9	...........
	15	0.213333	4.84928E-001	9.10168E-005	0.00000E+000	4.41366E-005	5.39641E-002	4.84990E-001	3.57260E+000	9	...........
	16	0.226667	4.94413E-001	9.10345E-005	0.00000E+000	4.50086E-005	5.39641E-002	4.94476E-001	3.57260E+000	9	...........
	17	0.24	5.03592E-001	9.09012E-005	0.00000E+000	4.57771E-005	5.39641E-002	5.03662E-001	3.57260E+000	9	...........
	18	0.253333	5.12485E-001	9.10074E-005	0.00000E+000	4.66400E-005	5.39641E-002	5.12557E-001	3.57260E+000	9	...........
	19	0.266667	5.21126E-001	9.11970E-005	0.00000E+000	4.75251E-005	5.39641E-002	5.21198E-001	3.57260E+000	9	...........
	20	0.28	5.29513E-001	9.09647E-005	0.00000E+000	4.81670E-005	5.39641E-002	5.29586E-001	3.57260E+000	9	...........
	21	0.293333	5.37566E-001	9.12314E-005	0.00000E+000	4.90429E-005	5.39641E-002	5.37686E-001	3.57260E+000	9	...........
	22	0.306667	5.45497E-001	9.08741E-005	0.00000E+000	4.95715E-005	5.39641E-002	5.45610E-001	3.57260E+000	9	...........
	23	0.32	5.53208E-001	9.09189E-005	0.00000E+000	5.02971E-005	5.39641E-002	5.53316E-001	3.57260E+000	9	...........
	24	0.333333	5.60682E-001	9.11418E-005	0.00000E+000	5.11016E-005	5.39641E-002	5.60837E-001	3.57260E+000	9	...........
	25	0.346667	5.68044E-001	9.10543E-005	0.00000E+000	5.17228E-005	5.39641E-002	5.68180E-001	3.57260E+000	9	...........
	26	0.36	5.75162E-001	9.10116E-005	0.00000E+000	5.23464E-005	5.39641E-002	5.75301E-001	3.57260E+000	9	...........
	27	0.373333	5.82154E-001	9.08980E-005	0.00000E+000	5.29167E-005	5.39641E-002	5.82278E-001	3.57260E+000	9	...........
	28	0.386667	5.88960E-001	9.07584E-005	0.00000E+000	5.34531E-005	5.39641E-002	5.89103E-001	3.57251E+000	9	...........
	29	0.4	5.95603E-001	9.10814E-005	0.00000E+000	5.42483E-005	5.39641E-002	5.95735E-001	3.57250E+000	9	...........
	30	0.413333	6.02101E-001	9.08887E-005	0.00000E+000	5.47242E-005	5.39641E-002	6.02263E-001	3.57250E+000	9	...........
	31	0.426667	6.08438E-001	9.08991E-005	0.00000E+000	5.53064E-005	5.39641E-002	6.08573E-001	3.57250E+000	9	...........
	32	0.44	6.14686E-001	9.11054E-005	0.00000E+000	5.60012E-005	5.39641E-002	6.14813E-001	3.57250E+000	9	...........
	33	0.453333	6.20792E-001	9.11606E-005	0.00000E+000	5.65918E-005	5.39641E-002	6.20901E-001	3.57250E+000	9	...........
	34	0.466667	6.26753E-001	9.09282E-005	0.00000E+000	5.69896E-005	5.39641E-002	6.26842E-001	3.57250E+000	9	...........
	35	0.48	6.32561E-001	9.09064E-005	0.00000E+000	5.75039E-005	5.39641E-002	6.32656E-001	3.57250E+000	9	...........
	36	0.493333	6.38281E-001	9.09720E-005	0.00000E+000	5.80657E-005	5.39641E-002	6.38393E-001	3.57250E+000	9	...........
	37	0.506667	6.43888E-001	9.10856E-005	0.00000E+000	5.86489E-005	5.39641E-002	6.44002E-001	3.57250E+000	9	...........
	38	0.52	6.49393E-001	9.09710E-005	0.00000E+000	5.90759E-005	5.39641E-002	6.49489E-001	3.57250E+000	9	...........
	39	0.533333	6.54783E-001	9.10293E-005	0.00000E+000	5.96045E-005	5.39641E-002	6.54889E-001	3.57250E+000	9	...........
	40	0.546667	6.60078E-001	9.11054E-005	0.00000E+000	6.01366E-005	5.39641E-002	6.60173E-001	3.57250E+000	9	...........
	41	0.56	6.65269E-001	9.10303E-005	0.00000E+000	6.05596E-005	5.39641E-002	6.65377E-001	3.57250E+000	9	...........
	42	0.573333	6.70387E-001	9.10949E-005	0.00000E+000	6.10688E-005	5.39641E-002	6.70462E-001	3.57250E+000	9	...........
	43	0.586667	6.75379E-001	9.10272E-005	0.00000E+000	6.14778E-005	5.39641E-002	6.75449E-001	3.57250E+000	9	...........
	44	0.6	6.80305E-001	9.10241E-005	0.00000E+000	6.19242E-005	5.39641E-002	6.80387E-001	3.57250E+000	9	...........
	45	0.613333	6.85147E-001	9.10345E-005	0.00000E+000	6.23720E-005	5.39641E-002	6.85234E-001	3.57250E+000	9	...........
	46	0.626667	6.89906E-001	9.09022E-005	0.00000E+000	6.27140E-005	5.39641E-002	6.90012E-001	3.57250E+000	9	...........
	47	0.64	6.94611E-001	9.10897E-005	0.00000E+000	6.32719E-005	5.39641E-002	6.94709E-001	3.57250E+000	9	...........
	48	0.653333	6.99189E-001	9.10428E-005	0.00000E+000	6.36561E-005	5.39641E-002	6.99328E-001	3.57250E+000	9	...........
	49	0.666667	7.03741E-001	9.10064E-005	0.00000E+000	6.40450E-005	5.39641E-002	7.03855E-001	3.57250E+000	9	...........
	50	0.68	7.08173E-001	9.10897E-005	0.00000E+000	6.45073E-005	5.39641E-002	7.08325E-001	3.57250E+000	9	...........
	51	0.693333	7.12554E-001	9.11918E-005	0.00000E+000	6.49791E-005	5.39641E-002	7.12675E-001	3.57250E+000	9	...........
	52	0.706667	7.16919E-001	9.10949E-005	0.00000E+000	6.53077E-005	5.39641E-002	7.17048E-001	3.57250E+000	9	...........
	53	0.72	7.21210E-001	9.10022E-005	0.00000E+000	6.56317E-005	5.39641E-002	7.21314E-001	3.57250E+000	9	...........
	54	0.733333	7.25410E-001	9.11825E-005	0.00000E+000	6.61446E-005	5.39641E-002	7.25511E-001	3.57250E+000	9	...........
	55	0.746667	7.29555E-001	9.08022E-005	0.00000E+000	6.62452E-005	5.39641E-002	7.29668E-001	3.57250E+000	9	...........
	56	0.76	7.33629E-001	9.10918E-005	0.00000E+000	6.68276E-005	5.39641E-002	7.33733E-001	3.57250E+000	9	...........
	57	0.773333	7.37634E-001	9.10064E-005	0.00000E+000	6.71294E-005	5.39641E-002	7.37760E-001	3.57250E+000	9	...........
	58	0.786667	7.41623E-001	9.09991E-005	0.00000E+000	6.74870E-005	5.39641E-002	7.41735E-001	3.57250E+000	9	...........
	59	0.8	7.45526E-001	9.11429E-005	0.00000E+000	6.79494E-005	5.39641E-002	7.45658E-001	3.57250E+000	9	...........
	60	0.813333	7.49385E-001	9.10772E-005	0.00000E+000	6.82519E-005	5.39641E-002	7.49502E-001	3.57250E+000	9	...........
	61	0.826667	7.53179E-001	9.11179E-005	0.00000E+000	6.86280E-005	5.39641E-002	7.53294E-001	3.57250E+000	9	...........
	62	0.84	7.56971E-001	9.10178E-005	0.00000E+000	6.88979E-005	5.39641E-002	7.57071E-001	3.57250E+000	9	...........
	63	0.853333	7.60671E-001	9.10699E-005	0.00000E+000	6.92743E-005	5.39641E-002	7.60779E-001	3.57250E+000	9	...........
	64	0.866667	7.64325E-001	9.11262E-005	0.00000E+000	6.96501E-005	5.39641E-002	7.64467E-001	3.57250E+000	9	...........
	65	0.88	7.67978E-001	9.09918E-005	0.00000E+000	6.98797E-005	5.39641E-002	7.68101E-001	3.57250E+000	9	...........
	66	0.893333	7.71588E-001	9.10210E-005	0.00000E+000	7.02307E-005	5.39641E-002	7.71692E-001	3.57250E+000	9	...........
	67	0.906667	7.75135E-001	9.12429E-005	0.00000E+000	7.07256E-005	5.39641E-002	7.75231E-001	3.57250E+000	9	...........
	68	0.92	7.78648E-001	9.11970E-005	0.00000E+000	7.10104E-005	5.39641E-002	7.78726E-001	3.57250E+000	9	...........
	69	0.933333	7.82070E-001	9.10428E-005	0.00000E+000	7.12019E-005	5.39641E-002	7.82155E-001	3.57250E+000	9	...........
	70	0.946667	7.85449E-001	9.09293E-005	0.00000E+000	7.14203E-005	5.39641E-002	7.85552E-001	3.57250E+000	9	...........
	71	0.96	7.88798E-001	9.11752E-005	0.00000E+000	7.19188E-005	5.39641E-002	7.88921E-001	3.57250E+000	9	...........
	72	0.97333	7.92109E-001	9.09407E-005	0.00000E+000	7.20350E-005	5.39641E-002	7.92245E-001	3.57250E+000	9	...........
	73	0.98667	7.95430E-001	9.08876E-005	0.00000E+000	7.22948E-005	5.39641E-002	7.95566E-001	3.57250E+000	9	...........
	74	1	7.98664E-001	9.11741E-005	0.00000E+000	7.28175E-005	5.39641E-002	7.98767E-001	3.57250E+000	9	...........
	75	1.01333	8.01857E-001	9.09116E-005	0.00000E+000	7.28980E-005	5.39641E-002	8.01986E-001	3.57250E+000	9	...........
	76	1.02667	8.04995E-001	9.13815E-005	0.00000E+000	7.35616E-005	5.39641E-002	8.05155E-001	3.57250E+000	9	...........
	77	1.04	8.08136E-001	9.10501E-005	0.00000E+000	7.35809E-005	5.39641E-002	8.08297E-001	3.57250E+000	9	...........
	78	1.05333	8.11243E-001	9.13981E-005	0.00000E+000	7.41461E-005	5.39641E-002	8.11398E-001	3.57250E+000	9	...........
	79	1.06667	8.14309E-001	9.12179E-005	0.00000E+000	7.42795E-005	5.39641E-002	8.14472E-001	3.57250E+000	9	...........
	80	1.08	8.17344E-001	9.10522E-005	0.00000E+000	7.44210E-005	5.39641E-002	8.17532E-001	3.57250E+000	9	...........
	81	1.09333	8.20385E-001	9.10835E-005	0.00000E+000	7.47235E-005	5.39641E-002	8.20565E-001	3.57250E+000	9	...........
	82	1.10667	8.23339E-001	9.06824E-005	0.00000E+000	7.46624E-005	5.39641E-002	8.23513E-001	3.57250E+000	9	...........
	83	1.12	8.26302E-001	9.13648E-005	0.00000E+000	7.54949E-005	5.39641E-002	8.26442E-001	3.57250E+000	9	...........
	84	1.13333	8.29188E-001	9.12262E-005	0.00000E+000	7.56437E-005	5.39641E-002	8.29351E-001	3.57250E+000	9	...........
	85	1.14667	8.32055E-001	9.10543E-005	0.00000E+000	7.57622E-005	5.39641E-002	8.32232E-001	3.57250E+000	9	...........
	86	1.16	8.34895E-001	9.11814E-005	0.00000E+000	7.61269E-005	5.39641E-002	8.35071E-001	3.57250E+000	9	...........
	87	1.17333	8.37725E-001	9.11585E-005	0.00000E+000	7.63657E-005	5.39641E-002	8.37931E-001	3.57250E+000	9	...........
	88	1.18667	8.40518E-001	9.10574E-005	0.00000E+000	7.65354E-005	5.39641E-002	8.40715E-001	3.57250E+000	9	...........
	89	1.2	8.43269E-001	9.10564E-005	0.00000E+000	7.67851E-005	5.39641E-002	8.43488E-001	3.57250E+000	9	...........
	90	1.21333	8.46015E-001	9.07865E-005	0.00000E+000	7.68068E-005	5.39641E-002	8.46213E-001	3.57250E+000	9	...........
	91	1.22667	8.48709E-001	9.08168E-005	0.00000E+000	7.70770E-005	5.39641E-002	8.48917E-001	3.57250E+000	9	...........
	92	1.24	8.51380E-001	9.08730E-005	0.00000E+000	7.73675E-005	5.39641E-002	8.51568E-001	3.57250E+000	9	...........
	93	1.25333	8.54008E-001	9.10397E-005	0.00000E+000	7.77487E-005	5.39641E-002	8.54176E-001	3.57250E+000	9	...........
	94	1.26667	8.56636E-001	9.10814E-005	0.00000E+000	7.80236E-005	5.39641E-002	8.56813E-001	3.57250E+000	9	...........
	95	1.28	8.59214E-001	9.12012E-005	0.00000E+000	7.83614E-005	5.39641E-002	8.59398E-001	3.57250E+000	9	...........
	96	1.29333	8.61809E-001	9.10981E-005	0.00000E+000	7.85091E-005	5.39641E-002	8.61943E-001	3.57250E+000	9	...........
	97	1.30667	8.64326E-001	9.13710E-005	0.00000E+000	7.89744E-005	5.39641E-002	8.64451E-001	3.57250E+000	9	...........
	98	1.32	8.66839E-001	9.10210E-005	0.00000E+000	7.89006E-005	5.39641E-002	8.66959E-001	3.57250E+000	9	...........
	99	1.33333	8.69335E-001	9.10762E-005	0.00000E+000	7.91757E-005	5.39641E-002	8.69479E-001	3.57250E+000	9	...........
	100	1.34667	8.71807E-001	9.12710E-005	0.00000E+000	7.95708E-005	5.39641E-002	8.71937E-001	3.57250E+000	9	...........
	101	1.36	8.74240E-001	9.11543E-005	0.00000E+000	7.96907E-005	5.39641E-002	8.74402E-001	3.57250E+000	9	...........
	102	1.37333	8.76642E-001	9.10679E-005	0.00000E+000	7.98339E-005	5.39641E-002	8.76788E-001	3.57250E+000	9	...........
	103	1.38667	8.79038E-001	9.10231E-005	0.00000E+000	8.00127E-005	5.39641E-002	8.79172E-001	3.57224E+000	9	...........
	104	1.4	8.81383E-001	9.09314E-005	0.00000E+000	8.01454E-005	5.39641E-002	8.81559E-001	3.57220E+000	9	...........
	105	1.41333	8.83786E-001	9.12835E-005	0.00000E+000	8.06751E-005	5.39641E-002	8.83941E-001	3.57220E+000	9	...........
	106	1.42667	8.86113E-001	9.12981E-005	0.00000E+000	8.09004E-005	5.39641E-002	8.86276E-001	3.57220E+000	9	...........
	107	1.44	8.88402E-001	9.12096E-005	0.00000E+000	8.10308E-005	5.39641E-002	8.88575E-001	3.57220E+000	9	...........
	108	1.45333	8.90713E-001	9.11866E-005	0.00000E+000	8.12211E-005	5.39641E-002	8.90877E-001	3.57220E+000	9	...........
	109	1.46667	8.92945E-001	9.12075E-005	0.00000E+000	8.14433E-005	5.39641E-002	8.93148E-001	3.57220E+000	9	...........
	110	1.48	8.95210E-001	9.14127E-005	0.00000E+000	8.18336E-005	5.39641E-002	8.95400E-001	3.57220E+000	9	...........
	111	1.49333	8.97449E-001	9.10804E-005	0.00000E+000	8.17400E-005	5.39641E-002	8.97638E-001	3.57220E+000	9	...........
	112	1.50667	8.99636E-001	9.12148E-005	0.00000E+000	8.20601E-005	5.39641E-002	8.99820E-001	3.57220E+000	9	...........
	113	1.52	9.01781E-001	9.12773E-005	0.00000E+000	8.23121E-005	5.39641E-002	9.01985E-001	3.57220E+000	9	...........
	114	1.53333	9.03926E-001	9.10408E-005	0.00000E+000	8.22941E-005	5.39641E-002	9.04127E-001	3.57220E+000	9	...........
	115	1.54667	9.06039E-001	9.13492E-005	0.00000E+000	8.27659E-005	5.39641E-002	9.06233E-001	3.57220E+000	9	...........
	116	1.56	9.08152E-001	9.10720E-005	0.00000E+000	8.27073E-005	5.39641E-002	9.08358E-001	3.57220E+000	9	...........
	117	1.57333	9.10243E-001	9.10043E-005	0.00000E+000	8.28360E-005	5.39641E-002	9.10437E-001	3.57220E+000	9	...........
	118	1.58667	9.12305E-001	9.12106E-005	0.00000E+000	8.32119E-005	5.39641E-002	9.12512E-001	3.57220E+000	9	...........
	119	1.6	9.14321E-001	9.11210E-005	0.00000E+000	8.33138E-005	5.39641E-002	9.14545E-001	3.57220E+000	9	...........
	120	1.61333	9.16311E-001	9.10918E-005	0.00000E+000	8.34685E-005	5.39641E-002	9.16553E-001	3.57220E+000	9	...........
	121	1.62667	9.18300E-001	9.11220E-005	0.00000E+000	8.36773E-005	5.39641E-002	9.18553E-001	3.57220E+000	9	...........
	122	1.64	9.20313E-001	9.09876E-005	0.00000E+000	8.37371E-005	5.39641E-002	9.20548E-001	3.57220E+000	9	...........
	123	1.65333	9.22331E-001	9.10449E-005	0.00000E+000	8.39736E-005	5.39641E-002	9.22504E-001	3.57220E+000	9	...........
	124	1.66667	9.24267E-001	9.09428E-005	0.00000E+000	8.40554E-005	5.39641E-002	9.24464E-001	3.57220E+000	9	...........
	125	1.68	9.26183E-001	9.11054E-005	0.00000E+000	8.43802E-005	5.39641E-002	9.26383E-001	3.57220E+000	9	...........
	126	1.69333	9.28122E-001	9.11272E-005	0.00000E+000	8.45772E-005	5.39641E-002	9.28303E-001	3.57220E+000	9	...........
	127	1.70667	9.29995E-001	9.08647E-005	0.00000E+000	8.45037E-005	5.39641E-002	9.30178E-001	3.57220E+000	9	...........
	128	1.72	9.31870E-001	9.10241E-005	0.00000E+000	8.48226E-005	5.39641E-002	9.32042E-001	3.57220E+000	9	...........
	129	1.73333	9.33694E-001	9.10168E-005	0.00000E+000	8.49818E-005	5.39641E-002	9.33903E-001	3.57220E+000	9	...........
	130	1.74667	9.35526E-001	9.10210E-005	0.00000E+000	8.51525E-005	5.39641E-002	9.35720E-001	3.57220E+000	9	...........
	131	1.76	9.37300E-001	9.09835E-005	0.00000E+000	8.52788E-005	5.39641E-002	9.37506E-001	3.57220E+000	9	...........
	132	1.77333	9.39084E-001	9.10845E-005	0.00000E+000	8.55360E-005	5.39641E-002	9.39298E-001	3.57220E+000	9	...........
	133	1.78667	9.40873E-001	9.08741E-005	0.00000E+000	8.55009E-005	5.39641E-002	9.41043E-001	3.57220E+000	9	...........
	134	1.8	9.42590E-001	9.10835E-005	0.00000E+000	8.58544E-005	5.39641E-002	9.42788E-001	3.57220E+000	9	...........
	135	1.81333	9.44327E-001	9.11158E-005	0.00000E+000	8.60431E-005	5.39641E-002	9.44500E-001	3.57220E+000	9	...........
	136	1.82667	9.46049E-001	9.08980E-005	0.00000E+000	8.59939E-005	5.39641E-002	9.46244E-001	3.57220E+000	9	...........
	137	1.84	9.47794E-001	9.09220E-005	0.00000E+000	8.61753E-005	5.39641E-002	9.47966E-001	3.57220E+000	9	...........
	138	1.85333	9.49485E-001	9.10887E-005	0.00000E+000	8.64873E-005	5.39641E-002	9.49643E-001	3.57220E+000	9	...........
	139	1.86667	9.51120E-001	9.11814E-005	0.00000E+000	8.67245E-005	5.39641E-002	9.51315E-001	3.57220E+000	9	...........
	140	1.88	9.52756E-001	9.14450E-005	0.00000E+000	8.71248E-005	5.39641E-002	9.52934E-001	3.57220E+000	9	...........
	141	1.89333	9.54359E-001	9.08584E-005	0.00000E+000	8.67116E-005	5.39641E-002	9.54524E-001	3.57220E+000	9	...........
	142	1.90667	9.55971E-001	9.09501E-005	0.00000E+000	8.69457E-005	5.39641E-002	9.56160E-001	3.57220E+000	9	...........
	143	1.92	9.57555E-001	9.11898E-005	0.00000E+000	8.73192E-005	5.39641E-002	9.57750E-001	3.57220E+000	9	...........
	144	1.93333	9.59137E-001	9.10449E-005	0.00000E+000	8.73246E-005	5.39641E-002	9.59325E-001	3.57220E+000	9	...........
	145	1.94667	9.60708E-001	9.10126E-005	0.00000E+000	8.74365E-005	5.39641E-002	9.60933E-001	3.57220E+000	9	...........
	146	1.96	9.62251E-001	9.09439E-005	0.00000E+000	8.75108E-005	5.39641E-002	9.62470E-001	3.57220E+000	9	...........
	147	1.97333	9.63793E-001	9.11689E-005	0.00000E+000	8.78679E-005	5.39641E-002	9.64000E-001	3.57220E+000	9	...........
	148	1.98667	9.65318E-001	9.09991E-005	0.00000E+000	8.78431E-005	5.39641E-002	9.65526E-001	3.57220E+000	9	...........
	149	2	9.66823E-001	9.11272E-005	0.00000E+000	8.81039E-005	5.39641E-002	9.67030E-001	3.57220E+000	9	...........
	150	2.01333	9.68333E-001	9.11648E-005	0.00000E+000	8.82778E-005	5.39641E-002	9.68539E-001	3.57220E+000	9	...........
	151	2.02667	9.69816E-001	9.09012E-005	0.00000E+000	8.81574E-005	5.39641E-002	9.70038E-001	3.57220E+000	9	...........
	152	2.04	9.71288E-001	9.10783E-005	0.00000E+000	8.84632E-005	5.39641E-002	9.71524E-001	3.57220E+000	9	...........
	153	2.05333	9.72777E-001	9.10064E-005	0.00000E+000	8.85289E-005	5.39641E-002	9.72970E-001	3.57220E+000	9	...........
	154	2.06667	9.74209E-001	9.09678E-005	0.00000E+000	8.86217E-005	5.39641E-002	9.74400E-001	3.57220E+000	9	...........
	155	2.08	9.75635E-001	9.11106E-005	0.00000E+000	8.88906E-005	5.39641E-002	9.75828E-001	3.57220E+000	9	...........
	156	2.09333	9.77060E-001	9.11439E-005	0.00000E+000	8.90531E-005	5.39641E-002	9.77266E-001	3.57220E+000	9	...........
	157	2.10667	9.78462E-001	9.09574E-005	0.00000E+000	8.89984E-005	5.39641E-002	9.78655E-001	3.57220E+000	9	...........
	158	2.12	9.79847E-001	9.08772E-005	0.00000E+000	8.90458E-005	5.39641E-002	9.80023E-001	3.57220E+000	9	...........
	159	2.13333	9.81195E-001	9.14086E-005	0.00000E+000	8.96896E-005	5.39641E-002	9.81393E-001	3.57220E+000	9	...........
	160	2.14667	9.82558E-001	9.11345E-005	0.00000E+000	8.95450E-005	5.39641E-002	9.82739E-001	3.57220E+000	9	...........
	161	2.16	9.83885E-001	9.08689E-005	0.00000E+000	8.94045E-005	5.39641E-002	9.84085E-001	3.57220E+000	9	...........
	162	2.17333	9.85202E-001	9.10751E-005	0.00000E+000	8.97274E-005	5.39641E-002	9.85424E-001	3.57220E+000	9	...........
	163	2.18667	9.86521E-001	9.12439E-005	0.00000E+000	9.00141E-005	5.39641E-002	9.86724E-001	3.57220E+000	9	...........
	164	2.2	9.87806E-001	9.11168E-005	0.00000E+000	9.00058E-005	5.39641E-002	9.88019E-001	3.57220E+000	9	...........
	165	2.21333	9.89152E-001	9.09345E-005	0.00000E+000	8.99480E-005	5.39641E-002	9.89316E-001	3.57220E+000	9	...........
	166	2.22667	9.90426E-001	9.11220E-005	0.00000E+000	9.02497E-005	5.39641E-002	9.90596E-001	3.57220E+000	9	...........
	167	2.24	9.91662E-001	9.11220E-005	0.00000E+000	9.03622E-005	5.39641E-002	9.91839E-001	3.57220E+000	9	...........
	168	2.25333	9.92906E-001	9.10783E-005	0.00000E+000	9.04322E-005	5.39641E-002	9.93090E-001	3.57220E+000	9	...........
	169	2.26667	9.94136E-001	9.10741E-005	0.00000E+000	9.05401E-005	5.39641E-002	9.94345E-001	3.57220E+000	9	...........
	170	2.28	9.95382E-001	9.11564E-005	0.00000E+000	9.07354E-005	5.39641E-002	9.95579E-001	3.57220E+000	9	...........
	171	2.29333	9.96585E-001	9.11929E-005	0.00000E+000	9.08814E-005	5.39641E-002	9.96785E-001	3.57220E+000	9	...........
	172	2.30667	9.97818E-001	9.12137E-005	0.00000E+000	9.10147E-005	5.39641E-002	9.98046E-001	3.57220E+000	9	...........
	173	2.32	9.99054E-001	9.12491E-005	0.00000E+000	9.11629E-005	5.39641E-002	9.99239E-001	3.57220E+000	9	...........
	174	2.32667	9.99911E-001	9.12002E-005	0.00000E+000	9.11921E-005	5.39641E-002	1.00013E+000	3.57220E+000	9	...........
STARTTIMEOFFSET	QUANT	1331.909	Start Time Offset (s)
