EXPLAIN
TAG	PWR800_CHARGE
TITLE	LABEL	PWR Cyclic Charge Discharge (Cell) - Charge Step	Test &Identifier
DATE	LABEL	10-7-2017	Date
TIME	LABEL	16:08:20	Time
NOTES	NOTES	3	&Notes...
	supercap test cell
	0.9mg
	6M KOH
PSTAT	PSTAT	IFC5000-01520	Potentiostat
CAPACITY	QUANT	1.00000E-003	Capacity (A-hr)
CELLTYPE	SELECTOR	1	&Cell Type
WORKINGCONNECTION	SELECTOR	0	&Working Lead
MAXCHARGETIME	VARIABLEANDUNITS	1.00000E+002	s	1.00000E+002	second(s)	Max &Charge Time
CHARGECURRENT	QUANT	9.00000E-005	&Charge Current (A) 
VOLTAGEFINISH	TWOPARAM	F	1.00000E-003	3.60000E+003	&Voltage Finish	 I (A) < 	Max Time(s)
SAMPLETIME	QUANT	1.00000E-002	Sa&mple Period (s)
CHARGESTOPAT1	MULTIPARAM	4	1.00000E+000	Charge Stop At &1	Voltage > Limit	V
CHARGESTOPAT2	MULTIPARAM	0	0.00000E+000	Charge Stop At &2	None	N/A
AESBHCSELECTOR	TOGGLE	F	Save Both Half Cells
IRCOMP	TOGGLE	F	IR &Measure
EOC	QUANT	0	Open Circuit (V)
SEQUENCER	TOGGLE	TRUE	Run as Sequence
PSTATMODEL	IQUANT	53	Pstat Model
PSTATSECTION	LABEL	IFC5000-01520	Pstat Section
PSTATSERIALNO	LABEL	01520	Pstat Serial Number
CTRLMODE	IQUANT	0	Control Mode
ELECTROMETER	IQUANT	1	RE=0 or CS=1
IESTAB	IQUANT	0	I/E Stability
CASPEED	IQUANT	4	Control Amp Speed
CONVENTION	IQUANT	1	Current Convention
ICHRANGE	IQUANT	2	Ich Range
ICHRANGEMODE	TOGGLE	T	Ich Auto Range
ICHOFFSETENABLE	TOGGLE	F	Ich Offset Enable
ICHOFFSET	QUANT	0	Ich Offset (V)
ICHFILTER	IQUANT	1	Ich Filter
VCHRANGE	IQUANT	2	Vch Range
VCHRANGEMODE	TOGGLE	T	Vch Auto Range
VCHOFFSETENABLE	TOGGLE	F	Vch Offset Enable
VCHOFFSET	QUANT	0	Vch Offset (V)
VCHFILTER	IQUANT	1	Vch Filter
IERANGELOWERLIMIT	IQUANT	9	I/E Range Lower Limit
IERANGEMODE	TOGGLE	F	I/E AutoRange
IERANGE	IQUANT	9	I/E Range
ACHSELECT	IQUANT	1	Ach Select
ACHRANGE	IQUANT	2	Ach Range
ACHOFFSETENABLE	TOGGLE	F	Ach Offset Enable
ACHOFFSET	QUANT	0	Ach Offset (V)
ACHFILTER	IQUANT	1	Ach Filter
CABLEID	IQUANT	14	Cable ID
DCCALDATE	LABEL	5-7-2017	DC Calibration Date
ACCALDATE	LABEL	12/3/2015	AC Calibration Date
FRAMEWORKVERSION	QUANT	7.01	Framework Version
INSTRUMENTVERSION	LABEL	4.00	Instrument Version
CURVE	TABLE	163
	Pt	T	Vf	Im	Vu	Pwr	Sig	Ach	Temp	IERange	Over
	#	s	V	A	V	W	V	V	deg C	#	bits
	0	0.013333	2.70454E-001	9.13033E-005	0.00000E+000	2.46933E-005	5.39641E-002	2.70500E-001	3.57350E+000	9	...........
	1	0.026667	2.90099E-001	9.10481E-005	0.00000E+000	2.64130E-005	5.39641E-002	2.90138E-001	3.57350E+000	9	...........
	2	0.04	3.08521E-001	9.10679E-005	0.00000E+000	2.80964E-005	5.39641E-002	3.08563E-001	3.57350E+000	9	...........
	3	0.053333	3.25891E-001	9.07563E-005	0.00000E+000	2.95767E-005	5.39641E-002	3.25932E-001	3.57350E+000	9	...........
	4	0.066667	3.42320E-001	9.09407E-005	0.00000E+000	3.11308E-005	5.39641E-002	3.42363E-001	3.57350E+000	9	...........
	5	0.08	3.57900E-001	9.09043E-005	0.00000E+000	3.25347E-005	5.39641E-002	3.57946E-001	3.57350E+000	9	...........
	6	0.093333	3.72703E-001	9.09199E-005	0.00000E+000	3.38861E-005	5.39641E-002	3.72748E-001	3.57350E+000	9	...........
	7	0.106667	3.86804E-001	9.12033E-005	0.00000E+000	3.52778E-005	5.39641E-002	3.86856E-001	3.57350E+000	9	...........
	8	0.12	4.00263E-001	9.08188E-005	0.00000E+000	3.63514E-005	5.39641E-002	4.00318E-001	3.57319E+000	9	...........
	9	0.133333	4.13136E-001	9.09814E-005	0.00000E+000	3.75877E-005	5.39641E-002	4.13188E-001	3.57300E+000	9	...........
	10	0.146667	4.25456E-001	9.09032E-005	0.00000E+000	3.86753E-005	5.39641E-002	4.25519E-001	3.57300E+000	9	...........
	11	0.16	4.37281E-001	9.09105E-005	0.00000E+000	3.97535E-005	5.39641E-002	4.37338E-001	3.57300E+000	9	...........
	12	0.173333	4.48644E-001	9.10929E-005	0.00000E+000	4.08683E-005	5.39641E-002	4.48707E-001	3.57300E+000	9	...........
	13	0.186667	4.59576E-001	9.10720E-005	0.00000E+000	4.18545E-005	5.39641E-002	4.59626E-001	3.57300E+000	9	...........
	14	0.2	4.70090E-001	9.08230E-005	0.00000E+000	4.26949E-005	5.39641E-002	4.70144E-001	3.57300E+000	9	...........
	15	0.213333	4.80237E-001	9.10751E-005	0.00000E+000	4.37376E-005	5.39641E-002	4.80293E-001	3.57300E+000	9	...........
	16	0.226667	4.90026E-001	9.09376E-005	0.00000E+000	4.45618E-005	5.39641E-002	4.90088E-001	3.57300E+000	9	...........
	17	0.24	4.99507E-001	9.09574E-005	0.00000E+000	4.54339E-005	5.39641E-002	4.99572E-001	3.57300E+000	9	...........
	18	0.253333	5.08690E-001	9.11460E-005	0.00000E+000	4.63651E-005	5.39641E-002	5.08759E-001	3.57300E+000	9	...........
	19	0.266667	5.17595E-001	9.10991E-005	0.00000E+000	4.71524E-005	5.39641E-002	5.17665E-001	3.57300E+000	9	...........
	20	0.28	5.26238E-001	9.09553E-005	0.00000E+000	4.78641E-005	5.39641E-002	5.26308E-001	3.57300E+000	9	...........
	21	0.293333	5.34548E-001	9.11929E-005	0.00000E+000	4.87469E-005	5.39641E-002	5.34646E-001	3.57300E+000	9	...........
	22	0.306667	5.42677E-001	9.10762E-005	0.00000E+000	4.94250E-005	5.39641E-002	5.42762E-001	3.57300E+000	9	...........
	23	0.32	5.50576E-001	9.10845E-005	0.00000E+000	5.01490E-005	5.39641E-002	5.50699E-001	3.57300E+000	9	...........
	24	0.333333	5.58281E-001	9.10449E-005	0.00000E+000	5.08287E-005	5.39641E-002	5.58405E-001	3.57300E+000	9	...........
	25	0.346667	5.65816E-001	9.09960E-005	0.00000E+000	5.14869E-005	5.39641E-002	5.65952E-001	3.57300E+000	9	...........
	26	0.36	5.73124E-001	9.09699E-005	0.00000E+000	5.21371E-005	5.39641E-002	5.73267E-001	3.57300E+000	9	...........
	27	0.373333	5.80248E-001	9.08220E-005	0.00000E+000	5.26993E-005	5.39641E-002	5.80393E-001	3.57300E+000	9	...........
	28	0.386667	5.87231E-001	9.09428E-005	0.00000E+000	5.34044E-005	5.39641E-002	5.87365E-001	3.57300E+000	9	...........
	29	0.4	5.94050E-001	9.11054E-005	0.00000E+000	5.41211E-005	5.39641E-002	5.94172E-001	3.57300E+000	9	...........
	30	0.413333	6.00702E-001	9.09084E-005	0.00000E+000	5.46089E-005	5.39641E-002	6.00828E-001	3.57300E+000	9	...........
	31	0.426667	6.07200E-001	9.09480E-005	0.00000E+000	5.52236E-005	5.39641E-002	6.07328E-001	3.57300E+000	9	...........
	32	0.44	6.13588E-001	9.10491E-005	0.00000E+000	5.58667E-005	5.39641E-002	6.13715E-001	3.57300E+000	9	...........
	33	0.453333	6.19834E-001	9.10929E-005	0.00000E+000	5.64625E-005	5.39641E-002	6.19936E-001	3.57300E+000	9	...........
	34	0.466667	6.25937E-001	9.08928E-005	0.00000E+000	5.68931E-005	5.39641E-002	6.26029E-001	3.57300E+000	9	...........
	35	0.48	6.31866E-001	9.11554E-005	0.00000E+000	5.75980E-005	5.39641E-002	6.31966E-001	3.57300E+000	9	...........
	36	0.493333	6.37713E-001	9.07490E-005	0.00000E+000	5.78719E-005	5.39641E-002	6.37821E-001	3.57300E+000	9	...........
	37	0.506667	6.43447E-001	9.08366E-005	0.00000E+000	5.84485E-005	5.39641E-002	6.43558E-001	3.57300E+000	9	...........
	38	0.52	6.49071E-001	9.11054E-005	0.00000E+000	5.91339E-005	5.39641E-002	6.49163E-001	3.57300E+000	9	...........
	39	0.533333	6.54583E-001	9.09658E-005	0.00000E+000	5.95447E-005	5.39641E-002	6.54703E-001	3.57300E+000	9	...........
	40	0.546667	6.59997E-001	9.06761E-005	0.00000E+000	5.98459E-005	5.39641E-002	6.60100E-001	3.57300E+000	9	...........
	41	0.56	6.65331E-001	9.08741E-005	0.00000E+000	6.04613E-005	5.39641E-002	6.65473E-001	3.57300E+000	9	...........
	42	0.573333	6.70598E-001	9.10616E-005	0.00000E+000	6.10657E-005	5.39641E-002	6.70715E-001	3.57300E+000	9	...........
	43	0.586667	6.75732E-001	9.09043E-005	0.00000E+000	6.14270E-005	5.39641E-002	6.75849E-001	3.57300E+000	9	...........
	44	0.6	6.80792E-001	9.09532E-005	0.00000E+000	6.19202E-005	5.39641E-002	6.80913E-001	3.57300E+000	9	...........
	45	0.613333	6.85747E-001	9.09366E-005	0.00000E+000	6.23595E-005	5.39641E-002	6.85875E-001	3.57300E+000	9	...........
	46	0.626667	6.90637E-001	9.10522E-005	0.00000E+000	6.28840E-005	5.39641E-002	6.90764E-001	3.57300E+000	9	...........
	47	0.64	6.95486E-001	9.10731E-005	0.00000E+000	6.33400E-005	5.39641E-002	6.95599E-001	3.57300E+000	9	...........
	48	0.653333	7.00204E-001	9.10012E-005	0.00000E+000	6.37194E-005	5.39641E-002	7.00342E-001	3.57300E+000	9	...........
	49	0.666667	7.04873E-001	9.07793E-005	0.00000E+000	6.39879E-005	5.39641E-002	7.05024E-001	3.57300E+000	9	...........
	50	0.68	7.09475E-001	9.09439E-005	0.00000E+000	6.45224E-005	5.39641E-002	7.09616E-001	3.57300E+000	9	...........
	51	0.693333	7.14009E-001	9.12210E-005	0.00000E+000	6.51326E-005	5.39641E-002	7.14126E-001	3.57300E+000	9	...........
	52	0.706667	7.18521E-001	9.11523E-005	0.00000E+000	6.54948E-005	5.39641E-002	7.18663E-001	3.57300E+000	9	...........
	53	0.72	7.22955E-001	9.10137E-005	0.00000E+000	6.57988E-005	5.39641E-002	7.23094E-001	3.57300E+000	9	...........
	54	0.733333	7.27324E-001	9.10262E-005	0.00000E+000	6.62055E-005	5.39641E-002	7.27435E-001	3.57300E+000	9	...........
	55	0.746667	7.31593E-001	9.08439E-005	0.00000E+000	6.64607E-005	5.39641E-002	7.31718E-001	3.57300E+000	9	...........
	56	0.76	7.35840E-001	9.10303E-005	0.00000E+000	6.69837E-005	5.39641E-002	7.35929E-001	3.57300E+000	9	...........
	57	0.773333	7.40036E-001	9.10647E-005	0.00000E+000	6.73912E-005	5.39641E-002	7.40134E-001	3.57300E+000	9	...........
	58	0.786667	7.44206E-001	9.10387E-005	0.00000E+000	6.77516E-005	5.39641E-002	7.44304E-001	3.57300E+000	9	...........
	59	0.8	7.48268E-001	9.11575E-005	0.00000E+000	6.82102E-005	5.39641E-002	7.48386E-001	3.57300E+000	9	...........
	60	0.813333	7.52281E-001	9.09157E-005	0.00000E+000	6.83942E-005	5.39641E-002	7.52420E-001	3.57300E+000	9	...........
	61	0.826667	7.56282E-001	9.09532E-005	0.00000E+000	6.87863E-005	5.39641E-002	7.56415E-001	3.57300E+000	9	...........
	62	0.84	7.60204E-001	9.11054E-005	0.00000E+000	6.92586E-005	5.39641E-002	7.60312E-001	3.57300E+000	9	...........
	63	0.853333	7.64059E-001	9.11283E-005	0.00000E+000	6.96274E-005	5.39641E-002	7.64184E-001	3.57300E+000	9	...........
	64	0.866667	7.67886E-001	9.11127E-005	0.00000E+000	6.99642E-005	5.39641E-002	7.68040E-001	3.57300E+000	9	...........
	65	0.88	7.71693E-001	9.08689E-005	0.00000E+000	7.01228E-005	5.39641E-002	7.71837E-001	3.57300E+000	9	...........
	66	0.893333	7.75459E-001	9.12283E-005	0.00000E+000	7.07438E-005	5.39641E-002	7.75571E-001	3.57300E+000	9	...........
	67	0.906667	7.79164E-001	9.09157E-005	0.00000E+000	7.08383E-005	5.39641E-002	7.79286E-001	3.57300E+000	9	...........
	68	0.92	7.82861E-001	9.08793E-005	0.00000E+000	7.11458E-005	5.39641E-002	7.82967E-001	3.57300E+000	9	...........
	69	0.933333	7.86477E-001	9.10595E-005	0.00000E+000	7.16162E-005	5.39641E-002	7.86581E-001	3.57300E+000	9	...........
	70	0.946667	7.90077E-001	9.09835E-005	0.00000E+000	7.18840E-005	5.39641E-002	7.90175E-001	3.57300E+000	9	...........
	71	0.96	7.93658E-001	9.10397E-005	0.00000E+000	7.22545E-005	5.39641E-002	7.93756E-001	3.57300E+000	9	...........
	72	0.97333	7.97189E-001	9.10470E-005	0.00000E+000	7.25816E-005	5.39641E-002	7.97287E-001	3.57300E+000	9	...........
	73	0.98667	8.00679E-001	9.11418E-005	0.00000E+000	7.29753E-005	5.39641E-002	8.00787E-001	3.57300E+000	9	...........
	74	1	8.04104E-001	9.11158E-005	0.00000E+000	7.32665E-005	5.39641E-002	8.04208E-001	3.57300E+000	9	...........
	75	1.01333	8.07514E-001	9.12137E-005	0.00000E+000	7.36563E-005	5.39641E-002	8.07615E-001	3.57300E+000	9	...........
	76	1.02667	8.10869E-001	9.12023E-005	0.00000E+000	7.39531E-005	5.39641E-002	8.10953E-001	3.57300E+000	9	...........
	77	1.04	8.14174E-001	9.10887E-005	0.00000E+000	7.41620E-005	5.39641E-002	8.14302E-001	3.57300E+000	9	...........
	78	1.05333	8.17469E-001	9.08855E-005	0.00000E+000	7.42961E-005	5.39641E-002	8.17597E-001	3.57300E+000	9	...........
	79	1.06667	8.20756E-001	9.08199E-005	0.00000E+000	7.45410E-005	5.39641E-002	8.20876E-001	3.57300E+000	9	...........
	80	1.08	8.23973E-001	9.10199E-005	0.00000E+000	7.49980E-005	5.39641E-002	8.24112E-001	3.57300E+000	9	...........
	81	1.09333	8.27140E-001	9.08564E-005	0.00000E+000	7.51509E-005	5.39641E-002	8.27263E-001	3.57300E+000	9	...........
	82	1.10667	8.30282E-001	9.08845E-005	0.00000E+000	7.54597E-005	5.39641E-002	8.30425E-001	3.57300E+000	9	...........
	83	1.12	8.33402E-001	9.10324E-005	0.00000E+000	7.58666E-005	5.39641E-002	8.33561E-001	3.57313E+000	9	...........
	84	1.13333	8.36454E-001	9.09876E-005	0.00000E+000	7.61070E-005	5.39641E-002	8.36627E-001	3.57320E+000	9	...........
	85	1.14667	8.39502E-001	9.11116E-005	0.00000E+000	7.64884E-005	5.39641E-002	8.39664E-001	3.57320E+000	9	...........
	86	1.16	8.42502E-001	9.09428E-005	0.00000E+000	7.66195E-005	5.39641E-002	8.42688E-001	3.57320E+000	9	...........
	87	1.17333	8.45523E-001	9.11356E-005	0.00000E+000	7.70572E-005	5.39641E-002	8.45680E-001	3.57320E+000	9	...........
	88	1.18667	8.48473E-001	9.10533E-005	0.00000E+000	7.72562E-005	5.39641E-002	8.48632E-001	3.57320E+000	9	...........
	89	1.2	8.51417E-001	9.11304E-005	0.00000E+000	7.75900E-005	5.39641E-002	8.51559E-001	3.57320E+000	9	...........
	90	1.21333	8.54316E-001	9.10428E-005	0.00000E+000	7.77794E-005	5.39641E-002	8.54471E-001	3.57320E+000	9	...........
	91	1.22667	8.57197E-001	9.11158E-005	0.00000E+000	7.81042E-005	5.39641E-002	8.57369E-001	3.57320E+000	9	...........
	92	1.24	8.60056E-001	9.08824E-005	0.00000E+000	7.81639E-005	5.39641E-002	8.60211E-001	3.57320E+000	9	...........
	93	1.25333	8.62868E-001	9.08876E-005	0.00000E+000	7.84240E-005	5.39641E-002	8.63037E-001	3.57320E+000	9	...........
	94	1.26667	8.65659E-001	9.10408E-005	0.00000E+000	7.88102E-005	5.39641E-002	8.65842E-001	3.57320E+000	9	...........
	95	1.28	8.68456E-001	9.09147E-005	0.00000E+000	7.89554E-005	5.39641E-002	8.68631E-001	3.57320E+000	9	...........
	96	1.29333	8.71232E-001	9.09866E-005	0.00000E+000	7.92704E-005	5.39641E-002	8.71397E-001	3.57320E+000	9	...........
	97	1.30667	8.73914E-001	9.08324E-005	0.00000E+000	7.93797E-005	5.39641E-002	8.74091E-001	3.57320E+000	9	...........
	98	1.32	8.76625E-001	9.11752E-005	0.00000E+000	7.99265E-005	5.39641E-002	8.76756E-001	3.57320E+000	9	...........
	99	1.33333	8.79259E-001	9.10241E-005	0.00000E+000	8.00338E-005	5.39641E-002	8.79392E-001	3.57320E+000	9	...........
	100	1.34667	8.81876E-001	9.09678E-005	0.00000E+000	8.02224E-005	5.39641E-002	8.82022E-001	3.57320E+000	9	...........
	101	1.36	8.84471E-001	9.12439E-005	0.00000E+000	8.07026E-005	5.39641E-002	8.84627E-001	3.57320E+000	9	...........
	102	1.37333	8.87069E-001	9.08949E-005	0.00000E+000	8.06301E-005	5.39641E-002	8.87215E-001	3.57320E+000	9	...........
	103	1.38667	8.89606E-001	9.10970E-005	0.00000E+000	8.10405E-005	5.39641E-002	8.89744E-001	3.57320E+000	9	...........
	104	1.4	8.92091E-001	9.09480E-005	0.00000E+000	8.11339E-005	5.39641E-002	8.92252E-001	3.57320E+000	9	...........
	105	1.41333	8.94587E-001	9.12502E-005	0.00000E+000	8.16312E-005	5.39641E-002	8.94759E-001	3.57320E+000	9	...........
	106	1.42667	8.97070E-001	9.11085E-005	0.00000E+000	8.17307E-005	5.39641E-002	8.97245E-001	3.57320E+000	9	...........
	107	1.44	8.99503E-001	9.09084E-005	0.00000E+000	8.17724E-005	5.39641E-002	8.99658E-001	3.57320E+000	9	...........
	108	1.45333	9.01922E-001	9.07865E-005	0.00000E+000	8.18824E-005	5.39641E-002	9.02092E-001	3.57320E+000	9	...........
	109	1.46667	9.04286E-001	9.11970E-005	0.00000E+000	8.24682E-005	5.39641E-002	9.04477E-001	3.57320E+000	9	...........
	110	1.48	9.06638E-001	9.10428E-005	0.00000E+000	8.25429E-005	5.39641E-002	9.06834E-001	3.57320E+000	9	...........
	111	1.49333	9.09011E-001	9.10897E-005	0.00000E+000	8.28016E-005	5.39641E-002	9.09164E-001	3.57320E+000	9	...........
	112	1.50667	9.11317E-001	9.11491E-005	0.00000E+000	8.30657E-005	5.39641E-002	9.11442E-001	3.57320E+000	9	...........
	113	1.52	9.13597E-001	9.09793E-005	0.00000E+000	8.31184E-005	5.39641E-002	9.13710E-001	3.57320E+000	9	...........
	114	1.53333	9.15864E-001	9.10043E-005	0.00000E+000	8.33475E-005	5.39641E-002	9.15998E-001	3.57320E+000	9	...........
	115	1.54667	9.18076E-001	9.07324E-005	0.00000E+000	8.32992E-005	5.39641E-002	9.18230E-001	3.57320E+000	9	...........
	116	1.56	9.20313E-001	9.10126E-005	0.00000E+000	8.37601E-005	5.39641E-002	9.20455E-001	3.57320E+000	9	...........
	117	1.57333	9.22532E-001	9.07959E-005	0.00000E+000	8.37622E-005	5.39641E-002	9.22673E-001	3.57320E+000	9	...........
	118	1.58667	9.24687E-001	9.09939E-005	0.00000E+000	8.41409E-005	5.39641E-002	9.24835E-001	3.57320E+000	9	...........
	119	1.6	9.26830E-001	9.12387E-005	0.00000E+000	8.45628E-005	5.39641E-002	9.26975E-001	3.57320E+000	9	...........
	120	1.61333	9.28944E-001	9.09897E-005	0.00000E+000	8.45243E-005	5.39641E-002	9.29078E-001	3.57320E+000	9	...........
	121	1.62667	9.31026E-001	9.10439E-005	0.00000E+000	8.47642E-005	5.39641E-002	9.31192E-001	3.57320E+000	9	...........
	122	1.64	9.33119E-001	9.08095E-005	0.00000E+000	8.47360E-005	5.39641E-002	9.33277E-001	3.57320E+000	9	...........
	123	1.65333	9.35195E-001	9.09835E-005	0.00000E+000	8.50872E-005	5.39641E-002	9.35342E-001	3.57320E+000	9	...........
	124	1.66667	9.37228E-001	9.09501E-005	0.00000E+000	8.52410E-005	5.39641E-002	9.37392E-001	3.57320E+000	9	...........
	125	1.68	9.39226E-001	9.10887E-005	0.00000E+000	8.55529E-005	5.39641E-002	9.39394E-001	3.57320E+000	9	...........
	126	1.69333	9.41233E-001	9.11512E-005	0.00000E+000	8.57945E-005	5.39641E-002	9.41370E-001	3.57320E+000	9	...........
	127	1.70667	9.43168E-001	9.11575E-005	0.00000E+000	8.59768E-005	5.39641E-002	9.43321E-001	3.57320E+000	9	...........
	128	1.72	9.45128E-001	9.11252E-005	0.00000E+000	8.61250E-005	5.39641E-002	9.45276E-001	3.57320E+000	9	...........
	129	1.73333	9.47106E-001	9.11752E-005	0.00000E+000	8.63526E-005	5.39641E-002	9.47215E-001	3.57320E+000	9	...........
	130	1.74667	9.48975E-001	9.11741E-005	0.00000E+000	8.65219E-005	5.39641E-002	9.49105E-001	3.57320E+000	9	...........
	131	1.76	9.50829E-001	9.08136E-005	0.00000E+000	8.63482E-005	5.39641E-002	9.50975E-001	3.57320E+000	9	...........
	132	1.77333	9.52682E-001	9.11731E-005	0.00000E+000	8.68590E-005	5.39641E-002	9.52853E-001	3.57320E+000	9	...........
	133	1.78667	9.54527E-001	9.08584E-005	0.00000E+000	8.67268E-005	5.39641E-002	9.54686E-001	3.57320E+000	9	...........
	134	1.8	9.56345E-001	9.08876E-005	0.00000E+000	8.69199E-005	5.39641E-002	9.56513E-001	3.57320E+000	9	...........
	135	1.81333	9.58127E-001	9.10606E-005	0.00000E+000	8.72476E-005	5.39641E-002	9.58318E-001	3.57320E+000	9	...........
	136	1.82667	9.59907E-001	9.08178E-005	0.00000E+000	8.71767E-005	5.39641E-002	9.60120E-001	3.57320E+000	9	...........
	137	1.84	9.61658E-001	9.09887E-005	0.00000E+000	8.75000E-005	5.39641E-002	9.61880E-001	3.57320E+000	9	...........
	138	1.85333	9.63416E-001	9.09553E-005	0.00000E+000	8.76279E-005	5.39641E-002	9.63656E-001	3.57320E+000	9	...........
	139	1.86667	9.65128E-001	9.08814E-005	0.00000E+000	8.77122E-005	5.39641E-002	9.65378E-001	3.57320E+000	9	...........
	140	1.88	9.66844E-001	9.11398E-005	0.00000E+000	8.81179E-005	5.39641E-002	9.67055E-001	3.57320E+000	9	...........
	141	1.89333	9.68518E-001	9.11408E-005	0.00000E+000	8.82715E-005	5.39641E-002	9.68735E-001	3.57320E+000	9	...........
	142	1.90667	9.70183E-001	9.08220E-005	0.00000E+000	8.81139E-005	5.39641E-002	9.70411E-001	3.57320E+000	9	...........
	143	1.92	9.71852E-001	9.08230E-005	0.00000E+000	8.82665E-005	5.39641E-002	9.72081E-001	3.57320E+000	9	...........
	144	1.93333	9.73534E-001	9.10710E-005	0.00000E+000	8.86607E-005	5.39641E-002	9.73704E-001	3.57320E+000	9	...........
	145	1.94667	9.75126E-001	9.09262E-005	0.00000E+000	8.86644E-005	5.39641E-002	9.75318E-001	3.57320E+000	9	...........
	146	1.96	9.76709E-001	9.10637E-005	0.00000E+000	8.89427E-005	5.39641E-002	9.76918E-001	3.57320E+000	9	...........
	147	1.97333	9.78292E-001	9.10908E-005	0.00000E+000	8.91134E-005	5.39641E-002	9.78515E-001	3.57320E+000	9	...........
	148	1.98667	9.79841E-001	9.09324E-005	0.00000E+000	8.90993E-005	5.39641E-002	9.80048E-001	3.57320E+000	9	...........
	149	2	9.81370E-001	9.10824E-005	0.00000E+000	8.93856E-005	5.39641E-002	9.81601E-001	3.57320E+000	9	...........
	150	2.01333	9.82941E-001	9.07813E-005	0.00000E+000	8.92327E-005	5.39641E-002	9.83117E-001	3.57320E+000	9	...........
	151	2.02667	9.84443E-001	9.10501E-005	0.00000E+000	8.96336E-005	5.39641E-002	9.84650E-001	3.57320E+000	9	...........
	152	2.04	9.85955E-001	9.09116E-005	0.00000E+000	8.96347E-005	5.39641E-002	9.86179E-001	3.57320E+000	9	...........
	153	2.05333	9.87434E-001	9.08939E-005	0.00000E+000	8.97517E-005	5.39641E-002	9.87655E-001	3.57320E+000	9	...........
	154	2.06667	9.88907E-001	9.10428E-005	0.00000E+000	9.00329E-005	5.39641E-002	9.89117E-001	3.57320E+000	9	...........
	155	2.08	9.90345E-001	9.10783E-005	0.00000E+000	9.01989E-005	5.39641E-002	9.90574E-001	3.57320E+000	9	...........
	156	2.09333	9.91787E-001	9.11960E-005	0.00000E+000	9.04470E-005	5.39641E-002	9.92013E-001	3.57320E+000	9	...........
	157	2.10667	9.93226E-001	9.11043E-005	0.00000E+000	9.04872E-005	5.39641E-002	9.93446E-001	3.57320E+000	9	...........
	158	2.12	9.94647E-001	9.08501E-005	0.00000E+000	9.03637E-005	5.39641E-002	9.94855E-001	3.57289E+000	9	...........
	159	2.13333	9.96055E-001	9.11783E-005	0.00000E+000	9.08186E-005	5.39641E-002	9.96252E-001	3.57270E+000	9	...........
	160	2.14667	9.97429E-001	9.13606E-005	0.00000E+000	9.11257E-005	5.39641E-002	9.97652E-001	3.57270E+000	9	...........
	161	2.16	9.98828E-001	9.11179E-005	0.00000E+000	9.10111E-005	5.39641E-002	9.99007E-001	3.57270E+000	9	...........
	162	2.16667	9.99843E-001	9.08564E-005	0.00000E+000	9.08421E-005	5.39641E-002	1.00002E+000	3.57270E+000	9	...........
STARTTIMEOFFSET	QUANT	3479.909	Start Time Offset (s)
