EXPLAIN
TAG	PWR800_CHARGE
TITLE	LABEL	PWR Cyclic Charge Discharge (Cell) - Charge Step	Test &Identifier
DATE	LABEL	10-7-2017	Date
TIME	LABEL	15:23:41	Time
NOTES	NOTES	3	&Notes...
	supercap test cell
	0.9mg
	6M KOH
PSTAT	PSTAT	IFC5000-01520	Potentiostat
CAPACITY	QUANT	1.00000E-003	Capacity (A-hr)
CELLTYPE	SELECTOR	1	&Cell Type
WORKINGCONNECTION	SELECTOR	0	&Working Lead
MAXCHARGETIME	VARIABLEANDUNITS	1.00000E+002	s	1.00000E+002	second(s)	Max &Charge Time
CHARGECURRENT	QUANT	9.00000E-005	&Charge Current (A) 
VOLTAGEFINISH	TWOPARAM	F	1.00000E-003	3.60000E+003	&Voltage Finish	 I (A) < 	Max Time(s)
SAMPLETIME	QUANT	1.00000E-002	Sa&mple Period (s)
CHARGESTOPAT1	MULTIPARAM	4	1.00000E+000	Charge Stop At &1	Voltage > Limit	V
CHARGESTOPAT2	MULTIPARAM	0	0.00000E+000	Charge Stop At &2	None	N/A
AESBHCSELECTOR	TOGGLE	F	Save Both Half Cells
IRCOMP	TOGGLE	F	IR &Measure
EOC	QUANT	0	Open Circuit (V)
SEQUENCER	TOGGLE	TRUE	Run as Sequence
PSTATMODEL	IQUANT	53	Pstat Model
PSTATSECTION	LABEL	IFC5000-01520	Pstat Section
PSTATSERIALNO	LABEL	01520	Pstat Serial Number
CTRLMODE	IQUANT	0	Control Mode
ELECTROMETER	IQUANT	1	RE=0 or CS=1
IESTAB	IQUANT	0	I/E Stability
CASPEED	IQUANT	4	Control Amp Speed
CONVENTION	IQUANT	1	Current Convention
ICHRANGE	IQUANT	2	Ich Range
ICHRANGEMODE	TOGGLE	T	Ich Auto Range
ICHOFFSETENABLE	TOGGLE	F	Ich Offset Enable
ICHOFFSET	QUANT	0	Ich Offset (V)
ICHFILTER	IQUANT	1	Ich Filter
VCHRANGE	IQUANT	2	Vch Range
VCHRANGEMODE	TOGGLE	T	Vch Auto Range
VCHOFFSETENABLE	TOGGLE	F	Vch Offset Enable
VCHOFFSET	QUANT	0	Vch Offset (V)
VCHFILTER	IQUANT	1	Vch Filter
IERANGELOWERLIMIT	IQUANT	9	I/E Range Lower Limit
IERANGEMODE	TOGGLE	F	I/E AutoRange
IERANGE	IQUANT	9	I/E Range
ACHSELECT	IQUANT	1	Ach Select
ACHRANGE	IQUANT	2	Ach Range
ACHOFFSETENABLE	TOGGLE	F	Ach Offset Enable
ACHOFFSET	QUANT	0	Ach Offset (V)
ACHFILTER	IQUANT	1	Ach Filter
CABLEID	IQUANT	14	Cable ID
DCCALDATE	LABEL	5-7-2017	DC Calibration Date
ACCALDATE	LABEL	12/3/2015	AC Calibration Date
FRAMEWORKVERSION	QUANT	7.01	Framework Version
INSTRUMENTVERSION	LABEL	4.00	Instrument Version
CURVE	TABLE	175
	Pt	T	Vf	Im	Vu	Pwr	Sig	Ach	Temp	IERange	Over
	#	s	V	A	V	W	V	V	deg C	#	bits
	0	0.013333	2.82282E-001	9.08293E-005	0.00000E+000	2.56395E-005	5.39641E-002	2.82325E-001	3.57250E+000	9	...........
	1	0.026667	3.01751E-001	9.09626E-005	0.00000E+000	2.74481E-005	5.39641E-002	3.01785E-001	3.57250E+000	9	...........
	2	0.04	3.19795E-001	9.08814E-005	0.00000E+000	2.90634E-005	5.39641E-002	3.19838E-001	3.57250E+000	9	...........
	3	0.053333	3.36665E-001	9.08657E-005	0.00000E+000	3.05913E-005	5.39641E-002	3.36707E-001	3.57250E+000	9	...........
	4	0.066667	3.52521E-001	9.09147E-005	0.00000E+000	3.20494E-005	5.39641E-002	3.52563E-001	3.57250E+000	9	...........
	5	0.08	3.67501E-001	9.10189E-005	0.00000E+000	3.34495E-005	5.39641E-002	3.67543E-001	3.57250E+000	9	...........
	6	0.093333	3.81696E-001	9.09824E-005	0.00000E+000	3.47277E-005	5.39641E-002	3.81736E-001	3.57250E+000	9	...........
	7	0.106667	3.95195E-001	9.11304E-005	0.00000E+000	3.60142E-005	5.39641E-002	3.95244E-001	3.57250E+000	9	...........
	8	0.12	4.08062E-001	9.09814E-005	0.00000E+000	3.71260E-005	5.39641E-002	4.08111E-001	3.57250E+000	9	...........
	9	0.133333	4.20362E-001	9.11231E-005	0.00000E+000	3.83047E-005	5.39641E-002	4.20416E-001	3.57250E+000	9	...........
	10	0.146667	4.32172E-001	9.12960E-005	0.00000E+000	3.94556E-005	5.39641E-002	4.32227E-001	3.57250E+000	9	...........
	11	0.16	4.43496E-001	9.10178E-005	0.00000E+000	4.03660E-005	5.39641E-002	4.43552E-001	3.57250E+000	9	...........
	12	0.173333	4.54397E-001	9.11689E-005	0.00000E+000	4.14269E-005	5.39641E-002	4.54454E-001	3.57250E+000	9	...........
	13	0.186667	4.64893E-001	9.09116E-005	0.00000E+000	4.22641E-005	5.39641E-002	4.64947E-001	3.57250E+000	9	...........
	14	0.2	4.75024E-001	9.09105E-005	0.00000E+000	4.31847E-005	5.39641E-002	4.75083E-001	3.57250E+000	9	...........
	15	0.213333	4.84817E-001	9.10626E-005	0.00000E+000	4.41487E-005	5.39641E-002	4.84885E-001	3.57250E+000	9	...........
	16	0.226667	4.94305E-001	9.09814E-005	0.00000E+000	4.49725E-005	5.39641E-002	4.94362E-001	3.57250E+000	9	...........
	17	0.24	5.03483E-001	9.11835E-005	0.00000E+000	4.59093E-005	5.39641E-002	5.03547E-001	3.57250E+000	9	...........
	18	0.253333	5.12374E-001	9.11887E-005	0.00000E+000	4.67227E-005	5.39641E-002	5.12435E-001	3.57250E+000	9	...........
	19	0.266667	5.20990E-001	9.11252E-005	0.00000E+000	4.74753E-005	5.39641E-002	5.21056E-001	3.57250E+000	9	...........
	20	0.28	5.29370E-001	9.12002E-005	0.00000E+000	4.82786E-005	5.39641E-002	5.29436E-001	3.57250E+000	9	...........
	21	0.293333	5.37446E-001	9.09741E-005	0.00000E+000	4.88936E-005	5.39641E-002	5.37522E-001	3.57250E+000	9	...........
	22	0.306667	5.45370E-001	9.09783E-005	0.00000E+000	4.96169E-005	5.39641E-002	5.45452E-001	3.57250E+000	9	...........
	23	0.32	5.53062E-001	9.10356E-005	0.00000E+000	5.03483E-005	5.39641E-002	5.53179E-001	3.57250E+000	9	...........
	24	0.333333	5.60581E-001	9.12252E-005	0.00000E+000	5.11391E-005	5.39641E-002	5.60711E-001	3.57250E+000	9	...........
	25	0.346667	5.67938E-001	9.10929E-005	0.00000E+000	5.17351E-005	5.39641E-002	5.68030E-001	3.57250E+000	9	...........
	26	0.36	5.75048E-001	9.12533E-005	0.00000E+000	5.24750E-005	5.39641E-002	5.75153E-001	3.57250E+000	9	...........
	27	0.373333	5.81992E-001	9.11095E-005	0.00000E+000	5.30250E-005	5.39641E-002	5.82128E-001	3.57250E+000	9	...........
	28	0.386667	5.88820E-001	9.11866E-005	0.00000E+000	5.36925E-005	5.39641E-002	5.88951E-001	3.57250E+000	9	...........
	29	0.4	5.95466E-001	9.10053E-005	0.00000E+000	5.41906E-005	5.39641E-002	5.95585E-001	3.57250E+000	9	...........
	30	0.413333	6.01905E-001	9.13908E-005	0.00000E+000	5.50086E-005	5.39641E-002	6.02056E-001	3.57250E+000	9	...........
	31	0.426667	6.08241E-001	9.11804E-005	0.00000E+000	5.54597E-005	5.39641E-002	6.08387E-001	3.57250E+000	9	...........
	32	0.44	6.14489E-001	9.11241E-005	0.00000E+000	5.59947E-005	5.39641E-002	6.14623E-001	3.57250E+000	9	...........
	33	0.453333	6.20563E-001	9.08814E-005	0.00000E+000	5.63976E-005	5.39641E-002	6.20658E-001	3.57250E+000	9	...........
	34	0.466667	6.26469E-001	9.11648E-005	0.00000E+000	5.71119E-005	5.39641E-002	6.26587E-001	3.57250E+000	9	...........
	35	0.48	6.32299E-001	9.11147E-005	0.00000E+000	5.76117E-005	5.39641E-002	6.32409E-001	3.57250E+000	9	...........
	36	0.493333	6.37997E-001	9.10147E-005	0.00000E+000	5.80671E-005	5.39641E-002	6.38108E-001	3.57250E+000	9	...........
	37	0.506667	6.43606E-001	9.09178E-005	0.00000E+000	5.85152E-005	5.39641E-002	6.43708E-001	3.57250E+000	9	...........
	38	0.52	6.49094E-001	9.09105E-005	0.00000E+000	5.90095E-005	5.39641E-002	6.49223E-001	3.57250E+000	9	...........
	39	0.533333	6.54515E-001	9.09855E-005	0.00000E+000	5.95514E-005	5.39641E-002	6.54617E-001	3.57306E+000	9	...........
	40	0.546667	6.59777E-001	9.11293E-005	0.00000E+000	6.01250E-005	5.39641E-002	6.59897E-001	3.57340E+000	9	...........
	41	0.56	6.64970E-001	9.12491E-005	0.00000E+000	6.06779E-005	5.39641E-002	6.65100E-001	3.57340E+000	9	...........
	42	0.573333	6.70097E-001	9.11095E-005	0.00000E+000	6.10522E-005	5.39641E-002	6.70208E-001	3.57340E+000	9	...........
	43	0.586667	6.75128E-001	9.10085E-005	0.00000E+000	6.14424E-005	5.39641E-002	6.75244E-001	3.57340E+000	9	...........
	44	0.6	6.80048E-001	9.10022E-005	0.00000E+000	6.18859E-005	5.39641E-002	6.80172E-001	3.57340E+000	9	...........
	45	0.613333	6.84863E-001	9.12408E-005	0.00000E+000	6.24875E-005	5.39641E-002	6.85010E-001	3.57340E+000	9	...........
	46	0.626667	6.89636E-001	9.11595E-005	0.00000E+000	6.28669E-005	5.39641E-002	6.89763E-001	3.57340E+000	9	...........
	47	0.64	6.94326E-001	9.10345E-005	0.00000E+000	6.32076E-005	5.39641E-002	6.94465E-001	3.57340E+000	9	...........
	48	0.653333	6.98897E-001	9.12106E-005	0.00000E+000	6.37468E-005	5.39641E-002	6.99034E-001	3.57340E+000	9	...........
	49	0.666667	7.03435E-001	9.13981E-005	0.00000E+000	6.42927E-005	5.39641E-002	7.03574E-001	3.57340E+000	9	...........
	50	0.68	7.07872E-001	9.12606E-005	0.00000E+000	6.46008E-005	5.39641E-002	7.08044E-001	3.57340E+000	9	...........
	51	0.693333	7.12252E-001	9.11835E-005	0.00000E+000	6.49456E-005	5.39641E-002	7.12399E-001	3.57340E+000	9	...........
	52	0.706667	7.16616E-001	9.11241E-005	0.00000E+000	6.53010E-005	5.39641E-002	7.16765E-001	3.57340E+000	9	...........
	53	0.72	7.20888E-001	9.12210E-005	0.00000E+000	6.57601E-005	5.39641E-002	7.21029E-001	3.57340E+000	9	...........
	54	0.733333	7.25069E-001	9.11210E-005	0.00000E+000	6.60690E-005	5.39641E-002	7.25216E-001	3.57340E+000	9	...........
	55	0.746667	7.29221E-001	9.09803E-005	0.00000E+000	6.63448E-005	5.39641E-002	7.29363E-001	3.57340E+000	9	...........
	56	0.76	7.33286E-001	9.13262E-005	0.00000E+000	6.69683E-005	5.39641E-002	7.33426E-001	3.57340E+000	9	...........
	57	0.773333	7.37319E-001	9.09699E-005	0.00000E+000	6.70738E-005	5.39641E-002	7.37449E-001	3.57340E+000	9	...........
	58	0.786667	7.41273E-001	9.09678E-005	0.00000E+000	6.74320E-005	5.39641E-002	7.41408E-001	3.57340E+000	9	...........
	59	0.8	7.45203E-001	9.11616E-005	0.00000E+000	6.79339E-005	5.39641E-002	7.45303E-001	3.57340E+000	9	...........
	60	0.813333	7.49041E-001	9.10387E-005	0.00000E+000	6.81917E-005	5.39641E-002	7.49139E-001	3.57340E+000	9	...........
	61	0.826667	7.52837E-001	9.09699E-005	0.00000E+000	6.84855E-005	5.39641E-002	7.52943E-001	3.57340E+000	9	...........
	62	0.84	7.56589E-001	9.12179E-005	0.00000E+000	6.90144E-005	5.39641E-002	7.56711E-001	3.57340E+000	9	...........
	63	0.853333	7.60276E-001	9.12075E-005	0.00000E+000	6.93429E-005	5.39641E-002	7.60385E-001	3.57340E+000	9	...........
	64	0.866667	7.63909E-001	9.08366E-005	0.00000E+000	6.93908E-005	5.39641E-002	7.64052E-001	3.57340E+000	9	...........
	65	0.88	7.67583E-001	9.09772E-005	0.00000E+000	6.98325E-005	5.39641E-002	7.67736E-001	3.57340E+000	9	...........
	66	0.893333	7.71160E-001	9.11345E-005	0.00000E+000	7.02793E-005	5.39641E-002	7.71300E-001	3.57340E+000	9	...........
	67	0.906667	7.74695E-001	9.10699E-005	0.00000E+000	7.05515E-005	5.39641E-002	7.74835E-001	3.57340E+000	9	...........
	68	0.92	7.78167E-001	9.09647E-005	0.00000E+000	7.07857E-005	5.39641E-002	7.78306E-001	3.57340E+000	9	...........
	69	0.933333	7.81635E-001	9.11502E-005	0.00000E+000	7.12462E-005	5.39641E-002	7.81774E-001	3.57340E+000	9	...........
	70	0.946667	7.85017E-001	9.08637E-005	0.00000E+000	7.13295E-005	5.39641E-002	7.85157E-001	3.57340E+000	9	...........
	71	0.96	7.88419E-001	9.11731E-005	0.00000E+000	7.18826E-005	5.39641E-002	7.88539E-001	3.57340E+000	9	...........
	72	0.97333	7.91713E-001	9.11731E-005	0.00000E+000	7.21829E-005	5.39641E-002	7.91849E-001	3.57340E+000	9	...........
	73	0.98667	7.95007E-001	9.10679E-005	0.00000E+000	7.23995E-005	5.39641E-002	7.95122E-001	3.57340E+000	9	...........
	74	1	7.98244E-001	9.09855E-005	0.00000E+000	7.26287E-005	5.39641E-002	7.98353E-001	3.57340E+000	9	...........
	75	1.01333	8.01411E-001	9.13190E-005	0.00000E+000	7.31840E-005	5.39641E-002	8.01545E-001	3.57340E+000	9	...........
	76	1.02667	8.04580E-001	9.11137E-005	0.00000E+000	7.33083E-005	5.39641E-002	8.04712E-001	3.57340E+000	9	...........
	77	1.04	8.07702E-001	9.11523E-005	0.00000E+000	7.36239E-005	5.39641E-002	8.07828E-001	3.57340E+000	9	...........
	78	1.05333	8.10761E-001	9.10866E-005	0.00000E+000	7.38495E-005	5.39641E-002	8.10920E-001	3.57340E+000	9	...........
	79	1.06667	8.13795E-001	9.11022E-005	0.00000E+000	7.41385E-005	5.39641E-002	8.13968E-001	3.57340E+000	9	...........
	80	1.08	8.16810E-001	9.10043E-005	0.00000E+000	7.43332E-005	5.39641E-002	8.16986E-001	3.57340E+000	9	...........
	81	1.09333	8.19836E-001	9.11877E-005	0.00000E+000	7.47589E-005	5.39641E-002	8.20013E-001	3.57340E+000	9	...........
	82	1.10667	8.22797E-001	9.11908E-005	0.00000E+000	7.50315E-005	5.39641E-002	8.22981E-001	3.57340E+000	9	...........
	83	1.12	8.25737E-001	9.08230E-005	0.00000E+000	7.49959E-005	5.39641E-002	8.25893E-001	3.57340E+000	9	...........
	84	1.13333	8.28610E-001	9.12575E-005	0.00000E+000	7.56169E-005	5.39641E-002	8.28771E-001	3.57340E+000	9	...........
	85	1.14667	8.31450E-001	9.11679E-005	0.00000E+000	7.58015E-005	5.39641E-002	8.31648E-001	3.57340E+000	9	...........
	86	1.16	8.34290E-001	9.12023E-005	0.00000E+000	7.60891E-005	5.39641E-002	8.34465E-001	3.57340E+000	9	...........
	87	1.17333	8.37112E-001	9.11137E-005	0.00000E+000	7.62724E-005	5.39641E-002	8.37295E-001	3.57340E+000	9	...........
	88	1.18667	8.39913E-001	9.13242E-005	0.00000E+000	7.67044E-005	5.39641E-002	8.40052E-001	3.57340E+000	9	...........
	89	1.2	8.42662E-001	9.13106E-005	0.00000E+000	7.69440E-005	5.39641E-002	8.42831E-001	3.57340E+000	9	...........
	90	1.21333	8.45450E-001	9.10574E-005	0.00000E+000	7.69845E-005	5.39641E-002	8.45590E-001	3.57340E+000	9	...........
	91	1.22667	8.48154E-001	9.10303E-005	0.00000E+000	7.72077E-005	5.39641E-002	8.48309E-001	3.57340E+000	9	...........
	92	1.24	8.50833E-001	9.12002E-005	0.00000E+000	7.75962E-005	5.39641E-002	8.50984E-001	3.57340E+000	9	...........
	93	1.25333	8.53484E-001	9.10126E-005	0.00000E+000	7.76779E-005	5.39641E-002	8.53626E-001	3.57340E+000	9	...........
	94	1.26667	8.56114E-001	9.10397E-005	0.00000E+000	7.79404E-005	5.39641E-002	8.56253E-001	3.57340E+000	9	...........
	95	1.28	8.58678E-001	9.12533E-005	0.00000E+000	7.83572E-005	5.39641E-002	8.58871E-001	3.57340E+000	9	...........
	96	1.29333	8.61265E-001	9.10439E-005	0.00000E+000	7.84129E-005	5.39641E-002	8.61412E-001	3.57340E+000	9	...........
	97	1.30667	8.63741E-001	9.09762E-005	0.00000E+000	7.85798E-005	5.39641E-002	8.63937E-001	3.57340E+000	9	...........
	98	1.32	8.66253E-001	9.10814E-005	0.00000E+000	7.88995E-005	5.39641E-002	8.66436E-001	3.57340E+000	9	...........
	99	1.33333	8.68738E-001	9.10470E-005	0.00000E+000	7.90960E-005	5.39641E-002	8.68926E-001	3.57340E+000	9	...........
	100	1.34667	8.71197E-001	9.07470E-005	0.00000E+000	7.90585E-005	5.39641E-002	8.71389E-001	3.57340E+000	9	...........
	101	1.36	8.73636E-001	9.11970E-005	0.00000E+000	7.96730E-005	5.39641E-002	8.73799E-001	3.57340E+000	9	...........
	102	1.37333	8.76053E-001	9.11158E-005	0.00000E+000	7.98222E-005	5.39641E-002	8.76214E-001	3.57340E+000	9	...........
	103	1.38667	8.78440E-001	9.11356E-005	0.00000E+000	8.00571E-005	5.39641E-002	8.78619E-001	3.57340E+000	9	...........
	104	1.4	8.80797E-001	9.12033E-005	0.00000E+000	8.03316E-005	5.39641E-002	8.80978E-001	3.57340E+000	9	...........
	105	1.41333	8.83168E-001	9.10095E-005	0.00000E+000	8.03767E-005	5.39641E-002	8.83322E-001	3.57340E+000	9	...........
	106	1.42667	8.85470E-001	9.09303E-005	0.00000E+000	8.05161E-005	5.39641E-002	8.85638E-001	3.57340E+000	9	...........
	107	1.44	8.87775E-001	9.10053E-005	0.00000E+000	8.07922E-005	5.39641E-002	8.87944E-001	3.57340E+000	9	...........
	108	1.45333	8.90054E-001	9.12544E-005	0.00000E+000	8.12213E-005	5.39641E-002	8.90223E-001	3.57340E+000	9	...........
	109	1.46667	8.92307E-001	9.11898E-005	0.00000E+000	8.13693E-005	5.39641E-002	8.92467E-001	3.57340E+000	9	...........
	110	1.48	8.94518E-001	9.10783E-005	0.00000E+000	8.14712E-005	5.39641E-002	8.94709E-001	3.57340E+000	9	...........
	111	1.49333	8.96753E-001	9.13096E-005	0.00000E+000	8.18821E-005	5.39641E-002	8.96942E-001	3.57340E+000	9	...........
	112	1.50667	8.98952E-001	9.08834E-005	0.00000E+000	8.16999E-005	5.39641E-002	8.99147E-001	3.57340E+000	9	...........
	113	1.52	9.01094E-001	9.10012E-005	0.00000E+000	8.20007E-005	5.39641E-002	9.01319E-001	3.57340E+000	9	...........
	114	1.53333	9.03249E-001	9.10376E-005	0.00000E+000	8.22297E-005	5.39641E-002	9.03468E-001	3.57259E+000	9	...........
	115	1.54667	9.05349E-001	9.12585E-005	0.00000E+000	8.26208E-005	5.39641E-002	9.05553E-001	3.57210E+000	9	...........
	116	1.56	9.07443E-001	9.11606E-005	0.00000E+000	8.27230E-005	5.39641E-002	9.07664E-001	3.57210E+000	9	...........
	117	1.57333	9.09550E-001	9.11575E-005	0.00000E+000	8.29123E-005	5.39641E-002	9.09727E-001	3.57210E+000	9	...........
	118	1.58667	9.11612E-001	9.10887E-005	0.00000E+000	8.30376E-005	5.39641E-002	9.11802E-001	3.57210E+000	9	...........
	119	1.6	9.13627E-001	9.09866E-005	0.00000E+000	8.31278E-005	5.39641E-002	9.13810E-001	3.57210E+000	9	...........
	120	1.61333	9.15647E-001	9.10324E-005	0.00000E+000	8.33536E-005	5.39641E-002	9.15843E-001	3.57210E+000	9	...........
	121	1.62667	9.17644E-001	9.09855E-005	0.00000E+000	8.34924E-005	5.39641E-002	9.17850E-001	3.57210E+000	9	...........
	122	1.64	9.19616E-001	9.10731E-005	0.00000E+000	8.37523E-005	5.39641E-002	9.19823E-001	3.57210E+000	9	...........
	123	1.65333	9.21657E-001	9.10908E-005	0.00000E+000	8.39545E-005	5.39641E-002	9.21813E-001	3.57210E+000	9	...........
	124	1.66667	9.23588E-001	9.10564E-005	0.00000E+000	8.40986E-005	5.39641E-002	9.23740E-001	3.57210E+000	9	...........
	125	1.68	9.25488E-001	9.07928E-005	0.00000E+000	8.40277E-005	5.39641E-002	9.25642E-001	3.57210E+000	9	...........
	126	1.69333	9.27365E-001	9.08543E-005	0.00000E+000	8.42551E-005	5.39641E-002	9.27518E-001	3.57210E+000	9	...........
	127	1.70667	9.29227E-001	9.11773E-005	0.00000E+000	8.47244E-005	5.39641E-002	9.29353E-001	3.57210E+000	9	...........
	128	1.72	9.31079E-001	9.10595E-005	0.00000E+000	8.47836E-005	5.39641E-002	9.31193E-001	3.57210E+000	9	...........
	129	1.73333	9.32914E-001	9.11741E-005	0.00000E+000	8.50576E-005	5.39641E-002	9.33049E-001	3.57210E+000	9	...........
	130	1.74667	9.34734E-001	9.13075E-005	0.00000E+000	8.53483E-005	5.39641E-002	9.34905E-001	3.57210E+000	9	...........
	131	1.76	9.36535E-001	9.08386E-005	0.00000E+000	8.50736E-005	5.39641E-002	9.36697E-001	3.57210E+000	9	...........
	132	1.77333	9.38332E-001	9.10908E-005	0.00000E+000	8.54734E-005	5.39641E-002	9.38498E-001	3.57210E+000	9	...........
	133	1.78667	9.40109E-001	9.09501E-005	0.00000E+000	8.55030E-005	5.39641E-002	9.40280E-001	3.57210E+000	9	...........
	134	1.8	9.41865E-001	9.09428E-005	0.00000E+000	8.56558E-005	5.39641E-002	9.42029E-001	3.57210E+000	9	...........
	135	1.81333	9.43585E-001	9.10783E-005	0.00000E+000	8.59401E-005	5.39641E-002	9.43755E-001	3.57210E+000	9	...........
	136	1.82667	9.45291E-001	9.10178E-005	0.00000E+000	8.60383E-005	5.39641E-002	9.45491E-001	3.57210E+000	9	...........
	137	1.84	9.47060E-001	9.08772E-005	0.00000E+000	8.60662E-005	5.39641E-002	9.47216E-001	3.57210E+000	9	...........
	138	1.85333	9.48720E-001	9.11950E-005	0.00000E+000	8.65184E-005	5.39641E-002	9.48928E-001	3.57210E+000	9	...........
	139	1.86667	9.50371E-001	9.10460E-005	0.00000E+000	8.65275E-005	5.39641E-002	9.50559E-001	3.57210E+000	9	...........
	140	1.88	9.52007E-001	9.11418E-005	0.00000E+000	8.67677E-005	5.39641E-002	9.52190E-001	3.57210E+000	9	...........
	141	1.89333	9.53664E-001	9.11731E-005	0.00000E+000	8.69485E-005	5.39641E-002	9.53820E-001	3.57210E+000	9	...........
	142	1.90667	9.55244E-001	9.10231E-005	0.00000E+000	8.69493E-005	5.39641E-002	9.55406E-001	3.57210E+000	9	...........
	143	1.92	9.56839E-001	9.12752E-005	0.00000E+000	8.73356E-005	5.39641E-002	9.57010E-001	3.57210E+000	9	...........
	144	1.93333	9.58418E-001	9.11283E-005	0.00000E+000	8.73390E-005	5.39641E-002	9.58570E-001	3.57210E+000	9	...........
	145	1.94667	9.59988E-001	9.11845E-005	0.00000E+000	8.75360E-005	5.39641E-002	9.60161E-001	3.57210E+000	9	...........
	146	1.96	9.61559E-001	9.11137E-005	0.00000E+000	8.76112E-005	5.39641E-002	9.61715E-001	3.57210E+000	9	...........
	147	1.97333	9.63091E-001	9.08834E-005	0.00000E+000	8.75290E-005	5.39641E-002	9.63290E-001	3.57210E+000	9	...........
	148	1.98667	9.64627E-001	9.11908E-005	0.00000E+000	8.79651E-005	5.39641E-002	9.64811E-001	3.57210E+000	9	...........
	149	2	9.66154E-001	9.11189E-005	0.00000E+000	8.80349E-005	5.39641E-002	9.66333E-001	3.57210E+000	9	...........
	150	2.01333	9.67638E-001	9.10262E-005	0.00000E+000	8.80804E-005	5.39641E-002	9.67839E-001	3.57210E+000	9	...........
	151	2.02667	9.69138E-001	9.09053E-005	0.00000E+000	8.80998E-005	5.39641E-002	9.69325E-001	3.57210E+000	9	...........
	152	2.04	9.70613E-001	9.09960E-005	0.00000E+000	8.83218E-005	5.39641E-002	9.70833E-001	3.57210E+000	9	...........
	153	2.05333	9.72066E-001	9.12252E-005	0.00000E+000	8.86769E-005	5.39641E-002	9.72281E-001	3.57210E+000	9	...........
	154	2.06667	9.73531E-001	9.13054E-005	0.00000E+000	8.88887E-005	5.39641E-002	9.73711E-001	3.57210E+000	9	...........
	155	2.08	9.74942E-001	9.12033E-005	0.00000E+000	8.89179E-005	5.39641E-002	9.75123E-001	3.57210E+000	9	...........
	156	2.09333	9.76354E-001	9.12023E-005	0.00000E+000	8.90457E-005	5.39641E-002	9.76543E-001	3.57210E+000	9	...........
	157	2.10667	9.77745E-001	9.11887E-005	0.00000E+000	8.91593E-005	5.39641E-002	9.77953E-001	3.57210E+000	9	...........
	158	2.12	9.79142E-001	9.09418E-005	0.00000E+000	8.90449E-005	5.39641E-002	9.79314E-001	3.57210E+000	9	...........
	159	2.13333	9.80493E-001	9.11606E-005	0.00000E+000	8.93823E-005	5.39641E-002	9.80680E-001	3.57210E+000	9	...........
	160	2.14667	9.81814E-001	9.12575E-005	0.00000E+000	8.95979E-005	5.39641E-002	9.81995E-001	3.57210E+000	9	...........
	161	2.16	9.83176E-001	9.08011E-005	0.00000E+000	8.92735E-005	5.39641E-002	9.83325E-001	3.57210E+000	9	...........
	162	2.17333	9.84493E-001	9.13575E-005	0.00000E+000	8.99408E-005	5.39641E-002	9.84659E-001	3.57210E+000	9	...........
	163	2.18667	9.85804E-001	9.11231E-005	0.00000E+000	8.98295E-005	5.39641E-002	9.85987E-001	3.57210E+000	9	...........
	164	2.2	9.87095E-001	9.10085E-005	0.00000E+000	8.98340E-005	5.39641E-002	9.87272E-001	3.57210E+000	9	...........
	165	2.21333	9.88377E-001	9.09407E-005	0.00000E+000	8.98837E-005	5.39641E-002	9.88566E-001	3.57210E+000	9	...........
	166	2.22667	9.89645E-001	9.10835E-005	0.00000E+000	9.01403E-005	5.39641E-002	9.89839E-001	3.57210E+000	9	...........
	167	2.24	9.90931E-001	9.12669E-005	0.00000E+000	9.04392E-005	5.39641E-002	9.91099E-001	3.57210E+000	9	...........
	168	2.25333	9.92162E-001	9.10731E-005	0.00000E+000	9.03592E-005	5.39641E-002	9.92371E-001	3.57210E+000	9	...........
	169	2.26667	9.93410E-001	9.11168E-005	0.00000E+000	9.05163E-005	5.39641E-002	9.93611E-001	3.57210E+000	9	...........
	170	2.28	9.94630E-001	9.11731E-005	0.00000E+000	9.06835E-005	5.39641E-002	9.94835E-001	3.57210E+000	9	...........
	171	2.29333	9.95882E-001	9.11929E-005	0.00000E+000	9.08173E-005	5.39641E-002	9.96062E-001	3.57210E+000	9	...........
	172	2.30667	9.97099E-001	9.13679E-005	0.00000E+000	9.11028E-005	5.39641E-002	9.97316E-001	3.57210E+000	9	...........
	173	2.32	9.98340E-001	9.09730E-005	0.00000E+000	9.08221E-005	5.39641E-002	9.98540E-001	3.57210E+000	9	...........
	174	2.33333	9.99510E-001	9.08918E-005	0.00000E+000	9.08472E-005	5.39641E-002	9.99730E-001	3.57210E+000	9	...........
STARTTIMEOFFSET	QUANT	1239.074	Start Time Offset (s)
