EXPLAIN
TAG	PWR800_CHARGE
TITLE	LABEL	PWR Cyclic Charge Discharge (Cell) - Charge Step	Test &Identifier
DATE	LABEL	10-7-2017	Date
TIME	LABEL	15:55:59	Time
NOTES	NOTES	3	&Notes...
	supercap test cell
	0.9mg
	6M KOH
PSTAT	PSTAT	IFC5000-01520	Potentiostat
CAPACITY	QUANT	1.00000E-003	Capacity (A-hr)
CELLTYPE	SELECTOR	1	&Cell Type
WORKINGCONNECTION	SELECTOR	0	&Working Lead
MAXCHARGETIME	VARIABLEANDUNITS	1.00000E+002	s	1.00000E+002	second(s)	Max &Charge Time
CHARGECURRENT	QUANT	9.00000E-005	&Charge Current (A) 
VOLTAGEFINISH	TWOPARAM	F	1.00000E-003	3.60000E+003	&Voltage Finish	 I (A) < 	Max Time(s)
SAMPLETIME	QUANT	1.00000E-002	Sa&mple Period (s)
CHARGESTOPAT1	MULTIPARAM	4	1.00000E+000	Charge Stop At &1	Voltage > Limit	V
CHARGESTOPAT2	MULTIPARAM	0	0.00000E+000	Charge Stop At &2	None	N/A
AESBHCSELECTOR	TOGGLE	F	Save Both Half Cells
IRCOMP	TOGGLE	F	IR &Measure
EOC	QUANT	0	Open Circuit (V)
SEQUENCER	TOGGLE	TRUE	Run as Sequence
PSTATMODEL	IQUANT	53	Pstat Model
PSTATSECTION	LABEL	IFC5000-01520	Pstat Section
PSTATSERIALNO	LABEL	01520	Pstat Serial Number
CTRLMODE	IQUANT	0	Control Mode
ELECTROMETER	IQUANT	1	RE=0 or CS=1
IESTAB	IQUANT	0	I/E Stability
CASPEED	IQUANT	4	Control Amp Speed
CONVENTION	IQUANT	1	Current Convention
ICHRANGE	IQUANT	2	Ich Range
ICHRANGEMODE	TOGGLE	T	Ich Auto Range
ICHOFFSETENABLE	TOGGLE	F	Ich Offset Enable
ICHOFFSET	QUANT	0	Ich Offset (V)
ICHFILTER	IQUANT	1	Ich Filter
VCHRANGE	IQUANT	2	Vch Range
VCHRANGEMODE	TOGGLE	T	Vch Auto Range
VCHOFFSETENABLE	TOGGLE	F	Vch Offset Enable
VCHOFFSET	QUANT	0	Vch Offset (V)
VCHFILTER	IQUANT	1	Vch Filter
IERANGELOWERLIMIT	IQUANT	9	I/E Range Lower Limit
IERANGEMODE	TOGGLE	F	I/E AutoRange
IERANGE	IQUANT	9	I/E Range
ACHSELECT	IQUANT	1	Ach Select
ACHRANGE	IQUANT	2	Ach Range
ACHOFFSETENABLE	TOGGLE	F	Ach Offset Enable
ACHOFFSET	QUANT	0	Ach Offset (V)
ACHFILTER	IQUANT	1	Ach Filter
CABLEID	IQUANT	14	Cable ID
DCCALDATE	LABEL	5-7-2017	DC Calibration Date
ACCALDATE	LABEL	12/3/2015	AC Calibration Date
FRAMEWORKVERSION	QUANT	7.01	Framework Version
INSTRUMENTVERSION	LABEL	4.00	Instrument Version
CURVE	TABLE	165
	Pt	T	Vf	Im	Vu	Pwr	Sig	Ach	Temp	IERange	Over
	#	s	V	A	V	W	V	V	deg C	#	bits
	0	0.013333	2.67303E-001	9.10064E-005	0.00000E+000	2.43263E-005	5.39641E-002	2.67343E-001	3.57300E+000	9	...........
	1	0.026667	2.87078E-001	9.10220E-005	0.00000E+000	2.61304E-005	5.39641E-002	2.87116E-001	3.57300E+000	9	...........
	2	0.04	3.05602E-001	9.10804E-005	0.00000E+000	2.78343E-005	5.39641E-002	3.05641E-001	3.57300E+000	9	...........
	3	0.053333	3.23037E-001	9.12158E-005	0.00000E+000	2.94660E-005	5.39641E-002	3.23080E-001	3.57300E+000	9	...........
	4	0.066667	3.39509E-001	9.11991E-005	0.00000E+000	3.09629E-005	5.39641E-002	3.39552E-001	3.57300E+000	9	...........
	5	0.08	3.55118E-001	9.09762E-005	0.00000E+000	3.23073E-005	5.39641E-002	3.55166E-001	3.57300E+000	9	...........
	6	0.093333	3.69961E-001	9.09678E-005	0.00000E+000	3.36545E-005	5.39641E-002	3.70007E-001	3.57300E+000	9	...........
	7	0.106667	3.84089E-001	9.10012E-005	0.00000E+000	3.49525E-005	5.39641E-002	3.84138E-001	3.57300E+000	9	...........
	8	0.12	3.97566E-001	9.11616E-005	0.00000E+000	3.62428E-005	5.39641E-002	3.97615E-001	3.57300E+000	9	...........
	9	0.133333	4.10447E-001	9.10262E-005	0.00000E+000	3.73614E-005	5.39641E-002	4.10505E-001	3.57300E+000	9	...........
	10	0.146667	4.22793E-001	9.10085E-005	0.00000E+000	3.84777E-005	5.39641E-002	4.22850E-001	3.57300E+000	9	...........
	11	0.16	4.34635E-001	9.11283E-005	0.00000E+000	3.96075E-005	5.39641E-002	4.34702E-001	3.57300E+000	9	...........
	12	0.173333	4.46013E-001	9.08115E-005	0.00000E+000	4.05031E-005	5.39641E-002	4.46079E-001	3.57300E+000	9	...........
	13	0.186667	4.56969E-001	9.12366E-005	0.00000E+000	4.16923E-005	5.39641E-002	4.57029E-001	3.57300E+000	9	...........
	14	0.2	4.67526E-001	9.09209E-005	0.00000E+000	4.25079E-005	5.39641E-002	4.67590E-001	3.57300E+000	9	...........
	15	0.213333	4.77719E-001	9.09147E-005	0.00000E+000	4.34317E-005	5.39641E-002	4.77780E-001	3.57300E+000	9	...........
	16	0.226667	4.87560E-001	9.07626E-005	0.00000E+000	4.42522E-005	5.39641E-002	4.87627E-001	3.57300E+000	9	...........
	17	0.24	4.97071E-001	9.09418E-005	0.00000E+000	4.52045E-005	5.39641E-002	4.97141E-001	3.57300E+000	9	...........
	18	0.253333	5.06288E-001	9.09564E-005	0.00000E+000	4.60501E-005	5.39641E-002	5.06360E-001	3.57300E+000	9	...........
	19	0.266667	5.15227E-001	9.07438E-005	0.00000E+000	4.67537E-005	5.39641E-002	5.15299E-001	3.57300E+000	9	...........
	20	0.28	5.23907E-001	9.10418E-005	0.00000E+000	4.76975E-005	5.39641E-002	5.23986E-001	3.57300E+000	9	...........
	21	0.293333	5.32305E-001	9.11210E-005	0.00000E+000	4.85041E-005	5.39641E-002	5.32377E-001	3.57300E+000	9	...........
	22	0.306667	5.40432E-001	9.08491E-005	0.00000E+000	4.90978E-005	5.39641E-002	5.40561E-001	3.57300E+000	9	...........
	23	0.32	5.48405E-001	9.08720E-005	0.00000E+000	4.98347E-005	5.39641E-002	5.48519E-001	3.57300E+000	9	...........
	24	0.333333	5.56131E-001	9.09595E-005	0.00000E+000	5.05854E-005	5.39641E-002	5.56286E-001	3.57300E+000	9	...........
	25	0.346667	5.63726E-001	9.09814E-005	0.00000E+000	5.12886E-005	5.39641E-002	5.63864E-001	3.57300E+000	9	...........
	26	0.36	5.71099E-001	9.08668E-005	0.00000E+000	5.18939E-005	5.39641E-002	5.71208E-001	3.57300E+000	9	...........
	27	0.373333	5.78244E-001	9.10772E-005	0.00000E+000	5.26649E-005	5.39641E-002	5.78382E-001	3.57300E+000	9	...........
	28	0.386667	5.85225E-001	9.11272E-005	0.00000E+000	5.33300E-005	5.39641E-002	5.85371E-001	3.57300E+000	9	...........
	29	0.4	5.92098E-001	9.08355E-005	0.00000E+000	5.37835E-005	5.39641E-002	5.92218E-001	3.57300E+000	9	...........
	30	0.413333	5.98748E-001	9.12012E-005	0.00000E+000	5.46065E-005	5.39641E-002	5.98893E-001	3.57300E+000	9	...........
	31	0.426667	6.05258E-001	9.10064E-005	0.00000E+000	5.50823E-005	5.39641E-002	6.05421E-001	3.57300E+000	9	...........
	32	0.44	6.11636E-001	9.10845E-005	0.00000E+000	5.57106E-005	5.39641E-002	6.11798E-001	3.57300E+000	9	...........
	33	0.453333	6.17962E-001	9.08043E-005	0.00000E+000	5.61136E-005	5.39641E-002	6.18069E-001	3.57300E+000	9	...........
	34	0.466667	6.24083E-001	9.12856E-005	0.00000E+000	5.69698E-005	5.39641E-002	6.24176E-001	3.57300E+000	9	...........
	35	0.48	6.30054E-001	9.09564E-005	0.00000E+000	5.73075E-005	5.39641E-002	6.30179E-001	3.57300E+000	9	...........
	36	0.493333	6.35904E-001	9.09949E-005	0.00000E+000	5.78640E-005	5.39641E-002	6.35997E-001	3.57300E+000	9	...........
	37	0.506667	6.41642E-001	9.10033E-005	0.00000E+000	5.83915E-005	5.39641E-002	6.41771E-001	3.57300E+000	9	...........
	38	0.52	6.47266E-001	9.10137E-005	0.00000E+000	5.89100E-005	5.39641E-002	6.47367E-001	3.57300E+000	9	...........
	39	0.533333	6.52784E-001	9.08491E-005	0.00000E+000	5.93048E-005	5.39641E-002	6.52898E-001	3.57300E+000	9	...........
	40	0.546667	6.58190E-001	9.08022E-005	0.00000E+000	5.97651E-005	5.39641E-002	6.58299E-001	3.57300E+000	9	...........
	41	0.56	6.63503E-001	9.08595E-005	0.00000E+000	6.02855E-005	5.39641E-002	6.63628E-001	3.57325E+000	9	...........
	42	0.573333	6.68785E-001	9.09678E-005	0.00000E+000	6.08379E-005	5.39641E-002	6.68884E-001	3.57350E+000	9	...........
	43	0.586667	6.73916E-001	9.09272E-005	0.00000E+000	6.12772E-005	5.39641E-002	6.74040E-001	3.57350E+000	9	...........
	44	0.6	6.78975E-001	9.10460E-005	0.00000E+000	6.18179E-005	5.39641E-002	6.79109E-001	3.57350E+000	9	...........
	45	0.613333	6.83933E-001	9.09189E-005	0.00000E+000	6.21824E-005	5.39641E-002	6.84057E-001	3.57350E+000	9	...........
	46	0.626667	6.88850E-001	9.09543E-005	0.00000E+000	6.26538E-005	5.39641E-002	6.88970E-001	3.57350E+000	9	...........
	47	0.64	6.93680E-001	9.12043E-005	0.00000E+000	6.32667E-005	5.39641E-002	6.93814E-001	3.57350E+000	9	...........
	48	0.653333	6.98438E-001	9.08834E-005	0.00000E+000	6.34765E-005	5.39641E-002	6.98572E-001	3.57350E+000	9	...........
	49	0.666667	7.03094E-001	9.10929E-005	0.00000E+000	6.40468E-005	5.39641E-002	7.03243E-001	3.57350E+000	9	...........
	50	0.68	7.07688E-001	9.10106E-005	0.00000E+000	6.44071E-005	5.39641E-002	7.07853E-001	3.57350E+000	9	...........
	51	0.693333	7.12213E-001	9.11262E-005	0.00000E+000	6.49013E-005	5.39641E-002	7.12360E-001	3.57350E+000	9	...........
	52	0.706667	7.16700E-001	9.10178E-005	0.00000E+000	6.52325E-005	5.39641E-002	7.16861E-001	3.57350E+000	9	...........
	53	0.72	7.21152E-001	9.09887E-005	0.00000E+000	6.56166E-005	5.39641E-002	7.21269E-001	3.57350E+000	9	...........
	54	0.733333	7.25505E-001	9.11731E-005	0.00000E+000	6.61465E-005	5.39641E-002	7.25603E-001	3.57350E+000	9	...........
	55	0.746667	7.29752E-001	9.11074E-005	0.00000E+000	6.64859E-005	5.39641E-002	7.29901E-001	3.57350E+000	9	...........
	56	0.76	7.33981E-001	9.12773E-005	0.00000E+000	6.69958E-005	5.39641E-002	7.34136E-001	3.57350E+000	9	...........
	57	0.773333	7.38159E-001	9.10751E-005	0.00000E+000	6.72280E-005	5.39641E-002	7.38299E-001	3.57350E+000	9	...........
	58	0.786667	7.42317E-001	9.10408E-005	0.00000E+000	6.75811E-005	5.39641E-002	7.42449E-001	3.57350E+000	9	...........
	59	0.8	7.46401E-001	9.09012E-005	0.00000E+000	6.78487E-005	5.39641E-002	7.46523E-001	3.57350E+000	9	...........
	60	0.813333	7.50410E-001	9.09460E-005	0.00000E+000	6.82468E-005	5.39641E-002	7.50528E-001	3.57350E+000	9	...........
	61	0.826667	7.54386E-001	9.14211E-005	0.00000E+000	6.89668E-005	5.39641E-002	7.54497E-001	3.57350E+000	9	...........
	62	0.84	7.58312E-001	9.12127E-005	0.00000E+000	6.91676E-005	5.39641E-002	7.58417E-001	3.57350E+000	9	...........
	63	0.853333	7.62159E-001	9.10845E-005	0.00000E+000	6.94209E-005	5.39641E-002	7.62276E-001	3.57350E+000	9	...........
	64	0.866667	7.65993E-001	9.08376E-005	0.00000E+000	6.95810E-005	5.39641E-002	7.66134E-001	3.57350E+000	9	...........
	65	0.88	7.69775E-001	9.08439E-005	0.00000E+000	6.99293E-005	5.39641E-002	7.69915E-001	3.57350E+000	9	...........
	66	0.893333	7.73502E-001	9.10814E-005	0.00000E+000	7.04517E-005	5.39641E-002	7.73622E-001	3.57350E+000	9	...........
	67	0.906667	7.77170E-001	9.09262E-005	0.00000E+000	7.06651E-005	5.39641E-002	7.77325E-001	3.57350E+000	9	...........
	68	0.92	7.80804E-001	9.09439E-005	0.00000E+000	7.10093E-005	5.39641E-002	7.80972E-001	3.57350E+000	9	...........
	69	0.933333	7.84428E-001	9.11064E-005	0.00000E+000	7.14664E-005	5.39641E-002	7.84566E-001	3.57350E+000	9	...........
	70	0.946667	7.87979E-001	9.07834E-005	0.00000E+000	7.15354E-005	5.39641E-002	7.88106E-001	3.57350E+000	9	...........
	71	0.96	7.91471E-001	9.08814E-005	0.00000E+000	7.19300E-005	5.39641E-002	7.91635E-001	3.57350E+000	9	...........
	72	0.97333	7.95014E-001	9.08459E-005	0.00000E+000	7.22238E-005	5.39641E-002	7.95171E-001	3.57350E+000	9	...........
	73	0.98667	7.98444E-001	9.11439E-005	0.00000E+000	7.27733E-005	5.39641E-002	7.98603E-001	3.57350E+000	9	...........
	74	1	8.01831E-001	9.11408E-005	0.00000E+000	7.30796E-005	5.39641E-002	8.01987E-001	3.57350E+000	9	...........
	75	1.01333	8.05208E-001	9.09449E-005	0.00000E+000	7.32296E-005	5.39641E-002	8.05362E-001	3.57350E+000	9	...........
	76	1.02667	8.08539E-001	9.12544E-005	0.00000E+000	7.37827E-005	5.39641E-002	8.08702E-001	3.57350E+000	9	...........
	77	1.04	8.11870E-001	9.08887E-005	0.00000E+000	7.37898E-005	5.39641E-002	8.12027E-001	3.57350E+000	9	...........
	78	1.05333	8.15136E-001	9.08605E-005	0.00000E+000	7.40637E-005	5.39641E-002	8.15312E-001	3.57350E+000	9	...........
	79	1.06667	8.18374E-001	9.09178E-005	0.00000E+000	7.44048E-005	5.39641E-002	8.18532E-001	3.57350E+000	9	...........
	80	1.08	8.21584E-001	9.09282E-005	0.00000E+000	7.47052E-005	5.39641E-002	8.21732E-001	3.57350E+000	9	...........
	81	1.09333	8.24744E-001	9.12523E-005	0.00000E+000	7.52597E-005	5.39641E-002	8.24907E-001	3.57350E+000	9	...........
	82	1.10667	8.27900E-001	9.08282E-005	0.00000E+000	7.51967E-005	5.39641E-002	8.28042E-001	3.57350E+000	9	...........
	83	1.12	8.30982E-001	9.09012E-005	0.00000E+000	7.55373E-005	5.39641E-002	8.31155E-001	3.57350E+000	9	...........
	84	1.13333	8.34060E-001	9.10533E-005	0.00000E+000	7.59439E-005	5.39641E-002	8.34232E-001	3.57350E+000	9	...........
	85	1.14667	8.37095E-001	9.07824E-005	0.00000E+000	7.59934E-005	5.39641E-002	8.37277E-001	3.57350E+000	9	...........
	86	1.16	8.40122E-001	9.07803E-005	0.00000E+000	7.62665E-005	5.39641E-002	8.40287E-001	3.57350E+000	9	...........
	87	1.17333	8.43088E-001	9.12627E-005	0.00000E+000	7.69425E-005	5.39641E-002	8.43269E-001	3.57350E+000	9	...........
	88	1.18667	8.46048E-001	9.08741E-005	0.00000E+000	7.68838E-005	5.39641E-002	8.46206E-001	3.57350E+000	9	...........
	89	1.2	8.48965E-001	9.08876E-005	0.00000E+000	7.71604E-005	5.39641E-002	8.49133E-001	3.57350E+000	9	...........
	90	1.21333	8.51830E-001	9.13065E-005	0.00000E+000	7.77776E-005	5.39641E-002	8.51989E-001	3.57350E+000	9	...........
	91	1.22667	8.54667E-001	9.10824E-005	0.00000E+000	7.78452E-005	5.39641E-002	8.54853E-001	3.57350E+000	9	...........
	92	1.24	8.57518E-001	9.11293E-005	0.00000E+000	7.81451E-005	5.39641E-002	8.57716E-001	3.57350E+000	9	...........
	93	1.25333	8.60333E-001	9.08418E-005	0.00000E+000	7.81542E-005	5.39641E-002	8.60511E-001	3.57350E+000	9	...........
	94	1.26667	8.63117E-001	9.09116E-005	0.00000E+000	7.84673E-005	5.39641E-002	8.63281E-001	3.57350E+000	9	...........
	95	1.28	8.65860E-001	9.08616E-005	0.00000E+000	7.86734E-005	5.39641E-002	8.66033E-001	3.57350E+000	9	...........
	96	1.29333	8.68569E-001	9.10262E-005	0.00000E+000	7.90625E-005	5.39641E-002	8.68761E-001	3.57350E+000	9	...........
	97	1.30667	8.71265E-001	9.10408E-005	0.00000E+000	7.93206E-005	5.39641E-002	8.71432E-001	3.57350E+000	9	...........
	98	1.32	8.73911E-001	9.11439E-005	0.00000E+000	7.96516E-005	5.39641E-002	8.74093E-001	3.57350E+000	9	...........
	99	1.33333	8.76525E-001	9.11356E-005	0.00000E+000	7.98826E-005	5.39641E-002	8.76724E-001	3.57350E+000	9	...........
	100	1.34667	8.79133E-001	9.09064E-005	0.00000E+000	7.99187E-005	5.39641E-002	8.79308E-001	3.57350E+000	9	...........
	101	1.36	8.81682E-001	9.10595E-005	0.00000E+000	8.02856E-005	5.39641E-002	8.81879E-001	3.57350E+000	9	...........
	102	1.37333	8.84231E-001	9.10679E-005	0.00000E+000	8.05250E-005	5.39641E-002	8.84418E-001	3.57350E+000	9	...........
	103	1.38667	8.86727E-001	9.08564E-005	0.00000E+000	8.05648E-005	5.39641E-002	8.86936E-001	3.57350E+000	9	...........
	104	1.4	8.89241E-001	9.08251E-005	0.00000E+000	8.07654E-005	5.39641E-002	8.89416E-001	3.57350E+000	9	...........
	105	1.41333	8.91691E-001	9.08626E-005	0.00000E+000	8.10214E-005	5.39641E-002	8.91864E-001	3.57350E+000	9	...........
	106	1.42667	8.94122E-001	9.11106E-005	0.00000E+000	8.14640E-005	5.39641E-002	8.94335E-001	3.57350E+000	9	...........
	107	1.44	8.96547E-001	9.09522E-005	0.00000E+000	8.15429E-005	5.39641E-002	8.96763E-001	3.57350E+000	9	...........
	108	1.45333	8.98955E-001	9.12304E-005	0.00000E+000	8.20120E-005	5.39641E-002	8.99135E-001	3.57350E+000	9	...........
	109	1.46667	9.01346E-001	9.08959E-005	0.00000E+000	8.19287E-005	5.39641E-002	9.01544E-001	3.57350E+000	9	...........
	110	1.48	9.03708E-001	9.08220E-005	0.00000E+000	8.20765E-005	5.39641E-002	9.03903E-001	3.57350E+000	9	...........
	111	1.49333	9.06019E-001	9.09147E-005	0.00000E+000	8.23704E-005	5.39641E-002	9.06227E-001	3.57350E+000	9	...........
	112	1.50667	9.08340E-001	9.12231E-005	0.00000E+000	8.28616E-005	5.39641E-002	9.08542E-001	3.57350E+000	9	...........
	113	1.52	9.10640E-001	9.10053E-005	0.00000E+000	8.28731E-005	5.39641E-002	9.10800E-001	3.57350E+000	9	...........
	114	1.53333	9.12864E-001	9.09720E-005	0.00000E+000	8.30451E-005	5.39641E-002	9.13058E-001	3.57350E+000	9	...........
	115	1.54667	9.15080E-001	9.05823E-005	0.00000E+000	8.28901E-005	5.39641E-002	9.15279E-001	3.57350E+000	9	...........
	116	1.56	9.17268E-001	9.10043E-005	0.00000E+000	8.34753E-005	5.39641E-002	9.17473E-001	3.57345E+000	9	...........
	117	1.57333	9.19450E-001	9.09303E-005	0.00000E+000	8.36059E-005	5.39641E-002	9.19640E-001	3.57340E+000	9	...........
	118	1.58667	9.21683E-001	9.09637E-005	0.00000E+000	8.38397E-005	5.39641E-002	9.21812E-001	3.57340E+000	9	...........
	119	1.6	9.23774E-001	9.09887E-005	0.00000E+000	8.40530E-005	5.39641E-002	9.23943E-001	3.57340E+000	9	...........
	120	1.61333	9.25855E-001	9.08824E-005	0.00000E+000	8.41439E-005	5.39641E-002	9.26043E-001	3.57340E+000	9	...........
	121	1.62667	9.27923E-001	9.10574E-005	0.00000E+000	8.44943E-005	5.39641E-002	9.28099E-001	3.57340E+000	9	...........
	122	1.64	9.29978E-001	9.10522E-005	0.00000E+000	8.46765E-005	5.39641E-002	9.30124E-001	3.57340E+000	9	...........
	123	1.65333	9.32021E-001	9.09564E-005	0.00000E+000	8.47732E-005	5.39641E-002	9.32181E-001	3.57340E+000	9	...........
	124	1.66667	9.34075E-001	9.11356E-005	0.00000E+000	8.51275E-005	5.39641E-002	9.34255E-001	3.57340E+000	9	...........
	125	1.68	9.36080E-001	9.09845E-005	0.00000E+000	8.51688E-005	5.39641E-002	9.36248E-001	3.57340E+000	9	...........
	126	1.69333	9.38049E-001	9.09376E-005	0.00000E+000	8.53040E-005	5.39641E-002	9.38221E-001	3.57340E+000	9	...........
	127	1.70667	9.39995E-001	9.07980E-005	0.00000E+000	8.53497E-005	5.39641E-002	9.40196E-001	3.57340E+000	9	...........
	128	1.72	9.41936E-001	9.10251E-005	0.00000E+000	8.57398E-005	5.39641E-002	9.42129E-001	3.57340E+000	9	...........
	129	1.73333	9.43849E-001	9.10710E-005	0.00000E+000	8.59573E-005	5.39641E-002	9.44051E-001	3.57340E+000	9	...........
	130	1.74667	9.45765E-001	9.10783E-005	0.00000E+000	8.61386E-005	5.39641E-002	9.46004E-001	3.57340E+000	9	...........
	131	1.76	9.47694E-001	9.07813E-005	0.00000E+000	8.60330E-005	5.39641E-002	9.47888E-001	3.57340E+000	9	...........
	132	1.77333	9.49539E-001	9.11064E-005	0.00000E+000	8.65090E-005	5.39641E-002	9.49738E-001	3.57340E+000	9	...........
	133	1.78667	9.51396E-001	9.10449E-005	0.00000E+000	8.66198E-005	5.39641E-002	9.51581E-001	3.57340E+000	9	...........
	134	1.8	9.53232E-001	9.10012E-005	0.00000E+000	8.67453E-005	5.39641E-002	9.53415E-001	3.57340E+000	9	...........
	135	1.81333	9.55042E-001	9.09991E-005	0.00000E+000	8.69080E-005	5.39641E-002	9.55221E-001	3.57340E+000	9	...........
	136	1.82667	9.56833E-001	9.10501E-005	0.00000E+000	8.71197E-005	5.39641E-002	9.56994E-001	3.57340E+000	9	...........
	137	1.84	9.58568E-001	9.08282E-005	0.00000E+000	8.70650E-005	5.39641E-002	9.58765E-001	3.57340E+000	9	...........
	138	1.85333	9.60323E-001	9.12366E-005	0.00000E+000	8.76166E-005	5.39641E-002	9.60501E-001	3.57340E+000	9	...........
	139	1.86667	9.62032E-001	9.09262E-005	0.00000E+000	8.74739E-005	5.39641E-002	9.62225E-001	3.57340E+000	9	...........
	140	1.88	9.63724E-001	9.08501E-005	0.00000E+000	8.75544E-005	5.39641E-002	9.63926E-001	3.57340E+000	9	...........
	141	1.89333	9.65415E-001	9.10845E-005	0.00000E+000	8.79343E-005	5.39641E-002	9.65596E-001	3.57340E+000	9	...........
	142	1.90667	9.67063E-001	9.12762E-005	0.00000E+000	8.82698E-005	5.39641E-002	9.67254E-001	3.57340E+000	9	...........
	143	1.92	9.68688E-001	9.09553E-005	0.00000E+000	8.81074E-005	5.39641E-002	9.68918E-001	3.57340E+000	9	...........
	144	1.93333	9.70334E-001	9.10731E-005	0.00000E+000	8.83713E-005	5.39641E-002	9.70545E-001	3.57340E+000	9	...........
	145	1.94667	9.71954E-001	9.09564E-005	0.00000E+000	8.84054E-005	5.39641E-002	9.72156E-001	3.57340E+000	9	...........
	146	1.96	9.73584E-001	9.10324E-005	0.00000E+000	8.86277E-005	5.39641E-002	9.73770E-001	3.57340E+000	9	...........
	147	1.97333	9.75169E-001	9.10574E-005	0.00000E+000	8.87964E-005	5.39641E-002	9.75326E-001	3.57340E+000	9	...........
	148	1.98667	9.76715E-001	9.08647E-005	0.00000E+000	8.87489E-005	5.39641E-002	9.76889E-001	3.57340E+000	9	...........
	149	2	9.78263E-001	9.09939E-005	0.00000E+000	8.90159E-005	5.39641E-002	9.78454E-001	3.57340E+000	9	...........
	150	2.01333	9.79791E-001	9.11106E-005	0.00000E+000	8.92693E-005	5.39641E-002	9.79981E-001	3.57340E+000	9	...........
	151	2.02667	9.81333E-001	9.07459E-005	0.00000E+000	8.90520E-005	5.39641E-002	9.81509E-001	3.57340E+000	9	...........
	152	2.04	9.82808E-001	9.07876E-005	0.00000E+000	8.92268E-005	5.39641E-002	9.82995E-001	3.57340E+000	9	...........
	153	2.05333	9.84301E-001	9.08001E-005	0.00000E+000	8.93747E-005	5.39641E-002	9.84487E-001	3.57340E+000	9	...........
	154	2.06667	9.85763E-001	9.10918E-005	0.00000E+000	8.97950E-005	5.39641E-002	9.85956E-001	3.57340E+000	9	...........
	155	2.08	9.87205E-001	9.08980E-005	0.00000E+000	8.97350E-005	5.39641E-002	9.87371E-001	3.57340E+000	9	...........
	156	2.09333	9.88663E-001	9.09803E-005	0.00000E+000	8.99489E-005	5.39641E-002	9.88801E-001	3.57340E+000	9	...........
	157	2.10667	9.90085E-001	9.10439E-005	0.00000E+000	9.01412E-005	5.39641E-002	9.90230E-001	3.57340E+000	9	...........
	158	2.12	9.91484E-001	9.09553E-005	0.00000E+000	9.01808E-005	5.39641E-002	9.91644E-001	3.57340E+000	9	...........
	159	2.13333	9.92873E-001	9.10335E-005	0.00000E+000	9.03847E-005	5.39641E-002	9.93039E-001	3.57340E+000	9	...........
	160	2.14667	9.94249E-001	9.08043E-005	0.00000E+000	9.02820E-005	5.39641E-002	9.94432E-001	3.57340E+000	9	...........
	161	2.16	9.95647E-001	9.11168E-005	0.00000E+000	9.07202E-005	5.39641E-002	9.95830E-001	3.57340E+000	9	...........
	162	2.17333	9.96996E-001	9.09168E-005	0.00000E+000	9.06437E-005	5.39641E-002	9.97200E-001	3.57340E+000	9	...........
	163	2.18667	9.98358E-001	9.09491E-005	0.00000E+000	9.07997E-005	5.39641E-002	9.98537E-001	3.57340E+000	9	...........
	164	2.19833	9.99557E-001	9.08436E-005	0.00000E+000	9.08033E-005	5.39641E-002	9.99777E-001	3.57340E+000	9	...........
STARTTIMEOFFSET	QUANT	2864.924	Start Time Offset (s)
