EXPLAIN
TAG	PWR800_CHARGE
TITLE	LABEL	PWR Cyclic Charge Discharge (Cell) - Charge Step	Test &Identifier
DATE	LABEL	10-7-2017	Date
TIME	LABEL	16:22:45	Time
NOTES	NOTES	3	&Notes...
	supercap test cell
	0.9mg
	6M KOH
PSTAT	PSTAT	IFC5000-01520	Potentiostat
CAPACITY	QUANT	1.00000E-003	Capacity (A-hr)
CELLTYPE	SELECTOR	1	&Cell Type
WORKINGCONNECTION	SELECTOR	0	&Working Lead
MAXCHARGETIME	VARIABLEANDUNITS	1.00000E+002	s	1.00000E+002	second(s)	Max &Charge Time
CHARGECURRENT	QUANT	9.00000E-005	&Charge Current (A) 
VOLTAGEFINISH	TWOPARAM	F	1.00000E-003	3.60000E+003	&Voltage Finish	 I (A) < 	Max Time(s)
SAMPLETIME	QUANT	1.00000E-002	Sa&mple Period (s)
CHARGESTOPAT1	MULTIPARAM	4	1.00000E+000	Charge Stop At &1	Voltage > Limit	V
CHARGESTOPAT2	MULTIPARAM	0	0.00000E+000	Charge Stop At &2	None	N/A
AESBHCSELECTOR	TOGGLE	F	Save Both Half Cells
IRCOMP	TOGGLE	F	IR &Measure
EOC	QUANT	0	Open Circuit (V)
SEQUENCER	TOGGLE	TRUE	Run as Sequence
PSTATMODEL	IQUANT	53	Pstat Model
PSTATSECTION	LABEL	IFC5000-01520	Pstat Section
PSTATSERIALNO	LABEL	01520	Pstat Serial Number
CTRLMODE	IQUANT	0	Control Mode
ELECTROMETER	IQUANT	1	RE=0 or CS=1
IESTAB	IQUANT	0	I/E Stability
CASPEED	IQUANT	4	Control Amp Speed
CONVENTION	IQUANT	1	Current Convention
ICHRANGE	IQUANT	2	Ich Range
ICHRANGEMODE	TOGGLE	T	Ich Auto Range
ICHOFFSETENABLE	TOGGLE	F	Ich Offset Enable
ICHOFFSET	QUANT	0	Ich Offset (V)
ICHFILTER	IQUANT	1	Ich Filter
VCHRANGE	IQUANT	2	Vch Range
VCHRANGEMODE	TOGGLE	T	Vch Auto Range
VCHOFFSETENABLE	TOGGLE	F	Vch Offset Enable
VCHOFFSET	QUANT	0	Vch Offset (V)
VCHFILTER	IQUANT	1	Vch Filter
IERANGELOWERLIMIT	IQUANT	9	I/E Range Lower Limit
IERANGEMODE	TOGGLE	F	I/E AutoRange
IERANGE	IQUANT	9	I/E Range
ACHSELECT	IQUANT	1	Ach Select
ACHRANGE	IQUANT	2	Ach Range
ACHOFFSETENABLE	TOGGLE	F	Ach Offset Enable
ACHOFFSET	QUANT	0	Ach Offset (V)
ACHFILTER	IQUANT	1	Ach Filter
CABLEID	IQUANT	14	Cable ID
DCCALDATE	LABEL	5-7-2017	DC Calibration Date
ACCALDATE	LABEL	12/3/2015	AC Calibration Date
FRAMEWORKVERSION	QUANT	7.01	Framework Version
INSTRUMENTVERSION	LABEL	4.00	Instrument Version
CURVE	TABLE	161
	Pt	T	Vf	Im	Vu	Pwr	Sig	Ach	Temp	IERange	Over
	#	s	V	A	V	W	V	V	deg C	#	bits
	0	0.013333	2.62219E-001	9.08772E-005	0.00000E+000	2.38297E-005	5.39641E-002	2.62277E-001	3.57320E+000	9	...........
	1	0.026667	2.81924E-001	9.07574E-005	0.00000E+000	2.55867E-005	5.39641E-002	2.81963E-001	3.57320E+000	9	...........
	2	0.04	3.00465E-001	9.08626E-005	0.00000E+000	2.73010E-005	5.39641E-002	3.00504E-001	3.57320E+000	9	...........
	3	0.053333	3.18011E-001	9.08199E-005	0.00000E+000	2.88817E-005	5.39641E-002	3.18051E-001	3.57320E+000	9	...........
	4	0.066667	3.34650E-001	9.10804E-005	0.00000E+000	3.04800E-005	5.39641E-002	3.34695E-001	3.57320E+000	9	...........
	5	0.08	3.50476E-001	9.08511E-005	0.00000E+000	3.18412E-005	5.39641E-002	3.50522E-001	3.57320E+000	9	...........
	6	0.093333	3.65545E-001	9.10335E-005	0.00000E+000	3.32769E-005	5.39641E-002	3.65590E-001	3.57320E+000	9	...........
	7	0.106667	3.79907E-001	9.10918E-005	0.00000E+000	3.46065E-005	5.39641E-002	3.79958E-001	3.57320E+000	9	...........
	8	0.12	3.93613E-001	9.05188E-005	0.00000E+000	3.56294E-005	5.39641E-002	3.93661E-001	3.57320E+000	9	...........
	9	0.133333	4.06737E-001	9.09001E-005	0.00000E+000	3.69725E-005	5.39641E-002	4.06792E-001	3.57320E+000	9	...........
	10	0.146667	4.19304E-001	9.11616E-005	0.00000E+000	3.82244E-005	5.39641E-002	4.19363E-001	3.57320E+000	9	...........
	11	0.16	4.31369E-001	9.11825E-005	0.00000E+000	3.93333E-005	5.39641E-002	4.31428E-001	3.57320E+000	9	...........
	12	0.173333	4.42961E-001	9.08063E-005	0.00000E+000	4.02237E-005	5.39641E-002	4.43022E-001	3.57320E+000	9	...........
	13	0.186667	4.54115E-001	9.07157E-005	0.00000E+000	4.11954E-005	5.39641E-002	4.54178E-001	3.57320E+000	9	...........
	14	0.2	4.64854E-001	9.11564E-005	0.00000E+000	4.23744E-005	5.39641E-002	4.64918E-001	3.57320E+000	9	...........
	15	0.213333	4.75228E-001	9.09824E-005	0.00000E+000	4.32374E-005	5.39641E-002	4.75290E-001	3.57320E+000	9	...........
	16	0.226667	4.85230E-001	9.09407E-005	0.00000E+000	4.41272E-005	5.39641E-002	4.85300E-001	3.57320E+000	9	...........
	17	0.24	4.94892E-001	9.10585E-005	0.00000E+000	4.50641E-005	5.39641E-002	4.94967E-001	3.57320E+000	9	...........
	18	0.253333	5.04247E-001	9.10324E-005	0.00000E+000	4.59028E-005	5.39641E-002	5.04319E-001	3.57320E+000	9	...........
	19	0.266667	5.13319E-001	9.11304E-005	0.00000E+000	4.67789E-005	5.39641E-002	5.13396E-001	3.57320E+000	9	...........
	20	0.28	5.22101E-001	9.09814E-005	0.00000E+000	4.75015E-005	5.39641E-002	5.22176E-001	3.57320E+000	9	...........
	21	0.293333	5.30604E-001	9.09001E-005	0.00000E+000	4.82320E-005	5.39641E-002	5.30681E-001	3.57320E+000	9	...........
	22	0.306667	5.38782E-001	9.10887E-005	0.00000E+000	4.90769E-005	5.39641E-002	5.38880E-001	3.57320E+000	9	...........
	23	0.32	5.46832E-001	9.11502E-005	0.00000E+000	4.98438E-005	5.39641E-002	5.46916E-001	3.57320E+000	9	...........
	24	0.333333	5.54656E-001	9.11127E-005	0.00000E+000	5.05362E-005	5.39641E-002	5.54747E-001	3.57320E+000	9	...........
	25	0.346667	5.62309E-001	9.11179E-005	0.00000E+000	5.12364E-005	5.39641E-002	5.62387E-001	3.57320E+000	9	...........
	26	0.36	5.69747E-001	9.10960E-005	0.00000E+000	5.19017E-005	5.39641E-002	5.69832E-001	3.57320E+000	9	...........
	27	0.373333	5.76968E-001	9.11710E-005	0.00000E+000	5.26028E-005	5.39641E-002	5.77055E-001	3.57320E+000	9	...........
	28	0.386667	5.83995E-001	9.09105E-005	0.00000E+000	5.30913E-005	5.39641E-002	5.84112E-001	3.57320E+000	9	...........
	29	0.4	5.90930E-001	9.09460E-005	0.00000E+000	5.37427E-005	5.39641E-002	5.91026E-001	3.57320E+000	9	...........
	30	0.413333	5.97646E-001	9.10783E-005	0.00000E+000	5.44326E-005	5.39641E-002	5.97758E-001	3.57320E+000	9	...........
	31	0.426667	6.04227E-001	9.10449E-005	0.00000E+000	5.50118E-005	5.39641E-002	6.04346E-001	3.57320E+000	9	...........
	32	0.44	6.10645E-001	9.09397E-005	0.00000E+000	5.55318E-005	5.39641E-002	6.10796E-001	3.57320E+000	9	...........
	33	0.453333	6.17048E-001	9.10814E-005	0.00000E+000	5.62016E-005	5.39641E-002	6.17128E-001	3.57320E+000	9	...........
	34	0.466667	6.23186E-001	9.09064E-005	0.00000E+000	5.66515E-005	5.39641E-002	6.23284E-001	3.57320E+000	9	...........
	35	0.48	6.29240E-001	9.09157E-005	0.00000E+000	5.72078E-005	5.39641E-002	6.29363E-001	3.57320E+000	9	...........
	36	0.493333	6.35149E-001	9.10699E-005	0.00000E+000	5.78430E-005	5.39641E-002	6.35282E-001	3.57320E+000	9	...........
	37	0.506667	6.40985E-001	9.07303E-005	0.00000E+000	5.81567E-005	5.39641E-002	6.41106E-001	3.57320E+000	9	...........
	38	0.52	6.46675E-001	9.09032E-005	0.00000E+000	5.87849E-005	5.39641E-002	6.46811E-001	3.57320E+000	9	...........
	39	0.533333	6.52285E-001	9.08720E-005	0.00000E+000	5.92744E-005	5.39641E-002	6.52404E-001	3.57320E+000	9	...........
	40	0.546667	6.57803E-001	9.10043E-005	0.00000E+000	5.98629E-005	5.39641E-002	6.57927E-001	3.57320E+000	9	...........
	41	0.56	6.63188E-001	9.09814E-005	0.00000E+000	6.03377E-005	5.39641E-002	6.63347E-001	3.57320E+000	9	...........
	42	0.573333	6.68528E-001	9.08887E-005	0.00000E+000	6.07617E-005	5.39641E-002	6.68658E-001	3.57320E+000	9	...........
	43	0.586667	6.73712E-001	9.10137E-005	0.00000E+000	6.13170E-005	5.39641E-002	6.73863E-001	3.57320E+000	9	...........
	44	0.6	6.78851E-001	9.09522E-005	0.00000E+000	6.17430E-005	5.39641E-002	6.79010E-001	3.57320E+000	9	...........
	45	0.613333	6.83902E-001	9.12835E-005	0.00000E+000	6.24290E-005	5.39641E-002	6.84025E-001	3.57320E+000	9	...........
	46	0.626667	6.88869E-001	9.07990E-005	0.00000E+000	6.25486E-005	5.39641E-002	6.88989E-001	3.57320E+000	9	...........
	47	0.64	6.93805E-001	9.11689E-005	0.00000E+000	6.32535E-005	5.39641E-002	6.93905E-001	3.57320E+000	9	...........
	48	0.653333	6.98618E-001	9.08647E-005	0.00000E+000	6.34797E-005	5.39641E-002	6.98735E-001	3.57320E+000	9	...........
	49	0.666667	7.03358E-001	9.10491E-005	0.00000E+000	6.40401E-005	5.39641E-002	7.03474E-001	3.57320E+000	9	...........
	50	0.68	7.08019E-001	9.09366E-005	0.00000E+000	6.43849E-005	5.39641E-002	7.08139E-001	3.57320E+000	9	...........
	51	0.693333	7.12619E-001	9.09022E-005	0.00000E+000	6.47786E-005	5.39641E-002	7.12726E-001	3.57320E+000	9	...........
	52	0.706667	7.17192E-001	9.08751E-005	0.00000E+000	6.51749E-005	5.39641E-002	7.17310E-001	3.57320E+000	9	...........
	53	0.72	7.21711E-001	9.11700E-005	0.00000E+000	6.57983E-005	5.39641E-002	7.21819E-001	3.57320E+000	9	...........
	54	0.733333	7.26147E-001	9.08793E-005	0.00000E+000	6.59917E-005	5.39641E-002	7.26243E-001	3.57320E+000	9	...........
	55	0.746667	7.30504E-001	9.07657E-005	0.00000E+000	6.63047E-005	5.39641E-002	7.30611E-001	3.57320E+000	9	...........
	56	0.76	7.34797E-001	9.11470E-005	0.00000E+000	6.69745E-005	5.39641E-002	7.34905E-001	3.57320E+000	9	...........
	57	0.773333	7.39031E-001	9.11481E-005	0.00000E+000	6.73612E-005	5.39641E-002	7.39166E-001	3.57320E+000	9	...........
	58	0.786667	7.43212E-001	9.09803E-005	0.00000E+000	6.76177E-005	5.39641E-002	7.43363E-001	3.57320E+000	9	...........
	59	0.8	7.47363E-001	9.10345E-005	0.00000E+000	6.80358E-005	5.39641E-002	7.47474E-001	3.57320E+000	9	...........
	60	0.813333	7.51435E-001	9.08657E-005	0.00000E+000	6.82797E-005	5.39641E-002	7.51566E-001	3.57320E+000	9	...........
	61	0.826667	7.55489E-001	9.07126E-005	0.00000E+000	6.85324E-005	5.39641E-002	7.55632E-001	3.57320E+000	9	...........
	62	0.84	7.59487E-001	9.08834E-005	0.00000E+000	6.90248E-005	5.39641E-002	7.59601E-001	3.57320E+000	9	...........
	63	0.853333	7.63434E-001	9.10668E-005	0.00000E+000	6.95235E-005	5.39641E-002	7.63521E-001	3.57320E+000	9	...........
	64	0.866667	7.67323E-001	9.11429E-005	0.00000E+000	6.99360E-005	5.39641E-002	7.67449E-001	3.57320E+000	9	...........
	65	0.88	7.71203E-001	9.08345E-005	0.00000E+000	7.00518E-005	5.39641E-002	7.71319E-001	3.57320E+000	9	...........
	66	0.893333	7.75034E-001	9.09262E-005	0.00000E+000	7.04709E-005	5.39641E-002	7.75162E-001	3.57320E+000	9	...........
	67	0.906667	7.78798E-001	9.12804E-005	0.00000E+000	7.10890E-005	5.39641E-002	7.78906E-001	3.57320E+000	9	...........
	68	0.92	7.82553E-001	9.10626E-005	0.00000E+000	7.12614E-005	5.39641E-002	7.82659E-001	3.57320E+000	9	...........
	69	0.933333	7.86218E-001	9.07907E-005	0.00000E+000	7.13813E-005	5.39641E-002	7.86347E-001	3.57393E+000	9	...........
	70	0.946667	7.89877E-001	9.11106E-005	0.00000E+000	7.19662E-005	5.39641E-002	7.90001E-001	3.57430E+000	9	...........
	71	0.96	7.93497E-001	9.09793E-005	0.00000E+000	7.21918E-005	5.39641E-002	7.93643E-001	3.57430E+000	9	...........
	72	0.97333	7.97078E-001	9.12189E-005	0.00000E+000	7.27086E-005	5.39641E-002	7.97227E-001	3.57430E+000	9	...........
	73	0.98667	8.00614E-001	9.09376E-005	0.00000E+000	7.28059E-005	5.39641E-002	8.00748E-001	3.57430E+000	9	...........
	74	1	8.04115E-001	9.09855E-005	0.00000E+000	7.31628E-005	5.39641E-002	8.04257E-001	3.57430E+000	9	...........
	75	1.01333	8.07549E-001	9.08209E-005	0.00000E+000	7.33423E-005	5.39641E-002	8.07696E-001	3.57430E+000	9	...........
	76	1.02667	8.10952E-001	9.09626E-005	0.00000E+000	7.37664E-005	5.39641E-002	8.11093E-001	3.57430E+000	9	...........
	77	1.04	8.14342E-001	9.10522E-005	0.00000E+000	7.41477E-005	5.39641E-002	8.14473E-001	3.57430E+000	9	...........
	78	1.05333	8.17697E-001	9.08834E-005	0.00000E+000	7.43152E-005	5.39641E-002	8.17855E-001	3.57430E+000	9	...........
	79	1.06667	8.21015E-001	9.09699E-005	0.00000E+000	7.46877E-005	5.39641E-002	8.21178E-001	3.57430E+000	9	...........
	80	1.08	8.24312E-001	9.09855E-005	0.00000E+000	7.50005E-005	5.39641E-002	8.24475E-001	3.57430E+000	9	...........
	81	1.09333	8.27547E-001	9.09084E-005	0.00000E+000	7.52310E-005	5.39641E-002	8.27698E-001	3.57430E+000	9	...........
	82	1.10667	8.30766E-001	9.08657E-005	0.00000E+000	7.54882E-005	5.39641E-002	8.30933E-001	3.57430E+000	9	...........
	83	1.12	8.33941E-001	9.09366E-005	0.00000E+000	7.58357E-005	5.39641E-002	8.34135E-001	3.57430E+000	9	...........
	84	1.13333	8.37112E-001	9.11689E-005	0.00000E+000	7.63186E-005	5.39641E-002	8.37283E-001	3.57430E+000	9	...........
	85	1.14667	8.40209E-001	9.09345E-005	0.00000E+000	7.64040E-005	5.39641E-002	8.40392E-001	3.57430E+000	9	...........
	86	1.16	8.43284E-001	9.09783E-005	0.00000E+000	7.67205E-005	5.39641E-002	8.43448E-001	3.57430E+000	9	...........
	87	1.17333	8.46349E-001	9.09480E-005	0.00000E+000	7.69738E-005	5.39641E-002	8.46498E-001	3.57430E+000	9	...........
	88	1.18667	8.49322E-001	9.08855E-005	0.00000E+000	7.71910E-005	5.39641E-002	8.49481E-001	3.57430E+000	9	...........
	89	1.2	8.52303E-001	9.12377E-005	0.00000E+000	7.77621E-005	5.39641E-002	8.52453E-001	3.57430E+000	9	...........
	90	1.21333	8.55279E-001	9.07605E-005	0.00000E+000	7.76255E-005	5.39641E-002	8.55436E-001	3.57430E+000	9	...........
	91	1.22667	8.58226E-001	9.11095E-005	0.00000E+000	7.81926E-005	5.39641E-002	8.58396E-001	3.57430E+000	9	...........
	92	1.24	8.61142E-001	9.12262E-005	0.00000E+000	7.85588E-005	5.39641E-002	8.61316E-001	3.57430E+000	9	...........
	93	1.25333	8.64012E-001	9.11470E-005	0.00000E+000	7.87521E-005	5.39641E-002	8.64191E-001	3.57430E+000	9	...........
	94	1.26667	8.66827E-001	9.10553E-005	0.00000E+000	7.89292E-005	5.39641E-002	8.67022E-001	3.57430E+000	9	...........
	95	1.28	8.69660E-001	9.11470E-005	0.00000E+000	7.92670E-005	5.39641E-002	8.69866E-001	3.57430E+000	9	...........
	96	1.29333	8.72451E-001	9.08324E-005	0.00000E+000	7.92468E-005	5.39641E-002	8.72641E-001	3.57430E+000	9	...........
	97	1.30667	8.75200E-001	9.10366E-005	0.00000E+000	7.96752E-005	5.39641E-002	8.75398E-001	3.57430E+000	9	...........
	98	1.32	8.77915E-001	9.09595E-005	0.00000E+000	7.98547E-005	5.39641E-002	8.78102E-001	3.57430E+000	9	...........
	99	1.33333	8.80601E-001	9.09053E-005	0.00000E+000	8.00513E-005	5.39641E-002	8.80804E-001	3.57430E+000	9	...........
	100	1.34667	8.83308E-001	9.12012E-005	0.00000E+000	8.05588E-005	5.39641E-002	8.83489E-001	3.57430E+000	9	...........
	101	1.36	8.85965E-001	9.11512E-005	0.00000E+000	8.07568E-005	5.39641E-002	8.86150E-001	3.57430E+000	9	...........
	102	1.37333	8.88575E-001	9.10616E-005	0.00000E+000	8.09151E-005	5.39641E-002	8.88745E-001	3.57430E+000	9	...........
	103	1.38667	8.91152E-001	9.10491E-005	0.00000E+000	8.11386E-005	5.39641E-002	8.91340E-001	3.57430E+000	9	...........
	104	1.4	8.93689E-001	9.09345E-005	0.00000E+000	8.12672E-005	5.39641E-002	8.93899E-001	3.57430E+000	9	...........
	105	1.41333	8.96235E-001	9.08386E-005	0.00000E+000	8.14128E-005	5.39641E-002	8.96437E-001	3.57430E+000	9	...........
	106	1.42667	8.98746E-001	9.07376E-005	0.00000E+000	8.15500E-005	5.39641E-002	8.98933E-001	3.57430E+000	9	...........
	107	1.44	9.01225E-001	9.09730E-005	0.00000E+000	8.19871E-005	5.39641E-002	9.01403E-001	3.57430E+000	9	...........
	108	1.45333	9.03629E-001	9.08084E-005	0.00000E+000	8.20571E-005	5.39641E-002	9.03847E-001	3.57430E+000	9	...........
	109	1.46667	9.06038E-001	9.10679E-005	0.00000E+000	8.25109E-005	5.39641E-002	9.06229E-001	3.57430E+000	9	...........
	110	1.48	9.08427E-001	9.08032E-005	0.00000E+000	8.24881E-005	5.39641E-002	9.08608E-001	3.57430E+000	9	...........
	111	1.49333	9.10811E-001	9.07501E-005	0.00000E+000	8.26561E-005	5.39641E-002	9.10965E-001	3.57430E+000	9	...........
	112	1.50667	9.13145E-001	9.09960E-005	0.00000E+000	8.30925E-005	5.39641E-002	9.13325E-001	3.57430E+000	9	...........
	113	1.52	9.15454E-001	9.08126E-005	0.00000E+000	8.31347E-005	5.39641E-002	9.15645E-001	3.57430E+000	9	...........
	114	1.53333	9.17719E-001	9.11720E-005	0.00000E+000	8.36703E-005	5.39641E-002	9.17939E-001	3.57430E+000	9	...........
	115	1.54667	9.20004E-001	9.12273E-005	0.00000E+000	8.39294E-005	5.39641E-002	9.20228E-001	3.57430E+000	9	...........
	116	1.56	9.22334E-001	9.09345E-005	0.00000E+000	8.38719E-005	5.39641E-002	9.22497E-001	3.57430E+000	9	...........
	117	1.57333	9.24559E-001	9.06771E-005	0.00000E+000	8.38364E-005	5.39641E-002	9.24719E-001	3.57430E+000	9	...........
	118	1.58667	9.26738E-001	9.08636E-005	0.00000E+000	8.42068E-005	5.39641E-002	9.26922E-001	3.57430E+000	9	...........
	119	1.6	9.28922E-001	9.11158E-005	0.00000E+000	8.46395E-005	5.39641E-002	9.29081E-001	3.57430E+000	9	...........
	120	1.61333	9.31066E-001	9.09793E-005	0.00000E+000	8.47077E-005	5.39641E-002	9.31231E-001	3.57430E+000	9	...........
	121	1.62667	9.33178E-001	9.07720E-005	0.00000E+000	8.47064E-005	5.39641E-002	9.33368E-001	3.57430E+000	9	...........
	122	1.64	9.35268E-001	9.09793E-005	0.00000E+000	8.50901E-005	5.39641E-002	9.35452E-001	3.57430E+000	9	...........
	123	1.65333	9.37355E-001	9.07657E-005	0.00000E+000	8.50797E-005	5.39641E-002	9.37567E-001	3.57430E+000	9	...........
	124	1.66667	9.39395E-001	9.09501E-005	0.00000E+000	8.54381E-005	5.39641E-002	9.39613E-001	3.57430E+000	9	...........
	125	1.68	9.41461E-001	9.10033E-005	0.00000E+000	8.56760E-005	5.39641E-002	9.41634E-001	3.57430E+000	9	...........
	126	1.69333	9.43456E-001	9.12877E-005	0.00000E+000	8.61260E-005	5.39641E-002	9.43643E-001	3.57430E+000	9	...........
	127	1.70667	9.45458E-001	9.10283E-005	0.00000E+000	8.60634E-005	5.39641E-002	9.45663E-001	3.57430E+000	9	...........
	128	1.72	9.47484E-001	9.10116E-005	0.00000E+000	8.62320E-005	5.39641E-002	9.47648E-001	3.57430E+000	9	...........
	129	1.73333	9.49401E-001	9.09064E-005	0.00000E+000	8.63066E-005	5.39641E-002	9.49578E-001	3.57430E+000	9	...........
	130	1.74667	9.51332E-001	9.12398E-005	0.00000E+000	8.67993E-005	5.39641E-002	9.51519E-001	3.57430E+000	9	...........
	131	1.76	9.53245E-001	9.11929E-005	0.00000E+000	8.69292E-005	5.39641E-002	9.53394E-001	3.57430E+000	9	...........
	132	1.77333	9.55133E-001	9.07959E-005	0.00000E+000	8.67222E-005	5.39641E-002	9.55303E-001	3.57430E+000	9	...........
	133	1.78667	9.56988E-001	9.10877E-005	0.00000E+000	8.71698E-005	5.39641E-002	9.57165E-001	3.57430E+000	9	...........
	134	1.8	9.58847E-001	9.11595E-005	0.00000E+000	8.74081E-005	5.39641E-002	9.59039E-001	3.57430E+000	9	...........
	135	1.81333	9.60670E-001	9.11606E-005	0.00000E+000	8.75753E-005	5.39641E-002	9.60870E-001	3.57430E+000	9	...........
	136	1.82667	9.62460E-001	9.10251E-005	0.00000E+000	8.76080E-005	5.39641E-002	9.62675E-001	3.57430E+000	9	...........
	137	1.84	9.64225E-001	9.09564E-005	0.00000E+000	8.77024E-005	5.39641E-002	9.64449E-001	3.57430E+000	9	...........
	138	1.85333	9.65978E-001	9.11856E-005	0.00000E+000	8.80833E-005	5.39641E-002	9.66189E-001	3.57430E+000	9	...........
	139	1.86667	9.67709E-001	9.08293E-005	0.00000E+000	8.78963E-005	5.39641E-002	9.67930E-001	3.57430E+000	9	...........
	140	1.88	9.69422E-001	9.08866E-005	0.00000E+000	8.81075E-005	5.39641E-002	9.69640E-001	3.57430E+000	9	...........
	141	1.89333	9.71143E-001	9.09783E-005	0.00000E+000	8.83529E-005	5.39641E-002	9.71374E-001	3.57430E+000	9	...........
	142	1.90667	9.72861E-001	9.09949E-005	0.00000E+000	8.85254E-005	5.39641E-002	9.73073E-001	3.57430E+000	9	...........
	143	1.92	9.74519E-001	9.08834E-005	0.00000E+000	8.85677E-005	5.39641E-002	9.74734E-001	3.57430E+000	9	...........
	144	1.93333	9.76180E-001	9.10397E-005	0.00000E+000	8.88711E-005	5.39641E-002	9.76384E-001	3.57337E+000	9	...........
	145	1.94667	9.77797E-001	9.11293E-005	0.00000E+000	8.91059E-005	5.39641E-002	9.78026E-001	3.57290E+000	9	...........
	146	1.96	9.79423E-001	9.09678E-005	0.00000E+000	8.90960E-005	5.39641E-002	9.79622E-001	3.57290E+000	9	...........
	147	1.97333	9.81020E-001	9.10158E-005	0.00000E+000	8.92883E-005	5.39641E-002	9.81210E-001	3.57290E+000	9	...........
	148	1.98667	9.82611E-001	9.07553E-005	0.00000E+000	8.91771E-005	5.39641E-002	9.82787E-001	3.57290E+000	9	...........
	149	2	9.84145E-001	9.08511E-005	0.00000E+000	8.94107E-005	5.39641E-002	9.84378E-001	3.57290E+000	9	...........
	150	2.01333	9.85704E-001	9.09491E-005	0.00000E+000	8.96489E-005	5.39641E-002	9.85925E-001	3.57290E+000	9	...........
	151	2.02667	9.87226E-001	9.08532E-005	0.00000E+000	8.96927E-005	5.39641E-002	9.87440E-001	3.57290E+000	9	...........
	152	2.04	9.88742E-001	9.08168E-005	0.00000E+000	8.97943E-005	5.39641E-002	9.88951E-001	3.57290E+000	9	...........
	153	2.05333	9.90219E-001	9.08866E-005	0.00000E+000	8.99976E-005	5.39641E-002	9.90421E-001	3.57290E+000	9	...........
	154	2.06667	9.91685E-001	9.10574E-005	0.00000E+000	9.03003E-005	5.39641E-002	9.91884E-001	3.57290E+000	9	...........
	155	2.08	9.93140E-001	9.11127E-005	0.00000E+000	9.04876E-005	5.39641E-002	9.93361E-001	3.57290E+000	9	...........
	156	2.09333	9.94560E-001	9.09314E-005	0.00000E+000	9.04367E-005	5.39641E-002	9.94785E-001	3.57290E+000	9	...........
	157	2.10667	9.96005E-001	9.12585E-005	0.00000E+000	9.08939E-005	5.39641E-002	9.96200E-001	3.57290E+000	9	...........
	158	2.12	9.97403E-001	9.09991E-005	0.00000E+000	9.07627E-005	5.39641E-002	9.97640E-001	3.57290E+000	9	...........
	159	2.13333	9.98818E-001	9.10845E-005	0.00000E+000	9.09769E-005	5.39641E-002	9.99044E-001	3.57290E+000	9	...........
	160	2.14	9.99856E-001	9.10022E-005	0.00000E+000	9.09891E-005	5.39641E-002	1.00008E+000	3.57290E+000	9	...........
STARTTIMEOFFSET	QUANT	4198.124	Start Time Offset (s)
