EXPLAIN
TAG	PWR800_CHARGE
TITLE	LABEL	PWR Cyclic Charge Discharge (Cell) - Charge Step	Test &Identifier
DATE	LABEL	10-7-2017	Date
TIME	LABEL	15:03:56	Time
NOTES	NOTES	3	&Notes...
	supercap test cell
	0.9mg
	6M KOH
PSTAT	PSTAT	IFC5000-01520	Potentiostat
CAPACITY	QUANT	1.00000E-003	Capacity (A-hr)
CELLTYPE	SELECTOR	1	&Cell Type
WORKINGCONNECTION	SELECTOR	0	&Working Lead
MAXCHARGETIME	VARIABLEANDUNITS	1.00000E+002	s	1.00000E+002	second(s)	Max &Charge Time
CHARGECURRENT	QUANT	9.00000E-005	&Charge Current (A) 
VOLTAGEFINISH	TWOPARAM	F	1.00000E-003	3.60000E+003	&Voltage Finish	 I (A) < 	Max Time(s)
SAMPLETIME	QUANT	1.00000E-002	Sa&mple Period (s)
CHARGESTOPAT1	MULTIPARAM	4	1.00000E+000	Charge Stop At &1	Voltage > Limit	V
CHARGESTOPAT2	MULTIPARAM	0	0.00000E+000	Charge Stop At &2	None	N/A
AESBHCSELECTOR	TOGGLE	F	Save Both Half Cells
IRCOMP	TOGGLE	F	IR &Measure
EOC	QUANT	0	Open Circuit (V)
SEQUENCER	TOGGLE	TRUE	Run as Sequence
PSTATMODEL	IQUANT	53	Pstat Model
PSTATSECTION	LABEL	IFC5000-01520	Pstat Section
PSTATSERIALNO	LABEL	01520	Pstat Serial Number
CTRLMODE	IQUANT	0	Control Mode
ELECTROMETER	IQUANT	1	RE=0 or CS=1
IESTAB	IQUANT	0	I/E Stability
CASPEED	IQUANT	4	Control Amp Speed
CONVENTION	IQUANT	1	Current Convention
ICHRANGE	IQUANT	2	Ich Range
ICHRANGEMODE	TOGGLE	T	Ich Auto Range
ICHOFFSETENABLE	TOGGLE	F	Ich Offset Enable
ICHOFFSET	QUANT	0	Ich Offset (V)
ICHFILTER	IQUANT	1	Ich Filter
VCHRANGE	IQUANT	2	Vch Range
VCHRANGEMODE	TOGGLE	T	Vch Auto Range
VCHOFFSETENABLE	TOGGLE	F	Vch Offset Enable
VCHOFFSET	QUANT	0	Vch Offset (V)
VCHFILTER	IQUANT	1	Vch Filter
IERANGELOWERLIMIT	IQUANT	9	I/E Range Lower Limit
IERANGEMODE	TOGGLE	F	I/E AutoRange
IERANGE	IQUANT	9	I/E Range
ACHSELECT	IQUANT	1	Ach Select
ACHRANGE	IQUANT	2	Ach Range
ACHOFFSETENABLE	TOGGLE	F	Ach Offset Enable
ACHOFFSET	QUANT	0	Ach Offset (V)
ACHFILTER	IQUANT	1	Ach Filter
CABLEID	IQUANT	14	Cable ID
DCCALDATE	LABEL	5-7-2017	DC Calibration Date
ACCALDATE	LABEL	12/3/2015	AC Calibration Date
FRAMEWORKVERSION	QUANT	7.01	Framework Version
INSTRUMENTVERSION	LABEL	4.00	Instrument Version
CURVE	TABLE	197
	Pt	T	Vf	Im	Vu	Pwr	Sig	Ach	Temp	IERange	Over
	#	s	V	A	V	W	V	V	deg C	#	bits
	0	0.013333	2.98267E-001	9.11835E-005	0.00000E+000	2.71971E-005	5.39641E-002	2.98306E-001	3.57150E+000	9	...........
	1	0.026667	3.16885E-001	9.12179E-005	0.00000E+000	2.89055E-005	5.39641E-002	3.16922E-001	3.57150E+000	9	...........
	2	0.04	3.34006E-001	9.13419E-005	0.00000E+000	3.05087E-005	5.39641E-002	3.34036E-001	3.57150E+000	9	...........
	3	0.053333	3.49921E-001	9.11220E-005	0.00000E+000	3.18855E-005	5.39641E-002	3.49955E-001	3.57150E+000	9	...........
	4	0.066667	3.64830E-001	9.11116E-005	0.00000E+000	3.32402E-005	5.39641E-002	3.64859E-001	3.57150E+000	9	...........
	5	0.08	3.78874E-001	9.13065E-005	0.00000E+000	3.45937E-005	5.39641E-002	3.78905E-001	3.57150E+000	9	...........
	6	0.093333	3.92177E-001	9.08449E-005	0.00000E+000	3.56272E-005	5.39641E-002	3.92208E-001	3.57150E+000	9	...........
	7	0.106667	4.04820E-001	9.11220E-005	0.00000E+000	3.68880E-005	5.39641E-002	4.04851E-001	3.57150E+000	9	...........
	8	0.12	4.16868E-001	9.11137E-005	0.00000E+000	3.79824E-005	5.39641E-002	4.16909E-001	3.57150E+000	9	...........
	9	0.133333	4.28405E-001	9.13544E-005	0.00000E+000	3.91367E-005	5.39641E-002	4.28450E-001	3.57150E+000	9	...........
	10	0.146667	4.39474E-001	9.11960E-005	0.00000E+000	4.00782E-005	5.39641E-002	4.39517E-001	3.57150E+000	9	...........
	11	0.16	4.50117E-001	9.09855E-005	0.00000E+000	4.09541E-005	5.39641E-002	4.50163E-001	3.57150E+000	9	...........
	12	0.173333	4.60366E-001	9.13460E-005	0.00000E+000	4.20526E-005	5.39641E-002	4.60413E-001	3.57150E+000	9	...........
	13	0.186667	4.70258E-001	9.09772E-005	0.00000E+000	4.27828E-005	5.39641E-002	4.70303E-001	3.57150E+000	9	...........
	14	0.2	4.79803E-001	9.12346E-005	0.00000E+000	4.37746E-005	5.39641E-002	4.79842E-001	3.57150E+000	9	...........
	15	0.213333	4.89051E-001	9.12304E-005	0.00000E+000	4.46163E-005	5.39641E-002	4.89089E-001	3.57150E+000	9	...........
	16	0.226667	4.97992E-001	9.10554E-005	0.00000E+000	4.53448E-005	5.39641E-002	4.98039E-001	3.57150E+000	9	...........
	17	0.24	5.06674E-001	9.09626E-005	0.00000E+000	4.60884E-005	5.39641E-002	5.06718E-001	3.57150E+000	9	...........
	18	0.253333	5.15101E-001	9.09876E-005	0.00000E+000	4.68678E-005	5.39641E-002	5.15148E-001	3.57150E+000	9	...........
	19	0.266667	5.23292E-001	9.08261E-005	0.00000E+000	4.75286E-005	5.39641E-002	5.23341E-001	3.57165E+000	9	...........
	20	0.28	5.31240E-001	9.11387E-005	0.00000E+000	4.84165E-005	5.39641E-002	5.31295E-001	3.57170E+000	9	...........
	21	0.293333	5.38949E-001	9.13481E-005	0.00000E+000	4.92320E-005	5.39641E-002	5.39054E-001	3.57170E+000	9	...........
	22	0.306667	5.46547E-001	9.08418E-005	0.00000E+000	4.96493E-005	5.39641E-002	5.46587E-001	3.57170E+000	9	...........
	23	0.32	5.53885E-001	9.11095E-005	0.00000E+000	5.04642E-005	5.39641E-002	5.53977E-001	3.57170E+000	9	...........
	24	0.333333	5.61066E-001	9.12471E-005	0.00000E+000	5.11956E-005	5.39641E-002	5.61156E-001	3.57170E+000	9	...........
	25	0.346667	5.68105E-001	9.11033E-005	0.00000E+000	5.17562E-005	5.39641E-002	5.68197E-001	3.57170E+000	9	...........
	26	0.36	5.74940E-001	9.13117E-005	0.00000E+000	5.24987E-005	5.39641E-002	5.75022E-001	3.57170E+000	9	...........
	27	0.373333	5.81619E-001	9.09793E-005	0.00000E+000	5.29153E-005	5.39641E-002	5.81688E-001	3.57170E+000	9	...........
	28	0.386667	5.88134E-001	9.13002E-005	0.00000E+000	5.36967E-005	5.39641E-002	5.88236E-001	3.57170E+000	9	...........
	29	0.4	5.94530E-001	9.10606E-005	0.00000E+000	5.41382E-005	5.39641E-002	5.94608E-001	3.57170E+000	9	...........
	30	0.413333	6.00762E-001	9.08584E-005	0.00000E+000	5.45843E-005	5.39641E-002	6.00870E-001	3.57170E+000	9	...........
	31	0.426667	6.06847E-001	9.12398E-005	0.00000E+000	5.53686E-005	5.39641E-002	6.06950E-001	3.57170E+000	9	...........
	32	0.44	6.12850E-001	9.13565E-005	0.00000E+000	5.59878E-005	5.39641E-002	6.12963E-001	3.57170E+000	9	...........
	33	0.453333	6.18751E-001	9.10439E-005	0.00000E+000	5.63335E-005	5.39641E-002	6.18784E-001	3.57170E+000	9	...........
	34	0.466667	6.24446E-001	9.11762E-005	0.00000E+000	5.69346E-005	5.39641E-002	6.24504E-001	3.57170E+000	9	...........
	35	0.48	6.30047E-001	9.13023E-005	0.00000E+000	5.75247E-005	5.39641E-002	6.30119E-001	3.57170E+000	9	...........
	36	0.493333	6.35544E-001	9.12460E-005	0.00000E+000	5.79908E-005	5.39641E-002	6.35604E-001	3.57170E+000	9	...........
	37	0.506667	6.40931E-001	9.11783E-005	0.00000E+000	5.84390E-005	5.39641E-002	6.41024E-001	3.57170E+000	9	...........
	38	0.52	6.46205E-001	9.10793E-005	0.00000E+000	5.88559E-005	5.39641E-002	6.46294E-001	3.57170E+000	9	...........
	39	0.533333	6.51413E-001	9.13658E-005	0.00000E+000	5.95169E-005	5.39641E-002	6.51501E-001	3.57170E+000	9	...........
	40	0.546667	6.56495E-001	9.12544E-005	0.00000E+000	5.99081E-005	5.39641E-002	6.56578E-001	3.57170E+000	9	...........
	41	0.56	6.61498E-001	9.11835E-005	0.00000E+000	6.03177E-005	5.39641E-002	6.61584E-001	3.57170E+000	9	...........
	42	0.573333	6.66416E-001	9.10012E-005	0.00000E+000	6.06447E-005	5.39641E-002	6.66529E-001	3.57170E+000	9	...........
	43	0.586667	6.71266E-001	9.12867E-005	0.00000E+000	6.12776E-005	5.39641E-002	6.71328E-001	3.57170E+000	9	...........
	44	0.6	6.75995E-001	9.11418E-005	0.00000E+000	6.16114E-005	5.39641E-002	6.76055E-001	3.57170E+000	9	...........
	45	0.613333	6.80649E-001	9.09918E-005	0.00000E+000	6.19335E-005	5.39641E-002	6.80704E-001	3.57170E+000	9	...........
	46	0.626667	6.85196E-001	9.11189E-005	0.00000E+000	6.24343E-005	5.39641E-002	6.85270E-001	3.57170E+000	9	...........
	47	0.64	6.89703E-001	9.12439E-005	0.00000E+000	6.29312E-005	5.39641E-002	6.89783E-001	3.57170E+000	9	...........
	48	0.653333	6.94157E-001	9.13856E-005	0.00000E+000	6.34360E-005	5.39641E-002	6.94223E-001	3.57170E+000	9	...........
	49	0.666667	6.98490E-001	9.12304E-005	0.00000E+000	6.37235E-005	5.39641E-002	6.98568E-001	3.57170E+000	9	...........
	50	0.68	7.02767E-001	9.13783E-005	0.00000E+000	6.42177E-005	5.39641E-002	7.02830E-001	3.57170E+000	9	...........
	51	0.693333	7.06980E-001	9.12939E-005	0.00000E+000	6.45430E-005	5.39641E-002	7.07031E-001	3.57170E+000	9	...........
	52	0.706667	7.11101E-001	9.10699E-005	0.00000E+000	6.47599E-005	5.39641E-002	7.11158E-001	3.57170E+000	9	...........
	53	0.72	7.15145E-001	9.10887E-005	0.00000E+000	6.51416E-005	5.39641E-002	7.15223E-001	3.57170E+000	9	...........
	54	0.733333	7.19213E-001	9.06917E-005	0.00000E+000	6.52267E-005	5.39641E-002	7.19238E-001	3.57170E+000	9	...........
	55	0.746667	7.23157E-001	9.11960E-005	0.00000E+000	6.59491E-005	5.39641E-002	7.23190E-001	3.57170E+000	9	...........
	56	0.76	7.27031E-001	9.13617E-005	0.00000E+000	6.64228E-005	5.39641E-002	7.27101E-001	3.57170E+000	9	...........
	57	0.773333	7.30839E-001	9.11637E-005	0.00000E+000	6.66260E-005	5.39641E-002	7.30948E-001	3.57170E+000	9	...........
	58	0.786667	7.34597E-001	9.16430E-005	0.00000E+000	6.73206E-005	5.39641E-002	7.34678E-001	3.57170E+000	9	...........
	59	0.8	7.38283E-001	9.09001E-005	0.00000E+000	6.71100E-005	5.39641E-002	7.38381E-001	3.57170E+000	9	...........
	60	0.813333	7.41979E-001	9.11606E-005	0.00000E+000	6.76393E-005	5.39641E-002	7.42075E-001	3.57170E+000	9	...........
	61	0.826667	7.45636E-001	9.11377E-005	0.00000E+000	6.79555E-005	5.39641E-002	7.45684E-001	3.57170E+000	9	...........
	62	0.84	7.49181E-001	9.12971E-005	0.00000E+000	6.83980E-005	5.39641E-002	7.49244E-001	3.57170E+000	9	...........
	63	0.853333	7.52701E-001	9.12179E-005	0.00000E+000	6.86598E-005	5.39641E-002	7.52751E-001	3.57170E+000	9	...........
	64	0.866667	7.56187E-001	9.11127E-005	0.00000E+000	6.88982E-005	5.39641E-002	7.56225E-001	3.57170E+000	9	...........
	65	0.88	7.59597E-001	9.11293E-005	0.00000E+000	6.92216E-005	5.39641E-002	7.59640E-001	3.57170E+000	9	...........
	66	0.893333	7.62977E-001	9.09220E-005	0.00000E+000	6.93714E-005	5.39641E-002	7.63004E-001	3.57170E+000	9	...........
	67	0.906667	7.66282E-001	9.10064E-005	0.00000E+000	6.97366E-005	5.39641E-002	7.66375E-001	3.57170E+000	9	...........
	68	0.92	7.69605E-001	9.12252E-005	0.00000E+000	7.02073E-005	5.39641E-002	7.69694E-001	3.57170E+000	9	...........
	69	0.933333	7.72847E-001	9.12221E-005	0.00000E+000	7.05007E-005	5.39641E-002	7.72937E-001	3.57170E+000	9	...........
	70	0.946667	7.76021E-001	9.11012E-005	0.00000E+000	7.06964E-005	5.39641E-002	7.76115E-001	3.57170E+000	9	...........
	71	0.96	7.79163E-001	9.12689E-005	0.00000E+000	7.11134E-005	5.39641E-002	7.79286E-001	3.57170E+000	9	...........
	72	0.97333	7.82302E-001	9.10220E-005	0.00000E+000	7.12067E-005	5.39641E-002	7.82412E-001	3.57170E+000	9	...........
	73	0.98667	7.85372E-001	9.11179E-005	0.00000E+000	7.15614E-005	5.39641E-002	7.85490E-001	3.57170E+000	9	...........
	74	1	7.88382E-001	9.13721E-005	0.00000E+000	7.20361E-005	5.39641E-002	7.88495E-001	3.57170E+000	9	...........
	75	1.01333	7.91343E-001	9.13533E-005	0.00000E+000	7.22918E-005	5.39641E-002	7.91465E-001	3.57170E+000	9	...........
	76	1.02667	7.94314E-001	9.12585E-005	0.00000E+000	7.24879E-005	5.39641E-002	7.94412E-001	3.57170E+000	9	...........
	77	1.04	7.97242E-001	9.13669E-005	0.00000E+000	7.28415E-005	5.39641E-002	7.97315E-001	3.57170E+000	9	...........
	78	1.05333	8.00128E-001	9.12325E-005	0.00000E+000	7.29977E-005	5.39641E-002	8.00197E-001	3.57170E+000	9	...........
	79	1.06667	8.02982E-001	9.11835E-005	0.00000E+000	7.32187E-005	5.39641E-002	8.03035E-001	3.57170E+000	9	...........
	80	1.08	8.05783E-001	9.10741E-005	0.00000E+000	7.33860E-005	5.39641E-002	8.05887E-001	3.57170E+000	9	...........
	81	1.09333	8.08570E-001	9.11668E-005	0.00000E+000	7.37148E-005	5.39641E-002	8.08665E-001	3.57170E+000	9	...........
	82	1.10667	8.11314E-001	9.12512E-005	0.00000E+000	7.40334E-005	5.39641E-002	8.11418E-001	3.57170E+000	9	...........
	83	1.12	8.14045E-001	9.13252E-005	0.00000E+000	7.43428E-005	5.39641E-002	8.14155E-001	3.57170E+000	9	...........
	84	1.13333	8.16752E-001	9.11543E-005	0.00000E+000	7.44505E-005	5.39641E-002	8.16858E-001	3.57170E+000	9	...........
	85	1.14667	8.19432E-001	9.12137E-005	0.00000E+000	7.47434E-005	5.39641E-002	8.19551E-001	3.57170E+000	9	...........
	86	1.16	8.22090E-001	9.12856E-005	0.00000E+000	7.50450E-005	5.39641E-002	8.22188E-001	3.57170E+000	9	...........
	87	1.17333	8.24714E-001	9.11845E-005	0.00000E+000	7.52011E-005	5.39641E-002	8.24855E-001	3.57170E+000	9	...........
	88	1.18667	8.27323E-001	9.11491E-005	0.00000E+000	7.54098E-005	5.39641E-002	8.27407E-001	3.57170E+000	9	...........
	89	1.2	8.29846E-001	9.11627E-005	0.00000E+000	7.56509E-005	5.39641E-002	8.29973E-001	3.57170E+000	9	...........
	90	1.21333	8.32367E-001	9.15992E-005	0.00000E+000	7.62441E-005	5.39641E-002	8.32520E-001	3.57170E+000	9	...........
	91	1.22667	8.34864E-001	9.14284E-005	0.00000E+000	7.63302E-005	5.39641E-002	8.35032E-001	3.57170E+000	9	...........
	92	1.24	8.37337E-001	9.11241E-005	0.00000E+000	7.63016E-005	5.39641E-002	8.37476E-001	3.57170E+000	9	...........
	93	1.25333	8.39772E-001	9.14325E-005	0.00000E+000	7.67824E-005	5.39641E-002	8.39899E-001	3.57170E+000	9	...........
	94	1.26667	8.42189E-001	9.12429E-005	0.00000E+000	7.68438E-005	5.39641E-002	8.42346E-001	3.57230E+000	9	...........
	95	1.28	8.44644E-001	9.11095E-005	0.00000E+000	7.69551E-005	5.39641E-002	8.44782E-001	3.57250E+000	9	...........
	96	1.29333	8.47001E-001	9.13002E-005	0.00000E+000	7.73313E-005	5.39641E-002	8.47137E-001	3.57250E+000	9	...........
	97	1.30667	8.49364E-001	9.11648E-005	0.00000E+000	7.74321E-005	5.39641E-002	8.49487E-001	3.57250E+000	9	...........
	98	1.32	8.51679E-001	9.11074E-005	0.00000E+000	7.75943E-005	5.39641E-002	8.51823E-001	3.57250E+000	9	...........
	99	1.33333	8.53962E-001	9.13377E-005	0.00000E+000	7.79989E-005	5.39641E-002	8.54098E-001	3.57250E+000	9	...........
	100	1.34667	8.56237E-001	9.10449E-005	0.00000E+000	7.79560E-005	5.39641E-002	8.56366E-001	3.57250E+000	9	...........
	101	1.36	8.58494E-001	9.13210E-005	0.00000E+000	7.83985E-005	5.39641E-002	8.58632E-001	3.57250E+000	9	...........
	102	1.37333	8.60748E-001	9.13992E-005	0.00000E+000	7.86717E-005	5.39641E-002	8.60877E-001	3.57250E+000	9	...........
	103	1.38667	8.62954E-001	9.12762E-005	0.00000E+000	7.87672E-005	5.39641E-002	8.63096E-001	3.57250E+000	9	...........
	104	1.4	8.65121E-001	9.11762E-005	0.00000E+000	7.88785E-005	5.39641E-002	8.65269E-001	3.57250E+000	9	...........
	105	1.41333	8.67287E-001	9.11679E-005	0.00000E+000	7.90687E-005	5.39641E-002	8.67446E-001	3.57250E+000	9	...........
	106	1.42667	8.69443E-001	9.12200E-005	0.00000E+000	7.93106E-005	5.39641E-002	8.69591E-001	3.57250E+000	9	...........
	107	1.44	8.71584E-001	9.11168E-005	0.00000E+000	7.94159E-005	5.39641E-002	8.71724E-001	3.57250E+000	9	...........
	108	1.45333	8.73684E-001	9.13242E-005	0.00000E+000	7.97885E-005	5.39641E-002	8.73813E-001	3.57250E+000	9	...........
	109	1.46667	8.75775E-001	9.14586E-005	0.00000E+000	8.00971E-005	5.39641E-002	8.75922E-001	3.57250E+000	9	...........
	110	1.48	8.77851E-001	9.12742E-005	0.00000E+000	8.01251E-005	5.39641E-002	8.77997E-001	3.57250E+000	9	...........
	111	1.49333	8.79878E-001	9.13658E-005	0.00000E+000	8.03908E-005	5.39641E-002	8.80046E-001	3.57250E+000	9	...........
	112	1.50667	8.81889E-001	9.12377E-005	0.00000E+000	8.04615E-005	5.39641E-002	8.82072E-001	3.57250E+000	9	...........
	113	1.52	8.83921E-001	9.10699E-005	0.00000E+000	8.04986E-005	5.39641E-002	8.84066E-001	3.57250E+000	9	...........
	114	1.53333	8.85890E-001	9.11356E-005	0.00000E+000	8.07361E-005	5.39641E-002	8.86057E-001	3.57250E+000	9	...........
	115	1.54667	8.87860E-001	9.13315E-005	0.00000E+000	8.10895E-005	5.39641E-002	8.88019E-001	3.57250E+000	9	...........
	116	1.56	8.89804E-001	9.11752E-005	0.00000E+000	8.11280E-005	5.39641E-002	8.89952E-001	3.57250E+000	9	...........
	117	1.57333	8.91746E-001	9.11887E-005	0.00000E+000	8.13172E-005	5.39641E-002	8.91891E-001	3.57250E+000	9	...........
	118	1.58667	8.93647E-001	9.09949E-005	0.00000E+000	8.13173E-005	5.39641E-002	8.93783E-001	3.57250E+000	9	...........
	119	1.6	8.95530E-001	9.12939E-005	0.00000E+000	8.17565E-005	5.39641E-002	8.95729E-001	3.57250E+000	9	...........
	120	1.61333	8.97433E-001	9.10949E-005	0.00000E+000	8.17516E-005	5.39641E-002	8.97575E-001	3.57250E+000	9	...........
	121	1.62667	8.99284E-001	9.13585E-005	0.00000E+000	8.21573E-005	5.39641E-002	8.99432E-001	3.57250E+000	9	...........
	122	1.64	9.01131E-001	9.12356E-005	0.00000E+000	8.22152E-005	5.39641E-002	9.01270E-001	3.57250E+000	9	...........
	123	1.65333	9.02953E-001	9.13075E-005	0.00000E+000	8.24463E-005	5.39641E-002	9.03070E-001	3.57250E+000	9	...........
	124	1.66667	9.04756E-001	9.11679E-005	0.00000E+000	8.24847E-005	5.39641E-002	9.04879E-001	3.57250E+000	9	...........
	125	1.68	9.06534E-001	9.11908E-005	0.00000E+000	8.26676E-005	5.39641E-002	9.06665E-001	3.57250E+000	9	...........
	126	1.69333	9.08341E-001	9.11366E-005	0.00000E+000	8.27831E-005	5.39641E-002	9.08467E-001	3.57250E+000	9	...........
	127	1.70667	9.10065E-001	9.12398E-005	0.00000E+000	8.30341E-005	5.39641E-002	9.10198E-001	3.57250E+000	9	...........
	128	1.72	9.11797E-001	9.12564E-005	0.00000E+000	8.32074E-005	5.39641E-002	9.11940E-001	3.57250E+000	9	...........
	129	1.73333	9.13504E-001	9.10606E-005	0.00000E+000	8.31842E-005	5.39641E-002	9.13642E-001	3.57250E+000	9	...........
	130	1.74667	9.15213E-001	9.14742E-005	0.00000E+000	8.37184E-005	5.39641E-002	9.15359E-001	3.57250E+000	9	...........
	131	1.76	9.16863E-001	9.11262E-005	0.00000E+000	8.35502E-005	5.39641E-002	9.17029E-001	3.57250E+000	9	...........
	132	1.77333	9.18546E-001	9.12762E-005	0.00000E+000	8.38414E-005	5.39641E-002	9.18714E-001	3.57250E+000	9	...........
	133	1.78667	9.20208E-001	9.12596E-005	0.00000E+000	8.39778E-005	5.39641E-002	9.20370E-001	3.57250E+000	9	...........
	134	1.8	9.21896E-001	9.12606E-005	0.00000E+000	8.41328E-005	5.39641E-002	9.22020E-001	3.57250E+000	9	...........
	135	1.81333	9.23493E-001	9.11689E-005	0.00000E+000	8.41938E-005	5.39641E-002	9.23637E-001	3.57250E+000	9	...........
	136	1.82667	9.25122E-001	9.11668E-005	0.00000E+000	8.43404E-005	5.39641E-002	9.25268E-001	3.57250E+000	9	...........
	137	1.84	9.26713E-001	9.12877E-005	0.00000E+000	8.45975E-005	5.39641E-002	9.26854E-001	3.57250E+000	9	...........
	138	1.85333	9.28307E-001	9.12460E-005	0.00000E+000	8.47043E-005	5.39641E-002	9.28430E-001	3.57250E+000	9	...........
	139	1.86667	9.29841E-001	9.13492E-005	0.00000E+000	8.49402E-005	5.39641E-002	9.29970E-001	3.57250E+000	9	...........
	140	1.88	9.31377E-001	9.10772E-005	0.00000E+000	8.48272E-005	5.39641E-002	9.31497E-001	3.57250E+000	9	...........
	141	1.89333	9.32907E-001	9.10918E-005	0.00000E+000	8.49802E-005	5.39641E-002	9.33048E-001	3.57250E+000	9	...........
	142	1.90667	9.34446E-001	9.12095E-005	0.00000E+000	8.52304E-005	5.39641E-002	9.34580E-001	3.57250E+000	9	...........
	143	1.92	9.35970E-001	9.15211E-005	0.00000E+000	8.56610E-005	5.39641E-002	9.36127E-001	3.57250E+000	9	...........
	144	1.93333	9.37469E-001	9.10710E-005	0.00000E+000	8.53762E-005	5.39641E-002	9.37606E-001	3.57250E+000	9	...........
	145	1.94667	9.38975E-001	9.13273E-005	0.00000E+000	8.57540E-005	5.39641E-002	9.39108E-001	3.57250E+000	9	...........
	146	1.96	9.40440E-001	9.11439E-005	0.00000E+000	8.57154E-005	5.39641E-002	9.40590E-001	3.57250E+000	9	...........
	147	1.97333	9.41887E-001	9.14377E-005	0.00000E+000	8.61240E-005	5.39641E-002	9.42038E-001	3.57250E+000	9	...........
	148	1.98667	9.43330E-001	9.11043E-005	0.00000E+000	8.59415E-005	5.39641E-002	9.43505E-001	3.57250E+000	9	...........
	149	2	9.44754E-001	9.11481E-005	0.00000E+000	8.61125E-005	5.39641E-002	9.44916E-001	3.57250E+000	9	...........
	150	2.01333	9.46189E-001	9.12721E-005	0.00000E+000	8.63606E-005	5.39641E-002	9.46338E-001	3.57250E+000	9	...........
	151	2.02667	9.47640E-001	9.12304E-005	0.00000E+000	8.64536E-005	5.39641E-002	9.47774E-001	3.57250E+000	9	...........
	152	2.04	9.49028E-001	9.11970E-005	0.00000E+000	8.65486E-005	5.39641E-002	9.49164E-001	3.57250E+000	9	...........
	153	2.05333	9.50433E-001	9.12106E-005	0.00000E+000	8.66895E-005	5.39641E-002	9.50563E-001	3.57250E+000	9	...........
	154	2.06667	9.51809E-001	9.10439E-005	0.00000E+000	8.66564E-005	5.39641E-002	9.51966E-001	3.57250E+000	9	...........
	155	2.08	9.53185E-001	9.10772E-005	0.00000E+000	8.68135E-005	5.39641E-002	9.53310E-001	3.57250E+000	9	...........
	156	2.09333	9.54518E-001	9.12054E-005	0.00000E+000	8.70572E-005	5.39641E-002	9.54659E-001	3.57250E+000	9	...........
	157	2.10667	9.55870E-001	9.12127E-005	0.00000E+000	8.71874E-005	5.39641E-002	9.55990E-001	3.57250E+000	9	...........
	158	2.12	9.57181E-001	9.11137E-005	0.00000E+000	8.72123E-005	5.39641E-002	9.57319E-001	3.57250E+000	9	...........
	159	2.13333	9.58497E-001	9.12606E-005	0.00000E+000	8.74730E-005	5.39641E-002	9.58671E-001	3.57250E+000	9	...........
	160	2.14667	9.59792E-001	9.12335E-005	0.00000E+000	8.75652E-005	5.39641E-002	9.59970E-001	3.57250E+000	9	...........
	161	2.16	9.61074E-001	9.11658E-005	0.00000E+000	8.76171E-005	5.39641E-002	9.61228E-001	3.57250E+000	9	...........
	162	2.17333	9.62358E-001	9.11272E-005	0.00000E+000	8.76971E-005	5.39641E-002	9.62506E-001	3.57250E+000	9	...........
	163	2.18667	9.63619E-001	9.09574E-005	0.00000E+000	8.76483E-005	5.39641E-002	9.63779E-001	3.57250E+000	9	...........
	164	2.2	9.64886E-001	9.10376E-005	0.00000E+000	8.78409E-005	5.39641E-002	9.65040E-001	3.57250E+000	9	...........
	165	2.21333	9.66141E-001	9.13481E-005	0.00000E+000	8.82552E-005	5.39641E-002	9.66305E-001	3.57250E+000	9	...........
	166	2.22667	9.67365E-001	9.13627E-005	0.00000E+000	8.83811E-005	5.39641E-002	9.67523E-001	3.57250E+000	9	...........
	167	2.24	9.68603E-001	9.09970E-005	0.00000E+000	8.81400E-005	5.39641E-002	9.68750E-001	3.57250E+000	9	...........
	168	2.25333	9.69807E-001	9.11960E-005	0.00000E+000	8.84426E-005	5.39641E-002	9.69998E-001	3.57250E+000	9	...........
	169	2.26667	9.71019E-001	9.12023E-005	0.00000E+000	8.85591E-005	5.39641E-002	9.71203E-001	3.57152E+000	9	...........
	170	2.28	9.72227E-001	9.11095E-005	0.00000E+000	8.85791E-005	5.39641E-002	9.72393E-001	3.57120E+000	9	...........
	171	2.29333	9.73449E-001	9.10783E-005	0.00000E+000	8.86600E-005	5.39641E-002	9.73591E-001	3.57120E+000	9	...........
	172	2.30667	9.74605E-001	9.12742E-005	0.00000E+000	8.89563E-005	5.39641E-002	9.74745E-001	3.57120E+000	9	...........
	173	2.32	9.75766E-001	9.11783E-005	0.00000E+000	8.89687E-005	5.39641E-002	9.75900E-001	3.57120E+000	9	...........
	174	2.33333	9.76926E-001	9.12491E-005	0.00000E+000	8.91437E-005	5.39641E-002	9.77072E-001	3.57120E+000	9	...........
	175	2.34667	9.78080E-001	9.13137E-005	0.00000E+000	8.93122E-005	5.39641E-002	9.78244E-001	3.57120E+000	9	...........
	176	2.36	9.79245E-001	9.10626E-005	0.00000E+000	8.91726E-005	5.39641E-002	9.79394E-001	3.57120E+000	9	...........
	177	2.37333	9.80375E-001	9.11429E-005	0.00000E+000	8.93542E-005	5.39641E-002	9.80515E-001	3.57120E+000	9	...........
	178	2.38667	9.81509E-001	9.12366E-005	0.00000E+000	8.95496E-005	5.39641E-002	9.81646E-001	3.57120E+000	9	...........
	179	2.4	9.82610E-001	9.11366E-005	0.00000E+000	8.95517E-005	5.39641E-002	9.82759E-001	3.57120E+000	9	...........
	180	2.41333	9.83694E-001	9.11835E-005	0.00000E+000	8.96966E-005	5.39641E-002	9.83842E-001	3.57120E+000	9	...........
	181	2.42667	9.84804E-001	9.13262E-005	0.00000E+000	8.99385E-005	5.39641E-002	9.84975E-001	3.57120E+000	9	...........
	182	2.44	9.85903E-001	9.11314E-005	0.00000E+000	8.98468E-005	5.39641E-002	9.86055E-001	3.57120E+000	9	...........
	183	2.45333	9.86969E-001	9.13096E-005	0.00000E+000	9.01197E-005	5.39641E-002	9.87145E-001	3.57120E+000	9	...........
	184	2.46667	9.88038E-001	9.13523E-005	0.00000E+000	9.02595E-005	5.39641E-002	9.88206E-001	3.57120E+000	9	...........
	185	2.48	9.89094E-001	9.15377E-005	0.00000E+000	9.05395E-005	5.39641E-002	9.89266E-001	3.57120E+000	9	...........
	186	2.49333	9.90149E-001	9.13127E-005	0.00000E+000	9.04131E-005	5.39641E-002	9.90292E-001	3.57120E+000	9	...........
	187	2.50667	9.91169E-001	9.12929E-005	0.00000E+000	9.04867E-005	5.39641E-002	9.91319E-001	3.57120E+000	9	...........
	188	2.52	9.92207E-001	9.10814E-005	0.00000E+000	9.03716E-005	5.39641E-002	9.92365E-001	3.57120E+000	9	...........
	189	2.53333	9.93229E-001	9.13658E-005	0.00000E+000	9.07472E-005	5.39641E-002	9.93371E-001	3.57120E+000	9	...........
	190	2.54667	9.94243E-001	9.15242E-005	0.00000E+000	9.09973E-005	5.39641E-002	9.94404E-001	3.57120E+000	9	...........
	191	2.56	9.95259E-001	9.11491E-005	0.00000E+000	9.07170E-005	5.39641E-002	9.95395E-001	3.57120E+000	9	...........
	192	2.57333	9.96262E-001	9.10929E-005	0.00000E+000	9.07524E-005	5.39641E-002	9.96400E-001	3.57120E+000	9	...........
	193	2.58667	9.97235E-001	9.12679E-005	0.00000E+000	9.10155E-005	5.39641E-002	9.97417E-001	3.57120E+000	9	...........
	194	2.6	9.98263E-001	9.09116E-005	0.00000E+000	9.07537E-005	5.39641E-002	9.98412E-001	3.57120E+000	9	...........
	195	2.61333	9.99261E-001	9.15492E-005	0.00000E+000	9.14815E-005	5.39641E-002	9.99397E-001	3.57120E+000	9	...........
	196	2.61833	9.99903E-001	9.16461E-005	0.00000E+000	9.16372E-005	5.39641E-002	1.00001E+000	3.57120E+000	9	...........
STARTTIMEOFFSET	QUANT	237.3	Start Time Offset (s)
