EXPLAIN
TAG	PWR800_CHARGE
TITLE	LABEL	PWR Cyclic Charge Discharge (Cell) - Charge Step	Test &Identifier
DATE	LABEL	10-7-2017	Date
TIME	LABEL	16:05:00	Time
NOTES	NOTES	3	&Notes...
	supercap test cell
	0.9mg
	6M KOH
PSTAT	PSTAT	IFC5000-01520	Potentiostat
CAPACITY	QUANT	1.00000E-003	Capacity (A-hr)
CELLTYPE	SELECTOR	1	&Cell Type
WORKINGCONNECTION	SELECTOR	0	&Working Lead
MAXCHARGETIME	VARIABLEANDUNITS	1.00000E+002	s	1.00000E+002	second(s)	Max &Charge Time
CHARGECURRENT	QUANT	9.00000E-005	&Charge Current (A) 
VOLTAGEFINISH	TWOPARAM	F	1.00000E-003	3.60000E+003	&Voltage Finish	 I (A) < 	Max Time(s)
SAMPLETIME	QUANT	1.00000E-002	Sa&mple Period (s)
CHARGESTOPAT1	MULTIPARAM	4	1.00000E+000	Charge Stop At &1	Voltage > Limit	V
CHARGESTOPAT2	MULTIPARAM	0	0.00000E+000	Charge Stop At &2	None	N/A
AESBHCSELECTOR	TOGGLE	F	Save Both Half Cells
IRCOMP	TOGGLE	F	IR &Measure
EOC	QUANT	0	Open Circuit (V)
SEQUENCER	TOGGLE	TRUE	Run as Sequence
PSTATMODEL	IQUANT	53	Pstat Model
PSTATSECTION	LABEL	IFC5000-01520	Pstat Section
PSTATSERIALNO	LABEL	01520	Pstat Serial Number
CTRLMODE	IQUANT	0	Control Mode
ELECTROMETER	IQUANT	1	RE=0 or CS=1
IESTAB	IQUANT	0	I/E Stability
CASPEED	IQUANT	4	Control Amp Speed
CONVENTION	IQUANT	1	Current Convention
ICHRANGE	IQUANT	2	Ich Range
ICHRANGEMODE	TOGGLE	T	Ich Auto Range
ICHOFFSETENABLE	TOGGLE	F	Ich Offset Enable
ICHOFFSET	QUANT	0	Ich Offset (V)
ICHFILTER	IQUANT	1	Ich Filter
VCHRANGE	IQUANT	2	Vch Range
VCHRANGEMODE	TOGGLE	T	Vch Auto Range
VCHOFFSETENABLE	TOGGLE	F	Vch Offset Enable
VCHOFFSET	QUANT	0	Vch Offset (V)
VCHFILTER	IQUANT	1	Vch Filter
IERANGELOWERLIMIT	IQUANT	9	I/E Range Lower Limit
IERANGEMODE	TOGGLE	F	I/E AutoRange
IERANGE	IQUANT	9	I/E Range
ACHSELECT	IQUANT	1	Ach Select
ACHRANGE	IQUANT	2	Ach Range
ACHOFFSETENABLE	TOGGLE	F	Ach Offset Enable
ACHOFFSET	QUANT	0	Ach Offset (V)
ACHFILTER	IQUANT	1	Ach Filter
CABLEID	IQUANT	14	Cable ID
DCCALDATE	LABEL	5-7-2017	DC Calibration Date
ACCALDATE	LABEL	12/3/2015	AC Calibration Date
FRAMEWORKVERSION	QUANT	7.01	Framework Version
INSTRUMENTVERSION	LABEL	4.00	Instrument Version
CURVE	TABLE	164
	Pt	T	Vf	Im	Vu	Pwr	Sig	Ach	Temp	IERange	Over
	#	s	V	A	V	W	V	V	deg C	#	bits
	0	0.013333	2.67856E-001	9.07928E-005	0.00000E+000	2.43194E-005	5.39641E-002	2.67907E-001	3.57380E+000	9	...........
	1	0.026667	2.87583E-001	9.08272E-005	0.00000E+000	2.61203E-005	5.39641E-002	2.87625E-001	3.57380E+000	9	...........
	2	0.04	3.06074E-001	9.09407E-005	0.00000E+000	2.78346E-005	5.39641E-002	3.06118E-001	3.57380E+000	9	...........
	3	0.053333	3.23508E-001	9.11814E-005	0.00000E+000	2.94979E-005	5.39641E-002	3.23551E-001	3.57380E+000	9	...........
	4	0.066667	3.39992E-001	9.09803E-005	0.00000E+000	3.09326E-005	5.39641E-002	3.40036E-001	3.57380E+000	9	...........
	5	0.08	3.55626E-001	9.09105E-005	0.00000E+000	3.23301E-005	5.39641E-002	3.55669E-001	3.57380E+000	9	...........
	6	0.093333	3.70480E-001	9.10668E-005	0.00000E+000	3.37385E-005	5.39641E-002	3.70520E-001	3.57380E+000	9	...........
	7	0.106667	3.84636E-001	9.08470E-005	0.00000E+000	3.49431E-005	5.39641E-002	3.84682E-001	3.57380E+000	9	...........
	8	0.12	3.98146E-001	9.08980E-005	0.00000E+000	3.61907E-005	5.39641E-002	3.98194E-001	3.57380E+000	9	...........
	9	0.133333	4.11059E-001	9.10501E-005	0.00000E+000	3.74270E-005	5.39641E-002	4.11114E-001	3.57380E+000	9	...........
	10	0.146667	4.23418E-001	9.08334E-005	0.00000E+000	3.84605E-005	5.39641E-002	4.23472E-001	3.57380E+000	9	...........
	11	0.16	4.35274E-001	9.10679E-005	0.00000E+000	3.96394E-005	5.39641E-002	4.35331E-001	3.57380E+000	9	...........
	12	0.173333	4.46663E-001	9.09814E-005	0.00000E+000	4.06380E-005	5.39641E-002	4.46723E-001	3.57380E+000	9	...........
	13	0.186667	4.57632E-001	9.10158E-005	0.00000E+000	4.16517E-005	5.39641E-002	4.57687E-001	3.57380E+000	9	...........
	14	0.2	4.68202E-001	9.11168E-005	0.00000E+000	4.26611E-005	5.39641E-002	4.68265E-001	3.57380E+000	9	...........
	15	0.213333	4.78404E-001	9.09741E-005	0.00000E+000	4.35224E-005	5.39641E-002	4.78468E-001	3.57380E+000	9	...........
	16	0.226667	4.88252E-001	9.10491E-005	0.00000E+000	4.44549E-005	5.39641E-002	4.88325E-001	3.57380E+000	9	...........
	17	0.24	4.97779E-001	9.07980E-005	0.00000E+000	4.51973E-005	5.39641E-002	4.97852E-001	3.57380E+000	9	...........
	18	0.253333	5.06986E-001	9.08730E-005	0.00000E+000	4.60714E-005	5.39641E-002	5.07054E-001	3.57380E+000	9	...........
	19	0.266667	5.15899E-001	9.11523E-005	0.00000E+000	4.70254E-005	5.39641E-002	5.15972E-001	3.57380E+000	9	...........
	20	0.28	5.24562E-001	9.10272E-005	0.00000E+000	4.77494E-005	5.39641E-002	5.24640E-001	3.57346E+000	9	...........
	21	0.293333	5.32926E-001	9.09074E-005	0.00000E+000	4.84469E-005	5.39641E-002	5.33014E-001	3.57290E+000	9	...........
	22	0.306667	5.41038E-001	9.09293E-005	0.00000E+000	4.91962E-005	5.39641E-002	5.41206E-001	3.57290E+000	9	...........
	23	0.32	5.49021E-001	9.09751E-005	0.00000E+000	4.99472E-005	5.39641E-002	5.49116E-001	3.57290E+000	9	...........
	24	0.333333	5.56732E-001	9.10981E-005	0.00000E+000	5.07172E-005	5.39641E-002	5.56876E-001	3.57290E+000	9	...........
	25	0.346667	5.64300E-001	9.09897E-005	0.00000E+000	5.13455E-005	5.39641E-002	5.64441E-001	3.57290E+000	9	...........
	26	0.36	5.71665E-001	9.09251E-005	0.00000E+000	5.19787E-005	5.39641E-002	5.71781E-001	3.57290E+000	9	...........
	27	0.373333	5.78802E-001	9.11106E-005	0.00000E+000	5.27349E-005	5.39641E-002	5.78937E-001	3.57290E+000	9	...........
	28	0.386667	5.85812E-001	9.10043E-005	0.00000E+000	5.33114E-005	5.39641E-002	5.85918E-001	3.57290E+000	9	...........
	29	0.4	5.92664E-001	9.08939E-005	0.00000E+000	5.38695E-005	5.39641E-002	5.92777E-001	3.57290E+000	9	...........
	30	0.413333	5.99344E-001	9.08824E-005	0.00000E+000	5.44698E-005	5.39641E-002	5.99448E-001	3.57290E+000	9	...........
	31	0.426667	6.05820E-001	9.09439E-005	0.00000E+000	5.50956E-005	5.39641E-002	6.05962E-001	3.57290E+000	9	...........
	32	0.44	6.12190E-001	9.10564E-005	0.00000E+000	5.57438E-005	5.39641E-002	6.12322E-001	3.57290E+000	9	...........
	33	0.453333	6.18473E-001	9.09574E-005	0.00000E+000	5.62547E-005	5.39641E-002	6.18581E-001	3.57290E+000	9	...........
	34	0.466667	6.24569E-001	9.09824E-005	0.00000E+000	5.68248E-005	5.39641E-002	6.24669E-001	3.57290E+000	9	...........
	35	0.48	6.30546E-001	9.10491E-005	0.00000E+000	5.74106E-005	5.39641E-002	6.30673E-001	3.57290E+000	9	...........
	36	0.493333	6.36397E-001	9.08678E-005	0.00000E+000	5.78280E-005	5.39641E-002	6.36528E-001	3.57290E+000	9	...........
	37	0.506667	6.42189E-001	9.09522E-005	0.00000E+000	5.84085E-005	5.39641E-002	6.42298E-001	3.57290E+000	9	...........
	38	0.52	6.47815E-001	9.11189E-005	0.00000E+000	5.90282E-005	5.39641E-002	6.47927E-001	3.57290E+000	9	...........
	39	0.533333	6.53352E-001	9.08584E-005	0.00000E+000	5.93625E-005	5.39641E-002	6.53474E-001	3.57290E+000	9	...........
	40	0.546667	6.58799E-001	9.09345E-005	0.00000E+000	5.99075E-005	5.39641E-002	6.58911E-001	3.57290E+000	9	...........
	41	0.56	6.64131E-001	9.11272E-005	0.00000E+000	6.05204E-005	5.39641E-002	6.64293E-001	3.57290E+000	9	...........
	42	0.573333	6.69423E-001	9.11189E-005	0.00000E+000	6.09971E-005	5.39641E-002	6.69542E-001	3.57290E+000	9	...........
	43	0.586667	6.74564E-001	9.10647E-005	0.00000E+000	6.14290E-005	5.39641E-002	6.74682E-001	3.57290E+000	9	...........
	44	0.6	6.79644E-001	9.09835E-005	0.00000E+000	6.18364E-005	5.39641E-002	6.79754E-001	3.57290E+000	9	...........
	45	0.613333	6.84629E-001	9.14596E-005	0.00000E+000	6.26159E-005	5.39641E-002	6.84745E-001	3.57290E+000	9	...........
	46	0.626667	6.89530E-001	9.08907E-005	0.00000E+000	6.26719E-005	5.39641E-002	6.89658E-001	3.57290E+000	9	...........
	47	0.64	6.94381E-001	9.11741E-005	0.00000E+000	6.33095E-005	5.39641E-002	6.94475E-001	3.57290E+000	9	...........
	48	0.653333	6.99129E-001	9.13315E-005	0.00000E+000	6.38524E-005	5.39641E-002	6.99225E-001	3.57290E+000	9	...........
	49	0.666667	7.03818E-001	9.09908E-005	0.00000E+000	6.40409E-005	5.39641E-002	7.03905E-001	3.57290E+000	9	...........
	50	0.68	7.08435E-001	9.10564E-005	0.00000E+000	6.45075E-005	5.39641E-002	7.08520E-001	3.57290E+000	9	...........
	51	0.693333	7.12972E-001	9.09991E-005	0.00000E+000	6.48798E-005	5.39641E-002	7.13060E-001	3.57290E+000	9	...........
	52	0.706667	7.17485E-001	9.10824E-005	0.00000E+000	6.53503E-005	5.39641E-002	7.17561E-001	3.57290E+000	9	...........
	53	0.72	7.21942E-001	9.10095E-005	0.00000E+000	6.57036E-005	5.39641E-002	7.22021E-001	3.57290E+000	9	...........
	54	0.733333	7.26295E-001	9.10178E-005	0.00000E+000	6.61058E-005	5.39641E-002	7.26386E-001	3.57290E+000	9	...........
	55	0.746667	7.30599E-001	9.10408E-005	0.00000E+000	6.65143E-005	5.39641E-002	7.30704E-001	3.57290E+000	9	...........
	56	0.76	7.34830E-001	9.09147E-005	0.00000E+000	6.68069E-005	5.39641E-002	7.34931E-001	3.57290E+000	9	...........
	57	0.773333	7.39040E-001	9.09835E-005	0.00000E+000	6.72404E-005	5.39641E-002	7.39129E-001	3.57290E+000	9	...........
	58	0.786667	7.43209E-001	9.10960E-005	0.00000E+000	6.77033E-005	5.39641E-002	7.43325E-001	3.57290E+000	9	...........
	59	0.8	7.47270E-001	9.09293E-005	0.00000E+000	6.79487E-005	5.39641E-002	7.47368E-001	3.57290E+000	9	...........
	60	0.813333	7.51268E-001	9.11345E-005	0.00000E+000	6.84664E-005	5.39641E-002	7.51400E-001	3.57290E+000	9	...........
	61	0.826667	7.55247E-001	9.10199E-005	0.00000E+000	6.87425E-005	5.39641E-002	7.55376E-001	3.57290E+000	9	...........
	62	0.84	7.59190E-001	9.11147E-005	0.00000E+000	6.91734E-005	5.39641E-002	7.59277E-001	3.57290E+000	9	...........
	63	0.853333	7.63057E-001	9.08251E-005	0.00000E+000	6.93047E-005	5.39641E-002	7.63159E-001	3.57290E+000	9	...........
	64	0.866667	7.66886E-001	9.10731E-005	0.00000E+000	6.98427E-005	5.39641E-002	7.67025E-001	3.57290E+000	9	...........
	65	0.88	7.70689E-001	9.10512E-005	0.00000E+000	7.01721E-005	5.39641E-002	7.70834E-001	3.57290E+000	9	...........
	66	0.893333	7.74435E-001	9.08188E-005	0.00000E+000	7.03333E-005	5.39641E-002	7.74552E-001	3.57290E+000	9	...........
	67	0.906667	7.78115E-001	9.06667E-005	0.00000E+000	7.05492E-005	5.39641E-002	7.78239E-001	3.57290E+000	9	...........
	68	0.92	7.81789E-001	9.11929E-005	0.00000E+000	7.12936E-005	5.39641E-002	7.81929E-001	3.57290E+000	9	...........
	69	0.933333	7.85434E-001	9.09387E-005	0.00000E+000	7.14263E-005	5.39641E-002	7.85555E-001	3.57290E+000	9	...........
	70	0.946667	7.89002E-001	9.08459E-005	0.00000E+000	7.16776E-005	5.39641E-002	7.89137E-001	3.57290E+000	9	...........
	71	0.96	7.92552E-001	9.08001E-005	0.00000E+000	7.19638E-005	5.39641E-002	7.92700E-001	3.57290E+000	9	...........
	72	0.97333	7.96093E-001	9.10616E-005	0.00000E+000	7.24935E-005	5.39641E-002	7.96192E-001	3.57290E+000	9	...........
	73	0.98667	7.99548E-001	9.10522E-005	0.00000E+000	7.28006E-005	5.39641E-002	7.99665E-001	3.57290E+000	9	...........
	74	1	8.02948E-001	9.10470E-005	0.00000E+000	7.31060E-005	5.39641E-002	8.03081E-001	3.57290E+000	9	...........
	75	1.01333	8.06339E-001	9.11668E-005	0.00000E+000	7.35114E-005	5.39641E-002	8.06466E-001	3.57290E+000	9	...........
	76	1.02667	8.09691E-001	9.12137E-005	0.00000E+000	7.38549E-005	5.39641E-002	8.09836E-001	3.57290E+000	9	...........
	77	1.04	8.13006E-001	9.08814E-005	0.00000E+000	7.38871E-005	5.39641E-002	8.13157E-001	3.57290E+000	9	...........
	78	1.05333	8.16266E-001	9.09241E-005	0.00000E+000	7.42182E-005	5.39641E-002	8.16428E-001	3.57290E+000	9	...........
	79	1.06667	8.19553E-001	9.08959E-005	0.00000E+000	7.44941E-005	5.39641E-002	8.19690E-001	3.57290E+000	9	...........
	80	1.08	8.22791E-001	9.10887E-005	0.00000E+000	7.49469E-005	5.39641E-002	8.22907E-001	3.57290E+000	9	...........
	81	1.09333	8.25955E-001	9.10689E-005	0.00000E+000	7.52188E-005	5.39641E-002	8.26087E-001	3.57290E+000	9	...........
	82	1.10667	8.29085E-001	9.10303E-005	0.00000E+000	7.54719E-005	5.39641E-002	8.29213E-001	3.57290E+000	9	...........
	83	1.12	8.32208E-001	9.10283E-005	0.00000E+000	7.57544E-005	5.39641E-002	8.32342E-001	3.57290E+000	9	...........
	84	1.13333	8.35276E-001	9.13002E-005	0.00000E+000	7.62609E-005	5.39641E-002	8.35452E-001	3.57290E+000	9	...........
	85	1.14667	8.38345E-001	9.10877E-005	0.00000E+000	7.63629E-005	5.39641E-002	8.38512E-001	3.57290E+000	9	...........
	86	1.16	8.41385E-001	9.10137E-005	0.00000E+000	7.65775E-005	5.39641E-002	8.41555E-001	3.57290E+000	9	...........
	87	1.17333	8.44374E-001	9.09053E-005	0.00000E+000	7.67580E-005	5.39641E-002	8.44536E-001	3.57290E+000	9	...........
	88	1.18667	8.47332E-001	9.07918E-005	0.00000E+000	7.69308E-005	5.39641E-002	8.47530E-001	3.57290E+000	9	...........
	89	1.2	8.50294E-001	9.11408E-005	0.00000E+000	7.74965E-005	5.39641E-002	8.50473E-001	3.57290E+000	9	...........
	90	1.21333	8.53189E-001	9.10553E-005	0.00000E+000	7.76875E-005	5.39641E-002	8.53383E-001	3.57290E+000	9	...........
	91	1.22667	8.56049E-001	9.08209E-005	0.00000E+000	7.77472E-005	5.39641E-002	8.56268E-001	3.57290E+000	9	...........
	92	1.24	8.58930E-001	9.08522E-005	0.00000E+000	7.80357E-005	5.39641E-002	8.59127E-001	3.57290E+000	9	...........
	93	1.25333	8.61780E-001	9.08647E-005	0.00000E+000	7.83054E-005	5.39641E-002	8.61917E-001	3.57290E+000	9	...........
	94	1.26667	8.64525E-001	9.11814E-005	0.00000E+000	7.88286E-005	5.39641E-002	8.64696E-001	3.57290E+000	9	...........
	95	1.28	8.67278E-001	9.11408E-005	0.00000E+000	7.90444E-005	5.39641E-002	8.67443E-001	3.57301E+000	9	...........
	96	1.29333	8.70024E-001	9.08314E-005	0.00000E+000	7.90255E-005	5.39641E-002	8.70193E-001	3.57320E+000	9	...........
	97	1.30667	8.72731E-001	9.09168E-005	0.00000E+000	7.93459E-005	5.39641E-002	8.72899E-001	3.57320E+000	9	...........
	98	1.32	8.75386E-001	9.08970E-005	0.00000E+000	7.95700E-005	5.39641E-002	8.75562E-001	3.57320E+000	9	...........
	99	1.33333	8.78035E-001	9.10720E-005	0.00000E+000	7.99644E-005	5.39641E-002	8.78219E-001	3.57320E+000	9	...........
	100	1.34667	8.80646E-001	9.10460E-005	0.00000E+000	8.01792E-005	5.39641E-002	8.80843E-001	3.57320E+000	9	...........
	101	1.36	8.83243E-001	9.12095E-005	0.00000E+000	8.05602E-005	5.39641E-002	8.83448E-001	3.57320E+000	9	...........
	102	1.37333	8.85818E-001	9.10376E-005	0.00000E+000	8.06427E-005	5.39641E-002	8.85982E-001	3.57320E+000	9	...........
	103	1.38667	8.88332E-001	9.09439E-005	0.00000E+000	8.07884E-005	5.39641E-002	8.88503E-001	3.57320E+000	9	...........
	104	1.4	8.90853E-001	9.09251E-005	0.00000E+000	8.10009E-005	5.39641E-002	8.90994E-001	3.57320E+000	9	...........
	105	1.41333	8.93329E-001	9.12387E-005	0.00000E+000	8.15062E-005	5.39641E-002	8.93487E-001	3.57320E+000	9	...........
	106	1.42667	8.95780E-001	9.07261E-005	0.00000E+000	8.12706E-005	5.39641E-002	8.95982E-001	3.57320E+000	9	...........
	107	1.44	8.98217E-001	9.11439E-005	0.00000E+000	8.18670E-005	5.39641E-002	8.98384E-001	3.57320E+000	9	...........
	108	1.45333	9.00613E-001	9.10356E-005	0.00000E+000	8.19878E-005	5.39641E-002	9.00812E-001	3.57320E+000	9	...........
	109	1.46667	9.03014E-001	9.09824E-005	0.00000E+000	8.21584E-005	5.39641E-002	9.03212E-001	3.57320E+000	9	...........
	110	1.48	9.05369E-001	9.09710E-005	0.00000E+000	8.23623E-005	5.39641E-002	9.05570E-001	3.57320E+000	9	...........
	111	1.49333	9.07706E-001	9.08834E-005	0.00000E+000	8.24954E-005	5.39641E-002	9.07918E-001	3.57320E+000	9	...........
	112	1.50667	9.10035E-001	9.11293E-005	0.00000E+000	8.29309E-005	5.39641E-002	9.10242E-001	3.57320E+000	9	...........
	113	1.52	9.12319E-001	9.13158E-005	0.00000E+000	8.33091E-005	5.39641E-002	9.12538E-001	3.57320E+000	9	...........
	114	1.53333	9.14584E-001	9.09084E-005	0.00000E+000	8.31435E-005	5.39641E-002	9.14804E-001	3.57320E+000	9	...........
	115	1.54667	9.16805E-001	9.10720E-005	0.00000E+000	8.34953E-005	5.39641E-002	9.17030E-001	3.57320E+000	9	...........
	116	1.56	9.19027E-001	9.07720E-005	0.00000E+000	8.34219E-005	5.39641E-002	9.19238E-001	3.57320E+000	9	...........
	117	1.57333	9.21273E-001	9.08418E-005	0.00000E+000	8.36901E-005	5.39641E-002	9.21448E-001	3.57320E+000	9	...........
	118	1.58667	9.23463E-001	9.10283E-005	0.00000E+000	8.40612E-005	5.39641E-002	9.23598E-001	3.57320E+000	9	...........
	119	1.6	9.25593E-001	9.10053E-005	0.00000E+000	8.42340E-005	5.39641E-002	9.25743E-001	3.57320E+000	9	...........
	120	1.61333	9.27728E-001	9.10085E-005	0.00000E+000	8.44311E-005	5.39641E-002	9.27879E-001	3.57320E+000	9	...........
	121	1.62667	9.29830E-001	9.10314E-005	0.00000E+000	8.46437E-005	5.39641E-002	9.29962E-001	3.57320E+000	9	...........
	122	1.64	9.31892E-001	9.09418E-005	0.00000E+000	8.47479E-005	5.39641E-002	9.32028E-001	3.57320E+000	9	...........
	123	1.65333	9.33972E-001	9.10303E-005	0.00000E+000	8.50198E-005	5.39641E-002	9.34110E-001	3.57320E+000	9	...........
	124	1.66667	9.35996E-001	9.08511E-005	0.00000E+000	8.50363E-005	5.39641E-002	9.36158E-001	3.57320E+000	9	...........
	125	1.68	9.38019E-001	9.09564E-005	0.00000E+000	8.53188E-005	5.39641E-002	9.38183E-001	3.57320E+000	9	...........
	126	1.69333	9.39979E-001	9.11752E-005	0.00000E+000	8.57027E-005	5.39641E-002	9.40156E-001	3.57320E+000	9	...........
	127	1.70667	9.41942E-001	9.11429E-005	0.00000E+000	8.58513E-005	5.39641E-002	9.42103E-001	3.57320E+000	9	...........
	128	1.72	9.43873E-001	9.10491E-005	0.00000E+000	8.59388E-005	5.39641E-002	9.44034E-001	3.57320E+000	9	...........
	129	1.73333	9.45807E-001	9.06615E-005	0.00000E+000	8.57483E-005	5.39641E-002	9.45978E-001	3.57320E+000	9	...........
	130	1.74667	9.47767E-001	9.12221E-005	0.00000E+000	8.64572E-005	5.39641E-002	9.47911E-001	3.57320E+000	9	...........
	131	1.76	9.49647E-001	9.11220E-005	0.00000E+000	8.65338E-005	5.39641E-002	9.49804E-001	3.57320E+000	9	...........
	132	1.77333	9.51508E-001	9.08928E-005	0.00000E+000	8.64853E-005	5.39641E-002	9.51661E-001	3.57320E+000	9	...........
	133	1.78667	9.53355E-001	9.10845E-005	0.00000E+000	8.68359E-005	5.39641E-002	9.53508E-001	3.57320E+000	9	...........
	134	1.8	9.55174E-001	9.10991E-005	0.00000E+000	8.70155E-005	5.39641E-002	9.55324E-001	3.57320E+000	9	...........
	135	1.81333	9.56964E-001	9.09814E-005	0.00000E+000	8.70659E-005	5.39641E-002	9.57114E-001	3.57320E+000	9	...........
	136	1.82667	9.58750E-001	9.09084E-005	0.00000E+000	8.71584E-005	5.39641E-002	9.58903E-001	3.57320E+000	9	...........
	137	1.84	9.60530E-001	9.08772E-005	0.00000E+000	8.72903E-005	5.39641E-002	9.60696E-001	3.57320E+000	9	...........
	138	1.85333	9.62256E-001	9.10741E-005	0.00000E+000	8.76366E-005	5.39641E-002	9.62445E-001	3.57320E+000	9	...........
	139	1.86667	9.63978E-001	9.12325E-005	0.00000E+000	8.79461E-005	5.39641E-002	9.64181E-001	3.57320E+000	9	...........
	140	1.88	9.65687E-001	9.09585E-005	0.00000E+000	8.78374E-005	5.39641E-002	9.65861E-001	3.57320E+000	9	...........
	141	1.89333	9.67379E-001	9.09522E-005	0.00000E+000	8.79853E-005	5.39641E-002	9.67570E-001	3.57320E+000	9	...........
	142	1.90667	9.69056E-001	9.13471E-005	0.00000E+000	8.85204E-005	5.39641E-002	9.69259E-001	3.57320E+000	9	...........
	143	1.92	9.70688E-001	9.10647E-005	0.00000E+000	8.83954E-005	5.39641E-002	9.70923E-001	3.57320E+000	9	...........
	144	1.93333	9.72381E-001	9.12148E-005	0.00000E+000	8.86955E-005	5.39641E-002	9.72583E-001	3.57320E+000	9	...........
	145	1.94667	9.74015E-001	9.11033E-005	0.00000E+000	8.87360E-005	5.39641E-002	9.74186E-001	3.57320E+000	9	...........
	146	1.96	9.75608E-001	9.10262E-005	0.00000E+000	8.88059E-005	5.39641E-002	9.75794E-001	3.57320E+000	9	...........
	147	1.97333	9.77155E-001	9.10449E-005	0.00000E+000	8.89650E-005	5.39641E-002	9.77365E-001	3.57320E+000	9	...........
	148	1.98667	9.78717E-001	9.09387E-005	0.00000E+000	8.90032E-005	5.39641E-002	9.78922E-001	3.57320E+000	9	...........
	149	2	9.80303E-001	9.07574E-005	0.00000E+000	8.89697E-005	5.39641E-002	9.80466E-001	3.57320E+000	9	...........
	150	2.01333	9.81822E-001	9.10251E-005	0.00000E+000	8.93705E-005	5.39641E-002	9.81995E-001	3.57320E+000	9	...........
	151	2.02667	9.83334E-001	9.08918E-005	0.00000E+000	8.93769E-005	5.39641E-002	9.83505E-001	3.57320E+000	9	...........
	152	2.04	9.84822E-001	9.08209E-005	0.00000E+000	8.94424E-005	5.39641E-002	9.85019E-001	3.57320E+000	9	...........
	153	2.05333	9.86316E-001	9.12241E-005	0.00000E+000	8.99758E-005	5.39641E-002	9.86512E-001	3.57320E+000	9	...........
	154	2.06667	9.87801E-001	9.12450E-005	0.00000E+000	9.01319E-005	5.39641E-002	9.87977E-001	3.57320E+000	9	...........
	155	2.08	9.89267E-001	9.08324E-005	0.00000E+000	8.98575E-005	5.39641E-002	9.89439E-001	3.57320E+000	9	...........
	156	2.09333	9.90718E-001	9.09928E-005	0.00000E+000	9.01482E-005	5.39641E-002	9.90890E-001	3.57320E+000	9	...........
	157	2.10667	9.92139E-001	9.07751E-005	0.00000E+000	9.00615E-005	5.39641E-002	9.92315E-001	3.57320E+000	9	...........
	158	2.12	9.93510E-001	9.09897E-005	0.00000E+000	9.03992E-005	5.39641E-002	9.93714E-001	3.57320E+000	9	...........
	159	2.13333	9.94904E-001	9.09251E-005	0.00000E+000	9.04618E-005	5.39641E-002	9.95096E-001	3.57320E+000	9	...........
	160	2.14667	9.96253E-001	9.10783E-005	0.00000E+000	9.07370E-005	5.39641E-002	9.96442E-001	3.57320E+000	9	...........
	161	2.16	9.97614E-001	9.13210E-005	0.00000E+000	9.11031E-005	5.39641E-002	9.97849E-001	3.57320E+000	9	...........
	162	2.17333	9.98966E-001	9.09532E-005	0.00000E+000	9.08592E-005	5.39641E-002	9.99204E-001	3.57320E+000	9	...........
	163	2.17833	9.99869E-001	9.09071E-005	0.00000E+000	9.08952E-005	5.39641E-002	1.00013E+000	3.57320E+000	9	...........
STARTTIMEOFFSET	QUANT	3314.56	Start Time Offset (s)
