EXPLAIN
TAG	PWR800_CHARGE
TITLE	LABEL	PWR Cyclic Charge Discharge (Cell) - Charge Step	Test &Identifier
DATE	LABEL	10-7-2017	Date
TIME	LABEL	15:33:31	Time
NOTES	NOTES	3	&Notes...
	supercap test cell
	0.9mg
	6M KOH
PSTAT	PSTAT	IFC5000-01520	Potentiostat
CAPACITY	QUANT	1.00000E-003	Capacity (A-hr)
CELLTYPE	SELECTOR	1	&Cell Type
WORKINGCONNECTION	SELECTOR	0	&Working Lead
MAXCHARGETIME	VARIABLEANDUNITS	1.00000E+002	s	1.00000E+002	second(s)	Max &Charge Time
CHARGECURRENT	QUANT	9.00000E-005	&Charge Current (A) 
VOLTAGEFINISH	TWOPARAM	F	1.00000E-003	3.60000E+003	&Voltage Finish	 I (A) < 	Max Time(s)
SAMPLETIME	QUANT	1.00000E-002	Sa&mple Period (s)
CHARGESTOPAT1	MULTIPARAM	4	1.00000E+000	Charge Stop At &1	Voltage > Limit	V
CHARGESTOPAT2	MULTIPARAM	0	0.00000E+000	Charge Stop At &2	None	N/A
AESBHCSELECTOR	TOGGLE	F	Save Both Half Cells
IRCOMP	TOGGLE	F	IR &Measure
EOC	QUANT	0	Open Circuit (V)
SEQUENCER	TOGGLE	TRUE	Run as Sequence
PSTATMODEL	IQUANT	53	Pstat Model
PSTATSECTION	LABEL	IFC5000-01520	Pstat Section
PSTATSERIALNO	LABEL	01520	Pstat Serial Number
CTRLMODE	IQUANT	0	Control Mode
ELECTROMETER	IQUANT	1	RE=0 or CS=1
IESTAB	IQUANT	0	I/E Stability
CASPEED	IQUANT	4	Control Amp Speed
CONVENTION	IQUANT	1	Current Convention
ICHRANGE	IQUANT	2	Ich Range
ICHRANGEMODE	TOGGLE	T	Ich Auto Range
ICHOFFSETENABLE	TOGGLE	F	Ich Offset Enable
ICHOFFSET	QUANT	0	Ich Offset (V)
ICHFILTER	IQUANT	1	Ich Filter
VCHRANGE	IQUANT	2	Vch Range
VCHRANGEMODE	TOGGLE	T	Vch Auto Range
VCHOFFSETENABLE	TOGGLE	F	Vch Offset Enable
VCHOFFSET	QUANT	0	Vch Offset (V)
VCHFILTER	IQUANT	1	Vch Filter
IERANGELOWERLIMIT	IQUANT	9	I/E Range Lower Limit
IERANGEMODE	TOGGLE	F	I/E AutoRange
IERANGE	IQUANT	9	I/E Range
ACHSELECT	IQUANT	1	Ach Select
ACHRANGE	IQUANT	2	Ach Range
ACHOFFSETENABLE	TOGGLE	F	Ach Offset Enable
ACHOFFSET	QUANT	0	Ach Offset (V)
ACHFILTER	IQUANT	1	Ach Filter
CABLEID	IQUANT	14	Cable ID
DCCALDATE	LABEL	5-7-2017	DC Calibration Date
ACCALDATE	LABEL	12/3/2015	AC Calibration Date
FRAMEWORKVERSION	QUANT	7.01	Framework Version
INSTRUMENTVERSION	LABEL	4.00	Instrument Version
CURVE	TABLE	172
	Pt	T	Vf	Im	Vu	Pwr	Sig	Ach	Temp	IERange	Over
	#	s	V	A	V	W	V	V	deg C	#	bits
	0	0.013333	2.79536E-001	9.08803E-005	0.00000E+000	2.54043E-005	5.39641E-002	2.79585E-001	3.57280E+000	9	...........
	1	0.026667	2.99121E-001	9.11575E-005	0.00000E+000	2.72671E-005	5.39641E-002	2.99162E-001	3.57280E+000	9	...........
	2	0.04	3.17317E-001	9.11481E-005	0.00000E+000	2.89229E-005	5.39641E-002	3.17358E-001	3.57280E+000	9	...........
	3	0.053333	3.34354E-001	9.07709E-005	0.00000E+000	3.03497E-005	5.39641E-002	3.34398E-001	3.57280E+000	9	...........
	4	0.066667	3.50388E-001	9.09647E-005	0.00000E+000	3.18730E-005	5.39641E-002	3.50431E-001	3.57280E+000	9	...........
	5	0.08	3.65535E-001	9.09480E-005	0.00000E+000	3.32447E-005	5.39641E-002	3.65583E-001	3.57280E+000	9	...........
	6	0.093333	3.79884E-001	9.09751E-005	0.00000E+000	3.45600E-005	5.39641E-002	3.79934E-001	3.57280E+000	9	...........
	7	0.106667	3.93538E-001	9.09137E-005	0.00000E+000	3.57780E-005	5.39641E-002	3.93584E-001	3.57280E+000	9	...........
	8	0.12	4.06564E-001	9.08564E-005	0.00000E+000	3.69389E-005	5.39641E-002	4.06614E-001	3.57280E+000	9	...........
	9	0.133333	4.19021E-001	9.09053E-005	0.00000E+000	3.80912E-005	5.39641E-002	4.19074E-001	3.57280E+000	9	...........
	10	0.146667	4.30955E-001	9.09741E-005	0.00000E+000	3.92057E-005	5.39641E-002	4.31006E-001	3.57280E+000	9	...........
	11	0.16	4.42397E-001	9.11262E-005	0.00000E+000	4.03139E-005	5.39641E-002	4.42449E-001	3.57280E+000	9	...........
	12	0.173333	4.53401E-001	9.09199E-005	0.00000E+000	4.12232E-005	5.39641E-002	4.53461E-001	3.57280E+000	9	...........
	13	0.186667	4.63997E-001	9.10043E-005	0.00000E+000	4.22257E-005	5.39641E-002	4.64052E-001	3.57280E+000	9	...........
	14	0.2	4.74217E-001	9.08709E-005	0.00000E+000	4.30925E-005	5.39641E-002	4.74278E-001	3.57280E+000	9	...........
	15	0.213333	4.84069E-001	9.11022E-005	0.00000E+000	4.40998E-005	5.39641E-002	4.84127E-001	3.57280E+000	9	...........
	16	0.226667	4.93605E-001	9.11106E-005	0.00000E+000	4.49726E-005	5.39641E-002	4.93672E-001	3.57280E+000	9	...........
	17	0.24	5.02843E-001	9.12887E-005	0.00000E+000	4.59039E-005	5.39641E-002	5.02908E-001	3.57280E+000	9	...........
	18	0.253333	5.11798E-001	9.11314E-005	0.00000E+000	4.66409E-005	5.39641E-002	5.11863E-001	3.57280E+000	9	...........
	19	0.266667	5.20484E-001	9.10762E-005	0.00000E+000	4.74037E-005	5.39641E-002	5.20553E-001	3.57280E+000	9	...........
	20	0.28	5.28925E-001	9.09324E-005	0.00000E+000	4.80964E-005	5.39641E-002	5.28998E-001	3.57280E+000	9	...........
	21	0.293333	5.37060E-001	9.07220E-005	0.00000E+000	4.87231E-005	5.39641E-002	5.37142E-001	3.57280E+000	9	...........
	22	0.306667	5.45013E-001	9.08845E-005	0.00000E+000	4.95332E-005	5.39641E-002	5.45099E-001	3.57280E+000	9	...........
	23	0.32	5.52752E-001	9.10210E-005	0.00000E+000	5.03120E-005	5.39641E-002	5.52860E-001	3.57280E+000	9	...........
	24	0.333333	5.60275E-001	9.09605E-005	0.00000E+000	5.09629E-005	5.39641E-002	5.60389E-001	3.57280E+000	9	...........
	25	0.346667	5.67691E-001	9.12064E-005	0.00000E+000	5.17771E-005	5.39641E-002	5.67756E-001	3.57280E+000	9	...........
	26	0.36	5.74849E-001	9.12346E-005	0.00000E+000	5.24461E-005	5.39641E-002	5.74942E-001	3.57280E+000	9	...........
	27	0.373333	5.81811E-001	9.10814E-005	0.00000E+000	5.29922E-005	5.39641E-002	5.81945E-001	3.57280E+000	9	...........
	28	0.386667	5.88677E-001	9.11179E-005	0.00000E+000	5.36389E-005	5.39641E-002	5.88783E-001	3.57280E+000	9	...........
	29	0.4	5.95369E-001	9.09230E-005	0.00000E+000	5.41328E-005	5.39641E-002	5.95461E-001	3.57280E+000	9	...........
	30	0.413333	6.01866E-001	9.10720E-005	0.00000E+000	5.48132E-005	5.39641E-002	6.01993E-001	3.57280E+000	9	...........
	31	0.426667	6.08220E-001	9.11939E-005	0.00000E+000	5.54660E-005	5.39641E-002	6.08366E-001	3.57280E+000	9	...........
	32	0.44	6.14500E-001	9.10283E-005	0.00000E+000	5.59369E-005	5.39641E-002	6.14644E-001	3.57280E+000	9	...........
	33	0.453333	6.20661E-001	9.10126E-005	0.00000E+000	5.64880E-005	5.39641E-002	6.20738E-001	3.57280E+000	9	...........
	34	0.466667	6.26631E-001	9.11668E-005	0.00000E+000	5.71279E-005	5.39641E-002	6.26728E-001	3.57280E+000	9	...........
	35	0.48	6.32456E-001	9.11877E-005	0.00000E+000	5.76722E-005	5.39641E-002	6.32574E-001	3.57280E+000	9	...........
	36	0.493333	6.38197E-001	9.10866E-005	0.00000E+000	5.81312E-005	5.39641E-002	6.38322E-001	3.57280E+000	9	...........
	37	0.506667	6.43847E-001	9.08564E-005	0.00000E+000	5.84976E-005	5.39641E-002	6.43971E-001	3.57280E+000	9	...........
	38	0.52	6.49340E-001	9.10356E-005	0.00000E+000	5.91130E-005	5.39641E-002	6.49476E-001	3.57280E+000	9	...........
	39	0.533333	6.54781E-001	9.08397E-005	0.00000E+000	5.94801E-005	5.39641E-002	6.54881E-001	3.57280E+000	9	...........
	40	0.546667	6.60052E-001	9.13033E-005	0.00000E+000	6.02649E-005	5.39641E-002	6.60178E-001	3.57280E+000	9	...........
	41	0.56	6.65287E-001	9.09230E-005	0.00000E+000	6.04899E-005	5.39641E-002	6.65424E-001	3.57280E+000	9	...........
	42	0.573333	6.70437E-001	9.07459E-005	0.00000E+000	6.08394E-005	5.39641E-002	6.70549E-001	3.57280E+000	9	...........
	43	0.586667	6.75466E-001	9.08116E-005	0.00000E+000	6.13401E-005	5.39641E-002	6.75575E-001	3.57280E+000	9	...........
	44	0.6	6.80419E-001	9.11460E-005	0.00000E+000	6.20175E-005	5.39641E-002	6.80543E-001	3.57280E+000	9	...........
	45	0.613333	6.85270E-001	9.10210E-005	0.00000E+000	6.23739E-005	5.39641E-002	6.85404E-001	3.57280E+000	9	...........
	46	0.626667	6.90065E-001	9.10408E-005	0.00000E+000	6.28241E-005	5.39641E-002	6.90210E-001	3.57280E+000	9	...........
	47	0.64	6.94808E-001	9.10189E-005	0.00000E+000	6.32407E-005	5.39641E-002	6.94918E-001	3.57280E+000	9	...........
	48	0.653333	6.99442E-001	9.11022E-005	0.00000E+000	6.37208E-005	5.39641E-002	6.99548E-001	3.57280E+000	9	...........
	49	0.666667	7.03999E-001	9.08897E-005	0.00000E+000	6.39863E-005	5.39641E-002	7.04126E-001	3.57280E+000	9	...........
	50	0.68	7.08482E-001	9.09668E-005	0.00000E+000	6.44483E-005	5.39641E-002	7.08616E-001	3.57280E+000	9	...........
	51	0.693333	7.12904E-001	9.09824E-005	0.00000E+000	6.48617E-005	5.39641E-002	7.13019E-001	3.57330E+000	9	...........
	52	0.706667	7.17308E-001	9.10147E-005	0.00000E+000	6.52856E-005	5.39641E-002	7.17431E-001	3.57380E+000	9	...........
	53	0.72	7.21612E-001	9.08480E-005	0.00000E+000	6.55570E-005	5.39641E-002	7.21701E-001	3.57380E+000	9	...........
	54	0.733333	7.25823E-001	9.11866E-005	0.00000E+000	6.61854E-005	5.39641E-002	7.25921E-001	3.57380E+000	9	...........
	55	0.746667	7.29977E-001	9.08303E-005	0.00000E+000	6.63041E-005	5.39641E-002	7.30120E-001	3.57380E+000	9	...........
	56	0.76	7.34064E-001	9.08543E-005	0.00000E+000	6.66928E-005	5.39641E-002	7.34210E-001	3.57380E+000	9	...........
	57	0.773333	7.38133E-001	9.09230E-005	0.00000E+000	6.71133E-005	5.39641E-002	7.38249E-001	3.57380E+000	9	...........
	58	0.786667	7.42151E-001	9.09845E-005	0.00000E+000	6.75242E-005	5.39641E-002	7.42259E-001	3.57380E+000	9	...........
	59	0.8	7.46112E-001	9.10324E-005	0.00000E+000	6.79204E-005	5.39641E-002	7.46224E-001	3.57380E+000	9	...........
	60	0.813333	7.50040E-001	9.11814E-005	0.00000E+000	6.83897E-005	5.39641E-002	7.50120E-001	3.57380E+000	9	...........
	61	0.826667	7.53886E-001	9.10626E-005	0.00000E+000	6.86509E-005	5.39641E-002	7.53985E-001	3.57380E+000	9	...........
	62	0.84	7.57694E-001	9.13065E-005	0.00000E+000	6.91823E-005	5.39641E-002	7.57816E-001	3.57380E+000	9	...........
	63	0.853333	7.61424E-001	9.12606E-005	0.00000E+000	6.94880E-005	5.39641E-002	7.61544E-001	3.57380E+000	9	...........
	64	0.866667	7.65123E-001	9.09887E-005	0.00000E+000	6.96175E-005	5.39641E-002	7.65265E-001	3.57380E+000	9	...........
	65	0.88	7.68787E-001	9.10251E-005	0.00000E+000	6.99789E-005	5.39641E-002	7.68945E-001	3.57380E+000	9	...........
	66	0.893333	7.72432E-001	9.12325E-005	0.00000E+000	7.04709E-005	5.39641E-002	7.72565E-001	3.57380E+000	9	...........
	67	0.906667	7.75986E-001	9.10585E-005	0.00000E+000	7.06601E-005	5.39641E-002	7.76119E-001	3.57380E+000	9	...........
	68	0.92	7.79521E-001	9.10012E-005	0.00000E+000	7.09373E-005	5.39641E-002	7.79640E-001	3.57380E+000	9	...........
	69	0.933333	7.83027E-001	9.11627E-005	0.00000E+000	7.13828E-005	5.39641E-002	7.83156E-001	3.57380E+000	9	...........
	70	0.946667	7.86465E-001	9.09314E-005	0.00000E+000	7.15143E-005	5.39641E-002	7.86582E-001	3.57380E+000	9	...........
	71	0.96	7.89847E-001	9.09595E-005	0.00000E+000	7.18441E-005	5.39641E-002	7.89976E-001	3.57380E+000	9	...........
	72	0.97333	7.93251E-001	9.13283E-005	0.00000E+000	7.24463E-005	5.39641E-002	7.93362E-001	3.57380E+000	9	...........
	73	0.98667	7.96602E-001	9.10595E-005	0.00000E+000	7.25382E-005	5.39641E-002	7.96699E-001	3.57380E+000	9	...........
	74	1	7.99872E-001	9.09647E-005	0.00000E+000	7.27601E-005	5.39641E-002	7.99986E-001	3.57380E+000	9	...........
	75	1.01333	8.03105E-001	9.10793E-005	0.00000E+000	7.31462E-005	5.39641E-002	8.03220E-001	3.57380E+000	9	...........
	76	1.02667	8.06307E-001	9.09710E-005	0.00000E+000	7.33505E-005	5.39641E-002	8.06460E-001	3.57380E+000	9	...........
	77	1.04	8.09479E-001	9.09730E-005	0.00000E+000	7.36408E-005	5.39641E-002	8.09627E-001	3.57380E+000	9	...........
	78	1.05333	8.12629E-001	9.10012E-005	0.00000E+000	7.39502E-005	5.39641E-002	8.12776E-001	3.57380E+000	9	...........
	79	1.06667	8.15744E-001	9.11158E-005	0.00000E+000	7.43272E-005	5.39641E-002	8.15897E-001	3.57380E+000	9	...........
	80	1.08	8.18843E-001	9.10710E-005	0.00000E+000	7.45728E-005	5.39641E-002	8.18978E-001	3.57380E+000	9	...........
	81	1.09333	8.21878E-001	9.11179E-005	0.00000E+000	7.48877E-005	5.39641E-002	8.22040E-001	3.57380E+000	9	...........
	82	1.10667	8.24863E-001	9.10804E-005	0.00000E+000	7.51288E-005	5.39641E-002	8.25030E-001	3.57380E+000	9	...........
	83	1.12	8.27857E-001	9.11418E-005	0.00000E+000	7.54524E-005	5.39641E-002	8.28002E-001	3.57380E+000	9	...........
	84	1.13333	8.30755E-001	9.10231E-005	0.00000E+000	7.56178E-005	5.39641E-002	8.30921E-001	3.57380E+000	9	...........
	85	1.14667	8.33667E-001	9.08230E-005	0.00000E+000	7.57162E-005	5.39641E-002	8.33827E-001	3.57380E+000	9	...........
	86	1.16	8.36546E-001	9.12512E-005	0.00000E+000	7.63358E-005	5.39641E-002	8.36707E-001	3.57380E+000	9	...........
	87	1.17333	8.39390E-001	9.09574E-005	0.00000E+000	7.63488E-005	5.39641E-002	8.39538E-001	3.57380E+000	9	...........
	88	1.18667	8.42218E-001	9.12616E-005	0.00000E+000	7.68622E-005	5.39641E-002	8.42358E-001	3.57380E+000	9	...........
	89	1.2	8.45061E-001	9.10543E-005	0.00000E+000	7.69465E-005	5.39641E-002	8.45215E-001	3.57380E+000	9	...........
	90	1.21333	8.47860E-001	9.10481E-005	0.00000E+000	7.71960E-005	5.39641E-002	8.48013E-001	3.57380E+000	9	...........
	91	1.22667	8.50605E-001	9.08095E-005	0.00000E+000	7.72429E-005	5.39641E-002	8.50758E-001	3.57380E+000	9	...........
	92	1.24	8.53352E-001	9.10877E-005	0.00000E+000	7.77298E-005	5.39641E-002	8.53471E-001	3.57380E+000	9	...........
	93	1.25333	8.56020E-001	9.11377E-005	0.00000E+000	7.80157E-005	5.39641E-002	8.56168E-001	3.57380E+000	9	...........
	94	1.26667	8.58660E-001	9.11491E-005	0.00000E+000	7.82661E-005	5.39641E-002	8.58826E-001	3.57380E+000	9	...........
	95	1.28	8.61308E-001	9.11460E-005	0.00000E+000	7.85048E-005	5.39641E-002	8.61443E-001	3.57380E+000	9	...........
	96	1.29333	8.63869E-001	9.09064E-005	0.00000E+000	7.85312E-005	5.39641E-002	8.64041E-001	3.57380E+000	9	...........
	97	1.30667	8.66459E-001	9.10668E-005	0.00000E+000	7.89057E-005	5.39641E-002	8.66618E-001	3.57380E+000	9	...........
	98	1.32	8.69028E-001	9.09449E-005	0.00000E+000	7.90336E-005	5.39641E-002	8.69197E-001	3.57380E+000	9	...........
	99	1.33333	8.71564E-001	9.09084E-005	0.00000E+000	7.92325E-005	5.39641E-002	8.71734E-001	3.57380E+000	9	...........
	100	1.34667	8.74053E-001	9.11585E-005	0.00000E+000	7.96774E-005	5.39641E-002	8.74227E-001	3.57380E+000	9	...........
	101	1.36	8.76523E-001	9.09376E-005	0.00000E+000	7.97089E-005	5.39641E-002	8.76717E-001	3.57380E+000	9	...........
	102	1.37333	8.78945E-001	9.09053E-005	0.00000E+000	7.99008E-005	5.39641E-002	8.79129E-001	3.57380E+000	9	...........
	103	1.38667	8.81332E-001	9.10074E-005	0.00000E+000	8.02078E-005	5.39641E-002	8.81552E-001	3.57380E+000	9	...........
	104	1.4	8.83772E-001	9.10772E-005	0.00000E+000	8.04915E-005	5.39641E-002	8.83952E-001	3.57380E+000	9	...........
	105	1.41333	8.86123E-001	9.13200E-005	0.00000E+000	8.09207E-005	5.39641E-002	8.86312E-001	3.57380E+000	9	...........
	106	1.42667	8.88475E-001	9.13148E-005	0.00000E+000	8.11309E-005	5.39641E-002	8.88637E-001	3.57380E+000	9	...........
	107	1.44	8.90812E-001	9.10220E-005	0.00000E+000	8.10835E-005	5.39641E-002	8.90967E-001	3.57380E+000	9	...........
	108	1.45333	8.93128E-001	9.10960E-005	0.00000E+000	8.13604E-005	5.39641E-002	8.93277E-001	3.57380E+000	9	...........
	109	1.46667	8.95410E-001	9.09095E-005	0.00000E+000	8.14013E-005	5.39641E-002	8.95604E-001	3.57380E+000	9	...........
	110	1.48	8.97699E-001	9.12971E-005	0.00000E+000	8.19573E-005	5.39641E-002	8.97882E-001	3.57380E+000	9	...........
	111	1.49333	8.99922E-001	9.09678E-005	0.00000E+000	8.18639E-005	5.39641E-002	9.00125E-001	3.57380E+000	9	...........
	112	1.50667	9.02161E-001	9.12293E-005	0.00000E+000	8.23036E-005	5.39641E-002	9.02344E-001	3.57380E+000	9	...........
	113	1.52	9.04332E-001	9.12585E-005	0.00000E+000	8.25280E-005	5.39641E-002	9.04544E-001	3.57380E+000	9	...........
	114	1.53333	9.06510E-001	9.11627E-005	0.00000E+000	8.26399E-005	5.39641E-002	9.06679E-001	3.57380E+000	9	...........
	115	1.54667	9.08691E-001	9.11679E-005	0.00000E+000	8.28434E-005	5.39641E-002	9.08850E-001	3.57380E+000	9	...........
	116	1.56	9.10797E-001	9.10918E-005	0.00000E+000	8.29661E-005	5.39641E-002	9.10980E-001	3.57380E+000	9	...........
	117	1.57333	9.12889E-001	9.12460E-005	0.00000E+000	8.32975E-005	5.39641E-002	9.13060E-001	3.57380E+000	9	...........
	118	1.58667	9.14977E-001	9.12710E-005	0.00000E+000	8.35109E-005	5.39641E-002	9.15179E-001	3.57380E+000	9	...........
	119	1.6	9.17038E-001	9.12992E-005	0.00000E+000	8.37248E-005	5.39641E-002	9.17237E-001	3.57380E+000	9	...........
	120	1.61333	9.19082E-001	9.07970E-005	0.00000E+000	8.34499E-005	5.39641E-002	9.19260E-001	3.57380E+000	9	...........
	121	1.62667	9.21172E-001	9.11085E-005	0.00000E+000	8.39266E-005	5.39641E-002	9.21319E-001	3.57380E+000	9	...........
	122	1.64	9.23181E-001	9.11481E-005	0.00000E+000	8.41462E-005	5.39641E-002	9.23323E-001	3.57380E+000	9	...........
	123	1.65333	9.25166E-001	9.07688E-005	0.00000E+000	8.39762E-005	5.39641E-002	9.25352E-001	3.57380E+000	9	...........
	124	1.66667	9.27144E-001	9.11241E-005	0.00000E+000	8.44852E-005	5.39641E-002	9.27315E-001	3.57380E+000	9	...........
	125	1.68	9.29077E-001	9.08907E-005	0.00000E+000	8.44445E-005	5.39641E-002	9.29232E-001	3.57380E+000	9	...........
	126	1.69333	9.30970E-001	9.11877E-005	0.00000E+000	8.48930E-005	5.39641E-002	9.31144E-001	3.57310E+000	9	...........
	127	1.70667	9.32851E-001	9.11689E-005	0.00000E+000	8.50470E-005	5.39641E-002	9.33029E-001	3.57240E+000	9	...........
	128	1.72	9.34736E-001	9.08939E-005	0.00000E+000	8.49617E-005	5.39641E-002	9.34928E-001	3.57240E+000	9	...........
	129	1.73333	9.36588E-001	9.10262E-005	0.00000E+000	8.52540E-005	5.39641E-002	9.36801E-001	3.57240E+000	9	...........
	130	1.74667	9.38422E-001	9.13710E-005	0.00000E+000	8.57446E-005	5.39641E-002	9.38625E-001	3.57240E+000	9	...........
	131	1.76	9.40275E-001	9.10793E-005	0.00000E+000	8.56396E-005	5.39641E-002	9.40464E-001	3.57240E+000	9	...........
	132	1.77333	9.42055E-001	9.10908E-005	0.00000E+000	8.58125E-005	5.39641E-002	9.42245E-001	3.57240E+000	9	...........
	133	1.78667	9.43829E-001	9.10158E-005	0.00000E+000	8.59033E-005	5.39641E-002	9.44033E-001	3.57240E+000	9	...........
	134	1.8	9.45570E-001	9.11616E-005	0.00000E+000	8.61997E-005	5.39641E-002	9.45798E-001	3.57240E+000	9	...........
	135	1.81333	9.47374E-001	9.09699E-005	0.00000E+000	8.61825E-005	5.39641E-002	9.47560E-001	3.57240E+000	9	...........
	136	1.82667	9.49095E-001	9.09751E-005	0.00000E+000	8.63440E-005	5.39641E-002	9.49294E-001	3.57240E+000	9	...........
	137	1.84	9.50824E-001	9.09272E-005	0.00000E+000	8.64558E-005	5.39641E-002	9.51011E-001	3.57240E+000	9	...........
	138	1.85333	9.52495E-001	9.10241E-005	0.00000E+000	8.67000E-005	5.39641E-002	9.52716E-001	3.57240E+000	9	...........
	139	1.86667	9.54195E-001	9.08928E-005	0.00000E+000	8.67295E-005	5.39641E-002	9.54373E-001	3.57240E+000	9	...........
	140	1.88	9.55856E-001	9.10637E-005	0.00000E+000	8.70438E-005	5.39641E-002	9.56031E-001	3.57240E+000	9	...........
	141	1.89333	9.57493E-001	9.09991E-005	0.00000E+000	8.71310E-005	5.39641E-002	9.57670E-001	3.57240E+000	9	...........
	142	1.90667	9.59111E-001	9.13940E-005	0.00000E+000	8.76569E-005	5.39641E-002	9.59309E-001	3.57240E+000	9	...........
	143	1.92	9.60716E-001	9.09814E-005	0.00000E+000	8.74073E-005	5.39641E-002	9.60933E-001	3.57240E+000	9	...........
	144	1.93333	9.62286E-001	9.09574E-005	0.00000E+000	8.75270E-005	5.39641E-002	9.62493E-001	3.57240E+000	9	...........
	145	1.94667	9.63881E-001	9.09897E-005	0.00000E+000	8.77033E-005	5.39641E-002	9.64079E-001	3.57240E+000	9	...........
	146	1.96	9.65421E-001	9.08741E-005	0.00000E+000	8.77317E-005	5.39641E-002	9.65630E-001	3.57240E+000	9	...........
	147	1.97333	9.66956E-001	9.10116E-005	0.00000E+000	8.80042E-005	5.39641E-002	9.67144E-001	3.57240E+000	9	...........
	148	1.98667	9.68459E-001	9.10845E-005	0.00000E+000	8.82117E-005	5.39641E-002	9.68650E-001	3.57240E+000	9	...........
	149	2	9.69970E-001	9.11929E-005	0.00000E+000	8.84543E-005	5.39641E-002	9.70163E-001	3.57240E+000	9	...........
	150	2.01333	9.71463E-001	9.12137E-005	0.00000E+000	8.86108E-005	5.39641E-002	9.71670E-001	3.57240E+000	9	...........
	151	2.02667	9.73022E-001	9.10439E-005	0.00000E+000	8.85877E-005	5.39641E-002	9.73180E-001	3.57240E+000	9	...........
	152	2.04	9.74510E-001	9.11585E-005	0.00000E+000	8.88349E-005	5.39641E-002	9.74669E-001	3.57240E+000	9	...........
	153	2.05333	9.75956E-001	9.11648E-005	0.00000E+000	8.89728E-005	5.39641E-002	9.76121E-001	3.57240E+000	9	...........
	154	2.06667	9.77380E-001	9.11564E-005	0.00000E+000	8.90945E-005	5.39641E-002	9.77593E-001	3.57240E+000	9	...........
	155	2.08	9.78823E-001	9.11991E-005	0.00000E+000	8.92678E-005	5.39641E-002	9.79015E-001	3.57240E+000	9	...........
	156	2.09333	9.80251E-001	9.11564E-005	0.00000E+000	8.93562E-005	5.39641E-002	9.80433E-001	3.57240E+000	9	...........
	157	2.10667	9.81672E-001	9.13064E-005	0.00000E+000	8.96330E-005	5.39641E-002	9.81853E-001	3.57240E+000	9	...........
	158	2.12	9.83038E-001	9.11116E-005	0.00000E+000	8.95662E-005	5.39641E-002	9.83251E-001	3.57240E+000	9	...........
	159	2.13333	9.84400E-001	9.11002E-005	0.00000E+000	8.96790E-005	5.39641E-002	9.84629E-001	3.57240E+000	9	...........
	160	2.14667	9.85775E-001	9.11981E-005	0.00000E+000	8.99008E-005	5.39641E-002	9.85957E-001	3.57240E+000	9	...........
	161	2.16	9.87109E-001	9.10303E-005	0.00000E+000	8.98569E-005	5.39641E-002	9.87305E-001	3.57240E+000	9	...........
	162	2.17333	9.88469E-001	9.09855E-005	0.00000E+000	8.99364E-005	5.39641E-002	9.88611E-001	3.57240E+000	9	...........
	163	2.18667	9.89769E-001	9.09616E-005	0.00000E+000	9.00309E-005	5.39641E-002	9.89937E-001	3.57240E+000	9	...........
	164	2.2	9.91065E-001	9.10231E-005	0.00000E+000	9.02098E-005	5.39641E-002	9.91232E-001	3.57240E+000	9	...........
	165	2.21333	9.92359E-001	9.10106E-005	0.00000E+000	9.03152E-005	5.39641E-002	9.92539E-001	3.57240E+000	9	...........
	166	2.22667	9.93627E-001	9.10939E-005	0.00000E+000	9.05134E-005	5.39641E-002	9.93820E-001	3.57240E+000	9	...........
	167	2.24	9.94905E-001	9.10481E-005	0.00000E+000	9.05842E-005	5.39641E-002	9.95104E-001	3.57240E+000	9	...........
	168	2.25333	9.96161E-001	9.08991E-005	0.00000E+000	9.05501E-005	5.39641E-002	9.96357E-001	3.57240E+000	9	...........
	169	2.26667	9.97414E-001	9.08949E-005	0.00000E+000	9.06598E-005	5.39641E-002	9.97642E-001	3.57240E+000	9	...........
	170	2.28	9.98668E-001	9.11054E-005	0.00000E+000	9.09840E-005	5.39641E-002	9.98876E-001	3.57240E+000	9	...........
	171	2.28833	9.99662E-001	9.08726E-005	0.00000E+000	9.08419E-005	5.39641E-002	9.99867E-001	3.57240E+000	9	...........
STARTTIMEOFFSET	QUANT	1735.856	Start Time Offset (s)
