EXPLAIN
TAG	PWR800_CHARGE
TITLE	LABEL	PWR Cyclic Charge Discharge (Cell) - Charge Step	Test &Identifier
DATE	LABEL	10-7-2017	Date
TIME	LABEL	16:16:36	Time
NOTES	NOTES	3	&Notes...
	supercap test cell
	0.9mg
	6M KOH
PSTAT	PSTAT	IFC5000-01520	Potentiostat
CAPACITY	QUANT	1.00000E-003	Capacity (A-hr)
CELLTYPE	SELECTOR	1	&Cell Type
WORKINGCONNECTION	SELECTOR	0	&Working Lead
MAXCHARGETIME	VARIABLEANDUNITS	1.00000E+002	s	1.00000E+002	second(s)	Max &Charge Time
CHARGECURRENT	QUANT	9.00000E-005	&Charge Current (A) 
VOLTAGEFINISH	TWOPARAM	F	1.00000E-003	3.60000E+003	&Voltage Finish	 I (A) < 	Max Time(s)
SAMPLETIME	QUANT	1.00000E-002	Sa&mple Period (s)
CHARGESTOPAT1	MULTIPARAM	4	1.00000E+000	Charge Stop At &1	Voltage > Limit	V
CHARGESTOPAT2	MULTIPARAM	0	0.00000E+000	Charge Stop At &2	None	N/A
AESBHCSELECTOR	TOGGLE	F	Save Both Half Cells
IRCOMP	TOGGLE	F	IR &Measure
EOC	QUANT	0	Open Circuit (V)
SEQUENCER	TOGGLE	TRUE	Run as Sequence
PSTATMODEL	IQUANT	53	Pstat Model
PSTATSECTION	LABEL	IFC5000-01520	Pstat Section
PSTATSERIALNO	LABEL	01520	Pstat Serial Number
CTRLMODE	IQUANT	0	Control Mode
ELECTROMETER	IQUANT	1	RE=0 or CS=1
IESTAB	IQUANT	0	I/E Stability
CASPEED	IQUANT	4	Control Amp Speed
CONVENTION	IQUANT	1	Current Convention
ICHRANGE	IQUANT	2	Ich Range
ICHRANGEMODE	TOGGLE	T	Ich Auto Range
ICHOFFSETENABLE	TOGGLE	F	Ich Offset Enable
ICHOFFSET	QUANT	0	Ich Offset (V)
ICHFILTER	IQUANT	1	Ich Filter
VCHRANGE	IQUANT	2	Vch Range
VCHRANGEMODE	TOGGLE	T	Vch Auto Range
VCHOFFSETENABLE	TOGGLE	F	Vch Offset Enable
VCHOFFSET	QUANT	0	Vch Offset (V)
VCHFILTER	IQUANT	1	Vch Filter
IERANGELOWERLIMIT	IQUANT	9	I/E Range Lower Limit
IERANGEMODE	TOGGLE	F	I/E AutoRange
IERANGE	IQUANT	9	I/E Range
ACHSELECT	IQUANT	1	Ach Select
ACHRANGE	IQUANT	2	Ach Range
ACHOFFSETENABLE	TOGGLE	F	Ach Offset Enable
ACHOFFSET	QUANT	0	Ach Offset (V)
ACHFILTER	IQUANT	1	Ach Filter
CABLEID	IQUANT	14	Cable ID
DCCALDATE	LABEL	5-7-2017	DC Calibration Date
ACCALDATE	LABEL	12/3/2015	AC Calibration Date
FRAMEWORKVERSION	QUANT	7.01	Framework Version
INSTRUMENTVERSION	LABEL	4.00	Instrument Version
CURVE	TABLE	162
	Pt	T	Vf	Im	Vu	Pwr	Sig	Ach	Temp	IERange	Over
	#	s	V	A	V	W	V	V	deg C	#	bits
	0	0.013333	2.72431E-001	9.09147E-005	0.00000E+000	2.47680E-005	5.39641E-002	2.72480E-001	3.57320E+000	9	...........
	1	0.026667	2.91936E-001	9.07563E-005	0.00000E+000	2.64950E-005	5.39641E-002	2.91978E-001	3.57320E+000	9	...........
	2	0.04	3.10248E-001	9.09637E-005	0.00000E+000	2.82213E-005	5.39641E-002	3.10296E-001	3.57320E+000	9	...........
	3	0.053333	3.27533E-001	9.07772E-005	0.00000E+000	2.97325E-005	5.39641E-002	3.27573E-001	3.57320E+000	9	...........
	4	0.066667	3.43886E-001	9.05438E-005	0.00000E+000	3.11367E-005	5.39641E-002	3.43927E-001	3.57320E+000	9	...........
	5	0.08	3.59404E-001	9.10939E-005	0.00000E+000	3.27395E-005	5.39641E-002	3.59451E-001	3.57320E+000	9	...........
	6	0.093333	3.74155E-001	9.09783E-005	0.00000E+000	3.40400E-005	5.39641E-002	3.74207E-001	3.57320E+000	9	...........
	7	0.106667	3.88202E-001	9.07990E-005	0.00000E+000	3.52483E-005	5.39641E-002	3.88256E-001	3.57320E+000	9	...........
	8	0.12	4.01619E-001	9.09814E-005	0.00000E+000	3.65398E-005	5.39641E-002	4.01674E-001	3.57320E+000	9	...........
	9	0.133333	4.14450E-001	9.10126E-005	0.00000E+000	3.77202E-005	5.39641E-002	4.14511E-001	3.57320E+000	9	...........
	10	0.146667	4.26755E-001	9.08970E-005	0.00000E+000	3.87908E-005	5.39641E-002	4.26819E-001	3.57320E+000	9	...........
	11	0.16	4.38547E-001	9.07761E-005	0.00000E+000	3.98096E-005	5.39641E-002	4.38611E-001	3.57320E+000	9	...........
	12	0.173333	4.49879E-001	9.08178E-005	0.00000E+000	4.08570E-005	5.39641E-002	4.49942E-001	3.57320E+000	9	...........
	13	0.186667	4.60786E-001	9.10470E-005	0.00000E+000	4.19532E-005	5.39641E-002	4.60851E-001	3.57320E+000	9	...........
	14	0.2	4.71290E-001	9.11054E-005	0.00000E+000	4.29370E-005	5.39641E-002	4.71349E-001	3.57320E+000	9	...........
	15	0.213333	4.81421E-001	9.10783E-005	0.00000E+000	4.38470E-005	5.39641E-002	4.81486E-001	3.57320E+000	9	...........
	16	0.226667	4.91207E-001	9.09522E-005	0.00000E+000	4.46763E-005	5.39641E-002	4.91276E-001	3.57320E+000	9	...........
	17	0.24	5.00671E-001	9.10439E-005	0.00000E+000	4.55830E-005	5.39641E-002	5.00740E-001	3.57320E+000	9	...........
	18	0.253333	5.09838E-001	9.10137E-005	0.00000E+000	4.64022E-005	5.39641E-002	5.09913E-001	3.57320E+000	9	...........
	19	0.266667	5.18727E-001	9.09147E-005	0.00000E+000	4.71599E-005	5.39641E-002	5.18801E-001	3.57320E+000	9	...........
	20	0.28	5.27341E-001	9.10241E-005	0.00000E+000	4.80008E-005	5.39641E-002	5.27421E-001	3.57320E+000	9	...........
	21	0.293333	5.35615E-001	9.09553E-005	0.00000E+000	4.87170E-005	5.39641E-002	5.35705E-001	3.57320E+000	9	...........
	22	0.306667	5.43721E-001	9.09845E-005	0.00000E+000	4.94702E-005	5.39641E-002	5.43832E-001	3.57320E+000	9	...........
	23	0.32	5.51600E-001	9.08939E-005	0.00000E+000	5.01371E-005	5.39641E-002	5.51727E-001	3.57320E+000	9	...........
	24	0.333333	5.59296E-001	9.09501E-005	0.00000E+000	5.08680E-005	5.39641E-002	5.59402E-001	3.57320E+000	9	...........
	25	0.346667	5.66847E-001	9.11908E-005	0.00000E+000	5.16913E-005	5.39641E-002	5.66930E-001	3.57320E+000	9	...........
	26	0.36	5.74136E-001	9.12148E-005	0.00000E+000	5.23697E-005	5.39641E-002	5.74226E-001	3.57320E+000	9	...........
	27	0.373333	5.81250E-001	9.10126E-005	0.00000E+000	5.29011E-005	5.39641E-002	5.81338E-001	3.57320E+000	9	...........
	28	0.386667	5.88199E-001	9.09366E-005	0.00000E+000	5.34888E-005	5.39641E-002	5.88295E-001	3.57320E+000	9	...........
	29	0.4	5.94996E-001	9.08574E-005	0.00000E+000	5.40598E-005	5.39641E-002	5.95080E-001	3.57320E+000	9	...........
	30	0.413333	6.01618E-001	9.09147E-005	0.00000E+000	5.46959E-005	5.39641E-002	6.01705E-001	3.57320E+000	9	...........
	31	0.426667	6.08101E-001	9.12377E-005	0.00000E+000	5.54817E-005	5.39641E-002	6.08211E-001	3.57320E+000	9	...........
	32	0.44	6.14472E-001	9.10147E-005	0.00000E+000	5.59260E-005	5.39641E-002	6.14577E-001	3.57320E+000	9	...........
	33	0.453333	6.20702E-001	9.11085E-005	0.00000E+000	5.65512E-005	5.39641E-002	6.20802E-001	3.57320E+000	9	...........
	34	0.466667	6.26808E-001	9.11252E-005	0.00000E+000	5.71180E-005	5.39641E-002	6.26899E-001	3.57320E+000	9	...........
	35	0.48	6.32764E-001	9.11043E-005	0.00000E+000	5.76475E-005	5.39641E-002	6.32851E-001	3.57320E+000	9	...........
	36	0.493333	6.38611E-001	9.09595E-005	0.00000E+000	5.80878E-005	5.39641E-002	6.38727E-001	3.57320E+000	9	...........
	37	0.506667	6.44363E-001	9.12773E-005	0.00000E+000	5.88157E-005	5.39641E-002	6.44466E-001	3.57320E+000	9	...........
	38	0.52	6.49982E-001	9.10481E-005	0.00000E+000	5.91796E-005	5.39641E-002	6.50098E-001	3.57320E+000	9	...........
	39	0.533333	6.55507E-001	9.09876E-005	0.00000E+000	5.96431E-005	5.39641E-002	6.55611E-001	3.57320E+000	9	...........
	40	0.546667	6.60931E-001	9.10553E-005	0.00000E+000	6.01813E-005	5.39641E-002	6.61042E-001	3.57320E+000	9	...........
	41	0.56	6.66293E-001	9.09428E-005	0.00000E+000	6.05945E-005	5.39641E-002	6.66403E-001	3.57320E+000	9	...........
	42	0.573333	6.71530E-001	9.08751E-005	0.00000E+000	6.10253E-005	5.39641E-002	6.71634E-001	3.57320E+000	9	...........
	43	0.586667	6.76677E-001	9.11512E-005	0.00000E+000	6.16799E-005	5.39641E-002	6.76790E-001	3.57320E+000	9	...........
	44	0.6	6.81732E-001	9.11543E-005	0.00000E+000	6.21428E-005	5.39641E-002	6.81863E-001	3.57320E+000	9	...........
	45	0.613333	6.86693E-001	9.08678E-005	0.00000E+000	6.23983E-005	5.39641E-002	6.86863E-001	3.57320E+000	9	...........
	46	0.626667	6.91592E-001	9.10595E-005	0.00000E+000	6.29760E-005	5.39641E-002	6.91758E-001	3.57320E+000	9	...........
	47	0.64	6.96420E-001	9.10804E-005	0.00000E+000	6.34302E-005	5.39641E-002	6.96577E-001	3.57320E+000	9	...........
	48	0.653333	7.01183E-001	9.09689E-005	0.00000E+000	6.37858E-005	5.39641E-002	7.01326E-001	3.57370E+000	9	...........
	49	0.666667	7.05852E-001	9.10533E-005	0.00000E+000	6.42702E-005	5.39641E-002	7.06026E-001	3.57520E+000	9	...........
	50	0.68	7.10460E-001	9.11439E-005	0.00000E+000	6.47541E-005	5.39641E-002	7.10633E-001	3.57520E+000	9	...........
	51	0.693333	7.15016E-001	9.12929E-005	0.00000E+000	6.52759E-005	5.39641E-002	7.15168E-001	3.57520E+000	9	...........
	52	0.706667	7.19556E-001	9.13585E-005	0.00000E+000	6.57376E-005	5.39641E-002	7.19665E-001	3.57520E+000	9	...........
	53	0.72	7.23958E-001	9.08887E-005	0.00000E+000	6.57995E-005	5.39641E-002	7.24099E-001	3.57520E+000	9	...........
	54	0.733333	7.28328E-001	9.09439E-005	0.00000E+000	6.62370E-005	5.39641E-002	7.28474E-001	3.57520E+000	9	...........
	55	0.746667	7.32601E-001	9.12554E-005	0.00000E+000	6.68538E-005	5.39641E-002	7.32773E-001	3.57520E+000	9	...........
	56	0.76	7.36845E-001	9.08491E-005	0.00000E+000	6.69417E-005	5.39641E-002	7.36990E-001	3.57520E+000	9	...........
	57	0.773333	7.41028E-001	9.08678E-005	0.00000E+000	6.73356E-005	5.39641E-002	7.41193E-001	3.57520E+000	9	...........
	58	0.786667	7.45183E-001	9.07501E-005	0.00000E+000	6.76254E-005	5.39641E-002	7.45299E-001	3.57520E+000	9	...........
	59	0.8	7.49255E-001	9.09022E-005	0.00000E+000	6.81089E-005	5.39641E-002	7.49389E-001	3.57520E+000	9	...........
	60	0.813333	7.53299E-001	9.08928E-005	0.00000E+000	6.84694E-005	5.39641E-002	7.53410E-001	3.57520E+000	9	...........
	61	0.826667	7.57278E-001	9.10126E-005	0.00000E+000	6.89218E-005	5.39641E-002	7.57401E-001	3.57520E+000	9	...........
	62	0.84	7.61232E-001	9.10762E-005	0.00000E+000	6.93301E-005	5.39641E-002	7.61364E-001	3.57520E+000	9	...........
	63	0.853333	7.65122E-001	9.07772E-005	0.00000E+000	6.94556E-005	5.39641E-002	7.65260E-001	3.57520E+000	9	...........
	64	0.866667	7.68984E-001	9.09355E-005	0.00000E+000	6.99280E-005	5.39641E-002	7.69145E-001	3.57520E+000	9	...........
	65	0.88	7.72808E-001	9.10658E-005	0.00000E+000	7.03764E-005	5.39641E-002	7.72951E-001	3.57520E+000	9	...........
	66	0.893333	7.76573E-001	9.08126E-005	0.00000E+000	7.05226E-005	5.39641E-002	7.76704E-001	3.57520E+000	9	...........
	67	0.906667	7.80296E-001	9.10189E-005	0.00000E+000	7.10217E-005	5.39641E-002	7.80442E-001	3.57520E+000	9	...........
	68	0.92	7.83986E-001	9.11345E-005	0.00000E+000	7.14482E-005	5.39641E-002	7.84102E-001	3.57520E+000	9	...........
	69	0.933333	7.87605E-001	9.09501E-005	0.00000E+000	7.16328E-005	5.39641E-002	7.87729E-001	3.57520E+000	9	...........
	70	0.946667	7.91156E-001	9.08730E-005	0.00000E+000	7.18948E-005	5.39641E-002	7.91321E-001	3.57520E+000	9	...........
	71	0.96	7.94771E-001	9.08793E-005	0.00000E+000	7.22282E-005	5.39641E-002	7.94888E-001	3.57520E+000	9	...........
	72	0.97333	7.98243E-001	9.12085E-005	0.00000E+000	7.28065E-005	5.39641E-002	7.98376E-001	3.57520E+000	9	...........
	73	0.98667	8.01728E-001	9.11543E-005	0.00000E+000	7.30810E-005	5.39641E-002	8.01867E-001	3.57520E+000	9	...........
	74	1	8.05153E-001	9.11533E-005	0.00000E+000	7.33923E-005	5.39641E-002	8.05332E-001	3.57520E+000	9	...........
	75	1.01333	8.08560E-001	9.10574E-005	0.00000E+000	7.36254E-005	5.39641E-002	8.08723E-001	3.57520E+000	9	...........
	76	1.02667	8.11913E-001	9.11241E-005	0.00000E+000	7.39848E-005	5.39641E-002	8.12075E-001	3.57520E+000	9	...........
	77	1.04	8.15230E-001	9.08230E-005	0.00000E+000	7.40417E-005	5.39641E-002	8.15415E-001	3.57520E+000	9	...........
	78	1.05333	8.18571E-001	9.07365E-005	0.00000E+000	7.42743E-005	5.39641E-002	8.18717E-001	3.57520E+000	9	...........
	79	1.06667	8.21846E-001	9.10387E-005	0.00000E+000	7.48198E-005	5.39641E-002	8.21993E-001	3.57520E+000	9	...........
	80	1.08	8.25054E-001	9.11877E-005	0.00000E+000	7.52347E-005	5.39641E-002	8.25232E-001	3.57520E+000	9	...........
	81	1.09333	8.28239E-001	9.11033E-005	0.00000E+000	7.54553E-005	5.39641E-002	8.28408E-001	3.57520E+000	9	...........
	82	1.10667	8.31399E-001	9.12116E-005	0.00000E+000	7.58332E-005	5.39641E-002	8.31572E-001	3.57520E+000	9	...........
	83	1.12	8.34487E-001	9.08459E-005	0.00000E+000	7.58098E-005	5.39641E-002	8.34688E-001	3.57520E+000	9	...........
	84	1.13333	8.37615E-001	9.09991E-005	0.00000E+000	7.62222E-005	5.39641E-002	8.37786E-001	3.57520E+000	9	...........
	85	1.14667	8.40672E-001	9.09710E-005	0.00000E+000	7.64768E-005	5.39641E-002	8.40866E-001	3.57520E+000	9	...........
	86	1.16	8.43731E-001	9.11793E-005	0.00000E+000	7.69308E-005	5.39641E-002	8.43941E-001	3.57520E+000	9	...........
	87	1.17333	8.46793E-001	9.09783E-005	0.00000E+000	7.70398E-005	5.39641E-002	8.46983E-001	3.57520E+000	9	...........
	88	1.18667	8.49746E-001	9.10491E-005	0.00000E+000	7.73686E-005	5.39641E-002	8.49941E-001	3.57520E+000	9	...........
	89	1.2	8.52699E-001	9.10554E-005	0.00000E+000	7.76428E-005	5.39641E-002	8.52882E-001	3.57520E+000	9	...........
	90	1.21333	8.55614E-001	9.11554E-005	0.00000E+000	7.79938E-005	5.39641E-002	8.55811E-001	3.57520E+000	9	...........
	91	1.22667	8.58521E-001	9.10178E-005	0.00000E+000	7.81408E-005	5.39641E-002	8.58748E-001	3.57520E+000	9	...........
	92	1.24	8.61400E-001	9.09522E-005	0.00000E+000	7.83462E-005	5.39641E-002	8.61567E-001	3.57520E+000	9	...........
	93	1.25333	8.64202E-001	9.09105E-005	0.00000E+000	7.85651E-005	5.39641E-002	8.64402E-001	3.57520E+000	9	...........
	94	1.26667	8.66982E-001	9.10439E-005	0.00000E+000	7.89334E-005	5.39641E-002	8.67198E-001	3.57520E+000	9	...........
	95	1.28	8.69784E-001	9.07740E-005	0.00000E+000	7.89538E-005	5.39641E-002	8.69978E-001	3.57520E+000	9	...........
	96	1.29333	8.72533E-001	9.09303E-005	0.00000E+000	7.93397E-005	5.39641E-002	8.72717E-001	3.57520E+000	9	...........
	97	1.30667	8.75241E-001	9.09084E-005	0.00000E+000	7.95668E-005	5.39641E-002	8.75433E-001	3.57520E+000	9	...........
	98	1.32	8.77925E-001	9.12064E-005	0.00000E+000	8.00724E-005	5.39641E-002	8.78107E-001	3.57520E+000	9	...........
	99	1.33333	8.80576E-001	9.11533E-005	0.00000E+000	8.02674E-005	5.39641E-002	8.80783E-001	3.57520E+000	9	...........
	100	1.34667	8.83228E-001	9.11908E-005	0.00000E+000	8.05423E-005	5.39641E-002	8.83412E-001	3.57520E+000	9	...........
	101	1.36	8.85819E-001	9.08855E-005	0.00000E+000	8.05081E-005	5.39641E-002	8.85997E-001	3.57520E+000	9	...........
	102	1.37333	8.88375E-001	9.08626E-005	0.00000E+000	8.07200E-005	5.39641E-002	8.88575E-001	3.57520E+000	9	...........
	103	1.38667	8.90909E-001	9.07959E-005	0.00000E+000	8.08909E-005	5.39641E-002	8.91112E-001	3.57520E+000	9	...........
	104	1.4	8.93405E-001	9.12200E-005	0.00000E+000	8.14964E-005	5.39641E-002	8.93619E-001	3.57520E+000	9	...........
	105	1.41333	8.95898E-001	9.10970E-005	0.00000E+000	8.16136E-005	5.39641E-002	8.96123E-001	3.57520E+000	9	...........
	106	1.42667	8.98357E-001	9.11887E-005	0.00000E+000	8.19200E-005	5.39641E-002	8.98575E-001	3.57520E+000	9	...........
	107	1.44	9.00797E-001	9.12429E-005	0.00000E+000	8.21913E-005	5.39641E-002	9.01013E-001	3.57520E+000	9	...........
	108	1.45333	9.03206E-001	9.12283E-005	0.00000E+000	8.23980E-005	5.39641E-002	9.03423E-001	3.57520E+000	9	...........
	109	1.46667	9.05591E-001	9.11127E-005	0.00000E+000	8.25108E-005	5.39641E-002	9.05802E-001	3.57520E+000	9	...........
	110	1.48	9.07973E-001	9.12116E-005	0.00000E+000	8.28177E-005	5.39641E-002	9.08174E-001	3.57520E+000	9	...........
	111	1.49333	9.10307E-001	9.11210E-005	0.00000E+000	8.29480E-005	5.39641E-002	9.10509E-001	3.57520E+000	9	...........
	112	1.50667	9.12614E-001	9.08449E-005	0.00000E+000	8.29063E-005	5.39641E-002	9.12827E-001	3.57520E+000	9	...........
	113	1.52	9.14880E-001	9.07751E-005	0.00000E+000	8.30483E-005	5.39641E-002	9.15133E-001	3.57520E+000	9	...........
	114	1.53333	9.17145E-001	9.08876E-005	0.00000E+000	8.33572E-005	5.39641E-002	9.17384E-001	3.57520E+000	9	...........
	115	1.54667	9.19375E-001	9.08230E-005	0.00000E+000	8.35004E-005	5.39641E-002	9.19608E-001	3.57520E+000	9	...........
	116	1.56	9.21636E-001	9.10470E-005	0.00000E+000	8.39122E-005	5.39641E-002	9.21823E-001	3.57520E+000	9	...........
	117	1.57333	9.23815E-001	9.09084E-005	0.00000E+000	8.39826E-005	5.39641E-002	9.24013E-001	3.57520E+000	9	...........
	118	1.58667	9.25977E-001	9.08782E-005	0.00000E+000	8.41512E-005	5.39641E-002	9.26162E-001	3.57520E+000	9	...........
	119	1.6	9.28104E-001	9.08689E-005	0.00000E+000	8.43358E-005	5.39641E-002	9.28304E-001	3.57520E+000	9	...........
	120	1.61333	9.30234E-001	9.09991E-005	0.00000E+000	8.46504E-005	5.39641E-002	9.30403E-001	3.57520E+000	9	...........
	121	1.62667	9.32307E-001	9.10074E-005	0.00000E+000	8.48469E-005	5.39641E-002	9.32500E-001	3.57520E+000	9	...........
	122	1.64	9.34384E-001	9.10793E-005	0.00000E+000	8.51031E-005	5.39641E-002	9.34584E-001	3.57520E+000	9	...........
	123	1.65333	9.36411E-001	9.09439E-005	0.00000E+000	8.51609E-005	5.39641E-002	9.36633E-001	3.57460E+000	9	...........
	124	1.66667	9.38437E-001	9.08730E-005	0.00000E+000	8.52786E-005	5.39641E-002	9.38631E-001	3.57280E+000	9	...........
	125	1.68	9.40441E-001	9.08762E-005	0.00000E+000	8.54637E-005	5.39641E-002	9.40638E-001	3.57280E+000	9	...........
	126	1.69333	9.42431E-001	9.10085E-005	0.00000E+000	8.57692E-005	5.39641E-002	9.42618E-001	3.57280E+000	9	...........
	127	1.70667	9.44370E-001	9.10293E-005	0.00000E+000	8.59654E-005	5.39641E-002	9.44593E-001	3.57280E+000	9	...........
	128	1.72	9.46376E-001	9.09366E-005	0.00000E+000	8.60602E-005	5.39641E-002	9.46554E-001	3.57280E+000	9	...........
	129	1.73333	9.48308E-001	9.09689E-005	0.00000E+000	8.62665E-005	5.39641E-002	9.48499E-001	3.57280E+000	9	...........
	130	1.74667	9.50198E-001	9.09512E-005	0.00000E+000	8.64216E-005	5.39641E-002	9.50373E-001	3.57280E+000	9	...........
	131	1.76	9.52043E-001	9.09189E-005	0.00000E+000	8.65587E-005	5.39641E-002	9.52270E-001	3.57280E+000	9	...........
	132	1.77333	9.53911E-001	9.10147E-005	0.00000E+000	8.68200E-005	5.39641E-002	9.54124E-001	3.57280E+000	9	...........
	133	1.78667	9.55727E-001	9.10751E-005	0.00000E+000	8.70430E-005	5.39641E-002	9.55925E-001	3.57280E+000	9	...........
	134	1.8	9.57560E-001	9.09199E-005	0.00000E+000	8.70613E-005	5.39641E-002	9.57764E-001	3.57280E+000	9	...........
	135	1.81333	9.59356E-001	9.09772E-005	0.00000E+000	8.72795E-005	5.39641E-002	9.59564E-001	3.57280E+000	9	...........
	136	1.82667	9.61095E-001	9.11470E-005	0.00000E+000	8.76010E-005	5.39641E-002	9.61326E-001	3.57280E+000	9	...........
	137	1.84	9.62869E-001	9.10772E-005	0.00000E+000	8.76954E-005	5.39641E-002	9.63089E-001	3.57280E+000	9	...........
	138	1.85333	9.64603E-001	9.10397E-005	0.00000E+000	8.78172E-005	5.39641E-002	9.64825E-001	3.57280E+000	9	...........
	139	1.86667	9.66332E-001	9.12773E-005	0.00000E+000	8.82042E-005	5.39641E-002	9.66554E-001	3.57280E+000	9	...........
	140	1.88	9.68022E-001	9.07720E-005	0.00000E+000	8.78692E-005	5.39641E-002	9.68230E-001	3.57280E+000	9	...........
	141	1.89333	9.69707E-001	9.10804E-005	0.00000E+000	8.83213E-005	5.39641E-002	9.69904E-001	3.57280E+000	9	...........
	142	1.90667	9.71375E-001	9.12012E-005	0.00000E+000	8.85906E-005	5.39641E-002	9.71603E-001	3.57280E+000	9	...........
	143	1.92	9.73082E-001	9.11335E-005	0.00000E+000	8.86804E-005	5.39641E-002	9.73246E-001	3.57280E+000	9	...........
	144	1.93333	9.74719E-001	9.09824E-005	0.00000E+000	8.86823E-005	5.39641E-002	9.74886E-001	3.57280E+000	9	...........
	145	1.94667	9.76350E-001	9.11325E-005	0.00000E+000	8.89772E-005	5.39641E-002	9.76505E-001	3.57280E+000	9	...........
	146	1.96	9.77920E-001	9.10835E-005	0.00000E+000	8.90724E-005	5.39641E-002	9.78114E-001	3.57280E+000	9	...........
	147	1.97333	9.79540E-001	9.09116E-005	0.00000E+000	8.90515E-005	5.39641E-002	9.79676E-001	3.57280E+000	9	...........
	148	1.98667	9.81069E-001	9.11345E-005	0.00000E+000	8.94093E-005	5.39641E-002	9.81236E-001	3.57280E+000	9	...........
	149	2	9.82611E-001	9.13033E-005	0.00000E+000	8.97156E-005	5.39641E-002	9.82764E-001	3.57280E+000	9	...........
	150	2.01333	9.84134E-001	9.08907E-005	0.00000E+000	8.94487E-005	5.39641E-002	9.84330E-001	3.57280E+000	9	...........
	151	2.02667	9.85677E-001	9.09126E-005	0.00000E+000	8.96105E-005	5.39641E-002	9.85854E-001	3.57280E+000	9	...........
	152	2.04	9.87176E-001	9.09793E-005	0.00000E+000	8.98126E-005	5.39641E-002	9.87376E-001	3.57280E+000	9	...........
	153	2.05333	9.88671E-001	9.09220E-005	0.00000E+000	8.98919E-005	5.39641E-002	9.88867E-001	3.57280E+000	9	...........
	154	2.06667	9.90137E-001	9.10241E-005	0.00000E+000	9.01264E-005	5.39641E-002	9.90349E-001	3.57280E+000	9	...........
	155	2.08	9.91562E-001	9.09480E-005	0.00000E+000	9.01806E-005	5.39641E-002	9.91770E-001	3.57280E+000	9	...........
	156	2.09333	9.92962E-001	9.09855E-005	0.00000E+000	9.03452E-005	5.39641E-002	9.93205E-001	3.57280E+000	9	...........
	157	2.10667	9.94389E-001	9.11335E-005	0.00000E+000	9.06221E-005	5.39641E-002	9.94616E-001	3.57280E+000	9	...........
	158	2.12	9.95813E-001	9.09449E-005	0.00000E+000	9.05642E-005	5.39641E-002	9.96029E-001	3.57280E+000	9	...........
	159	2.13333	9.97204E-001	9.09960E-005	0.00000E+000	9.07415E-005	5.39641E-002	9.97445E-001	3.57280E+000	9	...........
	160	2.14667	9.98599E-001	9.08407E-005	0.00000E+000	9.07135E-005	5.39641E-002	9.98826E-001	3.57280E+000	9	...........
	161	2.155	9.99706E-001	9.14061E-005	0.00000E+000	9.13792E-005	5.39641E-002	9.99921E-001	3.57280E+000	9	...........
STARTTIMEOFFSET	QUANT	3891.369	Start Time Offset (s)
