EXPLAIN
TAG	PWR800_CHARGE
TITLE	LABEL	PWR Cyclic Charge Discharge (Cell) - Charge Step	Test &Identifier
DATE	LABEL	10-7-2017	Date
TIME	LABEL	16:18:29	Time
NOTES	NOTES	3	&Notes...
	supercap test cell
	0.9mg
	6M KOH
PSTAT	PSTAT	IFC5000-01520	Potentiostat
CAPACITY	QUANT	1.00000E-003	Capacity (A-hr)
CELLTYPE	SELECTOR	1	&Cell Type
WORKINGCONNECTION	SELECTOR	0	&Working Lead
MAXCHARGETIME	VARIABLEANDUNITS	1.00000E+002	s	1.00000E+002	second(s)	Max &Charge Time
CHARGECURRENT	QUANT	9.00000E-005	&Charge Current (A) 
VOLTAGEFINISH	TWOPARAM	F	1.00000E-003	3.60000E+003	&Voltage Finish	 I (A) < 	Max Time(s)
SAMPLETIME	QUANT	1.00000E-002	Sa&mple Period (s)
CHARGESTOPAT1	MULTIPARAM	4	1.00000E+000	Charge Stop At &1	Voltage > Limit	V
CHARGESTOPAT2	MULTIPARAM	0	0.00000E+000	Charge Stop At &2	None	N/A
AESBHCSELECTOR	TOGGLE	F	Save Both Half Cells
IRCOMP	TOGGLE	F	IR &Measure
EOC	QUANT	0	Open Circuit (V)
SEQUENCER	TOGGLE	TRUE	Run as Sequence
PSTATMODEL	IQUANT	53	Pstat Model
PSTATSECTION	LABEL	IFC5000-01520	Pstat Section
PSTATSERIALNO	LABEL	01520	Pstat Serial Number
CTRLMODE	IQUANT	0	Control Mode
ELECTROMETER	IQUANT	1	RE=0 or CS=1
IESTAB	IQUANT	0	I/E Stability
CASPEED	IQUANT	4	Control Amp Speed
CONVENTION	IQUANT	1	Current Convention
ICHRANGE	IQUANT	2	Ich Range
ICHRANGEMODE	TOGGLE	T	Ich Auto Range
ICHOFFSETENABLE	TOGGLE	F	Ich Offset Enable
ICHOFFSET	QUANT	0	Ich Offset (V)
ICHFILTER	IQUANT	1	Ich Filter
VCHRANGE	IQUANT	2	Vch Range
VCHRANGEMODE	TOGGLE	T	Vch Auto Range
VCHOFFSETENABLE	TOGGLE	F	Vch Offset Enable
VCHOFFSET	QUANT	0	Vch Offset (V)
VCHFILTER	IQUANT	1	Vch Filter
IERANGELOWERLIMIT	IQUANT	9	I/E Range Lower Limit
IERANGEMODE	TOGGLE	F	I/E AutoRange
IERANGE	IQUANT	9	I/E Range
ACHSELECT	IQUANT	1	Ach Select
ACHRANGE	IQUANT	2	Ach Range
ACHOFFSETENABLE	TOGGLE	F	Ach Offset Enable
ACHOFFSET	QUANT	0	Ach Offset (V)
ACHFILTER	IQUANT	1	Ach Filter
CABLEID	IQUANT	14	Cable ID
DCCALDATE	LABEL	5-7-2017	DC Calibration Date
ACCALDATE	LABEL	12/3/2015	AC Calibration Date
FRAMEWORKVERSION	QUANT	7.01	Framework Version
INSTRUMENTVERSION	LABEL	4.00	Instrument Version
CURVE	TABLE	162
	Pt	T	Vf	Im	Vu	Pwr	Sig	Ach	Temp	IERange	Over
	#	s	V	A	V	W	V	V	deg C	#	bits
	0	0.013333	2.58250E-001	9.08386E-005	0.00000E+000	2.34590E-005	5.39641E-002	2.58280E-001	3.57320E+000	9	...........
	1	0.026667	2.78107E-001	9.09772E-005	0.00000E+000	2.53014E-005	5.39641E-002	2.78145E-001	3.57320E+000	9	...........
	2	0.04	2.96798E-001	9.08907E-005	0.00000E+000	2.69762E-005	5.39641E-002	2.96837E-001	3.57320E+000	9	...........
	3	0.053333	3.14477E-001	9.09991E-005	0.00000E+000	2.86171E-005	5.39641E-002	3.14519E-001	3.57320E+000	9	...........
	4	0.066667	3.31242E-001	9.09543E-005	0.00000E+000	3.01279E-005	5.39641E-002	3.31291E-001	3.57320E+000	9	...........
	5	0.08	3.47181E-001	9.08793E-005	0.00000E+000	3.15516E-005	5.39641E-002	3.47225E-001	3.57320E+000	9	...........
	6	0.093333	3.62350E-001	9.10512E-005	0.00000E+000	3.29924E-005	5.39641E-002	3.62401E-001	3.57320E+000	9	...........
	7	0.106667	3.76812E-001	9.10158E-005	0.00000E+000	3.42958E-005	5.39641E-002	3.76867E-001	3.57320E+000	9	...........
	8	0.12	3.90618E-001	9.09647E-005	0.00000E+000	3.55325E-005	5.39641E-002	3.90672E-001	3.57320E+000	9	...........
	9	0.133333	4.03817E-001	9.10814E-005	0.00000E+000	3.67802E-005	5.39641E-002	4.03871E-001	3.57320E+000	9	...........
	10	0.146667	4.16448E-001	9.09647E-005	0.00000E+000	3.78821E-005	5.39641E-002	4.16513E-001	3.57320E+000	9	...........
	11	0.16	4.28588E-001	9.06386E-005	0.00000E+000	3.88466E-005	5.39641E-002	4.28642E-001	3.57320E+000	9	...........
	12	0.173333	4.40255E-001	9.10022E-005	0.00000E+000	4.00642E-005	5.39641E-002	4.40315E-001	3.57320E+000	9	...........
	13	0.186667	4.51484E-001	9.09262E-005	0.00000E+000	4.10517E-005	5.39641E-002	4.51550E-001	3.57320E+000	9	...........
	14	0.2	4.62291E-001	9.11262E-005	0.00000E+000	4.21268E-005	5.39641E-002	4.62352E-001	3.57320E+000	9	...........
	15	0.213333	4.72703E-001	9.09814E-005	0.00000E+000	4.30072E-005	5.39641E-002	4.72771E-001	3.57320E+000	9	...........
	16	0.226667	4.82767E-001	9.05480E-005	0.00000E+000	4.37136E-005	5.39641E-002	4.82827E-001	3.57320E+000	9	...........
	17	0.24	4.92489E-001	9.09189E-005	0.00000E+000	4.47766E-005	5.39641E-002	4.92556E-001	3.57320E+000	9	...........
	18	0.253333	5.01903E-001	9.11783E-005	0.00000E+000	4.57626E-005	5.39641E-002	5.01972E-001	3.57320E+000	9	...........
	19	0.266667	5.11016E-001	9.09147E-005	0.00000E+000	4.64589E-005	5.39641E-002	5.11090E-001	3.57320E+000	9	...........
	20	0.28	5.19850E-001	9.09262E-005	0.00000E+000	4.72679E-005	5.39641E-002	5.19924E-001	3.57320E+000	9	...........
	21	0.293333	5.28417E-001	9.09585E-005	0.00000E+000	4.80640E-005	5.39641E-002	5.28492E-001	3.57320E+000	9	...........
	22	0.306667	5.36655E-001	9.09981E-005	0.00000E+000	4.88346E-005	5.39641E-002	5.36769E-001	3.57320E+000	9	...........
	23	0.32	5.44773E-001	9.10272E-005	0.00000E+000	4.95891E-005	5.39641E-002	5.44865E-001	3.57320E+000	9	...........
	24	0.333333	5.52636E-001	9.08511E-005	0.00000E+000	5.02076E-005	5.39641E-002	5.52745E-001	3.57320E+000	9	...........
	25	0.346667	5.60304E-001	9.09209E-005	0.00000E+000	5.09433E-005	5.39641E-002	5.60426E-001	3.57320E+000	9	...........
	26	0.36	5.67828E-001	9.10658E-005	0.00000E+000	5.17096E-005	5.39641E-002	5.67931E-001	3.57320E+000	9	...........
	27	0.373333	5.75109E-001	9.09658E-005	0.00000E+000	5.23152E-005	5.39641E-002	5.75213E-001	3.57320E+000	9	...........
	28	0.386667	5.82210E-001	9.10626E-005	0.00000E+000	5.30176E-005	5.39641E-002	5.82342E-001	3.57320E+000	9	...........
	29	0.4	5.89167E-001	9.08407E-005	0.00000E+000	5.35203E-005	5.39641E-002	5.89308E-001	3.57320E+000	9	...........
	30	0.413333	5.95963E-001	9.08991E-005	0.00000E+000	5.41725E-005	5.39641E-002	5.96091E-001	3.57320E+000	9	...........
	31	0.426667	6.02578E-001	9.09574E-005	0.00000E+000	5.48089E-005	5.39641E-002	6.02725E-001	3.57320E+000	9	...........
	32	0.44	6.09039E-001	9.09699E-005	0.00000E+000	5.54042E-005	5.39641E-002	6.09202E-001	3.57320E+000	9	...........
	33	0.453333	6.15460E-001	9.11064E-005	0.00000E+000	5.60724E-005	5.39641E-002	6.15569E-001	3.57320E+000	9	...........
	34	0.466667	6.21695E-001	9.10991E-005	0.00000E+000	5.66359E-005	5.39641E-002	6.21769E-001	3.57320E+000	9	...........
	35	0.48	6.27783E-001	9.09595E-005	0.00000E+000	5.71029E-005	5.39641E-002	6.27903E-001	3.57320E+000	9	...........
	36	0.493333	6.33739E-001	9.10283E-005	0.00000E+000	5.76882E-005	5.39641E-002	6.33863E-001	3.57320E+000	9	...........
	37	0.506667	6.39595E-001	9.11345E-005	0.00000E+000	5.82892E-005	5.39641E-002	6.39712E-001	3.57320E+000	9	...........
	38	0.52	6.45341E-001	9.09137E-005	0.00000E+000	5.86703E-005	5.39641E-002	6.45448E-001	3.57320E+000	9	...........
	39	0.533333	6.50954E-001	9.09668E-005	0.00000E+000	5.92152E-005	5.39641E-002	6.51063E-001	3.57320E+000	9	...........
	40	0.546667	6.56477E-001	9.09168E-005	0.00000E+000	5.96847E-005	5.39641E-002	6.56572E-001	3.57320E+000	9	...........
	41	0.56	6.61891E-001	9.08668E-005	0.00000E+000	6.01439E-005	5.39641E-002	6.62000E-001	3.57320E+000	9	...........
	42	0.573333	6.67268E-001	9.09043E-005	0.00000E+000	6.06575E-005	5.39641E-002	6.67368E-001	3.57320E+000	9	...........
	43	0.586667	6.72505E-001	9.12179E-005	0.00000E+000	6.13445E-005	5.39641E-002	6.72612E-001	3.57320E+000	9	...........
	44	0.6	6.77676E-001	9.06230E-005	0.00000E+000	6.14130E-005	5.39641E-002	6.77767E-001	3.57320E+000	9	...........
	45	0.613333	6.82710E-001	9.10991E-005	0.00000E+000	6.21943E-005	5.39641E-002	6.82808E-001	3.57320E+000	9	...........
	46	0.626667	6.87683E-001	9.12992E-005	0.00000E+000	6.27849E-005	5.39641E-002	6.87794E-001	3.57320E+000	9	...........
	47	0.64	6.92612E-001	9.08126E-005	0.00000E+000	6.28979E-005	5.39641E-002	6.92729E-001	3.57320E+000	9	...........
	48	0.653333	6.97438E-001	9.10772E-005	0.00000E+000	6.35207E-005	5.39641E-002	6.97565E-001	3.57320E+000	9	...........
	49	0.666667	7.02197E-001	9.09460E-005	0.00000E+000	6.38620E-005	5.39641E-002	7.02324E-001	3.57320E+000	9	...........
	50	0.68	7.06884E-001	9.13283E-005	0.00000E+000	6.45585E-005	5.39641E-002	7.07029E-001	3.57320E+000	9	...........
	51	0.693333	7.11506E-001	9.10710E-005	0.00000E+000	6.47975E-005	5.39641E-002	7.11644E-001	3.57320E+000	9	...........
	52	0.706667	7.16065E-001	9.06824E-005	0.00000E+000	6.49345E-005	5.39641E-002	7.16215E-001	3.57320E+000	9	...........
	53	0.72	7.20580E-001	9.10303E-005	0.00000E+000	6.55947E-005	5.39641E-002	7.20704E-001	3.57320E+000	9	...........
	54	0.733333	7.25023E-001	9.10908E-005	0.00000E+000	6.60429E-005	5.39641E-002	7.25155E-001	3.57320E+000	9	...........
	55	0.746667	7.29374E-001	9.09918E-005	0.00000E+000	6.63670E-005	5.39641E-002	7.29525E-001	3.57320E+000	9	...........
	56	0.76	7.33700E-001	9.08939E-005	0.00000E+000	6.66888E-005	5.39641E-002	7.33845E-001	3.57320E+000	9	...........
	57	0.773333	7.37967E-001	9.11095E-005	0.00000E+000	6.72358E-005	5.39641E-002	7.38104E-001	3.57320E+000	9	...........
	58	0.786667	7.42192E-001	9.08709E-005	0.00000E+000	6.74437E-005	5.39641E-002	7.42341E-001	3.57320E+000	9	...........
	59	0.8	7.46345E-001	9.09491E-005	0.00000E+000	6.78794E-005	5.39641E-002	7.46499E-001	3.57389E+000	9	...........
	60	0.813333	7.50443E-001	9.07074E-005	0.00000E+000	6.80707E-005	5.39641E-002	7.50599E-001	3.57430E+000	9	...........
	61	0.826667	7.54488E-001	9.10064E-005	0.00000E+000	6.86632E-005	5.39641E-002	7.54645E-001	3.57430E+000	9	...........
	62	0.84	7.58487E-001	9.09845E-005	0.00000E+000	6.90105E-005	5.39641E-002	7.58629E-001	3.57430E+000	9	...........
	63	0.853333	7.62414E-001	9.09043E-005	0.00000E+000	6.93067E-005	5.39641E-002	7.62572E-001	3.57430E+000	9	...........
	64	0.866667	7.66295E-001	9.12429E-005	0.00000E+000	6.99189E-005	5.39641E-002	7.66475E-001	3.57430E+000	9	...........
	65	0.88	7.70155E-001	9.08741E-005	0.00000E+000	6.99871E-005	5.39641E-002	7.70309E-001	3.57430E+000	9	...........
	66	0.893333	7.73971E-001	9.10366E-005	0.00000E+000	7.04597E-005	5.39641E-002	7.74122E-001	3.57430E+000	9	...........
	67	0.906667	7.77713E-001	9.09960E-005	0.00000E+000	7.07687E-005	5.39641E-002	7.77892E-001	3.57430E+000	9	...........
	68	0.92	7.81454E-001	9.10512E-005	0.00000E+000	7.11523E-005	5.39641E-002	7.81616E-001	3.57430E+000	9	...........
	69	0.933333	7.85119E-001	9.11845E-005	0.00000E+000	7.15907E-005	5.39641E-002	7.85265E-001	3.57430E+000	9	...........
	70	0.946667	7.88753E-001	9.11074E-005	0.00000E+000	7.18613E-005	5.39641E-002	7.88901E-001	3.57430E+000	9	...........
	71	0.96	7.92411E-001	9.11679E-005	0.00000E+000	7.22424E-005	5.39641E-002	7.92546E-001	3.57430E+000	9	...........
	72	0.97333	7.96031E-001	9.12564E-005	0.00000E+000	7.26429E-005	5.39641E-002	7.96142E-001	3.57430E+000	9	...........
	73	0.98667	7.99543E-001	9.10647E-005	0.00000E+000	7.28102E-005	5.39641E-002	7.99647E-001	3.57430E+000	9	...........
	74	1	8.03018E-001	9.10210E-005	0.00000E+000	7.30915E-005	5.39641E-002	8.03117E-001	3.57430E+000	9	...........
	75	1.01333	8.06479E-001	9.10720E-005	0.00000E+000	7.34477E-005	5.39641E-002	8.06598E-001	3.57430E+000	9	...........
	76	1.02667	8.09863E-001	9.14565E-005	0.00000E+000	7.40672E-005	5.39641E-002	8.10022E-001	3.57430E+000	9	...........
	77	1.04	8.13224E-001	9.08928E-005	0.00000E+000	7.39163E-005	5.39641E-002	8.13386E-001	3.57430E+000	9	...........
	78	1.05333	8.16561E-001	9.08116E-005	0.00000E+000	7.41531E-005	5.39641E-002	8.16741E-001	3.57430E+000	9	...........
	79	1.06667	8.19924E-001	9.10449E-005	0.00000E+000	7.46500E-005	5.39641E-002	8.20091E-001	3.57430E+000	9	...........
	80	1.08	8.23174E-001	9.11377E-005	0.00000E+000	7.50222E-005	5.39641E-002	8.23376E-001	3.57430E+000	9	...........
	81	1.09333	8.26407E-001	9.07438E-005	0.00000E+000	7.49913E-005	5.39641E-002	8.26583E-001	3.57430E+000	9	...........
	82	1.10667	8.29603E-001	9.09772E-005	0.00000E+000	7.54750E-005	5.39641E-002	8.29801E-001	3.57430E+000	9	...........
	83	1.12	8.32798E-001	9.11064E-005	0.00000E+000	7.58732E-005	5.39641E-002	8.32986E-001	3.57430E+000	9	...........
	84	1.13333	8.35913E-001	9.09949E-005	0.00000E+000	7.60638E-005	5.39641E-002	8.36123E-001	3.57430E+000	9	...........
	85	1.14667	8.39050E-001	9.10699E-005	0.00000E+000	7.64123E-005	5.39641E-002	8.39227E-001	3.57430E+000	9	...........
	86	1.16	8.42109E-001	9.10241E-005	0.00000E+000	7.66522E-005	5.39641E-002	8.42282E-001	3.57430E+000	9	...........
	87	1.17333	8.45200E-001	9.10251E-005	0.00000E+000	7.69345E-005	5.39641E-002	8.45362E-001	3.57430E+000	9	...........
	88	1.18667	8.48195E-001	9.12669E-005	0.00000E+000	7.74121E-005	5.39641E-002	8.48387E-001	3.57430E+000	9	...........
	89	1.2	8.51180E-001	9.10699E-005	0.00000E+000	7.75169E-005	5.39641E-002	8.51354E-001	3.57430E+000	9	...........
	90	1.21333	8.54107E-001	9.10053E-005	0.00000E+000	7.77283E-005	5.39641E-002	8.54266E-001	3.57430E+000	9	...........
	91	1.22667	8.57032E-001	9.10501E-005	0.00000E+000	7.80329E-005	5.39641E-002	8.57182E-001	3.57430E+000	9	...........
	92	1.24	8.59919E-001	9.10095E-005	0.00000E+000	7.82608E-005	5.39641E-002	8.60067E-001	3.57430E+000	9	...........
	93	1.25333	8.62788E-001	9.08887E-005	0.00000E+000	7.84176E-005	5.39641E-002	8.62966E-001	3.57430E+000	9	...........
	94	1.26667	8.65594E-001	9.09064E-005	0.00000E+000	7.86880E-005	5.39641E-002	8.65796E-001	3.57430E+000	9	...........
	95	1.28	8.68441E-001	9.11002E-005	0.00000E+000	7.91151E-005	5.39641E-002	8.68618E-001	3.57430E+000	9	...........
	96	1.29333	8.71246E-001	9.10262E-005	0.00000E+000	7.93062E-005	5.39641E-002	8.71429E-001	3.57430E+000	9	...........
	97	1.30667	8.73983E-001	9.07928E-005	0.00000E+000	7.93514E-005	5.39641E-002	8.74177E-001	3.57430E+000	9	...........
	98	1.32	8.76718E-001	9.09616E-005	0.00000E+000	7.97477E-005	5.39641E-002	8.76907E-001	3.57430E+000	9	...........
	99	1.33333	8.79399E-001	9.12033E-005	0.00000E+000	8.02041E-005	5.39641E-002	8.79574E-001	3.57430E+000	9	...........
	100	1.34667	8.82056E-001	9.09981E-005	0.00000E+000	8.02654E-005	5.39641E-002	8.82229E-001	3.57430E+000	9	...........
	101	1.36	8.84707E-001	9.11439E-005	0.00000E+000	8.06357E-005	5.39641E-002	8.84902E-001	3.57430E+000	9	...........
	102	1.37333	8.87306E-001	9.10251E-005	0.00000E+000	8.07671E-005	5.39641E-002	8.87499E-001	3.57430E+000	9	...........
	103	1.38667	8.89878E-001	9.08459E-005	0.00000E+000	8.08418E-005	5.39641E-002	8.90063E-001	3.57430E+000	9	...........
	104	1.4	8.92420E-001	9.11585E-005	0.00000E+000	8.13517E-005	5.39641E-002	8.92590E-001	3.57430E+000	9	...........
	105	1.41333	8.94950E-001	9.08272E-005	0.00000E+000	8.12858E-005	5.39641E-002	8.95113E-001	3.57430E+000	9	...........
	106	1.42667	8.97452E-001	9.10335E-005	0.00000E+000	8.16982E-005	5.39641E-002	8.97613E-001	3.57430E+000	9	...........
	107	1.44	8.99912E-001	9.09637E-005	0.00000E+000	8.18593E-005	5.39641E-002	9.00089E-001	3.57430E+000	9	...........
	108	1.45333	9.02357E-001	9.10887E-005	0.00000E+000	8.21946E-005	5.39641E-002	9.02554E-001	3.57430E+000	9	...........
	109	1.46667	9.04766E-001	9.12023E-005	0.00000E+000	8.25167E-005	5.39641E-002	9.04989E-001	3.57430E+000	9	...........
	110	1.48	9.07179E-001	9.08657E-005	0.00000E+000	8.24315E-005	5.39641E-002	9.07394E-001	3.57430E+000	9	...........
	111	1.49333	9.09560E-001	9.10647E-005	0.00000E+000	8.28288E-005	5.39641E-002	9.09773E-001	3.57430E+000	9	...........
	112	1.50667	9.11921E-001	9.10699E-005	0.00000E+000	8.30486E-005	5.39641E-002	9.12117E-001	3.57430E+000	9	...........
	113	1.52	9.14219E-001	9.08699E-005	0.00000E+000	8.30750E-005	5.39641E-002	9.14448E-001	3.57430E+000	9	...........
	114	1.53333	9.16504E-001	9.10178E-005	0.00000E+000	8.34182E-005	5.39641E-002	9.16727E-001	3.57430E+000	9	...........
	115	1.54667	9.18745E-001	9.09543E-005	0.00000E+000	8.35638E-005	5.39641E-002	9.18973E-001	3.57430E+000	9	...........
	116	1.56	9.21023E-001	9.10189E-005	0.00000E+000	8.38305E-005	5.39641E-002	9.21227E-001	3.57430E+000	9	...........
	117	1.57333	9.23258E-001	9.09189E-005	0.00000E+000	8.39415E-005	5.39641E-002	9.23437E-001	3.57430E+000	9	...........
	118	1.58667	9.25461E-001	9.10606E-005	0.00000E+000	8.42730E-005	5.39641E-002	9.25624E-001	3.57430E+000	9	...........
	119	1.6	9.27621E-001	9.08709E-005	0.00000E+000	8.42938E-005	5.39641E-002	9.27794E-001	3.57430E+000	9	...........
	120	1.61333	9.29765E-001	9.10418E-005	0.00000E+000	8.46475E-005	5.39641E-002	9.29929E-001	3.57430E+000	9	...........
	121	1.62667	9.31875E-001	9.07980E-005	0.00000E+000	8.46124E-005	5.39641E-002	9.32033E-001	3.57430E+000	9	...........
	122	1.64	9.33959E-001	9.12106E-005	0.00000E+000	8.51870E-005	5.39641E-002	9.34140E-001	3.57430E+000	9	...........
	123	1.65333	9.36042E-001	9.10220E-005	0.00000E+000	8.52005E-005	5.39641E-002	9.36219E-001	3.57430E+000	9	...........
	124	1.66667	9.38099E-001	9.10554E-005	0.00000E+000	8.54190E-005	5.39641E-002	9.38257E-001	3.57430E+000	9	...........
	125	1.68	9.40099E-001	9.12231E-005	0.00000E+000	8.57587E-005	5.39641E-002	9.40283E-001	3.57430E+000	9	...........
	126	1.69333	9.42102E-001	9.09689E-005	0.00000E+000	8.57020E-005	5.39641E-002	9.42263E-001	3.57430E+000	9	...........
	127	1.70667	9.44068E-001	9.08199E-005	0.00000E+000	8.57401E-005	5.39641E-002	9.44273E-001	3.57430E+000	9	...........
	128	1.72	9.46070E-001	9.08991E-005	0.00000E+000	8.59969E-005	5.39641E-002	9.46284E-001	3.57430E+000	9	...........
	129	1.73333	9.48056E-001	9.12085E-005	0.00000E+000	8.64707E-005	5.39641E-002	9.48250E-001	3.57430E+000	9	...........
	130	1.74667	9.49979E-001	9.11356E-005	0.00000E+000	8.65769E-005	5.39641E-002	9.50173E-001	3.57430E+000	9	...........
	131	1.76	9.51872E-001	9.09585E-005	0.00000E+000	8.65808E-005	5.39641E-002	9.52070E-001	3.57430E+000	9	...........
	132	1.77333	9.53774E-001	9.09407E-005	0.00000E+000	8.67369E-005	5.39641E-002	9.53954E-001	3.57430E+000	9	...........
	133	1.78667	9.55651E-001	9.09532E-005	0.00000E+000	8.69196E-005	5.39641E-002	9.55828E-001	3.57430E+000	9	...........
	134	1.8	9.57458E-001	9.08428E-005	0.00000E+000	8.69782E-005	5.39641E-002	9.57670E-001	3.57336E+000	9	...........
	135	1.81333	9.59270E-001	9.10460E-005	0.00000E+000	8.73376E-005	5.39641E-002	9.59478E-001	3.57280E+000	9	...........
	136	1.82667	9.61049E-001	9.07949E-005	0.00000E+000	8.72583E-005	5.39641E-002	9.61260E-001	3.57280E+000	9	...........
	137	1.84	9.62836E-001	9.10345E-005	0.00000E+000	8.76513E-005	5.39641E-002	9.63021E-001	3.57280E+000	9	...........
	138	1.85333	9.64559E-001	9.09387E-005	0.00000E+000	8.77157E-005	5.39641E-002	9.64788E-001	3.57280E+000	9	...........
	139	1.86667	9.66300E-001	9.11314E-005	0.00000E+000	8.80603E-005	5.39641E-002	9.66493E-001	3.57280E+000	9	...........
	140	1.88	9.67985E-001	9.12168E-005	0.00000E+000	8.82966E-005	5.39641E-002	9.68201E-001	3.57280E+000	9	...........
	141	1.89333	9.69700E-001	9.09949E-005	0.00000E+000	8.82378E-005	5.39641E-002	9.69936E-001	3.57280E+000	9	...........
	142	1.90667	9.71367E-001	9.12523E-005	0.00000E+000	8.86394E-005	5.39641E-002	9.71639E-001	3.57280E+000	9	...........
	143	1.92	9.73111E-001	9.09012E-005	0.00000E+000	8.84569E-005	5.39641E-002	9.73295E-001	3.57280E+000	9	...........
	144	1.93333	9.74774E-001	9.10303E-005	0.00000E+000	8.87340E-005	5.39641E-002	9.74955E-001	3.57280E+000	9	...........
	145	1.94667	9.76377E-001	9.07907E-005	0.00000E+000	8.86460E-005	5.39641E-002	9.76586E-001	3.57280E+000	9	...........
	146	1.96	9.77997E-001	9.08897E-005	0.00000E+000	8.88898E-005	5.39641E-002	9.78185E-001	3.57280E+000	9	...........
	147	1.97333	9.79621E-001	9.09376E-005	0.00000E+000	8.90844E-005	5.39641E-002	9.79770E-001	3.57280E+000	9	...........
	148	1.98667	9.81158E-001	9.10408E-005	0.00000E+000	8.93254E-005	5.39641E-002	9.81341E-001	3.57280E+000	9	...........
	149	2	9.82708E-001	9.13002E-005	0.00000E+000	8.97215E-005	5.39641E-002	9.82899E-001	3.57280E+000	9	...........
	150	2.01333	9.84245E-001	9.08803E-005	0.00000E+000	8.94485E-005	5.39641E-002	9.84447E-001	3.57280E+000	9	...........
	151	2.02667	9.85768E-001	9.10001E-005	0.00000E+000	8.97050E-005	5.39641E-002	9.85987E-001	3.57280E+000	9	...........
	152	2.04	9.87274E-001	9.12575E-005	0.00000E+000	9.00961E-005	5.39641E-002	9.87495E-001	3.57280E+000	9	...........
	153	2.05333	9.88774E-001	9.10241E-005	0.00000E+000	9.00023E-005	5.39641E-002	9.88974E-001	3.57280E+000	9	...........
	154	2.06667	9.90276E-001	9.09647E-005	0.00000E+000	9.00802E-005	5.39641E-002	9.90465E-001	3.57280E+000	9	...........
	155	2.08	9.91724E-001	9.10595E-005	0.00000E+000	9.03059E-005	5.39641E-002	9.91912E-001	3.57280E+000	9	...........
	156	2.09333	9.93152E-001	9.09845E-005	0.00000E+000	9.03615E-005	5.39641E-002	9.93361E-001	3.57280E+000	9	...........
	157	2.10667	9.94592E-001	9.08480E-005	0.00000E+000	9.03567E-005	5.39641E-002	9.94750E-001	3.57280E+000	9	...........
	158	2.12	9.95996E-001	9.08022E-005	0.00000E+000	9.04386E-005	5.39641E-002	9.96147E-001	3.57280E+000	9	...........
	159	2.13333	9.97359E-001	9.07657E-005	0.00000E+000	9.05260E-005	5.39641E-002	9.97550E-001	3.57280E+000	9	...........
	160	2.14667	9.98772E-001	9.11720E-005	0.00000E+000	9.10601E-005	5.39641E-002	9.98954E-001	3.57280E+000	9	...........
	161	2.15333	9.99796E-001	9.10251E-005	0.00000E+000	9.10066E-005	5.39641E-002	9.99980E-001	3.57280E+000	9	...........
STARTTIMEOFFSET	QUANT	3985.854	Start Time Offset (s)
