EXPLAIN
TAG	PWR800_CHARGE
TITLE	LABEL	PWR Cyclic Charge Discharge (Cell) - Charge Step	Test &Identifier
DATE	LABEL	10-7-2017	Date
TIME	LABEL	15:40:59	Time
NOTES	NOTES	3	&Notes...
	supercap test cell
	0.9mg
	6M KOH
PSTAT	PSTAT	IFC5000-01520	Potentiostat
CAPACITY	QUANT	1.00000E-003	Capacity (A-hr)
CELLTYPE	SELECTOR	1	&Cell Type
WORKINGCONNECTION	SELECTOR	0	&Working Lead
MAXCHARGETIME	VARIABLEANDUNITS	1.00000E+002	s	1.00000E+002	second(s)	Max &Charge Time
CHARGECURRENT	QUANT	9.00000E-005	&Charge Current (A) 
VOLTAGEFINISH	TWOPARAM	F	1.00000E-003	3.60000E+003	&Voltage Finish	 I (A) < 	Max Time(s)
SAMPLETIME	QUANT	1.00000E-002	Sa&mple Period (s)
CHARGESTOPAT1	MULTIPARAM	4	1.00000E+000	Charge Stop At &1	Voltage > Limit	V
CHARGESTOPAT2	MULTIPARAM	0	0.00000E+000	Charge Stop At &2	None	N/A
AESBHCSELECTOR	TOGGLE	F	Save Both Half Cells
IRCOMP	TOGGLE	F	IR &Measure
EOC	QUANT	0	Open Circuit (V)
SEQUENCER	TOGGLE	TRUE	Run as Sequence
PSTATMODEL	IQUANT	53	Pstat Model
PSTATSECTION	LABEL	IFC5000-01520	Pstat Section
PSTATSERIALNO	LABEL	01520	Pstat Serial Number
CTRLMODE	IQUANT	0	Control Mode
ELECTROMETER	IQUANT	1	RE=0 or CS=1
IESTAB	IQUANT	0	I/E Stability
CASPEED	IQUANT	4	Control Amp Speed
CONVENTION	IQUANT	1	Current Convention
ICHRANGE	IQUANT	2	Ich Range
ICHRANGEMODE	TOGGLE	T	Ich Auto Range
ICHOFFSETENABLE	TOGGLE	F	Ich Offset Enable
ICHOFFSET	QUANT	0	Ich Offset (V)
ICHFILTER	IQUANT	1	Ich Filter
VCHRANGE	IQUANT	2	Vch Range
VCHRANGEMODE	TOGGLE	T	Vch Auto Range
VCHOFFSETENABLE	TOGGLE	F	Vch Offset Enable
VCHOFFSET	QUANT	0	Vch Offset (V)
VCHFILTER	IQUANT	1	Vch Filter
IERANGELOWERLIMIT	IQUANT	9	I/E Range Lower Limit
IERANGEMODE	TOGGLE	F	I/E AutoRange
IERANGE	IQUANT	9	I/E Range
ACHSELECT	IQUANT	1	Ach Select
ACHRANGE	IQUANT	2	Ach Range
ACHOFFSETENABLE	TOGGLE	F	Ach Offset Enable
ACHOFFSET	QUANT	0	Ach Offset (V)
ACHFILTER	IQUANT	1	Ach Filter
CABLEID	IQUANT	14	Cable ID
DCCALDATE	LABEL	5-7-2017	DC Calibration Date
ACCALDATE	LABEL	12/3/2015	AC Calibration Date
FRAMEWORKVERSION	QUANT	7.01	Framework Version
INSTRUMENTVERSION	LABEL	4.00	Instrument Version
CURVE	TABLE	170
	Pt	T	Vf	Im	Vu	Pwr	Sig	Ach	Temp	IERange	Over
	#	s	V	A	V	W	V	V	deg C	#	bits
	0	0.013333	2.71232E-001	9.09658E-005	0.00000E+000	2.46728E-005	5.39641E-002	2.71282E-001	3.57290E+000	9	...........
	1	0.026667	2.90959E-001	9.09720E-005	0.00000E+000	2.64691E-005	5.39641E-002	2.90999E-001	3.57290E+000	9	...........
	2	0.04	3.09355E-001	9.08324E-005	0.00000E+000	2.80995E-005	5.39641E-002	3.09395E-001	3.57290E+000	9	...........
	3	0.053333	3.26622E-001	9.09689E-005	0.00000E+000	2.97125E-005	5.39641E-002	3.26664E-001	3.57290E+000	9	...........
	4	0.066667	3.42900E-001	9.11002E-005	0.00000E+000	3.12382E-005	5.39641E-002	3.42941E-001	3.57290E+000	9	...........
	5	0.08	3.58293E-001	9.09126E-005	0.00000E+000	3.25734E-005	5.39641E-002	3.58341E-001	3.57290E+000	9	...........
	6	0.093333	3.72905E-001	9.11773E-005	0.00000E+000	3.40005E-005	5.39641E-002	3.72956E-001	3.57290E+000	9	...........
	7	0.106667	3.86815E-001	9.08334E-005	0.00000E+000	3.51357E-005	5.39641E-002	3.86861E-001	3.57290E+000	9	...........
	8	0.12	4.00090E-001	9.10366E-005	0.00000E+000	3.64228E-005	5.39641E-002	4.00145E-001	3.57290E+000	9	...........
	9	0.133333	4.12774E-001	9.08397E-005	0.00000E+000	3.74962E-005	5.39641E-002	4.12830E-001	3.57290E+000	9	...........
	10	0.146667	4.24927E-001	9.08376E-005	0.00000E+000	3.85993E-005	5.39641E-002	4.24985E-001	3.57290E+000	9	...........
	11	0.16	4.36597E-001	9.10616E-005	0.00000E+000	3.97572E-005	5.39641E-002	4.36658E-001	3.57290E+000	9	...........
	12	0.173333	4.47819E-001	9.08928E-005	0.00000E+000	4.07035E-005	5.39641E-002	4.47883E-001	3.57340E+000	9	...........
	13	0.186667	4.58629E-001	9.09314E-005	0.00000E+000	4.17038E-005	5.39641E-002	4.58692E-001	3.57340E+000	9	...........
	14	0.2	4.69049E-001	9.10324E-005	0.00000E+000	4.26986E-005	5.39641E-002	4.69105E-001	3.57340E+000	9	...........
	15	0.213333	4.79107E-001	9.09345E-005	0.00000E+000	4.35674E-005	5.39641E-002	4.79174E-001	3.57340E+000	9	...........
	16	0.226667	4.88835E-001	9.08251E-005	0.00000E+000	4.43985E-005	5.39641E-002	4.88901E-001	3.57340E+000	9	...........
	17	0.24	4.98243E-001	9.08209E-005	0.00000E+000	4.52509E-005	5.39641E-002	4.98310E-001	3.57340E+000	9	...........
	18	0.253333	5.07352E-001	9.09022E-005	0.00000E+000	4.61194E-005	5.39641E-002	5.07422E-001	3.57340E+000	9	...........
	19	0.266667	5.16195E-001	9.11908E-005	0.00000E+000	4.70723E-005	5.39641E-002	5.16272E-001	3.57340E+000	9	...........
	20	0.28	5.24771E-001	9.07220E-005	0.00000E+000	4.76083E-005	5.39641E-002	5.24848E-001	3.57340E+000	9	...........
	21	0.293333	5.33044E-001	9.11189E-005	0.00000E+000	4.85704E-005	5.39641E-002	5.33130E-001	3.57340E+000	9	...........
	22	0.306667	5.41099E-001	9.10647E-005	0.00000E+000	4.92750E-005	5.39641E-002	5.41210E-001	3.57340E+000	9	...........
	23	0.32	5.48978E-001	9.09939E-005	0.00000E+000	4.99536E-005	5.39641E-002	5.49077E-001	3.57340E+000	9	...........
	24	0.333333	5.56613E-001	9.11022E-005	0.00000E+000	5.07087E-005	5.39641E-002	5.56759E-001	3.57340E+000	9	...........
	25	0.346667	5.64110E-001	9.10168E-005	0.00000E+000	5.13435E-005	5.39641E-002	5.64229E-001	3.57340E+000	9	...........
	26	0.36	5.71420E-001	9.09230E-005	0.00000E+000	5.19553E-005	5.39641E-002	5.71511E-001	3.57340E+000	9	...........
	27	0.373333	5.78488E-001	9.08980E-005	0.00000E+000	5.25834E-005	5.39641E-002	5.78606E-001	3.57340E+000	9	...........
	28	0.386667	5.85438E-001	9.09397E-005	0.00000E+000	5.32395E-005	5.39641E-002	5.85548E-001	3.57340E+000	9	...........
	29	0.4	5.92243E-001	9.10231E-005	0.00000E+000	5.39078E-005	5.39641E-002	5.92352E-001	3.57340E+000	9	...........
	30	0.413333	5.98855E-001	9.09616E-005	0.00000E+000	5.44728E-005	5.39641E-002	5.98957E-001	3.57340E+000	9	...........
	31	0.426667	6.05308E-001	9.09991E-005	0.00000E+000	5.50824E-005	5.39641E-002	6.05418E-001	3.57340E+000	9	...........
	32	0.44	6.11619E-001	9.08449E-005	0.00000E+000	5.55624E-005	5.39641E-002	6.11727E-001	3.57340E+000	9	...........
	33	0.453333	6.17881E-001	9.09428E-005	0.00000E+000	5.61918E-005	5.39641E-002	6.17944E-001	3.57340E+000	9	...........
	34	0.466667	6.23915E-001	9.10939E-005	0.00000E+000	5.68348E-005	5.39641E-002	6.23978E-001	3.57340E+000	9	...........
	35	0.48	6.29823E-001	9.09460E-005	0.00000E+000	5.72799E-005	5.39641E-002	6.29909E-001	3.57340E+000	9	...........
	36	0.493333	6.35628E-001	9.09949E-005	0.00000E+000	5.78389E-005	5.39641E-002	6.35728E-001	3.57340E+000	9	...........
	37	0.506667	6.41357E-001	9.10335E-005	0.00000E+000	5.83850E-005	5.39641E-002	6.41464E-001	3.57340E+000	9	...........
	38	0.52	6.46952E-001	9.09272E-005	0.00000E+000	5.88255E-005	5.39641E-002	6.47038E-001	3.57340E+000	9	...........
	39	0.533333	6.52428E-001	9.07803E-005	0.00000E+000	5.92276E-005	5.39641E-002	6.52537E-001	3.57340E+000	9	...........
	40	0.546667	6.57808E-001	9.10793E-005	0.00000E+000	5.99127E-005	5.39641E-002	6.57925E-001	3.57340E+000	9	...........
	41	0.56	6.63093E-001	9.09970E-005	0.00000E+000	6.03395E-005	5.39641E-002	6.63203E-001	3.57340E+000	9	...........
	42	0.573333	6.68312E-001	9.08386E-005	0.00000E+000	6.07086E-005	5.39641E-002	6.68412E-001	3.57340E+000	9	...........
	43	0.586667	6.73393E-001	9.10158E-005	0.00000E+000	6.12894E-005	5.39641E-002	6.73515E-001	3.57340E+000	9	...........
	44	0.6	6.78446E-001	9.10814E-005	0.00000E+000	6.17938E-005	5.39641E-002	6.78550E-001	3.57340E+000	9	...........
	45	0.613333	6.83347E-001	9.10303E-005	0.00000E+000	6.22053E-005	5.39641E-002	6.83448E-001	3.57340E+000	9	...........
	46	0.626667	6.88178E-001	9.12179E-005	0.00000E+000	6.27742E-005	5.39641E-002	6.88317E-001	3.57340E+000	9	...........
	47	0.64	6.92975E-001	9.10314E-005	0.00000E+000	6.30825E-005	5.39641E-002	6.93104E-001	3.57340E+000	9	...........
	48	0.653333	6.97666E-001	9.10574E-005	0.00000E+000	6.35276E-005	5.39641E-002	6.97807E-001	3.57340E+000	9	...........
	49	0.666667	7.02298E-001	9.08814E-005	0.00000E+000	6.38258E-005	5.39641E-002	7.02432E-001	3.57340E+000	9	...........
	50	0.68	7.06856E-001	9.10366E-005	0.00000E+000	6.43498E-005	5.39641E-002	7.06990E-001	3.57340E+000	9	...........
	51	0.693333	7.11326E-001	9.08668E-005	0.00000E+000	6.46359E-005	5.39641E-002	7.11499E-001	3.57340E+000	9	...........
	52	0.706667	7.15775E-001	9.12398E-005	0.00000E+000	6.53071E-005	5.39641E-002	7.15940E-001	3.57340E+000	9	...........
	53	0.72	7.20183E-001	9.11950E-005	0.00000E+000	6.56770E-005	5.39641E-002	7.20315E-001	3.57340E+000	9	...........
	54	0.733333	7.24488E-001	9.11470E-005	0.00000E+000	6.60349E-005	5.39641E-002	7.24619E-001	3.57340E+000	9	...........
	55	0.746667	7.28705E-001	9.10606E-005	0.00000E+000	6.63562E-005	5.39641E-002	7.28875E-001	3.57340E+000	9	...........
	56	0.76	7.32865E-001	9.12637E-005	0.00000E+000	6.68840E-005	5.39641E-002	7.33036E-001	3.57340E+000	9	...........
	57	0.773333	7.36980E-001	9.11595E-005	0.00000E+000	6.71828E-005	5.39641E-002	7.37125E-001	3.57340E+000	9	...........
	58	0.786667	7.41057E-001	9.08699E-005	0.00000E+000	6.73397E-005	5.39641E-002	7.41210E-001	3.57340E+000	9	...........
	59	0.8	7.45067E-001	9.10824E-005	0.00000E+000	6.78625E-005	5.39641E-002	7.45214E-001	3.57340E+000	9	...........
	60	0.813333	7.49043E-001	9.07636E-005	0.00000E+000	6.79859E-005	5.39641E-002	7.49146E-001	3.57340E+000	9	...........
	61	0.826667	7.52957E-001	9.08668E-005	0.00000E+000	6.84188E-005	5.39641E-002	7.53079E-001	3.57340E+000	9	...........
	62	0.84	7.56841E-001	9.09314E-005	0.00000E+000	6.88206E-005	5.39641E-002	7.56944E-001	3.57340E+000	9	...........
	63	0.853333	7.60651E-001	9.11064E-005	0.00000E+000	6.93002E-005	5.39641E-002	7.60757E-001	3.57340E+000	9	...........
	64	0.866667	7.64395E-001	9.09876E-005	0.00000E+000	6.95505E-005	5.39641E-002	7.64506E-001	3.57340E+000	9	...........
	65	0.88	7.68094E-001	9.11762E-005	0.00000E+000	7.00319E-005	5.39641E-002	7.68257E-001	3.57340E+000	9	...........
	66	0.893333	7.71775E-001	9.09418E-005	0.00000E+000	7.01866E-005	5.39641E-002	7.71926E-001	3.57340E+000	9	...........
	67	0.906667	7.75393E-001	9.10147E-005	0.00000E+000	7.05722E-005	5.39641E-002	7.75559E-001	3.57340E+000	9	...........
	68	0.92	7.78963E-001	9.08313E-005	0.00000E+000	7.07543E-005	5.39641E-002	7.79115E-001	3.57340E+000	9	...........
	69	0.933333	7.82526E-001	9.10126E-005	0.00000E+000	7.12197E-005	5.39641E-002	7.82656E-001	3.57340E+000	9	...........
	70	0.946667	7.86013E-001	9.09532E-005	0.00000E+000	7.14905E-005	5.39641E-002	7.86160E-001	3.57340E+000	9	...........
	71	0.96	7.89466E-001	9.09460E-005	0.00000E+000	7.17987E-005	5.39641E-002	7.89620E-001	3.57340E+000	9	...........
	72	0.97333	7.92906E-001	9.11012E-005	0.00000E+000	7.22347E-005	5.39641E-002	7.93076E-001	3.57340E+000	9	...........
	73	0.98667	7.96323E-001	9.10783E-005	0.00000E+000	7.25277E-005	5.39641E-002	7.96477E-001	3.57340E+000	9	...........
	74	1	7.99668E-001	9.14086E-005	0.00000E+000	7.30965E-005	5.39641E-002	7.99842E-001	3.57340E+000	9	...........
	75	1.01333	8.02966E-001	9.08803E-005	0.00000E+000	7.29738E-005	5.39641E-002	8.03156E-001	3.57340E+000	9	...........
	76	1.02667	8.06246E-001	9.10918E-005	0.00000E+000	7.34424E-005	5.39641E-002	8.06436E-001	3.57340E+000	9	...........
	77	1.04	8.09489E-001	9.09689E-005	0.00000E+000	7.36383E-005	5.39641E-002	8.09647E-001	3.57340E+000	9	...........
	78	1.05333	8.12668E-001	9.10668E-005	0.00000E+000	7.40071E-005	5.39641E-002	8.12843E-001	3.57340E+000	9	...........
	79	1.06667	8.15847E-001	9.11825E-005	0.00000E+000	7.43909E-005	5.39641E-002	8.16043E-001	3.57340E+000	9	...........
	80	1.08	8.19033E-001	9.07949E-005	0.00000E+000	7.43640E-005	5.39641E-002	8.19170E-001	3.57340E+000	9	...........
	81	1.09333	8.22123E-001	9.08959E-005	0.00000E+000	7.47276E-005	5.39641E-002	8.22297E-001	3.57340E+000	9	...........
	82	1.10667	8.25214E-001	9.09824E-005	0.00000E+000	7.50800E-005	5.39641E-002	8.25371E-001	3.57340E+000	9	...........
	83	1.12	8.28245E-001	9.10178E-005	0.00000E+000	7.53851E-005	5.39641E-002	8.28380E-001	3.57340E+000	9	...........
	84	1.13333	8.31255E-001	9.11033E-005	0.00000E+000	7.57301E-005	5.39641E-002	8.31387E-001	3.57340E+000	9	...........
	85	1.14667	8.34206E-001	9.10626E-005	0.00000E+000	7.59650E-005	5.39641E-002	8.34365E-001	3.57340E+000	9	...........
	86	1.16	8.37126E-001	9.07740E-005	0.00000E+000	7.59893E-005	5.39641E-002	8.37274E-001	3.57340E+000	9	...........
	87	1.17333	8.40008E-001	9.08709E-005	0.00000E+000	7.63323E-005	5.39641E-002	8.40148E-001	3.57320E+000	9	...........
	88	1.18667	8.42883E-001	9.09772E-005	0.00000E+000	7.66831E-005	5.39641E-002	8.43048E-001	3.57320E+000	9	...........
	89	1.2	8.45779E-001	9.08480E-005	0.00000E+000	7.68374E-005	5.39641E-002	8.45930E-001	3.57320E+000	9	...........
	90	1.21333	8.48594E-001	9.08616E-005	0.00000E+000	7.71046E-005	5.39641E-002	8.48761E-001	3.57320E+000	9	...........
	91	1.22667	8.51377E-001	9.10345E-005	0.00000E+000	7.75047E-005	5.39641E-002	8.51554E-001	3.57320E+000	9	...........
	92	1.24	8.54141E-001	9.11106E-005	0.00000E+000	7.78213E-005	5.39641E-002	8.54308E-001	3.57320E+000	9	...........
	93	1.25333	8.56859E-001	9.09803E-005	0.00000E+000	7.79574E-005	5.39641E-002	8.57039E-001	3.57320E+000	9	...........
	94	1.26667	8.59584E-001	9.09105E-005	0.00000E+000	7.81452E-005	5.39641E-002	8.59748E-001	3.57320E+000	9	...........
	95	1.28	8.62263E-001	9.10460E-005	0.00000E+000	7.85055E-005	5.39641E-002	8.62429E-001	3.57320E+000	9	...........
	96	1.29333	8.64892E-001	9.10543E-005	0.00000E+000	7.87522E-005	5.39641E-002	8.65066E-001	3.57320E+000	9	...........
	97	1.30667	8.67547E-001	9.12314E-005	0.00000E+000	7.91476E-005	5.39641E-002	8.67688E-001	3.57320E+000	9	...........
	98	1.32	8.70153E-001	9.09272E-005	0.00000E+000	7.91206E-005	5.39641E-002	8.70322E-001	3.57320E+000	9	...........
	99	1.33333	8.72733E-001	9.08449E-005	0.00000E+000	7.92833E-005	5.39641E-002	8.72901E-001	3.57320E+000	9	...........
	100	1.34667	8.75277E-001	9.11179E-005	0.00000E+000	7.97534E-005	5.39641E-002	8.75453E-001	3.57320E+000	9	...........
	101	1.36	8.77806E-001	9.11523E-005	0.00000E+000	8.00140E-005	5.39641E-002	8.77968E-001	3.57320E+000	9	...........
	102	1.37333	8.80296E-001	9.11752E-005	0.00000E+000	8.02611E-005	5.39641E-002	8.80467E-001	3.57320E+000	9	...........
	103	1.38667	8.82795E-001	9.11554E-005	0.00000E+000	8.04715E-005	5.39641E-002	8.82957E-001	3.57320E+000	9	...........
	104	1.4	8.85240E-001	9.09824E-005	0.00000E+000	8.05413E-005	5.39641E-002	8.85423E-001	3.57320E+000	9	...........
	105	1.41333	8.87668E-001	9.09720E-005	0.00000E+000	8.07530E-005	5.39641E-002	8.87865E-001	3.57320E+000	9	...........
	106	1.42667	8.90088E-001	9.09814E-005	0.00000E+000	8.09814E-005	5.39641E-002	8.90263E-001	3.57320E+000	9	...........
	107	1.44	8.92421E-001	9.06636E-005	0.00000E+000	8.09101E-005	5.39641E-002	8.92589E-001	3.57320E+000	9	...........
	108	1.45333	8.94772E-001	9.12252E-005	0.00000E+000	8.16258E-005	5.39641E-002	8.94943E-001	3.57320E+000	9	...........
	109	1.46667	8.97108E-001	9.09668E-005	0.00000E+000	8.16070E-005	5.39641E-002	8.97284E-001	3.57320E+000	9	...........
	110	1.48	8.99424E-001	9.10668E-005	0.00000E+000	8.19077E-005	5.39641E-002	8.99573E-001	3.57320E+000	9	...........
	111	1.49333	9.01718E-001	9.12794E-005	0.00000E+000	8.23083E-005	5.39641E-002	9.01890E-001	3.57320E+000	9	...........
	112	1.50667	9.03953E-001	9.10314E-005	0.00000E+000	8.22881E-005	5.39641E-002	9.04149E-001	3.57320E+000	9	...........
	113	1.52	9.06184E-001	9.13908E-005	0.00000E+000	8.28169E-005	5.39641E-002	9.06379E-001	3.57320E+000	9	...........
	114	1.53333	9.08372E-001	9.10845E-005	0.00000E+000	8.27386E-005	5.39641E-002	9.08583E-001	3.57320E+000	9	...........
	115	1.54667	9.10557E-001	9.10376E-005	0.00000E+000	8.28949E-005	5.39641E-002	9.10734E-001	3.57320E+000	9	...........
	116	1.56	9.12745E-001	9.09178E-005	0.00000E+000	8.29848E-005	5.39641E-002	9.12929E-001	3.57320E+000	9	...........
	117	1.57333	9.14887E-001	9.11314E-005	0.00000E+000	8.33750E-005	5.39641E-002	9.15080E-001	3.57320E+000	9	...........
	118	1.58667	9.16997E-001	9.08355E-005	0.00000E+000	8.32959E-005	5.39641E-002	9.17204E-001	3.57320E+000	9	...........
	119	1.6	9.19115E-001	9.11022E-005	0.00000E+000	8.37334E-005	5.39641E-002	9.19297E-001	3.57320E+000	9	...........
	120	1.61333	9.21263E-001	9.11397E-005	0.00000E+000	8.39637E-005	5.39641E-002	9.21429E-001	3.57320E+000	9	...........
	121	1.62667	9.23315E-001	9.09678E-005	0.00000E+000	8.39920E-005	5.39641E-002	9.23473E-001	3.57320E+000	9	...........
	122	1.64	9.25331E-001	9.10033E-005	0.00000E+000	8.42081E-005	5.39641E-002	9.25515E-001	3.57320E+000	9	...........
	123	1.65333	9.27370E-001	9.11554E-005	0.00000E+000	8.45348E-005	5.39641E-002	9.27543E-001	3.57320E+000	9	...........
	124	1.66667	9.29346E-001	9.09564E-005	0.00000E+000	8.45300E-005	5.39641E-002	9.29503E-001	3.57320E+000	9	...........
	125	1.68	9.31302E-001	9.12283E-005	0.00000E+000	8.49611E-005	5.39641E-002	9.31473E-001	3.57320E+000	9	...........
	126	1.69333	9.33240E-001	9.11658E-005	0.00000E+000	8.50796E-005	5.39641E-002	9.33419E-001	3.57320E+000	9	...........
	127	1.70667	9.35155E-001	9.09626E-005	0.00000E+000	8.50641E-005	5.39641E-002	9.35348E-001	3.57320E+000	9	...........
	128	1.72	9.37066E-001	9.11543E-005	0.00000E+000	8.54177E-005	5.39641E-002	9.37278E-001	3.57320E+000	9	...........
	129	1.73333	9.38965E-001	9.11752E-005	0.00000E+000	8.56103E-005	5.39641E-002	9.39161E-001	3.57320E+000	9	...........
	130	1.74667	9.40839E-001	9.11366E-005	0.00000E+000	8.57449E-005	5.39641E-002	9.41035E-001	3.57320E+000	9	...........
	131	1.76	9.42685E-001	9.12346E-005	0.00000E+000	8.60054E-005	5.39641E-002	9.42869E-001	3.57320E+000	9	...........
	132	1.77333	9.44537E-001	9.10522E-005	0.00000E+000	8.60022E-005	5.39641E-002	9.44718E-001	3.57320E+000	9	...........
	133	1.78667	9.46344E-001	9.11762E-005	0.00000E+000	8.62840E-005	5.39641E-002	9.46560E-001	3.57320E+000	9	...........
	134	1.8	9.48179E-001	9.10199E-005	0.00000E+000	8.63032E-005	5.39641E-002	9.48364E-001	3.57320E+000	9	...........
	135	1.81333	9.49955E-001	9.09647E-005	0.00000E+000	8.64124E-005	5.39641E-002	9.50144E-001	3.57320E+000	9	...........
	136	1.82667	9.51701E-001	9.10251E-005	0.00000E+000	8.66287E-005	5.39641E-002	9.51896E-001	3.57320E+000	9	...........
	137	1.84	9.53435E-001	9.09335E-005	0.00000E+000	8.66991E-005	5.39641E-002	9.53624E-001	3.57320E+000	9	...........
	138	1.85333	9.55139E-001	9.11408E-005	0.00000E+000	8.70522E-005	5.39641E-002	9.55323E-001	3.57320E+000	9	...........
	139	1.86667	9.56871E-001	9.09189E-005	0.00000E+000	8.69977E-005	5.39641E-002	9.57039E-001	3.57320E+000	9	...........
	140	1.88	9.58544E-001	9.10428E-005	0.00000E+000	8.72686E-005	5.39641E-002	9.58755E-001	3.57320E+000	9	...........
	141	1.89333	9.60219E-001	9.11845E-005	0.00000E+000	8.75571E-005	5.39641E-002	9.60439E-001	3.57320E+000	9	...........
	142	1.90667	9.61827E-001	9.09064E-005	0.00000E+000	8.74362E-005	5.39641E-002	9.62065E-001	3.57320E+000	9	...........
	143	1.92	9.63450E-001	9.12283E-005	0.00000E+000	8.78939E-005	5.39641E-002	9.63679E-001	3.57320E+000	9	...........
	144	1.93333	9.65036E-001	9.11856E-005	0.00000E+000	8.79973E-005	5.39641E-002	9.65263E-001	3.57320E+000	9	...........
	145	1.94667	9.66655E-001	9.12533E-005	0.00000E+000	8.82105E-005	5.39641E-002	9.66868E-001	3.57320E+000	9	...........
	146	1.96	9.68212E-001	9.08022E-005	0.00000E+000	8.79157E-005	5.39641E-002	9.68454E-001	3.57320E+000	9	...........
	147	1.97333	9.69779E-001	9.08199E-005	0.00000E+000	8.80752E-005	5.39641E-002	9.70024E-001	3.57320E+000	9	...........
	148	1.98667	9.71330E-001	9.09772E-005	0.00000E+000	8.83689E-005	5.39641E-002	9.71578E-001	3.57320E+000	9	...........
	149	2	9.72905E-001	9.11512E-005	0.00000E+000	8.86814E-005	5.39641E-002	9.73105E-001	3.57320E+000	9	...........
	150	2.01333	9.74442E-001	9.11918E-005	0.00000E+000	8.88611E-005	5.39641E-002	9.74624E-001	3.57320E+000	9	...........
	151	2.02667	9.75937E-001	9.12450E-005	0.00000E+000	8.90494E-005	5.39641E-002	9.76134E-001	3.57320E+000	9	...........
	152	2.04	9.77406E-001	9.11637E-005	0.00000E+000	8.91040E-005	5.39641E-002	9.77610E-001	3.57320E+000	9	...........
	153	2.05333	9.78884E-001	9.10178E-005	0.00000E+000	8.90960E-005	5.39641E-002	9.79056E-001	3.57320E+000	9	...........
	154	2.06667	9.80315E-001	9.09678E-005	0.00000E+000	8.91771E-005	5.39641E-002	9.80509E-001	3.57320E+000	9	...........
	155	2.08	9.81762E-001	9.08814E-005	0.00000E+000	8.92238E-005	5.39641E-002	9.81944E-001	3.57320E+000	9	...........
	156	2.09333	9.83189E-001	9.11054E-005	0.00000E+000	8.95738E-005	5.39641E-002	9.83411E-001	3.57320E+000	9	...........
	157	2.10667	9.84624E-001	9.10189E-005	0.00000E+000	8.96194E-005	5.39641E-002	9.84847E-001	3.57320E+000	9	...........
	158	2.12	9.86025E-001	9.11106E-005	0.00000E+000	8.98373E-005	5.39641E-002	9.86249E-001	3.57320E+000	9	...........
	159	2.13333	9.87403E-001	9.08605E-005	0.00000E+000	8.97159E-005	5.39641E-002	9.87621E-001	3.57320E+000	9	...........
	160	2.14667	9.88796E-001	9.11658E-005	0.00000E+000	9.01443E-005	5.39641E-002	9.89000E-001	3.57320E+000	9	...........
	161	2.16	9.90145E-001	9.09439E-005	0.00000E+000	9.00476E-005	5.39641E-002	9.90356E-001	3.57320E+000	9	...........
	162	2.17333	9.91493E-001	9.11220E-005	0.00000E+000	9.03468E-005	5.39641E-002	9.91686E-001	3.57320E+000	9	...........
	163	2.18667	9.92805E-001	9.12502E-005	0.00000E+000	9.05936E-005	5.39641E-002	9.93027E-001	3.57320E+000	9	...........
	164	2.2	9.94091E-001	9.10929E-005	0.00000E+000	9.05546E-005	5.39641E-002	9.94331E-001	3.57320E+000	9	...........
	165	2.21333	9.95426E-001	9.10751E-005	0.00000E+000	9.06585E-005	5.39641E-002	9.95637E-001	3.57320E+000	9	...........
	166	2.22667	9.96731E-001	9.12293E-005	0.00000E+000	9.09311E-005	5.39641E-002	9.96955E-001	3.57320E+000	9	...........
	167	2.24	9.98045E-001	9.10439E-005	0.00000E+000	9.08659E-005	5.39641E-002	9.98249E-001	3.57320E+000	9	...........
	168	2.25333	9.99323E-001	9.09387E-005	0.00000E+000	9.08771E-005	5.39641E-002	9.99539E-001	3.57320E+000	9	...........
	169	2.255	1.00007E+000	9.08626E-005	0.00000E+000	9.08686E-005	5.39641E-002	1.00025E+000	3.57320E+000	9	...........
STARTTIMEOFFSET	QUANT	2110.927	Start Time Offset (s)
