EXPLAIN
TAG	PWR800_CHARGE
TITLE	LABEL	PWR Cyclic Charge Discharge (Cell) - Charge Step	Test &Identifier
DATE	LABEL	10-7-2017	Date
TIME	LABEL	15:43:42	Time
NOTES	NOTES	3	&Notes...
	supercap test cell
	0.9mg
	6M KOH
PSTAT	PSTAT	IFC5000-01520	Potentiostat
CAPACITY	QUANT	1.00000E-003	Capacity (A-hr)
CELLTYPE	SELECTOR	1	&Cell Type
WORKINGCONNECTION	SELECTOR	0	&Working Lead
MAXCHARGETIME	VARIABLEANDUNITS	1.00000E+002	s	1.00000E+002	second(s)	Max &Charge Time
CHARGECURRENT	QUANT	9.00000E-005	&Charge Current (A) 
VOLTAGEFINISH	TWOPARAM	F	1.00000E-003	3.60000E+003	&Voltage Finish	 I (A) < 	Max Time(s)
SAMPLETIME	QUANT	1.00000E-002	Sa&mple Period (s)
CHARGESTOPAT1	MULTIPARAM	4	1.00000E+000	Charge Stop At &1	Voltage > Limit	V
CHARGESTOPAT2	MULTIPARAM	0	0.00000E+000	Charge Stop At &2	None	N/A
AESBHCSELECTOR	TOGGLE	F	Save Both Half Cells
IRCOMP	TOGGLE	F	IR &Measure
EOC	QUANT	0	Open Circuit (V)
SEQUENCER	TOGGLE	TRUE	Run as Sequence
PSTATMODEL	IQUANT	53	Pstat Model
PSTATSECTION	LABEL	IFC5000-01520	Pstat Section
PSTATSERIALNO	LABEL	01520	Pstat Serial Number
CTRLMODE	IQUANT	0	Control Mode
ELECTROMETER	IQUANT	1	RE=0 or CS=1
IESTAB	IQUANT	0	I/E Stability
CASPEED	IQUANT	4	Control Amp Speed
CONVENTION	IQUANT	1	Current Convention
ICHRANGE	IQUANT	2	Ich Range
ICHRANGEMODE	TOGGLE	T	Ich Auto Range
ICHOFFSETENABLE	TOGGLE	F	Ich Offset Enable
ICHOFFSET	QUANT	0	Ich Offset (V)
ICHFILTER	IQUANT	1	Ich Filter
VCHRANGE	IQUANT	2	Vch Range
VCHRANGEMODE	TOGGLE	T	Vch Auto Range
VCHOFFSETENABLE	TOGGLE	F	Vch Offset Enable
VCHOFFSET	QUANT	0	Vch Offset (V)
VCHFILTER	IQUANT	1	Vch Filter
IERANGELOWERLIMIT	IQUANT	9	I/E Range Lower Limit
IERANGEMODE	TOGGLE	F	I/E AutoRange
IERANGE	IQUANT	9	I/E Range
ACHSELECT	IQUANT	1	Ach Select
ACHRANGE	IQUANT	2	Ach Range
ACHOFFSETENABLE	TOGGLE	F	Ach Offset Enable
ACHOFFSET	QUANT	0	Ach Offset (V)
ACHFILTER	IQUANT	1	Ach Filter
CABLEID	IQUANT	14	Cable ID
DCCALDATE	LABEL	5-7-2017	DC Calibration Date
ACCALDATE	LABEL	12/3/2015	AC Calibration Date
FRAMEWORKVERSION	QUANT	7.01	Framework Version
INSTRUMENTVERSION	LABEL	4.00	Instrument Version
CURVE	TABLE	169
	Pt	T	Vf	Im	Vu	Pwr	Sig	Ach	Temp	IERange	Over
	#	s	V	A	V	W	V	V	deg C	#	bits
	0	0.013333	2.70785E-001	9.10939E-005	0.00000E+000	2.46668E-005	5.39641E-002	2.70832E-001	3.57340E+000	9	...........
	1	0.026667	2.90497E-001	9.08532E-005	0.00000E+000	2.63926E-005	5.39641E-002	2.90540E-001	3.57340E+000	9	...........
	2	0.04	3.08908E-001	9.07834E-005	0.00000E+000	2.80437E-005	5.39641E-002	3.08954E-001	3.57340E+000	9	...........
	3	0.053333	3.26197E-001	9.08772E-005	0.00000E+000	2.96438E-005	5.39641E-002	3.26239E-001	3.57340E+000	9	...........
	4	0.066667	3.42504E-001	9.09855E-005	0.00000E+000	3.11629E-005	5.39641E-002	3.42548E-001	3.57340E+000	9	...........
	5	0.08	3.57948E-001	9.08397E-005	0.00000E+000	3.25159E-005	5.39641E-002	3.57993E-001	3.57340E+000	9	...........
	6	0.093333	3.72593E-001	9.07938E-005	0.00000E+000	3.38291E-005	5.39641E-002	3.72635E-001	3.57340E+000	9	...........
	7	0.106667	3.86532E-001	9.11835E-005	0.00000E+000	3.52453E-005	5.39641E-002	3.86581E-001	3.57340E+000	9	...........
	8	0.12	3.99844E-001	9.11272E-005	0.00000E+000	3.64367E-005	5.39641E-002	3.99889E-001	3.57340E+000	9	...........
	9	0.133333	4.12559E-001	9.09918E-005	0.00000E+000	3.75395E-005	5.39641E-002	4.12613E-001	3.57340E+000	9	...........
	10	0.146667	4.24738E-001	9.08011E-005	0.00000E+000	3.85667E-005	5.39641E-002	4.24793E-001	3.57340E+000	9	...........
	11	0.16	4.36434E-001	9.09658E-005	0.00000E+000	3.97005E-005	5.39641E-002	4.36490E-001	3.57340E+000	9	...........
	12	0.173333	4.47677E-001	9.07667E-005	0.00000E+000	4.06342E-005	5.39641E-002	4.47732E-001	3.57295E+000	9	...........
	13	0.186667	4.58506E-001	9.08366E-005	0.00000E+000	4.16491E-005	5.39641E-002	4.58565E-001	3.57280E+000	9	...........
	14	0.2	4.68949E-001	9.10314E-005	0.00000E+000	4.26891E-005	5.39641E-002	4.69005E-001	3.57280E+000	9	...........
	15	0.213333	4.79028E-001	9.09803E-005	0.00000E+000	4.35821E-005	5.39641E-002	4.79085E-001	3.57280E+000	9	...........
	16	0.226667	4.88766E-001	9.10981E-005	0.00000E+000	4.45257E-005	5.39641E-002	4.88830E-001	3.57280E+000	9	...........
	17	0.24	4.98183E-001	9.09303E-005	0.00000E+000	4.52999E-005	5.39641E-002	4.98249E-001	3.57280E+000	9	...........
	18	0.253333	5.07299E-001	9.07949E-005	0.00000E+000	4.60602E-005	5.39641E-002	5.07368E-001	3.57280E+000	9	...........
	19	0.266667	5.16146E-001	9.09605E-005	0.00000E+000	4.69489E-005	5.39641E-002	5.16220E-001	3.57280E+000	9	...........
	20	0.28	5.24727E-001	9.09074E-005	0.00000E+000	4.77016E-005	5.39641E-002	5.24800E-001	3.57280E+000	9	...........
	21	0.293333	5.33018E-001	9.08814E-005	0.00000E+000	4.84414E-005	5.39641E-002	5.33082E-001	3.57280E+000	9	...........
	22	0.306667	5.41090E-001	9.12335E-005	0.00000E+000	4.93656E-005	5.39641E-002	5.41170E-001	3.57280E+000	9	...........
	23	0.32	5.48952E-001	9.09241E-005	0.00000E+000	4.99129E-005	5.39641E-002	5.49034E-001	3.57280E+000	9	...........
	24	0.333333	5.56616E-001	9.08511E-005	0.00000E+000	5.05692E-005	5.39641E-002	5.56677E-001	3.57280E+000	9	...........
	25	0.346667	5.64120E-001	9.11137E-005	0.00000E+000	5.13991E-005	5.39641E-002	5.64200E-001	3.57280E+000	9	...........
	26	0.36	5.71405E-001	9.06323E-005	0.00000E+000	5.17878E-005	5.39641E-002	5.71506E-001	3.57280E+000	9	...........
	27	0.373333	5.78488E-001	9.11648E-005	0.00000E+000	5.27377E-005	5.39641E-002	5.78606E-001	3.57280E+000	9	...........
	28	0.386667	5.85425E-001	9.11689E-005	0.00000E+000	5.33726E-005	5.39641E-002	5.85541E-001	3.57280E+000	9	...........
	29	0.4	5.92232E-001	9.08616E-005	0.00000E+000	5.38111E-005	5.39641E-002	5.92353E-001	3.57280E+000	9	...........
	30	0.413333	5.98874E-001	9.13565E-005	0.00000E+000	5.47110E-005	5.39641E-002	5.99001E-001	3.57280E+000	9	...........
	31	0.426667	6.05334E-001	9.11106E-005	0.00000E+000	5.51523E-005	5.39641E-002	6.05455E-001	3.57280E+000	9	...........
	32	0.44	6.11637E-001	9.11043E-005	0.00000E+000	5.57228E-005	5.39641E-002	6.11761E-001	3.57280E+000	9	...........
	33	0.453333	6.17884E-001	9.11595E-005	0.00000E+000	5.63260E-005	5.39641E-002	6.17973E-001	3.57280E+000	9	...........
	34	0.466667	6.23918E-001	9.08470E-005	0.00000E+000	5.66811E-005	5.39641E-002	6.23992E-001	3.57280E+000	9	...........
	35	0.48	6.29829E-001	9.07667E-005	0.00000E+000	5.71675E-005	5.39641E-002	6.29921E-001	3.57280E+000	9	...........
	36	0.493333	6.35634E-001	9.10314E-005	0.00000E+000	5.78626E-005	5.39641E-002	6.35729E-001	3.57280E+000	9	...........
	37	0.506667	6.41355E-001	9.10991E-005	0.00000E+000	5.84268E-005	5.39641E-002	6.41482E-001	3.57280E+000	9	...........
	38	0.52	6.46949E-001	9.10845E-005	0.00000E+000	5.89271E-005	5.39641E-002	6.47058E-001	3.57280E+000	9	...........
	39	0.533333	6.52435E-001	9.11345E-005	0.00000E+000	5.94594E-005	5.39641E-002	6.52563E-001	3.57280E+000	9	...........
	40	0.546667	6.57833E-001	9.11460E-005	0.00000E+000	5.99589E-005	5.39641E-002	6.57946E-001	3.57280E+000	9	...........
	41	0.56	6.63118E-001	9.09783E-005	0.00000E+000	6.03293E-005	5.39641E-002	6.63272E-001	3.57280E+000	9	...........
	42	0.573333	6.68352E-001	9.10324E-005	0.00000E+000	6.08417E-005	5.39641E-002	6.68468E-001	3.57280E+000	9	...........
	43	0.586667	6.73445E-001	9.09095E-005	0.00000E+000	6.12226E-005	5.39641E-002	6.73568E-001	3.57280E+000	9	...........
	44	0.6	6.78415E-001	9.10470E-005	0.00000E+000	6.17676E-005	5.39641E-002	6.78568E-001	3.57280E+000	9	...........
	45	0.613333	6.83360E-001	9.09720E-005	0.00000E+000	6.21666E-005	5.39641E-002	6.83487E-001	3.57280E+000	9	...........
	46	0.626667	6.88205E-001	9.10981E-005	0.00000E+000	6.26941E-005	5.39641E-002	6.88344E-001	3.57280E+000	9	...........
	47	0.64	6.93023E-001	9.12335E-005	0.00000E+000	6.32269E-005	5.39641E-002	6.93140E-001	3.57280E+000	9	...........
	48	0.653333	6.97712E-001	9.07907E-005	0.00000E+000	6.33458E-005	5.39641E-002	6.97855E-001	3.57280E+000	9	...........
	49	0.666667	7.02351E-001	9.14179E-005	0.00000E+000	6.42075E-005	5.39641E-002	7.02485E-001	3.57280E+000	9	...........
	50	0.68	7.06930E-001	9.11804E-005	0.00000E+000	6.44582E-005	5.39641E-002	7.07066E-001	3.57280E+000	9	...........
	51	0.693333	7.11384E-001	9.12043E-005	0.00000E+000	6.48813E-005	5.39641E-002	7.11546E-001	3.57280E+000	9	...........
	52	0.706667	7.15815E-001	9.09637E-005	0.00000E+000	6.51131E-005	5.39641E-002	7.15979E-001	3.57280E+000	9	...........
	53	0.72	7.20230E-001	9.09116E-005	0.00000E+000	6.54773E-005	5.39641E-002	7.20336E-001	3.57280E+000	9	...........
	54	0.733333	7.24507E-001	9.10345E-005	0.00000E+000	6.59551E-005	5.39641E-002	7.24630E-001	3.57280E+000	9	...........
	55	0.746667	7.28740E-001	9.12648E-005	0.00000E+000	6.65082E-005	5.39641E-002	7.28868E-001	3.57280E+000	9	...........
	56	0.76	7.32916E-001	9.11595E-005	0.00000E+000	6.68123E-005	5.39641E-002	7.33055E-001	3.57280E+000	9	...........
	57	0.773333	7.37021E-001	9.11387E-005	0.00000E+000	6.71712E-005	5.39641E-002	7.37146E-001	3.57280E+000	9	...........
	58	0.786667	7.41108E-001	9.09355E-005	0.00000E+000	6.73930E-005	5.39641E-002	7.41245E-001	3.57280E+000	9	...........
	59	0.8	7.45173E-001	9.11241E-005	0.00000E+000	6.79032E-005	5.39641E-002	7.45270E-001	3.57280E+000	9	...........
	60	0.813333	7.49132E-001	9.08366E-005	0.00000E+000	6.80486E-005	5.39641E-002	7.49241E-001	3.57280E+000	9	...........
	61	0.826667	7.53047E-001	9.07897E-005	0.00000E+000	6.83689E-005	5.39641E-002	7.53161E-001	3.57280E+000	9	...........
	62	0.84	7.56936E-001	9.07761E-005	0.00000E+000	6.87117E-005	5.39641E-002	7.57034E-001	3.57280E+000	9	...........
	63	0.853333	7.60741E-001	9.10824E-005	0.00000E+000	6.92902E-005	5.39641E-002	7.60844E-001	3.57280E+000	9	...........
	64	0.866667	7.64540E-001	9.10772E-005	0.00000E+000	6.96322E-005	5.39641E-002	7.64631E-001	3.57280E+000	9	...........
	65	0.88	7.68264E-001	9.09376E-005	0.00000E+000	6.98641E-005	5.39641E-002	7.68399E-001	3.57280E+000	9	...........
	66	0.893333	7.71963E-001	9.10283E-005	0.00000E+000	7.02704E-005	5.39641E-002	7.72109E-001	3.57280E+000	9	...........
	67	0.906667	7.75624E-001	9.08251E-005	0.00000E+000	7.04462E-005	5.39641E-002	7.75741E-001	3.57280E+000	9	...........
	68	0.92	7.79223E-001	9.09470E-005	0.00000E+000	7.08680E-005	5.39641E-002	7.79325E-001	3.57280E+000	9	...........
	69	0.933333	7.82788E-001	9.11158E-005	0.00000E+000	7.13244E-005	5.39641E-002	7.82901E-001	3.57280E+000	9	...........
	70	0.946667	7.86292E-001	9.08345E-005	0.00000E+000	7.14224E-005	5.39641E-002	7.86371E-001	3.57280E+000	9	...........
	71	0.96	7.89720E-001	9.12033E-005	0.00000E+000	7.20250E-005	5.39641E-002	7.89851E-001	3.57280E+000	9	...........
	72	0.97333	7.93166E-001	9.10970E-005	0.00000E+000	7.22550E-005	5.39641E-002	7.93330E-001	3.57280E+000	9	...........
	73	0.98667	7.96570E-001	9.11168E-005	0.00000E+000	7.25809E-005	5.39641E-002	7.96697E-001	3.57280E+000	9	...........
	74	1	7.99931E-001	9.10116E-005	0.00000E+000	7.28030E-005	5.39641E-002	8.00052E-001	3.57280E+000	9	...........
	75	1.01333	8.03236E-001	9.08564E-005	0.00000E+000	7.29791E-005	5.39641E-002	8.03406E-001	3.57280E+000	9	...........
	76	1.02667	8.06537E-001	9.11283E-005	0.00000E+000	7.34983E-005	5.39641E-002	8.06706E-001	3.57280E+000	9	...........
	77	1.04	8.09771E-001	9.12064E-005	0.00000E+000	7.38563E-005	5.39641E-002	8.09923E-001	3.57280E+000	9	...........
	78	1.05333	8.12964E-001	9.10981E-005	0.00000E+000	7.40595E-005	5.39641E-002	8.13151E-001	3.57280E+000	9	...........
	79	1.06667	8.16147E-001	9.10106E-005	0.00000E+000	7.42780E-005	5.39641E-002	8.16328E-001	3.57280E+000	9	...........
	80	1.08	8.19323E-001	9.07345E-005	0.00000E+000	7.43408E-005	5.39641E-002	8.19496E-001	3.57280E+000	9	...........
	81	1.09333	8.22425E-001	9.10606E-005	0.00000E+000	7.48905E-005	5.39641E-002	8.22572E-001	3.57280E+000	9	...........
	82	1.10667	8.25502E-001	9.12523E-005	0.00000E+000	7.53289E-005	5.39641E-002	8.25662E-001	3.57280E+000	9	...........
	83	1.12	8.28554E-001	9.12210E-005	0.00000E+000	7.55815E-005	5.39641E-002	8.28720E-001	3.57280E+000	9	...........
	84	1.13333	8.31558E-001	9.10752E-005	0.00000E+000	7.57342E-005	5.39641E-002	8.31742E-001	3.57280E+000	9	...........
	85	1.14667	8.34501E-001	9.08157E-005	0.00000E+000	7.57858E-005	5.39641E-002	8.34695E-001	3.57280E+000	9	...........
	86	1.16	8.37445E-001	9.09678E-005	0.00000E+000	7.61805E-005	5.39641E-002	8.37629E-001	3.57280E+000	9	...........
	87	1.17333	8.40385E-001	9.10106E-005	0.00000E+000	7.64839E-005	5.39641E-002	8.40546E-001	3.57317E+000	9	...........
	88	1.18667	8.43289E-001	9.07282E-005	0.00000E+000	7.65101E-005	5.39641E-002	8.43467E-001	3.57330E+000	9	...........
	89	1.2	8.46210E-001	9.12491E-005	0.00000E+000	7.72160E-005	5.39641E-002	8.46341E-001	3.57330E+000	9	...........
	90	1.21333	8.49033E-001	9.09793E-005	0.00000E+000	7.72444E-005	5.39641E-002	8.49191E-001	3.57330E+000	9	...........
	91	1.22667	8.51843E-001	9.09084E-005	0.00000E+000	7.74397E-005	5.39641E-002	8.51982E-001	3.57330E+000	9	...........
	92	1.24	8.54624E-001	9.07490E-005	0.00000E+000	7.75563E-005	5.39641E-002	8.54768E-001	3.57330E+000	9	...........
	93	1.25333	8.57367E-001	9.10731E-005	0.00000E+000	7.80830E-005	5.39641E-002	8.57527E-001	3.57330E+000	9	...........
	94	1.26667	8.60106E-001	9.09293E-005	0.00000E+000	7.82088E-005	5.39641E-002	8.60256E-001	3.57330E+000	9	...........
	95	1.28	8.62789E-001	9.10595E-005	0.00000E+000	7.85652E-005	5.39641E-002	8.62966E-001	3.57330E+000	9	...........
	96	1.29333	8.65454E-001	9.10606E-005	0.00000E+000	7.88087E-005	5.39641E-002	8.65654E-001	3.57330E+000	9	...........
	97	1.30667	8.68122E-001	9.10283E-005	0.00000E+000	7.90237E-005	5.39641E-002	8.68296E-001	3.57330E+000	9	...........
	98	1.32	8.70780E-001	9.11095E-005	0.00000E+000	7.93363E-005	5.39641E-002	8.70938E-001	3.57330E+000	9	...........
	99	1.33333	8.73347E-001	9.11095E-005	0.00000E+000	7.95702E-005	5.39641E-002	8.73528E-001	3.57330E+000	9	...........
	100	1.34667	8.75915E-001	9.07584E-005	0.00000E+000	7.94967E-005	5.39641E-002	8.76096E-001	3.57330E+000	9	...........
	101	1.36	8.78426E-001	9.09855E-005	0.00000E+000	7.99241E-005	5.39641E-002	8.78606E-001	3.57330E+000	9	...........
	102	1.37333	8.80932E-001	9.09991E-005	0.00000E+000	8.01640E-005	5.39641E-002	8.81119E-001	3.57330E+000	9	...........
	103	1.38667	8.83445E-001	9.10731E-005	0.00000E+000	8.04581E-005	5.39641E-002	8.83624E-001	3.57330E+000	9	...........
	104	1.4	8.85886E-001	9.08282E-005	0.00000E+000	8.04635E-005	5.39641E-002	8.86041E-001	3.57330E+000	9	...........
	105	1.41333	8.88308E-001	9.08188E-005	0.00000E+000	8.06751E-005	5.39641E-002	8.88477E-001	3.57330E+000	9	...........
	106	1.42667	8.90701E-001	9.10137E-005	0.00000E+000	8.10659E-005	5.39641E-002	8.90850E-001	3.57330E+000	9	...........
	107	1.44	8.93094E-001	9.09835E-005	0.00000E+000	8.12568E-005	5.39641E-002	8.93241E-001	3.57330E+000	9	...........
	108	1.45333	8.95445E-001	9.10501E-005	0.00000E+000	8.15304E-005	5.39641E-002	8.95650E-001	3.57330E+000	9	...........
	109	1.46667	8.97813E-001	9.09168E-005	0.00000E+000	8.16263E-005	5.39641E-002	8.97989E-001	3.57330E+000	9	...........
	110	1.48	9.00094E-001	9.08543E-005	0.00000E+000	8.17774E-005	5.39641E-002	9.00277E-001	3.57330E+000	9	...........
	111	1.49333	9.02357E-001	9.11668E-005	0.00000E+000	8.22651E-005	5.39641E-002	9.02543E-001	3.57330E+000	9	...........
	112	1.50667	9.04615E-001	9.09293E-005	0.00000E+000	8.22560E-005	5.39641E-002	9.04808E-001	3.57330E+000	9	...........
	113	1.52	9.06822E-001	9.11054E-005	0.00000E+000	8.26163E-005	5.39641E-002	9.07034E-001	3.57330E+000	9	...........
	114	1.53333	9.09040E-001	9.09324E-005	0.00000E+000	8.26612E-005	5.39641E-002	9.09247E-001	3.57330E+000	9	...........
	115	1.54667	9.11213E-001	9.11950E-005	0.00000E+000	8.30981E-005	5.39641E-002	9.11414E-001	3.57330E+000	9	...........
	116	1.56	9.13359E-001	9.11512E-005	0.00000E+000	8.32538E-005	5.39641E-002	9.13598E-001	3.57330E+000	9	...........
	117	1.57333	9.15520E-001	9.11345E-005	0.00000E+000	8.34355E-005	5.39641E-002	9.15735E-001	3.57330E+000	9	...........
	118	1.58667	9.17627E-001	9.09928E-005	0.00000E+000	8.34975E-005	5.39641E-002	9.17837E-001	3.57330E+000	9	...........
	119	1.6	9.19725E-001	9.11158E-005	0.00000E+000	8.38015E-005	5.39641E-002	9.19919E-001	3.57330E+000	9	...........
	120	1.61333	9.21848E-001	9.09512E-005	0.00000E+000	8.38432E-005	5.39641E-002	9.22010E-001	3.57330E+000	9	...........
	121	1.62667	9.23903E-001	9.08564E-005	0.00000E+000	8.39425E-005	5.39641E-002	9.24044E-001	3.57330E+000	9	...........
	122	1.64	9.25941E-001	9.06990E-005	0.00000E+000	8.39820E-005	5.39641E-002	9.26084E-001	3.57330E+000	9	...........
	123	1.65333	9.27973E-001	9.12814E-005	0.00000E+000	8.47067E-005	5.39641E-002	9.28133E-001	3.57330E+000	9	...........
	124	1.66667	9.29969E-001	9.09647E-005	0.00000E+000	8.45944E-005	5.39641E-002	9.30128E-001	3.57330E+000	9	...........
	125	1.68	9.31957E-001	9.12523E-005	0.00000E+000	8.50432E-005	5.39641E-002	9.32094E-001	3.57330E+000	9	...........
	126	1.69333	9.33919E-001	9.08407E-005	0.00000E+000	8.48379E-005	5.39641E-002	9.34103E-001	3.57330E+000	9	...........
	127	1.70667	9.35862E-001	9.08855E-005	0.00000E+000	8.50563E-005	5.39641E-002	9.36039E-001	3.57330E+000	9	...........
	128	1.72	9.37792E-001	9.10116E-005	0.00000E+000	8.53499E-005	5.39641E-002	9.37966E-001	3.57330E+000	9	...........
	129	1.73333	9.39679E-001	9.09522E-005	0.00000E+000	8.54659E-005	5.39641E-002	9.39874E-001	3.57330E+000	9	...........
	130	1.74667	9.41556E-001	9.10449E-005	0.00000E+000	8.57239E-005	5.39641E-002	9.41740E-001	3.57330E+000	9	...........
	131	1.76	9.43431E-001	9.10324E-005	0.00000E+000	8.58828E-005	5.39641E-002	9.43615E-001	3.57330E+000	9	...........
	132	1.77333	9.45242E-001	9.12450E-005	0.00000E+000	8.62486E-005	5.39641E-002	9.45449E-001	3.57330E+000	9	...........
	133	1.78667	9.47109E-001	9.09407E-005	0.00000E+000	8.61308E-005	5.39641E-002	9.47310E-001	3.57330E+000	9	...........
	134	1.8	9.48891E-001	9.10824E-005	0.00000E+000	8.64273E-005	5.39641E-002	9.49104E-001	3.57330E+000	9	...........
	135	1.81333	9.50703E-001	9.11147E-005	0.00000E+000	8.66230E-005	5.39641E-002	9.50889E-001	3.57330E+000	9	...........
	136	1.82667	9.52443E-001	9.10762E-005	0.00000E+000	8.67449E-005	5.39641E-002	9.52614E-001	3.57330E+000	9	...........
	137	1.84	9.54200E-001	9.08959E-005	0.00000E+000	8.67329E-005	5.39641E-002	9.54371E-001	3.57330E+000	9	...........
	138	1.85333	9.55927E-001	9.10043E-005	0.00000E+000	8.69935E-005	5.39641E-002	9.56110E-001	3.57330E+000	9	...........
	139	1.86667	9.57653E-001	9.09272E-005	0.00000E+000	8.70767E-005	5.39641E-002	9.57813E-001	3.57330E+000	9	...........
	140	1.88	9.59321E-001	9.12325E-005	0.00000E+000	8.75212E-005	5.39641E-002	9.59540E-001	3.57330E+000	9	...........
	141	1.89333	9.61003E-001	9.11866E-005	0.00000E+000	8.76306E-005	5.39641E-002	9.61201E-001	3.57330E+000	9	...........
	142	1.90667	9.62658E-001	9.10626E-005	0.00000E+000	8.76622E-005	5.39641E-002	9.62864E-001	3.57330E+000	9	...........
	143	1.92	9.64298E-001	9.09939E-005	0.00000E+000	8.77452E-005	5.39641E-002	9.64511E-001	3.57330E+000	9	...........
	144	1.93333	9.65918E-001	9.10626E-005	0.00000E+000	8.79591E-005	5.39641E-002	9.66125E-001	3.57330E+000	9	...........
	145	1.94667	9.67518E-001	9.10960E-005	0.00000E+000	8.81370E-005	5.39641E-002	9.67735E-001	3.57330E+000	9	...........
	146	1.96	9.69107E-001	9.09387E-005	0.00000E+000	8.81293E-005	5.39641E-002	9.69308E-001	3.57330E+000	9	...........
	147	1.97333	9.70685E-001	9.09605E-005	0.00000E+000	8.82941E-005	5.39641E-002	9.70905E-001	3.57330E+000	9	...........
	148	1.98667	9.72250E-001	9.09053E-005	0.00000E+000	8.83827E-005	5.39641E-002	9.72489E-001	3.57330E+000	9	...........
	149	2	9.73829E-001	9.08386E-005	0.00000E+000	8.84613E-005	5.39641E-002	9.74012E-001	3.57330E+000	9	...........
	150	2.01333	9.75331E-001	9.08230E-005	0.00000E+000	8.85825E-005	5.39641E-002	9.75530E-001	3.57330E+000	9	...........
	151	2.02667	9.76807E-001	9.10116E-005	0.00000E+000	8.89008E-005	5.39641E-002	9.77042E-001	3.57330E+000	9	...........
	152	2.04	9.78317E-001	9.10283E-005	0.00000E+000	8.90545E-005	5.39641E-002	9.78531E-001	3.57330E+000	9	...........
	153	2.05333	9.79791E-001	9.09303E-005	0.00000E+000	8.90927E-005	5.39641E-002	9.79991E-001	3.57330E+000	9	...........
	154	2.06667	9.81242E-001	9.08303E-005	0.00000E+000	8.91265E-005	5.39641E-002	9.81451E-001	3.57330E+000	9	...........
	155	2.08	9.82698E-001	9.10877E-005	0.00000E+000	8.95117E-005	5.39641E-002	9.82882E-001	3.57330E+000	9	...........
	156	2.09333	9.84129E-001	9.13919E-005	0.00000E+000	8.99414E-005	5.39641E-002	9.84350E-001	3.57330E+000	9	...........
	157	2.10667	9.85563E-001	9.07303E-005	0.00000E+000	8.94204E-005	5.39641E-002	9.85782E-001	3.57330E+000	9	...........
	158	2.12	9.86986E-001	9.10741E-005	0.00000E+000	8.98889E-005	5.39641E-002	9.87162E-001	3.57330E+000	9	...........
	159	2.13333	9.88377E-001	9.11252E-005	0.00000E+000	9.00660E-005	5.39641E-002	9.88575E-001	3.57330E+000	9	...........
	160	2.14667	9.89760E-001	9.08334E-005	0.00000E+000	8.99033E-005	5.39641E-002	9.89965E-001	3.57330E+000	9	...........
	161	2.16	9.91108E-001	9.11783E-005	0.00000E+000	9.03675E-005	5.39641E-002	9.91325E-001	3.57330E+000	9	...........
	162	2.17333	9.92442E-001	9.11022E-005	0.00000E+000	9.04137E-005	5.39641E-002	9.92666E-001	3.57277E+000	9	...........
	163	2.18667	9.93780E-001	9.09876E-005	0.00000E+000	9.04217E-005	5.39641E-002	9.94011E-001	3.57260E+000	9	...........
	164	2.2	9.95097E-001	9.09876E-005	0.00000E+000	9.05415E-005	5.39641E-002	9.95331E-001	3.57260E+000	9	...........
	165	2.21333	9.96425E-001	9.10272E-005	0.00000E+000	9.07018E-005	5.39641E-002	9.96671E-001	3.57260E+000	9	...........
	166	2.22667	9.97745E-001	9.10085E-005	0.00000E+000	9.08033E-005	5.39641E-002	9.98001E-001	3.57260E+000	9	...........
	167	2.24	9.99039E-001	9.08334E-005	0.00000E+000	9.07462E-005	5.39641E-002	9.99271E-001	3.57260E+000	9	...........
	168	2.245	9.99933E-001	9.05875E-005	0.00000E+000	9.05815E-005	5.39641E-002	1.00016E+000	3.57260E+000	9	...........
STARTTIMEOFFSET	QUANT	2247.795	Start Time Offset (s)
