EXPLAIN
TAG	PWR800_CHARGE
TITLE	LABEL	PWR Cyclic Charge Discharge (Cell) - Charge Step	Test &Identifier
DATE	LABEL	10-7-2017	Date
TIME	LABEL	16:24:28	Time
NOTES	NOTES	3	&Notes...
	supercap test cell
	0.9mg
	6M KOH
PSTAT	PSTAT	IFC5000-01520	Potentiostat
CAPACITY	QUANT	1.00000E-003	Capacity (A-hr)
CELLTYPE	SELECTOR	1	&Cell Type
WORKINGCONNECTION	SELECTOR	0	&Working Lead
MAXCHARGETIME	VARIABLEANDUNITS	1.00000E+002	s	1.00000E+002	second(s)	Max &Charge Time
CHARGECURRENT	QUANT	9.00000E-005	&Charge Current (A) 
VOLTAGEFINISH	TWOPARAM	F	1.00000E-003	3.60000E+003	&Voltage Finish	 I (A) < 	Max Time(s)
SAMPLETIME	QUANT	1.00000E-002	Sa&mple Period (s)
CHARGESTOPAT1	MULTIPARAM	4	1.00000E+000	Charge Stop At &1	Voltage > Limit	V
CHARGESTOPAT2	MULTIPARAM	0	0.00000E+000	Charge Stop At &2	None	N/A
AESBHCSELECTOR	TOGGLE	F	Save Both Half Cells
IRCOMP	TOGGLE	F	IR &Measure
EOC	QUANT	0	Open Circuit (V)
SEQUENCER	TOGGLE	TRUE	Run as Sequence
PSTATMODEL	IQUANT	53	Pstat Model
PSTATSECTION	LABEL	IFC5000-01520	Pstat Section
PSTATSERIALNO	LABEL	01520	Pstat Serial Number
CTRLMODE	IQUANT	0	Control Mode
ELECTROMETER	IQUANT	1	RE=0 or CS=1
IESTAB	IQUANT	0	I/E Stability
CASPEED	IQUANT	4	Control Amp Speed
CONVENTION	IQUANT	1	Current Convention
ICHRANGE	IQUANT	2	Ich Range
ICHRANGEMODE	TOGGLE	T	Ich Auto Range
ICHOFFSETENABLE	TOGGLE	F	Ich Offset Enable
ICHOFFSET	QUANT	0	Ich Offset (V)
ICHFILTER	IQUANT	1	Ich Filter
VCHRANGE	IQUANT	2	Vch Range
VCHRANGEMODE	TOGGLE	T	Vch Auto Range
VCHOFFSETENABLE	TOGGLE	F	Vch Offset Enable
VCHOFFSET	QUANT	0	Vch Offset (V)
VCHFILTER	IQUANT	1	Vch Filter
IERANGELOWERLIMIT	IQUANT	9	I/E Range Lower Limit
IERANGEMODE	TOGGLE	F	I/E AutoRange
IERANGE	IQUANT	9	I/E Range
ACHSELECT	IQUANT	1	Ach Select
ACHRANGE	IQUANT	2	Ach Range
ACHOFFSETENABLE	TOGGLE	F	Ach Offset Enable
ACHOFFSET	QUANT	0	Ach Offset (V)
ACHFILTER	IQUANT	1	Ach Filter
CABLEID	IQUANT	14	Cable ID
DCCALDATE	LABEL	5-7-2017	DC Calibration Date
ACCALDATE	LABEL	12/3/2015	AC Calibration Date
FRAMEWORKVERSION	QUANT	7.01	Framework Version
INSTRUMENTVERSION	LABEL	4.00	Instrument Version
CURVE	TABLE	161
	Pt	T	Vf	Im	Vu	Pwr	Sig	Ach	Temp	IERange	Over
	#	s	V	A	V	W	V	V	deg C	#	bits
	0	0.013333	2.62715E-001	9.08991E-005	0.00000E+000	2.38806E-005	5.39641E-002	2.62757E-001	3.57320E+000	9	...........
	1	0.026667	2.82378E-001	9.09303E-005	0.00000E+000	2.56767E-005	5.39641E-002	2.82413E-001	3.57320E+000	9	...........
	2	0.04	3.00881E-001	9.08480E-005	0.00000E+000	2.73345E-005	5.39641E-002	3.00922E-001	3.57320E+000	9	...........
	3	0.053333	3.18388E-001	9.08209E-005	0.00000E+000	2.89163E-005	5.39641E-002	3.18424E-001	3.57320E+000	9	...........
	4	0.066667	3.34981E-001	9.08751E-005	0.00000E+000	3.04415E-005	5.39641E-002	3.35019E-001	3.57320E+000	9	...........
	5	0.08	3.50759E-001	9.08501E-005	0.00000E+000	3.18665E-005	5.39641E-002	3.50802E-001	3.57320E+000	9	...........
	6	0.093333	3.65790E-001	9.07220E-005	0.00000E+000	3.31852E-005	5.39641E-002	3.65830E-001	3.57320E+000	9	...........
	7	0.106667	3.80115E-001	9.08876E-005	0.00000E+000	3.45478E-005	5.39641E-002	3.80159E-001	3.57320E+000	9	...........
	8	0.12	3.93807E-001	9.11575E-005	0.00000E+000	3.58984E-005	5.39641E-002	3.93851E-001	3.57320E+000	9	...........
	9	0.133333	4.06904E-001	9.10199E-005	0.00000E+000	3.70364E-005	5.39641E-002	4.06962E-001	3.57320E+000	9	...........
	10	0.146667	4.19447E-001	9.09814E-005	0.00000E+000	3.81618E-005	5.39641E-002	4.19505E-001	3.57320E+000	9	...........
	11	0.16	4.31487E-001	9.10262E-005	0.00000E+000	3.92766E-005	5.39641E-002	4.31543E-001	3.57320E+000	9	...........
	12	0.173333	4.43059E-001	9.09230E-005	0.00000E+000	4.02842E-005	5.39641E-002	4.43119E-001	3.57320E+000	9	...........
	13	0.186667	4.54192E-001	9.08928E-005	0.00000E+000	4.12828E-005	5.39641E-002	4.54252E-001	3.57320E+000	9	...........
	14	0.2	4.64918E-001	9.10835E-005	0.00000E+000	4.23464E-005	5.39641E-002	4.64981E-001	3.57320E+000	9	...........
	15	0.213333	4.75272E-001	9.11627E-005	0.00000E+000	4.33271E-005	5.39641E-002	4.75337E-001	3.57320E+000	9	...........
	16	0.226667	4.85276E-001	9.10835E-005	0.00000E+000	4.42007E-005	5.39641E-002	4.85336E-001	3.57320E+000	9	...........
	17	0.24	4.94923E-001	9.11595E-005	0.00000E+000	4.51170E-005	5.39641E-002	4.94995E-001	3.57320E+000	9	...........
	18	0.253333	5.04272E-001	9.09470E-005	0.00000E+000	4.58620E-005	5.39641E-002	5.04340E-001	3.57320E+000	9	...........
	19	0.266667	5.13303E-001	9.10408E-005	0.00000E+000	4.67315E-005	5.39641E-002	5.13371E-001	3.57320E+000	9	...........
	20	0.28	5.22068E-001	9.12971E-005	0.00000E+000	4.76633E-005	5.39641E-002	5.22144E-001	3.57320E+000	9	...........
	21	0.293333	5.30562E-001	9.09095E-005	0.00000E+000	4.82331E-005	5.39641E-002	5.30644E-001	3.57320E+000	9	...........
	22	0.306667	5.38742E-001	9.07720E-005	0.00000E+000	4.89026E-005	5.39641E-002	5.38872E-001	3.57320E+000	9	...........
	23	0.32	5.46773E-001	9.09126E-005	0.00000E+000	4.97086E-005	5.39641E-002	5.46890E-001	3.57320E+000	9	...........
	24	0.333333	5.54566E-001	9.12002E-005	0.00000E+000	5.05766E-005	5.39641E-002	5.54711E-001	3.57320E+000	9	...........
	25	0.346667	5.62185E-001	9.10793E-005	0.00000E+000	5.12035E-005	5.39641E-002	5.62334E-001	3.57320E+000	9	...........
	26	0.36	5.69618E-001	9.10043E-005	0.00000E+000	5.18377E-005	5.39641E-002	5.69741E-001	3.57320E+000	9	...........
	27	0.373333	5.76821E-001	9.12148E-005	0.00000E+000	5.26146E-005	5.39641E-002	5.76960E-001	3.57320E+000	9	...........
	28	0.386667	5.83871E-001	9.11387E-005	0.00000E+000	5.32132E-005	5.39641E-002	5.84015E-001	3.57320E+000	9	...........
	29	0.4	5.90794E-001	9.09376E-005	0.00000E+000	5.37254E-005	5.39641E-002	5.90941E-001	3.57320E+000	9	...........
	30	0.413333	5.97535E-001	9.11085E-005	0.00000E+000	5.44405E-005	5.39641E-002	5.97665E-001	3.57320E+000	9	...........
	31	0.426667	6.04102E-001	9.10970E-005	0.00000E+000	5.50319E-005	5.39641E-002	6.04247E-001	3.57320E+000	9	...........
	32	0.44	6.10513E-001	9.12346E-005	0.00000E+000	5.56999E-005	5.39641E-002	6.10690E-001	3.57320E+000	9	...........
	33	0.453333	6.16906E-001	9.10262E-005	0.00000E+000	5.61546E-005	5.39641E-002	6.17011E-001	3.57320E+000	9	...........
	34	0.466667	6.23073E-001	9.10314E-005	0.00000E+000	5.67192E-005	5.39641E-002	6.23176E-001	3.57320E+000	9	...........
	35	0.48	6.29138E-001	9.08241E-005	0.00000E+000	5.71408E-005	5.39641E-002	6.29241E-001	3.57320E+000	9	...........
	36	0.493333	6.35059E-001	9.09241E-005	0.00000E+000	5.77421E-005	5.39641E-002	6.35169E-001	3.57320E+000	9	...........
	37	0.506667	6.40905E-001	9.09282E-005	0.00000E+000	5.82763E-005	5.39641E-002	6.41012E-001	3.57320E+000	9	...........
	38	0.52	6.46610E-001	9.09189E-005	0.00000E+000	5.87891E-005	5.39641E-002	6.46719E-001	3.57320E+000	9	...........
	39	0.533333	6.52202E-001	9.11168E-005	0.00000E+000	5.94266E-005	5.39641E-002	6.52339E-001	3.57320E+000	9	...........
	40	0.546667	6.57709E-001	9.09230E-005	0.00000E+000	5.98009E-005	5.39641E-002	6.57795E-001	3.57320E+000	9	...........
	41	0.56	6.63078E-001	9.08199E-005	0.00000E+000	6.02206E-005	5.39641E-002	6.63215E-001	3.57320E+000	9	...........
	42	0.573333	6.68422E-001	9.11262E-005	0.00000E+000	6.09108E-005	5.39641E-002	6.68510E-001	3.57320E+000	9	...........
	43	0.586667	6.73623E-001	9.11304E-005	0.00000E+000	6.13875E-005	5.39641E-002	6.73733E-001	3.57320E+000	9	...........
	44	0.6	6.78747E-001	9.08574E-005	0.00000E+000	6.16692E-005	5.39641E-002	6.78883E-001	3.57320E+000	9	...........
	45	0.613333	6.83792E-001	9.07918E-005	0.00000E+000	6.20826E-005	5.39641E-002	6.83908E-001	3.57320E+000	9	...........
	46	0.626667	6.88778E-001	9.10178E-005	0.00000E+000	6.26911E-005	5.39641E-002	6.88903E-001	3.57320E+000	9	...........
	47	0.64	6.93675E-001	9.11106E-005	0.00000E+000	6.32012E-005	5.39641E-002	6.93804E-001	3.57320E+000	9	...........
	48	0.653333	6.98476E-001	9.09730E-005	0.00000E+000	6.35425E-005	5.39641E-002	6.98614E-001	3.57320E+000	9	...........
	49	0.666667	7.03244E-001	9.09626E-005	0.00000E+000	6.39689E-005	5.39641E-002	7.03360E-001	3.57320E+000	9	...........
	50	0.68	7.07887E-001	9.08980E-005	0.00000E+000	6.43455E-005	5.39641E-002	7.08049E-001	3.57320E+000	9	...........
	51	0.693333	7.12497E-001	9.10783E-005	0.00000E+000	6.48930E-005	5.39641E-002	7.12648E-001	3.57320E+000	9	...........
	52	0.706667	7.17065E-001	9.11408E-005	0.00000E+000	6.53539E-005	5.39641E-002	7.17198E-001	3.57320E+000	9	...........
	53	0.72	7.21547E-001	9.10595E-005	0.00000E+000	6.57037E-005	5.39641E-002	7.21668E-001	3.57320E+000	9	...........
	54	0.733333	7.25958E-001	9.10376E-005	0.00000E+000	6.60895E-005	5.39641E-002	7.26068E-001	3.57320E+000	9	...........
	55	0.746667	7.30326E-001	9.09533E-005	0.00000E+000	6.64256E-005	5.39641E-002	7.30455E-001	3.57361E+000	9	...........
	56	0.76	7.34607E-001	9.09772E-005	0.00000E+000	6.68325E-005	5.39641E-002	7.34743E-001	3.57430E+000	9	...........
	57	0.773333	7.38831E-001	9.11116E-005	0.00000E+000	6.73161E-005	5.39641E-002	7.38956E-001	3.57430E+000	9	...........
	58	0.786667	7.43041E-001	9.12846E-005	0.00000E+000	6.78282E-005	5.39641E-002	7.43179E-001	3.57430E+000	9	...........
	59	0.8	7.47154E-001	9.10668E-005	0.00000E+000	6.80409E-005	5.39641E-002	7.47301E-001	3.57430E+000	9	...........
	60	0.813333	7.51259E-001	9.09699E-005	0.00000E+000	6.83420E-005	5.39641E-002	7.51391E-001	3.57430E+000	9	...........
	61	0.826667	7.55329E-001	9.09793E-005	0.00000E+000	6.87193E-005	5.39641E-002	7.55453E-001	3.57430E+000	9	...........
	62	0.84	7.59282E-001	9.10585E-005	0.00000E+000	6.91391E-005	5.39641E-002	7.59442E-001	3.57430E+000	9	...........
	63	0.853333	7.63251E-001	9.09345E-005	0.00000E+000	6.94058E-005	5.39641E-002	7.63379E-001	3.57430E+000	9	...........
	64	0.866667	7.67122E-001	9.11137E-005	0.00000E+000	6.98954E-005	5.39641E-002	7.67311E-001	3.57430E+000	9	...........
	65	0.88	7.70991E-001	9.10043E-005	0.00000E+000	7.01635E-005	5.39641E-002	7.71174E-001	3.57430E+000	9	...........
	66	0.893333	7.74820E-001	9.10585E-005	0.00000E+000	7.05540E-005	5.39641E-002	7.74971E-001	3.57430E+000	9	...........
	67	0.906667	7.78580E-001	9.09137E-005	0.00000E+000	7.07836E-005	5.39641E-002	7.78746E-001	3.57430E+000	9	...........
	68	0.92	7.82333E-001	9.10658E-005	0.00000E+000	7.12438E-005	5.39641E-002	7.82479E-001	3.57430E+000	9	...........
	69	0.933333	7.86007E-001	9.09272E-005	0.00000E+000	7.14694E-005	5.39641E-002	7.86175E-001	3.57430E+000	9	...........
	70	0.946667	7.89658E-001	9.10585E-005	0.00000E+000	7.19051E-005	5.39641E-002	7.89822E-001	3.57430E+000	9	...........
	71	0.96	7.93285E-001	9.10137E-005	0.00000E+000	7.21997E-005	5.39641E-002	7.93444E-001	3.57430E+000	9	...........
	72	0.97333	7.96872E-001	9.09595E-005	0.00000E+000	7.24831E-005	5.39641E-002	7.97016E-001	3.57430E+000	9	...........
	73	0.98667	8.00384E-001	9.10710E-005	0.00000E+000	7.28917E-005	5.39641E-002	8.00507E-001	3.57430E+000	9	...........
	74	1	8.03817E-001	9.11397E-005	0.00000E+000	7.32597E-005	5.39641E-002	8.03978E-001	3.57430E+000	9	...........
	75	1.01333	8.07254E-001	9.11168E-005	0.00000E+000	7.35544E-005	5.39641E-002	8.07437E-001	3.57430E+000	9	...........
	76	1.02667	8.10679E-001	9.06740E-005	0.00000E+000	7.35075E-005	5.39641E-002	8.10828E-001	3.57430E+000	9	...........
	77	1.04	8.14069E-001	9.10022E-005	0.00000E+000	7.40820E-005	5.39641E-002	8.14227E-001	3.57430E+000	9	...........
	78	1.05333	8.17419E-001	9.11272E-005	0.00000E+000	7.44891E-005	5.39641E-002	8.17597E-001	3.57430E+000	9	...........
	79	1.06667	8.20767E-001	9.09658E-005	0.00000E+000	7.46617E-005	5.39641E-002	8.20932E-001	3.57430E+000	9	...........
	80	1.08	8.24010E-001	9.07865E-005	0.00000E+000	7.48090E-005	5.39641E-002	8.24196E-001	3.57430E+000	9	...........
	81	1.09333	8.27251E-001	9.11189E-005	0.00000E+000	7.53782E-005	5.39641E-002	8.27390E-001	3.57430E+000	9	...........
	82	1.10667	8.30426E-001	9.08376E-005	0.00000E+000	7.54339E-005	5.39641E-002	8.30596E-001	3.57430E+000	9	...........
	83	1.12	8.33590E-001	9.10116E-005	0.00000E+000	7.58663E-005	5.39641E-002	8.33782E-001	3.57430E+000	9	...........
	84	1.13333	8.36749E-001	9.12137E-005	0.00000E+000	7.63230E-005	5.39641E-002	8.36917E-001	3.57430E+000	9	...........
	85	1.14667	8.39839E-001	9.09303E-005	0.00000E+000	7.63669E-005	5.39641E-002	8.40024E-001	3.57430E+000	9	...........
	86	1.16	8.42924E-001	9.11127E-005	0.00000E+000	7.68011E-005	5.39641E-002	8.43104E-001	3.57430E+000	9	...........
	87	1.17333	8.46007E-001	9.09564E-005	0.00000E+000	7.69497E-005	5.39641E-002	8.46186E-001	3.57430E+000	9	...........
	88	1.18667	8.49006E-001	9.07907E-005	0.00000E+000	7.70819E-005	5.39641E-002	8.49193E-001	3.57430E+000	9	...........
	89	1.2	8.51978E-001	9.11668E-005	0.00000E+000	7.76721E-005	5.39641E-002	8.52166E-001	3.57430E+000	9	...........
	90	1.21333	8.54929E-001	9.11220E-005	0.00000E+000	7.79028E-005	5.39641E-002	8.55109E-001	3.57430E+000	9	...........
	91	1.22667	8.57842E-001	9.08616E-005	0.00000E+000	7.79449E-005	5.39641E-002	8.58051E-001	3.57430E+000	9	...........
	92	1.24	8.60742E-001	9.10845E-005	0.00000E+000	7.84003E-005	5.39641E-002	8.60922E-001	3.57430E+000	9	...........
	93	1.25333	8.63588E-001	9.08626E-005	0.00000E+000	7.84679E-005	5.39641E-002	8.63786E-001	3.57430E+000	9	...........
	94	1.26667	8.66425E-001	9.09470E-005	0.00000E+000	7.87988E-005	5.39641E-002	8.66616E-001	3.57430E+000	9	...........
	95	1.28	8.69243E-001	9.07793E-005	0.00000E+000	7.89092E-005	5.39641E-002	8.69443E-001	3.57430E+000	9	...........
	96	1.29333	8.72030E-001	9.09626E-005	0.00000E+000	7.93221E-005	5.39641E-002	8.72201E-001	3.57430E+000	9	...........
	97	1.30667	8.74774E-001	9.11022E-005	0.00000E+000	7.96938E-005	5.39641E-002	8.74958E-001	3.57430E+000	9	...........
	98	1.32	8.77486E-001	9.07876E-005	0.00000E+000	7.96648E-005	5.39641E-002	8.77658E-001	3.57430E+000	9	...........
	99	1.33333	8.80209E-001	9.08772E-005	0.00000E+000	7.99909E-005	5.39641E-002	8.80384E-001	3.57430E+000	9	...........
	100	1.34667	8.82886E-001	9.09251E-005	0.00000E+000	8.02766E-005	5.39641E-002	8.83069E-001	3.57430E+000	9	...........
	101	1.36	8.85530E-001	9.10231E-005	0.00000E+000	8.06036E-005	5.39641E-002	8.85723E-001	3.57430E+000	9	...........
	102	1.37333	8.88151E-001	9.09981E-005	0.00000E+000	8.08200E-005	5.39641E-002	8.88321E-001	3.57430E+000	9	...........
	103	1.38667	8.90698E-001	9.09407E-005	0.00000E+000	8.10007E-005	5.39641E-002	8.90885E-001	3.57430E+000	9	...........
	104	1.4	8.93228E-001	9.10626E-005	0.00000E+000	8.13397E-005	5.39641E-002	8.93419E-001	3.57430E+000	9	...........
	105	1.41333	8.95768E-001	9.11866E-005	0.00000E+000	8.16820E-005	5.39641E-002	8.95969E-001	3.57430E+000	9	...........
	106	1.42667	8.98256E-001	9.11564E-005	0.00000E+000	8.18818E-005	5.39641E-002	8.98469E-001	3.57430E+000	9	...........
	107	1.44	9.00746E-001	9.12398E-005	0.00000E+000	8.21838E-005	5.39641E-002	9.00924E-001	3.57430E+000	9	...........
	108	1.45333	9.03187E-001	9.10939E-005	0.00000E+000	8.22748E-005	5.39641E-002	9.03400E-001	3.57430E+000	9	...........
	109	1.46667	9.05599E-001	9.11022E-005	0.00000E+000	8.25021E-005	5.39641E-002	9.05805E-001	3.57430E+000	9	...........
	110	1.48	9.08007E-001	9.11502E-005	0.00000E+000	8.27650E-005	5.39641E-002	9.08215E-001	3.57430E+000	9	...........
	111	1.49333	9.10397E-001	9.10710E-005	0.00000E+000	8.29107E-005	5.39641E-002	9.10607E-001	3.57430E+000	9	...........
	112	1.50667	9.12750E-001	9.11033E-005	0.00000E+000	8.31545E-005	5.39641E-002	9.12940E-001	3.57430E+000	9	...........
	113	1.52	9.15073E-001	9.09230E-005	0.00000E+000	8.32013E-005	5.39641E-002	9.15277E-001	3.57430E+000	9	...........
	114	1.53333	9.17348E-001	9.12221E-005	0.00000E+000	8.36824E-005	5.39641E-002	9.17584E-001	3.57430E+000	9	...........
	115	1.54667	9.19648E-001	9.07563E-005	0.00000E+000	8.34638E-005	5.39641E-002	9.19830E-001	3.57430E+000	9	...........
	116	1.56	9.21957E-001	9.11002E-005	0.00000E+000	8.39904E-005	5.39641E-002	9.22113E-001	3.57430E+000	9	...........
	117	1.57333	9.24169E-001	9.10324E-005	0.00000E+000	8.41294E-005	5.39641E-002	9.24342E-001	3.57430E+000	9	...........
	118	1.58667	9.26366E-001	9.12189E-005	0.00000E+000	8.45021E-005	5.39641E-002	9.26542E-001	3.57430E+000	9	...........
	119	1.6	9.28536E-001	9.09324E-005	0.00000E+000	8.44340E-005	5.39641E-002	9.28708E-001	3.57430E+000	9	...........
	120	1.61333	9.30687E-001	9.08678E-005	0.00000E+000	8.45695E-005	5.39641E-002	9.30832E-001	3.57430E+000	9	...........
	121	1.62667	9.32807E-001	9.06157E-005	0.00000E+000	8.45270E-005	5.39641E-002	9.32962E-001	3.57430E+000	9	...........
	122	1.64	9.34888E-001	9.12064E-005	0.00000E+000	8.52678E-005	5.39641E-002	9.35069E-001	3.57430E+000	9	...........
	123	1.65333	9.36979E-001	9.09501E-005	0.00000E+000	8.52184E-005	5.39641E-002	9.37142E-001	3.57430E+000	9	...........
	124	1.66667	9.39013E-001	9.07501E-005	0.00000E+000	8.52155E-005	5.39641E-002	9.39190E-001	3.57430E+000	9	...........
	125	1.68	9.41055E-001	9.08741E-005	0.00000E+000	8.55175E-005	5.39641E-002	9.41218E-001	3.57430E+000	9	...........
	126	1.69333	9.43079E-001	9.09241E-005	0.00000E+000	8.57486E-005	5.39641E-002	9.43230E-001	3.57430E+000	9	...........
	127	1.70667	9.45069E-001	9.09855E-005	0.00000E+000	8.59877E-005	5.39641E-002	9.45236E-001	3.57430E+000	9	...........
	128	1.72	9.47091E-001	9.11981E-005	0.00000E+000	8.63729E-005	5.39641E-002	9.47250E-001	3.57430E+000	9	...........
	129	1.73333	9.49057E-001	9.10345E-005	0.00000E+000	8.63970E-005	5.39641E-002	9.49203E-001	3.57430E+000	9	...........
	130	1.74667	9.50999E-001	9.09772E-005	0.00000E+000	8.65192E-005	5.39641E-002	9.51140E-001	3.57377E+000	9	...........
	131	1.76	9.52914E-001	9.07626E-005	0.00000E+000	8.64889E-005	5.39641E-002	9.53050E-001	3.57290E+000	9	...........
	132	1.77333	9.54821E-001	9.09887E-005	0.00000E+000	8.68779E-005	5.39641E-002	9.54963E-001	3.57290E+000	9	...........
	133	1.78667	9.56680E-001	9.10720E-005	0.00000E+000	8.71268E-005	5.39641E-002	9.56854E-001	3.57290E+000	9	...........
	134	1.8	9.58561E-001	9.08334E-005	0.00000E+000	8.70694E-005	5.39641E-002	9.58708E-001	3.57290E+000	9	...........
	135	1.81333	9.60378E-001	9.10512E-005	0.00000E+000	8.74435E-005	5.39641E-002	9.60584E-001	3.57290E+000	9	...........
	136	1.82667	9.62200E-001	9.09960E-005	0.00000E+000	8.75563E-005	5.39641E-002	9.62395E-001	3.57290E+000	9	...........
	137	1.84	9.63969E-001	9.09491E-005	0.00000E+000	8.76721E-005	5.39641E-002	9.64175E-001	3.57290E+000	9	...........
	138	1.85333	9.65750E-001	9.11200E-005	0.00000E+000	8.79991E-005	5.39641E-002	9.65953E-001	3.57290E+000	9	...........
	139	1.86667	9.67533E-001	9.11377E-005	0.00000E+000	8.81787E-005	5.39641E-002	9.67704E-001	3.57290E+000	9	...........
	140	1.88	9.69263E-001	9.10637E-005	0.00000E+000	8.82647E-005	5.39641E-002	9.69450E-001	3.57290E+000	9	...........
	141	1.89333	9.70964E-001	9.10897E-005	0.00000E+000	8.84449E-005	5.39641E-002	9.71176E-001	3.57290E+000	9	...........
	142	1.90667	9.72708E-001	9.07105E-005	0.00000E+000	8.82349E-005	5.39641E-002	9.72888E-001	3.57290E+000	9	...........
	143	1.92	9.74405E-001	9.08918E-005	0.00000E+000	8.85654E-005	5.39641E-002	9.74590E-001	3.57290E+000	9	...........
	144	1.93333	9.76048E-001	9.09366E-005	0.00000E+000	8.87585E-005	5.39641E-002	9.76255E-001	3.57290E+000	9	...........
	145	1.94667	9.77674E-001	9.10720E-005	0.00000E+000	8.90388E-005	5.39641E-002	9.77891E-001	3.57290E+000	9	...........
	146	1.96	9.79295E-001	9.09470E-005	0.00000E+000	8.90639E-005	5.39641E-002	9.79514E-001	3.57290E+000	9	...........
	147	1.97333	9.80919E-001	9.09678E-005	0.00000E+000	8.92321E-005	5.39641E-002	9.81116E-001	3.57290E+000	9	...........
	148	1.98667	9.82491E-001	9.11314E-005	0.00000E+000	8.95358E-005	5.39641E-002	9.82715E-001	3.57290E+000	9	...........
	149	2	9.84044E-001	9.11231E-005	0.00000E+000	8.96691E-005	5.39641E-002	9.84282E-001	3.57290E+000	9	...........
	150	2.01333	9.85554E-001	9.09720E-005	0.00000E+000	8.96579E-005	5.39641E-002	9.85824E-001	3.57290E+000	9	...........
	151	2.02667	9.87101E-001	9.11314E-005	0.00000E+000	8.99559E-005	5.39641E-002	9.87342E-001	3.57290E+000	9	...........
	152	2.04	9.88622E-001	9.11762E-005	0.00000E+000	9.01388E-005	5.39641E-002	9.88839E-001	3.57290E+000	9	...........
	153	2.05333	9.90122E-001	9.08241E-005	0.00000E+000	8.99269E-005	5.39641E-002	9.90337E-001	3.57290E+000	9	...........
	154	2.06667	9.91580E-001	9.11522E-005	0.00000E+000	9.03848E-005	5.39641E-002	9.91801E-001	3.57290E+000	9	...........
	155	2.08	9.93028E-001	9.12335E-005	0.00000E+000	9.05975E-005	5.39641E-002	9.93251E-001	3.57290E+000	9	...........
	156	2.09333	9.94469E-001	9.11022E-005	0.00000E+000	9.05983E-005	5.39641E-002	9.94690E-001	3.57290E+000	9	...........
	157	2.10667	9.95911E-001	9.07501E-005	0.00000E+000	9.03790E-005	5.39641E-002	9.96136E-001	3.57290E+000	9	...........
	158	2.12	9.97338E-001	9.09168E-005	0.00000E+000	9.06747E-005	5.39641E-002	9.97561E-001	3.57290E+000	9	...........
	159	2.13333	9.98754E-001	9.09595E-005	0.00000E+000	9.08462E-005	5.39641E-002	9.98966E-001	3.57290E+000	9	...........
	160	2.14	9.99798E-001	9.11439E-005	0.00000E+000	9.11255E-005	5.39641E-002	1.00000E+000	3.57290E+000	9	...........
STARTTIMEOFFSET	QUANT	4283.649	Start Time Offset (s)
