EXPLAIN
TAG	PWR800_CHARGE
TITLE	LABEL	PWR Cyclic Charge Discharge (Cell) - Charge Step	Test &Identifier
DATE	LABEL	10-7-2017	Date
TIME	LABEL	15:22:33	Time
NOTES	NOTES	3	&Notes...
	supercap test cell
	0.9mg
	6M KOH
PSTAT	PSTAT	IFC5000-01520	Potentiostat
CAPACITY	QUANT	1.00000E-003	Capacity (A-hr)
CELLTYPE	SELECTOR	1	&Cell Type
WORKINGCONNECTION	SELECTOR	0	&Working Lead
MAXCHARGETIME	VARIABLEANDUNITS	1.00000E+002	s	1.00000E+002	second(s)	Max &Charge Time
CHARGECURRENT	QUANT	9.00000E-005	&Charge Current (A) 
VOLTAGEFINISH	TWOPARAM	F	1.00000E-003	3.60000E+003	&Voltage Finish	 I (A) < 	Max Time(s)
SAMPLETIME	QUANT	1.00000E-002	Sa&mple Period (s)
CHARGESTOPAT1	MULTIPARAM	4	1.00000E+000	Charge Stop At &1	Voltage > Limit	V
CHARGESTOPAT2	MULTIPARAM	0	0.00000E+000	Charge Stop At &2	None	N/A
AESBHCSELECTOR	TOGGLE	F	Save Both Half Cells
IRCOMP	TOGGLE	F	IR &Measure
EOC	QUANT	0	Open Circuit (V)
SEQUENCER	TOGGLE	TRUE	Run as Sequence
PSTATMODEL	IQUANT	53	Pstat Model
PSTATSECTION	LABEL	IFC5000-01520	Pstat Section
PSTATSERIALNO	LABEL	01520	Pstat Serial Number
CTRLMODE	IQUANT	0	Control Mode
ELECTROMETER	IQUANT	1	RE=0 or CS=1
IESTAB	IQUANT	0	I/E Stability
CASPEED	IQUANT	4	Control Amp Speed
CONVENTION	IQUANT	1	Current Convention
ICHRANGE	IQUANT	2	Ich Range
ICHRANGEMODE	TOGGLE	T	Ich Auto Range
ICHOFFSETENABLE	TOGGLE	F	Ich Offset Enable
ICHOFFSET	QUANT	0	Ich Offset (V)
ICHFILTER	IQUANT	1	Ich Filter
VCHRANGE	IQUANT	2	Vch Range
VCHRANGEMODE	TOGGLE	T	Vch Auto Range
VCHOFFSETENABLE	TOGGLE	F	Vch Offset Enable
VCHOFFSET	QUANT	0	Vch Offset (V)
VCHFILTER	IQUANT	1	Vch Filter
IERANGELOWERLIMIT	IQUANT	9	I/E Range Lower Limit
IERANGEMODE	TOGGLE	F	I/E AutoRange
IERANGE	IQUANT	9	I/E Range
ACHSELECT	IQUANT	1	Ach Select
ACHRANGE	IQUANT	2	Ach Range
ACHOFFSETENABLE	TOGGLE	F	Ach Offset Enable
ACHOFFSET	QUANT	0	Ach Offset (V)
ACHFILTER	IQUANT	1	Ach Filter
CABLEID	IQUANT	14	Cable ID
DCCALDATE	LABEL	5-7-2017	DC Calibration Date
ACCALDATE	LABEL	12/3/2015	AC Calibration Date
FRAMEWORKVERSION	QUANT	7.01	Framework Version
INSTRUMENTVERSION	LABEL	4.00	Instrument Version
CURVE	TABLE	176
	Pt	T	Vf	Im	Vu	Pwr	Sig	Ach	Temp	IERange	Over
	#	s	V	A	V	W	V	V	deg C	#	bits
	0	0.013333	2.95226E-001	9.09272E-005	0.00000E+000	2.68441E-005	5.39641E-002	2.95284E-001	3.57270E+000	9	...........
	1	0.026667	3.14281E-001	9.11793E-005	0.00000E+000	2.86559E-005	5.39641E-002	3.14319E-001	3.57270E+000	9	...........
	2	0.04	3.31907E-001	9.12710E-005	0.00000E+000	3.02935E-005	5.39641E-002	3.31945E-001	3.57270E+000	9	...........
	3	0.053333	3.48351E-001	9.07699E-005	0.00000E+000	3.16198E-005	5.39641E-002	3.48401E-001	3.57270E+000	9	...........
	4	0.066667	3.63792E-001	9.08272E-005	0.00000E+000	3.30422E-005	5.39641E-002	3.63834E-001	3.57270E+000	9	...........
	5	0.08	3.78363E-001	9.11179E-005	0.00000E+000	3.44757E-005	5.39641E-002	3.78405E-001	3.57270E+000	9	...........
	6	0.093333	3.92191E-001	9.09783E-005	0.00000E+000	3.56808E-005	5.39641E-002	3.92219E-001	3.57270E+000	9	...........
	7	0.106667	4.05327E-001	9.09741E-005	0.00000E+000	3.68743E-005	5.39641E-002	4.05375E-001	3.57270E+000	9	...........
	8	0.12	4.17848E-001	9.09084E-005	0.00000E+000	3.79859E-005	5.39641E-002	4.17896E-001	3.57270E+000	9	...........
	9	0.133333	4.29813E-001	9.09314E-005	0.00000E+000	3.90835E-005	5.39641E-002	4.29864E-001	3.57270E+000	9	...........
	10	0.146667	4.41287E-001	9.09991E-005	0.00000E+000	4.01568E-005	5.39641E-002	4.41341E-001	3.57270E+000	9	...........
	11	0.16	4.52309E-001	9.10376E-005	0.00000E+000	4.11771E-005	5.39641E-002	4.52362E-001	3.57270E+000	9	...........
	12	0.173333	4.62910E-001	9.08970E-005	0.00000E+000	4.20771E-005	5.39641E-002	4.62958E-001	3.57270E+000	9	...........
	13	0.186667	4.73116E-001	9.12481E-005	0.00000E+000	4.31709E-005	5.39641E-002	4.73174E-001	3.57270E+000	9	...........
	14	0.2	4.82995E-001	9.10637E-005	0.00000E+000	4.39833E-005	5.39641E-002	4.83047E-001	3.57270E+000	9	...........
	15	0.213333	4.92530E-001	9.09428E-005	0.00000E+000	4.47921E-005	5.39641E-002	4.92586E-001	3.57270E+000	9	...........
	16	0.226667	5.01765E-001	9.10033E-005	0.00000E+000	4.56623E-005	5.39641E-002	5.01823E-001	3.57270E+000	9	...........
	17	0.24	5.10712E-001	9.11585E-005	0.00000E+000	4.65558E-005	5.39641E-002	5.10776E-001	3.57270E+000	9	...........
	18	0.253333	5.19387E-001	9.13877E-005	0.00000E+000	4.74656E-005	5.39641E-002	5.19451E-001	3.57270E+000	9	...........
	19	0.266667	5.27803E-001	9.11741E-005	0.00000E+000	4.81220E-005	5.39641E-002	5.27868E-001	3.57270E+000	9	...........
	20	0.28	5.35903E-001	9.12387E-005	0.00000E+000	4.88951E-005	5.39641E-002	5.35997E-001	3.57270E+000	9	...........
	21	0.293333	5.43851E-001	9.09970E-005	0.00000E+000	4.94888E-005	5.39641E-002	5.43925E-001	3.57270E+000	9	...........
	22	0.306667	5.51568E-001	9.11637E-005	0.00000E+000	5.02830E-005	5.39641E-002	5.51664E-001	3.57270E+000	9	...........
	23	0.32	5.59063E-001	9.11168E-005	0.00000E+000	5.09401E-005	5.39641E-002	5.59187E-001	3.57270E+000	9	...........
	24	0.333333	5.66465E-001	9.08741E-005	0.00000E+000	5.14769E-005	5.39641E-002	5.66567E-001	3.57270E+000	9	...........
	25	0.346667	5.73595E-001	9.09335E-005	0.00000E+000	5.21589E-005	5.39641E-002	5.73716E-001	3.57270E+000	9	...........
	26	0.36	5.80557E-001	9.11616E-005	0.00000E+000	5.29245E-005	5.39641E-002	5.80686E-001	3.57270E+000	9	...........
	27	0.373333	5.87367E-001	9.10949E-005	0.00000E+000	5.35062E-005	5.39641E-002	5.87492E-001	3.57270E+000	9	...........
	28	0.386667	5.94051E-001	9.09699E-005	0.00000E+000	5.40408E-005	5.39641E-002	5.94146E-001	3.57270E+000	9	...........
	29	0.4	6.00556E-001	9.11127E-005	0.00000E+000	5.47182E-005	5.39641E-002	6.00658E-001	3.57270E+000	9	...........
	30	0.413333	6.06911E-001	9.10189E-005	0.00000E+000	5.52403E-005	5.39641E-002	6.07010E-001	3.57270E+000	9	...........
	31	0.426667	6.13137E-001	9.10137E-005	0.00000E+000	5.58038E-005	5.39641E-002	6.13242E-001	3.57270E+000	9	...........
	32	0.44	6.19294E-001	9.11804E-005	0.00000E+000	5.64675E-005	5.39641E-002	6.19371E-001	3.57270E+000	9	...........
	33	0.453333	6.25245E-001	9.12867E-005	0.00000E+000	5.70765E-005	5.39641E-002	6.25342E-001	3.57270E+000	9	...........
	34	0.466667	6.31066E-001	9.09845E-005	0.00000E+000	5.74172E-005	5.39641E-002	6.31179E-001	3.57270E+000	9	...........
	35	0.48	6.36781E-001	9.12283E-005	0.00000E+000	5.80924E-005	5.39641E-002	6.36908E-001	3.57270E+000	9	...........
	36	0.493333	6.42405E-001	9.11252E-005	0.00000E+000	5.85393E-005	5.39641E-002	6.42541E-001	3.57270E+000	9	...........
	37	0.506667	6.47906E-001	9.09981E-005	0.00000E+000	5.89582E-005	5.39641E-002	6.48019E-001	3.57270E+000	9	...........
	38	0.52	6.53298E-001	9.09407E-005	0.00000E+000	5.94114E-005	5.39641E-002	6.53382E-001	3.57270E+000	9	...........
	39	0.533333	6.58600E-001	9.08376E-005	0.00000E+000	5.98256E-005	5.39641E-002	6.58661E-001	3.57270E+000	9	...........
	40	0.546667	6.63784E-001	9.11668E-005	0.00000E+000	6.05151E-005	5.39641E-002	6.63879E-001	3.57270E+000	9	...........
	41	0.56	6.68922E-001	9.09428E-005	0.00000E+000	6.08337E-005	5.39641E-002	6.68989E-001	3.57270E+000	9	...........
	42	0.573333	6.73904E-001	9.10460E-005	0.00000E+000	6.13563E-005	5.39641E-002	6.73969E-001	3.57270E+000	9	...........
	43	0.586667	6.78814E-001	9.09783E-005	0.00000E+000	6.17573E-005	5.39641E-002	6.78912E-001	3.57270E+000	9	...........
	44	0.6	6.83632E-001	9.11470E-005	0.00000E+000	6.23110E-005	5.39641E-002	6.83709E-001	3.57270E+000	9	...........
	45	0.613333	6.88392E-001	9.09835E-005	0.00000E+000	6.26323E-005	5.39641E-002	6.88493E-001	3.57270E+000	9	...........
	46	0.626667	6.93123E-001	9.12023E-005	0.00000E+000	6.32143E-005	5.39641E-002	6.93192E-001	3.57270E+000	9	...........
	47	0.64	6.97692E-001	9.12960E-005	0.00000E+000	6.36965E-005	5.39641E-002	6.97798E-001	3.57270E+000	9	...........
	48	0.653333	7.02248E-001	9.13158E-005	0.00000E+000	6.41264E-005	5.39641E-002	7.02334E-001	3.57270E+000	9	...........
	49	0.666667	7.06700E-001	9.13137E-005	0.00000E+000	6.45314E-005	5.39641E-002	7.06806E-001	3.57270E+000	9	...........
	50	0.68	7.11077E-001	9.11502E-005	0.00000E+000	6.48148E-005	5.39641E-002	7.11199E-001	3.57270E+000	9	...........
	51	0.693333	7.15391E-001	9.08543E-005	0.00000E+000	6.49963E-005	5.39641E-002	7.15524E-001	3.57270E+000	9	...........
	52	0.706667	7.19679E-001	9.10845E-005	0.00000E+000	6.55516E-005	5.39641E-002	7.19804E-001	3.57270E+000	9	...........
	53	0.72	7.23874E-001	9.11877E-005	0.00000E+000	6.60084E-005	5.39641E-002	7.24006E-001	3.57270E+000	9	...........
	54	0.733333	7.27999E-001	9.10428E-005	0.00000E+000	6.62791E-005	5.39641E-002	7.28138E-001	3.57270E+000	9	...........
	55	0.746667	7.32062E-001	9.10283E-005	0.00000E+000	6.66383E-005	5.39641E-002	7.32189E-001	3.57270E+000	9	...........
	56	0.76	7.36063E-001	9.12648E-005	0.00000E+000	6.71767E-005	5.39641E-002	7.36189E-001	3.57270E+000	9	...........
	57	0.773333	7.40022E-001	9.10731E-005	0.00000E+000	6.73961E-005	5.39641E-002	7.40175E-001	3.57270E+000	9	...........
	58	0.786667	7.43971E-001	9.09876E-005	0.00000E+000	6.76922E-005	5.39641E-002	7.44093E-001	3.57270E+000	9	...........
	59	0.8	7.47803E-001	9.10616E-005	0.00000E+000	6.80961E-005	5.39641E-002	7.47928E-001	3.57270E+000	9	...........
	60	0.813333	7.51598E-001	9.11429E-005	0.00000E+000	6.85028E-005	5.39641E-002	7.51704E-001	3.57270E+000	9	...........
	61	0.826667	7.55346E-001	9.11210E-005	0.00000E+000	6.88278E-005	5.39641E-002	7.55479E-001	3.57270E+000	9	...........
	62	0.84	7.59062E-001	9.09012E-005	0.00000E+000	6.89996E-005	5.39641E-002	7.59160E-001	3.57270E+000	9	...........
	63	0.853333	7.62706E-001	9.09282E-005	0.00000E+000	6.93515E-005	5.39641E-002	7.62815E-001	3.57270E+000	9	...........
	64	0.866667	7.66313E-001	9.08918E-005	0.00000E+000	6.96516E-005	5.39641E-002	7.66434E-001	3.57270E+000	9	...........
	65	0.88	7.69893E-001	9.11491E-005	0.00000E+000	7.01751E-005	5.39641E-002	7.70017E-001	3.57270E+000	9	...........
	66	0.893333	7.73431E-001	9.11210E-005	0.00000E+000	7.04758E-005	5.39641E-002	7.73562E-001	3.57270E+000	9	...........
	67	0.906667	7.76914E-001	9.11804E-005	0.00000E+000	7.08393E-005	5.39641E-002	7.77050E-001	3.57270E+000	9	...........
	68	0.92	7.80379E-001	9.12419E-005	0.00000E+000	7.12032E-005	5.39641E-002	7.80510E-001	3.57270E+000	9	...........
	69	0.933333	7.83782E-001	9.14023E-005	0.00000E+000	7.16395E-005	5.39641E-002	7.83906E-001	3.57270E+000	9	...........
	70	0.946667	7.87122E-001	9.09376E-005	0.00000E+000	7.15790E-005	5.39641E-002	7.87266E-001	3.57306E+000	9	...........
	71	0.96	7.90405E-001	9.11502E-005	0.00000E+000	7.20455E-005	5.39641E-002	7.90589E-001	3.57350E+000	9	...........
	72	0.97333	7.93740E-001	9.07115E-005	0.00000E+000	7.20014E-005	5.39641E-002	7.93892E-001	3.57350E+000	9	...........
	73	0.98667	7.96967E-001	9.10918E-005	0.00000E+000	7.25972E-005	5.39641E-002	7.97111E-001	3.57350E+000	9	...........
	74	1	8.00186E-001	9.11314E-005	0.00000E+000	7.29221E-005	5.39641E-002	8.00342E-001	3.57350E+000	9	...........
	75	1.01333	8.03320E-001	9.12825E-005	0.00000E+000	7.33290E-005	5.39641E-002	8.03470E-001	3.57350E+000	9	...........
	76	1.02667	8.06454E-001	9.12460E-005	0.00000E+000	7.35858E-005	5.39641E-002	8.06606E-001	3.57350E+000	9	...........
	77	1.04	8.09523E-001	9.09658E-005	0.00000E+000	7.36389E-005	5.39641E-002	8.09657E-001	3.57350E+000	9	...........
	78	1.05333	8.12579E-001	9.11533E-005	0.00000E+000	7.40693E-005	5.39641E-002	8.12682E-001	3.57350E+000	9	...........
	79	1.06667	8.15582E-001	9.09095E-005	0.00000E+000	7.41441E-005	5.39641E-002	8.15712E-001	3.57350E+000	9	...........
	80	1.08	8.18604E-001	9.08386E-005	0.00000E+000	7.43609E-005	5.39641E-002	8.18728E-001	3.57350E+000	9	...........
	81	1.09333	8.21566E-001	9.10824E-005	0.00000E+000	7.48303E-005	5.39641E-002	8.21702E-001	3.57350E+000	9	...........
	82	1.10667	8.24490E-001	9.10939E-005	0.00000E+000	7.51060E-005	5.39641E-002	8.24640E-001	3.57350E+000	9	...........
	83	1.12	8.27383E-001	9.10949E-005	0.00000E+000	7.53705E-005	5.39641E-002	8.27502E-001	3.57350E+000	9	...........
	84	1.13333	8.30231E-001	9.12408E-005	0.00000E+000	7.57509E-005	5.39641E-002	8.30375E-001	3.57350E+000	9	...........
	85	1.14667	8.33076E-001	9.10428E-005	0.00000E+000	7.58456E-005	5.39641E-002	8.33230E-001	3.57350E+000	9	...........
	86	1.16	8.35870E-001	9.12637E-005	0.00000E+000	7.62847E-005	5.39641E-002	8.36030E-001	3.57350E+000	9	...........
	87	1.17333	8.38636E-001	9.12054E-005	0.00000E+000	7.64882E-005	5.39641E-002	8.38775E-001	3.57350E+000	9	...........
	88	1.18667	8.41365E-001	9.10231E-005	0.00000E+000	7.65836E-005	5.39641E-002	8.41519E-001	3.57350E+000	9	...........
	89	1.2	8.44095E-001	9.11335E-005	0.00000E+000	7.69253E-005	5.39641E-002	8.44277E-001	3.57350E+000	9	...........
	90	1.21333	8.46804E-001	9.09574E-005	0.00000E+000	7.70231E-005	5.39641E-002	8.46958E-001	3.57350E+000	9	...........
	91	1.22667	8.49477E-001	9.10137E-005	0.00000E+000	7.73140E-005	5.39641E-002	8.49611E-001	3.57350E+000	9	...........
	92	1.24	8.52101E-001	9.09387E-005	0.00000E+000	7.74889E-005	5.39641E-002	8.52226E-001	3.57350E+000	9	...........
	93	1.25333	8.54702E-001	9.08782E-005	0.00000E+000	7.76738E-005	5.39641E-002	8.54832E-001	3.57350E+000	9	...........
	94	1.26667	8.57291E-001	9.10106E-005	0.00000E+000	7.80225E-005	5.39641E-002	8.57424E-001	3.57350E+000	9	...........
	95	1.28	8.59845E-001	9.10949E-005	0.00000E+000	7.83276E-005	5.39641E-002	8.59983E-001	3.57350E+000	9	...........
	96	1.29333	8.62379E-001	9.09783E-005	0.00000E+000	7.84577E-005	5.39641E-002	8.62502E-001	3.57350E+000	9	...........
	97	1.30667	8.64872E-001	9.12168E-005	0.00000E+000	7.88909E-005	5.39641E-002	8.65047E-001	3.57350E+000	9	...........
	98	1.32	8.67372E-001	9.11866E-005	0.00000E+000	7.90927E-005	5.39641E-002	8.67549E-001	3.57350E+000	9	...........
	99	1.33333	8.69864E-001	9.10408E-005	0.00000E+000	7.91931E-005	5.39641E-002	8.70026E-001	3.57350E+000	9	...........
	100	1.34667	8.72289E-001	9.11491E-005	0.00000E+000	7.95084E-005	5.39641E-002	8.72436E-001	3.57350E+000	9	...........
	101	1.36	8.74676E-001	9.11898E-005	0.00000E+000	7.97615E-005	5.39641E-002	8.74887E-001	3.57350E+000	9	...........
	102	1.37333	8.77051E-001	9.11981E-005	0.00000E+000	7.99853E-005	5.39641E-002	8.77251E-001	3.57350E+000	9	...........
	103	1.38667	8.79386E-001	9.09480E-005	0.00000E+000	7.99785E-005	5.39641E-002	8.79582E-001	3.57350E+000	9	...........
	104	1.4	8.81726E-001	9.11074E-005	0.00000E+000	8.03318E-005	5.39641E-002	8.81922E-001	3.57350E+000	9	...........
	105	1.41333	8.84046E-001	9.08428E-005	0.00000E+000	8.03092E-005	5.39641E-002	8.84238E-001	3.57350E+000	9	...........
	106	1.42667	8.86313E-001	9.10918E-005	0.00000E+000	8.07358E-005	5.39641E-002	8.86531E-001	3.57350E+000	9	...........
	107	1.44	8.88622E-001	9.10804E-005	0.00000E+000	8.09360E-005	5.39641E-002	8.88833E-001	3.57350E+000	9	...........
	108	1.45333	8.90868E-001	9.08501E-005	0.00000E+000	8.09355E-005	5.39641E-002	8.91068E-001	3.57350E+000	9	...........
	109	1.46667	8.93108E-001	9.11106E-005	0.00000E+000	8.13716E-005	5.39641E-002	8.93290E-001	3.57350E+000	9	...........
	110	1.48	8.95315E-001	9.09314E-005	0.00000E+000	8.14122E-005	5.39641E-002	8.95547E-001	3.57350E+000	9	...........
	111	1.49333	8.97502E-001	9.11314E-005	0.00000E+000	8.17906E-005	5.39641E-002	8.97707E-001	3.57350E+000	9	...........
	112	1.50667	8.99655E-001	9.12335E-005	0.00000E+000	8.20787E-005	5.39641E-002	8.99863E-001	3.57350E+000	9	...........
	113	1.52	9.01785E-001	9.10522E-005	0.00000E+000	8.21095E-005	5.39641E-002	9.02009E-001	3.57350E+000	9	...........
	114	1.53333	9.03906E-001	9.10501E-005	0.00000E+000	8.23007E-005	5.39641E-002	9.04110E-001	3.57350E+000	9	...........
	115	1.54667	9.06009E-001	9.13950E-005	0.00000E+000	8.28047E-005	5.39641E-002	9.06210E-001	3.57350E+000	9	...........
	116	1.56	9.08080E-001	9.13471E-005	0.00000E+000	8.29504E-005	5.39641E-002	9.08294E-001	3.57350E+000	9	...........
	117	1.57333	9.10139E-001	9.13919E-005	0.00000E+000	8.31793E-005	5.39641E-002	9.10328E-001	3.57350E+000	9	...........
	118	1.58667	9.12172E-001	9.12585E-005	0.00000E+000	8.32435E-005	5.39641E-002	9.12362E-001	3.57350E+000	9	...........
	119	1.6	9.14189E-001	9.10918E-005	0.00000E+000	8.32752E-005	5.39641E-002	9.14388E-001	3.57350E+000	9	...........
	120	1.61333	9.16191E-001	9.09522E-005	0.00000E+000	8.33296E-005	5.39641E-002	9.16390E-001	3.57350E+000	9	...........
	121	1.62667	9.18181E-001	9.12200E-005	0.00000E+000	8.37564E-005	5.39641E-002	9.18373E-001	3.57350E+000	9	...........
	122	1.64	9.20155E-001	9.09981E-005	0.00000E+000	8.37323E-005	5.39641E-002	9.20348E-001	3.57350E+000	9	...........
	123	1.65333	9.22144E-001	9.10168E-005	0.00000E+000	8.39306E-005	5.39641E-002	9.22279E-001	3.57350E+000	9	...........
	124	1.66667	9.24035E-001	9.12002E-005	0.00000E+000	8.42722E-005	5.39641E-002	9.24183E-001	3.57350E+000	9	...........
	125	1.68	9.25901E-001	9.09303E-005	0.00000E+000	8.41925E-005	5.39641E-002	9.26075E-001	3.57350E+000	9	...........
	126	1.69333	9.27809E-001	9.11585E-005	0.00000E+000	8.45777E-005	5.39641E-002	9.27939E-001	3.57350E+000	9	...........
	127	1.70667	9.29679E-001	9.12252E-005	0.00000E+000	8.48101E-005	5.39641E-002	9.29804E-001	3.57350E+000	9	...........
	128	1.72	9.31517E-001	9.09814E-005	0.00000E+000	8.47507E-005	5.39641E-002	9.31643E-001	3.57350E+000	9	...........
	129	1.73333	9.33359E-001	9.10356E-005	0.00000E+000	8.49689E-005	5.39641E-002	9.33482E-001	3.57350E+000	9	...........
	130	1.74667	9.35158E-001	9.10626E-005	0.00000E+000	8.51580E-005	5.39641E-002	9.35290E-001	3.57350E+000	9	...........
	131	1.76	9.36934E-001	9.12564E-005	0.00000E+000	8.55012E-005	5.39641E-002	9.37075E-001	3.57350E+000	9	...........
	132	1.77333	9.38700E-001	9.11689E-005	0.00000E+000	8.55802E-005	5.39641E-002	9.38843E-001	3.57350E+000	9	...........
	133	1.78667	9.40449E-001	9.11429E-005	0.00000E+000	8.57152E-005	5.39641E-002	9.40605E-001	3.57350E+000	9	...........
	134	1.8	9.42163E-001	9.11325E-005	0.00000E+000	8.58617E-005	5.39641E-002	9.42321E-001	3.57350E+000	9	...........
	135	1.81333	9.43851E-001	9.11043E-005	0.00000E+000	8.59889E-005	5.39641E-002	9.44036E-001	3.57350E+000	9	...........
	136	1.82667	9.45565E-001	9.08324E-005	0.00000E+000	8.58879E-005	5.39641E-002	9.45766E-001	3.57350E+000	9	...........
	137	1.84	9.47280E-001	9.14898E-005	0.00000E+000	8.66665E-005	5.39641E-002	9.47448E-001	3.57350E+000	9	...........
	138	1.85333	9.48948E-001	9.09522E-005	0.00000E+000	8.63090E-005	5.39641E-002	9.49124E-001	3.57350E+000	9	...........
	139	1.86667	9.50578E-001	9.11481E-005	0.00000E+000	8.66433E-005	5.39641E-002	9.50766E-001	3.57350E+000	9	...........
	140	1.88	9.52202E-001	9.11158E-005	0.00000E+000	8.67606E-005	5.39641E-002	9.52401E-001	3.57350E+000	9	...........
	141	1.89333	9.53808E-001	9.11575E-005	0.00000E+000	8.69467E-005	5.39641E-002	9.54001E-001	3.57350E+000	9	...........
	142	1.90667	9.55376E-001	9.10897E-005	0.00000E+000	8.70249E-005	5.39641E-002	9.55549E-001	3.57350E+000	9	...........
	143	1.92	9.56963E-001	9.08980E-005	0.00000E+000	8.69860E-005	5.39641E-002	9.57145E-001	3.57350E+000	9	...........
	144	1.93333	9.58524E-001	9.09032E-005	0.00000E+000	8.71330E-005	5.39641E-002	9.58709E-001	3.57350E+000	9	...........
	145	1.94667	9.60089E-001	9.09574E-005	0.00000E+000	8.73272E-005	5.39641E-002	9.60276E-001	3.57318E+000	9	...........
	146	1.96	9.61601E-001	9.10929E-005	0.00000E+000	8.75949E-005	5.39641E-002	9.61791E-001	3.57280E+000	9	...........
	147	1.97333	9.63127E-001	9.07647E-005	0.00000E+000	8.74179E-005	5.39641E-002	9.63311E-001	3.57280E+000	9	...........
	148	1.98667	9.64617E-001	9.08699E-005	0.00000E+000	8.76546E-005	5.39641E-002	9.64835E-001	3.57280E+000	9	...........
	149	2	9.66134E-001	9.09814E-005	0.00000E+000	8.79002E-005	5.39641E-002	9.66314E-001	3.57280E+000	9	...........
	150	2.01333	9.67629E-001	9.14138E-005	0.00000E+000	8.84546E-005	5.39641E-002	9.67814E-001	3.57280E+000	9	...........
	151	2.02667	9.69087E-001	9.09991E-005	0.00000E+000	8.81860E-005	5.39641E-002	9.69273E-001	3.57280E+000	9	...........
	152	2.04	9.70555E-001	9.10126E-005	0.00000E+000	8.83328E-005	5.39641E-002	9.70750E-001	3.57280E+000	9	...........
	153	2.05333	9.72028E-001	9.12189E-005	0.00000E+000	8.86674E-005	5.39641E-002	9.72224E-001	3.57280E+000	9	...........
	154	2.06667	9.73481E-001	9.12023E-005	0.00000E+000	8.87837E-005	5.39641E-002	9.73666E-001	3.57280E+000	9	...........
	155	2.08	9.74897E-001	9.10324E-005	0.00000E+000	8.87472E-005	5.39641E-002	9.75064E-001	3.57280E+000	9	...........
	156	2.09333	9.76270E-001	9.10533E-005	0.00000E+000	8.88925E-005	5.39641E-002	9.76450E-001	3.57280E+000	9	...........
	157	2.10667	9.77639E-001	9.09710E-005	0.00000E+000	8.89368E-005	5.39641E-002	9.77835E-001	3.57280E+000	9	...........
	158	2.12	9.79006E-001	9.11012E-005	0.00000E+000	8.91886E-005	5.39641E-002	9.79176E-001	3.57280E+000	9	...........
	159	2.13333	9.80351E-001	9.10272E-005	0.00000E+000	8.92386E-005	5.39641E-002	9.80524E-001	3.57280E+000	9	...........
	160	2.14667	9.81662E-001	9.12075E-005	0.00000E+000	8.95349E-005	5.39641E-002	9.81848E-001	3.57280E+000	9	...........
	161	2.16	9.82986E-001	9.12398E-005	0.00000E+000	8.96874E-005	5.39641E-002	9.83171E-001	3.57280E+000	9	...........
	162	2.17333	9.84284E-001	9.10991E-005	0.00000E+000	8.96674E-005	5.39641E-002	9.84489E-001	3.57280E+000	9	...........
	163	2.18667	9.85577E-001	9.08584E-005	0.00000E+000	8.95480E-005	5.39641E-002	9.85812E-001	3.57280E+000	9	...........
	164	2.2	9.86897E-001	9.11908E-005	0.00000E+000	8.99960E-005	5.39641E-002	9.87094E-001	3.57280E+000	9	...........
	165	2.21333	9.88178E-001	9.11043E-005	0.00000E+000	9.00273E-005	5.39641E-002	9.88371E-001	3.57280E+000	9	...........
	166	2.22667	9.89436E-001	9.10022E-005	0.00000E+000	9.00409E-005	5.39641E-002	9.89640E-001	3.57280E+000	9	...........
	167	2.24	9.90678E-001	9.11387E-005	0.00000E+000	9.02891E-005	5.39641E-002	9.90881E-001	3.57280E+000	9	...........
	168	2.25333	9.91908E-001	9.10053E-005	0.00000E+000	9.02689E-005	5.39641E-002	9.92115E-001	3.57280E+000	9	...........
	169	2.26667	9.93130E-001	9.12669E-005	0.00000E+000	9.06398E-005	5.39641E-002	9.93342E-001	3.57280E+000	9	...........
	170	2.28	9.94376E-001	9.10022E-005	0.00000E+000	9.04905E-005	5.39641E-002	9.94589E-001	3.57280E+000	9	...........
	171	2.29333	9.95607E-001	9.11345E-005	0.00000E+000	9.07342E-005	5.39641E-002	9.95776E-001	3.57280E+000	9	...........
	172	2.30667	9.96792E-001	9.12418E-005	0.00000E+000	9.09492E-005	5.39641E-002	9.96996E-001	3.57280E+000	9	...........
	173	2.32	9.98012E-001	9.09918E-005	0.00000E+000	9.08109E-005	5.39641E-002	9.98172E-001	3.57280E+000	9	...........
	174	2.33333	9.99199E-001	9.09918E-005	0.00000E+000	9.09190E-005	5.39641E-002	9.99336E-001	3.57280E+000	9	...........
	175	2.33667	9.99946E-001	9.09418E-005	0.00000E+000	9.09369E-005	5.39641E-002	1.00006E+000	3.57280E+000	9	...........
STARTTIMEOFFSET	QUANT	1181.492	Start Time Offset (s)
