EXPLAIN
TAG	PWR800_CHARGE
TITLE	LABEL	PWR Cyclic Charge Discharge (Cell) - Charge Step	Test &Identifier
DATE	LABEL	10-7-2017	Date
TIME	LABEL	15:17:08	Time
NOTES	NOTES	3	&Notes...
	supercap test cell
	0.9mg
	6M KOH
PSTAT	PSTAT	IFC5000-01520	Potentiostat
CAPACITY	QUANT	1.00000E-003	Capacity (A-hr)
CELLTYPE	SELECTOR	1	&Cell Type
WORKINGCONNECTION	SELECTOR	0	&Working Lead
MAXCHARGETIME	VARIABLEANDUNITS	1.00000E+002	s	1.00000E+002	second(s)	Max &Charge Time
CHARGECURRENT	QUANT	9.00000E-005	&Charge Current (A) 
VOLTAGEFINISH	TWOPARAM	F	1.00000E-003	3.60000E+003	&Voltage Finish	 I (A) < 	Max Time(s)
SAMPLETIME	QUANT	1.00000E-002	Sa&mple Period (s)
CHARGESTOPAT1	MULTIPARAM	4	1.00000E+000	Charge Stop At &1	Voltage > Limit	V
CHARGESTOPAT2	MULTIPARAM	0	0.00000E+000	Charge Stop At &2	None	N/A
AESBHCSELECTOR	TOGGLE	F	Save Both Half Cells
IRCOMP	TOGGLE	F	IR &Measure
EOC	QUANT	0	Open Circuit (V)
SEQUENCER	TOGGLE	TRUE	Run as Sequence
PSTATMODEL	IQUANT	53	Pstat Model
PSTATSECTION	LABEL	IFC5000-01520	Pstat Section
PSTATSERIALNO	LABEL	01520	Pstat Serial Number
CTRLMODE	IQUANT	0	Control Mode
ELECTROMETER	IQUANT	1	RE=0 or CS=1
IESTAB	IQUANT	0	I/E Stability
CASPEED	IQUANT	4	Control Amp Speed
CONVENTION	IQUANT	1	Current Convention
ICHRANGE	IQUANT	2	Ich Range
ICHRANGEMODE	TOGGLE	T	Ich Auto Range
ICHOFFSETENABLE	TOGGLE	F	Ich Offset Enable
ICHOFFSET	QUANT	0	Ich Offset (V)
ICHFILTER	IQUANT	1	Ich Filter
VCHRANGE	IQUANT	2	Vch Range
VCHRANGEMODE	TOGGLE	T	Vch Auto Range
VCHOFFSETENABLE	TOGGLE	F	Vch Offset Enable
VCHOFFSET	QUANT	0	Vch Offset (V)
VCHFILTER	IQUANT	1	Vch Filter
IERANGELOWERLIMIT	IQUANT	9	I/E Range Lower Limit
IERANGEMODE	TOGGLE	F	I/E AutoRange
IERANGE	IQUANT	9	I/E Range
ACHSELECT	IQUANT	1	Ach Select
ACHRANGE	IQUANT	2	Ach Range
ACHOFFSETENABLE	TOGGLE	F	Ach Offset Enable
ACHOFFSET	QUANT	0	Ach Offset (V)
ACHFILTER	IQUANT	1	Ach Filter
CABLEID	IQUANT	14	Cable ID
DCCALDATE	LABEL	5-7-2017	DC Calibration Date
ACCALDATE	LABEL	12/3/2015	AC Calibration Date
FRAMEWORKVERSION	QUANT	7.01	Framework Version
INSTRUMENTVERSION	LABEL	4.00	Instrument Version
CURVE	TABLE	180
	Pt	T	Vf	Im	Vu	Pwr	Sig	Ach	Temp	IERange	Over
	#	s	V	A	V	W	V	V	deg C	#	bits
	0	0.013333	2.88948E-001	9.12262E-005	0.00000E+000	2.63597E-005	5.39641E-002	2.88999E-001	3.57250E+000	9	...........
	1	0.026667	3.08249E-001	9.09460E-005	0.00000E+000	2.80340E-005	5.39641E-002	3.08292E-001	3.57250E+000	9	...........
	2	0.04	3.26067E-001	9.10668E-005	0.00000E+000	2.96939E-005	5.39641E-002	3.26104E-001	3.57250E+000	9	...........
	3	0.053333	3.42672E-001	9.07834E-005	0.00000E+000	3.11089E-005	5.39641E-002	3.42708E-001	3.57250E+000	9	...........
	4	0.066667	3.58250E-001	9.09345E-005	0.00000E+000	3.25773E-005	5.39641E-002	3.58281E-001	3.57250E+000	9	...........
	5	0.08	3.72935E-001	9.10637E-005	0.00000E+000	3.39609E-005	5.39641E-002	3.72974E-001	3.57250E+000	9	...........
	6	0.093333	3.86873E-001	9.12137E-005	0.00000E+000	3.52882E-005	5.39641E-002	3.86907E-001	3.57250E+000	9	...........
	7	0.106667	4.00110E-001	9.09105E-005	0.00000E+000	3.63742E-005	5.39641E-002	4.00148E-001	3.57250E+000	9	...........
	8	0.12	4.12728E-001	9.11418E-005	0.00000E+000	3.76167E-005	5.39641E-002	4.12780E-001	3.57250E+000	9	...........
	9	0.133333	4.24790E-001	9.10210E-005	0.00000E+000	3.86648E-005	5.39641E-002	4.24843E-001	3.57250E+000	9	...........
	10	0.146667	4.36362E-001	9.10481E-005	0.00000E+000	3.97299E-005	5.39641E-002	4.36404E-001	3.57250E+000	9	...........
	11	0.16	4.47460E-001	9.11127E-005	0.00000E+000	4.07693E-005	5.39641E-002	4.47511E-001	3.57250E+000	9	...........
	12	0.173333	4.58141E-001	9.07574E-005	0.00000E+000	4.15796E-005	5.39641E-002	4.58191E-001	3.57250E+000	9	...........
	13	0.186667	4.68438E-001	9.09595E-005	0.00000E+000	4.26088E-005	5.39641E-002	4.68493E-001	3.57250E+000	9	...........
	14	0.2	4.78386E-001	9.08366E-005	0.00000E+000	4.34549E-005	5.39641E-002	4.78439E-001	3.57250E+000	9	...........
	15	0.213333	4.87995E-001	9.12481E-005	0.00000E+000	4.45286E-005	5.39641E-002	4.88051E-001	3.57250E+000	9	...........
	16	0.226667	4.97296E-001	9.09960E-005	0.00000E+000	4.52520E-005	5.39641E-002	4.97354E-001	3.57250E+000	9	...........
	17	0.24	5.06297E-001	9.09887E-005	0.00000E+000	4.60673E-005	5.39641E-002	5.06354E-001	3.57250E+000	9	...........
	18	0.253333	5.15022E-001	9.09762E-005	0.00000E+000	4.68548E-005	5.39641E-002	5.15083E-001	3.57250E+000	9	...........
	19	0.266667	5.23492E-001	9.10189E-005	0.00000E+000	4.76476E-005	5.39641E-002	5.23552E-001	3.57250E+000	9	...........
	20	0.28	5.31705E-001	9.09512E-005	0.00000E+000	4.83591E-005	5.39641E-002	5.31766E-001	3.57250E+000	9	...........
	21	0.293333	5.39676E-001	9.12106E-005	0.00000E+000	4.92242E-005	5.39641E-002	5.39786E-001	3.57250E+000	9	...........
	22	0.306667	5.47461E-001	9.10283E-005	0.00000E+000	4.98344E-005	5.39641E-002	5.47536E-001	3.57250E+000	9	...........
	23	0.32	5.55030E-001	9.10720E-005	0.00000E+000	5.05477E-005	5.39641E-002	5.55094E-001	3.57250E+000	9	...........
	24	0.333333	5.62432E-001	9.08907E-005	0.00000E+000	5.11198E-005	5.39641E-002	5.62482E-001	3.57250E+000	9	...........
	25	0.346667	5.69672E-001	9.13137E-005	0.00000E+000	5.20189E-005	5.39641E-002	5.69692E-001	3.57250E+000	9	...........
	26	0.36	5.76673E-001	9.10616E-005	0.00000E+000	5.25128E-005	5.39641E-002	5.76718E-001	3.57250E+000	9	...........
	27	0.373333	5.83516E-001	9.12783E-005	0.00000E+000	5.32623E-005	5.39641E-002	5.83588E-001	3.57250E+000	9	...........
	28	0.386667	5.90220E-001	9.09491E-005	0.00000E+000	5.36799E-005	5.39641E-002	5.90302E-001	3.57250E+000	9	...........
	29	0.4	5.96778E-001	9.08834E-005	0.00000E+000	5.42373E-005	5.39641E-002	5.96851E-001	3.57250E+000	9	...........
	30	0.413333	6.03142E-001	9.10762E-005	0.00000E+000	5.49319E-005	5.39641E-002	6.03283E-001	3.57250E+000	9	...........
	31	0.426667	6.09379E-001	9.09397E-005	0.00000E+000	5.54168E-005	5.39641E-002	6.09512E-001	3.57250E+000	9	...........
	32	0.44	6.15561E-001	9.12221E-005	0.00000E+000	5.61528E-005	5.39641E-002	6.15686E-001	3.57250E+000	9	...........
	33	0.453333	6.21557E-001	9.12148E-005	0.00000E+000	5.66952E-005	5.39641E-002	6.21678E-001	3.57250E+000	9	...........
	34	0.466667	6.27430E-001	9.11127E-005	0.00000E+000	5.71668E-005	5.39641E-002	6.27556E-001	3.57250E+000	9	...........
	35	0.48	6.33169E-001	9.10845E-005	0.00000E+000	5.76719E-005	5.39641E-002	6.33306E-001	3.57250E+000	9	...........
	36	0.493333	6.38836E-001	9.12919E-005	0.00000E+000	5.83206E-005	5.39641E-002	6.38949E-001	3.57250E+000	9	...........
	37	0.506667	6.44381E-001	9.09710E-005	0.00000E+000	5.86199E-005	5.39641E-002	6.44507E-001	3.57250E+000	9	...........
	38	0.52	6.49818E-001	9.11210E-005	0.00000E+000	5.92120E-005	5.39641E-002	6.49945E-001	3.57250E+000	9	...........
	39	0.533333	6.55142E-001	9.09449E-005	0.00000E+000	5.95819E-005	5.39641E-002	6.55253E-001	3.57250E+000	9	...........
	40	0.546667	6.60348E-001	9.09803E-005	0.00000E+000	6.00787E-005	5.39641E-002	6.60453E-001	3.57250E+000	9	...........
	41	0.56	6.65495E-001	9.11064E-005	0.00000E+000	6.06308E-005	5.39641E-002	6.65613E-001	3.57250E+000	9	...........
	42	0.573333	6.70562E-001	9.11866E-005	0.00000E+000	6.11463E-005	5.39641E-002	6.70643E-001	3.57250E+000	9	...........
	43	0.586667	6.75511E-001	9.10595E-005	0.00000E+000	6.15117E-005	5.39641E-002	6.75580E-001	3.57250E+000	9	...........
	44	0.6	6.80368E-001	9.11002E-005	0.00000E+000	6.19816E-005	5.39641E-002	6.80468E-001	3.57250E+000	9	...........
	45	0.613333	6.85128E-001	9.11002E-005	0.00000E+000	6.24153E-005	5.39641E-002	6.85219E-001	3.57250E+000	9	...........
	46	0.626667	6.89804E-001	9.09397E-005	0.00000E+000	6.27306E-005	5.39641E-002	6.89907E-001	3.57250E+000	9	...........
	47	0.64	6.94428E-001	9.09355E-005	0.00000E+000	6.31482E-005	5.39641E-002	6.94519E-001	3.57250E+000	9	...........
	48	0.653333	6.98954E-001	9.08970E-005	0.00000E+000	6.35328E-005	5.39641E-002	6.99084E-001	3.57250E+000	9	...........
	49	0.666667	7.03414E-001	9.11043E-005	0.00000E+000	6.40841E-005	5.39641E-002	7.03562E-001	3.57250E+000	9	...........
	50	0.68	7.07798E-001	9.11533E-005	0.00000E+000	6.45181E-005	5.39641E-002	7.07941E-001	3.57250E+000	9	...........
	51	0.693333	7.12152E-001	9.09553E-005	0.00000E+000	6.47740E-005	5.39641E-002	7.12268E-001	3.57250E+000	9	...........
	52	0.706667	7.16427E-001	9.11450E-005	0.00000E+000	6.52987E-005	5.39641E-002	7.16555E-001	3.57250E+000	9	...........
	53	0.72	7.20662E-001	9.08918E-005	0.00000E+000	6.55022E-005	5.39641E-002	7.20775E-001	3.57250E+000	9	...........
	54	0.733333	7.24792E-001	9.08657E-005	0.00000E+000	6.58587E-005	5.39641E-002	7.24885E-001	3.57250E+000	9	...........
	55	0.746667	7.28863E-001	9.09241E-005	0.00000E+000	6.62712E-005	5.39641E-002	7.28966E-001	3.57250E+000	9	...........
	56	0.76	7.32865E-001	9.11387E-005	0.00000E+000	6.67923E-005	5.39641E-002	7.32969E-001	3.57250E+000	9	...........
	57	0.773333	7.36821E-001	9.10199E-005	0.00000E+000	6.70654E-005	5.39641E-002	7.36913E-001	3.57250E+000	9	...........
	58	0.786667	7.40728E-001	9.12523E-005	0.00000E+000	6.75931E-005	5.39641E-002	7.40813E-001	3.57250E+000	9	...........
	59	0.8	7.44592E-001	9.10814E-005	0.00000E+000	6.78184E-005	5.39641E-002	7.44698E-001	3.57250E+000	9	...........
	60	0.813333	7.48394E-001	9.13356E-005	0.00000E+000	6.83551E-005	5.39641E-002	7.48488E-001	3.57250E+000	9	...........
	61	0.826667	7.52126E-001	9.11074E-005	0.00000E+000	6.85242E-005	5.39641E-002	7.52230E-001	3.57250E+000	9	...........
	62	0.84	7.55827E-001	9.10262E-005	0.00000E+000	6.88000E-005	5.39641E-002	7.55931E-001	3.57250E+000	9	...........
	63	0.853333	7.59453E-001	9.10053E-005	0.00000E+000	6.91143E-005	5.39641E-002	7.59574E-001	3.57250E+000	9	...........
	64	0.866667	7.63040E-001	9.12106E-005	0.00000E+000	6.95973E-005	5.39641E-002	7.63156E-001	3.57270E+000	9	...........
	65	0.88	7.66582E-001	9.11470E-005	0.00000E+000	6.98717E-005	5.39641E-002	7.66702E-001	3.57330E+000	9	...........
	66	0.893333	7.70081E-001	9.08136E-005	0.00000E+000	6.99339E-005	5.39641E-002	7.70220E-001	3.57330E+000	9	...........
	67	0.906667	7.73522E-001	9.10397E-005	0.00000E+000	7.04213E-005	5.39641E-002	7.73640E-001	3.57330E+000	9	...........
	68	0.92	7.76924E-001	9.11720E-005	0.00000E+000	7.08337E-005	5.39641E-002	7.77047E-001	3.57330E+000	9	...........
	69	0.933333	7.80287E-001	9.11293E-005	0.00000E+000	7.11071E-005	5.39641E-002	7.80432E-001	3.57330E+000	9	...........
	70	0.946667	7.83612E-001	9.09303E-005	0.00000E+000	7.12541E-005	5.39641E-002	7.83734E-001	3.57330E+000	9	...........
	71	0.96	7.86893E-001	9.13523E-005	0.00000E+000	7.18845E-005	5.39641E-002	7.87006E-001	3.57330E+000	9	...........
	72	0.97333	7.90117E-001	9.10814E-005	0.00000E+000	7.19650E-005	5.39641E-002	7.90259E-001	3.57330E+000	9	...........
	73	0.98667	7.93342E-001	9.10522E-005	0.00000E+000	7.22356E-005	5.39641E-002	7.93490E-001	3.57330E+000	9	...........
	74	1	7.96550E-001	9.12137E-005	0.00000E+000	7.26563E-005	5.39641E-002	7.96691E-001	3.57330E+000	9	...........
	75	1.01333	7.99684E-001	9.11595E-005	0.00000E+000	7.28989E-005	5.39641E-002	7.99810E-001	3.57330E+000	9	...........
	76	1.02667	8.02763E-001	9.11418E-005	0.00000E+000	7.31653E-005	5.39641E-002	8.02901E-001	3.57330E+000	9	...........
	77	1.04	8.05811E-001	9.12752E-005	0.00000E+000	7.35505E-005	5.39641E-002	8.05967E-001	3.57330E+000	9	...........
	78	1.05333	8.08853E-001	9.10001E-005	0.00000E+000	7.36057E-005	5.39641E-002	8.08983E-001	3.57330E+000	9	...........
	79	1.06667	8.11811E-001	9.13440E-005	0.00000E+000	7.41541E-005	5.39641E-002	8.11958E-001	3.57330E+000	9	...........
	80	1.08	8.14774E-001	9.10512E-005	0.00000E+000	7.41861E-005	5.39641E-002	8.14936E-001	3.57330E+000	9	...........
	81	1.09333	8.17716E-001	9.10335E-005	0.00000E+000	7.44395E-005	5.39641E-002	8.17875E-001	3.57330E+000	9	...........
	82	1.10667	8.20643E-001	9.11575E-005	0.00000E+000	7.48078E-005	5.39641E-002	8.20792E-001	3.57330E+000	9	...........
	83	1.12	8.23533E-001	9.12148E-005	0.00000E+000	7.51184E-005	5.39641E-002	8.23672E-001	3.57330E+000	9	...........
	84	1.13333	8.26369E-001	9.10001E-005	0.00000E+000	7.51997E-005	5.39641E-002	8.26497E-001	3.57330E+000	9	...........
	85	1.14667	8.29157E-001	9.09460E-005	0.00000E+000	7.54084E-005	5.39641E-002	8.29290E-001	3.57330E+000	9	...........
	86	1.16	8.31919E-001	9.12335E-005	0.00000E+000	7.58989E-005	5.39641E-002	8.32086E-001	3.57330E+000	9	...........
	87	1.17333	8.34665E-001	9.11325E-005	0.00000E+000	7.60651E-005	5.39641E-002	8.34813E-001	3.57330E+000	9	...........
	88	1.18667	8.37375E-001	9.09949E-005	0.00000E+000	7.61968E-005	5.39641E-002	8.37535E-001	3.57330E+000	9	...........
	89	1.2	8.40068E-001	9.12106E-005	0.00000E+000	7.66231E-005	5.39641E-002	8.40248E-001	3.57330E+000	9	...........
	90	1.21333	8.42710E-001	9.10501E-005	0.00000E+000	7.67289E-005	5.39641E-002	8.42910E-001	3.57330E+000	9	...........
	91	1.22667	8.45398E-001	9.08814E-005	0.00000E+000	7.68309E-005	5.39641E-002	8.45564E-001	3.57330E+000	9	...........
	92	1.24	8.47982E-001	9.10428E-005	0.00000E+000	7.72027E-005	5.39641E-002	8.48168E-001	3.57330E+000	9	...........
	93	1.25333	8.50565E-001	9.09949E-005	0.00000E+000	7.73971E-005	5.39641E-002	8.50733E-001	3.57330E+000	9	...........
	94	1.26667	8.53107E-001	9.10408E-005	0.00000E+000	7.76675E-005	5.39641E-002	8.53259E-001	3.57330E+000	9	...........
	95	1.28	8.55625E-001	9.11085E-005	0.00000E+000	7.79547E-005	5.39641E-002	8.55802E-001	3.57330E+000	9	...........
	96	1.29333	8.58117E-001	9.09491E-005	0.00000E+000	7.80450E-005	5.39641E-002	8.58313E-001	3.57330E+000	9	...........
	97	1.30667	8.60619E-001	9.13315E-005	0.00000E+000	7.86016E-005	5.39641E-002	8.60777E-001	3.57330E+000	9	...........
	98	1.32	8.63079E-001	9.11845E-005	0.00000E+000	7.86995E-005	5.39641E-002	8.63209E-001	3.57330E+000	9	...........
	99	1.33333	8.65483E-001	9.08991E-005	0.00000E+000	7.86716E-005	5.39641E-002	8.65638E-001	3.57330E+000	9	...........
	100	1.34667	8.67912E-001	9.09783E-005	0.00000E+000	7.89611E-005	5.39641E-002	8.68068E-001	3.57330E+000	9	...........
	101	1.36	8.70319E-001	9.10220E-005	0.00000E+000	7.92182E-005	5.39641E-002	8.70471E-001	3.57330E+000	9	...........
	102	1.37333	8.72690E-001	9.11189E-005	0.00000E+000	7.95186E-005	5.39641E-002	8.72838E-001	3.57330E+000	9	...........
	103	1.38667	8.75022E-001	9.09949E-005	0.00000E+000	7.96226E-005	5.39641E-002	8.75159E-001	3.57330E+000	9	...........
	104	1.4	8.77333E-001	9.12669E-005	0.00000E+000	8.00714E-005	5.39641E-002	8.77479E-001	3.57330E+000	9	...........
	105	1.41333	8.79600E-001	9.11012E-005	0.00000E+000	8.01326E-005	5.39641E-002	8.79744E-001	3.57330E+000	9	...........
	106	1.42667	8.81847E-001	9.10376E-005	0.00000E+000	8.02813E-005	5.39641E-002	8.82002E-001	3.57330E+000	9	...........
	107	1.44	8.84087E-001	9.08366E-005	0.00000E+000	8.03074E-005	5.39641E-002	8.84239E-001	3.57330E+000	9	...........
	108	1.45333	8.86301E-001	9.11679E-005	0.00000E+000	8.08022E-005	5.39641E-002	8.86470E-001	3.57330E+000	9	...........
	109	1.46667	8.88502E-001	9.09762E-005	0.00000E+000	8.08325E-005	5.39641E-002	8.88651E-001	3.57330E+000	9	...........
	110	1.48	8.90681E-001	9.12648E-005	0.00000E+000	8.12878E-005	5.39641E-002	8.90819E-001	3.57330E+000	9	...........
	111	1.49333	8.92809E-001	9.11064E-005	0.00000E+000	8.13406E-005	5.39641E-002	8.92977E-001	3.57330E+000	9	...........
	112	1.50667	8.94938E-001	9.11241E-005	0.00000E+000	8.15505E-005	5.39641E-002	8.95144E-001	3.57330E+000	9	...........
	113	1.52	8.97074E-001	9.09137E-005	0.00000E+000	8.15563E-005	5.39641E-002	8.97258E-001	3.57330E+000	9	...........
	114	1.53333	8.99125E-001	9.10793E-005	0.00000E+000	8.18917E-005	5.39641E-002	8.99327E-001	3.57330E+000	9	...........
	115	1.54667	9.01191E-001	9.10324E-005	0.00000E+000	8.20376E-005	5.39641E-002	9.01384E-001	3.57330E+000	9	...........
	116	1.56	9.03260E-001	9.10324E-005	0.00000E+000	8.22260E-005	5.39641E-002	9.03444E-001	3.57330E+000	9	...........
	117	1.57333	9.05263E-001	9.10793E-005	0.00000E+000	8.24508E-005	5.39641E-002	9.05485E-001	3.57330E+000	9	...........
	118	1.58667	9.07264E-001	9.11741E-005	0.00000E+000	8.27190E-005	5.39641E-002	9.07488E-001	3.57330E+000	9	...........
	119	1.6	9.09304E-001	9.11241E-005	0.00000E+000	8.28595E-005	5.39641E-002	9.09480E-001	3.57330E+000	9	...........
	120	1.61333	9.11269E-001	9.12221E-005	0.00000E+000	8.31279E-005	5.39641E-002	9.11450E-001	3.57330E+000	9	...........
	121	1.62667	9.13223E-001	9.11929E-005	0.00000E+000	8.32794E-005	5.39641E-002	9.13418E-001	3.57330E+000	9	...........
	122	1.64	9.15171E-001	9.11262E-005	0.00000E+000	8.33961E-005	5.39641E-002	9.15369E-001	3.57330E+000	9	...........
	123	1.65333	9.17083E-001	9.10824E-005	0.00000E+000	8.35301E-005	5.39641E-002	9.17288E-001	3.57330E+000	9	...........
	124	1.66667	9.18980E-001	9.12210E-005	0.00000E+000	8.38303E-005	5.39641E-002	9.19192E-001	3.57330E+000	9	...........
	125	1.68	9.20943E-001	9.10356E-005	0.00000E+000	8.38386E-005	5.39641E-002	9.21130E-001	3.57330E+000	9	...........
	126	1.69333	9.22844E-001	9.12116E-005	0.00000E+000	8.41741E-005	5.39641E-002	9.22993E-001	3.57330E+000	9	...........
	127	1.70667	9.24692E-001	9.12835E-005	0.00000E+000	8.44091E-005	5.39641E-002	9.24833E-001	3.57330E+000	9	...........
	128	1.72	9.26503E-001	9.10043E-005	0.00000E+000	8.43157E-005	5.39641E-002	9.26680E-001	3.57330E+000	9	...........
	129	1.73333	9.28316E-001	9.10387E-005	0.00000E+000	8.45126E-005	5.39641E-002	9.28470E-001	3.57330E+000	9	...........
	130	1.74667	9.30094E-001	9.09595E-005	0.00000E+000	8.46009E-005	5.39641E-002	9.30235E-001	3.57330E+000	9	...........
	131	1.76	9.31843E-001	9.09783E-005	0.00000E+000	8.47775E-005	5.39641E-002	9.32019E-001	3.57330E+000	9	...........
	132	1.77333	9.33624E-001	9.10564E-005	0.00000E+000	8.50124E-005	5.39641E-002	9.33773E-001	3.57330E+000	9	...........
	133	1.78667	9.35358E-001	9.07220E-005	0.00000E+000	8.48575E-005	5.39641E-002	9.35515E-001	3.57330E+000	9	...........
	134	1.8	9.37075E-001	9.09251E-005	0.00000E+000	8.52037E-005	5.39641E-002	9.37252E-001	3.57330E+000	9	...........
	135	1.81333	9.38775E-001	9.12908E-005	0.00000E+000	8.57015E-005	5.39641E-002	9.38958E-001	3.57330E+000	9	...........
	136	1.82667	9.40465E-001	9.14190E-005	0.00000E+000	8.59764E-005	5.39641E-002	9.40640E-001	3.57330E+000	9	...........
	137	1.84	9.42152E-001	9.11877E-005	0.00000E+000	8.59127E-005	5.39641E-002	9.42299E-001	3.57330E+000	9	...........
	138	1.85333	9.43794E-001	9.10043E-005	0.00000E+000	8.58893E-005	5.39641E-002	9.43958E-001	3.57330E+000	9	...........
	139	1.86667	9.45416E-001	9.11595E-005	0.00000E+000	8.61837E-005	5.39641E-002	9.45601E-001	3.57295E+000	9	...........
	140	1.88	9.47084E-001	9.10460E-005	0.00000E+000	8.62282E-005	5.39641E-002	9.47244E-001	3.57190E+000	9	...........
	141	1.89333	9.48673E-001	9.13617E-005	0.00000E+000	8.66724E-005	5.39641E-002	9.48853E-001	3.57190E+000	9	...........
	142	1.90667	9.50246E-001	9.12398E-005	0.00000E+000	8.67003E-005	5.39641E-002	9.50435E-001	3.57190E+000	9	...........
	143	1.92	9.51814E-001	9.10178E-005	0.00000E+000	8.66321E-005	5.39641E-002	9.52006E-001	3.57190E+000	9	...........
	144	1.93333	9.53368E-001	9.10793E-005	0.00000E+000	8.68321E-005	5.39641E-002	9.53575E-001	3.57190E+000	9	...........
	145	1.94667	9.54922E-001	9.09147E-005	0.00000E+000	8.68164E-005	5.39641E-002	9.55109E-001	3.57190E+000	9	...........
	146	1.96	9.56449E-001	9.10720E-005	0.00000E+000	8.71057E-005	5.39641E-002	9.56654E-001	3.57190E+000	9	...........
	147	1.97333	9.57953E-001	9.12450E-005	0.00000E+000	8.74084E-005	5.39641E-002	9.58154E-001	3.57190E+000	9	...........
	148	1.98667	9.59487E-001	9.09928E-005	0.00000E+000	8.73065E-005	5.39641E-002	9.59675E-001	3.57190E+000	9	...........
	149	2	9.60979E-001	9.10616E-005	0.00000E+000	8.75083E-005	5.39641E-002	9.61154E-001	3.57190E+000	9	...........
	150	2.01333	9.62433E-001	9.11585E-005	0.00000E+000	8.77340E-005	5.39641E-002	9.62636E-001	3.57190E+000	9	...........
	151	2.02667	9.63910E-001	9.11845E-005	0.00000E+000	8.78937E-005	5.39641E-002	9.64101E-001	3.57190E+000	9	...........
	152	2.04	9.65356E-001	9.11481E-005	0.00000E+000	8.79903E-005	5.39641E-002	9.65560E-001	3.57190E+000	9	...........
	153	2.05333	9.66800E-001	9.13867E-005	0.00000E+000	8.83526E-005	5.39641E-002	9.66978E-001	3.57190E+000	9	...........
	154	2.06667	9.68211E-001	9.09522E-005	0.00000E+000	8.80609E-005	5.39641E-002	9.68393E-001	3.57190E+000	9	...........
	155	2.08	9.69594E-001	9.09876E-005	0.00000E+000	8.82210E-005	5.39641E-002	9.69790E-001	3.57190E+000	9	...........
	156	2.09333	9.70983E-001	9.12585E-005	0.00000E+000	8.86105E-005	5.39641E-002	9.71206E-001	3.57190E+000	9	...........
	157	2.10667	9.72390E-001	9.10679E-005	0.00000E+000	8.85534E-005	5.39641E-002	9.72580E-001	3.57190E+000	9	...........
	158	2.12	9.73779E-001	9.10918E-005	0.00000E+000	8.87033E-005	5.39641E-002	9.73948E-001	3.57190E+000	9	...........
	159	2.13333	9.75109E-001	9.07720E-005	0.00000E+000	8.85126E-005	5.39641E-002	9.75303E-001	3.57190E+000	9	...........
	160	2.14667	9.76459E-001	9.11106E-005	0.00000E+000	8.89657E-005	5.39641E-002	9.76636E-001	3.57190E+000	9	...........
	161	2.16	9.77782E-001	9.12335E-005	0.00000E+000	8.92064E-005	5.39641E-002	9.77962E-001	3.57190E+000	9	...........
	162	2.17333	9.79095E-001	9.11085E-005	0.00000E+000	8.92038E-005	5.39641E-002	9.79279E-001	3.57190E+000	9	...........
	163	2.18667	9.80415E-001	9.11283E-005	0.00000E+000	8.93435E-005	5.39641E-002	9.80552E-001	3.57190E+000	9	...........
	164	2.2	9.81670E-001	9.09491E-005	0.00000E+000	8.92820E-005	5.39641E-002	9.81851E-001	3.57190E+000	9	...........
	165	2.21333	9.82983E-001	9.10064E-005	0.00000E+000	8.94578E-005	5.39641E-002	9.83136E-001	3.57190E+000	9	...........
	166	2.22667	9.84220E-001	9.10251E-005	0.00000E+000	8.95888E-005	5.39641E-002	9.84402E-001	3.57190E+000	9	...........
	167	2.24	9.85498E-001	9.08762E-005	0.00000E+000	8.95583E-005	5.39641E-002	9.85675E-001	3.57190E+000	9	...........
	168	2.25333	9.86724E-001	9.11523E-005	0.00000E+000	8.99421E-005	5.39641E-002	9.86914E-001	3.57190E+000	9	...........
	169	2.26667	9.87927E-001	9.11512E-005	0.00000E+000	9.00507E-005	5.39641E-002	9.88141E-001	3.57190E+000	9	...........
	170	2.28	9.89168E-001	9.12262E-005	0.00000E+000	9.02381E-005	5.39641E-002	9.89340E-001	3.57190E+000	9	...........
	171	2.29333	9.90362E-001	9.11679E-005	0.00000E+000	9.02892E-005	5.39641E-002	9.90545E-001	3.57190E+000	9	...........
	172	2.30667	9.91565E-001	9.12606E-005	0.00000E+000	9.04909E-005	5.39641E-002	9.91762E-001	3.57190E+000	9	...........
	173	2.32	9.92742E-001	9.11106E-005	0.00000E+000	9.04493E-005	5.39641E-002	9.92959E-001	3.57190E+000	9	...........
	174	2.33333	9.93938E-001	9.10949E-005	0.00000E+000	9.05427E-005	5.39641E-002	9.94130E-001	3.57190E+000	9	...........
	175	2.34667	9.95115E-001	9.11345E-005	0.00000E+000	9.06894E-005	5.39641E-002	9.95290E-001	3.57190E+000	9	...........
	176	2.36	9.96268E-001	9.13742E-005	0.00000E+000	9.10332E-005	5.39641E-002	9.96461E-001	3.57190E+000	9	...........
	177	2.37333	9.97441E-001	9.13742E-005	0.00000E+000	9.11404E-005	5.39641E-002	9.97655E-001	3.57190E+000	9	...........
	178	2.38667	9.98598E-001	9.12606E-005	0.00000E+000	9.11327E-005	5.39641E-002	9.98786E-001	3.57190E+000	9	...........
	179	2.39833	9.99644E-001	9.12091E-005	0.00000E+000	9.11767E-005	5.39641E-002	9.99860E-001	3.57190E+000	9	...........
STARTTIMEOFFSET	QUANT	908.093	Start Time Offset (s)
