EXPLAIN
TAG	PWR800_CHARGE
TITLE	LABEL	PWR Cyclic Charge Discharge (Cell) - Charge Step	Test &Identifier
DATE	LABEL	10-7-2017	Date
TIME	LABEL	16:01:44	Time
NOTES	NOTES	3	&Notes...
	supercap test cell
	0.9mg
	6M KOH
PSTAT	PSTAT	IFC5000-01520	Potentiostat
CAPACITY	QUANT	1.00000E-003	Capacity (A-hr)
CELLTYPE	SELECTOR	1	&Cell Type
WORKINGCONNECTION	SELECTOR	0	&Working Lead
MAXCHARGETIME	VARIABLEANDUNITS	1.00000E+002	s	1.00000E+002	second(s)	Max &Charge Time
CHARGECURRENT	QUANT	9.00000E-005	&Charge Current (A) 
VOLTAGEFINISH	TWOPARAM	F	1.00000E-003	3.60000E+003	&Voltage Finish	 I (A) < 	Max Time(s)
SAMPLETIME	QUANT	1.00000E-002	Sa&mple Period (s)
CHARGESTOPAT1	MULTIPARAM	4	1.00000E+000	Charge Stop At &1	Voltage > Limit	V
CHARGESTOPAT2	MULTIPARAM	0	0.00000E+000	Charge Stop At &2	None	N/A
AESBHCSELECTOR	TOGGLE	F	Save Both Half Cells
IRCOMP	TOGGLE	F	IR &Measure
EOC	QUANT	0	Open Circuit (V)
SEQUENCER	TOGGLE	TRUE	Run as Sequence
PSTATMODEL	IQUANT	53	Pstat Model
PSTATSECTION	LABEL	IFC5000-01520	Pstat Section
PSTATSERIALNO	LABEL	01520	Pstat Serial Number
CTRLMODE	IQUANT	0	Control Mode
ELECTROMETER	IQUANT	1	RE=0 or CS=1
IESTAB	IQUANT	0	I/E Stability
CASPEED	IQUANT	4	Control Amp Speed
CONVENTION	IQUANT	1	Current Convention
ICHRANGE	IQUANT	2	Ich Range
ICHRANGEMODE	TOGGLE	T	Ich Auto Range
ICHOFFSETENABLE	TOGGLE	F	Ich Offset Enable
ICHOFFSET	QUANT	0	Ich Offset (V)
ICHFILTER	IQUANT	1	Ich Filter
VCHRANGE	IQUANT	2	Vch Range
VCHRANGEMODE	TOGGLE	T	Vch Auto Range
VCHOFFSETENABLE	TOGGLE	F	Vch Offset Enable
VCHOFFSET	QUANT	0	Vch Offset (V)
VCHFILTER	IQUANT	1	Vch Filter
IERANGELOWERLIMIT	IQUANT	9	I/E Range Lower Limit
IERANGEMODE	TOGGLE	F	I/E AutoRange
IERANGE	IQUANT	9	I/E Range
ACHSELECT	IQUANT	1	Ach Select
ACHRANGE	IQUANT	2	Ach Range
ACHOFFSETENABLE	TOGGLE	F	Ach Offset Enable
ACHOFFSET	QUANT	0	Ach Offset (V)
ACHFILTER	IQUANT	1	Ach Filter
CABLEID	IQUANT	14	Cable ID
DCCALDATE	LABEL	5-7-2017	DC Calibration Date
ACCALDATE	LABEL	12/3/2015	AC Calibration Date
FRAMEWORKVERSION	QUANT	7.01	Framework Version
INSTRUMENTVERSION	LABEL	4.00	Instrument Version
CURVE	TABLE	165
	Pt	T	Vf	Im	Vu	Pwr	Sig	Ach	Temp	IERange	Over
	#	s	V	A	V	W	V	V	deg C	#	bits
	0	0.013333	2.62746E-001	9.08699E-005	0.00000E+000	2.38757E-005	5.39641E-002	2.62796E-001	3.57300E+000	9	...........
	1	0.026667	2.82647E-001	9.08386E-005	0.00000E+000	2.56753E-005	5.39641E-002	2.82682E-001	3.57300E+000	9	...........
	2	0.04	3.01294E-001	9.10460E-005	0.00000E+000	2.74316E-005	5.39641E-002	3.01331E-001	3.57300E+000	9	...........
	3	0.053333	3.18876E-001	9.10762E-005	0.00000E+000	2.90420E-005	5.39641E-002	3.18915E-001	3.57300E+000	9	...........
	4	0.066667	3.35511E-001	9.12262E-005	0.00000E+000	3.06074E-005	5.39641E-002	3.35552E-001	3.57300E+000	9	...........
	5	0.08	3.51304E-001	9.09783E-005	0.00000E+000	3.19610E-005	5.39641E-002	3.51351E-001	3.57300E+000	9	...........
	6	0.093333	3.66304E-001	9.08261E-005	0.00000E+000	3.32700E-005	5.39641E-002	3.66352E-001	3.57300E+000	9	...........
	7	0.106667	3.80609E-001	9.09366E-005	0.00000E+000	3.46113E-005	5.39641E-002	3.80653E-001	3.57300E+000	9	...........
	8	0.12	3.94256E-001	9.09845E-005	0.00000E+000	3.58712E-005	5.39641E-002	3.94301E-001	3.57300E+000	9	...........
	9	0.133333	4.07292E-001	9.08595E-005	0.00000E+000	3.70063E-005	5.39641E-002	4.07348E-001	3.57300E+000	9	...........
	10	0.146667	4.19783E-001	9.09439E-005	0.00000E+000	3.81767E-005	5.39641E-002	4.19837E-001	3.57300E+000	9	...........
	11	0.16	4.31772E-001	9.11325E-005	0.00000E+000	3.93485E-005	5.39641E-002	4.31825E-001	3.57300E+000	9	...........
	12	0.173333	4.43293E-001	9.08355E-005	0.00000E+000	4.02667E-005	5.39641E-002	4.43348E-001	3.57300E+000	9	...........
	13	0.186667	4.54383E-001	9.10553E-005	0.00000E+000	4.13740E-005	5.39641E-002	4.54445E-001	3.57300E+000	9	...........
	14	0.2	4.65056E-001	9.10283E-005	0.00000E+000	4.23333E-005	5.39641E-002	4.65111E-001	3.57300E+000	9	...........
	15	0.213333	4.75342E-001	9.09553E-005	0.00000E+000	4.32349E-005	5.39641E-002	4.75409E-001	3.57300E+000	9	...........
	16	0.226667	4.85285E-001	9.08595E-005	0.00000E+000	4.40928E-005	5.39641E-002	4.85348E-001	3.57300E+000	9	...........
	17	0.24	4.94898E-001	9.12127E-005	0.00000E+000	4.51409E-005	5.39641E-002	4.94968E-001	3.57300E+000	9	...........
	18	0.253333	5.04220E-001	9.10824E-005	0.00000E+000	4.59256E-005	5.39641E-002	5.04289E-001	3.57300E+000	9	...........
	19	0.266667	5.13243E-001	9.08001E-005	0.00000E+000	4.66025E-005	5.39641E-002	5.13320E-001	3.57300E+000	9	...........
	20	0.28	5.21995E-001	9.10272E-005	0.00000E+000	4.75157E-005	5.39641E-002	5.22066E-001	3.57300E+000	9	...........
	21	0.293333	5.30474E-001	9.11845E-005	0.00000E+000	4.83710E-005	5.39641E-002	5.30545E-001	3.57300E+000	9	...........
	22	0.306667	5.38635E-001	9.08386E-005	0.00000E+000	4.89289E-005	5.39641E-002	5.38730E-001	3.57300E+000	9	...........
	23	0.32	5.46652E-001	9.09887E-005	0.00000E+000	4.97392E-005	5.39641E-002	5.46745E-001	3.57300E+000	9	...........
	24	0.333333	5.54460E-001	9.11408E-005	0.00000E+000	5.05339E-005	5.39641E-002	5.54557E-001	3.57300E+000	9	...........
	25	0.346667	5.62057E-001	9.10689E-005	0.00000E+000	5.11859E-005	5.39641E-002	5.62177E-001	3.57300E+000	9	...........
	26	0.36	5.69473E-001	9.09803E-005	0.00000E+000	5.18109E-005	5.39641E-002	5.69598E-001	3.57300E+000	9	...........
	27	0.373333	5.76695E-001	9.09064E-005	0.00000E+000	5.24252E-005	5.39641E-002	5.76796E-001	3.57300E+000	9	...........
	28	0.386667	5.83680E-001	9.08345E-005	0.00000E+000	5.30182E-005	5.39641E-002	5.83830E-001	3.57300E+000	9	...........
	29	0.4	5.90573E-001	9.09126E-005	0.00000E+000	5.36906E-005	5.39641E-002	5.90740E-001	3.57300E+000	9	...........
	30	0.413333	5.97306E-001	9.09720E-005	0.00000E+000	5.43381E-005	5.39641E-002	5.97452E-001	3.57300E+000	9	...........
	31	0.426667	6.03857E-001	9.10585E-005	0.00000E+000	5.49863E-005	5.39641E-002	6.04025E-001	3.57300E+000	9	...........
	32	0.44	6.10236E-001	9.11762E-005	0.00000E+000	5.56390E-005	5.39641E-002	6.10441E-001	3.57300E+000	9	...........
	33	0.453333	6.16601E-001	9.10918E-005	0.00000E+000	5.61673E-005	5.39641E-002	6.16716E-001	3.57300E+000	9	...........
	34	0.466667	6.22708E-001	9.10095E-005	0.00000E+000	5.66723E-005	5.39641E-002	6.22844E-001	3.57300E+000	9	...........
	35	0.48	6.28734E-001	9.09032E-005	0.00000E+000	5.71539E-005	5.39641E-002	6.28858E-001	3.57300E+000	9	...........
	36	0.493333	6.34618E-001	9.11283E-005	0.00000E+000	5.78317E-005	5.39641E-002	6.34741E-001	3.57300E+000	9	...........
	37	0.506667	6.40431E-001	9.10147E-005	0.00000E+000	5.82886E-005	5.39641E-002	6.40571E-001	3.57300E+000	9	...........
	38	0.52	6.46113E-001	9.10522E-005	0.00000E+000	5.88300E-005	5.39641E-002	6.46232E-001	3.57300E+000	9	...........
	39	0.533333	6.51665E-001	9.09908E-005	0.00000E+000	5.92955E-005	5.39641E-002	6.51814E-001	3.57300E+000	9	...........
	40	0.546667	6.57152E-001	9.12231E-005	0.00000E+000	5.99474E-005	5.39641E-002	6.57275E-001	3.57300E+000	9	...........
	41	0.56	6.62509E-001	9.10293E-005	0.00000E+000	6.03077E-005	5.39641E-002	6.62664E-001	3.57300E+000	9	...........
	42	0.573333	6.67766E-001	9.10001E-005	0.00000E+000	6.07668E-005	5.39641E-002	6.67919E-001	3.57300E+000	9	...........
	43	0.586667	6.72938E-001	9.09991E-005	0.00000E+000	6.12367E-005	5.39641E-002	6.73053E-001	3.57300E+000	9	...........
	44	0.6	6.78020E-001	9.10481E-005	0.00000E+000	6.17324E-005	5.39641E-002	6.78123E-001	3.57300E+000	9	...........
	45	0.613333	6.83001E-001	9.11241E-005	0.00000E+000	6.22379E-005	5.39641E-002	6.83097E-001	3.57300E+000	9	...........
	46	0.626667	6.87944E-001	9.11960E-005	0.00000E+000	6.27378E-005	5.39641E-002	6.88034E-001	3.57300E+000	9	...........
	47	0.64	6.92826E-001	9.09460E-005	0.00000E+000	6.30097E-005	5.39641E-002	6.92912E-001	3.57300E+000	9	...........
	48	0.653333	6.97607E-001	9.08220E-005	0.00000E+000	6.33580E-005	5.39641E-002	6.97684E-001	3.57300E+000	9	...........
	49	0.666667	7.02303E-001	9.10064E-005	0.00000E+000	6.39141E-005	5.39641E-002	7.02381E-001	3.57300E+000	9	...........
	50	0.68	7.06933E-001	9.10626E-005	0.00000E+000	6.43752E-005	5.39641E-002	7.07031E-001	3.57300E+000	9	...........
	51	0.693333	7.11489E-001	9.09928E-005	0.00000E+000	6.47404E-005	5.39641E-002	7.11593E-001	3.57300E+000	9	...........
	52	0.706667	7.15996E-001	9.09585E-005	0.00000E+000	6.51259E-005	5.39641E-002	7.16106E-001	3.57300E+000	9	...........
	53	0.72	7.20460E-001	9.08168E-005	0.00000E+000	6.54299E-005	5.39641E-002	7.20553E-001	3.57300E+000	9	...........
	54	0.733333	7.24822E-001	9.08876E-005	0.00000E+000	6.58773E-005	5.39641E-002	7.24893E-001	3.57312E+000	9	...........
	55	0.746667	7.29132E-001	9.12283E-005	0.00000E+000	6.65175E-005	5.39641E-002	7.29241E-001	3.57400E+000	9	...........
	56	0.76	7.33371E-001	9.12460E-005	0.00000E+000	6.69172E-005	5.39641E-002	7.33488E-001	3.57400E+000	9	...........
	57	0.773333	7.37578E-001	9.06501E-005	0.00000E+000	6.68615E-005	5.39641E-002	7.37671E-001	3.57400E+000	9	...........
	58	0.786667	7.41737E-001	9.12127E-005	0.00000E+000	6.76558E-005	5.39641E-002	7.41850E-001	3.57400E+000	9	...........
	59	0.8	7.45846E-001	9.11220E-005	0.00000E+000	6.79630E-005	5.39641E-002	7.45955E-001	3.57400E+000	9	...........
	60	0.813333	7.49882E-001	9.11033E-005	0.00000E+000	6.83167E-005	5.39641E-002	7.49987E-001	3.57400E+000	9	...........
	61	0.826667	7.53881E-001	9.10814E-005	0.00000E+000	6.86646E-005	5.39641E-002	7.54011E-001	3.57400E+000	9	...........
	62	0.84	7.57835E-001	9.08855E-005	0.00000E+000	6.88763E-005	5.39641E-002	7.57966E-001	3.57400E+000	9	...........
	63	0.853333	7.61732E-001	9.10585E-005	0.00000E+000	6.93621E-005	5.39641E-002	7.61844E-001	3.57400E+000	9	...........
	64	0.866667	7.65551E-001	9.10793E-005	0.00000E+000	6.97258E-005	5.39641E-002	7.65706E-001	3.57400E+000	9	...........
	65	0.88	7.69380E-001	9.10366E-005	0.00000E+000	7.00417E-005	5.39641E-002	7.69537E-001	3.57400E+000	9	...........
	66	0.893333	7.73127E-001	9.08709E-005	0.00000E+000	7.02548E-005	5.39641E-002	7.73276E-001	3.57400E+000	9	...........
	67	0.906667	7.76827E-001	9.12814E-005	0.00000E+000	7.09099E-005	5.39641E-002	7.77005E-001	3.57400E+000	9	...........
	68	0.92	7.80537E-001	9.09928E-005	0.00000E+000	7.10233E-005	5.39641E-002	7.80671E-001	3.57400E+000	9	...........
	69	0.933333	7.84175E-001	9.11856E-005	0.00000E+000	7.15055E-005	5.39641E-002	7.84301E-001	3.57400E+000	9	...........
	70	0.946667	7.87789E-001	9.10481E-005	0.00000E+000	7.17266E-005	5.39641E-002	7.87904E-001	3.57400E+000	9	...........
	71	0.96	7.91350E-001	9.10283E-005	0.00000E+000	7.20352E-005	5.39641E-002	7.91475E-001	3.57400E+000	9	...........
	72	0.97333	7.94919E-001	9.09678E-005	0.00000E+000	7.23121E-005	5.39641E-002	7.95008E-001	3.57400E+000	9	...........
	73	0.98667	7.98384E-001	9.11137E-005	0.00000E+000	7.27437E-005	5.39641E-002	7.98472E-001	3.57400E+000	9	...........
	74	1	8.01780E-001	9.10991E-005	0.00000E+000	7.30415E-005	5.39641E-002	8.01903E-001	3.57400E+000	9	...........
	75	1.01333	8.05182E-001	9.09095E-005	0.00000E+000	7.31986E-005	5.39641E-002	8.05327E-001	3.57400E+000	9	...........
	76	1.02667	8.08533E-001	9.09564E-005	0.00000E+000	7.35412E-005	5.39641E-002	8.08672E-001	3.57400E+000	9	...........
	77	1.04	8.11825E-001	9.09230E-005	0.00000E+000	7.38136E-005	5.39641E-002	8.11971E-001	3.57400E+000	9	...........
	78	1.05333	8.15098E-001	9.08459E-005	0.00000E+000	7.40483E-005	5.39641E-002	8.15271E-001	3.57400E+000	9	...........
	79	1.06667	8.18345E-001	9.08991E-005	0.00000E+000	7.43868E-005	5.39641E-002	8.18516E-001	3.57400E+000	9	...........
	80	1.08	8.21568E-001	9.08762E-005	0.00000E+000	7.46609E-005	5.39641E-002	8.21762E-001	3.57400E+000	9	...........
	81	1.09333	8.24774E-001	9.12221E-005	0.00000E+000	7.52376E-005	5.39641E-002	8.24953E-001	3.57400E+000	9	...........
	82	1.10667	8.27939E-001	9.07928E-005	0.00000E+000	7.51709E-005	5.39641E-002	8.28102E-001	3.57400E+000	9	...........
	83	1.12	8.31071E-001	9.10679E-005	0.00000E+000	7.56839E-005	5.39641E-002	8.31231E-001	3.57400E+000	9	...........
	84	1.13333	8.34180E-001	9.10710E-005	0.00000E+000	7.59696E-005	5.39641E-002	8.34338E-001	3.57400E+000	9	...........
	85	1.14667	8.37231E-001	9.11106E-005	0.00000E+000	7.62806E-005	5.39641E-002	8.37403E-001	3.57400E+000	9	...........
	86	1.16	8.40249E-001	9.09876E-005	0.00000E+000	7.64523E-005	5.39641E-002	8.40417E-001	3.57400E+000	9	...........
	87	1.17333	8.43239E-001	9.10574E-005	0.00000E+000	7.67832E-005	5.39641E-002	8.43404E-001	3.57400E+000	9	...........
	88	1.18667	8.46242E-001	9.08751E-005	0.00000E+000	7.69023E-005	5.39641E-002	8.46417E-001	3.57400E+000	9	...........
	89	1.2	8.49173E-001	9.09480E-005	0.00000E+000	7.72306E-005	5.39641E-002	8.49362E-001	3.57400E+000	9	...........
	90	1.21333	8.52065E-001	9.11043E-005	0.00000E+000	7.76268E-005	5.39641E-002	8.52263E-001	3.57400E+000	9	...........
	91	1.22667	8.54922E-001	9.11033E-005	0.00000E+000	7.78862E-005	5.39641E-002	8.55102E-001	3.57400E+000	9	...........
	92	1.24	8.57730E-001	9.10283E-005	0.00000E+000	7.80776E-005	5.39641E-002	8.57927E-001	3.57400E+000	9	...........
	93	1.25333	8.60528E-001	9.11210E-005	0.00000E+000	7.84122E-005	5.39641E-002	8.60747E-001	3.57400E+000	9	...........
	94	1.26667	8.63292E-001	9.10366E-005	0.00000E+000	7.85911E-005	5.39641E-002	8.63484E-001	3.57400E+000	9	...........
	95	1.28	8.66017E-001	9.09783E-005	0.00000E+000	7.87887E-005	5.39641E-002	8.66233E-001	3.57400E+000	9	...........
	96	1.29333	8.68739E-001	9.09918E-005	0.00000E+000	7.90481E-005	5.39641E-002	8.68951E-001	3.57400E+000	9	...........
	97	1.30667	8.71455E-001	9.08918E-005	0.00000E+000	7.92081E-005	5.39641E-002	8.71668E-001	3.57400E+000	9	...........
	98	1.32	8.74123E-001	9.09001E-005	0.00000E+000	7.94579E-005	5.39641E-002	8.74323E-001	3.57400E+000	9	...........
	99	1.33333	8.76760E-001	9.12575E-005	0.00000E+000	8.00110E-005	5.39641E-002	8.76942E-001	3.57400E+000	9	...........
	100	1.34667	8.79370E-001	9.09241E-005	0.00000E+000	7.99559E-005	5.39641E-002	8.79533E-001	3.57400E+000	9	...........
	101	1.36	8.81975E-001	9.09366E-005	0.00000E+000	8.02038E-005	5.39641E-002	8.82167E-001	3.57400E+000	9	...........
	102	1.37333	8.84558E-001	9.10387E-005	0.00000E+000	8.05290E-005	5.39641E-002	8.84735E-001	3.57400E+000	9	...........
	103	1.38667	8.87111E-001	9.08959E-005	0.00000E+000	8.06348E-005	5.39641E-002	8.87292E-001	3.57400E+000	9	...........
	104	1.4	8.89642E-001	9.11616E-005	0.00000E+000	8.11012E-005	5.39641E-002	8.89814E-001	3.57400E+000	9	...........
	105	1.41333	8.92109E-001	9.10481E-005	0.00000E+000	8.12248E-005	5.39641E-002	8.92285E-001	3.57400E+000	9	...........
	106	1.42667	8.94552E-001	9.10710E-005	0.00000E+000	8.14677E-005	5.39641E-002	8.94758E-001	3.57400E+000	9	...........
	107	1.44	8.97002E-001	9.08647E-005	0.00000E+000	8.15058E-005	5.39641E-002	8.97195E-001	3.57400E+000	9	...........
	108	1.45333	8.99386E-001	9.08907E-005	0.00000E+000	8.17459E-005	5.39641E-002	8.99582E-001	3.57400E+000	9	...........
	109	1.46667	9.01762E-001	9.12366E-005	0.00000E+000	8.22738E-005	5.39641E-002	9.01952E-001	3.57400E+000	9	...........
	110	1.48	9.04108E-001	9.11377E-005	0.00000E+000	8.23983E-005	5.39641E-002	9.04312E-001	3.57400E+000	9	...........
	111	1.49333	9.06451E-001	9.10012E-005	0.00000E+000	8.24881E-005	5.39641E-002	9.06649E-001	3.57400E+000	9	...........
	112	1.50667	9.08797E-001	9.10939E-005	0.00000E+000	8.27859E-005	5.39641E-002	9.08974E-001	3.57400E+000	9	...........
	113	1.52	9.11067E-001	9.10147E-005	0.00000E+000	8.29205E-005	5.39641E-002	9.11259E-001	3.57400E+000	9	...........
	114	1.53333	9.13333E-001	9.11439E-005	0.00000E+000	8.32447E-005	5.39641E-002	9.13558E-001	3.57400E+000	9	...........
	115	1.54667	9.15576E-001	9.10679E-005	0.00000E+000	8.33796E-005	5.39641E-002	9.15789E-001	3.57400E+000	9	...........
	116	1.56	9.17774E-001	9.14450E-005	0.00000E+000	8.39259E-005	5.39641E-002	9.18013E-001	3.57400E+000	9	...........
	117	1.57333	9.20006E-001	9.11356E-005	0.00000E+000	8.38453E-005	5.39641E-002	9.20219E-001	3.57400E+000	9	...........
	118	1.58667	9.22256E-001	9.10376E-005	0.00000E+000	8.39600E-005	5.39641E-002	9.22439E-001	3.57400E+000	9	...........
	119	1.6	9.24431E-001	9.10595E-005	0.00000E+000	8.41782E-005	5.39641E-002	9.24580E-001	3.57400E+000	9	...........
	120	1.61333	9.26543E-001	9.09543E-005	0.00000E+000	8.42730E-005	5.39641E-002	9.26717E-001	3.57400E+000	9	...........
	121	1.62667	9.28650E-001	9.08866E-005	0.00000E+000	8.44018E-005	5.39641E-002	9.28807E-001	3.57400E+000	9	...........
	122	1.64	9.30718E-001	9.10835E-005	0.00000E+000	8.47730E-005	5.39641E-002	9.30883E-001	3.57400E+000	9	...........
	123	1.65333	9.32756E-001	9.10929E-005	0.00000E+000	8.49674E-005	5.39641E-002	9.32930E-001	3.57400E+000	9	...........
	124	1.66667	9.34776E-001	9.07584E-005	0.00000E+000	8.48388E-005	5.39641E-002	9.34956E-001	3.57400E+000	9	...........
	125	1.68	9.36766E-001	9.10991E-005	0.00000E+000	8.53386E-005	5.39641E-002	9.36954E-001	3.57400E+000	9	...........
	126	1.69333	9.38708E-001	9.08772E-005	0.00000E+000	8.53072E-005	5.39641E-002	9.38938E-001	3.57400E+000	9	...........
	127	1.70667	9.40678E-001	9.11450E-005	0.00000E+000	8.57380E-005	5.39641E-002	9.40881E-001	3.57400E+000	9	...........
	128	1.72	9.42642E-001	9.08709E-005	0.00000E+000	8.56588E-005	5.39641E-002	9.42838E-001	3.57400E+000	9	...........
	129	1.73333	9.44576E-001	9.09387E-005	0.00000E+000	8.58984E-005	5.39641E-002	9.44769E-001	3.57384E+000	9	...........
	130	1.74667	9.46540E-001	9.09856E-005	0.00000E+000	8.61215E-005	5.39641E-002	9.46723E-001	3.57270E+000	9	...........
	131	1.76	9.48474E-001	9.11002E-005	0.00000E+000	8.64062E-005	5.39641E-002	9.48639E-001	3.57270E+000	9	...........
	132	1.77333	9.50364E-001	9.11127E-005	0.00000E+000	8.65902E-005	5.39641E-002	9.50538E-001	3.57270E+000	9	...........
	133	1.78667	9.52208E-001	9.07824E-005	0.00000E+000	8.64437E-005	5.39641E-002	9.52381E-001	3.57270E+000	9	...........
	134	1.8	9.54032E-001	9.09532E-005	0.00000E+000	8.67723E-005	5.39641E-002	9.54215E-001	3.57270E+000	9	...........
	135	1.81333	9.55850E-001	9.08595E-005	0.00000E+000	8.68480E-005	5.39641E-002	9.56003E-001	3.57270E+000	9	...........
	136	1.82667	9.57613E-001	9.10731E-005	0.00000E+000	8.72127E-005	5.39641E-002	9.57804E-001	3.57270E+000	9	...........
	137	1.84	9.59381E-001	9.13585E-005	0.00000E+000	8.76476E-005	5.39641E-002	9.59593E-001	3.57270E+000	9	...........
	138	1.85333	9.61115E-001	9.11210E-005	0.00000E+000	8.75778E-005	5.39641E-002	9.61339E-001	3.57270E+000	9	...........
	139	1.86667	9.62842E-001	9.08011E-005	0.00000E+000	8.74272E-005	5.39641E-002	9.63070E-001	3.57270E+000	9	...........
	140	1.88	9.64532E-001	9.09241E-005	0.00000E+000	8.76992E-005	5.39641E-002	9.64788E-001	3.57270E+000	9	...........
	141	1.89333	9.66256E-001	9.10866E-005	0.00000E+000	8.80130E-005	5.39641E-002	9.66483E-001	3.57270E+000	9	...........
	142	1.90667	9.67905E-001	9.11731E-005	0.00000E+000	8.82469E-005	5.39641E-002	9.68145E-001	3.57270E+000	9	...........
	143	1.92	9.69547E-001	9.09209E-005	0.00000E+000	8.81522E-005	5.39641E-002	9.69783E-001	3.57270E+000	9	...........
	144	1.93333	9.71175E-001	9.08574E-005	0.00000E+000	8.82385E-005	5.39641E-002	9.71440E-001	3.57270E+000	9	...........
	145	1.94667	9.72887E-001	9.09428E-005	0.00000E+000	8.84771E-005	5.39641E-002	9.73078E-001	3.57270E+000	9	...........
	146	1.96	9.74504E-001	9.11304E-005	0.00000E+000	8.88069E-005	5.39641E-002	9.74700E-001	3.57270E+000	9	...........
	147	1.97333	9.76105E-001	9.10418E-005	0.00000E+000	8.88663E-005	5.39641E-002	9.76314E-001	3.57270E+000	9	...........
	148	1.98667	9.77685E-001	9.09574E-005	0.00000E+000	8.89277E-005	5.39641E-002	9.77877E-001	3.57270E+000	9	...........
	149	2	9.79252E-001	9.10616E-005	0.00000E+000	8.91723E-005	5.39641E-002	9.79434E-001	3.57270E+000	9	...........
	150	2.01333	9.80781E-001	9.11335E-005	0.00000E+000	8.93820E-005	5.39641E-002	9.80966E-001	3.57270E+000	9	...........
	151	2.02667	9.82316E-001	9.11012E-005	0.00000E+000	8.94901E-005	5.39641E-002	9.82487E-001	3.57270E+000	9	...........
	152	2.04	9.83824E-001	9.10585E-005	0.00000E+000	8.95855E-005	5.39641E-002	9.84016E-001	3.57270E+000	9	...........
	153	2.05333	9.85311E-001	9.05678E-005	0.00000E+000	8.92374E-005	5.39641E-002	9.85510E-001	3.57270E+000	9	...........
	154	2.06667	9.86779E-001	9.11668E-005	0.00000E+000	8.99615E-005	5.39641E-002	9.86975E-001	3.57270E+000	9	...........
	155	2.08	9.88235E-001	9.12637E-005	0.00000E+000	9.01901E-005	5.39641E-002	9.88412E-001	3.57270E+000	9	...........
	156	2.09333	9.89648E-001	9.10949E-005	0.00000E+000	9.01520E-005	5.39641E-002	9.89837E-001	3.57270E+000	9	...........
	157	2.10667	9.91034E-001	9.11470E-005	0.00000E+000	9.03298E-005	5.39641E-002	9.91207E-001	3.57270E+000	9	...........
	158	2.12	9.92413E-001	9.09928E-005	0.00000E+000	9.03025E-005	5.39641E-002	9.92619E-001	3.57270E+000	9	...........
	159	2.13333	9.93799E-001	9.11460E-005	0.00000E+000	9.05808E-005	5.39641E-002	9.93986E-001	3.57270E+000	9	...........
	160	2.14667	9.95203E-001	9.10324E-005	0.00000E+000	9.05957E-005	5.39641E-002	9.95364E-001	3.57270E+000	9	...........
	161	2.16	9.96575E-001	9.08553E-005	0.00000E+000	9.05441E-005	5.39641E-002	9.96747E-001	3.57270E+000	9	...........
	162	2.17333	9.97931E-001	9.08709E-005	0.00000E+000	9.06830E-005	5.39641E-002	9.98142E-001	3.57270E+000	9	...........
	163	2.18667	9.99256E-001	9.09949E-005	0.00000E+000	9.09272E-005	5.39641E-002	9.99449E-001	3.57270E+000	9	...........
	164	2.18833	1.00002E+000	9.10793E-005	0.00000E+000	9.10808E-005	5.39641E-002	1.00019E+000	3.57270E+000	9	...........
STARTTIMEOFFSET	QUANT	3152.701	Start Time Offset (s)
