EXPLAIN
TAG	PWR800_CHARGE
TITLE	LABEL	PWR Cyclic Charge Discharge (Cell) - Charge Step	Test &Identifier
DATE	LABEL	10-7-2017	Date
TIME	LABEL	16:21:26	Time
NOTES	NOTES	3	&Notes...
	supercap test cell
	0.9mg
	6M KOH
PSTAT	PSTAT	IFC5000-01520	Potentiostat
CAPACITY	QUANT	1.00000E-003	Capacity (A-hr)
CELLTYPE	SELECTOR	1	&Cell Type
WORKINGCONNECTION	SELECTOR	0	&Working Lead
MAXCHARGETIME	VARIABLEANDUNITS	1.00000E+002	s	1.00000E+002	second(s)	Max &Charge Time
CHARGECURRENT	QUANT	9.00000E-005	&Charge Current (A) 
VOLTAGEFINISH	TWOPARAM	F	1.00000E-003	3.60000E+003	&Voltage Finish	 I (A) < 	Max Time(s)
SAMPLETIME	QUANT	1.00000E-002	Sa&mple Period (s)
CHARGESTOPAT1	MULTIPARAM	4	1.00000E+000	Charge Stop At &1	Voltage > Limit	V
CHARGESTOPAT2	MULTIPARAM	0	0.00000E+000	Charge Stop At &2	None	N/A
AESBHCSELECTOR	TOGGLE	F	Save Both Half Cells
IRCOMP	TOGGLE	F	IR &Measure
EOC	QUANT	0	Open Circuit (V)
SEQUENCER	TOGGLE	TRUE	Run as Sequence
PSTATMODEL	IQUANT	53	Pstat Model
PSTATSECTION	LABEL	IFC5000-01520	Pstat Section
PSTATSERIALNO	LABEL	01520	Pstat Serial Number
CTRLMODE	IQUANT	0	Control Mode
ELECTROMETER	IQUANT	1	RE=0 or CS=1
IESTAB	IQUANT	0	I/E Stability
CASPEED	IQUANT	4	Control Amp Speed
CONVENTION	IQUANT	1	Current Convention
ICHRANGE	IQUANT	2	Ich Range
ICHRANGEMODE	TOGGLE	T	Ich Auto Range
ICHOFFSETENABLE	TOGGLE	F	Ich Offset Enable
ICHOFFSET	QUANT	0	Ich Offset (V)
ICHFILTER	IQUANT	1	Ich Filter
VCHRANGE	IQUANT	2	Vch Range
VCHRANGEMODE	TOGGLE	T	Vch Auto Range
VCHOFFSETENABLE	TOGGLE	F	Vch Offset Enable
VCHOFFSET	QUANT	0	Vch Offset (V)
VCHFILTER	IQUANT	1	Vch Filter
IERANGELOWERLIMIT	IQUANT	9	I/E Range Lower Limit
IERANGEMODE	TOGGLE	F	I/E AutoRange
IERANGE	IQUANT	9	I/E Range
ACHSELECT	IQUANT	1	Ach Select
ACHRANGE	IQUANT	2	Ach Range
ACHOFFSETENABLE	TOGGLE	F	Ach Offset Enable
ACHOFFSET	QUANT	0	Ach Offset (V)
ACHFILTER	IQUANT	1	Ach Filter
CABLEID	IQUANT	14	Cable ID
DCCALDATE	LABEL	5-7-2017	DC Calibration Date
ACCALDATE	LABEL	12/3/2015	AC Calibration Date
FRAMEWORKVERSION	QUANT	7.01	Framework Version
INSTRUMENTVERSION	LABEL	4.00	Instrument Version
CURVE	TABLE	161
	Pt	T	Vf	Im	Vu	Pwr	Sig	Ach	Temp	IERange	Over
	#	s	V	A	V	W	V	V	deg C	#	bits
	0	0.013333	2.63254E-001	9.10574E-005	0.00000E+000	2.39712E-005	5.39641E-002	2.63292E-001	3.57290E+000	9	...........
	1	0.026667	2.82925E-001	9.11220E-005	0.00000E+000	2.57807E-005	5.39641E-002	2.82967E-001	3.57290E+000	9	...........
	2	0.04	3.01443E-001	9.11304E-005	0.00000E+000	2.74707E-005	5.39641E-002	3.01490E-001	3.57290E+000	9	...........
	3	0.053333	3.18960E-001	9.08855E-005	0.00000E+000	2.89888E-005	5.39641E-002	3.19005E-001	3.57290E+000	9	...........
	4	0.066667	3.35557E-001	9.08991E-005	0.00000E+000	3.05018E-005	5.39641E-002	3.35605E-001	3.57295E+000	9	...........
	5	0.08	3.51339E-001	9.09105E-005	0.00000E+000	3.19404E-005	5.39641E-002	3.51391E-001	3.57310E+000	9	...........
	6	0.093333	3.66367E-001	9.10626E-005	0.00000E+000	3.33623E-005	5.39641E-002	3.66412E-001	3.57310E+000	9	...........
	7	0.106667	3.80683E-001	9.10762E-005	0.00000E+000	3.46712E-005	5.39641E-002	3.80737E-001	3.57310E+000	9	...........
	8	0.12	3.94378E-001	9.08928E-005	0.00000E+000	3.58461E-005	5.39641E-002	3.94427E-001	3.57310E+000	9	...........
	9	0.133333	4.07476E-001	9.09376E-005	0.00000E+000	3.70549E-005	5.39641E-002	4.07525E-001	3.57310E+000	9	...........
	10	0.146667	4.20023E-001	9.08928E-005	0.00000E+000	3.81771E-005	5.39641E-002	4.20083E-001	3.57310E+000	9	...........
	11	0.16	4.32072E-001	9.11200E-005	0.00000E+000	3.93704E-005	5.39641E-002	4.32126E-001	3.57310E+000	9	...........
	12	0.173333	4.43656E-001	9.09407E-005	0.00000E+000	4.03464E-005	5.39641E-002	4.43718E-001	3.57310E+000	9	...........
	13	0.186667	4.54793E-001	9.08720E-005	0.00000E+000	4.13280E-005	5.39641E-002	4.54851E-001	3.57310E+000	9	...........
	14	0.2	4.65516E-001	9.09876E-005	0.00000E+000	4.23562E-005	5.39641E-002	4.65577E-001	3.57310E+000	9	...........
	15	0.213333	4.75860E-001	9.08407E-005	0.00000E+000	4.32275E-005	5.39641E-002	4.75921E-001	3.57310E+000	9	...........
	16	0.226667	4.85855E-001	9.07824E-005	0.00000E+000	4.41071E-005	5.39641E-002	4.85919E-001	3.57310E+000	9	...........
	17	0.24	4.95500E-001	9.11929E-005	0.00000E+000	4.51861E-005	5.39641E-002	4.95565E-001	3.57310E+000	9	...........
	18	0.253333	5.04838E-001	9.06949E-005	0.00000E+000	4.57862E-005	5.39641E-002	5.04906E-001	3.57310E+000	9	...........
	19	0.266667	5.13880E-001	9.07918E-005	0.00000E+000	4.66560E-005	5.39641E-002	5.13949E-001	3.57310E+000	9	...........
	20	0.28	5.22643E-001	9.09803E-005	0.00000E+000	4.75502E-005	5.39641E-002	5.22723E-001	3.57310E+000	9	...........
	21	0.293333	5.31144E-001	9.09220E-005	0.00000E+000	4.82927E-005	5.39641E-002	5.31192E-001	3.57310E+000	9	...........
	22	0.306667	5.39332E-001	9.09616E-005	0.00000E+000	4.90585E-005	5.39641E-002	5.39439E-001	3.57310E+000	9	...........
	23	0.32	5.47365E-001	9.11648E-005	0.00000E+000	4.99004E-005	5.39641E-002	5.47474E-001	3.57310E+000	9	...........
	24	0.333333	5.55178E-001	9.09043E-005	0.00000E+000	5.04680E-005	5.39641E-002	5.55306E-001	3.57310E+000	9	...........
	25	0.346667	5.62827E-001	9.11595E-005	0.00000E+000	5.13070E-005	5.39641E-002	5.62972E-001	3.57310E+000	9	...........
	26	0.36	5.70261E-001	9.08053E-005	0.00000E+000	5.17827E-005	5.39641E-002	5.70376E-001	3.57310E+000	9	...........
	27	0.373333	5.77480E-001	9.11335E-005	0.00000E+000	5.26278E-005	5.39641E-002	5.77626E-001	3.57310E+000	9	...........
	28	0.386667	5.84549E-001	9.09209E-005	0.00000E+000	5.31477E-005	5.39641E-002	5.84697E-001	3.57310E+000	9	...........
	29	0.4	5.91469E-001	9.09533E-005	0.00000E+000	5.37960E-005	5.39641E-002	5.91612E-001	3.57310E+000	9	...........
	30	0.413333	5.98184E-001	9.10439E-005	0.00000E+000	5.44610E-005	5.39641E-002	5.98318E-001	3.57310E+000	9	...........
	31	0.426667	6.04754E-001	9.12241E-005	0.00000E+000	5.51681E-005	5.39641E-002	6.04901E-001	3.57310E+000	9	...........
	32	0.44	6.11187E-001	9.06626E-005	0.00000E+000	5.54118E-005	5.39641E-002	6.11338E-001	3.57310E+000	9	...........
	33	0.453333	6.17547E-001	9.09637E-005	0.00000E+000	5.61744E-005	5.39641E-002	6.17641E-001	3.57310E+000	9	...........
	34	0.466667	6.23697E-001	9.12262E-005	0.00000E+000	5.68975E-005	5.39641E-002	6.23779E-001	3.57310E+000	9	...........
	35	0.48	6.29714E-001	9.12012E-005	0.00000E+000	5.74307E-005	5.39641E-002	6.29828E-001	3.57310E+000	9	...........
	36	0.493333	6.35644E-001	9.11397E-005	0.00000E+000	5.79324E-005	5.39641E-002	6.35743E-001	3.57310E+000	9	...........
	37	0.506667	6.41505E-001	9.08116E-005	0.00000E+000	5.82560E-005	5.39641E-002	6.41612E-001	3.57310E+000	9	...........
	38	0.52	6.47204E-001	9.10533E-005	0.00000E+000	5.89301E-005	5.39641E-002	6.47308E-001	3.57310E+000	9	...........
	39	0.533333	6.52818E-001	9.09970E-005	0.00000E+000	5.94045E-005	5.39641E-002	6.52928E-001	3.57310E+000	9	...........
	40	0.546667	6.58312E-001	9.10168E-005	0.00000E+000	5.99175E-005	5.39641E-002	6.58408E-001	3.57310E+000	9	...........
	41	0.56	6.63740E-001	9.07793E-005	0.00000E+000	6.02539E-005	5.39641E-002	6.63853E-001	3.57310E+000	9	...........
	42	0.573333	6.69081E-001	9.06198E-005	0.00000E+000	6.06320E-005	5.39641E-002	6.69188E-001	3.57310E+000	9	...........
	43	0.586667	6.74294E-001	9.07449E-005	0.00000E+000	6.11888E-005	5.39641E-002	6.74403E-001	3.57310E+000	9	...........
	44	0.6	6.79438E-001	9.09918E-005	0.00000E+000	6.18232E-005	5.39641E-002	6.79545E-001	3.57310E+000	9	...........
	45	0.613333	6.84484E-001	9.10887E-005	0.00000E+000	6.23488E-005	5.39641E-002	6.84593E-001	3.57310E+000	9	...........
	46	0.626667	6.89454E-001	9.10231E-005	0.00000E+000	6.27562E-005	5.39641E-002	6.89558E-001	3.57310E+000	9	...........
	47	0.64	6.94357E-001	9.07886E-005	0.00000E+000	6.30397E-005	5.39641E-002	6.94469E-001	3.57310E+000	9	...........
	48	0.653333	6.99140E-001	9.08543E-005	0.00000E+000	6.35198E-005	5.39641E-002	6.99260E-001	3.57310E+000	9	...........
	49	0.666667	7.03893E-001	9.08491E-005	0.00000E+000	6.39480E-005	5.39641E-002	7.04022E-001	3.57310E+000	9	...........
	50	0.68	7.08560E-001	9.09553E-005	0.00000E+000	6.44473E-005	5.39641E-002	7.08710E-001	3.57310E+000	9	...........
	51	0.693333	7.13174E-001	9.12783E-005	0.00000E+000	6.50973E-005	5.39641E-002	7.13301E-001	3.57310E+000	9	...........
	52	0.706667	7.17760E-001	9.09626E-005	0.00000E+000	6.52894E-005	5.39641E-002	7.17890E-001	3.57310E+000	9	...........
	53	0.72	7.22258E-001	9.08918E-005	0.00000E+000	6.56473E-005	5.39641E-002	7.22366E-001	3.57310E+000	9	...........
	54	0.733333	7.26647E-001	9.10856E-005	0.00000E+000	6.61871E-005	5.39641E-002	7.26783E-001	3.57310E+000	9	...........
	55	0.746667	7.30994E-001	9.09251E-005	0.00000E+000	6.64657E-005	5.39641E-002	7.31129E-001	3.57310E+000	9	...........
	56	0.76	7.35298E-001	9.10908E-005	0.00000E+000	6.69789E-005	5.39641E-002	7.35430E-001	3.57310E+000	9	...........
	57	0.773333	7.39538E-001	9.07709E-005	0.00000E+000	6.71286E-005	5.39641E-002	7.39676E-001	3.57310E+000	9	...........
	58	0.786667	7.43775E-001	9.08293E-005	0.00000E+000	6.75565E-005	5.39641E-002	7.43920E-001	3.57310E+000	9	...........
	59	0.8	7.47912E-001	9.10397E-005	0.00000E+000	6.80897E-005	5.39641E-002	7.48036E-001	3.57310E+000	9	...........
	60	0.813333	7.51976E-001	9.09824E-005	0.00000E+000	6.84166E-005	5.39641E-002	7.52100E-001	3.57310E+000	9	...........
	61	0.826667	7.56048E-001	9.10637E-005	0.00000E+000	6.88486E-005	5.39641E-002	7.56185E-001	3.57310E+000	9	...........
	62	0.84	7.60027E-001	9.10345E-005	0.00000E+000	6.91887E-005	5.39641E-002	7.60139E-001	3.57310E+000	9	...........
	63	0.853333	7.63964E-001	9.11345E-005	0.00000E+000	6.96235E-005	5.39641E-002	7.64077E-001	3.57310E+000	9	...........
	64	0.866667	7.67850E-001	9.11002E-005	0.00000E+000	6.99513E-005	5.39641E-002	7.68014E-001	3.57310E+000	9	...........
	65	0.88	7.71734E-001	9.10866E-005	0.00000E+000	7.02946E-005	5.39641E-002	7.71862E-001	3.57310E+000	9	...........
	66	0.893333	7.75524E-001	9.08397E-005	0.00000E+000	7.04484E-005	5.39641E-002	7.75669E-001	3.57310E+000	9	...........
	67	0.906667	7.79291E-001	9.09928E-005	0.00000E+000	7.09099E-005	5.39641E-002	7.79429E-001	3.57310E+000	9	...........
	68	0.92	7.83032E-001	9.08647E-005	0.00000E+000	7.11500E-005	5.39641E-002	7.83165E-001	3.57310E+000	9	...........
	69	0.933333	7.86713E-001	9.10668E-005	0.00000E+000	7.16435E-005	5.39641E-002	7.86859E-001	3.57310E+000	9	...........
	70	0.946667	7.90320E-001	9.12168E-005	0.00000E+000	7.20905E-005	5.39641E-002	7.90472E-001	3.57310E+000	9	...........
	71	0.96	7.93949E-001	9.10856E-005	0.00000E+000	7.23173E-005	5.39641E-002	7.94097E-001	3.57310E+000	9	...........
	72	0.97333	7.97520E-001	9.13596E-005	0.00000E+000	7.28611E-005	5.39641E-002	7.97647E-001	3.57310E+000	9	...........
	73	0.98667	8.01054E-001	9.08105E-005	0.00000E+000	7.27441E-005	5.39641E-002	8.01192E-001	3.57310E+000	9	...........
	74	1	8.04496E-001	9.10772E-005	0.00000E+000	7.32713E-005	5.39641E-002	8.04668E-001	3.57310E+000	9	...........
	75	1.01333	8.07968E-001	9.10710E-005	0.00000E+000	7.35824E-005	5.39641E-002	8.08125E-001	3.57310E+000	9	...........
	76	1.02667	8.11378E-001	9.09637E-005	0.00000E+000	7.38059E-005	5.39641E-002	8.11548E-001	3.57310E+000	9	...........
	77	1.04	8.14763E-001	9.11325E-005	0.00000E+000	7.42513E-005	5.39641E-002	8.14942E-001	3.57310E+000	9	...........
	78	1.05333	8.18133E-001	9.08418E-005	0.00000E+000	7.43206E-005	5.39641E-002	8.18282E-001	3.57310E+000	9	...........
	79	1.06667	8.21426E-001	9.07907E-005	0.00000E+000	7.45779E-005	5.39641E-002	8.21598E-001	3.57315E+000	9	...........
	80	1.08	8.24720E-001	9.08959E-005	0.00000E+000	7.49637E-005	5.39641E-002	8.24861E-001	3.57330E+000	9	...........
	81	1.09333	8.27945E-001	9.08011E-005	0.00000E+000	7.51783E-005	5.39641E-002	8.28058E-001	3.57330E+000	9	...........
	82	1.10667	8.31146E-001	9.09064E-005	0.00000E+000	7.55565E-005	5.39641E-002	8.31261E-001	3.57330E+000	9	...........
	83	1.12	8.34287E-001	9.11575E-005	0.00000E+000	7.60515E-005	5.39641E-002	8.34447E-001	3.57330E+000	9	...........
	84	1.13333	8.37416E-001	9.08116E-005	0.00000E+000	7.60470E-005	5.39641E-002	8.37566E-001	3.57330E+000	9	...........
	85	1.14667	8.40507E-001	9.11939E-005	0.00000E+000	7.66491E-005	5.39641E-002	8.40675E-001	3.57330E+000	9	...........
	86	1.16	8.43606E-001	9.09241E-005	0.00000E+000	7.67041E-005	5.39641E-002	8.43794E-001	3.57330E+000	9	...........
	87	1.17333	8.46678E-001	9.10637E-005	0.00000E+000	7.71016E-005	5.39641E-002	8.46867E-001	3.57330E+000	9	...........
	88	1.18667	8.49712E-001	9.09376E-005	0.00000E+000	7.72708E-005	5.39641E-002	8.49891E-001	3.57330E+000	9	...........
	89	1.2	8.52682E-001	9.10533E-005	0.00000E+000	7.76394E-005	5.39641E-002	8.52856E-001	3.57330E+000	9	...........
	90	1.21333	8.55630E-001	9.09074E-005	0.00000E+000	7.77831E-005	5.39641E-002	8.55818E-001	3.57330E+000	9	...........
	91	1.22667	8.58564E-001	9.05250E-005	0.00000E+000	7.77215E-005	5.39641E-002	8.58736E-001	3.57330E+000	9	...........
	92	1.24	8.61472E-001	9.09981E-005	0.00000E+000	7.83923E-005	5.39641E-002	8.61637E-001	3.57330E+000	9	...........
	93	1.25333	8.64307E-001	9.10085E-005	0.00000E+000	7.86593E-005	5.39641E-002	8.64486E-001	3.57330E+000	9	...........
	94	1.26667	8.67157E-001	9.09324E-005	0.00000E+000	7.88527E-005	5.39641E-002	8.67362E-001	3.57330E+000	9	...........
	95	1.28	8.69998E-001	9.09105E-005	0.00000E+000	7.90920E-005	5.39641E-002	8.70163E-001	3.57330E+000	9	...........
	96	1.29333	8.72759E-001	9.13335E-005	0.00000E+000	7.97122E-005	5.39641E-002	8.72958E-001	3.57330E+000	9	...........
	97	1.30667	8.75484E-001	9.12887E-005	0.00000E+000	7.99218E-005	5.39641E-002	8.75662E-001	3.57330E+000	9	...........
	98	1.32	8.78187E-001	9.09022E-005	0.00000E+000	7.98292E-005	5.39641E-002	8.78371E-001	3.57330E+000	9	...........
	99	1.33333	8.80851E-001	9.10376E-005	0.00000E+000	8.01906E-005	5.39641E-002	8.81058E-001	3.57330E+000	9	...........
	100	1.34667	8.83527E-001	9.09043E-005	0.00000E+000	8.03164E-005	5.39641E-002	8.83717E-001	3.57330E+000	9	...........
	101	1.36	8.86150E-001	9.09199E-005	0.00000E+000	8.05687E-005	5.39641E-002	8.86332E-001	3.57330E+000	9	...........
	102	1.37333	8.88742E-001	9.10137E-005	0.00000E+000	8.08877E-005	5.39641E-002	8.88938E-001	3.57330E+000	9	...........
	103	1.38667	8.91305E-001	9.13283E-005	0.00000E+000	8.14014E-005	5.39641E-002	8.91507E-001	3.57330E+000	9	...........
	104	1.4	8.93843E-001	9.10918E-005	0.00000E+000	8.14218E-005	5.39641E-002	8.94057E-001	3.57330E+000	9	...........
	105	1.41333	8.96388E-001	9.07855E-005	0.00000E+000	8.13790E-005	5.39641E-002	8.96557E-001	3.57330E+000	9	...........
	106	1.42667	8.98866E-001	9.09887E-005	0.00000E+000	8.17866E-005	5.39641E-002	8.99037E-001	3.57330E+000	9	...........
	107	1.44	9.01330E-001	9.10574E-005	0.00000E+000	8.20728E-005	5.39641E-002	9.01500E-001	3.57330E+000	9	...........
	108	1.45333	9.03768E-001	9.10699E-005	0.00000E+000	8.23061E-005	5.39641E-002	9.03962E-001	3.57330E+000	9	...........
	109	1.46667	9.06180E-001	9.08657E-005	0.00000E+000	8.23407E-005	5.39641E-002	9.06384E-001	3.57330E+000	9	...........
	110	1.48	9.08603E-001	9.08730E-005	0.00000E+000	8.25676E-005	5.39641E-002	9.08794E-001	3.57330E+000	9	...........
	111	1.49333	9.10956E-001	9.08428E-005	0.00000E+000	8.27538E-005	5.39641E-002	9.11149E-001	3.57330E+000	9	...........
	112	1.50667	9.13281E-001	9.10137E-005	0.00000E+000	8.31211E-005	5.39641E-002	9.13477E-001	3.57330E+000	9	...........
	113	1.52	9.15630E-001	9.07615E-005	0.00000E+000	8.31040E-005	5.39641E-002	9.15817E-001	3.57330E+000	9	...........
	114	1.53333	9.17898E-001	9.10699E-005	0.00000E+000	8.35929E-005	5.39641E-002	9.18097E-001	3.57330E+000	9	...........
	115	1.54667	9.20171E-001	9.09314E-005	0.00000E+000	8.36725E-005	5.39641E-002	9.20367E-001	3.57330E+000	9	...........
	116	1.56	9.22475E-001	9.10481E-005	0.00000E+000	8.39895E-005	5.39641E-002	9.22609E-001	3.57330E+000	9	...........
	117	1.57333	9.24677E-001	9.10085E-005	0.00000E+000	8.41534E-005	5.39641E-002	9.24814E-001	3.57330E+000	9	...........
	118	1.58667	9.26854E-001	9.09970E-005	0.00000E+000	8.43409E-005	5.39641E-002	9.27008E-001	3.57330E+000	9	...........
	119	1.6	9.29019E-001	9.11398E-005	0.00000E+000	8.46705E-005	5.39641E-002	9.29160E-001	3.57330E+000	9	...........
	120	1.61333	9.31147E-001	9.08970E-005	0.00000E+000	8.46384E-005	5.39641E-002	9.31299E-001	3.57330E+000	9	...........
	121	1.62667	9.33270E-001	9.07938E-005	0.00000E+000	8.47352E-005	5.39641E-002	9.33442E-001	3.57330E+000	9	...........
	122	1.64	9.35368E-001	9.10116E-005	0.00000E+000	8.51294E-005	5.39641E-002	9.35560E-001	3.57330E+000	9	...........
	123	1.65333	9.37455E-001	9.09407E-005	0.00000E+000	8.52529E-005	5.39641E-002	9.37665E-001	3.57330E+000	9	...........
	124	1.66667	9.39516E-001	9.12616E-005	0.00000E+000	8.57418E-005	5.39641E-002	9.39711E-001	3.57330E+000	9	...........
	125	1.68	9.41532E-001	9.09022E-005	0.00000E+000	8.55873E-005	5.39641E-002	9.41715E-001	3.57330E+000	9	...........
	126	1.69333	9.43521E-001	9.07063E-005	0.00000E+000	8.55834E-005	5.39641E-002	9.43709E-001	3.57330E+000	9	...........
	127	1.70667	9.45492E-001	9.10303E-005	0.00000E+000	8.60685E-005	5.39641E-002	9.45669E-001	3.57330E+000	9	...........
	128	1.72	9.47480E-001	9.09491E-005	0.00000E+000	8.61725E-005	5.39641E-002	9.47644E-001	3.57330E+000	9	...........
	129	1.73333	9.49410E-001	9.08428E-005	0.00000E+000	8.62471E-005	5.39641E-002	9.49585E-001	3.57330E+000	9	...........
	130	1.74667	9.51278E-001	9.10408E-005	0.00000E+000	8.66051E-005	5.39641E-002	9.51490E-001	3.57330E+000	9	...........
	131	1.76	9.53171E-001	9.10658E-005	0.00000E+000	8.68013E-005	5.39641E-002	9.53370E-001	3.57330E+000	9	...........
	132	1.77333	9.55048E-001	9.12887E-005	0.00000E+000	8.71851E-005	5.39641E-002	9.55231E-001	3.57330E+000	9	...........
	133	1.78667	9.56898E-001	9.11022E-005	0.00000E+000	8.71755E-005	5.39641E-002	9.57100E-001	3.57330E+000	9	...........
	134	1.8	9.58726E-001	9.10241E-005	0.00000E+000	8.72672E-005	5.39641E-002	9.58940E-001	3.57330E+000	9	...........
	135	1.81333	9.60554E-001	9.10126E-005	0.00000E+000	8.74225E-005	5.39641E-002	9.60764E-001	3.57330E+000	9	...........
	136	1.82667	9.62346E-001	9.10679E-005	0.00000E+000	8.76388E-005	5.39641E-002	9.62568E-001	3.57330E+000	9	...........
	137	1.84	9.64126E-001	9.10366E-005	0.00000E+000	8.77708E-005	5.39641E-002	9.64361E-001	3.57330E+000	9	...........
	138	1.85333	9.65907E-001	9.09845E-005	0.00000E+000	8.78826E-005	5.39641E-002	9.66123E-001	3.57330E+000	9	...........
	139	1.86667	9.67667E-001	9.09668E-005	0.00000E+000	8.80255E-005	5.39641E-002	9.67879E-001	3.57330E+000	9	...........
	140	1.88	9.69355E-001	9.09439E-005	0.00000E+000	8.81569E-005	5.39641E-002	9.69581E-001	3.57330E+000	9	...........
	141	1.89333	9.71033E-001	9.08251E-005	0.00000E+000	8.81942E-005	5.39641E-002	9.71293E-001	3.57330E+000	9	...........
	142	1.90667	9.72777E-001	9.12804E-005	0.00000E+000	8.87955E-005	5.39641E-002	9.72988E-001	3.57330E+000	9	...........
	143	1.92	9.74427E-001	9.08001E-005	0.00000E+000	8.84780E-005	5.39641E-002	9.74638E-001	3.57330E+000	9	...........
	144	1.93333	9.76082E-001	9.09637E-005	0.00000E+000	8.87880E-005	5.39641E-002	9.76270E-001	3.57330E+000	9	...........
	145	1.94667	9.77693E-001	9.10303E-005	0.00000E+000	8.89997E-005	5.39641E-002	9.77903E-001	3.57330E+000	9	...........
	146	1.96	9.79310E-001	9.08511E-005	0.00000E+000	8.89714E-005	5.39641E-002	9.79493E-001	3.57330E+000	9	...........
	147	1.97333	9.80895E-001	9.09855E-005	0.00000E+000	8.92473E-005	5.39641E-002	9.81086E-001	3.57330E+000	9	...........
	148	1.98667	9.82471E-001	9.08303E-005	0.00000E+000	8.92381E-005	5.39641E-002	9.82652E-001	3.57330E+000	9	...........
	149	2	9.84011E-001	9.08168E-005	0.00000E+000	8.93647E-005	5.39641E-002	9.84222E-001	3.57330E+000	9	...........
	150	2.01333	9.85553E-001	9.08115E-005	0.00000E+000	8.94996E-005	5.39641E-002	9.85780E-001	3.57330E+000	9	...........
	151	2.02667	9.87106E-001	9.12804E-005	0.00000E+000	9.01035E-005	5.39641E-002	9.87307E-001	3.57330E+000	9	...........
	152	2.04	9.88594E-001	9.05948E-005	0.00000E+000	8.95615E-005	5.39641E-002	9.88804E-001	3.57330E+000	9	...........
	153	2.05333	9.90086E-001	9.11460E-005	0.00000E+000	9.02424E-005	5.39641E-002	9.90297E-001	3.57330E+000	9	...........
	154	2.06667	9.91567E-001	9.09209E-005	0.00000E+000	9.01542E-005	5.39641E-002	9.91749E-001	3.57320E+000	9	...........
	155	2.08	9.93042E-001	9.11168E-005	0.00000E+000	9.04829E-005	5.39641E-002	9.93199E-001	3.57290E+000	9	...........
	156	2.09333	9.94471E-001	9.10710E-005	0.00000E+000	9.05675E-005	5.39641E-002	9.94674E-001	3.57290E+000	9	...........
	157	2.10667	9.95920E-001	9.10668E-005	0.00000E+000	9.06952E-005	5.39641E-002	9.96091E-001	3.57290E+000	9	...........
	158	2.12	9.97321E-001	9.11804E-005	0.00000E+000	9.09361E-005	5.39641E-002	9.97500E-001	3.57290E+000	9	...........
	159	2.13333	9.98728E-001	9.12491E-005	0.00000E+000	9.11331E-005	5.39641E-002	9.98905E-001	3.57290E+000	9	...........
	160	2.14	9.99778E-001	9.06897E-005	0.00000E+000	9.06696E-005	5.39641E-002	9.99935E-001	3.57290E+000	9	...........
STARTTIMEOFFSET	QUANT	4133.065	Start Time Offset (s)
