EXPLAIN
TAG	PWR800_CHARGE
TITLE	LABEL	PWR Cyclic Charge Discharge (Cell) - Charge Step	Test &Identifier
DATE	LABEL	10-7-2017	Date
TIME	LABEL	16:11:29	Time
NOTES	NOTES	3	&Notes...
	supercap test cell
	0.9mg
	6M KOH
PSTAT	PSTAT	IFC5000-01520	Potentiostat
CAPACITY	QUANT	1.00000E-003	Capacity (A-hr)
CELLTYPE	SELECTOR	1	&Cell Type
WORKINGCONNECTION	SELECTOR	0	&Working Lead
MAXCHARGETIME	VARIABLEANDUNITS	1.00000E+002	s	1.00000E+002	second(s)	Max &Charge Time
CHARGECURRENT	QUANT	9.00000E-005	&Charge Current (A) 
VOLTAGEFINISH	TWOPARAM	F	1.00000E-003	3.60000E+003	&Voltage Finish	 I (A) < 	Max Time(s)
SAMPLETIME	QUANT	1.00000E-002	Sa&mple Period (s)
CHARGESTOPAT1	MULTIPARAM	4	1.00000E+000	Charge Stop At &1	Voltage > Limit	V
CHARGESTOPAT2	MULTIPARAM	0	0.00000E+000	Charge Stop At &2	None	N/A
AESBHCSELECTOR	TOGGLE	F	Save Both Half Cells
IRCOMP	TOGGLE	F	IR &Measure
EOC	QUANT	0	Open Circuit (V)
SEQUENCER	TOGGLE	TRUE	Run as Sequence
PSTATMODEL	IQUANT	53	Pstat Model
PSTATSECTION	LABEL	IFC5000-01520	Pstat Section
PSTATSERIALNO	LABEL	01520	Pstat Serial Number
CTRLMODE	IQUANT	0	Control Mode
ELECTROMETER	IQUANT	1	RE=0 or CS=1
IESTAB	IQUANT	0	I/E Stability
CASPEED	IQUANT	4	Control Amp Speed
CONVENTION	IQUANT	1	Current Convention
ICHRANGE	IQUANT	2	Ich Range
ICHRANGEMODE	TOGGLE	T	Ich Auto Range
ICHOFFSETENABLE	TOGGLE	F	Ich Offset Enable
ICHOFFSET	QUANT	0	Ich Offset (V)
ICHFILTER	IQUANT	1	Ich Filter
VCHRANGE	IQUANT	2	Vch Range
VCHRANGEMODE	TOGGLE	T	Vch Auto Range
VCHOFFSETENABLE	TOGGLE	F	Vch Offset Enable
VCHOFFSET	QUANT	0	Vch Offset (V)
VCHFILTER	IQUANT	1	Vch Filter
IERANGELOWERLIMIT	IQUANT	9	I/E Range Lower Limit
IERANGEMODE	TOGGLE	F	I/E AutoRange
IERANGE	IQUANT	9	I/E Range
ACHSELECT	IQUANT	1	Ach Select
ACHRANGE	IQUANT	2	Ach Range
ACHOFFSETENABLE	TOGGLE	F	Ach Offset Enable
ACHOFFSET	QUANT	0	Ach Offset (V)
ACHFILTER	IQUANT	1	Ach Filter
CABLEID	IQUANT	14	Cable ID
DCCALDATE	LABEL	5-7-2017	DC Calibration Date
ACCALDATE	LABEL	12/3/2015	AC Calibration Date
FRAMEWORKVERSION	QUANT	7.01	Framework Version
INSTRUMENTVERSION	LABEL	4.00	Instrument Version
CURVE	TABLE	162
	Pt	T	Vf	Im	Vu	Pwr	Sig	Ach	Temp	IERange	Over
	#	s	V	A	V	W	V	V	deg C	#	bits
	0	0.013333	2.83219E-001	9.08907E-005	0.00000E+000	2.57420E-005	5.39641E-002	2.83271E-001	3.57350E+000	9	...........
	1	0.026667	3.02523E-001	9.10158E-005	0.00000E+000	2.75344E-005	5.39641E-002	3.02570E-001	3.57350E+000	9	...........
	2	0.04	3.20600E-001	9.08241E-005	0.00000E+000	2.91182E-005	5.39641E-002	3.20637E-001	3.57350E+000	9	...........
	3	0.053333	3.37607E-001	9.11741E-005	0.00000E+000	3.07810E-005	5.39641E-002	3.37655E-001	3.57350E+000	9	...........
	4	0.066667	3.53687E-001	9.10866E-005	0.00000E+000	3.22162E-005	5.39641E-002	3.53740E-001	3.57350E+000	9	...........
	5	0.08	3.68933E-001	9.07688E-005	0.00000E+000	3.34877E-005	5.39641E-002	3.68983E-001	3.57350E+000	9	...........
	6	0.093333	3.83410E-001	9.10647E-005	0.00000E+000	3.49151E-005	5.39641E-002	3.83461E-001	3.57350E+000	9	...........
	7	0.106667	3.97197E-001	9.10845E-005	0.00000E+000	3.61785E-005	5.39641E-002	3.97246E-001	3.57350E+000	9	...........
	8	0.12	4.10343E-001	9.08814E-005	0.00000E+000	3.72925E-005	5.39641E-002	4.10394E-001	3.57350E+000	9	...........
	9	0.133333	4.22912E-001	9.09428E-005	0.00000E+000	3.84608E-005	5.39641E-002	4.22968E-001	3.57350E+000	9	...........
	10	0.146667	4.34944E-001	9.11564E-005	0.00000E+000	3.96480E-005	5.39641E-002	4.35004E-001	3.57353E+000	9	...........
	11	0.16	4.46487E-001	9.11898E-005	0.00000E+000	4.07151E-005	5.39641E-002	4.46549E-001	3.57390E+000	9	...........
	12	0.173333	4.57580E-001	9.11835E-005	0.00000E+000	4.17237E-005	5.39641E-002	4.57646E-001	3.57390E+000	9	...........
	13	0.186667	4.68260E-001	9.08814E-005	0.00000E+000	4.25561E-005	5.39641E-002	4.68325E-001	3.57390E+000	9	...........
	14	0.2	4.78543E-001	9.09147E-005	0.00000E+000	4.35066E-005	5.39641E-002	4.78616E-001	3.57390E+000	9	...........
	15	0.213333	4.88476E-001	9.07272E-005	0.00000E+000	4.43180E-005	5.39641E-002	4.88547E-001	3.57390E+000	9	...........
	16	0.226667	4.98060E-001	9.08543E-005	0.00000E+000	4.52508E-005	5.39641E-002	4.98129E-001	3.57390E+000	9	...........
	17	0.24	5.07333E-001	9.08939E-005	0.00000E+000	4.61134E-005	5.39641E-002	5.07404E-001	3.57390E+000	9	...........
	18	0.253333	5.16302E-001	9.08261E-005	0.00000E+000	4.68937E-005	5.39641E-002	5.16375E-001	3.57390E+000	9	...........
	19	0.266667	5.25002E-001	9.10408E-005	0.00000E+000	4.77966E-005	5.39641E-002	5.25076E-001	3.57390E+000	9	...........
	20	0.28	5.33377E-001	9.08543E-005	0.00000E+000	4.84596E-005	5.39641E-002	5.33460E-001	3.57390E+000	9	...........
	21	0.293333	5.41513E-001	9.11877E-005	0.00000E+000	4.93793E-005	5.39641E-002	5.41612E-001	3.57390E+000	9	...........
	22	0.306667	5.49463E-001	9.10262E-005	0.00000E+000	5.00155E-005	5.39641E-002	5.49575E-001	3.57390E+000	9	...........
	23	0.32	5.57224E-001	9.08834E-005	0.00000E+000	5.06424E-005	5.39641E-002	5.57330E-001	3.57390E+000	9	...........
	24	0.333333	5.64801E-001	9.10303E-005	0.00000E+000	5.14141E-005	5.39641E-002	5.64911E-001	3.57390E+000	9	...........
	25	0.346667	5.72158E-001	9.12533E-005	0.00000E+000	5.22113E-005	5.39641E-002	5.72270E-001	3.57390E+000	9	...........
	26	0.36	5.79308E-001	9.10481E-005	0.00000E+000	5.27449E-005	5.39641E-002	5.79451E-001	3.57390E+000	9	...........
	27	0.373333	5.86298E-001	9.11116E-005	0.00000E+000	5.34186E-005	5.39641E-002	5.86447E-001	3.57390E+000	9	...........
	28	0.386667	5.93149E-001	9.10939E-005	0.00000E+000	5.40323E-005	5.39641E-002	5.93270E-001	3.57390E+000	9	...........
	29	0.4	5.99757E-001	9.08897E-005	0.00000E+000	5.45117E-005	5.39641E-002	5.99946E-001	3.57390E+000	9	...........
	30	0.413333	6.06285E-001	9.10553E-005	0.00000E+000	5.52055E-005	5.39641E-002	6.06418E-001	3.57390E+000	9	...........
	31	0.426667	6.12649E-001	9.09418E-005	0.00000E+000	5.57154E-005	5.39641E-002	6.12812E-001	3.57390E+000	9	...........
	32	0.44	6.18939E-001	9.10689E-005	0.00000E+000	5.63661E-005	5.39641E-002	6.19054E-001	3.57390E+000	9	...........
	33	0.453333	6.25049E-001	9.12846E-005	0.00000E+000	5.70573E-005	5.39641E-002	6.25131E-001	3.57390E+000	9	...........
	34	0.466667	6.30995E-001	9.08397E-005	0.00000E+000	5.73194E-005	5.39641E-002	6.31107E-001	3.57390E+000	9	...........
	35	0.48	6.36834E-001	9.08105E-005	0.00000E+000	5.78312E-005	5.39641E-002	6.36959E-001	3.57390E+000	9	...........
	36	0.493333	6.42615E-001	9.11564E-005	0.00000E+000	5.85785E-005	5.39641E-002	6.42714E-001	3.57390E+000	9	...........
	37	0.506667	6.48259E-001	9.12033E-005	0.00000E+000	5.91233E-005	5.39641E-002	6.48394E-001	3.57390E+000	9	...........
	38	0.52	6.53816E-001	9.09866E-005	0.00000E+000	5.94884E-005	5.39641E-002	6.53942E-001	3.57390E+000	9	...........
	39	0.533333	6.59226E-001	9.10751E-005	0.00000E+000	6.00391E-005	5.39641E-002	6.59358E-001	3.57390E+000	9	...........
	40	0.546667	6.64565E-001	9.09908E-005	0.00000E+000	6.04692E-005	5.39641E-002	6.64713E-001	3.57390E+000	9	...........
	41	0.56	6.69843E-001	9.09105E-005	0.00000E+000	6.08958E-005	5.39641E-002	6.69950E-001	3.57390E+000	9	...........
	42	0.573333	6.74970E-001	9.09647E-005	0.00000E+000	6.13984E-005	5.39641E-002	6.75104E-001	3.57390E+000	9	...........
	43	0.586667	6.80043E-001	9.09366E-005	0.00000E+000	6.18408E-005	5.39641E-002	6.80168E-001	3.57390E+000	9	...........
	44	0.6	6.85035E-001	9.10595E-005	0.00000E+000	6.23789E-005	5.39641E-002	6.85163E-001	3.57390E+000	9	...........
	45	0.613333	6.89945E-001	9.10793E-005	0.00000E+000	6.28397E-005	5.39641E-002	6.90085E-001	3.57390E+000	9	...........
	46	0.626667	6.94779E-001	9.10116E-005	0.00000E+000	6.32330E-005	5.39641E-002	6.94890E-001	3.57390E+000	9	...........
	47	0.64	6.99511E-001	9.10178E-005	0.00000E+000	6.36680E-005	5.39641E-002	6.99649E-001	3.57390E+000	9	...........
	48	0.653333	7.04200E-001	9.10741E-005	0.00000E+000	6.41344E-005	5.39641E-002	7.04332E-001	3.57390E+000	9	...........
	49	0.666667	7.08806E-001	9.09762E-005	0.00000E+000	6.44844E-005	5.39641E-002	7.08958E-001	3.57390E+000	9	...........
	50	0.68	7.13358E-001	9.11773E-005	0.00000E+000	6.50420E-005	5.39641E-002	7.13504E-001	3.57390E+000	9	...........
	51	0.693333	7.17868E-001	9.11085E-005	0.00000E+000	6.54039E-005	5.39641E-002	7.18030E-001	3.57390E+000	9	...........
	52	0.706667	7.22333E-001	9.09314E-005	0.00000E+000	6.56828E-005	5.39641E-002	7.22469E-001	3.57390E+000	9	...........
	53	0.72	7.26711E-001	9.10012E-005	0.00000E+000	6.61316E-005	5.39641E-002	7.26830E-001	3.57390E+000	9	...........
	54	0.733333	7.31008E-001	9.10814E-005	0.00000E+000	6.65812E-005	5.39641E-002	7.31153E-001	3.57390E+000	9	...........
	55	0.746667	7.35218E-001	9.09522E-005	0.00000E+000	6.68697E-005	5.39641E-002	7.35351E-001	3.57390E+000	9	...........
	56	0.76	7.39405E-001	9.08970E-005	0.00000E+000	6.72097E-005	5.39641E-002	7.39539E-001	3.57390E+000	9	...........
	57	0.773333	7.43587E-001	9.10731E-005	0.00000E+000	6.77208E-005	5.39641E-002	7.43705E-001	3.57390E+000	9	...........
	58	0.786667	7.47685E-001	9.07793E-005	0.00000E+000	6.78743E-005	5.39641E-002	7.47805E-001	3.57390E+000	9	...........
	59	0.8	7.51712E-001	9.10626E-005	0.00000E+000	6.84529E-005	5.39641E-002	7.51840E-001	3.57390E+000	9	...........
	60	0.813333	7.55698E-001	9.13815E-005	0.00000E+000	6.90568E-005	5.39641E-002	7.55830E-001	3.57390E+000	9	...........
	61	0.826667	7.59628E-001	9.10064E-005	0.00000E+000	6.91310E-005	5.39641E-002	7.59736E-001	3.57390E+000	9	...........
	62	0.84	7.63520E-001	9.10126E-005	0.00000E+000	6.94900E-005	5.39641E-002	7.63625E-001	3.57390E+000	9	...........
	63	0.853333	7.67355E-001	9.10543E-005	0.00000E+000	6.98710E-005	5.39641E-002	7.67506E-001	3.57390E+000	9	...........
	64	0.866667	7.71194E-001	9.09668E-005	0.00000E+000	7.01530E-005	5.39641E-002	7.71324E-001	3.57390E+000	9	...........
	65	0.88	7.74968E-001	9.10866E-005	0.00000E+000	7.05892E-005	5.39641E-002	7.75080E-001	3.57390E+000	9	...........
	66	0.893333	7.78680E-001	9.12387E-005	0.00000E+000	7.10458E-005	5.39641E-002	7.78816E-001	3.57390E+000	9	...........
	67	0.906667	7.82391E-001	9.09991E-005	0.00000E+000	7.11968E-005	5.39641E-002	7.82516E-001	3.57390E+000	9	...........
	68	0.92	7.86007E-001	9.10095E-005	0.00000E+000	7.15341E-005	5.39641E-002	7.86140E-001	3.57390E+000	9	...........
	69	0.933333	7.89590E-001	9.10012E-005	0.00000E+000	7.18536E-005	5.39641E-002	7.89726E-001	3.57390E+000	9	...........
	70	0.946667	7.93183E-001	9.09876E-005	0.00000E+000	7.21699E-005	5.39641E-002	7.93301E-001	3.57390E+000	9	...........
	71	0.96	7.96715E-001	9.10876E-005	0.00000E+000	7.25709E-005	5.39641E-002	7.96806E-001	3.57390E+000	9	...........
	72	0.97333	8.00172E-001	9.10366E-005	0.00000E+000	7.28450E-005	5.39641E-002	8.00288E-001	3.57390E+000	9	...........
	73	0.98667	8.03626E-001	9.08366E-005	0.00000E+000	7.29986E-005	5.39641E-002	8.03732E-001	3.57390E+000	9	...........
	74	1	8.07023E-001	9.09730E-005	0.00000E+000	7.34174E-005	5.39641E-002	8.07142E-001	3.57390E+000	9	...........
	75	1.01333	8.10366E-001	9.11199E-005	0.00000E+000	7.38405E-005	5.39641E-002	8.10493E-001	3.57390E+000	9	...........
	76	1.02667	8.13681E-001	9.11877E-005	0.00000E+000	7.41977E-005	5.39641E-002	8.13802E-001	3.57390E+000	9	...........
	77	1.04	8.16966E-001	9.10158E-005	0.00000E+000	7.43568E-005	5.39641E-002	8.17111E-001	3.57390E+000	9	...........
	78	1.05333	8.20256E-001	9.08814E-005	0.00000E+000	7.45460E-005	5.39641E-002	8.20366E-001	3.57390E+000	9	...........
	79	1.06667	8.23441E-001	9.08032E-005	0.00000E+000	7.47711E-005	5.39641E-002	8.23631E-001	3.57390E+000	9	...........
	80	1.08	8.26639E-001	9.09262E-005	0.00000E+000	7.51632E-005	5.39641E-002	8.26792E-001	3.57390E+000	9	...........
	81	1.09333	8.29791E-001	9.11804E-005	0.00000E+000	7.56606E-005	5.39641E-002	8.29947E-001	3.57390E+000	9	...........
	82	1.10667	8.32908E-001	9.09772E-005	0.00000E+000	7.57756E-005	5.39641E-002	8.33062E-001	3.57390E+000	9	...........
	83	1.12	8.35989E-001	9.11554E-005	0.00000E+000	7.62049E-005	5.39641E-002	8.36173E-001	3.57390E+000	9	...........
	84	1.13333	8.39054E-001	9.13471E-005	0.00000E+000	7.66451E-005	5.39641E-002	8.39221E-001	3.57390E+000	9	...........
	85	1.14667	8.42060E-001	9.11804E-005	0.00000E+000	7.67794E-005	5.39641E-002	8.42253E-001	3.57386E+000	9	...........
	86	1.16	8.45098E-001	9.08866E-005	0.00000E+000	7.68080E-005	5.39641E-002	8.45270E-001	3.57350E+000	9	...........
	87	1.17333	8.48056E-001	9.09157E-005	0.00000E+000	7.71016E-005	5.39641E-002	8.48223E-001	3.57350E+000	9	...........
	88	1.18667	8.51008E-001	9.07230E-005	0.00000E+000	7.72060E-005	5.39641E-002	8.51193E-001	3.57350E+000	9	...........
	89	1.2	8.53902E-001	9.11283E-005	0.00000E+000	7.78146E-005	5.39641E-002	8.54059E-001	3.57350E+000	9	...........
	90	1.21333	8.56771E-001	9.09137E-005	0.00000E+000	7.78921E-005	5.39641E-002	8.56958E-001	3.57350E+000	9	...........
	91	1.22667	8.59638E-001	9.09595E-005	0.00000E+000	7.81922E-005	5.39641E-002	8.59808E-001	3.57350E+000	9	...........
	92	1.24	8.62469E-001	9.11189E-005	0.00000E+000	7.85872E-005	5.39641E-002	8.62619E-001	3.57350E+000	9	...........
	93	1.25333	8.65235E-001	9.08241E-005	0.00000E+000	7.85841E-005	5.39641E-002	8.65419E-001	3.57350E+000	9	...........
	94	1.26667	8.68020E-001	9.09303E-005	0.00000E+000	7.89293E-005	5.39641E-002	8.68224E-001	3.57350E+000	9	...........
	95	1.28	8.70782E-001	9.12168E-005	0.00000E+000	7.94300E-005	5.39641E-002	8.70964E-001	3.57350E+000	9	...........
	96	1.29333	8.73473E-001	9.11439E-005	0.00000E+000	7.96117E-005	5.39641E-002	8.73684E-001	3.57350E+000	9	...........
	97	1.30667	8.76171E-001	9.09126E-005	0.00000E+000	7.96550E-005	5.39641E-002	8.76371E-001	3.57350E+000	9	...........
	98	1.32	8.78815E-001	9.07740E-005	0.00000E+000	7.97736E-005	5.39641E-002	8.78998E-001	3.57350E+000	9	...........
	99	1.33333	8.81422E-001	9.10533E-005	0.00000E+000	8.02564E-005	5.39641E-002	8.81611E-001	3.57350E+000	9	...........
	100	1.34667	8.84027E-001	9.07970E-005	0.00000E+000	8.02670E-005	5.39641E-002	8.84223E-001	3.57350E+000	9	...........
	101	1.36	8.86577E-001	9.09574E-005	0.00000E+000	8.06407E-005	5.39641E-002	8.86786E-001	3.57350E+000	9	...........
	102	1.37333	8.89128E-001	9.09647E-005	0.00000E+000	8.08792E-005	5.39641E-002	8.89322E-001	3.57350E+000	9	...........
	103	1.38667	8.91625E-001	9.11845E-005	0.00000E+000	8.13024E-005	5.39641E-002	8.91793E-001	3.57350E+000	9	...........
	104	1.4	8.94101E-001	9.10637E-005	0.00000E+000	8.14201E-005	5.39641E-002	8.94325E-001	3.57350E+000	9	...........
	105	1.41333	8.96588E-001	9.07938E-005	0.00000E+000	8.14046E-005	5.39641E-002	8.96809E-001	3.57350E+000	9	...........
	106	1.42667	8.99025E-001	9.10449E-005	0.00000E+000	8.18517E-005	5.39641E-002	8.99245E-001	3.57350E+000	9	...........
	107	1.44	9.01437E-001	9.10481E-005	0.00000E+000	8.20741E-005	5.39641E-002	9.01664E-001	3.57350E+000	9	...........
	108	1.45333	9.03825E-001	9.12075E-005	0.00000E+000	8.24356E-005	5.39641E-002	9.04049E-001	3.57350E+000	9	...........
	109	1.46667	9.06183E-001	9.10303E-005	0.00000E+000	8.24901E-005	5.39641E-002	9.06405E-001	3.57350E+000	9	...........
	110	1.48	9.08531E-001	9.08834E-005	0.00000E+000	8.25704E-005	5.39641E-002	9.08743E-001	3.57350E+000	9	...........
	111	1.49333	9.10884E-001	9.11720E-005	0.00000E+000	8.30472E-005	5.39641E-002	9.11064E-001	3.57350E+000	9	...........
	112	1.50667	9.13161E-001	9.08772E-005	0.00000E+000	8.29855E-005	5.39641E-002	9.13364E-001	3.57350E+000	9	...........
	113	1.52	9.15434E-001	9.10147E-005	0.00000E+000	8.33179E-005	5.39641E-002	9.15629E-001	3.57350E+000	9	...........
	114	1.53333	9.17693E-001	9.10574E-005	0.00000E+000	8.35628E-005	5.39641E-002	9.17875E-001	3.57350E+000	9	...........
	115	1.54667	9.19920E-001	9.06657E-005	0.00000E+000	8.34052E-005	5.39641E-002	9.20085E-001	3.57350E+000	9	...........
	116	1.56	9.22163E-001	9.11773E-005	0.00000E+000	8.40803E-005	5.39641E-002	9.22278E-001	3.57350E+000	9	...........
	117	1.57333	9.24354E-001	9.10220E-005	0.00000E+000	8.41366E-005	5.39641E-002	9.24468E-001	3.57350E+000	9	...........
	118	1.58667	9.26503E-001	9.10606E-005	0.00000E+000	8.43678E-005	5.39641E-002	9.26635E-001	3.57350E+000	9	...........
	119	1.6	9.28636E-001	9.10335E-005	0.00000E+000	8.45370E-005	5.39641E-002	9.28769E-001	3.57350E+000	9	...........
	120	1.61333	9.30737E-001	9.09262E-005	0.00000E+000	8.46283E-005	5.39641E-002	9.30887E-001	3.57350E+000	9	...........
	121	1.62667	9.32812E-001	9.11293E-005	0.00000E+000	8.50066E-005	5.39641E-002	9.33003E-001	3.57350E+000	9	...........
	122	1.64	9.34886E-001	9.09866E-005	0.00000E+000	8.50621E-005	5.39641E-002	9.35086E-001	3.57350E+000	9	...........
	123	1.65333	9.36923E-001	9.13690E-005	0.00000E+000	8.56057E-005	5.39641E-002	9.37124E-001	3.57350E+000	9	...........
	124	1.66667	9.38921E-001	9.12387E-005	0.00000E+000	8.56659E-005	5.39641E-002	9.39146E-001	3.57350E+000	9	...........
	125	1.68	9.40915E-001	9.11252E-005	0.00000E+000	8.57411E-005	5.39641E-002	9.41124E-001	3.57350E+000	9	...........
	126	1.69333	9.42854E-001	9.08834E-005	0.00000E+000	8.56898E-005	5.39641E-002	9.43075E-001	3.57350E+000	9	...........
	127	1.70667	9.44783E-001	9.09720E-005	0.00000E+000	8.59488E-005	5.39641E-002	9.45020E-001	3.57350E+000	9	...........
	128	1.72	9.46746E-001	9.09616E-005	0.00000E+000	8.61176E-005	5.39641E-002	9.46965E-001	3.57350E+000	9	...........
	129	1.73333	9.48666E-001	9.08022E-005	0.00000E+000	8.61409E-005	5.39641E-002	9.48866E-001	3.57350E+000	9	...........
	130	1.74667	9.50535E-001	9.11491E-005	0.00000E+000	8.66405E-005	5.39641E-002	9.50738E-001	3.57350E+000	9	...........
	131	1.76	9.52372E-001	9.10866E-005	0.00000E+000	8.67484E-005	5.39641E-002	9.52579E-001	3.57350E+000	9	...........
	132	1.77333	9.54209E-001	9.09626E-005	0.00000E+000	8.67974E-005	5.39641E-002	9.54365E-001	3.57350E+000	9	...........
	133	1.78667	9.56026E-001	9.10616E-005	0.00000E+000	8.70573E-005	5.39641E-002	9.56190E-001	3.57350E+000	9	...........
	134	1.8	9.57825E-001	9.07928E-005	0.00000E+000	8.69636E-005	5.39641E-002	9.57968E-001	3.57350E+000	9	...........
	135	1.81333	9.59606E-001	9.10158E-005	0.00000E+000	8.73393E-005	5.39641E-002	9.59779E-001	3.57350E+000	9	...........
	136	1.82667	9.61352E-001	9.08501E-005	0.00000E+000	8.73389E-005	5.39641E-002	9.61519E-001	3.57350E+000	9	...........
	137	1.84	9.63085E-001	9.10064E-005	0.00000E+000	8.76469E-005	5.39641E-002	9.63249E-001	3.57350E+000	9	...........
	138	1.85333	9.64806E-001	9.09199E-005	0.00000E+000	8.77200E-005	5.39641E-002	9.64976E-001	3.57350E+000	9	...........
	139	1.86667	9.66511E-001	9.08188E-005	0.00000E+000	8.77774E-005	5.39641E-002	9.66655E-001	3.57350E+000	9	...........
	140	1.88	9.68163E-001	9.12491E-005	0.00000E+000	8.83440E-005	5.39641E-002	9.68373E-001	3.57350E+000	9	...........
	141	1.89333	9.69862E-001	9.10147E-005	0.00000E+000	8.82718E-005	5.39641E-002	9.70043E-001	3.57350E+000	9	...........
	142	1.90667	9.71528E-001	9.09512E-005	0.00000E+000	8.83616E-005	5.39641E-002	9.71726E-001	3.57350E+000	9	...........
	143	1.92	9.73225E-001	9.10481E-005	0.00000E+000	8.86102E-005	5.39641E-002	9.73384E-001	3.57350E+000	9	...........
	144	1.93333	9.74844E-001	9.11575E-005	0.00000E+000	8.88643E-005	5.39641E-002	9.75000E-001	3.57350E+000	9	...........
	145	1.94667	9.76419E-001	9.09783E-005	0.00000E+000	8.88329E-005	5.39641E-002	9.76601E-001	3.57350E+000	9	...........
	146	1.96	9.77998E-001	9.11533E-005	0.00000E+000	8.91477E-005	5.39641E-002	9.78190E-001	3.57350E+000	9	...........
	147	1.97333	9.79561E-001	9.10106E-005	0.00000E+000	8.91504E-005	5.39641E-002	9.79743E-001	3.57350E+000	9	...........
	148	1.98667	9.81117E-001	9.12721E-005	0.00000E+000	8.95485E-005	5.39641E-002	9.81294E-001	3.57350E+000	9	...........
	149	2	9.82627E-001	9.09001E-005	0.00000E+000	8.93209E-005	5.39641E-002	9.82850E-001	3.57350E+000	9	...........
	150	2.01333	9.84145E-001	9.11502E-005	0.00000E+000	8.97050E-005	5.39641E-002	9.84366E-001	3.57350E+000	9	...........
	151	2.02667	9.85651E-001	9.08855E-005	0.00000E+000	8.95814E-005	5.39641E-002	9.85892E-001	3.57350E+000	9	...........
	152	2.04	9.87120E-001	9.11439E-005	0.00000E+000	8.99700E-005	5.39641E-002	9.87367E-001	3.57350E+000	9	...........
	153	2.05333	9.88607E-001	9.07886E-005	0.00000E+000	8.97543E-005	5.39641E-002	9.88840E-001	3.57350E+000	9	...........
	154	2.06667	9.90071E-001	9.11074E-005	0.00000E+000	9.02028E-005	5.39641E-002	9.90302E-001	3.57350E+000	9	...........
	155	2.08	9.91525E-001	9.10241E-005	0.00000E+000	9.02527E-005	5.39641E-002	9.91736E-001	3.57350E+000	9	...........
	156	2.09333	9.92907E-001	9.11283E-005	0.00000E+000	9.04819E-005	5.39641E-002	9.93132E-001	3.57350E+000	9	...........
	157	2.10667	9.94313E-001	9.09928E-005	0.00000E+000	9.04753E-005	5.39641E-002	9.94527E-001	3.57350E+000	9	...........
	158	2.12	9.95736E-001	9.10408E-005	0.00000E+000	9.06525E-005	5.39641E-002	9.95909E-001	3.57350E+000	9	...........
	159	2.13333	9.97086E-001	9.10178E-005	0.00000E+000	9.07526E-005	5.39641E-002	9.97319E-001	3.57350E+000	9	...........
	160	2.14667	9.98502E-001	9.10658E-005	0.00000E+000	9.09293E-005	5.39641E-002	9.98726E-001	3.57349E+000	9	...........
	161	2.15667	9.99679E-001	9.12210E-005	0.00000E+000	9.11918E-005	5.39641E-002	9.99899E-001	3.57340E+000	9	...........
STARTTIMEOFFSET	QUANT	3636.542	Start Time Offset (s)
