EXPLAIN
TAG	PWR800_CHARGE
TITLE	LABEL	PWR Cyclic Charge Discharge (Cell) - Charge Step	Test &Identifier
DATE	LABEL	10-7-2017	Date
TIME	LABEL	15:28:45	Time
NOTES	NOTES	3	&Notes...
	supercap test cell
	0.9mg
	6M KOH
PSTAT	PSTAT	IFC5000-01520	Potentiostat
CAPACITY	QUANT	1.00000E-003	Capacity (A-hr)
CELLTYPE	SELECTOR	1	&Cell Type
WORKINGCONNECTION	SELECTOR	0	&Working Lead
MAXCHARGETIME	VARIABLEANDUNITS	1.00000E+002	s	1.00000E+002	second(s)	Max &Charge Time
CHARGECURRENT	QUANT	9.00000E-005	&Charge Current (A) 
VOLTAGEFINISH	TWOPARAM	F	1.00000E-003	3.60000E+003	&Voltage Finish	 I (A) < 	Max Time(s)
SAMPLETIME	QUANT	1.00000E-002	Sa&mple Period (s)
CHARGESTOPAT1	MULTIPARAM	4	1.00000E+000	Charge Stop At &1	Voltage > Limit	V
CHARGESTOPAT2	MULTIPARAM	0	0.00000E+000	Charge Stop At &2	None	N/A
AESBHCSELECTOR	TOGGLE	F	Save Both Half Cells
IRCOMP	TOGGLE	F	IR &Measure
EOC	QUANT	0	Open Circuit (V)
SEQUENCER	TOGGLE	TRUE	Run as Sequence
PSTATMODEL	IQUANT	53	Pstat Model
PSTATSECTION	LABEL	IFC5000-01520	Pstat Section
PSTATSERIALNO	LABEL	01520	Pstat Serial Number
CTRLMODE	IQUANT	0	Control Mode
ELECTROMETER	IQUANT	1	RE=0 or CS=1
IESTAB	IQUANT	0	I/E Stability
CASPEED	IQUANT	4	Control Amp Speed
CONVENTION	IQUANT	1	Current Convention
ICHRANGE	IQUANT	2	Ich Range
ICHRANGEMODE	TOGGLE	T	Ich Auto Range
ICHOFFSETENABLE	TOGGLE	F	Ich Offset Enable
ICHOFFSET	QUANT	0	Ich Offset (V)
ICHFILTER	IQUANT	1	Ich Filter
VCHRANGE	IQUANT	2	Vch Range
VCHRANGEMODE	TOGGLE	T	Vch Auto Range
VCHOFFSETENABLE	TOGGLE	F	Vch Offset Enable
VCHOFFSET	QUANT	0	Vch Offset (V)
VCHFILTER	IQUANT	1	Vch Filter
IERANGELOWERLIMIT	IQUANT	9	I/E Range Lower Limit
IERANGEMODE	TOGGLE	F	I/E AutoRange
IERANGE	IQUANT	9	I/E Range
ACHSELECT	IQUANT	1	Ach Select
ACHRANGE	IQUANT	2	Ach Range
ACHOFFSETENABLE	TOGGLE	F	Ach Offset Enable
ACHOFFSET	QUANT	0	Ach Offset (V)
ACHFILTER	IQUANT	1	Ach Filter
CABLEID	IQUANT	14	Cable ID
DCCALDATE	LABEL	5-7-2017	DC Calibration Date
ACCALDATE	LABEL	12/3/2015	AC Calibration Date
FRAMEWORKVERSION	QUANT	7.01	Framework Version
INSTRUMENTVERSION	LABEL	4.00	Instrument Version
CURVE	TABLE	175
	Pt	T	Vf	Im	Vu	Pwr	Sig	Ach	Temp	IERange	Over
	#	s	V	A	V	W	V	V	deg C	#	bits
	0	0.013333	2.81164E-001	9.09095E-005	0.00000E+000	2.55605E-005	5.39641E-002	2.81209E-001	3.57280E+000	9	...........
	1	0.026667	3.00689E-001	9.10699E-005	0.00000E+000	2.73837E-005	5.39641E-002	3.00729E-001	3.57280E+000	9	...........
	2	0.04	3.18811E-001	9.08376E-005	0.00000E+000	2.89600E-005	5.39641E-002	3.18848E-001	3.57280E+000	9	...........
	3	0.053333	3.35749E-001	9.09449E-005	0.00000E+000	3.05347E-005	5.39641E-002	3.35789E-001	3.57280E+000	9	...........
	4	0.066667	3.51680E-001	9.10241E-005	0.00000E+000	3.20114E-005	5.39641E-002	3.51725E-001	3.57280E+000	9	...........
	5	0.08	3.66720E-001	9.11866E-005	0.00000E+000	3.34400E-005	5.39641E-002	3.66760E-001	3.57280E+000	9	...........
	6	0.093333	3.80974E-001	9.11543E-005	0.00000E+000	3.47274E-005	5.39641E-002	3.81020E-001	3.57280E+000	9	...........
	7	0.106667	3.94532E-001	9.11533E-005	0.00000E+000	3.59629E-005	5.39641E-002	3.94580E-001	3.57280E+000	9	...........
	8	0.12	4.07472E-001	9.07022E-005	0.00000E+000	3.69586E-005	5.39641E-002	4.07523E-001	3.57280E+000	9	...........
	9	0.133333	4.19820E-001	9.11137E-005	0.00000E+000	3.82514E-005	5.39641E-002	4.19884E-001	3.57280E+000	9	...........
	10	0.146667	4.31655E-001	9.12846E-005	0.00000E+000	3.94034E-005	5.39641E-002	4.31707E-001	3.57280E+000	9	...........
	11	0.16	4.43011E-001	9.09564E-005	0.00000E+000	4.02946E-005	5.39641E-002	4.43073E-001	3.57280E+000	9	...........
	12	0.173333	4.53945E-001	9.08241E-005	0.00000E+000	4.12291E-005	5.39641E-002	4.54004E-001	3.57280E+000	9	...........
	13	0.186667	4.64454E-001	9.09866E-005	0.00000E+000	4.22591E-005	5.39641E-002	4.64514E-001	3.57280E+000	9	...........
	14	0.2	4.74598E-001	9.08230E-005	0.00000E+000	4.31045E-005	5.39641E-002	4.74660E-001	3.57280E+000	9	...........
	15	0.213333	4.84401E-001	9.10512E-005	0.00000E+000	4.41053E-005	5.39641E-002	4.84460E-001	3.57280E+000	9	...........
	16	0.226667	4.93884E-001	9.09282E-005	0.00000E+000	4.49080E-005	5.39641E-002	4.93945E-001	3.57280E+000	9	...........
	17	0.24	5.03063E-001	9.10647E-005	0.00000E+000	4.58113E-005	5.39641E-002	5.03128E-001	3.57280E+000	9	...........
	18	0.253333	5.11962E-001	9.11022E-005	0.00000E+000	4.66409E-005	5.39641E-002	5.12027E-001	3.57280E+000	9	...........
	19	0.266667	5.20592E-001	9.11908E-005	0.00000E+000	4.74732E-005	5.39641E-002	5.20664E-001	3.57280E+000	9	...........
	20	0.28	5.28979E-001	9.08814E-005	0.00000E+000	4.80744E-005	5.39641E-002	5.29050E-001	3.57280E+000	9	...........
	21	0.293333	5.37035E-001	9.11085E-005	0.00000E+000	4.89284E-005	5.39641E-002	5.37146E-001	3.57280E+000	9	...........
	22	0.306667	5.44919E-001	9.12085E-005	0.00000E+000	4.97013E-005	5.39641E-002	5.45066E-001	3.57280E+000	9	...........
	23	0.32	5.52621E-001	9.10178E-005	0.00000E+000	5.02983E-005	5.39641E-002	5.52754E-001	3.57280E+000	9	...........
	24	0.333333	5.60098E-001	9.13033E-005	0.00000E+000	5.11388E-005	5.39641E-002	5.60255E-001	3.57280E+000	9	...........
	25	0.346667	5.67464E-001	9.10262E-005	0.00000E+000	5.16540E-005	5.39641E-002	5.67567E-001	3.57280E+000	9	...........
	26	0.36	5.74559E-001	9.11814E-005	0.00000E+000	5.23891E-005	5.39641E-002	5.74683E-001	3.57280E+000	9	...........
	27	0.373333	5.81511E-001	9.10324E-005	0.00000E+000	5.29364E-005	5.39641E-002	5.81648E-001	3.57280E+000	9	...........
	28	0.386667	5.88300E-001	9.10095E-005	0.00000E+000	5.35409E-005	5.39641E-002	5.88473E-001	3.57280E+000	9	...........
	29	0.4	5.94970E-001	9.09001E-005	0.00000E+000	5.40828E-005	5.39641E-002	5.95086E-001	3.57280E+000	9	...........
	30	0.413333	6.01445E-001	9.12835E-005	0.00000E+000	5.49020E-005	5.39641E-002	6.01581E-001	3.57280E+000	9	...........
	31	0.426667	6.07755E-001	9.10522E-005	0.00000E+000	5.53374E-005	5.39641E-002	6.07891E-001	3.57280E+000	9	...........
	32	0.44	6.13985E-001	9.09397E-005	0.00000E+000	5.58356E-005	5.39641E-002	6.14074E-001	3.57280E+000	9	...........
	33	0.453333	6.20076E-001	9.11002E-005	0.00000E+000	5.64890E-005	5.39641E-002	6.20119E-001	3.57280E+000	9	...........
	34	0.466667	6.25995E-001	9.09376E-005	0.00000E+000	5.69265E-005	5.39641E-002	6.26063E-001	3.57280E+000	9	...........
	35	0.48	6.31791E-001	9.11127E-005	0.00000E+000	5.75642E-005	5.39641E-002	6.31848E-001	3.57280E+000	9	...........
	36	0.493333	6.37493E-001	9.09981E-005	0.00000E+000	5.80106E-005	5.39641E-002	6.37557E-001	3.57280E+000	9	...........
	37	0.506667	6.43105E-001	9.11648E-005	0.00000E+000	5.86285E-005	5.39641E-002	6.43172E-001	3.57280E+000	9	...........
	38	0.52	6.48582E-001	9.08918E-005	0.00000E+000	5.89508E-005	5.39641E-002	6.48659E-001	3.57280E+000	9	...........
	39	0.533333	6.53962E-001	9.11773E-005	0.00000E+000	5.96264E-005	5.39641E-002	6.54060E-001	3.57280E+000	9	...........
	40	0.546667	6.59235E-001	9.08605E-005	0.00000E+000	5.98984E-005	5.39641E-002	6.59299E-001	3.57280E+000	9	...........
	41	0.56	6.64416E-001	9.11439E-005	0.00000E+000	6.05574E-005	5.39641E-002	6.64527E-001	3.57280E+000	9	...........
	42	0.573333	6.69553E-001	9.09803E-005	0.00000E+000	6.09161E-005	5.39641E-002	6.69629E-001	3.57280E+000	9	...........
	43	0.586667	6.74534E-001	9.08386E-005	0.00000E+000	6.12738E-005	5.39641E-002	6.74595E-001	3.57280E+000	9	...........
	44	0.6	6.79456E-001	9.10210E-005	0.00000E+000	6.18448E-005	5.39641E-002	6.79544E-001	3.57353E+000	9	...........
	45	0.613333	6.84301E-001	9.11845E-005	0.00000E+000	6.23976E-005	5.39641E-002	6.84358E-001	3.57570E+000	9	...........
	46	0.626667	6.89042E-001	9.10335E-005	0.00000E+000	6.27259E-005	5.39641E-002	6.89113E-001	3.57570E+000	9	...........
	47	0.64	6.93739E-001	9.09137E-005	0.00000E+000	6.30704E-005	5.39641E-002	6.93780E-001	3.57570E+000	9	...........
	48	0.653333	6.98306E-001	9.11564E-005	0.00000E+000	6.36551E-005	5.39641E-002	6.98394E-001	3.57570E+000	9	...........
	49	0.666667	7.02836E-001	9.07772E-005	0.00000E+000	6.38015E-005	5.39641E-002	7.02895E-001	3.57570E+000	9	...........
	50	0.68	7.07274E-001	9.11064E-005	0.00000E+000	6.44372E-005	5.39641E-002	7.07364E-001	3.57570E+000	9	...........
	51	0.693333	7.11652E-001	9.11533E-005	0.00000E+000	6.48694E-005	5.39641E-002	7.11746E-001	3.57570E+000	9	...........
	52	0.706667	7.15971E-001	9.12314E-005	0.00000E+000	6.53191E-005	5.39641E-002	7.16089E-001	3.57570E+000	9	...........
	53	0.72	7.20258E-001	9.11877E-005	0.00000E+000	6.56786E-005	5.39641E-002	7.20354E-001	3.57570E+000	9	...........
	54	0.733333	7.24442E-001	9.07303E-005	0.00000E+000	6.57288E-005	5.39641E-002	7.24514E-001	3.57570E+000	9	...........
	55	0.746667	7.28569E-001	9.12752E-005	0.00000E+000	6.65003E-005	5.39641E-002	7.28664E-001	3.57570E+000	9	...........
	56	0.76	7.32643E-001	9.12116E-005	0.00000E+000	6.68256E-005	5.39641E-002	7.32765E-001	3.57570E+000	9	...........
	57	0.773333	7.36691E-001	9.09626E-005	0.00000E+000	6.70114E-005	5.39641E-002	7.36794E-001	3.57570E+000	9	...........
	58	0.786667	7.40688E-001	9.10574E-005	0.00000E+000	6.74451E-005	5.39641E-002	7.40780E-001	3.57570E+000	9	...........
	59	0.8	7.44645E-001	9.12721E-005	0.00000E+000	6.79653E-005	5.39641E-002	7.44719E-001	3.57570E+000	9	...........
	60	0.813333	7.48472E-001	9.12825E-005	0.00000E+000	6.83224E-005	5.39641E-002	7.48571E-001	3.57570E+000	9	...........
	61	0.826667	7.52286E-001	9.10772E-005	0.00000E+000	6.85161E-005	5.39641E-002	7.52389E-001	3.57570E+000	9	...........
	62	0.84	7.56092E-001	9.10345E-005	0.00000E+000	6.88305E-005	5.39641E-002	7.56185E-001	3.57570E+000	9	...........
	63	0.853333	7.59813E-001	9.11720E-005	0.00000E+000	6.92737E-005	5.39641E-002	7.59897E-001	3.57570E+000	9	...........
	64	0.866667	7.63500E-001	9.10845E-005	0.00000E+000	6.95430E-005	5.39641E-002	7.63581E-001	3.57570E+000	9	...........
	65	0.88	7.67104E-001	9.09407E-005	0.00000E+000	6.97610E-005	5.39641E-002	7.67235E-001	3.57570E+000	9	...........
	66	0.893333	7.70719E-001	9.10189E-005	0.00000E+000	7.01500E-005	5.39641E-002	7.70835E-001	3.57570E+000	9	...........
	67	0.906667	7.74261E-001	9.08084E-005	0.00000E+000	7.03095E-005	5.39641E-002	7.74384E-001	3.57570E+000	9	...........
	68	0.92	7.77734E-001	9.07970E-005	0.00000E+000	7.06159E-005	5.39641E-002	7.77894E-001	3.57570E+000	9	...........
	69	0.933333	7.81218E-001	9.11127E-005	0.00000E+000	7.11788E-005	5.39641E-002	7.81369E-001	3.57570E+000	9	...........
	70	0.946667	7.84655E-001	9.10074E-005	0.00000E+000	7.14094E-005	5.39641E-002	7.84782E-001	3.57570E+000	9	...........
	71	0.96	7.88049E-001	9.11210E-005	0.00000E+000	7.18078E-005	5.39641E-002	7.88192E-001	3.57570E+000	9	...........
	72	0.97333	7.91388E-001	9.10637E-005	0.00000E+000	7.20667E-005	5.39641E-002	7.91544E-001	3.57570E+000	9	...........
	73	0.98667	7.94735E-001	9.08897E-005	0.00000E+000	7.22332E-005	5.39641E-002	7.94881E-001	3.57570E+000	9	...........
	74	1	7.97986E-001	9.08678E-005	0.00000E+000	7.25113E-005	5.39641E-002	7.98097E-001	3.57570E+000	9	...........
	75	1.01333	8.01211E-001	9.12564E-005	0.00000E+000	7.31157E-005	5.39641E-002	8.01342E-001	3.57570E+000	9	...........
	76	1.02667	8.04366E-001	9.08626E-005	0.00000E+000	7.30868E-005	5.39641E-002	8.04506E-001	3.57570E+000	9	...........
	77	1.04	8.07509E-001	9.08126E-005	0.00000E+000	7.33319E-005	5.39641E-002	8.07647E-001	3.57570E+000	9	...........
	78	1.05333	8.10629E-001	9.13596E-005	0.00000E+000	7.40587E-005	5.39641E-002	8.10755E-001	3.57570E+000	9	...........
	79	1.06667	8.13707E-001	9.10772E-005	0.00000E+000	7.41102E-005	5.39641E-002	8.13845E-001	3.57570E+000	9	...........
	80	1.08	8.16751E-001	9.11741E-005	0.00000E+000	7.44665E-005	5.39641E-002	8.16911E-001	3.57570E+000	9	...........
	81	1.09333	8.19808E-001	9.10637E-005	0.00000E+000	7.46548E-005	5.39641E-002	8.19945E-001	3.57570E+000	9	...........
	82	1.10667	8.22794E-001	9.11137E-005	0.00000E+000	7.49678E-005	5.39641E-002	8.22943E-001	3.57570E+000	9	...........
	83	1.12	8.25770E-001	9.10908E-005	0.00000E+000	7.52201E-005	5.39641E-002	8.25910E-001	3.57570E+000	9	...........
	84	1.13333	8.28673E-001	9.06449E-005	0.00000E+000	7.51149E-005	5.39641E-002	8.28795E-001	3.57570E+000	9	...........
	85	1.14667	8.31545E-001	9.11679E-005	0.00000E+000	7.58102E-005	5.39641E-002	8.31716E-001	3.57570E+000	9	...........
	86	1.16	8.34406E-001	9.10314E-005	0.00000E+000	7.59571E-005	5.39641E-002	8.34555E-001	3.57570E+000	9	...........
	87	1.17333	8.37201E-001	9.10428E-005	0.00000E+000	7.62212E-005	5.39641E-002	8.37380E-001	3.57570E+000	9	...........
	88	1.18667	8.39962E-001	9.11012E-005	0.00000E+000	7.65215E-005	5.39641E-002	8.40174E-001	3.57570E+000	9	...........
	89	1.2	8.42718E-001	9.12002E-005	0.00000E+000	7.68560E-005	5.39641E-002	8.42948E-001	3.57570E+000	9	...........
	90	1.21333	8.45519E-001	9.11158E-005	0.00000E+000	7.70401E-005	5.39641E-002	8.45712E-001	3.57570E+000	9	...........
	91	1.22667	8.48197E-001	9.10470E-005	0.00000E+000	7.72258E-005	5.39641E-002	8.48403E-001	3.57570E+000	9	...........
	92	1.24	8.50875E-001	9.10022E-005	0.00000E+000	7.74315E-005	5.39641E-002	8.51079E-001	3.57570E+000	9	...........
	93	1.25333	8.53526E-001	9.08491E-005	0.00000E+000	7.75420E-005	5.39641E-002	8.53718E-001	3.57570E+000	9	...........
	94	1.26667	8.56148E-001	9.08793E-005	0.00000E+000	7.78061E-005	5.39641E-002	8.56338E-001	3.57570E+000	9	...........
	95	1.28	8.58744E-001	9.11314E-005	0.00000E+000	7.82585E-005	5.39641E-002	8.58956E-001	3.57570E+000	9	...........
	96	1.29333	8.61359E-001	9.11616E-005	0.00000E+000	7.85228E-005	5.39641E-002	8.61541E-001	3.57570E+000	9	...........
	97	1.30667	8.63877E-001	9.11147E-005	0.00000E+000	7.87119E-005	5.39641E-002	8.64057E-001	3.57570E+000	9	...........
	98	1.32	8.66394E-001	9.08168E-005	0.00000E+000	7.86831E-005	5.39641E-002	8.66628E-001	3.57570E+000	9	...........
	99	1.33333	8.68916E-001	9.09897E-005	0.00000E+000	7.90624E-005	5.39641E-002	8.69148E-001	3.57570E+000	9	...........
	100	1.34667	8.71410E-001	9.06688E-005	0.00000E+000	7.90097E-005	5.39641E-002	8.71616E-001	3.57570E+000	9	...........
	101	1.36	8.73869E-001	9.07990E-005	0.00000E+000	7.93465E-005	5.39641E-002	8.74077E-001	3.57570E+000	9	...........
	102	1.37333	8.76304E-001	9.10293E-005	0.00000E+000	7.97693E-005	5.39641E-002	8.76502E-001	3.57570E+000	9	...........
	103	1.38667	8.78684E-001	9.09512E-005	0.00000E+000	7.99173E-005	5.39641E-002	8.78892E-001	3.57570E+000	9	...........
	104	1.4	8.81096E-001	9.12064E-005	0.00000E+000	8.03616E-005	5.39641E-002	8.81294E-001	3.57570E+000	9	...........
	105	1.41333	8.83469E-001	9.10418E-005	0.00000E+000	8.04326E-005	5.39641E-002	8.83657E-001	3.57570E+000	9	...........
	106	1.42667	8.85788E-001	9.11585E-005	0.00000E+000	8.07471E-005	5.39641E-002	8.85989E-001	3.57570E+000	9	...........
	107	1.44	8.88097E-001	9.10595E-005	0.00000E+000	8.08697E-005	5.39641E-002	8.88287E-001	3.57570E+000	9	...........
	108	1.45333	8.90361E-001	9.10053E-005	0.00000E+000	8.10276E-005	5.39641E-002	8.90535E-001	3.57570E+000	9	...........
	109	1.46667	8.92600E-001	9.09783E-005	0.00000E+000	8.12072E-005	5.39641E-002	8.92798E-001	3.57570E+000	9	...........
	110	1.48	8.94838E-001	9.10845E-005	0.00000E+000	8.15059E-005	5.39641E-002	8.95054E-001	3.57570E+000	9	...........
	111	1.49333	8.97054E-001	9.07470E-005	0.00000E+000	8.14049E-005	5.39641E-002	8.97249E-001	3.57570E+000	9	...........
	112	1.50667	8.99238E-001	9.10345E-005	0.00000E+000	8.18616E-005	5.39641E-002	8.99413E-001	3.57570E+000	9	...........
	113	1.52	9.01408E-001	9.11481E-005	0.00000E+000	8.21616E-005	5.39641E-002	9.01602E-001	3.57570E+000	9	...........
	114	1.53333	9.03563E-001	9.09980E-005	0.00000E+000	8.22225E-005	5.39641E-002	9.03745E-001	3.57570E+000	9	...........
	115	1.54667	9.05709E-001	9.13096E-005	0.00000E+000	8.26999E-005	5.39641E-002	9.05889E-001	3.57570E+000	9	...........
	116	1.56	9.07817E-001	9.11929E-005	0.00000E+000	8.27864E-005	5.39641E-002	9.08028E-001	3.57570E+000	9	...........
	117	1.57333	9.09921E-001	9.14346E-005	0.00000E+000	8.31983E-005	5.39641E-002	9.10093E-001	3.57570E+000	9	...........
	118	1.58667	9.12002E-001	9.08949E-005	0.00000E+000	8.28964E-005	5.39641E-002	9.12174E-001	3.57570E+000	9	...........
	119	1.6	9.14029E-001	9.12554E-005	0.00000E+000	8.34101E-005	5.39641E-002	9.14243E-001	3.57485E+000	9	...........
	120	1.61333	9.16037E-001	9.12377E-005	0.00000E+000	8.35771E-005	5.39641E-002	9.16265E-001	3.57230E+000	9	...........
	121	1.62667	9.18027E-001	9.08584E-005	0.00000E+000	8.34105E-005	5.39641E-002	9.18247E-001	3.57230E+000	9	...........
	122	1.64	9.19980E-001	9.11845E-005	0.00000E+000	8.38880E-005	5.39641E-002	9.20194E-001	3.57230E+000	9	...........
	123	1.65333	9.22003E-001	9.10710E-005	0.00000E+000	8.39678E-005	5.39641E-002	9.22143E-001	3.57230E+000	9	...........
	124	1.66667	9.23912E-001	9.11741E-005	0.00000E+000	8.42368E-005	5.39641E-002	9.24089E-001	3.57230E+000	9	...........
	125	1.68	9.25812E-001	9.10272E-005	0.00000E+000	8.42741E-005	5.39641E-002	9.25979E-001	3.57230E+000	9	...........
	126	1.69333	9.27713E-001	9.10366E-005	0.00000E+000	8.44558E-005	5.39641E-002	9.27887E-001	3.57230E+000	9	...........
	127	1.70667	9.29576E-001	9.11814E-005	0.00000E+000	8.47601E-005	5.39641E-002	9.29745E-001	3.57230E+000	9	...........
	128	1.72	9.31426E-001	9.11491E-005	0.00000E+000	8.48986E-005	5.39641E-002	9.31599E-001	3.57230E+000	9	...........
	129	1.73333	9.33254E-001	9.09564E-005	0.00000E+000	8.48854E-005	5.39641E-002	9.33443E-001	3.57230E+000	9	...........
	130	1.74667	9.35085E-001	9.11252E-005	0.00000E+000	8.52097E-005	5.39641E-002	9.35274E-001	3.57230E+000	9	...........
	131	1.76	9.36898E-001	9.10689E-005	0.00000E+000	8.53222E-005	5.39641E-002	9.37085E-001	3.57230E+000	9	...........
	132	1.77333	9.38677E-001	9.11074E-005	0.00000E+000	8.55205E-005	5.39641E-002	9.38865E-001	3.57230E+000	9	...........
	133	1.78667	9.40443E-001	9.11064E-005	0.00000E+000	8.56804E-005	5.39641E-002	9.40615E-001	3.57230E+000	9	...........
	134	1.8	9.42203E-001	9.10814E-005	0.00000E+000	8.58172E-005	5.39641E-002	9.42365E-001	3.57230E+000	9	...........
	135	1.81333	9.43935E-001	9.12064E-005	0.00000E+000	8.60930E-005	5.39641E-002	9.44105E-001	3.57230E+000	9	...........
	136	1.82667	9.45655E-001	9.10731E-005	0.00000E+000	8.61237E-005	5.39641E-002	9.45831E-001	3.57230E+000	9	...........
	137	1.84	9.47408E-001	9.10918E-005	0.00000E+000	8.63011E-005	5.39641E-002	9.47578E-001	3.57230E+000	9	...........
	138	1.85333	9.49085E-001	9.09418E-005	0.00000E+000	8.63115E-005	5.39641E-002	9.49249E-001	3.57230E+000	9	...........
	139	1.86667	9.50737E-001	9.08887E-005	0.00000E+000	8.64112E-005	5.39641E-002	9.50899E-001	3.57230E+000	9	...........
	140	1.88	9.52393E-001	9.10178E-005	0.00000E+000	8.66848E-005	5.39641E-002	9.52569E-001	3.57230E+000	9	...........
	141	1.89333	9.54037E-001	9.10408E-005	0.00000E+000	8.68562E-005	5.39641E-002	9.54190E-001	3.57230E+000	9	...........
	142	1.90667	9.55633E-001	9.09637E-005	0.00000E+000	8.69279E-005	5.39641E-002	9.55810E-001	3.57230E+000	9	...........
	143	1.92	9.57234E-001	9.11793E-005	0.00000E+000	8.72800E-005	5.39641E-002	9.57411E-001	3.57230E+000	9	...........
	144	1.93333	9.58821E-001	9.10512E-005	0.00000E+000	8.73018E-005	5.39641E-002	9.59000E-001	3.57230E+000	9	...........
	145	1.94667	9.60365E-001	9.09928E-005	0.00000E+000	8.73864E-005	5.39641E-002	9.60575E-001	3.57230E+000	9	...........
	146	1.96	9.61942E-001	9.12283E-005	0.00000E+000	8.77563E-005	5.39641E-002	9.62130E-001	3.57230E+000	9	...........
	147	1.97333	9.63454E-001	9.08553E-005	0.00000E+000	8.75349E-005	5.39641E-002	9.63668E-001	3.57230E+000	9	...........
	148	1.98667	9.64972E-001	9.10866E-005	0.00000E+000	8.78960E-005	5.39641E-002	9.65179E-001	3.57230E+000	9	...........
	149	2	9.66492E-001	9.12221E-005	0.00000E+000	8.81654E-005	5.39641E-002	9.66691E-001	3.57230E+000	9	...........
	150	2.01333	9.67985E-001	9.12241E-005	0.00000E+000	8.83036E-005	5.39641E-002	9.68170E-001	3.57230E+000	9	...........
	151	2.02667	9.69451E-001	9.10752E-005	0.00000E+000	8.82929E-005	5.39641E-002	9.69664E-001	3.57230E+000	9	...........
	152	2.04	9.70918E-001	9.11981E-005	0.00000E+000	8.85458E-005	5.39641E-002	9.71139E-001	3.57230E+000	9	...........
	153	2.05333	9.72408E-001	9.11345E-005	0.00000E+000	8.86200E-005	5.39641E-002	9.72624E-001	3.57230E+000	9	...........
	154	2.06667	9.73885E-001	9.11179E-005	0.00000E+000	8.87383E-005	5.39641E-002	9.74043E-001	3.57230E+000	9	...........
	155	2.08	9.75274E-001	9.11283E-005	0.00000E+000	8.88751E-005	5.39641E-002	9.75468E-001	3.57230E+000	9	...........
	156	2.09333	9.76674E-001	9.08626E-005	0.00000E+000	8.87431E-005	5.39641E-002	9.76873E-001	3.57230E+000	9	...........
	157	2.10667	9.78049E-001	9.10095E-005	0.00000E+000	8.90118E-005	5.39641E-002	9.78246E-001	3.57230E+000	9	...........
	158	2.12	9.79430E-001	9.09460E-005	0.00000E+000	8.90752E-005	5.39641E-002	9.79590E-001	3.57230E+000	9	...........
	159	2.13333	9.80778E-001	9.12825E-005	0.00000E+000	8.95278E-005	5.39641E-002	9.80946E-001	3.57230E+000	9	...........
	160	2.14667	9.82146E-001	9.08709E-005	0.00000E+000	8.92485E-005	5.39641E-002	9.82316E-001	3.57230E+000	9	...........
	161	2.16	9.83465E-001	9.10949E-005	0.00000E+000	8.95887E-005	5.39641E-002	9.83640E-001	3.57230E+000	9	...........
	162	2.17333	9.84790E-001	9.11387E-005	0.00000E+000	8.97525E-005	5.39641E-002	9.84965E-001	3.57230E+000	9	...........
	163	2.18667	9.86108E-001	9.10908E-005	0.00000E+000	8.98254E-005	5.39641E-002	9.86290E-001	3.57230E+000	9	...........
	164	2.2	9.87400E-001	9.10022E-005	0.00000E+000	8.98556E-005	5.39641E-002	9.87610E-001	3.57230E+000	9	...........
	165	2.21333	9.88716E-001	9.12325E-005	0.00000E+000	9.02030E-005	5.39641E-002	9.88906E-001	3.57230E+000	9	...........
	166	2.22667	9.90001E-001	9.11887E-005	0.00000E+000	9.02769E-005	5.39641E-002	9.90192E-001	3.57230E+000	9	...........
	167	2.24	9.91228E-001	9.09105E-005	0.00000E+000	9.01130E-005	5.39641E-002	9.91462E-001	3.57230E+000	9	...........
	168	2.25333	9.92496E-001	9.10783E-005	0.00000E+000	9.03948E-005	5.39641E-002	9.92702E-001	3.57230E+000	9	...........
	169	2.26667	9.93704E-001	9.13710E-005	0.00000E+000	9.07957E-005	5.39641E-002	9.93942E-001	3.57230E+000	9	...........
	170	2.28	9.94934E-001	9.09918E-005	0.00000E+000	9.05309E-005	5.39641E-002	9.95167E-001	3.57230E+000	9	...........
	171	2.29333	9.96171E-001	9.09960E-005	0.00000E+000	9.06475E-005	5.39641E-002	9.96384E-001	3.57230E+000	9	...........
	172	2.30667	9.97404E-001	9.09855E-005	0.00000E+000	9.07493E-005	5.39641E-002	9.97641E-001	3.57230E+000	9	...........
	173	2.32	9.98629E-001	9.11293E-005	0.00000E+000	9.10044E-005	5.39641E-002	9.98827E-001	3.57230E+000	9	...........
	174	2.33167	9.99706E-001	9.12020E-005	0.00000E+000	9.11751E-005	5.39641E-002	9.99925E-001	3.57230E+000	9	...........
STARTTIMEOFFSET	QUANT	1495.209	Start Time Offset (s)
