EXPLAIN
TAG	PWR800_CHARGE
TITLE	LABEL	PWR Cyclic Charge Discharge (Cell) - Charge Step	Test &Identifier
DATE	LABEL	10-7-2017	Date
TIME	LABEL	15:30:45	Time
NOTES	NOTES	3	&Notes...
	supercap test cell
	0.9mg
	6M KOH
PSTAT	PSTAT	IFC5000-01520	Potentiostat
CAPACITY	QUANT	1.00000E-003	Capacity (A-hr)
CELLTYPE	SELECTOR	1	&Cell Type
WORKINGCONNECTION	SELECTOR	0	&Working Lead
MAXCHARGETIME	VARIABLEANDUNITS	1.00000E+002	s	1.00000E+002	second(s)	Max &Charge Time
CHARGECURRENT	QUANT	9.00000E-005	&Charge Current (A) 
VOLTAGEFINISH	TWOPARAM	F	1.00000E-003	3.60000E+003	&Voltage Finish	 I (A) < 	Max Time(s)
SAMPLETIME	QUANT	1.00000E-002	Sa&mple Period (s)
CHARGESTOPAT1	MULTIPARAM	4	1.00000E+000	Charge Stop At &1	Voltage > Limit	V
CHARGESTOPAT2	MULTIPARAM	0	0.00000E+000	Charge Stop At &2	None	N/A
AESBHCSELECTOR	TOGGLE	F	Save Both Half Cells
IRCOMP	TOGGLE	F	IR &Measure
EOC	QUANT	0	Open Circuit (V)
SEQUENCER	TOGGLE	TRUE	Run as Sequence
PSTATMODEL	IQUANT	53	Pstat Model
PSTATSECTION	LABEL	IFC5000-01520	Pstat Section
PSTATSERIALNO	LABEL	01520	Pstat Serial Number
CTRLMODE	IQUANT	0	Control Mode
ELECTROMETER	IQUANT	1	RE=0 or CS=1
IESTAB	IQUANT	0	I/E Stability
CASPEED	IQUANT	4	Control Amp Speed
CONVENTION	IQUANT	1	Current Convention
ICHRANGE	IQUANT	2	Ich Range
ICHRANGEMODE	TOGGLE	T	Ich Auto Range
ICHOFFSETENABLE	TOGGLE	F	Ich Offset Enable
ICHOFFSET	QUANT	0	Ich Offset (V)
ICHFILTER	IQUANT	1	Ich Filter
VCHRANGE	IQUANT	2	Vch Range
VCHRANGEMODE	TOGGLE	T	Vch Auto Range
VCHOFFSETENABLE	TOGGLE	F	Vch Offset Enable
VCHOFFSET	QUANT	0	Vch Offset (V)
VCHFILTER	IQUANT	1	Vch Filter
IERANGELOWERLIMIT	IQUANT	9	I/E Range Lower Limit
IERANGEMODE	TOGGLE	F	I/E AutoRange
IERANGE	IQUANT	9	I/E Range
ACHSELECT	IQUANT	1	Ach Select
ACHRANGE	IQUANT	2	Ach Range
ACHOFFSETENABLE	TOGGLE	F	Ach Offset Enable
ACHOFFSET	QUANT	0	Ach Offset (V)
ACHFILTER	IQUANT	1	Ach Filter
CABLEID	IQUANT	14	Cable ID
DCCALDATE	LABEL	5-7-2017	DC Calibration Date
ACCALDATE	LABEL	12/3/2015	AC Calibration Date
FRAMEWORKVERSION	QUANT	7.01	Framework Version
INSTRUMENTVERSION	LABEL	4.00	Instrument Version
CURVE	TABLE	173
	Pt	T	Vf	Im	Vu	Pwr	Sig	Ach	Temp	IERange	Over
	#	s	V	A	V	W	V	V	deg C	#	bits
	0	0.013333	2.79919E-001	9.09230E-005	0.00000E+000	2.54511E-005	5.39641E-002	2.79975E-001	3.57270E+000	9	...........
	1	0.026667	2.99496E-001	9.07022E-005	0.00000E+000	2.71649E-005	5.39641E-002	2.99533E-001	3.57270E+000	9	...........
	2	0.04	3.17656E-001	9.09699E-005	0.00000E+000	2.88971E-005	5.39641E-002	3.17700E-001	3.57270E+000	9	...........
	3	0.053333	3.34650E-001	9.10408E-005	0.00000E+000	3.04668E-005	5.39641E-002	3.34690E-001	3.57270E+000	9	...........
	4	0.066667	3.50638E-001	9.09303E-005	0.00000E+000	3.18836E-005	5.39641E-002	3.50680E-001	3.57270E+000	9	...........
	5	0.08	3.65732E-001	9.10574E-005	0.00000E+000	3.33026E-005	5.39641E-002	3.65774E-001	3.57270E+000	9	...........
	6	0.093333	3.80044E-001	9.09887E-005	0.00000E+000	3.45797E-005	5.39641E-002	3.80083E-001	3.57270E+000	9	...........
	7	0.106667	3.93659E-001	9.11856E-005	0.00000E+000	3.58960E-005	5.39641E-002	3.93701E-001	3.57270E+000	9	...........
	8	0.12	4.06647E-001	9.10689E-005	0.00000E+000	3.70329E-005	5.39641E-002	4.06694E-001	3.57270E+000	9	...........
	9	0.133333	4.19064E-001	9.10679E-005	0.00000E+000	3.81633E-005	5.39641E-002	4.19116E-001	3.57270E+000	9	...........
	10	0.146667	4.30975E-001	9.08605E-005	0.00000E+000	3.91586E-005	5.39641E-002	4.31026E-001	3.57270E+000	9	...........
	11	0.16	4.42388E-001	9.10856E-005	0.00000E+000	4.02952E-005	5.39641E-002	4.42441E-001	3.57270E+000	9	...........
	12	0.173333	4.53362E-001	9.10637E-005	0.00000E+000	4.12848E-005	5.39641E-002	4.53416E-001	3.57270E+000	9	...........
	13	0.186667	4.63934E-001	9.10460E-005	0.00000E+000	4.22393E-005	5.39641E-002	4.63987E-001	3.57270E+000	9	...........
	14	0.2	4.74119E-001	9.09157E-005	0.00000E+000	4.31049E-005	5.39641E-002	4.74174E-001	3.57270E+000	9	...........
	15	0.213333	4.83965E-001	9.10877E-005	0.00000E+000	4.40832E-005	5.39641E-002	4.84018E-001	3.57270E+000	9	...........
	16	0.226667	4.93494E-001	9.08782E-005	0.00000E+000	4.48478E-005	5.39641E-002	4.93555E-001	3.57270E+000	9	...........
	17	0.24	5.02726E-001	9.10116E-005	0.00000E+000	4.57539E-005	5.39641E-002	5.02786E-001	3.57270E+000	9	...........
	18	0.253333	5.11665E-001	9.11210E-005	0.00000E+000	4.66234E-005	5.39641E-002	5.11729E-001	3.57270E+000	9	...........
	19	0.266667	5.20328E-001	9.10408E-005	0.00000E+000	4.73711E-005	5.39641E-002	5.20395E-001	3.57270E+000	9	...........
	20	0.28	5.28747E-001	9.09095E-005	0.00000E+000	4.80681E-005	5.39641E-002	5.28816E-001	3.57270E+000	9	...........
	21	0.293333	5.36855E-001	9.10022E-005	0.00000E+000	4.88550E-005	5.39641E-002	5.36962E-001	3.57270E+000	9	...........
	22	0.306667	5.44802E-001	9.11085E-005	0.00000E+000	4.96360E-005	5.39641E-002	5.44936E-001	3.57270E+000	9	...........
	23	0.32	5.52544E-001	9.10022E-005	0.00000E+000	5.02828E-005	5.39641E-002	5.52670E-001	3.57270E+000	9	...........
	24	0.333333	5.60091E-001	9.09043E-005	0.00000E+000	5.09147E-005	5.39641E-002	5.60220E-001	3.57270E+000	9	...........
	25	0.346667	5.67470E-001	9.10772E-005	0.00000E+000	5.16836E-005	5.39641E-002	5.67584E-001	3.57270E+000	9	...........
	26	0.36	5.74606E-001	9.11814E-005	0.00000E+000	5.23934E-005	5.39641E-002	5.74735E-001	3.57270E+000	9	...........
	27	0.373333	5.81566E-001	9.11866E-005	0.00000E+000	5.30311E-005	5.39641E-002	5.81695E-001	3.57270E+000	9	...........
	28	0.386667	5.88414E-001	9.10752E-005	0.00000E+000	5.35899E-005	5.39641E-002	5.88523E-001	3.57270E+000	9	...........
	29	0.4	5.95095E-001	9.10991E-005	0.00000E+000	5.42126E-005	5.39641E-002	5.95206E-001	3.57270E+000	9	...........
	30	0.413333	6.01590E-001	9.12648E-005	0.00000E+000	5.49040E-005	5.39641E-002	6.01712E-001	3.57270E+000	9	...........
	31	0.426667	6.07936E-001	9.08793E-005	0.00000E+000	5.52488E-005	5.39641E-002	6.08070E-001	3.57270E+000	9	...........
	32	0.44	6.14210E-001	9.07834E-005	0.00000E+000	5.57601E-005	5.39641E-002	6.14334E-001	3.57270E+000	9	...........
	33	0.453333	6.20314E-001	9.10303E-005	0.00000E+000	5.64674E-005	5.39641E-002	6.20422E-001	3.57270E+000	9	...........
	34	0.466667	6.26267E-001	9.10335E-005	0.00000E+000	5.70112E-005	5.39641E-002	6.26396E-001	3.57270E+000	9	...........
	35	0.48	6.32096E-001	9.12179E-005	0.00000E+000	5.76585E-005	5.39641E-002	6.32222E-001	3.57270E+000	9	...........
	36	0.493333	6.37808E-001	9.11241E-005	0.00000E+000	5.81197E-005	5.39641E-002	6.37943E-001	3.57270E+000	9	...........
	37	0.506667	6.43456E-001	9.09428E-005	0.00000E+000	5.85177E-005	5.39641E-002	6.43579E-001	3.57270E+000	9	...........
	38	0.52	6.48952E-001	9.10533E-005	0.00000E+000	5.90892E-005	5.39641E-002	6.49066E-001	3.57270E+000	9	...........
	39	0.533333	6.54386E-001	9.08251E-005	0.00000E+000	5.94347E-005	5.39641E-002	6.54486E-001	3.57270E+000	9	...........
	40	0.546667	6.59673E-001	9.10481E-005	0.00000E+000	6.00619E-005	5.39641E-002	6.59787E-001	3.57270E+000	9	...........
	41	0.56	6.64913E-001	9.10001E-005	0.00000E+000	6.05072E-005	5.39641E-002	6.65055E-001	3.57290E+000	9	...........
	42	0.573333	6.70058E-001	9.09449E-005	0.00000E+000	6.09384E-005	5.39641E-002	6.70168E-001	3.57350E+000	9	...........
	43	0.586667	6.75072E-001	9.09168E-005	0.00000E+000	6.13754E-005	5.39641E-002	6.75213E-001	3.57350E+000	9	...........
	44	0.6	6.80010E-001	9.11095E-005	0.00000E+000	6.19554E-005	5.39641E-002	6.80165E-001	3.57350E+000	9	...........
	45	0.613333	6.84867E-001	9.11304E-005	0.00000E+000	6.24122E-005	5.39641E-002	6.84984E-001	3.57350E+000	9	...........
	46	0.626667	6.89664E-001	9.10658E-005	0.00000E+000	6.28048E-005	5.39641E-002	6.89777E-001	3.57350E+000	9	...........
	47	0.64	6.94377E-001	9.10814E-005	0.00000E+000	6.32448E-005	5.39641E-002	6.94472E-001	3.57350E+000	9	...........
	48	0.653333	6.99014E-001	9.09678E-005	0.00000E+000	6.35877E-005	5.39641E-002	6.99103E-001	3.57350E+000	9	...........
	49	0.666667	7.03599E-001	9.12575E-005	0.00000E+000	6.42087E-005	5.39641E-002	7.03689E-001	3.57350E+000	9	...........
	50	0.68	7.08091E-001	9.08553E-005	0.00000E+000	6.43338E-005	5.39641E-002	7.08203E-001	3.57350E+000	9	...........
	51	0.693333	7.12486E-001	9.10522E-005	0.00000E+000	6.48734E-005	5.39641E-002	7.12609E-001	3.57350E+000	9	...........
	52	0.706667	7.16863E-001	9.10314E-005	0.00000E+000	6.52570E-005	5.39641E-002	7.16990E-001	3.57350E+000	9	...........
	53	0.72	7.21154E-001	9.12835E-005	0.00000E+000	6.58295E-005	5.39641E-002	7.21283E-001	3.57350E+000	9	...........
	54	0.733333	7.25385E-001	9.09512E-005	0.00000E+000	6.59746E-005	5.39641E-002	7.25515E-001	3.57350E+000	9	...........
	55	0.746667	7.29544E-001	9.10408E-005	0.00000E+000	6.64182E-005	5.39641E-002	7.29690E-001	3.57350E+000	9	...........
	56	0.76	7.33630E-001	9.10199E-005	0.00000E+000	6.67750E-005	5.39641E-002	7.33794E-001	3.57350E+000	9	...........
	57	0.773333	7.37687E-001	9.08355E-005	0.00000E+000	6.70081E-005	5.39641E-002	7.37838E-001	3.57350E+000	9	...........
	58	0.786667	7.41718E-001	9.11325E-005	0.00000E+000	6.75946E-005	5.39641E-002	7.41859E-001	3.57350E+000	9	...........
	59	0.8	7.45697E-001	9.09908E-005	0.00000E+000	6.78515E-005	5.39641E-002	7.45828E-001	3.57350E+000	9	...........
	60	0.813333	7.49611E-001	9.09793E-005	0.00000E+000	6.81991E-005	5.39641E-002	7.49754E-001	3.57350E+000	9	...........
	61	0.826667	7.53451E-001	9.11085E-005	0.00000E+000	6.86458E-005	5.39641E-002	7.53606E-001	3.57350E+000	9	...........
	62	0.84	7.57269E-001	9.10116E-005	0.00000E+000	6.89202E-005	5.39641E-002	7.57415E-001	3.57350E+000	9	...........
	63	0.853333	7.61024E-001	9.10522E-005	0.00000E+000	6.92929E-005	5.39641E-002	7.61160E-001	3.57350E+000	9	...........
	64	0.866667	7.64728E-001	9.11450E-005	0.00000E+000	6.97011E-005	5.39641E-002	7.64876E-001	3.57350E+000	9	...........
	65	0.88	7.68412E-001	9.12346E-005	0.00000E+000	7.01057E-005	5.39641E-002	7.68567E-001	3.57350E+000	9	...........
	66	0.893333	7.72048E-001	9.11387E-005	0.00000E+000	7.03635E-005	5.39641E-002	7.72195E-001	3.57350E+000	9	...........
	67	0.906667	7.75636E-001	9.10085E-005	0.00000E+000	7.05894E-005	5.39641E-002	7.75734E-001	3.57350E+000	9	...........
	68	0.92	7.79151E-001	9.12491E-005	0.00000E+000	7.10968E-005	5.39641E-002	7.79299E-001	3.57350E+000	9	...........
	69	0.933333	7.82646E-001	9.13096E-005	0.00000E+000	7.14630E-005	5.39641E-002	7.82796E-001	3.57350E+000	9	...........
	70	0.946667	7.86088E-001	9.08230E-005	0.00000E+000	7.13949E-005	5.39641E-002	7.86205E-001	3.57350E+000	9	...........
	71	0.96	7.89461E-001	9.10887E-005	0.00000E+000	7.19109E-005	5.39641E-002	7.89599E-001	3.57350E+000	9	...........
	72	0.97333	7.92831E-001	9.13252E-005	0.00000E+000	7.24054E-005	5.39641E-002	7.92990E-001	3.57350E+000	9	...........
	73	0.98667	7.96203E-001	9.11585E-005	0.00000E+000	7.25807E-005	5.39641E-002	7.96328E-001	3.57350E+000	9	...........
	74	1	7.99479E-001	9.10731E-005	0.00000E+000	7.28110E-005	5.39641E-002	7.99591E-001	3.57350E+000	9	...........
	75	1.01333	8.02744E-001	9.11627E-005	0.00000E+000	7.31803E-005	5.39641E-002	8.02860E-001	3.57350E+000	9	...........
	76	1.02667	8.05986E-001	9.11981E-005	0.00000E+000	7.35043E-005	5.39641E-002	8.06113E-001	3.57350E+000	9	...........
	77	1.04	8.09159E-001	9.11741E-005	0.00000E+000	7.37744E-005	5.39641E-002	8.09282E-001	3.57350E+000	9	...........
	78	1.05333	8.12285E-001	9.09814E-005	0.00000E+000	7.39028E-005	5.39641E-002	8.12408E-001	3.57350E+000	9	...........
	79	1.06667	8.15383E-001	9.09064E-005	0.00000E+000	7.41235E-005	5.39641E-002	8.15550E-001	3.57350E+000	9	...........
	80	1.08	8.18476E-001	9.11929E-005	0.00000E+000	7.46392E-005	5.39641E-002	8.18623E-001	3.57350E+000	9	...........
	81	1.09333	8.21504E-001	9.11731E-005	0.00000E+000	7.48990E-005	5.39641E-002	8.21665E-001	3.57350E+000	9	...........
	82	1.10667	8.24504E-001	9.11293E-005	0.00000E+000	7.51365E-005	5.39641E-002	8.24655E-001	3.57350E+000	9	...........
	83	1.12	8.27492E-001	9.10220E-005	0.00000E+000	7.53200E-005	5.39641E-002	8.27607E-001	3.57350E+000	9	...........
	84	1.13333	8.30446E-001	9.11095E-005	0.00000E+000	7.56615E-005	5.39641E-002	8.30566E-001	3.57350E+000	9	...........
	85	1.14667	8.33334E-001	9.09470E-005	0.00000E+000	7.57893E-005	5.39641E-002	8.33467E-001	3.57350E+000	9	...........
	86	1.16	8.36208E-001	9.12814E-005	0.00000E+000	7.63303E-005	5.39641E-002	8.36356E-001	3.57350E+000	9	...........
	87	1.17333	8.39040E-001	9.10783E-005	0.00000E+000	7.64183E-005	5.39641E-002	8.39185E-001	3.57350E+000	9	...........
	88	1.18667	8.41823E-001	9.08241E-005	0.00000E+000	7.64577E-005	5.39641E-002	8.42003E-001	3.57350E+000	9	...........
	89	1.2	8.44655E-001	9.08928E-005	0.00000E+000	7.67731E-005	5.39641E-002	8.44806E-001	3.57350E+000	9	...........
	90	1.21333	8.47407E-001	9.12721E-005	0.00000E+000	7.73446E-005	5.39641E-002	8.47582E-001	3.57350E+000	9	...........
	91	1.22667	8.50124E-001	9.08543E-005	0.00000E+000	7.72374E-005	5.39641E-002	8.50293E-001	3.57350E+000	9	...........
	92	1.24	8.52803E-001	9.07324E-005	0.00000E+000	7.73768E-005	5.39641E-002	8.52963E-001	3.57350E+000	9	...........
	93	1.25333	8.55474E-001	9.09491E-005	0.00000E+000	7.78046E-005	5.39641E-002	8.55643E-001	3.57350E+000	9	...........
	94	1.26667	8.58126E-001	9.10053E-005	0.00000E+000	7.80941E-005	5.39641E-002	8.58314E-001	3.57350E+000	9	...........
	95	1.28	8.60757E-001	9.10720E-005	0.00000E+000	7.83909E-005	5.39641E-002	8.60974E-001	3.57350E+000	9	...........
	96	1.29333	8.63356E-001	9.10251E-005	0.00000E+000	7.85871E-005	5.39641E-002	8.63533E-001	3.57350E+000	9	...........
	97	1.30667	8.65891E-001	9.10106E-005	0.00000E+000	7.88053E-005	5.39641E-002	8.66088E-001	3.57350E+000	9	...........
	98	1.32	8.68449E-001	9.12356E-005	0.00000E+000	7.92334E-005	5.39641E-002	8.68654E-001	3.57350E+000	9	...........
	99	1.33333	8.71006E-001	9.10345E-005	0.00000E+000	7.92916E-005	5.39641E-002	8.71172E-001	3.57350E+000	9	...........
	100	1.34667	8.73499E-001	9.09064E-005	0.00000E+000	7.94066E-005	5.39641E-002	8.73672E-001	3.57350E+000	9	...........
	101	1.36	8.75941E-001	9.11002E-005	0.00000E+000	7.97984E-005	5.39641E-002	8.76133E-001	3.57350E+000	9	...........
	102	1.37333	8.78394E-001	9.12950E-005	0.00000E+000	8.01929E-005	5.39641E-002	8.78577E-001	3.57350E+000	9	...........
	103	1.38667	8.80811E-001	9.10679E-005	0.00000E+000	8.02135E-005	5.39641E-002	8.80999E-001	3.57350E+000	9	...........
	104	1.4	8.83205E-001	9.10324E-005	0.00000E+000	8.04003E-005	5.39641E-002	8.83368E-001	3.57350E+000	9	...........
	105	1.41333	8.85583E-001	9.09970E-005	0.00000E+000	8.05854E-005	5.39641E-002	8.85737E-001	3.57350E+000	9	...........
	106	1.42667	8.87903E-001	9.10397E-005	0.00000E+000	8.08345E-005	5.39641E-002	8.88079E-001	3.57350E+000	9	...........
	107	1.44	8.90210E-001	9.09960E-005	0.00000E+000	8.10056E-005	5.39641E-002	8.90374E-001	3.57350E+000	9	...........
	108	1.45333	8.92501E-001	9.09407E-005	0.00000E+000	8.11647E-005	5.39641E-002	8.92658E-001	3.57350E+000	9	...........
	109	1.46667	8.94770E-001	9.09022E-005	0.00000E+000	8.13365E-005	5.39641E-002	8.94964E-001	3.57350E+000	9	...........
	110	1.48	8.97074E-001	9.11137E-005	0.00000E+000	8.17358E-005	5.39641E-002	8.97249E-001	3.57350E+000	9	...........
	111	1.49333	8.99311E-001	9.10178E-005	0.00000E+000	8.18534E-005	5.39641E-002	8.99468E-001	3.57350E+000	9	...........
	112	1.50667	9.01531E-001	9.10481E-005	0.00000E+000	8.20826E-005	5.39641E-002	9.01697E-001	3.57350E+000	9	...........
	113	1.52	9.03704E-001	9.10960E-005	0.00000E+000	8.23238E-005	5.39641E-002	9.03873E-001	3.57350E+000	9	...........
	114	1.53333	9.05866E-001	9.11012E-005	0.00000E+000	8.25255E-005	5.39641E-002	9.06053E-001	3.57350E+000	9	...........
	115	1.54667	9.08031E-001	9.11283E-005	0.00000E+000	8.27473E-005	5.39641E-002	9.08214E-001	3.57350E+000	9	...........
	116	1.56	9.10165E-001	9.11668E-005	0.00000E+000	8.29769E-005	5.39641E-002	9.10328E-001	3.57320E+000	9	...........
	117	1.57333	9.12289E-001	9.09105E-005	0.00000E+000	8.29366E-005	5.39641E-002	9.12455E-001	3.57230E+000	9	...........
	118	1.58667	9.14362E-001	9.10178E-005	0.00000E+000	8.32232E-005	5.39641E-002	9.14565E-001	3.57230E+000	9	...........
	119	1.6	9.16418E-001	9.10595E-005	0.00000E+000	8.34485E-005	5.39641E-002	9.16647E-001	3.57230E+000	9	...........
	120	1.61333	9.18450E-001	9.07990E-005	0.00000E+000	8.33943E-005	5.39641E-002	9.18647E-001	3.57230E+000	9	...........
	121	1.62667	9.20530E-001	9.10293E-005	0.00000E+000	8.37952E-005	5.39641E-002	9.20697E-001	3.57230E+000	9	...........
	122	1.64	9.22564E-001	9.10001E-005	0.00000E+000	8.39534E-005	5.39641E-002	9.22703E-001	3.57230E+000	9	...........
	123	1.65333	9.24547E-001	9.12283E-005	0.00000E+000	8.43449E-005	5.39641E-002	9.24675E-001	3.57230E+000	9	...........
	124	1.66667	9.26475E-001	9.12075E-005	0.00000E+000	8.45015E-005	5.39641E-002	9.26637E-001	3.57230E+000	9	...........
	125	1.68	9.28418E-001	9.11033E-005	0.00000E+000	8.45820E-005	5.39641E-002	9.28570E-001	3.57230E+000	9	...........
	126	1.69333	9.30320E-001	9.12835E-005	0.00000E+000	8.49229E-005	5.39641E-002	9.30469E-001	3.57230E+000	9	...........
	127	1.70667	9.32197E-001	9.08188E-005	0.00000E+000	8.46611E-005	5.39641E-002	9.32324E-001	3.57230E+000	9	...........
	128	1.72	9.34065E-001	9.12429E-005	0.00000E+000	8.52268E-005	5.39641E-002	9.34224E-001	3.57230E+000	9	...........
	129	1.73333	9.35950E-001	9.10522E-005	0.00000E+000	8.52203E-005	5.39641E-002	9.36094E-001	3.57230E+000	9	...........
	130	1.74667	9.37764E-001	9.10918E-005	0.00000E+000	8.54227E-005	5.39641E-002	9.37936E-001	3.57230E+000	9	...........
	131	1.76	9.39586E-001	9.11074E-005	0.00000E+000	8.56033E-005	5.39641E-002	9.39785E-001	3.57230E+000	9	...........
	132	1.77333	9.41423E-001	9.11074E-005	0.00000E+000	8.57707E-005	5.39641E-002	9.41564E-001	3.57230E+000	9	...........
	133	1.78667	9.43195E-001	9.13283E-005	0.00000E+000	8.61404E-005	5.39641E-002	9.43350E-001	3.57230E+000	9	...........
	134	1.8	9.44963E-001	9.08907E-005	0.00000E+000	8.58884E-005	5.39641E-002	9.45108E-001	3.57230E+000	9	...........
	135	1.81333	9.46735E-001	9.09230E-005	0.00000E+000	8.60800E-005	5.39641E-002	9.46886E-001	3.57230E+000	9	...........
	136	1.82667	9.48492E-001	9.11554E-005	0.00000E+000	8.64601E-005	5.39641E-002	9.48631E-001	3.57230E+000	9	...........
	137	1.84	9.50220E-001	9.10876E-005	0.00000E+000	8.65533E-005	5.39641E-002	9.50363E-001	3.57230E+000	9	...........
	138	1.85333	9.51888E-001	9.10689E-005	0.00000E+000	8.66874E-005	5.39641E-002	9.52081E-001	3.57230E+000	9	...........
	139	1.86667	9.53580E-001	9.10731E-005	0.00000E+000	8.68455E-005	5.39641E-002	9.53760E-001	3.57230E+000	9	...........
	140	1.88	9.55253E-001	9.10699E-005	0.00000E+000	8.69949E-005	5.39641E-002	9.55399E-001	3.57230E+000	9	...........
	141	1.89333	9.56889E-001	9.07282E-005	0.00000E+000	8.68168E-005	5.39641E-002	9.57019E-001	3.57230E+000	9	...........
	142	1.90667	9.58497E-001	9.09845E-005	0.00000E+000	8.72084E-005	5.39641E-002	9.58664E-001	3.57230E+000	9	...........
	143	1.92	9.60106E-001	9.10637E-005	0.00000E+000	8.74308E-005	5.39641E-002	9.60273E-001	3.57230E+000	9	...........
	144	1.93333	9.61657E-001	9.09783E-005	0.00000E+000	8.74899E-005	5.39641E-002	9.61834E-001	3.57230E+000	9	...........
	145	1.94667	9.63206E-001	9.09574E-005	0.00000E+000	8.76107E-005	5.39641E-002	9.63406E-001	3.57230E+000	9	...........
	146	1.96	9.64755E-001	9.10220E-005	0.00000E+000	8.78140E-005	5.39641E-002	9.64950E-001	3.57230E+000	9	...........
	147	1.97333	9.66299E-001	9.10929E-005	0.00000E+000	8.80229E-005	5.39641E-002	9.66480E-001	3.57230E+000	9	...........
	148	1.98667	9.67824E-001	9.10272E-005	0.00000E+000	8.80983E-005	5.39641E-002	9.68014E-001	3.57230E+000	9	...........
	149	2	9.69321E-001	9.11231E-005	0.00000E+000	8.83275E-005	5.39641E-002	9.69516E-001	3.57230E+000	9	...........
	150	2.01333	9.70811E-001	9.09668E-005	0.00000E+000	8.83116E-005	5.39641E-002	9.71070E-001	3.57230E+000	9	...........
	151	2.02667	9.72318E-001	9.08636E-005	0.00000E+000	8.83484E-005	5.39641E-002	9.72565E-001	3.57230E+000	9	...........
	152	2.04	9.73810E-001	9.11106E-005	0.00000E+000	8.87244E-005	5.39641E-002	9.74019E-001	3.57230E+000	9	...........
	153	2.05333	9.75264E-001	9.07949E-005	0.00000E+000	8.85490E-005	5.39641E-002	9.75476E-001	3.57230E+000	9	...........
	154	2.06667	9.76680E-001	9.11283E-005	0.00000E+000	8.90032E-005	5.39641E-002	9.76903E-001	3.57230E+000	9	...........
	155	2.08	9.78119E-001	9.11856E-005	0.00000E+000	8.91904E-005	5.39641E-002	9.78319E-001	3.57230E+000	9	...........
	156	2.09333	9.79535E-001	9.11595E-005	0.00000E+000	8.92939E-005	5.39641E-002	9.79720E-001	3.57230E+000	9	...........
	157	2.10667	9.80930E-001	9.10679E-005	0.00000E+000	8.93312E-005	5.39641E-002	9.81104E-001	3.57230E+000	9	...........
	158	2.12	9.82301E-001	9.09637E-005	0.00000E+000	8.93537E-005	5.39641E-002	9.82514E-001	3.57230E+000	9	...........
	159	2.13333	9.83667E-001	9.11470E-005	0.00000E+000	8.96584E-005	5.39641E-002	9.83867E-001	3.57230E+000	9	...........
	160	2.14667	9.85019E-001	9.10074E-005	0.00000E+000	8.96441E-005	5.39641E-002	9.85250E-001	3.57230E+000	9	...........
	161	2.16	9.86366E-001	9.11397E-005	0.00000E+000	8.98971E-005	5.39641E-002	9.86579E-001	3.57230E+000	9	...........
	162	2.17333	9.87704E-001	9.09303E-005	0.00000E+000	8.98122E-005	5.39641E-002	9.87919E-001	3.57230E+000	9	...........
	163	2.18667	9.89053E-001	9.13762E-005	0.00000E+000	9.03760E-005	5.39641E-002	9.89252E-001	3.57230E+000	9	...........
	164	2.2	9.90357E-001	9.09491E-005	0.00000E+000	9.00721E-005	5.39641E-002	9.90561E-001	3.57230E+000	9	...........
	165	2.21333	9.91634E-001	9.11033E-005	0.00000E+000	9.03411E-005	5.39641E-002	9.91867E-001	3.57230E+000	9	...........
	166	2.22667	9.92912E-001	9.11668E-005	0.00000E+000	9.05207E-005	5.39641E-002	9.93154E-001	3.57230E+000	9	...........
	167	2.24	9.94201E-001	9.12023E-005	0.00000E+000	9.06734E-005	5.39641E-002	9.94417E-001	3.57230E+000	9	...........
	168	2.25333	9.95461E-001	9.09262E-005	0.00000E+000	9.05134E-005	5.39641E-002	9.95644E-001	3.57230E+000	9	...........
	169	2.26667	9.96685E-001	9.10491E-005	0.00000E+000	9.07472E-005	5.39641E-002	9.96885E-001	3.57230E+000	9	...........
	170	2.28	9.97934E-001	9.09157E-005	0.00000E+000	9.07279E-005	5.39641E-002	9.98132E-001	3.57230E+000	9	...........
	171	2.29333	9.99143E-001	9.08230E-005	0.00000E+000	9.07452E-005	5.39641E-002	9.99330E-001	3.57230E+000	9	...........
	172	2.29667	9.99921E-001	9.12293E-005	0.00000E+000	9.12221E-005	5.39641E-002	1.00009E+000	3.57230E+000	9	...........
STARTTIMEOFFSET	QUANT	1596.369	Start Time Offset (s)
