EXPLAIN
TAG	PWR800_CHARGE
TITLE	LABEL	PWR Cyclic Charge Discharge (Cell) - Charge Step	Test &Identifier
DATE	LABEL	10-7-2017	Date
TIME	LABEL	15:14:20	Time
NOTES	NOTES	3	&Notes...
	supercap test cell
	0.9mg
	6M KOH
PSTAT	PSTAT	IFC5000-01520	Potentiostat
CAPACITY	QUANT	1.00000E-003	Capacity (A-hr)
CELLTYPE	SELECTOR	1	&Cell Type
WORKINGCONNECTION	SELECTOR	0	&Working Lead
MAXCHARGETIME	VARIABLEANDUNITS	1.00000E+002	s	1.00000E+002	second(s)	Max &Charge Time
CHARGECURRENT	QUANT	9.00000E-005	&Charge Current (A) 
VOLTAGEFINISH	TWOPARAM	F	1.00000E-003	3.60000E+003	&Voltage Finish	 I (A) < 	Max Time(s)
SAMPLETIME	QUANT	1.00000E-002	Sa&mple Period (s)
CHARGESTOPAT1	MULTIPARAM	4	1.00000E+000	Charge Stop At &1	Voltage > Limit	V
CHARGESTOPAT2	MULTIPARAM	0	0.00000E+000	Charge Stop At &2	None	N/A
AESBHCSELECTOR	TOGGLE	F	Save Both Half Cells
IRCOMP	TOGGLE	F	IR &Measure
EOC	QUANT	0	Open Circuit (V)
SEQUENCER	TOGGLE	TRUE	Run as Sequence
PSTATMODEL	IQUANT	53	Pstat Model
PSTATSECTION	LABEL	IFC5000-01520	Pstat Section
PSTATSERIALNO	LABEL	01520	Pstat Serial Number
CTRLMODE	IQUANT	0	Control Mode
ELECTROMETER	IQUANT	1	RE=0 or CS=1
IESTAB	IQUANT	0	I/E Stability
CASPEED	IQUANT	4	Control Amp Speed
CONVENTION	IQUANT	1	Current Convention
ICHRANGE	IQUANT	2	Ich Range
ICHRANGEMODE	TOGGLE	T	Ich Auto Range
ICHOFFSETENABLE	TOGGLE	F	Ich Offset Enable
ICHOFFSET	QUANT	0	Ich Offset (V)
ICHFILTER	IQUANT	1	Ich Filter
VCHRANGE	IQUANT	2	Vch Range
VCHRANGEMODE	TOGGLE	T	Vch Auto Range
VCHOFFSETENABLE	TOGGLE	F	Vch Offset Enable
VCHOFFSET	QUANT	0	Vch Offset (V)
VCHFILTER	IQUANT	1	Vch Filter
IERANGELOWERLIMIT	IQUANT	9	I/E Range Lower Limit
IERANGEMODE	TOGGLE	F	I/E AutoRange
IERANGE	IQUANT	9	I/E Range
ACHSELECT	IQUANT	1	Ach Select
ACHRANGE	IQUANT	2	Ach Range
ACHOFFSETENABLE	TOGGLE	F	Ach Offset Enable
ACHOFFSET	QUANT	0	Ach Offset (V)
ACHFILTER	IQUANT	1	Ach Filter
CABLEID	IQUANT	14	Cable ID
DCCALDATE	LABEL	5-7-2017	DC Calibration Date
ACCALDATE	LABEL	12/3/2015	AC Calibration Date
FRAMEWORKVERSION	QUANT	7.01	Framework Version
INSTRUMENTVERSION	LABEL	4.00	Instrument Version
CURVE	TABLE	183
	Pt	T	Vf	Im	Vu	Pwr	Sig	Ach	Temp	IERange	Over
	#	s	V	A	V	W	V	V	deg C	#	bits
	0	0.013333	2.90771E-001	9.11085E-005	0.00000E+000	2.64917E-005	5.39641E-002	2.90811E-001	3.57210E+000	9	...........
	1	0.026667	3.09916E-001	9.12596E-005	0.00000E+000	2.82828E-005	5.39641E-002	3.09953E-001	3.57210E+000	9	...........
	2	0.04	3.27595E-001	9.11189E-005	0.00000E+000	2.98501E-005	5.39641E-002	3.27628E-001	3.57210E+000	9	...........
	3	0.053333	3.44078E-001	9.12658E-005	0.00000E+000	3.14025E-005	5.39641E-002	3.44115E-001	3.57210E+000	9	...........
	4	0.066667	3.59529E-001	9.08709E-005	0.00000E+000	3.26707E-005	5.39641E-002	3.59569E-001	3.57210E+000	9	...........
	5	0.08	3.74107E-001	9.09710E-005	0.00000E+000	3.40329E-005	5.39641E-002	3.74146E-001	3.57210E+000	9	...........
	6	0.093333	3.87914E-001	9.09710E-005	0.00000E+000	3.52889E-005	5.39641E-002	3.87949E-001	3.57210E+000	9	...........
	7	0.106667	4.01051E-001	9.10585E-005	0.00000E+000	3.65191E-005	5.39641E-002	4.01095E-001	3.57210E+000	9	...........
	8	0.12	4.13575E-001	9.09845E-005	0.00000E+000	3.76289E-005	5.39641E-002	4.13628E-001	3.57210E+000	9	...........
	9	0.133333	4.25551E-001	9.11043E-005	0.00000E+000	3.87695E-005	5.39641E-002	4.25606E-001	3.57210E+000	9	...........
	10	0.146667	4.37035E-001	9.07761E-005	0.00000E+000	3.96724E-005	5.39641E-002	4.37084E-001	3.57210E+000	9	...........
	11	0.16	4.48064E-001	9.12471E-005	0.00000E+000	4.08845E-005	5.39641E-002	4.48117E-001	3.57210E+000	9	...........
	12	0.173333	4.58670E-001	9.11470E-005	0.00000E+000	4.18064E-005	5.39641E-002	4.58721E-001	3.57210E+000	9	...........
	13	0.186667	4.68898E-001	9.11210E-005	0.00000E+000	4.27265E-005	5.39641E-002	4.68952E-001	3.57210E+000	9	...........
	14	0.2	4.78764E-001	9.11210E-005	0.00000E+000	4.36255E-005	5.39641E-002	4.78818E-001	3.57210E+000	9	...........
	15	0.213333	4.88297E-001	9.11616E-005	0.00000E+000	4.45139E-005	5.39641E-002	4.88352E-001	3.57210E+000	9	...........
	16	0.226667	4.97518E-001	9.10908E-005	0.00000E+000	4.53193E-005	5.39641E-002	4.97577E-001	3.57210E+000	9	...........
	17	0.24	5.06461E-001	9.09397E-005	0.00000E+000	4.60574E-005	5.39641E-002	5.06525E-001	3.57210E+000	9	...........
	18	0.253333	5.15145E-001	9.12575E-005	0.00000E+000	4.70108E-005	5.39641E-002	5.15202E-001	3.57210E+000	9	...........
	19	0.266667	5.23575E-001	9.11543E-005	0.00000E+000	4.77261E-005	5.39641E-002	5.23638E-001	3.57210E+000	9	...........
	20	0.28	5.31756E-001	9.07094E-005	0.00000E+000	4.82353E-005	5.39641E-002	5.31827E-001	3.57210E+000	9	...........
	21	0.293333	5.39688E-001	9.11700E-005	0.00000E+000	4.92034E-005	5.39641E-002	5.39782E-001	3.57210E+000	9	...........
	22	0.306667	5.47430E-001	9.08928E-005	0.00000E+000	4.97575E-005	5.39641E-002	5.47511E-001	3.57210E+000	9	...........
	23	0.32	5.54968E-001	9.10720E-005	0.00000E+000	5.05420E-005	5.39641E-002	5.55064E-001	3.57210E+000	9	...........
	24	0.333333	5.62339E-001	9.12429E-005	0.00000E+000	5.13095E-005	5.39641E-002	5.62432E-001	3.57210E+000	9	...........
	25	0.346667	5.69514E-001	9.09908E-005	0.00000E+000	5.18205E-005	5.39641E-002	5.69592E-001	3.57210E+000	9	...........
	26	0.36	5.76467E-001	9.12731E-005	0.00000E+000	5.26159E-005	5.39641E-002	5.76567E-001	3.57210E+000	9	...........
	27	0.373333	5.83274E-001	9.09647E-005	0.00000E+000	5.30574E-005	5.39641E-002	5.83395E-001	3.57210E+000	9	...........
	28	0.386667	5.89983E-001	9.12220E-005	0.00000E+000	5.38195E-005	5.39641E-002	5.90118E-001	3.57210E+000	9	...........
	29	0.4	5.96484E-001	9.11022E-005	0.00000E+000	5.43411E-005	5.39641E-002	5.96607E-001	3.57210E+000	9	...........
	30	0.413333	6.02848E-001	9.12533E-005	0.00000E+000	5.50119E-005	5.39641E-002	6.02980E-001	3.57210E+000	9	...........
	31	0.426667	6.09068E-001	9.12752E-005	0.00000E+000	5.55928E-005	5.39641E-002	6.09197E-001	3.57210E+000	9	...........
	32	0.44	6.15200E-001	9.11991E-005	0.00000E+000	5.61057E-005	5.39641E-002	6.15322E-001	3.57210E+000	9	...........
	33	0.453333	6.21216E-001	9.10053E-005	0.00000E+000	5.65340E-005	5.39641E-002	6.21286E-001	3.57210E+000	9	...........
	34	0.466667	6.27054E-001	9.09324E-005	0.00000E+000	5.70196E-005	5.39641E-002	6.27159E-001	3.57210E+000	9	...........
	35	0.48	6.32779E-001	9.10043E-005	0.00000E+000	5.75856E-005	5.39641E-002	6.32878E-001	3.57210E+000	9	...........
	36	0.493333	6.38365E-001	9.12523E-005	0.00000E+000	5.82522E-005	5.39641E-002	6.38478E-001	3.57210E+000	9	...........
	37	0.506667	6.43891E-001	9.10158E-005	0.00000E+000	5.86042E-005	5.39641E-002	6.43999E-001	3.57210E+000	9	...........
	38	0.52	6.49295E-001	9.10439E-005	0.00000E+000	5.91144E-005	5.39641E-002	6.49387E-001	3.57210E+000	9	...........
	39	0.533333	6.54592E-001	9.08949E-005	0.00000E+000	5.94991E-005	5.39641E-002	6.54684E-001	3.57210E+000	9	...........
	40	0.546667	6.59773E-001	9.12262E-005	0.00000E+000	6.01886E-005	5.39641E-002	6.59874E-001	3.57210E+000	9	...........
	41	0.56	6.64872E-001	9.11929E-005	0.00000E+000	6.06316E-005	5.39641E-002	6.65000E-001	3.57210E+000	9	...........
	42	0.573333	6.69903E-001	9.10887E-005	0.00000E+000	6.10206E-005	5.39641E-002	6.70003E-001	3.57210E+000	9	...........
	43	0.586667	6.74833E-001	9.09762E-005	0.00000E+000	6.13938E-005	5.39641E-002	6.74938E-001	3.57210E+000	9	...........
	44	0.6	6.79681E-001	9.12158E-005	0.00000E+000	6.19977E-005	5.39641E-002	6.79805E-001	3.57210E+000	9	...........
	45	0.613333	6.84449E-001	9.09418E-005	0.00000E+000	6.22450E-005	5.39641E-002	6.84520E-001	3.57210E+000	9	...........
	46	0.626667	6.89086E-001	9.12075E-005	0.00000E+000	6.28498E-005	5.39641E-002	6.89190E-001	3.57210E+000	9	...........
	47	0.64	6.93693E-001	9.12689E-005	0.00000E+000	6.33126E-005	5.39641E-002	6.93797E-001	3.57210E+000	9	...........
	48	0.653333	6.98193E-001	9.09355E-005	0.00000E+000	6.34906E-005	5.39641E-002	6.98293E-001	3.57210E+000	9	...........
	49	0.666667	7.02624E-001	9.10564E-005	0.00000E+000	6.39784E-005	5.39641E-002	7.02726E-001	3.57210E+000	9	...........
	50	0.68	7.06988E-001	9.14086E-005	0.00000E+000	6.46247E-005	5.39641E-002	7.07079E-001	3.57210E+000	9	...........
	51	0.693333	7.11302E-001	9.14190E-005	0.00000E+000	6.50265E-005	5.39641E-002	7.11394E-001	3.57210E+000	9	...........
	52	0.706667	7.15535E-001	9.11575E-005	0.00000E+000	6.52263E-005	5.39641E-002	7.15631E-001	3.57210E+000	9	...........
	53	0.72	7.19754E-001	9.12106E-005	0.00000E+000	6.56492E-005	5.39641E-002	7.19848E-001	3.57210E+000	9	...........
	54	0.733333	7.23853E-001	9.09949E-005	0.00000E+000	6.58669E-005	5.39641E-002	7.23926E-001	3.57210E+000	9	...........
	55	0.746667	7.27887E-001	9.11700E-005	0.00000E+000	6.63614E-005	5.39641E-002	7.27968E-001	3.57210E+000	9	...........
	56	0.76	7.31844E-001	9.11481E-005	0.00000E+000	6.67062E-005	5.39641E-002	7.31961E-001	3.57210E+000	9	...........
	57	0.773333	7.35785E-001	9.11387E-005	0.00000E+000	6.70585E-005	5.39641E-002	7.35876E-001	3.57210E+000	9	...........
	58	0.786667	7.39660E-001	9.11137E-005	0.00000E+000	6.73931E-005	5.39641E-002	7.39768E-001	3.57210E+000	9	...........
	59	0.8	7.43505E-001	9.12741E-005	0.00000E+000	6.78628E-005	5.39641E-002	7.43624E-001	3.57210E+000	9	...........
	60	0.813333	7.47278E-001	9.12335E-005	0.00000E+000	6.81768E-005	5.39641E-002	7.47374E-001	3.57210E+000	9	...........
	61	0.826667	7.50998E-001	9.12189E-005	0.00000E+000	6.85052E-005	5.39641E-002	7.51104E-001	3.57210E+000	9	...........
	62	0.84	7.54679E-001	9.12825E-005	0.00000E+000	6.88890E-005	5.39641E-002	7.54784E-001	3.57210E+000	9	...........
	63	0.853333	7.58302E-001	9.08428E-005	0.00000E+000	6.88863E-005	5.39641E-002	7.58379E-001	3.57210E+000	9	...........
	64	0.866667	7.61858E-001	9.12971E-005	0.00000E+000	6.95554E-005	5.39641E-002	7.61961E-001	3.57210E+000	9	...........
	65	0.88	7.65371E-001	9.10085E-005	0.00000E+000	6.96552E-005	5.39641E-002	7.65494E-001	3.57210E+000	9	...........
	66	0.893333	7.68836E-001	9.12252E-005	0.00000E+000	7.01372E-005	5.39641E-002	7.68999E-001	3.57265E+000	9	...........
	67	0.906667	7.72267E-001	9.09137E-005	0.00000E+000	7.02096E-005	5.39641E-002	7.72406E-001	3.57320E+000	9	...........
	68	0.92	7.75668E-001	9.10606E-005	0.00000E+000	7.06328E-005	5.39641E-002	7.75799E-001	3.57320E+000	9	...........
	69	0.933333	7.79018E-001	9.10689E-005	0.00000E+000	7.09443E-005	5.39641E-002	7.79130E-001	3.57320E+000	9	...........
	70	0.946667	7.82339E-001	9.09387E-005	0.00000E+000	7.11449E-005	5.39641E-002	7.82420E-001	3.57320E+000	9	...........
	71	0.96	7.85599E-001	9.11575E-005	0.00000E+000	7.16132E-005	5.39641E-002	7.85675E-001	3.57320E+000	9	...........
	72	0.97333	7.88818E-001	9.10397E-005	0.00000E+000	7.18138E-005	5.39641E-002	7.88921E-001	3.57320E+000	9	...........
	73	0.98667	7.92033E-001	9.08928E-005	0.00000E+000	7.19901E-005	5.39641E-002	7.92132E-001	3.57320E+000	9	...........
	74	1	7.95220E-001	9.10043E-005	0.00000E+000	7.23685E-005	5.39641E-002	7.95335E-001	3.57320E+000	9	...........
	75	1.01333	7.98330E-001	9.15232E-005	0.00000E+000	7.30657E-005	5.39641E-002	7.98420E-001	3.57320E+000	9	...........
	76	1.02667	8.01408E-001	9.11252E-005	0.00000E+000	7.30284E-005	5.39641E-002	8.01522E-001	3.57320E+000	9	...........
	77	1.04	8.04460E-001	9.09970E-005	0.00000E+000	7.32035E-005	5.39641E-002	8.04578E-001	3.57320E+000	9	...........
	78	1.05333	8.07444E-001	9.11991E-005	0.00000E+000	7.36382E-005	5.39641E-002	8.07597E-001	3.57320E+000	9	...........
	79	1.06667	8.10405E-001	9.13460E-005	0.00000E+000	7.40273E-005	5.39641E-002	8.10576E-001	3.57320E+000	9	...........
	80	1.08	8.13365E-001	9.08689E-005	0.00000E+000	7.39095E-005	5.39641E-002	8.13507E-001	3.57320E+000	9	...........
	81	1.09333	8.16244E-001	9.11648E-005	0.00000E+000	7.44127E-005	5.39641E-002	8.16437E-001	3.57320E+000	9	...........
	82	1.10667	8.19183E-001	9.11408E-005	0.00000E+000	7.46610E-005	5.39641E-002	8.19332E-001	3.57320E+000	9	...........
	83	1.12	8.22038E-001	9.11679E-005	0.00000E+000	7.49434E-005	5.39641E-002	8.22211E-001	3.57320E+000	9	...........
	84	1.13333	8.24880E-001	9.09074E-005	0.00000E+000	7.49877E-005	5.39641E-002	8.25055E-001	3.57320E+000	9	...........
	85	1.14667	8.27664E-001	9.09345E-005	0.00000E+000	7.52632E-005	5.39641E-002	8.27822E-001	3.57320E+000	9	...........
	86	1.16	8.30406E-001	9.11189E-005	0.00000E+000	7.56657E-005	5.39641E-002	8.30583E-001	3.57320E+000	9	...........
	87	1.17333	8.33136E-001	9.11679E-005	0.00000E+000	7.59552E-005	5.39641E-002	8.33305E-001	3.57320E+000	9	...........
	88	1.18667	8.35834E-001	9.09074E-005	0.00000E+000	7.59835E-005	5.39641E-002	8.36013E-001	3.57320E+000	9	...........
	89	1.2	8.38506E-001	9.10356E-005	0.00000E+000	7.63339E-005	5.39641E-002	8.38684E-001	3.57320E+000	9	...........
	90	1.21333	8.41139E-001	9.12523E-005	0.00000E+000	7.67558E-005	5.39641E-002	8.41331E-001	3.57320E+000	9	...........
	91	1.22667	8.43760E-001	9.11095E-005	0.00000E+000	7.68745E-005	5.39641E-002	8.43948E-001	3.57320E+000	9	...........
	92	1.24	8.46397E-001	9.09460E-005	0.00000E+000	7.69764E-005	5.39641E-002	8.46542E-001	3.57320E+000	9	...........
	93	1.25333	8.48933E-001	9.11033E-005	0.00000E+000	7.73406E-005	5.39641E-002	8.49116E-001	3.57320E+000	9	...........
	94	1.26667	8.51480E-001	9.10189E-005	0.00000E+000	7.75008E-005	5.39641E-002	8.51653E-001	3.57320E+000	9	...........
	95	1.28	8.53973E-001	9.11460E-005	0.00000E+000	7.78363E-005	5.39641E-002	8.54136E-001	3.57320E+000	9	...........
	96	1.29333	8.56452E-001	9.07011E-005	0.00000E+000	7.76811E-005	5.39641E-002	8.56636E-001	3.57320E+000	9	...........
	97	1.30667	8.58908E-001	9.09605E-005	0.00000E+000	7.81267E-005	5.39641E-002	8.59098E-001	3.57320E+000	9	...........
	98	1.32	8.61365E-001	9.13231E-005	0.00000E+000	7.86625E-005	5.39641E-002	8.61529E-001	3.57320E+000	9	...........
	99	1.33333	8.63733E-001	9.08366E-005	0.00000E+000	7.84585E-005	5.39641E-002	8.63924E-001	3.57320E+000	9	...........
	100	1.34667	8.66148E-001	9.11293E-005	0.00000E+000	7.89315E-005	5.39641E-002	8.66319E-001	3.57320E+000	9	...........
	101	1.36	8.68540E-001	9.11366E-005	0.00000E+000	7.91558E-005	5.39641E-002	8.68708E-001	3.57320E+000	9	...........
	102	1.37333	8.70921E-001	9.10856E-005	0.00000E+000	7.93283E-005	5.39641E-002	8.71064E-001	3.57320E+000	9	...........
	103	1.38667	8.73217E-001	9.10158E-005	0.00000E+000	7.94765E-005	5.39641E-002	8.73389E-001	3.57320E+000	9	...........
	104	1.4	8.75540E-001	9.11887E-005	0.00000E+000	7.98394E-005	5.39641E-002	8.75714E-001	3.57320E+000	9	...........
	105	1.41333	8.77807E-001	9.11950E-005	0.00000E+000	8.00516E-005	5.39641E-002	8.77979E-001	3.57320E+000	9	...........
	106	1.42667	8.80067E-001	9.09845E-005	0.00000E+000	8.00724E-005	5.39641E-002	8.80241E-001	3.57320E+000	9	...........
	107	1.44	8.82290E-001	9.09793E-005	0.00000E+000	8.02701E-005	5.39641E-002	8.82459E-001	3.57320E+000	9	...........
	108	1.45333	8.84508E-001	9.12304E-005	0.00000E+000	8.06940E-005	5.39641E-002	8.84656E-001	3.57320E+000	9	...........
	109	1.46667	8.86667E-001	9.09991E-005	0.00000E+000	8.06859E-005	5.39641E-002	8.86813E-001	3.57320E+000	9	...........
	110	1.48	8.88805E-001	9.09835E-005	0.00000E+000	8.08665E-005	5.39641E-002	8.88942E-001	3.57320E+000	9	...........
	111	1.49333	8.90938E-001	9.11064E-005	0.00000E+000	8.11702E-005	5.39641E-002	8.91070E-001	3.57320E+000	9	...........
	112	1.50667	8.93046E-001	9.12898E-005	0.00000E+000	8.15260E-005	5.39641E-002	8.93172E-001	3.57320E+000	9	...........
	113	1.52	8.95123E-001	9.11929E-005	0.00000E+000	8.16289E-005	5.39641E-002	8.95300E-001	3.57320E+000	9	...........
	114	1.53333	8.97189E-001	9.11720E-005	0.00000E+000	8.17986E-005	5.39641E-002	8.97348E-001	3.57320E+000	9	...........
	115	1.54667	8.99245E-001	9.11606E-005	0.00000E+000	8.19757E-005	5.39641E-002	8.99402E-001	3.57320E+000	9	...........
	116	1.56	9.01283E-001	9.12950E-005	0.00000E+000	8.22826E-005	5.39641E-002	9.01450E-001	3.57320E+000	9	...........
	117	1.57333	9.03284E-001	9.12356E-005	0.00000E+000	8.24117E-005	5.39641E-002	9.03459E-001	3.57320E+000	9	...........
	118	1.58667	9.05266E-001	9.09918E-005	0.00000E+000	8.23718E-005	5.39641E-002	9.05443E-001	3.57320E+000	9	...........
	119	1.6	9.07241E-001	9.12179E-005	0.00000E+000	8.27566E-005	5.39641E-002	9.07409E-001	3.57320E+000	9	...........
	120	1.61333	9.09210E-001	9.11804E-005	0.00000E+000	8.29021E-005	5.39641E-002	9.09369E-001	3.57320E+000	9	...........
	121	1.62667	9.11159E-001	9.10262E-005	0.00000E+000	8.29394E-005	5.39641E-002	9.11294E-001	3.57320E+000	9	...........
	122	1.64	9.13080E-001	9.09084E-005	0.00000E+000	8.30067E-005	5.39641E-002	9.13223E-001	3.57320E+000	9	...........
	123	1.65333	9.14970E-001	9.10251E-005	0.00000E+000	8.32852E-005	5.39641E-002	9.15135E-001	3.57320E+000	9	...........
	124	1.66667	9.16840E-001	9.11616E-005	0.00000E+000	8.35806E-005	5.39641E-002	9.17007E-001	3.57320E+000	9	...........
	125	1.68	9.18712E-001	9.11127E-005	0.00000E+000	8.37063E-005	5.39641E-002	9.18885E-001	3.57320E+000	9	...........
	126	1.69333	9.20613E-001	9.10866E-005	0.00000E+000	8.38555E-005	5.39641E-002	9.20765E-001	3.57320E+000	9	...........
	127	1.70667	9.22470E-001	9.09512E-005	0.00000E+000	8.38997E-005	5.39641E-002	9.22602E-001	3.57320E+000	9	...........
	128	1.72	9.24286E-001	9.09772E-005	0.00000E+000	8.40889E-005	5.39641E-002	9.24402E-001	3.57320E+000	9	...........
	129	1.73333	9.26074E-001	9.09928E-005	0.00000E+000	8.42661E-005	5.39641E-002	9.26194E-001	3.57320E+000	9	...........
	130	1.74667	9.27872E-001	9.11398E-005	0.00000E+000	8.45660E-005	5.39641E-002	9.27980E-001	3.57320E+000	9	...........
	131	1.76	9.29636E-001	9.11272E-005	0.00000E+000	8.47152E-005	5.39641E-002	9.29723E-001	3.57320E+000	9	...........
	132	1.77333	9.31327E-001	9.10679E-005	0.00000E+000	8.48139E-005	5.39641E-002	9.31428E-001	3.57320E+000	9	...........
	133	1.78667	9.33062E-001	9.12012E-005	0.00000E+000	8.50964E-005	5.39641E-002	9.33148E-001	3.57320E+000	9	...........
	134	1.8	9.34766E-001	9.11231E-005	0.00000E+000	8.51787E-005	5.39641E-002	9.34904E-001	3.57320E+000	9	...........
	135	1.81333	9.36470E-001	9.09522E-005	0.00000E+000	8.51740E-005	5.39641E-002	9.36613E-001	3.57320E+000	9	...........
	136	1.82667	9.38136E-001	9.11356E-005	0.00000E+000	8.54975E-005	5.39641E-002	9.38278E-001	3.57320E+000	9	...........
	137	1.84	9.39813E-001	9.12095E-005	0.00000E+000	8.57199E-005	5.39641E-002	9.39946E-001	3.57320E+000	9	...........
	138	1.85333	9.41479E-001	9.11179E-005	0.00000E+000	8.57856E-005	5.39641E-002	9.41585E-001	3.57320E+000	9	...........
	139	1.86667	9.43084E-001	9.09157E-005	0.00000E+000	8.57412E-005	5.39641E-002	9.43215E-001	3.57320E+000	9	...........
	140	1.88	9.44704E-001	9.11648E-005	0.00000E+000	8.61237E-005	5.39641E-002	9.44840E-001	3.57320E+000	9	...........
	141	1.89333	9.46322E-001	9.09449E-005	0.00000E+000	8.60632E-005	5.39641E-002	9.46464E-001	3.57250E+000	9	...........
	142	1.90667	9.47932E-001	9.12762E-005	0.00000E+000	8.65236E-005	5.39641E-002	9.48069E-001	3.57180E+000	9	...........
	143	1.92	9.49507E-001	9.10699E-005	0.00000E+000	8.64716E-005	5.39641E-002	9.49644E-001	3.57180E+000	9	...........
	144	1.93333	9.51035E-001	9.12283E-005	0.00000E+000	8.67614E-005	5.39641E-002	9.51198E-001	3.57180E+000	9	...........
	145	1.94667	9.52580E-001	9.10397E-005	0.00000E+000	8.67226E-005	5.39641E-002	9.52740E-001	3.57180E+000	9	...........
	146	1.96	9.54109E-001	9.10522E-005	0.00000E+000	8.68738E-005	5.39641E-002	9.54253E-001	3.57180E+000	9	...........
	147	1.97333	9.55587E-001	9.11231E-005	0.00000E+000	8.70760E-005	5.39641E-002	9.55729E-001	3.57180E+000	9	...........
	148	1.98667	9.57004E-001	9.09803E-005	0.00000E+000	8.70685E-005	5.39641E-002	9.57175E-001	3.57180E+000	9	...........
	149	2	9.58452E-001	9.10887E-005	0.00000E+000	8.73041E-005	5.39641E-002	9.58618E-001	3.57180E+000	9	...........
	150	2.01333	9.59882E-001	9.11845E-005	0.00000E+000	8.75264E-005	5.39641E-002	9.60066E-001	3.57180E+000	9	...........
	151	2.02667	9.61330E-001	9.13179E-005	0.00000E+000	8.77867E-005	5.39641E-002	9.61491E-001	3.57180E+000	9	...........
	152	2.04	9.62784E-001	9.12481E-005	0.00000E+000	8.78522E-005	5.39641E-002	9.62951E-001	3.57180E+000	9	...........
	153	2.05333	9.64169E-001	9.11481E-005	0.00000E+000	8.78822E-005	5.39641E-002	9.64376E-001	3.57180E+000	9	...........
	154	2.06667	9.65588E-001	9.11793E-005	0.00000E+000	8.80417E-005	5.39641E-002	9.65779E-001	3.57180E+000	9	...........
	155	2.08	9.66971E-001	9.09501E-005	0.00000E+000	8.79462E-005	5.39641E-002	9.67160E-001	3.57180E+000	9	...........
	156	2.09333	9.68327E-001	9.10158E-005	0.00000E+000	8.81330E-005	5.39641E-002	9.68551E-001	3.57180E+000	9	...........
	157	2.10667	9.69721E-001	9.12846E-005	0.00000E+000	8.85206E-005	5.39641E-002	9.69914E-001	3.57180E+000	9	...........
	158	2.12	9.71042E-001	9.11387E-005	0.00000E+000	8.84995E-005	5.39641E-002	9.71286E-001	3.57180E+000	9	...........
	159	2.13333	9.72416E-001	9.13429E-005	0.00000E+000	8.88233E-005	5.39641E-002	9.72628E-001	3.57180E+000	9	...........
	160	2.14667	9.73779E-001	9.10158E-005	0.00000E+000	8.86292E-005	5.39641E-002	9.73936E-001	3.57180E+000	9	...........
	161	2.16	9.75091E-001	9.14106E-005	0.00000E+000	8.91336E-005	5.39641E-002	9.75249E-001	3.57180E+000	9	...........
	162	2.17333	9.76396E-001	9.11502E-005	0.00000E+000	8.89987E-005	5.39641E-002	9.76566E-001	3.57180E+000	9	...........
	163	2.18667	9.77708E-001	9.10595E-005	0.00000E+000	8.90296E-005	5.39641E-002	9.77900E-001	3.57180E+000	9	...........
	164	2.2	9.79007E-001	9.12992E-005	0.00000E+000	8.93825E-005	5.39641E-002	9.79200E-001	3.57180E+000	9	...........
	165	2.21333	9.80294E-001	9.10199E-005	0.00000E+000	8.92263E-005	5.39641E-002	9.80463E-001	3.57180E+000	9	...........
	166	2.22667	9.81532E-001	9.12429E-005	0.00000E+000	8.95578E-005	5.39641E-002	9.81725E-001	3.57180E+000	9	...........
	167	2.24	9.82777E-001	9.11314E-005	0.00000E+000	8.95619E-005	5.39641E-002	9.82936E-001	3.57180E+000	9	...........
	168	2.25333	9.84011E-001	9.11908E-005	0.00000E+000	8.97328E-005	5.39641E-002	9.84172E-001	3.57180E+000	9	...........
	169	2.26667	9.85247E-001	9.09908E-005	0.00000E+000	8.96484E-005	5.39641E-002	9.85409E-001	3.57180E+000	9	...........
	170	2.28	9.86435E-001	9.10189E-005	0.00000E+000	8.97842E-005	5.39641E-002	9.86607E-001	3.57180E+000	9	...........
	171	2.29333	9.87604E-001	9.10574E-005	0.00000E+000	8.99287E-005	5.39641E-002	9.87795E-001	3.57180E+000	9	...........
	172	2.30667	9.88816E-001	9.10626E-005	0.00000E+000	9.00442E-005	5.39641E-002	9.88989E-001	3.57180E+000	9	...........
	173	2.32	9.90000E-001	9.10658E-005	0.00000E+000	9.01551E-005	5.39641E-002	9.90159E-001	3.57180E+000	9	...........
	174	2.33333	9.91160E-001	9.10460E-005	0.00000E+000	9.02412E-005	5.39641E-002	9.91314E-001	3.57180E+000	9	...........
	175	2.34667	9.92311E-001	9.10772E-005	0.00000E+000	9.03769E-005	5.39641E-002	9.92455E-001	3.57180E+000	9	...........
	176	2.36	9.93451E-001	9.10991E-005	0.00000E+000	9.05025E-005	5.39641E-002	9.93627E-001	3.57180E+000	9	...........
	177	2.37333	9.94569E-001	9.11991E-005	0.00000E+000	9.07038E-005	5.39641E-002	9.94737E-001	3.57180E+000	9	...........
	178	2.38667	9.95712E-001	9.11199E-005	0.00000E+000	9.07292E-005	5.39641E-002	9.95894E-001	3.57180E+000	9	...........
	179	2.4	9.96821E-001	9.11939E-005	0.00000E+000	9.09040E-005	5.39641E-002	9.97034E-001	3.57180E+000	9	...........
	180	2.41333	9.97955E-001	9.11523E-005	0.00000E+000	9.09659E-005	5.39641E-002	9.98171E-001	3.57180E+000	9	...........
	181	2.42667	9.99054E-001	9.11241E-005	0.00000E+000	9.10379E-005	5.39641E-002	9.99242E-001	3.57180E+000	9	...........
	182	2.43333	9.99864E-001	9.15002E-005	0.00000E+000	9.14878E-005	5.39641E-002	1.00006E+000	3.57180E+000	9	...........
STARTTIMEOFFSET	QUANT	766.6581	Start Time Offset (s)
