EXPLAIN
TAG	PWR800_CHARGE
TITLE	LABEL	PWR Cyclic Charge Discharge (Cell) - Charge Step	Test &Identifier
DATE	LABEL	10-7-2017	Date
TIME	LABEL	16:22:55	Time
NOTES	NOTES	3	&Notes...
	supercap test cell
	0.9mg
	6M KOH
PSTAT	PSTAT	IFC5000-01520	Potentiostat
CAPACITY	QUANT	1.00000E-003	Capacity (A-hr)
CELLTYPE	SELECTOR	1	&Cell Type
WORKINGCONNECTION	SELECTOR	0	&Working Lead
MAXCHARGETIME	VARIABLEANDUNITS	1.00000E+002	s	1.00000E+002	second(s)	Max &Charge Time
CHARGECURRENT	QUANT	9.00000E-005	&Charge Current (A) 
VOLTAGEFINISH	TWOPARAM	F	1.00000E-003	3.60000E+003	&Voltage Finish	 I (A) < 	Max Time(s)
SAMPLETIME	QUANT	1.00000E-002	Sa&mple Period (s)
CHARGESTOPAT1	MULTIPARAM	4	1.00000E+000	Charge Stop At &1	Voltage > Limit	V
CHARGESTOPAT2	MULTIPARAM	0	0.00000E+000	Charge Stop At &2	None	N/A
AESBHCSELECTOR	TOGGLE	F	Save Both Half Cells
IRCOMP	TOGGLE	F	IR &Measure
EOC	QUANT	0	Open Circuit (V)
SEQUENCER	TOGGLE	TRUE	Run as Sequence
PSTATMODEL	IQUANT	53	Pstat Model
PSTATSECTION	LABEL	IFC5000-01520	Pstat Section
PSTATSERIALNO	LABEL	01520	Pstat Serial Number
CTRLMODE	IQUANT	0	Control Mode
ELECTROMETER	IQUANT	1	RE=0 or CS=1
IESTAB	IQUANT	0	I/E Stability
CASPEED	IQUANT	4	Control Amp Speed
CONVENTION	IQUANT	1	Current Convention
ICHRANGE	IQUANT	2	Ich Range
ICHRANGEMODE	TOGGLE	T	Ich Auto Range
ICHOFFSETENABLE	TOGGLE	F	Ich Offset Enable
ICHOFFSET	QUANT	0	Ich Offset (V)
ICHFILTER	IQUANT	1	Ich Filter
VCHRANGE	IQUANT	2	Vch Range
VCHRANGEMODE	TOGGLE	T	Vch Auto Range
VCHOFFSETENABLE	TOGGLE	F	Vch Offset Enable
VCHOFFSET	QUANT	0	Vch Offset (V)
VCHFILTER	IQUANT	1	Vch Filter
IERANGELOWERLIMIT	IQUANT	9	I/E Range Lower Limit
IERANGEMODE	TOGGLE	F	I/E AutoRange
IERANGE	IQUANT	9	I/E Range
ACHSELECT	IQUANT	1	Ach Select
ACHRANGE	IQUANT	2	Ach Range
ACHOFFSETENABLE	TOGGLE	F	Ach Offset Enable
ACHOFFSET	QUANT	0	Ach Offset (V)
ACHFILTER	IQUANT	1	Ach Filter
CABLEID	IQUANT	14	Cable ID
DCCALDATE	LABEL	5-7-2017	DC Calibration Date
ACCALDATE	LABEL	12/3/2015	AC Calibration Date
FRAMEWORKVERSION	QUANT	7.01	Framework Version
INSTRUMENTVERSION	LABEL	4.00	Instrument Version
CURVE	TABLE	161
	Pt	T	Vf	Im	Vu	Pwr	Sig	Ach	Temp	IERange	Over
	#	s	V	A	V	W	V	V	deg C	#	bits
	0	0.013333	2.62460E-001	9.09637E-005	0.00000E+000	2.38744E-005	5.39641E-002	2.62507E-001	3.57290E+000	9	...........
	1	0.026667	2.82158E-001	9.10356E-005	0.00000E+000	2.56865E-005	5.39641E-002	2.82200E-001	3.57290E+000	9	...........
	2	0.04	3.00698E-001	9.08074E-005	0.00000E+000	2.73056E-005	5.39641E-002	3.00740E-001	3.57290E+000	9	...........
	3	0.053333	3.18232E-001	9.09178E-005	0.00000E+000	2.89329E-005	5.39641E-002	3.18281E-001	3.57290E+000	9	...........
	4	0.066667	3.34852E-001	9.08303E-005	0.00000E+000	3.04148E-005	5.39641E-002	3.34897E-001	3.57290E+000	9	...........
	5	0.08	3.50658E-001	9.09637E-005	0.00000E+000	3.18971E-005	5.39641E-002	3.50704E-001	3.57290E+000	9	...........
	6	0.093333	3.65705E-001	9.09824E-005	0.00000E+000	3.32727E-005	5.39641E-002	3.65749E-001	3.57290E+000	9	...........
	7	0.106667	3.80049E-001	9.09064E-005	0.00000E+000	3.45488E-005	5.39641E-002	3.80101E-001	3.57290E+000	9	...........
	8	0.12	3.93754E-001	9.08188E-005	0.00000E+000	3.57603E-005	5.39641E-002	3.93806E-001	3.57290E+000	9	...........
	9	0.133333	4.06865E-001	9.11168E-005	0.00000E+000	3.70722E-005	5.39641E-002	4.06917E-001	3.57297E+000	9	...........
	10	0.146667	4.19431E-001	9.08939E-005	0.00000E+000	3.81237E-005	5.39641E-002	4.19489E-001	3.57310E+000	9	...........
	11	0.16	4.31476E-001	9.09908E-005	0.00000E+000	3.92603E-005	5.39641E-002	4.31540E-001	3.57310E+000	9	...........
	12	0.173333	4.43047E-001	9.09564E-005	0.00000E+000	4.02980E-005	5.39641E-002	4.43104E-001	3.57310E+000	9	...........
	13	0.186667	4.54177E-001	9.09928E-005	0.00000E+000	4.13268E-005	5.39641E-002	4.54240E-001	3.57310E+000	9	...........
	14	0.2	4.64900E-001	9.09074E-005	0.00000E+000	4.22628E-005	5.39641E-002	4.64963E-001	3.57310E+000	9	...........
	15	0.213333	4.75248E-001	9.11470E-005	0.00000E+000	4.33174E-005	5.39641E-002	4.75312E-001	3.57310E+000	9	...........
	16	0.226667	4.85243E-001	9.09262E-005	0.00000E+000	4.41213E-005	5.39641E-002	4.85309E-001	3.57310E+000	9	...........
	17	0.24	4.94894E-001	9.09908E-005	0.00000E+000	4.50308E-005	5.39641E-002	4.94967E-001	3.57310E+000	9	...........
	18	0.253333	5.04250E-001	9.10376E-005	0.00000E+000	4.59057E-005	5.39641E-002	5.04325E-001	3.57310E+000	9	...........
	19	0.266667	5.13310E-001	9.07803E-005	0.00000E+000	4.65984E-005	5.39641E-002	5.13380E-001	3.57310E+000	9	...........
	20	0.28	5.22106E-001	9.07313E-005	0.00000E+000	4.73714E-005	5.39641E-002	5.22180E-001	3.57310E+000	9	...........
	21	0.293333	5.30623E-001	9.07022E-005	0.00000E+000	4.81287E-005	5.39641E-002	5.30697E-001	3.57310E+000	9	...........
	22	0.306667	5.38816E-001	9.09345E-005	0.00000E+000	4.89969E-005	5.39641E-002	5.38927E-001	3.57310E+000	9	...........
	23	0.32	5.46870E-001	9.08782E-005	0.00000E+000	4.96986E-005	5.39641E-002	5.46972E-001	3.57310E+000	9	...........
	24	0.333333	5.54693E-001	9.08439E-005	0.00000E+000	5.03904E-005	5.39641E-002	5.54800E-001	3.57310E+000	9	...........
	25	0.346667	5.62327E-001	9.11127E-005	0.00000E+000	5.12351E-005	5.39641E-002	5.62420E-001	3.57310E+000	9	...........
	26	0.36	5.69766E-001	9.10428E-005	0.00000E+000	5.18731E-005	5.39641E-002	5.69846E-001	3.57310E+000	9	...........
	27	0.373333	5.76977E-001	9.11356E-005	0.00000E+000	5.25832E-005	5.39641E-002	5.77095E-001	3.57310E+000	9	...........
	28	0.386667	5.84041E-001	9.08261E-005	0.00000E+000	5.30462E-005	5.39641E-002	5.84147E-001	3.57310E+000	9	...........
	29	0.4	5.90956E-001	9.09928E-005	0.00000E+000	5.37728E-005	5.39641E-002	5.91086E-001	3.57310E+000	9	...........
	30	0.413333	5.97705E-001	9.10460E-005	0.00000E+000	5.44186E-005	5.39641E-002	5.97805E-001	3.57310E+000	9	...........
	31	0.426667	6.04273E-001	9.10262E-005	0.00000E+000	5.50047E-005	5.39641E-002	6.04400E-001	3.57310E+000	9	...........
	32	0.44	6.10692E-001	9.11668E-005	0.00000E+000	5.56749E-005	5.39641E-002	6.10843E-001	3.57310E+000	9	...........
	33	0.453333	6.17048E-001	9.09324E-005	0.00000E+000	5.61097E-005	5.39641E-002	6.17136E-001	3.57310E+000	9	...........
	34	0.466667	6.23236E-001	9.09251E-005	0.00000E+000	5.66678E-005	5.39641E-002	6.23293E-001	3.57310E+000	9	...........
	35	0.48	6.29277E-001	9.09991E-005	0.00000E+000	5.72636E-005	5.39641E-002	6.29376E-001	3.57310E+000	9	...........
	36	0.493333	6.35187E-001	9.11950E-005	0.00000E+000	5.79259E-005	5.39641E-002	6.35278E-001	3.57310E+000	9	...........
	37	0.506667	6.41016E-001	9.11262E-005	0.00000E+000	5.84133E-005	5.39641E-002	6.41123E-001	3.57310E+000	9	...........
	38	0.52	6.46707E-001	9.10658E-005	0.00000E+000	5.88928E-005	5.39641E-002	6.46806E-001	3.57310E+000	9	...........
	39	0.533333	6.52282E-001	9.11970E-005	0.00000E+000	5.94862E-005	5.39641E-002	6.52408E-001	3.57310E+000	9	...........
	40	0.546667	6.57766E-001	9.11429E-005	0.00000E+000	5.99507E-005	5.39641E-002	6.57893E-001	3.57310E+000	9	...........
	41	0.56	6.63154E-001	9.09314E-005	0.00000E+000	6.03015E-005	5.39641E-002	6.63299E-001	3.57310E+000	9	...........
	42	0.573333	6.68504E-001	9.09553E-005	0.00000E+000	6.08040E-005	5.39641E-002	6.68630E-001	3.57310E+000	9	...........
	43	0.586667	6.73679E-001	9.07397E-005	0.00000E+000	6.11294E-005	5.39641E-002	6.73814E-001	3.57310E+000	9	...........
	44	0.6	6.78796E-001	9.08887E-005	0.00000E+000	6.16949E-005	5.39641E-002	6.78942E-001	3.57310E+000	9	...........
	45	0.613333	6.83830E-001	9.11158E-005	0.00000E+000	6.23077E-005	5.39641E-002	6.83963E-001	3.57310E+000	9	...........
	46	0.626667	6.88781E-001	9.12023E-005	0.00000E+000	6.28184E-005	5.39641E-002	6.88914E-001	3.57310E+000	9	...........
	47	0.64	6.93677E-001	9.10845E-005	0.00000E+000	6.31832E-005	5.39641E-002	6.93785E-001	3.57310E+000	9	...........
	48	0.653333	6.98466E-001	9.09491E-005	0.00000E+000	6.35248E-005	5.39641E-002	6.98604E-001	3.57310E+000	9	...........
	49	0.666667	7.03224E-001	9.08970E-005	0.00000E+000	6.39209E-005	5.39641E-002	7.03341E-001	3.57310E+000	9	...........
	50	0.68	7.07903E-001	9.11512E-005	0.00000E+000	6.45262E-005	5.39641E-002	7.08000E-001	3.57310E+000	9	...........
	51	0.693333	7.12517E-001	9.12867E-005	0.00000E+000	6.50433E-005	5.39641E-002	7.12626E-001	3.57310E+000	9	...........
	52	0.706667	7.17095E-001	9.10137E-005	0.00000E+000	6.52655E-005	5.39641E-002	7.17219E-001	3.57310E+000	9	...........
	53	0.72	7.21617E-001	9.10428E-005	0.00000E+000	6.56981E-005	5.39641E-002	7.21744E-001	3.57310E+000	9	...........
	54	0.733333	7.26052E-001	9.09251E-005	0.00000E+000	6.60164E-005	5.39641E-002	7.26161E-001	3.57310E+000	9	...........
	55	0.746667	7.30411E-001	9.11210E-005	0.00000E+000	6.65558E-005	5.39641E-002	7.30544E-001	3.57310E+000	9	...........
	56	0.76	7.34729E-001	9.11387E-005	0.00000E+000	6.69623E-005	5.39641E-002	7.34836E-001	3.57310E+000	9	...........
	57	0.773333	7.38946E-001	9.11220E-005	0.00000E+000	6.73342E-005	5.39641E-002	7.39093E-001	3.57310E+000	9	...........
	58	0.786667	7.43184E-001	9.09355E-005	0.00000E+000	6.75818E-005	5.39641E-002	7.43299E-001	3.57310E+000	9	...........
	59	0.8	7.47306E-001	9.09981E-005	0.00000E+000	6.80034E-005	5.39641E-002	7.47441E-001	3.57310E+000	9	...........
	60	0.813333	7.51410E-001	9.10574E-005	0.00000E+000	6.84215E-005	5.39641E-002	7.51535E-001	3.57310E+000	9	...........
	61	0.826667	7.55483E-001	9.09658E-005	0.00000E+000	6.87231E-005	5.39641E-002	7.55610E-001	3.57310E+000	9	...........
	62	0.84	7.59466E-001	9.09407E-005	0.00000E+000	6.90664E-005	5.39641E-002	7.59601E-001	3.57310E+000	9	...........
	63	0.853333	7.63410E-001	9.10126E-005	0.00000E+000	6.94799E-005	5.39641E-002	7.63547E-001	3.57310E+000	9	...........
	64	0.866667	7.67305E-001	9.09178E-005	0.00000E+000	6.97617E-005	5.39641E-002	7.67479E-001	3.57310E+000	9	...........
	65	0.88	7.71176E-001	9.08334E-005	0.00000E+000	7.00486E-005	5.39641E-002	7.71339E-001	3.57310E+000	9	...........
	66	0.893333	7.74980E-001	9.09001E-005	0.00000E+000	7.04458E-005	5.39641E-002	7.75125E-001	3.57310E+000	9	...........
	67	0.906667	7.78748E-001	9.09522E-005	0.00000E+000	7.08288E-005	5.39641E-002	7.78890E-001	3.57310E+000	9	...........
	68	0.92	7.82507E-001	9.12481E-005	0.00000E+000	7.14023E-005	5.39641E-002	7.82619E-001	3.57310E+000	9	...........
	69	0.933333	7.86170E-001	9.10220E-005	0.00000E+000	7.15587E-005	5.39641E-002	7.86270E-001	3.57310E+000	9	...........
	70	0.946667	7.89825E-001	9.13450E-005	0.00000E+000	7.21465E-005	5.39641E-002	7.89915E-001	3.57310E+000	9	...........
	71	0.96	7.93473E-001	9.08709E-005	0.00000E+000	7.21037E-005	5.39641E-002	7.93547E-001	3.57310E+000	9	...........
	72	0.97333	7.97036E-001	9.08532E-005	0.00000E+000	7.24133E-005	5.39641E-002	7.97086E-001	3.57310E+000	9	...........
	73	0.98667	8.00544E-001	9.09460E-005	0.00000E+000	7.28062E-005	5.39641E-002	8.00606E-001	3.57310E+000	9	...........
	74	1	8.04010E-001	9.09355E-005	0.00000E+000	7.31131E-005	5.39641E-002	8.04116E-001	3.57310E+000	9	...........
	75	1.01333	8.07442E-001	9.11627E-005	0.00000E+000	7.36086E-005	5.39641E-002	8.07570E-001	3.57310E+000	9	...........
	76	1.02667	8.10862E-001	9.10449E-005	0.00000E+000	7.38249E-005	5.39641E-002	8.10997E-001	3.57310E+000	9	...........
	77	1.04	8.14255E-001	9.09762E-005	0.00000E+000	7.40778E-005	5.39641E-002	8.14415E-001	3.57310E+000	9	...........
	78	1.05333	8.17582E-001	9.10251E-005	0.00000E+000	7.44205E-005	5.39641E-002	8.17770E-001	3.57310E+000	9	...........
	79	1.06667	8.20951E-001	9.08605E-005	0.00000E+000	7.45920E-005	5.39641E-002	8.21131E-001	3.57310E+000	9	...........
	80	1.08	8.24236E-001	9.08668E-005	0.00000E+000	7.48957E-005	5.39641E-002	8.24403E-001	3.57310E+000	9	...........
	81	1.09333	8.27460E-001	9.11283E-005	0.00000E+000	7.54050E-005	5.39641E-002	8.27623E-001	3.57310E+000	9	...........
	82	1.10667	8.30660E-001	9.10439E-005	0.00000E+000	7.56265E-005	5.39641E-002	8.30837E-001	3.57310E+000	9	...........
	83	1.12	8.33850E-001	9.09262E-005	0.00000E+000	7.58187E-005	5.39641E-002	8.34051E-001	3.57310E+000	9	...........
	84	1.13333	8.36993E-001	9.11658E-005	0.00000E+000	7.63052E-005	5.39641E-002	8.37185E-001	3.57321E+000	9	...........
	85	1.14667	8.40142E-001	9.09616E-005	0.00000E+000	7.64206E-005	5.39641E-002	8.40325E-001	3.57340E+000	9	...........
	86	1.16	8.43239E-001	9.10876E-005	0.00000E+000	7.68087E-005	5.39641E-002	8.43424E-001	3.57340E+000	9	...........
	87	1.17333	8.46335E-001	9.11335E-005	0.00000E+000	7.71295E-005	5.39641E-002	8.46497E-001	3.57340E+000	9	...........
	88	1.18667	8.49323E-001	9.10033E-005	0.00000E+000	7.72911E-005	5.39641E-002	8.49519E-001	3.57340E+000	9	...........
	89	1.2	8.52305E-001	9.09282E-005	0.00000E+000	7.74986E-005	5.39641E-002	8.52479E-001	3.57340E+000	9	...........
	90	1.21333	8.55279E-001	9.11564E-005	0.00000E+000	7.79642E-005	5.39641E-002	8.55458E-001	3.57340E+000	9	...........
	91	1.22667	8.58209E-001	9.09845E-005	0.00000E+000	7.80837E-005	5.39641E-002	8.58402E-001	3.57340E+000	9	...........
	92	1.24	8.61135E-001	9.11793E-005	0.00000E+000	7.85177E-005	5.39641E-002	8.61271E-001	3.57340E+000	9	...........
	93	1.25333	8.63987E-001	9.09439E-005	0.00000E+000	7.85743E-005	5.39641E-002	8.64149E-001	3.57340E+000	9	...........
	94	1.26667	8.66793E-001	9.09689E-005	0.00000E+000	7.88512E-005	5.39641E-002	8.66986E-001	3.57340E+000	9	...........
	95	1.28	8.69619E-001	9.08241E-005	0.00000E+000	7.89823E-005	5.39641E-002	8.69789E-001	3.57340E+000	9	...........
	96	1.29333	8.72401E-001	9.10022E-005	0.00000E+000	7.93905E-005	5.39641E-002	8.72599E-001	3.57340E+000	9	...........
	97	1.30667	8.75167E-001	9.09199E-005	0.00000E+000	7.95701E-005	5.39641E-002	8.75354E-001	3.57340E+000	9	...........
	98	1.32	8.77895E-001	9.11575E-005	0.00000E+000	8.00266E-005	5.39641E-002	8.78078E-001	3.57340E+000	9	...........
	99	1.33333	8.80594E-001	9.08084E-005	0.00000E+000	7.99654E-005	5.39641E-002	8.80783E-001	3.57340E+000	9	...........
	100	1.34667	8.83297E-001	9.10512E-005	0.00000E+000	8.04252E-005	5.39641E-002	8.83483E-001	3.57340E+000	9	...........
	101	1.36	8.85933E-001	9.09730E-005	0.00000E+000	8.05960E-005	5.39641E-002	8.86117E-001	3.57340E+000	9	...........
	102	1.37333	8.88551E-001	9.08272E-005	0.00000E+000	8.07046E-005	5.39641E-002	8.88710E-001	3.57340E+000	9	...........
	103	1.38667	8.91133E-001	9.10053E-005	0.00000E+000	8.10979E-005	5.39641E-002	8.91288E-001	3.57340E+000	9	...........
	104	1.4	8.93694E-001	9.09647E-005	0.00000E+000	8.12946E-005	5.39641E-002	8.93857E-001	3.57340E+000	9	...........
	105	1.41333	8.96244E-001	9.09001E-005	0.00000E+000	8.14687E-005	5.39641E-002	8.96434E-001	3.57340E+000	9	...........
	106	1.42667	8.98737E-001	9.11835E-005	0.00000E+000	8.19500E-005	5.39641E-002	8.98929E-001	3.57340E+000	9	...........
	107	1.44	9.01221E-001	9.12564E-005	0.00000E+000	8.22422E-005	5.39641E-002	9.01395E-001	3.57340E+000	9	...........
	108	1.45333	9.03695E-001	9.11022E-005	0.00000E+000	8.23287E-005	5.39641E-002	9.03859E-001	3.57340E+000	9	...........
	109	1.46667	9.06111E-001	9.09595E-005	0.00000E+000	8.24194E-005	5.39641E-002	9.06290E-001	3.57340E+000	9	...........
	110	1.48	9.08532E-001	9.09272E-005	0.00000E+000	8.26103E-005	5.39641E-002	9.08734E-001	3.57340E+000	9	...........
	111	1.49333	9.10916E-001	9.08928E-005	0.00000E+000	8.27957E-005	5.39641E-002	9.11064E-001	3.57340E+000	9	...........
	112	1.50667	9.13265E-001	9.09991E-005	0.00000E+000	8.31063E-005	5.39641E-002	9.13443E-001	3.57340E+000	9	...........
	113	1.52	9.15615E-001	9.11345E-005	0.00000E+000	8.34441E-005	5.39641E-002	9.15797E-001	3.57340E+000	9	...........
	114	1.53333	9.17892E-001	9.11700E-005	0.00000E+000	8.36842E-005	5.39641E-002	9.18098E-001	3.57340E+000	9	...........
	115	1.54667	9.20194E-001	9.11085E-005	0.00000E+000	8.38375E-005	5.39641E-002	9.20362E-001	3.57340E+000	9	...........
	116	1.56	9.22459E-001	9.10095E-005	0.00000E+000	8.39525E-005	5.39641E-002	9.22607E-001	3.57340E+000	9	...........
	117	1.57333	9.24643E-001	9.08376E-005	0.00000E+000	8.39924E-005	5.39641E-002	9.24828E-001	3.57340E+000	9	...........
	118	1.58667	9.26823E-001	9.10158E-005	0.00000E+000	8.43555E-005	5.39641E-002	9.27010E-001	3.57340E+000	9	...........
	119	1.6	9.28995E-001	9.10460E-005	0.00000E+000	8.45812E-005	5.39641E-002	9.29167E-001	3.57340E+000	9	...........
	120	1.61333	9.31121E-001	9.10064E-005	0.00000E+000	8.47379E-005	5.39641E-002	9.31290E-001	3.57340E+000	9	...........
	121	1.62667	9.33255E-001	9.09053E-005	0.00000E+000	8.48378E-005	5.39641E-002	9.33453E-001	3.57340E+000	9	...........
	122	1.64	9.35352E-001	9.09303E-005	0.00000E+000	8.50519E-005	5.39641E-002	9.35555E-001	3.57340E+000	9	...........
	123	1.65333	9.37432E-001	9.08063E-005	0.00000E+000	8.51247E-005	5.39641E-002	9.37629E-001	3.57340E+000	9	...........
	124	1.66667	9.39462E-001	9.07584E-005	0.00000E+000	8.52641E-005	5.39641E-002	9.39668E-001	3.57340E+000	9	...........
	125	1.68	9.41499E-001	9.13387E-005	0.00000E+000	8.59954E-005	5.39641E-002	9.41700E-001	3.57340E+000	9	...........
	126	1.69333	9.43490E-001	9.11700E-005	0.00000E+000	8.60180E-005	5.39641E-002	9.43695E-001	3.57340E+000	9	...........
	127	1.70667	9.45453E-001	9.09543E-005	0.00000E+000	8.59930E-005	5.39641E-002	9.45669E-001	3.57340E+000	9	...........
	128	1.72	9.47490E-001	9.10616E-005	0.00000E+000	8.62800E-005	5.39641E-002	9.47651E-001	3.57340E+000	9	...........
	129	1.73333	9.49426E-001	9.11637E-005	0.00000E+000	8.65532E-005	5.39641E-002	9.49593E-001	3.57340E+000	9	...........
	130	1.74667	9.51348E-001	9.06938E-005	0.00000E+000	8.62814E-005	5.39641E-002	9.51513E-001	3.57340E+000	9	...........
	131	1.76	9.53222E-001	9.10314E-005	0.00000E+000	8.67732E-005	5.39641E-002	9.53399E-001	3.57340E+000	9	...........
	132	1.77333	9.55091E-001	9.10231E-005	0.00000E+000	8.69353E-005	5.39641E-002	9.55254E-001	3.57340E+000	9	...........
	133	1.78667	9.56943E-001	9.11116E-005	0.00000E+000	8.71886E-005	5.39641E-002	9.57139E-001	3.57340E+000	9	...........
	134	1.8	9.58780E-001	9.12356E-005	0.00000E+000	8.74748E-005	5.39641E-002	9.58971E-001	3.57340E+000	9	...........
	135	1.81333	9.60606E-001	9.09783E-005	0.00000E+000	8.73943E-005	5.39641E-002	9.60813E-001	3.57340E+000	9	...........
	136	1.82667	9.62413E-001	9.10106E-005	0.00000E+000	8.75898E-005	5.39641E-002	9.62629E-001	3.57340E+000	9	...........
	137	1.84	9.64155E-001	9.08324E-005	0.00000E+000	8.75765E-005	5.39641E-002	9.64401E-001	3.57340E+000	9	...........
	138	1.85333	9.65923E-001	9.13242E-005	0.00000E+000	8.82121E-005	5.39641E-002	9.66129E-001	3.57340E+000	9	...........
	139	1.86667	9.67660E-001	9.10147E-005	0.00000E+000	8.80713E-005	5.39641E-002	9.67870E-001	3.57340E+000	9	...........
	140	1.88	9.69380E-001	9.07428E-005	0.00000E+000	8.79642E-005	5.39641E-002	9.69606E-001	3.57340E+000	9	...........
	141	1.89333	9.71094E-001	9.11085E-005	0.00000E+000	8.84749E-005	5.39641E-002	9.71329E-001	3.57340E+000	9	...........
	142	1.90667	9.72843E-001	9.08876E-005	0.00000E+000	8.84194E-005	5.39641E-002	9.73015E-001	3.57340E+000	9	...........
	143	1.92	9.74529E-001	9.07063E-005	0.00000E+000	8.83960E-005	5.39641E-002	9.74715E-001	3.57340E+000	9	...........
	144	1.93333	9.76203E-001	9.10647E-005	0.00000E+000	8.88977E-005	5.39641E-002	9.76364E-001	3.57340E+000	9	...........
	145	1.94667	9.77808E-001	9.09147E-005	0.00000E+000	8.88971E-005	5.39641E-002	9.77983E-001	3.57340E+000	9	...........
	146	1.96	9.79432E-001	9.09084E-005	0.00000E+000	8.90387E-005	5.39641E-002	9.79604E-001	3.57340E+000	9	...........
	147	1.97333	9.80988E-001	9.09658E-005	0.00000E+000	8.92363E-005	5.39641E-002	9.81188E-001	3.57340E+000	9	...........
	148	1.98667	9.82547E-001	9.07657E-005	0.00000E+000	8.91816E-005	5.39641E-002	9.82742E-001	3.57340E+000	9	...........
	149	2	9.84091E-001	9.09324E-005	0.00000E+000	8.94858E-005	5.39641E-002	9.84327E-001	3.57340E+000	9	...........
	150	2.01333	9.85659E-001	9.09605E-005	0.00000E+000	8.96561E-005	5.39641E-002	9.85876E-001	3.57340E+000	9	...........
	151	2.02667	9.87171E-001	9.10231E-005	0.00000E+000	8.98553E-005	5.39641E-002	9.87391E-001	3.57340E+000	9	...........
	152	2.04	9.88702E-001	9.11418E-005	0.00000E+000	9.01121E-005	5.39641E-002	9.88920E-001	3.57340E+000	9	...........
	153	2.05333	9.90189E-001	9.09001E-005	0.00000E+000	9.00083E-005	5.39641E-002	9.90406E-001	3.57340E+000	9	...........
	154	2.06667	9.91663E-001	9.08428E-005	0.00000E+000	9.00855E-005	5.39641E-002	9.91891E-001	3.57340E+000	9	...........
	155	2.08	9.93097E-001	9.12481E-005	0.00000E+000	9.06182E-005	5.39641E-002	9.93324E-001	3.57340E+000	9	...........
	156	2.09333	9.94535E-001	9.09772E-005	0.00000E+000	9.04800E-005	5.39641E-002	9.94764E-001	3.57340E+000	9	...........
	157	2.10667	9.95992E-001	9.07949E-005	0.00000E+000	9.04310E-005	5.39641E-002	9.96209E-001	3.57340E+000	9	...........
	158	2.12	9.97414E-001	9.09824E-005	0.00000E+000	9.07471E-005	5.39641E-002	9.97635E-001	3.57340E+000	9	...........
	159	2.13333	9.98822E-001	9.09876E-005	0.00000E+000	9.08804E-005	5.39641E-002	9.99029E-001	3.57321E+000	9	...........
	160	2.14	9.99848E-001	9.09647E-005	0.00000E+000	9.09509E-005	5.39641E-002	1.00007E+000	3.57290E+000	9	...........
STARTTIMEOFFSET	QUANT	4206.282	Start Time Offset (s)
