EXPLAIN
TAG	PWR800_CHARGE
TITLE	LABEL	PWR Cyclic Charge Discharge (Cell) - Charge Step	Test &Identifier
DATE	LABEL	10-7-2017	Date
TIME	LABEL	16:17:35	Time
NOTES	NOTES	3	&Notes...
	supercap test cell
	0.9mg
	6M KOH
PSTAT	PSTAT	IFC5000-01520	Potentiostat
CAPACITY	QUANT	1.00000E-003	Capacity (A-hr)
CELLTYPE	SELECTOR	1	&Cell Type
WORKINGCONNECTION	SELECTOR	0	&Working Lead
MAXCHARGETIME	VARIABLEANDUNITS	1.00000E+002	s	1.00000E+002	second(s)	Max &Charge Time
CHARGECURRENT	QUANT	9.00000E-005	&Charge Current (A) 
VOLTAGEFINISH	TWOPARAM	F	1.00000E-003	3.60000E+003	&Voltage Finish	 I (A) < 	Max Time(s)
SAMPLETIME	QUANT	1.00000E-002	Sa&mple Period (s)
CHARGESTOPAT1	MULTIPARAM	4	1.00000E+000	Charge Stop At &1	Voltage > Limit	V
CHARGESTOPAT2	MULTIPARAM	0	0.00000E+000	Charge Stop At &2	None	N/A
AESBHCSELECTOR	TOGGLE	F	Save Both Half Cells
IRCOMP	TOGGLE	F	IR &Measure
EOC	QUANT	0	Open Circuit (V)
SEQUENCER	TOGGLE	TRUE	Run as Sequence
PSTATMODEL	IQUANT	53	Pstat Model
PSTATSECTION	LABEL	IFC5000-01520	Pstat Section
PSTATSERIALNO	LABEL	01520	Pstat Serial Number
CTRLMODE	IQUANT	0	Control Mode
ELECTROMETER	IQUANT	1	RE=0 or CS=1
IESTAB	IQUANT	0	I/E Stability
CASPEED	IQUANT	4	Control Amp Speed
CONVENTION	IQUANT	1	Current Convention
ICHRANGE	IQUANT	2	Ich Range
ICHRANGEMODE	TOGGLE	T	Ich Auto Range
ICHOFFSETENABLE	TOGGLE	F	Ich Offset Enable
ICHOFFSET	QUANT	0	Ich Offset (V)
ICHFILTER	IQUANT	1	Ich Filter
VCHRANGE	IQUANT	2	Vch Range
VCHRANGEMODE	TOGGLE	T	Vch Auto Range
VCHOFFSETENABLE	TOGGLE	F	Vch Offset Enable
VCHOFFSET	QUANT	0	Vch Offset (V)
VCHFILTER	IQUANT	1	Vch Filter
IERANGELOWERLIMIT	IQUANT	9	I/E Range Lower Limit
IERANGEMODE	TOGGLE	F	I/E AutoRange
IERANGE	IQUANT	9	I/E Range
ACHSELECT	IQUANT	1	Ach Select
ACHRANGE	IQUANT	2	Ach Range
ACHOFFSETENABLE	TOGGLE	F	Ach Offset Enable
ACHOFFSET	QUANT	0	Ach Offset (V)
ACHFILTER	IQUANT	1	Ach Filter
CABLEID	IQUANT	14	Cable ID
DCCALDATE	LABEL	5-7-2017	DC Calibration Date
ACCALDATE	LABEL	12/3/2015	AC Calibration Date
FRAMEWORKVERSION	QUANT	7.01	Framework Version
INSTRUMENTVERSION	LABEL	4.00	Instrument Version
CURVE	TABLE	162
	Pt	T	Vf	Im	Vu	Pwr	Sig	Ach	Temp	IERange	Over
	#	s	V	A	V	W	V	V	deg C	#	bits
	0	0.013333	2.74748E-001	9.10376E-005	0.00000E+000	2.50124E-005	5.39641E-002	2.74797E-001	3.57340E+000	9	...........
	1	0.026667	2.94223E-001	9.07053E-005	0.00000E+000	2.66876E-005	5.39641E-002	2.94264E-001	3.57340E+000	9	...........
	2	0.04	3.12491E-001	9.09126E-005	0.00000E+000	2.84093E-005	5.39641E-002	3.12531E-001	3.57340E+000	9	...........
	3	0.053333	3.29704E-001	9.06042E-005	0.00000E+000	2.98726E-005	5.39641E-002	3.29751E-001	3.57340E+000	9	...........
	4	0.066667	3.45994E-001	9.09835E-005	0.00000E+000	3.14797E-005	5.39641E-002	3.46048E-001	3.57340E+000	9	...........
	5	0.08	3.61453E-001	9.10241E-005	0.00000E+000	3.29009E-005	5.39641E-002	3.61505E-001	3.57340E+000	9	...........
	6	0.093333	3.76150E-001	9.09293E-005	0.00000E+000	3.42030E-005	5.39641E-002	3.76201E-001	3.57340E+000	9	...........
	7	0.106667	3.90131E-001	9.08803E-005	0.00000E+000	3.54552E-005	5.39641E-002	3.90190E-001	3.57340E+000	9	...........
	8	0.12	4.03487E-001	9.09407E-005	0.00000E+000	3.66934E-005	5.39641E-002	4.03544E-001	3.57340E+000	9	...........
	9	0.133333	4.16240E-001	9.09918E-005	0.00000E+000	3.78745E-005	5.39641E-002	4.16296E-001	3.57340E+000	9	...........
	10	0.146667	4.28466E-001	9.08188E-005	0.00000E+000	3.89128E-005	5.39641E-002	4.28525E-001	3.57340E+000	9	...........
	11	0.16	4.40191E-001	9.09751E-005	0.00000E+000	4.00464E-005	5.39641E-002	4.40252E-001	3.57340E+000	9	...........
	12	0.173333	4.51464E-001	9.09553E-005	0.00000E+000	4.10630E-005	5.39641E-002	4.51526E-001	3.57340E+000	9	...........
	13	0.186667	4.62312E-001	9.12867E-005	0.00000E+000	4.22029E-005	5.39641E-002	4.62373E-001	3.57340E+000	9	...........
	14	0.2	4.72765E-001	9.11033E-005	0.00000E+000	4.30704E-005	5.39641E-002	4.72827E-001	3.57340E+000	9	...........
	15	0.213333	4.82845E-001	9.11752E-005	0.00000E+000	4.40235E-005	5.39641E-002	4.82911E-001	3.57340E+000	9	...........
	16	0.226667	4.92586E-001	9.07824E-005	0.00000E+000	4.47181E-005	5.39641E-002	4.92653E-001	3.57340E+000	9	...........
	17	0.24	5.02002E-001	9.08293E-005	0.00000E+000	4.55965E-005	5.39641E-002	5.02074E-001	3.57340E+000	9	...........
	18	0.253333	5.11118E-001	9.09376E-005	0.00000E+000	4.64799E-005	5.39641E-002	5.11194E-001	3.57340E+000	9	...........
	19	0.266667	5.19955E-001	9.07355E-005	0.00000E+000	4.71784E-005	5.39641E-002	5.20029E-001	3.57340E+000	9	...........
	20	0.28	5.28521E-001	9.08689E-005	0.00000E+000	4.80261E-005	5.39641E-002	5.28598E-001	3.57340E+000	9	...........
	21	0.293333	5.36749E-001	9.09960E-005	0.00000E+000	4.88420E-005	5.39641E-002	5.36834E-001	3.57340E+000	9	...........
	22	0.306667	5.44844E-001	9.13200E-005	0.00000E+000	4.97552E-005	5.39641E-002	5.44921E-001	3.57340E+000	9	...........
	23	0.32	5.52687E-001	9.09605E-005	0.00000E+000	5.02727E-005	5.39641E-002	5.52785E-001	3.57340E+000	9	...........
	24	0.333333	5.60300E-001	9.10824E-005	0.00000E+000	5.10335E-005	5.39641E-002	5.60430E-001	3.57340E+000	9	...........
	25	0.346667	5.67796E-001	9.08157E-005	0.00000E+000	5.15648E-005	5.39641E-002	5.67880E-001	3.57340E+000	9	...........
	26	0.36	5.75033E-001	9.10929E-005	0.00000E+000	5.23814E-005	5.39641E-002	5.75125E-001	3.57340E+000	9	...........
	27	0.373333	5.82115E-001	9.09855E-005	0.00000E+000	5.29641E-005	5.39641E-002	5.82218E-001	3.57340E+000	9	...........
	28	0.386667	5.89038E-001	9.11137E-005	0.00000E+000	5.36694E-005	5.39641E-002	5.89147E-001	3.57340E+000	9	...........
	29	0.4	5.95808E-001	9.11929E-005	0.00000E+000	5.43334E-005	5.39641E-002	5.95926E-001	3.57340E+000	9	...........
	30	0.413333	6.02388E-001	9.07813E-005	0.00000E+000	5.46856E-005	5.39641E-002	6.02518E-001	3.57340E+000	9	...........
	31	0.426667	6.08820E-001	9.10303E-005	0.00000E+000	5.54211E-005	5.39641E-002	6.08944E-001	3.57340E+000	9	...........
	32	0.44	6.15181E-001	9.09991E-005	0.00000E+000	5.59809E-005	5.39641E-002	6.15288E-001	3.57340E+000	9	...........
	33	0.453333	6.21364E-001	9.07605E-005	0.00000E+000	5.63953E-005	5.39641E-002	6.21444E-001	3.57340E+000	9	...........
	34	0.466667	6.27417E-001	9.09908E-005	0.00000E+000	5.70892E-005	5.39641E-002	6.27491E-001	3.57340E+000	9	...........
	35	0.48	6.33333E-001	9.08730E-005	0.00000E+000	5.75529E-005	5.39641E-002	6.33424E-001	3.57340E+000	9	...........
	36	0.493333	6.39181E-001	9.08022E-005	0.00000E+000	5.80391E-005	5.39641E-002	6.39263E-001	3.57340E+000	9	...........
	37	0.506667	6.44875E-001	9.09960E-005	0.00000E+000	5.86810E-005	5.39641E-002	6.44986E-001	3.57340E+000	9	...........
	38	0.52	6.50468E-001	9.10647E-005	0.00000E+000	5.92347E-005	5.39641E-002	6.50578E-001	3.57340E+000	9	...........
	39	0.533333	6.55974E-001	9.11304E-005	0.00000E+000	5.97791E-005	5.39641E-002	6.56072E-001	3.57340E+000	9	...........
	40	0.546667	6.61380E-001	9.10626E-005	0.00000E+000	6.02270E-005	5.39641E-002	6.61468E-001	3.57340E+000	9	...........
	41	0.56	6.66689E-001	9.12585E-005	0.00000E+000	6.08411E-005	5.39641E-002	6.66829E-001	3.57340E+000	9	...........
	42	0.573333	6.71910E-001	9.09605E-005	0.00000E+000	6.11173E-005	5.39641E-002	6.72054E-001	3.57340E+000	9	...........
	43	0.586667	6.77055E-001	9.09095E-005	0.00000E+000	6.15508E-005	5.39641E-002	6.77153E-001	3.57340E+000	9	...........
	44	0.6	6.82069E-001	9.08793E-005	0.00000E+000	6.19859E-005	5.39641E-002	6.82203E-001	3.57340E+000	9	...........
	45	0.613333	6.87032E-001	9.08272E-005	0.00000E+000	6.24011E-005	5.39641E-002	6.87138E-001	3.57340E+000	9	...........
	46	0.626667	6.91901E-001	9.12939E-005	0.00000E+000	6.31664E-005	5.39641E-002	6.92024E-001	3.57340E+000	9	...........
	47	0.64	6.96708E-001	9.10845E-005	0.00000E+000	6.34593E-005	5.39641E-002	6.96835E-001	3.57340E+000	9	...........
	48	0.653333	7.01458E-001	9.08230E-005	0.00000E+000	6.37085E-005	5.39641E-002	7.01565E-001	3.57340E+000	9	...........
	49	0.666667	7.06107E-001	9.10210E-005	0.00000E+000	6.42706E-005	5.39641E-002	7.06228E-001	3.57340E+000	9	...........
	50	0.68	7.10682E-001	9.12262E-005	0.00000E+000	6.48328E-005	5.39641E-002	7.10846E-001	3.57340E+000	9	...........
	51	0.693333	7.15233E-001	9.10616E-005	0.00000E+000	6.51303E-005	5.39641E-002	7.15393E-001	3.57340E+000	9	...........
	52	0.706667	7.19779E-001	9.09699E-005	0.00000E+000	6.54782E-005	5.39641E-002	7.19873E-001	3.57380E+000	9	...........
	53	0.72	7.24177E-001	9.08480E-005	0.00000E+000	6.57900E-005	5.39641E-002	7.24290E-001	3.57420E+000	9	...........
	54	0.733333	7.28517E-001	9.08866E-005	0.00000E+000	6.62124E-005	5.39641E-002	7.28644E-001	3.57420E+000	9	...........
	55	0.746667	7.32806E-001	9.12043E-005	0.00000E+000	6.68351E-005	5.39641E-002	7.32924E-001	3.57420E+000	9	...........
	56	0.76	7.37033E-001	9.11523E-005	0.00000E+000	6.71822E-005	5.39641E-002	7.37161E-001	3.57420E+000	9	...........
	57	0.773333	7.41228E-001	9.10210E-005	0.00000E+000	6.74673E-005	5.39641E-002	7.41336E-001	3.57420E+000	9	...........
	58	0.786667	7.45361E-001	9.09699E-005	0.00000E+000	6.78054E-005	5.39641E-002	7.45455E-001	3.57420E+000	9	...........
	59	0.8	7.49445E-001	9.09605E-005	0.00000E+000	6.81699E-005	5.39641E-002	7.49536E-001	3.57420E+000	9	...........
	60	0.813333	7.53480E-001	9.09803E-005	0.00000E+000	6.85519E-005	5.39641E-002	7.53561E-001	3.57420E+000	9	...........
	61	0.826667	7.57466E-001	9.09897E-005	0.00000E+000	6.89216E-005	5.39641E-002	7.57526E-001	3.57420E+000	9	...........
	62	0.84	7.61378E-001	9.09501E-005	0.00000E+000	6.92474E-005	5.39641E-002	7.61471E-001	3.57420E+000	9	...........
	63	0.853333	7.65283E-001	9.10022E-005	0.00000E+000	6.96425E-005	5.39641E-002	7.65390E-001	3.57420E+000	9	...........
	64	0.866667	7.69162E-001	9.11585E-005	0.00000E+000	7.01156E-005	5.39641E-002	7.69256E-001	3.57420E+000	9	...........
	65	0.88	7.72957E-001	9.10095E-005	0.00000E+000	7.03464E-005	5.39641E-002	7.73086E-001	3.57420E+000	9	...........
	66	0.893333	7.76706E-001	9.11877E-005	0.00000E+000	7.08260E-005	5.39641E-002	7.76824E-001	3.57420E+000	9	...........
	67	0.906667	7.80425E-001	9.09689E-005	0.00000E+000	7.09944E-005	5.39641E-002	7.80565E-001	3.57420E+000	9	...........
	68	0.92	7.84105E-001	9.10022E-005	0.00000E+000	7.13553E-005	5.39641E-002	7.84210E-001	3.57420E+000	9	...........
	69	0.933333	7.87736E-001	9.09897E-005	0.00000E+000	7.16759E-005	5.39641E-002	7.87849E-001	3.57420E+000	9	...........
	70	0.946667	7.91319E-001	9.10647E-005	0.00000E+000	7.20612E-005	5.39641E-002	7.91450E-001	3.57420E+000	9	...........
	71	0.96	7.94926E-001	9.08887E-005	0.00000E+000	7.22498E-005	5.39641E-002	7.95037E-001	3.57420E+000	9	...........
	72	0.97333	7.98470E-001	9.09553E-005	0.00000E+000	7.26251E-005	5.39641E-002	7.98553E-001	3.57420E+000	9	...........
	73	0.98667	8.01938E-001	9.09605E-005	0.00000E+000	7.29447E-005	5.39641E-002	8.02055E-001	3.57420E+000	9	...........
	74	1	8.05372E-001	9.12085E-005	0.00000E+000	7.34567E-005	5.39641E-002	8.05517E-001	3.57420E+000	9	...........
	75	1.01333	8.08752E-001	9.10376E-005	0.00000E+000	7.36268E-005	5.39641E-002	8.08890E-001	3.57420E+000	9	...........
	76	1.02667	8.12100E-001	9.09178E-005	0.00000E+000	7.38344E-005	5.39641E-002	8.12256E-001	3.57420E+000	9	...........
	77	1.04	8.15412E-001	9.09647E-005	0.00000E+000	7.41737E-005	5.39641E-002	8.15577E-001	3.57420E+000	9	...........
	78	1.05333	8.18730E-001	9.09908E-005	0.00000E+000	7.44969E-005	5.39641E-002	8.18885E-001	3.57420E+000	9	...........
	79	1.06667	8.21965E-001	9.09126E-005	0.00000E+000	7.47270E-005	5.39641E-002	8.22142E-001	3.57420E+000	9	...........
	80	1.08	8.25216E-001	9.10553E-005	0.00000E+000	7.51404E-005	5.39641E-002	8.25400E-001	3.57420E+000	9	...........
	81	1.09333	8.28371E-001	9.09939E-005	0.00000E+000	7.53767E-005	5.39641E-002	8.28550E-001	3.57420E+000	9	...........
	82	1.10667	8.31522E-001	9.09334E-005	0.00000E+000	7.56132E-005	5.39641E-002	8.31716E-001	3.57420E+000	9	...........
	83	1.12	8.34635E-001	9.11366E-005	0.00000E+000	7.60658E-005	5.39641E-002	8.34838E-001	3.57420E+000	9	...........
	84	1.13333	8.37700E-001	9.10001E-005	0.00000E+000	7.62308E-005	5.39641E-002	8.37893E-001	3.57420E+000	9	...........
	85	1.14667	8.40777E-001	9.09032E-005	0.00000E+000	7.64294E-005	5.39641E-002	8.40958E-001	3.57420E+000	9	...........
	86	1.16	8.43843E-001	9.09574E-005	0.00000E+000	7.67538E-005	5.39641E-002	8.44022E-001	3.57420E+000	9	...........
	87	1.17333	8.46867E-001	9.08668E-005	0.00000E+000	7.69521E-005	5.39641E-002	8.47047E-001	3.57420E+000	9	...........
	88	1.18667	8.49839E-001	9.09095E-005	0.00000E+000	7.72585E-005	5.39641E-002	8.50031E-001	3.57420E+000	9	...........
	89	1.2	8.52797E-001	9.10887E-005	0.00000E+000	7.76801E-005	5.39641E-002	8.52976E-001	3.57420E+000	9	...........
	90	1.21333	8.55700E-001	9.10887E-005	0.00000E+000	7.79446E-005	5.39641E-002	8.55869E-001	3.57420E+000	9	...........
	91	1.22667	8.58588E-001	9.10595E-005	0.00000E+000	7.81826E-005	5.39641E-002	8.58769E-001	3.57420E+000	9	...........
	92	1.24	8.61459E-001	9.10376E-005	0.00000E+000	7.84252E-005	5.39641E-002	8.61594E-001	3.57420E+000	9	...........
	93	1.25333	8.64260E-001	9.11325E-005	0.00000E+000	7.87621E-005	5.39641E-002	8.64422E-001	3.57420E+000	9	...........
	94	1.26667	8.67071E-001	9.10751E-005	0.00000E+000	7.89686E-005	5.39641E-002	8.67209E-001	3.57420E+000	9	...........
	95	1.28	8.69848E-001	9.10762E-005	0.00000E+000	7.92224E-005	5.39641E-002	8.69999E-001	3.57420E+000	9	...........
	96	1.29333	8.72580E-001	9.09574E-005	0.00000E+000	7.93676E-005	5.39641E-002	8.72767E-001	3.57420E+000	9	...........
	97	1.30667	8.75284E-001	9.10158E-005	0.00000E+000	7.96646E-005	5.39641E-002	8.75489E-001	3.57420E+000	9	...........
	98	1.32	8.77965E-001	9.10137E-005	0.00000E+000	7.99068E-005	5.39641E-002	8.78128E-001	3.57420E+000	9	...........
	99	1.33333	8.80606E-001	9.09939E-005	0.00000E+000	8.01297E-005	5.39641E-002	8.80798E-001	3.57420E+000	9	...........
	100	1.34667	8.83230E-001	9.12731E-005	0.00000E+000	8.06152E-005	5.39641E-002	8.83431E-001	3.57420E+000	9	...........
	101	1.36	8.85845E-001	9.10210E-005	0.00000E+000	8.06305E-005	5.39641E-002	8.86042E-001	3.57420E+000	9	...........
	102	1.37333	8.88401E-001	9.10231E-005	0.00000E+000	8.08650E-005	5.39641E-002	8.88601E-001	3.57420E+000	9	...........
	103	1.38667	8.90942E-001	9.11668E-005	0.00000E+000	8.12244E-005	5.39641E-002	8.91118E-001	3.57420E+000	9	...........
	104	1.4	8.93478E-001	9.09897E-005	0.00000E+000	8.12973E-005	5.39641E-002	8.93657E-001	3.57420E+000	9	...........
	105	1.41333	8.95984E-001	9.10293E-005	0.00000E+000	8.15608E-005	5.39641E-002	8.96184E-001	3.57420E+000	9	...........
	106	1.42667	8.98443E-001	9.09397E-005	0.00000E+000	8.17042E-005	5.39641E-002	8.98620E-001	3.57420E+000	9	...........
	107	1.44	9.00906E-001	9.10501E-005	0.00000E+000	8.20276E-005	5.39641E-002	9.01083E-001	3.57420E+000	9	...........
	108	1.45333	9.03320E-001	9.08845E-005	0.00000E+000	8.20978E-005	5.39641E-002	9.03505E-001	3.57420E+000	9	...........
	109	1.46667	9.05710E-001	9.13460E-005	0.00000E+000	8.27330E-005	5.39641E-002	9.05904E-001	3.57420E+000	9	...........
	110	1.48	9.08087E-001	9.11074E-005	0.00000E+000	8.27335E-005	5.39641E-002	9.08302E-001	3.57420E+000	9	...........
	111	1.49333	9.10437E-001	9.08491E-005	0.00000E+000	8.27123E-005	5.39641E-002	9.10624E-001	3.57420E+000	9	...........
	112	1.50667	9.12748E-001	9.12491E-005	0.00000E+000	8.32874E-005	5.39641E-002	9.12945E-001	3.57420E+000	9	...........
	113	1.52	9.15041E-001	9.10845E-005	0.00000E+000	8.33461E-005	5.39641E-002	9.15250E-001	3.57420E+000	9	...........
	114	1.53333	9.17300E-001	9.10533E-005	0.00000E+000	8.35232E-005	5.39641E-002	9.17509E-001	3.57420E+000	9	...........
	115	1.54667	9.19533E-001	9.09845E-005	0.00000E+000	8.36632E-005	5.39641E-002	9.19740E-001	3.57420E+000	9	...........
	116	1.56	9.21822E-001	9.09762E-005	0.00000E+000	8.38639E-005	5.39641E-002	9.21965E-001	3.57420E+000	9	...........
	117	1.57333	9.24010E-001	9.10387E-005	0.00000E+000	8.41207E-005	5.39641E-002	9.24155E-001	3.57420E+000	9	...........
	118	1.58667	9.26156E-001	9.10824E-005	0.00000E+000	8.43566E-005	5.39641E-002	9.26328E-001	3.57420E+000	9	...........
	119	1.6	9.28341E-001	9.09282E-005	0.00000E+000	8.44124E-005	5.39641E-002	9.28451E-001	3.57420E+000	9	...........
	120	1.61333	9.30445E-001	9.11314E-005	0.00000E+000	8.47928E-005	5.39641E-002	9.30560E-001	3.57420E+000	9	...........
	121	1.62667	9.32530E-001	9.08918E-005	0.00000E+000	8.47593E-005	5.39641E-002	9.32652E-001	3.57420E+000	9	...........
	122	1.64	9.34627E-001	9.08564E-005	0.00000E+000	8.49168E-005	5.39641E-002	9.34773E-001	3.57420E+000	9	...........
	123	1.65333	9.36665E-001	9.08636E-005	0.00000E+000	8.51088E-005	5.39641E-002	9.36823E-001	3.57420E+000	9	...........
	124	1.66667	9.38670E-001	9.11377E-005	0.00000E+000	8.55482E-005	5.39641E-002	9.38863E-001	3.57420E+000	9	...........
	125	1.68	9.40692E-001	9.11585E-005	0.00000E+000	8.57520E-005	5.39641E-002	9.40864E-001	3.57420E+000	9	...........
	126	1.69333	9.42650E-001	9.10366E-005	0.00000E+000	8.58156E-005	5.39641E-002	9.42819E-001	3.57420E+000	9	...........
	127	1.70667	9.44599E-001	9.09616E-005	0.00000E+000	8.59222E-005	5.39641E-002	9.44781E-001	3.57350E+000	9	...........
	128	1.72	9.46569E-001	9.10856E-005	0.00000E+000	8.62188E-005	5.39641E-002	9.46739E-001	3.57280E+000	9	...........
	129	1.73333	9.48508E-001	9.09876E-005	0.00000E+000	8.63025E-005	5.39641E-002	9.48681E-001	3.57280E+000	9	...........
	130	1.74667	9.50391E-001	9.09428E-005	0.00000E+000	8.64313E-005	5.39641E-002	9.50575E-001	3.57280E+000	9	...........
	131	1.76	9.52267E-001	9.08386E-005	0.00000E+000	8.65027E-005	5.39641E-002	9.52450E-001	3.57280E+000	9	...........
	132	1.77333	9.54127E-001	9.11898E-005	0.00000E+000	8.70066E-005	5.39641E-002	9.54285E-001	3.57280E+000	9	...........
	133	1.78667	9.55930E-001	9.10001E-005	0.00000E+000	8.69897E-005	5.39641E-002	9.56091E-001	3.57280E+000	9	...........
	134	1.8	9.57729E-001	9.12085E-005	0.00000E+000	8.73531E-005	5.39641E-002	9.57905E-001	3.57280E+000	9	...........
	135	1.81333	9.59499E-001	9.10845E-005	0.00000E+000	8.73955E-005	5.39641E-002	9.59694E-001	3.57280E+000	9	...........
	136	1.82667	9.61269E-001	9.09157E-005	0.00000E+000	8.73945E-005	5.39641E-002	9.61500E-001	3.57280E+000	9	...........
	137	1.84	9.63037E-001	9.12346E-005	0.00000E+000	8.78623E-005	5.39641E-002	9.63256E-001	3.57280E+000	9	...........
	138	1.85333	9.64783E-001	9.08574E-005	0.00000E+000	8.76577E-005	5.39641E-002	9.64988E-001	3.57280E+000	9	...........
	139	1.86667	9.66527E-001	9.11408E-005	0.00000E+000	8.80901E-005	5.39641E-002	9.66698E-001	3.57280E+000	9	...........
	140	1.88	9.68213E-001	9.10689E-005	0.00000E+000	8.81741E-005	5.39641E-002	9.68418E-001	3.57280E+000	9	...........
	141	1.89333	9.69912E-001	9.09314E-005	0.00000E+000	8.81955E-005	5.39641E-002	9.70128E-001	3.57280E+000	9	...........
	142	1.90667	9.71564E-001	9.08386E-005	0.00000E+000	8.82556E-005	5.39641E-002	9.71814E-001	3.57280E+000	9	...........
	143	1.92	9.73260E-001	9.08334E-005	0.00000E+000	8.84045E-005	5.39641E-002	9.73438E-001	3.57280E+000	9	...........
	144	1.93333	9.74873E-001	9.07199E-005	0.00000E+000	8.84403E-005	5.39641E-002	9.75070E-001	3.57280E+000	9	...........
	145	1.94667	9.76482E-001	9.08887E-005	0.00000E+000	8.87512E-005	5.39641E-002	9.76704E-001	3.57280E+000	9	...........
	146	1.96	9.78118E-001	9.11012E-005	0.00000E+000	8.91077E-005	5.39641E-002	9.78305E-001	3.57280E+000	9	...........
	147	1.97333	9.79682E-001	9.07501E-005	0.00000E+000	8.89062E-005	5.39641E-002	9.79861E-001	3.57280E+000	9	...........
	148	1.98667	9.81210E-001	9.08626E-005	0.00000E+000	8.91553E-005	5.39641E-002	9.81393E-001	3.57280E+000	9	...........
	149	2	9.82737E-001	9.09241E-005	0.00000E+000	8.93545E-005	5.39641E-002	9.82935E-001	3.57280E+000	9	...........
	150	2.01333	9.84285E-001	9.11199E-005	0.00000E+000	8.96880E-005	5.39641E-002	9.84491E-001	3.57280E+000	9	...........
	151	2.02667	9.85812E-001	9.08814E-005	0.00000E+000	8.95919E-005	5.39641E-002	9.86025E-001	3.57280E+000	9	...........
	152	2.04	9.87315E-001	9.11512E-005	0.00000E+000	8.99950E-005	5.39641E-002	9.87532E-001	3.57280E+000	9	...........
	153	2.05333	9.88838E-001	9.10126E-005	0.00000E+000	8.99968E-005	5.39641E-002	9.89034E-001	3.57280E+000	9	...........
	154	2.06667	9.90300E-001	9.09543E-005	0.00000E+000	9.00720E-005	5.39641E-002	9.90497E-001	3.57280E+000	9	...........
	155	2.08	9.91748E-001	9.10345E-005	0.00000E+000	9.02833E-005	5.39641E-002	9.91952E-001	3.57280E+000	9	...........
	156	2.09333	9.93171E-001	9.09720E-005	0.00000E+000	9.03508E-005	5.39641E-002	9.93391E-001	3.57280E+000	9	...........
	157	2.10667	9.94578E-001	9.11116E-005	0.00000E+000	9.06176E-005	5.39641E-002	9.94821E-001	3.57280E+000	9	...........
	158	2.12	9.95973E-001	9.09262E-005	0.00000E+000	9.05600E-005	5.39641E-002	9.96215E-001	3.57280E+000	9	...........
	159	2.13333	9.97363E-001	9.07636E-005	0.00000E+000	9.05242E-005	5.39641E-002	9.97631E-001	3.57280E+000	9	...........
	160	2.14667	9.98736E-001	9.08188E-005	0.00000E+000	9.07040E-005	5.39641E-002	9.99007E-001	3.57280E+000	9	...........
	161	2.15333	9.99763E-001	9.11356E-005	0.00000E+000	9.11140E-005	5.39641E-002	1.00001E+000	3.57280E+000	9	...........
STARTTIMEOFFSET	QUANT	3940.677	Start Time Offset (s)
