EXPLAIN
TAG	PWR800_CHARGE
TITLE	LABEL	PWR Cyclic Charge Discharge (Cell) - Charge Step	Test &Identifier
DATE	LABEL	10-7-2017	Date
TIME	LABEL	15:12:48	Time
NOTES	NOTES	3	&Notes...
	supercap test cell
	0.9mg
	6M KOH
PSTAT	PSTAT	IFC5000-01520	Potentiostat
CAPACITY	QUANT	1.00000E-003	Capacity (A-hr)
CELLTYPE	SELECTOR	1	&Cell Type
WORKINGCONNECTION	SELECTOR	0	&Working Lead
MAXCHARGETIME	VARIABLEANDUNITS	1.00000E+002	s	1.00000E+002	second(s)	Max &Charge Time
CHARGECURRENT	QUANT	9.00000E-005	&Charge Current (A) 
VOLTAGEFINISH	TWOPARAM	F	1.00000E-003	3.60000E+003	&Voltage Finish	 I (A) < 	Max Time(s)
SAMPLETIME	QUANT	1.00000E-002	Sa&mple Period (s)
CHARGESTOPAT1	MULTIPARAM	4	1.00000E+000	Charge Stop At &1	Voltage > Limit	V
CHARGESTOPAT2	MULTIPARAM	0	0.00000E+000	Charge Stop At &2	None	N/A
AESBHCSELECTOR	TOGGLE	F	Save Both Half Cells
IRCOMP	TOGGLE	F	IR &Measure
EOC	QUANT	0	Open Circuit (V)
SEQUENCER	TOGGLE	TRUE	Run as Sequence
PSTATMODEL	IQUANT	53	Pstat Model
PSTATSECTION	LABEL	IFC5000-01520	Pstat Section
PSTATSERIALNO	LABEL	01520	Pstat Serial Number
CTRLMODE	IQUANT	0	Control Mode
ELECTROMETER	IQUANT	1	RE=0 or CS=1
IESTAB	IQUANT	0	I/E Stability
CASPEED	IQUANT	4	Control Amp Speed
CONVENTION	IQUANT	1	Current Convention
ICHRANGE	IQUANT	2	Ich Range
ICHRANGEMODE	TOGGLE	T	Ich Auto Range
ICHOFFSETENABLE	TOGGLE	F	Ich Offset Enable
ICHOFFSET	QUANT	0	Ich Offset (V)
ICHFILTER	IQUANT	1	Ich Filter
VCHRANGE	IQUANT	2	Vch Range
VCHRANGEMODE	TOGGLE	T	Vch Auto Range
VCHOFFSETENABLE	TOGGLE	F	Vch Offset Enable
VCHOFFSET	QUANT	0	Vch Offset (V)
VCHFILTER	IQUANT	1	Vch Filter
IERANGELOWERLIMIT	IQUANT	9	I/E Range Lower Limit
IERANGEMODE	TOGGLE	F	I/E AutoRange
IERANGE	IQUANT	9	I/E Range
ACHSELECT	IQUANT	1	Ach Select
ACHRANGE	IQUANT	2	Ach Range
ACHOFFSETENABLE	TOGGLE	F	Ach Offset Enable
ACHOFFSET	QUANT	0	Ach Offset (V)
ACHFILTER	IQUANT	1	Ach Filter
CABLEID	IQUANT	14	Cable ID
DCCALDATE	LABEL	5-7-2017	DC Calibration Date
ACCALDATE	LABEL	12/3/2015	AC Calibration Date
FRAMEWORKVERSION	QUANT	7.01	Framework Version
INSTRUMENTVERSION	LABEL	4.00	Instrument Version
CURVE	TABLE	182
	Pt	T	Vf	Im	Vu	Pwr	Sig	Ach	Temp	IERange	Over
	#	s	V	A	V	W	V	V	deg C	#	bits
	0	0.013333	2.93797E-001	9.09043E-005	0.00000E+000	2.67074E-005	5.39641E-002	2.93852E-001	3.57200E+000	9	...........
	1	0.026667	3.12861E-001	9.12773E-005	0.00000E+000	2.85571E-005	5.39641E-002	3.12899E-001	3.57200E+000	9	...........
	2	0.04	3.30440E-001	9.07845E-005	0.00000E+000	2.99988E-005	5.39641E-002	3.30479E-001	3.57200E+000	9	...........
	3	0.053333	3.46827E-001	9.11491E-005	0.00000E+000	3.16130E-005	5.39641E-002	3.46861E-001	3.57200E+000	9	...........
	4	0.066667	3.62202E-001	9.10929E-005	0.00000E+000	3.29940E-005	5.39641E-002	3.62244E-001	3.57200E+000	9	...........
	5	0.08	3.76710E-001	9.08855E-005	0.00000E+000	3.42375E-005	5.39641E-002	3.76751E-001	3.57200E+000	9	...........
	6	0.093333	3.90462E-001	9.08689E-005	0.00000E+000	3.54808E-005	5.39641E-002	3.90497E-001	3.57200E+000	9	...........
	7	0.106667	4.03530E-001	9.09522E-005	0.00000E+000	3.67019E-005	5.39641E-002	4.03570E-001	3.57200E+000	9	...........
	8	0.12	4.15989E-001	9.12106E-005	0.00000E+000	3.79426E-005	5.39641E-002	4.16039E-001	3.57200E+000	9	...........
	9	0.133333	4.27917E-001	9.10147E-005	0.00000E+000	3.89468E-005	5.39641E-002	4.27969E-001	3.57200E+000	9	...........
	10	0.146667	4.39350E-001	9.11762E-005	0.00000E+000	4.00583E-005	5.39641E-002	4.39403E-001	3.57200E+000	9	...........
	11	0.16	4.50337E-001	9.13075E-005	0.00000E+000	4.11191E-005	5.39641E-002	4.50392E-001	3.57200E+000	9	...........
	12	0.173333	4.60922E-001	9.10314E-005	0.00000E+000	4.19584E-005	5.39641E-002	4.60969E-001	3.57200E+000	9	...........
	13	0.186667	4.71116E-001	9.13137E-005	0.00000E+000	4.30194E-005	5.39641E-002	4.71166E-001	3.57200E+000	9	...........
	14	0.2	4.80961E-001	9.06772E-005	0.00000E+000	4.36122E-005	5.39641E-002	4.81019E-001	3.57200E+000	9	...........
	15	0.213333	4.90475E-001	9.10418E-005	0.00000E+000	4.46538E-005	5.39641E-002	4.90526E-001	3.57200E+000	9	...........
	16	0.226667	4.99690E-001	9.11262E-005	0.00000E+000	4.55348E-005	5.39641E-002	4.99752E-001	3.57200E+000	9	...........
	17	0.24	5.08615E-001	9.11064E-005	0.00000E+000	4.63381E-005	5.39641E-002	5.08679E-001	3.57200E+000	9	...........
	18	0.253333	5.17260E-001	9.09741E-005	0.00000E+000	4.70572E-005	5.39641E-002	5.17317E-001	3.57200E+000	9	...........
	19	0.266667	5.25656E-001	9.10439E-005	0.00000E+000	4.78578E-005	5.39641E-002	5.25718E-001	3.57200E+000	9	...........
	20	0.28	5.33775E-001	9.11085E-005	0.00000E+000	4.86314E-005	5.39641E-002	5.33857E-001	3.57200E+000	9	...........
	21	0.293333	5.41707E-001	9.11929E-005	0.00000E+000	4.93998E-005	5.39641E-002	5.41792E-001	3.57200E+000	9	...........
	22	0.306667	5.49411E-001	9.11377E-005	0.00000E+000	5.00720E-005	5.39641E-002	5.49500E-001	3.57200E+000	9	...........
	23	0.32	5.56946E-001	9.12606E-005	0.00000E+000	5.08272E-005	5.39641E-002	5.57034E-001	3.57200E+000	9	...........
	24	0.333333	5.64275E-001	9.10991E-005	0.00000E+000	5.14049E-005	5.39641E-002	5.64407E-001	3.57200E+000	9	...........
	25	0.346667	5.71458E-001	9.12502E-005	0.00000E+000	5.21456E-005	5.39641E-002	5.71555E-001	3.57200E+000	9	...........
	26	0.36	5.78429E-001	9.08887E-005	0.00000E+000	5.25726E-005	5.39641E-002	5.78563E-001	3.57200E+000	9	...........
	27	0.373333	5.85263E-001	9.09647E-005	0.00000E+000	5.32383E-005	5.39641E-002	5.85366E-001	3.57200E+000	9	...........
	28	0.386667	5.91959E-001	9.12408E-005	0.00000E+000	5.40108E-005	5.39641E-002	5.92057E-001	3.57200E+000	9	...........
	29	0.4	5.98451E-001	9.11960E-005	0.00000E+000	5.45764E-005	5.39641E-002	5.98557E-001	3.57200E+000	9	...........
	30	0.413333	6.04817E-001	9.13002E-005	0.00000E+000	5.52199E-005	5.39641E-002	6.04932E-001	3.57200E+000	9	...........
	31	0.426667	6.10997E-001	9.12950E-005	0.00000E+000	5.57810E-005	5.39641E-002	6.11154E-001	3.57200E+000	9	...........
	32	0.44	6.17156E-001	9.10439E-005	0.00000E+000	5.61883E-005	5.39641E-002	6.17229E-001	3.57200E+000	9	...........
	33	0.453333	6.23082E-001	9.11293E-005	0.00000E+000	5.67810E-005	5.39641E-002	6.23153E-001	3.57200E+000	9	...........
	34	0.466667	6.28919E-001	9.10845E-005	0.00000E+000	5.72848E-005	5.39641E-002	6.29001E-001	3.57200E+000	9	...........
	35	0.48	6.34618E-001	9.12408E-005	0.00000E+000	5.79031E-005	5.39641E-002	6.34724E-001	3.57200E+000	9	...........
	36	0.493333	6.40252E-001	9.09970E-005	0.00000E+000	5.82610E-005	5.39641E-002	6.40353E-001	3.57200E+000	9	...........
	37	0.506667	6.45758E-001	9.11179E-005	0.00000E+000	5.88401E-005	5.39641E-002	6.45861E-001	3.57200E+000	9	...........
	38	0.52	6.51140E-001	9.12387E-005	0.00000E+000	5.94092E-005	5.39641E-002	6.51263E-001	3.57200E+000	9	...........
	39	0.533333	6.56444E-001	9.11137E-005	0.00000E+000	5.98110E-005	5.39641E-002	6.56541E-001	3.57200E+000	9	...........
	40	0.546667	6.61621E-001	9.09918E-005	0.00000E+000	6.02021E-005	5.39641E-002	6.61719E-001	3.57200E+000	9	...........
	41	0.56	6.66739E-001	9.15940E-005	0.00000E+000	6.10693E-005	5.39641E-002	6.66832E-001	3.57200E+000	9	...........
	42	0.573333	6.71767E-001	9.11335E-005	0.00000E+000	6.12205E-005	5.39641E-002	6.71832E-001	3.57200E+000	9	...........
	43	0.586667	6.76682E-001	9.10877E-005	0.00000E+000	6.16373E-005	5.39641E-002	6.76745E-001	3.57200E+000	9	...........
	44	0.6	6.81486E-001	9.12148E-005	0.00000E+000	6.21616E-005	5.39641E-002	6.81593E-001	3.57200E+000	9	...........
	45	0.613333	6.86226E-001	9.12241E-005	0.00000E+000	6.26004E-005	5.39641E-002	6.86305E-001	3.57200E+000	9	...........
	46	0.626667	6.90906E-001	9.11272E-005	0.00000E+000	6.29603E-005	5.39641E-002	6.91009E-001	3.57200E+000	9	...........
	47	0.64	6.95508E-001	9.11793E-005	0.00000E+000	6.34160E-005	5.39641E-002	6.95588E-001	3.57200E+000	9	...........
	48	0.653333	6.99996E-001	9.11022E-005	0.00000E+000	6.37712E-005	5.39641E-002	7.00093E-001	3.57200E+000	9	...........
	49	0.666667	7.04427E-001	9.12596E-005	0.00000E+000	6.42857E-005	5.39641E-002	7.04536E-001	3.57200E+000	9	...........
	50	0.68	7.08781E-001	9.11543E-005	0.00000E+000	6.46084E-005	5.39641E-002	7.08918E-001	3.57200E+000	9	...........
	51	0.693333	7.13094E-001	9.11158E-005	0.00000E+000	6.49741E-005	5.39641E-002	7.13199E-001	3.57200E+000	9	...........
	52	0.706667	7.17350E-001	9.13137E-005	0.00000E+000	6.55039E-005	5.39641E-002	7.17494E-001	3.57200E+000	9	...........
	53	0.72	7.21552E-001	9.10012E-005	0.00000E+000	6.56621E-005	5.39641E-002	7.21654E-001	3.57200E+000	9	...........
	54	0.733333	7.25658E-001	9.09574E-005	0.00000E+000	6.60040E-005	5.39641E-002	7.25769E-001	3.57200E+000	9	...........
	55	0.746667	7.29719E-001	9.11898E-005	0.00000E+000	6.65429E-005	5.39641E-002	7.29844E-001	3.57200E+000	9	...........
	56	0.76	7.33674E-001	9.09928E-005	0.00000E+000	6.67591E-005	5.39641E-002	7.33824E-001	3.57200E+000	9	...........
	57	0.773333	7.37605E-001	9.13481E-005	0.00000E+000	6.73789E-005	5.39641E-002	7.37724E-001	3.57200E+000	9	...........
	58	0.786667	7.41469E-001	9.09991E-005	0.00000E+000	6.74730E-005	5.39641E-002	7.41616E-001	3.57200E+000	9	...........
	59	0.8	7.45292E-001	9.12814E-005	0.00000E+000	6.80313E-005	5.39641E-002	7.45429E-001	3.57200E+000	9	...........
	60	0.813333	7.49048E-001	9.11168E-005	0.00000E+000	6.82509E-005	5.39641E-002	7.49179E-001	3.57200E+000	9	...........
	61	0.826667	7.52767E-001	9.12721E-005	0.00000E+000	6.87066E-005	5.39641E-002	7.52890E-001	3.57200E+000	9	...........
	62	0.84	7.56454E-001	9.11064E-005	0.00000E+000	6.89178E-005	5.39641E-002	7.56576E-001	3.57200E+000	9	...........
	63	0.853333	7.60049E-001	9.11543E-005	0.00000E+000	6.92817E-005	5.39641E-002	7.60156E-001	3.57200E+000	9	...........
	64	0.866667	7.63604E-001	9.10303E-005	0.00000E+000	6.95111E-005	5.39641E-002	7.63704E-001	3.57200E+000	9	...........
	65	0.88	7.67122E-001	9.11439E-005	0.00000E+000	6.99185E-005	5.39641E-002	7.67262E-001	3.57200E+000	9	...........
	66	0.893333	7.70597E-001	9.10470E-005	0.00000E+000	7.01606E-005	5.39641E-002	7.70720E-001	3.57200E+000	9	...........
	67	0.906667	7.74031E-001	9.11564E-005	0.00000E+000	7.05579E-005	5.39641E-002	7.74142E-001	3.57200E+000	9	...........
	68	0.92	7.77404E-001	9.10772E-005	0.00000E+000	7.08038E-005	5.39641E-002	7.77532E-001	3.57232E+000	9	...........
	69	0.933333	7.80765E-001	9.12523E-005	0.00000E+000	7.12466E-005	5.39641E-002	7.80887E-001	3.57310E+000	9	...........
	70	0.946667	7.84047E-001	9.12606E-005	0.00000E+000	7.15526E-005	5.39641E-002	7.84156E-001	3.57310E+000	9	...........
	71	0.96	7.87282E-001	9.11366E-005	0.00000E+000	7.17503E-005	5.39641E-002	7.87409E-001	3.57310E+000	9	...........
	72	0.97333	7.90502E-001	9.08574E-005	0.00000E+000	7.18230E-005	5.39641E-002	7.90611E-001	3.57310E+000	9	...........
	73	0.98667	7.93717E-001	9.10574E-005	0.00000E+000	7.22739E-005	5.39641E-002	7.93840E-001	3.57310E+000	9	...........
	74	1	7.96856E-001	9.09981E-005	0.00000E+000	7.25123E-005	5.39641E-002	7.96962E-001	3.57310E+000	9	...........
	75	1.01333	7.99970E-001	9.11012E-005	0.00000E+000	7.28782E-005	5.39641E-002	8.00070E-001	3.57310E+000	9	...........
	76	1.02667	8.03039E-001	9.09189E-005	0.00000E+000	7.30114E-005	5.39641E-002	8.03152E-001	3.57310E+000	9	...........
	77	1.04	8.06061E-001	9.11981E-005	0.00000E+000	7.35112E-005	5.39641E-002	8.06196E-001	3.57310E+000	9	...........
	78	1.05333	8.09042E-001	9.13710E-005	0.00000E+000	7.39230E-005	5.39641E-002	8.09176E-001	3.57310E+000	9	...........
	79	1.06667	8.11990E-001	9.14742E-005	0.00000E+000	7.42762E-005	5.39641E-002	8.12140E-001	3.57310E+000	9	...........
	80	1.08	8.14879E-001	9.12283E-005	0.00000E+000	7.43400E-005	5.39641E-002	8.15037E-001	3.57310E+000	9	...........
	81	1.09333	8.17774E-001	9.09522E-005	0.00000E+000	7.43783E-005	5.39641E-002	8.17943E-001	3.57310E+000	9	...........
	82	1.10667	8.20660E-001	9.10335E-005	0.00000E+000	7.47075E-005	5.39641E-002	8.20808E-001	3.57310E+000	9	...........
	83	1.12	8.23496E-001	9.10095E-005	0.00000E+000	7.49460E-005	5.39641E-002	8.23667E-001	3.57310E+000	9	...........
	84	1.13333	8.26308E-001	9.11189E-005	0.00000E+000	7.52923E-005	5.39641E-002	8.26452E-001	3.57310E+000	9	...........
	85	1.14667	8.29062E-001	9.11710E-005	0.00000E+000	7.55864E-005	5.39641E-002	8.29210E-001	3.57310E+000	9	...........
	86	1.16	8.31799E-001	9.10866E-005	0.00000E+000	7.57657E-005	5.39641E-002	8.31952E-001	3.57310E+000	9	...........
	87	1.17333	8.34521E-001	9.09949E-005	0.00000E+000	7.59372E-005	5.39641E-002	8.34666E-001	3.57310E+000	9	...........
	88	1.18667	8.37228E-001	9.10866E-005	0.00000E+000	7.62603E-005	5.39641E-002	8.37351E-001	3.57310E+000	9	...........
	89	1.2	8.39882E-001	9.09012E-005	0.00000E+000	7.63462E-005	5.39641E-002	8.40005E-001	3.57310E+000	9	...........
	90	1.21333	8.42502E-001	9.10606E-005	0.00000E+000	7.67187E-005	5.39641E-002	8.42638E-001	3.57310E+000	9	...........
	91	1.22667	8.45152E-001	9.11314E-005	0.00000E+000	7.70199E-005	5.39641E-002	8.45273E-001	3.57310E+000	9	...........
	92	1.24	8.47762E-001	9.09637E-005	0.00000E+000	7.71156E-005	5.39641E-002	8.47877E-001	3.57310E+000	9	...........
	93	1.25333	8.50306E-001	9.12294E-005	0.00000E+000	7.75728E-005	5.39641E-002	8.50443E-001	3.57310E+000	9	...........
	94	1.26667	8.52863E-001	9.10293E-005	0.00000E+000	7.76355E-005	5.39641E-002	8.52974E-001	3.57310E+000	9	...........
	95	1.28	8.55315E-001	9.11575E-005	0.00000E+000	7.79683E-005	5.39641E-002	8.55458E-001	3.57310E+000	9	...........
	96	1.29333	8.57793E-001	9.12262E-005	0.00000E+000	7.82533E-005	5.39641E-002	8.57932E-001	3.57310E+000	9	...........
	97	1.30667	8.60221E-001	9.13637E-005	0.00000E+000	7.85930E-005	5.39641E-002	8.60382E-001	3.57310E+000	9	...........
	98	1.32	8.62621E-001	9.11741E-005	0.00000E+000	7.86488E-005	5.39641E-002	8.62776E-001	3.57310E+000	9	...........
	99	1.33333	8.64989E-001	9.11064E-005	0.00000E+000	7.88060E-005	5.39641E-002	8.65143E-001	3.57310E+000	9	...........
	100	1.34667	8.67361E-001	9.10949E-005	0.00000E+000	7.90122E-005	5.39641E-002	8.67531E-001	3.57310E+000	9	...........
	101	1.36	8.69728E-001	9.12710E-005	0.00000E+000	7.93810E-005	5.39641E-002	8.69871E-001	3.57310E+000	9	...........
	102	1.37333	8.72049E-001	9.09751E-005	0.00000E+000	7.93347E-005	5.39641E-002	8.72221E-001	3.57310E+000	9	...........
	103	1.38667	8.74356E-001	9.13252E-005	0.00000E+000	7.98507E-005	5.39641E-002	8.74532E-001	3.57310E+000	9	...........
	104	1.4	8.76630E-001	9.12575E-005	0.00000E+000	7.99991E-005	5.39641E-002	8.76821E-001	3.57310E+000	9	...........
	105	1.41333	8.78870E-001	9.11481E-005	0.00000E+000	8.01073E-005	5.39641E-002	8.79054E-001	3.57310E+000	9	...........
	106	1.42667	8.81102E-001	9.11991E-005	0.00000E+000	8.03557E-005	5.39641E-002	8.81287E-001	3.57310E+000	9	...........
	107	1.44	8.83344E-001	9.11272E-005	0.00000E+000	8.04967E-005	5.39641E-002	8.83499E-001	3.57310E+000	9	...........
	108	1.45333	8.85551E-001	9.09178E-005	0.00000E+000	8.05124E-005	5.39641E-002	8.85675E-001	3.57310E+000	9	...........
	109	1.46667	8.87720E-001	9.12387E-005	0.00000E+000	8.09944E-005	5.39641E-002	8.87864E-001	3.57310E+000	9	...........
	110	1.48	8.89880E-001	9.11825E-005	0.00000E+000	8.11415E-005	5.39641E-002	8.90005E-001	3.57310E+000	9	...........
	111	1.49333	8.91987E-001	9.12689E-005	0.00000E+000	8.14107E-005	5.39641E-002	8.92136E-001	3.57310E+000	9	...........
	112	1.50667	8.94081E-001	9.09605E-005	0.00000E+000	8.13261E-005	5.39641E-002	8.94278E-001	3.57310E+000	9	...........
	113	1.52	8.96180E-001	9.09397E-005	0.00000E+000	8.14984E-005	5.39641E-002	8.96372E-001	3.57310E+000	9	...........
	114	1.53333	8.98262E-001	9.13794E-005	0.00000E+000	8.20826E-005	5.39641E-002	8.98423E-001	3.57310E+000	9	...........
	115	1.54667	9.00307E-001	9.12116E-005	0.00000E+000	8.21185E-005	5.39641E-002	9.00472E-001	3.57310E+000	9	...........
	116	1.56	9.02344E-001	9.09960E-005	0.00000E+000	8.21096E-005	5.39641E-002	9.02502E-001	3.57310E+000	9	...........
	117	1.57333	9.04349E-001	9.10199E-005	0.00000E+000	8.23138E-005	5.39641E-002	9.04509E-001	3.57310E+000	9	...........
	118	1.58667	9.06333E-001	9.10397E-005	0.00000E+000	8.25123E-005	5.39641E-002	9.06475E-001	3.57310E+000	9	...........
	119	1.6	9.08315E-001	9.10397E-005	0.00000E+000	8.26927E-005	5.39641E-002	9.08448E-001	3.57310E+000	9	...........
	120	1.61333	9.10254E-001	9.12200E-005	0.00000E+000	8.30333E-005	5.39641E-002	9.10388E-001	3.57310E+000	9	...........
	121	1.62667	9.12207E-001	9.10679E-005	0.00000E+000	8.30728E-005	5.39641E-002	9.12323E-001	3.57310E+000	9	...........
	122	1.64	9.14111E-001	9.12012E-005	0.00000E+000	8.33680E-005	5.39641E-002	9.14259E-001	3.57310E+000	9	...........
	123	1.65333	9.16007E-001	9.10751E-005	0.00000E+000	8.34255E-005	5.39641E-002	9.16152E-001	3.57310E+000	9	...........
	124	1.66667	9.17867E-001	9.11366E-005	0.00000E+000	8.36513E-005	5.39641E-002	9.18005E-001	3.57310E+000	9	...........
	125	1.68	9.19708E-001	9.15502E-005	0.00000E+000	8.41995E-005	5.39641E-002	9.19842E-001	3.57310E+000	9	...........
	126	1.69333	9.21631E-001	9.12273E-005	0.00000E+000	8.40779E-005	5.39641E-002	9.21700E-001	3.57310E+000	9	...........
	127	1.70667	9.23428E-001	9.11877E-005	0.00000E+000	8.42052E-005	5.39641E-002	9.23540E-001	3.57310E+000	9	...........
	128	1.72	9.25237E-001	9.11439E-005	0.00000E+000	8.43297E-005	5.39641E-002	9.25358E-001	3.57310E+000	9	...........
	129	1.73333	9.27029E-001	9.09532E-005	0.00000E+000	8.43163E-005	5.39641E-002	9.27175E-001	3.57310E+000	9	...........
	130	1.74667	9.28805E-001	9.11845E-005	0.00000E+000	8.46926E-005	5.39641E-002	9.28940E-001	3.57310E+000	9	...........
	131	1.76	9.30528E-001	9.10272E-005	0.00000E+000	8.47034E-005	5.39641E-002	9.30673E-001	3.57310E+000	9	...........
	132	1.77333	9.32269E-001	9.11668E-005	0.00000E+000	8.49920E-005	5.39641E-002	9.32398E-001	3.57310E+000	9	...........
	133	1.78667	9.33990E-001	9.07865E-005	0.00000E+000	8.47938E-005	5.39641E-002	9.34152E-001	3.57310E+000	9	...........
	134	1.8	9.35709E-001	9.12825E-005	0.00000E+000	8.54138E-005	5.39641E-002	9.35847E-001	3.57310E+000	9	...........
	135	1.81333	9.37379E-001	9.10939E-005	0.00000E+000	8.53895E-005	5.39641E-002	9.37551E-001	3.57310E+000	9	...........
	136	1.82667	9.39061E-001	9.10512E-005	0.00000E+000	8.55026E-005	5.39641E-002	9.39223E-001	3.57310E+000	9	...........
	137	1.84	9.40690E-001	9.12179E-005	0.00000E+000	8.58078E-005	5.39641E-002	9.40853E-001	3.57310E+000	9	...........
	138	1.85333	9.42341E-001	9.11252E-005	0.00000E+000	8.58710E-005	5.39641E-002	9.42515E-001	3.57310E+000	9	...........
	139	1.86667	9.43953E-001	9.10835E-005	0.00000E+000	8.59785E-005	5.39641E-002	9.44139E-001	3.57310E+000	9	...........
	140	1.88	9.45561E-001	9.10741E-005	0.00000E+000	8.61161E-005	5.39641E-002	9.45754E-001	3.57310E+000	9	...........
	141	1.89333	9.47225E-001	9.09428E-005	0.00000E+000	8.61434E-005	5.39641E-002	9.47390E-001	3.57310E+000	9	...........
	142	1.90667	9.48792E-001	9.11939E-005	0.00000E+000	8.65241E-005	5.39641E-002	9.48954E-001	3.57310E+000	9	...........
	143	1.92	9.50348E-001	9.13815E-005	0.00000E+000	8.68442E-005	5.39641E-002	9.50530E-001	3.57287E+000	9	...........
	144	1.93333	9.51882E-001	9.12273E-005	0.00000E+000	8.68376E-005	5.39641E-002	9.52069E-001	3.57230E+000	9	...........
	145	1.94667	9.53443E-001	9.11220E-005	0.00000E+000	8.68796E-005	5.39641E-002	9.53591E-001	3.57230E+000	9	...........
	146	1.96	9.54959E-001	9.12398E-005	0.00000E+000	8.71303E-005	5.39641E-002	9.55106E-001	3.57230E+000	9	...........
	147	1.97333	9.56450E-001	9.11377E-005	0.00000E+000	8.71686E-005	5.39641E-002	9.56616E-001	3.57230E+000	9	...........
	148	1.98667	9.57933E-001	9.12002E-005	0.00000E+000	8.73637E-005	5.39641E-002	9.58100E-001	3.57230E+000	9	...........
	149	2	9.59425E-001	9.12325E-005	0.00000E+000	8.75307E-005	5.39641E-002	9.59608E-001	3.57230E+000	9	...........
	150	2.01333	9.60879E-001	9.12689E-005	0.00000E+000	8.76984E-005	5.39641E-002	9.61055E-001	3.57230E+000	9	...........
	151	2.02667	9.62343E-001	9.10908E-005	0.00000E+000	8.76606E-005	5.39641E-002	9.62520E-001	3.57230E+000	9	...........
	152	2.04	9.63764E-001	9.09866E-005	0.00000E+000	8.76896E-005	5.39641E-002	9.63966E-001	3.57230E+000	9	...........
	153	2.05333	9.65181E-001	9.12335E-005	0.00000E+000	8.80568E-005	5.39641E-002	9.65376E-001	3.57230E+000	9	...........
	154	2.06667	9.66596E-001	9.10793E-005	0.00000E+000	8.80369E-005	5.39641E-002	9.66776E-001	3.57230E+000	9	...........
	155	2.08	9.67972E-001	9.11033E-005	0.00000E+000	8.81854E-005	5.39641E-002	9.68189E-001	3.57230E+000	9	...........
	156	2.09333	9.69373E-001	9.14388E-005	0.00000E+000	8.86383E-005	5.39641E-002	9.69564E-001	3.57230E+000	9	...........
	157	2.10667	9.70733E-001	9.10428E-005	0.00000E+000	8.83783E-005	5.39641E-002	9.70955E-001	3.57230E+000	9	...........
	158	2.12	9.72101E-001	9.11825E-005	0.00000E+000	8.86385E-005	5.39641E-002	9.72326E-001	3.57230E+000	9	...........
	159	2.13333	9.73510E-001	9.11012E-005	0.00000E+000	8.86879E-005	5.39641E-002	9.73665E-001	3.57230E+000	9	...........
	160	2.14667	9.74835E-001	9.16221E-005	0.00000E+000	8.93165E-005	5.39641E-002	9.74999E-001	3.57230E+000	9	...........
	161	2.16	9.76135E-001	9.11408E-005	0.00000E+000	8.89657E-005	5.39641E-002	9.76323E-001	3.57230E+000	9	...........
	162	2.17333	9.77428E-001	9.11054E-005	0.00000E+000	8.90489E-005	5.39641E-002	9.77621E-001	3.57230E+000	9	...........
	163	2.18667	9.78747E-001	9.10470E-005	0.00000E+000	8.91120E-005	5.39641E-002	9.78932E-001	3.57230E+000	9	...........
	164	2.2	9.80057E-001	9.12346E-005	0.00000E+000	8.94151E-005	5.39641E-002	9.80219E-001	3.57230E+000	9	...........
	165	2.21333	9.81303E-001	9.11200E-005	0.00000E+000	8.94163E-005	5.39641E-002	9.81490E-001	3.57230E+000	9	...........
	166	2.22667	9.82561E-001	9.12658E-005	0.00000E+000	8.96742E-005	5.39641E-002	9.82751E-001	3.57230E+000	9	...........
	167	2.24	9.83789E-001	9.12346E-005	0.00000E+000	8.97555E-005	5.39641E-002	9.83974E-001	3.57230E+000	9	...........
	168	2.25333	9.85002E-001	9.13002E-005	0.00000E+000	8.99309E-005	5.39641E-002	9.85224E-001	3.57230E+000	9	...........
	169	2.26667	9.86251E-001	9.10960E-005	0.00000E+000	8.98435E-005	5.39641E-002	9.86454E-001	3.57230E+000	9	...........
	170	2.28	9.87451E-001	9.11304E-005	0.00000E+000	8.99868E-005	5.39641E-002	9.87670E-001	3.57230E+000	9	...........
	171	2.29333	9.88687E-001	9.10043E-005	0.00000E+000	8.99748E-005	5.39641E-002	9.88871E-001	3.57230E+000	9	...........
	172	2.30667	9.89902E-001	9.11960E-005	0.00000E+000	9.02751E-005	5.39641E-002	9.90094E-001	3.57230E+000	9	...........
	173	2.32	9.91089E-001	9.10418E-005	0.00000E+000	9.02305E-005	5.39641E-002	9.91256E-001	3.57230E+000	9	...........
	174	2.33333	9.92244E-001	9.09678E-005	0.00000E+000	9.02623E-005	5.39641E-002	9.92444E-001	3.57230E+000	9	...........
	175	2.34667	9.93416E-001	9.10001E-005	0.00000E+000	9.04010E-005	5.39641E-002	9.93597E-001	3.57230E+000	9	...........
	176	2.36	9.94583E-001	9.11502E-005	0.00000E+000	9.06564E-005	5.39641E-002	9.94760E-001	3.57230E+000	9	...........
	177	2.37333	9.95734E-001	9.11804E-005	0.00000E+000	9.07914E-005	5.39641E-002	9.95907E-001	3.57230E+000	9	...........
	178	2.38667	9.96856E-001	9.10147E-005	0.00000E+000	9.07286E-005	5.39641E-002	9.97045E-001	3.57230E+000	9	...........
	179	2.4	9.98022E-001	9.12096E-005	0.00000E+000	9.10291E-005	5.39641E-002	9.98220E-001	3.57230E+000	9	...........
	180	2.41333	9.99133E-001	9.09939E-005	0.00000E+000	9.09150E-005	5.39641E-002	9.99344E-001	3.57230E+000	9	...........
	181	2.41833	9.99919E-001	9.09154E-005	0.00000E+000	9.09081E-005	5.39641E-002	1.00009E+000	3.57230E+000	9	...........
STARTTIMEOFFSET	QUANT	688.705	Start Time Offset (s)
