EXPLAIN
TAG	PWR800_CHARGE
TITLE	LABEL	PWR Cyclic Charge Discharge (Cell) - Charge Step	Test &Identifier
DATE	LABEL	10-7-2017	Date
TIME	LABEL	16:00:24	Time
NOTES	NOTES	3	&Notes...
	supercap test cell
	0.9mg
	6M KOH
PSTAT	PSTAT	IFC5000-01520	Potentiostat
CAPACITY	QUANT	1.00000E-003	Capacity (A-hr)
CELLTYPE	SELECTOR	1	&Cell Type
WORKINGCONNECTION	SELECTOR	0	&Working Lead
MAXCHARGETIME	VARIABLEANDUNITS	1.00000E+002	s	1.00000E+002	second(s)	Max &Charge Time
CHARGECURRENT	QUANT	9.00000E-005	&Charge Current (A) 
VOLTAGEFINISH	TWOPARAM	F	1.00000E-003	3.60000E+003	&Voltage Finish	 I (A) < 	Max Time(s)
SAMPLETIME	QUANT	1.00000E-002	Sa&mple Period (s)
CHARGESTOPAT1	MULTIPARAM	4	1.00000E+000	Charge Stop At &1	Voltage > Limit	V
CHARGESTOPAT2	MULTIPARAM	0	0.00000E+000	Charge Stop At &2	None	N/A
AESBHCSELECTOR	TOGGLE	F	Save Both Half Cells
IRCOMP	TOGGLE	F	IR &Measure
EOC	QUANT	0	Open Circuit (V)
SEQUENCER	TOGGLE	TRUE	Run as Sequence
PSTATMODEL	IQUANT	53	Pstat Model
PSTATSECTION	LABEL	IFC5000-01520	Pstat Section
PSTATSERIALNO	LABEL	01520	Pstat Serial Number
CTRLMODE	IQUANT	0	Control Mode
ELECTROMETER	IQUANT	1	RE=0 or CS=1
IESTAB	IQUANT	0	I/E Stability
CASPEED	IQUANT	4	Control Amp Speed
CONVENTION	IQUANT	1	Current Convention
ICHRANGE	IQUANT	2	Ich Range
ICHRANGEMODE	TOGGLE	T	Ich Auto Range
ICHOFFSETENABLE	TOGGLE	F	Ich Offset Enable
ICHOFFSET	QUANT	0	Ich Offset (V)
ICHFILTER	IQUANT	1	Ich Filter
VCHRANGE	IQUANT	2	Vch Range
VCHRANGEMODE	TOGGLE	T	Vch Auto Range
VCHOFFSETENABLE	TOGGLE	F	Vch Offset Enable
VCHOFFSET	QUANT	0	Vch Offset (V)
VCHFILTER	IQUANT	1	Vch Filter
IERANGELOWERLIMIT	IQUANT	9	I/E Range Lower Limit
IERANGEMODE	TOGGLE	F	I/E AutoRange
IERANGE	IQUANT	9	I/E Range
ACHSELECT	IQUANT	1	Ach Select
ACHRANGE	IQUANT	2	Ach Range
ACHOFFSETENABLE	TOGGLE	F	Ach Offset Enable
ACHOFFSET	QUANT	0	Ach Offset (V)
ACHFILTER	IQUANT	1	Ach Filter
CABLEID	IQUANT	14	Cable ID
DCCALDATE	LABEL	5-7-2017	DC Calibration Date
ACCALDATE	LABEL	12/3/2015	AC Calibration Date
FRAMEWORKVERSION	QUANT	7.01	Framework Version
INSTRUMENTVERSION	LABEL	4.00	Instrument Version
CURVE	TABLE	165
	Pt	T	Vf	Im	Vu	Pwr	Sig	Ach	Temp	IERange	Over
	#	s	V	A	V	W	V	V	deg C	#	bits
	0	0.013333	2.66945E-001	9.10887E-005	0.00000E+000	2.43157E-005	5.39641E-002	2.67001E-001	3.57260E+000	9	...........
	1	0.026667	2.86732E-001	9.08178E-005	0.00000E+000	2.60404E-005	5.39641E-002	2.86768E-001	3.57260E+000	9	...........
	2	0.04	3.05278E-001	9.09960E-005	0.00000E+000	2.77790E-005	5.39641E-002	3.05318E-001	3.57290E+000	9	...........
	3	0.053333	3.22762E-001	9.09783E-005	0.00000E+000	2.93643E-005	5.39641E-002	3.22805E-001	3.57290E+000	9	...........
	4	0.066667	3.39305E-001	9.08522E-005	0.00000E+000	3.08266E-005	5.39641E-002	3.39347E-001	3.57290E+000	9	...........
	5	0.08	3.54990E-001	9.08574E-005	0.00000E+000	3.22534E-005	5.39641E-002	3.55038E-001	3.57290E+000	9	...........
	6	0.093333	3.69897E-001	9.11335E-005	0.00000E+000	3.37100E-005	5.39641E-002	3.69947E-001	3.57290E+000	9	...........
	7	0.106667	3.84097E-001	9.12450E-005	0.00000E+000	3.50469E-005	5.39641E-002	3.84143E-001	3.57290E+000	9	...........
	8	0.12	3.97646E-001	9.08720E-005	0.00000E+000	3.61349E-005	5.39641E-002	3.97693E-001	3.57290E+000	9	...........
	9	0.133333	4.10605E-001	9.12189E-005	0.00000E+000	3.74550E-005	5.39641E-002	4.10659E-001	3.57290E+000	9	...........
	10	0.146667	4.23011E-001	9.09209E-005	0.00000E+000	3.84606E-005	5.39641E-002	4.23064E-001	3.57290E+000	9	...........
	11	0.16	4.34905E-001	9.11106E-005	0.00000E+000	3.96244E-005	5.39641E-002	4.34962E-001	3.57290E+000	9	...........
	12	0.173333	4.46331E-001	9.10845E-005	0.00000E+000	4.06538E-005	5.39641E-002	4.46385E-001	3.57290E+000	9	...........
	13	0.186667	4.57325E-001	9.09730E-005	0.00000E+000	4.16043E-005	5.39641E-002	4.57381E-001	3.57290E+000	9	...........
	14	0.2	4.67920E-001	9.11387E-005	0.00000E+000	4.26456E-005	5.39641E-002	4.67982E-001	3.57290E+000	9	...........
	15	0.213333	4.78140E-001	9.10220E-005	0.00000E+000	4.35212E-005	5.39641E-002	4.78198E-001	3.57290E+000	9	...........
	16	0.226667	4.87996E-001	9.09345E-005	0.00000E+000	4.43757E-005	5.39641E-002	4.88062E-001	3.57290E+000	9	...........
	17	0.24	4.97532E-001	9.08074E-005	0.00000E+000	4.51796E-005	5.39641E-002	4.97598E-001	3.57290E+000	9	...........
	18	0.253333	5.06754E-001	9.10231E-005	0.00000E+000	4.61263E-005	5.39641E-002	5.06822E-001	3.57290E+000	9	...........
	19	0.266667	5.15701E-001	9.10970E-005	0.00000E+000	4.69789E-005	5.39641E-002	5.15767E-001	3.57290E+000	9	...........
	20	0.28	5.24369E-001	9.09543E-005	0.00000E+000	4.76936E-005	5.39641E-002	5.24434E-001	3.57290E+000	9	...........
	21	0.293333	5.32752E-001	9.11804E-005	0.00000E+000	4.85766E-005	5.39641E-002	5.32802E-001	3.57290E+000	9	...........
	22	0.306667	5.40903E-001	9.10637E-005	0.00000E+000	4.92566E-005	5.39641E-002	5.40952E-001	3.57290E+000	9	...........
	23	0.32	5.48863E-001	9.10376E-005	0.00000E+000	4.99672E-005	5.39641E-002	5.48920E-001	3.57290E+000	9	...........
	24	0.333333	5.56617E-001	9.10470E-005	0.00000E+000	5.06783E-005	5.39641E-002	5.56711E-001	3.57290E+000	9	...........
	25	0.346667	5.64206E-001	9.11554E-005	0.00000E+000	5.14304E-005	5.39641E-002	5.64302E-001	3.57290E+000	9	...........
	26	0.36	5.71553E-001	9.09897E-005	0.00000E+000	5.20054E-005	5.39641E-002	5.71633E-001	3.57290E+000	9	...........
	27	0.373333	5.78733E-001	9.10668E-005	0.00000E+000	5.27034E-005	5.39641E-002	5.78852E-001	3.57290E+000	9	...........
	28	0.386667	5.85732E-001	9.10439E-005	0.00000E+000	5.33273E-005	5.39641E-002	5.85846E-001	3.57290E+000	9	...........
	29	0.4	5.92602E-001	9.08782E-005	0.00000E+000	5.38546E-005	5.39641E-002	5.92695E-001	3.57290E+000	9	...........
	30	0.413333	5.99280E-001	9.07636E-005	0.00000E+000	5.43929E-005	5.39641E-002	5.99381E-001	3.57290E+000	9	...........
	31	0.426667	6.05762E-001	9.08522E-005	0.00000E+000	5.50348E-005	5.39641E-002	6.05892E-001	3.57290E+000	9	...........
	32	0.44	6.12140E-001	9.09647E-005	0.00000E+000	5.56832E-005	5.39641E-002	6.12308E-001	3.57290E+000	9	...........
	33	0.453333	6.18454E-001	9.10210E-005	0.00000E+000	5.62923E-005	5.39641E-002	6.18544E-001	3.57290E+000	9	...........
	34	0.466667	6.24531E-001	9.08970E-005	0.00000E+000	5.67680E-005	5.39641E-002	6.24653E-001	3.57290E+000	9	...........
	35	0.48	6.30494E-001	9.10751E-005	0.00000E+000	5.74224E-005	5.39641E-002	6.30627E-001	3.57290E+000	9	...........
	36	0.493333	6.36327E-001	9.11168E-005	0.00000E+000	5.79801E-005	5.39641E-002	6.36462E-001	3.57290E+000	9	...........
	37	0.506667	6.42131E-001	9.09022E-005	0.00000E+000	5.83711E-005	5.39641E-002	6.42257E-001	3.57290E+000	9	...........
	38	0.52	6.47758E-001	9.11189E-005	0.00000E+000	5.90230E-005	5.39641E-002	6.47901E-001	3.57290E+000	9	...........
	39	0.533333	6.53294E-001	9.08887E-005	0.00000E+000	5.93770E-005	5.39641E-002	6.53469E-001	3.57290E+000	9	...........
	40	0.546667	6.58744E-001	9.09335E-005	0.00000E+000	5.99018E-005	5.39641E-002	6.58885E-001	3.57290E+000	9	...........
	41	0.56	6.64106E-001	9.10033E-005	0.00000E+000	6.04358E-005	5.39641E-002	6.64238E-001	3.57290E+000	9	...........
	42	0.573333	6.69376E-001	9.07855E-005	0.00000E+000	6.07697E-005	5.39641E-002	6.69499E-001	3.57290E+000	9	...........
	43	0.586667	6.74544E-001	9.11887E-005	0.00000E+000	6.15108E-005	5.39641E-002	6.74644E-001	3.57290E+000	9	...........
	44	0.6	6.79623E-001	9.10439E-005	0.00000E+000	6.18755E-005	5.39641E-002	6.79710E-001	3.57290E+000	9	...........
	45	0.613333	6.84578E-001	9.08282E-005	0.00000E+000	6.21790E-005	5.39641E-002	6.84699E-001	3.57290E+000	9	...........
	46	0.626667	6.89499E-001	9.10033E-005	0.00000E+000	6.27466E-005	5.39641E-002	6.89615E-001	3.57290E+000	9	...........
	47	0.64	6.94349E-001	9.09918E-005	0.00000E+000	6.31801E-005	5.39641E-002	6.94458E-001	3.57290E+000	9	...........
	48	0.653333	6.99032E-001	9.11658E-005	0.00000E+000	6.37278E-005	5.39641E-002	6.99174E-001	3.57290E+000	9	...........
	49	0.666667	7.03705E-001	9.10158E-005	0.00000E+000	6.40483E-005	5.39641E-002	7.03802E-001	3.57290E+000	9	...........
	50	0.68	7.08297E-001	9.10116E-005	0.00000E+000	6.44632E-005	5.39641E-002	7.08416E-001	3.57290E+000	9	...........
	51	0.693333	7.12804E-001	9.11106E-005	0.00000E+000	6.49439E-005	5.39641E-002	7.12926E-001	3.57290E+000	9	...........
	52	0.706667	7.17289E-001	9.09460E-005	0.00000E+000	6.52345E-005	5.39641E-002	7.17420E-001	3.57290E+000	9	...........
	53	0.72	7.21737E-001	9.11127E-005	0.00000E+000	6.57594E-005	5.39641E-002	7.21838E-001	3.57290E+000	9	...........
	54	0.733333	7.26077E-001	9.11752E-005	0.00000E+000	6.62002E-005	5.39641E-002	7.26196E-001	3.57290E+000	9	...........
	55	0.746667	7.30349E-001	9.09658E-005	0.00000E+000	6.64367E-005	5.39641E-002	7.30479E-001	3.57290E+000	9	...........
	56	0.76	7.34594E-001	9.09043E-005	0.00000E+000	6.67778E-005	5.39641E-002	7.34710E-001	3.57290E+000	9	...........
	57	0.773333	7.38779E-001	9.08272E-005	0.00000E+000	6.71013E-005	5.39641E-002	7.38875E-001	3.57290E+000	9	...........
	58	0.786667	7.42920E-001	9.10804E-005	0.00000E+000	6.76654E-005	5.39641E-002	7.43011E-001	3.57290E+000	9	...........
	59	0.8	7.47009E-001	9.10533E-005	0.00000E+000	6.80176E-005	5.39641E-002	7.47076E-001	3.57290E+000	9	...........
	60	0.813333	7.51013E-001	9.11252E-005	0.00000E+000	6.84362E-005	5.39641E-002	7.51104E-001	3.57290E+000	9	...........
	61	0.826667	7.54969E-001	9.09543E-005	0.00000E+000	6.86677E-005	5.39641E-002	7.55066E-001	3.57290E+000	9	...........
	62	0.84	7.58886E-001	9.08637E-005	0.00000E+000	6.89551E-005	5.39641E-002	7.58966E-001	3.57290E+000	9	...........
	63	0.853333	7.62753E-001	9.11648E-005	0.00000E+000	6.95362E-005	5.39641E-002	7.62862E-001	3.57290E+000	9	...........
	64	0.866667	7.66542E-001	9.10033E-005	0.00000E+000	6.97578E-005	5.39641E-002	7.66694E-001	3.57290E+000	9	...........
	65	0.88	7.70329E-001	9.09324E-005	0.00000E+000	7.00478E-005	5.39641E-002	7.70477E-001	3.57290E+000	9	...........
	66	0.893333	7.74070E-001	9.13064E-005	0.00000E+000	7.06776E-005	5.39641E-002	7.74205E-001	3.57290E+000	9	...........
	67	0.906667	7.77746E-001	9.12168E-005	0.00000E+000	7.09436E-005	5.39641E-002	7.77897E-001	3.57290E+000	9	...........
	68	0.92	7.81416E-001	9.08616E-005	0.00000E+000	7.10007E-005	5.39641E-002	7.81564E-001	3.57290E+000	9	...........
	69	0.933333	7.85008E-001	9.11679E-005	0.00000E+000	7.15675E-005	5.39641E-002	7.85122E-001	3.57290E+000	9	...........
	70	0.946667	7.88537E-001	9.09220E-005	0.00000E+000	7.16953E-005	5.39641E-002	7.88691E-001	3.57290E+000	9	...........
	71	0.96	7.92074E-001	9.08876E-005	0.00000E+000	7.19897E-005	5.39641E-002	7.92226E-001	3.57290E+000	9	...........
	72	0.97333	7.95600E-001	9.10814E-005	0.00000E+000	7.24644E-005	5.39641E-002	7.95747E-001	3.57290E+000	9	...........
	73	0.98667	7.99053E-001	9.08480E-005	0.00000E+000	7.25924E-005	5.39641E-002	7.99185E-001	3.57290E+000	9	...........
	74	1	8.02446E-001	9.09699E-005	0.00000E+000	7.29984E-005	5.39641E-002	8.02635E-001	3.57290E+000	9	...........
	75	1.01333	8.05828E-001	9.10512E-005	0.00000E+000	7.33716E-005	5.39641E-002	8.06001E-001	3.57290E+000	9	...........
	76	1.02667	8.09168E-001	9.09314E-005	0.00000E+000	7.35788E-005	5.39641E-002	8.09356E-001	3.57290E+000	9	...........
	77	1.04	8.12447E-001	9.09803E-005	0.00000E+000	7.39167E-005	5.39641E-002	8.12608E-001	3.57300E+000	9	...........
	78	1.05333	8.15695E-001	9.10283E-005	0.00000E+000	7.42513E-005	5.39641E-002	8.15876E-001	3.57300E+000	9	...........
	79	1.06667	8.18947E-001	9.09668E-005	0.00000E+000	7.44969E-005	5.39641E-002	8.19136E-001	3.57300E+000	9	...........
	80	1.08	8.22125E-001	9.08782E-005	0.00000E+000	7.47133E-005	5.39641E-002	8.22316E-001	3.57300E+000	9	...........
	81	1.09333	8.25285E-001	9.06323E-005	0.00000E+000	7.47975E-005	5.39641E-002	8.25458E-001	3.57300E+000	9	...........
	82	1.10667	8.28414E-001	9.10501E-005	0.00000E+000	7.54272E-005	5.39641E-002	8.28578E-001	3.57300E+000	9	...........
	83	1.12	8.31535E-001	9.08147E-005	0.00000E+000	7.55156E-005	5.39641E-002	8.31713E-001	3.57300E+000	9	...........
	84	1.13333	8.34600E-001	9.11762E-005	0.00000E+000	7.60957E-005	5.39641E-002	8.34792E-001	3.57300E+000	9	...........
	85	1.14667	8.37617E-001	9.09168E-005	0.00000E+000	7.61535E-005	5.39641E-002	8.37821E-001	3.57300E+000	9	...........
	86	1.16	8.40636E-001	9.10408E-005	0.00000E+000	7.65321E-005	5.39641E-002	8.40817E-001	3.57300E+000	9	...........
	87	1.17333	8.43604E-001	9.09178E-005	0.00000E+000	7.66987E-005	5.39641E-002	8.43796E-001	3.57300E+000	9	...........
	88	1.18667	8.46541E-001	9.10689E-005	0.00000E+000	7.70935E-005	5.39641E-002	8.46736E-001	3.57300E+000	9	...........
	89	1.2	8.49450E-001	9.10418E-005	0.00000E+000	7.73355E-005	5.39641E-002	8.49633E-001	3.57300E+000	9	...........
	90	1.21333	8.52343E-001	9.10012E-005	0.00000E+000	7.75642E-005	5.39641E-002	8.52507E-001	3.57300E+000	9	...........
	91	1.22667	8.55191E-001	9.09553E-005	0.00000E+000	7.77842E-005	5.39641E-002	8.55368E-001	3.57300E+000	9	...........
	92	1.24	8.58014E-001	9.11137E-005	0.00000E+000	7.81768E-005	5.39641E-002	8.58199E-001	3.57300E+000	9	...........
	93	1.25333	8.60831E-001	9.09220E-005	0.00000E+000	7.82685E-005	5.39641E-002	8.61016E-001	3.57300E+000	9	...........
	94	1.26667	8.63591E-001	9.12137E-005	0.00000E+000	7.87713E-005	5.39641E-002	8.63792E-001	3.57300E+000	9	...........
	95	1.28	8.66335E-001	9.10189E-005	0.00000E+000	7.88529E-005	5.39641E-002	8.66557E-001	3.57300E+000	9	...........
	96	1.29333	8.69080E-001	9.10668E-005	0.00000E+000	7.91444E-005	5.39641E-002	8.69294E-001	3.57300E+000	9	...........
	97	1.30667	8.71811E-001	9.11054E-005	0.00000E+000	7.94267E-005	5.39641E-002	8.72016E-001	3.57300E+000	9	...........
	98	1.32	8.74502E-001	9.10116E-005	0.00000E+000	7.95898E-005	5.39641E-002	8.74714E-001	3.57300E+000	9	...........
	99	1.33333	8.77144E-001	9.11720E-005	0.00000E+000	7.99710E-005	5.39641E-002	8.77348E-001	3.57300E+000	9	...........
	100	1.34667	8.79734E-001	9.10710E-005	0.00000E+000	8.01183E-005	5.39641E-002	8.79932E-001	3.57300E+000	9	...........
	101	1.36	8.82329E-001	9.10783E-005	0.00000E+000	8.03610E-005	5.39641E-002	8.82527E-001	3.57300E+000	9	...........
	102	1.37333	8.84905E-001	9.10324E-005	0.00000E+000	8.05550E-005	5.39641E-002	8.85083E-001	3.57300E+000	9	...........
	103	1.38667	8.87408E-001	9.10241E-005	0.00000E+000	8.07755E-005	5.39641E-002	8.87589E-001	3.57300E+000	9	...........
	104	1.4	8.89918E-001	9.09845E-005	0.00000E+000	8.09687E-005	5.39641E-002	8.90092E-001	3.57300E+000	9	...........
	105	1.41333	8.92390E-001	9.09783E-005	0.00000E+000	8.11881E-005	5.39641E-002	8.92570E-001	3.57300E+000	9	...........
	106	1.42667	8.94860E-001	9.06542E-005	0.00000E+000	8.11228E-005	5.39641E-002	8.95055E-001	3.57300E+000	9	...........
	107	1.44	8.97284E-001	9.10053E-005	0.00000E+000	8.16577E-005	5.39641E-002	8.97478E-001	3.57300E+000	9	...........
	108	1.45333	8.99650E-001	9.08241E-005	0.00000E+000	8.17099E-005	5.39641E-002	8.99850E-001	3.57300E+000	9	...........
	109	1.46667	9.02009E-001	9.10314E-005	0.00000E+000	8.21111E-005	5.39641E-002	9.02220E-001	3.57300E+000	9	...........
	110	1.48	9.04349E-001	9.08887E-005	0.00000E+000	8.21951E-005	5.39641E-002	9.04558E-001	3.57300E+000	9	...........
	111	1.49333	9.06648E-001	9.09981E-005	0.00000E+000	8.25032E-005	5.39641E-002	9.06885E-001	3.57300E+000	9	...........
	112	1.50667	9.08986E-001	9.10022E-005	0.00000E+000	8.27198E-005	5.39641E-002	9.09203E-001	3.57300E+000	9	...........
	113	1.52	9.11247E-001	9.09626E-005	0.00000E+000	8.28894E-005	5.39641E-002	9.11412E-001	3.57300E+000	9	...........
	114	1.53333	9.13499E-001	9.08959E-005	0.00000E+000	8.30334E-005	5.39641E-002	9.13648E-001	3.57300E+000	9	...........
	115	1.54667	9.15714E-001	9.10616E-005	0.00000E+000	8.33864E-005	5.39641E-002	9.15883E-001	3.57300E+000	9	...........
	116	1.56	9.17928E-001	9.12346E-005	0.00000E+000	8.37468E-005	5.39641E-002	9.18105E-001	3.57300E+000	9	...........
	117	1.57333	9.20126E-001	9.10887E-005	0.00000E+000	8.38131E-005	5.39641E-002	9.20300E-001	3.57300E+000	9	...........
	118	1.58667	9.22351E-001	9.09772E-005	0.00000E+000	8.39129E-005	5.39641E-002	9.22467E-001	3.57300E+000	9	...........
	119	1.6	9.24466E-001	9.07480E-005	0.00000E+000	8.38934E-005	5.39641E-002	9.24588E-001	3.57300E+000	9	...........
	120	1.61333	9.26579E-001	9.11804E-005	0.00000E+000	8.44858E-005	5.39641E-002	9.26718E-001	3.57300E+000	9	...........
	121	1.62667	9.28657E-001	9.09241E-005	0.00000E+000	8.44373E-005	5.39641E-002	9.28798E-001	3.57300E+000	9	...........
	122	1.64	9.30715E-001	9.09564E-005	0.00000E+000	8.46545E-005	5.39641E-002	9.30855E-001	3.57300E+000	9	...........
	123	1.65333	9.32739E-001	9.10189E-005	0.00000E+000	8.48968E-005	5.39641E-002	9.32885E-001	3.57300E+000	9	...........
	124	1.66667	9.34748E-001	9.09866E-005	0.00000E+000	8.50495E-005	5.39641E-002	9.34929E-001	3.57300E+000	9	...........
	125	1.68	9.36735E-001	9.10126E-005	0.00000E+000	8.52547E-005	5.39641E-002	9.36921E-001	3.57300E+000	9	...........
	126	1.69333	9.38691E-001	9.11429E-005	0.00000E+000	8.55550E-005	5.39641E-002	9.38891E-001	3.57300E+000	9	...........
	127	1.70667	9.40665E-001	9.11085E-005	0.00000E+000	8.57026E-005	5.39641E-002	9.40828E-001	3.57300E+000	9	...........
	128	1.72	9.42599E-001	9.09366E-005	0.00000E+000	8.57167E-005	5.39641E-002	9.42764E-001	3.57300E+000	9	...........
	129	1.73333	9.44485E-001	9.10168E-005	0.00000E+000	8.59640E-005	5.39641E-002	9.44673E-001	3.57300E+000	9	...........
	130	1.74667	9.46411E-001	9.10856E-005	0.00000E+000	8.62044E-005	5.39641E-002	9.46588E-001	3.57300E+000	9	...........
	131	1.76	9.48312E-001	9.11377E-005	0.00000E+000	8.64269E-005	5.39641E-002	9.48493E-001	3.57300E+000	9	...........
	132	1.77333	9.50176E-001	9.04781E-005	0.00000E+000	8.59702E-005	5.39641E-002	9.50353E-001	3.57300E+000	9	...........
	133	1.78667	9.52020E-001	9.09355E-005	0.00000E+000	8.65724E-005	5.39641E-002	9.52204E-001	3.57300E+000	9	...........
	134	1.8	9.53871E-001	9.08647E-005	0.00000E+000	8.66732E-005	5.39641E-002	9.54014E-001	3.57300E+000	9	...........
	135	1.81333	9.55650E-001	9.10543E-005	0.00000E+000	8.70160E-005	5.39641E-002	9.55818E-001	3.57300E+000	9	...........
	136	1.82667	9.57422E-001	9.08709E-005	0.00000E+000	8.70018E-005	5.39641E-002	9.57604E-001	3.57300E+000	9	...........
	137	1.84	9.59215E-001	9.08032E-005	0.00000E+000	8.70998E-005	5.39641E-002	9.59399E-001	3.57300E+000	9	...........
	138	1.85333	9.60959E-001	9.09137E-005	0.00000E+000	8.73643E-005	5.39641E-002	9.61155E-001	3.57300E+000	9	...........
	139	1.86667	9.62658E-001	9.10168E-005	0.00000E+000	8.76181E-005	5.39641E-002	9.62890E-001	3.57300E+000	9	...........
	140	1.88	9.64373E-001	9.07136E-005	0.00000E+000	8.74817E-005	5.39641E-002	9.64558E-001	3.57300E+000	9	...........
	141	1.89333	9.66052E-001	9.11095E-005	0.00000E+000	8.80166E-005	5.39641E-002	9.66260E-001	3.57300E+000	9	...........
	142	1.90667	9.67703E-001	9.11658E-005	0.00000E+000	8.82214E-005	5.39641E-002	9.67918E-001	3.57300E+000	9	...........
	143	1.92	9.69320E-001	9.08803E-005	0.00000E+000	8.80921E-005	5.39641E-002	9.69570E-001	3.57300E+000	9	...........
	144	1.93333	9.70949E-001	9.08293E-005	0.00000E+000	8.81906E-005	5.39641E-002	9.71198E-001	3.57300E+000	9	...........
	145	1.94667	9.72610E-001	9.09470E-005	0.00000E+000	8.84559E-005	5.39641E-002	9.72825E-001	3.57300E+000	9	...........
	146	1.96	9.74254E-001	9.08772E-005	0.00000E+000	8.85375E-005	5.39641E-002	9.74428E-001	3.57300E+000	9	...........
	147	1.97333	9.75805E-001	9.11054E-005	0.00000E+000	8.89010E-005	5.39641E-002	9.75973E-001	3.57300E+000	9	...........
	148	1.98667	9.77351E-001	9.10949E-005	0.00000E+000	8.90318E-005	5.39641E-002	9.77579E-001	3.57300E+000	9	...........
	149	2	9.78916E-001	9.08834E-005	0.00000E+000	8.89672E-005	5.39641E-002	9.79104E-001	3.57300E+000	9	...........
	150	2.01333	9.80415E-001	9.10856E-005	0.00000E+000	8.93017E-005	5.39641E-002	9.80630E-001	3.57300E+000	9	...........
	151	2.02667	9.81896E-001	9.08553E-005	0.00000E+000	8.92104E-005	5.39641E-002	9.82115E-001	3.57300E+000	9	...........
	152	2.04	9.83367E-001	9.09543E-005	0.00000E+000	8.94415E-005	5.39641E-002	9.83590E-001	3.57280E+000	9	...........
	153	2.05333	9.84849E-001	9.10679E-005	0.00000E+000	8.96881E-005	5.39641E-002	9.85082E-001	3.57280E+000	9	...........
	154	2.06667	9.86320E-001	9.12127E-005	0.00000E+000	8.99649E-005	5.39641E-002	9.86557E-001	3.57280E+000	9	...........
	155	2.08	9.87760E-001	9.10189E-005	0.00000E+000	8.99048E-005	5.39641E-002	9.88017E-001	3.57280E+000	9	...........
	156	2.09333	9.89215E-001	9.09772E-005	0.00000E+000	8.99960E-005	5.39641E-002	9.89440E-001	3.57280E+000	9	...........
	157	2.10667	9.90626E-001	9.09866E-005	0.00000E+000	9.01337E-005	5.39641E-002	9.90860E-001	3.57280E+000	9	...........
	158	2.12	9.91994E-001	9.10043E-005	0.00000E+000	9.02758E-005	5.39641E-002	9.92260E-001	3.57280E+000	9	...........
	159	2.13333	9.93392E-001	9.11470E-005	0.00000E+000	9.05448E-005	5.39641E-002	9.93632E-001	3.57280E+000	9	...........
	160	2.14667	9.94788E-001	9.09241E-005	0.00000E+000	9.04502E-005	5.39641E-002	9.95017E-001	3.57280E+000	9	...........
	161	2.16	9.96127E-001	9.08866E-005	0.00000E+000	9.05346E-005	5.39641E-002	9.96390E-001	3.57280E+000	9	...........
	162	2.17333	9.97511E-001	9.10679E-005	0.00000E+000	9.08412E-005	5.39641E-002	9.97767E-001	3.57280E+000	9	...........
	163	2.18667	9.98853E-001	9.09595E-005	0.00000E+000	9.08552E-005	5.39641E-002	9.99106E-001	3.57280E+000	9	...........
	164	2.19333	9.99833E-001	9.10751E-005	0.00000E+000	9.10600E-005	5.39641E-002	1.00011E+000	3.57280E+000	9	...........
STARTTIMEOFFSET	QUANT	3086.092	Start Time Offset (s)
