EXPLAIN
TAG	PWR800_CHARGE
TITLE	LABEL	PWR Cyclic Charge Discharge (Cell) - Charge Step	Test &Identifier
DATE	LABEL	10-7-2017	Date
TIME	LABEL	15:05:55	Time
NOTES	NOTES	3	&Notes...
	supercap test cell
	0.9mg
	6M KOH
PSTAT	PSTAT	IFC5000-01520	Potentiostat
CAPACITY	QUANT	1.00000E-003	Capacity (A-hr)
CELLTYPE	SELECTOR	1	&Cell Type
WORKINGCONNECTION	SELECTOR	0	&Working Lead
MAXCHARGETIME	VARIABLEANDUNITS	1.00000E+002	s	1.00000E+002	second(s)	Max &Charge Time
CHARGECURRENT	QUANT	9.00000E-005	&Charge Current (A) 
VOLTAGEFINISH	TWOPARAM	F	1.00000E-003	3.60000E+003	&Voltage Finish	 I (A) < 	Max Time(s)
SAMPLETIME	QUANT	1.00000E-002	Sa&mple Period (s)
CHARGESTOPAT1	MULTIPARAM	4	1.00000E+000	Charge Stop At &1	Voltage > Limit	V
CHARGESTOPAT2	MULTIPARAM	0	0.00000E+000	Charge Stop At &2	None	N/A
AESBHCSELECTOR	TOGGLE	F	Save Both Half Cells
IRCOMP	TOGGLE	F	IR &Measure
EOC	QUANT	0	Open Circuit (V)
SEQUENCER	TOGGLE	TRUE	Run as Sequence
PSTATMODEL	IQUANT	53	Pstat Model
PSTATSECTION	LABEL	IFC5000-01520	Pstat Section
PSTATSERIALNO	LABEL	01520	Pstat Serial Number
CTRLMODE	IQUANT	0	Control Mode
ELECTROMETER	IQUANT	1	RE=0 or CS=1
IESTAB	IQUANT	0	I/E Stability
CASPEED	IQUANT	4	Control Amp Speed
CONVENTION	IQUANT	1	Current Convention
ICHRANGE	IQUANT	2	Ich Range
ICHRANGEMODE	TOGGLE	T	Ich Auto Range
ICHOFFSETENABLE	TOGGLE	F	Ich Offset Enable
ICHOFFSET	QUANT	0	Ich Offset (V)
ICHFILTER	IQUANT	1	Ich Filter
VCHRANGE	IQUANT	2	Vch Range
VCHRANGEMODE	TOGGLE	T	Vch Auto Range
VCHOFFSETENABLE	TOGGLE	F	Vch Offset Enable
VCHOFFSET	QUANT	0	Vch Offset (V)
VCHFILTER	IQUANT	1	Vch Filter
IERANGELOWERLIMIT	IQUANT	9	I/E Range Lower Limit
IERANGEMODE	TOGGLE	F	I/E AutoRange
IERANGE	IQUANT	9	I/E Range
ACHSELECT	IQUANT	1	Ach Select
ACHRANGE	IQUANT	2	Ach Range
ACHOFFSETENABLE	TOGGLE	F	Ach Offset Enable
ACHOFFSET	QUANT	0	Ach Offset (V)
ACHFILTER	IQUANT	1	Ach Filter
CABLEID	IQUANT	14	Cable ID
DCCALDATE	LABEL	5-7-2017	DC Calibration Date
ACCALDATE	LABEL	12/3/2015	AC Calibration Date
FRAMEWORKVERSION	QUANT	7.01	Framework Version
INSTRUMENTVERSION	LABEL	4.00	Instrument Version
CURVE	TABLE	192
	Pt	T	Vf	Im	Vu	Pwr	Sig	Ach	Temp	IERange	Over
	#	s	V	A	V	W	V	V	deg C	#	bits
	0	0.013333	2.95782E-001	9.09157E-005	0.00000E+000	2.68912E-005	5.39641E-002	2.95824E-001	3.57210E+000	9	...........
	1	0.026667	3.14568E-001	9.11220E-005	0.00000E+000	2.86641E-005	5.39641E-002	3.14594E-001	3.57210E+000	9	...........
	2	0.04	3.31855E-001	9.11272E-005	0.00000E+000	3.02410E-005	5.39641E-002	3.31886E-001	3.57210E+000	9	...........
	3	0.053333	3.47948E-001	9.11085E-005	0.00000E+000	3.17010E-005	5.39641E-002	3.47983E-001	3.57210E+000	9	...........
	4	0.066667	3.63025E-001	9.10720E-005	0.00000E+000	3.30615E-005	5.39641E-002	3.63055E-001	3.57210E+000	9	...........
	5	0.08	3.77227E-001	9.14294E-005	0.00000E+000	3.44897E-005	5.39641E-002	3.77259E-001	3.57210E+000	9	...........
	6	0.093333	3.90680E-001	9.13033E-005	0.00000E+000	3.56704E-005	5.39641E-002	3.90713E-001	3.57210E+000	9	...........
	7	0.106667	4.03475E-001	9.12210E-005	0.00000E+000	3.68054E-005	5.39641E-002	4.03504E-001	3.57210E+000	9	...........
	8	0.12	4.15671E-001	9.11470E-005	0.00000E+000	3.78872E-005	5.39641E-002	4.15714E-001	3.57210E+000	9	...........
	9	0.133333	4.27346E-001	9.09241E-005	0.00000E+000	3.88561E-005	5.39641E-002	4.27386E-001	3.57210E+000	9	...........
	10	0.146667	4.38553E-001	9.08980E-005	0.00000E+000	3.98636E-005	5.39641E-002	4.38595E-001	3.57210E+000	9	...........
	11	0.16	4.49324E-001	9.08574E-005	0.00000E+000	4.08244E-005	5.39641E-002	4.49366E-001	3.57210E+000	9	...........
	12	0.173333	4.59696E-001	9.09835E-005	0.00000E+000	4.18248E-005	5.39641E-002	4.59736E-001	3.57210E+000	9	...........
	13	0.186667	4.69703E-001	9.08980E-005	0.00000E+000	4.26951E-005	5.39641E-002	4.69748E-001	3.57210E+000	9	...........
	14	0.2	4.79372E-001	9.09876E-005	0.00000E+000	4.36169E-005	5.39641E-002	4.79416E-001	3.57210E+000	9	...........
	15	0.213333	4.88719E-001	9.08980E-005	0.00000E+000	4.44236E-005	5.39641E-002	4.88769E-001	3.57210E+000	9	...........
	16	0.226667	4.97782E-001	9.10220E-005	0.00000E+000	4.53091E-005	5.39641E-002	4.97835E-001	3.57210E+000	9	...........
	17	0.24	5.06572E-001	9.13315E-005	0.00000E+000	4.62660E-005	5.39641E-002	5.06626E-001	3.57210E+000	9	...........
	18	0.253333	5.15103E-001	9.12314E-005	0.00000E+000	4.69936E-005	5.39641E-002	5.15157E-001	3.57210E+000	9	...........
	19	0.266667	5.23380E-001	9.13565E-005	0.00000E+000	4.78142E-005	5.39641E-002	5.23438E-001	3.57210E+000	9	...........
	20	0.28	5.31427E-001	9.12366E-005	0.00000E+000	4.84856E-005	5.39641E-002	5.31482E-001	3.57210E+000	9	...........
	21	0.293333	5.39233E-001	9.09595E-005	0.00000E+000	4.90484E-005	5.39641E-002	5.39327E-001	3.57210E+000	9	...........
	22	0.306667	5.46852E-001	9.10751E-005	0.00000E+000	4.98047E-005	5.39641E-002	5.46932E-001	3.57210E+000	9	...........
	23	0.32	5.54275E-001	9.10314E-005	0.00000E+000	5.04564E-005	5.39641E-002	5.54355E-001	3.57210E+000	9	...........
	24	0.333333	5.61511E-001	9.09366E-005	0.00000E+000	5.10619E-005	5.39641E-002	5.61617E-001	3.57210E+000	9	...........
	25	0.346667	5.68615E-001	9.12835E-005	0.00000E+000	5.19052E-005	5.39641E-002	5.68670E-001	3.57210E+000	9	...........
	26	0.36	5.75502E-001	9.12168E-005	0.00000E+000	5.24954E-005	5.39641E-002	5.75565E-001	3.57210E+000	9	...........
	27	0.373333	5.82219E-001	9.11064E-005	0.00000E+000	5.30439E-005	5.39641E-002	5.82277E-001	3.57210E+000	9	...........
	28	0.386667	5.88817E-001	9.11137E-005	0.00000E+000	5.36492E-005	5.39641E-002	5.88895E-001	3.57210E+000	9	...........
	29	0.4	5.95263E-001	9.12742E-005	0.00000E+000	5.43321E-005	5.39641E-002	5.95318E-001	3.57210E+000	9	...........
	30	0.413333	6.01546E-001	9.12856E-005	0.00000E+000	5.49125E-005	5.39641E-002	6.01627E-001	3.57210E+000	9	...........
	31	0.426667	6.07697E-001	9.09064E-005	0.00000E+000	5.52435E-005	5.39641E-002	6.07778E-001	3.57210E+000	9	...........
	32	0.44	6.13743E-001	9.11231E-005	0.00000E+000	5.59262E-005	5.39641E-002	6.13836E-001	3.57210E+000	9	...........
	33	0.453333	6.19698E-001	9.11262E-005	0.00000E+000	5.64707E-005	5.39641E-002	6.19741E-001	3.57210E+000	9	...........
	34	0.466667	6.25455E-001	9.10418E-005	0.00000E+000	5.69426E-005	5.39641E-002	6.25518E-001	3.57210E+000	9	...........
	35	0.48	6.31086E-001	9.09428E-005	0.00000E+000	5.73927E-005	5.39641E-002	6.31178E-001	3.57210E+000	9	...........
	36	0.493333	6.36622E-001	9.13335E-005	0.00000E+000	5.81449E-005	5.39641E-002	6.36738E-001	3.57210E+000	9	...........
	37	0.506667	6.42104E-001	9.11898E-005	0.00000E+000	5.85533E-005	5.39641E-002	6.42207E-001	3.57210E+000	9	...........
	38	0.52	6.47417E-001	9.12168E-005	0.00000E+000	5.90553E-005	5.39641E-002	6.47502E-001	3.57210E+000	9	...........
	39	0.533333	6.52641E-001	9.12231E-005	0.00000E+000	5.95360E-005	5.39641E-002	6.52743E-001	3.57210E+000	9	...........
	40	0.546667	6.57757E-001	9.12939E-005	0.00000E+000	6.00492E-005	5.39641E-002	6.57868E-001	3.57210E+000	9	...........
	41	0.56	6.62789E-001	9.14065E-005	0.00000E+000	6.05832E-005	5.39641E-002	6.62893E-001	3.57210E+000	9	...........
	42	0.573333	6.67766E-001	9.12106E-005	0.00000E+000	6.09073E-005	5.39641E-002	6.67857E-001	3.57210E+000	9	...........
	43	0.586667	6.72614E-001	9.13679E-005	0.00000E+000	6.14553E-005	5.39641E-002	6.72712E-001	3.57210E+000	9	...........
	44	0.6	6.77389E-001	9.11116E-005	0.00000E+000	6.17180E-005	5.39641E-002	6.77513E-001	3.57210E+000	9	...........
	45	0.613333	6.82094E-001	9.10324E-005	0.00000E+000	6.20926E-005	5.39641E-002	6.82203E-001	3.57210E+000	9	...........
	46	0.626667	6.86701E-001	9.08647E-005	0.00000E+000	6.23969E-005	5.39641E-002	6.86790E-001	3.57210E+000	9	...........
	47	0.64	6.91227E-001	9.13961E-005	0.00000E+000	6.31754E-005	5.39641E-002	6.91353E-001	3.57210E+000	9	...........
	48	0.653333	6.95717E-001	9.11741E-005	0.00000E+000	6.34314E-005	5.39641E-002	6.95810E-001	3.57210E+000	9	...........
	49	0.666667	7.00106E-001	9.13700E-005	0.00000E+000	6.39687E-005	5.39641E-002	7.00202E-001	3.57210E+000	9	...........
	50	0.68	7.04414E-001	9.14492E-005	0.00000E+000	6.44181E-005	5.39641E-002	7.04521E-001	3.57210E+000	9	...........
	51	0.693333	7.08655E-001	9.12637E-005	0.00000E+000	6.46745E-005	5.39641E-002	7.08765E-001	3.57210E+000	9	...........
	52	0.706667	7.12830E-001	9.11470E-005	0.00000E+000	6.49723E-005	5.39641E-002	7.12931E-001	3.57210E+000	9	...........
	53	0.72	7.16959E-001	9.12846E-005	0.00000E+000	6.54473E-005	5.39641E-002	7.17084E-001	3.57210E+000	9	...........
	54	0.733333	7.21043E-001	9.12731E-005	0.00000E+000	6.58118E-005	5.39641E-002	7.21128E-001	3.57210E+000	9	...........
	55	0.746667	7.25027E-001	9.13377E-005	0.00000E+000	6.62223E-005	5.39641E-002	7.25113E-001	3.57210E+000	9	...........
	56	0.76	7.28967E-001	9.10908E-005	0.00000E+000	6.64022E-005	5.39641E-002	7.29055E-001	3.57210E+000	9	...........
	57	0.773333	7.32817E-001	9.11366E-005	0.00000E+000	6.67865E-005	5.39641E-002	7.32920E-001	3.57210E+000	9	...........
	58	0.786667	7.36604E-001	9.09282E-005	0.00000E+000	6.69781E-005	5.39641E-002	7.36721E-001	3.57210E+000	9	...........
	59	0.8	7.40359E-001	9.10272E-005	0.00000E+000	6.73928E-005	5.39641E-002	7.40466E-001	3.57255E+000	9	...........
	60	0.813333	7.44075E-001	9.11616E-005	0.00000E+000	6.78311E-005	5.39641E-002	7.44169E-001	3.57270E+000	9	...........
	61	0.826667	7.47702E-001	9.13835E-005	0.00000E+000	6.83276E-005	5.39641E-002	7.47801E-001	3.57270E+000	9	...........
	62	0.84	7.51279E-001	9.10460E-005	0.00000E+000	6.84009E-005	5.39641E-002	7.51369E-001	3.57270E+000	9	...........
	63	0.853333	7.54817E-001	9.10876E-005	0.00000E+000	6.87545E-005	5.39641E-002	7.54926E-001	3.57270E+000	9	...........
	64	0.866667	7.58352E-001	9.11960E-005	0.00000E+000	6.91586E-005	5.39641E-002	7.58426E-001	3.57270E+000	9	...........
	65	0.88	7.61797E-001	9.10324E-005	0.00000E+000	6.93482E-005	5.39641E-002	7.61867E-001	3.57270E+000	9	...........
	66	0.893333	7.65188E-001	9.10887E-005	0.00000E+000	6.97000E-005	5.39641E-002	7.65281E-001	3.57270E+000	9	...........
	67	0.906667	7.68565E-001	9.12148E-005	0.00000E+000	7.01045E-005	5.39641E-002	7.68670E-001	3.57270E+000	9	...........
	68	0.92	7.71880E-001	9.12762E-005	0.00000E+000	7.04543E-005	5.39641E-002	7.71952E-001	3.57270E+000	9	...........
	69	0.933333	7.75135E-001	9.11397E-005	0.00000E+000	7.06456E-005	5.39641E-002	7.75217E-001	3.57270E+000	9	...........
	70	0.946667	7.78335E-001	9.13700E-005	0.00000E+000	7.11165E-005	5.39641E-002	7.78415E-001	3.57270E+000	9	...........
	71	0.96	7.81544E-001	9.14356E-005	0.00000E+000	7.14610E-005	5.39641E-002	7.81612E-001	3.57270E+000	9	...........
	72	0.97333	7.84681E-001	9.10418E-005	0.00000E+000	7.14388E-005	5.39641E-002	7.84764E-001	3.57270E+000	9	...........
	73	0.98667	7.87786E-001	9.12158E-005	0.00000E+000	7.18586E-005	5.39641E-002	7.87871E-001	3.57270E+000	9	...........
	74	1	7.90854E-001	9.11783E-005	0.00000E+000	7.21087E-005	5.39641E-002	7.90954E-001	3.57270E+000	9	...........
	75	1.01333	7.93935E-001	9.10501E-005	0.00000E+000	7.22879E-005	5.39641E-002	7.94029E-001	3.57270E+000	9	...........
	76	1.02667	7.96901E-001	9.13262E-005	0.00000E+000	7.27780E-005	5.39641E-002	7.96992E-001	3.57270E+000	9	...........
	77	1.04	7.99860E-001	9.12846E-005	0.00000E+000	7.30148E-005	5.39641E-002	7.99960E-001	3.57270E+000	9	...........
	78	1.05333	8.02781E-001	9.13502E-005	0.00000E+000	7.33342E-005	5.39641E-002	8.02867E-001	3.57270E+000	9	...........
	79	1.06667	8.05669E-001	9.11314E-005	0.00000E+000	7.34218E-005	5.39641E-002	8.05780E-001	3.57270E+000	9	...........
	80	1.08	8.08514E-001	9.11991E-005	0.00000E+000	7.37358E-005	5.39641E-002	8.08607E-001	3.57270E+000	9	...........
	81	1.09333	8.11331E-001	9.11043E-005	0.00000E+000	7.39158E-005	5.39641E-002	8.11430E-001	3.57270E+000	9	...........
	82	1.10667	8.14126E-001	9.13825E-005	0.00000E+000	7.43969E-005	5.39641E-002	8.14238E-001	3.57270E+000	9	...........
	83	1.12	8.16876E-001	9.13804E-005	0.00000E+000	7.46465E-005	5.39641E-002	8.17008E-001	3.57270E+000	9	...........
	84	1.13333	8.19632E-001	9.12335E-005	0.00000E+000	7.47779E-005	5.39641E-002	8.19763E-001	3.57270E+000	9	...........
	85	1.14667	8.22318E-001	9.12929E-005	0.00000E+000	7.50718E-005	5.39641E-002	8.22465E-001	3.57270E+000	9	...........
	86	1.16	8.24985E-001	9.10085E-005	0.00000E+000	7.50806E-005	5.39641E-002	8.25140E-001	3.57270E+000	9	...........
	87	1.17333	8.27624E-001	9.12825E-005	0.00000E+000	7.55475E-005	5.39641E-002	8.27752E-001	3.57270E+000	9	...........
	88	1.18667	8.30215E-001	9.12189E-005	0.00000E+000	7.57313E-005	5.39641E-002	8.30356E-001	3.57270E+000	9	...........
	89	1.2	8.32824E-001	9.12293E-005	0.00000E+000	7.59780E-005	5.39641E-002	8.32963E-001	3.57270E+000	9	...........
	90	1.21333	8.35394E-001	9.10512E-005	0.00000E+000	7.60636E-005	5.39641E-002	8.35537E-001	3.57270E+000	9	...........
	91	1.22667	8.37910E-001	9.11033E-005	0.00000E+000	7.63363E-005	5.39641E-002	8.38052E-001	3.57270E+000	9	...........
	92	1.24	8.40426E-001	9.13502E-005	0.00000E+000	7.67731E-005	5.39641E-002	8.40558E-001	3.57270E+000	9	...........
	93	1.25333	8.42864E-001	9.10960E-005	0.00000E+000	7.67815E-005	5.39641E-002	8.43043E-001	3.57270E+000	9	...........
	94	1.26667	8.45390E-001	9.10137E-005	0.00000E+000	7.69421E-005	5.39641E-002	8.45518E-001	3.57270E+000	9	...........
	95	1.28	8.47809E-001	9.12398E-005	0.00000E+000	7.73539E-005	5.39641E-002	8.47971E-001	3.57270E+000	9	...........
	96	1.29333	8.50206E-001	9.11918E-005	0.00000E+000	7.75318E-005	5.39641E-002	8.50356E-001	3.57270E+000	9	...........
	97	1.30667	8.52570E-001	9.13346E-005	0.00000E+000	7.78691E-005	5.39641E-002	8.52694E-001	3.57270E+000	9	...........
	98	1.32	8.54905E-001	9.11991E-005	0.00000E+000	7.79666E-005	5.39641E-002	8.55051E-001	3.57270E+000	9	...........
	99	1.33333	8.57251E-001	9.11043E-005	0.00000E+000	7.80992E-005	5.39641E-002	8.57383E-001	3.57270E+000	9	...........
	100	1.34667	8.59543E-001	9.10720E-005	0.00000E+000	7.82803E-005	5.39641E-002	8.59703E-001	3.57270E+000	9	...........
	101	1.36	8.61830E-001	9.12075E-005	0.00000E+000	7.86053E-005	5.39641E-002	8.61949E-001	3.57270E+000	9	...........
	102	1.37333	8.64082E-001	9.12585E-005	0.00000E+000	7.88548E-005	5.39641E-002	8.64188E-001	3.57270E+000	9	...........
	103	1.38667	8.66305E-001	9.10793E-005	0.00000E+000	7.89025E-005	5.39641E-002	8.66437E-001	3.57270E+000	9	...........
	104	1.4	8.68544E-001	9.12439E-005	0.00000E+000	7.92493E-005	5.39641E-002	8.68682E-001	3.57270E+000	9	...........
	105	1.41333	8.70771E-001	9.12992E-005	0.00000E+000	7.95006E-005	5.39641E-002	8.70894E-001	3.57270E+000	9	...........
	106	1.42667	8.72925E-001	9.13398E-005	0.00000E+000	7.97328E-005	5.39641E-002	8.73056E-001	3.57270E+000	9	...........
	107	1.44	8.75072E-001	9.13492E-005	0.00000E+000	7.99371E-005	5.39641E-002	8.75223E-001	3.57270E+000	9	...........
	108	1.45333	8.77242E-001	9.10512E-005	0.00000E+000	7.98739E-005	5.39641E-002	8.77361E-001	3.57270E+000	9	...........
	109	1.46667	8.79339E-001	9.11429E-005	0.00000E+000	8.01455E-005	5.39641E-002	8.79478E-001	3.57270E+000	9	...........
	110	1.48	8.81433E-001	9.12585E-005	0.00000E+000	8.04383E-005	5.39641E-002	8.81583E-001	3.57270E+000	9	...........
	111	1.49333	8.83518E-001	9.10533E-005	0.00000E+000	8.04472E-005	5.39641E-002	8.83649E-001	3.57270E+000	9	...........
	112	1.50667	8.85575E-001	9.12992E-005	0.00000E+000	8.08522E-005	5.39641E-002	8.85722E-001	3.57270E+000	9	...........
	113	1.52	8.87627E-001	9.13512E-005	0.00000E+000	8.10858E-005	5.39641E-002	8.87801E-001	3.57270E+000	9	...........
	114	1.53333	8.89650E-001	9.12773E-005	0.00000E+000	8.12048E-005	5.39641E-002	8.89809E-001	3.57270E+000	9	...........
	115	1.54667	8.91643E-001	9.11564E-005	0.00000E+000	8.12790E-005	5.39641E-002	8.91792E-001	3.57270E+000	9	...........
	116	1.56	8.93590E-001	9.11179E-005	0.00000E+000	8.14221E-005	5.39641E-002	8.93752E-001	3.57270E+000	9	...........
	117	1.57333	8.95545E-001	9.12867E-005	0.00000E+000	8.17513E-005	5.39641E-002	8.95733E-001	3.57270E+000	9	...........
	118	1.58667	8.97471E-001	9.11127E-005	0.00000E+000	8.17709E-005	5.39641E-002	8.97648E-001	3.57270E+000	9	...........
	119	1.6	8.99406E-001	9.10897E-005	0.00000E+000	8.19267E-005	5.39641E-002	8.99525E-001	3.57270E+000	9	...........
	120	1.61333	9.01282E-001	9.13804E-005	0.00000E+000	8.23595E-005	5.39641E-002	9.01438E-001	3.57270E+000	9	...........
	121	1.62667	9.03176E-001	9.12043E-005	0.00000E+000	8.23736E-005	5.39641E-002	9.03332E-001	3.57270E+000	9	...........
	122	1.64	9.05035E-001	9.11491E-005	0.00000E+000	8.24931E-005	5.39641E-002	9.05197E-001	3.57270E+000	9	...........
	123	1.65333	9.06877E-001	9.12002E-005	0.00000E+000	8.27073E-005	5.39641E-002	9.07047E-001	3.57270E+000	9	...........
	124	1.66667	9.08740E-001	9.10824E-005	0.00000E+000	8.27702E-005	5.39641E-002	9.08892E-001	3.57270E+000	9	...........
	125	1.68	9.10534E-001	9.11022E-005	0.00000E+000	8.29517E-005	5.39641E-002	9.10698E-001	3.57270E+000	9	...........
	126	1.69333	9.12320E-001	9.13294E-005	0.00000E+000	8.33216E-005	5.39641E-002	9.12488E-001	3.57270E+000	9	...........
	127	1.70667	9.14146E-001	9.11845E-005	0.00000E+000	8.33559E-005	5.39641E-002	9.14299E-001	3.57270E+000	9	...........
	128	1.72	9.15882E-001	9.09762E-005	0.00000E+000	8.33235E-005	5.39641E-002	9.16052E-001	3.57270E+000	9	...........
	129	1.73333	9.17609E-001	9.11106E-005	0.00000E+000	8.36039E-005	5.39641E-002	9.17779E-001	3.57270E+000	9	...........
	130	1.74667	9.19329E-001	9.10814E-005	0.00000E+000	8.37338E-005	5.39641E-002	9.19504E-001	3.57270E+000	9	...........
	131	1.76	9.21094E-001	9.12033E-005	0.00000E+000	8.40068E-005	5.39641E-002	9.21229E-001	3.57270E+000	9	...........
	132	1.77333	9.22784E-001	9.12929E-005	0.00000E+000	8.42436E-005	5.39641E-002	9.22900E-001	3.57270E+000	9	...........
	133	1.78667	9.24488E-001	9.10918E-005	0.00000E+000	8.42133E-005	5.39641E-002	9.24585E-001	3.57270E+000	9	...........
	134	1.8	9.26127E-001	9.11741E-005	0.00000E+000	8.44389E-005	5.39641E-002	9.26252E-001	3.57172E+000	9	...........
	135	1.81333	9.27786E-001	9.11637E-005	0.00000E+000	8.45804E-005	5.39641E-002	9.27915E-001	3.57140E+000	9	...........
	136	1.82667	9.29407E-001	9.11689E-005	0.00000E+000	8.47331E-005	5.39641E-002	9.29530E-001	3.57140E+000	9	...........
	137	1.84	9.31016E-001	9.14242E-005	0.00000E+000	8.51173E-005	5.39641E-002	9.31147E-001	3.57140E+000	9	...........
	138	1.85333	9.32635E-001	9.11283E-005	0.00000E+000	8.49894E-005	5.39641E-002	9.32747E-001	3.57140E+000	9	...........
	139	1.86667	9.34227E-001	9.12804E-005	0.00000E+000	8.52766E-005	5.39641E-002	9.34348E-001	3.57140E+000	9	...........
	140	1.88	9.35782E-001	9.10970E-005	0.00000E+000	8.52470E-005	5.39641E-002	9.35920E-001	3.57140E+000	9	...........
	141	1.89333	9.37333E-001	9.11460E-005	0.00000E+000	8.54341E-005	5.39641E-002	9.37475E-001	3.57140E+000	9	...........
	142	1.90667	9.38867E-001	9.12356E-005	0.00000E+000	8.56581E-005	5.39641E-002	9.39018E-001	3.57140E+000	9	...........
	143	1.92	9.40389E-001	9.11533E-005	0.00000E+000	8.57196E-005	5.39641E-002	9.40540E-001	3.57140E+000	9	...........
	144	1.93333	9.41912E-001	9.08230E-005	0.00000E+000	8.55473E-005	5.39641E-002	9.42049E-001	3.57140E+000	9	...........
	145	1.94667	9.43384E-001	9.13596E-005	0.00000E+000	8.61872E-005	5.39641E-002	9.43553E-001	3.57140E+000	9	...........
	146	1.96	9.44889E-001	9.10293E-005	0.00000E+000	8.60126E-005	5.39641E-002	9.45036E-001	3.57140E+000	9	...........
	147	1.97333	9.46407E-001	9.12043E-005	0.00000E+000	8.63165E-005	5.39641E-002	9.46571E-001	3.57140E+000	9	...........
	148	1.98667	9.47931E-001	9.11835E-005	0.00000E+000	8.64356E-005	5.39641E-002	9.48081E-001	3.57140E+000	9	...........
	149	2	9.49391E-001	9.12481E-005	0.00000E+000	8.66301E-005	5.39641E-002	9.49538E-001	3.57140E+000	9	...........
	150	2.01333	9.50844E-001	9.10741E-005	0.00000E+000	8.65973E-005	5.39641E-002	9.50976E-001	3.57140E+000	9	...........
	151	2.02667	9.52277E-001	9.10939E-005	0.00000E+000	8.67466E-005	5.39641E-002	9.52444E-001	3.57140E+000	9	...........
	152	2.04	9.53685E-001	9.11637E-005	0.00000E+000	8.69415E-005	5.39641E-002	9.53829E-001	3.57140E+000	9	...........
	153	2.05333	9.55078E-001	9.10668E-005	0.00000E+000	8.69759E-005	5.39641E-002	9.55223E-001	3.57140E+000	9	...........
	154	2.06667	9.56467E-001	9.13554E-005	0.00000E+000	8.73785E-005	5.39641E-002	9.56629E-001	3.57140E+000	9	...........
	155	2.08	9.57848E-001	9.11220E-005	0.00000E+000	8.72811E-005	5.39641E-002	9.57991E-001	3.57140E+000	9	...........
	156	2.09333	9.59228E-001	9.13044E-005	0.00000E+000	8.75817E-005	5.39641E-002	9.59386E-001	3.57140E+000	9	...........
	157	2.10667	9.60576E-001	9.13106E-005	0.00000E+000	8.77108E-005	5.39641E-002	9.60753E-001	3.57140E+000	9	...........
	158	2.12	9.61912E-001	9.11804E-005	0.00000E+000	8.77075E-005	5.39641E-002	9.62095E-001	3.57140E+000	9	...........
	159	2.13333	9.63219E-001	9.13242E-005	0.00000E+000	8.79651E-005	5.39641E-002	9.63425E-001	3.57140E+000	9	...........
	160	2.14667	9.64535E-001	9.10293E-005	0.00000E+000	8.78010E-005	5.39641E-002	9.64739E-001	3.57140E+000	9	...........
	161	2.16	9.65843E-001	9.12596E-005	0.00000E+000	8.81424E-005	5.39641E-002	9.66030E-001	3.57140E+000	9	...........
	162	2.17333	9.67166E-001	9.13044E-005	0.00000E+000	8.83065E-005	5.39641E-002	9.67339E-001	3.57140E+000	9	...........
	163	2.18667	9.68454E-001	9.12346E-005	0.00000E+000	8.83565E-005	5.39641E-002	9.68618E-001	3.57140E+000	9	...........
	164	2.2	9.69709E-001	9.12669E-005	0.00000E+000	8.85023E-005	5.39641E-002	9.69879E-001	3.57140E+000	9	...........
	165	2.21333	9.70970E-001	9.12512E-005	0.00000E+000	8.86022E-005	5.39641E-002	9.71149E-001	3.57140E+000	9	...........
	166	2.22667	9.72256E-001	9.09074E-005	0.00000E+000	8.83852E-005	5.39641E-002	9.72426E-001	3.57140E+000	9	...........
	167	2.24	9.73536E-001	9.10345E-005	0.00000E+000	8.86254E-005	5.39641E-002	9.73671E-001	3.57140E+000	9	...........
	168	2.25333	9.74770E-001	9.12293E-005	0.00000E+000	8.89277E-005	5.39641E-002	9.74888E-001	3.57140E+000	9	...........
	169	2.26667	9.75976E-001	9.10668E-005	0.00000E+000	8.88790E-005	5.39641E-002	9.76117E-001	3.57140E+000	9	...........
	170	2.28	9.77178E-001	9.12054E-005	0.00000E+000	8.91239E-005	5.39641E-002	9.77329E-001	3.57140E+000	9	...........
	171	2.29333	9.78367E-001	9.10460E-005	0.00000E+000	8.90764E-005	5.39641E-002	9.78528E-001	3.57140E+000	9	...........
	172	2.30667	9.79546E-001	9.11710E-005	0.00000E+000	8.93062E-005	5.39641E-002	9.79695E-001	3.57140E+000	9	...........
	173	2.32	9.80716E-001	9.11491E-005	0.00000E+000	8.93914E-005	5.39641E-002	9.80855E-001	3.57140E+000	9	...........
	174	2.33333	9.81878E-001	9.13669E-005	0.00000E+000	8.97111E-005	5.39641E-002	9.82036E-001	3.57140E+000	9	...........
	175	2.34667	9.83040E-001	9.11939E-005	0.00000E+000	8.96472E-005	5.39641E-002	9.83193E-001	3.57140E+000	9	...........
	176	2.36	9.84168E-001	9.12648E-005	0.00000E+000	8.98198E-005	5.39641E-002	9.84339E-001	3.57140E+000	9	...........
	177	2.37333	9.85289E-001	9.11627E-005	0.00000E+000	8.98216E-005	5.39641E-002	9.85494E-001	3.57140E+000	9	...........
	178	2.38667	9.86421E-001	9.09960E-005	0.00000E+000	8.97603E-005	5.39641E-002	9.86589E-001	3.57140E+000	9	...........
	179	2.4	9.87521E-001	9.11637E-005	0.00000E+000	9.00261E-005	5.39641E-002	9.87685E-001	3.57140E+000	9	...........
	180	2.41333	9.88673E-001	9.09866E-005	0.00000E+000	8.99560E-005	5.39641E-002	9.88789E-001	3.57140E+000	9	...........
	181	2.42667	9.89763E-001	9.09720E-005	0.00000E+000	9.00408E-005	5.39641E-002	9.89875E-001	3.57140E+000	9	...........
	182	2.44	9.90825E-001	9.12064E-005	0.00000E+000	9.03696E-005	5.39641E-002	9.90959E-001	3.57140E+000	9	...........
	183	2.45333	9.91909E-001	9.11283E-005	0.00000E+000	9.03910E-005	5.39641E-002	9.92032E-001	3.57140E+000	9	...........
	184	2.46667	9.92955E-001	9.11450E-005	0.00000E+000	9.05028E-005	5.39641E-002	9.93111E-001	3.57140E+000	9	...........
	185	2.48	9.93996E-001	9.10835E-005	0.00000E+000	9.05366E-005	5.39641E-002	9.94170E-001	3.57140E+000	9	...........
	186	2.49333	9.95105E-001	9.10272E-005	0.00000E+000	9.05817E-005	5.39641E-002	9.95231E-001	3.57140E+000	9	...........
	187	2.50667	9.96153E-001	9.10918E-005	0.00000E+000	9.07414E-005	5.39641E-002	9.96279E-001	3.57140E+000	9	...........
	188	2.52	9.97174E-001	9.10220E-005	0.00000E+000	9.07648E-005	5.39641E-002	9.97336E-001	3.57140E+000	9	...........
	189	2.53333	9.98257E-001	9.13367E-005	0.00000E+000	9.11774E-005	5.39641E-002	9.98366E-001	3.57140E+000	9	...........
	190	2.54667	9.99251E-001	9.13825E-005	0.00000E+000	9.13140E-005	5.39641E-002	9.99420E-001	3.57140E+000	9	...........
	191	2.55167	9.99959E-001	9.12960E-005	0.00000E+000	9.12923E-005	5.39641E-002	1.00011E+000	3.57140E+000	9	...........
STARTTIMEOFFSET	QUANT	338.5783	Start Time Offset (s)
