EXPLAIN
TAG	PWR800_CHARGE
TITLE	LABEL	PWR Cyclic Charge Discharge (Cell) - Charge Step	Test &Identifier
DATE	LABEL	10-7-2017	Date
TIME	LABEL	15:11:32	Time
NOTES	NOTES	3	&Notes...
	supercap test cell
	0.9mg
	6M KOH
PSTAT	PSTAT	IFC5000-01520	Potentiostat
CAPACITY	QUANT	1.00000E-003	Capacity (A-hr)
CELLTYPE	SELECTOR	1	&Cell Type
WORKINGCONNECTION	SELECTOR	0	&Working Lead
MAXCHARGETIME	VARIABLEANDUNITS	1.00000E+002	s	1.00000E+002	second(s)	Max &Charge Time
CHARGECURRENT	QUANT	9.00000E-005	&Charge Current (A) 
VOLTAGEFINISH	TWOPARAM	F	1.00000E-003	3.60000E+003	&Voltage Finish	 I (A) < 	Max Time(s)
SAMPLETIME	QUANT	1.00000E-002	Sa&mple Period (s)
CHARGESTOPAT1	MULTIPARAM	4	1.00000E+000	Charge Stop At &1	Voltage > Limit	V
CHARGESTOPAT2	MULTIPARAM	0	0.00000E+000	Charge Stop At &2	None	N/A
AESBHCSELECTOR	TOGGLE	F	Save Both Half Cells
IRCOMP	TOGGLE	F	IR &Measure
EOC	QUANT	0	Open Circuit (V)
SEQUENCER	TOGGLE	TRUE	Run as Sequence
PSTATMODEL	IQUANT	53	Pstat Model
PSTATSECTION	LABEL	IFC5000-01520	Pstat Section
PSTATSERIALNO	LABEL	01520	Pstat Serial Number
CTRLMODE	IQUANT	0	Control Mode
ELECTROMETER	IQUANT	1	RE=0 or CS=1
IESTAB	IQUANT	0	I/E Stability
CASPEED	IQUANT	4	Control Amp Speed
CONVENTION	IQUANT	1	Current Convention
ICHRANGE	IQUANT	2	Ich Range
ICHRANGEMODE	TOGGLE	T	Ich Auto Range
ICHOFFSETENABLE	TOGGLE	F	Ich Offset Enable
ICHOFFSET	QUANT	0	Ich Offset (V)
ICHFILTER	IQUANT	1	Ich Filter
VCHRANGE	IQUANT	2	Vch Range
VCHRANGEMODE	TOGGLE	T	Vch Auto Range
VCHOFFSETENABLE	TOGGLE	F	Vch Offset Enable
VCHOFFSET	QUANT	0	Vch Offset (V)
VCHFILTER	IQUANT	1	Vch Filter
IERANGELOWERLIMIT	IQUANT	9	I/E Range Lower Limit
IERANGEMODE	TOGGLE	F	I/E AutoRange
IERANGE	IQUANT	9	I/E Range
ACHSELECT	IQUANT	1	Ach Select
ACHRANGE	IQUANT	2	Ach Range
ACHOFFSETENABLE	TOGGLE	F	Ach Offset Enable
ACHOFFSET	QUANT	0	Ach Offset (V)
ACHFILTER	IQUANT	1	Ach Filter
CABLEID	IQUANT	14	Cable ID
DCCALDATE	LABEL	5-7-2017	DC Calibration Date
ACCALDATE	LABEL	12/3/2015	AC Calibration Date
FRAMEWORKVERSION	QUANT	7.01	Framework Version
INSTRUMENTVERSION	LABEL	4.00	Instrument Version
CURVE	TABLE	185
	Pt	T	Vf	Im	Vu	Pwr	Sig	Ach	Temp	IERange	Over
	#	s	V	A	V	W	V	V	deg C	#	bits
	0	0.013333	2.89290E-001	9.10512E-005	0.00000E+000	2.63402E-005	5.39641E-002	2.89344E-001	3.57250E+000	9	...........
	1	0.026667	3.08480E-001	9.10543E-005	0.00000E+000	2.80884E-005	5.39641E-002	3.08511E-001	3.57250E+000	9	...........
	2	0.04	3.26180E-001	9.10356E-005	0.00000E+000	2.96940E-005	5.39641E-002	3.26211E-001	3.57250E+000	9	...........
	3	0.053333	3.42664E-001	9.11825E-005	0.00000E+000	3.12449E-005	5.39641E-002	3.42697E-001	3.57250E+000	9	...........
	4	0.066667	3.58134E-001	9.09126E-005	0.00000E+000	3.25589E-005	5.39641E-002	3.58173E-001	3.57250E+000	9	...........
	5	0.08	3.72728E-001	9.12054E-005	0.00000E+000	3.39948E-005	5.39641E-002	3.72767E-001	3.57250E+000	9	...........
	6	0.093333	3.86556E-001	9.11575E-005	0.00000E+000	3.52375E-005	5.39641E-002	3.86593E-001	3.57250E+000	9	...........
	7	0.106667	3.99702E-001	9.10970E-005	0.00000E+000	3.64116E-005	5.39641E-002	3.99740E-001	3.57250E+000	9	...........
	8	0.12	4.12241E-001	9.09324E-005	0.00000E+000	3.74860E-005	5.39641E-002	4.12285E-001	3.57250E+000	9	...........
	9	0.133333	4.24241E-001	9.08616E-005	0.00000E+000	3.85472E-005	5.39641E-002	4.24282E-001	3.57250E+000	9	...........
	10	0.146667	4.35733E-001	9.07417E-005	0.00000E+000	3.95392E-005	5.39641E-002	4.35780E-001	3.57250E+000	9	...........
	11	0.16	4.46779E-001	9.11970E-005	0.00000E+000	4.07449E-005	5.39641E-002	4.46827E-001	3.57250E+000	9	...........
	12	0.173333	4.57408E-001	9.12210E-005	0.00000E+000	4.17252E-005	5.39641E-002	4.57452E-001	3.57250E+000	9	...........
	13	0.186667	4.67653E-001	9.11658E-005	0.00000E+000	4.26339E-005	5.39641E-002	4.67701E-001	3.57250E+000	9	...........
	14	0.2	4.77549E-001	9.12439E-005	0.00000E+000	4.35734E-005	5.39641E-002	4.77596E-001	3.57250E+000	9	...........
	15	0.213333	4.87121E-001	9.10960E-005	0.00000E+000	4.43747E-005	5.39641E-002	4.87170E-001	3.57250E+000	9	...........
	16	0.226667	4.96387E-001	9.09824E-005	0.00000E+000	4.51625E-005	5.39641E-002	4.96440E-001	3.57250E+000	9	...........
	17	0.24	5.05372E-001	9.10783E-005	0.00000E+000	4.60284E-005	5.39641E-002	5.05424E-001	3.57250E+000	9	...........
	18	0.253333	5.14074E-001	9.10449E-005	0.00000E+000	4.68039E-005	5.39641E-002	5.14125E-001	3.57250E+000	9	...........
	19	0.266667	5.22513E-001	9.11814E-005	0.00000E+000	4.76435E-005	5.39641E-002	5.22571E-001	3.57250E+000	9	...........
	20	0.28	5.30711E-001	9.10908E-005	0.00000E+000	4.83429E-005	5.39641E-002	5.30780E-001	3.57250E+000	9	...........
	21	0.293333	5.38679E-001	9.11408E-005	0.00000E+000	4.90957E-005	5.39641E-002	5.38744E-001	3.57250E+000	9	...........
	22	0.306667	5.46448E-001	9.11345E-005	0.00000E+000	4.98003E-005	5.39641E-002	5.46530E-001	3.57250E+000	9	...........
	23	0.32	5.54011E-001	9.08209E-005	0.00000E+000	5.03158E-005	5.39641E-002	5.54082E-001	3.57250E+000	9	...........
	24	0.333333	5.61393E-001	9.12231E-005	0.00000E+000	5.12120E-005	5.39641E-002	5.61476E-001	3.57250E+000	9	...........
	25	0.346667	5.68615E-001	9.10116E-005	0.00000E+000	5.17506E-005	5.39641E-002	5.68691E-001	3.57250E+000	9	...........
	26	0.36	5.75633E-001	9.10689E-005	0.00000E+000	5.24223E-005	5.39641E-002	5.75707E-001	3.57250E+000	9	...........
	27	0.373333	5.82459E-001	9.12335E-005	0.00000E+000	5.31398E-005	5.39641E-002	5.82538E-001	3.57250E+000	9	...........
	28	0.386667	5.89183E-001	9.11377E-005	0.00000E+000	5.36968E-005	5.39641E-002	5.89258E-001	3.57250E+000	9	...........
	29	0.4	5.95699E-001	9.11168E-005	0.00000E+000	5.42782E-005	5.39641E-002	5.95782E-001	3.57250E+000	9	...........
	30	0.413333	6.02064E-001	9.13398E-005	0.00000E+000	5.49924E-005	5.39641E-002	6.02167E-001	3.57250E+000	9	...........
	31	0.426667	6.08287E-001	9.11543E-005	0.00000E+000	5.54480E-005	5.39641E-002	6.08391E-001	3.57250E+000	9	...........
	32	0.44	6.14435E-001	9.10231E-005	0.00000E+000	5.59277E-005	5.39641E-002	6.14536E-001	3.57250E+000	9	...........
	33	0.453333	6.20444E-001	9.10293E-005	0.00000E+000	5.64786E-005	5.39641E-002	6.20516E-001	3.57250E+000	9	...........
	34	0.466667	6.26283E-001	9.12491E-005	0.00000E+000	5.71478E-005	5.39641E-002	6.26366E-001	3.57250E+000	9	...........
	35	0.48	6.31995E-001	9.11366E-005	0.00000E+000	5.75979E-005	5.39641E-002	6.32109E-001	3.57250E+000	9	...........
	36	0.493333	6.37618E-001	9.11252E-005	0.00000E+000	5.81031E-005	5.39641E-002	6.37721E-001	3.57250E+000	9	...........
	37	0.506667	6.43147E-001	9.10908E-005	0.00000E+000	5.85847E-005	5.39641E-002	6.43259E-001	3.57250E+000	9	...........
	38	0.52	6.48537E-001	9.11335E-005	0.00000E+000	5.91035E-005	5.39641E-002	6.48629E-001	3.57250E+000	9	...........
	39	0.533333	6.53829E-001	9.08866E-005	0.00000E+000	5.94243E-005	5.39641E-002	6.53932E-001	3.57250E+000	9	...........
	40	0.546667	6.59028E-001	9.11095E-005	0.00000E+000	6.00437E-005	5.39641E-002	6.59127E-001	3.57250E+000	9	...........
	41	0.56	6.64138E-001	9.08803E-005	0.00000E+000	6.03571E-005	5.39641E-002	6.64278E-001	3.57250E+000	9	...........
	42	0.573333	6.69208E-001	9.09605E-005	0.00000E+000	6.08715E-005	5.39641E-002	6.69307E-001	3.57250E+000	9	...........
	43	0.586667	6.74119E-001	9.12512E-005	0.00000E+000	6.15142E-005	5.39641E-002	6.74225E-001	3.57250E+000	9	...........
	44	0.6	6.78966E-001	9.11335E-005	0.00000E+000	6.18766E-005	5.39641E-002	6.79077E-001	3.57250E+000	9	...........
	45	0.613333	6.83714E-001	9.11074E-005	0.00000E+000	6.22914E-005	5.39641E-002	6.83819E-001	3.57250E+000	9	...........
	46	0.626667	6.88408E-001	9.10762E-005	0.00000E+000	6.26976E-005	5.39641E-002	6.88522E-001	3.57250E+000	9	...........
	47	0.64	6.93030E-001	9.12231E-005	0.00000E+000	6.32204E-005	5.39641E-002	6.93135E-001	3.57250E+000	9	...........
	48	0.653333	6.97522E-001	9.13252E-005	0.00000E+000	6.37013E-005	5.39641E-002	6.97638E-001	3.57250E+000	9	...........
	49	0.666667	7.01960E-001	9.13210E-005	0.00000E+000	6.41037E-005	5.39641E-002	7.02069E-001	3.57250E+000	9	...........
	50	0.68	7.06317E-001	9.13658E-005	0.00000E+000	6.45333E-005	5.39641E-002	7.06445E-001	3.57250E+000	9	...........
	51	0.693333	7.10640E-001	9.12523E-005	0.00000E+000	6.48475E-005	5.39641E-002	7.10738E-001	3.57250E+000	9	...........
	52	0.706667	7.14833E-001	9.12012E-005	0.00000E+000	6.51936E-005	5.39641E-002	7.14971E-001	3.57250E+000	9	...........
	53	0.72	7.19053E-001	9.10574E-005	0.00000E+000	6.54752E-005	5.39641E-002	7.19145E-001	3.57281E+000	9	...........
	54	0.733333	7.23142E-001	9.11793E-005	0.00000E+000	6.59357E-005	5.39641E-002	7.23210E-001	3.57300E+000	9	...........
	55	0.746667	7.27174E-001	9.10772E-005	0.00000E+000	6.62290E-005	5.39641E-002	7.27268E-001	3.57300E+000	9	...........
	56	0.76	7.31147E-001	9.12679E-005	0.00000E+000	6.67302E-005	5.39641E-002	7.31264E-001	3.57300E+000	9	...........
	57	0.773333	7.35068E-001	9.11523E-005	0.00000E+000	6.70031E-005	5.39641E-002	7.35160E-001	3.57300E+000	9	...........
	58	0.786667	7.38914E-001	9.14200E-005	0.00000E+000	6.75516E-005	5.39641E-002	7.38989E-001	3.57300E+000	9	...........
	59	0.8	7.42746E-001	9.11022E-005	0.00000E+000	6.76658E-005	5.39641E-002	7.42846E-001	3.57300E+000	9	...........
	60	0.813333	7.46499E-001	9.11095E-005	0.00000E+000	6.80131E-005	5.39641E-002	7.46573E-001	3.57300E+000	9	...........
	61	0.826667	7.50202E-001	9.09637E-005	0.00000E+000	6.82412E-005	5.39641E-002	7.50284E-001	3.57300E+000	9	...........
	62	0.84	7.53836E-001	9.08741E-005	0.00000E+000	6.85042E-005	5.39641E-002	7.53949E-001	3.57300E+000	9	...........
	63	0.853333	7.57458E-001	9.12179E-005	0.00000E+000	6.90937E-005	5.39641E-002	7.57565E-001	3.57300E+000	9	...........
	64	0.866667	7.61019E-001	9.10741E-005	0.00000E+000	6.93091E-005	5.39641E-002	7.61127E-001	3.57300E+000	9	...........
	65	0.88	7.64540E-001	9.09949E-005	0.00000E+000	6.95693E-005	5.39641E-002	7.64669E-001	3.57300E+000	9	...........
	66	0.893333	7.68023E-001	9.10866E-005	0.00000E+000	6.99566E-005	5.39641E-002	7.68162E-001	3.57300E+000	9	...........
	67	0.906667	7.71465E-001	9.11158E-005	0.00000E+000	7.02927E-005	5.39641E-002	7.71565E-001	3.57300E+000	9	...........
	68	0.92	7.74879E-001	9.11845E-005	0.00000E+000	7.06570E-005	5.39641E-002	7.74969E-001	3.57300E+000	9	...........
	69	0.933333	7.78202E-001	9.14148E-005	0.00000E+000	7.11391E-005	5.39641E-002	7.78331E-001	3.57300E+000	9	...........
	70	0.946667	7.81516E-001	9.10876E-005	0.00000E+000	7.11865E-005	5.39641E-002	7.81625E-001	3.57300E+000	9	...........
	71	0.96	7.84784E-001	9.11762E-005	0.00000E+000	7.15536E-005	5.39641E-002	7.84875E-001	3.57300E+000	9	...........
	72	0.97333	7.87993E-001	9.11762E-005	0.00000E+000	7.18462E-005	5.39641E-002	7.88130E-001	3.57300E+000	9	...........
	73	0.98667	7.91164E-001	9.11741E-005	0.00000E+000	7.21337E-005	5.39641E-002	7.91309E-001	3.57300E+000	9	...........
	74	1	7.94385E-001	9.11939E-005	0.00000E+000	7.24431E-005	5.39641E-002	7.94490E-001	3.57300E+000	9	...........
	75	1.01333	7.97455E-001	9.11168E-005	0.00000E+000	7.26616E-005	5.39641E-002	7.97581E-001	3.57300E+000	9	...........
	76	1.02667	8.00496E-001	9.10168E-005	0.00000E+000	7.28586E-005	5.39641E-002	8.00630E-001	3.57300E+000	9	...........
	77	1.04	8.03533E-001	9.11627E-005	0.00000E+000	7.32522E-005	5.39641E-002	8.03647E-001	3.57300E+000	9	...........
	78	1.05333	8.06543E-001	9.10376E-005	0.00000E+000	7.34258E-005	5.39641E-002	8.06675E-001	3.57300E+000	9	...........
	79	1.06667	8.09503E-001	9.10918E-005	0.00000E+000	7.37391E-005	5.39641E-002	8.09630E-001	3.57300E+000	9	...........
	80	1.08	8.12408E-001	9.09355E-005	0.00000E+000	7.38768E-005	5.39641E-002	8.12557E-001	3.57300E+000	9	...........
	81	1.09333	8.15274E-001	9.08647E-005	0.00000E+000	7.40796E-005	5.39641E-002	8.15423E-001	3.57300E+000	9	...........
	82	1.10667	8.18135E-001	9.11793E-005	0.00000E+000	7.45970E-005	5.39641E-002	8.18272E-001	3.57300E+000	9	...........
	83	1.12	8.20976E-001	9.09991E-005	0.00000E+000	7.47081E-005	5.39641E-002	8.21095E-001	3.57300E+000	9	...........
	84	1.13333	8.23745E-001	9.12012E-005	0.00000E+000	7.51265E-005	5.39641E-002	8.23902E-001	3.57300E+000	9	...........
	85	1.14667	8.26501E-001	9.10887E-005	0.00000E+000	7.52849E-005	5.39641E-002	8.26632E-001	3.57300E+000	9	...........
	86	1.16	8.29217E-001	9.10241E-005	0.00000E+000	7.54787E-005	5.39641E-002	8.29357E-001	3.57300E+000	9	...........
	87	1.17333	8.31919E-001	9.09428E-005	0.00000E+000	7.56571E-005	5.39641E-002	8.32078E-001	3.57300E+000	9	...........
	88	1.18667	8.34581E-001	9.13460E-005	0.00000E+000	7.62357E-005	5.39641E-002	8.34747E-001	3.57300E+000	9	...........
	89	1.2	8.37207E-001	9.12491E-005	0.00000E+000	7.63944E-005	5.39641E-002	8.37376E-001	3.57300E+000	9	...........
	90	1.21333	8.39791E-001	9.09887E-005	0.00000E+000	7.64114E-005	5.39641E-002	8.39961E-001	3.57300E+000	9	...........
	91	1.22667	8.42385E-001	9.10887E-005	0.00000E+000	7.67318E-005	5.39641E-002	8.42542E-001	3.57300E+000	9	...........
	92	1.24	8.44987E-001	9.11345E-005	0.00000E+000	7.70075E-005	5.39641E-002	8.45161E-001	3.57300E+000	9	...........
	93	1.25333	8.47525E-001	9.10668E-005	0.00000E+000	7.71814E-005	5.39641E-002	8.47676E-001	3.57300E+000	9	...........
	94	1.26667	8.50034E-001	9.11731E-005	0.00000E+000	7.75003E-005	5.39641E-002	8.50196E-001	3.57300E+000	9	...........
	95	1.28	8.52508E-001	9.10137E-005	0.00000E+000	7.75899E-005	5.39641E-002	8.52662E-001	3.57300E+000	9	...........
	96	1.29333	8.54952E-001	9.10699E-005	0.00000E+000	7.78605E-005	5.39641E-002	8.55096E-001	3.57300E+000	9	...........
	97	1.30667	8.57391E-001	9.09178E-005	0.00000E+000	7.79521E-005	5.39641E-002	8.57553E-001	3.57300E+000	9	...........
	98	1.32	8.59815E-001	9.10772E-005	0.00000E+000	7.83096E-005	5.39641E-002	8.59981E-001	3.57300E+000	9	...........
	99	1.33333	8.62203E-001	9.12971E-005	0.00000E+000	7.87166E-005	5.39641E-002	8.62386E-001	3.57300E+000	9	...........
	100	1.34667	8.64563E-001	9.11741E-005	0.00000E+000	7.88258E-005	5.39641E-002	8.64757E-001	3.57300E+000	9	...........
	101	1.36	8.66921E-001	9.11241E-005	0.00000E+000	7.89974E-005	5.39641E-002	8.67111E-001	3.57300E+000	9	...........
	102	1.37333	8.69265E-001	9.13565E-005	0.00000E+000	7.94130E-005	5.39641E-002	8.69454E-001	3.57300E+000	9	...........
	103	1.38667	8.71569E-001	9.09897E-005	0.00000E+000	7.93038E-005	5.39641E-002	8.71743E-001	3.57300E+000	9	...........
	104	1.4	8.73842E-001	9.10585E-005	0.00000E+000	7.95707E-005	5.39641E-002	8.74028E-001	3.57300E+000	9	...........
	105	1.41333	8.76084E-001	9.11012E-005	0.00000E+000	7.98123E-005	5.39641E-002	8.76252E-001	3.57300E+000	9	...........
	106	1.42667	8.78330E-001	9.10939E-005	0.00000E+000	8.00105E-005	5.39641E-002	8.78478E-001	3.57300E+000	9	...........
	107	1.44	8.80521E-001	9.13002E-005	0.00000E+000	8.03917E-005	5.39641E-002	8.80702E-001	3.57300E+000	9	...........
	108	1.45333	8.82685E-001	9.11523E-005	0.00000E+000	8.04587E-005	5.39641E-002	8.82859E-001	3.57300E+000	9	...........
	109	1.46667	8.84853E-001	9.09991E-005	0.00000E+000	8.05209E-005	5.39641E-002	8.85031E-001	3.57300E+000	9	...........
	110	1.48	8.86990E-001	9.10918E-005	0.00000E+000	8.07976E-005	5.39641E-002	8.87182E-001	3.57300E+000	9	...........
	111	1.49333	8.89119E-001	9.11595E-005	0.00000E+000	8.10517E-005	5.39641E-002	8.89292E-001	3.57300E+000	9	...........
	112	1.50667	8.91215E-001	9.08762E-005	0.00000E+000	8.09902E-005	5.39641E-002	8.91387E-001	3.57300E+000	9	...........
	113	1.52	8.93310E-001	9.10897E-005	0.00000E+000	8.13714E-005	5.39641E-002	8.93473E-001	3.57300E+000	9	...........
	114	1.53333	8.95389E-001	9.12023E-005	0.00000E+000	8.16615E-005	5.39641E-002	8.95577E-001	3.57300E+000	9	...........
	115	1.54667	8.97438E-001	9.09428E-005	0.00000E+000	8.16156E-005	5.39641E-002	8.97595E-001	3.57300E+000	9	...........
	116	1.56	8.99468E-001	9.11293E-005	0.00000E+000	8.19679E-005	5.39641E-002	8.99617E-001	3.57300E+000	9	...........
	117	1.57333	9.01470E-001	9.09470E-005	0.00000E+000	8.19859E-005	5.39641E-002	9.01639E-001	3.57300E+000	9	...........
	118	1.58667	9.03445E-001	9.11814E-005	0.00000E+000	8.23774E-005	5.39641E-002	9.03629E-001	3.57300E+000	9	...........
	119	1.6	9.05430E-001	9.13325E-005	0.00000E+000	8.26952E-005	5.39641E-002	9.05585E-001	3.57300E+000	9	...........
	120	1.61333	9.07383E-001	9.11179E-005	0.00000E+000	8.26788E-005	5.39641E-002	9.07552E-001	3.57300E+000	9	...........
	121	1.62667	9.09351E-001	9.08407E-005	0.00000E+000	8.26061E-005	5.39641E-002	9.09514E-001	3.57300E+000	9	...........
	122	1.64	9.11262E-001	9.12137E-005	0.00000E+000	8.31196E-005	5.39641E-002	9.11397E-001	3.57300E+000	9	...........
	123	1.65333	9.13144E-001	9.10574E-005	0.00000E+000	8.31485E-005	5.39641E-002	9.13305E-001	3.57300E+000	9	...........
	124	1.66667	9.15013E-001	9.08887E-005	0.00000E+000	8.31643E-005	5.39641E-002	9.15202E-001	3.57300E+000	9	...........
	125	1.68	9.16880E-001	9.12689E-005	0.00000E+000	8.36827E-005	5.39641E-002	9.17063E-001	3.57300E+000	9	...........
	126	1.69333	9.18698E-001	9.13044E-005	0.00000E+000	8.38812E-005	5.39641E-002	9.18904E-001	3.57300E+000	9	...........
	127	1.70667	9.20570E-001	9.10554E-005	0.00000E+000	8.38229E-005	5.39641E-002	9.20724E-001	3.57300E+000	9	...........
	128	1.72	9.22375E-001	9.08032E-005	0.00000E+000	8.37546E-005	5.39641E-002	9.22522E-001	3.57212E+000	9	...........
	129	1.73333	9.24155E-001	9.09960E-005	0.00000E+000	8.40944E-005	5.39641E-002	9.24297E-001	3.57160E+000	9	...........
	130	1.74667	9.25922E-001	9.11293E-005	0.00000E+000	8.43787E-005	5.39641E-002	9.26078E-001	3.57160E+000	9	...........
	131	1.76	9.27662E-001	9.13721E-005	0.00000E+000	8.47624E-005	5.39641E-002	9.27832E-001	3.57160E+000	9	...........
	132	1.77333	9.29387E-001	9.12325E-005	0.00000E+000	8.47903E-005	5.39641E-002	9.29548E-001	3.57160E+000	9	...........
	133	1.78667	9.31084E-001	9.10783E-005	0.00000E+000	8.48016E-005	5.39641E-002	9.31253E-001	3.57160E+000	9	...........
	134	1.8	9.32781E-001	9.11543E-005	0.00000E+000	8.50271E-005	5.39641E-002	9.32963E-001	3.57160E+000	9	...........
	135	1.81333	9.34461E-001	9.10981E-005	0.00000E+000	8.51276E-005	5.39641E-002	9.34637E-001	3.57160E+000	9	...........
	136	1.82667	9.36136E-001	9.12700E-005	0.00000E+000	8.54411E-005	5.39641E-002	9.36330E-001	3.57160E+000	9	...........
	137	1.84	9.37786E-001	9.11470E-005	0.00000E+000	8.54764E-005	5.39641E-002	9.38003E-001	3.57160E+000	9	...........
	138	1.85333	9.39436E-001	9.12377E-005	0.00000E+000	8.57120E-005	5.39641E-002	9.39636E-001	3.57160E+000	9	...........
	139	1.86667	9.41081E-001	9.10189E-005	0.00000E+000	8.56561E-005	5.39641E-002	9.41245E-001	3.57160E+000	9	...........
	140	1.88	9.42679E-001	9.09397E-005	0.00000E+000	8.57269E-005	5.39641E-002	9.42853E-001	3.57160E+000	9	...........
	141	1.89333	9.44288E-001	9.11585E-005	0.00000E+000	8.60799E-005	5.39641E-002	9.44463E-001	3.57160E+000	9	...........
	142	1.90667	9.45870E-001	9.09835E-005	0.00000E+000	8.60585E-005	5.39641E-002	9.46063E-001	3.57160E+000	9	...........
	143	1.92	9.47499E-001	9.10710E-005	0.00000E+000	8.62897E-005	5.39641E-002	9.47641E-001	3.57160E+000	9	...........
	144	1.93333	9.49031E-001	9.11408E-005	0.00000E+000	8.64954E-005	5.39641E-002	9.49201E-001	3.57160E+000	9	...........
	145	1.94667	9.50580E-001	9.12231E-005	0.00000E+000	8.67149E-005	5.39641E-002	9.50719E-001	3.57160E+000	9	...........
	146	1.96	9.52088E-001	9.11741E-005	0.00000E+000	8.68058E-005	5.39641E-002	9.52238E-001	3.57160E+000	9	...........
	147	1.97333	9.53571E-001	9.09564E-005	0.00000E+000	8.67334E-005	5.39641E-002	9.53723E-001	3.57160E+000	9	...........
	148	1.98667	9.55063E-001	9.15169E-005	0.00000E+000	8.74044E-005	5.39641E-002	9.55216E-001	3.57160E+000	9	...........
	149	2	9.56535E-001	9.13752E-005	0.00000E+000	8.74036E-005	5.39641E-002	9.56668E-001	3.57160E+000	9	...........
	150	2.01333	9.57962E-001	9.12158E-005	0.00000E+000	8.73813E-005	5.39641E-002	9.58133E-001	3.57160E+000	9	...........
	151	2.02667	9.59406E-001	9.10314E-005	0.00000E+000	8.73361E-005	5.39641E-002	9.59590E-001	3.57160E+000	9	...........
	152	2.04	9.60827E-001	9.10877E-005	0.00000E+000	8.75194E-005	5.39641E-002	9.61036E-001	3.57160E+000	9	...........
	153	2.05333	9.62247E-001	9.12127E-005	0.00000E+000	8.77691E-005	5.39641E-002	9.62435E-001	3.57160E+000	9	...........
	154	2.06667	9.63630E-001	9.11543E-005	0.00000E+000	8.78391E-005	5.39641E-002	9.63839E-001	3.57160E+000	9	...........
	155	2.08	9.65031E-001	9.10877E-005	0.00000E+000	8.79024E-005	5.39641E-002	9.65226E-001	3.57160E+000	9	...........
	156	2.09333	9.66402E-001	9.13408E-005	0.00000E+000	8.82720E-005	5.39641E-002	9.66591E-001	3.57160E+000	9	...........
	157	2.10667	9.67770E-001	9.10199E-005	0.00000E+000	8.80864E-005	5.39641E-002	9.67950E-001	3.57160E+000	9	...........
	158	2.12	9.69115E-001	9.09981E-005	0.00000E+000	8.81875E-005	5.39641E-002	9.69299E-001	3.57160E+000	9	...........
	159	2.13333	9.70453E-001	9.11700E-005	0.00000E+000	8.84761E-005	5.39641E-002	9.70646E-001	3.57160E+000	9	...........
	160	2.14667	9.71778E-001	9.11231E-005	0.00000E+000	8.85514E-005	5.39641E-002	9.71997E-001	3.57160E+000	9	...........
	161	2.16	9.73176E-001	9.10501E-005	0.00000E+000	8.86078E-005	5.39641E-002	9.73315E-001	3.57160E+000	9	...........
	162	2.17333	9.74459E-001	9.10376E-005	0.00000E+000	8.87125E-005	5.39641E-002	9.74625E-001	3.57160E+000	9	...........
	163	2.18667	9.75763E-001	9.10939E-005	0.00000E+000	8.88861E-005	5.39641E-002	9.75931E-001	3.57160E+000	9	...........
	164	2.2	9.77044E-001	9.12075E-005	0.00000E+000	8.91137E-005	5.39641E-002	9.77215E-001	3.57160E+000	9	...........
	165	2.21333	9.78315E-001	9.10668E-005	0.00000E+000	8.90921E-005	5.39641E-002	9.78489E-001	3.57160E+000	9	...........
	166	2.22667	9.79572E-001	9.12762E-005	0.00000E+000	8.94117E-005	5.39641E-002	9.79740E-001	3.57160E+000	9	...........
	167	2.24	9.80813E-001	9.08564E-005	0.00000E+000	8.91131E-005	5.39641E-002	9.81006E-001	3.57160E+000	9	...........
	168	2.25333	9.82069E-001	9.10762E-005	0.00000E+000	8.94431E-005	5.39641E-002	9.82234E-001	3.57160E+000	9	...........
	169	2.26667	9.83290E-001	9.11074E-005	0.00000E+000	8.95850E-005	5.39641E-002	9.83466E-001	3.57160E+000	9	...........
	170	2.28	9.84503E-001	9.10074E-005	0.00000E+000	8.95971E-005	5.39641E-002	9.84726E-001	3.57160E+000	9	...........
	171	2.29333	9.85748E-001	9.10793E-005	0.00000E+000	8.97813E-005	5.39641E-002	9.85935E-001	3.57160E+000	9	...........
	172	2.30667	9.86941E-001	9.11137E-005	0.00000E+000	8.99239E-005	5.39641E-002	9.87132E-001	3.57160E+000	9	...........
	173	2.32	9.88145E-001	9.09720E-005	0.00000E+000	8.98936E-005	5.39641E-002	9.88322E-001	3.57160E+000	9	...........
	174	2.33333	9.89308E-001	9.10647E-005	0.00000E+000	9.00911E-005	5.39641E-002	9.89485E-001	3.57160E+000	9	...........
	175	2.34667	9.90456E-001	9.12762E-005	0.00000E+000	9.04051E-005	5.39641E-002	9.90644E-001	3.57160E+000	9	...........
	176	2.36	9.91610E-001	9.12585E-005	0.00000E+000	9.04929E-005	5.39641E-002	9.91800E-001	3.57160E+000	9	...........
	177	2.37333	9.92761E-001	9.10585E-005	0.00000E+000	9.03993E-005	5.39641E-002	9.92962E-001	3.57160E+000	9	...........
	178	2.38667	9.93894E-001	9.08303E-005	0.00000E+000	9.02757E-005	5.39641E-002	9.94105E-001	3.57160E+000	9	...........
	179	2.4	9.95073E-001	9.10376E-005	0.00000E+000	9.05891E-005	5.39641E-002	9.95235E-001	3.57160E+000	9	...........
	180	2.41333	9.96177E-001	9.11481E-005	0.00000E+000	9.07996E-005	5.39641E-002	9.96362E-001	3.57160E+000	9	...........
	181	2.42667	9.97298E-001	9.11564E-005	0.00000E+000	9.09101E-005	5.39641E-002	9.97486E-001	3.57160E+000	9	...........
	182	2.44	9.98440E-001	9.10585E-005	0.00000E+000	9.09165E-005	5.39641E-002	9.98604E-001	3.57160E+000	9	...........
	183	2.45333	9.99507E-001	9.09230E-005	0.00000E+000	9.08782E-005	5.39641E-002	9.99671E-001	3.57160E+000	9	...........
	184	2.455	1.00014E+000	9.18795E-005	0.00000E+000	9.18920E-005	5.39641E-002	1.00028E+000	3.57160E+000	9	...........
STARTTIMEOFFSET	QUANT	624.3799	Start Time Offset (s)
