EXPLAIN
TAG	PWR800_CHARGE
TITLE	LABEL	PWR Cyclic Charge Discharge (Cell) - Charge Step	Test &Identifier
DATE	LABEL	10-7-2017	Date
TIME	LABEL	16:15:07	Time
NOTES	NOTES	3	&Notes...
	supercap test cell
	0.9mg
	6M KOH
PSTAT	PSTAT	IFC5000-01520	Potentiostat
CAPACITY	QUANT	1.00000E-003	Capacity (A-hr)
CELLTYPE	SELECTOR	1	&Cell Type
WORKINGCONNECTION	SELECTOR	0	&Working Lead
MAXCHARGETIME	VARIABLEANDUNITS	1.00000E+002	s	1.00000E+002	second(s)	Max &Charge Time
CHARGECURRENT	QUANT	9.00000E-005	&Charge Current (A) 
VOLTAGEFINISH	TWOPARAM	F	1.00000E-003	3.60000E+003	&Voltage Finish	 I (A) < 	Max Time(s)
SAMPLETIME	QUANT	1.00000E-002	Sa&mple Period (s)
CHARGESTOPAT1	MULTIPARAM	4	1.00000E+000	Charge Stop At &1	Voltage > Limit	V
CHARGESTOPAT2	MULTIPARAM	0	0.00000E+000	Charge Stop At &2	None	N/A
AESBHCSELECTOR	TOGGLE	F	Save Both Half Cells
IRCOMP	TOGGLE	F	IR &Measure
EOC	QUANT	0	Open Circuit (V)
SEQUENCER	TOGGLE	TRUE	Run as Sequence
PSTATMODEL	IQUANT	53	Pstat Model
PSTATSECTION	LABEL	IFC5000-01520	Pstat Section
PSTATSERIALNO	LABEL	01520	Pstat Serial Number
CTRLMODE	IQUANT	0	Control Mode
ELECTROMETER	IQUANT	1	RE=0 or CS=1
IESTAB	IQUANT	0	I/E Stability
CASPEED	IQUANT	4	Control Amp Speed
CONVENTION	IQUANT	1	Current Convention
ICHRANGE	IQUANT	2	Ich Range
ICHRANGEMODE	TOGGLE	T	Ich Auto Range
ICHOFFSETENABLE	TOGGLE	F	Ich Offset Enable
ICHOFFSET	QUANT	0	Ich Offset (V)
ICHFILTER	IQUANT	1	Ich Filter
VCHRANGE	IQUANT	2	Vch Range
VCHRANGEMODE	TOGGLE	T	Vch Auto Range
VCHOFFSETENABLE	TOGGLE	F	Vch Offset Enable
VCHOFFSET	QUANT	0	Vch Offset (V)
VCHFILTER	IQUANT	1	Vch Filter
IERANGELOWERLIMIT	IQUANT	9	I/E Range Lower Limit
IERANGEMODE	TOGGLE	F	I/E AutoRange
IERANGE	IQUANT	9	I/E Range
ACHSELECT	IQUANT	1	Ach Select
ACHRANGE	IQUANT	2	Ach Range
ACHOFFSETENABLE	TOGGLE	F	Ach Offset Enable
ACHOFFSET	QUANT	0	Ach Offset (V)
ACHFILTER	IQUANT	1	Ach Filter
CABLEID	IQUANT	14	Cable ID
DCCALDATE	LABEL	5-7-2017	DC Calibration Date
ACCALDATE	LABEL	12/3/2015	AC Calibration Date
FRAMEWORKVERSION	QUANT	7.01	Framework Version
INSTRUMENTVERSION	LABEL	4.00	Instrument Version
CURVE	TABLE	162
	Pt	T	Vf	Im	Vu	Pwr	Sig	Ach	Temp	IERange	Over
	#	s	V	A	V	W	V	V	deg C	#	bits
	0	0.013333	2.66599E-001	9.11220E-005	0.00000E+000	2.42930E-005	5.39641E-002	2.66636E-001	3.57320E+000	9	...........
	1	0.026667	2.86191E-001	9.08720E-005	0.00000E+000	2.60067E-005	5.39641E-002	2.86235E-001	3.57320E+000	9	...........
	2	0.04	3.04612E-001	9.10033E-005	0.00000E+000	2.77206E-005	5.39641E-002	3.04656E-001	3.57320E+000	9	...........
	3	0.053333	3.22018E-001	9.10606E-005	0.00000E+000	2.93231E-005	5.39641E-002	3.22058E-001	3.57320E+000	9	...........
	4	0.066667	3.38504E-001	9.09460E-005	0.00000E+000	3.07856E-005	5.39641E-002	3.38544E-001	3.57320E+000	9	...........
	5	0.08	3.54159E-001	9.06542E-005	0.00000E+000	3.21060E-005	5.39641E-002	3.54202E-001	3.57320E+000	9	...........
	6	0.093333	3.69053E-001	9.08814E-005	0.00000E+000	3.35401E-005	5.39641E-002	3.69104E-001	3.57320E+000	9	...........
	7	0.106667	3.83259E-001	9.10637E-005	0.00000E+000	3.49010E-005	5.39641E-002	3.83315E-001	3.57320E+000	9	...........
	8	0.12	3.96824E-001	9.09605E-005	0.00000E+000	3.60953E-005	5.39641E-002	3.96875E-001	3.57320E+000	9	...........
	9	0.133333	4.09796E-001	9.06251E-005	0.00000E+000	3.71377E-005	5.39641E-002	4.09850E-001	3.57320E+000	9	...........
	10	0.146667	4.22227E-001	9.07605E-005	0.00000E+000	3.83215E-005	5.39641E-002	4.22282E-001	3.57320E+000	9	...........
	11	0.16	4.34158E-001	9.09668E-005	0.00000E+000	3.94939E-005	5.39641E-002	4.34218E-001	3.57320E+000	9	...........
	12	0.173333	4.45608E-001	9.09699E-005	0.00000E+000	4.05369E-005	5.39641E-002	4.45671E-001	3.57320E+000	9	...........
	13	0.186667	4.56623E-001	9.08136E-005	0.00000E+000	4.14676E-005	5.39641E-002	4.56688E-001	3.57320E+000	9	...........
	14	0.2	4.67240E-001	9.09658E-005	0.00000E+000	4.25028E-005	5.39641E-002	4.67302E-001	3.57320E+000	9	...........
	15	0.213333	4.77484E-001	9.10470E-005	0.00000E+000	4.34735E-005	5.39641E-002	4.77546E-001	3.57320E+000	9	...........
	16	0.226667	4.87378E-001	9.09105E-005	0.00000E+000	4.43078E-005	5.39641E-002	4.87442E-001	3.57320E+000	9	...........
	17	0.24	4.96942E-001	9.08709E-005	0.00000E+000	4.51575E-005	5.39641E-002	4.97008E-001	3.57320E+000	9	...........
	18	0.253333	5.06196E-001	9.11606E-005	0.00000E+000	4.61451E-005	5.39641E-002	5.06270E-001	3.57320E+000	9	...........
	19	0.266667	5.15176E-001	9.08053E-005	0.00000E+000	4.67807E-005	5.39641E-002	5.15250E-001	3.57320E+000	9	...........
	20	0.28	5.23886E-001	9.09658E-005	0.00000E+000	4.76557E-005	5.39641E-002	5.23963E-001	3.57320E+000	9	...........
	21	0.293333	5.32297E-001	9.09376E-005	0.00000E+000	4.84058E-005	5.39641E-002	5.32361E-001	3.57320E+000	9	...........
	22	0.306667	5.40439E-001	9.10428E-005	0.00000E+000	4.92031E-005	5.39641E-002	5.40552E-001	3.57320E+000	9	...........
	23	0.32	5.48409E-001	9.09064E-005	0.00000E+000	4.98539E-005	5.39641E-002	5.48526E-001	3.57320E+000	9	...........
	24	0.333333	5.56176E-001	9.10064E-005	0.00000E+000	5.06155E-005	5.39641E-002	5.56270E-001	3.57320E+000	9	...........
	25	0.346667	5.63760E-001	9.09970E-005	0.00000E+000	5.13005E-005	5.39641E-002	5.63867E-001	3.57320E+000	9	...........
	26	0.36	5.71144E-001	9.08918E-005	0.00000E+000	5.19123E-005	5.39641E-002	5.71235E-001	3.57320E+000	9	...........
	27	0.373333	5.78320E-001	9.12606E-005	0.00000E+000	5.27778E-005	5.39641E-002	5.78430E-001	3.57320E+000	9	...........
	28	0.386667	5.85338E-001	9.08564E-005	0.00000E+000	5.31817E-005	5.39641E-002	5.85445E-001	3.57320E+000	9	...........
	29	0.4	5.92203E-001	9.10387E-005	0.00000E+000	5.39134E-005	5.39641E-002	5.92293E-001	3.57320E+000	9	...........
	30	0.413333	5.98898E-001	9.07553E-005	0.00000E+000	5.43531E-005	5.39641E-002	5.98996E-001	3.57320E+000	9	...........
	31	0.426667	6.05418E-001	9.09991E-005	0.00000E+000	5.50925E-005	5.39641E-002	6.05547E-001	3.57320E+000	9	...........
	32	0.44	6.11801E-001	9.11137E-005	0.00000E+000	5.57435E-005	5.39641E-002	6.11937E-001	3.57320E+000	9	...........
	33	0.453333	6.18139E-001	9.11293E-005	0.00000E+000	5.63306E-005	5.39641E-002	6.18198E-001	3.57320E+000	9	...........
	34	0.466667	6.24232E-001	9.07428E-005	0.00000E+000	5.66446E-005	5.39641E-002	6.24314E-001	3.57320E+000	9	...........
	35	0.48	6.30199E-001	9.11304E-005	0.00000E+000	5.74303E-005	5.39641E-002	6.30293E-001	3.57320E+000	9	...........
	36	0.493333	6.36073E-001	9.10783E-005	0.00000E+000	5.79324E-005	5.39641E-002	6.36176E-001	3.57320E+000	9	...........
	37	0.506667	6.41886E-001	9.09803E-005	0.00000E+000	5.83990E-005	5.39641E-002	6.41977E-001	3.57322E+000	9	...........
	38	0.52	6.47548E-001	9.10929E-005	0.00000E+000	5.89870E-005	5.39641E-002	6.47638E-001	3.57340E+000	9	...........
	39	0.533333	6.53085E-001	9.10158E-005	0.00000E+000	5.94411E-005	5.39641E-002	6.53224E-001	3.57340E+000	9	...........
	40	0.546667	6.58554E-001	9.09876E-005	0.00000E+000	5.99202E-005	5.39641E-002	6.58639E-001	3.57340E+000	9	...........
	41	0.56	6.63892E-001	9.11408E-005	0.00000E+000	6.05076E-005	5.39641E-002	6.64028E-001	3.57340E+000	9	...........
	42	0.573333	6.69208E-001	9.10783E-005	0.00000E+000	6.09503E-005	5.39641E-002	6.69309E-001	3.57340E+000	9	...........
	43	0.586667	6.74377E-001	9.10522E-005	0.00000E+000	6.14035E-005	5.39641E-002	6.74505E-001	3.57340E+000	9	...........
	44	0.6	6.79488E-001	9.11408E-005	0.00000E+000	6.19290E-005	5.39641E-002	6.79612E-001	3.57340E+000	9	...........
	45	0.613333	6.84487E-001	9.07230E-005	0.00000E+000	6.20987E-005	5.39641E-002	6.84620E-001	3.57340E+000	9	...........
	46	0.626667	6.89446E-001	9.08220E-005	0.00000E+000	6.26169E-005	5.39641E-002	6.89575E-001	3.57340E+000	9	...........
	47	0.64	6.94319E-001	9.09803E-005	0.00000E+000	6.31694E-005	5.39641E-002	6.94423E-001	3.57340E+000	9	...........
	48	0.653333	6.99096E-001	9.08730E-005	0.00000E+000	6.35290E-005	5.39641E-002	6.99232E-001	3.57340E+000	9	...........
	49	0.666667	7.03805E-001	9.09783E-005	0.00000E+000	6.40310E-005	5.39641E-002	7.03945E-001	3.57340E+000	9	...........
	50	0.68	7.08440E-001	9.10762E-005	0.00000E+000	6.45220E-005	5.39641E-002	7.08601E-001	3.57340E+000	9	...........
	51	0.693333	7.13031E-001	9.10408E-005	0.00000E+000	6.49149E-005	5.39641E-002	7.13153E-001	3.57340E+000	9	...........
	52	0.706667	7.17557E-001	9.09303E-005	0.00000E+000	6.52477E-005	5.39641E-002	7.17726E-001	3.57340E+000	9	...........
	53	0.72	7.22026E-001	9.10668E-005	0.00000E+000	6.57526E-005	5.39641E-002	7.22146E-001	3.57340E+000	9	...........
	54	0.733333	7.26416E-001	9.11918E-005	0.00000E+000	6.62432E-005	5.39641E-002	7.26521E-001	3.57340E+000	9	...........
	55	0.746667	7.30748E-001	9.10845E-005	0.00000E+000	6.65598E-005	5.39641E-002	7.30870E-001	3.57340E+000	9	...........
	56	0.76	7.35011E-001	9.06646E-005	0.00000E+000	6.66395E-005	5.39641E-002	7.35150E-001	3.57340E+000	9	...........
	57	0.773333	7.39241E-001	9.08647E-005	0.00000E+000	6.71709E-005	5.39641E-002	7.39360E-001	3.57340E+000	9	...........
	58	0.786667	7.43447E-001	9.08730E-005	0.00000E+000	6.75593E-005	5.39641E-002	7.43568E-001	3.57340E+000	9	...........
	59	0.8	7.47540E-001	9.10085E-005	0.00000E+000	6.80325E-005	5.39641E-002	7.47634E-001	3.57340E+000	9	...........
	60	0.813333	7.51598E-001	9.10501E-005	0.00000E+000	6.84331E-005	5.39641E-002	7.51684E-001	3.57340E+000	9	...........
	61	0.826667	7.55602E-001	9.09595E-005	0.00000E+000	6.87292E-005	5.39641E-002	7.55697E-001	3.57340E+000	9	...........
	62	0.84	7.59566E-001	9.10856E-005	0.00000E+000	6.91855E-005	5.39641E-002	7.59681E-001	3.57340E+000	9	...........
	63	0.853333	7.63487E-001	9.09981E-005	0.00000E+000	6.94759E-005	5.39641E-002	7.63611E-001	3.57340E+000	9	...........
	64	0.866667	7.67346E-001	9.11439E-005	0.00000E+000	6.99389E-005	5.39641E-002	7.67494E-001	3.57340E+000	9	...........
	65	0.88	7.71189E-001	9.10731E-005	0.00000E+000	7.02345E-005	5.39641E-002	7.71332E-001	3.57340E+000	9	...........
	66	0.893333	7.74960E-001	9.11981E-005	0.00000E+000	7.06749E-005	5.39641E-002	7.75107E-001	3.57340E+000	9	...........
	67	0.906667	7.78695E-001	9.09981E-005	0.00000E+000	7.08598E-005	5.39641E-002	7.78864E-001	3.57340E+000	9	...........
	68	0.92	7.82387E-001	9.08480E-005	0.00000E+000	7.10783E-005	5.39641E-002	7.82544E-001	3.57340E+000	9	...........
	69	0.933333	7.86018E-001	9.07636E-005	0.00000E+000	7.13419E-005	5.39641E-002	7.86154E-001	3.57340E+000	9	...........
	70	0.946667	7.89626E-001	9.10116E-005	0.00000E+000	7.18651E-005	5.39641E-002	7.89766E-001	3.57340E+000	9	...........
	71	0.96	7.93220E-001	9.10679E-005	0.00000E+000	7.22368E-005	5.39641E-002	7.93377E-001	3.57340E+000	9	...........
	72	0.97333	7.96776E-001	9.10501E-005	0.00000E+000	7.25466E-005	5.39641E-002	7.96891E-001	3.57340E+000	9	...........
	73	0.98667	8.00225E-001	9.09595E-005	0.00000E+000	7.27880E-005	5.39641E-002	8.00391E-001	3.57340E+000	9	...........
	74	1	8.03685E-001	9.07261E-005	0.00000E+000	7.29152E-005	5.39641E-002	8.03825E-001	3.57340E+000	9	...........
	75	1.01333	8.07080E-001	9.07845E-005	0.00000E+000	7.32703E-005	5.39641E-002	8.07263E-001	3.57340E+000	9	...........
	76	1.02667	8.10460E-001	9.11043E-005	0.00000E+000	7.38364E-005	5.39641E-002	8.10646E-001	3.57340E+000	9	...........
	77	1.04	8.13805E-001	9.07647E-005	0.00000E+000	7.38647E-005	5.39641E-002	8.14002E-001	3.57340E+000	9	...........
	78	1.05333	8.17113E-001	9.10762E-005	0.00000E+000	7.44196E-005	5.39641E-002	8.17328E-001	3.57340E+000	9	...........
	79	1.06667	8.20396E-001	9.09605E-005	0.00000E+000	7.46237E-005	5.39641E-002	8.20598E-001	3.57340E+000	9	...........
	80	1.08	8.23630E-001	9.11595E-005	0.00000E+000	7.50817E-005	5.39641E-002	8.23843E-001	3.57340E+000	9	...........
	81	1.09333	8.26852E-001	9.10491E-005	0.00000E+000	7.52841E-005	5.39641E-002	8.27042E-001	3.57340E+000	9	...........
	82	1.10667	8.30024E-001	9.09710E-005	0.00000E+000	7.55081E-005	5.39641E-002	8.30211E-001	3.57340E+000	9	...........
	83	1.12	8.33166E-001	9.11074E-005	0.00000E+000	7.59076E-005	5.39641E-002	8.33380E-001	3.57340E+000	9	...........
	84	1.13333	8.36297E-001	9.10585E-005	0.00000E+000	7.61519E-005	5.39641E-002	8.36481E-001	3.57340E+000	9	...........
	85	1.14667	8.39390E-001	9.08293E-005	0.00000E+000	7.62412E-005	5.39641E-002	8.39565E-001	3.57340E+000	9	...........
	86	1.16	8.42439E-001	9.09574E-005	0.00000E+000	7.66261E-005	5.39641E-002	8.42597E-001	3.57340E+000	9	...........
	87	1.17333	8.45514E-001	9.07970E-005	0.00000E+000	7.67701E-005	5.39641E-002	8.45657E-001	3.57340E+000	9	...........
	88	1.18667	8.48454E-001	9.08762E-005	0.00000E+000	7.71042E-005	5.39641E-002	8.48607E-001	3.57340E+000	9	...........
	89	1.2	8.51417E-001	9.09783E-005	0.00000E+000	7.74605E-005	5.39641E-002	8.51557E-001	3.57340E+000	9	...........
	90	1.21333	8.54340E-001	9.11387E-005	0.00000E+000	7.78634E-005	5.39641E-002	8.54476E-001	3.57340E+000	9	...........
	91	1.22667	8.57213E-001	9.10418E-005	0.00000E+000	7.80422E-005	5.39641E-002	8.57384E-001	3.57340E+000	9	...........
	92	1.24	8.60091E-001	9.12012E-005	0.00000E+000	7.84413E-005	5.39641E-002	8.60249E-001	3.57340E+000	9	...........
	93	1.25333	8.62937E-001	9.10460E-005	0.00000E+000	7.85669E-005	5.39641E-002	8.63084E-001	3.57340E+000	9	...........
	94	1.26667	8.65741E-001	9.08574E-005	0.00000E+000	7.86590E-005	5.39641E-002	8.65918E-001	3.57340E+000	9	...........
	95	1.28	8.68574E-001	9.09845E-005	0.00000E+000	7.90267E-005	5.39641E-002	8.68739E-001	3.57340E+000	9	...........
	96	1.29333	8.71356E-001	9.09449E-005	0.00000E+000	7.92454E-005	5.39641E-002	8.71507E-001	3.57340E+000	9	...........
	97	1.30667	8.74073E-001	9.10231E-005	0.00000E+000	7.95608E-005	5.39641E-002	8.74249E-001	3.57340E+000	9	...........
	98	1.32	8.76803E-001	9.08824E-005	0.00000E+000	7.96860E-005	5.39641E-002	8.76969E-001	3.57340E+000	9	...........
	99	1.33333	8.79474E-001	9.11429E-005	0.00000E+000	8.01578E-005	5.39641E-002	8.79658E-001	3.57340E+000	9	...........
	100	1.34667	8.82124E-001	9.10710E-005	0.00000E+000	8.03359E-005	5.39641E-002	8.82312E-001	3.57340E+000	9	...........
	101	1.36	8.84782E-001	9.07928E-005	0.00000E+000	8.03318E-005	5.39641E-002	8.84914E-001	3.57340E+000	9	...........
	102	1.37333	8.87353E-001	9.08887E-005	0.00000E+000	8.06503E-005	5.39641E-002	8.87517E-001	3.57340E+000	9	...........
	103	1.38667	8.89914E-001	9.10741E-005	0.00000E+000	8.10481E-005	5.39641E-002	8.90079E-001	3.57340E+000	9	...........
	104	1.4	8.92450E-001	9.09585E-005	0.00000E+000	8.11759E-005	5.39641E-002	8.92639E-001	3.57340E+000	9	...........
	105	1.41333	8.94951E-001	9.08355E-005	0.00000E+000	8.12933E-005	5.39641E-002	8.95163E-001	3.57340E+000	9	...........
	106	1.42667	8.97427E-001	9.08564E-005	0.00000E+000	8.15369E-005	5.39641E-002	8.97649E-001	3.57340E+000	9	...........
	107	1.44	8.99886E-001	9.08147E-005	0.00000E+000	8.17229E-005	5.39641E-002	9.00083E-001	3.57340E+000	9	...........
	108	1.45333	9.02324E-001	9.10481E-005	0.00000E+000	8.21548E-005	5.39641E-002	9.02542E-001	3.57340E+000	9	...........
	109	1.46667	9.04753E-001	9.09095E-005	0.00000E+000	8.22507E-005	5.39641E-002	9.04942E-001	3.57340E+000	9	...........
	110	1.48	9.07135E-001	9.09751E-005	0.00000E+000	8.25268E-005	5.39641E-002	9.07364E-001	3.57340E+000	9	...........
	111	1.49333	9.09526E-001	9.07251E-005	0.00000E+000	8.25168E-005	5.39641E-002	9.09728E-001	3.57340E+000	9	...........
	112	1.50667	9.11857E-001	9.09897E-005	0.00000E+000	8.29696E-005	5.39641E-002	9.12042E-001	3.57333E+000	9	...........
	113	1.52	9.14187E-001	9.10512E-005	0.00000E+000	8.32378E-005	5.39641E-002	9.14387E-001	3.57280E+000	9	...........
	114	1.53333	9.16460E-001	9.08678E-005	0.00000E+000	8.32767E-005	5.39641E-002	9.16667E-001	3.57280E+000	9	...........
	115	1.54667	9.18733E-001	9.10418E-005	0.00000E+000	8.36432E-005	5.39641E-002	9.18932E-001	3.57280E+000	9	...........
	116	1.56	9.21022E-001	9.09866E-005	0.00000E+000	8.38006E-005	5.39641E-002	9.21194E-001	3.57280E+000	9	...........
	117	1.57333	9.23234E-001	9.08876E-005	0.00000E+000	8.39105E-005	5.39641E-002	9.23417E-001	3.57280E+000	9	...........
	118	1.58667	9.25415E-001	9.10897E-005	0.00000E+000	8.42958E-005	5.39641E-002	9.25574E-001	3.57280E+000	9	...........
	119	1.6	9.27598E-001	9.09084E-005	0.00000E+000	8.43265E-005	5.39641E-002	9.27768E-001	3.57280E+000	9	...........
	120	1.61333	9.29710E-001	9.10908E-005	0.00000E+000	8.46880E-005	5.39641E-002	9.29868E-001	3.57280E+000	9	...........
	121	1.62667	9.31786E-001	9.09678E-005	0.00000E+000	8.47625E-005	5.39641E-002	9.31958E-001	3.57280E+000	9	...........
	122	1.64	9.33865E-001	9.10418E-005	0.00000E+000	8.50208E-005	5.39641E-002	9.34052E-001	3.57280E+000	9	...........
	123	1.65333	9.35890E-001	9.10835E-005	0.00000E+000	8.52441E-005	5.39641E-002	9.36089E-001	3.57280E+000	9	...........
	124	1.66667	9.37928E-001	9.11377E-005	0.00000E+000	8.54806E-005	5.39641E-002	9.38104E-001	3.57280E+000	9	...........
	125	1.68	9.39941E-001	9.10866E-005	0.00000E+000	8.56161E-005	5.39641E-002	9.40136E-001	3.57280E+000	9	...........
	126	1.69333	9.41920E-001	9.10366E-005	0.00000E+000	8.57491E-005	5.39641E-002	9.42113E-001	3.57280E+000	9	...........
	127	1.70667	9.43919E-001	9.11054E-005	0.00000E+000	8.59961E-005	5.39641E-002	9.44101E-001	3.57280E+000	9	...........
	128	1.72	9.45846E-001	9.09970E-005	0.00000E+000	8.60692E-005	5.39641E-002	9.46058E-001	3.57280E+000	9	...........
	129	1.73333	9.47810E-001	9.10064E-005	0.00000E+000	8.62568E-005	5.39641E-002	9.47996E-001	3.57280E+000	9	...........
	130	1.74667	9.49736E-001	9.12512E-005	0.00000E+000	8.66646E-005	5.39641E-002	9.49919E-001	3.57280E+000	9	...........
	131	1.76	9.51613E-001	9.09095E-005	0.00000E+000	8.65107E-005	5.39641E-002	9.51811E-001	3.57280E+000	9	...........
	132	1.77333	9.53493E-001	9.07292E-005	0.00000E+000	8.65097E-005	5.39641E-002	9.53703E-001	3.57280E+000	9	...........
	133	1.78667	9.55342E-001	9.07803E-005	0.00000E+000	8.67262E-005	5.39641E-002	9.55563E-001	3.57280E+000	9	...........
	134	1.8	9.57171E-001	9.11054E-005	0.00000E+000	8.72035E-005	5.39641E-002	9.57376E-001	3.57280E+000	9	...........
	135	1.81333	9.58977E-001	9.09585E-005	0.00000E+000	8.72271E-005	5.39641E-002	9.59195E-001	3.57280E+000	9	...........
	136	1.82667	9.60770E-001	9.09147E-005	0.00000E+000	8.73481E-005	5.39641E-002	9.60975E-001	3.57280E+000	9	...........
	137	1.84	9.62533E-001	9.12096E-005	0.00000E+000	8.77923E-005	5.39641E-002	9.62736E-001	3.57280E+000	9	...........
	138	1.85333	9.64268E-001	9.12273E-005	0.00000E+000	8.79675E-005	5.39641E-002	9.64473E-001	3.57280E+000	9	...........
	139	1.86667	9.65986E-001	9.11783E-005	0.00000E+000	8.80770E-005	5.39641E-002	9.66189E-001	3.57280E+000	9	...........
	140	1.88	9.67712E-001	9.10741E-005	0.00000E+000	8.81335E-005	5.39641E-002	9.67913E-001	3.57280E+000	9	...........
	141	1.89333	9.69383E-001	9.09543E-005	0.00000E+000	8.81696E-005	5.39641E-002	9.69613E-001	3.57280E+000	9	...........
	142	1.90667	9.71062E-001	9.10043E-005	0.00000E+000	8.83708E-005	5.39641E-002	9.71305E-001	3.57280E+000	9	...........
	143	1.92	9.72788E-001	9.10699E-005	0.00000E+000	8.85918E-005	5.39641E-002	9.72991E-001	3.57280E+000	9	...........
	144	1.93333	9.74422E-001	9.10220E-005	0.00000E+000	8.86938E-005	5.39641E-002	9.74629E-001	3.57280E+000	9	...........
	145	1.94667	9.76050E-001	9.08501E-005	0.00000E+000	8.86742E-005	5.39641E-002	9.76236E-001	3.57280E+000	9	...........
	146	1.96	9.77641E-001	9.10251E-005	0.00000E+000	8.89900E-005	5.39641E-002	9.77858E-001	3.57280E+000	9	...........
	147	1.97333	9.79230E-001	9.10335E-005	0.00000E+000	8.91427E-005	5.39641E-002	9.79444E-001	3.57280E+000	9	...........
	148	1.98667	9.80800E-001	9.10178E-005	0.00000E+000	8.92703E-005	5.39641E-002	9.81024E-001	3.57280E+000	9	...........
	149	2	9.82368E-001	9.09397E-005	0.00000E+000	8.93363E-005	5.39641E-002	9.82581E-001	3.57280E+000	9	...........
	150	2.01333	9.83878E-001	9.08793E-005	0.00000E+000	8.94141E-005	5.39641E-002	9.84139E-001	3.57280E+000	9	...........
	151	2.02667	9.85411E-001	9.08970E-005	0.00000E+000	8.95709E-005	5.39641E-002	9.85662E-001	3.57280E+000	9	...........
	152	2.04	9.86920E-001	9.10929E-005	0.00000E+000	8.99014E-005	5.39641E-002	9.87176E-001	3.57280E+000	9	...........
	153	2.05333	9.88434E-001	9.07897E-005	0.00000E+000	8.97396E-005	5.39641E-002	9.88636E-001	3.57280E+000	9	...........
	154	2.06667	9.89902E-001	9.11845E-005	0.00000E+000	9.02638E-005	5.39641E-002	9.90111E-001	3.57280E+000	9	...........
	155	2.08	9.91342E-001	9.08105E-005	0.00000E+000	9.00242E-005	5.39641E-002	9.91566E-001	3.57280E+000	9	...........
	156	2.09333	9.92778E-001	9.13367E-005	0.00000E+000	9.06771E-005	5.39641E-002	9.93000E-001	3.57280E+000	9	...........
	157	2.10667	9.94209E-001	9.11366E-005	0.00000E+000	9.06088E-005	5.39641E-002	9.94414E-001	3.57280E+000	9	...........
	158	2.12	9.95627E-001	9.07928E-005	0.00000E+000	9.03958E-005	5.39641E-002	9.95817E-001	3.57280E+000	9	...........
	159	2.13333	9.97012E-001	9.06917E-005	0.00000E+000	9.04208E-005	5.39641E-002	9.97240E-001	3.57280E+000	9	...........
	160	2.14667	9.98442E-001	9.08907E-005	0.00000E+000	9.07491E-005	5.39641E-002	9.98655E-001	3.57280E+000	9	...........
	161	2.15667	9.99631E-001	9.11099E-005	0.00000E+000	9.10762E-005	5.39641E-002	9.99846E-001	3.57280E+000	9	...........
STARTTIMEOFFSET	QUANT	3817.435	Start Time Offset (s)
