EXPLAIN
TAG	PWR800_CHARGE
TITLE	LABEL	PWR Cyclic Charge Discharge (Cell) - Charge Step	Test &Identifier
DATE	LABEL	10-7-2017	Date
TIME	LABEL	16:22:06	Time
NOTES	NOTES	3	&Notes...
	supercap test cell
	0.9mg
	6M KOH
PSTAT	PSTAT	IFC5000-01520	Potentiostat
CAPACITY	QUANT	1.00000E-003	Capacity (A-hr)
CELLTYPE	SELECTOR	1	&Cell Type
WORKINGCONNECTION	SELECTOR	0	&Working Lead
MAXCHARGETIME	VARIABLEANDUNITS	1.00000E+002	s	1.00000E+002	second(s)	Max &Charge Time
CHARGECURRENT	QUANT	9.00000E-005	&Charge Current (A) 
VOLTAGEFINISH	TWOPARAM	F	1.00000E-003	3.60000E+003	&Voltage Finish	 I (A) < 	Max Time(s)
SAMPLETIME	QUANT	1.00000E-002	Sa&mple Period (s)
CHARGESTOPAT1	MULTIPARAM	4	1.00000E+000	Charge Stop At &1	Voltage > Limit	V
CHARGESTOPAT2	MULTIPARAM	0	0.00000E+000	Charge Stop At &2	None	N/A
AESBHCSELECTOR	TOGGLE	F	Save Both Half Cells
IRCOMP	TOGGLE	F	IR &Measure
EOC	QUANT	0	Open Circuit (V)
SEQUENCER	TOGGLE	TRUE	Run as Sequence
PSTATMODEL	IQUANT	53	Pstat Model
PSTATSECTION	LABEL	IFC5000-01520	Pstat Section
PSTATSERIALNO	LABEL	01520	Pstat Serial Number
CTRLMODE	IQUANT	0	Control Mode
ELECTROMETER	IQUANT	1	RE=0 or CS=1
IESTAB	IQUANT	0	I/E Stability
CASPEED	IQUANT	4	Control Amp Speed
CONVENTION	IQUANT	1	Current Convention
ICHRANGE	IQUANT	2	Ich Range
ICHRANGEMODE	TOGGLE	T	Ich Auto Range
ICHOFFSETENABLE	TOGGLE	F	Ich Offset Enable
ICHOFFSET	QUANT	0	Ich Offset (V)
ICHFILTER	IQUANT	1	Ich Filter
VCHRANGE	IQUANT	2	Vch Range
VCHRANGEMODE	TOGGLE	T	Vch Auto Range
VCHOFFSETENABLE	TOGGLE	F	Vch Offset Enable
VCHOFFSET	QUANT	0	Vch Offset (V)
VCHFILTER	IQUANT	1	Vch Filter
IERANGELOWERLIMIT	IQUANT	9	I/E Range Lower Limit
IERANGEMODE	TOGGLE	F	I/E AutoRange
IERANGE	IQUANT	9	I/E Range
ACHSELECT	IQUANT	1	Ach Select
ACHRANGE	IQUANT	2	Ach Range
ACHOFFSETENABLE	TOGGLE	F	Ach Offset Enable
ACHOFFSET	QUANT	0	Ach Offset (V)
ACHFILTER	IQUANT	1	Ach Filter
CABLEID	IQUANT	14	Cable ID
DCCALDATE	LABEL	5-7-2017	DC Calibration Date
ACCALDATE	LABEL	12/3/2015	AC Calibration Date
FRAMEWORKVERSION	QUANT	7.01	Framework Version
INSTRUMENTVERSION	LABEL	4.00	Instrument Version
CURVE	TABLE	161
	Pt	T	Vf	Im	Vu	Pwr	Sig	Ach	Temp	IERange	Over
	#	s	V	A	V	W	V	V	deg C	#	bits
	0	0.013333	2.66080E-001	9.10460E-005	0.00000E+000	2.42255E-005	5.39641E-002	2.66136E-001	3.57330E+000	9	...........
	1	0.026667	2.85685E-001	9.10949E-005	0.00000E+000	2.60245E-005	5.39641E-002	2.85730E-001	3.57330E+000	9	...........
	2	0.04	3.04129E-001	9.09303E-005	0.00000E+000	2.76545E-005	5.39641E-002	3.04172E-001	3.57330E+000	9	...........
	3	0.053333	3.21571E-001	9.11543E-005	0.00000E+000	2.93126E-005	5.39641E-002	3.21618E-001	3.57330E+000	9	...........
	4	0.066667	3.38096E-001	9.10866E-005	0.00000E+000	3.07960E-005	5.39641E-002	3.38138E-001	3.57330E+000	9	...........
	5	0.08	3.53799E-001	9.09199E-005	0.00000E+000	3.21674E-005	5.39641E-002	3.53847E-001	3.57330E+000	9	...........
	6	0.093333	3.68755E-001	9.08595E-005	0.00000E+000	3.35049E-005	5.39641E-002	3.68803E-001	3.57330E+000	9	...........
	7	0.106667	3.83018E-001	9.09532E-005	0.00000E+000	3.48367E-005	5.39641E-002	3.83065E-001	3.57330E+000	9	...........
	8	0.12	3.96636E-001	9.10158E-005	0.00000E+000	3.61001E-005	5.39641E-002	3.96683E-001	3.57330E+000	9	...........
	9	0.133333	4.09653E-001	9.08022E-005	0.00000E+000	3.71974E-005	5.39641E-002	4.09708E-001	3.57330E+000	9	...........
	10	0.146667	4.22112E-001	9.10595E-005	0.00000E+000	3.84373E-005	5.39641E-002	4.22172E-001	3.57330E+000	9	...........
	11	0.16	4.34078E-001	9.09699E-005	0.00000E+000	3.94881E-005	5.39641E-002	4.34134E-001	3.57330E+000	9	...........
	12	0.173333	4.45568E-001	9.08251E-005	0.00000E+000	4.04688E-005	5.39641E-002	4.45627E-001	3.57330E+000	9	...........
	13	0.186667	4.56630E-001	9.08887E-005	0.00000E+000	4.15025E-005	5.39641E-002	4.56692E-001	3.57320E+000	9	...........
	14	0.2	4.67274E-001	9.09137E-005	0.00000E+000	4.24816E-005	5.39641E-002	4.67336E-001	3.57320E+000	9	...........
	15	0.213333	4.77569E-001	9.12544E-005	0.00000E+000	4.35803E-005	5.39641E-002	4.77629E-001	3.57320E+000	9	...........
	16	0.226667	4.87493E-001	9.09678E-005	0.00000E+000	4.43461E-005	5.39641E-002	4.87558E-001	3.57320E+000	9	...........
	17	0.24	4.97091E-001	9.08397E-005	0.00000E+000	4.51556E-005	5.39641E-002	4.97164E-001	3.57320E+000	9	...........
	18	0.253333	5.06383E-001	9.10543E-005	0.00000E+000	4.61084E-005	5.39641E-002	5.06457E-001	3.57320E+000	9	...........
	19	0.266667	5.15390E-001	9.08491E-005	0.00000E+000	4.68227E-005	5.39641E-002	5.15461E-001	3.57320E+000	9	...........
	20	0.28	5.24113E-001	9.09637E-005	0.00000E+000	4.76753E-005	5.39641E-002	5.24189E-001	3.57320E+000	9	...........
	21	0.293333	5.32526E-001	9.11054E-005	0.00000E+000	4.85160E-005	5.39641E-002	5.32619E-001	3.57320E+000	9	...........
	22	0.306667	5.40708E-001	9.07563E-005	0.00000E+000	4.90726E-005	5.39641E-002	5.40815E-001	3.57320E+000	9	...........
	23	0.32	5.48712E-001	9.10106E-005	0.00000E+000	4.99386E-005	5.39641E-002	5.48800E-001	3.57320E+000	9	...........
	24	0.333333	5.56495E-001	9.11929E-005	0.00000E+000	5.07483E-005	5.39641E-002	5.56556E-001	3.57320E+000	9	...........
	25	0.346667	5.64090E-001	9.09512E-005	0.00000E+000	5.13046E-005	5.39641E-002	5.64198E-001	3.57320E+000	9	...........
	26	0.36	5.71486E-001	9.10033E-005	0.00000E+000	5.20071E-005	5.39641E-002	5.71560E-001	3.57320E+000	9	...........
	27	0.373333	5.78654E-001	9.09314E-005	0.00000E+000	5.26178E-005	5.39641E-002	5.78766E-001	3.57320E+000	9	...........
	28	0.386667	5.85650E-001	9.07667E-005	0.00000E+000	5.31576E-005	5.39641E-002	5.85802E-001	3.57320E+000	9	...........
	29	0.4	5.92550E-001	9.08053E-005	0.00000E+000	5.38067E-005	5.39641E-002	5.92687E-001	3.57320E+000	9	...........
	30	0.413333	5.99242E-001	9.09928E-005	0.00000E+000	5.45267E-005	5.39641E-002	5.99366E-001	3.57320E+000	9	...........
	31	0.426667	6.05805E-001	9.08241E-005	0.00000E+000	5.50217E-005	5.39641E-002	6.05938E-001	3.57320E+000	9	...........
	32	0.44	6.12240E-001	9.10533E-005	0.00000E+000	5.57465E-005	5.39641E-002	6.12383E-001	3.57320E+000	9	...........
	33	0.453333	6.18594E-001	9.09564E-005	0.00000E+000	5.62650E-005	5.39641E-002	6.18662E-001	3.57320E+000	9	...........
	34	0.466667	6.24730E-001	9.10689E-005	0.00000E+000	5.68935E-005	5.39641E-002	6.24802E-001	3.57320E+000	9	...........
	35	0.48	6.30752E-001	9.09637E-005	0.00000E+000	5.73755E-005	5.39641E-002	6.30844E-001	3.57320E+000	9	...........
	36	0.493333	6.36628E-001	9.12033E-005	0.00000E+000	5.80626E-005	5.39641E-002	6.36746E-001	3.57320E+000	9	...........
	37	0.506667	6.42461E-001	9.09772E-005	0.00000E+000	5.84493E-005	5.39641E-002	6.42562E-001	3.57320E+000	9	...........
	38	0.52	6.48102E-001	9.11345E-005	0.00000E+000	5.90645E-005	5.39641E-002	6.48212E-001	3.57320E+000	9	...........
	39	0.533333	6.53706E-001	9.09887E-005	0.00000E+000	5.94798E-005	5.39641E-002	6.53808E-001	3.57320E+000	9	...........
	40	0.546667	6.59158E-001	9.08470E-005	0.00000E+000	5.98825E-005	5.39641E-002	6.59263E-001	3.57320E+000	9	...........
	41	0.56	6.64537E-001	9.10199E-005	0.00000E+000	6.04861E-005	5.39641E-002	6.64672E-001	3.57320E+000	9	...........
	42	0.573333	6.69856E-001	9.10585E-005	0.00000E+000	6.09961E-005	5.39641E-002	6.69947E-001	3.57320E+000	9	...........
	43	0.586667	6.75040E-001	9.11252E-005	0.00000E+000	6.15131E-005	5.39641E-002	6.75135E-001	3.57320E+000	9	...........
	44	0.6	6.80137E-001	9.05542E-005	0.00000E+000	6.15892E-005	5.39641E-002	6.80250E-001	3.57320E+000	9	...........
	45	0.613333	6.85163E-001	9.07230E-005	0.00000E+000	6.21601E-005	5.39641E-002	6.85260E-001	3.57320E+000	9	...........
	46	0.626667	6.90126E-001	9.09376E-005	0.00000E+000	6.27585E-005	5.39641E-002	6.90247E-001	3.57320E+000	9	...........
	47	0.64	6.95012E-001	9.08501E-005	0.00000E+000	6.31419E-005	5.39641E-002	6.95137E-001	3.57320E+000	9	...........
	48	0.653333	6.99789E-001	9.10345E-005	0.00000E+000	6.37049E-005	5.39641E-002	6.99928E-001	3.57320E+000	9	...........
	49	0.666667	7.04544E-001	9.09293E-005	0.00000E+000	6.40637E-005	5.39641E-002	7.04668E-001	3.57320E+000	9	...........
	50	0.68	7.09190E-001	9.11147E-005	0.00000E+000	6.46176E-005	5.39641E-002	7.09334E-001	3.57320E+000	9	...........
	51	0.693333	7.13781E-001	9.11283E-005	0.00000E+000	6.50457E-005	5.39641E-002	7.13920E-001	3.57320E+000	9	...........
	52	0.706667	7.18368E-001	9.11898E-005	0.00000E+000	6.55078E-005	5.39641E-002	7.18500E-001	3.57320E+000	9	...........
	53	0.72	7.22836E-001	9.11022E-005	0.00000E+000	6.58520E-005	5.39641E-002	7.22970E-001	3.57320E+000	9	...........
	54	0.733333	7.27245E-001	9.11773E-005	0.00000E+000	6.63082E-005	5.39641E-002	7.27366E-001	3.57320E+000	9	...........
	55	0.746667	7.31587E-001	9.09532E-005	0.00000E+000	6.65402E-005	5.39641E-002	7.31744E-001	3.57320E+000	9	...........
	56	0.76	7.35891E-001	9.10720E-005	0.00000E+000	6.70191E-005	5.39641E-002	7.36021E-001	3.57320E+000	9	...........
	57	0.773333	7.40100E-001	9.08188E-005	0.00000E+000	6.72150E-005	5.39641E-002	7.40268E-001	3.57320E+000	9	...........
	58	0.786667	7.44303E-001	9.09897E-005	0.00000E+000	6.77239E-005	5.39641E-002	7.44443E-001	3.57320E+000	9	...........
	59	0.8	7.48421E-001	9.09751E-005	0.00000E+000	6.80877E-005	5.39641E-002	7.48583E-001	3.57320E+000	9	...........
	60	0.813333	7.52510E-001	9.12710E-005	0.00000E+000	6.86823E-005	5.39641E-002	7.52670E-001	3.57320E+000	9	...........
	61	0.826667	7.56566E-001	9.09157E-005	0.00000E+000	6.87838E-005	5.39641E-002	7.56715E-001	3.57320E+000	9	...........
	62	0.84	7.60561E-001	9.12450E-005	0.00000E+000	6.93974E-005	5.39641E-002	7.60697E-001	3.57320E+000	9	...........
	63	0.853333	7.64499E-001	9.09522E-005	0.00000E+000	6.95329E-005	5.39641E-002	7.64621E-001	3.57320E+000	9	...........
	64	0.866667	7.68402E-001	9.12929E-005	0.00000E+000	7.01496E-005	5.39641E-002	7.68575E-001	3.57320E+000	9	...........
	65	0.88	7.72243E-001	9.11314E-005	0.00000E+000	7.03756E-005	5.39641E-002	7.72390E-001	3.57320E+000	9	...........
	66	0.893333	7.76044E-001	9.10689E-005	0.00000E+000	7.06735E-005	5.39641E-002	7.76176E-001	3.57320E+000	9	...........
	67	0.906667	7.79788E-001	9.09585E-005	0.00000E+000	7.09283E-005	5.39641E-002	7.79936E-001	3.57320E+000	9	...........
	68	0.92	7.83497E-001	9.11022E-005	0.00000E+000	7.13783E-005	5.39641E-002	7.83616E-001	3.57320E+000	9	...........
	69	0.933333	7.87164E-001	9.09126E-005	0.00000E+000	7.15631E-005	5.39641E-002	7.87290E-001	3.57320E+000	9	...........
	70	0.946667	7.90812E-001	9.09064E-005	0.00000E+000	7.18899E-005	5.39641E-002	7.90964E-001	3.57320E+000	9	...........
	71	0.96	7.94449E-001	9.10189E-005	0.00000E+000	7.23098E-005	5.39641E-002	7.94582E-001	3.57320E+000	9	...........
	72	0.97333	7.97973E-001	9.07834E-005	0.00000E+000	7.24427E-005	5.39641E-002	7.98108E-001	3.57320E+000	9	...........
	73	0.98667	8.01466E-001	9.08095E-005	0.00000E+000	7.27807E-005	5.39641E-002	8.01607E-001	3.57320E+000	9	...........
	74	1	8.04936E-001	9.09460E-005	0.00000E+000	7.32057E-005	5.39641E-002	8.05085E-001	3.57320E+000	9	...........
	75	1.01333	8.08363E-001	9.10668E-005	0.00000E+000	7.36150E-005	5.39641E-002	8.08506E-001	3.57320E+000	9	...........
	76	1.02667	8.11756E-001	9.08928E-005	0.00000E+000	7.37828E-005	5.39641E-002	8.11912E-001	3.57320E+000	9	...........
	77	1.04	8.15129E-001	9.09605E-005	0.00000E+000	7.41446E-005	5.39641E-002	8.15268E-001	3.57320E+000	9	...........
	78	1.05333	8.18476E-001	9.08939E-005	0.00000E+000	7.43945E-005	5.39641E-002	8.18618E-001	3.57320E+000	9	...........
	79	1.06667	8.21766E-001	9.09553E-005	0.00000E+000	7.47440E-005	5.39641E-002	8.21912E-001	3.57320E+000	9	...........
	80	1.08	8.25016E-001	9.11168E-005	0.00000E+000	7.51729E-005	5.39641E-002	8.25175E-001	3.57320E+000	9	...........
	81	1.09333	8.28221E-001	9.11439E-005	0.00000E+000	7.54873E-005	5.39641E-002	8.28373E-001	3.57320E+000	9	...........
	82	1.10667	8.31391E-001	9.08907E-005	0.00000E+000	7.55658E-005	5.39641E-002	8.31597E-001	3.57320E+000	9	...........
	83	1.12	8.34562E-001	9.09605E-005	0.00000E+000	7.59122E-005	5.39641E-002	8.34765E-001	3.57320E+000	9	...........
	84	1.13333	8.37686E-001	9.11585E-005	0.00000E+000	7.63622E-005	5.39641E-002	8.37872E-001	3.57320E+000	9	...........
	85	1.14667	8.40788E-001	9.10970E-005	0.00000E+000	7.65933E-005	5.39641E-002	8.40954E-001	3.57320E+000	9	...........
	86	1.16	8.43861E-001	9.06938E-005	0.00000E+000	7.65330E-005	5.39641E-002	8.44064E-001	3.57320E+000	9	...........
	87	1.17333	8.46907E-001	9.10804E-005	0.00000E+000	7.71366E-005	5.39641E-002	8.47098E-001	3.57320E+000	9	...........
	88	1.18667	8.49894E-001	9.10001E-005	0.00000E+000	7.73405E-005	5.39641E-002	8.50097E-001	3.57340E+000	9	...........
	89	1.2	8.52872E-001	9.10074E-005	0.00000E+000	7.76177E-005	5.39641E-002	8.53047E-001	3.57340E+000	9	...........
	90	1.21333	8.55849E-001	9.11731E-005	0.00000E+000	7.80304E-005	5.39641E-002	8.56037E-001	3.57340E+000	9	...........
	91	1.22667	8.58761E-001	9.09512E-005	0.00000E+000	7.81053E-005	5.39641E-002	8.58958E-001	3.57340E+000	9	...........
	92	1.24	8.61694E-001	9.09012E-005	0.00000E+000	7.83290E-005	5.39641E-002	8.61852E-001	3.57340E+000	9	...........
	93	1.25333	8.64522E-001	9.09522E-005	0.00000E+000	7.86302E-005	5.39641E-002	8.64699E-001	3.57340E+000	9	...........
	94	1.26667	8.67365E-001	9.11012E-005	0.00000E+000	7.90179E-005	5.39641E-002	8.67531E-001	3.57340E+000	9	...........
	95	1.28	8.70176E-001	9.09262E-005	0.00000E+000	7.91217E-005	5.39641E-002	8.70333E-001	3.57340E+000	9	...........
	96	1.29333	8.72930E-001	9.09564E-005	0.00000E+000	7.93986E-005	5.39641E-002	8.73111E-001	3.57340E+000	9	...........
	97	1.30667	8.75633E-001	9.13012E-005	0.00000E+000	7.99463E-005	5.39641E-002	8.75834E-001	3.57340E+000	9	...........
	98	1.32	8.78345E-001	9.08418E-005	0.00000E+000	7.97904E-005	5.39641E-002	8.78528E-001	3.57340E+000	9	...........
	99	1.33333	8.80991E-001	9.10689E-005	0.00000E+000	8.02309E-005	5.39641E-002	8.81178E-001	3.57340E+000	9	...........
	100	1.34667	8.83668E-001	9.10543E-005	0.00000E+000	8.04618E-005	5.39641E-002	8.83858E-001	3.57340E+000	9	...........
	101	1.36	8.86271E-001	9.13325E-005	0.00000E+000	8.09454E-005	5.39641E-002	8.86497E-001	3.57340E+000	9	...........
	102	1.37333	8.88871E-001	9.10908E-005	0.00000E+000	8.09680E-005	5.39641E-002	8.89076E-001	3.57340E+000	9	...........
	103	1.38667	8.91441E-001	9.08345E-005	0.00000E+000	8.09736E-005	5.39641E-002	8.91641E-001	3.57340E+000	9	...........
	104	1.4	8.93994E-001	9.09366E-005	0.00000E+000	8.12968E-005	5.39641E-002	8.94219E-001	3.57340E+000	9	...........
	105	1.41333	8.96557E-001	9.09803E-005	0.00000E+000	8.15690E-005	5.39641E-002	8.96764E-001	3.57340E+000	9	...........
	106	1.42667	8.99035E-001	9.08991E-005	0.00000E+000	8.17214E-005	5.39641E-002	8.99248E-001	3.57340E+000	9	...........
	107	1.44	9.01530E-001	9.10189E-005	0.00000E+000	8.20562E-005	5.39641E-002	9.01722E-001	3.57340E+000	9	...........
	108	1.45333	9.03959E-001	9.11898E-005	0.00000E+000	8.24318E-005	5.39641E-002	9.04173E-001	3.57340E+000	9	...........
	109	1.46667	9.06374E-001	9.08501E-005	0.00000E+000	8.23442E-005	5.39641E-002	9.06563E-001	3.57340E+000	9	...........
	110	1.48	9.08794E-001	9.09616E-005	0.00000E+000	8.26653E-005	5.39641E-002	9.08983E-001	3.57340E+000	9	...........
	111	1.49333	9.11144E-001	9.09574E-005	0.00000E+000	8.28753E-005	5.39641E-002	9.11343E-001	3.57340E+000	9	...........
	112	1.50667	9.13492E-001	9.07022E-005	0.00000E+000	8.28557E-005	5.39641E-002	9.13685E-001	3.57340E+000	9	...........
	113	1.52	9.15824E-001	9.12096E-005	0.00000E+000	8.35319E-005	5.39641E-002	9.16028E-001	3.57340E+000	9	...........
	114	1.53333	9.18128E-001	9.07970E-005	0.00000E+000	8.33633E-005	5.39641E-002	9.18333E-001	3.57340E+000	9	...........
	115	1.54667	9.20424E-001	9.11845E-005	0.00000E+000	8.39285E-005	5.39641E-002	9.20625E-001	3.57340E+000	9	...........
	116	1.56	9.22692E-001	9.12929E-005	0.00000E+000	8.42353E-005	5.39641E-002	9.22882E-001	3.57340E+000	9	...........
	117	1.57333	9.24907E-001	9.08949E-005	0.00000E+000	8.40693E-005	5.39641E-002	9.25110E-001	3.57340E+000	9	...........
	118	1.58667	9.27115E-001	9.09856E-005	0.00000E+000	8.43541E-005	5.39641E-002	9.27324E-001	3.57340E+000	9	...........
	119	1.6	9.29259E-001	9.09939E-005	0.00000E+000	8.45569E-005	5.39641E-002	9.29440E-001	3.57340E+000	9	...........
	120	1.61333	9.31394E-001	9.09866E-005	0.00000E+000	8.47444E-005	5.39641E-002	9.31585E-001	3.57340E+000	9	...........
	121	1.62667	9.33513E-001	9.10668E-005	0.00000E+000	8.50120E-005	5.39641E-002	9.33738E-001	3.57340E+000	9	...........
	122	1.64	9.35622E-001	9.07720E-005	0.00000E+000	8.49283E-005	5.39641E-002	9.35822E-001	3.57340E+000	9	...........
	123	1.65333	9.37667E-001	9.09678E-005	0.00000E+000	8.52975E-005	5.39641E-002	9.37840E-001	3.57340E+000	9	...........
	124	1.66667	9.39705E-001	9.10918E-005	0.00000E+000	8.55994E-005	5.39641E-002	9.39871E-001	3.57340E+000	9	...........
	125	1.68	9.41739E-001	9.11491E-005	0.00000E+000	8.58387E-005	5.39641E-002	9.41864E-001	3.57340E+000	9	...........
	126	1.69333	9.43720E-001	9.09178E-005	0.00000E+000	8.58010E-005	5.39641E-002	9.43889E-001	3.57340E+000	9	...........
	127	1.70667	9.45693E-001	9.09460E-005	0.00000E+000	8.60070E-005	5.39641E-002	9.45885E-001	3.57340E+000	9	...........
	128	1.72	9.47730E-001	9.08543E-005	0.00000E+000	8.61054E-005	5.39641E-002	9.47886E-001	3.57340E+000	9	...........
	129	1.73333	9.49661E-001	9.09647E-005	0.00000E+000	8.63856E-005	5.39641E-002	9.49835E-001	3.57340E+000	9	...........
	130	1.74667	9.51584E-001	9.08293E-005	0.00000E+000	8.64317E-005	5.39641E-002	9.51763E-001	3.57340E+000	9	...........
	131	1.76	9.53498E-001	9.08678E-005	0.00000E+000	8.66422E-005	5.39641E-002	9.53686E-001	3.57340E+000	9	...........
	132	1.77333	9.55352E-001	9.11074E-005	0.00000E+000	8.70397E-005	5.39641E-002	9.55545E-001	3.57340E+000	9	...........
	133	1.78667	9.57206E-001	9.08626E-005	0.00000E+000	8.69743E-005	5.39641E-002	9.57383E-001	3.57340E+000	9	...........
	134	1.8	9.59031E-001	9.11950E-005	0.00000E+000	8.74588E-005	5.39641E-002	9.59239E-001	3.57340E+000	9	...........
	135	1.81333	9.60855E-001	9.09751E-005	0.00000E+000	8.74139E-005	5.39641E-002	9.61075E-001	3.57340E+000	9	...........
	136	1.82667	9.62665E-001	9.11741E-005	0.00000E+000	8.77701E-005	5.39641E-002	9.62875E-001	3.57340E+000	9	...........
	137	1.84	9.64440E-001	9.10449E-005	0.00000E+000	8.78074E-005	5.39641E-002	9.64649E-001	3.57340E+000	9	...........
	138	1.85333	9.66205E-001	9.11377E-005	0.00000E+000	8.80576E-005	5.39641E-002	9.66386E-001	3.57340E+000	9	...........
	139	1.86667	9.67945E-001	9.10356E-005	0.00000E+000	8.81175E-005	5.39641E-002	9.68140E-001	3.57340E+000	9	...........
	140	1.88	9.69671E-001	9.09345E-005	0.00000E+000	8.81765E-005	5.39641E-002	9.69853E-001	3.57340E+000	9	...........
	141	1.89333	9.71357E-001	9.10251E-005	0.00000E+000	8.84179E-005	5.39641E-002	9.71584E-001	3.57340E+000	9	...........
	142	1.90667	9.73090E-001	9.08887E-005	0.00000E+000	8.84428E-005	5.39641E-002	9.73266E-001	3.57340E+000	9	...........
	143	1.92	9.74752E-001	9.08157E-005	0.00000E+000	8.85228E-005	5.39641E-002	9.74943E-001	3.57340E+000	9	...........
	144	1.93333	9.76381E-001	9.10553E-005	0.00000E+000	8.89047E-005	5.39641E-002	9.76585E-001	3.57340E+000	9	...........
	145	1.94667	9.78003E-001	9.08105E-005	0.00000E+000	8.88129E-005	5.39641E-002	9.78199E-001	3.57340E+000	9	...........
	146	1.96	9.79595E-001	9.09262E-005	0.00000E+000	8.90708E-005	5.39641E-002	9.79781E-001	3.57340E+000	9	...........
	147	1.97333	9.81163E-001	9.12596E-005	0.00000E+000	8.95405E-005	5.39641E-002	9.81374E-001	3.57340E+000	9	...........
	148	1.98667	9.82757E-001	9.12148E-005	0.00000E+000	8.96420E-005	5.39641E-002	9.82951E-001	3.57340E+000	9	...........
	149	2	9.84290E-001	9.09303E-005	0.00000E+000	8.95018E-005	5.39641E-002	9.84495E-001	3.57340E+000	9	...........
	150	2.01333	9.85823E-001	9.09428E-005	0.00000E+000	8.96536E-005	5.39641E-002	9.86035E-001	3.57340E+000	9	...........
	151	2.02667	9.87349E-001	9.08699E-005	0.00000E+000	8.97203E-005	5.39641E-002	9.87554E-001	3.57340E+000	9	...........
	152	2.04	9.88854E-001	9.10679E-005	0.00000E+000	9.00529E-005	5.39641E-002	9.89044E-001	3.57340E+000	9	...........
	153	2.05333	9.90337E-001	9.10637E-005	0.00000E+000	9.01838E-005	5.39641E-002	9.90529E-001	3.57340E+000	9	...........
	154	2.06667	9.91826E-001	9.11397E-005	0.00000E+000	9.03947E-005	5.39641E-002	9.92001E-001	3.57340E+000	9	...........
	155	2.08	9.93272E-001	9.11439E-005	0.00000E+000	9.05307E-005	5.39641E-002	9.93467E-001	3.57340E+000	9	...........
	156	2.09333	9.94702E-001	9.08126E-005	0.00000E+000	9.03314E-005	5.39641E-002	9.94910E-001	3.57340E+000	9	...........
	157	2.10667	9.96137E-001	9.11189E-005	0.00000E+000	9.07669E-005	5.39641E-002	9.96350E-001	3.57340E+000	9	...........
	158	2.12	9.97578E-001	9.10095E-005	0.00000E+000	9.07891E-005	5.39641E-002	9.97775E-001	3.57340E+000	9	...........
	159	2.13333	9.99003E-001	9.09137E-005	0.00000E+000	9.08230E-005	5.39641E-002	9.99180E-001	3.57340E+000	9	...........
	160	2.13833	9.99919E-001	9.08682E-005	0.00000E+000	9.08608E-005	5.39641E-002	1.00012E+000	3.57340E+000	9	...........
STARTTIMEOFFSET	QUANT	4165.52	Start Time Offset (s)
