EXPLAIN
TAG	PWR800_CHARGE
TITLE	LABEL	PWR Cyclic Charge Discharge (Cell) - Charge Step	Test &Identifier
DATE	LABEL	10-7-2017	Date
TIME	LABEL	16:23:34	Time
NOTES	NOTES	3	&Notes...
	supercap test cell
	0.9mg
	6M KOH
PSTAT	PSTAT	IFC5000-01520	Potentiostat
CAPACITY	QUANT	1.00000E-003	Capacity (A-hr)
CELLTYPE	SELECTOR	1	&Cell Type
WORKINGCONNECTION	SELECTOR	0	&Working Lead
MAXCHARGETIME	VARIABLEANDUNITS	1.00000E+002	s	1.00000E+002	second(s)	Max &Charge Time
CHARGECURRENT	QUANT	9.00000E-005	&Charge Current (A) 
VOLTAGEFINISH	TWOPARAM	F	1.00000E-003	3.60000E+003	&Voltage Finish	 I (A) < 	Max Time(s)
SAMPLETIME	QUANT	1.00000E-002	Sa&mple Period (s)
CHARGESTOPAT1	MULTIPARAM	4	1.00000E+000	Charge Stop At &1	Voltage > Limit	V
CHARGESTOPAT2	MULTIPARAM	0	0.00000E+000	Charge Stop At &2	None	N/A
AESBHCSELECTOR	TOGGLE	F	Save Both Half Cells
IRCOMP	TOGGLE	F	IR &Measure
EOC	QUANT	0	Open Circuit (V)
SEQUENCER	TOGGLE	TRUE	Run as Sequence
PSTATMODEL	IQUANT	53	Pstat Model
PSTATSECTION	LABEL	IFC5000-01520	Pstat Section
PSTATSERIALNO	LABEL	01520	Pstat Serial Number
CTRLMODE	IQUANT	0	Control Mode
ELECTROMETER	IQUANT	1	RE=0 or CS=1
IESTAB	IQUANT	0	I/E Stability
CASPEED	IQUANT	4	Control Amp Speed
CONVENTION	IQUANT	1	Current Convention
ICHRANGE	IQUANT	2	Ich Range
ICHRANGEMODE	TOGGLE	T	Ich Auto Range
ICHOFFSETENABLE	TOGGLE	F	Ich Offset Enable
ICHOFFSET	QUANT	0	Ich Offset (V)
ICHFILTER	IQUANT	1	Ich Filter
VCHRANGE	IQUANT	2	Vch Range
VCHRANGEMODE	TOGGLE	T	Vch Auto Range
VCHOFFSETENABLE	TOGGLE	F	Vch Offset Enable
VCHOFFSET	QUANT	0	Vch Offset (V)
VCHFILTER	IQUANT	1	Vch Filter
IERANGELOWERLIMIT	IQUANT	9	I/E Range Lower Limit
IERANGEMODE	TOGGLE	F	I/E AutoRange
IERANGE	IQUANT	9	I/E Range
ACHSELECT	IQUANT	1	Ach Select
ACHRANGE	IQUANT	2	Ach Range
ACHOFFSETENABLE	TOGGLE	F	Ach Offset Enable
ACHOFFSET	QUANT	0	Ach Offset (V)
ACHFILTER	IQUANT	1	Ach Filter
CABLEID	IQUANT	14	Cable ID
DCCALDATE	LABEL	5-7-2017	DC Calibration Date
ACCALDATE	LABEL	12/3/2015	AC Calibration Date
FRAMEWORKVERSION	QUANT	7.01	Framework Version
INSTRUMENTVERSION	LABEL	4.00	Instrument Version
CURVE	TABLE	161
	Pt	T	Vf	Im	Vu	Pwr	Sig	Ach	Temp	IERange	Over
	#	s	V	A	V	W	V	V	deg C	#	bits
	0	0.013333	2.63046E-001	9.08199E-005	0.00000E+000	2.38898E-005	5.39641E-002	2.63092E-001	3.57350E+000	9	...........
	1	0.026667	2.82717E-001	9.11637E-005	0.00000E+000	2.57736E-005	5.39641E-002	2.82758E-001	3.57350E+000	9	...........
	2	0.04	3.01234E-001	9.10554E-005	0.00000E+000	2.74290E-005	5.39641E-002	3.01273E-001	3.57350E+000	9	...........
	3	0.053333	3.18752E-001	9.09595E-005	0.00000E+000	2.89935E-005	5.39641E-002	3.18793E-001	3.57350E+000	9	...........
	4	0.066667	3.35373E-001	9.08543E-005	0.00000E+000	3.04700E-005	5.39641E-002	3.35413E-001	3.57350E+000	9	...........
	5	0.08	3.51157E-001	9.07282E-005	0.00000E+000	3.18599E-005	5.39641E-002	3.51207E-001	3.57350E+000	9	...........
	6	0.093333	3.66194E-001	9.09637E-005	0.00000E+000	3.33104E-005	5.39641E-002	3.66238E-001	3.57350E+000	9	...........
	7	0.106667	3.80531E-001	9.10001E-005	0.00000E+000	3.46284E-005	5.39641E-002	3.80578E-001	3.57350E+000	9	...........
	8	0.12	3.94234E-001	9.10856E-005	0.00000E+000	3.59091E-005	5.39641E-002	3.94280E-001	3.57350E+000	9	...........
	9	0.133333	4.07358E-001	9.09012E-005	0.00000E+000	3.70293E-005	5.39641E-002	4.07403E-001	3.57350E+000	9	...........
	10	0.146667	4.19906E-001	9.08459E-005	0.00000E+000	3.81467E-005	5.39641E-002	4.19961E-001	3.57350E+000	9	...........
	11	0.16	4.31944E-001	9.10637E-005	0.00000E+000	3.93344E-005	5.39641E-002	4.32001E-001	3.57350E+000	9	...........
	12	0.173333	4.43522E-001	9.08564E-005	0.00000E+000	4.02968E-005	5.39641E-002	4.43579E-001	3.57350E+000	9	...........
	13	0.186667	4.54665E-001	9.10501E-005	0.00000E+000	4.13973E-005	5.39641E-002	4.54723E-001	3.57350E+000	9	...........
	14	0.2	4.65393E-001	9.10366E-005	0.00000E+000	4.23678E-005	5.39641E-002	4.65454E-001	3.57350E+000	9	...........
	15	0.213333	4.75724E-001	9.10981E-005	0.00000E+000	4.33375E-005	5.39641E-002	4.75788E-001	3.57350E+000	9	...........
	16	0.226667	4.85707E-001	9.09470E-005	0.00000E+000	4.41736E-005	5.39641E-002	4.85766E-001	3.57350E+000	9	...........
	17	0.24	4.95356E-001	9.10741E-005	0.00000E+000	4.51141E-005	5.39641E-002	4.95417E-001	3.57350E+000	9	...........
	18	0.253333	5.04692E-001	9.09668E-005	0.00000E+000	4.59102E-005	5.39641E-002	5.04758E-001	3.57350E+000	9	...........
	19	0.266667	5.13736E-001	9.08834E-005	0.00000E+000	4.66901E-005	5.39641E-002	5.13806E-001	3.57350E+000	9	...........
	20	0.28	5.22507E-001	9.10199E-005	0.00000E+000	4.75586E-005	5.39641E-002	5.22578E-001	3.57350E+000	9	...........
	21	0.293333	5.31008E-001	9.09418E-005	0.00000E+000	4.82909E-005	5.39641E-002	5.31082E-001	3.57350E+000	9	...........
	22	0.306667	5.39191E-001	9.11835E-005	0.00000E+000	4.91653E-005	5.39641E-002	5.39321E-001	3.57350E+000	9	...........
	23	0.32	5.47237E-001	9.10366E-005	0.00000E+000	4.98186E-005	5.39641E-002	5.47382E-001	3.57350E+000	9	...........
	24	0.333333	5.55072E-001	9.10251E-005	0.00000E+000	5.05255E-005	5.39641E-002	5.55211E-001	3.57350E+000	9	...........
	25	0.346667	5.62709E-001	9.07949E-005	0.00000E+000	5.10911E-005	5.39641E-002	5.62849E-001	3.57350E+000	9	...........
	26	0.36	5.70165E-001	9.11637E-005	0.00000E+000	5.19783E-005	5.39641E-002	5.70276E-001	3.57350E+000	9	...........
	27	0.373333	5.77352E-001	9.08793E-005	0.00000E+000	5.24694E-005	5.39641E-002	5.77498E-001	3.57350E+000	9	...........
	28	0.386667	5.84399E-001	9.07959E-005	0.00000E+000	5.30610E-005	5.39641E-002	5.84536E-001	3.57350E+000	9	...........
	29	0.4	5.91326E-001	9.08272E-005	0.00000E+000	5.37085E-005	5.39641E-002	5.91453E-001	3.57350E+000	9	...........
	30	0.413333	5.98042E-001	9.12075E-005	0.00000E+000	5.45459E-005	5.39641E-002	5.98178E-001	3.57350E+000	9	...........
	31	0.426667	6.04589E-001	9.10658E-005	0.00000E+000	5.50573E-005	5.39641E-002	6.04758E-001	3.57350E+000	9	...........
	32	0.44	6.11052E-001	9.10001E-005	0.00000E+000	5.56058E-005	5.39641E-002	6.11194E-001	3.57350E+000	9	...........
	33	0.453333	6.17416E-001	9.10949E-005	0.00000E+000	5.62435E-005	5.39641E-002	6.17529E-001	3.57350E+000	9	...........
	34	0.466667	6.23579E-001	9.09022E-005	0.00000E+000	5.66847E-005	5.39641E-002	6.23687E-001	3.57350E+000	9	...........
	35	0.48	6.29618E-001	9.06761E-005	0.00000E+000	5.70913E-005	5.39641E-002	6.29736E-001	3.57350E+000	9	...........
	36	0.493333	6.35534E-001	9.07584E-005	0.00000E+000	5.76800E-005	5.39641E-002	6.35639E-001	3.57350E+000	9	...........
	37	0.506667	6.41385E-001	9.10439E-005	0.00000E+000	5.83942E-005	5.39641E-002	6.41518E-001	3.57350E+000	9	...........
	38	0.52	6.47089E-001	9.07584E-005	0.00000E+000	5.87288E-005	5.39641E-002	6.47176E-001	3.57350E+000	9	...........
	39	0.533333	6.52701E-001	9.09064E-005	0.00000E+000	5.93347E-005	5.39641E-002	6.52799E-001	3.57350E+000	9	...........
	40	0.546667	6.58198E-001	9.08220E-005	0.00000E+000	5.97789E-005	5.39641E-002	6.58298E-001	3.57350E+000	9	...........
	41	0.56	6.63613E-001	9.07209E-005	0.00000E+000	6.02036E-005	5.39641E-002	6.63735E-001	3.57350E+000	9	...........
	42	0.573333	6.68935E-001	9.07011E-005	0.00000E+000	6.06731E-005	5.39641E-002	6.69040E-001	3.57350E+000	9	...........
	43	0.586667	6.74151E-001	9.09783E-005	0.00000E+000	6.13330E-005	5.39641E-002	6.74265E-001	3.57350E+000	9	...........
	44	0.6	6.79295E-001	9.12023E-005	0.00000E+000	6.19532E-005	5.39641E-002	6.79395E-001	3.57350E+000	9	...........
	45	0.613333	6.84332E-001	9.10272E-005	0.00000E+000	6.22928E-005	5.39641E-002	6.84432E-001	3.57350E+000	9	...........
	46	0.626667	6.89302E-001	9.10939E-005	0.00000E+000	6.27913E-005	5.39641E-002	6.89434E-001	3.57350E+000	9	...........
	47	0.64	6.94244E-001	9.10814E-005	0.00000E+000	6.32327E-005	5.39641E-002	6.94345E-001	3.57350E+000	9	...........
	48	0.653333	6.99042E-001	9.11397E-005	0.00000E+000	6.37105E-005	5.39641E-002	6.99162E-001	3.57350E+000	9	...........
	49	0.666667	7.03785E-001	9.10835E-005	0.00000E+000	6.41032E-005	5.39641E-002	7.03921E-001	3.57350E+000	9	...........
	50	0.68	7.08452E-001	9.10460E-005	0.00000E+000	6.45017E-005	5.39641E-002	7.08579E-001	3.57350E+000	9	...........
	51	0.693333	7.13054E-001	9.10303E-005	0.00000E+000	6.49095E-005	5.39641E-002	7.13193E-001	3.57350E+000	9	...........
	52	0.706667	7.17638E-001	9.09855E-005	0.00000E+000	6.52947E-005	5.39641E-002	7.17795E-001	3.57350E+000	9	...........
	53	0.72	7.22147E-001	9.09407E-005	0.00000E+000	6.56726E-005	5.39641E-002	7.22263E-001	3.57350E+000	9	...........
	54	0.733333	7.26571E-001	9.08699E-005	0.00000E+000	6.60235E-005	5.39641E-002	7.26710E-001	3.57350E+000	9	...........
	55	0.746667	7.30947E-001	9.08272E-005	0.00000E+000	6.63898E-005	5.39641E-002	7.31090E-001	3.57350E+000	9	...........
	56	0.76	7.35247E-001	9.11272E-005	0.00000E+000	6.70010E-005	5.39641E-002	7.35366E-001	3.57350E+000	9	...........
	57	0.773333	7.39487E-001	9.08043E-005	0.00000E+000	6.71486E-005	5.39641E-002	7.39628E-001	3.57350E+000	9	...........
	58	0.786667	7.43748E-001	9.09793E-005	0.00000E+000	6.76656E-005	5.39641E-002	7.43833E-001	3.57350E+000	9	...........
	59	0.8	7.47880E-001	9.10856E-005	0.00000E+000	6.81211E-005	5.39641E-002	7.47967E-001	3.57350E+000	9	...........
	60	0.813333	7.51964E-001	9.09991E-005	0.00000E+000	6.84281E-005	5.39641E-002	7.52089E-001	3.57350E+000	9	...........
	61	0.826667	7.56033E-001	9.09376E-005	0.00000E+000	6.87519E-005	5.39641E-002	7.56157E-001	3.57361E+000	9	...........
	62	0.84	7.60044E-001	9.09334E-005	0.00000E+000	6.91134E-005	5.39641E-002	7.60139E-001	3.57430E+000	9	...........
	63	0.853333	7.63964E-001	9.10085E-005	0.00000E+000	6.95272E-005	5.39641E-002	7.64096E-001	3.57430E+000	9	...........
	64	0.866667	7.67906E-001	9.08043E-005	0.00000E+000	6.97292E-005	5.39641E-002	7.68031E-001	3.57430E+000	9	...........
	65	0.88	7.71815E-001	9.11293E-005	0.00000E+000	7.03350E-005	5.39641E-002	7.71910E-001	3.57430E+000	9	...........
	66	0.893333	7.75618E-001	9.07938E-005	0.00000E+000	7.04213E-005	5.39641E-002	7.75712E-001	3.57430E+000	9	...........
	67	0.906667	7.79401E-001	9.08897E-005	0.00000E+000	7.08395E-005	5.39641E-002	7.79490E-001	3.57430E+000	9	...........
	68	0.92	7.83136E-001	9.11970E-005	0.00000E+000	7.14197E-005	5.39641E-002	7.83255E-001	3.57430E+000	9	...........
	69	0.933333	7.86830E-001	9.08564E-005	0.00000E+000	7.14885E-005	5.39641E-002	7.86947E-001	3.57430E+000	9	...........
	70	0.946667	7.90467E-001	9.09658E-005	0.00000E+000	7.19055E-005	5.39641E-002	7.90611E-001	3.57430E+000	9	...........
	71	0.96	7.94102E-001	9.11533E-005	0.00000E+000	7.23851E-005	5.39641E-002	7.94226E-001	3.57430E+000	9	...........
	72	0.97333	7.97671E-001	9.08907E-005	0.00000E+000	7.25009E-005	5.39641E-002	7.97796E-001	3.57430E+000	9	...........
	73	0.98667	8.01214E-001	9.09908E-005	0.00000E+000	7.29031E-005	5.39641E-002	8.01320E-001	3.57430E+000	9	...........
	74	1	8.04665E-001	9.09887E-005	0.00000E+000	7.32154E-005	5.39641E-002	8.04805E-001	3.57430E+000	9	...........
	75	1.01333	8.08118E-001	9.10158E-005	0.00000E+000	7.35514E-005	5.39641E-002	8.08275E-001	3.57430E+000	9	...........
	76	1.02667	8.11520E-001	9.10512E-005	0.00000E+000	7.38899E-005	5.39641E-002	8.11696E-001	3.57430E+000	9	...........
	77	1.04	8.14926E-001	9.09262E-005	0.00000E+000	7.40981E-005	5.39641E-002	8.15090E-001	3.57430E+000	9	...........
	78	1.05333	8.18290E-001	9.09324E-005	0.00000E+000	7.44091E-005	5.39641E-002	8.18481E-001	3.57430E+000	9	...........
	79	1.06667	8.21631E-001	9.11460E-005	0.00000E+000	7.48884E-005	5.39641E-002	8.21821E-001	3.57430E+000	9	...........
	80	1.08	8.24928E-001	9.11418E-005	0.00000E+000	7.51854E-005	5.39641E-002	8.25141E-001	3.57430E+000	9	...........
	81	1.09333	8.28186E-001	9.10137E-005	0.00000E+000	7.53763E-005	5.39641E-002	8.28365E-001	3.57430E+000	9	...........
	82	1.10667	8.31381E-001	9.10668E-005	0.00000E+000	7.57112E-005	5.39641E-002	8.31583E-001	3.57430E+000	9	...........
	83	1.12	8.34569E-001	9.10158E-005	0.00000E+000	7.59589E-005	5.39641E-002	8.34757E-001	3.57430E+000	9	...........
	84	1.13333	8.37706E-001	9.08855E-005	0.00000E+000	7.61354E-005	5.39641E-002	8.37907E-001	3.57430E+000	9	...........
	85	1.14667	8.40808E-001	9.13846E-005	0.00000E+000	7.68369E-005	5.39641E-002	8.40988E-001	3.57430E+000	9	...........
	86	1.16	8.43905E-001	9.09116E-005	0.00000E+000	7.67207E-005	5.39641E-002	8.44064E-001	3.57430E+000	9	...........
	87	1.17333	8.46964E-001	9.09084E-005	0.00000E+000	7.69962E-005	5.39641E-002	8.47139E-001	3.57430E+000	9	...........
	88	1.18667	8.49993E-001	9.09658E-005	0.00000E+000	7.73203E-005	5.39641E-002	8.50142E-001	3.57430E+000	9	...........
	89	1.2	8.52950E-001	9.09824E-005	0.00000E+000	7.76035E-005	5.39641E-002	8.53109E-001	3.57430E+000	9	...........
	90	1.21333	8.55904E-001	9.12127E-005	0.00000E+000	7.80693E-005	5.39641E-002	8.56108E-001	3.57430E+000	9	...........
	91	1.22667	8.58866E-001	9.09449E-005	0.00000E+000	7.81095E-005	5.39641E-002	8.59053E-001	3.57430E+000	9	...........
	92	1.24	8.61789E-001	9.10647E-005	0.00000E+000	7.84785E-005	5.39641E-002	8.61957E-001	3.57430E+000	9	...........
	93	1.25333	8.64607E-001	9.10470E-005	0.00000E+000	7.87199E-005	5.39641E-002	8.64803E-001	3.57430E+000	9	...........
	94	1.26667	8.67447E-001	9.11991E-005	0.00000E+000	7.91104E-005	5.39641E-002	8.67667E-001	3.57430E+000	9	...........
	95	1.28	8.70314E-001	9.09428E-005	0.00000E+000	7.91488E-005	5.39641E-002	8.70497E-001	3.57430E+000	9	...........
	96	1.29333	8.73113E-001	9.09793E-005	0.00000E+000	7.94352E-005	5.39641E-002	8.73284E-001	3.57430E+000	9	...........
	97	1.30667	8.75865E-001	9.10887E-005	0.00000E+000	7.97814E-005	5.39641E-002	8.76042E-001	3.57430E+000	9	...........
	98	1.32	8.78597E-001	9.09887E-005	0.00000E+000	7.99424E-005	5.39641E-002	8.78778E-001	3.57430E+000	9	...........
	99	1.33333	8.81277E-001	9.11179E-005	0.00000E+000	8.03001E-005	5.39641E-002	8.81502E-001	3.57430E+000	9	...........
	100	1.34667	8.84002E-001	9.10720E-005	0.00000E+000	8.05078E-005	5.39641E-002	8.84188E-001	3.57430E+000	9	...........
	101	1.36	8.86638E-001	9.11335E-005	0.00000E+000	8.08024E-005	5.39641E-002	8.86824E-001	3.57430E+000	9	...........
	102	1.37333	8.89225E-001	9.09147E-005	0.00000E+000	8.08436E-005	5.39641E-002	8.89427E-001	3.57430E+000	9	...........
	103	1.38667	8.91830E-001	9.06928E-005	0.00000E+000	8.08825E-005	5.39641E-002	8.92004E-001	3.57430E+000	9	...........
	104	1.4	8.94390E-001	9.09209E-005	0.00000E+000	8.13187E-005	5.39641E-002	8.94603E-001	3.57430E+000	9	...........
	105	1.41333	8.96969E-001	9.11658E-005	0.00000E+000	8.17729E-005	5.39641E-002	8.97170E-001	3.57430E+000	9	...........
	106	1.42667	8.99473E-001	9.11762E-005	0.00000E+000	8.20105E-005	5.39641E-002	8.99648E-001	3.57430E+000	9	...........
	107	1.44	9.01924E-001	9.09574E-005	0.00000E+000	8.20366E-005	5.39641E-002	9.02128E-001	3.57430E+000	9	...........
	108	1.45333	9.04362E-001	9.09710E-005	0.00000E+000	8.22707E-005	5.39641E-002	9.04569E-001	3.57430E+000	9	...........
	109	1.46667	9.06765E-001	9.12700E-005	0.00000E+000	8.27605E-005	5.39641E-002	9.06965E-001	3.57430E+000	9	...........
	110	1.48	9.09209E-001	9.09355E-005	0.00000E+000	8.26794E-005	5.39641E-002	9.09392E-001	3.57430E+000	9	...........
	111	1.49333	9.11561E-001	9.09345E-005	0.00000E+000	8.28923E-005	5.39641E-002	9.11760E-001	3.57430E+000	9	...........
	112	1.50667	9.13923E-001	9.09272E-005	0.00000E+000	8.31005E-005	5.39641E-002	9.14130E-001	3.57430E+000	9	...........
	113	1.52	9.16254E-001	9.11543E-005	0.00000E+000	8.35205E-005	5.39641E-002	9.16455E-001	3.57430E+000	9	...........
	114	1.53333	9.18522E-001	9.11304E-005	0.00000E+000	8.37053E-005	5.39641E-002	9.18728E-001	3.57430E+000	9	...........
	115	1.54667	9.20835E-001	9.12231E-005	0.00000E+000	8.40015E-005	5.39641E-002	9.20995E-001	3.57430E+000	9	...........
	116	1.56	9.23068E-001	9.11866E-005	0.00000E+000	8.41714E-005	5.39641E-002	9.23244E-001	3.57430E+000	9	...........
	117	1.57333	9.25293E-001	9.09293E-005	0.00000E+000	8.41363E-005	5.39641E-002	9.25460E-001	3.57430E+000	9	...........
	118	1.58667	9.27489E-001	9.07772E-005	0.00000E+000	8.41948E-005	5.39641E-002	9.27676E-001	3.57430E+000	9	...........
	119	1.6	9.29636E-001	9.10064E-005	0.00000E+000	8.46028E-005	5.39641E-002	9.29829E-001	3.57430E+000	9	...........
	120	1.61333	9.31778E-001	9.11929E-005	0.00000E+000	8.49716E-005	5.39641E-002	9.31978E-001	3.57430E+000	9	...........
	121	1.62667	9.33922E-001	9.08105E-005	0.00000E+000	8.48099E-005	5.39641E-002	9.34123E-001	3.57430E+000	9	...........
	122	1.64	9.36030E-001	9.09199E-005	0.00000E+000	8.51037E-005	5.39641E-002	9.36214E-001	3.57430E+000	9	...........
	123	1.65333	9.38079E-001	9.10981E-005	0.00000E+000	8.54572E-005	5.39641E-002	9.38294E-001	3.57430E+000	9	...........
	124	1.66667	9.40145E-001	9.08439E-005	0.00000E+000	8.54064E-005	5.39641E-002	9.40318E-001	3.57430E+000	9	...........
	125	1.68	9.42145E-001	9.09970E-005	0.00000E+000	8.57323E-005	5.39641E-002	9.42325E-001	3.57430E+000	9	...........
	126	1.69333	9.44165E-001	9.09824E-005	0.00000E+000	8.59025E-005	5.39641E-002	9.44330E-001	3.57430E+000	9	...........
	127	1.70667	9.46162E-001	9.10366E-005	0.00000E+000	8.61354E-005	5.39641E-002	9.46329E-001	3.57430E+000	9	...........
	128	1.72	9.48154E-001	9.12262E-005	0.00000E+000	8.64965E-005	5.39641E-002	9.48299E-001	3.57430E+000	9	...........
	129	1.73333	9.50079E-001	9.12106E-005	0.00000E+000	8.66573E-005	5.39641E-002	9.50226E-001	3.57430E+000	9	...........
	130	1.74667	9.52002E-001	9.12085E-005	0.00000E+000	8.68307E-005	5.39641E-002	9.52175E-001	3.57430E+000	9	...........
	131	1.76	9.53904E-001	9.08334E-005	0.00000E+000	8.66464E-005	5.39641E-002	9.54053E-001	3.57430E+000	9	...........
	132	1.77333	9.55758E-001	9.09012E-005	0.00000E+000	8.68795E-005	5.39641E-002	9.55920E-001	3.57430E+000	9	...........
	133	1.78667	9.57615E-001	9.10606E-005	0.00000E+000	8.72010E-005	5.39641E-002	9.57771E-001	3.57430E+000	9	...........
	134	1.8	9.59456E-001	9.09355E-005	0.00000E+000	8.72486E-005	5.39641E-002	9.59646E-001	3.57430E+000	9	...........
	135	1.81333	9.61268E-001	9.08293E-005	0.00000E+000	8.73113E-005	5.39641E-002	9.61461E-001	3.57430E+000	9	...........
	136	1.82667	9.63066E-001	9.10793E-005	0.00000E+000	8.77154E-005	5.39641E-002	9.63270E-001	3.57411E+000	9	...........
	137	1.84	9.64804E-001	9.11220E-005	0.00000E+000	8.79149E-005	5.39641E-002	9.65003E-001	3.57290E+000	9	...........
	138	1.85333	9.66557E-001	9.11356E-005	0.00000E+000	8.80878E-005	5.39641E-002	9.66738E-001	3.57290E+000	9	...........
	139	1.86667	9.68302E-001	9.08720E-005	0.00000E+000	8.79915E-005	5.39641E-002	9.68469E-001	3.57290E+000	9	...........
	140	1.88	9.70011E-001	9.09824E-005	0.00000E+000	8.82540E-005	5.39641E-002	9.70205E-001	3.57290E+000	9	...........
	141	1.89333	9.71718E-001	9.09751E-005	0.00000E+000	8.84022E-005	5.39641E-002	9.71895E-001	3.57290E+000	9	...........
	142	1.90667	9.73459E-001	9.08647E-005	0.00000E+000	8.84530E-005	5.39641E-002	9.73584E-001	3.57290E+000	9	...........
	143	1.92	9.75116E-001	9.08897E-005	0.00000E+000	8.86280E-005	5.39641E-002	9.75264E-001	3.57290E+000	9	...........
	144	1.93333	9.76766E-001	9.09168E-005	0.00000E+000	8.88044E-005	5.39641E-002	9.76938E-001	3.57290E+000	9	...........
	145	1.94667	9.78373E-001	9.12304E-005	0.00000E+000	8.92574E-005	5.39641E-002	9.78554E-001	3.57290E+000	9	...........
	146	1.96	9.79974E-001	9.09512E-005	0.00000E+000	8.91297E-005	5.39641E-002	9.80164E-001	3.57290E+000	9	...........
	147	1.97333	9.81560E-001	9.06824E-005	0.00000E+000	8.90102E-005	5.39641E-002	9.81721E-001	3.57290E+000	9	...........
	148	1.98667	9.83134E-001	9.09387E-005	0.00000E+000	8.94048E-005	5.39641E-002	9.83277E-001	3.57290E+000	9	...........
	149	2	9.84697E-001	9.10189E-005	0.00000E+000	8.96260E-005	5.39641E-002	9.84864E-001	3.57290E+000	9	...........
	150	2.01333	9.86252E-001	9.12554E-005	0.00000E+000	9.00008E-005	5.39641E-002	9.86427E-001	3.57290E+000	9	...........
	151	2.02667	9.87761E-001	9.10137E-005	0.00000E+000	8.98998E-005	5.39641E-002	9.87961E-001	3.57290E+000	9	...........
	152	2.04	9.89265E-001	9.08970E-005	0.00000E+000	8.99212E-005	5.39641E-002	9.89456E-001	3.57290E+000	9	...........
	153	2.05333	9.90740E-001	9.06021E-005	0.00000E+000	8.97632E-005	5.39641E-002	9.90937E-001	3.57290E+000	9	...........
	154	2.06667	9.92167E-001	9.08741E-005	0.00000E+000	9.01622E-005	5.39641E-002	9.92380E-001	3.57290E+000	9	...........
	155	2.08	9.93616E-001	9.07584E-005	0.00000E+000	9.01790E-005	5.39641E-002	9.93846E-001	3.57290E+000	9	...........
	156	2.09333	9.95070E-001	9.12096E-005	0.00000E+000	9.07599E-005	5.39641E-002	9.95279E-001	3.57290E+000	9	...........
	157	2.10667	9.96503E-001	9.10095E-005	0.00000E+000	9.06913E-005	5.39641E-002	9.96721E-001	3.57290E+000	9	...........
	158	2.12	9.97920E-001	9.08626E-005	0.00000E+000	9.06736E-005	5.39641E-002	9.98144E-001	3.57290E+000	9	...........
	159	2.13333	9.99303E-001	9.12908E-005	0.00000E+000	9.12272E-005	5.39641E-002	9.99519E-001	3.57290E+000	9	...........
	160	2.135	1.00010E+000	9.17045E-005	0.00000E+000	9.17133E-005	5.39641E-002	1.00031E+000	3.57290E+000	9	...........
STARTTIMEOFFSET	QUANT	4238.875	Start Time Offset (s)
