EXPLAIN
TAG	PWR800_CHARGE
TITLE	LABEL	PWR Cyclic Charge Discharge (Cell) - Charge Step	Test &Identifier
DATE	LABEL	10-7-2017	Date
TIME	LABEL	16:06:00	Time
NOTES	NOTES	3	&Notes...
	supercap test cell
	0.9mg
	6M KOH
PSTAT	PSTAT	IFC5000-01520	Potentiostat
CAPACITY	QUANT	1.00000E-003	Capacity (A-hr)
CELLTYPE	SELECTOR	1	&Cell Type
WORKINGCONNECTION	SELECTOR	0	&Working Lead
MAXCHARGETIME	VARIABLEANDUNITS	1.00000E+002	s	1.00000E+002	second(s)	Max &Charge Time
CHARGECURRENT	QUANT	9.00000E-005	&Charge Current (A) 
VOLTAGEFINISH	TWOPARAM	F	1.00000E-003	3.60000E+003	&Voltage Finish	 I (A) < 	Max Time(s)
SAMPLETIME	QUANT	1.00000E-002	Sa&mple Period (s)
CHARGESTOPAT1	MULTIPARAM	4	1.00000E+000	Charge Stop At &1	Voltage > Limit	V
CHARGESTOPAT2	MULTIPARAM	0	0.00000E+000	Charge Stop At &2	None	N/A
AESBHCSELECTOR	TOGGLE	F	Save Both Half Cells
IRCOMP	TOGGLE	F	IR &Measure
EOC	QUANT	0	Open Circuit (V)
SEQUENCER	TOGGLE	TRUE	Run as Sequence
PSTATMODEL	IQUANT	53	Pstat Model
PSTATSECTION	LABEL	IFC5000-01520	Pstat Section
PSTATSERIALNO	LABEL	01520	Pstat Serial Number
CTRLMODE	IQUANT	0	Control Mode
ELECTROMETER	IQUANT	1	RE=0 or CS=1
IESTAB	IQUANT	0	I/E Stability
CASPEED	IQUANT	4	Control Amp Speed
CONVENTION	IQUANT	1	Current Convention
ICHRANGE	IQUANT	2	Ich Range
ICHRANGEMODE	TOGGLE	T	Ich Auto Range
ICHOFFSETENABLE	TOGGLE	F	Ich Offset Enable
ICHOFFSET	QUANT	0	Ich Offset (V)
ICHFILTER	IQUANT	1	Ich Filter
VCHRANGE	IQUANT	2	Vch Range
VCHRANGEMODE	TOGGLE	T	Vch Auto Range
VCHOFFSETENABLE	TOGGLE	F	Vch Offset Enable
VCHOFFSET	QUANT	0	Vch Offset (V)
VCHFILTER	IQUANT	1	Vch Filter
IERANGELOWERLIMIT	IQUANT	9	I/E Range Lower Limit
IERANGEMODE	TOGGLE	F	I/E AutoRange
IERANGE	IQUANT	9	I/E Range
ACHSELECT	IQUANT	1	Ach Select
ACHRANGE	IQUANT	2	Ach Range
ACHOFFSETENABLE	TOGGLE	F	Ach Offset Enable
ACHOFFSET	QUANT	0	Ach Offset (V)
ACHFILTER	IQUANT	1	Ach Filter
CABLEID	IQUANT	14	Cable ID
DCCALDATE	LABEL	5-7-2017	DC Calibration Date
ACCALDATE	LABEL	12/3/2015	AC Calibration Date
FRAMEWORKVERSION	QUANT	7.01	Framework Version
INSTRUMENTVERSION	LABEL	4.00	Instrument Version
CURVE	TABLE	164
	Pt	T	Vf	Im	Vu	Pwr	Sig	Ach	Temp	IERange	Over
	#	s	V	A	V	W	V	V	deg C	#	bits
	0	0.013333	2.67199E-001	9.08459E-005	0.00000E+000	2.42740E-005	5.39641E-002	2.67245E-001	3.57300E+000	9	...........
	1	0.026667	2.86954E-001	9.07813E-005	0.00000E+000	2.60501E-005	5.39641E-002	2.86989E-001	3.57300E+000	9	...........
	2	0.04	3.05476E-001	9.07251E-005	0.00000E+000	2.77143E-005	5.39641E-002	3.05519E-001	3.57300E+000	9	...........
	3	0.053333	3.22940E-001	9.09355E-005	0.00000E+000	2.93667E-005	5.39641E-002	3.22984E-001	3.57300E+000	9	...........
	4	0.066667	3.39454E-001	9.10939E-005	0.00000E+000	3.09222E-005	5.39641E-002	3.39495E-001	3.57300E+000	9	...........
	5	0.08	3.55114E-001	9.08178E-005	0.00000E+000	3.22507E-005	5.39641E-002	3.55165E-001	3.57300E+000	9	...........
	6	0.093333	3.70008E-001	9.11773E-005	0.00000E+000	3.37363E-005	5.39641E-002	3.70053E-001	3.57300E+000	9	...........
	7	0.106667	3.84186E-001	9.07199E-005	0.00000E+000	3.48533E-005	5.39641E-002	3.84236E-001	3.57300E+000	9	...........
	8	0.12	3.97731E-001	9.11835E-005	0.00000E+000	3.62665E-005	5.39641E-002	3.97783E-001	3.57300E+000	9	...........
	9	0.133333	4.10689E-001	9.09324E-005	0.00000E+000	3.73450E-005	5.39641E-002	4.10745E-001	3.57300E+000	9	...........
	10	0.146667	4.23099E-001	9.08907E-005	0.00000E+000	3.84558E-005	5.39641E-002	4.23159E-001	3.57300E+000	9	...........
	11	0.16	4.35012E-001	9.09001E-005	0.00000E+000	3.95427E-005	5.39641E-002	4.35069E-001	3.57300E+000	9	...........
	12	0.173333	4.46451E-001	9.11054E-005	0.00000E+000	4.06741E-005	5.39641E-002	4.46512E-001	3.57300E+000	9	...........
	13	0.186667	4.57457E-001	9.10272E-005	0.00000E+000	4.16410E-005	5.39641E-002	4.57515E-001	3.57300E+000	9	...........
	14	0.2	4.68052E-001	9.10324E-005	0.00000E+000	4.26079E-005	5.39641E-002	4.68114E-001	3.57300E+000	9	...........
	15	0.213333	4.78282E-001	9.10314E-005	0.00000E+000	4.35386E-005	5.39641E-002	4.78345E-001	3.57300E+000	9	...........
	16	0.226667	4.88174E-001	9.09991E-005	0.00000E+000	4.44234E-005	5.39641E-002	4.88237E-001	3.57300E+000	9	...........
	17	0.24	4.97724E-001	9.09335E-005	0.00000E+000	4.52598E-005	5.39641E-002	4.97789E-001	3.57300E+000	9	...........
	18	0.253333	5.06960E-001	9.07886E-005	0.00000E+000	4.60262E-005	5.39641E-002	5.07029E-001	3.57300E+000	9	...........
	19	0.266667	5.15909E-001	9.07918E-005	0.00000E+000	4.68403E-005	5.39641E-002	5.15984E-001	3.57300E+000	9	...........
	20	0.28	5.24604E-001	9.09147E-005	0.00000E+000	4.76943E-005	5.39641E-002	5.24676E-001	3.57300E+000	9	...........
	21	0.293333	5.32999E-001	9.08772E-005	0.00000E+000	4.84374E-005	5.39641E-002	5.33091E-001	3.57300E+000	9	...........
	22	0.306667	5.41160E-001	9.09668E-005	0.00000E+000	4.92276E-005	5.39641E-002	5.41267E-001	3.57300E+000	9	...........
	23	0.32	5.49118E-001	9.09855E-005	0.00000E+000	4.99618E-005	5.39641E-002	5.49262E-001	3.57300E+000	9	...........
	24	0.333333	5.56876E-001	9.09647E-005	0.00000E+000	5.06561E-005	5.39641E-002	5.56972E-001	3.57300E+000	9	...........
	25	0.346667	5.64454E-001	9.09460E-005	0.00000E+000	5.13348E-005	5.39641E-002	5.64546E-001	3.57300E+000	9	...........
	26	0.36	5.71779E-001	9.11460E-005	0.00000E+000	5.21154E-005	5.39641E-002	5.71867E-001	3.57300E+000	9	...........
	27	0.373333	5.78935E-001	9.08105E-005	0.00000E+000	5.25734E-005	5.39641E-002	5.79036E-001	3.57300E+000	9	...........
	28	0.386667	5.85909E-001	9.12189E-005	0.00000E+000	5.34460E-005	5.39641E-002	5.86025E-001	3.57300E+000	9	...........
	29	0.4	5.92766E-001	9.09616E-005	0.00000E+000	5.39189E-005	5.39641E-002	5.92847E-001	3.57300E+000	9	...........
	30	0.413333	5.99423E-001	9.10303E-005	0.00000E+000	5.45657E-005	5.39641E-002	5.99537E-001	3.57300E+000	9	...........
	31	0.426667	6.05914E-001	9.09835E-005	0.00000E+000	5.51282E-005	5.39641E-002	6.06042E-001	3.57300E+000	9	...........
	32	0.44	6.12321E-001	9.10637E-005	0.00000E+000	5.57603E-005	5.39641E-002	6.12458E-001	3.57300E+000	9	...........
	33	0.453333	6.18615E-001	9.08022E-005	0.00000E+000	5.61716E-005	5.39641E-002	6.18701E-001	3.57300E+000	9	...........
	34	0.466667	6.24706E-001	9.09658E-005	0.00000E+000	5.68269E-005	5.39641E-002	6.24798E-001	3.57300E+000	9	...........
	35	0.48	6.30674E-001	9.09470E-005	0.00000E+000	5.73579E-005	5.39641E-002	6.30784E-001	3.57300E+000	9	...........
	36	0.493333	6.36554E-001	9.09553E-005	0.00000E+000	5.78980E-005	5.39641E-002	6.36644E-001	3.57300E+000	9	...........
	37	0.506667	6.42344E-001	9.09762E-005	0.00000E+000	5.84380E-005	5.39641E-002	6.42433E-001	3.57300E+000	9	...........
	38	0.52	6.47990E-001	9.10449E-005	0.00000E+000	5.89962E-005	5.39641E-002	6.48046E-001	3.57300E+000	9	...........
	39	0.533333	6.53553E-001	9.08428E-005	0.00000E+000	5.93706E-005	5.39641E-002	6.53613E-001	3.57300E+000	9	...........
	40	0.546667	6.58992E-001	9.09314E-005	0.00000E+000	5.99231E-005	5.39641E-002	6.59057E-001	3.57300E+000	9	...........
	41	0.56	6.64354E-001	9.09324E-005	0.00000E+000	6.04113E-005	5.39641E-002	6.64432E-001	3.57300E+000	9	...........
	42	0.573333	6.69631E-001	9.09314E-005	0.00000E+000	6.08905E-005	5.39641E-002	6.69712E-001	3.57300E+000	9	...........
	43	0.586667	6.74783E-001	9.13127E-005	0.00000E+000	6.16163E-005	5.39641E-002	6.74883E-001	3.57300E+000	9	...........
	44	0.6	6.79851E-001	9.09897E-005	0.00000E+000	6.18595E-005	5.39641E-002	6.79973E-001	3.57300E+000	9	...........
	45	0.613333	6.84833E-001	9.11554E-005	0.00000E+000	6.24262E-005	5.39641E-002	6.84959E-001	3.57300E+000	9	...........
	46	0.626667	6.89734E-001	9.10356E-005	0.00000E+000	6.27903E-005	5.39641E-002	6.89892E-001	3.57300E+000	9	...........
	47	0.64	6.94587E-001	9.10095E-005	0.00000E+000	6.32140E-005	5.39641E-002	6.94708E-001	3.57328E+000	9	...........
	48	0.653333	6.99330E-001	9.10960E-005	0.00000E+000	6.37062E-005	5.39641E-002	6.99483E-001	3.57440E+000	9	...........
	49	0.666667	7.04042E-001	9.10772E-005	0.00000E+000	6.41222E-005	5.39641E-002	7.04176E-001	3.57440E+000	9	...........
	50	0.68	7.08657E-001	9.09835E-005	0.00000E+000	6.44761E-005	5.39641E-002	7.08794E-001	3.57440E+000	9	...........
	51	0.693333	7.13215E-001	9.10658E-005	0.00000E+000	6.49495E-005	5.39641E-002	7.13315E-001	3.57440E+000	9	...........
	52	0.706667	7.17762E-001	9.10168E-005	0.00000E+000	6.53284E-005	5.39641E-002	7.17871E-001	3.57440E+000	9	...........
	53	0.72	7.22217E-001	9.10356E-005	0.00000E+000	6.57474E-005	5.39641E-002	7.22289E-001	3.57440E+000	9	...........
	54	0.733333	7.26556E-001	9.08334E-005	0.00000E+000	6.59956E-005	5.39641E-002	7.26659E-001	3.57440E+000	9	...........
	55	0.746667	7.30864E-001	9.13961E-005	0.00000E+000	6.67981E-005	5.39641E-002	7.30996E-001	3.57440E+000	9	...........
	56	0.76	7.35093E-001	9.10366E-005	0.00000E+000	6.69204E-005	5.39641E-002	7.35238E-001	3.57440E+000	9	...........
	57	0.773333	7.39272E-001	9.09314E-005	0.00000E+000	6.72230E-005	5.39641E-002	7.39416E-001	3.57440E+000	9	...........
	58	0.786667	7.43439E-001	9.11543E-005	0.00000E+000	6.77677E-005	5.39641E-002	7.43568E-001	3.57440E+000	9	...........
	59	0.8	7.47525E-001	9.10293E-005	0.00000E+000	6.80467E-005	5.39641E-002	7.47617E-001	3.57440E+000	9	...........
	60	0.813333	7.51542E-001	9.09543E-005	0.00000E+000	6.83559E-005	5.39641E-002	7.51641E-001	3.57440E+000	9	...........
	61	0.826667	7.55532E-001	9.09741E-005	0.00000E+000	6.87338E-005	5.39641E-002	7.55636E-001	3.57440E+000	9	...........
	62	0.84	7.59453E-001	9.10783E-005	0.00000E+000	6.91697E-005	5.39641E-002	7.59537E-001	3.57440E+000	9	...........
	63	0.853333	7.63339E-001	9.10595E-005	0.00000E+000	6.95092E-005	5.39641E-002	7.63439E-001	3.57440E+000	9	...........
	64	0.866667	7.67172E-001	9.10293E-005	0.00000E+000	6.98352E-005	5.39641E-002	7.67326E-001	3.57440E+000	9	...........
	65	0.88	7.70973E-001	9.08949E-005	0.00000E+000	7.00775E-005	5.39641E-002	7.71086E-001	3.57440E+000	9	...........
	66	0.893333	7.74722E-001	9.12283E-005	0.00000E+000	7.06765E-005	5.39641E-002	7.74832E-001	3.57440E+000	9	...........
	67	0.906667	7.78422E-001	9.08855E-005	0.00000E+000	7.07473E-005	5.39641E-002	7.78532E-001	3.57440E+000	9	...........
	68	0.92	7.82100E-001	9.10658E-005	0.00000E+000	7.12226E-005	5.39641E-002	7.82227E-001	3.57440E+000	9	...........
	69	0.933333	7.85729E-001	9.10449E-005	0.00000E+000	7.15367E-005	5.39641E-002	7.85846E-001	3.57440E+000	9	...........
	70	0.946667	7.89326E-001	9.11356E-005	0.00000E+000	7.19357E-005	5.39641E-002	7.89452E-001	3.57440E+000	9	...........
	71	0.96	7.92872E-001	9.10824E-005	0.00000E+000	7.22167E-005	5.39641E-002	7.93024E-001	3.57440E+000	9	...........
	72	0.97333	7.96382E-001	9.09387E-005	0.00000E+000	7.24219E-005	5.39641E-002	7.96507E-001	3.57440E+000	9	...........
	73	0.98667	7.99836E-001	9.09918E-005	0.00000E+000	7.27785E-005	5.39641E-002	7.99971E-001	3.57440E+000	9	...........
	74	1	8.03251E-001	9.09449E-005	0.00000E+000	7.30516E-005	5.39641E-002	8.03406E-001	3.57440E+000	9	...........
	75	1.01333	8.06642E-001	9.09710E-005	0.00000E+000	7.33810E-005	5.39641E-002	8.06798E-001	3.57440E+000	9	...........
	76	1.02667	8.09978E-001	9.10606E-005	0.00000E+000	7.37571E-005	5.39641E-002	8.10113E-001	3.57440E+000	9	...........
	77	1.04	8.13307E-001	9.09272E-005	0.00000E+000	7.39517E-005	5.39641E-002	8.13442E-001	3.57440E+000	9	...........
	78	1.05333	8.16562E-001	9.12450E-005	0.00000E+000	7.45072E-005	5.39641E-002	8.16713E-001	3.57440E+000	9	...........
	79	1.06667	8.19849E-001	9.14304E-005	0.00000E+000	7.49592E-005	5.39641E-002	8.20016E-001	3.57440E+000	9	...........
	80	1.08	8.23038E-001	9.12679E-005	0.00000E+000	7.51170E-005	5.39641E-002	8.23216E-001	3.57440E+000	9	...........
	81	1.09333	8.26233E-001	9.11314E-005	0.00000E+000	7.52958E-005	5.39641E-002	8.26406E-001	3.57440E+000	9	...........
	82	1.10667	8.29364E-001	9.10314E-005	0.00000E+000	7.54982E-005	5.39641E-002	8.29573E-001	3.57440E+000	9	...........
	83	1.12	8.32474E-001	9.11241E-005	0.00000E+000	7.58585E-005	5.39641E-002	8.32681E-001	3.57440E+000	9	...........
	84	1.13333	8.35539E-001	9.10877E-005	0.00000E+000	7.61073E-005	5.39641E-002	8.35738E-001	3.57440E+000	9	...........
	85	1.14667	8.38586E-001	9.10231E-005	0.00000E+000	7.63307E-005	5.39641E-002	8.38773E-001	3.57440E+000	9	...........
	86	1.16	8.41594E-001	9.10356E-005	0.00000E+000	7.66150E-005	5.39641E-002	8.41765E-001	3.57440E+000	9	...........
	87	1.17333	8.44622E-001	9.09918E-005	0.00000E+000	7.68537E-005	5.39641E-002	8.44781E-001	3.57440E+000	9	...........
	88	1.18667	8.47602E-001	9.09470E-005	0.00000E+000	7.70869E-005	5.39641E-002	8.47767E-001	3.57440E+000	9	...........
	89	1.2	8.50563E-001	9.08762E-005	0.00000E+000	7.72959E-005	5.39641E-002	8.50736E-001	3.57440E+000	9	...........
	90	1.21333	8.53487E-001	9.08261E-005	0.00000E+000	7.75189E-005	5.39641E-002	8.53627E-001	3.57440E+000	9	...........
	91	1.22667	8.56362E-001	9.08657E-005	0.00000E+000	7.78139E-005	5.39641E-002	8.56528E-001	3.57440E+000	9	...........
	92	1.24	8.59200E-001	9.12898E-005	0.00000E+000	7.84362E-005	5.39641E-002	8.59366E-001	3.57440E+000	9	...........
	93	1.25333	8.62009E-001	9.11366E-005	0.00000E+000	7.85606E-005	5.39641E-002	8.62164E-001	3.57440E+000	9	...........
	94	1.26667	8.64795E-001	9.10303E-005	0.00000E+000	7.87226E-005	5.39641E-002	8.64954E-001	3.57440E+000	9	...........
	95	1.28	8.67563E-001	9.09376E-005	0.00000E+000	7.88941E-005	5.39641E-002	8.67732E-001	3.57440E+000	9	...........
	96	1.29333	8.70319E-001	9.10751E-005	0.00000E+000	7.92645E-005	5.39641E-002	8.70483E-001	3.57440E+000	9	...........
	97	1.30667	8.73003E-001	9.09616E-005	0.00000E+000	7.94097E-005	5.39641E-002	8.73191E-001	3.57440E+000	9	...........
	98	1.32	8.75666E-001	9.09189E-005	0.00000E+000	7.96146E-005	5.39641E-002	8.75857E-001	3.57440E+000	9	...........
	99	1.33333	8.78317E-001	9.08449E-005	0.00000E+000	7.97906E-005	5.39641E-002	8.78492E-001	3.57440E+000	9	...........
	100	1.34667	8.80929E-001	9.09887E-005	0.00000E+000	8.01546E-005	5.39641E-002	8.81126E-001	3.57440E+000	9	...........
	101	1.36	8.83583E-001	9.09626E-005	0.00000E+000	8.03730E-005	5.39641E-002	8.83749E-001	3.57440E+000	9	...........
	102	1.37333	8.86155E-001	9.10814E-005	0.00000E+000	8.07122E-005	5.39641E-002	8.86359E-001	3.57440E+000	9	...........
	103	1.38667	8.88727E-001	9.13544E-005	0.00000E+000	8.11891E-005	5.39641E-002	8.88918E-001	3.57440E+000	9	...........
	104	1.4	8.91260E-001	9.11179E-005	0.00000E+000	8.12097E-005	5.39641E-002	8.91453E-001	3.57440E+000	9	...........
	105	1.41333	8.93740E-001	9.10481E-005	0.00000E+000	8.13733E-005	5.39641E-002	8.93952E-001	3.57440E+000	9	...........
	106	1.42667	8.96240E-001	9.09147E-005	0.00000E+000	8.14814E-005	5.39641E-002	8.96457E-001	3.57440E+000	9	...........
	107	1.44	8.98704E-001	9.10877E-005	0.00000E+000	8.18608E-005	5.39641E-002	8.98904E-001	3.57440E+000	9	...........
	108	1.45333	9.01146E-001	9.08522E-005	0.00000E+000	8.18711E-005	5.39641E-002	9.01337E-001	3.57440E+000	9	...........
	109	1.46667	9.03543E-001	9.12398E-005	0.00000E+000	8.24390E-005	5.39641E-002	9.03753E-001	3.57440E+000	9	...........
	110	1.48	9.05919E-001	9.11085E-005	0.00000E+000	8.25369E-005	5.39641E-002	9.06107E-001	3.57440E+000	9	...........
	111	1.49333	9.08295E-001	9.07688E-005	0.00000E+000	8.24448E-005	5.39641E-002	9.08508E-001	3.57440E+000	9	...........
	112	1.50667	9.10613E-001	9.08011E-005	0.00000E+000	8.26847E-005	5.39641E-002	9.10788E-001	3.57440E+000	9	...........
	113	1.52	9.12889E-001	9.09480E-005	0.00000E+000	8.30254E-005	5.39641E-002	9.13064E-001	3.57440E+000	9	...........
	114	1.53333	9.15150E-001	9.08626E-005	0.00000E+000	8.31529E-005	5.39641E-002	9.15323E-001	3.57440E+000	9	...........
	115	1.54667	9.17372E-001	9.11731E-005	0.00000E+000	8.36396E-005	5.39641E-002	9.17573E-001	3.57440E+000	9	...........
	116	1.56	9.19554E-001	9.10408E-005	0.00000E+000	8.37169E-005	5.39641E-002	9.19737E-001	3.57440E+000	9	...........
	117	1.57333	9.21817E-001	9.10491E-005	0.00000E+000	8.39306E-005	5.39641E-002	9.21964E-001	3.57440E+000	9	...........
	118	1.58667	9.23974E-001	9.13127E-005	0.00000E+000	8.43706E-005	5.39641E-002	9.24125E-001	3.57440E+000	9	...........
	119	1.6	9.26139E-001	9.11314E-005	0.00000E+000	8.44003E-005	5.39641E-002	9.26284E-001	3.57440E+000	9	...........
	120	1.61333	9.28281E-001	9.10231E-005	0.00000E+000	8.44950E-005	5.39641E-002	9.28409E-001	3.57440E+000	9	...........
	121	1.62667	9.30360E-001	9.09605E-005	0.00000E+000	8.46261E-005	5.39641E-002	9.30469E-001	3.57440E+000	9	...........
	122	1.64	9.32386E-001	9.09334E-005	0.00000E+000	8.47851E-005	5.39641E-002	9.32548E-001	3.57406E+000	9	...........
	123	1.65333	9.34407E-001	9.09553E-005	0.00000E+000	8.49893E-005	5.39641E-002	9.34580E-001	3.57270E+000	9	...........
	124	1.66667	9.36438E-001	9.09960E-005	0.00000E+000	8.52120E-005	5.39641E-002	9.36629E-001	3.57270E+000	9	...........
	125	1.68	9.38437E-001	9.08418E-005	0.00000E+000	8.52493E-005	5.39641E-002	9.38625E-001	3.57270E+000	9	...........
	126	1.69333	9.40432E-001	9.10012E-005	0.00000E+000	8.55804E-005	5.39641E-002	9.40600E-001	3.57270E+000	9	...........
	127	1.70667	9.42411E-001	9.09272E-005	0.00000E+000	8.56908E-005	5.39641E-002	9.42549E-001	3.57270E+000	9	...........
	128	1.72	9.44319E-001	9.11991E-005	0.00000E+000	8.61211E-005	5.39641E-002	9.44513E-001	3.57270E+000	9	...........
	129	1.73333	9.46254E-001	9.11210E-005	0.00000E+000	8.62236E-005	5.39641E-002	9.46421E-001	3.57270E+000	9	...........
	130	1.74667	9.48157E-001	9.10210E-005	0.00000E+000	8.63022E-005	5.39641E-002	9.48325E-001	3.57270E+000	9	...........
	131	1.76	9.50009E-001	9.10616E-005	0.00000E+000	8.65093E-005	5.39641E-002	9.50156E-001	3.57270E+000	9	...........
	132	1.77333	9.51848E-001	9.11970E-005	0.00000E+000	8.68057E-005	5.39641E-002	9.51999E-001	3.57270E+000	9	...........
	133	1.78667	9.53683E-001	9.10303E-005	0.00000E+000	8.68141E-005	5.39641E-002	9.53809E-001	3.57270E+000	9	...........
	134	1.8	9.55482E-001	9.08803E-005	0.00000E+000	8.68345E-005	5.39641E-002	9.55623E-001	3.57270E+000	9	...........
	135	1.81333	9.57278E-001	9.10231E-005	0.00000E+000	8.71344E-005	5.39641E-002	9.57454E-001	3.57270E+000	9	...........
	136	1.82667	9.59042E-001	9.11741E-005	0.00000E+000	8.74398E-005	5.39641E-002	9.59221E-001	3.57270E+000	9	...........
	137	1.84	9.60815E-001	9.11283E-005	0.00000E+000	8.75574E-005	5.39641E-002	9.60973E-001	3.57270E+000	9	...........
	138	1.85333	9.62572E-001	9.08386E-005	0.00000E+000	8.74387E-005	5.39641E-002	9.62760E-001	3.57270E+000	9	...........
	139	1.86667	9.64268E-001	9.11533E-005	0.00000E+000	8.78962E-005	5.39641E-002	9.64476E-001	3.57270E+000	9	...........
	140	1.88	9.65956E-001	9.11043E-005	0.00000E+000	8.80028E-005	5.39641E-002	9.66188E-001	3.57270E+000	9	...........
	141	1.89333	9.67679E-001	9.12950E-005	0.00000E+000	8.83443E-005	5.39641E-002	9.67860E-001	3.57270E+000	9	...........
	142	1.90667	9.69325E-001	9.07334E-005	0.00000E+000	8.79501E-005	5.39641E-002	9.69556E-001	3.57270E+000	9	...........
	143	1.92	9.70965E-001	9.10897E-005	0.00000E+000	8.84450E-005	5.39641E-002	9.71214E-001	3.57270E+000	9	...........
	144	1.93333	9.72648E-001	9.09939E-005	0.00000E+000	8.85051E-005	5.39641E-002	9.72865E-001	3.57270E+000	9	...........
	145	1.94667	9.74290E-001	9.09397E-005	0.00000E+000	8.86017E-005	5.39641E-002	9.74493E-001	3.57270E+000	9	...........
	146	1.96	9.75883E-001	9.07740E-005	0.00000E+000	8.85849E-005	5.39641E-002	9.76085E-001	3.57270E+000	9	...........
	147	1.97333	9.77455E-001	9.09491E-005	0.00000E+000	8.88987E-005	5.39641E-002	9.77665E-001	3.57270E+000	9	...........
	148	1.98667	9.79032E-001	9.11439E-005	0.00000E+000	8.92328E-005	5.39641E-002	9.79238E-001	3.57270E+000	9	...........
	149	2	9.80571E-001	9.10637E-005	0.00000E+000	8.92944E-005	5.39641E-002	9.80806E-001	3.57270E+000	9	...........
	150	2.01333	9.82082E-001	9.09303E-005	0.00000E+000	8.93010E-005	5.39641E-002	9.82314E-001	3.57270E+000	9	...........
	151	2.02667	9.83630E-001	9.07178E-005	0.00000E+000	8.92327E-005	5.39641E-002	9.83842E-001	3.57270E+000	9	...........
	152	2.04	9.85144E-001	9.09699E-005	0.00000E+000	8.96185E-005	5.39641E-002	9.85349E-001	3.57270E+000	9	...........
	153	2.05333	9.86620E-001	9.10929E-005	0.00000E+000	8.98740E-005	5.39641E-002	9.86866E-001	3.57270E+000	9	...........
	154	2.06667	9.88112E-001	9.10929E-005	0.00000E+000	9.00099E-005	5.39641E-002	9.88317E-001	3.57270E+000	9	...........
	155	2.08	9.89561E-001	9.08043E-005	0.00000E+000	8.98564E-005	5.39641E-002	9.89791E-001	3.57270E+000	9	...........
	156	2.09333	9.90984E-001	9.09647E-005	0.00000E+000	9.01446E-005	5.39641E-002	9.91182E-001	3.57270E+000	9	...........
	157	2.10667	9.92373E-001	9.09887E-005	0.00000E+000	9.02947E-005	5.39641E-002	9.92601E-001	3.57270E+000	9	...........
	158	2.12	9.93776E-001	9.11470E-005	0.00000E+000	9.05798E-005	5.39641E-002	9.94010E-001	3.57270E+000	9	...........
	159	2.13333	9.95203E-001	9.10918E-005	0.00000E+000	9.06549E-005	5.39641E-002	9.95396E-001	3.57270E+000	9	...........
	160	2.14667	9.96574E-001	9.10064E-005	0.00000E+000	9.06945E-005	5.39641E-002	9.96791E-001	3.57270E+000	9	...........
	161	2.16	9.97980E-001	9.10991E-005	0.00000E+000	9.09151E-005	5.39641E-002	9.98196E-001	3.57270E+000	9	...........
	162	2.17333	9.99347E-001	9.08605E-005	0.00000E+000	9.08012E-005	5.39641E-002	9.99537E-001	3.57270E+000	9	...........
	163	2.175	1.00011E+000	9.12460E-005	0.00000E+000	9.12557E-005	5.39641E-002	1.00028E+000	3.57270E+000	9	...........
STARTTIMEOFFSET	QUANT	3364.144	Start Time Offset (s)
