EXPLAIN
TAG	PWR800_CHARGE
TITLE	LABEL	PWR Cyclic Charge Discharge (Cell) - Charge Step	Test &Identifier
DATE	LABEL	10-7-2017	Date
TIME	LABEL	16:14:43	Time
NOTES	NOTES	3	&Notes...
	supercap test cell
	0.9mg
	6M KOH
PSTAT	PSTAT	IFC5000-01520	Potentiostat
CAPACITY	QUANT	1.00000E-003	Capacity (A-hr)
CELLTYPE	SELECTOR	1	&Cell Type
WORKINGCONNECTION	SELECTOR	0	&Working Lead
MAXCHARGETIME	VARIABLEANDUNITS	1.00000E+002	s	1.00000E+002	second(s)	Max &Charge Time
CHARGECURRENT	QUANT	9.00000E-005	&Charge Current (A) 
VOLTAGEFINISH	TWOPARAM	F	1.00000E-003	3.60000E+003	&Voltage Finish	 I (A) < 	Max Time(s)
SAMPLETIME	QUANT	1.00000E-002	Sa&mple Period (s)
CHARGESTOPAT1	MULTIPARAM	4	1.00000E+000	Charge Stop At &1	Voltage > Limit	V
CHARGESTOPAT2	MULTIPARAM	0	0.00000E+000	Charge Stop At &2	None	N/A
AESBHCSELECTOR	TOGGLE	F	Save Both Half Cells
IRCOMP	TOGGLE	F	IR &Measure
EOC	QUANT	0	Open Circuit (V)
SEQUENCER	TOGGLE	TRUE	Run as Sequence
PSTATMODEL	IQUANT	53	Pstat Model
PSTATSECTION	LABEL	IFC5000-01520	Pstat Section
PSTATSERIALNO	LABEL	01520	Pstat Serial Number
CTRLMODE	IQUANT	0	Control Mode
ELECTROMETER	IQUANT	1	RE=0 or CS=1
IESTAB	IQUANT	0	I/E Stability
CASPEED	IQUANT	4	Control Amp Speed
CONVENTION	IQUANT	1	Current Convention
ICHRANGE	IQUANT	2	Ich Range
ICHRANGEMODE	TOGGLE	T	Ich Auto Range
ICHOFFSETENABLE	TOGGLE	F	Ich Offset Enable
ICHOFFSET	QUANT	0	Ich Offset (V)
ICHFILTER	IQUANT	1	Ich Filter
VCHRANGE	IQUANT	2	Vch Range
VCHRANGEMODE	TOGGLE	T	Vch Auto Range
VCHOFFSETENABLE	TOGGLE	F	Vch Offset Enable
VCHOFFSET	QUANT	0	Vch Offset (V)
VCHFILTER	IQUANT	1	Vch Filter
IERANGELOWERLIMIT	IQUANT	9	I/E Range Lower Limit
IERANGEMODE	TOGGLE	F	I/E AutoRange
IERANGE	IQUANT	9	I/E Range
ACHSELECT	IQUANT	1	Ach Select
ACHRANGE	IQUANT	2	Ach Range
ACHOFFSETENABLE	TOGGLE	F	Ach Offset Enable
ACHOFFSET	QUANT	0	Ach Offset (V)
ACHFILTER	IQUANT	1	Ach Filter
CABLEID	IQUANT	14	Cable ID
DCCALDATE	LABEL	5-7-2017	DC Calibration Date
ACCALDATE	LABEL	12/3/2015	AC Calibration Date
FRAMEWORKVERSION	QUANT	7.01	Framework Version
INSTRUMENTVERSION	LABEL	4.00	Instrument Version
CURVE	TABLE	162
	Pt	T	Vf	Im	Vu	Pwr	Sig	Ach	Temp	IERange	Over
	#	s	V	A	V	W	V	V	deg C	#	bits
	0	0.013333	2.65371E-001	9.07959E-005	0.00000E+000	2.40946E-005	5.39641E-002	2.65425E-001	3.57320E+000	9	...........
	1	0.026667	2.85076E-001	9.08449E-005	0.00000E+000	2.58977E-005	5.39641E-002	2.85127E-001	3.57320E+000	9	...........
	2	0.04	3.03594E-001	9.08480E-005	0.00000E+000	2.75809E-005	5.39641E-002	3.03639E-001	3.57320E+000	9	...........
	3	0.053333	3.21079E-001	9.07615E-005	0.00000E+000	2.91416E-005	5.39641E-002	3.21124E-001	3.57320E+000	9	...........
	4	0.066667	3.37626E-001	9.07803E-005	0.00000E+000	3.06498E-005	5.39641E-002	3.37677E-001	3.57320E+000	9	...........
	5	0.08	3.53346E-001	9.11012E-005	0.00000E+000	3.21903E-005	5.39641E-002	3.53399E-001	3.57320E+000	9	...........
	6	0.093333	3.68304E-001	9.07949E-005	0.00000E+000	3.34401E-005	5.39641E-002	3.68354E-001	3.57320E+000	9	...........
	7	0.106667	3.82556E-001	9.07793E-005	0.00000E+000	3.47281E-005	5.39641E-002	3.82610E-001	3.57320E+000	9	...........
	8	0.12	3.96168E-001	9.08678E-005	0.00000E+000	3.59989E-005	5.39641E-002	3.96218E-001	3.57320E+000	9	...........
	9	0.133333	4.09185E-001	9.09199E-005	0.00000E+000	3.72030E-005	5.39641E-002	4.09243E-001	3.57320E+000	9	...........
	10	0.146667	4.21641E-001	9.10439E-005	0.00000E+000	3.83879E-005	5.39641E-002	4.21705E-001	3.57320E+000	9	...........
	11	0.16	4.33608E-001	9.09605E-005	0.00000E+000	3.94412E-005	5.39641E-002	4.33672E-001	3.57320E+000	9	...........
	12	0.173333	4.45109E-001	9.08511E-005	0.00000E+000	4.04386E-005	5.39641E-002	4.45168E-001	3.57320E+000	9	...........
	13	0.186667	4.56171E-001	9.07199E-005	0.00000E+000	4.13837E-005	5.39641E-002	4.56232E-001	3.57315E+000	9	...........
	14	0.2	4.66824E-001	9.10272E-005	0.00000E+000	4.24937E-005	5.39641E-002	4.66895E-001	3.57310E+000	9	...........
	15	0.213333	4.77102E-001	9.10241E-005	0.00000E+000	4.34278E-005	5.39641E-002	4.77166E-001	3.57310E+000	9	...........
	16	0.226667	4.87019E-001	9.10585E-005	0.00000E+000	4.43472E-005	5.39641E-002	4.87088E-001	3.57310E+000	9	...........
	17	0.24	4.96598E-001	9.08501E-005	0.00000E+000	4.51160E-005	5.39641E-002	4.96673E-001	3.57310E+000	9	...........
	18	0.253333	5.05872E-001	9.08532E-005	0.00000E+000	4.59601E-005	5.39641E-002	5.05942E-001	3.57310E+000	9	...........
	19	0.266667	5.14866E-001	9.11116E-005	0.00000E+000	4.69102E-005	5.39641E-002	5.14941E-001	3.57310E+000	9	...........
	20	0.28	5.23583E-001	9.10637E-005	0.00000E+000	4.76794E-005	5.39641E-002	5.23662E-001	3.57310E+000	9	...........
	21	0.293333	5.32005E-001	9.09251E-005	0.00000E+000	4.83727E-005	5.39641E-002	5.32082E-001	3.57310E+000	9	...........
	22	0.306667	5.40177E-001	9.11950E-005	0.00000E+000	4.92615E-005	5.39641E-002	5.40277E-001	3.57310E+000	9	...........
	23	0.32	5.48153E-001	9.08741E-005	0.00000E+000	4.98129E-005	5.39641E-002	5.48259E-001	3.57310E+000	9	...........
	24	0.333333	5.55914E-001	9.10522E-005	0.00000E+000	5.06172E-005	5.39641E-002	5.56014E-001	3.57310E+000	9	...........
	25	0.346667	5.63506E-001	9.08626E-005	0.00000E+000	5.12016E-005	5.39641E-002	5.63632E-001	3.57310E+000	9	...........
	26	0.36	5.70897E-001	9.11325E-005	0.00000E+000	5.20273E-005	5.39641E-002	5.70996E-001	3.57310E+000	9	...........
	27	0.373333	5.78094E-001	9.09064E-005	0.00000E+000	5.25524E-005	5.39641E-002	5.78206E-001	3.57310E+000	9	...........
	28	0.386667	5.85139E-001	9.08657E-005	0.00000E+000	5.31691E-005	5.39641E-002	5.85241E-001	3.57310E+000	9	...........
	29	0.4	5.92008E-001	9.11658E-005	0.00000E+000	5.39708E-005	5.39641E-002	5.92117E-001	3.57310E+000	9	...........
	30	0.413333	5.98681E-001	9.08876E-005	0.00000E+000	5.44127E-005	5.39641E-002	5.98815E-001	3.57310E+000	9	...........
	31	0.426667	6.05206E-001	9.12366E-005	0.00000E+000	5.52170E-005	5.39641E-002	6.05368E-001	3.57310E+000	9	...........
	32	0.44	6.11614E-001	9.09991E-005	0.00000E+000	5.56563E-005	5.39641E-002	6.11778E-001	3.57310E+000	9	...........
	33	0.453333	6.17940E-001	9.10637E-005	0.00000E+000	5.62719E-005	5.39641E-002	6.18074E-001	3.57310E+000	9	...........
	34	0.466667	6.24088E-001	9.09980E-005	0.00000E+000	5.67908E-005	5.39641E-002	6.24211E-001	3.57310E+000	9	...........
	35	0.48	6.30067E-001	9.10314E-005	0.00000E+000	5.73559E-005	5.39641E-002	6.30218E-001	3.57310E+000	9	...........
	36	0.493333	6.35943E-001	9.06761E-005	0.00000E+000	5.76648E-005	5.39641E-002	6.36089E-001	3.57310E+000	9	...........
	37	0.506667	6.41732E-001	9.09293E-005	0.00000E+000	5.83523E-005	5.39641E-002	6.41887E-001	3.57310E+000	9	...........
	38	0.52	6.47401E-001	9.10679E-005	0.00000E+000	5.89574E-005	5.39641E-002	6.47534E-001	3.57310E+000	9	...........
	39	0.533333	6.52985E-001	9.11054E-005	0.00000E+000	5.94905E-005	5.39641E-002	6.53097E-001	3.57310E+000	9	...........
	40	0.546667	6.58420E-001	9.10585E-005	0.00000E+000	5.99547E-005	5.39641E-002	6.58521E-001	3.57310E+000	9	...........
	41	0.56	6.63729E-001	9.09960E-005	0.00000E+000	6.03967E-005	5.39641E-002	6.63875E-001	3.57310E+000	9	...........
	42	0.573333	6.69046E-001	9.10158E-005	0.00000E+000	6.08938E-005	5.39641E-002	6.69164E-001	3.57310E+000	9	...........
	43	0.586667	6.74214E-001	9.10918E-005	0.00000E+000	6.14154E-005	5.39641E-002	6.74337E-001	3.57310E+000	9	...........
	44	0.6	6.79336E-001	9.09147E-005	0.00000E+000	6.17617E-005	5.39641E-002	6.79453E-001	3.57310E+000	9	...........
	45	0.613333	6.84321E-001	9.11158E-005	0.00000E+000	6.23524E-005	5.39641E-002	6.84447E-001	3.57310E+000	9	...........
	46	0.626667	6.89254E-001	9.09553E-005	0.00000E+000	6.26913E-005	5.39641E-002	6.89379E-001	3.57310E+000	9	...........
	47	0.64	6.94120E-001	9.11825E-005	0.00000E+000	6.32916E-005	5.39641E-002	6.94242E-001	3.57310E+000	9	...........
	48	0.653333	6.98886E-001	9.10449E-005	0.00000E+000	6.36300E-005	5.39641E-002	6.99055E-001	3.57310E+000	9	...........
	49	0.666667	7.03613E-001	9.12002E-005	0.00000E+000	6.41696E-005	5.39641E-002	7.03745E-001	3.57310E+000	9	...........
	50	0.68	7.08282E-001	9.07147E-005	0.00000E+000	6.42516E-005	5.39641E-002	7.08391E-001	3.57310E+000	9	...........
	51	0.693333	7.12834E-001	9.08887E-005	0.00000E+000	6.47885E-005	5.39641E-002	7.12973E-001	3.57310E+000	9	...........
	52	0.706667	7.17377E-001	9.09981E-005	0.00000E+000	6.52799E-005	5.39641E-002	7.17531E-001	3.57310E+000	9	...........
	53	0.72	7.21872E-001	9.07438E-005	0.00000E+000	6.55054E-005	5.39641E-002	7.22015E-001	3.57310E+000	9	...........
	54	0.733333	7.26257E-001	9.12012E-005	0.00000E+000	6.62356E-005	5.39641E-002	7.26426E-001	3.57310E+000	9	...........
	55	0.746667	7.30583E-001	9.11502E-005	0.00000E+000	6.65927E-005	5.39641E-002	7.30753E-001	3.57310E+000	9	...........
	56	0.76	7.34898E-001	9.08814E-005	0.00000E+000	6.67885E-005	5.39641E-002	7.35045E-001	3.57310E+000	9	...........
	57	0.773333	7.39087E-001	9.11418E-005	0.00000E+000	6.73618E-005	5.39641E-002	7.39245E-001	3.57310E+000	9	...........
	58	0.786667	7.43252E-001	9.11470E-005	0.00000E+000	6.77453E-005	5.39641E-002	7.43428E-001	3.57310E+000	9	...........
	59	0.8	7.47370E-001	9.11054E-005	0.00000E+000	6.80894E-005	5.39641E-002	7.47509E-001	3.57310E+000	9	...........
	60	0.813333	7.51445E-001	9.09335E-005	0.00000E+000	6.83315E-005	5.39641E-002	7.51564E-001	3.57310E+000	9	...........
	61	0.826667	7.55472E-001	9.08678E-005	0.00000E+000	6.86481E-005	5.39641E-002	7.55600E-001	3.57310E+000	9	...........
	62	0.84	7.59406E-001	9.08126E-005	0.00000E+000	6.89636E-005	5.39641E-002	7.59522E-001	3.57310E+000	9	...........
	63	0.853333	7.63309E-001	9.10272E-005	0.00000E+000	6.94819E-005	5.39641E-002	7.63431E-001	3.57310E+000	9	...........
	64	0.866667	7.67176E-001	9.11595E-005	0.00000E+000	6.99354E-005	5.39641E-002	7.67312E-001	3.57310E+000	9	...........
	65	0.88	7.71009E-001	9.08845E-005	0.00000E+000	7.00727E-005	5.39641E-002	7.71145E-001	3.57310E+000	9	...........
	66	0.893333	7.74806E-001	9.11168E-005	0.00000E+000	7.05979E-005	5.39641E-002	7.74920E-001	3.57310E+000	9	...........
	67	0.906667	7.78552E-001	9.10262E-005	0.00000E+000	7.08686E-005	5.39641E-002	7.78645E-001	3.57310E+000	9	...........
	68	0.92	7.82258E-001	9.11720E-005	0.00000E+000	7.13201E-005	5.39641E-002	7.82366E-001	3.57310E+000	9	...........
	69	0.933333	7.85917E-001	9.12960E-005	0.00000E+000	7.17511E-005	5.39641E-002	7.86017E-001	3.57310E+000	9	...........
	70	0.946667	7.89518E-001	9.10470E-005	0.00000E+000	7.18833E-005	5.39641E-002	7.89632E-001	3.57310E+000	9	...........
	71	0.96	7.93122E-001	9.10053E-005	0.00000E+000	7.21783E-005	5.39641E-002	7.93234E-001	3.57310E+000	9	...........
	72	0.97333	7.96686E-001	9.08105E-005	0.00000E+000	7.23475E-005	5.39641E-002	7.96801E-001	3.57310E+000	9	...........
	73	0.98667	8.00165E-001	9.10418E-005	0.00000E+000	7.28484E-005	5.39641E-002	8.00292E-001	3.57310E+000	9	...........
	74	1	8.03621E-001	9.11804E-005	0.00000E+000	7.32745E-005	5.39641E-002	8.03751E-001	3.57310E+000	9	...........
	75	1.01333	8.07032E-001	9.11241E-005	0.00000E+000	7.35401E-005	5.39641E-002	8.07167E-001	3.57310E+000	9	...........
	76	1.02667	8.10393E-001	9.09387E-005	0.00000E+000	7.36961E-005	5.39641E-002	8.10537E-001	3.57310E+000	9	...........
	77	1.04	8.13750E-001	9.09616E-005	0.00000E+000	7.40200E-005	5.39641E-002	8.13901E-001	3.57310E+000	9	...........
	78	1.05333	8.17071E-001	9.10147E-005	0.00000E+000	7.43655E-005	5.39641E-002	8.17221E-001	3.57310E+000	9	...........
	79	1.06667	8.20368E-001	9.08845E-005	0.00000E+000	7.45588E-005	5.39641E-002	8.20505E-001	3.57310E+000	9	...........
	80	1.08	8.23606E-001	9.10314E-005	0.00000E+000	7.49740E-005	5.39641E-002	8.23793E-001	3.57310E+000	9	...........
	81	1.09333	8.26840E-001	9.07803E-005	0.00000E+000	7.50607E-005	5.39641E-002	8.27003E-001	3.57310E+000	9	...........
	82	1.10667	8.30043E-001	9.05959E-005	0.00000E+000	7.51985E-005	5.39641E-002	8.30200E-001	3.57310E+000	9	...........
	83	1.12	8.33178E-001	9.10106E-005	0.00000E+000	7.58280E-005	5.39641E-002	8.33358E-001	3.57310E+000	9	...........
	84	1.13333	8.36257E-001	9.09439E-005	0.00000E+000	7.60524E-005	5.39641E-002	8.36471E-001	3.57310E+000	9	...........
	85	1.14667	8.39364E-001	9.09376E-005	0.00000E+000	7.63298E-005	5.39641E-002	8.39556E-001	3.57310E+000	9	...........
	86	1.16	8.42425E-001	9.09449E-005	0.00000E+000	7.66143E-005	5.39641E-002	8.42603E-001	3.57310E+000	9	...........
	87	1.17333	8.45463E-001	9.11106E-005	0.00000E+000	7.70306E-005	5.39641E-002	8.45653E-001	3.57310E+000	9	...........
	88	1.18667	8.48465E-001	9.10116E-005	0.00000E+000	7.72201E-005	5.39641E-002	8.48616E-001	3.57320E+000	9	...........
	89	1.2	8.51431E-001	9.07595E-005	0.00000E+000	7.72754E-005	5.39641E-002	8.51569E-001	3.57330E+000	9	...........
	90	1.21333	8.54327E-001	9.12210E-005	0.00000E+000	7.79326E-005	5.39641E-002	8.54512E-001	3.57330E+000	9	...........
	91	1.22667	8.57242E-001	9.10626E-005	0.00000E+000	7.80627E-005	5.39641E-002	8.57419E-001	3.57330E+000	9	...........
	92	1.24	8.60106E-001	9.10116E-005	0.00000E+000	7.82796E-005	5.39641E-002	8.60292E-001	3.57330E+000	9	...........
	93	1.25333	8.62955E-001	9.08063E-005	0.00000E+000	7.83618E-005	5.39641E-002	8.63123E-001	3.57330E+000	9	...........
	94	1.26667	8.65780E-001	9.09355E-005	0.00000E+000	7.87302E-005	5.39641E-002	8.65941E-001	3.57330E+000	9	...........
	95	1.28	8.68574E-001	9.10126E-005	0.00000E+000	7.90512E-005	5.39641E-002	8.68762E-001	3.57330E+000	9	...........
	96	1.29333	8.71335E-001	9.12689E-005	0.00000E+000	7.95258E-005	5.39641E-002	8.71498E-001	3.57330E+000	9	...........
	97	1.30667	8.74036E-001	9.11262E-005	0.00000E+000	7.96476E-005	5.39641E-002	8.74224E-001	3.57330E+000	9	...........
	98	1.32	8.76738E-001	9.11085E-005	0.00000E+000	7.98783E-005	5.39641E-002	8.76919E-001	3.57330E+000	9	...........
	99	1.33333	8.79404E-001	9.08897E-005	0.00000E+000	7.99288E-005	5.39641E-002	8.79556E-001	3.57330E+000	9	...........
	100	1.34667	8.82047E-001	9.09428E-005	0.00000E+000	8.02159E-005	5.39641E-002	8.82198E-001	3.57330E+000	9	...........
	101	1.36	8.84665E-001	9.09980E-005	0.00000E+000	8.05028E-005	5.39641E-002	8.84835E-001	3.57330E+000	9	...........
	102	1.37333	8.87242E-001	9.09105E-005	0.00000E+000	8.06596E-005	5.39641E-002	8.87422E-001	3.57330E+000	9	...........
	103	1.38667	8.89805E-001	9.09324E-005	0.00000E+000	8.09121E-005	5.39641E-002	8.89972E-001	3.57330E+000	9	...........
	104	1.4	8.92349E-001	9.09074E-005	0.00000E+000	8.11211E-005	5.39641E-002	8.92514E-001	3.57330E+000	9	...........
	105	1.41333	8.94858E-001	9.10574E-005	0.00000E+000	8.14835E-005	5.39641E-002	8.95088E-001	3.57330E+000	9	...........
	106	1.42667	8.97357E-001	9.09460E-005	0.00000E+000	8.16110E-005	5.39641E-002	8.97542E-001	3.57330E+000	9	...........
	107	1.44	8.99813E-001	9.11325E-005	0.00000E+000	8.20021E-005	5.39641E-002	8.99995E-001	3.57330E+000	9	...........
	108	1.45333	9.02242E-001	9.11137E-005	0.00000E+000	8.22066E-005	5.39641E-002	9.02433E-001	3.57330E+000	9	...........
	109	1.46667	9.04663E-001	9.08126E-005	0.00000E+000	8.21548E-005	5.39641E-002	9.04883E-001	3.57330E+000	9	...........
	110	1.48	9.07045E-001	9.10554E-005	0.00000E+000	8.25913E-005	5.39641E-002	9.07260E-001	3.57330E+000	9	...........
	111	1.49333	9.09431E-001	9.08386E-005	0.00000E+000	8.26115E-005	5.39641E-002	9.09632E-001	3.57330E+000	9	...........
	112	1.50667	9.11775E-001	9.11720E-005	0.00000E+000	8.31284E-005	5.39641E-002	9.11970E-001	3.57330E+000	9	...........
	113	1.52	9.14092E-001	9.10949E-005	0.00000E+000	8.32691E-005	5.39641E-002	9.14295E-001	3.57330E+000	9	...........
	114	1.53333	9.16348E-001	9.09699E-005	0.00000E+000	8.33601E-005	5.39641E-002	9.16583E-001	3.57330E+000	9	...........
	115	1.54667	9.18607E-001	9.11929E-005	0.00000E+000	8.37704E-005	5.39641E-002	9.18825E-001	3.57330E+000	9	...........
	116	1.56	9.20888E-001	9.11064E-005	0.00000E+000	8.38988E-005	5.39641E-002	9.21077E-001	3.57330E+000	9	...........
	117	1.57333	9.23123E-001	9.11356E-005	0.00000E+000	8.41293E-005	5.39641E-002	9.23290E-001	3.57330E+000	9	...........
	118	1.58667	9.25301E-001	9.10241E-005	0.00000E+000	8.42247E-005	5.39641E-002	9.25469E-001	3.57330E+000	9	...........
	119	1.6	9.27443E-001	9.09960E-005	0.00000E+000	8.43936E-005	5.39641E-002	9.27624E-001	3.57330E+000	9	...........
	120	1.61333	9.29582E-001	9.10314E-005	0.00000E+000	8.46212E-005	5.39641E-002	9.29732E-001	3.57330E+000	9	...........
	121	1.62667	9.31702E-001	9.10178E-005	0.00000E+000	8.48015E-005	5.39641E-002	9.31857E-001	3.57330E+000	9	...........
	122	1.64	9.33805E-001	9.09585E-005	0.00000E+000	8.49375E-005	5.39641E-002	9.33960E-001	3.57330E+000	9	...........
	123	1.65333	9.35856E-001	9.12762E-005	0.00000E+000	8.54214E-005	5.39641E-002	9.36030E-001	3.57330E+000	9	...........
	124	1.66667	9.37883E-001	9.10741E-005	0.00000E+000	8.54169E-005	5.39641E-002	9.38059E-001	3.57330E+000	9	...........
	125	1.68	9.39916E-001	9.07991E-005	0.00000E+000	8.53435E-005	5.39641E-002	9.40099E-001	3.57330E+000	9	...........
	126	1.69333	9.41915E-001	9.12106E-005	0.00000E+000	8.59126E-005	5.39641E-002	9.42083E-001	3.57330E+000	9	...........
	127	1.70667	9.43873E-001	9.12846E-005	0.00000E+000	8.61610E-005	5.39641E-002	9.44064E-001	3.57330E+000	9	...........
	128	1.72	9.45827E-001	9.11887E-005	0.00000E+000	8.62488E-005	5.39641E-002	9.46019E-001	3.57330E+000	9	...........
	129	1.73333	9.47806E-001	9.10022E-005	0.00000E+000	8.62524E-005	5.39641E-002	9.47949E-001	3.57330E+000	9	...........
	130	1.74667	9.49682E-001	9.09105E-005	0.00000E+000	8.63361E-005	5.39641E-002	9.49841E-001	3.57330E+000	9	...........
	131	1.76	9.51558E-001	9.09720E-005	0.00000E+000	8.65651E-005	5.39641E-002	9.51726E-001	3.57330E+000	9	...........
	132	1.77333	9.53419E-001	9.09887E-005	0.00000E+000	8.67503E-005	5.39641E-002	9.53576E-001	3.57330E+000	9	...........
	133	1.78667	9.55256E-001	9.09314E-005	0.00000E+000	8.68627E-005	5.39641E-002	9.55405E-001	3.57330E+000	9	...........
	134	1.8	9.57086E-001	9.12814E-005	0.00000E+000	8.73642E-005	5.39641E-002	9.57250E-001	3.57330E+000	9	...........
	135	1.81333	9.58902E-001	9.09460E-005	0.00000E+000	8.72083E-005	5.39641E-002	9.59048E-001	3.57330E+000	9	...........
	136	1.82667	9.60673E-001	9.09126E-005	0.00000E+000	8.73373E-005	5.39641E-002	9.60865E-001	3.57330E+000	9	...........
	137	1.84	9.62438E-001	9.10147E-005	0.00000E+000	8.75961E-005	5.39641E-002	9.62616E-001	3.57330E+000	9	...........
	138	1.85333	9.64178E-001	9.10981E-005	0.00000E+000	8.78347E-005	5.39641E-002	9.64381E-001	3.57330E+000	9	...........
	139	1.86667	9.65906E-001	9.12981E-005	0.00000E+000	8.81854E-005	5.39641E-002	9.66101E-001	3.57330E+000	9	...........
	140	1.88	9.67602E-001	9.09543E-005	0.00000E+000	8.80075E-005	5.39641E-002	9.67791E-001	3.57330E+000	9	...........
	141	1.89333	9.69308E-001	9.10835E-005	0.00000E+000	8.82880E-005	5.39641E-002	9.69485E-001	3.57330E+000	9	...........
	142	1.90667	9.70954E-001	9.09053E-005	0.00000E+000	8.82649E-005	5.39641E-002	9.71179E-001	3.57330E+000	9	...........
	143	1.92	9.72682E-001	9.09366E-005	0.00000E+000	8.84524E-005	5.39641E-002	9.72881E-001	3.57330E+000	9	...........
	144	1.93333	9.74330E-001	9.11720E-005	0.00000E+000	8.88317E-005	5.39641E-002	9.74529E-001	3.57330E+000	9	...........
	145	1.94667	9.75953E-001	9.08605E-005	0.00000E+000	8.86756E-005	5.39641E-002	9.76143E-001	3.57330E+000	9	...........
	146	1.96	9.77538E-001	9.10439E-005	0.00000E+000	8.89988E-005	5.39641E-002	9.77756E-001	3.57330E+000	9	...........
	147	1.97333	9.79131E-001	9.08314E-005	0.00000E+000	8.89358E-005	5.39641E-002	9.79335E-001	3.57330E+000	9	...........
	148	1.98667	9.80688E-001	9.07147E-005	0.00000E+000	8.89627E-005	5.39641E-002	9.80900E-001	3.57330E+000	9	...........
	149	2	9.82262E-001	9.09678E-005	0.00000E+000	8.93542E-005	5.39641E-002	9.82484E-001	3.57330E+000	9	...........
	150	2.01333	9.83808E-001	9.11898E-005	0.00000E+000	8.97132E-005	5.39641E-002	9.84017E-001	3.57330E+000	9	...........
	151	2.02667	9.85331E-001	9.10929E-005	0.00000E+000	8.97566E-005	5.39641E-002	9.85546E-001	3.57330E+000	9	...........
	152	2.04	9.86830E-001	9.10731E-005	0.00000E+000	8.98736E-005	5.39641E-002	9.87047E-001	3.57330E+000	9	...........
	153	2.05333	9.88358E-001	9.09637E-005	0.00000E+000	8.99047E-005	5.39641E-002	9.88570E-001	3.57330E+000	9	...........
	154	2.06667	9.89852E-001	9.09095E-005	0.00000E+000	8.99870E-005	5.39641E-002	9.90045E-001	3.57330E+000	9	...........
	155	2.08	9.91285E-001	9.10126E-005	0.00000E+000	9.02195E-005	5.39641E-002	9.91497E-001	3.57330E+000	9	...........
	156	2.09333	9.92741E-001	9.10814E-005	0.00000E+000	9.04202E-005	5.39641E-002	9.92946E-001	3.57330E+000	9	...........
	157	2.10667	9.94178E-001	9.08741E-005	0.00000E+000	9.03450E-005	5.39641E-002	9.94385E-001	3.57330E+000	9	...........
	158	2.12	9.95627E-001	9.09376E-005	0.00000E+000	9.05399E-005	5.39641E-002	9.95809E-001	3.57330E+000	9	...........
	159	2.13333	9.97007E-001	9.09824E-005	0.00000E+000	9.07101E-005	5.39641E-002	9.97234E-001	3.57330E+000	9	...........
	160	2.14667	9.98423E-001	9.11481E-005	0.00000E+000	9.10043E-005	5.39641E-002	9.98627E-001	3.57330E+000	9	...........
	161	2.15667	9.99624E-001	9.12363E-005	0.00000E+000	9.12020E-005	5.39641E-002	9.99824E-001	3.57330E+000	9	...........
STARTTIMEOFFSET	QUANT	3796.911	Start Time Offset (s)
