EXPLAIN
TAG	PWR800_CHARGE
TITLE	LABEL	PWR Cyclic Charge Discharge (Cell) - Charge Step	Test &Identifier
DATE	LABEL	10-7-2017	Date
TIME	LABEL	15:04:53	Time
NOTES	NOTES	3	&Notes...
	supercap test cell
	0.9mg
	6M KOH
PSTAT	PSTAT	IFC5000-01520	Potentiostat
CAPACITY	QUANT	1.00000E-003	Capacity (A-hr)
CELLTYPE	SELECTOR	1	&Cell Type
WORKINGCONNECTION	SELECTOR	0	&Working Lead
MAXCHARGETIME	VARIABLEANDUNITS	1.00000E+002	s	1.00000E+002	second(s)	Max &Charge Time
CHARGECURRENT	QUANT	9.00000E-005	&Charge Current (A) 
VOLTAGEFINISH	TWOPARAM	F	1.00000E-003	3.60000E+003	&Voltage Finish	 I (A) < 	Max Time(s)
SAMPLETIME	QUANT	1.00000E-002	Sa&mple Period (s)
CHARGESTOPAT1	MULTIPARAM	4	1.00000E+000	Charge Stop At &1	Voltage > Limit	V
CHARGESTOPAT2	MULTIPARAM	0	0.00000E+000	Charge Stop At &2	None	N/A
AESBHCSELECTOR	TOGGLE	F	Save Both Half Cells
IRCOMP	TOGGLE	F	IR &Measure
EOC	QUANT	0	Open Circuit (V)
SEQUENCER	TOGGLE	TRUE	Run as Sequence
PSTATMODEL	IQUANT	53	Pstat Model
PSTATSECTION	LABEL	IFC5000-01520	Pstat Section
PSTATSERIALNO	LABEL	01520	Pstat Serial Number
CTRLMODE	IQUANT	0	Control Mode
ELECTROMETER	IQUANT	1	RE=0 or CS=1
IESTAB	IQUANT	0	I/E Stability
CASPEED	IQUANT	4	Control Amp Speed
CONVENTION	IQUANT	1	Current Convention
ICHRANGE	IQUANT	2	Ich Range
ICHRANGEMODE	TOGGLE	T	Ich Auto Range
ICHOFFSETENABLE	TOGGLE	F	Ich Offset Enable
ICHOFFSET	QUANT	0	Ich Offset (V)
ICHFILTER	IQUANT	1	Ich Filter
VCHRANGE	IQUANT	2	Vch Range
VCHRANGEMODE	TOGGLE	T	Vch Auto Range
VCHOFFSETENABLE	TOGGLE	F	Vch Offset Enable
VCHOFFSET	QUANT	0	Vch Offset (V)
VCHFILTER	IQUANT	1	Vch Filter
IERANGELOWERLIMIT	IQUANT	9	I/E Range Lower Limit
IERANGEMODE	TOGGLE	F	I/E AutoRange
IERANGE	IQUANT	9	I/E Range
ACHSELECT	IQUANT	1	Ach Select
ACHRANGE	IQUANT	2	Ach Range
ACHOFFSETENABLE	TOGGLE	F	Ach Offset Enable
ACHOFFSET	QUANT	0	Ach Offset (V)
ACHFILTER	IQUANT	1	Ach Filter
CABLEID	IQUANT	14	Cable ID
DCCALDATE	LABEL	5-7-2017	DC Calibration Date
ACCALDATE	LABEL	12/3/2015	AC Calibration Date
FRAMEWORKVERSION	QUANT	7.01	Framework Version
INSTRUMENTVERSION	LABEL	4.00	Instrument Version
CURVE	TABLE	194
	Pt	T	Vf	Im	Vu	Pwr	Sig	Ach	Temp	IERange	Over
	#	s	V	A	V	W	V	V	deg C	#	bits
	0	0.013333	2.95816E-001	9.10501E-005	0.00000E+000	2.69341E-005	5.39641E-002	2.95855E-001	3.57180E+000	9	...........
	1	0.026667	3.14578E-001	9.11418E-005	0.00000E+000	2.86712E-005	5.39641E-002	3.14606E-001	3.57180E+000	9	...........
	2	0.04	3.31829E-001	9.13356E-005	0.00000E+000	3.03078E-005	5.39641E-002	3.31860E-001	3.57180E+000	9	...........
	3	0.053333	3.47879E-001	9.12575E-005	0.00000E+000	3.17465E-005	5.39641E-002	3.47908E-001	3.57180E+000	9	...........
	4	0.066667	3.62903E-001	9.11481E-005	0.00000E+000	3.30779E-005	5.39641E-002	3.62936E-001	3.57180E+000	9	...........
	5	0.08	3.77071E-001	9.09616E-005	0.00000E+000	3.42989E-005	5.39641E-002	3.77099E-001	3.57180E+000	9	...........
	6	0.093333	3.90490E-001	9.11554E-005	0.00000E+000	3.55952E-005	5.39641E-002	3.90524E-001	3.57180E+000	9	...........
	7	0.106667	4.03257E-001	9.11439E-005	0.00000E+000	3.67544E-005	5.39641E-002	4.03289E-001	3.57180E+000	9	...........
	8	0.12	4.15427E-001	9.13096E-005	0.00000E+000	3.79324E-005	5.39641E-002	4.15474E-001	3.57180E+000	9	...........
	9	0.133333	4.27084E-001	9.11179E-005	0.00000E+000	3.89150E-005	5.39641E-002	4.27122E-001	3.57180E+000	9	...........
	10	0.146667	4.38263E-001	9.12231E-005	0.00000E+000	3.99797E-005	5.39641E-002	4.38306E-001	3.57180E+000	9	...........
	11	0.16	4.48999E-001	9.12606E-005	0.00000E+000	4.09759E-005	5.39641E-002	4.49045E-001	3.57180E+000	9	...........
	12	0.173333	4.59343E-001	9.10043E-005	0.00000E+000	4.18022E-005	5.39641E-002	4.59385E-001	3.57180E+000	9	...........
	13	0.186667	4.69324E-001	9.13471E-005	0.00000E+000	4.28714E-005	5.39641E-002	4.69376E-001	3.57180E+000	9	...........
	14	0.2	4.78978E-001	9.11481E-005	0.00000E+000	4.36580E-005	5.39641E-002	4.79018E-001	3.57180E+000	9	...........
	15	0.213333	4.88315E-001	9.12575E-005	0.00000E+000	4.45624E-005	5.39641E-002	4.88366E-001	3.57180E+000	9	...........
	16	0.226667	4.97349E-001	9.10772E-005	0.00000E+000	4.52972E-005	5.39641E-002	4.97407E-001	3.57180E+000	9	...........
	17	0.24	5.06120E-001	9.12148E-005	0.00000E+000	4.61656E-005	5.39641E-002	5.06174E-001	3.57180E+000	9	...........
	18	0.253333	5.14625E-001	9.10512E-005	0.00000E+000	4.68572E-005	5.39641E-002	5.14680E-001	3.57180E+000	9	...........
	19	0.266667	5.22896E-001	9.12387E-005	0.00000E+000	4.77084E-005	5.39641E-002	5.22943E-001	3.57180E+000	9	...........
	20	0.28	5.30932E-001	9.12491E-005	0.00000E+000	4.84471E-005	5.39641E-002	5.30981E-001	3.57180E+000	9	...........
	21	0.293333	5.38737E-001	9.12439E-005	0.00000E+000	4.91565E-005	5.39641E-002	5.38795E-001	3.57180E+000	9	...........
	22	0.306667	5.46325E-001	9.12408E-005	0.00000E+000	4.98471E-005	5.39641E-002	5.46427E-001	3.57180E+000	9	...........
	23	0.32	5.53749E-001	9.11658E-005	0.00000E+000	5.04829E-005	5.39641E-002	5.53832E-001	3.57180E+000	9	...........
	24	0.333333	5.60980E-001	9.13054E-005	0.00000E+000	5.12205E-005	5.39641E-002	5.61070E-001	3.57180E+000	9	...........
	25	0.346667	5.68095E-001	9.10981E-005	0.00000E+000	5.17524E-005	5.39641E-002	5.68152E-001	3.57180E+000	9	...........
	26	0.36	5.74963E-001	9.09147E-005	0.00000E+000	5.22726E-005	5.39641E-002	5.75057E-001	3.57180E+000	9	...........
	27	0.373333	5.81683E-001	9.11658E-005	0.00000E+000	5.30296E-005	5.39641E-002	5.81765E-001	3.57180E+000	9	...........
	28	0.386667	5.88234E-001	9.13085E-005	0.00000E+000	5.37108E-005	5.39641E-002	5.88345E-001	3.57180E+000	9	...........
	29	0.4	5.94654E-001	9.11210E-005	0.00000E+000	5.41854E-005	5.39641E-002	5.94751E-001	3.57180E+000	9	...........
	30	0.413333	6.00942E-001	9.11950E-005	0.00000E+000	5.48029E-005	5.39641E-002	6.01050E-001	3.57180E+000	9	...........
	31	0.426667	6.07066E-001	9.13190E-005	0.00000E+000	5.54366E-005	5.39641E-002	6.07168E-001	3.57180E+000	9	...........
	32	0.44	6.13089E-001	9.13023E-005	0.00000E+000	5.59764E-005	5.39641E-002	6.13211E-001	3.57180E+000	9	...........
	33	0.453333	6.19038E-001	9.10137E-005	0.00000E+000	5.63409E-005	5.39641E-002	6.19128E-001	3.57180E+000	9	...........
	34	0.466667	6.24810E-001	9.10824E-005	0.00000E+000	5.69092E-005	5.39641E-002	6.24893E-001	3.57180E+000	9	...........
	35	0.48	6.30469E-001	9.13315E-005	0.00000E+000	5.75817E-005	5.39641E-002	6.30563E-001	3.57180E+000	9	...........
	36	0.493333	6.35975E-001	9.10772E-005	0.00000E+000	5.79229E-005	5.39641E-002	6.36067E-001	3.57180E+000	9	...........
	37	0.506667	6.41437E-001	9.10428E-005	0.00000E+000	5.83983E-005	5.39641E-002	6.41537E-001	3.57180E+000	9	...........
	38	0.52	6.46765E-001	9.10814E-005	0.00000E+000	5.89083E-005	5.39641E-002	6.46838E-001	3.57180E+000	9	...........
	39	0.533333	6.52005E-001	9.11866E-005	0.00000E+000	5.94541E-005	5.39641E-002	6.52102E-001	3.57180E+000	9	...........
	40	0.546667	6.57132E-001	9.09095E-005	0.00000E+000	5.97395E-005	5.39641E-002	6.57186E-001	3.57180E+000	9	...........
	41	0.56	6.62165E-001	9.12627E-005	0.00000E+000	6.04309E-005	5.39641E-002	6.62234E-001	3.57180E+000	9	...........
	42	0.573333	6.67148E-001	9.09814E-005	0.00000E+000	6.06980E-005	5.39641E-002	6.67215E-001	3.57180E+000	9	...........
	43	0.586667	6.71996E-001	9.10022E-005	0.00000E+000	6.11531E-005	5.39641E-002	6.72050E-001	3.57180E+000	9	...........
	44	0.6	6.76735E-001	9.11564E-005	0.00000E+000	6.16888E-005	5.39641E-002	6.76789E-001	3.57180E+000	9	...........
	45	0.613333	6.81403E-001	9.12033E-005	0.00000E+000	6.21462E-005	5.39641E-002	6.81474E-001	3.57180E+000	9	...........
	46	0.626667	6.85987E-001	9.12762E-005	0.00000E+000	6.26144E-005	5.39641E-002	6.86070E-001	3.57180E+000	9	...........
	47	0.64	6.90509E-001	9.11002E-005	0.00000E+000	6.29055E-005	5.39641E-002	6.90603E-001	3.57180E+000	9	...........
	48	0.653333	6.94962E-001	9.13044E-005	0.00000E+000	6.34531E-005	5.39641E-002	6.95047E-001	3.57180E+000	9	...........
	49	0.666667	6.99309E-001	9.13262E-005	0.00000E+000	6.38652E-005	5.39641E-002	6.99403E-001	3.57180E+000	9	...........
	50	0.68	7.03609E-001	9.12856E-005	0.00000E+000	6.42294E-005	5.39641E-002	7.03705E-001	3.57180E+000	9	...........
	51	0.693333	7.07837E-001	9.09855E-005	0.00000E+000	6.44029E-005	5.39641E-002	7.07956E-001	3.57180E+000	9	...........
	52	0.706667	7.12007E-001	9.10428E-005	0.00000E+000	6.48232E-005	5.39641E-002	7.12108E-001	3.57180E+000	9	...........
	53	0.72	7.16100E-001	9.11950E-005	0.00000E+000	6.53047E-005	5.39641E-002	7.16219E-001	3.57180E+000	9	...........
	54	0.733333	7.20169E-001	9.11773E-005	0.00000E+000	6.56630E-005	5.39641E-002	7.20225E-001	3.57180E+000	9	...........
	55	0.746667	7.24140E-001	9.13179E-005	0.00000E+000	6.61270E-005	5.39641E-002	7.24199E-001	3.57180E+000	9	...........
	56	0.76	7.28042E-001	9.11450E-005	0.00000E+000	6.63573E-005	5.39641E-002	7.28121E-001	3.57180E+000	9	...........
	57	0.773333	7.31887E-001	9.10418E-005	0.00000E+000	6.66323E-005	5.39641E-002	7.31975E-001	3.57180E+000	9	...........
	58	0.786667	7.35662E-001	9.13815E-005	0.00000E+000	6.72259E-005	5.39641E-002	7.35728E-001	3.57180E+000	9	...........
	59	0.8	7.39407E-001	9.11845E-005	0.00000E+000	6.74225E-005	5.39641E-002	7.39436E-001	3.57180E+000	9	...........
	60	0.813333	7.43119E-001	9.13387E-005	0.00000E+000	6.78755E-005	5.39641E-002	7.43153E-001	3.57180E+000	9	...........
	61	0.826667	7.46755E-001	9.13596E-005	0.00000E+000	6.82232E-005	5.39641E-002	7.46791E-001	3.57180E+000	9	...........
	62	0.84	7.50341E-001	9.12335E-005	0.00000E+000	6.84563E-005	5.39641E-002	7.50392E-001	3.57180E+000	9	...........
	63	0.853333	7.53886E-001	9.14200E-005	0.00000E+000	6.89203E-005	5.39641E-002	7.53944E-001	3.57180E+000	9	...........
	64	0.866667	7.57378E-001	9.11856E-005	0.00000E+000	6.90619E-005	5.39641E-002	7.57460E-001	3.57180E+000	9	...........
	65	0.88	7.60813E-001	9.13492E-005	0.00000E+000	6.94996E-005	5.39641E-002	7.60870E-001	3.57180E+000	9	...........
	66	0.893333	7.64176E-001	9.14471E-005	0.00000E+000	6.98817E-005	5.39641E-002	7.64295E-001	3.57180E+000	9	...........
	67	0.906667	7.67560E-001	9.10449E-005	0.00000E+000	6.98825E-005	5.39641E-002	7.67661E-001	3.57180E+000	9	...........
	68	0.92	7.70850E-001	9.14346E-005	0.00000E+000	7.04824E-005	5.39641E-002	7.70959E-001	3.57180E+000	9	...........
	69	0.933333	7.74086E-001	9.14773E-005	0.00000E+000	7.08113E-005	5.39641E-002	7.74214E-001	3.57180E+000	9	...........
	70	0.946667	7.77300E-001	9.12523E-005	0.00000E+000	7.09304E-005	5.39641E-002	7.77395E-001	3.57180E+000	9	...........
	71	0.96	7.80481E-001	9.13283E-005	0.00000E+000	7.12800E-005	5.39641E-002	7.80594E-001	3.57180E+000	9	...........
	72	0.97333	7.83629E-001	9.13606E-005	0.00000E+000	7.15928E-005	5.39641E-002	7.83742E-001	3.57180E+000	9	...........
	73	0.98667	7.86700E-001	9.10877E-005	0.00000E+000	7.16586E-005	5.39641E-002	7.86816E-001	3.57180E+000	9	...........
	74	1	7.89758E-001	9.12710E-005	0.00000E+000	7.20821E-005	5.39641E-002	7.89869E-001	3.57180E+000	9	...........
	75	1.01333	7.92769E-001	9.10772E-005	0.00000E+000	7.22032E-005	5.39641E-002	7.92900E-001	3.57180E+000	9	...........
	76	1.02667	7.95784E-001	9.14409E-005	0.00000E+000	7.27672E-005	5.39641E-002	7.95900E-001	3.57180E+000	9	...........
	77	1.04	7.98733E-001	9.10856E-005	0.00000E+000	7.27530E-005	5.39641E-002	7.98825E-001	3.57180E+000	9	...........
	78	1.05333	8.01640E-001	9.12908E-005	0.00000E+000	7.31824E-005	5.39641E-002	8.01745E-001	3.57180E+000	9	...........
	79	1.06667	8.04500E-001	9.11220E-005	0.00000E+000	7.33077E-005	5.39641E-002	8.04635E-001	3.57180E+000	9	...........
	80	1.08	8.07350E-001	9.11616E-005	0.00000E+000	7.35993E-005	5.39641E-002	8.07481E-001	3.57180E+000	9	...........
	81	1.09333	8.10128E-001	9.09355E-005	0.00000E+000	7.36695E-005	5.39641E-002	8.10288E-001	3.57180E+000	9	...........
	82	1.10667	8.12923E-001	9.10512E-005	0.00000E+000	7.40176E-005	5.39641E-002	8.13085E-001	3.57180E+000	9	...........
	83	1.12	8.15674E-001	9.11304E-005	0.00000E+000	7.43327E-005	5.39641E-002	8.15826E-001	3.57180E+000	9	...........
	84	1.13333	8.18426E-001	9.12648E-005	0.00000E+000	7.46935E-005	5.39641E-002	8.18567E-001	3.57180E+000	9	...........
	85	1.14667	8.21127E-001	9.12908E-005	0.00000E+000	7.49614E-005	5.39641E-002	8.21265E-001	3.57180E+000	9	...........
	86	1.16	8.23775E-001	9.12148E-005	0.00000E+000	7.51404E-005	5.39641E-002	8.23905E-001	3.57180E+000	9	...........
	87	1.17333	8.26378E-001	9.11116E-005	0.00000E+000	7.52926E-005	5.39641E-002	8.26518E-001	3.57180E+000	9	...........
	88	1.18667	8.28943E-001	9.11720E-005	0.00000E+000	7.55764E-005	5.39641E-002	8.29085E-001	3.57180E+000	9	...........
	89	1.2	8.31515E-001	9.11085E-005	0.00000E+000	7.57581E-005	5.39641E-002	8.31666E-001	3.57180E+000	9	...........
	90	1.21333	8.34055E-001	9.12742E-005	0.00000E+000	7.61276E-005	5.39641E-002	8.34201E-001	3.57180E+000	9	...........
	91	1.22667	8.36523E-001	9.09512E-005	0.00000E+000	7.60828E-005	5.39641E-002	8.36686E-001	3.57180E+000	9	...........
	92	1.24	8.39032E-001	9.13742E-005	0.00000E+000	7.66658E-005	5.39641E-002	8.39167E-001	3.57180E+000	9	...........
	93	1.25333	8.41495E-001	9.13700E-005	0.00000E+000	7.68874E-005	5.39641E-002	8.41647E-001	3.57180E+000	9	...........
	94	1.26667	8.43940E-001	9.12314E-005	0.00000E+000	7.69938E-005	5.39641E-002	8.44117E-001	3.57180E+000	9	...........
	95	1.28	8.46379E-001	9.13065E-005	0.00000E+000	7.72799E-005	5.39641E-002	8.46523E-001	3.57180E+000	9	...........
	96	1.29333	8.48730E-001	9.12929E-005	0.00000E+000	7.74830E-005	5.39641E-002	8.48877E-001	3.57180E+000	9	...........
	97	1.30667	8.51082E-001	9.11387E-005	0.00000E+000	7.75665E-005	5.39641E-002	8.51214E-001	3.57180E+000	9	...........
	98	1.32	8.53449E-001	9.12179E-005	0.00000E+000	7.78498E-005	5.39641E-002	8.53571E-001	3.57180E+000	9	...........
	99	1.33333	8.55760E-001	9.13294E-005	0.00000E+000	7.81560E-005	5.39641E-002	8.55894E-001	3.57180E+000	9	...........
	100	1.34667	8.58025E-001	9.12325E-005	0.00000E+000	7.82797E-005	5.39641E-002	8.58201E-001	3.57172E+000	9	...........
	101	1.36	8.60296E-001	9.09407E-005	0.00000E+000	7.82359E-005	5.39641E-002	8.60446E-001	3.57170E+000	9	...........
	102	1.37333	8.62550E-001	9.12460E-005	0.00000E+000	7.87043E-005	5.39641E-002	8.62699E-001	3.57170E+000	9	...........
	103	1.38667	8.64737E-001	9.12179E-005	0.00000E+000	7.88795E-005	5.39641E-002	8.64914E-001	3.57170E+000	9	...........
	104	1.4	8.66969E-001	9.11731E-005	0.00000E+000	7.90443E-005	5.39641E-002	8.67129E-001	3.57170E+000	9	...........
	105	1.41333	8.69164E-001	9.11648E-005	0.00000E+000	7.92371E-005	5.39641E-002	8.69349E-001	3.57170E+000	9	...........
	106	1.42667	8.71352E-001	9.13325E-005	0.00000E+000	7.95828E-005	5.39641E-002	8.71501E-001	3.57170E+000	9	...........
	107	1.44	8.73483E-001	9.12762E-005	0.00000E+000	7.97282E-005	5.39641E-002	8.73639E-001	3.57170E+000	9	...........
	108	1.45333	8.75575E-001	9.09074E-005	0.00000E+000	7.95963E-005	5.39641E-002	8.75759E-001	3.57170E+000	9	...........
	109	1.46667	8.77676E-001	9.11418E-005	0.00000E+000	7.99930E-005	5.39641E-002	8.77818E-001	3.57170E+000	9	...........
	110	1.48	8.79733E-001	9.12075E-005	0.00000E+000	8.02382E-005	5.39641E-002	8.79873E-001	3.57170E+000	9	...........
	111	1.49333	8.81786E-001	9.10460E-005	0.00000E+000	8.02831E-005	5.39641E-002	8.81934E-001	3.57170E+000	9	...........
	112	1.50667	8.83844E-001	9.12408E-005	0.00000E+000	8.06427E-005	5.39641E-002	8.83981E-001	3.57170E+000	9	...........
	113	1.52	8.85828E-001	9.10356E-005	0.00000E+000	8.06418E-005	5.39641E-002	8.85980E-001	3.57170E+000	9	...........
	114	1.53333	8.87826E-001	9.11835E-005	0.00000E+000	8.09551E-005	5.39641E-002	8.87967E-001	3.57170E+000	9	...........
	115	1.54667	8.89804E-001	9.11825E-005	0.00000E+000	8.11345E-005	5.39641E-002	8.89941E-001	3.57170E+000	9	...........
	116	1.56	8.91753E-001	9.13846E-005	0.00000E+000	8.14925E-005	5.39641E-002	8.91923E-001	3.57170E+000	9	...........
	117	1.57333	8.93716E-001	9.11773E-005	0.00000E+000	8.14865E-005	5.39641E-002	8.93868E-001	3.57170E+000	9	...........
	118	1.58667	8.95621E-001	9.12471E-005	0.00000E+000	8.17228E-005	5.39641E-002	8.95820E-001	3.57170E+000	9	...........
	119	1.6	8.97573E-001	9.15502E-005	0.00000E+000	8.21730E-005	5.39641E-002	8.97733E-001	3.57170E+000	9	...........
	120	1.61333	8.99423E-001	9.13252E-005	0.00000E+000	8.21400E-005	5.39641E-002	8.99589E-001	3.57170E+000	9	...........
	121	1.62667	9.01302E-001	9.10616E-005	0.00000E+000	8.20740E-005	5.39641E-002	9.01462E-001	3.57170E+000	9	...........
	122	1.64	9.03138E-001	9.11939E-005	0.00000E+000	8.23607E-005	5.39641E-002	9.03305E-001	3.57170E+000	9	...........
	123	1.65333	9.04983E-001	9.11325E-005	0.00000E+000	8.24734E-005	5.39641E-002	9.05159E-001	3.57170E+000	9	...........
	124	1.66667	9.06785E-001	9.12669E-005	0.00000E+000	8.27594E-005	5.39641E-002	9.06965E-001	3.57170E+000	9	...........
	125	1.68	9.08624E-001	9.10147E-005	0.00000E+000	8.26981E-005	5.39641E-002	9.08785E-001	3.57170E+000	9	...........
	126	1.69333	9.10408E-001	9.09772E-005	0.00000E+000	8.28264E-005	5.39641E-002	9.10540E-001	3.57170E+000	9	...........
	127	1.70667	9.12152E-001	9.14752E-005	0.00000E+000	8.34393E-005	5.39641E-002	9.12320E-001	3.57170E+000	9	...........
	128	1.72	9.13909E-001	9.12804E-005	0.00000E+000	8.34220E-005	5.39641E-002	9.14062E-001	3.57170E+000	9	...........
	129	1.73333	9.15647E-001	9.11543E-005	0.00000E+000	8.34652E-005	5.39641E-002	9.15830E-001	3.57170E+000	9	...........
	130	1.74667	9.17368E-001	9.10845E-005	0.00000E+000	8.35580E-005	5.39641E-002	9.17562E-001	3.57170E+000	9	...........
	131	1.76	9.19075E-001	9.12419E-005	0.00000E+000	8.38581E-005	5.39641E-002	9.19237E-001	3.57170E+000	9	...........
	132	1.77333	9.20801E-001	9.10647E-005	0.00000E+000	8.38525E-005	5.39641E-002	9.20953E-001	3.57170E+000	9	...........
	133	1.78667	9.22505E-001	9.11866E-005	0.00000E+000	8.41201E-005	5.39641E-002	9.22622E-001	3.57170E+000	9	...........
	134	1.8	9.24154E-001	9.10762E-005	0.00000E+000	8.41684E-005	5.39641E-002	9.24293E-001	3.57170E+000	9	...........
	135	1.81333	9.25801E-001	9.11814E-005	0.00000E+000	8.44159E-005	5.39641E-002	9.25940E-001	3.57170E+000	9	...........
	136	1.82667	9.27448E-001	9.11168E-005	0.00000E+000	8.45061E-005	5.39641E-002	9.27584E-001	3.57170E+000	9	...........
	137	1.84	9.29057E-001	9.13638E-005	0.00000E+000	8.48822E-005	5.39641E-002	9.29172E-001	3.57170E+000	9	...........
	138	1.85333	9.30638E-001	9.11345E-005	0.00000E+000	8.48132E-005	5.39641E-002	9.30778E-001	3.57170E+000	9	...........
	139	1.86667	9.32211E-001	9.11825E-005	0.00000E+000	8.50013E-005	5.39641E-002	9.32347E-001	3.57170E+000	9	...........
	140	1.88	9.33779E-001	9.11762E-005	0.00000E+000	8.51384E-005	5.39641E-002	9.33933E-001	3.57170E+000	9	...........
	141	1.89333	9.35336E-001	9.12283E-005	0.00000E+000	8.53291E-005	5.39641E-002	9.35472E-001	3.57170E+000	9	...........
	142	1.90667	9.36880E-001	9.10491E-005	0.00000E+000	8.53021E-005	5.39641E-002	9.36995E-001	3.57170E+000	9	...........
	143	1.92	9.38375E-001	9.10449E-005	0.00000E+000	8.54342E-005	5.39641E-002	9.38521E-001	3.57170E+000	9	...........
	144	1.93333	9.39901E-001	9.09855E-005	0.00000E+000	8.55174E-005	5.39641E-002	9.40043E-001	3.57170E+000	9	...........
	145	1.94667	9.41399E-001	9.14221E-005	0.00000E+000	8.60647E-005	5.39641E-002	9.41554E-001	3.57170E+000	9	...........
	146	1.96	9.42896E-001	9.13221E-005	0.00000E+000	8.61072E-005	5.39641E-002	9.43040E-001	3.57170E+000	9	...........
	147	1.97333	9.44362E-001	9.12189E-005	0.00000E+000	8.61437E-005	5.39641E-002	9.44496E-001	3.57170E+000	9	...........
	148	1.98667	9.45812E-001	9.10824E-005	0.00000E+000	8.61469E-005	5.39641E-002	9.45969E-001	3.57170E+000	9	...........
	149	2	9.47297E-001	9.11773E-005	0.00000E+000	8.63719E-005	5.39641E-002	9.47421E-001	3.57170E+000	9	...........
	150	2.01333	9.48732E-001	9.12002E-005	0.00000E+000	8.65245E-005	5.39641E-002	9.48826E-001	3.57170E+000	9	...........
	151	2.02667	9.50161E-001	9.10981E-005	0.00000E+000	8.65579E-005	5.39641E-002	9.50233E-001	3.57170E+000	9	...........
	152	2.04	9.51559E-001	9.12596E-005	0.00000E+000	8.68389E-005	5.39641E-002	9.51643E-001	3.57170E+000	9	...........
	153	2.05333	9.52957E-001	9.11304E-005	0.00000E+000	8.68434E-005	5.39641E-002	9.53048E-001	3.57170E+000	9	...........
	154	2.06667	9.54328E-001	9.11325E-005	0.00000E+000	8.69702E-005	5.39641E-002	9.54420E-001	3.57170E+000	9	...........
	155	2.08	9.55692E-001	9.11127E-005	0.00000E+000	8.70756E-005	5.39641E-002	9.55800E-001	3.57170E+000	9	...........
	156	2.09333	9.57065E-001	9.10564E-005	0.00000E+000	8.71469E-005	5.39641E-002	9.57165E-001	3.57170E+000	9	...........
	157	2.10667	9.58391E-001	9.09699E-005	0.00000E+000	8.71847E-005	5.39641E-002	9.58515E-001	3.57170E+000	9	...........
	158	2.12	9.59730E-001	9.10064E-005	0.00000E+000	8.73415E-005	5.39641E-002	9.59851E-001	3.57170E+000	9	...........
	159	2.13333	9.61032E-001	9.12262E-005	0.00000E+000	8.76713E-005	5.39641E-002	9.61154E-001	3.57170E+000	9	...........
	160	2.14667	9.62345E-001	9.10679E-005	0.00000E+000	8.76387E-005	5.39641E-002	9.62484E-001	3.57170E+000	9	...........
	161	2.16	9.63619E-001	9.11199E-005	0.00000E+000	8.78049E-005	5.39641E-002	9.63793E-001	3.57170E+000	9	...........
	162	2.17333	9.64904E-001	9.11564E-005	0.00000E+000	8.79572E-005	5.39641E-002	9.65088E-001	3.57170E+000	9	...........
	163	2.18667	9.66207E-001	9.14096E-005	0.00000E+000	8.83206E-005	5.39641E-002	9.66366E-001	3.57170E+000	9	...........
	164	2.2	9.67464E-001	9.11106E-005	0.00000E+000	8.81462E-005	5.39641E-002	9.67633E-001	3.57170E+000	9	...........
	165	2.21333	9.68674E-001	9.11345E-005	0.00000E+000	8.82797E-005	5.39641E-002	9.68883E-001	3.57170E+000	9	...........
	166	2.22667	9.69939E-001	9.14554E-005	0.00000E+000	8.87062E-005	5.39641E-002	9.70123E-001	3.57170E+000	9	...........
	167	2.24	9.71160E-001	9.10491E-005	0.00000E+000	8.84233E-005	5.39641E-002	9.71391E-001	3.57170E+000	9	...........
	168	2.25333	9.72417E-001	9.09251E-005	0.00000E+000	8.84171E-005	5.39641E-002	9.72607E-001	3.57170E+000	9	...........
	169	2.26667	9.73680E-001	9.12523E-005	0.00000E+000	8.88505E-005	5.39641E-002	9.73827E-001	3.57170E+000	9	...........
	170	2.28	9.74874E-001	9.10877E-005	0.00000E+000	8.87990E-005	5.39641E-002	9.75028E-001	3.57170E+000	9	...........
	171	2.29333	9.76070E-001	9.14336E-005	0.00000E+000	8.92455E-005	5.39641E-002	9.76228E-001	3.57170E+000	9	...........
	172	2.30667	9.77223E-001	9.10679E-005	0.00000E+000	8.89936E-005	5.39641E-002	9.77418E-001	3.57170E+000	9	...........
	173	2.32	9.78419E-001	9.11585E-005	0.00000E+000	8.91912E-005	5.39641E-002	9.78600E-001	3.57170E+000	9	...........
	174	2.33333	9.79607E-001	9.10460E-005	0.00000E+000	8.91893E-005	5.39641E-002	9.79760E-001	3.57170E+000	9	...........
	175	2.34667	9.80778E-001	9.12200E-005	0.00000E+000	8.94665E-005	5.39641E-002	9.80926E-001	3.57132E+000	9	...........
	176	2.36	9.81938E-001	9.11648E-005	0.00000E+000	8.95181E-005	5.39641E-002	9.82087E-001	3.57120E+000	9	...........
	177	2.37333	9.83064E-001	9.10929E-005	0.00000E+000	8.95501E-005	5.39641E-002	9.83217E-001	3.57120E+000	9	...........
	178	2.38667	9.84176E-001	9.11189E-005	0.00000E+000	8.96771E-005	5.39641E-002	9.84359E-001	3.57120E+000	9	...........
	179	2.4	9.85323E-001	9.13773E-005	0.00000E+000	9.00362E-005	5.39641E-002	9.85491E-001	3.57120E+000	9	...........
	180	2.41333	9.86421E-001	9.12189E-005	0.00000E+000	8.99803E-005	5.39641E-002	9.86611E-001	3.57120E+000	9	...........
	181	2.42667	9.87510E-001	9.13992E-005	0.00000E+000	9.02576E-005	5.39641E-002	9.87701E-001	3.57120E+000	9	...........
	182	2.44	9.88648E-001	9.12346E-005	0.00000E+000	9.01989E-005	5.39641E-002	9.88820E-001	3.57120E+000	9	...........
	183	2.45333	9.89746E-001	9.10439E-005	0.00000E+000	9.01103E-005	5.39641E-002	9.89904E-001	3.57120E+000	9	...........
	184	2.46667	9.90821E-001	9.11981E-005	0.00000E+000	9.03610E-005	5.39641E-002	9.90962E-001	3.57120E+000	9	...........
	185	2.48	9.91879E-001	9.12127E-005	0.00000E+000	9.04720E-005	5.39641E-002	9.92041E-001	3.57120E+000	9	...........
	186	2.49333	9.92937E-001	9.10397E-005	0.00000E+000	9.03967E-005	5.39641E-002	9.93104E-001	3.57120E+000	9	...........
	187	2.50667	9.93954E-001	9.10251E-005	0.00000E+000	9.04748E-005	5.39641E-002	9.94141E-001	3.57120E+000	9	...........
	188	2.52	9.95027E-001	9.12085E-005	0.00000E+000	9.07549E-005	5.39641E-002	9.95176E-001	3.57120E+000	9	...........
	189	2.53333	9.96060E-001	9.11648E-005	0.00000E+000	9.08055E-005	5.39641E-002	9.96190E-001	3.57120E+000	9	...........
	190	2.54667	9.97074E-001	9.12064E-005	0.00000E+000	9.09395E-005	5.39641E-002	9.97240E-001	3.57120E+000	9	...........
	191	2.56	9.98105E-001	9.11304E-005	0.00000E+000	9.09577E-005	5.39641E-002	9.98251E-001	3.57120E+000	9	...........
	192	2.57333	9.99098E-001	9.11908E-005	0.00000E+000	9.11086E-005	5.39641E-002	9.99252E-001	3.57120E+000	9	...........
	193	2.58167	9.99894E-001	9.11210E-005	0.00000E+000	9.11113E-005	5.39641E-002	1.00006E+000	3.57120E+000	9	...........
STARTTIMEOFFSET	QUANT	285.8717	Start Time Offset (s)
