EXPLAIN
TAG	PWR800_CHARGE
TITLE	LABEL	PWR Cyclic Charge Discharge (Cell) - Charge Step	Test &Identifier
DATE	LABEL	10-7-2017	Date
TIME	LABEL	15:37:54	Time
NOTES	NOTES	3	&Notes...
	supercap test cell
	0.9mg
	6M KOH
PSTAT	PSTAT	IFC5000-01520	Potentiostat
CAPACITY	QUANT	1.00000E-003	Capacity (A-hr)
CELLTYPE	SELECTOR	1	&Cell Type
WORKINGCONNECTION	SELECTOR	0	&Working Lead
MAXCHARGETIME	VARIABLEANDUNITS	1.00000E+002	s	1.00000E+002	second(s)	Max &Charge Time
CHARGECURRENT	QUANT	9.00000E-005	&Charge Current (A) 
VOLTAGEFINISH	TWOPARAM	F	1.00000E-003	3.60000E+003	&Voltage Finish	 I (A) < 	Max Time(s)
SAMPLETIME	QUANT	1.00000E-002	Sa&mple Period (s)
CHARGESTOPAT1	MULTIPARAM	4	1.00000E+000	Charge Stop At &1	Voltage > Limit	V
CHARGESTOPAT2	MULTIPARAM	0	0.00000E+000	Charge Stop At &2	None	N/A
AESBHCSELECTOR	TOGGLE	F	Save Both Half Cells
IRCOMP	TOGGLE	F	IR &Measure
EOC	QUANT	0	Open Circuit (V)
SEQUENCER	TOGGLE	TRUE	Run as Sequence
PSTATMODEL	IQUANT	53	Pstat Model
PSTATSECTION	LABEL	IFC5000-01520	Pstat Section
PSTATSERIALNO	LABEL	01520	Pstat Serial Number
CTRLMODE	IQUANT	0	Control Mode
ELECTROMETER	IQUANT	1	RE=0 or CS=1
IESTAB	IQUANT	0	I/E Stability
CASPEED	IQUANT	4	Control Amp Speed
CONVENTION	IQUANT	1	Current Convention
ICHRANGE	IQUANT	2	Ich Range
ICHRANGEMODE	TOGGLE	T	Ich Auto Range
ICHOFFSETENABLE	TOGGLE	F	Ich Offset Enable
ICHOFFSET	QUANT	0	Ich Offset (V)
ICHFILTER	IQUANT	1	Ich Filter
VCHRANGE	IQUANT	2	Vch Range
VCHRANGEMODE	TOGGLE	T	Vch Auto Range
VCHOFFSETENABLE	TOGGLE	F	Vch Offset Enable
VCHOFFSET	QUANT	0	Vch Offset (V)
VCHFILTER	IQUANT	1	Vch Filter
IERANGELOWERLIMIT	IQUANT	9	I/E Range Lower Limit
IERANGEMODE	TOGGLE	F	I/E AutoRange
IERANGE	IQUANT	9	I/E Range
ACHSELECT	IQUANT	1	Ach Select
ACHRANGE	IQUANT	2	Ach Range
ACHOFFSETENABLE	TOGGLE	F	Ach Offset Enable
ACHOFFSET	QUANT	0	Ach Offset (V)
ACHFILTER	IQUANT	1	Ach Filter
CABLEID	IQUANT	14	Cable ID
DCCALDATE	LABEL	5-7-2017	DC Calibration Date
ACCALDATE	LABEL	12/3/2015	AC Calibration Date
FRAMEWORKVERSION	QUANT	7.01	Framework Version
INSTRUMENTVERSION	LABEL	4.00	Instrument Version
CURVE	TABLE	171
	Pt	T	Vf	Im	Vu	Pwr	Sig	Ach	Temp	IERange	Over
	#	s	V	A	V	W	V	V	deg C	#	bits
	0	0.013333	2.77031E-001	9.07918E-005	0.00000E+000	2.51521E-005	5.39641E-002	2.77076E-001	3.57300E+000	9	...........
	1	0.026667	2.96641E-001	9.10137E-005	0.00000E+000	2.69984E-005	5.39641E-002	2.96678E-001	3.57300E+000	9	...........
	2	0.04	3.14870E-001	9.11241E-005	0.00000E+000	2.86923E-005	5.39641E-002	3.14916E-001	3.57300E+000	9	...........
	3	0.053333	3.31965E-001	9.08939E-005	0.00000E+000	3.01735E-005	5.39641E-002	3.32009E-001	3.57300E+000	9	...........
	4	0.066667	3.48071E-001	9.08949E-005	0.00000E+000	3.16379E-005	5.39641E-002	3.48110E-001	3.57300E+000	9	...........
	5	0.08	3.63301E-001	9.11106E-005	0.00000E+000	3.31005E-005	5.39641E-002	3.63350E-001	3.57289E+000	9	...........
	6	0.093333	3.77741E-001	9.09303E-005	0.00000E+000	3.43481E-005	5.39641E-002	3.77783E-001	3.57270E+000	9	...........
	7	0.106667	3.91469E-001	9.09866E-005	0.00000E+000	3.56184E-005	5.39641E-002	3.91514E-001	3.57270E+000	9	...........
	8	0.12	4.04571E-001	9.07105E-005	0.00000E+000	3.66989E-005	5.39641E-002	4.04622E-001	3.57270E+000	9	...........
	9	0.133333	4.17092E-001	9.11002E-005	0.00000E+000	3.79972E-005	5.39641E-002	4.17151E-001	3.57270E+000	9	...........
	10	0.146667	4.29085E-001	9.11814E-005	0.00000E+000	3.91245E-005	5.39641E-002	4.29139E-001	3.57270E+000	9	...........
	11	0.16	4.40591E-001	9.09658E-005	0.00000E+000	4.00786E-005	5.39641E-002	4.40654E-001	3.57270E+000	9	...........
	12	0.173333	4.51653E-001	9.11585E-005	0.00000E+000	4.11720E-005	5.39641E-002	4.51713E-001	3.57270E+000	9	...........
	13	0.186667	4.62319E-001	9.10241E-005	0.00000E+000	4.20822E-005	5.39641E-002	4.62377E-001	3.57270E+000	9	...........
	14	0.2	4.72583E-001	9.08709E-005	0.00000E+000	4.29440E-005	5.39641E-002	4.72641E-001	3.57270E+000	9	...........
	15	0.213333	4.82513E-001	9.08793E-005	0.00000E+000	4.38504E-005	5.39641E-002	4.82571E-001	3.57270E+000	9	...........
	16	0.226667	4.92095E-001	9.09439E-005	0.00000E+000	4.47530E-005	5.39641E-002	4.92157E-001	3.57270E+000	9	...........
	17	0.24	5.01365E-001	9.12491E-005	0.00000E+000	4.57492E-005	5.39641E-002	5.01426E-001	3.57270E+000	9	...........
	18	0.253333	5.10360E-001	9.09678E-005	0.00000E+000	4.64264E-005	5.39641E-002	5.10425E-001	3.57270E+000	9	...........
	19	0.266667	5.19085E-001	9.12033E-005	0.00000E+000	4.73422E-005	5.39641E-002	5.19150E-001	3.57270E+000	9	...........
	20	0.28	5.27578E-001	9.12106E-005	0.00000E+000	4.81207E-005	5.39641E-002	5.27638E-001	3.57270E+000	9	...........
	21	0.293333	5.35731E-001	9.10501E-005	0.00000E+000	4.87784E-005	5.39641E-002	5.35803E-001	3.57270E+000	9	...........
	22	0.306667	5.43727E-001	9.09762E-005	0.00000E+000	4.94662E-005	5.39641E-002	5.43796E-001	3.57270E+000	9	...........
	23	0.32	5.51499E-001	9.10189E-005	0.00000E+000	5.01968E-005	5.39641E-002	5.51571E-001	3.57270E+000	9	...........
	24	0.333333	5.59066E-001	9.11231E-005	0.00000E+000	5.09438E-005	5.39641E-002	5.59159E-001	3.57270E+000	9	...........
	25	0.346667	5.66508E-001	9.09251E-005	0.00000E+000	5.15098E-005	5.39641E-002	5.66581E-001	3.57270E+000	9	...........
	26	0.36	5.73688E-001	9.09741E-005	0.00000E+000	5.21908E-005	5.39641E-002	5.73756E-001	3.57270E+000	9	...........
	27	0.373333	5.80676E-001	9.08209E-005	0.00000E+000	5.27375E-005	5.39641E-002	5.80780E-001	3.57270E+000	9	...........
	28	0.386667	5.87536E-001	9.09001E-005	0.00000E+000	5.34071E-005	5.39641E-002	5.87640E-001	3.57270E+000	9	...........
	29	0.4	5.94242E-001	9.10460E-005	0.00000E+000	5.41034E-005	5.39641E-002	5.94353E-001	3.57270E+000	9	...........
	30	0.413333	6.00792E-001	9.10658E-005	0.00000E+000	5.47116E-005	5.39641E-002	6.00916E-001	3.57270E+000	9	...........
	31	0.426667	6.07171E-001	9.11679E-005	0.00000E+000	5.53545E-005	5.39641E-002	6.07292E-001	3.57270E+000	9	...........
	32	0.44	6.13449E-001	9.09428E-005	0.00000E+000	5.57888E-005	5.39641E-002	6.13587E-001	3.57270E+000	9	...........
	33	0.453333	6.19614E-001	9.06740E-005	0.00000E+000	5.61829E-005	5.39641E-002	6.19708E-001	3.57270E+000	9	...........
	34	0.466667	6.25594E-001	9.12596E-005	0.00000E+000	5.70914E-005	5.39641E-002	6.25708E-001	3.57270E+000	9	...........
	35	0.48	6.31487E-001	9.10001E-005	0.00000E+000	5.74654E-005	5.39641E-002	6.31599E-001	3.57270E+000	9	...........
	36	0.493333	6.37242E-001	9.07761E-005	0.00000E+000	5.78464E-005	5.39641E-002	6.37362E-001	3.57270E+000	9	...........
	37	0.506667	6.42944E-001	9.11668E-005	0.00000E+000	5.86152E-005	5.39641E-002	6.43058E-001	3.57270E+000	9	...........
	38	0.52	6.48462E-001	9.12325E-005	0.00000E+000	5.91608E-005	5.39641E-002	6.48578E-001	3.57270E+000	9	...........
	39	0.533333	6.53898E-001	9.10220E-005	0.00000E+000	5.95191E-005	5.39641E-002	6.54047E-001	3.57270E+000	9	...........
	40	0.546667	6.59224E-001	9.09866E-005	0.00000E+000	5.99805E-005	5.39641E-002	6.59333E-001	3.57270E+000	9	...........
	41	0.56	6.64455E-001	9.10418E-005	0.00000E+000	6.04931E-005	5.39641E-002	6.64623E-001	3.57270E+000	9	...........
	42	0.573333	6.69646E-001	9.11648E-005	0.00000E+000	6.10482E-005	5.39641E-002	6.69770E-001	3.57270E+000	9	...........
	43	0.586667	6.74686E-001	9.08626E-005	0.00000E+000	6.13037E-005	5.39641E-002	6.74829E-001	3.57270E+000	9	...........
	44	0.6	6.79686E-001	9.08022E-005	0.00000E+000	6.17170E-005	5.39641E-002	6.79822E-001	3.57270E+000	9	...........
	45	0.613333	6.84563E-001	9.10543E-005	0.00000E+000	6.23324E-005	5.39641E-002	6.84697E-001	3.57270E+000	9	...........
	46	0.626667	6.89385E-001	9.09543E-005	0.00000E+000	6.27025E-005	5.39641E-002	6.89539E-001	3.57270E+000	9	...........
	47	0.64	6.94134E-001	9.10804E-005	0.00000E+000	6.32220E-005	5.39641E-002	6.94280E-001	3.57270E+000	9	...........
	48	0.653333	6.98793E-001	9.10481E-005	0.00000E+000	6.36238E-005	5.39641E-002	6.98945E-001	3.57270E+000	9	...........
	49	0.666667	7.03361E-001	9.10345E-005	0.00000E+000	6.40302E-005	5.39641E-002	7.03523E-001	3.57270E+000	9	...........
	50	0.68	7.07873E-001	9.10751E-005	0.00000E+000	6.44696E-005	5.39641E-002	7.08034E-001	3.57270E+000	9	...........
	51	0.693333	7.12297E-001	9.10845E-005	0.00000E+000	6.48793E-005	5.39641E-002	7.12484E-001	3.57270E+000	9	...........
	52	0.706667	7.16716E-001	9.12877E-005	0.00000E+000	6.54274E-005	5.39641E-002	7.16891E-001	3.57270E+000	9	...........
	53	0.72	7.21079E-001	9.11439E-005	0.00000E+000	6.57220E-005	5.39641E-002	7.21208E-001	3.57270E+000	9	...........
	54	0.733333	7.25323E-001	9.12283E-005	0.00000E+000	6.61700E-005	5.39641E-002	7.25463E-001	3.57270E+000	9	...........
	55	0.746667	7.29507E-001	9.11085E-005	0.00000E+000	6.64643E-005	5.39641E-002	7.29644E-001	3.57270E+000	9	...........
	56	0.76	7.33620E-001	9.10856E-005	0.00000E+000	6.68222E-005	5.39641E-002	7.33774E-001	3.57270E+000	9	...........
	57	0.773333	7.37677E-001	9.11866E-005	0.00000E+000	6.72662E-005	5.39641E-002	7.37833E-001	3.57270E+000	9	...........
	58	0.786667	7.41754E-001	9.12096E-005	0.00000E+000	6.76551E-005	5.39641E-002	7.41909E-001	3.57270E+000	9	...........
	59	0.8	7.45745E-001	9.09814E-005	0.00000E+000	6.78489E-005	5.39641E-002	7.45874E-001	3.57270E+000	9	...........
	60	0.813333	7.49647E-001	9.13429E-005	0.00000E+000	6.84750E-005	5.39641E-002	7.49784E-001	3.57270E+000	9	...........
	61	0.826667	7.53499E-001	9.10356E-005	0.00000E+000	6.85952E-005	5.39641E-002	7.53656E-001	3.57270E+000	9	...........
	62	0.84	7.57333E-001	9.12346E-005	0.00000E+000	6.90949E-005	5.39641E-002	7.57489E-001	3.57270E+000	9	...........
	63	0.853333	7.61075E-001	9.10335E-005	0.00000E+000	6.92833E-005	5.39641E-002	7.61240E-001	3.57270E+000	9	...........
	64	0.866667	7.64795E-001	9.10616E-005	0.00000E+000	6.96435E-005	5.39641E-002	7.64964E-001	3.57270E+000	9	...........
	65	0.88	7.68488E-001	9.07011E-005	0.00000E+000	6.97027E-005	5.39641E-002	7.68656E-001	3.57270E+000	9	...........
	66	0.893333	7.72136E-001	9.09512E-005	0.00000E+000	7.02266E-005	5.39641E-002	7.72304E-001	3.57270E+000	9	...........
	67	0.906667	7.75749E-001	9.10376E-005	0.00000E+000	7.06224E-005	5.39641E-002	7.75880E-001	3.57270E+000	9	...........
	68	0.92	7.79303E-001	9.08657E-005	0.00000E+000	7.08120E-005	5.39641E-002	7.79471E-001	3.57270E+000	9	...........
	69	0.933333	7.82867E-001	9.07605E-005	0.00000E+000	7.10534E-005	5.39641E-002	7.83016E-001	3.57270E+000	9	...........
	70	0.946667	7.86308E-001	9.09960E-005	0.00000E+000	7.15509E-005	5.39641E-002	7.86482E-001	3.57270E+000	9	...........
	71	0.96	7.89738E-001	9.10147E-005	0.00000E+000	7.18778E-005	5.39641E-002	7.89899E-001	3.57270E+000	9	...........
	72	0.97333	7.93201E-001	9.09397E-005	0.00000E+000	7.21335E-005	5.39641E-002	7.93330E-001	3.57270E+000	9	...........
	73	0.98667	7.96538E-001	9.10064E-005	0.00000E+000	7.24901E-005	5.39641E-002	7.96696E-001	3.57270E+000	9	...........
	74	1	7.99876E-001	9.10741E-005	0.00000E+000	7.28480E-005	5.39641E-002	7.99996E-001	3.57270E+000	9	...........
	75	1.01333	8.03135E-001	9.09376E-005	0.00000E+000	7.30351E-005	5.39641E-002	8.03293E-001	3.57270E+000	9	...........
	76	1.02667	8.06374E-001	9.09314E-005	0.00000E+000	7.33247E-005	5.39641E-002	8.06540E-001	3.57270E+000	9	...........
	77	1.04	8.09574E-001	9.11220E-005	0.00000E+000	7.37701E-005	5.39641E-002	8.09726E-001	3.57270E+000	9	...........
	78	1.05333	8.12751E-001	9.11439E-005	0.00000E+000	7.40773E-005	5.39641E-002	8.12877E-001	3.57270E+000	9	...........
	79	1.06667	8.15852E-001	9.11366E-005	0.00000E+000	7.43540E-005	5.39641E-002	8.16037E-001	3.57270E+000	9	...........
	80	1.08	8.18985E-001	9.11293E-005	0.00000E+000	7.46336E-005	5.39641E-002	8.19148E-001	3.57292E+000	9	...........
	81	1.09333	8.22050E-001	9.08334E-005	0.00000E+000	7.46696E-005	5.39641E-002	8.22195E-001	3.57330E+000	9	...........
	82	1.10667	8.25078E-001	9.09647E-005	0.00000E+000	7.50530E-005	5.39641E-002	8.25248E-001	3.57330E+000	9	...........
	83	1.12	8.28094E-001	9.12835E-005	0.00000E+000	7.55913E-005	5.39641E-002	8.28230E-001	3.57330E+000	9	...........
	84	1.13333	8.31044E-001	9.06521E-005	0.00000E+000	7.53359E-005	5.39641E-002	8.31190E-001	3.57330E+000	9	...........
	85	1.14667	8.33980E-001	9.10887E-005	0.00000E+000	7.59661E-005	5.39641E-002	8.34120E-001	3.57330E+000	9	...........
	86	1.16	8.36862E-001	9.10335E-005	0.00000E+000	7.61825E-005	5.39641E-002	8.37035E-001	3.57330E+000	9	...........
	87	1.17333	8.39761E-001	9.08564E-005	0.00000E+000	7.62976E-005	5.39641E-002	8.39897E-001	3.57330E+000	9	...........
	88	1.18667	8.42595E-001	9.09772E-005	0.00000E+000	7.66570E-005	5.39641E-002	8.42757E-001	3.57330E+000	9	...........
	89	1.2	8.45465E-001	9.09303E-005	0.00000E+000	7.68784E-005	5.39641E-002	8.45611E-001	3.57330E+000	9	...........
	90	1.21333	8.48252E-001	9.08574E-005	0.00000E+000	7.70700E-005	5.39641E-002	8.48404E-001	3.57330E+000	9	...........
	91	1.22667	8.51002E-001	9.12856E-005	0.00000E+000	7.76843E-005	5.39641E-002	8.51172E-001	3.57330E+000	9	...........
	92	1.24	8.53741E-001	9.11533E-005	0.00000E+000	7.78213E-005	5.39641E-002	8.53926E-001	3.57330E+000	9	...........
	93	1.25333	8.56464E-001	9.12689E-005	0.00000E+000	7.81686E-005	5.39641E-002	8.56654E-001	3.57330E+000	9	...........
	94	1.26667	8.59128E-001	9.10064E-005	0.00000E+000	7.81861E-005	5.39641E-002	8.59352E-001	3.57330E+000	9	...........
	95	1.28	8.61810E-001	9.09699E-005	0.00000E+000	7.83988E-005	5.39641E-002	8.62004E-001	3.57330E+000	9	...........
	96	1.29333	8.64422E-001	9.10293E-005	0.00000E+000	7.86878E-005	5.39641E-002	8.64623E-001	3.57330E+000	9	...........
	97	1.30667	8.66994E-001	9.10303E-005	0.00000E+000	7.89228E-005	5.39641E-002	8.67222E-001	3.57330E+000	9	...........
	98	1.32	8.69613E-001	9.09282E-005	0.00000E+000	7.90724E-005	5.39641E-002	8.69826E-001	3.57330E+000	9	...........
	99	1.33333	8.72179E-001	9.11898E-005	0.00000E+000	7.95338E-005	5.39641E-002	8.72374E-001	3.57330E+000	9	...........
	100	1.34667	8.74705E-001	9.11898E-005	0.00000E+000	7.97641E-005	5.39641E-002	8.74896E-001	3.57330E+000	9	...........
	101	1.36	8.77202E-001	9.10303E-005	0.00000E+000	7.98520E-005	5.39641E-002	8.77384E-001	3.57330E+000	9	...........
	102	1.37333	8.79675E-001	9.10418E-005	0.00000E+000	8.00872E-005	5.39641E-002	8.79887E-001	3.57330E+000	9	...........
	103	1.38667	8.82117E-001	9.08616E-005	0.00000E+000	8.01506E-005	5.39641E-002	8.82311E-001	3.57330E+000	9	...........
	104	1.4	8.84555E-001	9.10428E-005	0.00000E+000	8.05324E-005	5.39641E-002	8.84747E-001	3.57330E+000	9	...........
	105	1.41333	8.86933E-001	9.10981E-005	0.00000E+000	8.07979E-005	5.39641E-002	8.87149E-001	3.57330E+000	9	...........
	106	1.42667	8.89309E-001	9.08678E-005	0.00000E+000	8.08096E-005	5.39641E-002	8.89503E-001	3.57330E+000	9	...........
	107	1.44	8.91662E-001	9.08397E-005	0.00000E+000	8.09983E-005	5.39641E-002	8.91831E-001	3.57330E+000	9	...........
	108	1.45333	8.93953E-001	9.08814E-005	0.00000E+000	8.12437E-005	5.39641E-002	8.94168E-001	3.57330E+000	9	...........
	109	1.46667	8.96281E-001	9.09335E-005	0.00000E+000	8.15020E-005	5.39641E-002	8.96497E-001	3.57330E+000	9	...........
	110	1.48	8.98549E-001	9.09658E-005	0.00000E+000	8.17371E-005	5.39641E-002	8.98772E-001	3.57330E+000	9	...........
	111	1.49333	9.00782E-001	9.11241E-005	0.00000E+000	8.20830E-005	5.39641E-002	9.01022E-001	3.57330E+000	9	...........
	112	1.50667	9.03020E-001	9.08491E-005	0.00000E+000	8.20385E-005	5.39641E-002	9.03255E-001	3.57330E+000	9	...........
	113	1.52	9.05223E-001	9.10679E-005	0.00000E+000	8.24368E-005	5.39641E-002	9.05449E-001	3.57330E+000	9	...........
	114	1.53333	9.07422E-001	9.10053E-005	0.00000E+000	8.25802E-005	5.39641E-002	9.07665E-001	3.57330E+000	9	...........
	115	1.54667	9.09580E-001	9.12012E-005	0.00000E+000	8.29548E-005	5.39641E-002	9.09809E-001	3.57330E+000	9	...........
	116	1.56	9.11751E-001	9.11408E-005	0.00000E+000	8.30977E-005	5.39641E-002	9.11962E-001	3.57330E+000	9	...........
	117	1.57333	9.13837E-001	9.11262E-005	0.00000E+000	8.32745E-005	5.39641E-002	9.14082E-001	3.57330E+000	9	...........
	118	1.58667	9.15946E-001	9.09616E-005	0.00000E+000	8.33159E-005	5.39641E-002	9.16147E-001	3.57330E+000	9	...........
	119	1.6	9.18014E-001	9.09251E-005	0.00000E+000	8.34706E-005	5.39641E-002	9.18218E-001	3.57330E+000	9	...........
	120	1.61333	9.20115E-001	9.09282E-005	0.00000E+000	8.36645E-005	5.39641E-002	9.20255E-001	3.57330E+000	9	...........
	121	1.62667	9.22192E-001	9.09199E-005	0.00000E+000	8.38456E-005	5.39641E-002	9.22328E-001	3.57330E+000	9	...........
	122	1.64	9.24219E-001	9.10897E-005	0.00000E+000	8.41869E-005	5.39641E-002	9.24352E-001	3.57330E+000	9	...........
	123	1.65333	9.26214E-001	9.08939E-005	0.00000E+000	8.41871E-005	5.39641E-002	9.26363E-001	3.57330E+000	9	...........
	124	1.66667	9.28198E-001	9.09032E-005	0.00000E+000	8.43762E-005	5.39641E-002	9.28339E-001	3.57330E+000	9	...........
	125	1.68	9.30150E-001	9.11491E-005	0.00000E+000	8.47824E-005	5.39641E-002	9.30303E-001	3.57330E+000	9	...........
	126	1.69333	9.32090E-001	9.11554E-005	0.00000E+000	8.49650E-005	5.39641E-002	9.32237E-001	3.57330E+000	9	...........
	127	1.70667	9.33993E-001	9.08636E-005	0.00000E+000	8.48660E-005	5.39641E-002	9.34153E-001	3.57330E+000	9	...........
	128	1.72	9.35872E-001	9.10064E-005	0.00000E+000	8.51704E-005	5.39641E-002	9.36046E-001	3.57330E+000	9	...........
	129	1.73333	9.37754E-001	9.09001E-005	0.00000E+000	8.52420E-005	5.39641E-002	9.37935E-001	3.57330E+000	9	...........
	130	1.74667	9.39572E-001	9.08397E-005	0.00000E+000	8.53505E-005	5.39641E-002	9.39761E-001	3.57330E+000	9	...........
	131	1.76	9.41399E-001	9.11679E-005	0.00000E+000	8.58254E-005	5.39641E-002	9.41573E-001	3.57330E+000	9	...........
	132	1.77333	9.43200E-001	9.09574E-005	0.00000E+000	8.57910E-005	5.39641E-002	9.43384E-001	3.57330E+000	9	...........
	133	1.78667	9.44974E-001	9.09751E-005	0.00000E+000	8.59692E-005	5.39641E-002	9.45189E-001	3.57330E+000	9	...........
	134	1.8	9.46791E-001	9.12033E-005	0.00000E+000	8.63505E-005	5.39641E-002	9.46971E-001	3.57330E+000	9	...........
	135	1.81333	9.48545E-001	9.08939E-005	0.00000E+000	8.62169E-005	5.39641E-002	9.48751E-001	3.57330E+000	9	...........
	136	1.82667	9.50303E-001	9.13960E-005	0.00000E+000	8.68539E-005	5.39641E-002	9.50486E-001	3.57330E+000	9	...........
	137	1.84	9.52032E-001	9.10460E-005	0.00000E+000	8.66787E-005	5.39641E-002	9.52220E-001	3.57330E+000	9	...........
	138	1.85333	9.53726E-001	9.09272E-005	0.00000E+000	8.67197E-005	5.39641E-002	9.53919E-001	3.57330E+000	9	...........
	139	1.86667	9.55415E-001	9.11481E-005	0.00000E+000	8.70842E-005	5.39641E-002	9.55590E-001	3.57330E+000	9	...........
	140	1.88	9.57084E-001	9.11627E-005	0.00000E+000	8.72503E-005	5.39641E-002	9.57240E-001	3.57330E+000	9	...........
	141	1.89333	9.58743E-001	9.09199E-005	0.00000E+000	8.71689E-005	5.39641E-002	9.58896E-001	3.57330E+000	9	...........
	142	1.90667	9.60375E-001	9.09074E-005	0.00000E+000	8.73052E-005	5.39641E-002	9.60531E-001	3.57330E+000	9	...........
	143	1.92	9.62009E-001	9.09658E-005	0.00000E+000	8.75099E-005	5.39641E-002	9.62158E-001	3.57330E+000	9	...........
	144	1.93333	9.63615E-001	9.10033E-005	0.00000E+000	8.76921E-005	5.39641E-002	9.63791E-001	3.57330E+000	9	...........
	145	1.94667	9.65183E-001	9.11418E-005	0.00000E+000	8.79686E-005	5.39641E-002	9.65359E-001	3.57330E+000	9	...........
	146	1.96	9.66764E-001	9.09668E-005	0.00000E+000	8.79434E-005	5.39641E-002	9.66930E-001	3.57330E+000	9	...........
	147	1.97333	9.68279E-001	9.09053E-005	0.00000E+000	8.80217E-005	5.39641E-002	9.68490E-001	3.57330E+000	9	...........
	148	1.98667	9.69831E-001	9.12742E-005	0.00000E+000	8.85205E-005	5.39641E-002	9.70018E-001	3.57330E+000	9	...........
	149	2	9.71347E-001	9.09376E-005	0.00000E+000	8.83320E-005	5.39641E-002	9.71605E-001	3.57330E+000	9	...........
	150	2.01333	9.72945E-001	9.10824E-005	0.00000E+000	8.86182E-005	5.39641E-002	9.73134E-001	3.57330E+000	9	...........
	151	2.02667	9.74438E-001	9.10126E-005	0.00000E+000	8.86862E-005	5.39641E-002	9.74646E-001	3.57330E+000	9	...........
	152	2.04	9.75956E-001	9.10366E-005	0.00000E+000	8.88477E-005	5.39641E-002	9.76135E-001	3.57330E+000	9	...........
	153	2.05333	9.77385E-001	9.10012E-005	0.00000E+000	8.89432E-005	5.39641E-002	9.77608E-001	3.57330E+000	9	...........
	154	2.06667	9.78856E-001	9.10449E-005	0.00000E+000	8.91199E-005	5.39641E-002	9.79064E-001	3.57330E+000	9	...........
	155	2.08	9.80298E-001	9.11679E-005	0.00000E+000	8.93716E-005	5.39641E-002	9.80493E-001	3.57300E+000	9	...........
	156	2.09333	9.81731E-001	9.09887E-005	0.00000E+000	8.93264E-005	5.39641E-002	9.81945E-001	3.57250E+000	9	...........
	157	2.10667	9.83144E-001	9.07615E-005	0.00000E+000	8.92316E-005	5.39641E-002	9.83355E-001	3.57250E+000	9	...........
	158	2.12	9.84533E-001	9.11741E-005	0.00000E+000	8.97639E-005	5.39641E-002	9.84775E-001	3.57250E+000	9	...........
	159	2.13333	9.85900E-001	9.06688E-005	0.00000E+000	8.93903E-005	5.39641E-002	9.86137E-001	3.57250E+000	9	...........
	160	2.14667	9.87266E-001	9.10012E-005	0.00000E+000	8.98424E-005	5.39641E-002	9.87497E-001	3.57250E+000	9	...........
	161	2.16	9.88642E-001	9.10491E-005	0.00000E+000	9.00150E-005	5.39641E-002	9.88810E-001	3.57250E+000	9	...........
	162	2.17333	9.89961E-001	9.09293E-005	0.00000E+000	9.00165E-005	5.39641E-002	9.90149E-001	3.57250E+000	9	...........
	163	2.18667	9.91297E-001	9.12825E-005	0.00000E+000	9.04880E-005	5.39641E-002	9.91470E-001	3.57250E+000	9	...........
	164	2.2	9.92590E-001	9.10866E-005	0.00000E+000	9.04116E-005	5.39641E-002	9.92786E-001	3.57250E+000	9	...........
	165	2.21333	9.93871E-001	9.09105E-005	0.00000E+000	9.03534E-005	5.39641E-002	9.94079E-001	3.57250E+000	9	...........
	166	2.22667	9.95188E-001	9.10251E-005	0.00000E+000	9.05871E-005	5.39641E-002	9.95362E-001	3.57250E+000	9	...........
	167	2.24	9.96448E-001	9.10752E-005	0.00000E+000	9.07517E-005	5.39641E-002	9.96654E-001	3.57250E+000	9	...........
	168	2.25333	9.97720E-001	9.10856E-005	0.00000E+000	9.08779E-005	5.39641E-002	9.97946E-001	3.57250E+000	9	...........
	169	2.26667	9.98974E-001	9.09595E-005	0.00000E+000	9.08662E-005	5.39641E-002	9.99204E-001	3.57250E+000	9	...........
	170	2.27167	9.99853E-001	9.12821E-005	0.00000E+000	9.12687E-005	5.39641E-002	1.00009E+000	3.57250E+000	9	...........
STARTTIMEOFFSET	QUANT	1956.156	Start Time Offset (s)
