EXPLAIN
TAG	PWR800_CHARGE
TITLE	LABEL	PWR Cyclic Charge Discharge (Cell) - Charge Step	Test &Identifier
DATE	LABEL	10-7-2017	Date
TIME	LABEL	16:02:04	Time
NOTES	NOTES	3	&Notes...
	supercap test cell
	0.9mg
	6M KOH
PSTAT	PSTAT	IFC5000-01520	Potentiostat
CAPACITY	QUANT	1.00000E-003	Capacity (A-hr)
CELLTYPE	SELECTOR	1	&Cell Type
WORKINGCONNECTION	SELECTOR	0	&Working Lead
MAXCHARGETIME	VARIABLEANDUNITS	1.00000E+002	s	1.00000E+002	second(s)	Max &Charge Time
CHARGECURRENT	QUANT	9.00000E-005	&Charge Current (A) 
VOLTAGEFINISH	TWOPARAM	F	1.00000E-003	3.60000E+003	&Voltage Finish	 I (A) < 	Max Time(s)
SAMPLETIME	QUANT	1.00000E-002	Sa&mple Period (s)
CHARGESTOPAT1	MULTIPARAM	4	1.00000E+000	Charge Stop At &1	Voltage > Limit	V
CHARGESTOPAT2	MULTIPARAM	0	0.00000E+000	Charge Stop At &2	None	N/A
AESBHCSELECTOR	TOGGLE	F	Save Both Half Cells
IRCOMP	TOGGLE	F	IR &Measure
EOC	QUANT	0	Open Circuit (V)
SEQUENCER	TOGGLE	TRUE	Run as Sequence
PSTATMODEL	IQUANT	53	Pstat Model
PSTATSECTION	LABEL	IFC5000-01520	Pstat Section
PSTATSERIALNO	LABEL	01520	Pstat Serial Number
CTRLMODE	IQUANT	0	Control Mode
ELECTROMETER	IQUANT	1	RE=0 or CS=1
IESTAB	IQUANT	0	I/E Stability
CASPEED	IQUANT	4	Control Amp Speed
CONVENTION	IQUANT	1	Current Convention
ICHRANGE	IQUANT	2	Ich Range
ICHRANGEMODE	TOGGLE	T	Ich Auto Range
ICHOFFSETENABLE	TOGGLE	F	Ich Offset Enable
ICHOFFSET	QUANT	0	Ich Offset (V)
ICHFILTER	IQUANT	1	Ich Filter
VCHRANGE	IQUANT	2	Vch Range
VCHRANGEMODE	TOGGLE	T	Vch Auto Range
VCHOFFSETENABLE	TOGGLE	F	Vch Offset Enable
VCHOFFSET	QUANT	0	Vch Offset (V)
VCHFILTER	IQUANT	1	Vch Filter
IERANGELOWERLIMIT	IQUANT	9	I/E Range Lower Limit
IERANGEMODE	TOGGLE	F	I/E AutoRange
IERANGE	IQUANT	9	I/E Range
ACHSELECT	IQUANT	1	Ach Select
ACHRANGE	IQUANT	2	Ach Range
ACHOFFSETENABLE	TOGGLE	F	Ach Offset Enable
ACHOFFSET	QUANT	0	Ach Offset (V)
ACHFILTER	IQUANT	1	Ach Filter
CABLEID	IQUANT	14	Cable ID
DCCALDATE	LABEL	5-7-2017	DC Calibration Date
ACCALDATE	LABEL	12/3/2015	AC Calibration Date
FRAMEWORKVERSION	QUANT	7.01	Framework Version
INSTRUMENTVERSION	LABEL	4.00	Instrument Version
CURVE	TABLE	165
	Pt	T	Vf	Im	Vu	Pwr	Sig	Ach	Temp	IERange	Over
	#	s	V	A	V	W	V	V	deg C	#	bits
	0	0.013333	2.70662E-001	9.09564E-005	0.00000E+000	2.46184E-005	5.39641E-002	2.70699E-001	3.57300E+000	9	...........
	1	0.026667	2.90343E-001	9.11533E-005	0.00000E+000	2.64657E-005	5.39641E-002	2.90384E-001	3.57300E+000	9	...........
	2	0.04	3.08787E-001	9.10553E-005	0.00000E+000	2.81167E-005	5.39641E-002	3.08825E-001	3.57300E+000	9	...........
	3	0.053333	3.26154E-001	9.10679E-005	0.00000E+000	2.97022E-005	5.39641E-002	3.26195E-001	3.57300E+000	9	...........
	4	0.066667	3.42554E-001	9.09126E-005	0.00000E+000	3.11425E-005	5.39641E-002	3.42593E-001	3.57300E+000	9	...........
	5	0.08	3.58098E-001	9.08314E-005	0.00000E+000	3.25265E-005	5.39641E-002	3.58144E-001	3.57300E+000	9	...........
	6	0.093333	3.72856E-001	9.06511E-005	0.00000E+000	3.37998E-005	5.39641E-002	3.72909E-001	3.57300E+000	9	...........
	7	0.106667	3.86917E-001	9.11741E-005	0.00000E+000	3.52768E-005	5.39641E-002	3.86964E-001	3.57300E+000	9	...........
	8	0.12	4.00340E-001	9.10033E-005	0.00000E+000	3.64322E-005	5.39641E-002	4.00383E-001	3.57300E+000	9	...........
	9	0.133333	4.13168E-001	9.09720E-005	0.00000E+000	3.75867E-005	5.39641E-002	4.13224E-001	3.57300E+000	9	...........
	10	0.146667	4.25455E-001	9.10877E-005	0.00000E+000	3.87537E-005	5.39641E-002	4.25518E-001	3.57300E+000	9	...........
	11	0.16	4.37238E-001	9.10512E-005	0.00000E+000	3.98110E-005	5.39641E-002	4.37302E-001	3.57300E+000	9	...........
	12	0.173333	4.48565E-001	9.10772E-005	0.00000E+000	4.08540E-005	5.39641E-002	4.48628E-001	3.57300E+000	9	...........
	13	0.186667	4.59462E-001	9.08314E-005	0.00000E+000	4.17335E-005	5.39641E-002	4.59518E-001	3.57300E+000	9	...........
	14	0.2	4.69955E-001	9.10095E-005	0.00000E+000	4.27704E-005	5.39641E-002	4.70021E-001	3.57300E+000	9	...........
	15	0.213333	4.80080E-001	9.09439E-005	0.00000E+000	4.36603E-005	5.39641E-002	4.80147E-001	3.57300E+000	9	...........
	16	0.226667	4.89859E-001	9.08741E-005	0.00000E+000	4.45155E-005	5.39641E-002	4.89924E-001	3.57300E+000	9	...........
	17	0.24	4.99305E-001	9.08824E-005	0.00000E+000	4.53780E-005	5.39641E-002	4.99372E-001	3.57300E+000	9	...........
	18	0.253333	5.08461E-001	9.08272E-005	0.00000E+000	4.61821E-005	5.39641E-002	5.08532E-001	3.57300E+000	9	...........
	19	0.266667	5.17345E-001	9.12179E-005	0.00000E+000	4.71911E-005	5.39641E-002	5.17408E-001	3.57300E+000	9	...........
	20	0.28	5.25958E-001	9.10251E-005	0.00000E+000	4.78754E-005	5.39641E-002	5.26027E-001	3.57300E+000	9	...........
	21	0.293333	5.34262E-001	9.08303E-005	0.00000E+000	4.85272E-005	5.39641E-002	5.34318E-001	3.57300E+000	9	...........
	22	0.306667	5.42336E-001	9.10293E-005	0.00000E+000	4.93684E-005	5.39641E-002	5.42427E-001	3.57300E+000	9	...........
	23	0.32	5.50212E-001	9.11543E-005	0.00000E+000	5.01542E-005	5.39641E-002	5.50301E-001	3.57300E+000	9	...........
	24	0.333333	5.57850E-001	9.09824E-005	0.00000E+000	5.07546E-005	5.39641E-002	5.57981E-001	3.57300E+000	9	...........
	25	0.346667	5.65355E-001	9.08845E-005	0.00000E+000	5.13820E-005	5.39641E-002	5.65485E-001	3.57300E+000	9	...........
	26	0.36	5.72667E-001	9.07563E-005	0.00000E+000	5.19731E-005	5.39641E-002	5.72787E-001	3.57300E+000	9	...........
	27	0.373333	5.79763E-001	9.08793E-005	0.00000E+000	5.26885E-005	5.39641E-002	5.79910E-001	3.57300E+000	9	...........
	28	0.386667	5.86688E-001	9.07782E-005	0.00000E+000	5.32585E-005	5.39641E-002	5.86848E-001	3.57300E+000	9	...........
	29	0.4	5.93507E-001	9.10574E-005	0.00000E+000	5.40432E-005	5.39641E-002	5.93647E-001	3.57300E+000	9	...........
	30	0.413333	6.00099E-001	9.10199E-005	0.00000E+000	5.46210E-005	5.39641E-002	6.00261E-001	3.57300E+000	9	...........
	31	0.426667	6.06559E-001	9.10866E-005	0.00000E+000	5.52494E-005	5.39641E-002	6.06711E-001	3.57300E+000	9	...........
	32	0.44	6.12899E-001	9.07834E-005	0.00000E+000	5.56411E-005	5.39641E-002	6.13036E-001	3.57300E+000	9	...........
	33	0.453333	6.19155E-001	9.11470E-005	0.00000E+000	5.64342E-005	5.39641E-002	6.19249E-001	3.57300E+000	9	...........
	34	0.466667	6.25220E-001	9.11429E-005	0.00000E+000	5.69843E-005	5.39641E-002	6.25318E-001	3.57300E+000	9	...........
	35	0.48	6.31148E-001	9.08928E-005	0.00000E+000	5.73669E-005	5.39641E-002	6.31258E-001	3.57300E+000	9	...........
	36	0.493333	6.36987E-001	9.11200E-005	0.00000E+000	5.80422E-005	5.39641E-002	6.37099E-001	3.57300E+000	9	...........
	37	0.506667	6.42726E-001	9.08157E-005	0.00000E+000	5.83697E-005	5.39641E-002	6.42832E-001	3.57300E+000	9	...........
	38	0.52	6.48329E-001	9.09699E-005	0.00000E+000	5.89784E-005	5.39641E-002	6.48458E-001	3.57300E+000	9	...........
	39	0.533333	6.53841E-001	9.10126E-005	0.00000E+000	5.95078E-005	5.39641E-002	6.53991E-001	3.57300E+000	9	...........
	40	0.546667	6.59250E-001	9.11137E-005	0.00000E+000	6.00667E-005	5.39641E-002	6.59357E-001	3.57300E+000	9	...........
	41	0.56	6.64543E-001	9.10626E-005	0.00000E+000	6.05151E-005	5.39641E-002	6.64679E-001	3.57300E+000	9	...........
	42	0.573333	6.69809E-001	9.08928E-005	0.00000E+000	6.08808E-005	5.39641E-002	6.69908E-001	3.57300E+000	9	...........
	43	0.586667	6.74927E-001	9.08053E-005	0.00000E+000	6.12870E-005	5.39641E-002	6.75043E-001	3.57300E+000	9	...........
	44	0.6	6.79995E-001	9.11783E-005	0.00000E+000	6.20008E-005	5.39641E-002	6.80124E-001	3.57300E+000	9	...........
	45	0.613333	6.84940E-001	9.09866E-005	0.00000E+000	6.23203E-005	5.39641E-002	6.85082E-001	3.57300E+000	9	...........
	46	0.626667	6.89851E-001	9.09262E-005	0.00000E+000	6.27255E-005	5.39641E-002	6.89989E-001	3.57300E+000	9	...........
	47	0.64	6.94679E-001	9.09282E-005	0.00000E+000	6.31660E-005	5.39641E-002	6.94804E-001	3.57300E+000	9	...........
	48	0.653333	6.99434E-001	9.11002E-005	0.00000E+000	6.37185E-005	5.39641E-002	6.99548E-001	3.57300E+000	9	...........
	49	0.666667	7.04105E-001	9.10908E-005	0.00000E+000	6.41375E-005	5.39641E-002	7.04213E-001	3.57300E+000	9	...........
	50	0.68	7.08676E-001	9.08230E-005	0.00000E+000	6.43641E-005	5.39641E-002	7.08801E-001	3.57300E+000	9	...........
	51	0.693333	7.13189E-001	9.11491E-005	0.00000E+000	6.50065E-005	5.39641E-002	7.13324E-001	3.57300E+000	9	...........
	52	0.706667	7.17703E-001	9.12627E-005	0.00000E+000	6.54995E-005	5.39641E-002	7.17819E-001	3.57300E+000	9	...........
	53	0.72	7.22110E-001	9.13294E-005	0.00000E+000	6.59498E-005	5.39641E-002	7.22215E-001	3.57300E+000	9	...........
	54	0.733333	7.26445E-001	9.11543E-005	0.00000E+000	6.62186E-005	5.39641E-002	7.26568E-001	3.57300E+000	9	...........
	55	0.746667	7.30718E-001	9.10116E-005	0.00000E+000	6.65038E-005	5.39641E-002	7.30863E-001	3.57318E+000	9	...........
	56	0.76	7.34933E-001	9.11627E-005	0.00000E+000	6.69985E-005	5.39641E-002	7.35064E-001	3.57410E+000	9	...........
	57	0.773333	7.39113E-001	9.12554E-005	0.00000E+000	6.74481E-005	5.39641E-002	7.39243E-001	3.57410E+000	9	...........
	58	0.786667	7.43254E-001	9.10335E-005	0.00000E+000	6.76610E-005	5.39641E-002	7.43379E-001	3.57410E+000	9	...........
	59	0.8	7.47308E-001	9.08584E-005	0.00000E+000	6.78992E-005	5.39641E-002	7.47429E-001	3.57410E+000	9	...........
	60	0.813333	7.51313E-001	9.10470E-005	0.00000E+000	6.84048E-005	5.39641E-002	7.51421E-001	3.57410E+000	9	...........
	61	0.826667	7.55276E-001	9.12835E-005	0.00000E+000	6.89442E-005	5.39641E-002	7.55397E-001	3.57410E+000	9	...........
	62	0.84	7.59203E-001	9.12887E-005	0.00000E+000	6.93067E-005	5.39641E-002	7.59272E-001	3.57410E+000	9	...........
	63	0.853333	7.63038E-001	9.12231E-005	0.00000E+000	6.96067E-005	5.39641E-002	7.63139E-001	3.57410E+000	9	...........
	64	0.866667	7.66845E-001	9.09793E-005	0.00000E+000	6.97670E-005	5.39641E-002	7.66984E-001	3.57410E+000	9	...........
	65	0.88	7.70641E-001	9.10043E-005	0.00000E+000	7.01317E-005	5.39641E-002	7.70751E-001	3.57410E+000	9	...........
	66	0.893333	7.74341E-001	9.09001E-005	0.00000E+000	7.03877E-005	5.39641E-002	7.74467E-001	3.57410E+000	9	...........
	67	0.906667	7.78004E-001	9.11304E-005	0.00000E+000	7.08998E-005	5.39641E-002	7.78116E-001	3.57410E+000	9	...........
	68	0.92	7.81660E-001	9.06511E-005	0.00000E+000	7.08584E-005	5.39641E-002	7.81791E-001	3.57410E+000	9	...........
	69	0.933333	7.85272E-001	9.11648E-005	0.00000E+000	7.15891E-005	5.39641E-002	7.85381E-001	3.57410E+000	9	...........
	70	0.946667	7.88813E-001	9.08720E-005	0.00000E+000	7.16810E-005	5.39641E-002	7.88924E-001	3.57410E+000	9	...........
	71	0.96	7.92352E-001	9.11116E-005	0.00000E+000	7.21925E-005	5.39641E-002	7.92471E-001	3.57410E+000	9	...........
	72	0.97333	7.95842E-001	9.10387E-005	0.00000E+000	7.24524E-005	5.39641E-002	7.95986E-001	3.57410E+000	9	...........
	73	0.98667	7.99302E-001	9.11231E-005	0.00000E+000	7.28348E-005	5.39641E-002	7.99425E-001	3.57410E+000	9	...........
	74	1	8.02721E-001	9.10877E-005	0.00000E+000	7.31179E-005	5.39641E-002	8.02855E-001	3.57410E+000	9	...........
	75	1.01333	8.06066E-001	9.09553E-005	0.00000E+000	7.33160E-005	5.39641E-002	8.06216E-001	3.57410E+000	9	...........
	76	1.02667	8.09401E-001	9.11356E-005	0.00000E+000	7.37652E-005	5.39641E-002	8.09543E-001	3.57410E+000	9	...........
	77	1.04	8.12707E-001	9.10460E-005	0.00000E+000	7.39937E-005	5.39641E-002	8.12863E-001	3.57410E+000	9	...........
	78	1.05333	8.15956E-001	9.10428E-005	0.00000E+000	7.42869E-005	5.39641E-002	8.16116E-001	3.57410E+000	9	...........
	79	1.06667	8.19205E-001	9.11491E-005	0.00000E+000	7.46699E-005	5.39641E-002	8.19352E-001	3.57410E+000	9	...........
	80	1.08	8.22398E-001	9.08386E-005	0.00000E+000	7.47055E-005	5.39641E-002	8.22546E-001	3.57410E+000	9	...........
	81	1.09333	8.25555E-001	9.09272E-005	0.00000E+000	7.50654E-005	5.39641E-002	8.25725E-001	3.57410E+000	9	...........
	82	1.10667	8.28693E-001	9.10689E-005	0.00000E+000	7.54681E-005	5.39641E-002	8.28857E-001	3.57410E+000	9	...........
	83	1.12	8.31776E-001	9.11335E-005	0.00000E+000	7.58027E-005	5.39641E-002	8.31953E-001	3.57410E+000	9	...........
	84	1.13333	8.34831E-001	9.13304E-005	0.00000E+000	7.62455E-005	5.39641E-002	8.35042E-001	3.57410E+000	9	...........
	85	1.14667	8.37864E-001	9.10053E-005	0.00000E+000	7.62501E-005	5.39641E-002	8.38068E-001	3.57410E+000	9	...........
	86	1.16	8.40877E-001	9.09855E-005	0.00000E+000	7.65077E-005	5.39641E-002	8.41068E-001	3.57410E+000	9	...........
	87	1.17333	8.43873E-001	9.11189E-005	0.00000E+000	7.68928E-005	5.39641E-002	8.44071E-001	3.57410E+000	9	...........
	88	1.18667	8.46823E-001	9.09470E-005	0.00000E+000	7.70160E-005	5.39641E-002	8.47032E-001	3.57410E+000	9	...........
	89	1.2	8.49753E-001	9.09168E-005	0.00000E+000	7.72568E-005	5.39641E-002	8.49959E-001	3.57410E+000	9	...........
	90	1.21333	8.52638E-001	9.10147E-005	0.00000E+000	7.76026E-005	5.39641E-002	8.52846E-001	3.57410E+000	9	...........
	91	1.22667	8.55501E-001	9.09637E-005	0.00000E+000	7.78195E-005	5.39641E-002	8.55712E-001	3.57410E+000	9	...........
	92	1.24	8.58310E-001	9.08741E-005	0.00000E+000	7.79981E-005	5.39641E-002	8.58539E-001	3.57410E+000	9	...........
	93	1.25333	8.61133E-001	9.09585E-005	0.00000E+000	7.83274E-005	5.39641E-002	8.61322E-001	3.57410E+000	9	...........
	94	1.26667	8.63889E-001	9.08772E-005	0.00000E+000	7.85078E-005	5.39641E-002	8.64093E-001	3.57410E+000	9	...........
	95	1.28	8.66629E-001	9.11304E-005	0.00000E+000	7.89762E-005	5.39641E-002	8.66848E-001	3.57410E+000	9	...........
	96	1.29333	8.69372E-001	9.08730E-005	0.00000E+000	7.90024E-005	5.39641E-002	8.69571E-001	3.57410E+000	9	...........
	97	1.30667	8.72084E-001	9.09824E-005	0.00000E+000	7.93443E-005	5.39641E-002	8.72279E-001	3.57410E+000	9	...........
	98	1.32	8.74731E-001	9.11356E-005	0.00000E+000	7.97191E-005	5.39641E-002	8.74947E-001	3.57410E+000	9	...........
	99	1.33333	8.77378E-001	9.08678E-005	0.00000E+000	7.97254E-005	5.39641E-002	8.77553E-001	3.57410E+000	9	...........
	100	1.34667	8.79973E-001	9.11627E-005	0.00000E+000	8.02207E-005	5.39641E-002	8.80159E-001	3.57410E+000	9	...........
	101	1.36	8.82583E-001	9.13221E-005	0.00000E+000	8.05993E-005	5.39641E-002	8.82781E-001	3.57410E+000	9	...........
	102	1.37333	8.85139E-001	9.09189E-005	0.00000E+000	8.04758E-005	5.39641E-002	8.85323E-001	3.57410E+000	9	...........
	103	1.38667	8.87650E-001	9.08439E-005	0.00000E+000	8.06375E-005	5.39641E-002	8.87842E-001	3.57410E+000	9	...........
	104	1.4	8.90157E-001	9.09908E-005	0.00000E+000	8.09960E-005	5.39641E-002	8.90330E-001	3.57410E+000	9	...........
	105	1.41333	8.92610E-001	9.09803E-005	0.00000E+000	8.12100E-005	5.39641E-002	8.92779E-001	3.57410E+000	9	...........
	106	1.42667	8.95059E-001	9.10970E-005	0.00000E+000	8.15372E-005	5.39641E-002	8.95263E-001	3.57410E+000	9	...........
	107	1.44	8.97486E-001	9.10345E-005	0.00000E+000	8.17022E-005	5.39641E-002	8.97708E-001	3.57410E+000	9	...........
	108	1.45333	8.99894E-001	9.09835E-005	0.00000E+000	8.18755E-005	5.39641E-002	9.00088E-001	3.57410E+000	9	...........
	109	1.46667	9.02272E-001	9.10929E-005	0.00000E+000	8.21906E-005	5.39641E-002	9.02467E-001	3.57410E+000	9	...........
	110	1.48	9.04642E-001	9.10283E-005	0.00000E+000	8.23480E-005	5.39641E-002	9.04839E-001	3.57410E+000	9	...........
	111	1.49333	9.06963E-001	9.10251E-005	0.00000E+000	8.25564E-005	5.39641E-002	9.07160E-001	3.57410E+000	9	...........
	112	1.50667	9.09306E-001	9.10210E-005	0.00000E+000	8.27659E-005	5.39641E-002	9.09487E-001	3.57410E+000	9	...........
	113	1.52	9.11590E-001	9.10074E-005	0.00000E+000	8.29614E-005	5.39641E-002	9.11758E-001	3.57410E+000	9	...........
	114	1.53333	9.13832E-001	9.11345E-005	0.00000E+000	8.32816E-005	5.39641E-002	9.14040E-001	3.57410E+000	9	...........
	115	1.54667	9.16061E-001	9.09991E-005	0.00000E+000	8.33607E-005	5.39641E-002	9.16278E-001	3.57410E+000	9	...........
	116	1.56	9.18252E-001	9.10158E-005	0.00000E+000	8.35754E-005	5.39641E-002	9.18463E-001	3.57410E+000	9	...........
	117	1.57333	9.20484E-001	9.09345E-005	0.00000E+000	8.37038E-005	5.39641E-002	9.20670E-001	3.57410E+000	9	...........
	118	1.58667	9.22675E-001	9.09689E-005	0.00000E+000	8.39347E-005	5.39641E-002	9.22850E-001	3.57410E+000	9	...........
	119	1.6	9.24803E-001	9.09720E-005	0.00000E+000	8.41312E-005	5.39641E-002	9.24988E-001	3.57410E+000	9	...........
	120	1.61333	9.26934E-001	9.11241E-005	0.00000E+000	8.44660E-005	5.39641E-002	9.27127E-001	3.57410E+000	9	...........
	121	1.62667	9.29015E-001	9.10772E-005	0.00000E+000	8.46121E-005	5.39641E-002	9.29165E-001	3.57410E+000	9	...........
	122	1.64	9.31079E-001	9.10460E-005	0.00000E+000	8.47710E-005	5.39641E-002	9.31234E-001	3.57410E+000	9	...........
	123	1.65333	9.33113E-001	9.10074E-005	0.00000E+000	8.49202E-005	5.39641E-002	9.33285E-001	3.57410E+000	9	...........
	124	1.66667	9.35136E-001	9.13190E-005	0.00000E+000	8.53956E-005	5.39641E-002	9.35332E-001	3.57410E+000	9	...........
	125	1.68	9.37152E-001	9.12543E-005	0.00000E+000	8.55192E-005	5.39641E-002	9.37330E-001	3.57410E+000	9	...........
	126	1.69333	9.39139E-001	9.09084E-005	0.00000E+000	8.53756E-005	5.39641E-002	9.39345E-001	3.57410E+000	9	...........
	127	1.70667	9.41097E-001	9.12325E-005	0.00000E+000	8.58586E-005	5.39641E-002	9.41284E-001	3.57410E+000	9	...........
	128	1.72	9.43021E-001	9.10345E-005	0.00000E+000	8.58475E-005	5.39641E-002	9.43200E-001	3.57410E+000	9	...........
	129	1.73333	9.44926E-001	9.11408E-005	0.00000E+000	8.61213E-005	5.39641E-002	9.45111E-001	3.57410E+000	9	...........
	130	1.74667	9.46826E-001	9.10324E-005	0.00000E+000	8.61919E-005	5.39641E-002	9.47023E-001	3.57394E+000	9	...........
	131	1.76	9.48713E-001	9.11689E-005	0.00000E+000	8.64932E-005	5.39641E-002	9.48899E-001	3.57310E+000	9	...........
	132	1.77333	9.50549E-001	9.08084E-005	0.00000E+000	8.63179E-005	5.39641E-002	9.50751E-001	3.57310E+000	9	...........
	133	1.78667	9.52396E-001	9.09803E-005	0.00000E+000	8.66493E-005	5.39641E-002	9.52599E-001	3.57310E+000	9	...........
	134	1.8	9.54224E-001	9.10314E-005	0.00000E+000	8.68643E-005	5.39641E-002	9.54405E-001	3.57310E+000	9	...........
	135	1.81333	9.56019E-001	9.10168E-005	0.00000E+000	8.70137E-005	5.39641E-002	9.56196E-001	3.57310E+000	9	...........
	136	1.82667	9.57809E-001	9.08136E-005	0.00000E+000	8.69821E-005	5.39641E-002	9.58003E-001	3.57310E+000	9	...........
	137	1.84	9.59576E-001	9.09084E-005	0.00000E+000	8.72336E-005	5.39641E-002	9.59763E-001	3.57310E+000	9	...........
	138	1.85333	9.61283E-001	9.10512E-005	0.00000E+000	8.75260E-005	5.39641E-002	9.61515E-001	3.57310E+000	9	...........
	139	1.86667	9.63004E-001	9.09512E-005	0.00000E+000	8.75863E-005	5.39641E-002	9.63191E-001	3.57310E+000	9	...........
	140	1.88	9.64689E-001	9.09595E-005	0.00000E+000	8.77476E-005	5.39641E-002	9.64906E-001	3.57310E+000	9	...........
	141	1.89333	9.66374E-001	9.10022E-005	0.00000E+000	8.79421E-005	5.39641E-002	9.66583E-001	3.57310E+000	9	...........
	142	1.90667	9.68052E-001	9.12471E-005	0.00000E+000	8.83319E-005	5.39641E-002	9.68253E-001	3.57310E+000	9	...........
	143	1.92	9.69700E-001	9.10762E-005	0.00000E+000	8.83166E-005	5.39641E-002	9.69910E-001	3.57310E+000	9	...........
	144	1.93333	9.71318E-001	9.12408E-005	0.00000E+000	8.86238E-005	5.39641E-002	9.71560E-001	3.57310E+000	9	...........
	145	1.94667	9.72976E-001	9.09595E-005	0.00000E+000	8.85014E-005	5.39641E-002	9.73189E-001	3.57310E+000	9	...........
	146	1.96	9.74588E-001	9.10012E-005	0.00000E+000	8.86886E-005	5.39641E-002	9.74788E-001	3.57310E+000	9	...........
	147	1.97333	9.76142E-001	9.10668E-005	0.00000E+000	8.88942E-005	5.39641E-002	9.76354E-001	3.57310E+000	9	...........
	148	1.98667	9.77710E-001	9.12179E-005	0.00000E+000	8.91847E-005	5.39641E-002	9.77923E-001	3.57310E+000	9	...........
	149	2	9.79253E-001	9.08845E-005	0.00000E+000	8.89989E-005	5.39641E-002	9.79460E-001	3.57310E+000	9	...........
	150	2.01333	9.80773E-001	9.10231E-005	0.00000E+000	8.92729E-005	5.39641E-002	9.80965E-001	3.57310E+000	9	...........
	151	2.02667	9.82271E-001	9.10428E-005	0.00000E+000	8.94287E-005	5.39641E-002	9.82466E-001	3.57310E+000	9	...........
	152	2.04	9.83754E-001	9.10428E-005	0.00000E+000	8.95637E-005	5.39641E-002	9.83956E-001	3.57310E+000	9	...........
	153	2.05333	9.85231E-001	9.10824E-005	0.00000E+000	8.97372E-005	5.39641E-002	9.85420E-001	3.57310E+000	9	...........
	154	2.06667	9.86692E-001	9.09783E-005	0.00000E+000	8.97675E-005	5.39641E-002	9.86897E-001	3.57310E+000	9	...........
	155	2.08	9.88172E-001	9.09991E-005	0.00000E+000	8.99227E-005	5.39641E-002	9.88359E-001	3.57310E+000	9	...........
	156	2.09333	9.89583E-001	9.08928E-005	0.00000E+000	8.99460E-005	5.39641E-002	9.89797E-001	3.57310E+000	9	...........
	157	2.10667	9.90989E-001	9.10283E-005	0.00000E+000	9.02080E-005	5.39641E-002	9.91197E-001	3.57310E+000	9	...........
	158	2.12	9.92387E-001	9.11533E-005	0.00000E+000	9.04593E-005	5.39641E-002	9.92594E-001	3.57310E+000	9	...........
	159	2.13333	9.93765E-001	9.11700E-005	0.00000E+000	9.06015E-005	5.39641E-002	9.93995E-001	3.57310E+000	9	...........
	160	2.14667	9.95183E-001	9.08751E-005	0.00000E+000	9.04374E-005	5.39641E-002	9.95355E-001	3.57310E+000	9	...........
	161	2.16	9.96546E-001	9.08324E-005	0.00000E+000	9.05187E-005	5.39641E-002	9.96734E-001	3.57310E+000	9	...........
	162	2.17333	9.97888E-001	9.10554E-005	0.00000E+000	9.08630E-005	5.39641E-002	9.98104E-001	3.57310E+000	9	...........
	163	2.18667	9.99228E-001	9.11898E-005	0.00000E+000	9.11194E-005	5.39641E-002	9.99441E-001	3.57310E+000	9	...........
	164	2.18833	1.00001E+000	9.11210E-005	0.00000E+000	9.11215E-005	5.39641E-002	1.00015E+000	3.57310E+000	9	...........
STARTTIMEOFFSET	QUANT	3169.392	Start Time Offset (s)
