EXPLAIN
TAG	PWR800_CHARGE
TITLE	LABEL	PWR Cyclic Charge Discharge (Cell) - Charge Step	Test &Identifier
DATE	LABEL	10-7-2017	Date
TIME	LABEL	15:27:53	Time
NOTES	NOTES	3	&Notes...
	supercap test cell
	0.9mg
	6M KOH
PSTAT	PSTAT	IFC5000-01520	Potentiostat
CAPACITY	QUANT	1.00000E-003	Capacity (A-hr)
CELLTYPE	SELECTOR	1	&Cell Type
WORKINGCONNECTION	SELECTOR	0	&Working Lead
MAXCHARGETIME	VARIABLEANDUNITS	1.00000E+002	s	1.00000E+002	second(s)	Max &Charge Time
CHARGECURRENT	QUANT	9.00000E-005	&Charge Current (A) 
VOLTAGEFINISH	TWOPARAM	F	1.00000E-003	3.60000E+003	&Voltage Finish	 I (A) < 	Max Time(s)
SAMPLETIME	QUANT	1.00000E-002	Sa&mple Period (s)
CHARGESTOPAT1	MULTIPARAM	4	1.00000E+000	Charge Stop At &1	Voltage > Limit	V
CHARGESTOPAT2	MULTIPARAM	0	0.00000E+000	Charge Stop At &2	None	N/A
AESBHCSELECTOR	TOGGLE	F	Save Both Half Cells
IRCOMP	TOGGLE	F	IR &Measure
EOC	QUANT	0	Open Circuit (V)
SEQUENCER	TOGGLE	TRUE	Run as Sequence
PSTATMODEL	IQUANT	53	Pstat Model
PSTATSECTION	LABEL	IFC5000-01520	Pstat Section
PSTATSERIALNO	LABEL	01520	Pstat Serial Number
CTRLMODE	IQUANT	0	Control Mode
ELECTROMETER	IQUANT	1	RE=0 or CS=1
IESTAB	IQUANT	0	I/E Stability
CASPEED	IQUANT	4	Control Amp Speed
CONVENTION	IQUANT	1	Current Convention
ICHRANGE	IQUANT	2	Ich Range
ICHRANGEMODE	TOGGLE	T	Ich Auto Range
ICHOFFSETENABLE	TOGGLE	F	Ich Offset Enable
ICHOFFSET	QUANT	0	Ich Offset (V)
ICHFILTER	IQUANT	1	Ich Filter
VCHRANGE	IQUANT	2	Vch Range
VCHRANGEMODE	TOGGLE	T	Vch Auto Range
VCHOFFSETENABLE	TOGGLE	F	Vch Offset Enable
VCHOFFSET	QUANT	0	Vch Offset (V)
VCHFILTER	IQUANT	1	Vch Filter
IERANGELOWERLIMIT	IQUANT	9	I/E Range Lower Limit
IERANGEMODE	TOGGLE	F	I/E AutoRange
IERANGE	IQUANT	9	I/E Range
ACHSELECT	IQUANT	1	Ach Select
ACHRANGE	IQUANT	2	Ach Range
ACHOFFSETENABLE	TOGGLE	F	Ach Offset Enable
ACHOFFSET	QUANT	0	Ach Offset (V)
ACHFILTER	IQUANT	1	Ach Filter
CABLEID	IQUANT	14	Cable ID
DCCALDATE	LABEL	5-7-2017	DC Calibration Date
ACCALDATE	LABEL	12/3/2015	AC Calibration Date
FRAMEWORKVERSION	QUANT	7.01	Framework Version
INSTRUMENTVERSION	LABEL	4.00	Instrument Version
CURVE	TABLE	175
	Pt	T	Vf	Im	Vu	Pwr	Sig	Ach	Temp	IERange	Over
	#	s	V	A	V	W	V	V	deg C	#	bits
	0	0.013333	2.79943E-001	9.10408E-005	0.00000E+000	2.54863E-005	5.39641E-002	2.79989E-001	3.57260E+000	9	...........
	1	0.026667	2.99508E-001	9.09137E-005	0.00000E+000	2.72293E-005	5.39641E-002	2.99546E-001	3.57260E+000	9	...........
	2	0.04	3.17654E-001	9.10595E-005	0.00000E+000	2.89254E-005	5.39641E-002	3.17692E-001	3.57260E+000	9	...........
	3	0.053333	3.34612E-001	9.10033E-005	0.00000E+000	3.04508E-005	5.39641E-002	3.34653E-001	3.57260E+000	9	...........
	4	0.066667	3.50567E-001	9.11043E-005	0.00000E+000	3.19382E-005	5.39641E-002	3.50611E-001	3.57260E+000	9	...........
	5	0.08	3.65649E-001	9.06657E-005	0.00000E+000	3.31518E-005	5.39641E-002	3.65689E-001	3.57260E+000	9	...........
	6	0.093333	3.79929E-001	9.10543E-005	0.00000E+000	3.45942E-005	5.39641E-002	3.79968E-001	3.57254E+000	9	...........
	7	0.106667	3.93518E-001	9.08063E-005	0.00000E+000	3.57340E-005	5.39641E-002	3.93561E-001	3.57250E+000	9	...........
	8	0.12	4.06487E-001	9.09366E-005	0.00000E+000	3.69646E-005	5.39641E-002	4.06530E-001	3.57250E+000	9	...........
	9	0.133333	4.18881E-001	9.10679E-005	0.00000E+000	3.81466E-005	5.39641E-002	4.18930E-001	3.57250E+000	9	...........
	10	0.146667	4.30752E-001	9.10533E-005	0.00000E+000	3.92214E-005	5.39641E-002	4.30803E-001	3.57250E+000	9	...........
	11	0.16	4.42152E-001	9.12262E-005	0.00000E+000	4.03359E-005	5.39641E-002	4.42204E-001	3.57250E+000	9	...........
	12	0.173333	4.53105E-001	9.09397E-005	0.00000E+000	4.12053E-005	5.39641E-002	4.53166E-001	3.57250E+000	9	...........
	13	0.186667	4.63652E-001	9.10168E-005	0.00000E+000	4.22001E-005	5.39641E-002	4.63704E-001	3.57250E+000	9	...........
	14	0.2	4.73823E-001	9.09293E-005	0.00000E+000	4.30844E-005	5.39641E-002	4.73878E-001	3.57250E+000	9	...........
	15	0.213333	4.83640E-001	9.09824E-005	0.00000E+000	4.40028E-005	5.39641E-002	4.83700E-001	3.57250E+000	9	...........
	16	0.226667	4.93146E-001	9.12429E-005	0.00000E+000	4.49961E-005	5.39641E-002	4.93208E-001	3.57250E+000	9	...........
	17	0.24	5.02340E-001	9.09522E-005	0.00000E+000	4.56889E-005	5.39641E-002	5.02407E-001	3.57250E+000	9	...........
	18	0.253333	5.11256E-001	9.09762E-005	0.00000E+000	4.65121E-005	5.39641E-002	5.11322E-001	3.57250E+000	9	...........
	19	0.266667	5.19901E-001	9.10053E-005	0.00000E+000	4.73137E-005	5.39641E-002	5.19968E-001	3.57250E+000	9	...........
	20	0.28	5.28288E-001	9.08793E-005	0.00000E+000	4.80104E-005	5.39641E-002	5.28358E-001	3.57250E+000	9	...........
	21	0.293333	5.36390E-001	9.10043E-005	0.00000E+000	4.88138E-005	5.39641E-002	5.36467E-001	3.57250E+000	9	...........
	22	0.306667	5.44294E-001	9.11887E-005	0.00000E+000	4.96335E-005	5.39641E-002	5.44399E-001	3.57250E+000	9	...........
	23	0.32	5.51988E-001	9.08022E-005	0.00000E+000	5.01217E-005	5.39641E-002	5.52097E-001	3.57250E+000	9	...........
	24	0.333333	5.59496E-001	9.12023E-005	0.00000E+000	5.10273E-005	5.39641E-002	5.59601E-001	3.57250E+000	9	...........
	25	0.346667	5.66876E-001	9.10574E-005	0.00000E+000	5.16183E-005	5.39641E-002	5.66961E-001	3.57250E+000	9	...........
	26	0.36	5.73996E-001	9.10033E-005	0.00000E+000	5.22355E-005	5.39641E-002	5.74072E-001	3.57250E+000	9	...........
	27	0.373333	5.80956E-001	9.08730E-005	0.00000E+000	5.27932E-005	5.39641E-002	5.81020E-001	3.57250E+000	9	...........
	28	0.386667	5.87764E-001	9.08449E-005	0.00000E+000	5.33953E-005	5.39641E-002	5.87833E-001	3.57250E+000	9	...........
	29	0.4	5.94404E-001	9.08803E-005	0.00000E+000	5.40196E-005	5.39641E-002	5.94495E-001	3.57250E+000	9	...........
	30	0.413333	6.00882E-001	9.12023E-005	0.00000E+000	5.48018E-005	5.39641E-002	6.00997E-001	3.57250E+000	9	...........
	31	0.426667	6.07230E-001	9.08793E-005	0.00000E+000	5.51846E-005	5.39641E-002	6.07341E-001	3.57250E+000	9	...........
	32	0.44	6.13451E-001	9.12648E-005	0.00000E+000	5.59864E-005	5.39641E-002	6.13566E-001	3.57250E+000	9	...........
	33	0.453333	6.19573E-001	9.10210E-005	0.00000E+000	5.63941E-005	5.39641E-002	6.19659E-001	3.57250E+000	9	...........
	34	0.466667	6.25523E-001	9.11741E-005	0.00000E+000	5.70315E-005	5.39641E-002	6.25619E-001	3.57250E+000	9	...........
	35	0.48	6.31329E-001	9.11002E-005	0.00000E+000	5.75141E-005	5.39641E-002	6.31454E-001	3.57250E+000	9	...........
	36	0.493333	6.37037E-001	9.12262E-005	0.00000E+000	5.81145E-005	5.39641E-002	6.37164E-001	3.57250E+000	9	...........
	37	0.506667	6.42645E-001	9.11054E-005	0.00000E+000	5.85484E-005	5.39641E-002	6.42747E-001	3.57250E+000	9	...........
	38	0.52	6.48130E-001	9.10303E-005	0.00000E+000	5.89995E-005	5.39641E-002	6.48241E-001	3.57250E+000	9	...........
	39	0.533333	6.53518E-001	9.09626E-005	0.00000E+000	5.94457E-005	5.39641E-002	6.53643E-001	3.57250E+000	9	...........
	40	0.546667	6.58807E-001	9.11137E-005	0.00000E+000	6.00264E-005	5.39641E-002	6.58918E-001	3.57250E+000	9	...........
	41	0.56	6.64001E-001	9.10647E-005	0.00000E+000	6.04670E-005	5.39641E-002	6.64143E-001	3.57250E+000	9	...........
	42	0.573333	6.69126E-001	9.07761E-005	0.00000E+000	6.07407E-005	5.39641E-002	6.69214E-001	3.57250E+000	9	...........
	43	0.586667	6.74109E-001	9.11585E-005	0.00000E+000	6.14508E-005	5.39641E-002	6.74204E-001	3.57250E+000	9	...........
	44	0.6	6.79051E-001	9.08543E-005	0.00000E+000	6.16947E-005	5.39641E-002	6.79158E-001	3.57250E+000	9	...........
	45	0.613333	6.83864E-001	9.09168E-005	0.00000E+000	6.21747E-005	5.39641E-002	6.83967E-001	3.57250E+000	9	...........
	46	0.626667	6.88616E-001	9.10970E-005	0.00000E+000	6.27309E-005	5.39641E-002	6.88730E-001	3.57250E+000	9	...........
	47	0.64	6.93278E-001	9.11147E-005	0.00000E+000	6.31678E-005	5.39641E-002	6.93383E-001	3.57250E+000	9	...........
	48	0.653333	6.97858E-001	9.12273E-005	0.00000E+000	6.36637E-005	5.39641E-002	6.97977E-001	3.57250E+000	9	...........
	49	0.666667	7.02375E-001	9.11241E-005	0.00000E+000	6.40033E-005	5.39641E-002	7.02499E-001	3.57250E+000	9	...........
	50	0.68	7.06836E-001	9.11658E-005	0.00000E+000	6.44393E-005	5.39641E-002	7.06945E-001	3.57250E+000	9	...........
	51	0.693333	7.11212E-001	9.11960E-005	0.00000E+000	6.48597E-005	5.39641E-002	7.11361E-001	3.57250E+000	9	...........
	52	0.706667	7.15513E-001	9.12033E-005	0.00000E+000	6.52572E-005	5.39641E-002	7.15658E-001	3.57250E+000	9	...........
	53	0.72	7.19811E-001	9.12471E-005	0.00000E+000	6.56807E-005	5.39641E-002	7.19919E-001	3.57250E+000	9	...........
	54	0.733333	7.23999E-001	9.11793E-005	0.00000E+000	6.60138E-005	5.39641E-002	7.24109E-001	3.57250E+000	9	...........
	55	0.746667	7.28109E-001	9.11179E-005	0.00000E+000	6.63438E-005	5.39641E-002	7.28234E-001	3.57250E+000	9	...........
	56	0.76	7.32190E-001	9.11106E-005	0.00000E+000	6.67102E-005	5.39641E-002	7.32299E-001	3.57250E+000	9	...........
	57	0.773333	7.36200E-001	9.12575E-005	0.00000E+000	6.71837E-005	5.39641E-002	7.36340E-001	3.57250E+000	9	...........
	58	0.786667	7.40202E-001	9.09658E-005	0.00000E+000	6.73331E-005	5.39641E-002	7.40353E-001	3.57250E+000	9	...........
	59	0.8	7.44148E-001	9.08824E-005	0.00000E+000	6.76299E-005	5.39641E-002	7.44309E-001	3.57250E+000	9	...........
	60	0.813333	7.48033E-001	9.09928E-005	0.00000E+000	6.80656E-005	5.39641E-002	7.48152E-001	3.57250E+000	9	...........
	61	0.826667	7.51861E-001	9.09460E-005	0.00000E+000	6.83787E-005	5.39641E-002	7.51975E-001	3.57250E+000	9	...........
	62	0.84	7.55649E-001	9.09137E-005	0.00000E+000	6.86989E-005	5.39641E-002	7.55753E-001	3.57250E+000	9	...........
	63	0.853333	7.59377E-001	9.10345E-005	0.00000E+000	6.91295E-005	5.39641E-002	7.59469E-001	3.57250E+000	9	...........
	64	0.866667	7.63041E-001	9.10658E-005	0.00000E+000	6.94869E-005	5.39641E-002	7.63125E-001	3.57250E+000	9	...........
	65	0.88	7.66655E-001	9.09137E-005	0.00000E+000	6.96994E-005	5.39641E-002	7.66760E-001	3.57250E+000	9	...........
	66	0.893333	7.70247E-001	9.08824E-005	0.00000E+000	7.00019E-005	5.39641E-002	7.70385E-001	3.57250E+000	9	...........
	67	0.906667	7.73785E-001	9.12241E-005	0.00000E+000	7.05879E-005	5.39641E-002	7.73891E-001	3.57250E+000	9	...........
	68	0.92	7.77245E-001	9.12023E-005	0.00000E+000	7.08865E-005	5.39641E-002	7.77365E-001	3.57250E+000	9	...........
	69	0.933333	7.80706E-001	9.12054E-005	0.00000E+000	7.12046E-005	5.39641E-002	7.80834E-001	3.57250E+000	9	...........
	70	0.946667	7.84124E-001	9.11002E-005	0.00000E+000	7.14338E-005	5.39641E-002	7.84241E-001	3.57250E+000	9	...........
	71	0.96	7.87511E-001	9.12450E-005	0.00000E+000	7.18564E-005	5.39641E-002	7.87619E-001	3.57250E+000	9	...........
	72	0.97333	7.90825E-001	9.07886E-005	0.00000E+000	7.17979E-005	5.39641E-002	7.90974E-001	3.57250E+000	9	...........
	73	0.98667	7.94136E-001	9.11481E-005	0.00000E+000	7.23840E-005	5.39641E-002	7.94307E-001	3.57250E+000	9	...........
	74	1	7.97411E-001	9.10158E-005	0.00000E+000	7.25770E-005	5.39641E-002	7.97540E-001	3.57250E+000	9	...........
	75	1.01333	8.00627E-001	9.10366E-005	0.00000E+000	7.28864E-005	5.39641E-002	8.00787E-001	3.57250E+000	9	...........
	76	1.02667	8.03777E-001	9.10668E-005	0.00000E+000	7.31974E-005	5.39641E-002	8.03947E-001	3.57250E+000	9	...........
	77	1.04	8.06953E-001	9.10689E-005	0.00000E+000	7.34884E-005	5.39641E-002	8.07136E-001	3.57250E+000	9	...........
	78	1.05333	8.10088E-001	9.10033E-005	0.00000E+000	7.37207E-005	5.39641E-002	8.10245E-001	3.57250E+000	9	...........
	79	1.06667	8.13174E-001	9.10960E-005	0.00000E+000	7.40769E-005	5.39641E-002	8.13325E-001	3.57250E+000	9	...........
	80	1.08	8.16181E-001	9.11856E-005	0.00000E+000	7.44239E-005	5.39641E-002	8.16366E-001	3.57250E+000	9	...........
	81	1.09333	8.19238E-001	9.11981E-005	0.00000E+000	7.47129E-005	5.39641E-002	8.19393E-001	3.57287E+000	9	...........
	82	1.10667	8.22212E-001	9.10543E-005	0.00000E+000	7.48659E-005	5.39641E-002	8.22385E-001	3.57310E+000	9	...........
	83	1.12	8.25148E-001	9.10220E-005	0.00000E+000	7.51066E-005	5.39641E-002	8.25333E-001	3.57310E+000	9	...........
	84	1.13333	8.28059E-001	9.12148E-005	0.00000E+000	7.55312E-005	5.39641E-002	8.28201E-001	3.57310E+000	9	...........
	85	1.14667	8.30937E-001	9.11377E-005	0.00000E+000	7.57297E-005	5.39641E-002	8.31081E-001	3.57310E+000	9	...........
	86	1.16	8.33797E-001	9.10679E-005	0.00000E+000	7.59321E-005	5.39641E-002	8.33926E-001	3.57310E+000	9	...........
	87	1.17333	8.36632E-001	9.11762E-005	0.00000E+000	7.62809E-005	5.39641E-002	8.36767E-001	3.57310E+000	9	...........
	88	1.18667	8.39419E-001	9.10960E-005	0.00000E+000	7.64677E-005	5.39641E-002	8.39551E-001	3.57310E+000	9	...........
	89	1.2	8.42158E-001	9.11700E-005	0.00000E+000	7.67795E-005	5.39641E-002	8.42301E-001	3.57310E+000	9	...........
	90	1.21333	8.44912E-001	9.13075E-005	0.00000E+000	7.71468E-005	5.39641E-002	8.45072E-001	3.57310E+000	9	...........
	91	1.22667	8.47625E-001	9.09564E-005	0.00000E+000	7.70969E-005	5.39641E-002	8.47775E-001	3.57310E+000	9	...........
	92	1.24	8.50282E-001	9.11283E-005	0.00000E+000	7.74847E-005	5.39641E-002	8.50456E-001	3.57310E+000	9	...........
	93	1.25333	8.52947E-001	9.11752E-005	0.00000E+000	7.77676E-005	5.39641E-002	8.53103E-001	3.57310E+000	9	...........
	94	1.26667	8.55570E-001	9.11439E-005	0.00000E+000	7.79800E-005	5.39641E-002	8.55746E-001	3.57310E+000	9	...........
	95	1.28	8.58190E-001	9.10741E-005	0.00000E+000	7.81589E-005	5.39641E-002	8.58383E-001	3.57310E+000	9	...........
	96	1.29333	8.60768E-001	9.09855E-005	0.00000E+000	7.83175E-005	5.39641E-002	8.60957E-001	3.57310E+000	9	...........
	97	1.30667	8.63297E-001	9.11783E-005	0.00000E+000	7.87139E-005	5.39641E-002	8.63466E-001	3.57310E+000	9	...........
	98	1.32	8.65820E-001	9.11429E-005	0.00000E+000	7.89133E-005	5.39641E-002	8.66022E-001	3.57310E+000	9	...........
	99	1.33333	8.68307E-001	9.11991E-005	0.00000E+000	7.91889E-005	5.39641E-002	8.68514E-001	3.57310E+000	9	...........
	100	1.34667	8.70813E-001	9.09418E-005	0.00000E+000	7.91933E-005	5.39641E-002	8.71006E-001	3.57310E+000	9	...........
	101	1.36	8.73278E-001	9.09835E-005	0.00000E+000	7.94539E-005	5.39641E-002	8.73474E-001	3.57310E+000	9	...........
	102	1.37333	8.75709E-001	9.11397E-005	0.00000E+000	7.98119E-005	5.39641E-002	8.75901E-001	3.57310E+000	9	...........
	103	1.38667	8.78091E-001	9.09845E-005	0.00000E+000	7.98927E-005	5.39641E-002	8.78276E-001	3.57310E+000	9	...........
	104	1.4	8.80454E-001	9.08991E-005	0.00000E+000	8.00325E-005	5.39641E-002	8.80626E-001	3.57310E+000	9	...........
	105	1.41333	8.82829E-001	9.11012E-005	0.00000E+000	8.04268E-005	5.39641E-002	8.83021E-001	3.57310E+000	9	...........
	106	1.42667	8.85181E-001	9.09835E-005	0.00000E+000	8.05368E-005	5.39641E-002	8.85342E-001	3.57310E+000	9	...........
	107	1.44	8.87497E-001	9.11397E-005	0.00000E+000	8.08862E-005	5.39641E-002	8.87638E-001	3.57310E+000	9	...........
	108	1.45333	8.89764E-001	9.10824E-005	0.00000E+000	8.10419E-005	5.39641E-002	8.89924E-001	3.57310E+000	9	...........
	109	1.46667	8.92027E-001	9.10501E-005	0.00000E+000	8.12192E-005	5.39641E-002	8.92204E-001	3.57310E+000	9	...........
	110	1.48	8.94236E-001	9.11491E-005	0.00000E+000	8.15088E-005	5.39641E-002	8.94442E-001	3.57310E+000	9	...........
	111	1.49333	8.96480E-001	9.09012E-005	0.00000E+000	8.14911E-005	5.39641E-002	8.96659E-001	3.57310E+000	9	...........
	112	1.50667	8.98669E-001	9.11991E-005	0.00000E+000	8.19578E-005	5.39641E-002	8.98864E-001	3.57310E+000	9	...........
	113	1.52	9.00813E-001	9.08543E-005	0.00000E+000	8.18427E-005	5.39641E-002	9.01007E-001	3.57310E+000	9	...........
	114	1.53333	9.02958E-001	9.10991E-005	0.00000E+000	8.22586E-005	5.39641E-002	9.03150E-001	3.57310E+000	9	...........
	115	1.54667	9.05097E-001	9.10939E-005	0.00000E+000	8.24488E-005	5.39641E-002	9.05284E-001	3.57310E+000	9	...........
	116	1.56	9.07200E-001	9.11272E-005	0.00000E+000	8.26707E-005	5.39641E-002	9.07397E-001	3.57310E+000	9	...........
	117	1.57333	9.09351E-001	9.09470E-005	0.00000E+000	8.27028E-005	5.39641E-002	9.09492E-001	3.57310E+000	9	...........
	118	1.58667	9.11386E-001	9.10428E-005	0.00000E+000	8.29752E-005	5.39641E-002	9.11568E-001	3.57310E+000	9	...........
	119	1.6	9.13429E-001	9.10606E-005	0.00000E+000	8.31774E-005	5.39641E-002	9.13620E-001	3.57310E+000	9	...........
	120	1.61333	9.15439E-001	9.10918E-005	0.00000E+000	8.33890E-005	5.39641E-002	9.15658E-001	3.57310E+000	9	...........
	121	1.62667	9.17447E-001	9.09585E-005	0.00000E+000	8.34495E-005	5.39641E-002	9.17640E-001	3.57310E+000	9	...........
	122	1.64	9.19411E-001	9.11147E-005	0.00000E+000	8.37719E-005	5.39641E-002	9.19618E-001	3.57310E+000	9	...........
	123	1.65333	9.21431E-001	9.13523E-005	0.00000E+000	8.41748E-005	5.39641E-002	9.21588E-001	3.57310E+000	9	...........
	124	1.66667	9.23403E-001	9.12179E-005	0.00000E+000	8.42308E-005	5.39641E-002	9.23544E-001	3.57310E+000	9	...........
	125	1.68	9.25300E-001	9.08980E-005	0.00000E+000	8.41079E-005	5.39641E-002	9.25455E-001	3.57310E+000	9	...........
	126	1.69333	9.27190E-001	9.09814E-005	0.00000E+000	8.43571E-005	5.39641E-002	9.27372E-001	3.57310E+000	9	...........
	127	1.70667	9.29047E-001	9.09574E-005	0.00000E+000	8.45037E-005	5.39641E-002	9.29232E-001	3.57310E+000	9	...........
	128	1.72	9.30898E-001	9.13627E-005	0.00000E+000	8.50494E-005	5.39641E-002	9.31068E-001	3.57310E+000	9	...........
	129	1.73333	9.32741E-001	9.09616E-005	0.00000E+000	8.48436E-005	5.39641E-002	9.32927E-001	3.57310E+000	9	...........
	130	1.74667	9.34563E-001	9.12168E-005	0.00000E+000	8.52479E-005	5.39641E-002	9.34784E-001	3.57310E+000	9	...........
	131	1.76	9.36369E-001	9.09991E-005	0.00000E+000	8.52087E-005	5.39641E-002	9.36579E-001	3.57310E+000	9	...........
	132	1.77333	9.38142E-001	9.11106E-005	0.00000E+000	8.54747E-005	5.39641E-002	9.38364E-001	3.57310E+000	9	...........
	133	1.78667	9.39935E-001	9.10595E-005	0.00000E+000	8.55900E-005	5.39641E-002	9.40160E-001	3.57310E+000	9	...........
	134	1.8	9.41727E-001	9.11502E-005	0.00000E+000	8.58386E-005	5.39641E-002	9.41893E-001	3.57310E+000	9	...........
	135	1.81333	9.43469E-001	9.09209E-005	0.00000E+000	8.57811E-005	5.39641E-002	9.43626E-001	3.57310E+000	9	...........
	136	1.82667	9.45182E-001	9.10022E-005	0.00000E+000	8.60137E-005	5.39641E-002	9.45356E-001	3.57310E+000	9	...........
	137	1.84	9.46941E-001	9.13575E-005	0.00000E+000	8.65102E-005	5.39641E-002	9.47093E-001	3.57310E+000	9	...........
	138	1.85333	9.48627E-001	9.09783E-005	0.00000E+000	8.63044E-005	5.39641E-002	9.48786E-001	3.57310E+000	9	...........
	139	1.86667	9.50291E-001	9.10616E-005	0.00000E+000	8.65351E-005	5.39641E-002	9.50458E-001	3.57310E+000	9	...........
	140	1.88	9.51970E-001	9.10022E-005	0.00000E+000	8.66313E-005	5.39641E-002	9.52133E-001	3.57310E+000	9	...........
	141	1.89333	9.53605E-001	9.09835E-005	0.00000E+000	8.67623E-005	5.39641E-002	9.53754E-001	3.57310E+000	9	...........
	142	1.90667	9.55218E-001	9.12502E-005	0.00000E+000	8.71638E-005	5.39641E-002	9.55384E-001	3.57310E+000	9	...........
	143	1.92	9.56830E-001	9.10043E-005	0.00000E+000	8.70757E-005	5.39641E-002	9.56979E-001	3.57310E+000	9	...........
	144	1.93333	9.58382E-001	9.11481E-005	0.00000E+000	8.73547E-005	5.39641E-002	9.58583E-001	3.57310E+000	9	...........
	145	1.94667	9.59978E-001	9.11648E-005	0.00000E+000	8.75161E-005	5.39641E-002	9.60159E-001	3.57310E+000	9	...........
	146	1.96	9.61513E-001	9.09324E-005	0.00000E+000	8.74327E-005	5.39641E-002	9.61724E-001	3.57310E+000	9	...........
	147	1.97333	9.63056E-001	9.10783E-005	0.00000E+000	8.77135E-005	5.39641E-002	9.63251E-001	3.57310E+000	9	...........
	148	1.98667	9.64570E-001	9.10189E-005	0.00000E+000	8.77941E-005	5.39641E-002	9.64766E-001	3.57310E+000	9	...........
	149	2	9.66072E-001	9.11314E-005	0.00000E+000	8.80395E-005	5.39641E-002	9.66283E-001	3.57310E+000	9	...........
	150	2.01333	9.67567E-001	9.11304E-005	0.00000E+000	8.81747E-005	5.39641E-002	9.67788E-001	3.57310E+000	9	...........
	151	2.02667	9.69082E-001	9.12116E-005	0.00000E+000	8.83916E-005	5.39641E-002	9.69258E-001	3.57310E+000	9	...........
	152	2.04	9.70541E-001	9.12450E-005	0.00000E+000	8.85570E-005	5.39641E-002	9.70751E-001	3.57310E+000	9	...........
	153	2.05333	9.72017E-001	9.12273E-005	0.00000E+000	8.86744E-005	5.39641E-002	9.72235E-001	3.57310E+000	9	...........
	154	2.06667	9.73501E-001	9.09897E-005	0.00000E+000	8.85786E-005	5.39641E-002	9.73656E-001	3.57310E+000	9	...........
	155	2.08	9.74919E-001	9.11512E-005	0.00000E+000	8.88651E-005	5.39641E-002	9.75084E-001	3.57310E+000	9	...........
	156	2.09333	9.76339E-001	9.08699E-005	0.00000E+000	8.87198E-005	5.39641E-002	9.76481E-001	3.57254E+000	9	...........
	157	2.10667	9.77725E-001	9.12491E-005	0.00000E+000	8.92166E-005	5.39641E-002	9.77905E-001	3.57220E+000	9	...........
	158	2.12	9.79128E-001	9.08126E-005	0.00000E+000	8.89172E-005	5.39641E-002	9.79259E-001	3.57220E+000	9	...........
	159	2.13333	9.80489E-001	9.13190E-005	0.00000E+000	8.95372E-005	5.39641E-002	9.80646E-001	3.57220E+000	9	...........
	160	2.14667	9.81829E-001	9.14502E-005	0.00000E+000	8.97885E-005	5.39641E-002	9.82002E-001	3.57220E+000	9	...........
	161	2.16	9.83174E-001	9.12387E-005	0.00000E+000	8.97035E-005	5.39641E-002	9.83360E-001	3.57220E+000	9	...........
	162	2.17333	9.84522E-001	9.11189E-005	0.00000E+000	8.97085E-005	5.39641E-002	9.84710E-001	3.57220E+000	9	...........
	163	2.18667	9.85816E-001	9.11741E-005	0.00000E+000	8.98809E-005	5.39641E-002	9.86019E-001	3.57220E+000	9	...........
	164	2.2	9.87125E-001	9.12304E-005	0.00000E+000	9.00558E-005	5.39641E-002	9.87309E-001	3.57220E+000	9	...........
	165	2.21333	9.88409E-001	9.11074E-005	0.00000E+000	9.00514E-005	5.39641E-002	9.88609E-001	3.57220E+000	9	...........
	166	2.22667	9.89690E-001	9.10387E-005	0.00000E+000	9.01001E-005	5.39641E-002	9.89889E-001	3.57220E+000	9	...........
	167	2.24	9.90983E-001	9.11272E-005	0.00000E+000	9.03055E-005	5.39641E-002	9.91181E-001	3.57220E+000	9	...........
	168	2.25333	9.92229E-001	9.10772E-005	0.00000E+000	9.03695E-005	5.39641E-002	9.92430E-001	3.57220E+000	9	...........
	169	2.26667	9.93460E-001	9.11700E-005	0.00000E+000	9.05737E-005	5.39641E-002	9.93664E-001	3.57220E+000	9	...........
	170	2.28	9.94707E-001	9.11689E-005	0.00000E+000	9.06863E-005	5.39641E-002	9.94881E-001	3.57220E+000	9	...........
	171	2.29333	9.95923E-001	9.08876E-005	0.00000E+000	9.05171E-005	5.39641E-002	9.96100E-001	3.57220E+000	9	...........
	172	2.30667	9.97146E-001	9.09241E-005	0.00000E+000	9.06646E-005	5.39641E-002	9.97332E-001	3.57220E+000	9	...........
	173	2.32	9.98379E-001	9.11272E-005	0.00000E+000	9.09795E-005	5.39641E-002	9.98562E-001	3.57220E+000	9	...........
	174	2.33333	9.99586E-001	9.09272E-005	0.00000E+000	9.08895E-005	5.39641E-002	9.99750E-001	3.57220E+000	9	...........
STARTTIMEOFFSET	QUANT	1450.932	Start Time Offset (s)
