EXPLAIN
TAG	PWR800_CHARGE
TITLE	LABEL	PWR Cyclic Charge Discharge (Cell) - Charge Step	Test &Identifier
DATE	LABEL	10-7-2017	Date
TIME	LABEL	15:24:18	Time
NOTES	NOTES	3	&Notes...
	supercap test cell
	0.9mg
	6M KOH
PSTAT	PSTAT	IFC5000-01520	Potentiostat
CAPACITY	QUANT	1.00000E-003	Capacity (A-hr)
CELLTYPE	SELECTOR	1	&Cell Type
WORKINGCONNECTION	SELECTOR	0	&Working Lead
MAXCHARGETIME	VARIABLEANDUNITS	1.00000E+002	s	1.00000E+002	second(s)	Max &Charge Time
CHARGECURRENT	QUANT	9.00000E-005	&Charge Current (A) 
VOLTAGEFINISH	TWOPARAM	F	1.00000E-003	3.60000E+003	&Voltage Finish	 I (A) < 	Max Time(s)
SAMPLETIME	QUANT	1.00000E-002	Sa&mple Period (s)
CHARGESTOPAT1	MULTIPARAM	4	1.00000E+000	Charge Stop At &1	Voltage > Limit	V
CHARGESTOPAT2	MULTIPARAM	0	0.00000E+000	Charge Stop At &2	None	N/A
AESBHCSELECTOR	TOGGLE	F	Save Both Half Cells
IRCOMP	TOGGLE	F	IR &Measure
EOC	QUANT	0	Open Circuit (V)
SEQUENCER	TOGGLE	TRUE	Run as Sequence
PSTATMODEL	IQUANT	53	Pstat Model
PSTATSECTION	LABEL	IFC5000-01520	Pstat Section
PSTATSERIALNO	LABEL	01520	Pstat Serial Number
CTRLMODE	IQUANT	0	Control Mode
ELECTROMETER	IQUANT	1	RE=0 or CS=1
IESTAB	IQUANT	0	I/E Stability
CASPEED	IQUANT	4	Control Amp Speed
CONVENTION	IQUANT	1	Current Convention
ICHRANGE	IQUANT	2	Ich Range
ICHRANGEMODE	TOGGLE	T	Ich Auto Range
ICHOFFSETENABLE	TOGGLE	F	Ich Offset Enable
ICHOFFSET	QUANT	0	Ich Offset (V)
ICHFILTER	IQUANT	1	Ich Filter
VCHRANGE	IQUANT	2	Vch Range
VCHRANGEMODE	TOGGLE	T	Vch Auto Range
VCHOFFSETENABLE	TOGGLE	F	Vch Offset Enable
VCHOFFSET	QUANT	0	Vch Offset (V)
VCHFILTER	IQUANT	1	Vch Filter
IERANGELOWERLIMIT	IQUANT	9	I/E Range Lower Limit
IERANGEMODE	TOGGLE	F	I/E AutoRange
IERANGE	IQUANT	9	I/E Range
ACHSELECT	IQUANT	1	Ach Select
ACHRANGE	IQUANT	2	Ach Range
ACHOFFSETENABLE	TOGGLE	F	Ach Offset Enable
ACHOFFSET	QUANT	0	Ach Offset (V)
ACHFILTER	IQUANT	1	Ach Filter
CABLEID	IQUANT	14	Cable ID
DCCALDATE	LABEL	5-7-2017	DC Calibration Date
ACCALDATE	LABEL	12/3/2015	AC Calibration Date
FRAMEWORKVERSION	QUANT	7.01	Framework Version
INSTRUMENTVERSION	LABEL	4.00	Instrument Version
CURVE	TABLE	175
	Pt	T	Vf	Im	Vu	Pwr	Sig	Ach	Temp	IERange	Over
	#	s	V	A	V	W	V	V	deg C	#	bits
	0	0.013333	2.82355E-001	9.09012E-005	0.00000E+000	2.56664E-005	5.39641E-002	2.82390E-001	3.57240E+000	9	...........
	1	0.026667	3.01842E-001	9.08001E-005	0.00000E+000	2.74073E-005	5.39641E-002	3.01874E-001	3.57240E+000	9	...........
	2	0.04	3.19910E-001	9.09376E-005	0.00000E+000	2.90919E-005	5.39641E-002	3.19948E-001	3.57240E+000	9	...........
	3	0.053333	3.36784E-001	9.11887E-005	0.00000E+000	3.07109E-005	5.39641E-002	3.36821E-001	3.57240E+000	9	...........
	4	0.066667	3.52645E-001	9.09376E-005	0.00000E+000	3.20687E-005	5.39641E-002	3.52683E-001	3.57240E+000	9	...........
	5	0.08	3.67620E-001	9.08876E-005	0.00000E+000	3.34121E-005	5.39641E-002	3.67660E-001	3.57240E+000	9	...........
	6	0.093333	3.81810E-001	9.11168E-005	0.00000E+000	3.47893E-005	5.39641E-002	3.81853E-001	3.57240E+000	9	...........
	7	0.106667	3.95300E-001	9.09699E-005	0.00000E+000	3.59604E-005	5.39641E-002	3.95348E-001	3.57240E+000	9	...........
	8	0.12	4.08165E-001	9.11835E-005	0.00000E+000	3.72179E-005	5.39641E-002	4.08213E-001	3.57240E+000	9	...........
	9	0.133333	4.20461E-001	9.09803E-005	0.00000E+000	3.82537E-005	5.39641E-002	4.20517E-001	3.57240E+000	9	...........
	10	0.146667	4.32251E-001	9.08282E-005	0.00000E+000	3.92606E-005	5.39641E-002	4.32305E-001	3.57240E+000	9	...........
	11	0.16	4.43585E-001	9.09772E-005	0.00000E+000	4.03562E-005	5.39641E-002	4.43642E-001	3.57240E+000	9	...........
	12	0.173333	4.54479E-001	9.10022E-005	0.00000E+000	4.13586E-005	5.39641E-002	4.54535E-001	3.57240E+000	9	...........
	13	0.186667	4.64982E-001	9.10856E-005	0.00000E+000	4.23531E-005	5.39641E-002	4.65032E-001	3.57240E+000	9	...........
	14	0.2	4.75102E-001	9.11648E-005	0.00000E+000	4.33125E-005	5.39641E-002	4.75161E-001	3.57240E+000	9	...........
	15	0.213333	4.84897E-001	9.11095E-005	0.00000E+000	4.41787E-005	5.39641E-002	4.84955E-001	3.57240E+000	9	...........
	16	0.226667	4.94355E-001	9.08220E-005	0.00000E+000	4.48983E-005	5.39641E-002	4.94419E-001	3.57240E+000	9	...........
	17	0.24	5.03518E-001	9.10220E-005	0.00000E+000	4.58313E-005	5.39641E-002	5.03584E-001	3.57240E+000	9	...........
	18	0.253333	5.12388E-001	9.12543E-005	0.00000E+000	4.67576E-005	5.39641E-002	5.12453E-001	3.57240E+000	9	...........
	19	0.266667	5.21005E-001	9.11210E-005	0.00000E+000	4.74745E-005	5.39641E-002	5.21068E-001	3.57240E+000	9	...........
	20	0.28	5.29369E-001	9.11929E-005	0.00000E+000	4.82747E-005	5.39641E-002	5.29441E-001	3.57240E+000	9	...........
	21	0.293333	5.37420E-001	9.09835E-005	0.00000E+000	4.88963E-005	5.39641E-002	5.37517E-001	3.57240E+000	9	...........
	22	0.306667	5.45325E-001	9.11575E-005	0.00000E+000	4.97105E-005	5.39641E-002	5.45449E-001	3.57240E+000	9	...........
	23	0.32	5.53023E-001	9.10856E-005	0.00000E+000	5.03724E-005	5.39641E-002	5.53150E-001	3.57240E+000	9	...........
	24	0.333333	5.60530E-001	9.09710E-005	0.00000E+000	5.09919E-005	5.39641E-002	5.60676E-001	3.57240E+000	9	...........
	25	0.346667	5.67876E-001	9.11418E-005	0.00000E+000	5.17573E-005	5.39641E-002	5.68012E-001	3.57240E+000	9	...........
	26	0.36	5.75001E-001	9.10189E-005	0.00000E+000	5.23360E-005	5.39641E-002	5.75128E-001	3.57240E+000	9	...........
	27	0.373333	5.81924E-001	9.10397E-005	0.00000E+000	5.29782E-005	5.39641E-002	5.82075E-001	3.57240E+000	9	...........
	28	0.386667	5.88737E-001	9.10699E-005	0.00000E+000	5.36162E-005	5.39641E-002	5.88870E-001	3.57240E+000	9	...........
	29	0.4	5.95374E-001	9.11325E-005	0.00000E+000	5.42579E-005	5.39641E-002	5.95513E-001	3.57240E+000	9	...........
	30	0.413333	6.01855E-001	9.12825E-005	0.00000E+000	5.49388E-005	5.39641E-002	6.01987E-001	3.57240E+000	9	...........
	31	0.426667	6.08191E-001	9.09157E-005	0.00000E+000	5.52942E-005	5.39641E-002	6.08316E-001	3.57240E+000	9	...........
	32	0.44	6.14398E-001	9.09658E-005	0.00000E+000	5.58892E-005	5.39641E-002	6.14523E-001	3.57240E+000	9	...........
	33	0.453333	6.20508E-001	9.10397E-005	0.00000E+000	5.64909E-005	5.39641E-002	6.20574E-001	3.57240E+000	9	...........
	34	0.466667	6.26447E-001	9.12752E-005	0.00000E+000	5.71790E-005	5.39641E-002	6.26522E-001	3.57240E+000	9	...........
	35	0.48	6.32239E-001	9.11377E-005	0.00000E+000	5.76208E-005	5.39641E-002	6.32319E-001	3.57240E+000	9	...........
	36	0.493333	6.37926E-001	9.11398E-005	0.00000E+000	5.81404E-005	5.39641E-002	6.38017E-001	3.57240E+000	9	...........
	37	0.506667	6.43541E-001	9.10824E-005	0.00000E+000	5.86152E-005	5.39641E-002	6.43617E-001	3.57240E+000	9	...........
	38	0.52	6.49003E-001	9.12325E-005	0.00000E+000	5.92101E-005	5.39641E-002	6.49111E-001	3.57240E+000	9	...........
	39	0.533333	6.54397E-001	9.08220E-005	0.00000E+000	5.94336E-005	5.39641E-002	6.54495E-001	3.57240E+000	9	...........
	40	0.546667	6.59671E-001	9.10772E-005	0.00000E+000	6.00811E-005	5.39641E-002	6.59797E-001	3.57240E+000	9	...........
	41	0.56	6.64883E-001	9.12221E-005	0.00000E+000	6.06520E-005	5.39641E-002	6.65004E-001	3.57240E+000	9	...........
	42	0.573333	6.70000E-001	9.09835E-005	0.00000E+000	6.09589E-005	5.39641E-002	6.70098E-001	3.57240E+000	9	...........
	43	0.586667	6.75003E-001	9.12648E-005	0.00000E+000	6.16040E-005	5.39641E-002	6.75132E-001	3.57240E+000	9	...........
	44	0.6	6.79920E-001	9.08032E-005	0.00000E+000	6.17389E-005	5.39641E-002	6.80045E-001	3.57240E+000	9	...........
	45	0.613333	6.84761E-001	9.10564E-005	0.00000E+000	6.23518E-005	5.39641E-002	6.84887E-001	3.57240E+000	9	...........
	46	0.626667	6.89509E-001	9.09918E-005	0.00000E+000	6.27396E-005	5.39641E-002	6.89653E-001	3.57240E+000	9	...........
	47	0.64	6.94219E-001	9.10887E-005	0.00000E+000	6.32355E-005	5.39641E-002	6.94348E-001	3.57240E+000	9	...........
	48	0.653333	6.98806E-001	9.11720E-005	0.00000E+000	6.37116E-005	5.39641E-002	6.98945E-001	3.57240E+000	9	...........
	49	0.666667	7.03326E-001	9.13137E-005	0.00000E+000	6.42234E-005	5.39641E-002	7.03460E-001	3.57240E+000	9	...........
	50	0.68	7.07818E-001	9.13002E-005	0.00000E+000	6.46239E-005	5.39641E-002	7.07961E-001	3.57240E+000	9	...........
	51	0.693333	7.12208E-001	9.10210E-005	0.00000E+000	6.48259E-005	5.39641E-002	7.12350E-001	3.57240E+000	9	...........
	52	0.706667	7.16569E-001	9.10074E-005	0.00000E+000	6.52131E-005	5.39641E-002	7.16715E-001	3.57240E+000	9	...........
	53	0.72	7.20868E-001	9.08637E-005	0.00000E+000	6.55007E-005	5.39641E-002	7.20996E-001	3.57240E+000	9	...........
	54	0.733333	7.25064E-001	9.10887E-005	0.00000E+000	6.60452E-005	5.39641E-002	7.25179E-001	3.57240E+000	9	...........
	55	0.746667	7.29167E-001	9.12033E-005	0.00000E+000	6.65024E-005	5.39641E-002	7.29298E-001	3.57240E+000	9	...........
	56	0.76	7.33246E-001	9.14023E-005	0.00000E+000	6.70204E-005	5.39641E-002	7.33383E-001	3.57240E+000	9	...........
	57	0.773333	7.37239E-001	9.11418E-005	0.00000E+000	6.71933E-005	5.39641E-002	7.37383E-001	3.57240E+000	9	...........
	58	0.786667	7.41198E-001	9.09668E-005	0.00000E+000	6.74244E-005	5.39641E-002	7.41335E-001	3.57240E+000	9	...........
	59	0.8	7.45127E-001	9.12106E-005	0.00000E+000	6.79635E-005	5.39641E-002	7.45265E-001	3.57240E+000	9	...........
	60	0.813333	7.48971E-001	9.10033E-005	0.00000E+000	6.81588E-005	5.39641E-002	7.49088E-001	3.57240E+000	9	...........
	61	0.826667	7.52747E-001	9.11616E-005	0.00000E+000	6.86217E-005	5.39641E-002	7.52907E-001	3.57240E+000	9	...........
	62	0.84	7.56515E-001	9.11283E-005	0.00000E+000	6.89399E-005	5.39641E-002	7.56631E-001	3.57240E+000	9	...........
	63	0.853333	7.60204E-001	9.10762E-005	0.00000E+000	6.92364E-005	5.39641E-002	7.60345E-001	3.57240E+000	9	...........
	64	0.866667	7.63856E-001	9.11387E-005	0.00000E+000	6.96169E-005	5.39641E-002	7.63999E-001	3.57270E+000	9	...........
	65	0.88	7.67476E-001	9.09178E-005	0.00000E+000	6.97773E-005	5.39641E-002	7.67649E-001	3.57360E+000	9	...........
	66	0.893333	7.71059E-001	9.09230E-005	0.00000E+000	7.01070E-005	5.39641E-002	7.71217E-001	3.57360E+000	9	...........
	67	0.906667	7.74570E-001	9.10512E-005	0.00000E+000	7.05255E-005	5.39641E-002	7.74704E-001	3.57360E+000	9	...........
	68	0.92	7.78049E-001	9.10397E-005	0.00000E+000	7.08334E-005	5.39641E-002	7.78197E-001	3.57360E+000	9	...........
	69	0.933333	7.81495E-001	9.12398E-005	0.00000E+000	7.13034E-005	5.39641E-002	7.81632E-001	3.57360E+000	9	...........
	70	0.946667	7.84878E-001	9.09616E-005	0.00000E+000	7.13937E-005	5.39641E-002	7.85017E-001	3.57360E+000	9	...........
	71	0.96	7.88250E-001	9.12054E-005	0.00000E+000	7.18927E-005	5.39641E-002	7.88364E-001	3.57360E+000	9	...........
	72	0.97333	7.91573E-001	9.09376E-005	0.00000E+000	7.19837E-005	5.39641E-002	7.91699E-001	3.57360E+000	9	...........
	73	0.98667	7.94888E-001	9.10637E-005	0.00000E+000	7.23854E-005	5.39641E-002	7.95022E-001	3.57360E+000	9	...........
	74	1	7.98103E-001	9.08032E-005	0.00000E+000	7.24703E-005	5.39641E-002	7.98227E-001	3.57360E+000	9	...........
	75	1.01333	8.01299E-001	9.10512E-005	0.00000E+000	7.29592E-005	5.39641E-002	8.01448E-001	3.57360E+000	9	...........
	76	1.02667	8.04465E-001	9.12658E-005	0.00000E+000	7.34202E-005	5.39641E-002	8.04612E-001	3.57360E+000	9	...........
	77	1.04	8.07591E-001	9.09981E-005	0.00000E+000	7.34892E-005	5.39641E-002	8.07725E-001	3.57360E+000	9	...........
	78	1.05333	8.10655E-001	9.10397E-005	0.00000E+000	7.38018E-005	5.39641E-002	8.10800E-001	3.57360E+000	9	...........
	79	1.06667	8.13707E-001	9.11199E-005	0.00000E+000	7.41450E-005	5.39641E-002	8.13860E-001	3.57360E+000	9	...........
	80	1.08	8.16715E-001	9.10231E-005	0.00000E+000	7.43398E-005	5.39641E-002	8.16873E-001	3.57360E+000	9	...........
	81	1.09333	8.19758E-001	9.09814E-005	0.00000E+000	7.45827E-005	5.39641E-002	8.19897E-001	3.57360E+000	9	...........
	82	1.10667	8.22708E-001	9.12533E-005	0.00000E+000	7.50748E-005	5.39641E-002	8.22856E-001	3.57360E+000	9	...........
	83	1.12	8.25642E-001	9.12189E-005	0.00000E+000	7.53141E-005	5.39641E-002	8.25776E-001	3.57360E+000	9	...........
	84	1.13333	8.28526E-001	9.09282E-005	0.00000E+000	7.53364E-005	5.39641E-002	8.28647E-001	3.57360E+000	9	...........
	85	1.14667	8.31400E-001	9.10033E-005	0.00000E+000	7.56601E-005	5.39641E-002	8.31532E-001	3.57360E+000	9	...........
	86	1.16	8.34241E-001	9.11689E-005	0.00000E+000	7.60569E-005	5.39641E-002	8.34407E-001	3.57360E+000	9	...........
	87	1.17333	8.37047E-001	9.13596E-005	0.00000E+000	7.64723E-005	5.39641E-002	8.37226E-001	3.57360E+000	9	...........
	88	1.18667	8.39856E-001	9.10324E-005	0.00000E+000	7.64541E-005	5.39641E-002	8.40011E-001	3.57360E+000	9	...........
	89	1.2	8.42557E-001	9.08876E-005	0.00000E+000	7.65780E-005	5.39641E-002	8.42763E-001	3.57360E+000	9	...........
	90	1.21333	8.45369E-001	9.10053E-005	0.00000E+000	7.69331E-005	5.39641E-002	8.45527E-001	3.57360E+000	9	...........
	91	1.22667	8.48070E-001	9.09751E-005	0.00000E+000	7.71533E-005	5.39641E-002	8.48231E-001	3.57360E+000	9	...........
	92	1.24	8.50733E-001	9.10918E-005	0.00000E+000	7.74948E-005	5.39641E-002	8.50907E-001	3.57360E+000	9	...........
	93	1.25333	8.53374E-001	9.10699E-005	0.00000E+000	7.77167E-005	5.39641E-002	8.53511E-001	3.57360E+000	9	...........
	94	1.26667	8.56007E-001	9.10501E-005	0.00000E+000	7.79395E-005	5.39641E-002	8.56146E-001	3.57360E+000	9	...........
	95	1.28	8.58594E-001	9.10585E-005	0.00000E+000	7.81822E-005	5.39641E-002	8.58744E-001	3.57360E+000	9	...........
	96	1.29333	8.61163E-001	9.11022E-005	0.00000E+000	7.84539E-005	5.39641E-002	8.61324E-001	3.57360E+000	9	...........
	97	1.30667	8.63689E-001	9.11502E-005	0.00000E+000	7.87254E-005	5.39641E-002	8.63843E-001	3.57360E+000	9	...........
	98	1.32	8.66164E-001	9.10053E-005	0.00000E+000	7.88256E-005	5.39641E-002	8.66343E-001	3.57360E+000	9	...........
	99	1.33333	8.68669E-001	9.07855E-005	0.00000E+000	7.88625E-005	5.39641E-002	8.68841E-001	3.57360E+000	9	...........
	100	1.34667	8.71158E-001	9.12867E-005	0.00000E+000	7.95251E-005	5.39641E-002	8.71314E-001	3.57360E+000	9	...........
	101	1.36	8.73563E-001	9.10293E-005	0.00000E+000	7.95198E-005	5.39641E-002	8.73749E-001	3.57360E+000	9	...........
	102	1.37333	8.75975E-001	9.09407E-005	0.00000E+000	7.96618E-005	5.39641E-002	8.76157E-001	3.57360E+000	9	...........
	103	1.38667	8.78351E-001	9.10866E-005	0.00000E+000	8.00060E-005	5.39641E-002	8.78516E-001	3.57360E+000	9	...........
	104	1.4	8.80686E-001	9.12637E-005	0.00000E+000	8.03747E-005	5.39641E-002	8.80866E-001	3.57360E+000	9	...........
	105	1.41333	8.83038E-001	9.09605E-005	0.00000E+000	8.03216E-005	5.39641E-002	8.83212E-001	3.57360E+000	9	...........
	106	1.42667	8.85337E-001	9.11147E-005	0.00000E+000	8.06673E-005	5.39641E-002	8.85516E-001	3.57360E+000	9	...........
	107	1.44	8.87623E-001	9.08980E-005	0.00000E+000	8.06832E-005	5.39641E-002	8.87802E-001	3.57360E+000	9	...........
	108	1.45333	8.89892E-001	9.12783E-005	0.00000E+000	8.12278E-005	5.39641E-002	8.90047E-001	3.57360E+000	9	...........
	109	1.46667	8.92132E-001	9.11752E-005	0.00000E+000	8.13403E-005	5.39641E-002	8.92308E-001	3.57360E+000	9	...........
	110	1.48	8.94338E-001	9.10439E-005	0.00000E+000	8.14240E-005	5.39641E-002	8.94525E-001	3.57360E+000	9	...........
	111	1.49333	8.96544E-001	9.11835E-005	0.00000E+000	8.17500E-005	5.39641E-002	8.96762E-001	3.57360E+000	9	...........
	112	1.50667	8.98740E-001	9.12721E-005	0.00000E+000	8.20298E-005	5.39641E-002	8.98928E-001	3.57360E+000	9	...........
	113	1.52	9.00889E-001	9.11345E-005	0.00000E+000	8.21021E-005	5.39641E-002	9.01084E-001	3.57360E+000	9	...........
	114	1.53333	9.03040E-001	9.12856E-005	0.00000E+000	8.24346E-005	5.39641E-002	9.03233E-001	3.57360E+000	9	...........
	115	1.54667	9.05158E-001	9.10606E-005	0.00000E+000	8.24242E-005	5.39641E-002	9.05373E-001	3.57360E+000	9	...........
	116	1.56	9.07265E-001	9.11074E-005	0.00000E+000	8.26586E-005	5.39641E-002	9.07469E-001	3.57360E+000	9	...........
	117	1.57333	9.09368E-001	9.10918E-005	0.00000E+000	8.28359E-005	5.39641E-002	9.09543E-001	3.57360E+000	9	...........
	118	1.58667	9.11404E-001	9.11918E-005	0.00000E+000	8.31127E-005	5.39641E-002	9.11597E-001	3.57360E+000	9	...........
	119	1.6	9.13443E-001	9.09980E-005	0.00000E+000	8.31215E-005	5.39641E-002	9.13653E-001	3.57360E+000	9	...........
	120	1.61333	9.15444E-001	9.08918E-005	0.00000E+000	8.32063E-005	5.39641E-002	9.15677E-001	3.57360E+000	9	...........
	121	1.62667	9.17452E-001	9.12439E-005	0.00000E+000	8.37119E-005	5.39641E-002	9.17663E-001	3.57360E+000	9	...........
	122	1.64	9.19425E-001	9.12835E-005	0.00000E+000	8.39284E-005	5.39641E-002	9.19625E-001	3.57360E+000	9	...........
	123	1.65333	9.21444E-001	9.10824E-005	0.00000E+000	8.39274E-005	5.39641E-002	9.21592E-001	3.57360E+000	9	...........
	124	1.66667	9.23349E-001	9.11668E-005	0.00000E+000	8.41788E-005	5.39641E-002	9.23522E-001	3.57360E+000	9	...........
	125	1.68	9.25272E-001	9.12648E-005	0.00000E+000	8.44448E-005	5.39641E-002	9.25449E-001	3.57360E+000	9	...........
	126	1.69333	9.27152E-001	9.10251E-005	0.00000E+000	8.43941E-005	5.39641E-002	9.27332E-001	3.57360E+000	9	...........
	127	1.70667	9.29005E-001	9.09626E-005	0.00000E+000	8.45047E-005	5.39641E-002	9.29183E-001	3.57360E+000	9	...........
	128	1.72	9.30891E-001	9.12981E-005	0.00000E+000	8.49885E-005	5.39641E-002	9.31055E-001	3.57360E+000	9	...........
	129	1.73333	9.32735E-001	9.12481E-005	0.00000E+000	8.51103E-005	5.39641E-002	9.32914E-001	3.57360E+000	9	...........
	130	1.74667	9.34539E-001	9.09678E-005	0.00000E+000	8.50130E-005	5.39641E-002	9.34744E-001	3.57360E+000	9	...........
	131	1.76	9.36341E-001	9.10626E-005	0.00000E+000	8.52657E-005	5.39641E-002	9.36518E-001	3.57360E+000	9	...........
	132	1.77333	9.38099E-001	9.10574E-005	0.00000E+000	8.54209E-005	5.39641E-002	9.38294E-001	3.57360E+000	9	...........
	133	1.78667	9.39875E-001	9.09564E-005	0.00000E+000	8.54876E-005	5.39641E-002	9.40066E-001	3.57360E+000	9	...........
	134	1.8	9.41619E-001	9.10199E-005	0.00000E+000	8.57061E-005	5.39641E-002	9.41789E-001	3.57360E+000	9	...........
	135	1.81333	9.43328E-001	9.12804E-005	0.00000E+000	8.61073E-005	5.39641E-002	9.43505E-001	3.57360E+000	9	...........
	136	1.82667	9.45042E-001	9.10439E-005	0.00000E+000	8.60403E-005	5.39641E-002	9.45218E-001	3.57360E+000	9	...........
	137	1.84	9.46789E-001	9.09387E-005	0.00000E+000	8.60997E-005	5.39641E-002	9.46961E-001	3.57360E+000	9	...........
	138	1.85333	9.48488E-001	9.10762E-005	0.00000E+000	8.63847E-005	5.39641E-002	9.48629E-001	3.57360E+000	9	...........
	139	1.86667	9.50134E-001	9.10585E-005	0.00000E+000	8.65177E-005	5.39641E-002	9.50276E-001	3.57338E+000	9	...........
	140	1.88	9.51748E-001	9.12741E-005	0.00000E+000	8.68700E-005	5.39641E-002	9.51954E-001	3.57270E+000	9	...........
	141	1.89333	9.53415E-001	9.12252E-005	0.00000E+000	8.69755E-005	5.39641E-002	9.53586E-001	3.57270E+000	9	...........
	142	1.90667	9.55031E-001	9.10835E-005	0.00000E+000	8.69875E-005	5.39641E-002	9.55244E-001	3.57270E+000	9	...........
	143	1.92	9.56641E-001	9.11137E-005	0.00000E+000	8.71631E-005	5.39641E-002	9.56821E-001	3.57270E+000	9	...........
	144	1.93333	9.58222E-001	9.10772E-005	0.00000E+000	8.72722E-005	5.39641E-002	9.58425E-001	3.57270E+000	9	...........
	145	1.94667	9.59837E-001	9.11220E-005	0.00000E+000	8.74623E-005	5.39641E-002	9.60004E-001	3.57270E+000	9	...........
	146	1.96	9.61408E-001	9.10168E-005	0.00000E+000	8.75043E-005	5.39641E-002	9.61565E-001	3.57270E+000	9	...........
	147	1.97333	9.62941E-001	9.12002E-005	0.00000E+000	8.78204E-005	5.39641E-002	9.63130E-001	3.57270E+000	9	...........
	148	1.98667	9.64460E-001	9.09835E-005	0.00000E+000	8.77499E-005	5.39641E-002	9.64660E-001	3.57270E+000	9	...........
	149	2	9.65996E-001	9.11168E-005	0.00000E+000	8.80185E-005	5.39641E-002	9.66185E-001	3.57270E+000	9	...........
	150	2.01333	9.67481E-001	9.10491E-005	0.00000E+000	8.80883E-005	5.39641E-002	9.67655E-001	3.57270E+000	9	...........
	151	2.02667	9.68962E-001	9.10064E-005	0.00000E+000	8.81817E-005	5.39641E-002	9.69153E-001	3.57270E+000	9	...........
	152	2.04	9.70396E-001	9.11252E-005	0.00000E+000	8.84275E-005	5.39641E-002	9.70630E-001	3.57270E+000	9	...........
	153	2.05333	9.71832E-001	9.10158E-005	0.00000E+000	8.84520E-005	5.39641E-002	9.72085E-001	3.57270E+000	9	...........
	154	2.06667	9.73340E-001	9.09678E-005	0.00000E+000	8.85426E-005	5.39641E-002	9.73526E-001	3.57270E+000	9	...........
	155	2.08	9.74745E-001	9.11700E-005	0.00000E+000	8.88675E-005	5.39641E-002	9.74953E-001	3.57270E+000	9	...........
	156	2.09333	9.76180E-001	9.11387E-005	0.00000E+000	8.89678E-005	5.39641E-002	9.76373E-001	3.57270E+000	9	...........
	157	2.10667	9.77573E-001	9.10095E-005	0.00000E+000	8.89684E-005	5.39641E-002	9.77795E-001	3.57270E+000	9	...........
	158	2.12	9.78972E-001	9.12023E-005	0.00000E+000	8.92845E-005	5.39641E-002	9.79154E-001	3.57270E+000	9	...........
	159	2.13333	9.80350E-001	9.12043E-005	0.00000E+000	8.94122E-005	5.39641E-002	9.80506E-001	3.57270E+000	9	...........
	160	2.14667	9.81723E-001	9.10564E-005	0.00000E+000	8.93922E-005	5.39641E-002	9.81883E-001	3.57270E+000	9	...........
	161	2.16	9.83067E-001	9.13523E-005	0.00000E+000	8.98054E-005	5.39641E-002	9.83257E-001	3.57270E+000	9	...........
	162	2.17333	9.84406E-001	9.10897E-005	0.00000E+000	8.96693E-005	5.39641E-002	9.84612E-001	3.57270E+000	9	...........
	163	2.18667	9.85743E-001	9.09803E-005	0.00000E+000	8.96832E-005	5.39641E-002	9.85951E-001	3.57270E+000	9	...........
	164	2.2	9.87038E-001	9.11741E-005	0.00000E+000	8.99923E-005	5.39641E-002	9.87249E-001	3.57270E+000	9	...........
	165	2.21333	9.88335E-001	9.11898E-005	0.00000E+000	9.01261E-005	5.39641E-002	9.88535E-001	3.57270E+000	9	...........
	166	2.22667	9.89642E-001	9.14315E-005	0.00000E+000	9.04844E-005	5.39641E-002	9.89832E-001	3.57270E+000	9	...........
	167	2.24	9.90914E-001	9.08824E-005	0.00000E+000	9.00566E-005	5.39641E-002	9.91097E-001	3.57270E+000	9	...........
	168	2.25333	9.92176E-001	9.11929E-005	0.00000E+000	9.04794E-005	5.39641E-002	9.92374E-001	3.57270E+000	9	...........
	169	2.26667	9.93429E-001	9.10731E-005	0.00000E+000	9.04746E-005	5.39641E-002	9.93591E-001	3.57270E+000	9	...........
	170	2.28	9.94694E-001	9.10501E-005	0.00000E+000	9.05670E-005	5.39641E-002	9.94855E-001	3.57270E+000	9	...........
	171	2.29333	9.95911E-001	9.09137E-005	0.00000E+000	9.05419E-005	5.39641E-002	9.96062E-001	3.57270E+000	9	...........
	172	2.30667	9.97115E-001	9.12898E-005	0.00000E+000	9.10264E-005	5.39641E-002	9.97294E-001	3.57270E+000	9	...........
	173	2.32	9.98333E-001	9.12137E-005	0.00000E+000	9.10617E-005	5.39641E-002	9.98520E-001	3.57270E+000	9	...........
	174	2.33333	9.99531E-001	9.09772E-005	0.00000E+000	9.09345E-005	5.39641E-002	9.99702E-001	3.57270E+000	9	...........
STARTTIMEOFFSET	QUANT	1270.019	Start Time Offset (s)
