EXPLAIN
TAG	PWR800_CHARGE
TITLE	LABEL	PWR Cyclic Charge Discharge (Cell) - Charge Step	Test &Identifier
DATE	LABEL	10-7-2017	Date
TIME	LABEL	16:23:14	Time
NOTES	NOTES	3	&Notes...
	supercap test cell
	0.9mg
	6M KOH
PSTAT	PSTAT	IFC5000-01520	Potentiostat
CAPACITY	QUANT	1.00000E-003	Capacity (A-hr)
CELLTYPE	SELECTOR	1	&Cell Type
WORKINGCONNECTION	SELECTOR	0	&Working Lead
MAXCHARGETIME	VARIABLEANDUNITS	1.00000E+002	s	1.00000E+002	second(s)	Max &Charge Time
CHARGECURRENT	QUANT	9.00000E-005	&Charge Current (A) 
VOLTAGEFINISH	TWOPARAM	F	1.00000E-003	3.60000E+003	&Voltage Finish	 I (A) < 	Max Time(s)
SAMPLETIME	QUANT	1.00000E-002	Sa&mple Period (s)
CHARGESTOPAT1	MULTIPARAM	4	1.00000E+000	Charge Stop At &1	Voltage > Limit	V
CHARGESTOPAT2	MULTIPARAM	0	0.00000E+000	Charge Stop At &2	None	N/A
AESBHCSELECTOR	TOGGLE	F	Save Both Half Cells
IRCOMP	TOGGLE	F	IR &Measure
EOC	QUANT	0	Open Circuit (V)
SEQUENCER	TOGGLE	TRUE	Run as Sequence
PSTATMODEL	IQUANT	53	Pstat Model
PSTATSECTION	LABEL	IFC5000-01520	Pstat Section
PSTATSERIALNO	LABEL	01520	Pstat Serial Number
CTRLMODE	IQUANT	0	Control Mode
ELECTROMETER	IQUANT	1	RE=0 or CS=1
IESTAB	IQUANT	0	I/E Stability
CASPEED	IQUANT	4	Control Amp Speed
CONVENTION	IQUANT	1	Current Convention
ICHRANGE	IQUANT	2	Ich Range
ICHRANGEMODE	TOGGLE	T	Ich Auto Range
ICHOFFSETENABLE	TOGGLE	F	Ich Offset Enable
ICHOFFSET	QUANT	0	Ich Offset (V)
ICHFILTER	IQUANT	1	Ich Filter
VCHRANGE	IQUANT	2	Vch Range
VCHRANGEMODE	TOGGLE	T	Vch Auto Range
VCHOFFSETENABLE	TOGGLE	F	Vch Offset Enable
VCHOFFSET	QUANT	0	Vch Offset (V)
VCHFILTER	IQUANT	1	Vch Filter
IERANGELOWERLIMIT	IQUANT	9	I/E Range Lower Limit
IERANGEMODE	TOGGLE	F	I/E AutoRange
IERANGE	IQUANT	9	I/E Range
ACHSELECT	IQUANT	1	Ach Select
ACHRANGE	IQUANT	2	Ach Range
ACHOFFSETENABLE	TOGGLE	F	Ach Offset Enable
ACHOFFSET	QUANT	0	Ach Offset (V)
ACHFILTER	IQUANT	1	Ach Filter
CABLEID	IQUANT	14	Cable ID
DCCALDATE	LABEL	5-7-2017	DC Calibration Date
ACCALDATE	LABEL	12/3/2015	AC Calibration Date
FRAMEWORKVERSION	QUANT	7.01	Framework Version
INSTRUMENTVERSION	LABEL	4.00	Instrument Version
CURVE	TABLE	161
	Pt	T	Vf	Im	Vu	Pwr	Sig	Ach	Temp	IERange	Over
	#	s	V	A	V	W	V	V	deg C	#	bits
	0	0.013333	2.68837E-001	9.09918E-005	0.00000E+000	2.44619E-005	5.39641E-002	2.68885E-001	3.57330E+000	9	...........
	1	0.026667	2.88372E-001	9.07636E-005	0.00000E+000	2.61737E-005	5.39641E-002	2.88419E-001	3.57330E+000	9	...........
	2	0.04	3.06738E-001	9.11054E-005	0.00000E+000	2.79455E-005	5.39641E-002	3.06783E-001	3.57330E+000	9	...........
	3	0.053333	3.24100E-001	9.07157E-005	0.00000E+000	2.94010E-005	5.39641E-002	3.24142E-001	3.57330E+000	9	...........
	4	0.066667	3.40553E-001	9.12085E-005	0.00000E+000	3.10613E-005	5.39641E-002	3.40599E-001	3.57330E+000	9	...........
	5	0.08	3.56174E-001	9.08991E-005	0.00000E+000	3.23759E-005	5.39641E-002	3.56225E-001	3.57330E+000	9	...........
	6	0.093333	3.71045E-001	9.09501E-005	0.00000E+000	3.37466E-005	5.39641E-002	3.71090E-001	3.57330E+000	9	...........
	7	0.106667	3.85233E-001	9.11158E-005	0.00000E+000	3.51008E-005	5.39641E-002	3.85278E-001	3.57330E+000	9	...........
	8	0.12	3.98775E-001	9.07459E-005	0.00000E+000	3.61872E-005	5.39641E-002	3.98827E-001	3.57330E+000	9	...........
	9	0.133333	4.11718E-001	9.08241E-005	0.00000E+000	3.73939E-005	5.39641E-002	4.11770E-001	3.57330E+000	9	...........
	10	0.146667	4.24116E-001	9.07553E-005	0.00000E+000	3.84908E-005	5.39641E-002	4.24179E-001	3.57330E+000	9	...........
	11	0.16	4.36006E-001	9.08980E-005	0.00000E+000	3.96321E-005	5.39641E-002	4.36067E-001	3.57330E+000	9	...........
	12	0.173333	4.47437E-001	9.11220E-005	0.00000E+000	4.07714E-005	5.39641E-002	4.47498E-001	3.57330E+000	9	...........
	13	0.186667	4.58433E-001	9.09897E-005	0.00000E+000	4.17127E-005	5.39641E-002	4.58488E-001	3.57330E+000	9	...........
	14	0.2	4.69041E-001	9.09262E-005	0.00000E+000	4.26481E-005	5.39641E-002	4.69105E-001	3.57330E+000	9	...........
	15	0.213333	4.79275E-001	9.11575E-005	0.00000E+000	4.36895E-005	5.39641E-002	4.79331E-001	3.57330E+000	9	...........
	16	0.226667	4.89153E-001	9.10428E-005	0.00000E+000	4.45339E-005	5.39641E-002	4.89216E-001	3.57330E+000	9	...........
	17	0.24	4.98699E-001	9.08928E-005	0.00000E+000	4.53282E-005	5.39641E-002	4.98777E-001	3.57330E+000	9	...........
	18	0.253333	5.07949E-001	9.09730E-005	0.00000E+000	4.62097E-005	5.39641E-002	5.08022E-001	3.57330E+000	9	...........
	19	0.266667	5.16902E-001	9.10866E-005	0.00000E+000	4.70829E-005	5.39641E-002	5.16975E-001	3.57330E+000	9	...........
	20	0.28	5.25579E-001	9.06615E-005	0.00000E+000	4.76497E-005	5.39641E-002	5.25655E-001	3.57330E+000	9	...........
	21	0.293333	5.33964E-001	9.08939E-005	0.00000E+000	4.85341E-005	5.39641E-002	5.34040E-001	3.57330E+000	9	...........
	22	0.306667	5.42088E-001	9.09251E-005	0.00000E+000	4.92894E-005	5.39641E-002	5.42215E-001	3.57330E+000	9	...........
	23	0.32	5.50061E-001	9.08834E-005	0.00000E+000	4.99914E-005	5.39641E-002	5.50181E-001	3.57330E+000	9	...........
	24	0.333333	5.57803E-001	9.07782E-005	0.00000E+000	5.06363E-005	5.39641E-002	5.57940E-001	3.57330E+000	9	...........
	25	0.346667	5.65364E-001	9.09991E-005	0.00000E+000	5.14476E-005	5.39641E-002	5.65488E-001	3.57330E+000	9	...........
	26	0.36	5.72706E-001	9.11543E-005	0.00000E+000	5.22046E-005	5.39641E-002	5.72822E-001	3.57330E+000	9	...........
	27	0.373333	5.79853E-001	9.09616E-005	0.00000E+000	5.27444E-005	5.39641E-002	5.79978E-001	3.57330E+000	9	...........
	28	0.386667	5.86841E-001	9.09105E-005	0.00000E+000	5.33500E-005	5.39641E-002	5.86985E-001	3.57330E+000	9	...........
	29	0.4	5.93683E-001	9.07459E-005	0.00000E+000	5.38743E-005	5.39641E-002	5.93827E-001	3.57330E+000	9	...........
	30	0.413333	6.00350E-001	9.10606E-005	0.00000E+000	5.46682E-005	5.39641E-002	6.00527E-001	3.57360E+000	9	...........
	31	0.426667	6.06863E-001	9.08814E-005	0.00000E+000	5.51526E-005	5.39641E-002	6.07038E-001	3.57410E+000	9	...........
	32	0.44	6.13299E-001	9.08918E-005	0.00000E+000	5.57439E-005	5.39641E-002	6.13427E-001	3.57410E+000	9	...........
	33	0.453333	6.19580E-001	9.08647E-005	0.00000E+000	5.62980E-005	5.39641E-002	6.19704E-001	3.57410E+000	9	...........
	34	0.466667	6.25686E-001	9.10897E-005	0.00000E+000	5.69936E-005	5.39641E-002	6.25817E-001	3.57410E+000	9	...........
	35	0.48	6.31695E-001	9.12971E-005	0.00000E+000	5.76719E-005	5.39641E-002	6.31826E-001	3.57410E+000	9	...........
	36	0.493333	6.37567E-001	9.10553E-005	0.00000E+000	5.80539E-005	5.39641E-002	6.37703E-001	3.57410E+000	9	...........
	37	0.506667	6.43374E-001	9.06490E-005	0.00000E+000	5.83212E-005	5.39641E-002	6.43486E-001	3.57410E+000	9	...........
	38	0.52	6.49043E-001	9.09616E-005	0.00000E+000	5.90379E-005	5.39641E-002	6.49157E-001	3.57410E+000	9	...........
	39	0.533333	6.54625E-001	9.10887E-005	0.00000E+000	5.96289E-005	5.39641E-002	6.54734E-001	3.57410E+000	9	...........
	40	0.546667	6.60088E-001	9.08043E-005	0.00000E+000	5.99388E-005	5.39641E-002	6.60214E-001	3.57410E+000	9	...........
	41	0.56	6.65480E-001	9.04354E-005	0.00000E+000	6.01830E-005	5.39641E-002	6.65610E-001	3.57410E+000	9	...........
	42	0.573333	6.70784E-001	9.08272E-005	0.00000E+000	6.09255E-005	5.39641E-002	6.70878E-001	3.57410E+000	9	...........
	43	0.586667	6.75938E-001	9.12564E-005	0.00000E+000	6.16836E-005	5.39641E-002	6.76043E-001	3.57410E+000	9	...........
	44	0.6	6.81031E-001	9.07595E-005	0.00000E+000	6.18100E-005	5.39641E-002	6.81128E-001	3.57410E+000	9	...........
	45	0.613333	6.86006E-001	9.09064E-005	0.00000E+000	6.23623E-005	5.39641E-002	6.86132E-001	3.57410E+000	9	...........
	46	0.626667	6.90944E-001	9.07855E-005	0.00000E+000	6.27277E-005	5.39641E-002	6.91078E-001	3.57410E+000	9	...........
	47	0.64	6.95782E-001	9.11366E-005	0.00000E+000	6.34113E-005	5.39641E-002	6.95895E-001	3.57410E+000	9	...........
	48	0.653333	7.00524E-001	9.08803E-005	0.00000E+000	6.36639E-005	5.39641E-002	7.00658E-001	3.57410E+000	9	...........
	49	0.666667	7.05218E-001	9.10272E-005	0.00000E+000	6.41941E-005	5.39641E-002	7.05378E-001	3.57410E+000	9	...........
	50	0.68	7.09841E-001	9.10376E-005	0.00000E+000	6.46223E-005	5.39641E-002	7.10013E-001	3.57410E+000	9	...........
	51	0.693333	7.14410E-001	9.08772E-005	0.00000E+000	6.49236E-005	5.39641E-002	7.14591E-001	3.57410E+000	9	...........
	52	0.706667	7.18966E-001	9.11762E-005	0.00000E+000	6.55526E-005	5.39641E-002	7.19118E-001	3.57410E+000	9	...........
	53	0.72	7.23410E-001	9.11825E-005	0.00000E+000	6.59623E-005	5.39641E-002	7.23548E-001	3.57410E+000	9	...........
	54	0.733333	7.27799E-001	9.11689E-005	0.00000E+000	6.63527E-005	5.39641E-002	7.27943E-001	3.57410E+000	9	...........
	55	0.746667	7.32128E-001	9.11325E-005	0.00000E+000	6.67206E-005	5.39641E-002	7.32285E-001	3.57410E+000	9	...........
	56	0.76	7.36415E-001	9.09751E-005	0.00000E+000	6.69954E-005	5.39641E-002	7.36546E-001	3.57410E+000	9	...........
	57	0.773333	7.40674E-001	9.08939E-005	0.00000E+000	6.73227E-005	5.39641E-002	7.40785E-001	3.57410E+000	9	...........
	58	0.786667	7.44878E-001	9.08084E-005	0.00000E+000	6.76412E-005	5.39641E-002	7.44979E-001	3.57410E+000	9	...........
	59	0.8	7.48972E-001	9.11158E-005	0.00000E+000	6.82432E-005	5.39641E-002	7.49089E-001	3.57410E+000	9	...........
	60	0.813333	7.53042E-001	9.08949E-005	0.00000E+000	6.84477E-005	5.39641E-002	7.53155E-001	3.57410E+000	9	...........
	61	0.826667	7.57057E-001	9.08386E-005	0.00000E+000	6.87701E-005	5.39641E-002	7.57211E-001	3.57410E+000	9	...........
	62	0.84	7.61038E-001	9.07907E-005	0.00000E+000	6.90952E-005	5.39641E-002	7.61150E-001	3.57410E+000	9	...........
	63	0.853333	7.64963E-001	9.09814E-005	0.00000E+000	6.95974E-005	5.39641E-002	7.65099E-001	3.57410E+000	9	...........
	64	0.866667	7.68856E-001	9.07345E-005	0.00000E+000	6.97617E-005	5.39641E-002	7.68997E-001	3.57410E+000	9	...........
	65	0.88	7.72709E-001	9.10679E-005	0.00000E+000	7.03690E-005	5.39641E-002	7.72839E-001	3.57410E+000	9	...........
	66	0.893333	7.76500E-001	9.10793E-005	0.00000E+000	7.07231E-005	5.39641E-002	7.76609E-001	3.57410E+000	9	...........
	67	0.906667	7.80254E-001	9.09845E-005	0.00000E+000	7.09910E-005	5.39641E-002	7.80371E-001	3.57410E+000	9	...........
	68	0.92	7.83955E-001	9.10293E-005	0.00000E+000	7.13629E-005	5.39641E-002	7.84076E-001	3.57410E+000	9	...........
	69	0.933333	7.87621E-001	9.08584E-005	0.00000E+000	7.15620E-005	5.39641E-002	7.87732E-001	3.57410E+000	9	...........
	70	0.946667	7.91250E-001	9.12033E-005	0.00000E+000	7.21646E-005	5.39641E-002	7.91357E-001	3.57410E+000	9	...........
	71	0.96	7.94894E-001	9.10324E-005	0.00000E+000	7.23611E-005	5.39641E-002	7.95001E-001	3.57410E+000	9	...........
	72	0.97333	7.98440E-001	9.10053E-005	0.00000E+000	7.26623E-005	5.39641E-002	7.98543E-001	3.57410E+000	9	...........
	73	0.98667	8.01957E-001	9.11262E-005	0.00000E+000	7.30793E-005	5.39641E-002	8.02062E-001	3.57410E+000	9	...........
	74	1	8.05440E-001	9.11241E-005	0.00000E+000	7.33950E-005	5.39641E-002	8.05573E-001	3.57410E+000	9	...........
	75	1.01333	8.08865E-001	9.09543E-005	0.00000E+000	7.35698E-005	5.39641E-002	8.09022E-001	3.57410E+000	9	...........
	76	1.02667	8.12259E-001	9.10637E-005	0.00000E+000	7.39673E-005	5.39641E-002	8.12415E-001	3.57410E+000	9	...........
	77	1.04	8.15625E-001	9.10866E-005	0.00000E+000	7.42926E-005	5.39641E-002	8.15778E-001	3.57410E+000	9	...........
	78	1.05333	8.18975E-001	9.13065E-005	0.00000E+000	7.47777E-005	5.39641E-002	8.19127E-001	3.57410E+000	9	...........
	79	1.06667	8.22287E-001	9.09772E-005	0.00000E+000	7.48093E-005	5.39641E-002	8.22430E-001	3.57410E+000	9	...........
	80	1.08	8.25528E-001	9.09835E-005	0.00000E+000	7.51094E-005	5.39641E-002	8.25715E-001	3.57410E+000	9	...........
	81	1.09333	8.28756E-001	9.10595E-005	0.00000E+000	7.54662E-005	5.39641E-002	8.28906E-001	3.57410E+000	9	...........
	82	1.10667	8.31930E-001	9.09720E-005	0.00000E+000	7.56824E-005	5.39641E-002	8.32115E-001	3.57410E+000	9	...........
	83	1.12	8.35076E-001	9.10720E-005	0.00000E+000	7.60521E-005	5.39641E-002	8.35255E-001	3.57410E+000	9	...........
	84	1.13333	8.38201E-001	9.07813E-005	0.00000E+000	7.60930E-005	5.39641E-002	8.38372E-001	3.57410E+000	9	...........
	85	1.14667	8.41299E-001	9.09616E-005	0.00000E+000	7.65259E-005	5.39641E-002	8.41481E-001	3.57410E+000	9	...........
	86	1.16	8.44369E-001	9.09209E-005	0.00000E+000	7.67708E-005	5.39641E-002	8.44572E-001	3.57410E+000	9	...........
	87	1.17333	8.47441E-001	9.09439E-005	0.00000E+000	7.70696E-005	5.39641E-002	8.47622E-001	3.57410E+000	9	...........
	88	1.18667	8.50460E-001	9.10762E-005	0.00000E+000	7.74566E-005	5.39641E-002	8.50648E-001	3.57410E+000	9	...........
	89	1.2	8.53439E-001	9.10085E-005	0.00000E+000	7.76702E-005	5.39641E-002	8.53629E-001	3.57410E+000	9	...........
	90	1.21333	8.56378E-001	9.12814E-005	0.00000E+000	7.81714E-005	5.39641E-002	8.56582E-001	3.57410E+000	9	...........
	91	1.22667	8.59305E-001	9.08178E-005	0.00000E+000	7.80402E-005	5.39641E-002	8.59488E-001	3.57410E+000	9	...........
	92	1.24	8.62180E-001	9.09626E-005	0.00000E+000	7.84262E-005	5.39641E-002	8.62361E-001	3.57410E+000	9	...........
	93	1.25333	8.64986E-001	9.10074E-005	0.00000E+000	7.87202E-005	5.39641E-002	8.65187E-001	3.57410E+000	9	...........
	94	1.26667	8.67822E-001	9.09480E-005	0.00000E+000	7.89267E-005	5.39641E-002	8.68032E-001	3.57410E+000	9	...........
	95	1.28	8.70652E-001	9.09293E-005	0.00000E+000	7.91678E-005	5.39641E-002	8.70834E-001	3.57410E+000	9	...........
	96	1.29333	8.73401E-001	9.10689E-005	0.00000E+000	7.95396E-005	5.39641E-002	8.73591E-001	3.57410E+000	9	...........
	97	1.30667	8.76131E-001	9.10356E-005	0.00000E+000	7.97591E-005	5.39641E-002	8.76301E-001	3.57410E+000	9	...........
	98	1.32	8.78807E-001	9.12127E-005	0.00000E+000	8.01584E-005	5.39641E-002	8.78986E-001	3.57410E+000	9	...........
	99	1.33333	8.81462E-001	9.09470E-005	0.00000E+000	8.01663E-005	5.39641E-002	8.81662E-001	3.57410E+000	9	...........
	100	1.34667	8.84123E-001	9.09814E-005	0.00000E+000	8.04388E-005	5.39641E-002	8.84304E-001	3.57410E+000	9	...........
	101	1.36	8.86753E-001	9.08053E-005	0.00000E+000	8.05219E-005	5.39641E-002	8.86912E-001	3.57410E+000	9	...........
	102	1.37333	8.89330E-001	9.10408E-005	0.00000E+000	8.09653E-005	5.39641E-002	8.89497E-001	3.57410E+000	9	...........
	103	1.38667	8.91896E-001	9.10397E-005	0.00000E+000	8.11980E-005	5.39641E-002	8.92061E-001	3.57410E+000	9	...........
	104	1.4	8.94411E-001	9.10606E-005	0.00000E+000	8.14456E-005	5.39641E-002	8.94620E-001	3.57410E+000	9	...........
	105	1.41333	8.96958E-001	9.08595E-005	0.00000E+000	8.14971E-005	5.39641E-002	8.97162E-001	3.57365E+000	9	...........
	106	1.42667	8.99443E-001	9.12033E-005	0.00000E+000	8.20321E-005	5.39641E-002	8.99632E-001	3.57290E+000	9	...........
	107	1.44	9.01904E-001	9.10418E-005	0.00000E+000	8.21109E-005	5.39641E-002	9.02093E-001	3.57290E+000	9	...........
	108	1.45333	9.04324E-001	9.10752E-005	0.00000E+000	8.23615E-005	5.39641E-002	9.04537E-001	3.57290E+000	9	...........
	109	1.46667	9.06737E-001	9.09532E-005	0.00000E+000	8.24706E-005	5.39641E-002	9.06954E-001	3.57290E+000	9	...........
	110	1.48	9.09156E-001	9.10720E-005	0.00000E+000	8.27987E-005	5.39641E-002	9.09298E-001	3.57290E+000	9	...........
	111	1.49333	9.11515E-001	9.06834E-005	0.00000E+000	8.26592E-005	5.39641E-002	9.11688E-001	3.57290E+000	9	...........
	112	1.50667	9.13813E-001	9.10158E-005	0.00000E+000	8.31714E-005	5.39641E-002	9.14009E-001	3.57290E+000	9	...........
	113	1.52	9.16139E-001	9.09303E-005	0.00000E+000	8.33048E-005	5.39641E-002	9.16347E-001	3.57290E+000	9	...........
	114	1.53333	9.18382E-001	9.08814E-005	0.00000E+000	8.34638E-005	5.39641E-002	9.18600E-001	3.57290E+000	9	...........
	115	1.54667	9.20688E-001	9.10783E-005	0.00000E+000	8.38547E-005	5.39641E-002	9.20864E-001	3.57290E+000	9	...........
	116	1.56	9.22961E-001	9.11168E-005	0.00000E+000	8.40973E-005	5.39641E-002	9.23103E-001	3.57290E+000	9	...........
	117	1.57333	9.25168E-001	9.09928E-005	0.00000E+000	8.41837E-005	5.39641E-002	9.25322E-001	3.57290E+000	9	...........
	118	1.58667	9.27345E-001	9.08845E-005	0.00000E+000	8.42813E-005	5.39641E-002	9.27522E-001	3.57290E+000	9	...........
	119	1.6	9.29497E-001	9.09147E-005	0.00000E+000	8.45050E-005	5.39641E-002	9.29667E-001	3.57290E+000	9	...........
	120	1.61333	9.31616E-001	9.08480E-005	0.00000E+000	8.46354E-005	5.39641E-002	9.31783E-001	3.57290E+000	9	...........
	121	1.62667	9.33734E-001	9.11971E-005	0.00000E+000	8.51538E-005	5.39641E-002	9.33906E-001	3.57290E+000	9	...........
	122	1.64	9.35831E-001	9.09522E-005	0.00000E+000	8.51159E-005	5.39641E-002	9.36008E-001	3.57290E+000	9	...........
	123	1.65333	9.37867E-001	9.10210E-005	0.00000E+000	8.53656E-005	5.39641E-002	9.38092E-001	3.57290E+000	9	...........
	124	1.66667	9.39939E-001	9.10918E-005	0.00000E+000	8.56207E-005	5.39641E-002	9.40139E-001	3.57290E+000	9	...........
	125	1.68	9.41938E-001	9.08491E-005	0.00000E+000	8.55742E-005	5.39641E-002	9.42136E-001	3.57290E+000	9	...........
	126	1.69333	9.43947E-001	9.09845E-005	0.00000E+000	8.58845E-005	5.39641E-002	9.44143E-001	3.57290E+000	9	...........
	127	1.70667	9.45940E-001	9.08293E-005	0.00000E+000	8.59190E-005	5.39641E-002	9.46158E-001	3.57290E+000	9	...........
	128	1.72	9.47956E-001	9.12033E-005	0.00000E+000	8.64567E-005	5.39641E-002	9.48115E-001	3.57290E+000	9	...........
	129	1.73333	9.49867E-001	9.11147E-005	0.00000E+000	8.65469E-005	5.39641E-002	9.50071E-001	3.57290E+000	9	...........
	130	1.74667	9.51768E-001	9.10220E-005	0.00000E+000	8.66319E-005	5.39641E-002	9.51998E-001	3.57290E+000	9	...........
	131	1.76	9.53678E-001	9.11272E-005	0.00000E+000	8.69060E-005	5.39641E-002	9.53885E-001	3.57290E+000	9	...........
	132	1.77333	9.55553E-001	9.11210E-005	0.00000E+000	8.70710E-005	5.39641E-002	9.55760E-001	3.57290E+000	9	...........
	133	1.78667	9.57404E-001	9.09230E-005	0.00000E+000	8.70501E-005	5.39641E-002	9.57591E-001	3.57290E+000	9	...........
	134	1.8	9.59228E-001	9.07376E-005	0.00000E+000	8.70381E-005	5.39641E-002	9.59434E-001	3.57290E+000	9	...........
	135	1.81333	9.61073E-001	9.07959E-005	0.00000E+000	8.72615E-005	5.39641E-002	9.61285E-001	3.57290E+000	9	...........
	136	1.82667	9.62846E-001	9.10533E-005	0.00000E+000	8.76703E-005	5.39641E-002	9.63050E-001	3.57290E+000	9	...........
	137	1.84	9.64610E-001	9.08491E-005	0.00000E+000	8.76340E-005	5.39641E-002	9.64829E-001	3.57290E+000	9	...........
	138	1.85333	9.66397E-001	9.10772E-005	0.00000E+000	8.80168E-005	5.39641E-002	9.66589E-001	3.57290E+000	9	...........
	139	1.86667	9.68090E-001	9.09845E-005	0.00000E+000	8.80812E-005	5.39641E-002	9.68306E-001	3.57290E+000	9	...........
	140	1.88	9.69804E-001	9.10283E-005	0.00000E+000	8.82795E-005	5.39641E-002	9.70041E-001	3.57290E+000	9	...........
	141	1.89333	9.71514E-001	9.08730E-005	0.00000E+000	8.82844E-005	5.39641E-002	9.71768E-001	3.57290E+000	9	...........
	142	1.90667	9.73245E-001	9.11012E-005	0.00000E+000	8.86638E-005	5.39641E-002	9.73435E-001	3.57290E+000	9	...........
	143	1.92	9.74893E-001	9.13012E-005	0.00000E+000	8.90089E-005	5.39641E-002	9.75096E-001	3.57290E+000	9	...........
	144	1.93333	9.76530E-001	9.09189E-005	0.00000E+000	8.87850E-005	5.39641E-002	9.76741E-001	3.57290E+000	9	...........
	145	1.94667	9.78135E-001	9.09262E-005	0.00000E+000	8.89381E-005	5.39641E-002	9.78346E-001	3.57290E+000	9	...........
	146	1.96	9.79745E-001	9.11220E-005	0.00000E+000	8.92763E-005	5.39641E-002	9.79929E-001	3.57290E+000	9	...........
	147	1.97333	9.81332E-001	9.08928E-005	0.00000E+000	8.91960E-005	5.39641E-002	9.81496E-001	3.57290E+000	9	...........
	148	1.98667	9.82901E-001	9.08720E-005	0.00000E+000	8.93182E-005	5.39641E-002	9.83079E-001	3.57290E+000	9	...........
	149	2	9.84442E-001	9.08147E-005	0.00000E+000	8.94017E-005	5.39641E-002	9.84654E-001	3.57290E+000	9	...........
	150	2.01333	9.85988E-001	9.10762E-005	0.00000E+000	8.98001E-005	5.39641E-002	9.86185E-001	3.57290E+000	9	...........
	151	2.02667	9.87481E-001	9.10272E-005	0.00000E+000	8.98877E-005	5.39641E-002	9.87692E-001	3.57290E+000	9	...........
	152	2.04	9.88973E-001	9.09689E-005	0.00000E+000	8.99658E-005	5.39641E-002	9.89185E-001	3.57290E+000	9	...........
	153	2.05333	9.90451E-001	9.08584E-005	0.00000E+000	8.99909E-005	5.39641E-002	9.90655E-001	3.57290E+000	9	...........
	154	2.06667	9.91897E-001	9.10585E-005	0.00000E+000	9.03206E-005	5.39641E-002	9.92111E-001	3.57290E+000	9	...........
	155	2.08	9.93334E-001	9.11418E-005	0.00000E+000	9.05342E-005	5.39641E-002	9.93561E-001	3.57290E+000	9	...........
	156	2.09333	9.94788E-001	9.09814E-005	0.00000E+000	9.05072E-005	5.39641E-002	9.95015E-001	3.57290E+000	9	...........
	157	2.10667	9.96233E-001	9.10001E-005	0.00000E+000	9.06574E-005	5.39641E-002	9.96449E-001	3.57290E+000	9	...........
	158	2.12	9.97664E-001	9.08939E-005	0.00000E+000	9.06815E-005	5.39641E-002	9.97906E-001	3.57290E+000	9	...........
	159	2.13333	9.99071E-001	9.09095E-005	0.00000E+000	9.08250E-005	5.39641E-002	9.99300E-001	3.57290E+000	9	...........
	160	2.13667	9.99926E-001	9.09751E-005	0.00000E+000	9.09684E-005	5.39641E-002	1.00013E+000	3.57290E+000	9	...........
STARTTIMEOFFSET	QUANT	4222.574	Start Time Offset (s)
