EXPLAIN
TAG	PWR800_CHARGE
TITLE	LABEL	PWR Cyclic Charge Discharge (Cell) - Charge Step	Test &Identifier
DATE	LABEL	10-7-2017	Date
TIME	LABEL	15:01:47	Time
NOTES	NOTES	3	&Notes...
	supercap test cell
	0.9mg
	6M KOH
PSTAT	PSTAT	IFC5000-01520	Potentiostat
CAPACITY	QUANT	1.00000E-003	Capacity (A-hr)
CELLTYPE	SELECTOR	1	&Cell Type
WORKINGCONNECTION	SELECTOR	0	&Working Lead
MAXCHARGETIME	VARIABLEANDUNITS	1.00000E+002	s	1.00000E+002	second(s)	Max &Charge Time
CHARGECURRENT	QUANT	9.00000E-005	&Charge Current (A) 
VOLTAGEFINISH	TWOPARAM	F	1.00000E-003	3.60000E+003	&Voltage Finish	 I (A) < 	Max Time(s)
SAMPLETIME	QUANT	1.00000E-002	Sa&mple Period (s)
CHARGESTOPAT1	MULTIPARAM	4	1.00000E+000	Charge Stop At &1	Voltage > Limit	V
CHARGESTOPAT2	MULTIPARAM	0	0.00000E+000	Charge Stop At &2	None	N/A
AESBHCSELECTOR	TOGGLE	F	Save Both Half Cells
IRCOMP	TOGGLE	F	IR &Measure
EOC	QUANT	0	Open Circuit (V)
SEQUENCER	TOGGLE	TRUE	Run as Sequence
PSTATMODEL	IQUANT	53	Pstat Model
PSTATSECTION	LABEL	IFC5000-01520	Pstat Section
PSTATSERIALNO	LABEL	01520	Pstat Serial Number
CTRLMODE	IQUANT	0	Control Mode
ELECTROMETER	IQUANT	1	RE=0 or CS=1
IESTAB	IQUANT	0	I/E Stability
CASPEED	IQUANT	4	Control Amp Speed
CONVENTION	IQUANT	1	Current Convention
ICHRANGE	IQUANT	2	Ich Range
ICHRANGEMODE	TOGGLE	T	Ich Auto Range
ICHOFFSETENABLE	TOGGLE	F	Ich Offset Enable
ICHOFFSET	QUANT	0	Ich Offset (V)
ICHFILTER	IQUANT	1	Ich Filter
VCHRANGE	IQUANT	2	Vch Range
VCHRANGEMODE	TOGGLE	T	Vch Auto Range
VCHOFFSETENABLE	TOGGLE	F	Vch Offset Enable
VCHOFFSET	QUANT	0	Vch Offset (V)
VCHFILTER	IQUANT	1	Vch Filter
IERANGELOWERLIMIT	IQUANT	9	I/E Range Lower Limit
IERANGEMODE	TOGGLE	F	I/E AutoRange
IERANGE	IQUANT	9	I/E Range
ACHSELECT	IQUANT	1	Ach Select
ACHRANGE	IQUANT	2	Ach Range
ACHOFFSETENABLE	TOGGLE	F	Ach Offset Enable
ACHOFFSET	QUANT	0	Ach Offset (V)
ACHFILTER	IQUANT	1	Ach Filter
CABLEID	IQUANT	14	Cable ID
DCCALDATE	LABEL	5-7-2017	DC Calibration Date
ACCALDATE	LABEL	12/3/2015	AC Calibration Date
FRAMEWORKVERSION	QUANT	7.01	Framework Version
INSTRUMENTVERSION	LABEL	4.00	Instrument Version
CURVE	TABLE	207
	Pt	T	Vf	Im	Vu	Pwr	Sig	Ach	Temp	IERange	Over
	#	s	V	A	V	W	V	V	deg C	#	bits
	0	0.013333	3.00281E-001	9.09991E-005	0.00000E+000	2.73253E-005	5.39641E-002	3.00325E-001	3.57110E+000	9	...........
	1	0.026667	3.18609E-001	9.12189E-005	0.00000E+000	2.90632E-005	5.39641E-002	3.18644E-001	3.57110E+000	9	...........
	2	0.04	3.35433E-001	9.09710E-005	0.00000E+000	3.05147E-005	5.39641E-002	3.35459E-001	3.57110E+000	9	...........
	3	0.053333	3.51067E-001	9.12283E-005	0.00000E+000	3.20273E-005	5.39641E-002	3.51097E-001	3.57110E+000	9	...........
	4	0.066667	3.65718E-001	9.11012E-005	0.00000E+000	3.33174E-005	5.39641E-002	3.65743E-001	3.57110E+000	9	...........
	5	0.08	3.79518E-001	9.15013E-005	0.00000E+000	3.47264E-005	5.39641E-002	3.79546E-001	3.57110E+000	9	...........
	6	0.093333	3.92579E-001	9.12846E-005	0.00000E+000	3.58364E-005	5.39641E-002	3.92613E-001	3.57110E+000	9	...........
	7	0.106667	4.05006E-001	9.10793E-005	0.00000E+000	3.68877E-005	5.39641E-002	4.05036E-001	3.57110E+000	9	...........
	8	0.12	4.16845E-001	9.11950E-005	0.00000E+000	3.80141E-005	5.39641E-002	4.16875E-001	3.57110E+000	9	...........
	9	0.133333	4.28176E-001	9.12544E-005	0.00000E+000	3.90729E-005	5.39641E-002	4.28213E-001	3.57110E+000	9	...........
	10	0.146667	4.39059E-001	9.11523E-005	0.00000E+000	4.00212E-005	5.39641E-002	4.39101E-001	3.57110E+000	9	...........
	11	0.16	4.49534E-001	9.09470E-005	0.00000E+000	4.08838E-005	5.39641E-002	4.49570E-001	3.57110E+000	9	...........
	12	0.173333	4.59631E-001	9.11408E-005	0.00000E+000	4.18911E-005	5.39641E-002	4.59665E-001	3.57110E+000	9	...........
	13	0.186667	4.69372E-001	9.08647E-005	0.00000E+000	4.26493E-005	5.39641E-002	4.69408E-001	3.57110E+000	9	...........
	14	0.2	4.78782E-001	9.11231E-005	0.00000E+000	4.36281E-005	5.39641E-002	4.78820E-001	3.57110E+000	9	...........
	15	0.213333	4.87879E-001	9.11397E-005	0.00000E+000	4.44651E-005	5.39641E-002	4.87916E-001	3.57110E+000	9	...........
	16	0.226667	4.96692E-001	9.10554E-005	0.00000E+000	4.52265E-005	5.39641E-002	4.96734E-001	3.57110E+000	9	...........
	17	0.24	5.05231E-001	9.12054E-005	0.00000E+000	4.60798E-005	5.39641E-002	5.05275E-001	3.57110E+000	9	...........
	18	0.253333	5.13538E-001	9.12262E-005	0.00000E+000	4.68481E-005	5.39641E-002	5.13582E-001	3.57110E+000	9	...........
	19	0.266667	5.21609E-001	9.11002E-005	0.00000E+000	4.75186E-005	5.39641E-002	5.21653E-001	3.57110E+000	9	...........
	20	0.28	5.29451E-001	9.13606E-005	0.00000E+000	4.83710E-005	5.39641E-002	5.29502E-001	3.57110E+000	9	...........
	21	0.293333	5.37066E-001	9.13096E-005	0.00000E+000	4.90393E-005	5.39641E-002	5.37134E-001	3.57110E+000	9	...........
	22	0.306667	5.44518E-001	9.11679E-005	0.00000E+000	4.96425E-005	5.39641E-002	5.44589E-001	3.57110E+000	9	...........
	23	0.32	5.51782E-001	9.12116E-005	0.00000E+000	5.03289E-005	5.39641E-002	5.51865E-001	3.57110E+000	9	...........
	24	0.333333	5.58840E-001	9.13033E-005	0.00000E+000	5.10240E-005	5.39641E-002	5.58935E-001	3.57110E+000	9	...........
	25	0.346667	5.65803E-001	9.11835E-005	0.00000E+000	5.15919E-005	5.39641E-002	5.65865E-001	3.57110E+000	9	...........
	26	0.36	5.72528E-001	9.12971E-005	0.00000E+000	5.22701E-005	5.39641E-002	5.72583E-001	3.57110E+000	9	...........
	27	0.373333	5.79069E-001	9.12189E-005	0.00000E+000	5.28221E-005	5.39641E-002	5.79170E-001	3.57110E+000	9	...........
	28	0.386667	5.85512E-001	9.14773E-005	0.00000E+000	5.35610E-005	5.39641E-002	5.85605E-001	3.57110E+000	9	...........
	29	0.4	5.91821E-001	9.12919E-005	0.00000E+000	5.40285E-005	5.39641E-002	5.91893E-001	3.57110E+000	9	...........
	30	0.413333	5.97945E-001	9.11804E-005	0.00000E+000	5.45208E-005	5.39641E-002	5.97987E-001	3.57110E+000	9	...........
	31	0.426667	6.03935E-001	9.10845E-005	0.00000E+000	5.50091E-005	5.39641E-002	6.04026E-001	3.57110E+000	9	...........
	32	0.44	6.09846E-001	9.12252E-005	0.00000E+000	5.56333E-005	5.39641E-002	6.09915E-001	3.57110E+000	9	...........
	33	0.453333	6.15695E-001	9.12731E-005	0.00000E+000	5.61964E-005	5.39641E-002	6.15733E-001	3.57110E+000	9	...........
	34	0.466667	6.21377E-001	9.15305E-005	0.00000E+000	5.68750E-005	5.39641E-002	6.21388E-001	3.57110E+000	9	...........
	35	0.48	6.26901E-001	9.14356E-005	0.00000E+000	5.73211E-005	5.39641E-002	6.26959E-001	3.57110E+000	9	...........
	36	0.493333	6.32326E-001	9.12752E-005	0.00000E+000	5.77157E-005	5.39641E-002	6.32382E-001	3.57110E+000	9	...........
	37	0.506667	6.37632E-001	9.10449E-005	0.00000E+000	5.80532E-005	5.39641E-002	6.37716E-001	3.57110E+000	9	...........
	38	0.52	6.42893E-001	9.12408E-005	0.00000E+000	5.86581E-005	5.39641E-002	6.42951E-001	3.57110E+000	9	...........
	39	0.533333	6.48027E-001	9.11314E-005	0.00000E+000	5.90556E-005	5.39641E-002	6.48092E-001	3.57110E+000	9	...........
	40	0.546667	6.53042E-001	9.11804E-005	0.00000E+000	5.95446E-005	5.39641E-002	6.53123E-001	3.57110E+000	9	...........
	41	0.56	6.57976E-001	9.13044E-005	0.00000E+000	6.00761E-005	5.39641E-002	6.58046E-001	3.57110E+000	9	...........
	42	0.573333	6.62823E-001	9.12533E-005	0.00000E+000	6.04848E-005	5.39641E-002	6.62915E-001	3.57110E+000	9	...........
	43	0.586667	6.67611E-001	9.12856E-005	0.00000E+000	6.09432E-005	5.39641E-002	6.67677E-001	3.57110E+000	9	...........
	44	0.6	6.72277E-001	9.11460E-005	0.00000E+000	6.12754E-005	5.39641E-002	6.72355E-001	3.57110E+000	9	...........
	45	0.613333	6.76877E-001	9.13533E-005	0.00000E+000	6.18349E-005	5.39641E-002	6.76939E-001	3.57110E+000	9	...........
	46	0.626667	6.81365E-001	9.12168E-005	0.00000E+000	6.21519E-005	5.39641E-002	6.81445E-001	3.57110E+000	9	...........
	47	0.64	6.85801E-001	9.12596E-005	0.00000E+000	6.25859E-005	5.39641E-002	6.85892E-001	3.57110E+000	9	...........
	48	0.653333	6.90174E-001	9.12398E-005	0.00000E+000	6.29713E-005	5.39641E-002	6.90263E-001	3.57110E+000	9	...........
	49	0.666667	6.94467E-001	9.11585E-005	0.00000E+000	6.33066E-005	5.39641E-002	6.94549E-001	3.57110E+000	9	...........
	50	0.68	6.98678E-001	9.09241E-005	0.00000E+000	6.35267E-005	5.39641E-002	6.98779E-001	3.57110E+000	9	...........
	51	0.693333	7.02845E-001	9.13742E-005	0.00000E+000	6.42219E-005	5.39641E-002	7.02935E-001	3.57110E+000	9	...........
	52	0.706667	7.06923E-001	9.10397E-005	0.00000E+000	6.43580E-005	5.39641E-002	7.07021E-001	3.57110E+000	9	...........
	53	0.72	7.10917E-001	9.12731E-005	0.00000E+000	6.48876E-005	5.39641E-002	7.11019E-001	3.57110E+000	9	...........
	54	0.733333	7.14858E-001	9.09616E-005	0.00000E+000	6.50246E-005	5.39641E-002	7.14976E-001	3.57110E+000	9	...........
	55	0.746667	7.18780E-001	9.10387E-005	0.00000E+000	6.54367E-005	5.39641E-002	7.18884E-001	3.57110E+000	9	...........
	56	0.76	7.22621E-001	9.10376E-005	0.00000E+000	6.57857E-005	5.39641E-002	7.22698E-001	3.57110E+000	9	...........
	57	0.773333	7.26380E-001	9.12418E-005	0.00000E+000	6.62762E-005	5.39641E-002	7.26478E-001	3.57110E+000	9	...........
	58	0.786667	7.30095E-001	9.09001E-005	0.00000E+000	6.63657E-005	5.39641E-002	7.30181E-001	3.57110E+000	9	...........
	59	0.8	7.33750E-001	9.10585E-005	0.00000E+000	6.68142E-005	5.39641E-002	7.33824E-001	3.57110E+000	9	...........
	60	0.813333	7.37359E-001	9.12304E-005	0.00000E+000	6.72695E-005	5.39641E-002	7.37419E-001	3.57110E+000	9	...........
	61	0.826667	7.40910E-001	9.10449E-005	0.00000E+000	6.74561E-005	5.39641E-002	7.40974E-001	3.57110E+000	9	...........
	62	0.84	7.44457E-001	9.12012E-005	0.00000E+000	6.78954E-005	5.39641E-002	7.44528E-001	3.57110E+000	9	...........
	63	0.853333	7.47889E-001	9.10949E-005	0.00000E+000	6.81289E-005	5.39641E-002	7.47973E-001	3.57110E+000	9	...........
	64	0.866667	7.51319E-001	9.12783E-005	0.00000E+000	6.85791E-005	5.39641E-002	7.51386E-001	3.57110E+000	9	...........
	65	0.88	7.54669E-001	9.10376E-005	0.00000E+000	6.87033E-005	5.39641E-002	7.54731E-001	3.57110E+000	9	...........
	66	0.893333	7.57964E-001	9.11408E-005	0.00000E+000	6.90814E-005	5.39641E-002	7.58059E-001	3.57110E+000	9	...........
	67	0.906667	7.61208E-001	9.10856E-005	0.00000E+000	6.93350E-005	5.39641E-002	7.61299E-001	3.57110E+000	9	...........
	68	0.92	7.64426E-001	9.11585E-005	0.00000E+000	6.96840E-005	5.39641E-002	7.64506E-001	3.57110E+000	9	...........
	69	0.933333	7.67579E-001	9.13502E-005	0.00000E+000	7.01185E-005	5.39641E-002	7.67702E-001	3.57157E+000	9	...........
	70	0.946667	7.70715E-001	9.13137E-005	0.00000E+000	7.03769E-005	5.39641E-002	7.70822E-001	3.57230E+000	9	...........
	71	0.96	7.73776E-001	9.10960E-005	0.00000E+000	7.04879E-005	5.39641E-002	7.73895E-001	3.57230E+000	9	...........
	72	0.97333	7.76835E-001	9.11200E-005	0.00000E+000	7.07852E-005	5.39641E-002	7.76914E-001	3.57230E+000	9	...........
	73	0.98667	7.79837E-001	9.10939E-005	0.00000E+000	7.10384E-005	5.39641E-002	7.79955E-001	3.57230E+000	9	...........
	74	1	7.82846E-001	9.09449E-005	0.00000E+000	7.11958E-005	5.39641E-002	7.82899E-001	3.57230E+000	9	...........
	75	1.01333	7.85766E-001	9.13846E-005	0.00000E+000	7.18069E-005	5.39641E-002	7.85834E-001	3.57230E+000	9	...........
	76	1.02667	7.88645E-001	9.10804E-005	0.00000E+000	7.18301E-005	5.39641E-002	7.88727E-001	3.57230E+000	9	...........
	77	1.04	7.91498E-001	9.12627E-005	0.00000E+000	7.22342E-005	5.39641E-002	7.91610E-001	3.57230E+000	9	...........
	78	1.05333	7.94399E-001	9.13106E-005	0.00000E+000	7.25370E-005	5.39641E-002	7.94463E-001	3.57230E+000	9	...........
	79	1.06667	7.97190E-001	9.12731E-005	0.00000E+000	7.27620E-005	5.39641E-002	7.97253E-001	3.57230E+000	9	...........
	80	1.08	7.99941E-001	9.11418E-005	0.00000E+000	7.29081E-005	5.39641E-002	8.00020E-001	3.57230E+000	9	...........
	81	1.09333	8.02647E-001	9.12377E-005	0.00000E+000	7.32316E-005	5.39641E-002	8.02731E-001	3.57230E+000	9	...........
	82	1.10667	8.05314E-001	9.11731E-005	0.00000E+000	7.34230E-005	5.39641E-002	8.05442E-001	3.57230E+000	9	...........
	83	1.12	8.07976E-001	9.13471E-005	0.00000E+000	7.38063E-005	5.39641E-002	8.08071E-001	3.57230E+000	9	...........
	84	1.13333	8.10624E-001	9.11481E-005	0.00000E+000	7.38868E-005	5.39641E-002	8.10713E-001	3.57230E+000	9	...........
	85	1.14667	8.13227E-001	9.13356E-005	0.00000E+000	7.42766E-005	5.39641E-002	8.13338E-001	3.57230E+000	9	...........
	86	1.16	8.15828E-001	9.12596E-005	0.00000E+000	7.44521E-005	5.39641E-002	8.15943E-001	3.57230E+000	9	...........
	87	1.17333	8.18398E-001	9.11543E-005	0.00000E+000	7.46005E-005	5.39641E-002	8.18510E-001	3.57230E+000	9	...........
	88	1.18667	8.20954E-001	9.13460E-005	0.00000E+000	7.49909E-005	5.39641E-002	8.21040E-001	3.57230E+000	9	...........
	89	1.2	8.23446E-001	9.11700E-005	0.00000E+000	7.50735E-005	5.39641E-002	8.23545E-001	3.57230E+000	9	...........
	90	1.21333	8.25915E-001	9.14367E-005	0.00000E+000	7.55190E-005	5.39641E-002	8.25991E-001	3.57230E+000	9	...........
	91	1.22667	8.28350E-001	9.12439E-005	0.00000E+000	7.55819E-005	5.39641E-002	8.28400E-001	3.57230E+000	9	...........
	92	1.24	8.30766E-001	9.11304E-005	0.00000E+000	7.57080E-005	5.39641E-002	8.30827E-001	3.57230E+000	9	...........
	93	1.25333	8.33131E-001	9.11231E-005	0.00000E+000	7.59174E-005	5.39641E-002	8.33228E-001	3.57230E+000	9	...........
	94	1.26667	8.35493E-001	9.10793E-005	0.00000E+000	7.60961E-005	5.39641E-002	8.35617E-001	3.57230E+000	9	...........
	95	1.28	8.37835E-001	9.12387E-005	0.00000E+000	7.64430E-005	5.39641E-002	8.37945E-001	3.57230E+000	9	...........
	96	1.29333	8.40138E-001	9.11377E-005	0.00000E+000	7.65682E-005	5.39641E-002	8.40261E-001	3.57230E+000	9	...........
	97	1.30667	8.42444E-001	9.12460E-005	0.00000E+000	7.68697E-005	5.39641E-002	8.42553E-001	3.57230E+000	9	...........
	98	1.32	8.44756E-001	9.10637E-005	0.00000E+000	7.69266E-005	5.39641E-002	8.44868E-001	3.57230E+000	9	...........
	99	1.33333	8.46994E-001	9.15252E-005	0.00000E+000	7.75214E-005	5.39641E-002	8.47109E-001	3.57230E+000	9	...........
	100	1.34667	8.49219E-001	9.12325E-005	0.00000E+000	7.74764E-005	5.39641E-002	8.49353E-001	3.57230E+000	9	...........
	101	1.36	8.51419E-001	9.11814E-005	0.00000E+000	7.76336E-005	5.39641E-002	8.51546E-001	3.57230E+000	9	...........
	102	1.37333	8.53592E-001	9.11679E-005	0.00000E+000	7.78202E-005	5.39641E-002	8.53726E-001	3.57230E+000	9	...........
	103	1.38667	8.55770E-001	9.09710E-005	0.00000E+000	7.78502E-005	5.39641E-002	8.55916E-001	3.57230E+000	9	...........
	104	1.4	8.57911E-001	9.11241E-005	0.00000E+000	7.81764E-005	5.39641E-002	8.58066E-001	3.57230E+000	9	...........
	105	1.41333	8.60022E-001	9.11627E-005	0.00000E+000	7.84019E-005	5.39641E-002	8.60202E-001	3.57230E+000	9	...........
	106	1.42667	8.62141E-001	9.10501E-005	0.00000E+000	7.84981E-005	5.39641E-002	8.62287E-001	3.57230E+000	9	...........
	107	1.44	8.64205E-001	9.13106E-005	0.00000E+000	7.89111E-005	5.39641E-002	8.64361E-001	3.57230E+000	9	...........
	108	1.45333	8.66234E-001	9.09887E-005	0.00000E+000	7.88175E-005	5.39641E-002	8.66386E-001	3.57230E+000	9	...........
	109	1.46667	8.68272E-001	9.12502E-005	0.00000E+000	7.92300E-005	5.39641E-002	8.68428E-001	3.57230E+000	9	...........
	110	1.48	8.70341E-001	9.12189E-005	0.00000E+000	7.93915E-005	5.39641E-002	8.70477E-001	3.57230E+000	9	...........
	111	1.49333	8.72330E-001	9.11054E-005	0.00000E+000	7.94739E-005	5.39641E-002	8.72472E-001	3.57230E+000	9	...........
	112	1.50667	8.74290E-001	9.15513E-005	0.00000E+000	8.00423E-005	5.39641E-002	8.74436E-001	3.57230E+000	9	...........
	113	1.52	8.76270E-001	9.11168E-005	0.00000E+000	7.98430E-005	5.39641E-002	8.76408E-001	3.57230E+000	9	...........
	114	1.53333	8.78216E-001	9.12418E-005	0.00000E+000	8.01301E-005	5.39641E-002	8.78347E-001	3.57230E+000	9	...........
	115	1.54667	8.80133E-001	9.12689E-005	0.00000E+000	8.03288E-005	5.39641E-002	8.80247E-001	3.57230E+000	9	...........
	116	1.56	8.82037E-001	9.10876E-005	0.00000E+000	8.03427E-005	5.39641E-002	8.82184E-001	3.57230E+000	9	...........
	117	1.57333	8.83964E-001	9.13565E-005	0.00000E+000	8.07559E-005	5.39641E-002	8.84084E-001	3.57230E+000	9	...........
	118	1.58667	8.85814E-001	9.10126E-005	0.00000E+000	8.06203E-005	5.39641E-002	8.85937E-001	3.57230E+000	9	...........
	119	1.6	8.87651E-001	9.11397E-005	0.00000E+000	8.09003E-005	5.39641E-002	8.87791E-001	3.57230E+000	9	...........
	120	1.61333	8.89488E-001	9.12689E-005	0.00000E+000	8.11826E-005	5.39641E-002	8.89612E-001	3.57230E+000	9	...........
	121	1.62667	8.91311E-001	9.14742E-005	0.00000E+000	8.15319E-005	5.39641E-002	8.91410E-001	3.57230E+000	9	...........
	122	1.64	8.93088E-001	9.12491E-005	0.00000E+000	8.14935E-005	5.39641E-002	8.93214E-001	3.57230E+000	9	...........
	123	1.65333	8.94865E-001	9.13804E-005	0.00000E+000	8.17731E-005	5.39641E-002	8.95004E-001	3.57230E+000	9	...........
	124	1.66667	8.96652E-001	9.10231E-005	0.00000E+000	8.16160E-005	5.39641E-002	8.96785E-001	3.57230E+000	9	...........
	125	1.68	8.98400E-001	9.13106E-005	0.00000E+000	8.20334E-005	5.39641E-002	8.98517E-001	3.57230E+000	9	...........
	126	1.69333	9.00125E-001	9.11866E-005	0.00000E+000	8.20794E-005	5.39641E-002	9.00243E-001	3.57230E+000	9	...........
	127	1.70667	9.01856E-001	9.13033E-005	0.00000E+000	8.23424E-005	5.39641E-002	9.01987E-001	3.57230E+000	9	...........
	128	1.72	9.03559E-001	9.11773E-005	0.00000E+000	8.23840E-005	5.39641E-002	9.03697E-001	3.57230E+000	9	...........
	129	1.73333	9.05244E-001	9.13377E-005	0.00000E+000	8.26829E-005	5.39641E-002	9.05389E-001	3.57230E+000	9	...........
	130	1.74667	9.06914E-001	9.13929E-005	0.00000E+000	8.28855E-005	5.39641E-002	9.07074E-001	3.57230E+000	9	...........
	131	1.76	9.08577E-001	9.11679E-005	0.00000E+000	8.28331E-005	5.39641E-002	9.08742E-001	3.57230E+000	9	...........
	132	1.77333	9.10214E-001	9.10043E-005	0.00000E+000	8.28334E-005	5.39641E-002	9.10363E-001	3.57230E+000	9	...........
	133	1.78667	9.11842E-001	9.11658E-005	0.00000E+000	8.31288E-005	5.39641E-002	9.12003E-001	3.57230E+000	9	...........
	134	1.8	9.13445E-001	9.11668E-005	0.00000E+000	8.32759E-005	5.39641E-002	9.13617E-001	3.57230E+000	9	...........
	135	1.81333	9.15073E-001	9.10564E-005	0.00000E+000	8.33233E-005	5.39641E-002	9.15234E-001	3.57230E+000	9	...........
	136	1.82667	9.16648E-001	9.12908E-005	0.00000E+000	8.36815E-005	5.39641E-002	9.16805E-001	3.57230E+000	9	...........
	137	1.84	9.18211E-001	9.11585E-005	0.00000E+000	8.37027E-005	5.39641E-002	9.18388E-001	3.57230E+000	9	...........
	138	1.85333	9.19776E-001	9.11158E-005	0.00000E+000	8.38061E-005	5.39641E-002	9.19940E-001	3.57230E+000	9	...........
	139	1.86667	9.21399E-001	9.12273E-005	0.00000E+000	8.40568E-005	5.39641E-002	9.21484E-001	3.57230E+000	9	...........
	140	1.88	9.22939E-001	9.11387E-005	0.00000E+000	8.41154E-005	5.39641E-002	9.23033E-001	3.57230E+000	9	...........
	141	1.89333	9.24469E-001	9.14013E-005	0.00000E+000	8.44977E-005	5.39641E-002	9.24572E-001	3.57230E+000	9	...........
	142	1.90667	9.25977E-001	9.12064E-005	0.00000E+000	8.44551E-005	5.39641E-002	9.26097E-001	3.57230E+000	9	...........
	143	1.92	9.27492E-001	9.13731E-005	0.00000E+000	8.47478E-005	5.39641E-002	9.27602E-001	3.57230E+000	9	...........
	144	1.93333	9.28960E-001	9.12304E-005	0.00000E+000	8.47494E-005	5.39641E-002	9.29081E-001	3.57175E+000	9	...........
	145	1.94667	9.30445E-001	9.12273E-005	0.00000E+000	8.48820E-005	5.39641E-002	9.30553E-001	3.57090E+000	9	...........
	146	1.96	9.31902E-001	9.11366E-005	0.00000E+000	8.49304E-005	5.39641E-002	9.32013E-001	3.57090E+000	9	...........
	147	1.97333	9.33346E-001	9.11429E-005	0.00000E+000	8.50679E-005	5.39641E-002	9.33469E-001	3.57090E+000	9	...........
	148	1.98667	9.34774E-001	9.10522E-005	0.00000E+000	8.51133E-005	5.39641E-002	9.34904E-001	3.57090E+000	9	...........
	149	2	9.36169E-001	9.13012E-005	0.00000E+000	8.54734E-005	5.39641E-002	9.36325E-001	3.57090E+000	9	...........
	150	2.01333	9.37567E-001	9.10470E-005	0.00000E+000	8.53627E-005	5.39641E-002	9.37715E-001	3.57090E+000	9	...........
	151	2.02667	9.38962E-001	9.13054E-005	0.00000E+000	8.57323E-005	5.39641E-002	9.39093E-001	3.57090E+000	9	...........
	152	2.04	9.40351E-001	9.09647E-005	0.00000E+000	8.55388E-005	5.39641E-002	9.40483E-001	3.57090E+000	9	...........
	153	2.05333	9.41714E-001	9.12158E-005	0.00000E+000	8.58992E-005	5.39641E-002	9.41855E-001	3.57090E+000	9	...........
	154	2.06667	9.43067E-001	9.11804E-005	0.00000E+000	8.59893E-005	5.39641E-002	9.43225E-001	3.57090E+000	9	...........
	155	2.08	9.44439E-001	9.10762E-005	0.00000E+000	8.60159E-005	5.39641E-002	9.44563E-001	3.57090E+000	9	...........
	156	2.09333	9.45752E-001	9.11241E-005	0.00000E+000	8.61808E-005	5.39641E-002	9.45921E-001	3.57090E+000	9	...........
	157	2.10667	9.47133E-001	9.11887E-005	0.00000E+000	8.63678E-005	5.39641E-002	9.47258E-001	3.57090E+000	9	...........
	158	2.12	9.48439E-001	9.12971E-005	0.00000E+000	8.65897E-005	5.39641E-002	9.48564E-001	3.57090E+000	9	...........
	159	2.13333	9.49760E-001	9.12721E-005	0.00000E+000	8.66866E-005	5.39641E-002	9.49889E-001	3.57090E+000	9	...........
	160	2.14667	9.51058E-001	9.13075E-005	0.00000E+000	8.68387E-005	5.39641E-002	9.51195E-001	3.57090E+000	9	...........
	161	2.16	9.52360E-001	9.10918E-005	0.00000E+000	8.67522E-005	5.39641E-002	9.52499E-001	3.57090E+000	9	...........
	162	2.17333	9.53634E-001	9.14742E-005	0.00000E+000	8.72329E-005	5.39641E-002	9.53755E-001	3.57090E+000	9	...........
	163	2.18667	9.54904E-001	9.13377E-005	0.00000E+000	8.72188E-005	5.39641E-002	9.55003E-001	3.57090E+000	9	...........
	164	2.2	9.56137E-001	9.15221E-005	0.00000E+000	8.75077E-005	5.39641E-002	9.56254E-001	3.57090E+000	9	...........
	165	2.21333	9.57353E-001	9.14534E-005	0.00000E+000	8.75531E-005	5.39641E-002	9.57501E-001	3.57090E+000	9	...........
	166	2.22667	9.58593E-001	9.12335E-005	0.00000E+000	8.74558E-005	5.39641E-002	9.58748E-001	3.57090E+000	9	...........
	167	2.24	9.59830E-001	9.12804E-005	0.00000E+000	8.76137E-005	5.39641E-002	9.59959E-001	3.57090E+000	9	...........
	168	2.25333	9.61024E-001	9.11970E-005	0.00000E+000	8.76426E-005	5.39641E-002	9.61180E-001	3.57090E+000	9	...........
	169	2.26667	9.62230E-001	9.09991E-005	0.00000E+000	8.75620E-005	5.39641E-002	9.62385E-001	3.57090E+000	9	...........
	170	2.28	9.63424E-001	9.12377E-005	0.00000E+000	8.79006E-005	5.39641E-002	9.63595E-001	3.57090E+000	9	...........
	171	2.29333	9.64615E-001	9.12992E-005	0.00000E+000	8.80686E-005	5.39641E-002	9.64766E-001	3.57090E+000	9	...........
	172	2.30667	9.65767E-001	9.10387E-005	0.00000E+000	8.79222E-005	5.39641E-002	9.65919E-001	3.57090E+000	9	...........
	173	2.32	9.66901E-001	9.11512E-005	0.00000E+000	8.81342E-005	5.39641E-002	9.67066E-001	3.57090E+000	9	...........
	174	2.33333	9.68043E-001	9.13210E-005	0.00000E+000	8.84027E-005	5.39641E-002	9.68214E-001	3.57090E+000	9	...........
	175	2.34667	9.69175E-001	9.10428E-005	0.00000E+000	8.82364E-005	5.39641E-002	9.69326E-001	3.57090E+000	9	...........
	176	2.36	9.70278E-001	9.11429E-005	0.00000E+000	8.84339E-005	5.39641E-002	9.70473E-001	3.57090E+000	9	...........
	177	2.37333	9.71422E-001	9.11877E-005	0.00000E+000	8.85817E-005	5.39641E-002	9.71591E-001	3.57090E+000	9	...........
	178	2.38667	9.72597E-001	9.09689E-005	0.00000E+000	8.84761E-005	5.39641E-002	9.72733E-001	3.57090E+000	9	...........
	179	2.4	9.73724E-001	9.11377E-005	0.00000E+000	8.87429E-005	5.39641E-002	9.73849E-001	3.57090E+000	9	...........
	180	2.41333	9.74814E-001	9.10481E-005	0.00000E+000	8.87549E-005	5.39641E-002	9.74963E-001	3.57090E+000	9	...........
	181	2.42667	9.75908E-001	9.12679E-005	0.00000E+000	8.90691E-005	5.39641E-002	9.76043E-001	3.57090E+000	9	...........
	182	2.44	9.76978E-001	9.15388E-005	0.00000E+000	8.94313E-005	5.39641E-002	9.77103E-001	3.57090E+000	9	...........
	183	2.45333	9.78037E-001	9.10731E-005	0.00000E+000	8.90728E-005	5.39641E-002	9.78185E-001	3.57090E+000	9	...........
	184	2.46667	9.79106E-001	9.11679E-005	0.00000E+000	8.92630E-005	5.39641E-002	9.79236E-001	3.57090E+000	9	...........
	185	2.48	9.80142E-001	9.12616E-005	0.00000E+000	8.94494E-005	5.39641E-002	9.80271E-001	3.57090E+000	9	...........
	186	2.49333	9.81210E-001	9.09730E-005	0.00000E+000	8.92637E-005	5.39641E-002	9.81328E-001	3.57090E+000	9	...........
	187	2.50667	9.82243E-001	9.13190E-005	0.00000E+000	8.96974E-005	5.39641E-002	9.82365E-001	3.57090E+000	9	...........
	188	2.52	9.83245E-001	9.13742E-005	0.00000E+000	8.98432E-005	5.39641E-002	9.83407E-001	3.57090E+000	9	...........
	189	2.53333	9.84266E-001	9.12283E-005	0.00000E+000	8.97930E-005	5.39641E-002	9.84435E-001	3.57090E+000	9	...........
	190	2.54667	9.85276E-001	9.12783E-005	0.00000E+000	8.99343E-005	5.39641E-002	9.85430E-001	3.57090E+000	9	...........
	191	2.56	9.86263E-001	9.10241E-005	0.00000E+000	8.97737E-005	5.39641E-002	9.86434E-001	3.57090E+000	9	...........
	192	2.57333	9.87266E-001	9.13085E-005	0.00000E+000	9.01458E-005	5.39641E-002	9.87430E-001	3.57090E+000	9	...........
	193	2.58667	9.88284E-001	9.10783E-005	0.00000E+000	9.00112E-005	5.39641E-002	9.88414E-001	3.57090E+000	9	...........
	194	2.6	9.89250E-001	9.11595E-005	0.00000E+000	9.01795E-005	5.39641E-002	9.89397E-001	3.57090E+000	9	...........
	195	2.61333	9.90225E-001	9.11137E-005	0.00000E+000	9.02231E-005	5.39641E-002	9.90367E-001	3.57090E+000	9	...........
	196	2.62667	9.91188E-001	9.10710E-005	0.00000E+000	9.02684E-005	5.39641E-002	9.91320E-001	3.57090E+000	9	...........
	197	2.64	9.92129E-001	9.14617E-005	0.00000E+000	9.07418E-005	5.39641E-002	9.92307E-001	3.57090E+000	9	...........
	198	2.65333	9.93090E-001	9.12596E-005	0.00000E+000	9.06289E-005	5.39641E-002	9.93257E-001	3.57090E+000	9	...........
	199	2.66667	9.94030E-001	9.13752E-005	0.00000E+000	9.08297E-005	5.39641E-002	9.94190E-001	3.57090E+000	9	...........
	200	2.68	9.94997E-001	9.10595E-005	0.00000E+000	9.06039E-005	5.39641E-002	9.95125E-001	3.57090E+000	9	...........
	201	2.69333	9.95916E-001	9.10501E-005	0.00000E+000	9.06783E-005	5.39641E-002	9.96047E-001	3.57090E+000	9	...........
	202	2.70667	9.96824E-001	9.12179E-005	0.00000E+000	9.09281E-005	5.39641E-002	9.96967E-001	3.57090E+000	9	...........
	203	2.72	9.97758E-001	9.11335E-005	0.00000E+000	9.09291E-005	5.39641E-002	9.97900E-001	3.57090E+000	9	...........
	204	2.73333	9.98679E-001	9.14731E-005	0.00000E+000	9.13523E-005	5.39641E-002	9.98820E-001	3.57090E+000	9	...........
	205	2.74667	9.99560E-001	9.13731E-005	0.00000E+000	9.13329E-005	5.39641E-002	9.99714E-001	3.57090E+000	9	...........
	206	2.74833	1.00008E+000	9.14961E-005	0.00000E+000	9.15030E-005	5.39641E-002	1.00022E+000	3.57090E+000	9	...........
STARTTIMEOFFSET	QUANT	127.83	Start Time Offset (s)
