EXPLAIN
TAG	PWR800_CHARGE
TITLE	LABEL	PWR Cyclic Charge Discharge (Cell) - Charge Step	Test &Identifier
DATE	LABEL	10-7-2017	Date
TIME	LABEL	15:29:43	Time
NOTES	NOTES	3	&Notes...
	supercap test cell
	0.9mg
	6M KOH
PSTAT	PSTAT	IFC5000-01520	Potentiostat
CAPACITY	QUANT	1.00000E-003	Capacity (A-hr)
CELLTYPE	SELECTOR	1	&Cell Type
WORKINGCONNECTION	SELECTOR	0	&Working Lead
MAXCHARGETIME	VARIABLEANDUNITS	1.00000E+002	s	1.00000E+002	second(s)	Max &Charge Time
CHARGECURRENT	QUANT	9.00000E-005	&Charge Current (A) 
VOLTAGEFINISH	TWOPARAM	F	1.00000E-003	3.60000E+003	&Voltage Finish	 I (A) < 	Max Time(s)
SAMPLETIME	QUANT	1.00000E-002	Sa&mple Period (s)
CHARGESTOPAT1	MULTIPARAM	4	1.00000E+000	Charge Stop At &1	Voltage > Limit	V
CHARGESTOPAT2	MULTIPARAM	0	0.00000E+000	Charge Stop At &2	None	N/A
AESBHCSELECTOR	TOGGLE	F	Save Both Half Cells
IRCOMP	TOGGLE	F	IR &Measure
EOC	QUANT	0	Open Circuit (V)
SEQUENCER	TOGGLE	TRUE	Run as Sequence
PSTATMODEL	IQUANT	53	Pstat Model
PSTATSECTION	LABEL	IFC5000-01520	Pstat Section
PSTATSERIALNO	LABEL	01520	Pstat Serial Number
CTRLMODE	IQUANT	0	Control Mode
ELECTROMETER	IQUANT	1	RE=0 or CS=1
IESTAB	IQUANT	0	I/E Stability
CASPEED	IQUANT	4	Control Amp Speed
CONVENTION	IQUANT	1	Current Convention
ICHRANGE	IQUANT	2	Ich Range
ICHRANGEMODE	TOGGLE	T	Ich Auto Range
ICHOFFSETENABLE	TOGGLE	F	Ich Offset Enable
ICHOFFSET	QUANT	0	Ich Offset (V)
ICHFILTER	IQUANT	1	Ich Filter
VCHRANGE	IQUANT	2	Vch Range
VCHRANGEMODE	TOGGLE	T	Vch Auto Range
VCHOFFSETENABLE	TOGGLE	F	Vch Offset Enable
VCHOFFSET	QUANT	0	Vch Offset (V)
VCHFILTER	IQUANT	1	Vch Filter
IERANGELOWERLIMIT	IQUANT	9	I/E Range Lower Limit
IERANGEMODE	TOGGLE	F	I/E AutoRange
IERANGE	IQUANT	9	I/E Range
ACHSELECT	IQUANT	1	Ach Select
ACHRANGE	IQUANT	2	Ach Range
ACHOFFSETENABLE	TOGGLE	F	Ach Offset Enable
ACHOFFSET	QUANT	0	Ach Offset (V)
ACHFILTER	IQUANT	1	Ach Filter
CABLEID	IQUANT	14	Cable ID
DCCALDATE	LABEL	5-7-2017	DC Calibration Date
ACCALDATE	LABEL	12/3/2015	AC Calibration Date
FRAMEWORKVERSION	QUANT	7.01	Framework Version
INSTRUMENTVERSION	LABEL	4.00	Instrument Version
CURVE	TABLE	175
	Pt	T	Vf	Im	Vu	Pwr	Sig	Ach	Temp	IERange	Over
	#	s	V	A	V	W	V	V	deg C	#	bits
	0	0.013333	2.82138E-001	9.12804E-005	0.00000E+000	2.57537E-005	5.39641E-002	2.82178E-001	3.57290E+000	9	...........
	1	0.026667	3.01624E-001	9.08439E-005	0.00000E+000	2.74007E-005	5.39641E-002	3.01663E-001	3.57290E+000	9	...........
	2	0.04	3.19694E-001	9.08491E-005	0.00000E+000	2.90439E-005	5.39641E-002	3.19730E-001	3.57292E+000	9	...........
	3	0.053333	3.36576E-001	9.08449E-005	0.00000E+000	3.05762E-005	5.39641E-002	3.36617E-001	3.57300E+000	9	...........
	4	0.066667	3.52459E-001	9.09012E-005	0.00000E+000	3.20389E-005	5.39641E-002	3.52498E-001	3.57300E+000	9	...........
	5	0.08	3.67453E-001	9.09991E-005	0.00000E+000	3.34379E-005	5.39641E-002	3.67493E-001	3.57300E+000	9	...........
	6	0.093333	3.81672E-001	9.07230E-005	0.00000E+000	3.46264E-005	5.39641E-002	3.81714E-001	3.57300E+000	9	...........
	7	0.106667	3.95186E-001	9.10689E-005	0.00000E+000	3.59892E-005	5.39641E-002	3.95229E-001	3.57300E+000	9	...........
	8	0.12	4.08077E-001	9.10856E-005	0.00000E+000	3.71699E-005	5.39641E-002	4.08121E-001	3.57300E+000	9	...........
	9	0.133333	4.20391E-001	9.11002E-005	0.00000E+000	3.82977E-005	5.39641E-002	4.20444E-001	3.57300E+000	9	...........
	10	0.146667	4.32185E-001	9.12346E-005	0.00000E+000	3.94302E-005	5.39641E-002	4.32239E-001	3.57300E+000	9	...........
	11	0.16	4.43501E-001	9.07740E-005	0.00000E+000	4.02584E-005	5.39641E-002	4.43560E-001	3.57300E+000	9	...........
	12	0.173333	4.54397E-001	9.09407E-005	0.00000E+000	4.13232E-005	5.39641E-002	4.54457E-001	3.57300E+000	9	...........
	13	0.186667	4.64902E-001	9.07459E-005	0.00000E+000	4.21880E-005	5.39641E-002	4.64965E-001	3.57300E+000	9	...........
	14	0.2	4.75035E-001	9.10022E-005	0.00000E+000	4.32293E-005	5.39641E-002	4.75090E-001	3.57300E+000	9	...........
	15	0.213333	4.84803E-001	9.08939E-005	0.00000E+000	4.40656E-005	5.39641E-002	4.84864E-001	3.57300E+000	9	...........
	16	0.226667	4.94264E-001	9.09178E-005	0.00000E+000	4.49374E-005	5.39641E-002	4.94327E-001	3.57300E+000	9	...........
	17	0.24	5.03436E-001	9.10053E-005	0.00000E+000	4.58154E-005	5.39641E-002	5.03505E-001	3.57300E+000	9	...........
	18	0.253333	5.12320E-001	9.09137E-005	0.00000E+000	4.65768E-005	5.39641E-002	5.12391E-001	3.57300E+000	9	...........
	19	0.266667	5.20923E-001	9.08772E-005	0.00000E+000	4.73400E-005	5.39641E-002	5.20994E-001	3.57300E+000	9	...........
	20	0.28	5.29275E-001	9.09908E-005	0.00000E+000	4.81591E-005	5.39641E-002	5.29347E-001	3.57300E+000	9	...........
	21	0.293333	5.37333E-001	9.06646E-005	0.00000E+000	4.87171E-005	5.39641E-002	5.37426E-001	3.57300E+000	9	...........
	22	0.306667	5.45234E-001	9.10554E-005	0.00000E+000	4.96465E-005	5.39641E-002	5.45339E-001	3.57300E+000	9	...........
	23	0.32	5.52911E-001	9.08230E-005	0.00000E+000	5.02170E-005	5.39641E-002	5.53042E-001	3.57300E+000	9	...........
	24	0.333333	5.60397E-001	9.12939E-005	0.00000E+000	5.11609E-005	5.39641E-002	5.60537E-001	3.57300E+000	9	...........
	25	0.346667	5.67731E-001	9.10481E-005	0.00000E+000	5.16908E-005	5.39641E-002	5.67835E-001	3.57300E+000	9	...........
	26	0.36	5.74819E-001	9.08386E-005	0.00000E+000	5.22158E-005	5.39641E-002	5.74937E-001	3.57300E+000	9	...........
	27	0.373333	5.81761E-001	9.08543E-005	0.00000E+000	5.28555E-005	5.39641E-002	5.81883E-001	3.57300E+000	9	...........
	28	0.386667	5.88530E-001	9.10949E-005	0.00000E+000	5.36121E-005	5.39641E-002	5.88680E-001	3.57300E+000	9	...........
	29	0.4	5.95144E-001	9.11387E-005	0.00000E+000	5.42406E-005	5.39641E-002	5.95288E-001	3.57300E+000	9	...........
	30	0.413333	6.01597E-001	9.09470E-005	0.00000E+000	5.47135E-005	5.39641E-002	6.01731E-001	3.57300E+000	9	...........
	31	0.426667	6.07916E-001	9.09949E-005	0.00000E+000	5.53173E-005	5.39641E-002	6.08078E-001	3.57300E+000	9	...........
	32	0.44	6.14156E-001	9.07699E-005	0.00000E+000	5.57469E-005	5.39641E-002	6.14288E-001	3.57300E+000	9	...........
	33	0.453333	6.20213E-001	9.09918E-005	0.00000E+000	5.64343E-005	5.39641E-002	6.20322E-001	3.57300E+000	9	...........
	34	0.466667	6.26115E-001	9.09043E-005	0.00000E+000	5.69166E-005	5.39641E-002	6.26231E-001	3.57300E+000	9	...........
	35	0.48	6.31917E-001	9.11022E-005	0.00000E+000	5.75691E-005	5.39641E-002	6.32053E-001	3.57300E+000	9	...........
	36	0.493333	6.37618E-001	9.11241E-005	0.00000E+000	5.81024E-005	5.39641E-002	6.37746E-001	3.57300E+000	9	...........
	37	0.506667	6.43218E-001	9.10908E-005	0.00000E+000	5.85912E-005	5.39641E-002	6.43356E-001	3.57300E+000	9	...........
	38	0.52	6.48710E-001	9.11960E-005	0.00000E+000	5.91598E-005	5.39641E-002	6.48821E-001	3.57300E+000	9	...........
	39	0.533333	6.54089E-001	9.09605E-005	0.00000E+000	5.94963E-005	5.39641E-002	6.54213E-001	3.57300E+000	9	...........
	40	0.546667	6.59361E-001	9.08803E-005	0.00000E+000	5.99230E-005	5.39641E-002	6.59488E-001	3.57300E+000	9	...........
	41	0.56	6.64568E-001	9.12012E-005	0.00000E+000	6.06094E-005	5.39641E-002	6.64688E-001	3.57300E+000	9	...........
	42	0.573333	6.69673E-001	9.10689E-005	0.00000E+000	6.09864E-005	5.39641E-002	6.69790E-001	3.57300E+000	9	...........
	43	0.586667	6.74656E-001	9.09178E-005	0.00000E+000	6.13382E-005	5.39641E-002	6.74755E-001	3.57300E+000	9	...........
	44	0.6	6.79570E-001	9.11866E-005	0.00000E+000	6.19677E-005	5.39641E-002	6.79677E-001	3.57300E+000	9	...........
	45	0.613333	6.84403E-001	9.11700E-005	0.00000E+000	6.23970E-005	5.39641E-002	6.84483E-001	3.57300E+000	9	...........
	46	0.626667	6.89155E-001	9.07636E-005	0.00000E+000	6.25502E-005	5.39641E-002	6.89240E-001	3.57300E+000	9	...........
	47	0.64	6.93852E-001	9.13637E-005	0.00000E+000	6.33929E-005	5.39641E-002	6.93892E-001	3.57300E+000	9	...........
	48	0.653333	6.98447E-001	9.11012E-005	0.00000E+000	6.36294E-005	5.39641E-002	6.98524E-001	3.57300E+000	9	...........
	49	0.666667	7.02976E-001	9.09855E-005	0.00000E+000	6.39607E-005	5.39641E-002	7.03060E-001	3.57300E+000	9	...........
	50	0.68	7.07440E-001	9.11002E-005	0.00000E+000	6.44479E-005	5.39641E-002	7.07550E-001	3.57300E+000	9	...........
	51	0.693333	7.11816E-001	9.10626E-005	0.00000E+000	6.48198E-005	5.39641E-002	7.11939E-001	3.57300E+000	9	...........
	52	0.706667	7.16166E-001	9.10835E-005	0.00000E+000	6.52309E-005	5.39641E-002	7.16285E-001	3.57300E+000	9	...........
	53	0.72	7.20444E-001	9.10710E-005	0.00000E+000	6.56115E-005	5.39641E-002	7.20530E-001	3.57300E+000	9	...........
	54	0.733333	7.24659E-001	9.12731E-005	0.00000E+000	6.61419E-005	5.39641E-002	7.24740E-001	3.57300E+000	9	...........
	55	0.746667	7.28767E-001	9.09418E-005	0.00000E+000	6.62754E-005	5.39641E-002	7.28861E-001	3.57300E+000	9	...........
	56	0.76	7.32821E-001	9.10376E-005	0.00000E+000	6.67143E-005	5.39641E-002	7.32931E-001	3.57300E+000	9	...........
	57	0.773333	7.36856E-001	9.09407E-005	0.00000E+000	6.70103E-005	5.39641E-002	7.36951E-001	3.57300E+000	9	...........
	58	0.786667	7.40855E-001	9.11877E-005	0.00000E+000	6.75569E-005	5.39641E-002	7.40958E-001	3.57300E+000	9	...........
	59	0.8	7.44780E-001	9.06813E-005	0.00000E+000	6.75377E-005	5.39641E-002	7.44896E-001	3.57300E+000	9	...........
	60	0.813333	7.48637E-001	9.14127E-005	0.00000E+000	6.84349E-005	5.39641E-002	7.48743E-001	3.57300E+000	9	...........
	61	0.826667	7.52456E-001	9.09314E-005	0.00000E+000	6.84218E-005	5.39641E-002	7.52584E-001	3.57300E+000	9	...........
	62	0.84	7.56241E-001	9.12179E-005	0.00000E+000	6.89827E-005	5.39641E-002	7.56371E-001	3.57300E+000	9	...........
	63	0.853333	7.59917E-001	9.10720E-005	0.00000E+000	6.92072E-005	5.39641E-002	7.60067E-001	3.57300E+000	9	...........
	64	0.866667	7.63570E-001	9.09043E-005	0.00000E+000	6.94118E-005	5.39641E-002	7.63711E-001	3.57300E+000	9	...........
	65	0.88	7.67189E-001	9.12418E-005	0.00000E+000	6.99997E-005	5.39641E-002	7.67386E-001	3.57300E+000	9	...........
	66	0.893333	7.70784E-001	9.12387E-005	0.00000E+000	7.03253E-005	5.39641E-002	7.70949E-001	3.57300E+000	9	...........
	67	0.906667	7.74283E-001	9.08980E-005	0.00000E+000	7.03808E-005	5.39641E-002	7.74467E-001	3.57300E+000	9	...........
	68	0.92	7.77758E-001	9.11470E-005	0.00000E+000	7.08903E-005	5.39641E-002	7.77936E-001	3.57300E+000	9	...........
	69	0.933333	7.81255E-001	9.11116E-005	0.00000E+000	7.11814E-005	5.39641E-002	7.81426E-001	3.57300E+000	9	...........
	70	0.946667	7.84669E-001	9.07126E-005	0.00000E+000	7.11793E-005	5.39641E-002	7.84810E-001	3.57300E+000	9	...........
	71	0.96	7.88025E-001	9.12971E-005	0.00000E+000	7.19444E-005	5.39641E-002	7.88186E-001	3.57300E+000	9	...........
	72	0.97333	7.91323E-001	9.11700E-005	0.00000E+000	7.21449E-005	5.39641E-002	7.91510E-001	3.57300E+000	9	...........
	73	0.98667	7.94694E-001	9.11887E-005	0.00000E+000	7.24671E-005	5.39641E-002	7.94835E-001	3.57300E+000	9	...........
	74	1	7.97931E-001	9.11325E-005	0.00000E+000	7.27174E-005	5.39641E-002	7.98101E-001	3.57300E+000	9	...........
	75	1.01333	8.01141E-001	9.12095E-005	0.00000E+000	7.30717E-005	5.39641E-002	8.01298E-001	3.57300E+000	9	...........
	76	1.02667	8.04279E-001	9.12554E-005	0.00000E+000	7.33948E-005	5.39641E-002	8.04477E-001	3.57300E+000	9	...........
	77	1.04	8.07460E-001	9.11064E-005	0.00000E+000	7.35648E-005	5.39641E-002	8.07635E-001	3.57293E+000	9	...........
	78	1.05333	8.10575E-001	9.08751E-005	0.00000E+000	7.36611E-005	5.39641E-002	8.10743E-001	3.57270E+000	9	...........
	79	1.06667	8.13652E-001	9.11137E-005	0.00000E+000	7.41349E-005	5.39641E-002	8.13863E-001	3.57270E+000	9	...........
	80	1.08	8.16681E-001	9.11554E-005	0.00000E+000	7.44448E-005	5.39641E-002	8.16898E-001	3.57270E+000	9	...........
	81	1.09333	8.19728E-001	9.11991E-005	0.00000E+000	7.47585E-005	5.39641E-002	8.19942E-001	3.57270E+000	9	...........
	82	1.10667	8.22706E-001	9.09626E-005	0.00000E+000	7.48355E-005	5.39641E-002	8.22892E-001	3.57270E+000	9	...........
	83	1.12	8.25668E-001	9.08855E-005	0.00000E+000	7.50413E-005	5.39641E-002	8.25858E-001	3.57270E+000	9	...........
	84	1.13333	8.28578E-001	9.09460E-005	0.00000E+000	7.53558E-005	5.39641E-002	8.28748E-001	3.57270E+000	9	...........
	85	1.14667	8.31466E-001	9.12398E-005	0.00000E+000	7.58628E-005	5.39641E-002	8.31638E-001	3.57270E+000	9	...........
	86	1.16	8.34332E-001	9.10668E-005	0.00000E+000	7.59800E-005	5.39641E-002	8.34518E-001	3.57270E+000	9	...........
	87	1.17333	8.37191E-001	9.11022E-005	0.00000E+000	7.62700E-005	5.39641E-002	8.37381E-001	3.57270E+000	9	...........
	88	1.18667	8.40006E-001	9.09105E-005	0.00000E+000	7.63654E-005	5.39641E-002	8.40163E-001	3.57270E+000	9	...........
	89	1.2	8.42758E-001	9.10303E-005	0.00000E+000	7.67165E-005	5.39641E-002	8.42956E-001	3.57270E+000	9	...........
	90	1.21333	8.45544E-001	9.12210E-005	0.00000E+000	7.71314E-005	5.39641E-002	8.45708E-001	3.57270E+000	9	...........
	91	1.22667	8.48250E-001	9.10345E-005	0.00000E+000	7.72200E-005	5.39641E-002	8.48423E-001	3.57270E+000	9	...........
	92	1.24	8.50938E-001	9.09876E-005	0.00000E+000	7.74249E-005	5.39641E-002	8.51113E-001	3.57270E+000	9	...........
	93	1.25333	8.53604E-001	9.10856E-005	0.00000E+000	7.77510E-005	5.39641E-002	8.53772E-001	3.57270E+000	9	...........
	94	1.26667	8.56213E-001	9.11700E-005	0.00000E+000	7.80609E-005	5.39641E-002	8.56408E-001	3.57270E+000	9	...........
	95	1.28	8.58840E-001	9.09564E-005	0.00000E+000	7.81170E-005	5.39641E-002	8.59068E-001	3.57270E+000	9	...........
	96	1.29333	8.61456E-001	9.13221E-005	0.00000E+000	7.86700E-005	5.39641E-002	8.61628E-001	3.57270E+000	9	...........
	97	1.30667	8.63966E-001	9.11127E-005	0.00000E+000	7.87182E-005	5.39641E-002	8.64182E-001	3.57270E+000	9	...........
	98	1.32	8.66513E-001	9.11283E-005	0.00000E+000	7.89638E-005	5.39641E-002	8.66712E-001	3.57270E+000	9	...........
	99	1.33333	8.69028E-001	9.11043E-005	0.00000E+000	7.91722E-005	5.39641E-002	8.69206E-001	3.57270E+000	9	...........
	100	1.34667	8.71510E-001	9.10658E-005	0.00000E+000	7.93647E-005	5.39641E-002	8.71701E-001	3.57270E+000	9	...........
	101	1.36	8.73954E-001	9.12346E-005	0.00000E+000	7.97348E-005	5.39641E-002	8.74161E-001	3.57270E+000	9	...........
	102	1.37333	8.76397E-001	9.09105E-005	0.00000E+000	7.96737E-005	5.39641E-002	8.76588E-001	3.57270E+000	9	...........
	103	1.38667	8.78807E-001	9.08501E-005	0.00000E+000	7.98398E-005	5.39641E-002	8.78992E-001	3.57270E+000	9	...........
	104	1.4	8.81186E-001	9.11668E-005	0.00000E+000	8.03349E-005	5.39641E-002	8.81386E-001	3.57270E+000	9	...........
	105	1.41333	8.83587E-001	9.09064E-005	0.00000E+000	8.03237E-005	5.39641E-002	8.83763E-001	3.57270E+000	9	...........
	106	1.42667	8.85926E-001	9.13294E-005	0.00000E+000	8.09111E-005	5.39641E-002	8.86091E-001	3.57270E+000	9	...........
	107	1.44	8.88242E-001	9.09439E-005	0.00000E+000	8.07802E-005	5.39641E-002	8.88397E-001	3.57270E+000	9	...........
	108	1.45333	8.90522E-001	9.10220E-005	0.00000E+000	8.10571E-005	5.39641E-002	8.90674E-001	3.57270E+000	9	...........
	109	1.46667	8.92779E-001	9.11147E-005	0.00000E+000	8.13453E-005	5.39641E-002	8.92924E-001	3.57270E+000	9	...........
	110	1.48	8.95033E-001	9.10897E-005	0.00000E+000	8.15284E-005	5.39641E-002	8.95192E-001	3.57270E+000	9	...........
	111	1.49333	8.97248E-001	9.09647E-005	0.00000E+000	8.16179E-005	5.39641E-002	8.97404E-001	3.57270E+000	9	...........
	112	1.50667	8.99428E-001	9.10262E-005	0.00000E+000	8.18715E-005	5.39641E-002	8.99579E-001	3.57270E+000	9	...........
	113	1.52	9.01592E-001	9.11595E-005	0.00000E+000	8.21887E-005	5.39641E-002	9.01754E-001	3.57270E+000	9	...........
	114	1.53333	9.03744E-001	9.09491E-005	0.00000E+000	8.21947E-005	5.39641E-002	9.03928E-001	3.57270E+000	9	...........
	115	1.54667	9.05903E-001	9.11918E-005	0.00000E+000	8.26109E-005	5.39641E-002	9.06082E-001	3.57270E+000	9	...........
	116	1.56	9.08028E-001	9.11710E-005	0.00000E+000	8.27859E-005	5.39641E-002	9.08232E-001	3.57270E+000	9	...........
	117	1.57333	9.10128E-001	9.09855E-005	0.00000E+000	8.28085E-005	5.39641E-002	9.10309E-001	3.57270E+000	9	...........
	118	1.58667	9.12190E-001	9.09366E-005	0.00000E+000	8.29514E-005	5.39641E-002	9.12374E-001	3.57270E+000	9	...........
	119	1.6	9.14238E-001	9.08803E-005	0.00000E+000	8.30862E-005	5.39641E-002	9.14430E-001	3.57270E+000	9	...........
	120	1.61333	9.16254E-001	9.09626E-005	0.00000E+000	8.33449E-005	5.39641E-002	9.16464E-001	3.57270E+000	9	...........
	121	1.62667	9.18258E-001	9.10960E-005	0.00000E+000	8.36496E-005	5.39641E-002	9.18463E-001	3.57270E+000	9	...........
	122	1.64	9.20275E-001	9.11950E-005	0.00000E+000	8.39245E-005	5.39641E-002	9.20454E-001	3.57270E+000	9	...........
	123	1.65333	9.22276E-001	9.09282E-005	0.00000E+000	8.38609E-005	5.39641E-002	9.22448E-001	3.57270E+000	9	...........
	124	1.66667	9.24221E-001	9.09814E-005	0.00000E+000	8.40869E-005	5.39641E-002	9.24384E-001	3.57270E+000	9	...........
	125	1.68	9.26154E-001	9.11314E-005	0.00000E+000	8.44017E-005	5.39641E-002	9.26318E-001	3.57270E+000	9	...........
	126	1.69333	9.28067E-001	9.09960E-005	0.00000E+000	8.44503E-005	5.39641E-002	9.28262E-001	3.57270E+000	9	...........
	127	1.70667	9.29950E-001	9.10856E-005	0.00000E+000	8.47050E-005	5.39641E-002	9.30131E-001	3.57270E+000	9	...........
	128	1.72	9.31811E-001	9.11950E-005	0.00000E+000	8.49765E-005	5.39641E-002	9.32004E-001	3.57270E+000	9	...........
	129	1.73333	9.33647E-001	9.11158E-005	0.00000E+000	8.50699E-005	5.39641E-002	9.33853E-001	3.57270E+000	9	...........
	130	1.74667	9.35460E-001	9.07251E-005	0.00000E+000	8.48697E-005	5.39641E-002	9.35644E-001	3.57270E+000	9	...........
	131	1.76	9.37249E-001	9.10481E-005	0.00000E+000	8.53347E-005	5.39641E-002	9.37478E-001	3.57270E+000	9	...........
	132	1.77333	9.39049E-001	9.10751E-005	0.00000E+000	8.55240E-005	5.39641E-002	9.39284E-001	3.57270E+000	9	...........
	133	1.78667	9.40838E-001	9.08980E-005	0.00000E+000	8.55203E-005	5.39641E-002	9.41048E-001	3.57270E+000	9	...........
	134	1.8	9.42601E-001	9.10303E-005	0.00000E+000	8.58053E-005	5.39641E-002	9.42823E-001	3.57270E+000	9	...........
	135	1.81333	9.44364E-001	9.11877E-005	0.00000E+000	8.61144E-005	5.39641E-002	9.44566E-001	3.57270E+000	9	...........
	136	1.82667	9.46110E-001	9.10408E-005	0.00000E+000	8.61346E-005	5.39641E-002	9.46318E-001	3.57270E+000	9	...........
	137	1.84	9.47825E-001	9.10168E-005	0.00000E+000	8.62680E-005	5.39641E-002	9.48021E-001	3.57270E+000	9	...........
	138	1.85333	9.49517E-001	9.12293E-005	0.00000E+000	8.66238E-005	5.39641E-002	9.49716E-001	3.57270E+000	9	...........
	139	1.86667	9.51203E-001	9.10918E-005	0.00000E+000	8.66468E-005	5.39641E-002	9.51364E-001	3.57270E+000	9	...........
	140	1.88	9.52834E-001	9.11022E-005	0.00000E+000	8.68053E-005	5.39641E-002	9.53041E-001	3.57270E+000	9	...........
	141	1.89333	9.54495E-001	9.10293E-005	0.00000E+000	8.68871E-005	5.39641E-002	9.54689E-001	3.57270E+000	9	...........
	142	1.90667	9.56117E-001	9.10606E-005	0.00000E+000	8.70646E-005	5.39641E-002	9.56283E-001	3.57270E+000	9	...........
	143	1.92	9.57722E-001	9.10345E-005	0.00000E+000	8.71857E-005	5.39641E-002	9.57870E-001	3.57270E+000	9	...........
	144	1.93333	9.59318E-001	9.12085E-005	0.00000E+000	8.74980E-005	5.39641E-002	9.59498E-001	3.57270E+000	9	...........
	145	1.94667	9.60898E-001	9.11918E-005	0.00000E+000	8.76260E-005	5.39641E-002	9.61076E-001	3.57270E+000	9	...........
	146	1.96	9.62448E-001	9.09407E-005	0.00000E+000	8.75258E-005	5.39641E-002	9.62644E-001	3.57270E+000	9	...........
	147	1.97333	9.63994E-001	9.12554E-005	0.00000E+000	8.79697E-005	5.39641E-002	9.64205E-001	3.57270E+000	9	...........
	148	1.98667	9.65541E-001	9.11408E-005	0.00000E+000	8.80001E-005	5.39641E-002	9.65720E-001	3.57270E+000	9	...........
	149	2	9.67055E-001	9.10251E-005	0.00000E+000	8.80263E-005	5.39641E-002	9.67236E-001	3.57270E+000	9	...........
	150	2.01333	9.68562E-001	9.11116E-005	0.00000E+000	8.82472E-005	5.39641E-002	9.68758E-001	3.57270E+000	9	...........
	151	2.02667	9.70051E-001	9.08949E-005	0.00000E+000	8.81727E-005	5.39641E-002	9.70279E-001	3.57270E+000	9	...........
	152	2.04	9.71550E-001	9.11898E-005	0.00000E+000	8.85955E-005	5.39641E-002	9.71771E-001	3.57260E+000	9	...........
	153	2.05333	9.73042E-001	9.08553E-005	0.00000E+000	8.84061E-005	5.39641E-002	9.73231E-001	3.57230E+000	9	...........
	154	2.06667	9.74502E-001	9.11220E-005	0.00000E+000	8.87986E-005	5.39641E-002	9.74703E-001	3.57230E+000	9	...........
	155	2.08	9.75917E-001	9.08720E-005	0.00000E+000	8.86835E-005	5.39641E-002	9.76113E-001	3.57230E+000	9	...........
	156	2.09333	9.77329E-001	9.12544E-005	0.00000E+000	8.91855E-005	5.39641E-002	9.77530E-001	3.57230E+000	9	...........
	157	2.10667	9.78733E-001	9.09282E-005	0.00000E+000	8.89945E-005	5.39641E-002	9.78913E-001	3.57230E+000	9	...........
	158	2.12	9.80097E-001	9.12283E-005	0.00000E+000	8.94126E-005	5.39641E-002	9.80283E-001	3.57230E+000	9	...........
	159	2.13333	9.81453E-001	9.10481E-005	0.00000E+000	8.93594E-005	5.39641E-002	9.81645E-001	3.57230E+000	9	...........
	160	2.14667	9.82816E-001	9.10689E-005	0.00000E+000	8.95040E-005	5.39641E-002	9.83009E-001	3.57230E+000	9	...........
	161	2.16	9.84155E-001	9.10658E-005	0.00000E+000	8.96229E-005	5.39641E-002	9.84345E-001	3.57230E+000	9	...........
	162	2.17333	9.85483E-001	9.14731E-005	0.00000E+000	9.01452E-005	5.39641E-002	9.85680E-001	3.57230E+000	9	...........
	163	2.18667	9.86821E-001	9.11043E-005	0.00000E+000	8.99037E-005	5.39641E-002	9.87020E-001	3.57230E+000	9	...........
	164	2.2	9.88150E-001	9.10574E-005	0.00000E+000	8.99784E-005	5.39641E-002	9.88339E-001	3.57230E+000	9	...........
	165	2.21333	9.89450E-001	9.08334E-005	0.00000E+000	8.98751E-005	5.39641E-002	9.89636E-001	3.57230E+000	9	...........
	166	2.22667	9.90740E-001	9.11470E-005	0.00000E+000	9.03030E-005	5.39641E-002	9.90924E-001	3.57230E+000	9	...........
	167	2.24	9.91994E-001	9.10762E-005	0.00000E+000	9.03471E-005	5.39641E-002	9.92194E-001	3.57230E+000	9	...........
	168	2.25333	9.93255E-001	9.07949E-005	0.00000E+000	9.01825E-005	5.39641E-002	9.93437E-001	3.57230E+000	9	...........
	169	2.26667	9.94490E-001	9.09585E-005	0.00000E+000	9.04573E-005	5.39641E-002	9.94669E-001	3.57230E+000	9	...........
	170	2.28	9.95738E-001	9.11210E-005	0.00000E+000	9.07327E-005	5.39641E-002	9.95920E-001	3.57230E+000	9	...........
	171	2.29333	9.96956E-001	9.10845E-005	0.00000E+000	9.08073E-005	5.39641E-002	9.97169E-001	3.57230E+000	9	...........
	172	2.30667	9.98208E-001	9.09678E-005	0.00000E+000	9.08048E-005	5.39641E-002	9.98396E-001	3.57230E+000	9	...........
	173	2.32	9.99421E-001	9.12043E-005	0.00000E+000	9.11515E-005	5.39641E-002	9.99611E-001	3.57230E+000	9	...........
	174	2.32167	1.00013E+000	9.07209E-005	0.00000E+000	9.07324E-005	5.39641E-002	1.00033E+000	3.57230E+000	9	...........
STARTTIMEOFFSET	QUANT	1543.826	Start Time Offset (s)
