EXPLAIN
TAG	PWR800_CHARGE
TITLE	LABEL	PWR Cyclic Charge Discharge (Cell) - Charge Step	Test &Identifier
DATE	LABEL	10-7-2017	Date
TIME	LABEL	16:23:09	Time
NOTES	NOTES	3	&Notes...
	supercap test cell
	0.9mg
	6M KOH
PSTAT	PSTAT	IFC5000-01520	Potentiostat
CAPACITY	QUANT	1.00000E-003	Capacity (A-hr)
CELLTYPE	SELECTOR	1	&Cell Type
WORKINGCONNECTION	SELECTOR	0	&Working Lead
MAXCHARGETIME	VARIABLEANDUNITS	1.00000E+002	s	1.00000E+002	second(s)	Max &Charge Time
CHARGECURRENT	QUANT	9.00000E-005	&Charge Current (A) 
VOLTAGEFINISH	TWOPARAM	F	1.00000E-003	3.60000E+003	&Voltage Finish	 I (A) < 	Max Time(s)
SAMPLETIME	QUANT	1.00000E-002	Sa&mple Period (s)
CHARGESTOPAT1	MULTIPARAM	4	1.00000E+000	Charge Stop At &1	Voltage > Limit	V
CHARGESTOPAT2	MULTIPARAM	0	0.00000E+000	Charge Stop At &2	None	N/A
AESBHCSELECTOR	TOGGLE	F	Save Both Half Cells
IRCOMP	TOGGLE	F	IR &Measure
EOC	QUANT	0	Open Circuit (V)
SEQUENCER	TOGGLE	TRUE	Run as Sequence
PSTATMODEL	IQUANT	53	Pstat Model
PSTATSECTION	LABEL	IFC5000-01520	Pstat Section
PSTATSERIALNO	LABEL	01520	Pstat Serial Number
CTRLMODE	IQUANT	0	Control Mode
ELECTROMETER	IQUANT	1	RE=0 or CS=1
IESTAB	IQUANT	0	I/E Stability
CASPEED	IQUANT	4	Control Amp Speed
CONVENTION	IQUANT	1	Current Convention
ICHRANGE	IQUANT	2	Ich Range
ICHRANGEMODE	TOGGLE	T	Ich Auto Range
ICHOFFSETENABLE	TOGGLE	F	Ich Offset Enable
ICHOFFSET	QUANT	0	Ich Offset (V)
ICHFILTER	IQUANT	1	Ich Filter
VCHRANGE	IQUANT	2	Vch Range
VCHRANGEMODE	TOGGLE	T	Vch Auto Range
VCHOFFSETENABLE	TOGGLE	F	Vch Offset Enable
VCHOFFSET	QUANT	0	Vch Offset (V)
VCHFILTER	IQUANT	1	Vch Filter
IERANGELOWERLIMIT	IQUANT	9	I/E Range Lower Limit
IERANGEMODE	TOGGLE	F	I/E AutoRange
IERANGE	IQUANT	9	I/E Range
ACHSELECT	IQUANT	1	Ach Select
ACHRANGE	IQUANT	2	Ach Range
ACHOFFSETENABLE	TOGGLE	F	Ach Offset Enable
ACHOFFSET	QUANT	0	Ach Offset (V)
ACHFILTER	IQUANT	1	Ach Filter
CABLEID	IQUANT	14	Cable ID
DCCALDATE	LABEL	5-7-2017	DC Calibration Date
ACCALDATE	LABEL	12/3/2015	AC Calibration Date
FRAMEWORKVERSION	QUANT	7.01	Framework Version
INSTRUMENTVERSION	LABEL	4.00	Instrument Version
CURVE	TABLE	161
	Pt	T	Vf	Im	Vu	Pwr	Sig	Ach	Temp	IERange	Over
	#	s	V	A	V	W	V	V	deg C	#	bits
	0	0.013333	2.62229E-001	9.08220E-005	0.00000E+000	2.38162E-005	5.39641E-002	2.62276E-001	3.57370E+000	9	...........
	1	0.026667	2.81920E-001	9.07824E-005	0.00000E+000	2.55934E-005	5.39641E-002	2.81963E-001	3.57370E+000	9	...........
	2	0.04	3.00466E-001	9.09730E-005	0.00000E+000	2.73343E-005	5.39641E-002	3.00510E-001	3.57370E+000	9	...........
	3	0.053333	3.18020E-001	9.08605E-005	0.00000E+000	2.88954E-005	5.39641E-002	3.18058E-001	3.57370E+000	9	...........
	4	0.066667	3.34655E-001	9.07907E-005	0.00000E+000	3.03836E-005	5.39641E-002	3.34703E-001	3.57370E+000	9	...........
	5	0.08	3.50475E-001	9.10658E-005	0.00000E+000	3.19163E-005	5.39641E-002	3.50524E-001	3.57370E+000	9	...........
	6	0.093333	3.65534E-001	9.08709E-005	0.00000E+000	3.32164E-005	5.39641E-002	3.65582E-001	3.57370E+000	9	...........
	7	0.106667	3.79895E-001	9.09647E-005	0.00000E+000	3.45570E-005	5.39641E-002	3.79944E-001	3.57370E+000	9	...........
	8	0.12	3.93619E-001	9.07949E-005	0.00000E+000	3.57386E-005	5.39641E-002	3.93668E-001	3.57370E+000	9	...........
	9	0.133333	4.06743E-001	9.10689E-005	0.00000E+000	3.70417E-005	5.39641E-002	4.06792E-001	3.57370E+000	9	...........
	10	0.146667	4.19299E-001	9.08636E-005	0.00000E+000	3.80991E-005	5.39641E-002	4.19359E-001	3.57370E+000	9	...........
	11	0.16	4.31362E-001	9.08793E-005	0.00000E+000	3.92018E-005	5.39641E-002	4.31422E-001	3.57370E+000	9	...........
	12	0.173333	4.42955E-001	9.08928E-005	0.00000E+000	4.02614E-005	5.39641E-002	4.43012E-001	3.57370E+000	9	...........
	13	0.186667	4.54104E-001	9.10272E-005	0.00000E+000	4.13358E-005	5.39641E-002	4.54164E-001	3.57370E+000	9	...........
	14	0.2	4.64841E-001	9.09168E-005	0.00000E+000	4.22618E-005	5.39641E-002	4.64899E-001	3.57370E+000	9	...........
	15	0.213333	4.75195E-001	9.10106E-005	0.00000E+000	4.32478E-005	5.39641E-002	4.75252E-001	3.57370E+000	9	...........
	16	0.226667	4.85196E-001	9.08970E-005	0.00000E+000	4.41028E-005	5.39641E-002	4.85251E-001	3.57370E+000	9	...........
	17	0.24	4.94848E-001	9.08334E-005	0.00000E+000	4.49488E-005	5.39641E-002	4.94923E-001	3.57370E+000	9	...........
	18	0.253333	5.04192E-001	9.08636E-005	0.00000E+000	4.58127E-005	5.39641E-002	5.04262E-001	3.57370E+000	9	...........
	19	0.266667	5.13238E-001	9.08678E-005	0.00000E+000	4.66368E-005	5.39641E-002	5.13317E-001	3.57370E+000	9	...........
	20	0.28	5.22019E-001	9.08991E-005	0.00000E+000	4.74510E-005	5.39641E-002	5.22094E-001	3.57370E+000	9	...........
	21	0.293333	5.30514E-001	9.08345E-005	0.00000E+000	4.81890E-005	5.39641E-002	5.30598E-001	3.57370E+000	9	...........
	22	0.306667	5.38707E-001	9.08887E-005	0.00000E+000	4.89623E-005	5.39641E-002	5.38815E-001	3.57370E+000	9	...........
	23	0.32	5.46772E-001	9.08511E-005	0.00000E+000	4.96749E-005	5.39641E-002	5.46867E-001	3.57370E+000	9	...........
	24	0.333333	5.54579E-001	9.10168E-005	0.00000E+000	5.04760E-005	5.39641E-002	5.54692E-001	3.57360E+000	9	...........
	25	0.346667	5.62213E-001	9.12721E-005	0.00000E+000	5.13143E-005	5.39641E-002	5.62331E-001	3.57310E+000	9	...........
	26	0.36	5.69651E-001	9.08063E-005	0.00000E+000	5.17279E-005	5.39641E-002	5.69750E-001	3.57310E+000	9	...........
	27	0.373333	5.76856E-001	9.12002E-005	0.00000E+000	5.26094E-005	5.39641E-002	5.76981E-001	3.57310E+000	9	...........
	28	0.386667	5.83895E-001	9.11095E-005	0.00000E+000	5.31984E-005	5.39641E-002	5.84033E-001	3.57310E+000	9	...........
	29	0.4	5.90817E-001	9.10981E-005	0.00000E+000	5.38223E-005	5.39641E-002	5.90956E-001	3.57310E+000	9	...........
	30	0.413333	5.97558E-001	9.09126E-005	0.00000E+000	5.43256E-005	5.39641E-002	5.97710E-001	3.57310E+000	9	...........
	31	0.426667	6.04133E-001	9.11856E-005	0.00000E+000	5.50883E-005	5.39641E-002	6.04288E-001	3.57310E+000	9	...........
	32	0.44	6.10566E-001	9.09074E-005	0.00000E+000	5.55050E-005	5.39641E-002	6.10723E-001	3.57310E+000	9	...........
	33	0.453333	6.16949E-001	9.09449E-005	0.00000E+000	5.61084E-005	5.39641E-002	6.17043E-001	3.57310E+000	9	...........
	34	0.466667	6.23125E-001	9.11523E-005	0.00000E+000	5.67993E-005	5.39641E-002	6.23233E-001	3.57310E+000	9	...........
	35	0.48	6.29158E-001	9.10929E-005	0.00000E+000	5.73118E-005	5.39641E-002	6.29288E-001	3.57310E+000	9	...........
	36	0.493333	6.35062E-001	9.09668E-005	0.00000E+000	5.77696E-005	5.39641E-002	6.35191E-001	3.57310E+000	9	...........
	37	0.506667	6.40922E-001	9.10178E-005	0.00000E+000	5.83354E-005	5.39641E-002	6.41054E-001	3.57310E+000	9	...........
	38	0.52	6.46622E-001	9.10793E-005	0.00000E+000	5.88939E-005	5.39641E-002	6.46733E-001	3.57310E+000	9	...........
	39	0.533333	6.52195E-001	9.09626E-005	0.00000E+000	5.93254E-005	5.39641E-002	6.52333E-001	3.57310E+000	9	...........
	40	0.546667	6.57702E-001	9.09001E-005	0.00000E+000	5.97852E-005	5.39641E-002	6.57798E-001	3.57310E+000	9	...........
	41	0.56	6.63093E-001	9.09022E-005	0.00000E+000	6.02766E-005	5.39641E-002	6.63210E-001	3.57310E+000	9	...........
	42	0.573333	6.68431E-001	9.11293E-005	0.00000E+000	6.09137E-005	5.39641E-002	6.68543E-001	3.57310E+000	9	...........
	43	0.586667	6.73649E-001	9.10824E-005	0.00000E+000	6.13576E-005	5.39641E-002	6.73757E-001	3.57310E+000	9	...........
	44	0.6	6.78799E-001	9.09209E-005	0.00000E+000	6.17170E-005	5.39641E-002	6.78903E-001	3.57310E+000	9	...........
	45	0.613333	6.83829E-001	9.09345E-005	0.00000E+000	6.21837E-005	5.39641E-002	6.83923E-001	3.57310E+000	9	...........
	46	0.626667	6.88767E-001	9.08574E-005	0.00000E+000	6.25796E-005	5.39641E-002	6.88914E-001	3.57310E+000	9	...........
	47	0.64	6.93690E-001	9.10970E-005	0.00000E+000	6.31931E-005	5.39641E-002	6.93808E-001	3.57310E+000	9	...........
	48	0.653333	6.98491E-001	9.12471E-005	0.00000E+000	6.37352E-005	5.39641E-002	6.98637E-001	3.57310E+000	9	...........
	49	0.666667	7.03233E-001	9.10314E-005	0.00000E+000	6.40162E-005	5.39641E-002	7.03364E-001	3.57310E+000	9	...........
	50	0.68	7.07916E-001	9.07897E-005	0.00000E+000	6.42714E-005	5.39641E-002	7.08044E-001	3.57310E+000	9	...........
	51	0.693333	7.12527E-001	9.08428E-005	0.00000E+000	6.47280E-005	5.39641E-002	7.12653E-001	3.57310E+000	9	...........
	52	0.706667	7.17104E-001	9.10908E-005	0.00000E+000	6.53216E-005	5.39641E-002	7.17234E-001	3.57310E+000	9	...........
	53	0.72	7.21607E-001	9.13315E-005	0.00000E+000	6.59054E-005	5.39641E-002	7.21724E-001	3.57310E+000	9	...........
	54	0.733333	7.26025E-001	9.10595E-005	0.00000E+000	6.61115E-005	5.39641E-002	7.26135E-001	3.57310E+000	9	...........
	55	0.746667	7.30371E-001	9.08959E-005	0.00000E+000	6.63878E-005	5.39641E-002	7.30505E-001	3.57310E+000	9	...........
	56	0.76	7.34680E-001	9.09282E-005	0.00000E+000	6.68032E-005	5.39641E-002	7.34799E-001	3.57310E+000	9	...........
	57	0.773333	7.38933E-001	9.09658E-005	0.00000E+000	6.72176E-005	5.39641E-002	7.39054E-001	3.57310E+000	9	...........
	58	0.786667	7.43146E-001	9.11470E-005	0.00000E+000	6.77356E-005	5.39641E-002	7.43301E-001	3.57310E+000	9	...........
	59	0.8	7.47289E-001	9.11720E-005	0.00000E+000	6.81319E-005	5.39641E-002	7.47426E-001	3.57310E+000	9	...........
	60	0.813333	7.51362E-001	9.10887E-005	0.00000E+000	6.84405E-005	5.39641E-002	7.51499E-001	3.57310E+000	9	...........
	61	0.826667	7.55396E-001	9.10866E-005	0.00000E+000	6.88064E-005	5.39641E-002	7.55559E-001	3.57310E+000	9	...........
	62	0.84	7.59395E-001	9.09668E-005	0.00000E+000	6.90797E-005	5.39641E-002	7.59540E-001	3.57310E+000	9	...........
	63	0.853333	7.63315E-001	9.11054E-005	0.00000E+000	6.95421E-005	5.39641E-002	7.63474E-001	3.57310E+000	9	...........
	64	0.866667	7.67224E-001	9.09647E-005	0.00000E+000	6.97903E-005	5.39641E-002	7.67411E-001	3.57310E+000	9	...........
	65	0.88	7.71121E-001	9.10231E-005	0.00000E+000	7.01898E-005	5.39641E-002	7.71280E-001	3.57310E+000	9	...........
	66	0.893333	7.74935E-001	9.12002E-005	0.00000E+000	7.06742E-005	5.39641E-002	7.75099E-001	3.57310E+000	9	...........
	67	0.906667	7.78703E-001	9.08074E-005	0.00000E+000	7.07120E-005	5.39641E-002	7.78849E-001	3.57310E+000	9	...........
	68	0.92	7.82436E-001	9.11168E-005	0.00000E+000	7.12930E-005	5.39641E-002	7.82564E-001	3.57310E+000	9	...........
	69	0.933333	7.86118E-001	9.09137E-005	0.00000E+000	7.14689E-005	5.39641E-002	7.86225E-001	3.57310E+000	9	...........
	70	0.946667	7.89731E-001	9.09439E-005	0.00000E+000	7.18212E-005	5.39641E-002	7.89869E-001	3.57310E+000	9	...........
	71	0.96	7.93357E-001	9.11366E-005	0.00000E+000	7.23039E-005	5.39641E-002	7.93506E-001	3.57310E+000	9	...........
	72	0.97333	7.96947E-001	9.10856E-005	0.00000E+000	7.25904E-005	5.39641E-002	7.97095E-001	3.57310E+000	9	...........
	73	0.98667	8.00461E-001	9.10210E-005	0.00000E+000	7.28587E-005	5.39641E-002	8.00616E-001	3.57310E+000	9	...........
	74	1	8.03931E-001	9.09460E-005	0.00000E+000	7.31143E-005	5.39641E-002	8.04111E-001	3.57310E+000	9	...........
	75	1.01333	8.07407E-001	9.10585E-005	0.00000E+000	7.35213E-005	5.39641E-002	8.07566E-001	3.57310E+000	9	...........
	76	1.02667	8.10790E-001	9.11679E-005	0.00000E+000	7.39180E-005	5.39641E-002	8.10980E-001	3.57310E+000	9	...........
	77	1.04	8.14167E-001	9.09908E-005	0.00000E+000	7.40817E-005	5.39641E-002	8.14375E-001	3.57310E+000	9	...........
	78	1.05333	8.17524E-001	9.09032E-005	0.00000E+000	7.43155E-005	5.39641E-002	8.17722E-001	3.57310E+000	9	...........
	79	1.06667	8.20854E-001	9.10939E-005	0.00000E+000	7.47748E-005	5.39641E-002	8.21042E-001	3.57310E+000	9	...........
	80	1.08	8.24112E-001	9.09866E-005	0.00000E+000	7.49832E-005	5.39641E-002	8.24311E-001	3.57310E+000	9	...........
	81	1.09333	8.27357E-001	9.11252E-005	0.00000E+000	7.53931E-005	5.39641E-002	8.27531E-001	3.57310E+000	9	...........
	82	1.10667	8.30565E-001	9.10877E-005	0.00000E+000	7.56542E-005	5.39641E-002	8.30762E-001	3.57310E+000	9	...........
	83	1.12	8.33753E-001	9.07251E-005	0.00000E+000	7.56423E-005	5.39641E-002	8.33956E-001	3.57310E+000	9	...........
	84	1.13333	8.36887E-001	9.09335E-005	0.00000E+000	7.61010E-005	5.39641E-002	8.37095E-001	3.57310E+000	9	...........
	85	1.14667	8.40001E-001	9.12783E-005	0.00000E+000	7.66738E-005	5.39641E-002	8.40197E-001	3.57310E+000	9	...........
	86	1.16	8.43068E-001	9.09314E-005	0.00000E+000	7.66613E-005	5.39641E-002	8.43259E-001	3.57310E+000	9	...........
	87	1.17333	8.46140E-001	9.07688E-005	0.00000E+000	7.68032E-005	5.39641E-002	8.46348E-001	3.57310E+000	9	...........
	88	1.18667	8.49159E-001	9.09262E-005	0.00000E+000	7.72108E-005	5.39641E-002	8.49338E-001	3.57310E+000	9	...........
	89	1.2	8.52145E-001	9.12825E-005	0.00000E+000	7.77859E-005	5.39641E-002	8.52316E-001	3.57310E+000	9	...........
	90	1.21333	8.55092E-001	9.11262E-005	0.00000E+000	7.79213E-005	5.39641E-002	8.55283E-001	3.57310E+000	9	...........
	91	1.22667	8.58036E-001	9.10460E-005	0.00000E+000	7.81207E-005	5.39641E-002	8.58239E-001	3.57310E+000	9	...........
	92	1.24	8.60958E-001	9.09293E-005	0.00000E+000	7.82863E-005	5.39641E-002	8.61129E-001	3.57310E+000	9	...........
	93	1.25333	8.63799E-001	9.10793E-005	0.00000E+000	7.86743E-005	5.39641E-002	8.63991E-001	3.57310E+000	9	...........
	94	1.26667	8.66596E-001	9.08782E-005	0.00000E+000	7.87547E-005	5.39641E-002	8.66789E-001	3.57310E+000	9	...........
	95	1.28	8.69431E-001	9.09522E-005	0.00000E+000	7.90767E-005	5.39641E-002	8.69607E-001	3.57310E+000	9	...........
	96	1.29333	8.72209E-001	9.06355E-005	0.00000E+000	7.90531E-005	5.39641E-002	8.72387E-001	3.57310E+000	9	...........
	97	1.30667	8.74946E-001	9.10679E-005	0.00000E+000	7.96795E-005	5.39641E-002	8.75141E-001	3.57310E+000	9	...........
	98	1.32	8.77673E-001	9.10981E-005	0.00000E+000	7.99543E-005	5.39641E-002	8.77853E-001	3.57310E+000	9	...........
	99	1.33333	8.80358E-001	9.09387E-005	0.00000E+000	8.00586E-005	5.39641E-002	8.80544E-001	3.57313E+000	9	...........
	100	1.34667	8.83043E-001	9.10626E-005	0.00000E+000	8.04122E-005	5.39641E-002	8.83236E-001	3.57330E+000	9	...........
	101	1.36	8.85691E-001	9.09251E-005	0.00000E+000	8.05316E-005	5.39641E-002	8.85862E-001	3.57330E+000	9	...........
	102	1.37333	8.88292E-001	9.10606E-005	0.00000E+000	8.08884E-005	5.39641E-002	8.88486E-001	3.57330E+000	9	...........
	103	1.38667	8.90879E-001	9.08386E-005	0.00000E+000	8.09263E-005	5.39641E-002	8.91078E-001	3.57330E+000	9	...........
	104	1.4	8.93440E-001	9.09908E-005	0.00000E+000	8.12948E-005	5.39641E-002	8.93642E-001	3.57330E+000	9	...........
	105	1.41333	8.95989E-001	9.11387E-005	0.00000E+000	8.16593E-005	5.39641E-002	8.96239E-001	3.57330E+000	9	...........
	106	1.42667	8.98495E-001	9.09678E-005	0.00000E+000	8.17341E-005	5.39641E-002	8.98698E-001	3.57330E+000	9	...........
	107	1.44	9.00956E-001	9.09147E-005	0.00000E+000	8.19101E-005	5.39641E-002	9.01168E-001	3.57330E+000	9	...........
	108	1.45333	9.03428E-001	9.10970E-005	0.00000E+000	8.22996E-005	5.39641E-002	9.03652E-001	3.57330E+000	9	...........
	109	1.46667	9.05857E-001	9.09022E-005	0.00000E+000	8.23444E-005	5.39641E-002	9.06059E-001	3.57330E+000	9	...........
	110	1.48	9.08247E-001	9.12293E-005	0.00000E+000	8.28588E-005	5.39641E-002	9.08425E-001	3.57330E+000	9	...........
	111	1.49333	9.10594E-001	9.09084E-005	0.00000E+000	8.27807E-005	5.39641E-002	9.10747E-001	3.57330E+000	9	...........
	112	1.50667	9.12908E-001	9.08970E-005	0.00000E+000	8.29806E-005	5.39641E-002	9.13079E-001	3.57330E+000	9	...........
	113	1.52	9.15212E-001	9.10616E-005	0.00000E+000	8.33407E-005	5.39641E-002	9.15389E-001	3.57330E+000	9	...........
	114	1.53333	9.17499E-001	9.08980E-005	0.00000E+000	8.33989E-005	5.39641E-002	9.17674E-001	3.57330E+000	9	...........
	115	1.54667	9.19781E-001	9.11200E-005	0.00000E+000	8.38104E-005	5.39641E-002	9.19940E-001	3.57330E+000	9	...........
	116	1.56	9.22085E-001	9.10991E-005	0.00000E+000	8.40011E-005	5.39641E-002	9.22194E-001	3.57330E+000	9	...........
	117	1.57333	9.24294E-001	9.09407E-005	0.00000E+000	8.40560E-005	5.39641E-002	9.24415E-001	3.57330E+000	9	...........
	118	1.58667	9.26475E-001	9.07417E-005	0.00000E+000	8.40700E-005	5.39641E-002	9.26638E-001	3.57330E+000	9	...........
	119	1.6	9.28643E-001	9.10064E-005	0.00000E+000	8.45125E-005	5.39641E-002	9.28796E-001	3.57330E+000	9	...........
	120	1.61333	9.30789E-001	9.10512E-005	0.00000E+000	8.47495E-005	5.39641E-002	9.30960E-001	3.57330E+000	9	...........
	121	1.62667	9.32922E-001	9.09105E-005	0.00000E+000	8.48125E-005	5.39641E-002	9.33070E-001	3.57330E+000	9	...........
	122	1.64	9.35030E-001	9.10679E-005	0.00000E+000	8.51511E-005	5.39641E-002	9.35220E-001	3.57330E+000	9	...........
	123	1.65333	9.37102E-001	9.08991E-005	0.00000E+000	8.51817E-005	5.39641E-002	9.37298E-001	3.57330E+000	9	...........
	124	1.66667	9.39164E-001	9.12450E-005	0.00000E+000	8.56940E-005	5.39641E-002	9.39371E-001	3.57330E+000	9	...........
	125	1.68	9.41194E-001	9.09147E-005	0.00000E+000	8.55684E-005	5.39641E-002	9.41409E-001	3.57330E+000	9	...........
	126	1.69333	9.43191E-001	9.11314E-005	0.00000E+000	8.59544E-005	5.39641E-002	9.43375E-001	3.57330E+000	9	...........
	127	1.70667	9.45154E-001	9.07834E-005	0.00000E+000	8.58044E-005	5.39641E-002	9.45384E-001	3.57330E+000	9	...........
	128	1.72	9.47173E-001	9.10293E-005	0.00000E+000	8.62205E-005	5.39641E-002	9.47366E-001	3.57330E+000	9	...........
	129	1.73333	9.49133E-001	9.09783E-005	0.00000E+000	8.63505E-005	5.39641E-002	9.49310E-001	3.57330E+000	9	...........
	130	1.74667	9.51040E-001	9.11220E-005	0.00000E+000	8.66607E-005	5.39641E-002	9.51238E-001	3.57330E+000	9	...........
	131	1.76	9.52962E-001	9.09334E-005	0.00000E+000	8.66562E-005	5.39641E-002	9.53176E-001	3.57330E+000	9	...........
	132	1.77333	9.54853E-001	9.10043E-005	0.00000E+000	8.68957E-005	5.39641E-002	9.55044E-001	3.57330E+000	9	...........
	133	1.78667	9.56677E-001	9.10022E-005	0.00000E+000	8.70598E-005	5.39641E-002	9.56899E-001	3.57330E+000	9	...........
	134	1.8	9.58518E-001	9.10689E-005	0.00000E+000	8.72912E-005	5.39641E-002	9.58723E-001	3.57330E+000	9	...........
	135	1.81333	9.60324E-001	9.10366E-005	0.00000E+000	8.74246E-005	5.39641E-002	9.60548E-001	3.57330E+000	9	...........
	136	1.82667	9.62106E-001	9.08814E-005	0.00000E+000	8.74375E-005	5.39641E-002	9.62343E-001	3.57330E+000	9	...........
	137	1.84	9.63883E-001	9.09783E-005	0.00000E+000	8.76924E-005	5.39641E-002	9.64116E-001	3.57330E+000	9	...........
	138	1.85333	9.65646E-001	9.09751E-005	0.00000E+000	8.78497E-005	5.39641E-002	9.65870E-001	3.57330E+000	9	...........
	139	1.86667	9.67396E-001	9.09793E-005	0.00000E+000	8.80131E-005	5.39641E-002	9.67618E-001	3.57330E+000	9	...........
	140	1.88	9.69110E-001	9.08907E-005	0.00000E+000	8.80831E-005	5.39641E-002	9.69344E-001	3.57330E+000	9	...........
	141	1.89333	9.70796E-001	9.12137E-005	0.00000E+000	8.85500E-005	5.39641E-002	9.71038E-001	3.57330E+000	9	...........
	142	1.90667	9.72508E-001	9.09980E-005	0.00000E+000	8.84964E-005	5.39641E-002	9.72736E-001	3.57330E+000	9	...........
	143	1.92	9.74179E-001	9.07313E-005	0.00000E+000	8.83886E-005	5.39641E-002	9.74408E-001	3.57330E+000	9	...........
	144	1.93333	9.75842E-001	9.11960E-005	0.00000E+000	8.89929E-005	5.39641E-002	9.76040E-001	3.57330E+000	9	...........
	145	1.94667	9.77469E-001	9.10835E-005	0.00000E+000	8.90313E-005	5.39641E-002	9.77670E-001	3.57330E+000	9	...........
	146	1.96	9.79082E-001	9.10772E-005	0.00000E+000	8.91721E-005	5.39641E-002	9.79273E-001	3.57330E+000	9	...........
	147	1.97333	9.80644E-001	9.08751E-005	0.00000E+000	8.91161E-005	5.39641E-002	9.80852E-001	3.57330E+000	9	...........
	148	1.98667	9.82201E-001	9.10314E-005	0.00000E+000	8.94111E-005	5.39641E-002	9.82422E-001	3.57330E+000	9	...........
	149	2	9.83751E-001	9.09032E-005	0.00000E+000	8.94262E-005	5.39641E-002	9.83970E-001	3.57330E+000	9	...........
	150	2.01333	9.85277E-001	9.08053E-005	0.00000E+000	8.94684E-005	5.39641E-002	9.85531E-001	3.57330E+000	9	...........
	151	2.02667	9.86805E-001	9.08074E-005	0.00000E+000	8.96092E-005	5.39641E-002	9.87045E-001	3.57330E+000	9	...........
	152	2.04	9.88314E-001	9.08188E-005	0.00000E+000	8.97576E-005	5.39641E-002	9.88567E-001	3.57330E+000	9	...........
	153	2.05333	9.89824E-001	9.09814E-005	0.00000E+000	9.00555E-005	5.39641E-002	9.90056E-001	3.57330E+000	9	...........
	154	2.06667	9.91289E-001	9.09022E-005	0.00000E+000	9.01103E-005	5.39641E-002	9.91530E-001	3.57330E+000	9	...........
	155	2.08	9.92761E-001	9.09480E-005	0.00000E+000	9.02896E-005	5.39641E-002	9.92995E-001	3.57330E+000	9	...........
	156	2.09333	9.94224E-001	9.10283E-005	0.00000E+000	9.05025E-005	5.39641E-002	9.94441E-001	3.57330E+000	9	...........
	157	2.10667	9.95666E-001	9.12867E-005	0.00000E+000	9.08910E-005	5.39641E-002	9.95882E-001	3.57330E+000	9	...........
	158	2.12	9.97104E-001	9.11575E-005	0.00000E+000	9.08934E-005	5.39641E-002	9.97317E-001	3.57330E+000	9	...........
	159	2.13333	9.98538E-001	9.09137E-005	0.00000E+000	9.07807E-005	5.39641E-002	9.98730E-001	3.57330E+000	9	...........
	160	2.14167	9.99674E-001	9.13827E-005	0.00000E+000	9.13529E-005	5.39641E-002	9.99865E-001	3.57330E+000	9	...........
STARTTIMEOFFSET	QUANT	4218.493	Start Time Offset (s)
