EXPLAIN
TAG	PWR800_CHARGE
TITLE	LABEL	PWR Cyclic Charge Discharge (Cell) - Charge Step	Test &Identifier
DATE	LABEL	10-7-2017	Date
TIME	LABEL	16:20:46	Time
NOTES	NOTES	3	&Notes...
	supercap test cell
	0.9mg
	6M KOH
PSTAT	PSTAT	IFC5000-01520	Potentiostat
CAPACITY	QUANT	1.00000E-003	Capacity (A-hr)
CELLTYPE	SELECTOR	1	&Cell Type
WORKINGCONNECTION	SELECTOR	0	&Working Lead
MAXCHARGETIME	VARIABLEANDUNITS	1.00000E+002	s	1.00000E+002	second(s)	Max &Charge Time
CHARGECURRENT	QUANT	9.00000E-005	&Charge Current (A) 
VOLTAGEFINISH	TWOPARAM	F	1.00000E-003	3.60000E+003	&Voltage Finish	 I (A) < 	Max Time(s)
SAMPLETIME	QUANT	1.00000E-002	Sa&mple Period (s)
CHARGESTOPAT1	MULTIPARAM	4	1.00000E+000	Charge Stop At &1	Voltage > Limit	V
CHARGESTOPAT2	MULTIPARAM	0	0.00000E+000	Charge Stop At &2	None	N/A
AESBHCSELECTOR	TOGGLE	F	Save Both Half Cells
IRCOMP	TOGGLE	F	IR &Measure
EOC	QUANT	0	Open Circuit (V)
SEQUENCER	TOGGLE	TRUE	Run as Sequence
PSTATMODEL	IQUANT	53	Pstat Model
PSTATSECTION	LABEL	IFC5000-01520	Pstat Section
PSTATSERIALNO	LABEL	01520	Pstat Serial Number
CTRLMODE	IQUANT	0	Control Mode
ELECTROMETER	IQUANT	1	RE=0 or CS=1
IESTAB	IQUANT	0	I/E Stability
CASPEED	IQUANT	4	Control Amp Speed
CONVENTION	IQUANT	1	Current Convention
ICHRANGE	IQUANT	2	Ich Range
ICHRANGEMODE	TOGGLE	T	Ich Auto Range
ICHOFFSETENABLE	TOGGLE	F	Ich Offset Enable
ICHOFFSET	QUANT	0	Ich Offset (V)
ICHFILTER	IQUANT	1	Ich Filter
VCHRANGE	IQUANT	2	Vch Range
VCHRANGEMODE	TOGGLE	T	Vch Auto Range
VCHOFFSETENABLE	TOGGLE	F	Vch Offset Enable
VCHOFFSET	QUANT	0	Vch Offset (V)
VCHFILTER	IQUANT	1	Vch Filter
IERANGELOWERLIMIT	IQUANT	9	I/E Range Lower Limit
IERANGEMODE	TOGGLE	F	I/E AutoRange
IERANGE	IQUANT	9	I/E Range
ACHSELECT	IQUANT	1	Ach Select
ACHRANGE	IQUANT	2	Ach Range
ACHOFFSETENABLE	TOGGLE	F	Ach Offset Enable
ACHOFFSET	QUANT	0	Ach Offset (V)
ACHFILTER	IQUANT	1	Ach Filter
CABLEID	IQUANT	14	Cable ID
DCCALDATE	LABEL	5-7-2017	DC Calibration Date
ACCALDATE	LABEL	12/3/2015	AC Calibration Date
FRAMEWORKVERSION	QUANT	7.01	Framework Version
INSTRUMENTVERSION	LABEL	4.00	Instrument Version
CURVE	TABLE	162
	Pt	T	Vf	Im	Vu	Pwr	Sig	Ach	Temp	IERange	Over
	#	s	V	A	V	W	V	V	deg C	#	bits
	0	0.013333	2.58075E-001	9.09460E-005	0.00000E+000	2.34709E-005	5.39641E-002	2.58125E-001	3.57330E+000	9	...........
	1	0.026667	2.77848E-001	9.10647E-005	0.00000E+000	2.53021E-005	5.39641E-002	2.77889E-001	3.57330E+000	9	...........
	2	0.04	2.96475E-001	9.08657E-005	0.00000E+000	2.69394E-005	5.39641E-002	2.96518E-001	3.57330E+000	9	...........
	3	0.053333	3.14108E-001	9.09282E-005	0.00000E+000	2.85613E-005	5.39641E-002	3.14153E-001	3.57330E+000	9	...........
	4	0.066667	3.30828E-001	9.10762E-005	0.00000E+000	3.01305E-005	5.39641E-002	3.30875E-001	3.57330E+000	9	...........
	5	0.08	3.46735E-001	9.07511E-005	0.00000E+000	3.14666E-005	5.39641E-002	3.46782E-001	3.57330E+000	9	...........
	6	0.093333	3.61878E-001	9.08595E-005	0.00000E+000	3.28800E-005	5.39641E-002	3.61923E-001	3.57330E+000	9	...........
	7	0.106667	3.76335E-001	9.08876E-005	0.00000E+000	3.42042E-005	5.39641E-002	3.76379E-001	3.57330E+000	9	...........
	8	0.12	3.90149E-001	9.12794E-005	0.00000E+000	3.56126E-005	5.39641E-002	3.90197E-001	3.57330E+000	9	...........
	9	0.133333	4.03371E-001	9.06657E-005	0.00000E+000	3.65719E-005	5.39641E-002	4.03423E-001	3.57330E+000	9	...........
	10	0.146667	4.16034E-001	9.10741E-005	0.00000E+000	3.78900E-005	5.39641E-002	4.16089E-001	3.57330E+000	9	...........
	11	0.16	4.28176E-001	9.12825E-005	0.00000E+000	3.90850E-005	5.39641E-002	4.28237E-001	3.57330E+000	9	...........
	12	0.173333	4.39848E-001	9.11095E-005	0.00000E+000	4.00744E-005	5.39641E-002	4.39910E-001	3.57330E+000	9	...........
	13	0.186667	4.51082E-001	9.09866E-005	0.00000E+000	4.10424E-005	5.39641E-002	4.51141E-001	3.57330E+000	9	...........
	14	0.2	4.61896E-001	9.08616E-005	0.00000E+000	4.19686E-005	5.39641E-002	4.61958E-001	3.57330E+000	9	...........
	15	0.213333	4.72334E-001	9.08511E-005	0.00000E+000	4.29121E-005	5.39641E-002	4.72394E-001	3.57330E+000	9	...........
	16	0.226667	4.82416E-001	9.08657E-005	0.00000E+000	4.38351E-005	5.39641E-002	4.82478E-001	3.57330E+000	9	...........
	17	0.24	4.92152E-001	9.07303E-005	0.00000E+000	4.46531E-005	5.39641E-002	4.92213E-001	3.57330E+000	9	...........
	18	0.253333	5.01568E-001	9.08147E-005	0.00000E+000	4.55497E-005	5.39641E-002	5.01639E-001	3.57330E+000	9	...........
	19	0.266667	5.10699E-001	9.11585E-005	0.00000E+000	4.65545E-005	5.39641E-002	5.10771E-001	3.57330E+000	9	...........
	20	0.28	5.19553E-001	9.09178E-005	0.00000E+000	4.72366E-005	5.39641E-002	5.19620E-001	3.57330E+000	9	...........
	21	0.293333	5.28129E-001	9.09543E-005	0.00000E+000	4.80356E-005	5.39641E-002	5.28208E-001	3.57330E+000	9	...........
	22	0.306667	5.36374E-001	9.08897E-005	0.00000E+000	4.87509E-005	5.39641E-002	5.36463E-001	3.57330E+000	9	...........
	23	0.32	5.44465E-001	9.10178E-005	0.00000E+000	4.95560E-005	5.39641E-002	5.44576E-001	3.57330E+000	9	...........
	24	0.333333	5.52329E-001	9.14211E-005	0.00000E+000	5.04945E-005	5.39641E-002	5.52461E-001	3.57330E+000	9	...........
	25	0.346667	5.60012E-001	9.08272E-005	0.00000E+000	5.08643E-005	5.39641E-002	5.60140E-001	3.57330E+000	9	...........
	26	0.36	5.67519E-001	9.11460E-005	0.00000E+000	5.17271E-005	5.39641E-002	5.67629E-001	3.57324E+000	9	...........
	27	0.373333	5.74795E-001	9.09251E-005	0.00000E+000	5.22633E-005	5.39641E-002	5.74908E-001	3.57320E+000	9	...........
	28	0.386667	5.81913E-001	9.07542E-005	0.00000E+000	5.28111E-005	5.39641E-002	5.82016E-001	3.57320E+000	9	...........
	29	0.4	5.88875E-001	9.07793E-005	0.00000E+000	5.34577E-005	5.39641E-002	5.89007E-001	3.57320E+000	9	...........
	30	0.413333	5.95675E-001	9.09803E-005	0.00000E+000	5.41947E-005	5.39641E-002	5.95792E-001	3.57320E+000	9	...........
	31	0.426667	6.02299E-001	9.08532E-005	0.00000E+000	5.47208E-005	5.39641E-002	6.02450E-001	3.57320E+000	9	...........
	32	0.44	6.08781E-001	9.11616E-005	0.00000E+000	5.54975E-005	5.39641E-002	6.08936E-001	3.57320E+000	9	...........
	33	0.453333	6.15209E-001	9.10491E-005	0.00000E+000	5.60142E-005	5.39641E-002	6.15323E-001	3.57320E+000	9	...........
	34	0.466667	6.21475E-001	9.07240E-005	0.00000E+000	5.63827E-005	5.39641E-002	6.21543E-001	3.57320E+000	9	...........
	35	0.48	6.27557E-001	9.10053E-005	0.00000E+000	5.71110E-005	5.39641E-002	6.27639E-001	3.57320E+000	9	...........
	36	0.493333	6.33491E-001	9.08730E-005	0.00000E+000	5.75672E-005	5.39641E-002	6.33596E-001	3.57320E+000	9	...........
	37	0.506667	6.39365E-001	9.08136E-005	0.00000E+000	5.80631E-005	5.39641E-002	6.39486E-001	3.57320E+000	9	...........
	38	0.52	6.45119E-001	9.09543E-005	0.00000E+000	5.86763E-005	5.39641E-002	6.45218E-001	3.57320E+000	9	...........
	39	0.533333	6.50737E-001	9.09001E-005	0.00000E+000	5.91521E-005	5.39641E-002	6.50858E-001	3.57320E+000	9	...........
	40	0.546667	6.56245E-001	9.10856E-005	0.00000E+000	5.97745E-005	5.39641E-002	6.56343E-001	3.57320E+000	9	...........
	41	0.56	6.61670E-001	9.09449E-005	0.00000E+000	6.01755E-005	5.39641E-002	6.61769E-001	3.57320E+000	9	...........
	42	0.573333	6.66994E-001	9.09241E-005	0.00000E+000	6.06458E-005	5.39641E-002	6.67114E-001	3.57320E+000	9	...........
	43	0.586667	6.72267E-001	9.09605E-005	0.00000E+000	6.11498E-005	5.39641E-002	6.72374E-001	3.57320E+000	9	...........
	44	0.6	6.77422E-001	9.09835E-005	0.00000E+000	6.16342E-005	5.39641E-002	6.77518E-001	3.57320E+000	9	...........
	45	0.613333	6.82484E-001	9.11116E-005	0.00000E+000	6.21822E-005	5.39641E-002	6.82600E-001	3.57320E+000	9	...........
	46	0.626667	6.87489E-001	9.09730E-005	0.00000E+000	6.25430E-005	5.39641E-002	6.87587E-001	3.57320E+000	9	...........
	47	0.64	6.92405E-001	9.11314E-005	0.00000E+000	6.30998E-005	5.39641E-002	6.92515E-001	3.57320E+000	9	...........
	48	0.653333	6.97239E-001	9.09282E-005	0.00000E+000	6.33987E-005	5.39641E-002	6.97370E-001	3.57320E+000	9	...........
	49	0.666667	7.02022E-001	9.10356E-005	0.00000E+000	6.39090E-005	5.39641E-002	7.02137E-001	3.57320E+000	9	...........
	50	0.68	7.06724E-001	9.07803E-005	0.00000E+000	6.41566E-005	5.39641E-002	7.06839E-001	3.57320E+000	9	...........
	51	0.693333	7.11341E-001	9.08209E-005	0.00000E+000	6.46046E-005	5.39641E-002	7.11468E-001	3.57320E+000	9	...........
	52	0.706667	7.15945E-001	9.10408E-005	0.00000E+000	6.51802E-005	5.39641E-002	7.16046E-001	3.57320E+000	9	...........
	53	0.72	7.20495E-001	9.12502E-005	0.00000E+000	6.57453E-005	5.39641E-002	7.20603E-001	3.57320E+000	9	...........
	54	0.733333	7.24926E-001	9.09762E-005	0.00000E+000	6.59510E-005	5.39641E-002	7.25035E-001	3.57320E+000	9	...........
	55	0.746667	7.29316E-001	9.09751E-005	0.00000E+000	6.63496E-005	5.39641E-002	7.29419E-001	3.57320E+000	9	...........
	56	0.76	7.33596E-001	9.10762E-005	0.00000E+000	6.68132E-005	5.39641E-002	7.33730E-001	3.57320E+000	9	...........
	57	0.773333	7.37882E-001	9.09282E-005	0.00000E+000	6.70943E-005	5.39641E-002	7.38001E-001	3.57320E+000	9	...........
	58	0.786667	7.42103E-001	9.09637E-005	0.00000E+000	6.75044E-005	5.39641E-002	7.42225E-001	3.57320E+000	9	...........
	59	0.8	7.46253E-001	9.08251E-005	0.00000E+000	6.77785E-005	5.39641E-002	7.46360E-001	3.57320E+000	9	...........
	60	0.813333	7.50337E-001	9.09418E-005	0.00000E+000	6.82370E-005	5.39641E-002	7.50450E-001	3.57320E+000	9	...........
	61	0.826667	7.54396E-001	9.09855E-005	0.00000E+000	6.86392E-005	5.39641E-002	7.54517E-001	3.57320E+000	9	...........
	62	0.84	7.58385E-001	9.08355E-005	0.00000E+000	6.88883E-005	5.39641E-002	7.58512E-001	3.57320E+000	9	...........
	63	0.853333	7.62334E-001	9.08293E-005	0.00000E+000	6.92423E-005	5.39641E-002	7.62476E-001	3.57320E+000	9	...........
	64	0.866667	7.66268E-001	9.10043E-005	0.00000E+000	6.97337E-005	5.39641E-002	7.66414E-001	3.57320E+000	9	...........
	65	0.88	7.70164E-001	9.12450E-005	0.00000E+000	7.02736E-005	5.39641E-002	7.70296E-001	3.57320E+000	9	...........
	66	0.893333	7.73977E-001	9.09616E-005	0.00000E+000	7.04022E-005	5.39641E-002	7.74094E-001	3.57320E+000	9	...........
	67	0.906667	7.77754E-001	9.09803E-005	0.00000E+000	7.07603E-005	5.39641E-002	7.77872E-001	3.57320E+000	9	...........
	68	0.92	7.81488E-001	9.10012E-005	0.00000E+000	7.11163E-005	5.39641E-002	7.81615E-001	3.57320E+000	9	...........
	69	0.933333	7.85185E-001	9.10335E-005	0.00000E+000	7.14781E-005	5.39641E-002	7.85271E-001	3.57320E+000	9	...........
	70	0.946667	7.88862E-001	9.10522E-005	0.00000E+000	7.18276E-005	5.39641E-002	7.88966E-001	3.57320E+000	9	...........
	71	0.96	7.92467E-001	9.10220E-005	0.00000E+000	7.21319E-005	5.39641E-002	7.92599E-001	3.57320E+000	9	...........
	72	0.97333	7.96073E-001	9.11012E-005	0.00000E+000	7.25232E-005	5.39641E-002	7.96201E-001	3.57320E+000	9	...........
	73	0.98667	7.99604E-001	9.10168E-005	0.00000E+000	7.27774E-005	5.39641E-002	7.99721E-001	3.57320E+000	9	...........
	74	1	8.03084E-001	9.09209E-005	0.00000E+000	7.30172E-005	5.39641E-002	8.03225E-001	3.57320E+000	9	...........
	75	1.01333	8.06530E-001	9.09824E-005	0.00000E+000	7.33800E-005	5.39641E-002	8.06693E-001	3.57320E+000	9	...........
	76	1.02667	8.09916E-001	9.08407E-005	0.00000E+000	7.35733E-005	5.39641E-002	8.10081E-001	3.57320E+000	9	...........
	77	1.04	8.13301E-001	9.10647E-005	0.00000E+000	7.40630E-005	5.39641E-002	8.13472E-001	3.57320E+000	9	...........
	78	1.05333	8.16649E-001	9.11762E-005	0.00000E+000	7.44590E-005	5.39641E-002	8.16821E-001	3.57320E+000	9	...........
	79	1.06667	8.19995E-001	9.07834E-005	0.00000E+000	7.44419E-005	5.39641E-002	8.20151E-001	3.57320E+000	9	...........
	80	1.08	8.23259E-001	9.10679E-005	0.00000E+000	7.49725E-005	5.39641E-002	8.23446E-001	3.57320E+000	9	...........
	81	1.09333	8.26519E-001	9.10387E-005	0.00000E+000	7.52452E-005	5.39641E-002	8.26681E-001	3.57320E+000	9	...........
	82	1.10667	8.29759E-001	9.07834E-005	0.00000E+000	7.53284E-005	5.39641E-002	8.29937E-001	3.57320E+000	9	...........
	83	1.12	8.32998E-001	9.11064E-005	0.00000E+000	7.58915E-005	5.39641E-002	8.33143E-001	3.57320E+000	9	...........
	84	1.13333	8.36142E-001	9.10220E-005	0.00000E+000	7.61073E-005	5.39641E-002	8.36310E-001	3.57320E+000	9	...........
	85	1.14667	8.39264E-001	9.07730E-005	0.00000E+000	7.61825E-005	5.39641E-002	8.39427E-001	3.57320E+000	9	...........
	86	1.16	8.42340E-001	9.10106E-005	0.00000E+000	7.66618E-005	5.39641E-002	8.42516E-001	3.57320E+000	9	...........
	87	1.17333	8.45463E-001	9.10210E-005	0.00000E+000	7.69548E-005	5.39641E-002	8.45608E-001	3.57320E+000	9	...........
	88	1.18667	8.48459E-001	9.09783E-005	0.00000E+000	7.71913E-005	5.39641E-002	8.48614E-001	3.57320E+000	9	...........
	89	1.2	8.51432E-001	9.11533E-005	0.00000E+000	7.76109E-005	5.39641E-002	8.51591E-001	3.57320E+000	9	...........
	90	1.21333	8.54362E-001	9.09928E-005	0.00000E+000	7.77408E-005	5.39641E-002	8.54536E-001	3.57320E+000	9	...........
	91	1.22667	8.57293E-001	9.10949E-005	0.00000E+000	7.80951E-005	5.39641E-002	8.57487E-001	3.57320E+000	9	...........
	92	1.24	8.60196E-001	9.10637E-005	0.00000E+000	7.83326E-005	5.39641E-002	8.60372E-001	3.57320E+000	9	...........
	93	1.25333	8.63079E-001	9.11252E-005	0.00000E+000	7.86482E-005	5.39641E-002	8.63239E-001	3.57320E+000	9	...........
	94	1.26667	8.65891E-001	9.11804E-005	0.00000E+000	7.89523E-005	5.39641E-002	8.66092E-001	3.57320E+000	9	...........
	95	1.28	8.68745E-001	9.09574E-005	0.00000E+000	7.90188E-005	5.39641E-002	8.68899E-001	3.57320E+000	9	...........
	96	1.29333	8.71546E-001	9.11835E-005	0.00000E+000	7.94706E-005	5.39641E-002	8.71708E-001	3.57320E+000	9	...........
	97	1.30667	8.74276E-001	9.10845E-005	0.00000E+000	7.96330E-005	5.39641E-002	8.74466E-001	3.57320E+000	9	...........
	98	1.32	8.77023E-001	9.10553E-005	0.00000E+000	7.98576E-005	5.39641E-002	8.77191E-001	3.57320E+000	9	...........
	99	1.33333	8.79717E-001	9.09585E-005	0.00000E+000	8.00177E-005	5.39641E-002	8.79907E-001	3.57320E+000	9	...........
	100	1.34667	8.82389E-001	9.08084E-005	0.00000E+000	8.01283E-005	5.39641E-002	8.82583E-001	3.57320E+000	9	...........
	101	1.36	8.85055E-001	9.10293E-005	0.00000E+000	8.05659E-005	5.39641E-002	8.85228E-001	3.57301E+000	9	...........
	102	1.37333	8.87671E-001	9.11241E-005	0.00000E+000	8.08882E-005	5.39641E-002	8.87830E-001	3.57290E+000	9	...........
	103	1.38667	8.90254E-001	9.10897E-005	0.00000E+000	8.10930E-005	5.39641E-002	8.90398E-001	3.57290E+000	9	...........
	104	1.4	8.92823E-001	9.07428E-005	0.00000E+000	8.10172E-005	5.39641E-002	8.92964E-001	3.57290E+000	9	...........
	105	1.41333	8.95359E-001	9.10439E-005	0.00000E+000	8.15169E-005	5.39641E-002	8.95520E-001	3.57290E+000	9	...........
	106	1.42667	8.97858E-001	9.11460E-005	0.00000E+000	8.18362E-005	5.39641E-002	8.98017E-001	3.57290E+000	9	...........
	107	1.44	9.00322E-001	9.10106E-005	0.00000E+000	8.19388E-005	5.39641E-002	9.00484E-001	3.57290E+000	9	...........
	108	1.45333	9.02763E-001	9.11241E-005	0.00000E+000	8.22634E-005	5.39641E-002	9.02942E-001	3.57290E+000	9	...........
	109	1.46667	9.05163E-001	9.09939E-005	0.00000E+000	8.23643E-005	5.39641E-002	9.05368E-001	3.57290E+000	9	...........
	110	1.48	9.07559E-001	9.08095E-005	0.00000E+000	8.24150E-005	5.39641E-002	9.07755E-001	3.57290E+000	9	...........
	111	1.49333	9.09948E-001	9.12116E-005	0.00000E+000	8.29978E-005	5.39641E-002	9.10107E-001	3.57290E+000	9	...........
	112	1.50667	9.12287E-001	9.06438E-005	0.00000E+000	8.26932E-005	5.39641E-002	9.12449E-001	3.57290E+000	9	...........
	113	1.52	9.14598E-001	9.11845E-005	0.00000E+000	8.33972E-005	5.39641E-002	9.14793E-001	3.57290E+000	9	...........
	114	1.53333	9.16890E-001	9.09595E-005	0.00000E+000	8.33999E-005	5.39641E-002	9.17109E-001	3.57290E+000	9	...........
	115	1.54667	9.19170E-001	9.07709E-005	0.00000E+000	8.34339E-005	5.39641E-002	9.19405E-001	3.57290E+000	9	...........
	116	1.56	9.21487E-001	9.11189E-005	0.00000E+000	8.39649E-005	5.39641E-002	9.21664E-001	3.57290E+000	9	...........
	117	1.57333	9.23694E-001	9.08397E-005	0.00000E+000	8.39081E-005	5.39641E-002	9.23878E-001	3.57290E+000	9	...........
	118	1.58667	9.25884E-001	9.09762E-005	0.00000E+000	8.42334E-005	5.39641E-002	9.26053E-001	3.57290E+000	9	...........
	119	1.6	9.28057E-001	9.09616E-005	0.00000E+000	8.44175E-005	5.39641E-002	9.28225E-001	3.57290E+000	9	...........
	120	1.61333	9.30188E-001	9.12679E-005	0.00000E+000	8.48963E-005	5.39641E-002	9.30365E-001	3.57290E+000	9	...........
	121	1.62667	9.32295E-001	9.09876E-005	0.00000E+000	8.48273E-005	5.39641E-002	9.32482E-001	3.57290E+000	9	...........
	122	1.64	9.34413E-001	9.12293E-005	0.00000E+000	8.52459E-005	5.39641E-002	9.34617E-001	3.57290E+000	9	...........
	123	1.65333	9.36499E-001	9.10929E-005	0.00000E+000	8.53084E-005	5.39641E-002	9.36714E-001	3.57290E+000	9	...........
	124	1.66667	9.38565E-001	9.10616E-005	0.00000E+000	8.54672E-005	5.39641E-002	9.38769E-001	3.57290E+000	9	...........
	125	1.68	9.40602E-001	9.09157E-005	0.00000E+000	8.55155E-005	5.39641E-002	9.40799E-001	3.57290E+000	9	...........
	126	1.69333	9.42600E-001	9.09043E-005	0.00000E+000	8.56864E-005	5.39641E-002	9.42821E-001	3.57290E+000	9	...........
	127	1.70667	9.44597E-001	9.09407E-005	0.00000E+000	8.59023E-005	5.39641E-002	9.44815E-001	3.57290E+000	9	...........
	128	1.72	9.46591E-001	9.09824E-005	0.00000E+000	8.61232E-005	5.39641E-002	9.46821E-001	3.57290E+000	9	...........
	129	1.73333	9.48577E-001	9.09470E-005	0.00000E+000	8.62702E-005	5.39641E-002	9.48773E-001	3.57290E+000	9	...........
	130	1.74667	9.50494E-001	9.12002E-005	0.00000E+000	8.66852E-005	5.39641E-002	9.50698E-001	3.57290E+000	9	...........
	131	1.76	9.52382E-001	9.11012E-005	0.00000E+000	8.67632E-005	5.39641E-002	9.52598E-001	3.57290E+000	9	...........
	132	1.77333	9.54304E-001	9.08105E-005	0.00000E+000	8.66608E-005	5.39641E-002	9.54466E-001	3.57290E+000	9	...........
	133	1.78667	9.56140E-001	9.10074E-005	0.00000E+000	8.70158E-005	5.39641E-002	9.56320E-001	3.57290E+000	9	...........
	134	1.8	9.57998E-001	9.08407E-005	0.00000E+000	8.70252E-005	5.39641E-002	9.58163E-001	3.57290E+000	9	...........
	135	1.81333	9.59802E-001	9.09074E-005	0.00000E+000	8.72531E-005	5.39641E-002	9.59990E-001	3.57290E+000	9	...........
	136	1.82667	9.61569E-001	9.09105E-005	0.00000E+000	8.74168E-005	5.39641E-002	9.61770E-001	3.57290E+000	9	...........
	137	1.84	9.63344E-001	9.10376E-005	0.00000E+000	8.77005E-005	5.39641E-002	9.63559E-001	3.57290E+000	9	...........
	138	1.85333	9.65097E-001	9.11158E-005	0.00000E+000	8.79356E-005	5.39641E-002	9.65305E-001	3.57290E+000	9	...........
	139	1.86667	9.66846E-001	9.10376E-005	0.00000E+000	8.80194E-005	5.39641E-002	9.67041E-001	3.57290E+000	9	...........
	140	1.88	9.68542E-001	9.09345E-005	0.00000E+000	8.80739E-005	5.39641E-002	9.68746E-001	3.57290E+000	9	...........
	141	1.89333	9.70278E-001	9.09105E-005	0.00000E+000	8.82084E-005	5.39641E-002	9.70478E-001	3.57290E+000	9	...........
	142	1.90667	9.71936E-001	9.09595E-005	0.00000E+000	8.84068E-005	5.39641E-002	9.72170E-001	3.57290E+000	9	...........
	143	1.92	9.73630E-001	9.09272E-005	0.00000E+000	8.85295E-005	5.39641E-002	9.73835E-001	3.57290E+000	9	...........
	144	1.93333	9.75276E-001	9.11022E-005	0.00000E+000	8.88498E-005	5.39641E-002	9.75443E-001	3.57290E+000	9	...........
	145	1.94667	9.76864E-001	9.10137E-005	0.00000E+000	8.89080E-005	5.39641E-002	9.77041E-001	3.57290E+000	9	...........
	146	1.96	9.78468E-001	9.09366E-005	0.00000E+000	8.89785E-005	5.39641E-002	9.78658E-001	3.57290E+000	9	...........
	147	1.97333	9.80055E-001	9.11272E-005	0.00000E+000	8.93097E-005	5.39641E-002	9.80228E-001	3.57290E+000	9	...........
	148	1.98667	9.81614E-001	9.10262E-005	0.00000E+000	8.93526E-005	5.39641E-002	9.81803E-001	3.57290E+000	9	...........
	149	2	9.83184E-001	9.11908E-005	0.00000E+000	8.96573E-005	5.39641E-002	9.83351E-001	3.57290E+000	9	...........
	150	2.01333	9.84707E-001	9.10272E-005	0.00000E+000	8.96351E-005	5.39641E-002	9.84894E-001	3.57290E+000	9	...........
	151	2.02667	9.86206E-001	9.10845E-005	0.00000E+000	8.98281E-005	5.39641E-002	9.86414E-001	3.57290E+000	9	...........
	152	2.04	9.87735E-001	9.09397E-005	0.00000E+000	8.98244E-005	5.39641E-002	9.87931E-001	3.57290E+000	9	...........
	153	2.05333	9.89220E-001	9.08574E-005	0.00000E+000	8.98779E-005	5.39641E-002	9.89406E-001	3.57290E+000	9	...........
	154	2.06667	9.90660E-001	9.10720E-005	0.00000E+000	9.02214E-005	5.39641E-002	9.90870E-001	3.57290E+000	9	...........
	155	2.08	9.92104E-001	9.11283E-005	0.00000E+000	9.04088E-005	5.39641E-002	9.92325E-001	3.57290E+000	9	...........
	156	2.09333	9.93537E-001	9.09064E-005	0.00000E+000	9.03189E-005	5.39641E-002	9.93780E-001	3.57290E+000	9	...........
	157	2.10667	9.94982E-001	9.09074E-005	0.00000E+000	9.04512E-005	5.39641E-002	9.95185E-001	3.57290E+000	9	...........
	158	2.12	9.96398E-001	9.09418E-005	0.00000E+000	9.06143E-005	5.39641E-002	9.96607E-001	3.57290E+000	9	...........
	159	2.13333	9.97794E-001	9.10491E-005	0.00000E+000	9.08482E-005	5.39641E-002	9.98011E-001	3.57290E+000	9	...........
	160	2.14667	9.99174E-001	9.09043E-005	0.00000E+000	9.08292E-005	5.39641E-002	9.99390E-001	3.57290E+000	9	...........
	161	2.15	1.00004E+000	9.13169E-005	0.00000E+000	9.13202E-005	5.39641E-002	1.00022E+000	3.57290E+000	9	...........
STARTTIMEOFFSET	QUANT	4100.38	Start Time Offset (s)
