EXPLAIN
TAG	PWR800_CHARGE
TITLE	LABEL	PWR Cyclic Charge Discharge (Cell) - Charge Step	Test &Identifier
DATE	LABEL	10-7-2017	Date
TIME	LABEL	15:41:34	Time
NOTES	NOTES	3	&Notes...
	supercap test cell
	0.9mg
	6M KOH
PSTAT	PSTAT	IFC5000-01520	Potentiostat
CAPACITY	QUANT	1.00000E-003	Capacity (A-hr)
CELLTYPE	SELECTOR	1	&Cell Type
WORKINGCONNECTION	SELECTOR	0	&Working Lead
MAXCHARGETIME	VARIABLEANDUNITS	1.00000E+002	s	1.00000E+002	second(s)	Max &Charge Time
CHARGECURRENT	QUANT	9.00000E-005	&Charge Current (A) 
VOLTAGEFINISH	TWOPARAM	F	1.00000E-003	3.60000E+003	&Voltage Finish	 I (A) < 	Max Time(s)
SAMPLETIME	QUANT	1.00000E-002	Sa&mple Period (s)
CHARGESTOPAT1	MULTIPARAM	4	1.00000E+000	Charge Stop At &1	Voltage > Limit	V
CHARGESTOPAT2	MULTIPARAM	0	0.00000E+000	Charge Stop At &2	None	N/A
AESBHCSELECTOR	TOGGLE	F	Save Both Half Cells
IRCOMP	TOGGLE	F	IR &Measure
EOC	QUANT	0	Open Circuit (V)
SEQUENCER	TOGGLE	TRUE	Run as Sequence
PSTATMODEL	IQUANT	53	Pstat Model
PSTATSECTION	LABEL	IFC5000-01520	Pstat Section
PSTATSERIALNO	LABEL	01520	Pstat Serial Number
CTRLMODE	IQUANT	0	Control Mode
ELECTROMETER	IQUANT	1	RE=0 or CS=1
IESTAB	IQUANT	0	I/E Stability
CASPEED	IQUANT	4	Control Amp Speed
CONVENTION	IQUANT	1	Current Convention
ICHRANGE	IQUANT	2	Ich Range
ICHRANGEMODE	TOGGLE	T	Ich Auto Range
ICHOFFSETENABLE	TOGGLE	F	Ich Offset Enable
ICHOFFSET	QUANT	0	Ich Offset (V)
ICHFILTER	IQUANT	1	Ich Filter
VCHRANGE	IQUANT	2	Vch Range
VCHRANGEMODE	TOGGLE	T	Vch Auto Range
VCHOFFSETENABLE	TOGGLE	F	Vch Offset Enable
VCHOFFSET	QUANT	0	Vch Offset (V)
VCHFILTER	IQUANT	1	Vch Filter
IERANGELOWERLIMIT	IQUANT	9	I/E Range Lower Limit
IERANGEMODE	TOGGLE	F	I/E AutoRange
IERANGE	IQUANT	9	I/E Range
ACHSELECT	IQUANT	1	Ach Select
ACHRANGE	IQUANT	2	Ach Range
ACHOFFSETENABLE	TOGGLE	F	Ach Offset Enable
ACHOFFSET	QUANT	0	Ach Offset (V)
ACHFILTER	IQUANT	1	Ach Filter
CABLEID	IQUANT	14	Cable ID
DCCALDATE	LABEL	5-7-2017	DC Calibration Date
ACCALDATE	LABEL	12/3/2015	AC Calibration Date
FRAMEWORKVERSION	QUANT	7.01	Framework Version
INSTRUMENTVERSION	LABEL	4.00	Instrument Version
CURVE	TABLE	170
	Pt	T	Vf	Im	Vu	Pwr	Sig	Ach	Temp	IERange	Over
	#	s	V	A	V	W	V	V	deg C	#	bits
	0	0.013333	2.72313E-001	9.08074E-005	0.00000E+000	2.47280E-005	5.39641E-002	2.72364E-001	3.57290E+000	9	...........
	1	0.026667	2.92019E-001	9.08782E-005	0.00000E+000	2.65382E-005	5.39641E-002	2.92063E-001	3.57290E+000	9	...........
	2	0.04	3.10385E-001	9.10199E-005	0.00000E+000	2.82512E-005	5.39641E-002	3.10433E-001	3.57290E+000	9	...........
	3	0.053333	3.27634E-001	9.09053E-005	0.00000E+000	2.97837E-005	5.39641E-002	3.27684E-001	3.57290E+000	9	...........
	4	0.066667	3.43886E-001	9.10731E-005	0.00000E+000	3.13188E-005	5.39641E-002	3.43935E-001	3.57290E+000	9	...........
	5	0.08	3.59258E-001	9.08501E-005	0.00000E+000	3.26386E-005	5.39641E-002	3.59306E-001	3.57290E+000	9	...........
	6	0.093333	3.73855E-001	9.09334E-005	0.00000E+000	3.39959E-005	5.39641E-002	3.73901E-001	3.57290E+000	9	...........
	7	0.106667	3.87740E-001	9.11481E-005	0.00000E+000	3.53417E-005	5.39641E-002	3.87786E-001	3.57290E+000	9	...........
	8	0.12	4.00977E-001	9.07261E-005	0.00000E+000	3.63791E-005	5.39641E-002	4.01033E-001	3.57290E+000	9	...........
	9	0.133333	4.13636E-001	9.08834E-005	0.00000E+000	3.75927E-005	5.39641E-002	4.13692E-001	3.57290E+000	9	...........
	10	0.146667	4.25774E-001	9.11939E-005	0.00000E+000	3.88280E-005	5.39641E-002	4.25829E-001	3.57290E+000	9	...........
	11	0.16	4.37415E-001	9.10231E-005	0.00000E+000	3.98149E-005	5.39641E-002	4.37471E-001	3.57290E+000	9	...........
	12	0.173333	4.48599E-001	9.12731E-005	0.00000E+000	4.09451E-005	5.39641E-002	4.48659E-001	3.57290E+000	9	...........
	13	0.186667	4.59379E-001	9.10501E-005	0.00000E+000	4.18265E-005	5.39641E-002	4.59432E-001	3.57290E+000	9	...........
	14	0.2	4.69759E-001	9.11095E-005	0.00000E+000	4.27996E-005	5.39641E-002	4.69827E-001	3.57290E+000	9	...........
	15	0.213333	4.79787E-001	9.07334E-005	0.00000E+000	4.35327E-005	5.39641E-002	4.79855E-001	3.57290E+000	9	...........
	16	0.226667	4.89484E-001	9.10376E-005	0.00000E+000	4.45614E-005	5.39641E-002	4.89551E-001	3.57290E+000	9	...........
	17	0.24	4.98849E-001	9.09658E-005	0.00000E+000	4.53781E-005	5.39641E-002	4.98917E-001	3.57290E+000	9	...........
	18	0.253333	5.07930E-001	9.07813E-005	0.00000E+000	4.61106E-005	5.39641E-002	5.07999E-001	3.57290E+000	9	...........
	19	0.266667	5.16743E-001	9.09908E-005	0.00000E+000	4.70188E-005	5.39641E-002	5.16819E-001	3.57290E+000	9	...........
	20	0.28	5.25295E-001	9.07928E-005	0.00000E+000	4.76930E-005	5.39641E-002	5.25370E-001	3.57290E+000	9	...........
	21	0.293333	5.33553E-001	9.08689E-005	0.00000E+000	4.84833E-005	5.39641E-002	5.33635E-001	3.57290E+000	9	...........
	22	0.306667	5.41600E-001	9.09835E-005	0.00000E+000	4.92767E-005	5.39641E-002	5.41715E-001	3.57290E+000	9	...........
	23	0.32	5.49469E-001	9.10158E-005	0.00000E+000	5.00104E-005	5.39641E-002	5.49565E-001	3.57290E+000	9	...........
	24	0.333333	5.57099E-001	9.08105E-005	0.00000E+000	5.05904E-005	5.39641E-002	5.57222E-001	3.57290E+000	9	...........
	25	0.346667	5.64575E-001	9.08636E-005	0.00000E+000	5.12993E-005	5.39641E-002	5.64712E-001	3.57290E+000	9	...........
	26	0.36	5.71867E-001	9.09418E-005	0.00000E+000	5.20066E-005	5.39641E-002	5.71962E-001	3.57290E+000	9	...........
	27	0.373333	5.78922E-001	9.10824E-005	0.00000E+000	5.27296E-005	5.39641E-002	5.79042E-001	3.57281E+000	9	...........
	28	0.386667	5.85825E-001	9.09387E-005	0.00000E+000	5.32742E-005	5.39641E-002	5.85957E-001	3.57280E+000	9	...........
	29	0.4	5.92598E-001	9.10241E-005	0.00000E+000	5.39407E-005	5.39641E-002	5.92735E-001	3.57280E+000	9	...........
	30	0.413333	5.99172E-001	9.11356E-005	0.00000E+000	5.46059E-005	5.39641E-002	5.99335E-001	3.57280E+000	9	...........
	31	0.426667	6.05620E-001	9.08324E-005	0.00000E+000	5.50099E-005	5.39641E-002	6.05766E-001	3.57280E+000	9	...........
	32	0.44	6.11884E-001	9.09897E-005	0.00000E+000	5.56751E-005	5.39641E-002	6.12071E-001	3.57280E+000	9	...........
	33	0.453333	6.18121E-001	9.08116E-005	0.00000E+000	5.61325E-005	5.39641E-002	6.18249E-001	3.57280E+000	9	...........
	34	0.466667	6.24141E-001	9.10554E-005	0.00000E+000	5.68314E-005	5.39641E-002	6.24272E-001	3.57280E+000	9	...........
	35	0.48	6.30068E-001	9.09918E-005	0.00000E+000	5.73310E-005	5.39641E-002	6.30186E-001	3.57280E+000	9	...........
	36	0.493333	6.35863E-001	9.11481E-005	0.00000E+000	5.79577E-005	5.39641E-002	6.35991E-001	3.57280E+000	9	...........
	37	0.506667	6.41591E-001	9.10199E-005	0.00000E+000	5.83976E-005	5.39641E-002	6.41679E-001	3.57280E+000	9	...........
	38	0.52	6.47151E-001	9.08241E-005	0.00000E+000	5.87768E-005	5.39641E-002	6.47252E-001	3.57280E+000	9	...........
	39	0.533333	6.52638E-001	9.10512E-005	0.00000E+000	5.94234E-005	5.39641E-002	6.52726E-001	3.57280E+000	9	...........
	40	0.546667	6.57986E-001	9.10783E-005	0.00000E+000	5.99282E-005	5.39641E-002	6.58098E-001	3.57280E+000	9	...........
	41	0.56	6.63240E-001	9.10439E-005	0.00000E+000	6.03840E-005	5.39641E-002	6.63365E-001	3.57280E+000	9	...........
	42	0.573333	6.68441E-001	9.10960E-005	0.00000E+000	6.08923E-005	5.39641E-002	6.68534E-001	3.57280E+000	9	...........
	43	0.586667	6.73494E-001	9.08970E-005	0.00000E+000	6.12186E-005	5.39641E-002	6.73627E-001	3.57280E+000	9	...........
	44	0.6	6.78512E-001	9.08970E-005	0.00000E+000	6.16747E-005	5.39641E-002	6.78640E-001	3.57280E+000	9	...........
	45	0.613333	6.83405E-001	9.10470E-005	0.00000E+000	6.22220E-005	5.39641E-002	6.83544E-001	3.57280E+000	9	...........
	46	0.626667	6.88245E-001	9.09553E-005	0.00000E+000	6.25995E-005	5.39641E-002	6.88404E-001	3.57280E+000	9	...........
	47	0.64	6.93036E-001	9.10074E-005	0.00000E+000	6.30715E-005	5.39641E-002	6.93164E-001	3.57280E+000	9	...........
	48	0.653333	6.97721E-001	9.11523E-005	0.00000E+000	6.35988E-005	5.39641E-002	6.97878E-001	3.57280E+000	9	...........
	49	0.666667	7.02360E-001	9.08439E-005	0.00000E+000	6.38051E-005	5.39641E-002	7.02497E-001	3.57280E+000	9	...........
	50	0.68	7.06941E-001	9.10439E-005	0.00000E+000	6.43627E-005	5.39641E-002	7.07064E-001	3.57280E+000	9	...........
	51	0.693333	7.11431E-001	9.12335E-005	0.00000E+000	6.49063E-005	5.39641E-002	7.11519E-001	3.57280E+000	9	...........
	52	0.706667	7.15847E-001	9.06855E-005	0.00000E+000	6.49170E-005	5.39641E-002	7.15938E-001	3.57280E+000	9	...........
	53	0.72	7.20256E-001	9.10595E-005	0.00000E+000	6.55862E-005	5.39641E-002	7.20313E-001	3.57280E+000	9	...........
	54	0.733333	7.24535E-001	9.11689E-005	0.00000E+000	6.60551E-005	5.39641E-002	7.24606E-001	3.57280E+000	9	...........
	55	0.746667	7.28762E-001	9.11366E-005	0.00000E+000	6.64169E-005	5.39641E-002	7.28865E-001	3.57280E+000	9	...........
	56	0.76	7.32925E-001	9.10481E-005	0.00000E+000	6.67314E-005	5.39641E-002	7.33054E-001	3.57280E+000	9	...........
	57	0.773333	7.37031E-001	9.09637E-005	0.00000E+000	6.70431E-005	5.39641E-002	7.37160E-001	3.57280E+000	9	...........
	58	0.786667	7.41088E-001	9.09209E-005	0.00000E+000	6.73804E-005	5.39641E-002	7.41206E-001	3.57280E+000	9	...........
	59	0.8	7.45122E-001	9.09793E-005	0.00000E+000	6.77907E-005	5.39641E-002	7.45214E-001	3.57280E+000	9	...........
	60	0.813333	7.49053E-001	9.10387E-005	0.00000E+000	6.81928E-005	5.39641E-002	7.49160E-001	3.57280E+000	9	...........
	61	0.826667	7.52953E-001	9.08751E-005	0.00000E+000	6.84247E-005	5.39641E-002	7.53064E-001	3.57280E+000	9	...........
	62	0.84	7.56809E-001	9.11773E-005	0.00000E+000	6.90037E-005	5.39641E-002	7.56934E-001	3.57280E+000	9	...........
	63	0.853333	7.60610E-001	9.11637E-005	0.00000E+000	6.93400E-005	5.39641E-002	7.60709E-001	3.57280E+000	9	...........
	64	0.866667	7.64373E-001	9.12148E-005	0.00000E+000	6.97221E-005	5.39641E-002	7.64492E-001	3.57280E+000	9	...........
	65	0.88	7.68085E-001	9.08668E-005	0.00000E+000	6.97934E-005	5.39641E-002	7.68237E-001	3.57280E+000	9	...........
	66	0.893333	7.71739E-001	9.11762E-005	0.00000E+000	7.03643E-005	5.39641E-002	7.71884E-001	3.57280E+000	9	...........
	67	0.906667	7.75347E-001	9.12314E-005	0.00000E+000	7.07360E-005	5.39641E-002	7.75496E-001	3.57280E+000	9	...........
	68	0.92	7.78944E-001	9.12137E-005	0.00000E+000	7.10504E-005	5.39641E-002	7.79069E-001	3.57280E+000	9	...........
	69	0.933333	7.82473E-001	9.08887E-005	0.00000E+000	7.11179E-005	5.39641E-002	7.82597E-001	3.57280E+000	9	...........
	70	0.946667	7.85966E-001	9.12523E-005	0.00000E+000	7.17212E-005	5.39641E-002	7.86092E-001	3.57280E+000	9	...........
	71	0.96	7.89439E-001	9.11147E-005	0.00000E+000	7.19296E-005	5.39641E-002	7.89587E-001	3.57280E+000	9	...........
	72	0.97333	7.92876E-001	9.09991E-005	0.00000E+000	7.21510E-005	5.39641E-002	7.93031E-001	3.57280E+000	9	...........
	73	0.98667	7.96290E-001	9.11991E-005	0.00000E+000	7.26209E-005	5.39641E-002	7.96434E-001	3.57280E+000	9	...........
	74	1	7.99592E-001	9.12054E-005	0.00000E+000	7.29271E-005	5.39641E-002	7.99750E-001	3.57280E+000	9	...........
	75	1.01333	8.02899E-001	9.09783E-005	0.00000E+000	7.30464E-005	5.39641E-002	8.03036E-001	3.57280E+000	9	...........
	76	1.02667	8.06136E-001	9.10491E-005	0.00000E+000	7.33979E-005	5.39641E-002	8.06298E-001	3.57280E+000	9	...........
	77	1.04	8.09343E-001	9.09407E-005	0.00000E+000	7.36023E-005	5.39641E-002	8.09515E-001	3.57280E+000	9	...........
	78	1.05333	8.12537E-001	9.11012E-005	0.00000E+000	7.40231E-005	5.39641E-002	8.12718E-001	3.57280E+000	9	...........
	79	1.06667	8.15707E-001	9.08459E-005	0.00000E+000	7.41036E-005	5.39641E-002	8.15865E-001	3.57280E+000	9	...........
	80	1.08	8.18867E-001	9.10470E-005	0.00000E+000	7.45554E-005	5.39641E-002	8.19022E-001	3.57280E+000	9	...........
	81	1.09333	8.21971E-001	9.11918E-005	0.00000E+000	7.49571E-005	5.39641E-002	8.22105E-001	3.57280E+000	9	...........
	82	1.10667	8.25024E-001	9.11054E-005	0.00000E+000	7.51641E-005	5.39641E-002	8.25176E-001	3.57280E+000	9	...........
	83	1.12	8.28039E-001	9.08032E-005	0.00000E+000	7.51886E-005	5.39641E-002	8.28178E-001	3.57280E+000	9	...........
	84	1.13333	8.31025E-001	9.09137E-005	0.00000E+000	7.55515E-005	5.39641E-002	8.31200E-001	3.57280E+000	9	...........
	85	1.14667	8.33988E-001	9.08793E-005	0.00000E+000	7.57923E-005	5.39641E-002	8.34170E-001	3.57280E+000	9	...........
	86	1.16	8.36910E-001	9.09533E-005	0.00000E+000	7.61196E-005	5.39641E-002	8.37106E-001	3.57280E+000	9	...........
	87	1.17333	8.39829E-001	9.13731E-005	0.00000E+000	7.67378E-005	5.39641E-002	8.40005E-001	3.57280E+000	9	...........
	88	1.18667	8.42700E-001	9.12023E-005	0.00000E+000	7.68562E-005	5.39641E-002	8.42892E-001	3.57280E+000	9	...........
	89	1.2	8.45616E-001	9.09418E-005	0.00000E+000	7.69019E-005	5.39641E-002	8.45788E-001	3.57280E+000	9	...........
	90	1.21333	8.48445E-001	9.11960E-005	0.00000E+000	7.73748E-005	5.39641E-002	8.48612E-001	3.57280E+000	9	...........
	91	1.22667	8.51225E-001	9.10501E-005	0.00000E+000	7.75041E-005	5.39641E-002	8.51401E-001	3.57280E+000	9	...........
	92	1.24	8.53968E-001	9.08001E-005	0.00000E+000	7.75404E-005	5.39641E-002	8.54148E-001	3.57280E+000	9	...........
	93	1.25333	8.56673E-001	9.13137E-005	0.00000E+000	7.82260E-005	5.39641E-002	8.56896E-001	3.57280E+000	9	...........
	94	1.26667	8.59410E-001	9.11741E-005	0.00000E+000	7.83560E-005	5.39641E-002	8.59606E-001	3.57280E+000	9	...........
	95	1.28	8.62088E-001	9.10022E-005	0.00000E+000	7.84519E-005	5.39641E-002	8.62284E-001	3.57280E+000	9	...........
	96	1.29333	8.64724E-001	9.11460E-005	0.00000E+000	7.88161E-005	5.39641E-002	8.64923E-001	3.57280E+000	9	...........
	97	1.30667	8.67363E-001	9.09585E-005	0.00000E+000	7.88940E-005	5.39641E-002	8.67563E-001	3.57280E+000	9	...........
	98	1.32	8.69967E-001	9.10293E-005	0.00000E+000	7.91925E-005	5.39641E-002	8.70187E-001	3.57280E+000	9	...........
	99	1.33333	8.72559E-001	9.09897E-005	0.00000E+000	7.93939E-005	5.39641E-002	8.72757E-001	3.57280E+000	9	...........
	100	1.34667	8.75095E-001	9.08980E-005	0.00000E+000	7.95444E-005	5.39641E-002	8.75306E-001	3.57280E+000	9	...........
	101	1.36	8.77627E-001	9.10658E-005	0.00000E+000	7.99218E-005	5.39641E-002	8.77828E-001	3.57280E+000	9	...........
	102	1.37333	8.80108E-001	9.11981E-005	0.00000E+000	8.02642E-005	5.39641E-002	8.80303E-001	3.57254E+000	9	...........
	103	1.38667	8.82598E-001	9.11502E-005	0.00000E+000	8.04489E-005	5.39641E-002	8.82780E-001	3.57250E+000	9	...........
	104	1.4	8.85028E-001	9.11074E-005	0.00000E+000	8.06327E-005	5.39641E-002	8.85242E-001	3.57250E+000	9	...........
	105	1.41333	8.87444E-001	9.09303E-005	0.00000E+000	8.06956E-005	5.39641E-002	8.87655E-001	3.57250E+000	9	...........
	106	1.42667	8.89844E-001	9.11127E-005	0.00000E+000	8.10761E-005	5.39641E-002	8.90037E-001	3.57250E+000	9	...........
	107	1.44	8.92206E-001	9.11304E-005	0.00000E+000	8.13071E-005	5.39641E-002	8.92403E-001	3.57250E+000	9	...........
	108	1.45333	8.94536E-001	9.09751E-005	0.00000E+000	8.13805E-005	5.39641E-002	8.94754E-001	3.57250E+000	9	...........
	109	1.46667	8.96887E-001	9.10220E-005	0.00000E+000	8.16364E-005	5.39641E-002	8.97118E-001	3.57250E+000	9	...........
	110	1.48	8.99188E-001	9.11106E-005	0.00000E+000	8.19255E-005	5.39641E-002	8.99423E-001	3.57250E+000	9	...........
	111	1.49333	9.01478E-001	9.09835E-005	0.00000E+000	8.20196E-005	5.39641E-002	9.01695E-001	3.57250E+000	9	...........
	112	1.50667	9.03743E-001	9.09647E-005	0.00000E+000	8.22087E-005	5.39641E-002	9.03963E-001	3.57250E+000	9	...........
	113	1.52	9.05958E-001	9.09772E-005	0.00000E+000	8.24215E-005	5.39641E-002	9.06167E-001	3.57250E+000	9	...........
	114	1.53333	9.08213E-001	9.10470E-005	0.00000E+000	8.26901E-005	5.39641E-002	9.08425E-001	3.57250E+000	9	...........
	115	1.54667	9.10380E-001	9.11814E-005	0.00000E+000	8.30098E-005	5.39641E-002	9.10562E-001	3.57250E+000	9	...........
	116	1.56	9.12556E-001	9.08553E-005	0.00000E+000	8.29106E-005	5.39641E-002	9.12745E-001	3.57250E+000	9	...........
	117	1.57333	9.14694E-001	9.11272E-005	0.00000E+000	8.33536E-005	5.39641E-002	9.14897E-001	3.57250E+000	9	...........
	118	1.58667	9.16813E-001	9.10095E-005	0.00000E+000	8.34387E-005	5.39641E-002	9.17018E-001	3.57250E+000	9	...........
	119	1.6	9.18889E-001	9.08730E-005	0.00000E+000	8.35022E-005	5.39641E-002	9.19109E-001	3.57250E+000	9	...........
	120	1.61333	9.21016E-001	9.09658E-005	0.00000E+000	8.37809E-005	5.39641E-002	9.21189E-001	3.57250E+000	9	...........
	121	1.62667	9.23090E-001	9.12908E-005	0.00000E+000	8.42696E-005	5.39641E-002	9.23244E-001	3.57250E+000	9	...........
	122	1.64	9.25125E-001	9.10689E-005	0.00000E+000	8.42501E-005	5.39641E-002	9.25293E-001	3.57250E+000	9	...........
	123	1.65333	9.27153E-001	9.08053E-005	0.00000E+000	8.41904E-005	5.39641E-002	9.27340E-001	3.57250E+000	9	...........
	124	1.66667	9.29166E-001	9.08199E-005	0.00000E+000	8.43868E-005	5.39641E-002	9.29310E-001	3.57250E+000	9	...........
	125	1.68	9.31136E-001	9.11356E-005	0.00000E+000	8.48596E-005	5.39641E-002	9.31312E-001	3.57250E+000	9	...........
	126	1.69333	9.33071E-001	9.09658E-005	0.00000E+000	8.48775E-005	5.39641E-002	9.33255E-001	3.57250E+000	9	...........
	127	1.70667	9.34993E-001	9.10491E-005	0.00000E+000	8.51303E-005	5.39641E-002	9.35185E-001	3.57250E+000	9	...........
	128	1.72	9.36900E-001	9.09199E-005	0.00000E+000	8.51829E-005	5.39641E-002	9.37078E-001	3.57250E+000	9	...........
	129	1.73333	9.38770E-001	9.09387E-005	0.00000E+000	8.53705E-005	5.39641E-002	9.38975E-001	3.57250E+000	9	...........
	130	1.74667	9.40650E-001	9.13637E-005	0.00000E+000	8.59413E-005	5.39641E-002	9.40838E-001	3.57250E+000	9	...........
	131	1.76	9.42485E-001	9.10481E-005	0.00000E+000	8.58114E-005	5.39641E-002	9.42689E-001	3.57250E+000	9	...........
	132	1.77333	9.44317E-001	9.09116E-005	0.00000E+000	8.58493E-005	5.39641E-002	9.44529E-001	3.57250E+000	9	...........
	133	1.78667	9.46124E-001	9.11127E-005	0.00000E+000	8.62038E-005	5.39641E-002	9.46329E-001	3.57250E+000	9	...........
	134	1.8	9.47912E-001	9.10689E-005	0.00000E+000	8.63253E-005	5.39641E-002	9.48116E-001	3.57250E+000	9	...........
	135	1.81333	9.49701E-001	9.09720E-005	0.00000E+000	8.63962E-005	5.39641E-002	9.49878E-001	3.57250E+000	9	...........
	136	1.82667	9.51456E-001	9.08782E-005	0.00000E+000	8.64666E-005	5.39641E-002	9.51658E-001	3.57250E+000	9	...........
	137	1.84	9.53191E-001	9.08116E-005	0.00000E+000	8.65608E-005	5.39641E-002	9.53414E-001	3.57250E+000	9	...........
	138	1.85333	9.54952E-001	9.10106E-005	0.00000E+000	8.69107E-005	5.39641E-002	9.55139E-001	3.57250E+000	9	...........
	139	1.86667	9.56641E-001	9.11356E-005	0.00000E+000	8.71841E-005	5.39641E-002	9.56849E-001	3.57250E+000	9	...........
	140	1.88	9.58356E-001	9.10116E-005	0.00000E+000	8.72215E-005	5.39641E-002	9.58543E-001	3.57250E+000	9	...........
	141	1.89333	9.60035E-001	9.11116E-005	0.00000E+000	8.74703E-005	5.39641E-002	9.60259E-001	3.57250E+000	9	...........
	142	1.90667	9.61687E-001	9.11074E-005	0.00000E+000	8.76168E-005	5.39641E-002	9.61906E-001	3.57250E+000	9	...........
	143	1.92	9.63347E-001	9.10272E-005	0.00000E+000	8.76908E-005	5.39641E-002	9.63548E-001	3.57250E+000	9	...........
	144	1.93333	9.64932E-001	9.09772E-005	0.00000E+000	8.77868E-005	5.39641E-002	9.65155E-001	3.57250E+000	9	...........
	145	1.94667	9.66536E-001	9.09272E-005	0.00000E+000	8.78844E-005	5.39641E-002	9.66736E-001	3.57250E+000	9	...........
	146	1.96	9.68107E-001	9.10835E-005	0.00000E+000	8.81785E-005	5.39641E-002	9.68288E-001	3.57250E+000	9	...........
	147	1.97333	9.69680E-001	9.09064E-005	0.00000E+000	8.81501E-005	5.39641E-002	9.69874E-001	3.57250E+000	9	...........
	148	1.98667	9.71215E-001	9.11033E-005	0.00000E+000	8.84809E-005	5.39641E-002	9.71430E-001	3.57250E+000	9	...........
	149	2	9.72798E-001	9.10251E-005	0.00000E+000	8.85491E-005	5.39641E-002	9.72995E-001	3.57250E+000	9	...........
	150	2.01333	9.74334E-001	9.08407E-005	0.00000E+000	8.85092E-005	5.39641E-002	9.74518E-001	3.57250E+000	9	...........
	151	2.02667	9.75828E-001	9.09137E-005	0.00000E+000	8.87161E-005	5.39641E-002	9.76025E-001	3.57250E+000	9	...........
	152	2.04	9.77334E-001	9.12679E-005	0.00000E+000	8.91992E-005	5.39641E-002	9.77525E-001	3.57250E+000	9	...........
	153	2.05333	9.78807E-001	9.08272E-005	0.00000E+000	8.89023E-005	5.39641E-002	9.78976E-001	3.57250E+000	9	...........
	154	2.06667	9.80255E-001	9.10731E-005	0.00000E+000	8.92748E-005	5.39641E-002	9.80441E-001	3.57250E+000	9	...........
	155	2.08	9.81707E-001	9.10647E-005	0.00000E+000	8.93989E-005	5.39641E-002	9.81875E-001	3.57250E+000	9	...........
	156	2.09333	9.83107E-001	9.10595E-005	0.00000E+000	8.95213E-005	5.39641E-002	9.83296E-001	3.57250E+000	9	...........
	157	2.10667	9.84535E-001	9.08970E-005	0.00000E+000	8.94913E-005	5.39641E-002	9.84734E-001	3.57250E+000	9	...........
	158	2.12	9.85963E-001	9.12241E-005	0.00000E+000	8.99437E-005	5.39641E-002	9.86124E-001	3.57250E+000	9	...........
	159	2.13333	9.87328E-001	9.10064E-005	0.00000E+000	8.98531E-005	5.39641E-002	9.87526E-001	3.57250E+000	9	...........
	160	2.14667	9.88734E-001	9.08918E-005	0.00000E+000	8.98678E-005	5.39641E-002	9.88922E-001	3.57250E+000	9	...........
	161	2.16	9.90080E-001	9.11158E-005	0.00000E+000	9.02119E-005	5.39641E-002	9.90281E-001	3.57250E+000	9	...........
	162	2.17333	9.91434E-001	9.10053E-005	0.00000E+000	9.02258E-005	5.39641E-002	9.91612E-001	3.57250E+000	9	...........
	163	2.18667	9.92733E-001	9.08657E-005	0.00000E+000	9.02054E-005	5.39641E-002	9.92975E-001	3.57250E+000	9	...........
	164	2.2	9.94063E-001	9.11585E-005	0.00000E+000	9.06172E-005	5.39641E-002	9.94271E-001	3.57250E+000	9	...........
	165	2.21333	9.95374E-001	9.10731E-005	0.00000E+000	9.06518E-005	5.39641E-002	9.95599E-001	3.57250E+000	9	...........
	166	2.22667	9.96670E-001	9.09303E-005	0.00000E+000	9.06275E-005	5.39641E-002	9.96897E-001	3.57250E+000	9	...........
	167	2.24	9.97986E-001	9.10199E-005	0.00000E+000	9.08367E-005	5.39641E-002	9.98206E-001	3.57250E+000	9	...........
	168	2.25333	9.99268E-001	9.08584E-005	0.00000E+000	9.07920E-005	5.39641E-002	9.99492E-001	3.57250E+000	9	...........
	169	2.255	1.00002E+000	9.06459E-005	0.00000E+000	9.06473E-005	5.39641E-002	1.00026E+000	3.57250E+000	9	...........
STARTTIMEOFFSET	QUANT	2140.928	Start Time Offset (s)
