EXPLAIN
TAG	PWR800_CHARGE
TITLE	LABEL	PWR Cyclic Charge Discharge (Cell) - Charge Step	Test &Identifier
DATE	LABEL	10-7-2017	Date
TIME	LABEL	15:56:09	Time
NOTES	NOTES	3	&Notes...
	supercap test cell
	0.9mg
	6M KOH
PSTAT	PSTAT	IFC5000-01520	Potentiostat
CAPACITY	QUANT	1.00000E-003	Capacity (A-hr)
CELLTYPE	SELECTOR	1	&Cell Type
WORKINGCONNECTION	SELECTOR	0	&Working Lead
MAXCHARGETIME	VARIABLEANDUNITS	1.00000E+002	s	1.00000E+002	second(s)	Max &Charge Time
CHARGECURRENT	QUANT	9.00000E-005	&Charge Current (A) 
VOLTAGEFINISH	TWOPARAM	F	1.00000E-003	3.60000E+003	&Voltage Finish	 I (A) < 	Max Time(s)
SAMPLETIME	QUANT	1.00000E-002	Sa&mple Period (s)
CHARGESTOPAT1	MULTIPARAM	4	1.00000E+000	Charge Stop At &1	Voltage > Limit	V
CHARGESTOPAT2	MULTIPARAM	0	0.00000E+000	Charge Stop At &2	None	N/A
AESBHCSELECTOR	TOGGLE	F	Save Both Half Cells
IRCOMP	TOGGLE	F	IR &Measure
EOC	QUANT	0	Open Circuit (V)
SEQUENCER	TOGGLE	TRUE	Run as Sequence
PSTATMODEL	IQUANT	53	Pstat Model
PSTATSECTION	LABEL	IFC5000-01520	Pstat Section
PSTATSERIALNO	LABEL	01520	Pstat Serial Number
CTRLMODE	IQUANT	0	Control Mode
ELECTROMETER	IQUANT	1	RE=0 or CS=1
IESTAB	IQUANT	0	I/E Stability
CASPEED	IQUANT	4	Control Amp Speed
CONVENTION	IQUANT	1	Current Convention
ICHRANGE	IQUANT	2	Ich Range
ICHRANGEMODE	TOGGLE	T	Ich Auto Range
ICHOFFSETENABLE	TOGGLE	F	Ich Offset Enable
ICHOFFSET	QUANT	0	Ich Offset (V)
ICHFILTER	IQUANT	1	Ich Filter
VCHRANGE	IQUANT	2	Vch Range
VCHRANGEMODE	TOGGLE	T	Vch Auto Range
VCHOFFSETENABLE	TOGGLE	F	Vch Offset Enable
VCHOFFSET	QUANT	0	Vch Offset (V)
VCHFILTER	IQUANT	1	Vch Filter
IERANGELOWERLIMIT	IQUANT	9	I/E Range Lower Limit
IERANGEMODE	TOGGLE	F	I/E AutoRange
IERANGE	IQUANT	9	I/E Range
ACHSELECT	IQUANT	1	Ach Select
ACHRANGE	IQUANT	2	Ach Range
ACHOFFSETENABLE	TOGGLE	F	Ach Offset Enable
ACHOFFSET	QUANT	0	Ach Offset (V)
ACHFILTER	IQUANT	1	Ach Filter
CABLEID	IQUANT	14	Cable ID
DCCALDATE	LABEL	5-7-2017	DC Calibration Date
ACCALDATE	LABEL	12/3/2015	AC Calibration Date
FRAMEWORKVERSION	QUANT	7.01	Framework Version
INSTRUMENTVERSION	LABEL	4.00	Instrument Version
CURVE	TABLE	166
	Pt	T	Vf	Im	Vu	Pwr	Sig	Ach	Temp	IERange	Over
	#	s	V	A	V	W	V	V	deg C	#	bits
	0	0.013333	2.66151E-001	9.10731E-005	0.00000E+000	2.42392E-005	5.39641E-002	2.66195E-001	3.57290E+000	9	...........
	1	0.026667	2.86016E-001	9.10616E-005	0.00000E+000	2.60451E-005	5.39641E-002	2.86053E-001	3.57290E+000	9	...........
	2	0.04	3.04613E-001	9.08355E-005	0.00000E+000	2.76697E-005	5.39641E-002	3.04660E-001	3.57290E+000	9	...........
	3	0.053333	3.22115E-001	9.09043E-005	0.00000E+000	2.92816E-005	5.39641E-002	3.22155E-001	3.57290E+000	9	...........
	4	0.066667	3.38654E-001	9.09939E-005	0.00000E+000	3.08155E-005	5.39641E-002	3.38698E-001	3.57290E+000	9	...........
	5	0.08	3.54319E-001	9.10606E-005	0.00000E+000	3.22645E-005	5.39641E-002	3.54366E-001	3.57290E+000	9	...........
	6	0.093333	3.69207E-001	9.08511E-005	0.00000E+000	3.35428E-005	5.39641E-002	3.69252E-001	3.57290E+000	9	...........
	7	0.106667	3.83387E-001	9.08761E-005	0.00000E+000	3.48407E-005	5.39641E-002	3.83434E-001	3.57290E+000	9	...........
	8	0.12	3.96916E-001	9.10991E-005	0.00000E+000	3.61587E-005	5.39641E-002	3.96961E-001	3.57290E+000	9	...........
	9	0.133333	4.09824E-001	9.10574E-005	0.00000E+000	3.73176E-005	5.39641E-002	4.09879E-001	3.57290E+000	9	...........
	10	0.146667	4.22193E-001	9.09741E-005	0.00000E+000	3.84086E-005	5.39641E-002	4.22251E-001	3.57290E+000	9	...........
	11	0.16	4.34073E-001	9.08063E-005	0.00000E+000	3.94165E-005	5.39641E-002	4.34126E-001	3.57290E+000	9	...........
	12	0.173333	4.45481E-001	9.05844E-005	0.00000E+000	4.03537E-005	5.39641E-002	4.45542E-001	3.57290E+000	9	...........
	13	0.186667	4.56466E-001	9.09835E-005	0.00000E+000	4.15309E-005	5.39641E-002	4.56533E-001	3.57290E+000	9	...........
	14	0.2	4.67063E-001	9.09793E-005	0.00000E+000	4.24931E-005	5.39641E-002	4.67123E-001	3.57290E+000	9	...........
	15	0.213333	4.77289E-001	9.08366E-005	0.00000E+000	4.33553E-005	5.39641E-002	4.77355E-001	3.57290E+000	9	...........
	16	0.226667	4.87153E-001	9.10168E-005	0.00000E+000	4.43391E-005	5.39641E-002	4.87229E-001	3.57290E+000	9	...........
	17	0.24	4.96686E-001	9.09168E-005	0.00000E+000	4.51571E-005	5.39641E-002	4.96759E-001	3.57290E+000	9	...........
	18	0.253333	5.05919E-001	9.11595E-005	0.00000E+000	4.61194E-005	5.39641E-002	5.05990E-001	3.57290E+000	9	...........
	19	0.266667	5.14853E-001	9.10178E-005	0.00000E+000	4.68608E-005	5.39641E-002	5.14925E-001	3.57290E+000	9	...........
	20	0.28	5.23526E-001	9.08293E-005	0.00000E+000	4.75515E-005	5.39641E-002	5.23597E-001	3.57290E+000	9	...........
	21	0.293333	5.31912E-001	9.12825E-005	0.00000E+000	4.85542E-005	5.39641E-002	5.31994E-001	3.57290E+000	9	...........
	22	0.306667	5.40047E-001	9.10574E-005	0.00000E+000	4.91753E-005	5.39641E-002	5.40134E-001	3.57290E+000	9	...........
	23	0.32	5.48014E-001	9.11710E-005	0.00000E+000	4.99630E-005	5.39641E-002	5.48086E-001	3.57290E+000	9	...........
	24	0.333333	5.55742E-001	9.08439E-005	0.00000E+000	5.04857E-005	5.39641E-002	5.55835E-001	3.57290E+000	9	...........
	25	0.346667	5.63308E-001	9.09303E-005	0.00000E+000	5.12218E-005	5.39641E-002	5.63393E-001	3.57290E+000	9	...........
	26	0.36	5.70657E-001	9.08793E-005	0.00000E+000	5.18609E-005	5.39641E-002	5.70737E-001	3.57290E+000	9	...........
	27	0.373333	5.77810E-001	9.09314E-005	0.00000E+000	5.25410E-005	5.39641E-002	5.77911E-001	3.57290E+000	9	...........
	28	0.386667	5.84789E-001	9.10491E-005	0.00000E+000	5.32445E-005	5.39641E-002	5.84903E-001	3.57290E+000	9	...........
	29	0.4	5.91645E-001	9.11616E-005	0.00000E+000	5.39353E-005	5.39641E-002	5.91758E-001	3.57290E+000	9	...........
	30	0.413333	5.98303E-001	9.09762E-005	0.00000E+000	5.44313E-005	5.39641E-002	5.98411E-001	3.57290E+000	9	...........
	31	0.426667	6.04781E-001	9.10668E-005	0.00000E+000	5.50755E-005	5.39641E-002	6.04935E-001	3.57290E+000	9	...........
	32	0.44	6.11125E-001	9.10064E-005	0.00000E+000	5.56163E-005	5.39641E-002	6.11295E-001	3.57290E+000	9	...........
	33	0.453333	6.17425E-001	9.09199E-005	0.00000E+000	5.61362E-005	5.39641E-002	6.17532E-001	3.57290E+000	9	...........
	34	0.466667	6.23493E-001	9.11002E-005	0.00000E+000	5.68003E-005	5.39641E-002	6.23586E-001	3.57290E+000	9	...........
	35	0.48	6.29465E-001	9.09053E-005	0.00000E+000	5.72217E-005	5.39641E-002	6.29579E-001	3.57290E+000	9	...........
	36	0.493333	6.35331E-001	9.11095E-005	0.00000E+000	5.78847E-005	5.39641E-002	6.35436E-001	3.57290E+000	9	...........
	37	0.506667	6.41086E-001	9.11762E-005	0.00000E+000	5.84518E-005	5.39641E-002	6.41206E-001	3.57290E+000	9	...........
	38	0.52	6.46725E-001	9.08282E-005	0.00000E+000	5.87409E-005	5.39641E-002	6.46826E-001	3.57290E+000	9	...........
	39	0.533333	6.52252E-001	9.12252E-005	0.00000E+000	5.95019E-005	5.39641E-002	6.52347E-001	3.57290E+000	9	...........
	40	0.546667	6.57682E-001	9.08511E-005	0.00000E+000	5.97512E-005	5.39641E-002	6.57764E-001	3.57290E+000	9	...........
	41	0.56	6.62989E-001	9.11200E-005	0.00000E+000	6.04115E-005	5.39641E-002	6.63102E-001	3.57290E+000	9	...........
	42	0.573333	6.68253E-001	9.09314E-005	0.00000E+000	6.07652E-005	5.39641E-002	6.68368E-001	3.57290E+000	9	...........
	43	0.586667	6.73412E-001	9.09084E-005	0.00000E+000	6.12188E-005	5.39641E-002	6.73543E-001	3.57346E+000	9	...........
	44	0.6	6.78488E-001	9.11147E-005	0.00000E+000	6.18203E-005	5.39641E-002	6.78614E-001	3.57440E+000	9	...........
	45	0.613333	6.83447E-001	9.10699E-005	0.00000E+000	6.22414E-005	5.39641E-002	6.83564E-001	3.57440E+000	9	...........
	46	0.626667	6.88368E-001	9.10033E-005	0.00000E+000	6.26438E-005	5.39641E-002	6.88465E-001	3.57440E+000	9	...........
	47	0.64	6.93183E-001	9.11439E-005	0.00000E+000	6.31794E-005	5.39641E-002	6.93295E-001	3.57440E+000	9	...........
	48	0.653333	6.97949E-001	9.08418E-005	0.00000E+000	6.34030E-005	5.39641E-002	6.98041E-001	3.57440E+000	9	...........
	49	0.666667	7.02645E-001	9.10512E-005	0.00000E+000	6.39767E-005	5.39641E-002	7.02729E-001	3.57440E+000	9	...........
	50	0.68	7.07243E-001	9.10741E-005	0.00000E+000	6.44115E-005	5.39641E-002	7.07345E-001	3.57440E+000	9	...........
	51	0.693333	7.11797E-001	9.09960E-005	0.00000E+000	6.47707E-005	5.39641E-002	7.11891E-001	3.57440E+000	9	...........
	52	0.706667	7.16275E-001	9.09710E-005	0.00000E+000	6.51602E-005	5.39641E-002	7.16389E-001	3.57440E+000	9	...........
	53	0.72	7.20740E-001	9.11325E-005	0.00000E+000	6.56828E-005	5.39641E-002	7.20798E-001	3.57440E+000	9	...........
	54	0.733333	7.25064E-001	9.10543E-005	0.00000E+000	6.60202E-005	5.39641E-002	7.25159E-001	3.57440E+000	9	...........
	55	0.746667	7.29345E-001	9.10126E-005	0.00000E+000	6.63796E-005	5.39641E-002	7.29465E-001	3.57440E+000	9	...........
	56	0.76	7.33588E-001	9.10887E-005	0.00000E+000	6.68215E-005	5.39641E-002	7.33726E-001	3.57440E+000	9	...........
	57	0.773333	7.37769E-001	9.11137E-005	0.00000E+000	6.72209E-005	5.39641E-002	7.37901E-001	3.57440E+000	9	...........
	58	0.786667	7.41918E-001	9.14158E-005	0.00000E+000	6.78231E-005	5.39641E-002	7.42061E-001	3.57440E+000	9	...........
	59	0.8	7.46012E-001	9.08887E-005	0.00000E+000	6.78040E-005	5.39641E-002	7.46134E-001	3.57440E+000	9	...........
	60	0.813333	7.50026E-001	9.12783E-005	0.00000E+000	6.84611E-005	5.39641E-002	7.50136E-001	3.57440E+000	9	...........
	61	0.826667	7.53998E-001	9.06803E-005	0.00000E+000	6.83727E-005	5.39641E-002	7.54111E-001	3.57440E+000	9	...........
	62	0.84	7.57929E-001	9.10314E-005	0.00000E+000	6.89953E-005	5.39641E-002	7.58035E-001	3.57440E+000	9	...........
	63	0.853333	7.61809E-001	9.12596E-005	0.00000E+000	6.95224E-005	5.39641E-002	7.61905E-001	3.57440E+000	9	...........
	64	0.866667	7.65627E-001	9.11116E-005	0.00000E+000	6.97575E-005	5.39641E-002	7.65744E-001	3.57440E+000	9	...........
	65	0.88	7.69437E-001	9.12023E-005	0.00000E+000	7.01744E-005	5.39641E-002	7.69566E-001	3.57440E+000	9	...........
	66	0.893333	7.73177E-001	9.10741E-005	0.00000E+000	7.04164E-005	5.39641E-002	7.73287E-001	3.57440E+000	9	...........
	67	0.906667	7.76841E-001	9.11241E-005	0.00000E+000	7.07890E-005	5.39641E-002	7.76982E-001	3.57440E+000	9	...........
	68	0.92	7.80485E-001	9.08668E-005	0.00000E+000	7.09201E-005	5.39641E-002	7.80621E-001	3.57440E+000	9	...........
	69	0.933333	7.84109E-001	9.09845E-005	0.00000E+000	7.13417E-005	5.39641E-002	7.84246E-001	3.57440E+000	9	...........
	70	0.946667	7.87706E-001	9.09793E-005	0.00000E+000	7.16650E-005	5.39641E-002	7.87830E-001	3.57440E+000	9	...........
	71	0.96	7.91218E-001	9.12585E-005	0.00000E+000	7.22054E-005	5.39641E-002	7.91354E-001	3.57440E+000	9	...........
	72	0.97333	7.94735E-001	9.09772E-005	0.00000E+000	7.23028E-005	5.39641E-002	7.94865E-001	3.57440E+000	9	...........
	73	0.98667	7.98174E-001	9.09574E-005	0.00000E+000	7.25998E-005	5.39641E-002	7.98305E-001	3.57440E+000	9	...........
	74	1	8.01583E-001	9.11856E-005	0.00000E+000	7.30928E-005	5.39641E-002	8.01693E-001	3.57440E+000	9	...........
	75	1.01333	8.04944E-001	9.08001E-005	0.00000E+000	7.30890E-005	5.39641E-002	8.05080E-001	3.57440E+000	9	...........
	76	1.02667	8.08323E-001	9.09147E-005	0.00000E+000	7.34884E-005	5.39641E-002	8.08455E-001	3.57440E+000	9	...........
	77	1.04	8.11613E-001	9.12314E-005	0.00000E+000	7.40446E-005	5.39641E-002	8.11758E-001	3.57440E+000	9	...........
	78	1.05333	8.14880E-001	9.10210E-005	0.00000E+000	7.41712E-005	5.39641E-002	8.15045E-001	3.57440E+000	9	...........
	79	1.06667	8.18117E-001	9.11002E-005	0.00000E+000	7.45306E-005	5.39641E-002	8.18287E-001	3.57440E+000	9	...........
	80	1.08	8.21348E-001	9.11231E-005	0.00000E+000	7.48437E-005	5.39641E-002	8.21500E-001	3.57440E+000	9	...........
	81	1.09333	8.24511E-001	9.11074E-005	0.00000E+000	7.51191E-005	5.39641E-002	8.24667E-001	3.57440E+000	9	...........
	82	1.10667	8.27649E-001	9.10324E-005	0.00000E+000	7.53429E-005	5.39641E-002	8.27780E-001	3.57440E+000	9	...........
	83	1.12	8.30746E-001	9.11064E-005	0.00000E+000	7.56863E-005	5.39641E-002	8.30895E-001	3.57440E+000	9	...........
	84	1.13333	8.33792E-001	9.11064E-005	0.00000E+000	7.59638E-005	5.39641E-002	8.33967E-001	3.57440E+000	9	...........
	85	1.14667	8.36817E-001	9.10168E-005	0.00000E+000	7.61644E-005	5.39641E-002	8.36996E-001	3.57440E+000	9	...........
	86	1.16	8.39832E-001	9.08511E-005	0.00000E+000	7.62997E-005	5.39641E-002	8.40001E-001	3.57440E+000	9	...........
	87	1.17333	8.42807E-001	9.12002E-005	0.00000E+000	7.68641E-005	5.39641E-002	8.42978E-001	3.57440E+000	9	...........
	88	1.18667	8.45792E-001	9.12283E-005	0.00000E+000	7.71601E-005	5.39641E-002	8.45955E-001	3.57440E+000	9	...........
	89	1.2	8.48725E-001	9.11543E-005	0.00000E+000	7.73650E-005	5.39641E-002	8.48886E-001	3.57440E+000	9	...........
	90	1.21333	8.51610E-001	9.11304E-005	0.00000E+000	7.76075E-005	5.39641E-002	8.51752E-001	3.57440E+000	9	...........
	91	1.22667	8.54443E-001	9.12919E-005	0.00000E+000	7.80037E-005	5.39641E-002	8.54607E-001	3.57440E+000	9	...........
	92	1.24	8.57275E-001	9.08324E-005	0.00000E+000	7.78683E-005	5.39641E-002	8.57444E-001	3.57440E+000	9	...........
	93	1.25333	8.60072E-001	9.08334E-005	0.00000E+000	7.81233E-005	5.39641E-002	8.60258E-001	3.57440E+000	9	...........
	94	1.26667	8.62867E-001	9.09418E-005	0.00000E+000	7.84706E-005	5.39641E-002	8.63034E-001	3.57440E+000	9	...........
	95	1.28	8.65580E-001	9.10460E-005	0.00000E+000	7.88076E-005	5.39641E-002	8.65786E-001	3.57440E+000	9	...........
	96	1.29333	8.68312E-001	9.09418E-005	0.00000E+000	7.89659E-005	5.39641E-002	8.68499E-001	3.57440E+000	9	...........
	97	1.30667	8.71011E-001	9.10741E-005	0.00000E+000	7.93265E-005	5.39641E-002	8.71184E-001	3.57440E+000	9	...........
	98	1.32	8.73671E-001	9.11147E-005	0.00000E+000	7.96043E-005	5.39641E-002	8.73844E-001	3.57440E+000	9	...........
	99	1.33333	8.76303E-001	9.09460E-005	0.00000E+000	7.96962E-005	5.39641E-002	8.76462E-001	3.57440E+000	9	...........
	100	1.34667	8.78897E-001	9.09626E-005	0.00000E+000	7.99468E-005	5.39641E-002	8.79068E-001	3.57440E+000	9	...........
	101	1.36	8.81493E-001	9.09282E-005	0.00000E+000	8.01527E-005	5.39641E-002	8.81641E-001	3.57440E+000	9	...........
	102	1.37333	8.84068E-001	9.10689E-005	0.00000E+000	8.05111E-005	5.39641E-002	8.84201E-001	3.57440E+000	9	...........
	103	1.38667	8.86592E-001	9.12314E-005	0.00000E+000	8.08850E-005	5.39641E-002	8.86733E-001	3.57440E+000	9	...........
	104	1.4	8.89068E-001	9.11012E-005	0.00000E+000	8.09951E-005	5.39641E-002	8.89213E-001	3.57440E+000	9	...........
	105	1.41333	8.91543E-001	9.10949E-005	0.00000E+000	8.12151E-005	5.39641E-002	8.91679E-001	3.57440E+000	9	...........
	106	1.42667	8.93962E-001	9.08939E-005	0.00000E+000	8.12556E-005	5.39641E-002	8.94120E-001	3.57440E+000	9	...........
	107	1.44	8.96404E-001	9.09949E-005	0.00000E+000	8.15682E-005	5.39641E-002	8.96572E-001	3.57440E+000	9	...........
	108	1.45333	8.98784E-001	9.11241E-005	0.00000E+000	8.19009E-005	5.39641E-002	8.98969E-001	3.57440E+000	9	...........
	109	1.46667	9.01169E-001	9.09887E-005	0.00000E+000	8.19962E-005	5.39641E-002	9.01375E-001	3.57440E+000	9	...........
	110	1.48	9.03554E-001	9.10064E-005	0.00000E+000	8.22292E-005	5.39641E-002	9.03725E-001	3.57440E+000	9	...........
	111	1.49333	9.05849E-001	9.08136E-005	0.00000E+000	8.22634E-005	5.39641E-002	9.06042E-001	3.57440E+000	9	...........
	112	1.50667	9.08176E-001	9.12533E-005	0.00000E+000	8.28741E-005	5.39641E-002	9.08362E-001	3.57440E+000	9	...........
	113	1.52	9.10445E-001	9.10189E-005	0.00000E+000	8.28677E-005	5.39641E-002	9.10582E-001	3.57440E+000	9	...........
	114	1.53333	9.12689E-001	9.09480E-005	0.00000E+000	8.30073E-005	5.39641E-002	9.12838E-001	3.57440E+000	9	...........
	115	1.54667	9.14902E-001	9.11679E-005	0.00000E+000	8.34097E-005	5.39641E-002	9.15082E-001	3.57440E+000	9	...........
	116	1.56	9.17105E-001	9.10699E-005	0.00000E+000	8.35207E-005	5.39641E-002	9.17283E-001	3.57440E+000	9	...........
	117	1.57333	9.19289E-001	9.13242E-005	0.00000E+000	8.39533E-005	5.39641E-002	9.19474E-001	3.57440E+000	9	...........
	118	1.58667	9.21521E-001	9.10522E-005	0.00000E+000	8.39065E-005	5.39641E-002	9.21655E-001	3.57384E+000	9	...........
	119	1.6	9.23669E-001	9.08699E-005	0.00000E+000	8.39337E-005	5.39641E-002	9.23800E-001	3.57290E+000	9	...........
	120	1.61333	9.25774E-001	9.11377E-005	0.00000E+000	8.43728E-005	5.39641E-002	9.25907E-001	3.57290E+000	9	...........
	121	1.62667	9.27861E-001	9.11981E-005	0.00000E+000	8.46191E-005	5.39641E-002	9.28012E-001	3.57290E+000	9	...........
	122	1.64	9.29915E-001	9.10345E-005	0.00000E+000	8.46544E-005	5.39641E-002	9.30070E-001	3.57290E+000	9	...........
	123	1.65333	9.31976E-001	9.12293E-005	0.00000E+000	8.50236E-005	5.39641E-002	9.32082E-001	3.57290E+000	9	...........
	124	1.66667	9.34018E-001	9.09970E-005	0.00000E+000	8.49928E-005	5.39641E-002	9.34145E-001	3.57290E+000	9	...........
	125	1.68	9.36006E-001	9.09032E-005	0.00000E+000	8.50860E-005	5.39641E-002	9.36154E-001	3.57290E+000	9	...........
	126	1.69333	9.37992E-001	9.09855E-005	0.00000E+000	8.53437E-005	5.39641E-002	9.38168E-001	3.57290E+000	9	...........
	127	1.70667	9.39955E-001	9.10866E-005	0.00000E+000	8.56173E-005	5.39641E-002	9.40134E-001	3.57290E+000	9	...........
	128	1.72	9.41903E-001	9.11595E-005	0.00000E+000	8.58635E-005	5.39641E-002	9.42064E-001	3.57290E+000	9	...........
	129	1.73333	9.43807E-001	9.08887E-005	0.00000E+000	8.57813E-005	5.39641E-002	9.43978E-001	3.57290E+000	9	...........
	130	1.74667	9.45698E-001	9.09397E-005	0.00000E+000	8.60015E-005	5.39641E-002	9.45904E-001	3.57290E+000	9	...........
	131	1.76	9.47609E-001	9.08970E-005	0.00000E+000	8.61348E-005	5.39641E-002	9.47779E-001	3.57290E+000	9	...........
	132	1.77333	9.49437E-001	9.10064E-005	0.00000E+000	8.64049E-005	5.39641E-002	9.49626E-001	3.57290E+000	9	...........
	133	1.78667	9.51282E-001	9.10845E-005	0.00000E+000	8.66471E-005	5.39641E-002	9.51464E-001	3.57290E+000	9	...........
	134	1.8	9.53096E-001	9.10626E-005	0.00000E+000	8.67914E-005	5.39641E-002	9.53275E-001	3.57290E+000	9	...........
	135	1.81333	9.54866E-001	9.12460E-005	0.00000E+000	8.71277E-005	5.39641E-002	9.55043E-001	3.57290E+000	9	...........
	136	1.82667	9.56636E-001	9.08428E-005	0.00000E+000	8.69035E-005	5.39641E-002	9.56780E-001	3.57290E+000	9	...........
	137	1.84	9.58372E-001	9.11637E-005	0.00000E+000	8.73687E-005	5.39641E-002	9.58556E-001	3.57290E+000	9	...........
	138	1.85333	9.60139E-001	9.10501E-005	0.00000E+000	8.74208E-005	5.39641E-002	9.60318E-001	3.57290E+000	9	...........
	139	1.86667	9.61828E-001	9.08480E-005	0.00000E+000	8.73802E-005	5.39641E-002	9.62006E-001	3.57290E+000	9	...........
	140	1.88	9.63526E-001	9.09355E-005	0.00000E+000	8.76188E-005	5.39641E-002	9.63714E-001	3.57290E+000	9	...........
	141	1.89333	9.65197E-001	9.08866E-005	0.00000E+000	8.77234E-005	5.39641E-002	9.65390E-001	3.57290E+000	9	...........
	142	1.90667	9.66866E-001	9.08386E-005	0.00000E+000	8.78288E-005	5.39641E-002	9.67051E-001	3.57290E+000	9	...........
	143	1.92	9.68518E-001	9.09105E-005	0.00000E+000	8.80485E-005	5.39641E-002	9.68724E-001	3.57290E+000	9	...........
	144	1.93333	9.70134E-001	9.09428E-005	0.00000E+000	8.82267E-005	5.39641E-002	9.70373E-001	3.57290E+000	9	...........
	145	1.94667	9.71777E-001	9.10751E-005	0.00000E+000	8.85047E-005	5.39641E-002	9.72018E-001	3.57290E+000	9	...........
	146	1.96	9.73417E-001	9.09168E-005	0.00000E+000	8.85000E-005	5.39641E-002	9.73590E-001	3.57290E+000	9	...........
	147	1.97333	9.75011E-001	9.09616E-005	0.00000E+000	8.86885E-005	5.39641E-002	9.75201E-001	3.57290E+000	9	...........
	148	1.98667	9.76550E-001	9.11616E-005	0.00000E+000	8.90239E-005	5.39641E-002	9.76775E-001	3.57290E+000	9	...........
	149	2	9.78123E-001	9.09668E-005	0.00000E+000	8.89767E-005	5.39641E-002	9.78294E-001	3.57290E+000	9	...........
	150	2.01333	9.79658E-001	9.10345E-005	0.00000E+000	8.91827E-005	5.39641E-002	9.79810E-001	3.57290E+000	9	...........
	151	2.02667	9.81157E-001	9.11918E-005	0.00000E+000	8.94735E-005	5.39641E-002	9.81300E-001	3.57290E+000	9	...........
	152	2.04	9.82642E-001	9.07667E-005	0.00000E+000	8.91912E-005	5.39641E-002	9.82804E-001	3.57290E+000	9	...........
	153	2.05333	9.84114E-001	9.08376E-005	0.00000E+000	8.93945E-005	5.39641E-002	9.84286E-001	3.57290E+000	9	...........
	154	2.06667	9.85583E-001	9.11116E-005	0.00000E+000	8.97981E-005	5.39641E-002	9.85745E-001	3.57290E+000	9	...........
	155	2.08	9.87026E-001	9.11658E-005	0.00000E+000	8.99830E-005	5.39641E-002	9.87209E-001	3.57290E+000	9	...........
	156	2.09333	9.88470E-001	9.11637E-005	0.00000E+000	9.01126E-005	5.39641E-002	9.88676E-001	3.57290E+000	9	...........
	157	2.10667	9.89891E-001	9.11773E-005	0.00000E+000	9.02555E-005	5.39641E-002	9.90085E-001	3.57290E+000	9	...........
	158	2.12	9.91263E-001	9.07011E-005	0.00000E+000	8.99086E-005	5.39641E-002	9.91466E-001	3.57290E+000	9	...........
	159	2.13333	9.92646E-001	9.08772E-005	0.00000E+000	9.02089E-005	5.39641E-002	9.92849E-001	3.57290E+000	9	...........
	160	2.14667	9.94018E-001	9.09626E-005	0.00000E+000	9.04184E-005	5.39641E-002	9.94229E-001	3.57290E+000	9	...........
	161	2.16	9.95413E-001	9.08553E-005	0.00000E+000	9.04386E-005	5.39641E-002	9.95615E-001	3.57290E+000	9	...........
	162	2.17333	9.96747E-001	9.11106E-005	0.00000E+000	9.08142E-005	5.39641E-002	9.96977E-001	3.57290E+000	9	...........
	163	2.18667	9.98098E-001	9.07938E-005	0.00000E+000	9.06211E-005	5.39641E-002	9.98312E-001	3.57290E+000	9	...........
	164	2.2	9.99415E-001	9.09168E-005	0.00000E+000	9.08636E-005	5.39641E-002	9.99629E-001	3.57290E+000	9	...........
	165	2.20167	1.00017E+000	9.03042E-005	0.00000E+000	9.03191E-005	5.39641E-002	1.00039E+000	3.57290E+000	9	...........
STARTTIMEOFFSET	QUANT	2873.291	Start Time Offset (s)
