EXPLAIN
TAG	PWR800_CHARGE
TITLE	LABEL	PWR Cyclic Charge Discharge (Cell) - Charge Step	Test &Identifier
DATE	LABEL	10-7-2017	Date
TIME	LABEL	15:13:26	Time
NOTES	NOTES	3	&Notes...
	supercap test cell
	0.9mg
	6M KOH
PSTAT	PSTAT	IFC5000-01520	Potentiostat
CAPACITY	QUANT	1.00000E-003	Capacity (A-hr)
CELLTYPE	SELECTOR	1	&Cell Type
WORKINGCONNECTION	SELECTOR	0	&Working Lead
MAXCHARGETIME	VARIABLEANDUNITS	1.00000E+002	s	1.00000E+002	second(s)	Max &Charge Time
CHARGECURRENT	QUANT	9.00000E-005	&Charge Current (A) 
VOLTAGEFINISH	TWOPARAM	F	1.00000E-003	3.60000E+003	&Voltage Finish	 I (A) < 	Max Time(s)
SAMPLETIME	QUANT	1.00000E-002	Sa&mple Period (s)
CHARGESTOPAT1	MULTIPARAM	4	1.00000E+000	Charge Stop At &1	Voltage > Limit	V
CHARGESTOPAT2	MULTIPARAM	0	0.00000E+000	Charge Stop At &2	None	N/A
AESBHCSELECTOR	TOGGLE	F	Save Both Half Cells
IRCOMP	TOGGLE	F	IR &Measure
EOC	QUANT	0	Open Circuit (V)
SEQUENCER	TOGGLE	TRUE	Run as Sequence
PSTATMODEL	IQUANT	53	Pstat Model
PSTATSECTION	LABEL	IFC5000-01520	Pstat Section
PSTATSERIALNO	LABEL	01520	Pstat Serial Number
CTRLMODE	IQUANT	0	Control Mode
ELECTROMETER	IQUANT	1	RE=0 or CS=1
IESTAB	IQUANT	0	I/E Stability
CASPEED	IQUANT	4	Control Amp Speed
CONVENTION	IQUANT	1	Current Convention
ICHRANGE	IQUANT	2	Ich Range
ICHRANGEMODE	TOGGLE	T	Ich Auto Range
ICHOFFSETENABLE	TOGGLE	F	Ich Offset Enable
ICHOFFSET	QUANT	0	Ich Offset (V)
ICHFILTER	IQUANT	1	Ich Filter
VCHRANGE	IQUANT	2	Vch Range
VCHRANGEMODE	TOGGLE	T	Vch Auto Range
VCHOFFSETENABLE	TOGGLE	F	Vch Offset Enable
VCHOFFSET	QUANT	0	Vch Offset (V)
VCHFILTER	IQUANT	1	Vch Filter
IERANGELOWERLIMIT	IQUANT	9	I/E Range Lower Limit
IERANGEMODE	TOGGLE	F	I/E AutoRange
IERANGE	IQUANT	9	I/E Range
ACHSELECT	IQUANT	1	Ach Select
ACHRANGE	IQUANT	2	Ach Range
ACHOFFSETENABLE	TOGGLE	F	Ach Offset Enable
ACHOFFSET	QUANT	0	Ach Offset (V)
ACHFILTER	IQUANT	1	Ach Filter
CABLEID	IQUANT	14	Cable ID
DCCALDATE	LABEL	5-7-2017	DC Calibration Date
ACCALDATE	LABEL	12/3/2015	AC Calibration Date
FRAMEWORKVERSION	QUANT	7.01	Framework Version
INSTRUMENTVERSION	LABEL	4.00	Instrument Version
CURVE	TABLE	183
	Pt	T	Vf	Im	Vu	Pwr	Sig	Ach	Temp	IERange	Over
	#	s	V	A	V	W	V	V	deg C	#	bits
	0	0.013333	2.90824E-001	9.09960E-005	0.00000E+000	2.64638E-005	5.39641E-002	2.90869E-001	3.57210E+000	9	...........
	1	0.026667	3.09984E-001	9.09689E-005	0.00000E+000	2.81989E-005	5.39641E-002	3.10016E-001	3.57210E+000	9	...........
	2	0.04	3.27666E-001	9.11418E-005	0.00000E+000	2.98641E-005	5.39641E-002	3.27702E-001	3.57210E+000	9	...........
	3	0.053333	3.44143E-001	9.09241E-005	0.00000E+000	3.12909E-005	5.39641E-002	3.44180E-001	3.57210E+000	9	...........
	4	0.066667	3.59604E-001	9.10335E-005	0.00000E+000	3.27360E-005	5.39641E-002	3.59645E-001	3.57210E+000	9	...........
	5	0.08	3.74181E-001	9.11179E-005	0.00000E+000	3.40946E-005	5.39641E-002	3.74218E-001	3.57210E+000	9	...........
	6	0.093333	3.87997E-001	9.09199E-005	0.00000E+000	3.52767E-005	5.39641E-002	3.88039E-001	3.57210E+000	9	...........
	7	0.106667	4.01136E-001	9.09230E-005	0.00000E+000	3.64725E-005	5.39641E-002	4.01179E-001	3.57258E+000	9	...........
	8	0.12	4.13654E-001	9.10178E-005	0.00000E+000	3.76499E-005	5.39641E-002	4.13698E-001	3.57270E+000	9	...........
	9	0.133333	4.25626E-001	9.11845E-005	0.00000E+000	3.88105E-005	5.39641E-002	4.25672E-001	3.57270E+000	9	...........
	10	0.146667	4.37104E-001	9.09324E-005	0.00000E+000	3.97469E-005	5.39641E-002	4.37155E-001	3.57270E+000	9	...........
	11	0.16	4.48142E-001	9.11522E-005	0.00000E+000	4.08492E-005	5.39641E-002	4.48187E-001	3.57270E+000	9	...........
	12	0.173333	4.58771E-001	9.11231E-005	0.00000E+000	4.18046E-005	5.39641E-002	4.58822E-001	3.57270E+000	9	...........
	13	0.186667	4.69012E-001	9.10356E-005	0.00000E+000	4.26968E-005	5.39641E-002	4.69061E-001	3.57270E+000	9	...........
	14	0.2	4.78897E-001	9.11127E-005	0.00000E+000	4.36336E-005	5.39641E-002	4.78948E-001	3.57270E+000	9	...........
	15	0.213333	4.88432E-001	9.12585E-005	0.00000E+000	4.45736E-005	5.39641E-002	4.88489E-001	3.57270E+000	9	...........
	16	0.226667	4.97680E-001	9.11335E-005	0.00000E+000	4.53553E-005	5.39641E-002	4.97740E-001	3.57270E+000	9	...........
	17	0.24	5.06644E-001	9.09303E-005	0.00000E+000	4.60693E-005	5.39641E-002	5.06704E-001	3.57270E+000	9	...........
	18	0.253333	5.15328E-001	9.12335E-005	0.00000E+000	4.70152E-005	5.39641E-002	5.15386E-001	3.57270E+000	9	...........
	19	0.266667	5.23758E-001	9.11210E-005	0.00000E+000	4.77253E-005	5.39641E-002	5.23820E-001	3.57270E+000	9	...........
	20	0.28	5.31933E-001	9.13023E-005	0.00000E+000	4.85667E-005	5.39641E-002	5.32004E-001	3.57270E+000	9	...........
	21	0.293333	5.39857E-001	9.12429E-005	0.00000E+000	4.92581E-005	5.39641E-002	5.39946E-001	3.57270E+000	9	...........
	22	0.306667	5.47600E-001	9.11793E-005	0.00000E+000	4.99298E-005	5.39641E-002	5.47712E-001	3.57270E+000	9	...........
	23	0.32	5.55140E-001	9.09897E-005	0.00000E+000	5.05121E-005	5.39641E-002	5.55252E-001	3.57270E+000	9	...........
	24	0.333333	5.62523E-001	9.11512E-005	0.00000E+000	5.12747E-005	5.39641E-002	5.62644E-001	3.57270E+000	9	...........
	25	0.346667	5.69711E-001	9.09605E-005	0.00000E+000	5.18212E-005	5.39641E-002	5.69815E-001	3.57270E+000	9	...........
	26	0.36	5.76708E-001	9.11741E-005	0.00000E+000	5.25809E-005	5.39641E-002	5.76810E-001	3.57270E+000	9	...........
	27	0.373333	5.83547E-001	9.12294E-005	0.00000E+000	5.32366E-005	5.39641E-002	5.83656E-001	3.57270E+000	9	...........
	28	0.386667	5.90240E-001	9.10762E-005	0.00000E+000	5.37568E-005	5.39641E-002	5.90365E-001	3.57270E+000	9	...........
	29	0.4	5.96779E-001	9.11491E-005	0.00000E+000	5.43959E-005	5.39641E-002	5.96866E-001	3.57270E+000	9	...........
	30	0.413333	6.03151E-001	9.11481E-005	0.00000E+000	5.49760E-005	5.39641E-002	6.03256E-001	3.57270E+000	9	...........
	31	0.426667	6.09365E-001	9.10418E-005	0.00000E+000	5.54777E-005	5.39641E-002	6.09460E-001	3.57270E+000	9	...........
	32	0.44	6.15503E-001	9.10022E-005	0.00000E+000	5.60121E-005	5.39641E-002	6.15596E-001	3.57270E+000	9	...........
	33	0.453333	6.21496E-001	9.10033E-005	0.00000E+000	5.65582E-005	5.39641E-002	6.21551E-001	3.57270E+000	9	...........
	34	0.466667	6.27317E-001	9.10033E-005	0.00000E+000	5.70879E-005	5.39641E-002	6.27393E-001	3.57270E+000	9	...........
	35	0.48	6.33023E-001	9.11616E-005	0.00000E+000	5.77074E-005	5.39641E-002	6.33122E-001	3.57270E+000	9	...........
	36	0.493333	6.38654E-001	9.12356E-005	0.00000E+000	5.82680E-005	5.39641E-002	6.38756E-001	3.57270E+000	9	...........
	37	0.506667	6.44186E-001	9.09616E-005	0.00000E+000	5.85962E-005	5.39641E-002	6.44298E-001	3.57270E+000	9	...........
	38	0.52	6.49579E-001	9.10501E-005	0.00000E+000	5.91443E-005	5.39641E-002	6.49701E-001	3.57270E+000	9	...........
	39	0.533333	6.54888E-001	9.11637E-005	0.00000E+000	5.97021E-005	5.39641E-002	6.55006E-001	3.57270E+000	9	...........
	40	0.546667	6.60082E-001	9.10699E-005	0.00000E+000	6.01136E-005	5.39641E-002	6.60213E-001	3.57270E+000	9	...........
	41	0.56	6.65221E-001	9.07813E-005	0.00000E+000	6.03897E-005	5.39641E-002	6.65349E-001	3.57270E+000	9	...........
	42	0.573333	6.70275E-001	9.10897E-005	0.00000E+000	6.10552E-005	5.39641E-002	6.70374E-001	3.57270E+000	9	...........
	43	0.586667	6.75186E-001	9.10553E-005	0.00000E+000	6.14793E-005	5.39641E-002	6.75293E-001	3.57270E+000	9	...........
	44	0.6	6.80027E-001	9.12429E-005	0.00000E+000	6.20476E-005	5.39641E-002	6.80143E-001	3.57270E+000	9	...........
	45	0.613333	6.84737E-001	9.12346E-005	0.00000E+000	6.24717E-005	5.39641E-002	6.84862E-001	3.57270E+000	9	...........
	46	0.626667	6.89410E-001	9.09345E-005	0.00000E+000	6.26911E-005	5.39641E-002	6.89537E-001	3.57270E+000	9	...........
	47	0.64	6.94015E-001	9.11022E-005	0.00000E+000	6.32264E-005	5.39641E-002	6.94113E-001	3.57270E+000	9	...........
	48	0.653333	6.98502E-001	9.10272E-005	0.00000E+000	6.35827E-005	5.39641E-002	6.98624E-001	3.57270E+000	9	...........
	49	0.666667	7.02944E-001	9.12616E-005	0.00000E+000	6.41518E-005	5.39641E-002	7.03057E-001	3.57270E+000	9	...........
	50	0.68	7.07299E-001	9.12491E-005	0.00000E+000	6.45404E-005	5.39641E-002	7.07433E-001	3.57270E+000	9	...........
	51	0.693333	7.11581E-001	9.10303E-005	0.00000E+000	6.47754E-005	5.39641E-002	7.11708E-001	3.57270E+000	9	...........
	52	0.706667	7.15818E-001	9.08897E-005	0.00000E+000	6.50605E-005	5.39641E-002	7.15950E-001	3.57270E+000	9	...........
	53	0.72	7.20034E-001	9.11408E-005	0.00000E+000	6.56244E-005	5.39641E-002	7.20128E-001	3.57270E+000	9	...........
	54	0.733333	7.24129E-001	9.14169E-005	0.00000E+000	6.61976E-005	5.39641E-002	7.24223E-001	3.57270E+000	9	...........
	55	0.746667	7.28184E-001	9.10720E-005	0.00000E+000	6.63172E-005	5.39641E-002	7.28268E-001	3.57270E+000	9	...........
	56	0.76	7.32153E-001	9.11095E-005	0.00000E+000	6.67061E-005	5.39641E-002	7.32263E-001	3.57270E+000	9	...........
	57	0.773333	7.36027E-001	9.11116E-005	0.00000E+000	6.70606E-005	5.39641E-002	7.36144E-001	3.57270E+000	9	...........
	58	0.786667	7.39894E-001	9.07938E-005	0.00000E+000	6.71778E-005	5.39641E-002	7.39990E-001	3.57270E+000	9	...........
	59	0.8	7.43694E-001	9.10689E-005	0.00000E+000	6.77274E-005	5.39641E-002	7.43803E-001	3.57270E+000	9	...........
	60	0.813333	7.47461E-001	9.10231E-005	0.00000E+000	6.80362E-005	5.39641E-002	7.47554E-001	3.57270E+000	9	...........
	61	0.826667	7.51149E-001	9.11627E-005	0.00000E+000	6.84768E-005	5.39641E-002	7.51255E-001	3.57270E+000	9	...........
	62	0.84	7.54814E-001	9.11064E-005	0.00000E+000	6.87684E-005	5.39641E-002	7.54924E-001	3.57270E+000	9	...........
	63	0.853333	7.58417E-001	9.12356E-005	0.00000E+000	6.91946E-005	5.39641E-002	7.58526E-001	3.57270E+000	9	...........
	64	0.866667	7.61968E-001	9.11908E-005	0.00000E+000	6.94845E-005	5.39641E-002	7.62065E-001	3.57270E+000	9	...........
	65	0.88	7.65488E-001	9.09491E-005	0.00000E+000	6.96204E-005	5.39641E-002	7.65577E-001	3.57270E+000	9	...........
	66	0.893333	7.69003E-001	9.10085E-005	0.00000E+000	6.99858E-005	5.39641E-002	7.69081E-001	3.57270E+000	9	...........
	67	0.906667	7.72411E-001	9.09043E-005	0.00000E+000	7.02154E-005	5.39641E-002	7.72531E-001	3.57270E+000	9	...........
	68	0.92	7.75811E-001	9.14367E-005	0.00000E+000	7.09376E-005	5.39641E-002	7.75902E-001	3.57270E+000	9	...........
	69	0.933333	7.79146E-001	9.12533E-005	0.00000E+000	7.10996E-005	5.39641E-002	7.79251E-001	3.57270E+000	9	...........
	70	0.946667	7.82459E-001	9.11043E-005	0.00000E+000	7.12854E-005	5.39641E-002	7.82554E-001	3.57270E+000	9	...........
	71	0.96	7.85718E-001	9.11450E-005	0.00000E+000	7.16142E-005	5.39641E-002	7.85774E-001	3.57270E+000	9	...........
	72	0.97333	7.88922E-001	9.08689E-005	0.00000E+000	7.16884E-005	5.39641E-002	7.89002E-001	3.57270E+000	9	...........
	73	0.98667	7.92104E-001	9.12752E-005	0.00000E+000	7.22995E-005	5.39641E-002	7.92172E-001	3.57270E+000	9	...........
	74	1	7.95290E-001	9.10689E-005	0.00000E+000	7.24262E-005	5.39641E-002	7.95337E-001	3.57270E+000	9	...........
	75	1.01333	7.98373E-001	9.11137E-005	0.00000E+000	7.27427E-005	5.39641E-002	7.98442E-001	3.57270E+000	9	...........
	76	1.02667	8.01441E-001	9.10731E-005	0.00000E+000	7.29897E-005	5.39641E-002	8.01518E-001	3.57270E+000	9	...........
	77	1.04	8.04479E-001	9.10876E-005	0.00000E+000	7.32781E-005	5.39641E-002	8.04550E-001	3.57270E+000	9	...........
	78	1.05333	8.07454E-001	9.11158E-005	0.00000E+000	7.35718E-005	5.39641E-002	8.07562E-001	3.57270E+000	9	...........
	79	1.06667	8.10407E-001	9.12356E-005	0.00000E+000	7.39380E-005	5.39641E-002	8.10528E-001	3.57270E+000	9	...........
	80	1.08	8.13347E-001	9.11595E-005	0.00000E+000	7.41443E-005	5.39641E-002	8.13458E-001	3.57270E+000	9	...........
	81	1.09333	8.16223E-001	9.09793E-005	0.00000E+000	7.42594E-005	5.39641E-002	8.16382E-001	3.57270E+000	9	...........
	82	1.10667	8.19118E-001	9.08678E-005	0.00000E+000	7.44315E-005	5.39641E-002	8.19255E-001	3.57222E+000	9	...........
	83	1.12	8.21940E-001	9.12804E-005	0.00000E+000	7.50270E-005	5.39641E-002	8.22097E-001	3.57210E+000	9	...........
	84	1.13333	8.24746E-001	9.13054E-005	0.00000E+000	7.53038E-005	5.39641E-002	8.24902E-001	3.57210E+000	9	...........
	85	1.14667	8.27505E-001	9.10251E-005	0.00000E+000	7.53237E-005	5.39641E-002	8.27641E-001	3.57210E+000	9	...........
	86	1.16	8.30243E-001	9.13044E-005	0.00000E+000	7.58048E-005	5.39641E-002	8.30395E-001	3.57210E+000	9	...........
	87	1.17333	8.32928E-001	9.10929E-005	0.00000E+000	7.58738E-005	5.39641E-002	8.33116E-001	3.57210E+000	9	...........
	88	1.18667	8.35631E-001	9.12002E-005	0.00000E+000	7.62097E-005	5.39641E-002	8.35776E-001	3.57210E+000	9	...........
	89	1.2	8.38299E-001	9.12481E-005	0.00000E+000	7.64932E-005	5.39641E-002	8.38451E-001	3.57210E+000	9	...........
	90	1.21333	8.40942E-001	9.09439E-005	0.00000E+000	7.64785E-005	5.39641E-002	8.41073E-001	3.57210E+000	9	...........
	91	1.22667	8.43562E-001	9.10241E-005	0.00000E+000	7.67845E-005	5.39641E-002	8.43698E-001	3.57210E+000	9	...........
	92	1.24	8.46194E-001	9.09585E-005	0.00000E+000	7.69685E-005	5.39641E-002	8.46318E-001	3.57210E+000	9	...........
	93	1.25333	8.48741E-001	9.15659E-005	0.00000E+000	7.77157E-005	5.39641E-002	8.48888E-001	3.57210E+000	9	...........
	94	1.26667	8.51270E-001	9.09845E-005	0.00000E+000	7.74524E-005	5.39641E-002	8.51409E-001	3.57210E+000	9	...........
	95	1.28	8.53774E-001	9.11481E-005	0.00000E+000	7.78199E-005	5.39641E-002	8.53934E-001	3.57210E+000	9	...........
	96	1.29333	8.56228E-001	9.11095E-005	0.00000E+000	7.80105E-005	5.39641E-002	8.56412E-001	3.57210E+000	9	...........
	97	1.30667	8.58699E-001	9.10095E-005	0.00000E+000	7.81498E-005	5.39641E-002	8.58872E-001	3.57210E+000	9	...........
	98	1.32	8.61168E-001	9.11991E-005	0.00000E+000	7.85378E-005	5.39641E-002	8.61326E-001	3.57210E+000	9	...........
	99	1.33333	8.63566E-001	9.10053E-005	0.00000E+000	7.85891E-005	5.39641E-002	8.63736E-001	3.57210E+000	9	...........
	100	1.34667	8.65950E-001	9.13179E-005	0.00000E+000	7.90768E-005	5.39641E-002	8.66108E-001	3.57210E+000	9	...........
	101	1.36	8.68282E-001	9.13450E-005	0.00000E+000	7.93132E-005	5.39641E-002	8.68469E-001	3.57210E+000	9	...........
	102	1.37333	8.70659E-001	9.13638E-005	0.00000E+000	7.95467E-005	5.39641E-002	8.70826E-001	3.57210E+000	9	...........
	103	1.38667	8.72952E-001	9.13054E-005	0.00000E+000	7.97052E-005	5.39641E-002	8.73126E-001	3.57210E+000	9	...........
	104	1.4	8.75235E-001	9.11304E-005	0.00000E+000	7.97605E-005	5.39641E-002	8.75388E-001	3.57210E+000	9	...........
	105	1.41333	8.77476E-001	9.12304E-005	0.00000E+000	8.00525E-005	5.39641E-002	8.77639E-001	3.57210E+000	9	...........
	106	1.42667	8.79705E-001	9.10210E-005	0.00000E+000	8.00716E-005	5.39641E-002	8.79881E-001	3.57210E+000	9	...........
	107	1.44	8.81932E-001	9.10241E-005	0.00000E+000	8.02771E-005	5.39641E-002	8.82118E-001	3.57210E+000	9	...........
	108	1.45333	8.84142E-001	9.10408E-005	0.00000E+000	8.04930E-005	5.39641E-002	8.84301E-001	3.57210E+000	9	...........
	109	1.46667	8.86310E-001	9.12669E-005	0.00000E+000	8.08907E-005	5.39641E-002	8.86463E-001	3.57210E+000	9	...........
	110	1.48	8.88444E-001	9.09647E-005	0.00000E+000	8.08170E-005	5.39641E-002	8.88618E-001	3.57210E+000	9	...........
	111	1.49333	8.90574E-001	9.13950E-005	0.00000E+000	8.13940E-005	5.39641E-002	8.90722E-001	3.57210E+000	9	...........
	112	1.50667	8.92671E-001	9.10012E-005	0.00000E+000	8.12341E-005	5.39641E-002	8.92807E-001	3.57210E+000	9	...........
	113	1.52	8.94750E-001	9.09397E-005	0.00000E+000	8.13683E-005	5.39641E-002	8.94905E-001	3.57210E+000	9	...........
	114	1.53333	8.96822E-001	9.08543E-005	0.00000E+000	8.14801E-005	5.39641E-002	8.96983E-001	3.57210E+000	9	...........
	115	1.54667	8.98866E-001	9.11637E-005	0.00000E+000	8.19440E-005	5.39641E-002	8.99015E-001	3.57210E+000	9	...........
	116	1.56	9.00881E-001	9.13460E-005	0.00000E+000	8.22919E-005	5.39641E-002	9.01053E-001	3.57210E+000	9	...........
	117	1.57333	9.02898E-001	9.11668E-005	0.00000E+000	8.23143E-005	5.39641E-002	9.03044E-001	3.57210E+000	9	...........
	118	1.58667	9.04860E-001	9.09897E-005	0.00000E+000	8.23329E-005	5.39641E-002	9.05032E-001	3.57210E+000	9	...........
	119	1.6	9.06808E-001	9.11002E-005	0.00000E+000	8.26103E-005	5.39641E-002	9.07007E-001	3.57210E+000	9	...........
	120	1.61333	9.08806E-001	9.12325E-005	0.00000E+000	8.29126E-005	5.39641E-002	9.08975E-001	3.57210E+000	9	...........
	121	1.62667	9.10716E-001	9.09960E-005	0.00000E+000	8.28714E-005	5.39641E-002	9.10875E-001	3.57210E+000	9	...........
	122	1.64	9.12594E-001	9.08845E-005	0.00000E+000	8.29406E-005	5.39641E-002	9.12769E-001	3.57210E+000	9	...........
	123	1.65333	9.14512E-001	9.12554E-005	0.00000E+000	8.34541E-005	5.39641E-002	9.14672E-001	3.57210E+000	9	...........
	124	1.66667	9.16401E-001	9.08220E-005	0.00000E+000	8.32294E-005	5.39641E-002	9.16538E-001	3.57210E+000	9	...........
	125	1.68	9.18255E-001	9.13096E-005	0.00000E+000	8.38454E-005	5.39641E-002	9.18398E-001	3.57210E+000	9	...........
	126	1.69333	9.20119E-001	9.10241E-005	0.00000E+000	8.37530E-005	5.39641E-002	9.20258E-001	3.57210E+000	9	...........
	127	1.70667	9.22001E-001	9.12564E-005	0.00000E+000	8.41385E-005	5.39641E-002	9.22115E-001	3.57210E+000	9	...........
	128	1.72	9.23817E-001	9.09595E-005	0.00000E+000	8.40299E-005	5.39641E-002	9.23940E-001	3.57210E+000	9	...........
	129	1.73333	9.25595E-001	9.10043E-005	0.00000E+000	8.42331E-005	5.39641E-002	9.25714E-001	3.57210E+000	9	...........
	130	1.74667	9.27352E-001	9.11648E-005	0.00000E+000	8.45418E-005	5.39641E-002	9.27509E-001	3.57210E+000	9	...........
	131	1.76	9.29121E-001	9.10283E-005	0.00000E+000	8.45763E-005	5.39641E-002	9.29249E-001	3.57210E+000	9	...........
	132	1.77333	9.30857E-001	9.09866E-005	0.00000E+000	8.46955E-005	5.39641E-002	9.31018E-001	3.57210E+000	9	...........
	133	1.78667	9.32570E-001	9.10293E-005	0.00000E+000	8.48912E-005	5.39641E-002	9.32738E-001	3.57210E+000	9	...........
	134	1.8	9.34284E-001	9.11439E-005	0.00000E+000	8.51543E-005	5.39641E-002	9.34482E-001	3.57210E+000	9	...........
	135	1.81333	9.35959E-001	9.11689E-005	0.00000E+000	8.53303E-005	5.39641E-002	9.36148E-001	3.57210E+000	9	...........
	136	1.82667	9.37633E-001	9.09626E-005	0.00000E+000	8.52896E-005	5.39641E-002	9.37827E-001	3.57210E+000	9	...........
	137	1.84	9.39271E-001	9.09626E-005	0.00000E+000	8.54386E-005	5.39641E-002	9.39486E-001	3.57210E+000	9	...........
	138	1.85333	9.40950E-001	9.09762E-005	0.00000E+000	8.56041E-005	5.39641E-002	9.41130E-001	3.57210E+000	9	...........
	139	1.86667	9.42590E-001	9.10501E-005	0.00000E+000	8.58229E-005	5.39641E-002	9.42755E-001	3.57210E+000	9	...........
	140	1.88	9.44173E-001	9.12742E-005	0.00000E+000	8.61786E-005	5.39641E-002	9.44370E-001	3.57210E+000	9	...........
	141	1.89333	9.45777E-001	9.10699E-005	0.00000E+000	8.61319E-005	5.39641E-002	9.45998E-001	3.57210E+000	9	...........
	142	1.90667	9.47410E-001	9.09470E-005	0.00000E+000	8.61641E-005	5.39641E-002	9.47570E-001	3.57210E+000	9	...........
	143	1.92	9.48973E-001	9.16013E-005	0.00000E+000	8.69272E-005	5.39641E-002	9.49153E-001	3.57210E+000	9	...........
	144	1.93333	9.50539E-001	9.10335E-005	0.00000E+000	8.65309E-005	5.39641E-002	9.50716E-001	3.57210E+000	9	...........
	145	1.94667	9.52080E-001	9.11512E-005	0.00000E+000	8.67832E-005	5.39641E-002	9.52251E-001	3.57210E+000	9	...........
	146	1.96	9.53615E-001	9.09366E-005	0.00000E+000	8.67185E-005	5.39641E-002	9.53771E-001	3.57210E+000	9	...........
	147	1.97333	9.55123E-001	9.09949E-005	0.00000E+000	8.69114E-005	5.39641E-002	9.55275E-001	3.57210E+000	9	...........
	148	1.98667	9.56611E-001	9.12554E-005	0.00000E+000	8.72959E-005	5.39641E-002	9.56763E-001	3.57210E+000	9	...........
	149	2	9.58094E-001	9.12564E-005	0.00000E+000	8.74323E-005	5.39641E-002	9.58256E-001	3.57210E+000	9	...........
	150	2.01333	9.59577E-001	9.10137E-005	0.00000E+000	8.73347E-005	5.39641E-002	9.59720E-001	3.57210E+000	9	...........
	151	2.02667	9.61043E-001	9.09835E-005	0.00000E+000	8.74390E-005	5.39641E-002	9.61175E-001	3.57210E+000	9	...........
	152	2.04	9.62478E-001	9.11648E-005	0.00000E+000	8.77441E-005	5.39641E-002	9.62641E-001	3.57210E+000	9	...........
	153	2.05333	9.63893E-001	9.11210E-005	0.00000E+000	8.78309E-005	5.39641E-002	9.64081E-001	3.57210E+000	9	...........
	154	2.06667	9.65318E-001	9.14086E-005	0.00000E+000	8.82383E-005	5.39641E-002	9.65486E-001	3.57210E+000	9	...........
	155	2.08	9.66719E-001	9.08959E-005	0.00000E+000	8.78708E-005	5.39641E-002	9.66880E-001	3.57210E+000	9	...........
	156	2.09333	9.68084E-001	9.10929E-005	0.00000E+000	8.81856E-005	5.39641E-002	9.68251E-001	3.57210E+000	9	...........
	157	2.10667	9.69444E-001	9.13148E-005	0.00000E+000	8.85245E-005	5.39641E-002	9.69624E-001	3.57210E+000	9	...........
	158	2.12	9.70806E-001	9.10783E-005	0.00000E+000	8.84194E-005	5.39641E-002	9.71015E-001	3.57210E+000	9	...........
	159	2.13333	9.72152E-001	9.09637E-005	0.00000E+000	8.84305E-005	5.39641E-002	9.72340E-001	3.57210E+000	9	...........
	160	2.14667	9.73525E-001	9.11752E-005	0.00000E+000	8.87613E-005	5.39641E-002	9.73676E-001	3.57210E+000	9	...........
	161	2.16	9.74845E-001	9.10720E-005	0.00000E+000	8.87812E-005	5.39641E-002	9.74989E-001	3.57210E+000	9	...........
	162	2.17333	9.76145E-001	9.11314E-005	0.00000E+000	8.89575E-005	5.39641E-002	9.76301E-001	3.57210E+000	9	...........
	163	2.18667	9.77434E-001	9.10543E-005	0.00000E+000	8.89996E-005	5.39641E-002	9.77609E-001	3.57210E+000	9	...........
	164	2.2	9.78692E-001	9.10210E-005	0.00000E+000	8.90815E-005	5.39641E-002	9.78860E-001	3.57210E+000	9	...........
	165	2.21333	9.79971E-001	9.12283E-005	0.00000E+000	8.94011E-005	5.39641E-002	9.80126E-001	3.57210E+000	9	...........
	166	2.22667	9.81207E-001	9.11377E-005	0.00000E+000	8.94249E-005	5.39641E-002	9.81399E-001	3.57210E+000	9	...........
	167	2.24	9.82455E-001	9.08480E-005	0.00000E+000	8.92540E-005	5.39641E-002	9.82644E-001	3.57210E+000	9	...........
	168	2.25333	9.83702E-001	9.12127E-005	0.00000E+000	8.97261E-005	5.39641E-002	9.83865E-001	3.57210E+000	9	...........
	169	2.26667	9.84924E-001	9.11918E-005	0.00000E+000	8.98170E-005	5.39641E-002	9.85095E-001	3.57210E+000	9	...........
	170	2.28	9.86146E-001	9.11512E-005	0.00000E+000	8.98884E-005	5.39641E-002	9.86356E-001	3.57210E+000	9	...........
	171	2.29333	9.87340E-001	9.11137E-005	0.00000E+000	8.99602E-005	5.39641E-002	9.87541E-001	3.57210E+000	9	...........
	172	2.30667	9.88584E-001	9.11116E-005	0.00000E+000	9.00715E-005	5.39641E-002	9.88772E-001	3.57210E+000	9	...........
	173	2.32	9.89740E-001	9.12887E-005	0.00000E+000	9.03521E-005	5.39641E-002	9.89931E-001	3.57210E+000	9	...........
	174	2.33333	9.90919E-001	9.10731E-005	0.00000E+000	9.02460E-005	5.39641E-002	9.91087E-001	3.57210E+000	9	...........
	175	2.34667	9.92066E-001	9.09845E-005	0.00000E+000	9.02626E-005	5.39641E-002	9.92232E-001	3.57210E+000	9	...........
	176	2.36	9.93214E-001	9.08928E-005	0.00000E+000	9.02760E-005	5.39641E-002	9.93394E-001	3.57210E+000	9	...........
	177	2.37333	9.94349E-001	9.09824E-005	0.00000E+000	9.04683E-005	5.39641E-002	9.94554E-001	3.57210E+000	9	...........
	178	2.38667	9.95492E-001	9.10564E-005	0.00000E+000	9.06459E-005	5.39641E-002	9.95676E-001	3.57210E+000	9	...........
	179	2.4	9.96594E-001	9.10595E-005	0.00000E+000	9.07493E-005	5.39641E-002	9.96809E-001	3.57210E+000	9	...........
	180	2.41333	9.97738E-001	9.08814E-005	0.00000E+000	9.06758E-005	5.39641E-002	9.97939E-001	3.57210E+000	9	...........
	181	2.42667	9.98838E-001	9.12158E-005	0.00000E+000	9.11098E-005	5.39641E-002	9.99052E-001	3.57210E+000	9	...........
	182	2.43667	9.99804E-001	9.12807E-005	0.00000E+000	9.12629E-005	5.39641E-002	1.00001E+000	3.57210E+000	9	...........
STARTTIMEOFFSET	QUANT	720.7433	Start Time Offset (s)
