EXPLAIN
TAG	PWR800_CHARGE
TITLE	LABEL	PWR Cyclic Charge Discharge (Cell) - Charge Step	Test &Identifier
DATE	LABEL	10-7-2017	Date
TIME	LABEL	15:58:39	Time
NOTES	NOTES	3	&Notes...
	supercap test cell
	0.9mg
	6M KOH
PSTAT	PSTAT	IFC5000-01520	Potentiostat
CAPACITY	QUANT	1.00000E-003	Capacity (A-hr)
CELLTYPE	SELECTOR	1	&Cell Type
WORKINGCONNECTION	SELECTOR	0	&Working Lead
MAXCHARGETIME	VARIABLEANDUNITS	1.00000E+002	s	1.00000E+002	second(s)	Max &Charge Time
CHARGECURRENT	QUANT	9.00000E-005	&Charge Current (A) 
VOLTAGEFINISH	TWOPARAM	F	1.00000E-003	3.60000E+003	&Voltage Finish	 I (A) < 	Max Time(s)
SAMPLETIME	QUANT	1.00000E-002	Sa&mple Period (s)
CHARGESTOPAT1	MULTIPARAM	4	1.00000E+000	Charge Stop At &1	Voltage > Limit	V
CHARGESTOPAT2	MULTIPARAM	0	0.00000E+000	Charge Stop At &2	None	N/A
AESBHCSELECTOR	TOGGLE	F	Save Both Half Cells
IRCOMP	TOGGLE	F	IR &Measure
EOC	QUANT	0	Open Circuit (V)
SEQUENCER	TOGGLE	TRUE	Run as Sequence
PSTATMODEL	IQUANT	53	Pstat Model
PSTATSECTION	LABEL	IFC5000-01520	Pstat Section
PSTATSERIALNO	LABEL	01520	Pstat Serial Number
CTRLMODE	IQUANT	0	Control Mode
ELECTROMETER	IQUANT	1	RE=0 or CS=1
IESTAB	IQUANT	0	I/E Stability
CASPEED	IQUANT	4	Control Amp Speed
CONVENTION	IQUANT	1	Current Convention
ICHRANGE	IQUANT	2	Ich Range
ICHRANGEMODE	TOGGLE	T	Ich Auto Range
ICHOFFSETENABLE	TOGGLE	F	Ich Offset Enable
ICHOFFSET	QUANT	0	Ich Offset (V)
ICHFILTER	IQUANT	1	Ich Filter
VCHRANGE	IQUANT	2	Vch Range
VCHRANGEMODE	TOGGLE	T	Vch Auto Range
VCHOFFSETENABLE	TOGGLE	F	Vch Offset Enable
VCHOFFSET	QUANT	0	Vch Offset (V)
VCHFILTER	IQUANT	1	Vch Filter
IERANGELOWERLIMIT	IQUANT	9	I/E Range Lower Limit
IERANGEMODE	TOGGLE	F	I/E AutoRange
IERANGE	IQUANT	9	I/E Range
ACHSELECT	IQUANT	1	Ach Select
ACHRANGE	IQUANT	2	Ach Range
ACHOFFSETENABLE	TOGGLE	F	Ach Offset Enable
ACHOFFSET	QUANT	0	Ach Offset (V)
ACHFILTER	IQUANT	1	Ach Filter
CABLEID	IQUANT	14	Cable ID
DCCALDATE	LABEL	5-7-2017	DC Calibration Date
ACCALDATE	LABEL	12/3/2015	AC Calibration Date
FRAMEWORKVERSION	QUANT	7.01	Framework Version
INSTRUMENTVERSION	LABEL	4.00	Instrument Version
CURVE	TABLE	165
	Pt	T	Vf	Im	Vu	Pwr	Sig	Ach	Temp	IERange	Over
	#	s	V	A	V	W	V	V	deg C	#	bits
	0	0.013333	2.68295E-001	9.09574E-005	0.00000E+000	2.44034E-005	5.39641E-002	2.68337E-001	3.57260E+000	9	...........
	1	0.026667	2.88039E-001	9.09272E-005	0.00000E+000	2.61906E-005	5.39641E-002	2.88076E-001	3.57267E+000	9	...........
	2	0.04	3.06532E-001	9.11575E-005	0.00000E+000	2.79427E-005	5.39641E-002	3.06575E-001	3.57290E+000	9	...........
	3	0.053333	3.23943E-001	9.11189E-005	0.00000E+000	2.95173E-005	5.39641E-002	3.23983E-001	3.57290E+000	9	...........
	4	0.066667	3.40400E-001	9.09762E-005	0.00000E+000	3.09683E-005	5.39641E-002	3.40443E-001	3.57290E+000	9	...........
	5	0.08	3.56003E-001	9.08022E-005	0.00000E+000	3.23259E-005	5.39641E-002	3.56050E-001	3.57290E+000	9	...........
	6	0.093333	3.70839E-001	9.12002E-005	0.00000E+000	3.38206E-005	5.39641E-002	3.70887E-001	3.57290E+000	9	...........
	7	0.106667	3.84970E-001	9.10116E-005	0.00000E+000	3.50368E-005	5.39641E-002	3.85020E-001	3.57290E+000	9	...........
	8	0.12	3.98450E-001	9.10168E-005	0.00000E+000	3.62656E-005	5.39641E-002	3.98503E-001	3.57290E+000	9	...........
	9	0.133333	4.11334E-001	9.09335E-005	0.00000E+000	3.74040E-005	5.39641E-002	4.11388E-001	3.57290E+000	9	...........
	10	0.146667	4.23672E-001	9.11106E-005	0.00000E+000	3.86010E-005	5.39641E-002	4.23737E-001	3.57290E+000	9	...........
	11	0.16	4.35525E-001	9.08407E-005	0.00000E+000	3.95634E-005	5.39641E-002	4.35585E-001	3.57290E+000	9	...........
	12	0.173333	4.46909E-001	9.08345E-005	0.00000E+000	4.05948E-005	5.39641E-002	4.46972E-001	3.57290E+000	9	...........
	13	0.186667	4.57873E-001	9.10679E-005	0.00000E+000	4.16975E-005	5.39641E-002	4.57938E-001	3.57290E+000	9	...........
	14	0.2	4.68441E-001	9.08032E-005	0.00000E+000	4.25360E-005	5.39641E-002	4.68505E-001	3.57290E+000	9	...........
	15	0.213333	4.78632E-001	9.08762E-005	0.00000E+000	4.34962E-005	5.39641E-002	4.78695E-001	3.57290E+000	9	...........
	16	0.226667	4.88472E-001	9.10762E-005	0.00000E+000	4.44881E-005	5.39641E-002	4.88536E-001	3.57290E+000	9	...........
	17	0.24	4.97987E-001	9.11022E-005	0.00000E+000	4.53678E-005	5.39641E-002	4.98057E-001	3.57290E+000	9	...........
	18	0.253333	5.07193E-001	9.14200E-005	0.00000E+000	4.63676E-005	5.39641E-002	5.07263E-001	3.57290E+000	9	...........
	19	0.266667	5.16091E-001	9.09043E-005	0.00000E+000	4.69149E-005	5.39641E-002	5.16164E-001	3.57290E+000	9	...........
	20	0.28	5.24727E-001	9.08376E-005	0.00000E+000	4.76650E-005	5.39641E-002	5.24803E-001	3.57290E+000	9	...........
	21	0.293333	5.33080E-001	9.09803E-005	0.00000E+000	4.84998E-005	5.39641E-002	5.33164E-001	3.57290E+000	9	...........
	22	0.306667	5.41198E-001	9.11814E-005	0.00000E+000	4.93472E-005	5.39641E-002	5.41320E-001	3.57290E+000	9	...........
	23	0.32	5.49134E-001	9.11054E-005	0.00000E+000	5.00291E-005	5.39641E-002	5.49256E-001	3.57290E+000	9	...........
	24	0.333333	5.56874E-001	9.11898E-005	0.00000E+000	5.07812E-005	5.39641E-002	5.56981E-001	3.57290E+000	9	...........
	25	0.346667	5.64396E-001	9.12221E-005	0.00000E+000	5.14854E-005	5.39641E-002	5.64530E-001	3.57290E+000	9	...........
	26	0.36	5.71750E-001	9.10554E-005	0.00000E+000	5.20609E-005	5.39641E-002	5.71846E-001	3.57290E+000	9	...........
	27	0.373333	5.78884E-001	9.07438E-005	0.00000E+000	5.25302E-005	5.39641E-002	5.79037E-001	3.57290E+000	9	...........
	28	0.386667	5.85870E-001	9.09762E-005	0.00000E+000	5.33002E-005	5.39641E-002	5.86017E-001	3.57290E+000	9	...........
	29	0.4	5.92708E-001	9.07178E-005	0.00000E+000	5.37692E-005	5.39641E-002	5.92846E-001	3.57290E+000	9	...........
	30	0.413333	5.99350E-001	9.11002E-005	0.00000E+000	5.46009E-005	5.39641E-002	5.99500E-001	3.57290E+000	9	...........
	31	0.426667	6.05824E-001	9.12231E-005	0.00000E+000	5.52651E-005	5.39641E-002	6.05982E-001	3.57290E+000	9	...........
	32	0.44	6.12199E-001	9.09251E-005	0.00000E+000	5.56643E-005	5.39641E-002	6.12351E-001	3.57290E+000	9	...........
	33	0.453333	6.18466E-001	9.08522E-005	0.00000E+000	5.61890E-005	5.39641E-002	6.18592E-001	3.57290E+000	9	...........
	34	0.466667	6.24562E-001	9.09939E-005	0.00000E+000	5.68313E-005	5.39641E-002	6.24673E-001	3.57290E+000	9	...........
	35	0.48	6.30521E-001	9.07532E-005	0.00000E+000	5.72218E-005	5.39641E-002	6.30631E-001	3.57290E+000	9	...........
	36	0.493333	6.36365E-001	9.11939E-005	0.00000E+000	5.80327E-005	5.39641E-002	6.36488E-001	3.57290E+000	9	...........
	37	0.506667	6.42116E-001	9.13971E-005	0.00000E+000	5.86876E-005	5.39641E-002	6.42241E-001	3.57290E+000	9	...........
	38	0.52	6.47743E-001	9.10356E-005	0.00000E+000	5.89677E-005	5.39641E-002	6.47866E-001	3.57290E+000	9	...........
	39	0.533333	6.53273E-001	9.11314E-005	0.00000E+000	5.95337E-005	5.39641E-002	6.53397E-001	3.57290E+000	9	...........
	40	0.546667	6.58719E-001	9.08532E-005	0.00000E+000	5.98467E-005	5.39641E-002	6.58805E-001	3.57290E+000	9	...........
	41	0.56	6.64062E-001	9.13117E-005	0.00000E+000	6.06366E-005	5.39641E-002	6.64159E-001	3.57290E+000	9	...........
	42	0.573333	6.69314E-001	9.12887E-005	0.00000E+000	6.11008E-005	5.39641E-002	6.69405E-001	3.57290E+000	9	...........
	43	0.586667	6.74477E-001	9.12418E-005	0.00000E+000	6.15405E-005	5.39641E-002	6.74537E-001	3.57290E+000	9	...........
	44	0.6	6.79548E-001	9.09647E-005	0.00000E+000	6.18148E-005	5.39641E-002	6.79604E-001	3.57290E+000	9	...........
	45	0.613333	6.84507E-001	9.08678E-005	0.00000E+000	6.21997E-005	5.39641E-002	6.84577E-001	3.57290E+000	9	...........
	46	0.626667	6.89411E-001	9.09637E-005	0.00000E+000	6.27114E-005	5.39641E-002	6.89518E-001	3.57290E+000	9	...........
	47	0.64	6.94251E-001	9.10543E-005	0.00000E+000	6.32145E-005	5.39641E-002	6.94352E-001	3.57290E+000	9	...........
	48	0.653333	6.99010E-001	9.11533E-005	0.00000E+000	6.37170E-005	5.39641E-002	6.99139E-001	3.57290E+000	9	...........
	49	0.666667	7.03688E-001	9.09064E-005	0.00000E+000	6.39697E-005	5.39641E-002	7.03815E-001	3.57290E+000	9	...........
	50	0.68	7.08277E-001	9.10668E-005	0.00000E+000	6.45005E-005	5.39641E-002	7.08448E-001	3.57290E+000	9	...........
	51	0.693333	7.12835E-001	9.08991E-005	0.00000E+000	6.47960E-005	5.39641E-002	7.12971E-001	3.57290E+000	9	...........
	52	0.706667	7.17329E-001	9.11731E-005	0.00000E+000	6.54011E-005	5.39641E-002	7.17481E-001	3.57290E+000	9	...........
	53	0.72	7.21773E-001	9.10064E-005	0.00000E+000	6.56860E-005	5.39641E-002	7.21883E-001	3.57290E+000	9	...........
	54	0.733333	7.26104E-001	9.09678E-005	0.00000E+000	6.60521E-005	5.39641E-002	7.26208E-001	3.57290E+000	9	...........
	55	0.746667	7.30378E-001	9.07667E-005	0.00000E+000	6.62940E-005	5.39641E-002	7.30506E-001	3.57290E+000	9	...........
	56	0.76	7.34599E-001	9.08762E-005	0.00000E+000	6.67575E-005	5.39641E-002	7.34725E-001	3.57290E+000	9	...........
	57	0.773333	7.38771E-001	9.09439E-005	0.00000E+000	6.71867E-005	5.39641E-002	7.38886E-001	3.57290E+000	9	...........
	58	0.786667	7.42904E-001	9.11095E-005	0.00000E+000	6.76856E-005	5.39641E-002	7.43024E-001	3.57290E+000	9	...........
	59	0.8	7.46971E-001	9.10001E-005	0.00000E+000	6.79745E-005	5.39641E-002	7.47096E-001	3.57290E+000	9	...........
	60	0.813333	7.50983E-001	9.10793E-005	0.00000E+000	6.83990E-005	5.39641E-002	7.51121E-001	3.57290E+000	9	...........
	61	0.826667	7.54974E-001	9.09876E-005	0.00000E+000	6.86933E-005	5.39641E-002	7.55072E-001	3.57290E+000	9	...........
	62	0.84	7.58874E-001	9.10345E-005	0.00000E+000	6.90838E-005	5.39641E-002	7.58982E-001	3.57290E+000	9	...........
	63	0.853333	7.62745E-001	9.11627E-005	0.00000E+000	6.95338E-005	5.39641E-002	7.62850E-001	3.57290E+000	9	...........
	64	0.866667	7.66546E-001	9.10043E-005	0.00000E+000	6.97590E-005	5.39641E-002	7.66686E-001	3.57290E+000	9	...........
	65	0.88	7.70371E-001	9.10241E-005	0.00000E+000	7.01223E-005	5.39641E-002	7.70496E-001	3.57290E+000	9	...........
	66	0.893333	7.74121E-001	9.10231E-005	0.00000E+000	7.04629E-005	5.39641E-002	7.74241E-001	3.57290E+000	9	...........
	67	0.906667	7.77816E-001	9.11533E-005	0.00000E+000	7.09005E-005	5.39641E-002	7.77941E-001	3.57290E+000	9	...........
	68	0.92	7.81460E-001	9.10178E-005	0.00000E+000	7.11268E-005	5.39641E-002	7.81612E-001	3.57290E+000	9	...........
	69	0.933333	7.85054E-001	9.11033E-005	0.00000E+000	7.15210E-005	5.39641E-002	7.85191E-001	3.57290E+000	9	...........
	70	0.946667	7.88617E-001	9.10626E-005	0.00000E+000	7.18135E-005	5.39641E-002	7.88765E-001	3.57290E+000	9	...........
	71	0.96	7.92135E-001	9.10199E-005	0.00000E+000	7.21001E-005	5.39641E-002	7.92304E-001	3.57290E+000	9	...........
	72	0.97333	7.95683E-001	9.11012E-005	0.00000E+000	7.24877E-005	5.39641E-002	7.95793E-001	3.57290E+000	9	...........
	73	0.98667	7.99134E-001	9.12168E-005	0.00000E+000	7.28945E-005	5.39641E-002	7.99251E-001	3.57290E+000	9	...........
	74	1	8.02556E-001	9.09189E-005	0.00000E+000	7.29674E-005	5.39641E-002	8.02696E-001	3.57290E+000	9	...........
	75	1.01333	8.05929E-001	9.10668E-005	0.00000E+000	7.33934E-005	5.39641E-002	8.06078E-001	3.57290E+000	9	...........
	76	1.02667	8.09267E-001	9.10543E-005	0.00000E+000	7.36872E-005	5.39641E-002	8.09428E-001	3.57292E+000	9	...........
	77	1.04	8.12592E-001	9.10033E-005	0.00000E+000	7.39485E-005	5.39641E-002	8.12742E-001	3.57300E+000	9	...........
	78	1.05333	8.15858E-001	9.08220E-005	0.00000E+000	7.40978E-005	5.39641E-002	8.16045E-001	3.57300E+000	9	...........
	79	1.06667	8.19129E-001	9.10553E-005	0.00000E+000	7.45861E-005	5.39641E-002	8.19278E-001	3.57300E+000	9	...........
	80	1.08	8.22337E-001	9.09522E-005	0.00000E+000	7.47933E-005	5.39641E-002	8.22485E-001	3.57300E+000	9	...........
	81	1.09333	8.25557E-001	9.08480E-005	0.00000E+000	7.50002E-005	5.39641E-002	8.25690E-001	3.57300E+000	9	...........
	82	1.10667	8.28669E-001	9.10543E-005	0.00000E+000	7.54539E-005	5.39641E-002	8.28828E-001	3.57300E+000	9	...........
	83	1.12	8.31794E-001	9.10095E-005	0.00000E+000	7.57012E-005	5.39641E-002	8.31945E-001	3.57300E+000	9	...........
	84	1.13333	8.34866E-001	9.10449E-005	0.00000E+000	7.60103E-005	5.39641E-002	8.35056E-001	3.57300E+000	9	...........
	85	1.14667	8.37892E-001	9.12856E-005	0.00000E+000	7.64875E-005	5.39641E-002	8.38095E-001	3.57300E+000	9	...........
	86	1.16	8.40886E-001	9.09105E-005	0.00000E+000	7.64454E-005	5.39641E-002	8.41086E-001	3.57300E+000	9	...........
	87	1.17333	8.43882E-001	9.10564E-005	0.00000E+000	7.68409E-005	5.39641E-002	8.44078E-001	3.57300E+000	9	...........
	88	1.18667	8.46821E-001	9.10731E-005	0.00000E+000	7.71226E-005	5.39641E-002	8.47025E-001	3.57300E+000	9	...........
	89	1.2	8.49739E-001	9.11408E-005	0.00000E+000	7.74459E-005	5.39641E-002	8.49946E-001	3.57300E+000	9	...........
	90	1.21333	8.52633E-001	9.08251E-005	0.00000E+000	7.74405E-005	5.39641E-002	8.52822E-001	3.57300E+000	9	...........
	91	1.22667	8.55486E-001	9.10428E-005	0.00000E+000	7.78859E-005	5.39641E-002	8.55669E-001	3.57300E+000	9	...........
	92	1.24	8.58319E-001	9.10741E-005	0.00000E+000	7.81706E-005	5.39641E-002	8.58487E-001	3.57300E+000	9	...........
	93	1.25333	8.61143E-001	9.09116E-005	0.00000E+000	7.82879E-005	5.39641E-002	8.61273E-001	3.57300E+000	9	...........
	94	1.26667	8.63918E-001	9.09574E-005	0.00000E+000	7.85798E-005	5.39641E-002	8.64028E-001	3.57300E+000	9	...........
	95	1.28	8.66652E-001	9.09105E-005	0.00000E+000	7.87878E-005	5.39641E-002	8.66806E-001	3.57300E+000	9	...........
	96	1.29333	8.69385E-001	9.11512E-005	0.00000E+000	7.92455E-005	5.39641E-002	8.69539E-001	3.57300E+000	9	...........
	97	1.30667	8.72090E-001	9.09658E-005	0.00000E+000	7.93303E-005	5.39641E-002	8.72227E-001	3.57300E+000	9	...........
	98	1.32	8.74765E-001	9.09012E-005	0.00000E+000	7.95171E-005	5.39641E-002	8.74902E-001	3.57300E+000	9	...........
	99	1.33333	8.77407E-001	9.10710E-005	0.00000E+000	7.99063E-005	5.39641E-002	8.77543E-001	3.57300E+000	9	...........
	100	1.34667	8.79997E-001	9.10449E-005	0.00000E+000	8.01192E-005	5.39641E-002	8.80153E-001	3.57300E+000	9	...........
	101	1.36	8.82579E-001	9.10908E-005	0.00000E+000	8.03948E-005	5.39641E-002	8.82744E-001	3.57300E+000	9	...........
	102	1.37333	8.85155E-001	9.10231E-005	0.00000E+000	8.05695E-005	5.39641E-002	8.85313E-001	3.57300E+000	9	...........
	103	1.38667	8.87635E-001	9.12981E-005	0.00000E+000	8.10394E-005	5.39641E-002	8.87810E-001	3.57300E+000	9	...........
	104	1.4	8.90144E-001	9.09710E-005	0.00000E+000	8.09773E-005	5.39641E-002	8.90290E-001	3.57300E+000	9	...........
	105	1.41333	8.92596E-001	9.09251E-005	0.00000E+000	8.11594E-005	5.39641E-002	8.92727E-001	3.57300E+000	9	...........
	106	1.42667	8.95025E-001	9.09783E-005	0.00000E+000	8.14278E-005	5.39641E-002	8.95183E-001	3.57300E+000	9	...........
	107	1.44	8.97454E-001	9.08428E-005	0.00000E+000	8.15273E-005	5.39641E-002	8.97615E-001	3.57300E+000	9	...........
	108	1.45333	8.99850E-001	9.10658E-005	0.00000E+000	8.19456E-005	5.39641E-002	9.00014E-001	3.57300E+000	9	...........
	109	1.46667	9.02235E-001	9.09387E-005	0.00000E+000	8.20480E-005	5.39641E-002	9.02390E-001	3.57300E+000	9	...........
	110	1.48	9.04559E-001	9.09595E-005	0.00000E+000	8.22783E-005	5.39641E-002	9.04774E-001	3.57300E+000	9	...........
	111	1.49333	9.06909E-001	9.10679E-005	0.00000E+000	8.25903E-005	5.39641E-002	9.07115E-001	3.57300E+000	9	...........
	112	1.50667	9.09230E-001	9.09803E-005	0.00000E+000	8.27221E-005	5.39641E-002	9.09398E-001	3.57300E+000	9	...........
	113	1.52	9.11483E-001	9.09480E-005	0.00000E+000	8.28976E-005	5.39641E-002	9.11682E-001	3.57300E+000	9	...........
	114	1.53333	9.13720E-001	9.10053E-005	0.00000E+000	8.31534E-005	5.39641E-002	9.13919E-001	3.57300E+000	9	...........
	115	1.54667	9.15961E-001	9.10804E-005	0.00000E+000	8.34261E-005	5.39641E-002	9.16133E-001	3.57300E+000	9	...........
	116	1.56	9.18135E-001	9.08303E-005	0.00000E+000	8.33944E-005	5.39641E-002	9.18310E-001	3.57300E+000	9	...........
	117	1.57333	9.20304E-001	9.14888E-005	0.00000E+000	8.41975E-005	5.39641E-002	9.20487E-001	3.57300E+000	9	...........
	118	1.58667	9.22492E-001	9.10158E-005	0.00000E+000	8.39613E-005	5.39641E-002	9.22637E-001	3.57300E+000	9	...........
	119	1.6	9.24608E-001	9.11106E-005	0.00000E+000	8.42416E-005	5.39641E-002	9.24810E-001	3.57300E+000	9	...........
	120	1.61333	9.26723E-001	9.09762E-005	0.00000E+000	8.43097E-005	5.39641E-002	9.26892E-001	3.57300E+000	9	...........
	121	1.62667	9.28813E-001	9.11918E-005	0.00000E+000	8.47002E-005	5.39641E-002	9.28985E-001	3.57300E+000	9	...........
	122	1.64	9.30874E-001	9.09783E-005	0.00000E+000	8.46893E-005	5.39641E-002	9.31053E-001	3.57300E+000	9	...........
	123	1.65333	9.32917E-001	9.10731E-005	0.00000E+000	8.49637E-005	5.39641E-002	9.33108E-001	3.57300E+000	9	...........
	124	1.66667	9.34948E-001	9.11856E-005	0.00000E+000	8.52538E-005	5.39641E-002	9.35131E-001	3.57300E+000	9	...........
	125	1.68	9.36942E-001	9.11731E-005	0.00000E+000	8.54238E-005	5.39641E-002	9.37148E-001	3.57300E+000	9	...........
	126	1.69333	9.38923E-001	9.11272E-005	0.00000E+000	8.55615E-005	5.39641E-002	9.39134E-001	3.57300E+000	9	...........
	127	1.70667	9.40912E-001	9.12481E-005	0.00000E+000	8.58564E-005	5.39641E-002	9.41081E-001	3.57300E+000	9	...........
	128	1.72	9.42840E-001	9.09605E-005	0.00000E+000	8.57612E-005	5.39641E-002	9.43041E-001	3.57300E+000	9	...........
	129	1.73333	9.44761E-001	9.10387E-005	0.00000E+000	8.60098E-005	5.39641E-002	9.44960E-001	3.57300E+000	9	...........
	130	1.74667	9.46694E-001	9.09418E-005	0.00000E+000	8.60940E-005	5.39641E-002	9.46896E-001	3.57300E+000	9	...........
	131	1.76	9.48573E-001	9.10710E-005	0.00000E+000	8.63875E-005	5.39641E-002	9.48768E-001	3.57300E+000	9	...........
	132	1.77333	9.50454E-001	9.12950E-005	0.00000E+000	8.67717E-005	5.39641E-002	9.50633E-001	3.57300E+000	9	...........
	133	1.78667	9.52290E-001	9.11543E-005	0.00000E+000	8.68053E-005	5.39641E-002	9.52474E-001	3.57300E+000	9	...........
	134	1.8	9.54090E-001	9.09720E-005	0.00000E+000	8.67955E-005	5.39641E-002	9.54271E-001	3.57300E+000	9	...........
	135	1.81333	9.55897E-001	9.11575E-005	0.00000E+000	8.71372E-005	5.39641E-002	9.56079E-001	3.57300E+000	9	...........
	136	1.82667	9.57667E-001	9.08814E-005	0.00000E+000	8.70340E-005	5.39641E-002	9.57845E-001	3.57300E+000	9	...........
	137	1.84	9.59445E-001	9.11325E-005	0.00000E+000	8.74366E-005	5.39641E-002	9.59639E-001	3.57300E+000	9	...........
	138	1.85333	9.61159E-001	9.11022E-005	0.00000E+000	8.75637E-005	5.39641E-002	9.61364E-001	3.57300E+000	9	...........
	139	1.86667	9.62867E-001	9.10314E-005	0.00000E+000	8.76511E-005	5.39641E-002	9.63051E-001	3.57300E+000	9	...........
	140	1.88	9.64565E-001	9.12908E-005	0.00000E+000	8.80560E-005	5.39641E-002	9.64773E-001	3.57300E+000	9	...........
	141	1.89333	9.66232E-001	9.10439E-005	0.00000E+000	8.79696E-005	5.39641E-002	9.66431E-001	3.57300E+000	9	...........
	142	1.90667	9.67917E-001	9.11408E-005	0.00000E+000	8.82167E-005	5.39641E-002	9.68123E-001	3.57300E+000	9	...........
	143	1.92	9.69576E-001	9.09970E-005	0.00000E+000	8.82285E-005	5.39641E-002	9.69763E-001	3.57300E+000	9	...........
	144	1.93333	9.71194E-001	9.09449E-005	0.00000E+000	8.83252E-005	5.39641E-002	9.71429E-001	3.57300E+000	9	...........
	145	1.94667	9.72861E-001	9.11585E-005	0.00000E+000	8.86846E-005	5.39641E-002	9.73063E-001	3.57300E+000	9	...........
	146	1.96	9.74449E-001	9.09866E-005	0.00000E+000	8.86618E-005	5.39641E-002	9.74666E-001	3.57300E+000	9	...........
	147	1.97333	9.76060E-001	9.08574E-005	0.00000E+000	8.86822E-005	5.39641E-002	9.76234E-001	3.57300E+000	9	...........
	148	1.98667	9.77611E-001	9.09824E-005	0.00000E+000	8.89455E-005	5.39641E-002	9.77828E-001	3.57300E+000	9	...........
	149	2	9.79157E-001	9.09762E-005	0.00000E+000	8.90800E-005	5.39641E-002	9.79369E-001	3.57300E+000	9	...........
	150	2.01333	9.80689E-001	9.09783E-005	0.00000E+000	8.92214E-005	5.39641E-002	9.80889E-001	3.57300E+000	9	...........
	151	2.02667	9.82187E-001	9.08949E-005	0.00000E+000	8.92758E-005	5.39641E-002	9.82416E-001	3.57302E+000	9	...........
	152	2.04	9.83689E-001	9.09855E-005	0.00000E+000	8.95015E-005	5.39641E-002	9.83919E-001	3.57310E+000	9	...........
	153	2.05333	9.85182E-001	9.09095E-005	0.00000E+000	8.95624E-005	5.39641E-002	9.85419E-001	3.57310E+000	9	...........
	154	2.06667	9.86656E-001	9.08772E-005	0.00000E+000	8.96645E-005	5.39641E-002	9.86875E-001	3.57310E+000	9	...........
	155	2.08	9.88107E-001	9.08730E-005	0.00000E+000	8.97922E-005	5.39641E-002	9.88349E-001	3.57310E+000	9	...........
	156	2.09333	9.89576E-001	9.10887E-005	0.00000E+000	9.01392E-005	5.39641E-002	9.89775E-001	3.57310E+000	9	...........
	157	2.10667	9.90986E-001	9.09335E-005	0.00000E+000	9.01138E-005	5.39641E-002	9.91197E-001	3.57310E+000	9	...........
	158	2.12	9.92390E-001	9.09241E-005	0.00000E+000	9.02321E-005	5.39641E-002	9.92615E-001	3.57310E+000	9	...........
	159	2.13333	9.93785E-001	9.08428E-005	0.00000E+000	9.02782E-005	5.39641E-002	9.93992E-001	3.57310E+000	9	...........
	160	2.14667	9.95183E-001	9.09637E-005	0.00000E+000	9.05255E-005	5.39641E-002	9.95367E-001	3.57310E+000	9	...........
	161	2.16	9.96517E-001	9.10366E-005	0.00000E+000	9.07195E-005	5.39641E-002	9.96724E-001	3.57310E+000	9	...........
	162	2.17333	9.97870E-001	9.08866E-005	0.00000E+000	9.06930E-005	5.39641E-002	9.98065E-001	3.57310E+000	9	...........
	163	2.18667	9.99200E-001	9.12043E-005	0.00000E+000	9.11313E-005	5.39641E-002	9.99394E-001	3.57310E+000	9	...........
	164	2.19	1.00001E+000	9.08293E-005	0.00000E+000	9.08298E-005	5.39641E-002	1.00023E+000	3.57310E+000	9	...........
STARTTIMEOFFSET	QUANT	2998.627	Start Time Offset (s)
