EXPLAIN
TAG	PWR800_CHARGE
TITLE	LABEL	PWR Cyclic Charge Discharge (Cell) - Charge Step	Test &Identifier
DATE	LABEL	10-7-2017	Date
TIME	LABEL	15:28:50	Time
NOTES	NOTES	3	&Notes...
	supercap test cell
	0.9mg
	6M KOH
PSTAT	PSTAT	IFC5000-01520	Potentiostat
CAPACITY	QUANT	1.00000E-003	Capacity (A-hr)
CELLTYPE	SELECTOR	1	&Cell Type
WORKINGCONNECTION	SELECTOR	0	&Working Lead
MAXCHARGETIME	VARIABLEANDUNITS	1.00000E+002	s	1.00000E+002	second(s)	Max &Charge Time
CHARGECURRENT	QUANT	9.00000E-005	&Charge Current (A) 
VOLTAGEFINISH	TWOPARAM	F	1.00000E-003	3.60000E+003	&Voltage Finish	 I (A) < 	Max Time(s)
SAMPLETIME	QUANT	1.00000E-002	Sa&mple Period (s)
CHARGESTOPAT1	MULTIPARAM	4	1.00000E+000	Charge Stop At &1	Voltage > Limit	V
CHARGESTOPAT2	MULTIPARAM	0	0.00000E+000	Charge Stop At &2	None	N/A
AESBHCSELECTOR	TOGGLE	F	Save Both Half Cells
IRCOMP	TOGGLE	F	IR &Measure
EOC	QUANT	0	Open Circuit (V)
SEQUENCER	TOGGLE	TRUE	Run as Sequence
PSTATMODEL	IQUANT	53	Pstat Model
PSTATSECTION	LABEL	IFC5000-01520	Pstat Section
PSTATSERIALNO	LABEL	01520	Pstat Serial Number
CTRLMODE	IQUANT	0	Control Mode
ELECTROMETER	IQUANT	1	RE=0 or CS=1
IESTAB	IQUANT	0	I/E Stability
CASPEED	IQUANT	4	Control Amp Speed
CONVENTION	IQUANT	1	Current Convention
ICHRANGE	IQUANT	2	Ich Range
ICHRANGEMODE	TOGGLE	T	Ich Auto Range
ICHOFFSETENABLE	TOGGLE	F	Ich Offset Enable
ICHOFFSET	QUANT	0	Ich Offset (V)
ICHFILTER	IQUANT	1	Ich Filter
VCHRANGE	IQUANT	2	Vch Range
VCHRANGEMODE	TOGGLE	T	Vch Auto Range
VCHOFFSETENABLE	TOGGLE	F	Vch Offset Enable
VCHOFFSET	QUANT	0	Vch Offset (V)
VCHFILTER	IQUANT	1	Vch Filter
IERANGELOWERLIMIT	IQUANT	9	I/E Range Lower Limit
IERANGEMODE	TOGGLE	F	I/E AutoRange
IERANGE	IQUANT	9	I/E Range
ACHSELECT	IQUANT	1	Ach Select
ACHRANGE	IQUANT	2	Ach Range
ACHOFFSETENABLE	TOGGLE	F	Ach Offset Enable
ACHOFFSET	QUANT	0	Ach Offset (V)
ACHFILTER	IQUANT	1	Ach Filter
CABLEID	IQUANT	14	Cable ID
DCCALDATE	LABEL	5-7-2017	DC Calibration Date
ACCALDATE	LABEL	12/3/2015	AC Calibration Date
FRAMEWORKVERSION	QUANT	7.01	Framework Version
INSTRUMENTVERSION	LABEL	4.00	Instrument Version
CURVE	TABLE	175
	Pt	T	Vf	Im	Vu	Pwr	Sig	Ach	Temp	IERange	Over
	#	s	V	A	V	W	V	V	deg C	#	bits
	0	0.013333	2.78972E-001	9.09303E-005	0.00000E+000	2.53670E-005	5.39641E-002	2.79010E-001	3.57330E+000	9	...........
	1	0.026667	2.98584E-001	9.10960E-005	0.00000E+000	2.71998E-005	5.39641E-002	2.98625E-001	3.57330E+000	9	...........
	2	0.04	3.16781E-001	9.11272E-005	0.00000E+000	2.88674E-005	5.39641E-002	3.16823E-001	3.57330E+000	9	...........
	3	0.053333	3.33802E-001	9.10272E-005	0.00000E+000	3.03851E-005	5.39641E-002	3.33843E-001	3.57330E+000	9	...........
	4	0.066667	3.49807E-001	9.11283E-005	0.00000E+000	3.18773E-005	5.39641E-002	3.49852E-001	3.57330E+000	9	...........
	5	0.08	3.64918E-001	9.11460E-005	0.00000E+000	3.32608E-005	5.39641E-002	3.64962E-001	3.57330E+000	9	...........
	6	0.093333	3.79259E-001	9.07918E-005	0.00000E+000	3.44336E-005	5.39641E-002	3.79296E-001	3.57330E+000	9	...........
	7	0.106667	3.92874E-001	9.10043E-005	0.00000E+000	3.57532E-005	5.39641E-002	3.92921E-001	3.57330E+000	9	...........
	8	0.12	4.05856E-001	9.11179E-005	0.00000E+000	3.69807E-005	5.39641E-002	4.05907E-001	3.57330E+000	9	...........
	9	0.133333	4.18271E-001	9.09949E-005	0.00000E+000	3.80605E-005	5.39641E-002	4.18321E-001	3.57330E+000	9	...........
	10	0.146667	4.30173E-001	9.08959E-005	0.00000E+000	3.91010E-005	5.39641E-002	4.30224E-001	3.57330E+000	9	...........
	11	0.16	4.41588E-001	9.11585E-005	0.00000E+000	4.02545E-005	5.39641E-002	4.41642E-001	3.57330E+000	9	...........
	12	0.173333	4.52572E-001	9.10856E-005	0.00000E+000	4.12228E-005	5.39641E-002	4.52628E-001	3.57330E+000	9	...........
	13	0.186667	4.63139E-001	9.10345E-005	0.00000E+000	4.21616E-005	5.39641E-002	4.63193E-001	3.57330E+000	9	...........
	14	0.2	4.73335E-001	9.08762E-005	0.00000E+000	4.30149E-005	5.39641E-002	4.73395E-001	3.57330E+000	9	...........
	15	0.213333	4.83187E-001	9.12252E-005	0.00000E+000	4.40788E-005	5.39641E-002	4.83251E-001	3.57330E+000	9	...........
	16	0.226667	4.92704E-001	9.09168E-005	0.00000E+000	4.47951E-005	5.39641E-002	4.92772E-001	3.57330E+000	9	...........
	17	0.24	5.01923E-001	9.10845E-005	0.00000E+000	4.57174E-005	5.39641E-002	5.01990E-001	3.57330E+000	9	...........
	18	0.253333	5.10857E-001	9.08845E-005	0.00000E+000	4.64289E-005	5.39641E-002	5.10922E-001	3.57330E+000	9	...........
	19	0.266667	5.19510E-001	9.14252E-005	0.00000E+000	4.74963E-005	5.39641E-002	5.19577E-001	3.57330E+000	9	...........
	20	0.28	5.27907E-001	9.08751E-005	0.00000E+000	4.79736E-005	5.39641E-002	5.27979E-001	3.57330E+000	9	...........
	21	0.293333	5.36008E-001	9.07678E-005	0.00000E+000	4.86522E-005	5.39641E-002	5.36125E-001	3.57330E+000	9	...........
	22	0.306667	5.43965E-001	9.10647E-005	0.00000E+000	4.95360E-005	5.39641E-002	5.44069E-001	3.57330E+000	9	...........
	23	0.32	5.51699E-001	9.09689E-005	0.00000E+000	5.01874E-005	5.39641E-002	5.51801E-001	3.57330E+000	9	...........
	24	0.333333	5.59174E-001	9.10835E-005	0.00000E+000	5.09316E-005	5.39641E-002	5.59330E-001	3.57330E+000	9	...........
	25	0.346667	5.66570E-001	9.10533E-005	0.00000E+000	5.15880E-005	5.39641E-002	5.66666E-001	3.57330E+000	9	...........
	26	0.36	5.73698E-001	9.09637E-005	0.00000E+000	5.21857E-005	5.39641E-002	5.73820E-001	3.57330E+000	9	...........
	27	0.373333	5.80664E-001	9.09699E-005	0.00000E+000	5.28229E-005	5.39641E-002	5.80778E-001	3.57325E+000	9	...........
	28	0.386667	5.87502E-001	9.11022E-005	0.00000E+000	5.35228E-005	5.39641E-002	5.87606E-001	3.57320E+000	9	...........
	29	0.4	5.94175E-001	9.12158E-005	0.00000E+000	5.41981E-005	5.39641E-002	5.94271E-001	3.57320E+000	9	...........
	30	0.413333	6.00653E-001	9.13544E-005	0.00000E+000	5.48723E-005	5.39641E-002	6.00766E-001	3.57320E+000	9	...........
	31	0.426667	6.07001E-001	9.09856E-005	0.00000E+000	5.52283E-005	5.39641E-002	6.07128E-001	3.57320E+000	9	...........
	32	0.44	6.13277E-001	9.10616E-005	0.00000E+000	5.58460E-005	5.39641E-002	6.13383E-001	3.57320E+000	9	...........
	33	0.453333	6.19425E-001	9.13190E-005	0.00000E+000	5.65653E-005	5.39641E-002	6.19471E-001	3.57320E+000	9	...........
	34	0.466667	6.25361E-001	9.11429E-005	0.00000E+000	5.69972E-005	5.39641E-002	6.25426E-001	3.57320E+000	9	...........
	35	0.48	6.31197E-001	9.12804E-005	0.00000E+000	5.76159E-005	5.39641E-002	6.31294E-001	3.57320E+000	9	...........
	36	0.493333	6.36884E-001	9.11502E-005	0.00000E+000	5.80521E-005	5.39641E-002	6.37011E-001	3.57320E+000	9	...........
	37	0.506667	6.42545E-001	9.11845E-005	0.00000E+000	5.85902E-005	5.39641E-002	6.42643E-001	3.57320E+000	9	...........
	38	0.52	6.48037E-001	9.11512E-005	0.00000E+000	5.90694E-005	5.39641E-002	6.48141E-001	3.57320E+000	9	...........
	39	0.533333	6.53438E-001	9.09845E-005	0.00000E+000	5.94527E-005	5.39641E-002	6.53559E-001	3.57320E+000	9	...........
	40	0.546667	6.58736E-001	9.10751E-005	0.00000E+000	5.99945E-005	5.39641E-002	6.58812E-001	3.57320E+000	9	...........
	41	0.56	6.63903E-001	9.09189E-005	0.00000E+000	6.03613E-005	5.39641E-002	6.64027E-001	3.57320E+000	9	...........
	42	0.573333	6.69071E-001	9.10397E-005	0.00000E+000	6.09121E-005	5.39641E-002	6.69152E-001	3.57320E+000	9	...........
	43	0.586667	6.74041E-001	9.12523E-005	0.00000E+000	6.15077E-005	5.39641E-002	6.74162E-001	3.57320E+000	9	...........
	44	0.6	6.78974E-001	9.12742E-005	0.00000E+000	6.19727E-005	5.39641E-002	6.79078E-001	3.57320E+000	9	...........
	45	0.613333	6.83819E-001	9.09939E-005	0.00000E+000	6.22234E-005	5.39641E-002	6.83902E-001	3.57320E+000	9	...........
	46	0.626667	6.88575E-001	9.09397E-005	0.00000E+000	6.26188E-005	5.39641E-002	6.88679E-001	3.57320E+000	9	...........
	47	0.64	6.93308E-001	9.10283E-005	0.00000E+000	6.31106E-005	5.39641E-002	6.93373E-001	3.57320E+000	9	...........
	48	0.653333	6.97879E-001	9.08116E-005	0.00000E+000	6.33755E-005	5.39641E-002	6.97988E-001	3.57320E+000	9	...........
	49	0.666667	7.02450E-001	9.14169E-005	0.00000E+000	6.42158E-005	5.39641E-002	7.02561E-001	3.57320E+000	9	...........
	50	0.68	7.06913E-001	9.11106E-005	0.00000E+000	6.44072E-005	5.39641E-002	7.07038E-001	3.57320E+000	9	...........
	51	0.693333	7.11308E-001	9.08814E-005	0.00000E+000	6.46446E-005	5.39641E-002	7.11444E-001	3.57320E+000	9	...........
	52	0.706667	7.15646E-001	9.14044E-005	0.00000E+000	6.54132E-005	5.39641E-002	7.15795E-001	3.57320E+000	9	...........
	53	0.72	7.19969E-001	9.10168E-005	0.00000E+000	6.55293E-005	5.39641E-002	7.20073E-001	3.57320E+000	9	...........
	54	0.733333	7.24160E-001	9.10731E-005	0.00000E+000	6.59515E-005	5.39641E-002	7.24289E-001	3.57320E+000	9	...........
	55	0.746667	7.28279E-001	9.11043E-005	0.00000E+000	6.63494E-005	5.39641E-002	7.28416E-001	3.57320E+000	9	...........
	56	0.76	7.32358E-001	9.10553E-005	0.00000E+000	6.66851E-005	5.39641E-002	7.32498E-001	3.57320E+000	9	...........
	57	0.773333	7.36390E-001	9.11512E-005	0.00000E+000	6.71228E-005	5.39641E-002	7.36524E-001	3.57320E+000	9	...........
	58	0.786667	7.40370E-001	9.10929E-005	0.00000E+000	6.74424E-005	5.39641E-002	7.40515E-001	3.57320E+000	9	...........
	59	0.8	7.44315E-001	9.09751E-005	0.00000E+000	6.77142E-005	5.39641E-002	7.44445E-001	3.57320E+000	9	...........
	60	0.813333	7.48174E-001	9.09314E-005	0.00000E+000	6.80325E-005	5.39641E-002	7.48314E-001	3.57320E+000	9	...........
	61	0.826667	7.51989E-001	9.10731E-005	0.00000E+000	6.84860E-005	5.39641E-002	7.52112E-001	3.57320E+000	9	...........
	62	0.84	7.55757E-001	9.10762E-005	0.00000E+000	6.88315E-005	5.39641E-002	7.55874E-001	3.57320E+000	9	...........
	63	0.853333	7.59466E-001	9.09262E-005	0.00000E+000	6.90553E-005	5.39641E-002	7.59572E-001	3.57320E+000	9	...........
	64	0.866667	7.63142E-001	9.12002E-005	0.00000E+000	6.95987E-005	5.39641E-002	7.63254E-001	3.57320E+000	9	...........
	65	0.88	7.66759E-001	9.09355E-005	0.00000E+000	6.97256E-005	5.39641E-002	7.66899E-001	3.57320E+000	9	...........
	66	0.893333	7.70374E-001	9.09730E-005	0.00000E+000	7.00832E-005	5.39641E-002	7.70469E-001	3.57320E+000	9	...........
	67	0.906667	7.73925E-001	9.11325E-005	0.00000E+000	7.05297E-005	5.39641E-002	7.74035E-001	3.57320E+000	9	...........
	68	0.92	7.77404E-001	9.10762E-005	0.00000E+000	7.08030E-005	5.39641E-002	7.77527E-001	3.57320E+000	9	...........
	69	0.933333	7.80868E-001	9.10595E-005	0.00000E+000	7.11054E-005	5.39641E-002	7.80995E-001	3.57320E+000	9	...........
	70	0.946667	7.84265E-001	9.09876E-005	0.00000E+000	7.13584E-005	5.39641E-002	7.84399E-001	3.57320E+000	9	...........
	71	0.96	7.87631E-001	9.13637E-005	0.00000E+000	7.19609E-005	5.39641E-002	7.87771E-001	3.57320E+000	9	...........
	72	0.97333	7.90940E-001	9.09637E-005	0.00000E+000	7.19468E-005	5.39641E-002	7.91101E-001	3.57320E+000	9	...........
	73	0.98667	7.94287E-001	9.10772E-005	0.00000E+000	7.23415E-005	5.39641E-002	7.94426E-001	3.57320E+000	9	...........
	74	1	7.97566E-001	9.09553E-005	0.00000E+000	7.25429E-005	5.39641E-002	7.97685E-001	3.57320E+000	9	...........
	75	1.01333	8.00799E-001	9.11377E-005	0.00000E+000	7.29829E-005	5.39641E-002	8.00925E-001	3.57320E+000	9	...........
	76	1.02667	8.03965E-001	9.10439E-005	0.00000E+000	7.31961E-005	5.39641E-002	8.04102E-001	3.57320E+000	9	...........
	77	1.04	8.07122E-001	9.09574E-005	0.00000E+000	7.34138E-005	5.39641E-002	8.07246E-001	3.57320E+000	9	...........
	78	1.05333	8.10215E-001	9.10991E-005	0.00000E+000	7.38098E-005	5.39641E-002	8.10326E-001	3.57320E+000	9	...........
	79	1.06667	8.13269E-001	9.11939E-005	0.00000E+000	7.41652E-005	5.39641E-002	8.13423E-001	3.57320E+000	9	...........
	80	1.08	8.16288E-001	9.11345E-005	0.00000E+000	7.43920E-005	5.39641E-002	8.16457E-001	3.57320E+000	9	...........
	81	1.09333	8.19344E-001	9.14200E-005	0.00000E+000	7.49045E-005	5.39641E-002	8.19478E-001	3.57320E+000	9	...........
	82	1.10667	8.22322E-001	9.10804E-005	0.00000E+000	7.48973E-005	5.39641E-002	8.22477E-001	3.57320E+000	9	...........
	83	1.12	8.25264E-001	9.10178E-005	0.00000E+000	7.51137E-005	5.39641E-002	8.25425E-001	3.57320E+000	9	...........
	84	1.13333	8.28203E-001	9.11773E-005	0.00000E+000	7.55132E-005	5.39641E-002	8.28330E-001	3.57320E+000	9	...........
	85	1.14667	8.31071E-001	9.10324E-005	0.00000E+000	7.56544E-005	5.39641E-002	8.31237E-001	3.57320E+000	9	...........
	86	1.16	8.33941E-001	9.11137E-005	0.00000E+000	7.59834E-005	5.39641E-002	8.34106E-001	3.57320E+000	9	...........
	87	1.17333	8.36743E-001	9.10366E-005	0.00000E+000	7.61743E-005	5.39641E-002	8.36915E-001	3.57320E+000	9	...........
	88	1.18667	8.39557E-001	9.11960E-005	0.00000E+000	7.65642E-005	5.39641E-002	8.39688E-001	3.57320E+000	9	...........
	89	1.2	8.42323E-001	9.11231E-005	0.00000E+000	7.67550E-005	5.39641E-002	8.42467E-001	3.57320E+000	9	...........
	90	1.21333	8.45103E-001	9.11606E-005	0.00000E+000	7.70400E-005	5.39641E-002	8.45233E-001	3.57320E+000	9	...........
	91	1.22667	8.47816E-001	9.09855E-005	0.00000E+000	7.71390E-005	5.39641E-002	8.47926E-001	3.57320E+000	9	...........
	92	1.24	8.50493E-001	9.11918E-005	0.00000E+000	7.75580E-005	5.39641E-002	8.50612E-001	3.57320E+000	9	...........
	93	1.25333	8.53158E-001	9.10022E-005	0.00000E+000	7.76393E-005	5.39641E-002	8.53264E-001	3.57320E+000	9	...........
	94	1.26667	8.55794E-001	9.11700E-005	0.00000E+000	7.80227E-005	5.39641E-002	8.55911E-001	3.57320E+000	9	...........
	95	1.28	8.58407E-001	9.12596E-005	0.00000E+000	7.83379E-005	5.39641E-002	8.58541E-001	3.57320E+000	9	...........
	96	1.29333	8.61002E-001	9.11272E-005	0.00000E+000	7.84608E-005	5.39641E-002	8.61139E-001	3.57320E+000	9	...........
	97	1.30667	8.63542E-001	9.10428E-005	0.00000E+000	7.86193E-005	5.39641E-002	8.63693E-001	3.57320E+000	9	...........
	98	1.32	8.66052E-001	9.09116E-005	0.00000E+000	7.87341E-005	5.39641E-002	8.66214E-001	3.57320E+000	9	...........
	99	1.33333	8.68581E-001	9.10481E-005	0.00000E+000	7.90826E-005	5.39641E-002	8.68752E-001	3.57320E+000	9	...........
	100	1.34667	8.71083E-001	9.10418E-005	0.00000E+000	7.93050E-005	5.39641E-002	8.71231E-001	3.57320E+000	9	...........
	101	1.36	8.73532E-001	9.11345E-005	0.00000E+000	7.96089E-005	5.39641E-002	8.73679E-001	3.57320E+000	9	...........
	102	1.37333	8.75988E-001	9.10033E-005	0.00000E+000	7.97177E-005	5.39641E-002	8.76119E-001	3.57290E+000	9	...........
	103	1.38667	8.78399E-001	9.11804E-005	0.00000E+000	8.00927E-005	5.39641E-002	8.78559E-001	3.57260E+000	9	...........
	104	1.4	8.80773E-001	9.10074E-005	0.00000E+000	8.01569E-005	5.39641E-002	8.80949E-001	3.57260E+000	9	...........
	105	1.41333	8.83158E-001	9.12554E-005	0.00000E+000	8.05929E-005	5.39641E-002	8.83358E-001	3.57260E+000	9	...........
	106	1.42667	8.85490E-001	9.10251E-005	0.00000E+000	8.06018E-005	5.39641E-002	8.85664E-001	3.57260E+000	9	...........
	107	1.44	8.87776E-001	9.12283E-005	0.00000E+000	8.09903E-005	5.39641E-002	8.87981E-001	3.57260E+000	9	...........
	108	1.45333	8.90089E-001	9.13023E-005	0.00000E+000	8.12672E-005	5.39641E-002	8.90272E-001	3.57260E+000	9	...........
	109	1.46667	8.92345E-001	9.09397E-005	0.00000E+000	8.11496E-005	5.39641E-002	8.92524E-001	3.57260E+000	9	...........
	110	1.48	8.94573E-001	9.11231E-005	0.00000E+000	8.15163E-005	5.39641E-002	8.94789E-001	3.57260E+000	9	...........
	111	1.49333	8.96830E-001	9.09272E-005	0.00000E+000	8.15463E-005	5.39641E-002	8.97014E-001	3.57260E+000	9	...........
	112	1.50667	8.99010E-001	9.08334E-005	0.00000E+000	8.16602E-005	5.39641E-002	8.99178E-001	3.57260E+000	9	...........
	113	1.52	9.01155E-001	9.11564E-005	0.00000E+000	8.21460E-005	5.39641E-002	9.01334E-001	3.57260E+000	9	...........
	114	1.53333	9.03308E-001	9.09449E-005	0.00000E+000	8.21513E-005	5.39641E-002	9.03480E-001	3.57260E+000	9	...........
	115	1.54667	9.05389E-001	9.12241E-005	0.00000E+000	8.25933E-005	5.39641E-002	9.05579E-001	3.57260E+000	9	...........
	116	1.56	9.07498E-001	9.10616E-005	0.00000E+000	8.26382E-005	5.39641E-002	9.07689E-001	3.57260E+000	9	...........
	117	1.57333	9.09598E-001	9.08063E-005	0.00000E+000	8.25972E-005	5.39641E-002	9.09762E-001	3.57260E+000	9	...........
	118	1.58667	9.11657E-001	9.09574E-005	0.00000E+000	8.29220E-005	5.39641E-002	9.11849E-001	3.57260E+000	9	...........
	119	1.6	9.13694E-001	9.11241E-005	0.00000E+000	8.32596E-005	5.39641E-002	9.13910E-001	3.57260E+000	9	...........
	120	1.61333	9.15696E-001	9.11012E-005	0.00000E+000	8.34210E-005	5.39641E-002	9.15932E-001	3.57260E+000	9	...........
	121	1.62667	9.17707E-001	9.08303E-005	0.00000E+000	8.33556E-005	5.39641E-002	9.17932E-001	3.57260E+000	9	...........
	122	1.64	9.19706E-001	9.10231E-005	0.00000E+000	8.37145E-005	5.39641E-002	9.19914E-001	3.57260E+000	9	...........
	123	1.65333	9.21738E-001	9.10283E-005	0.00000E+000	8.39042E-005	5.39641E-002	9.21887E-001	3.57260E+000	9	...........
	124	1.66667	9.23664E-001	9.12429E-005	0.00000E+000	8.42778E-005	5.39641E-002	9.23838E-001	3.57260E+000	9	...........
	125	1.68	9.25585E-001	9.10501E-005	0.00000E+000	8.42746E-005	5.39641E-002	9.25760E-001	3.57260E+000	9	...........
	126	1.69333	9.27494E-001	9.12346E-005	0.00000E+000	8.46195E-005	5.39641E-002	9.27676E-001	3.57260E+000	9	...........
	127	1.70667	9.29394E-001	9.08897E-005	0.00000E+000	8.44723E-005	5.39641E-002	9.29560E-001	3.57260E+000	9	...........
	128	1.72	9.31249E-001	9.09991E-005	0.00000E+000	8.47428E-005	5.39641E-002	9.31422E-001	3.57260E+000	9	...........
	129	1.73333	9.33094E-001	9.10137E-005	0.00000E+000	8.49243E-005	5.39641E-002	9.33272E-001	3.57260E+000	9	...........
	130	1.74667	9.34914E-001	9.10241E-005	0.00000E+000	8.50997E-005	5.39641E-002	9.35095E-001	3.57260E+000	9	...........
	131	1.76	9.36699E-001	9.11137E-005	0.00000E+000	8.53461E-005	5.39641E-002	9.36920E-001	3.57260E+000	9	...........
	132	1.77333	9.38502E-001	9.09960E-005	0.00000E+000	8.53999E-005	5.39641E-002	9.38729E-001	3.57260E+000	9	...........
	133	1.78667	9.40268E-001	9.10616E-005	0.00000E+000	8.56223E-005	5.39641E-002	9.40470E-001	3.57260E+000	9	...........
	134	1.8	9.42008E-001	9.10345E-005	0.00000E+000	8.57553E-005	5.39641E-002	9.42207E-001	3.57260E+000	9	...........
	135	1.81333	9.43743E-001	9.11960E-005	0.00000E+000	8.60656E-005	5.39641E-002	9.43951E-001	3.57260E+000	9	...........
	136	1.82667	9.45455E-001	9.09741E-005	0.00000E+000	8.60119E-005	5.39641E-002	9.45653E-001	3.57260E+000	9	...........
	137	1.84	9.47198E-001	9.11898E-005	0.00000E+000	8.63747E-005	5.39641E-002	9.47379E-001	3.57260E+000	9	...........
	138	1.85333	9.48897E-001	9.11012E-005	0.00000E+000	8.64457E-005	5.39641E-002	9.49058E-001	3.57260E+000	9	...........
	139	1.86667	9.50581E-001	9.12429E-005	0.00000E+000	8.67338E-005	5.39641E-002	9.50741E-001	3.57260E+000	9	...........
	140	1.88	9.52247E-001	9.12502E-005	0.00000E+000	8.68927E-005	5.39641E-002	9.52404E-001	3.57260E+000	9	...........
	141	1.89333	9.53904E-001	9.10887E-005	0.00000E+000	8.68899E-005	5.39641E-002	9.54045E-001	3.57260E+000	9	...........
	142	1.90667	9.55502E-001	9.09355E-005	0.00000E+000	8.68891E-005	5.39641E-002	9.55663E-001	3.57260E+000	9	...........
	143	1.92	9.57088E-001	9.09407E-005	0.00000E+000	8.70383E-005	5.39641E-002	9.57236E-001	3.57260E+000	9	...........
	144	1.93333	9.58662E-001	9.08980E-005	0.00000E+000	8.71405E-005	5.39641E-002	9.58820E-001	3.57260E+000	9	...........
	145	1.94667	9.60205E-001	9.09939E-005	0.00000E+000	8.73728E-005	5.39641E-002	9.60390E-001	3.57260E+000	9	...........
	146	1.96	9.61768E-001	9.10481E-005	0.00000E+000	8.75671E-005	5.39641E-002	9.61943E-001	3.57260E+000	9	...........
	147	1.97333	9.63301E-001	9.09876E-005	0.00000E+000	8.76485E-005	5.39641E-002	9.63466E-001	3.57260E+000	9	...........
	148	1.98667	9.64815E-001	9.10387E-005	0.00000E+000	8.78355E-005	5.39641E-002	9.64990E-001	3.57260E+000	9	...........
	149	2	9.66311E-001	9.11835E-005	0.00000E+000	8.81116E-005	5.39641E-002	9.66490E-001	3.57260E+000	9	...........
	150	2.01333	9.67790E-001	9.10126E-005	0.00000E+000	8.80811E-005	5.39641E-002	9.67973E-001	3.57260E+000	9	...........
	151	2.02667	9.69257E-001	9.10637E-005	0.00000E+000	8.82641E-005	5.39641E-002	9.69451E-001	3.57260E+000	9	...........
	152	2.04	9.70715E-001	9.11179E-005	0.00000E+000	8.84495E-005	5.39641E-002	9.70934E-001	3.57260E+000	9	...........
	153	2.05333	9.72191E-001	9.09168E-005	0.00000E+000	8.83885E-005	5.39641E-002	9.72391E-001	3.57260E+000	9	...........
	154	2.06667	9.73668E-001	9.10022E-005	0.00000E+000	8.86059E-005	5.39641E-002	9.73853E-001	3.57260E+000	9	...........
	155	2.08	9.75057E-001	9.10606E-005	0.00000E+000	8.87892E-005	5.39641E-002	9.75246E-001	3.57260E+000	9	...........
	156	2.09333	9.76464E-001	9.14679E-005	0.00000E+000	8.93151E-005	5.39641E-002	9.76656E-001	3.57260E+000	9	...........
	157	2.10667	9.77847E-001	9.09460E-005	0.00000E+000	8.89312E-005	5.39641E-002	9.78044E-001	3.57260E+000	9	...........
	158	2.12	9.79240E-001	9.10210E-005	0.00000E+000	8.91313E-005	5.39641E-002	9.79409E-001	3.57260E+000	9	...........
	159	2.13333	9.80613E-001	9.12179E-005	0.00000E+000	8.94494E-005	5.39641E-002	9.80794E-001	3.57260E+000	9	...........
	160	2.14667	9.81968E-001	9.10501E-005	0.00000E+000	8.94083E-005	5.39641E-002	9.82170E-001	3.57260E+000	9	...........
	161	2.16	9.83312E-001	9.13585E-005	0.00000E+000	8.98340E-005	5.39641E-002	9.83520E-001	3.57260E+000	9	...........
	162	2.17333	9.84638E-001	9.11085E-005	0.00000E+000	8.97089E-005	5.39641E-002	9.84842E-001	3.57260E+000	9	...........
	163	2.18667	9.85972E-001	9.08168E-005	0.00000E+000	8.95428E-005	5.39641E-002	9.86182E-001	3.57260E+000	9	...........
	164	2.2	9.87265E-001	9.10241E-005	0.00000E+000	8.98649E-005	5.39641E-002	9.87472E-001	3.57260E+000	9	...........
	165	2.21333	9.88542E-001	9.11356E-005	0.00000E+000	9.00913E-005	5.39641E-002	9.88706E-001	3.57260E+000	9	...........
	166	2.22667	9.89819E-001	9.11845E-005	0.00000E+000	9.02562E-005	5.39641E-002	9.89964E-001	3.57260E+000	9	...........
	167	2.24	9.91076E-001	9.09262E-005	0.00000E+000	9.01148E-005	5.39641E-002	9.91219E-001	3.57260E+000	9	...........
	168	2.25333	9.92294E-001	9.10064E-005	0.00000E+000	9.03051E-005	5.39641E-002	9.92489E-001	3.57260E+000	9	...........
	169	2.26667	9.93514E-001	9.14492E-005	0.00000E+000	9.08560E-005	5.39641E-002	9.93705E-001	3.57260E+000	9	...........
	170	2.28	9.94754E-001	9.11814E-005	0.00000E+000	9.07031E-005	5.39641E-002	9.94924E-001	3.57260E+000	9	...........
	171	2.29333	9.95931E-001	9.10585E-005	0.00000E+000	9.06879E-005	5.39641E-002	9.96119E-001	3.57260E+000	9	...........
	172	2.30667	9.97141E-001	9.12971E-005	0.00000E+000	9.10361E-005	5.39641E-002	9.97351E-001	3.57260E+000	9	...........
	173	2.32	9.98352E-001	9.10033E-005	0.00000E+000	9.08533E-005	5.39641E-002	9.98541E-001	3.57260E+000	9	...........
	174	2.33333	9.99540E-001	9.12189E-005	0.00000E+000	9.11769E-005	5.39641E-002	9.99717E-001	3.57260E+000	9	...........
STARTTIMEOFFSET	QUANT	1499.629	Start Time Offset (s)
