EXPLAIN
TAG	PWR800_CHARGE
TITLE	LABEL	PWR Cyclic Charge Discharge (Cell) - Charge Step	Test &Identifier
DATE	LABEL	10-7-2017	Date
TIME	LABEL	15:12:21	Time
NOTES	NOTES	3	&Notes...
	supercap test cell
	0.9mg
	6M KOH
PSTAT	PSTAT	IFC5000-01520	Potentiostat
CAPACITY	QUANT	1.00000E-003	Capacity (A-hr)
CELLTYPE	SELECTOR	1	&Cell Type
WORKINGCONNECTION	SELECTOR	0	&Working Lead
MAXCHARGETIME	VARIABLEANDUNITS	1.00000E+002	s	1.00000E+002	second(s)	Max &Charge Time
CHARGECURRENT	QUANT	9.00000E-005	&Charge Current (A) 
VOLTAGEFINISH	TWOPARAM	F	1.00000E-003	3.60000E+003	&Voltage Finish	 I (A) < 	Max Time(s)
SAMPLETIME	QUANT	1.00000E-002	Sa&mple Period (s)
CHARGESTOPAT1	MULTIPARAM	4	1.00000E+000	Charge Stop At &1	Voltage > Limit	V
CHARGESTOPAT2	MULTIPARAM	0	0.00000E+000	Charge Stop At &2	None	N/A
AESBHCSELECTOR	TOGGLE	F	Save Both Half Cells
IRCOMP	TOGGLE	F	IR &Measure
EOC	QUANT	0	Open Circuit (V)
SEQUENCER	TOGGLE	TRUE	Run as Sequence
PSTATMODEL	IQUANT	53	Pstat Model
PSTATSECTION	LABEL	IFC5000-01520	Pstat Section
PSTATSERIALNO	LABEL	01520	Pstat Serial Number
CTRLMODE	IQUANT	0	Control Mode
ELECTROMETER	IQUANT	1	RE=0 or CS=1
IESTAB	IQUANT	0	I/E Stability
CASPEED	IQUANT	4	Control Amp Speed
CONVENTION	IQUANT	1	Current Convention
ICHRANGE	IQUANT	2	Ich Range
ICHRANGEMODE	TOGGLE	T	Ich Auto Range
ICHOFFSETENABLE	TOGGLE	F	Ich Offset Enable
ICHOFFSET	QUANT	0	Ich Offset (V)
ICHFILTER	IQUANT	1	Ich Filter
VCHRANGE	IQUANT	2	Vch Range
VCHRANGEMODE	TOGGLE	T	Vch Auto Range
VCHOFFSETENABLE	TOGGLE	F	Vch Offset Enable
VCHOFFSET	QUANT	0	Vch Offset (V)
VCHFILTER	IQUANT	1	Vch Filter
IERANGELOWERLIMIT	IQUANT	9	I/E Range Lower Limit
IERANGEMODE	TOGGLE	F	I/E AutoRange
IERANGE	IQUANT	9	I/E Range
ACHSELECT	IQUANT	1	Ach Select
ACHRANGE	IQUANT	2	Ach Range
ACHOFFSETENABLE	TOGGLE	F	Ach Offset Enable
ACHOFFSET	QUANT	0	Ach Offset (V)
ACHFILTER	IQUANT	1	Ach Filter
CABLEID	IQUANT	14	Cable ID
DCCALDATE	LABEL	5-7-2017	DC Calibration Date
ACCALDATE	LABEL	12/3/2015	AC Calibration Date
FRAMEWORKVERSION	QUANT	7.01	Framework Version
INSTRUMENTVERSION	LABEL	4.00	Instrument Version
CURVE	TABLE	183
	Pt	T	Vf	Im	Vu	Pwr	Sig	Ach	Temp	IERange	Over
	#	s	V	A	V	W	V	V	deg C	#	bits
	0	0.013333	2.88246E-001	9.10918E-005	0.00000E+000	2.62569E-005	5.39641E-002	2.88301E-001	3.57210E+000	9	...........
	1	0.026667	3.07517E-001	9.10699E-005	0.00000E+000	2.80055E-005	5.39641E-002	3.07554E-001	3.57210E+000	9	...........
	2	0.04	3.25287E-001	9.12543E-005	0.00000E+000	2.96838E-005	5.39641E-002	3.25325E-001	3.57210E+000	9	...........
	3	0.053333	3.41836E-001	9.09855E-005	0.00000E+000	3.11022E-005	5.39641E-002	3.41866E-001	3.57210E+000	9	...........
	4	0.066667	3.57367E-001	9.09616E-005	0.00000E+000	3.25067E-005	5.39641E-002	3.57404E-001	3.57210E+000	9	...........
	5	0.08	3.72035E-001	9.11262E-005	0.00000E+000	3.39021E-005	5.39641E-002	3.72067E-001	3.57210E+000	9	...........
	6	0.093333	3.85919E-001	9.10428E-005	0.00000E+000	3.51352E-005	5.39641E-002	3.85956E-001	3.57210E+000	9	...........
	7	0.106667	3.99131E-001	9.11325E-005	0.00000E+000	3.63738E-005	5.39641E-002	3.99169E-001	3.57210E+000	9	...........
	8	0.12	4.11737E-001	9.10949E-005	0.00000E+000	3.75072E-005	5.39641E-002	4.11782E-001	3.57210E+000	9	...........
	9	0.133333	4.23806E-001	9.10147E-005	0.00000E+000	3.85726E-005	5.39641E-002	4.23852E-001	3.57210E+000	9	...........
	10	0.146667	4.35372E-001	9.11012E-005	0.00000E+000	3.96629E-005	5.39641E-002	4.35420E-001	3.57210E+000	9	...........
	11	0.16	4.46479E-001	9.10366E-005	0.00000E+000	4.06460E-005	5.39641E-002	4.46524E-001	3.57210E+000	9	...........
	12	0.173333	4.57162E-001	9.10324E-005	0.00000E+000	4.16166E-005	5.39641E-002	4.57207E-001	3.57210E+000	9	...........
	13	0.186667	4.67461E-001	9.14179E-005	0.00000E+000	4.27343E-005	5.39641E-002	4.67508E-001	3.57210E+000	9	...........
	14	0.2	4.77400E-001	9.10043E-005	0.00000E+000	4.34455E-005	5.39641E-002	4.77452E-001	3.57210E+000	9	...........
	15	0.213333	4.87018E-001	9.10574E-005	0.00000E+000	4.43466E-005	5.39641E-002	4.87067E-001	3.57210E+000	9	...........
	16	0.226667	4.96320E-001	9.10835E-005	0.00000E+000	4.52066E-005	5.39641E-002	4.96378E-001	3.57210E+000	9	...........
	17	0.24	5.05338E-001	9.13367E-005	0.00000E+000	4.61559E-005	5.39641E-002	5.05392E-001	3.57210E+000	9	...........
	18	0.253333	5.14072E-001	9.11085E-005	0.00000E+000	4.68364E-005	5.39641E-002	5.14136E-001	3.57210E+000	9	...........
	19	0.266667	5.22557E-001	9.09658E-005	0.00000E+000	4.75348E-005	5.39641E-002	5.22620E-001	3.57210E+000	9	...........
	20	0.28	5.30801E-001	9.09043E-005	0.00000E+000	4.82521E-005	5.39641E-002	5.30854E-001	3.57210E+000	9	...........
	21	0.293333	5.38793E-001	9.10449E-005	0.00000E+000	4.90544E-005	5.39641E-002	5.38849E-001	3.57210E+000	9	...........
	22	0.306667	5.46587E-001	9.10887E-005	0.00000E+000	4.97879E-005	5.39641E-002	5.46649E-001	3.57210E+000	9	...........
	23	0.32	5.54179E-001	9.11439E-005	0.00000E+000	5.05100E-005	5.39641E-002	5.54267E-001	3.57210E+000	9	...........
	24	0.333333	5.61598E-001	9.10689E-005	0.00000E+000	5.11441E-005	5.39641E-002	5.61705E-001	3.57210E+000	9	...........
	25	0.346667	5.68863E-001	9.15732E-005	0.00000E+000	5.20926E-005	5.39641E-002	5.68946E-001	3.57210E+000	9	...........
	26	0.36	5.75883E-001	9.12273E-005	0.00000E+000	5.25362E-005	5.39641E-002	5.76005E-001	3.57210E+000	9	...........
	27	0.373333	5.82733E-001	9.11950E-005	0.00000E+000	5.31423E-005	5.39641E-002	5.82861E-001	3.57210E+000	9	...........
	28	0.386667	5.89491E-001	9.09918E-005	0.00000E+000	5.36388E-005	5.39641E-002	5.89603E-001	3.57210E+000	9	...........
	29	0.4	5.96060E-001	9.12762E-005	0.00000E+000	5.44062E-005	5.39641E-002	5.96152E-001	3.57210E+000	9	...........
	30	0.413333	6.02464E-001	9.11460E-005	0.00000E+000	5.49122E-005	5.39641E-002	6.02586E-001	3.57210E+000	9	...........
	31	0.426667	6.08741E-001	9.10804E-005	0.00000E+000	5.54444E-005	5.39641E-002	6.08855E-001	3.57210E+000	9	...........
	32	0.44	6.14929E-001	9.11137E-005	0.00000E+000	5.60284E-005	5.39641E-002	6.15020E-001	3.57210E+000	9	...........
	33	0.453333	6.20965E-001	9.12043E-005	0.00000E+000	5.66347E-005	5.39641E-002	6.21023E-001	3.57210E+000	9	...........
	34	0.466667	6.26834E-001	9.10960E-005	0.00000E+000	5.71021E-005	5.39641E-002	6.26903E-001	3.57210E+000	9	...........
	35	0.48	6.32566E-001	9.14211E-005	0.00000E+000	5.78299E-005	5.39641E-002	6.32651E-001	3.57210E+000	9	...........
	36	0.493333	6.38240E-001	9.12637E-005	0.00000E+000	5.82481E-005	5.39641E-002	6.38333E-001	3.57210E+000	9	...........
	37	0.506667	6.43783E-001	9.08314E-005	0.00000E+000	5.84757E-005	5.39641E-002	6.43877E-001	3.57210E+000	9	...........
	38	0.52	6.49203E-001	9.10210E-005	0.00000E+000	5.90910E-005	5.39641E-002	6.49321E-001	3.57210E+000	9	...........
	39	0.533333	6.54551E-001	9.10303E-005	0.00000E+000	5.95840E-005	5.39641E-002	6.54678E-001	3.57210E+000	9	...........
	40	0.546667	6.59778E-001	9.11304E-005	0.00000E+000	6.01258E-005	5.39641E-002	6.59887E-001	3.57210E+000	9	...........
	41	0.56	6.64906E-001	9.09439E-005	0.00000E+000	6.04691E-005	5.39641E-002	6.65049E-001	3.57210E+000	9	...........
	42	0.573333	6.69960E-001	9.13898E-005	0.00000E+000	6.12275E-005	5.39641E-002	6.70069E-001	3.57210E+000	9	...........
	43	0.586667	6.74898E-001	9.12075E-005	0.00000E+000	6.15558E-005	5.39641E-002	6.75018E-001	3.57210E+000	9	...........
	44	0.6	6.79755E-001	9.08168E-005	0.00000E+000	6.17332E-005	5.39641E-002	6.79905E-001	3.57210E+000	9	...........
	45	0.613333	6.84526E-001	9.10533E-005	0.00000E+000	6.23283E-005	5.39641E-002	6.84633E-001	3.57210E+000	9	...........
	46	0.626667	6.89210E-001	9.09491E-005	0.00000E+000	6.26830E-005	5.39641E-002	6.89345E-001	3.57210E+000	9	...........
	47	0.64	6.93855E-001	9.12575E-005	0.00000E+000	6.33195E-005	5.39641E-002	6.93965E-001	3.57210E+000	9	...........
	48	0.653333	6.98358E-001	9.10856E-005	0.00000E+000	6.36104E-005	5.39641E-002	6.98497E-001	3.57210E+000	9	...........
	49	0.666667	7.02836E-001	9.11377E-005	0.00000E+000	6.40548E-005	5.39641E-002	7.02960E-001	3.57210E+000	9	...........
	50	0.68	7.07217E-001	9.11950E-005	0.00000E+000	6.44946E-005	5.39641E-002	7.07358E-001	3.57210E+000	9	...........
	51	0.693333	7.11534E-001	9.13867E-005	0.00000E+000	6.50248E-005	5.39641E-002	7.11675E-001	3.57210E+000	9	...........
	52	0.706667	7.15802E-001	9.10449E-005	0.00000E+000	6.51702E-005	5.39641E-002	7.15931E-001	3.57210E+000	9	...........
	53	0.72	7.20021E-001	9.12033E-005	0.00000E+000	6.56683E-005	5.39641E-002	7.20140E-001	3.57210E+000	9	...........
	54	0.733333	7.24155E-001	9.10199E-005	0.00000E+000	6.59126E-005	5.39641E-002	7.24279E-001	3.57210E+000	9	...........
	55	0.746667	7.28236E-001	9.12523E-005	0.00000E+000	6.64531E-005	5.39641E-002	7.28338E-001	3.57210E+000	9	...........
	56	0.76	7.32242E-001	9.10137E-005	0.00000E+000	6.66440E-005	5.39641E-002	7.32381E-001	3.57210E+000	9	...........
	57	0.773333	7.36186E-001	9.13408E-005	0.00000E+000	6.72438E-005	5.39641E-002	7.36304E-001	3.57210E+000	9	...........
	58	0.786667	7.40065E-001	9.09012E-005	0.00000E+000	6.72728E-005	5.39641E-002	7.40180E-001	3.57210E+000	9	...........
	59	0.8	7.43931E-001	9.12846E-005	0.00000E+000	6.79095E-005	5.39641E-002	7.44021E-001	3.57210E+000	9	...........
	60	0.813333	7.47728E-001	9.10699E-005	0.00000E+000	6.80955E-005	5.39641E-002	7.47820E-001	3.57210E+000	9	...........
	61	0.826667	7.51444E-001	9.10668E-005	0.00000E+000	6.84316E-005	5.39641E-002	7.51575E-001	3.57210E+000	9	...........
	62	0.84	7.55143E-001	9.10772E-005	0.00000E+000	6.87763E-005	5.39641E-002	7.55250E-001	3.57210E+000	9	...........
	63	0.853333	7.58769E-001	9.11481E-005	0.00000E+000	6.91604E-005	5.39641E-002	7.58873E-001	3.57210E+000	9	...........
	64	0.866667	7.62361E-001	9.09366E-005	0.00000E+000	6.93265E-005	5.39641E-002	7.62459E-001	3.57210E+000	9	...........
	65	0.88	7.65854E-001	9.10908E-005	0.00000E+000	6.97623E-005	5.39641E-002	7.65994E-001	3.57210E+000	9	...........
	66	0.893333	7.69410E-001	9.12325E-005	0.00000E+000	7.01951E-005	5.39641E-002	7.69524E-001	3.57210E+000	9	...........
	67	0.906667	7.72843E-001	9.10158E-005	0.00000E+000	7.03409E-005	5.39641E-002	7.72952E-001	3.57235E+000	9	...........
	68	0.92	7.76251E-001	9.08449E-005	0.00000E+000	7.05184E-005	5.39641E-002	7.76376E-001	3.57310E+000	9	...........
	69	0.933333	7.79603E-001	9.11877E-005	0.00000E+000	7.10902E-005	5.39641E-002	7.79734E-001	3.57310E+000	9	...........
	70	0.946667	7.82951E-001	9.09366E-005	0.00000E+000	7.11989E-005	5.39641E-002	7.83076E-001	3.57310E+000	9	...........
	71	0.96	7.86224E-001	9.08730E-005	0.00000E+000	7.14466E-005	5.39641E-002	7.86347E-001	3.57310E+000	9	...........
	72	0.97333	7.89487E-001	9.10324E-005	0.00000E+000	7.18689E-005	5.39641E-002	7.89602E-001	3.57310E+000	9	...........
	73	0.98667	7.92676E-001	9.11668E-005	0.00000E+000	7.22657E-005	5.39641E-002	7.92814E-001	3.57310E+000	9	...........
	74	1	7.95873E-001	9.11543E-005	0.00000E+000	7.25473E-005	5.39641E-002	7.95982E-001	3.57310E+000	9	...........
	75	1.01333	7.98958E-001	9.10366E-005	0.00000E+000	7.27344E-005	5.39641E-002	7.99072E-001	3.57310E+000	9	...........
	76	1.02667	8.02025E-001	9.10637E-005	0.00000E+000	7.30354E-005	5.39641E-002	8.02125E-001	3.57310E+000	9	...........
	77	1.04	8.05035E-001	9.11523E-005	0.00000E+000	7.33808E-005	5.39641E-002	8.05172E-001	3.57310E+000	9	...........
	78	1.05333	8.08053E-001	9.09137E-005	0.00000E+000	7.34630E-005	5.39641E-002	8.08196E-001	3.57310E+000	9	...........
	79	1.06667	8.11009E-001	9.10126E-005	0.00000E+000	7.38120E-005	5.39641E-002	8.11157E-001	3.57310E+000	9	...........
	80	1.08	8.13941E-001	9.11720E-005	0.00000E+000	7.42087E-005	5.39641E-002	8.14102E-001	3.57310E+000	9	...........
	81	1.09333	8.16832E-001	9.11272E-005	0.00000E+000	7.44357E-005	5.39641E-002	8.17011E-001	3.57310E+000	9	...........
	82	1.10667	8.19734E-001	9.13419E-005	0.00000E+000	7.48761E-005	5.39641E-002	8.19895E-001	3.57310E+000	9	...........
	83	1.12	8.22552E-001	9.10731E-005	0.00000E+000	7.49123E-005	5.39641E-002	8.22727E-001	3.57310E+000	9	...........
	84	1.13333	8.25370E-001	9.10929E-005	0.00000E+000	7.51853E-005	5.39641E-002	8.25552E-001	3.57310E+000	9	...........
	85	1.14667	8.28140E-001	9.11210E-005	0.00000E+000	7.54609E-005	5.39641E-002	8.28291E-001	3.57310E+000	9	...........
	86	1.16	8.30886E-001	9.12762E-005	0.00000E+000	7.58401E-005	5.39641E-002	8.31047E-001	3.57310E+000	9	...........
	87	1.17333	8.33613E-001	9.11814E-005	0.00000E+000	7.60100E-005	5.39641E-002	8.33787E-001	3.57310E+000	9	...........
	88	1.18667	8.36300E-001	9.11554E-005	0.00000E+000	7.62333E-005	5.39641E-002	8.36493E-001	3.57310E+000	9	...........
	89	1.2	8.38974E-001	9.11658E-005	0.00000E+000	7.64857E-005	5.39641E-002	8.39153E-001	3.57310E+000	9	...........
	90	1.21333	8.41619E-001	9.12606E-005	0.00000E+000	7.68066E-005	5.39641E-002	8.41773E-001	3.57310E+000	9	...........
	91	1.22667	8.44227E-001	9.11085E-005	0.00000E+000	7.69163E-005	5.39641E-002	8.44397E-001	3.57310E+000	9	...........
	92	1.24	8.46828E-001	9.11950E-005	0.00000E+000	7.72265E-005	5.39641E-002	8.46997E-001	3.57310E+000	9	...........
	93	1.25333	8.49382E-001	9.13106E-005	0.00000E+000	7.75576E-005	5.39641E-002	8.49556E-001	3.57310E+000	9	...........
	94	1.26667	8.51913E-001	9.12106E-005	0.00000E+000	7.77035E-005	5.39641E-002	8.52076E-001	3.57310E+000	9	...........
	95	1.28	8.54418E-001	9.11199E-005	0.00000E+000	7.78546E-005	5.39641E-002	8.54603E-001	3.57310E+000	9	...........
	96	1.29333	8.56889E-001	9.12012E-005	0.00000E+000	7.81494E-005	5.39641E-002	8.57089E-001	3.57310E+000	9	...........
	97	1.30667	8.59347E-001	9.09553E-005	0.00000E+000	7.81621E-005	5.39641E-002	8.59536E-001	3.57310E+000	9	...........
	98	1.32	8.61796E-001	9.11408E-005	0.00000E+000	7.85448E-005	5.39641E-002	8.61953E-001	3.57310E+000	9	...........
	99	1.33333	8.64198E-001	9.10564E-005	0.00000E+000	7.86908E-005	5.39641E-002	8.64359E-001	3.57310E+000	9	...........
	100	1.34667	8.66564E-001	9.11272E-005	0.00000E+000	7.89676E-005	5.39641E-002	8.66717E-001	3.57310E+000	9	...........
	101	1.36	8.68930E-001	9.12939E-005	0.00000E+000	7.93281E-005	5.39641E-002	8.69106E-001	3.57310E+000	9	...........
	102	1.37333	8.71291E-001	9.11908E-005	0.00000E+000	7.94537E-005	5.39641E-002	8.71428E-001	3.57310E+000	9	...........
	103	1.38667	8.73579E-001	9.13179E-005	0.00000E+000	7.97734E-005	5.39641E-002	8.73718E-001	3.57310E+000	9	...........
	104	1.4	8.75846E-001	9.10428E-005	0.00000E+000	7.97395E-005	5.39641E-002	8.75981E-001	3.57310E+000	9	...........
	105	1.41333	8.78097E-001	9.10981E-005	0.00000E+000	7.99930E-005	5.39641E-002	8.78224E-001	3.57310E+000	9	...........
	106	1.42667	8.80312E-001	9.12304E-005	0.00000E+000	8.03112E-005	5.39641E-002	8.80448E-001	3.57310E+000	9	...........
	107	1.44	8.82530E-001	9.11845E-005	0.00000E+000	8.04731E-005	5.39641E-002	8.82668E-001	3.57310E+000	9	...........
	108	1.45333	8.84726E-001	9.08074E-005	0.00000E+000	8.03396E-005	5.39641E-002	8.84879E-001	3.57310E+000	9	...........
	109	1.46667	8.86890E-001	9.11960E-005	0.00000E+000	8.08809E-005	5.39641E-002	8.87062E-001	3.57310E+000	9	...........
	110	1.48	8.89063E-001	9.12491E-005	0.00000E+000	8.11262E-005	5.39641E-002	8.89198E-001	3.57310E+000	9	...........
	111	1.49333	8.91191E-001	9.10647E-005	0.00000E+000	8.11561E-005	5.39641E-002	8.91351E-001	3.57310E+000	9	...........
	112	1.50667	8.93272E-001	9.09532E-005	0.00000E+000	8.12459E-005	5.39641E-002	8.93439E-001	3.57310E+000	9	...........
	113	1.52	8.95377E-001	9.12377E-005	0.00000E+000	8.16922E-005	5.39641E-002	8.95559E-001	3.57310E+000	9	...........
	114	1.53333	8.97472E-001	9.12669E-005	0.00000E+000	8.19094E-005	5.39641E-002	8.97613E-001	3.57310E+000	9	...........
	115	1.54667	8.99503E-001	9.12752E-005	0.00000E+000	8.21023E-005	5.39641E-002	8.99662E-001	3.57310E+000	9	...........
	116	1.56	9.01501E-001	9.09251E-005	0.00000E+000	8.19691E-005	5.39641E-002	9.01678E-001	3.57310E+000	9	...........
	117	1.57333	9.03518E-001	9.11283E-005	0.00000E+000	8.23360E-005	5.39641E-002	9.03702E-001	3.57310E+000	9	...........
	118	1.58667	9.05516E-001	9.12231E-005	0.00000E+000	8.26040E-005	5.39641E-002	9.05703E-001	3.57310E+000	9	...........
	119	1.6	9.07488E-001	9.12637E-005	0.00000E+000	8.28207E-005	5.39641E-002	9.07694E-001	3.57310E+000	9	...........
	120	1.61333	9.09431E-001	9.09220E-005	0.00000E+000	8.26873E-005	5.39641E-002	9.09610E-001	3.57310E+000	9	...........
	121	1.62667	9.11361E-001	9.14200E-005	0.00000E+000	8.33166E-005	5.39641E-002	9.11530E-001	3.57310E+000	9	...........
	122	1.64	9.13274E-001	9.09241E-005	0.00000E+000	8.30386E-005	5.39641E-002	9.13458E-001	3.57310E+000	9	...........
	123	1.65333	9.15185E-001	9.12252E-005	0.00000E+000	8.34879E-005	5.39641E-002	9.15405E-001	3.57310E+000	9	...........
	124	1.66667	9.17072E-001	9.11314E-005	0.00000E+000	8.35740E-005	5.39641E-002	9.17270E-001	3.57310E+000	9	...........
	125	1.68	9.18936E-001	9.11991E-005	0.00000E+000	8.38062E-005	5.39641E-002	9.19152E-001	3.57310E+000	9	...........
	126	1.69333	9.20839E-001	9.08834E-005	0.00000E+000	8.36890E-005	5.39641E-002	9.20997E-001	3.57310E+000	9	...........
	127	1.70667	9.22674E-001	9.08501E-005	0.00000E+000	8.38250E-005	5.39641E-002	9.22828E-001	3.57310E+000	9	...........
	128	1.72	9.24479E-001	9.10710E-005	0.00000E+000	8.41932E-005	5.39641E-002	9.24657E-001	3.57310E+000	9	...........
	129	1.73333	9.26264E-001	9.11408E-005	0.00000E+000	8.44204E-005	5.39641E-002	9.26440E-001	3.57310E+000	9	...........
	130	1.74667	9.28067E-001	9.10085E-005	0.00000E+000	8.44620E-005	5.39641E-002	9.28203E-001	3.57310E+000	9	...........
	131	1.76	9.29811E-001	9.11668E-005	0.00000E+000	8.47680E-005	5.39641E-002	9.29969E-001	3.57310E+000	9	...........
	132	1.77333	9.31553E-001	9.11147E-005	0.00000E+000	8.48782E-005	5.39641E-002	9.31704E-001	3.57310E+000	9	...........
	133	1.78667	9.33264E-001	9.11127E-005	0.00000E+000	8.50321E-005	5.39641E-002	9.33433E-001	3.57310E+000	9	...........
	134	1.8	9.34986E-001	9.11450E-005	0.00000E+000	8.52192E-005	5.39641E-002	9.35135E-001	3.57310E+000	9	...........
	135	1.81333	9.36701E-001	9.11460E-005	0.00000E+000	8.53766E-005	5.39641E-002	9.36844E-001	3.57310E+000	9	...........
	136	1.82667	9.38366E-001	9.11043E-005	0.00000E+000	8.54892E-005	5.39641E-002	9.38541E-001	3.57310E+000	9	...........
	137	1.84	9.40031E-001	9.10751E-005	0.00000E+000	8.56135E-005	5.39641E-002	9.40205E-001	3.57310E+000	9	...........
	138	1.85333	9.41682E-001	9.10741E-005	0.00000E+000	8.57628E-005	5.39641E-002	9.41831E-001	3.57310E+000	9	...........
	139	1.86667	9.43315E-001	9.12012E-005	0.00000E+000	8.60315E-005	5.39641E-002	9.43469E-001	3.57310E+000	9	...........
	140	1.88	9.44938E-001	9.12637E-005	0.00000E+000	8.62386E-005	5.39641E-002	9.45088E-001	3.57310E+000	9	...........
	141	1.89333	9.46539E-001	9.10751E-005	0.00000E+000	8.62062E-005	5.39641E-002	9.46684E-001	3.57310E+000	9	...........
	142	1.90667	9.48129E-001	9.10272E-005	0.00000E+000	8.63056E-005	5.39641E-002	9.48269E-001	3.57288E+000	9	...........
	143	1.92	9.49670E-001	9.11512E-005	0.00000E+000	8.65636E-005	5.39641E-002	9.49828E-001	3.57220E+000	9	...........
	144	1.93333	9.51207E-001	9.10710E-005	0.00000E+000	8.66273E-005	5.39641E-002	9.51369E-001	3.57220E+000	9	...........
	145	1.94667	9.52732E-001	9.10085E-005	0.00000E+000	8.67067E-005	5.39641E-002	9.52900E-001	3.57220E+000	9	...........
	146	1.96	9.54259E-001	9.09949E-005	0.00000E+000	8.68327E-005	5.39641E-002	9.54411E-001	3.57220E+000	9	...........
	147	1.97333	9.55742E-001	9.13221E-005	0.00000E+000	8.72804E-005	5.39641E-002	9.55888E-001	3.57220E+000	9	...........
	148	1.98667	9.57225E-001	9.11606E-005	0.00000E+000	8.72612E-005	5.39641E-002	9.57394E-001	3.57220E+000	9	...........
	149	2	9.58707E-001	9.11502E-005	0.00000E+000	8.73863E-005	5.39641E-002	9.58923E-001	3.57220E+000	9	...........
	150	2.01333	9.60161E-001	9.09116E-005	0.00000E+000	8.72898E-005	5.39641E-002	9.60389E-001	3.57220E+000	9	...........
	151	2.02667	9.61631E-001	9.11762E-005	0.00000E+000	8.76778E-005	5.39641E-002	9.61824E-001	3.57220E+000	9	...........
	152	2.04	9.63075E-001	9.10929E-005	0.00000E+000	8.77292E-005	5.39641E-002	9.63258E-001	3.57220E+000	9	...........
	153	2.05333	9.64493E-001	9.10272E-005	0.00000E+000	8.77951E-005	5.39641E-002	9.64701E-001	3.57220E+000	9	...........
	154	2.06667	9.65900E-001	9.11408E-005	0.00000E+000	8.80329E-005	5.39641E-002	9.66098E-001	3.57220E+000	9	...........
	155	2.08	9.67291E-001	9.12387E-005	0.00000E+000	8.82544E-005	5.39641E-002	9.67494E-001	3.57220E+000	9	...........
	156	2.09333	9.68662E-001	9.13231E-005	0.00000E+000	8.84612E-005	5.39641E-002	9.68871E-001	3.57220E+000	9	...........
	157	2.10667	9.70051E-001	9.12231E-005	0.00000E+000	8.84911E-005	5.39641E-002	9.70241E-001	3.57220E+000	9	...........
	158	2.12	9.71392E-001	9.11137E-005	0.00000E+000	8.85071E-005	5.39641E-002	9.71628E-001	3.57220E+000	9	...........
	159	2.13333	9.72792E-001	9.11689E-005	0.00000E+000	8.86884E-005	5.39641E-002	9.72969E-001	3.57220E+000	9	...........
	160	2.14667	9.74128E-001	9.10147E-005	0.00000E+000	8.86600E-005	5.39641E-002	9.74303E-001	3.57220E+000	9	...........
	161	2.16	9.75426E-001	9.10908E-005	0.00000E+000	8.88523E-005	5.39641E-002	9.75593E-001	3.57220E+000	9	...........
	162	2.17333	9.76724E-001	9.12471E-005	0.00000E+000	8.91232E-005	5.39641E-002	9.76889E-001	3.57220E+000	9	...........
	163	2.18667	9.78020E-001	9.11314E-005	0.00000E+000	8.91284E-005	5.39641E-002	9.78195E-001	3.57220E+000	9	...........
	164	2.2	9.79307E-001	9.09960E-005	0.00000E+000	8.91130E-005	5.39641E-002	9.79471E-001	3.57220E+000	9	...........
	165	2.21333	9.80578E-001	9.12960E-005	0.00000E+000	8.95228E-005	5.39641E-002	9.80734E-001	3.57220E+000	9	...........
	166	2.22667	9.81844E-001	9.11366E-005	0.00000E+000	8.94820E-005	5.39641E-002	9.82025E-001	3.57220E+000	9	...........
	167	2.24	9.83091E-001	9.11033E-005	0.00000E+000	8.95628E-005	5.39641E-002	9.83265E-001	3.57220E+000	9	...........
	168	2.25333	9.84330E-001	9.12168E-005	0.00000E+000	8.97875E-005	5.39641E-002	9.84532E-001	3.57220E+000	9	...........
	169	2.26667	9.85563E-001	9.10554E-005	0.00000E+000	8.97408E-005	5.39641E-002	9.85751E-001	3.57220E+000	9	...........
	170	2.28	9.86770E-001	9.11564E-005	0.00000E+000	8.99504E-005	5.39641E-002	9.86980E-001	3.57220E+000	9	...........
	171	2.29333	9.88005E-001	9.12418E-005	0.00000E+000	9.01474E-005	5.39641E-002	9.88225E-001	3.57220E+000	9	...........
	172	2.30667	9.89237E-001	9.09751E-005	0.00000E+000	8.99960E-005	5.39641E-002	9.89411E-001	3.57220E+000	9	...........
	173	2.32	9.90421E-001	9.10116E-005	0.00000E+000	9.01398E-005	5.39641E-002	9.90589E-001	3.57220E+000	9	...........
	174	2.33333	9.91560E-001	9.11502E-005	0.00000E+000	9.03809E-005	5.39641E-002	9.91752E-001	3.57220E+000	9	...........
	175	2.34667	9.92728E-001	9.12585E-005	0.00000E+000	9.05949E-005	5.39641E-002	9.92917E-001	3.57220E+000	9	...........
	176	2.36	9.93863E-001	9.11137E-005	0.00000E+000	9.05545E-005	5.39641E-002	9.94044E-001	3.57220E+000	9	...........
	177	2.37333	9.95050E-001	9.11095E-005	0.00000E+000	9.06586E-005	5.39641E-002	9.95210E-001	3.57220E+000	9	...........
	178	2.38667	9.96165E-001	9.11168E-005	0.00000E+000	9.07674E-005	5.39641E-002	9.96350E-001	3.57220E+000	9	...........
	179	2.4	9.97289E-001	9.10147E-005	0.00000E+000	9.07680E-005	5.39641E-002	9.97495E-001	3.57220E+000	9	...........
	180	2.41333	9.98424E-001	9.13075E-005	0.00000E+000	9.11636E-005	5.39641E-002	9.98599E-001	3.57220E+000	9	...........
	181	2.42667	9.99535E-001	9.10731E-005	0.00000E+000	9.10307E-005	5.39641E-002	9.99715E-001	3.57220E+000	9	...........
	182	2.42833	1.00014E+000	9.04542E-005	0.00000E+000	9.04665E-005	5.39641E-002	1.00030E+000	3.57220E+000	9	...........
STARTTIMEOFFSET	QUANT	665.8165	Start Time Offset (s)
