EXPLAIN
TAG	PWR800_CHARGE
TITLE	LABEL	PWR Cyclic Charge Discharge (Cell) - Charge Step	Test &Identifier
DATE	LABEL	10-7-2017	Date
TIME	LABEL	15:13:37	Time
NOTES	NOTES	3	&Notes...
	supercap test cell
	0.9mg
	6M KOH
PSTAT	PSTAT	IFC5000-01520	Potentiostat
CAPACITY	QUANT	1.00000E-003	Capacity (A-hr)
CELLTYPE	SELECTOR	1	&Cell Type
WORKINGCONNECTION	SELECTOR	0	&Working Lead
MAXCHARGETIME	VARIABLEANDUNITS	1.00000E+002	s	1.00000E+002	second(s)	Max &Charge Time
CHARGECURRENT	QUANT	9.00000E-005	&Charge Current (A) 
VOLTAGEFINISH	TWOPARAM	F	1.00000E-003	3.60000E+003	&Voltage Finish	 I (A) < 	Max Time(s)
SAMPLETIME	QUANT	1.00000E-002	Sa&mple Period (s)
CHARGESTOPAT1	MULTIPARAM	4	1.00000E+000	Charge Stop At &1	Voltage > Limit	V
CHARGESTOPAT2	MULTIPARAM	0	0.00000E+000	Charge Stop At &2	None	N/A
AESBHCSELECTOR	TOGGLE	F	Save Both Half Cells
IRCOMP	TOGGLE	F	IR &Measure
EOC	QUANT	0	Open Circuit (V)
SEQUENCER	TOGGLE	TRUE	Run as Sequence
PSTATMODEL	IQUANT	53	Pstat Model
PSTATSECTION	LABEL	IFC5000-01520	Pstat Section
PSTATSERIALNO	LABEL	01520	Pstat Serial Number
CTRLMODE	IQUANT	0	Control Mode
ELECTROMETER	IQUANT	1	RE=0 or CS=1
IESTAB	IQUANT	0	I/E Stability
CASPEED	IQUANT	4	Control Amp Speed
CONVENTION	IQUANT	1	Current Convention
ICHRANGE	IQUANT	2	Ich Range
ICHRANGEMODE	TOGGLE	T	Ich Auto Range
ICHOFFSETENABLE	TOGGLE	F	Ich Offset Enable
ICHOFFSET	QUANT	0	Ich Offset (V)
ICHFILTER	IQUANT	1	Ich Filter
VCHRANGE	IQUANT	2	Vch Range
VCHRANGEMODE	TOGGLE	T	Vch Auto Range
VCHOFFSETENABLE	TOGGLE	F	Vch Offset Enable
VCHOFFSET	QUANT	0	Vch Offset (V)
VCHFILTER	IQUANT	1	Vch Filter
IERANGELOWERLIMIT	IQUANT	9	I/E Range Lower Limit
IERANGEMODE	TOGGLE	F	I/E AutoRange
IERANGE	IQUANT	9	I/E Range
ACHSELECT	IQUANT	1	Ach Select
ACHRANGE	IQUANT	2	Ach Range
ACHOFFSETENABLE	TOGGLE	F	Ach Offset Enable
ACHOFFSET	QUANT	0	Ach Offset (V)
ACHFILTER	IQUANT	1	Ach Filter
CABLEID	IQUANT	14	Cable ID
DCCALDATE	LABEL	5-7-2017	DC Calibration Date
ACCALDATE	LABEL	12/3/2015	AC Calibration Date
FRAMEWORKVERSION	QUANT	7.01	Framework Version
INSTRUMENTVERSION	LABEL	4.00	Instrument Version
CURVE	TABLE	183
	Pt	T	Vf	Im	Vu	Pwr	Sig	Ach	Temp	IERange	Over
	#	s	V	A	V	W	V	V	deg C	#	bits
	0	0.013333	2.90170E-001	9.09418E-005	0.00000E+000	2.63886E-005	5.39641E-002	2.90207E-001	3.57270E+000	9	...........
	1	0.026667	3.09354E-001	9.12335E-005	0.00000E+000	2.82234E-005	5.39641E-002	3.09390E-001	3.57270E+000	9	...........
	2	0.04	3.27063E-001	9.10731E-005	0.00000E+000	2.97866E-005	5.39641E-002	3.27097E-001	3.57270E+000	9	...........
	3	0.053333	3.43569E-001	9.09689E-005	0.00000E+000	3.12541E-005	5.39641E-002	3.43605E-001	3.57270E+000	9	...........
	4	0.066667	3.59054E-001	9.09543E-005	0.00000E+000	3.26575E-005	5.39641E-002	3.59094E-001	3.57270E+000	9	...........
	5	0.08	3.73673E-001	9.12762E-005	0.00000E+000	3.41075E-005	5.39641E-002	3.73711E-001	3.57270E+000	9	...........
	6	0.093333	3.87507E-001	9.08887E-005	0.00000E+000	3.52200E-005	5.39641E-002	3.87544E-001	3.57270E+000	9	...........
	7	0.106667	4.00664E-001	9.09730E-005	0.00000E+000	3.64496E-005	5.39641E-002	4.00699E-001	3.57270E+000	9	...........
	8	0.12	4.13198E-001	9.09366E-005	0.00000E+000	3.75748E-005	5.39641E-002	4.13245E-001	3.57270E+000	9	...........
	9	0.133333	4.25191E-001	9.10751E-005	0.00000E+000	3.87243E-005	5.39641E-002	4.25236E-001	3.57270E+000	9	...........
	10	0.146667	4.36676E-001	9.09970E-005	0.00000E+000	3.97362E-005	5.39641E-002	4.36726E-001	3.57270E+000	9	...........
	11	0.16	4.47718E-001	9.10710E-005	0.00000E+000	4.07741E-005	5.39641E-002	4.47776E-001	3.57270E+000	9	...........
	12	0.173333	4.58346E-001	9.11272E-005	0.00000E+000	4.17678E-005	5.39641E-002	4.58397E-001	3.57270E+000	9	...........
	13	0.186667	4.68590E-001	9.09282E-005	0.00000E+000	4.26081E-005	5.39641E-002	4.68639E-001	3.57270E+000	9	...........
	14	0.2	4.78479E-001	9.11700E-005	0.00000E+000	4.36229E-005	5.39641E-002	4.78532E-001	3.57270E+000	9	...........
	15	0.213333	4.88050E-001	9.06709E-005	0.00000E+000	4.42519E-005	5.39641E-002	4.88095E-001	3.57235E+000	9	...........
	16	0.226667	4.97300E-001	9.10022E-005	0.00000E+000	4.52554E-005	5.39641E-002	4.97358E-001	3.57200E+000	9	...........
	17	0.24	5.06275E-001	9.08907E-005	0.00000E+000	4.60157E-005	5.39641E-002	5.06331E-001	3.57200E+000	9	...........
	18	0.253333	5.14970E-001	9.09730E-005	0.00000E+000	4.68484E-005	5.39641E-002	5.15031E-001	3.57200E+000	9	...........
	19	0.266667	5.23414E-001	9.10168E-005	0.00000E+000	4.76394E-005	5.39641E-002	5.23476E-001	3.57200E+000	9	...........
	20	0.28	5.31588E-001	9.09251E-005	0.00000E+000	4.83347E-005	5.39641E-002	5.31652E-001	3.57200E+000	9	...........
	21	0.293333	5.39545E-001	9.14315E-005	0.00000E+000	4.93314E-005	5.39641E-002	5.39639E-001	3.57200E+000	9	...........
	22	0.306667	5.47299E-001	9.10210E-005	0.00000E+000	4.98157E-005	5.39641E-002	5.47396E-001	3.57200E+000	9	...........
	23	0.32	5.54856E-001	9.09376E-005	0.00000E+000	5.04573E-005	5.39641E-002	5.54964E-001	3.57200E+000	9	...........
	24	0.333333	5.62230E-001	9.12710E-005	0.00000E+000	5.13153E-005	5.39641E-002	5.62345E-001	3.57200E+000	9	...........
	25	0.346667	5.69449E-001	9.09282E-005	0.00000E+000	5.17790E-005	5.39641E-002	5.69517E-001	3.57200E+000	9	...........
	26	0.36	5.76416E-001	9.10595E-005	0.00000E+000	5.24881E-005	5.39641E-002	5.76511E-001	3.57200E+000	9	...........
	27	0.373333	5.83228E-001	9.11189E-005	0.00000E+000	5.31431E-005	5.39641E-002	5.83337E-001	3.57200E+000	9	...........
	28	0.386667	5.89936E-001	9.09043E-005	0.00000E+000	5.36277E-005	5.39641E-002	5.90050E-001	3.57200E+000	9	...........
	29	0.4	5.96469E-001	9.10053E-005	0.00000E+000	5.42819E-005	5.39641E-002	5.96576E-001	3.57200E+000	9	...........
	30	0.413333	6.02824E-001	9.10199E-005	0.00000E+000	5.48690E-005	5.39641E-002	6.02955E-001	3.57200E+000	9	...........
	31	0.426667	6.09053E-001	9.13242E-005	0.00000E+000	5.56212E-005	5.39641E-002	6.09183E-001	3.57200E+000	9	...........
	32	0.44	6.15216E-001	9.10303E-005	0.00000E+000	5.60034E-005	5.39641E-002	6.15302E-001	3.57200E+000	9	...........
	33	0.453333	6.21222E-001	9.10939E-005	0.00000E+000	5.65896E-005	5.39641E-002	6.21291E-001	3.57200E+000	9	...........
	34	0.466667	6.27064E-001	9.10158E-005	0.00000E+000	5.70727E-005	5.39641E-002	6.27151E-001	3.57200E+000	9	...........
	35	0.48	6.32815E-001	9.12596E-005	0.00000E+000	5.77504E-005	5.39641E-002	6.32903E-001	3.57200E+000	9	...........
	36	0.493333	6.38426E-001	9.12669E-005	0.00000E+000	5.82671E-005	5.39641E-002	6.38526E-001	3.57200E+000	9	...........
	37	0.506667	6.43951E-001	9.10762E-005	0.00000E+000	5.86486E-005	5.39641E-002	6.44063E-001	3.57200E+000	9	...........
	38	0.52	6.49348E-001	9.10085E-005	0.00000E+000	5.90961E-005	5.39641E-002	6.49471E-001	3.57200E+000	9	...........
	39	0.533333	6.54676E-001	9.11200E-005	0.00000E+000	5.96540E-005	5.39641E-002	6.54764E-001	3.57200E+000	9	...........
	40	0.546667	6.59844E-001	9.11575E-005	0.00000E+000	6.01497E-005	5.39641E-002	6.59962E-001	3.57200E+000	9	...........
	41	0.56	6.64980E-001	9.10845E-005	0.00000E+000	6.05694E-005	5.39641E-002	6.65099E-001	3.57200E+000	9	...........
	42	0.573333	6.70023E-001	9.11335E-005	0.00000E+000	6.10615E-005	5.39641E-002	6.70102E-001	3.57200E+000	9	...........
	43	0.586667	6.74926E-001	9.11970E-005	0.00000E+000	6.15512E-005	5.39641E-002	6.75019E-001	3.57200E+000	9	...........
	44	0.6	6.79754E-001	9.12710E-005	0.00000E+000	6.20418E-005	5.39641E-002	6.79859E-001	3.57200E+000	9	...........
	45	0.613333	6.84484E-001	9.06678E-005	0.00000E+000	6.20607E-005	5.39641E-002	6.84607E-001	3.57200E+000	9	...........
	46	0.626667	6.89139E-001	9.13836E-005	0.00000E+000	6.29759E-005	5.39641E-002	6.89248E-001	3.57200E+000	9	...........
	47	0.64	6.93728E-001	9.11720E-005	0.00000E+000	6.32486E-005	5.39641E-002	6.93834E-001	3.57200E+000	9	...........
	48	0.653333	6.98227E-001	9.11304E-005	0.00000E+000	6.36297E-005	5.39641E-002	6.98368E-001	3.57200E+000	9	...........
	49	0.666667	7.02691E-001	9.10158E-005	0.00000E+000	6.39560E-005	5.39641E-002	7.02805E-001	3.57200E+000	9	...........
	50	0.68	7.07048E-001	9.12116E-005	0.00000E+000	6.44910E-005	5.39641E-002	7.07205E-001	3.57200E+000	9	...........
	51	0.693333	7.11344E-001	9.09189E-005	0.00000E+000	6.46746E-005	5.39641E-002	7.11520E-001	3.57200E+000	9	...........
	52	0.706667	7.15628E-001	9.13606E-005	0.00000E+000	6.53803E-005	5.39641E-002	7.15781E-001	3.57200E+000	9	...........
	53	0.72	7.19840E-001	9.08032E-005	0.00000E+000	6.53638E-005	5.39641E-002	7.19958E-001	3.57200E+000	9	...........
	54	0.733333	7.23983E-001	9.09647E-005	0.00000E+000	6.58569E-005	5.39641E-002	7.24060E-001	3.57200E+000	9	...........
	55	0.746667	7.28017E-001	9.10637E-005	0.00000E+000	6.62959E-005	5.39641E-002	7.28138E-001	3.57200E+000	9	...........
	56	0.76	7.32016E-001	9.11158E-005	0.00000E+000	6.66982E-005	5.39641E-002	7.32130E-001	3.57200E+000	9	...........
	57	0.773333	7.35948E-001	9.09439E-005	0.00000E+000	6.69300E-005	5.39641E-002	7.36055E-001	3.57200E+000	9	...........
	58	0.786667	7.39800E-001	9.14419E-005	0.00000E+000	6.76487E-005	5.39641E-002	7.39945E-001	3.57200E+000	9	...........
	59	0.8	7.43678E-001	9.15117E-005	0.00000E+000	6.80552E-005	5.39641E-002	7.43803E-001	3.57200E+000	9	...........
	60	0.813333	7.47425E-001	9.09835E-005	0.00000E+000	6.80033E-005	5.39641E-002	7.47553E-001	3.57200E+000	9	...........
	61	0.826667	7.51119E-001	9.12054E-005	0.00000E+000	6.85061E-005	5.39641E-002	7.51247E-001	3.57200E+000	9	...........
	62	0.84	7.54790E-001	9.11429E-005	0.00000E+000	6.87938E-005	5.39641E-002	7.54944E-001	3.57200E+000	9	...........
	63	0.853333	7.58410E-001	9.11856E-005	0.00000E+000	6.91561E-005	5.39641E-002	7.58532E-001	3.57200E+000	9	...........
	64	0.866667	7.61964E-001	9.10887E-005	0.00000E+000	6.94063E-005	5.39641E-002	7.62074E-001	3.57200E+000	9	...........
	65	0.88	7.65452E-001	9.09168E-005	0.00000E+000	6.95924E-005	5.39641E-002	7.65615E-001	3.57200E+000	9	...........
	66	0.893333	7.68943E-001	9.12450E-005	0.00000E+000	7.01622E-005	5.39641E-002	7.69110E-001	3.57200E+000	9	...........
	67	0.906667	7.72371E-001	9.12241E-005	0.00000E+000	7.04588E-005	5.39641E-002	7.72510E-001	3.57200E+000	9	...........
	68	0.92	7.75768E-001	9.10272E-005	0.00000E+000	7.06160E-005	5.39641E-002	7.75891E-001	3.57200E+000	9	...........
	69	0.933333	7.79116E-001	9.11429E-005	0.00000E+000	7.10108E-005	5.39641E-002	7.79227E-001	3.57200E+000	9	...........
	70	0.946667	7.82432E-001	9.12689E-005	0.00000E+000	7.14117E-005	5.39641E-002	7.82551E-001	3.57200E+000	9	...........
	71	0.96	7.85702E-001	9.11814E-005	0.00000E+000	7.16414E-005	5.39641E-002	7.85802E-001	3.57200E+000	9	...........
	72	0.97333	7.88929E-001	9.11835E-005	0.00000E+000	7.19373E-005	5.39641E-002	7.89041E-001	3.57200E+000	9	...........
	73	0.98667	7.92139E-001	9.11043E-005	0.00000E+000	7.21673E-005	5.39641E-002	7.92246E-001	3.57200E+000	9	...........
	74	1	7.95330E-001	9.13023E-005	0.00000E+000	7.26155E-005	5.39641E-002	7.95422E-001	3.57200E+000	9	...........
	75	1.01333	7.98416E-001	9.14731E-005	0.00000E+000	7.30337E-005	5.39641E-002	7.98516E-001	3.57200E+000	9	...........
	76	1.02667	8.01488E-001	9.09220E-005	0.00000E+000	7.28728E-005	5.39641E-002	8.01615E-001	3.57200E+000	9	...........
	77	1.04	8.04540E-001	9.11918E-005	0.00000E+000	7.33675E-005	5.39641E-002	8.04658E-001	3.57200E+000	9	...........
	78	1.05333	8.07552E-001	9.10720E-005	0.00000E+000	7.35454E-005	5.39641E-002	8.07665E-001	3.57200E+000	9	...........
	79	1.06667	8.10545E-001	9.10324E-005	0.00000E+000	7.37859E-005	5.39641E-002	8.10656E-001	3.57200E+000	9	...........
	80	1.08	8.13486E-001	9.11918E-005	0.00000E+000	7.41833E-005	5.39641E-002	8.13628E-001	3.57200E+000	9	...........
	81	1.09333	8.16388E-001	9.11085E-005	0.00000E+000	7.43799E-005	5.39641E-002	8.16561E-001	3.57200E+000	9	...........
	82	1.10667	8.19310E-001	9.10262E-005	0.00000E+000	7.45787E-005	5.39641E-002	8.19437E-001	3.57200E+000	9	...........
	83	1.12	8.22123E-001	9.13648E-005	0.00000E+000	7.51131E-005	5.39641E-002	8.22277E-001	3.57200E+000	9	...........
	84	1.13333	8.24948E-001	9.11523E-005	0.00000E+000	7.51958E-005	5.39641E-002	8.25083E-001	3.57200E+000	9	...........
	85	1.14667	8.27737E-001	9.11991E-005	0.00000E+000	7.54889E-005	5.39641E-002	8.27841E-001	3.57200E+000	9	...........
	86	1.16	8.30463E-001	9.09574E-005	0.00000E+000	7.55368E-005	5.39641E-002	8.30605E-001	3.57200E+000	9	...........
	87	1.17333	8.33167E-001	9.10585E-005	0.00000E+000	7.58669E-005	5.39641E-002	8.33311E-001	3.57200E+000	9	...........
	88	1.18667	8.35832E-001	9.10574E-005	0.00000E+000	7.61087E-005	5.39641E-002	8.36021E-001	3.57200E+000	9	...........
	89	1.2	8.38495E-001	9.10824E-005	0.00000E+000	7.63722E-005	5.39641E-002	8.38661E-001	3.57200E+000	9	...........
	90	1.21333	8.41117E-001	9.10533E-005	0.00000E+000	7.65865E-005	5.39641E-002	8.41309E-001	3.57210E+000	9	...........
	91	1.22667	8.43753E-001	9.12033E-005	0.00000E+000	7.69531E-005	5.39641E-002	8.43937E-001	3.57220E+000	9	...........
	92	1.24	8.46348E-001	9.10741E-005	0.00000E+000	7.70804E-005	5.39641E-002	8.46506E-001	3.57220E+000	9	...........
	93	1.25333	8.48901E-001	9.11127E-005	0.00000E+000	7.73457E-005	5.39641E-002	8.49062E-001	3.57220E+000	9	...........
	94	1.26667	8.51414E-001	9.13054E-005	0.00000E+000	7.77387E-005	5.39641E-002	8.51579E-001	3.57220E+000	9	...........
	95	1.28	8.53907E-001	9.07532E-005	0.00000E+000	7.74948E-005	5.39641E-002	8.54077E-001	3.57220E+000	9	...........
	96	1.29333	8.56365E-001	9.11043E-005	0.00000E+000	7.80186E-005	5.39641E-002	8.56536E-001	3.57220E+000	9	...........
	97	1.30667	8.58811E-001	9.12491E-005	0.00000E+000	7.83658E-005	5.39641E-002	8.58987E-001	3.57220E+000	9	...........
	98	1.32	8.61266E-001	9.11460E-005	0.00000E+000	7.85009E-005	5.39641E-002	8.61398E-001	3.57220E+000	9	...........
	99	1.33333	8.63633E-001	9.10210E-005	0.00000E+000	7.86087E-005	5.39641E-002	8.63763E-001	3.57220E+000	9	...........
	100	1.34667	8.65981E-001	9.11877E-005	0.00000E+000	7.89668E-005	5.39641E-002	8.66133E-001	3.57220E+000	9	...........
	101	1.36	8.68361E-001	9.10647E-005	0.00000E+000	7.90771E-005	5.39641E-002	8.68492E-001	3.57220E+000	9	...........
	102	1.37333	8.70713E-001	9.09939E-005	0.00000E+000	7.92296E-005	5.39641E-002	8.70836E-001	3.57220E+000	9	...........
	103	1.38667	8.73003E-001	9.09334E-005	0.00000E+000	7.93852E-005	5.39641E-002	8.73137E-001	3.57220E+000	9	...........
	104	1.4	8.75292E-001	9.13585E-005	0.00000E+000	7.99654E-005	5.39641E-002	8.75436E-001	3.57220E+000	9	...........
	105	1.41333	8.77558E-001	9.11283E-005	0.00000E+000	7.99704E-005	5.39641E-002	8.77677E-001	3.57220E+000	9	...........
	106	1.42667	8.79782E-001	9.11210E-005	0.00000E+000	8.01666E-005	5.39641E-002	8.79927E-001	3.57220E+000	9	...........
	107	1.44	8.82001E-001	9.12127E-005	0.00000E+000	8.04497E-005	5.39641E-002	8.82163E-001	3.57220E+000	9	...........
	108	1.45333	8.84224E-001	9.09345E-005	0.00000E+000	8.04065E-005	5.39641E-002	8.84357E-001	3.57220E+000	9	...........
	109	1.46667	8.86382E-001	9.10387E-005	0.00000E+000	8.06950E-005	5.39641E-002	8.86524E-001	3.57220E+000	9	...........
	110	1.48	8.88511E-001	9.11043E-005	0.00000E+000	8.09472E-005	5.39641E-002	8.88643E-001	3.57220E+000	9	...........
	111	1.49333	8.90631E-001	9.08251E-005	0.00000E+000	8.08916E-005	5.39641E-002	8.90764E-001	3.57220E+000	9	...........
	112	1.50667	8.92734E-001	9.08980E-005	0.00000E+000	8.11478E-005	5.39641E-002	8.92863E-001	3.57220E+000	9	...........
	113	1.52	8.94817E-001	9.10022E-005	0.00000E+000	8.14303E-005	5.39641E-002	8.94978E-001	3.57220E+000	9	...........
	114	1.53333	8.96904E-001	9.10751E-005	0.00000E+000	8.16857E-005	5.39641E-002	8.97059E-001	3.57220E+000	9	...........
	115	1.54667	8.98962E-001	9.11231E-005	0.00000E+000	8.19162E-005	5.39641E-002	8.99105E-001	3.57220E+000	9	...........
	116	1.56	9.00977E-001	9.09751E-005	0.00000E+000	8.19665E-005	5.39641E-002	9.01129E-001	3.57220E+000	9	...........
	117	1.57333	9.03011E-001	9.12533E-005	0.00000E+000	8.24028E-005	5.39641E-002	9.03174E-001	3.57220E+000	9	...........
	118	1.58667	9.05012E-001	9.11481E-005	0.00000E+000	8.24901E-005	5.39641E-002	9.05168E-001	3.57220E+000	9	...........
	119	1.6	9.06969E-001	9.12669E-005	0.00000E+000	8.27762E-005	5.39641E-002	9.07150E-001	3.57220E+000	9	...........
	120	1.61333	9.08957E-001	9.11898E-005	0.00000E+000	8.28876E-005	5.39641E-002	9.09127E-001	3.57220E+000	9	...........
	121	1.62667	9.10888E-001	9.09710E-005	0.00000E+000	8.28644E-005	5.39641E-002	9.11045E-001	3.57220E+000	9	...........
	122	1.64	9.12801E-001	9.09949E-005	0.00000E+000	8.30603E-005	5.39641E-002	9.12987E-001	3.57220E+000	9	...........
	123	1.65333	9.14702E-001	9.11783E-005	0.00000E+000	8.34010E-005	5.39641E-002	9.14887E-001	3.57220E+000	9	...........
	124	1.66667	9.16546E-001	9.12075E-005	0.00000E+000	8.35959E-005	5.39641E-002	9.16770E-001	3.57220E+000	9	...........
	125	1.68	9.18413E-001	9.11272E-005	0.00000E+000	8.36925E-005	5.39641E-002	9.18598E-001	3.57220E+000	9	...........
	126	1.69333	9.20280E-001	9.12950E-005	0.00000E+000	8.40170E-005	5.39641E-002	9.20449E-001	3.57220E+000	9	...........
	127	1.70667	9.22162E-001	9.12429E-005	0.00000E+000	8.41408E-005	5.39641E-002	9.22274E-001	3.57220E+000	9	...........
	128	1.72	9.23965E-001	9.12335E-005	0.00000E+000	8.42966E-005	5.39641E-002	9.24072E-001	3.57220E+000	9	...........
	129	1.73333	9.25741E-001	9.10303E-005	0.00000E+000	8.42705E-005	5.39641E-002	9.25862E-001	3.57220E+000	9	...........
	130	1.74667	9.27517E-001	9.11168E-005	0.00000E+000	8.45124E-005	5.39641E-002	9.27638E-001	3.57220E+000	9	...........
	131	1.76	9.29291E-001	9.12148E-005	0.00000E+000	8.47651E-005	5.39641E-002	9.29369E-001	3.57220E+000	9	...........
	132	1.77333	9.31008E-001	9.11720E-005	0.00000E+000	8.48819E-005	5.39641E-002	9.31117E-001	3.57220E+000	9	...........
	133	1.78667	9.32721E-001	9.08230E-005	0.00000E+000	8.47125E-005	5.39641E-002	9.32835E-001	3.57220E+000	9	...........
	134	1.8	9.34448E-001	9.11585E-005	0.00000E+000	8.51829E-005	5.39641E-002	9.34563E-001	3.57220E+000	9	...........
	135	1.81333	9.36110E-001	9.10699E-005	0.00000E+000	8.52515E-005	5.39641E-002	9.36274E-001	3.57220E+000	9	...........
	136	1.82667	9.37794E-001	9.12939E-005	0.00000E+000	8.56149E-005	5.39641E-002	9.37960E-001	3.57220E+000	9	...........
	137	1.84	9.39435E-001	9.11199E-005	0.00000E+000	8.56013E-005	5.39641E-002	9.39626E-001	3.57220E+000	9	...........
	138	1.85333	9.41102E-001	9.11345E-005	0.00000E+000	8.57669E-005	5.39641E-002	9.41279E-001	3.57220E+000	9	...........
	139	1.86667	9.42720E-001	9.09918E-005	0.00000E+000	8.57798E-005	5.39641E-002	9.42905E-001	3.57220E+000	9	...........
	140	1.88	9.44310E-001	9.13044E-005	0.00000E+000	8.62197E-005	5.39641E-002	9.44486E-001	3.57220E+000	9	...........
	141	1.89333	9.45891E-001	9.13419E-005	0.00000E+000	8.63995E-005	5.39641E-002	9.46098E-001	3.57220E+000	9	...........
	142	1.90667	9.47523E-001	9.12106E-005	0.00000E+000	8.64241E-005	5.39641E-002	9.47684E-001	3.57220E+000	9	...........
	143	1.92	9.49068E-001	9.11106E-005	0.00000E+000	8.64702E-005	5.39641E-002	9.49245E-001	3.57220E+000	9	...........
	144	1.93333	9.50593E-001	9.08678E-005	0.00000E+000	8.63783E-005	5.39641E-002	9.50784E-001	3.57220E+000	9	...........
	145	1.94667	9.52128E-001	9.13085E-005	0.00000E+000	8.69374E-005	5.39641E-002	9.52328E-001	3.57220E+000	9	...........
	146	1.96	9.53683E-001	9.10189E-005	0.00000E+000	8.68031E-005	5.39641E-002	9.53825E-001	3.57220E+000	9	...........
	147	1.97333	9.55183E-001	9.13690E-005	0.00000E+000	8.72741E-005	5.39641E-002	9.55334E-001	3.57220E+000	9	...........
	148	1.98667	9.56709E-001	9.12366E-005	0.00000E+000	8.72869E-005	5.39641E-002	9.56835E-001	3.57220E+000	9	...........
	149	2	9.58156E-001	9.10772E-005	0.00000E+000	8.72662E-005	5.39641E-002	9.58315E-001	3.57220E+000	9	...........
	150	2.01333	9.59621E-001	9.10981E-005	0.00000E+000	8.74196E-005	5.39641E-002	9.59800E-001	3.57220E+000	9	...........
	151	2.02667	9.61055E-001	9.10053E-005	0.00000E+000	8.74612E-005	5.39641E-002	9.61241E-001	3.57220E+000	9	...........
	152	2.04	9.62473E-001	9.10418E-005	0.00000E+000	8.76253E-005	5.39641E-002	9.62668E-001	3.57220E+000	9	...........
	153	2.05333	9.63908E-001	9.10741E-005	0.00000E+000	8.77870E-005	5.39641E-002	9.64079E-001	3.57220E+000	9	...........
	154	2.06667	9.65309E-001	9.12648E-005	0.00000E+000	8.80987E-005	5.39641E-002	9.65456E-001	3.57220E+000	9	...........
	155	2.08	9.66690E-001	9.11533E-005	0.00000E+000	8.81170E-005	5.39641E-002	9.66838E-001	3.57220E+000	9	...........
	156	2.09333	9.68083E-001	9.11783E-005	0.00000E+000	8.82681E-005	5.39641E-002	9.68249E-001	3.57220E+000	9	...........
	157	2.10667	9.69449E-001	9.08595E-005	0.00000E+000	8.80836E-005	5.39641E-002	9.69613E-001	3.57220E+000	9	...........
	158	2.12	9.70808E-001	9.11793E-005	0.00000E+000	8.85176E-005	5.39641E-002	9.70994E-001	3.57220E+000	9	...........
	159	2.13333	9.72196E-001	9.07407E-005	0.00000E+000	8.82177E-005	5.39641E-002	9.72364E-001	3.57220E+000	9	...........
	160	2.14667	9.73555E-001	9.10314E-005	0.00000E+000	8.86241E-005	5.39641E-002	9.73705E-001	3.57220E+000	9	...........
	161	2.16	9.74855E-001	9.11783E-005	0.00000E+000	8.88857E-005	5.39641E-002	9.75059E-001	3.57220E+000	9	...........
	162	2.17333	9.76185E-001	9.11012E-005	0.00000E+000	8.89316E-005	5.39641E-002	9.76369E-001	3.57220E+000	9	...........
	163	2.18667	9.77490E-001	9.10783E-005	0.00000E+000	8.90281E-005	5.39641E-002	9.77685E-001	3.57220E+000	9	...........
	164	2.2	9.78792E-001	9.12439E-005	0.00000E+000	8.93088E-005	5.39641E-002	9.78968E-001	3.57220E+000	9	...........
	165	2.21333	9.80060E-001	9.13054E-005	0.00000E+000	8.94848E-005	5.39641E-002	9.80229E-001	3.57195E+000	9	...........
	166	2.22667	9.81323E-001	9.11043E-005	0.00000E+000	8.94028E-005	5.39641E-002	9.81529E-001	3.57170E+000	9	...........
	167	2.24	9.82610E-001	9.10658E-005	0.00000E+000	8.94821E-005	5.39641E-002	9.82779E-001	3.57170E+000	9	...........
	168	2.25333	9.83835E-001	9.12669E-005	0.00000E+000	8.97915E-005	5.39641E-002	9.84035E-001	3.57170E+000	9	...........
	169	2.26667	9.85087E-001	9.12127E-005	0.00000E+000	8.98524E-005	5.39641E-002	9.85265E-001	3.57170E+000	9	...........
	170	2.28	9.86305E-001	9.10679E-005	0.00000E+000	8.98206E-005	5.39641E-002	9.86490E-001	3.57170E+000	9	...........
	171	2.29333	9.87504E-001	9.08407E-005	0.00000E+000	8.97056E-005	5.39641E-002	9.87699E-001	3.57170E+000	9	...........
	172	2.30667	9.88727E-001	9.12033E-005	0.00000E+000	9.01751E-005	5.39641E-002	9.88894E-001	3.57170E+000	9	...........
	173	2.32	9.89921E-001	9.08480E-005	0.00000E+000	8.99324E-005	5.39641E-002	9.90091E-001	3.57170E+000	9	...........
	174	2.33333	9.91095E-001	9.12179E-005	0.00000E+000	9.04056E-005	5.39641E-002	9.91254E-001	3.57170E+000	9	...........
	175	2.34667	9.92254E-001	9.11189E-005	0.00000E+000	9.04131E-005	5.39641E-002	9.92434E-001	3.57170E+000	9	...........
	176	2.36	9.93419E-001	9.10647E-005	0.00000E+000	9.04654E-005	5.39641E-002	9.93596E-001	3.57170E+000	9	...........
	177	2.37333	9.94574E-001	9.10460E-005	0.00000E+000	9.05520E-005	5.39641E-002	9.94750E-001	3.57170E+000	9	...........
	178	2.38667	9.95724E-001	9.11335E-005	0.00000E+000	9.07438E-005	5.39641E-002	9.95875E-001	3.57170E+000	9	...........
	179	2.4	9.96857E-001	9.11179E-005	0.00000E+000	9.08315E-005	5.39641E-002	9.97006E-001	3.57170E+000	9	...........
	180	2.41333	9.97975E-001	9.09282E-005	0.00000E+000	9.07441E-005	5.39641E-002	9.98171E-001	3.57170E+000	9	...........
	181	2.42667	9.99088E-001	9.09501E-005	0.00000E+000	9.08672E-005	5.39641E-002	9.99299E-001	3.57170E+000	9	...........
	182	2.43333	9.99916E-001	9.12960E-005	0.00000E+000	9.12884E-005	5.39641E-002	1.00010E+000	3.57170E+000	9	...........
STARTTIMEOFFSET	QUANT	729.9266	Start Time Offset (s)
