EXPLAIN
TAG	PWR800_CHARGE
TITLE	LABEL	PWR Cyclic Charge Discharge (Cell) - Charge Step	Test &Identifier
DATE	LABEL	10-7-2017	Date
TIME	LABEL	15:07:19	Time
NOTES	NOTES	3	&Notes...
	supercap test cell
	0.9mg
	6M KOH
PSTAT	PSTAT	IFC5000-01520	Potentiostat
CAPACITY	QUANT	1.00000E-003	Capacity (A-hr)
CELLTYPE	SELECTOR	1	&Cell Type
WORKINGCONNECTION	SELECTOR	0	&Working Lead
MAXCHARGETIME	VARIABLEANDUNITS	1.00000E+002	s	1.00000E+002	second(s)	Max &Charge Time
CHARGECURRENT	QUANT	9.00000E-005	&Charge Current (A) 
VOLTAGEFINISH	TWOPARAM	F	1.00000E-003	3.60000E+003	&Voltage Finish	 I (A) < 	Max Time(s)
SAMPLETIME	QUANT	1.00000E-002	Sa&mple Period (s)
CHARGESTOPAT1	MULTIPARAM	4	1.00000E+000	Charge Stop At &1	Voltage > Limit	V
CHARGESTOPAT2	MULTIPARAM	0	0.00000E+000	Charge Stop At &2	None	N/A
AESBHCSELECTOR	TOGGLE	F	Save Both Half Cells
IRCOMP	TOGGLE	F	IR &Measure
EOC	QUANT	0	Open Circuit (V)
SEQUENCER	TOGGLE	TRUE	Run as Sequence
PSTATMODEL	IQUANT	53	Pstat Model
PSTATSECTION	LABEL	IFC5000-01520	Pstat Section
PSTATSERIALNO	LABEL	01520	Pstat Serial Number
CTRLMODE	IQUANT	0	Control Mode
ELECTROMETER	IQUANT	1	RE=0 or CS=1
IESTAB	IQUANT	0	I/E Stability
CASPEED	IQUANT	4	Control Amp Speed
CONVENTION	IQUANT	1	Current Convention
ICHRANGE	IQUANT	2	Ich Range
ICHRANGEMODE	TOGGLE	T	Ich Auto Range
ICHOFFSETENABLE	TOGGLE	F	Ich Offset Enable
ICHOFFSET	QUANT	0	Ich Offset (V)
ICHFILTER	IQUANT	1	Ich Filter
VCHRANGE	IQUANT	2	Vch Range
VCHRANGEMODE	TOGGLE	T	Vch Auto Range
VCHOFFSETENABLE	TOGGLE	F	Vch Offset Enable
VCHOFFSET	QUANT	0	Vch Offset (V)
VCHFILTER	IQUANT	1	Vch Filter
IERANGELOWERLIMIT	IQUANT	9	I/E Range Lower Limit
IERANGEMODE	TOGGLE	F	I/E AutoRange
IERANGE	IQUANT	9	I/E Range
ACHSELECT	IQUANT	1	Ach Select
ACHRANGE	IQUANT	2	Ach Range
ACHOFFSETENABLE	TOGGLE	F	Ach Offset Enable
ACHOFFSET	QUANT	0	Ach Offset (V)
ACHFILTER	IQUANT	1	Ach Filter
CABLEID	IQUANT	14	Cable ID
DCCALDATE	LABEL	5-7-2017	DC Calibration Date
ACCALDATE	LABEL	12/3/2015	AC Calibration Date
FRAMEWORKVERSION	QUANT	7.01	Framework Version
INSTRUMENTVERSION	LABEL	4.00	Instrument Version
CURVE	TABLE	189
	Pt	T	Vf	Im	Vu	Pwr	Sig	Ach	Temp	IERange	Over
	#	s	V	A	V	W	V	V	deg C	#	bits
	0	0.013333	2.95714E-001	9.11366E-005	0.00000E+000	2.69504E-005	5.39641E-002	2.95758E-001	3.57230E+000	9	...........
	1	0.026667	3.14568E-001	9.11741E-005	0.00000E+000	2.86805E-005	5.39641E-002	3.14597E-001	3.57230E+000	9	...........
	2	0.04	3.31935E-001	9.09272E-005	0.00000E+000	3.01819E-005	5.39641E-002	3.31963E-001	3.57230E+000	9	...........
	3	0.053333	3.48088E-001	9.11564E-005	0.00000E+000	3.17304E-005	5.39641E-002	3.48122E-001	3.57230E+000	9	...........
	4	0.066667	3.63228E-001	9.10866E-005	0.00000E+000	3.30852E-005	5.39641E-002	3.63257E-001	3.57230E+000	9	...........
	5	0.08	3.77490E-001	9.11731E-005	0.00000E+000	3.44169E-005	5.39641E-002	3.77526E-001	3.57230E+000	9	...........
	6	0.093333	3.91001E-001	9.14336E-005	0.00000E+000	3.57506E-005	5.39641E-002	3.91030E-001	3.57230E+000	9	...........
	7	0.106667	4.03840E-001	9.12773E-005	0.00000E+000	3.68614E-005	5.39641E-002	4.03872E-001	3.57230E+000	9	...........
	8	0.12	4.16088E-001	9.12554E-005	0.00000E+000	3.79703E-005	5.39641E-002	4.16124E-001	3.57230E+000	9	...........
	9	0.133333	4.27814E-001	9.10564E-005	0.00000E+000	3.89552E-005	5.39641E-002	4.27850E-001	3.57230E+000	9	...........
	10	0.146667	4.39061E-001	9.08741E-005	0.00000E+000	3.98992E-005	5.39641E-002	4.39102E-001	3.57230E+000	9	...........
	11	0.16	4.49884E-001	9.15179E-005	0.00000E+000	4.11725E-005	5.39641E-002	4.49927E-001	3.57230E+000	9	...........
	12	0.173333	4.60293E-001	9.12116E-005	0.00000E+000	4.19840E-005	5.39641E-002	4.60339E-001	3.57230E+000	9	...........
	13	0.186667	4.70336E-001	9.10970E-005	0.00000E+000	4.28463E-005	5.39641E-002	4.70385E-001	3.57230E+000	9	...........
	14	0.2	4.80041E-001	9.11720E-005	0.00000E+000	4.37663E-005	5.39641E-002	4.80097E-001	3.57230E+000	9	...........
	15	0.213333	4.89437E-001	9.10772E-005	0.00000E+000	4.45766E-005	5.39641E-002	4.89485E-001	3.57230E+000	9	...........
	16	0.226667	4.98527E-001	9.09835E-005	0.00000E+000	4.53578E-005	5.39641E-002	4.98583E-001	3.57230E+000	9	...........
	17	0.24	5.07343E-001	9.10512E-005	0.00000E+000	4.61942E-005	5.39641E-002	5.07395E-001	3.57230E+000	9	...........
	18	0.253333	5.15900E-001	9.10418E-005	0.00000E+000	4.69684E-005	5.39641E-002	5.15956E-001	3.57230E+000	9	...........
	19	0.266667	5.24210E-001	9.11262E-005	0.00000E+000	4.77693E-005	5.39641E-002	5.24267E-001	3.57230E+000	9	...........
	20	0.28	5.32281E-001	9.11564E-005	0.00000E+000	4.85208E-005	5.39641E-002	5.32336E-001	3.57230E+000	9	...........
	21	0.293333	5.40149E-001	9.10220E-005	0.00000E+000	4.91654E-005	5.39641E-002	5.40214E-001	3.57230E+000	9	...........
	22	0.306667	5.47783E-001	9.10491E-005	0.00000E+000	4.98751E-005	5.39641E-002	5.47835E-001	3.57230E+000	9	...........
	23	0.32	5.55210E-001	9.11450E-005	0.00000E+000	5.06046E-005	5.39641E-002	5.55282E-001	3.57230E+000	9	...........
	24	0.333333	5.62484E-001	9.10439E-005	0.00000E+000	5.12108E-005	5.39641E-002	5.62544E-001	3.57230E+000	9	...........
	25	0.346667	5.69599E-001	9.11825E-005	0.00000E+000	5.19375E-005	5.39641E-002	5.69661E-001	3.57230E+000	9	...........
	26	0.36	5.76485E-001	9.11199E-005	0.00000E+000	5.25292E-005	5.39641E-002	5.76578E-001	3.57230E+000	9	...........
	27	0.373333	5.83251E-001	9.09376E-005	0.00000E+000	5.30394E-005	5.39641E-002	5.83350E-001	3.57230E+000	9	...........
	28	0.386667	5.89887E-001	9.11054E-005	0.00000E+000	5.37419E-005	5.39641E-002	5.89991E-001	3.57230E+000	9	...........
	29	0.4	5.96359E-001	9.11689E-005	0.00000E+000	5.43694E-005	5.39641E-002	5.96446E-001	3.57230E+000	9	...........
	30	0.413333	6.02648E-001	9.10178E-005	0.00000E+000	5.48517E-005	5.39641E-002	6.02750E-001	3.57230E+000	9	...........
	31	0.426667	6.08823E-001	9.11252E-005	0.00000E+000	5.54791E-005	5.39641E-002	6.08896E-001	3.57230E+000	9	...........
	32	0.44	6.14911E-001	9.09876E-005	0.00000E+000	5.59493E-005	5.39641E-002	6.14964E-001	3.57230E+000	9	...........
	33	0.453333	6.20850E-001	9.15961E-005	0.00000E+000	5.68674E-005	5.39641E-002	6.20886E-001	3.57230E+000	9	...........
	34	0.466667	6.26654E-001	9.11345E-005	0.00000E+000	5.71098E-005	5.39641E-002	6.26691E-001	3.57230E+000	9	...........
	35	0.48	6.32323E-001	9.12533E-005	0.00000E+000	5.77015E-005	5.39641E-002	6.32376E-001	3.57230E+000	9	...........
	36	0.493333	6.37893E-001	9.13408E-005	0.00000E+000	5.82657E-005	5.39641E-002	6.37963E-001	3.57225E+000	9	...........
	37	0.506667	6.43370E-001	9.13012E-005	0.00000E+000	5.87405E-005	5.39641E-002	6.43456E-001	3.57190E+000	9	...........
	38	0.52	6.48714E-001	9.12814E-005	0.00000E+000	5.92155E-005	5.39641E-002	6.48794E-001	3.57190E+000	9	...........
	39	0.533333	6.53951E-001	9.10241E-005	0.00000E+000	5.95253E-005	5.39641E-002	6.54042E-001	3.57190E+000	9	...........
	40	0.546667	6.59089E-001	9.11147E-005	0.00000E+000	6.00527E-005	5.39641E-002	6.59164E-001	3.57190E+000	9	...........
	41	0.56	6.64163E-001	9.10428E-005	0.00000E+000	6.04673E-005	5.39641E-002	6.64263E-001	3.57190E+000	9	...........
	42	0.573333	6.69144E-001	9.12637E-005	0.00000E+000	6.10686E-005	5.39641E-002	6.69228E-001	3.57190E+000	9	...........
	43	0.586667	6.74033E-001	9.10126E-005	0.00000E+000	6.13455E-005	5.39641E-002	6.74090E-001	3.57190E+000	9	...........
	44	0.6	6.78821E-001	9.09439E-005	0.00000E+000	6.17346E-005	5.39641E-002	6.78903E-001	3.57190E+000	9	...........
	45	0.613333	6.83520E-001	9.12283E-005	0.00000E+000	6.23564E-005	5.39641E-002	6.83597E-001	3.57190E+000	9	...........
	46	0.626667	6.88139E-001	9.10085E-005	0.00000E+000	6.26265E-005	5.39641E-002	6.88229E-001	3.57190E+000	9	...........
	47	0.64	6.92745E-001	9.13981E-005	0.00000E+000	6.33156E-005	5.39641E-002	6.92809E-001	3.57190E+000	9	...........
	48	0.653333	6.97234E-001	9.11408E-005	0.00000E+000	6.35465E-005	5.39641E-002	6.97317E-001	3.57190E+000	9	...........
	49	0.666667	7.01616E-001	9.10908E-005	0.00000E+000	6.39107E-005	5.39641E-002	7.01693E-001	3.57190E+000	9	...........
	50	0.68	7.05946E-001	9.14773E-005	0.00000E+000	6.45781E-005	5.39641E-002	7.06028E-001	3.57190E+000	9	...........
	51	0.693333	7.10198E-001	9.12867E-005	0.00000E+000	6.48316E-005	5.39641E-002	7.10299E-001	3.57190E+000	9	...........
	52	0.706667	7.14362E-001	9.14481E-005	0.00000E+000	6.53270E-005	5.39641E-002	7.14493E-001	3.57190E+000	9	...........
	53	0.72	7.18537E-001	9.09407E-005	0.00000E+000	6.53443E-005	5.39641E-002	7.18631E-001	3.57190E+000	9	...........
	54	0.733333	7.22614E-001	9.14836E-005	0.00000E+000	6.61073E-005	5.39641E-002	7.22693E-001	3.57190E+000	9	...........
	55	0.746667	7.26576E-001	9.11950E-005	0.00000E+000	6.62601E-005	5.39641E-002	7.26681E-001	3.57190E+000	9	...........
	56	0.76	7.30508E-001	9.11595E-005	0.00000E+000	6.65927E-005	5.39641E-002	7.30650E-001	3.57190E+000	9	...........
	57	0.773333	7.34424E-001	9.15107E-005	0.00000E+000	6.72076E-005	5.39641E-002	7.34504E-001	3.57190E+000	9	...........
	58	0.786667	7.38205E-001	9.10064E-005	0.00000E+000	6.71814E-005	5.39641E-002	7.38323E-001	3.57190E+000	9	...........
	59	0.8	7.42022E-001	9.11335E-005	0.00000E+000	6.76230E-005	5.39641E-002	7.42115E-001	3.57190E+000	9	...........
	60	0.813333	7.45742E-001	9.13637E-005	0.00000E+000	6.81338E-005	5.39641E-002	7.45840E-001	3.57190E+000	9	...........
	61	0.826667	7.49430E-001	9.13752E-005	0.00000E+000	6.84793E-005	5.39641E-002	7.49497E-001	3.57190E+000	9	...........
	62	0.84	7.53024E-001	9.10866E-005	0.00000E+000	6.85904E-005	5.39641E-002	7.53115E-001	3.57190E+000	9	...........
	63	0.853333	7.56616E-001	9.10981E-005	0.00000E+000	6.89263E-005	5.39641E-002	7.56680E-001	3.57190E+000	9	...........
	64	0.866667	7.60114E-001	9.12939E-005	0.00000E+000	6.93938E-005	5.39641E-002	7.60184E-001	3.57190E+000	9	...........
	65	0.88	7.63575E-001	9.11116E-005	0.00000E+000	6.95705E-005	5.39641E-002	7.63664E-001	3.57190E+000	9	...........
	66	0.893333	7.66976E-001	9.09303E-005	0.00000E+000	6.97414E-005	5.39641E-002	7.67127E-001	3.57190E+000	9	...........
	67	0.906667	7.70372E-001	9.11720E-005	0.00000E+000	7.02364E-005	5.39641E-002	7.70509E-001	3.57190E+000	9	...........
	68	0.92	7.73725E-001	9.12189E-005	0.00000E+000	7.05784E-005	5.39641E-002	7.73826E-001	3.57190E+000	9	...........
	69	0.933333	7.77010E-001	9.12418E-005	0.00000E+000	7.08958E-005	5.39641E-002	7.77117E-001	3.57190E+000	9	...........
	70	0.946667	7.80274E-001	9.11408E-005	0.00000E+000	7.11148E-005	5.39641E-002	7.80387E-001	3.57190E+000	9	...........
	71	0.96	7.83501E-001	9.10616E-005	0.00000E+000	7.13469E-005	5.39641E-002	7.83556E-001	3.57190E+000	9	...........
	72	0.97333	7.86638E-001	9.14315E-005	0.00000E+000	7.19235E-005	5.39641E-002	7.86694E-001	3.57190E+000	9	...........
	73	0.98667	7.89771E-001	9.12262E-005	0.00000E+000	7.20478E-005	5.39641E-002	7.89831E-001	3.57190E+000	9	...........
	74	1	7.92874E-001	9.13512E-005	0.00000E+000	7.24301E-005	5.39641E-002	7.92927E-001	3.57190E+000	9	...........
	75	1.01333	7.95927E-001	9.09272E-005	0.00000E+000	7.23714E-005	5.39641E-002	7.95996E-001	3.57190E+000	9	...........
	76	1.02667	7.98942E-001	9.08511E-005	0.00000E+000	7.25848E-005	5.39641E-002	7.99019E-001	3.57190E+000	9	...........
	77	1.04	8.01918E-001	9.11397E-005	0.00000E+000	7.30866E-005	5.39641E-002	8.02011E-001	3.57190E+000	9	...........
	78	1.05333	8.04866E-001	9.11856E-005	0.00000E+000	7.33922E-005	5.39641E-002	8.04957E-001	3.57190E+000	9	...........
	79	1.06667	8.07760E-001	9.11814E-005	0.00000E+000	7.36527E-005	5.39641E-002	8.07862E-001	3.57190E+000	9	...........
	80	1.08	8.10620E-001	9.12439E-005	0.00000E+000	7.39641E-005	5.39641E-002	8.10710E-001	3.57190E+000	9	...........
	81	1.09333	8.13470E-001	9.12033E-005	0.00000E+000	7.41911E-005	5.39641E-002	8.13558E-001	3.57190E+000	9	...........
	82	1.10667	8.16274E-001	9.11929E-005	0.00000E+000	7.44384E-005	5.39641E-002	8.16396E-001	3.57190E+000	9	...........
	83	1.12	8.19054E-001	9.10283E-005	0.00000E+000	7.45571E-005	5.39641E-002	8.19195E-001	3.57190E+000	9	...........
	84	1.13333	8.21819E-001	9.12637E-005	0.00000E+000	7.50023E-005	5.39641E-002	8.21948E-001	3.57190E+000	9	...........
	85	1.14667	8.24505E-001	9.12700E-005	0.00000E+000	7.52525E-005	5.39641E-002	8.24666E-001	3.57190E+000	9	...........
	86	1.16	8.27202E-001	9.13200E-005	0.00000E+000	7.55401E-005	5.39641E-002	8.27337E-001	3.57190E+000	9	...........
	87	1.17333	8.29861E-001	9.10939E-005	0.00000E+000	7.55952E-005	5.39641E-002	8.29987E-001	3.57190E+000	9	...........
	88	1.18667	8.32470E-001	9.09668E-005	0.00000E+000	7.57272E-005	5.39641E-002	8.32627E-001	3.57190E+000	9	...........
	89	1.2	8.35065E-001	9.12179E-005	0.00000E+000	7.61729E-005	5.39641E-002	8.35222E-001	3.57190E+000	9	...........
	90	1.21333	8.37626E-001	9.09439E-005	0.00000E+000	7.61770E-005	5.39641E-002	8.37778E-001	3.57190E+000	9	...........
	91	1.22667	8.40152E-001	9.10324E-005	0.00000E+000	7.64811E-005	5.39641E-002	8.40299E-001	3.57190E+000	9	...........
	92	1.24	8.42665E-001	9.13075E-005	0.00000E+000	7.69417E-005	5.39641E-002	8.42822E-001	3.57190E+000	9	...........
	93	1.25333	8.45228E-001	9.10804E-005	0.00000E+000	7.69836E-005	5.39641E-002	8.45339E-001	3.57190E+000	9	...........
	94	1.26667	8.47681E-001	9.09543E-005	0.00000E+000	7.71002E-005	5.39641E-002	8.47842E-001	3.57190E+000	9	...........
	95	1.28	8.50151E-001	9.10887E-005	0.00000E+000	7.74391E-005	5.39641E-002	8.50308E-001	3.57190E+000	9	...........
	96	1.29333	8.52574E-001	9.11231E-005	0.00000E+000	7.76892E-005	5.39641E-002	8.52706E-001	3.57190E+000	9	...........
	97	1.30667	8.54960E-001	9.12950E-005	0.00000E+000	7.80535E-005	5.39641E-002	8.55103E-001	3.57190E+000	9	...........
	98	1.32	8.57340E-001	9.13137E-005	0.00000E+000	7.82869E-005	5.39641E-002	8.57511E-001	3.57190E+000	9	...........
	99	1.33333	8.59679E-001	9.11377E-005	0.00000E+000	7.83491E-005	5.39641E-002	8.59833E-001	3.57190E+000	9	...........
	100	1.34667	8.62004E-001	9.09772E-005	0.00000E+000	7.84227E-005	5.39641E-002	8.62157E-001	3.57190E+000	9	...........
	101	1.36	8.64267E-001	9.11033E-005	0.00000E+000	7.87376E-005	5.39641E-002	8.64423E-001	3.57190E+000	9	...........
	102	1.37333	8.66528E-001	9.09991E-005	0.00000E+000	7.88533E-005	5.39641E-002	8.66706E-001	3.57190E+000	9	...........
	103	1.38667	8.68809E-001	9.12606E-005	0.00000E+000	7.92880E-005	5.39641E-002	8.68991E-001	3.57190E+000	9	...........
	104	1.4	8.71086E-001	9.13669E-005	0.00000E+000	7.95884E-005	5.39641E-002	8.71217E-001	3.57190E+000	9	...........
	105	1.41333	8.73262E-001	9.10710E-005	0.00000E+000	7.95288E-005	5.39641E-002	8.73413E-001	3.57190E+000	9	...........
	106	1.42667	8.75453E-001	9.11314E-005	0.00000E+000	7.97812E-005	5.39641E-002	8.75607E-001	3.57190E+000	9	...........
	107	1.44	8.77606E-001	9.11272E-005	0.00000E+000	7.99738E-005	5.39641E-002	8.77729E-001	3.57190E+000	9	...........
	108	1.45333	8.79752E-001	9.12616E-005	0.00000E+000	8.02876E-005	5.39641E-002	8.79859E-001	3.57190E+000	9	...........
	109	1.46667	8.81861E-001	9.10262E-005	0.00000E+000	8.02724E-005	5.39641E-002	8.81977E-001	3.57190E+000	9	...........
	110	1.48	8.83981E-001	9.13210E-005	0.00000E+000	8.07260E-005	5.39641E-002	8.84104E-001	3.57190E+000	9	...........
	111	1.49333	8.86075E-001	9.09303E-005	0.00000E+000	8.05711E-005	5.39641E-002	8.86207E-001	3.57185E+000	9	...........
	112	1.50667	8.88102E-001	9.10033E-005	0.00000E+000	8.08202E-005	5.39641E-002	8.88258E-001	3.57150E+000	9	...........
	113	1.52	8.90167E-001	9.12075E-005	0.00000E+000	8.11898E-005	5.39641E-002	8.90307E-001	3.57150E+000	9	...........
	114	1.53333	8.92186E-001	9.12262E-005	0.00000E+000	8.13908E-005	5.39641E-002	8.92334E-001	3.57150E+000	9	...........
	115	1.54667	8.94151E-001	9.10772E-005	0.00000E+000	8.14368E-005	5.39641E-002	8.94347E-001	3.57150E+000	9	...........
	116	1.56	8.96153E-001	9.09699E-005	0.00000E+000	8.15229E-005	5.39641E-002	8.96327E-001	3.57150E+000	9	...........
	117	1.57333	8.98122E-001	9.10460E-005	0.00000E+000	8.17704E-005	5.39641E-002	8.98285E-001	3.57150E+000	9	...........
	118	1.58667	9.00050E-001	9.10835E-005	0.00000E+000	8.19797E-005	5.39641E-002	9.00208E-001	3.57150E+000	9	...........
	119	1.6	9.01996E-001	9.11648E-005	0.00000E+000	8.22302E-005	5.39641E-002	9.02148E-001	3.57150E+000	9	...........
	120	1.61333	9.03894E-001	9.11564E-005	0.00000E+000	8.23958E-005	5.39641E-002	9.04044E-001	3.57150E+000	9	...........
	121	1.62667	9.05771E-001	9.11606E-005	0.00000E+000	8.25706E-005	5.39641E-002	9.05925E-001	3.57150E+000	9	...........
	122	1.64	9.07619E-001	9.12325E-005	0.00000E+000	8.28044E-005	5.39641E-002	9.07814E-001	3.57150E+000	9	...........
	123	1.65333	9.09494E-001	9.13648E-005	0.00000E+000	8.30957E-005	5.39641E-002	9.09650E-001	3.57150E+000	9	...........
	124	1.66667	9.11327E-001	9.12262E-005	0.00000E+000	8.31369E-005	5.39641E-002	9.11470E-001	3.57150E+000	9	...........
	125	1.68	9.13148E-001	9.11710E-005	0.00000E+000	8.32526E-005	5.39641E-002	9.13303E-001	3.57150E+000	9	...........
	126	1.69333	9.14937E-001	9.15107E-005	0.00000E+000	8.37265E-005	5.39641E-002	9.15115E-001	3.57150E+000	9	...........
	127	1.70667	9.16713E-001	9.12627E-005	0.00000E+000	8.36617E-005	5.39641E-002	9.16903E-001	3.57150E+000	9	...........
	128	1.72	9.18472E-001	9.11877E-005	0.00000E+000	8.37533E-005	5.39641E-002	9.18644E-001	3.57150E+000	9	...........
	129	1.73333	9.20252E-001	9.09928E-005	0.00000E+000	8.37363E-005	5.39641E-002	9.20394E-001	3.57150E+000	9	...........
	130	1.74667	9.22051E-001	9.11137E-005	0.00000E+000	8.40115E-005	5.39641E-002	9.22150E-001	3.57150E+000	9	...........
	131	1.76	9.23745E-001	9.11606E-005	0.00000E+000	8.42092E-005	5.39641E-002	9.23863E-001	3.57150E+000	9	...........
	132	1.77333	9.25436E-001	9.12262E-005	0.00000E+000	8.44240E-005	5.39641E-002	9.25563E-001	3.57150E+000	9	...........
	133	1.78667	9.27130E-001	9.10949E-005	0.00000E+000	8.44569E-005	5.39641E-002	9.27281E-001	3.57150E+000	9	...........
	134	1.8	9.28797E-001	9.12387E-005	0.00000E+000	8.47423E-005	5.39641E-002	9.28944E-001	3.57150E+000	9	...........
	135	1.81333	9.30459E-001	9.09157E-005	0.00000E+000	8.45934E-005	5.39641E-002	9.30600E-001	3.57150E+000	9	...........
	136	1.82667	9.32087E-001	9.12575E-005	0.00000E+000	8.50599E-005	5.39641E-002	9.32234E-001	3.57150E+000	9	...........
	137	1.84	9.33727E-001	9.12908E-005	0.00000E+000	8.52407E-005	5.39641E-002	9.33873E-001	3.57150E+000	9	...........
	138	1.85333	9.35322E-001	9.11908E-005	0.00000E+000	8.52928E-005	5.39641E-002	9.35484E-001	3.57150E+000	9	...........
	139	1.86667	9.36903E-001	9.12064E-005	0.00000E+000	8.54515E-005	5.39641E-002	9.37106E-001	3.57150E+000	9	...........
	140	1.88	9.38487E-001	9.12606E-005	0.00000E+000	8.56469E-005	5.39641E-002	9.38660E-001	3.57150E+000	9	...........
	141	1.89333	9.40035E-001	9.14502E-005	0.00000E+000	8.59664E-005	5.39641E-002	9.40233E-001	3.57150E+000	9	...........
	142	1.90667	9.41628E-001	9.11106E-005	0.00000E+000	8.57923E-005	5.39641E-002	9.41756E-001	3.57150E+000	9	...........
	143	1.92	9.43151E-001	9.12221E-005	0.00000E+000	8.60362E-005	5.39641E-002	9.43296E-001	3.57150E+000	9	...........
	144	1.93333	9.44699E-001	9.10053E-005	0.00000E+000	8.59727E-005	5.39641E-002	9.44848E-001	3.57150E+000	9	...........
	145	1.94667	9.46211E-001	9.12481E-005	0.00000E+000	8.63400E-005	5.39641E-002	9.46384E-001	3.57150E+000	9	...........
	146	1.96	9.47762E-001	9.10345E-005	0.00000E+000	8.62790E-005	5.39641E-002	9.47915E-001	3.57150E+000	9	...........
	147	1.97333	9.49250E-001	9.11179E-005	0.00000E+000	8.64936E-005	5.39641E-002	9.49388E-001	3.57150E+000	9	...........
	148	1.98667	9.50732E-001	9.12616E-005	0.00000E+000	8.67653E-005	5.39641E-002	9.50868E-001	3.57150E+000	9	...........
	149	2	9.52171E-001	9.10293E-005	0.00000E+000	8.66755E-005	5.39641E-002	9.52336E-001	3.57150E+000	9	...........
	150	2.01333	9.53644E-001	9.12335E-005	0.00000E+000	8.70043E-005	5.39641E-002	9.53759E-001	3.57150E+000	9	...........
	151	2.02667	9.55071E-001	9.11908E-005	0.00000E+000	8.70937E-005	5.39641E-002	9.55191E-001	3.57150E+000	9	...........
	152	2.04	9.56496E-001	9.12231E-005	0.00000E+000	8.72545E-005	5.39641E-002	9.56610E-001	3.57150E+000	9	...........
	153	2.05333	9.57909E-001	9.09334E-005	0.00000E+000	8.71060E-005	5.39641E-002	9.58016E-001	3.57150E+000	9	...........
	154	2.06667	9.59275E-001	9.11106E-005	0.00000E+000	8.74001E-005	5.39641E-002	9.59445E-001	3.57150E+000	9	...........
	155	2.08	9.60688E-001	9.11533E-005	0.00000E+000	8.75698E-005	5.39641E-002	9.60843E-001	3.57150E+000	9	...........
	156	2.09333	9.62044E-001	9.12481E-005	0.00000E+000	8.77847E-005	5.39641E-002	9.62194E-001	3.57150E+000	9	...........
	157	2.10667	9.63387E-001	9.10887E-005	0.00000E+000	8.77537E-005	5.39641E-002	9.63545E-001	3.57150E+000	9	...........
	158	2.12	9.64723E-001	9.10804E-005	0.00000E+000	8.78673E-005	5.39641E-002	9.64899E-001	3.57150E+000	9	...........
	159	2.13333	9.66053E-001	9.13158E-005	0.00000E+000	8.82160E-005	5.39641E-002	9.66219E-001	3.57150E+000	9	...........
	160	2.14667	9.67379E-001	9.11470E-005	0.00000E+000	8.81737E-005	5.39641E-002	9.67550E-001	3.57150E+000	9	...........
	161	2.16	9.68673E-001	9.10918E-005	0.00000E+000	8.82382E-005	5.39641E-002	9.68879E-001	3.57150E+000	9	...........
	162	2.17333	9.69961E-001	9.10626E-005	0.00000E+000	8.83272E-005	5.39641E-002	9.70159E-001	3.57150E+000	9	...........
	163	2.18667	9.71263E-001	9.10314E-005	0.00000E+000	8.84154E-005	5.39641E-002	9.71451E-001	3.57150E+000	9	...........
	164	2.2	9.72601E-001	9.11877E-005	0.00000E+000	8.86892E-005	5.39641E-002	9.72764E-001	3.57150E+000	9	...........
	165	2.21333	9.73889E-001	9.09366E-005	0.00000E+000	8.85621E-005	5.39641E-002	9.74041E-001	3.57150E+000	9	...........
	166	2.22667	9.75137E-001	9.10262E-005	0.00000E+000	8.87630E-005	5.39641E-002	9.75289E-001	3.57150E+000	9	...........
	167	2.24	9.76367E-001	9.12127E-005	0.00000E+000	8.90571E-005	5.39641E-002	9.76530E-001	3.57150E+000	9	...........
	168	2.25333	9.77595E-001	9.13669E-005	0.00000E+000	8.93198E-005	5.39641E-002	9.77754E-001	3.57150E+000	9	...........
	169	2.26667	9.78813E-001	9.11293E-005	0.00000E+000	8.91986E-005	5.39641E-002	9.78978E-001	3.57150E+000	9	...........
	170	2.28	9.80022E-001	9.12241E-005	0.00000E+000	8.94017E-005	5.39641E-002	9.80186E-001	3.57150E+000	9	...........
	171	2.29333	9.81203E-001	9.12314E-005	0.00000E+000	8.95165E-005	5.39641E-002	9.81371E-001	3.57150E+000	9	...........
	172	2.30667	9.82405E-001	9.11512E-005	0.00000E+000	8.95474E-005	5.39641E-002	9.82572E-001	3.57150E+000	9	...........
	173	2.32	9.83579E-001	9.13106E-005	0.00000E+000	8.98112E-005	5.39641E-002	9.83761E-001	3.57150E+000	9	...........
	174	2.33333	9.84762E-001	9.12762E-005	0.00000E+000	8.98853E-005	5.39641E-002	9.84941E-001	3.57150E+000	9	...........
	175	2.34667	9.85913E-001	9.12648E-005	0.00000E+000	8.99792E-005	5.39641E-002	9.86089E-001	3.57150E+000	9	...........
	176	2.36	9.87036E-001	9.12575E-005	0.00000E+000	9.00744E-005	5.39641E-002	9.87226E-001	3.57150E+000	9	...........
	177	2.37333	9.88184E-001	9.11356E-005	0.00000E+000	9.00587E-005	5.39641E-002	9.88349E-001	3.57150E+000	9	...........
	178	2.38667	9.89325E-001	9.12273E-005	0.00000E+000	9.02534E-005	5.39641E-002	9.89490E-001	3.57150E+000	9	...........
	179	2.4	9.90435E-001	9.14169E-005	0.00000E+000	9.05425E-005	5.39641E-002	9.90627E-001	3.57150E+000	9	...........
	180	2.41333	9.91528E-001	9.10293E-005	0.00000E+000	9.02581E-005	5.39641E-002	9.91701E-001	3.57150E+000	9	...........
	181	2.42667	9.92650E-001	9.12929E-005	0.00000E+000	9.06219E-005	5.39641E-002	9.92812E-001	3.57150E+000	9	...........
	182	2.44	9.93704E-001	9.11991E-005	0.00000E+000	9.06249E-005	5.39641E-002	9.93907E-001	3.57150E+000	9	...........
	183	2.45333	9.94798E-001	9.13450E-005	0.00000E+000	9.08698E-005	5.39641E-002	9.94982E-001	3.57150E+000	9	...........
	184	2.46667	9.95868E-001	9.11147E-005	0.00000E+000	9.07383E-005	5.39641E-002	9.96067E-001	3.57150E+000	9	...........
	185	2.48	9.96902E-001	9.13158E-005	0.00000E+000	9.10330E-005	5.39641E-002	9.97121E-001	3.57150E+000	9	...........
	186	2.49333	9.97969E-001	9.10793E-005	0.00000E+000	9.08943E-005	5.39641E-002	9.98169E-001	3.57149E+000	9	...........
	187	2.50667	9.99029E-001	9.13169E-005	0.00000E+000	9.12282E-005	5.39641E-002	9.99220E-001	3.57140E+000	9	...........
	188	2.515	9.99862E-001	9.09159E-005	0.00000E+000	9.09034E-005	5.39641E-002	1.00005E+000	3.57140E+000	9	...........
STARTTIMEOFFSET	QUANT	409.8	Start Time Offset (s)
