EXPLAIN
TAG	PWR800_CHARGE
TITLE	LABEL	PWR Cyclic Charge Discharge (Cell) - Charge Step	Test &Identifier
DATE	LABEL	10-7-2017	Date
TIME	LABEL	15:50:28	Time
NOTES	NOTES	3	&Notes...
	supercap test cell
	0.9mg
	6M KOH
PSTAT	PSTAT	IFC5000-01520	Potentiostat
CAPACITY	QUANT	1.00000E-003	Capacity (A-hr)
CELLTYPE	SELECTOR	1	&Cell Type
WORKINGCONNECTION	SELECTOR	0	&Working Lead
MAXCHARGETIME	VARIABLEANDUNITS	1.00000E+002	s	1.00000E+002	second(s)	Max &Charge Time
CHARGECURRENT	QUANT	9.00000E-005	&Charge Current (A) 
VOLTAGEFINISH	TWOPARAM	F	1.00000E-003	3.60000E+003	&Voltage Finish	 I (A) < 	Max Time(s)
SAMPLETIME	QUANT	1.00000E-002	Sa&mple Period (s)
CHARGESTOPAT1	MULTIPARAM	4	1.00000E+000	Charge Stop At &1	Voltage > Limit	V
CHARGESTOPAT2	MULTIPARAM	0	0.00000E+000	Charge Stop At &2	None	N/A
AESBHCSELECTOR	TOGGLE	F	Save Both Half Cells
IRCOMP	TOGGLE	F	IR &Measure
EOC	QUANT	0	Open Circuit (V)
SEQUENCER	TOGGLE	TRUE	Run as Sequence
PSTATMODEL	IQUANT	53	Pstat Model
PSTATSECTION	LABEL	IFC5000-01520	Pstat Section
PSTATSERIALNO	LABEL	01520	Pstat Serial Number
CTRLMODE	IQUANT	0	Control Mode
ELECTROMETER	IQUANT	1	RE=0 or CS=1
IESTAB	IQUANT	0	I/E Stability
CASPEED	IQUANT	4	Control Amp Speed
CONVENTION	IQUANT	1	Current Convention
ICHRANGE	IQUANT	2	Ich Range
ICHRANGEMODE	TOGGLE	T	Ich Auto Range
ICHOFFSETENABLE	TOGGLE	F	Ich Offset Enable
ICHOFFSET	QUANT	0	Ich Offset (V)
ICHFILTER	IQUANT	1	Ich Filter
VCHRANGE	IQUANT	2	Vch Range
VCHRANGEMODE	TOGGLE	T	Vch Auto Range
VCHOFFSETENABLE	TOGGLE	F	Vch Offset Enable
VCHOFFSET	QUANT	0	Vch Offset (V)
VCHFILTER	IQUANT	1	Vch Filter
IERANGELOWERLIMIT	IQUANT	9	I/E Range Lower Limit
IERANGEMODE	TOGGLE	F	I/E AutoRange
IERANGE	IQUANT	9	I/E Range
ACHSELECT	IQUANT	1	Ach Select
ACHRANGE	IQUANT	2	Ach Range
ACHOFFSETENABLE	TOGGLE	F	Ach Offset Enable
ACHOFFSET	QUANT	0	Ach Offset (V)
ACHFILTER	IQUANT	1	Ach Filter
CABLEID	IQUANT	14	Cable ID
DCCALDATE	LABEL	5-7-2017	DC Calibration Date
ACCALDATE	LABEL	12/3/2015	AC Calibration Date
FRAMEWORKVERSION	QUANT	7.01	Framework Version
INSTRUMENTVERSION	LABEL	4.00	Instrument Version
CURVE	TABLE	167
	Pt	T	Vf	Im	Vu	Pwr	Sig	Ach	Temp	IERange	Over
	#	s	V	A	V	W	V	V	deg C	#	bits
	0	0.013333	2.70994E-001	9.08782E-005	0.00000E+000	2.46274E-005	5.39641E-002	2.71038E-001	3.57260E+000	9	...........
	1	0.026667	2.90707E-001	9.10147E-005	0.00000E+000	2.64587E-005	5.39641E-002	2.90752E-001	3.57260E+000	9	...........
	2	0.04	3.09143E-001	9.08428E-005	0.00000E+000	2.80834E-005	5.39641E-002	3.09182E-001	3.57310E+000	9	...........
	3	0.053333	3.26479E-001	9.08261E-005	0.00000E+000	2.96529E-005	5.39641E-002	3.26525E-001	3.57360E+000	9	...........
	4	0.066667	3.42844E-001	9.10533E-005	0.00000E+000	3.12171E-005	5.39641E-002	3.42890E-001	3.57360E+000	9	...........
	5	0.08	3.58358E-001	9.10481E-005	0.00000E+000	3.26278E-005	5.39641E-002	3.58407E-001	3.57360E+000	9	...........
	6	0.093333	3.73075E-001	9.08074E-005	0.00000E+000	3.38779E-005	5.39641E-002	3.73126E-001	3.57360E+000	9	...........
	7	0.106667	3.87088E-001	9.11147E-005	0.00000E+000	3.52694E-005	5.39641E-002	3.87136E-001	3.57360E+000	9	...........
	8	0.12	4.00449E-001	9.09616E-005	0.00000E+000	3.64255E-005	5.39641E-002	4.00499E-001	3.57360E+000	9	...........
	9	0.133333	4.13229E-001	9.08522E-005	0.00000E+000	3.75428E-005	5.39641E-002	4.13288E-001	3.57360E+000	9	...........
	10	0.146667	4.25467E-001	9.10158E-005	0.00000E+000	3.87242E-005	5.39641E-002	4.25529E-001	3.57360E+000	9	...........
	11	0.16	4.37224E-001	9.10012E-005	0.00000E+000	3.97879E-005	5.39641E-002	4.37287E-001	3.57360E+000	9	...........
	12	0.173333	4.48521E-001	9.08147E-005	0.00000E+000	4.07323E-005	5.39641E-002	4.48583E-001	3.57360E+000	9	...........
	13	0.186667	4.59406E-001	9.10731E-005	0.00000E+000	4.18395E-005	5.39641E-002	4.59472E-001	3.57360E+000	9	...........
	14	0.2	4.69887E-001	9.09741E-005	0.00000E+000	4.27476E-005	5.39641E-002	4.69949E-001	3.57360E+000	9	...........
	15	0.213333	4.79998E-001	9.09710E-005	0.00000E+000	4.36659E-005	5.39641E-002	4.80058E-001	3.57360E+000	9	...........
	16	0.226667	4.89754E-001	9.12075E-005	0.00000E+000	4.46693E-005	5.39641E-002	4.89824E-001	3.57360E+000	9	...........
	17	0.24	4.99206E-001	9.08574E-005	0.00000E+000	4.53566E-005	5.39641E-002	4.99272E-001	3.57360E+000	9	...........
	18	0.253333	5.08348E-001	9.11241E-005	0.00000E+000	4.63228E-005	5.39641E-002	5.08418E-001	3.57360E+000	9	...........
	19	0.266667	5.17216E-001	9.08334E-005	0.00000E+000	4.69805E-005	5.39641E-002	5.17282E-001	3.57360E+000	9	...........
	20	0.28	5.25809E-001	9.08887E-005	0.00000E+000	4.77901E-005	5.39641E-002	5.25880E-001	3.57360E+000	9	...........
	21	0.293333	5.34090E-001	9.10272E-005	0.00000E+000	4.86167E-005	5.39641E-002	5.34180E-001	3.57360E+000	9	...........
	22	0.306667	5.42154E-001	9.12564E-005	0.00000E+000	4.94751E-005	5.39641E-002	5.42289E-001	3.57360E+000	9	...........
	23	0.32	5.50035E-001	9.07178E-005	0.00000E+000	4.98979E-005	5.39641E-002	5.50144E-001	3.57360E+000	9	...........
	24	0.333333	5.57698E-001	9.11325E-005	0.00000E+000	5.08243E-005	5.39641E-002	5.57821E-001	3.57360E+000	9	...........
	25	0.346667	5.65210E-001	9.09553E-005	0.00000E+000	5.14089E-005	5.39641E-002	5.65331E-001	3.57360E+000	9	...........
	26	0.36	5.72503E-001	9.13471E-005	0.00000E+000	5.22965E-005	5.39641E-002	5.72618E-001	3.57360E+000	9	...........
	27	0.373333	5.79609E-001	9.11022E-005	0.00000E+000	5.28037E-005	5.39641E-002	5.79738E-001	3.57360E+000	9	...........
	28	0.386667	5.86541E-001	9.11835E-005	0.00000E+000	5.34828E-005	5.39641E-002	5.86657E-001	3.57360E+000	9	...........
	29	0.4	5.93322E-001	9.10460E-005	0.00000E+000	5.40196E-005	5.39641E-002	5.93410E-001	3.57360E+000	9	...........
	30	0.413333	5.99923E-001	9.08699E-005	0.00000E+000	5.45150E-005	5.39641E-002	6.00043E-001	3.57360E+000	9	...........
	31	0.426667	6.06366E-001	9.12085E-005	0.00000E+000	5.53057E-005	5.39641E-002	6.06498E-001	3.57360E+000	9	...........
	32	0.44	6.12697E-001	9.11679E-005	0.00000E+000	5.58583E-005	5.39641E-002	6.12831E-001	3.57360E+000	9	...........
	33	0.453333	6.18955E-001	9.10137E-005	0.00000E+000	5.63334E-005	5.39641E-002	6.19016E-001	3.57360E+000	9	...........
	34	0.466667	6.25010E-001	9.10408E-005	0.00000E+000	5.69014E-005	5.39641E-002	6.25109E-001	3.57360E+000	9	...........
	35	0.48	6.30946E-001	9.09522E-005	0.00000E+000	5.73859E-005	5.39641E-002	6.31049E-001	3.57360E+000	9	...........
	36	0.493333	6.36777E-001	9.12283E-005	0.00000E+000	5.80921E-005	5.39641E-002	6.36887E-001	3.57360E+000	9	...........
	37	0.506667	6.42525E-001	9.08762E-005	0.00000E+000	5.83902E-005	5.39641E-002	6.42626E-001	3.57360E+000	9	...........
	38	0.52	6.48156E-001	9.09980E-005	0.00000E+000	5.89809E-005	5.39641E-002	6.48237E-001	3.57360E+000	9	...........
	39	0.533333	6.53654E-001	9.10147E-005	0.00000E+000	5.94922E-005	5.39641E-002	6.53747E-001	3.57360E+000	9	...........
	40	0.546667	6.59035E-001	9.11043E-005	0.00000E+000	6.00409E-005	5.39641E-002	6.59133E-001	3.57360E+000	9	...........
	41	0.56	6.64344E-001	9.10585E-005	0.00000E+000	6.04942E-005	5.39641E-002	6.64459E-001	3.57360E+000	9	...........
	42	0.573333	6.69546E-001	9.10439E-005	0.00000E+000	6.09581E-005	5.39641E-002	6.69652E-001	3.57360E+000	9	...........
	43	0.586667	6.74647E-001	9.08970E-005	0.00000E+000	6.13234E-005	5.39641E-002	6.74768E-001	3.57360E+000	9	...........
	44	0.6	6.79715E-001	9.07886E-005	0.00000E+000	6.17104E-005	5.39641E-002	6.79827E-001	3.57360E+000	9	...........
	45	0.613333	6.84646E-001	9.12377E-005	0.00000E+000	6.24655E-005	5.39641E-002	6.84770E-001	3.57360E+000	9	...........
	46	0.626667	6.89539E-001	9.10689E-005	0.00000E+000	6.27955E-005	5.39641E-002	6.89659E-001	3.57360E+000	9	...........
	47	0.64	6.94339E-001	9.10272E-005	0.00000E+000	6.32038E-005	5.39641E-002	6.94443E-001	3.57360E+000	9	...........
	48	0.653333	6.99047E-001	9.07272E-005	0.00000E+000	6.34226E-005	5.39641E-002	6.99165E-001	3.57360E+000	9	...........
	49	0.666667	7.03686E-001	9.09814E-005	0.00000E+000	6.40224E-005	5.39641E-002	7.03803E-001	3.57360E+000	9	...........
	50	0.68	7.08249E-001	9.09574E-005	0.00000E+000	6.44205E-005	5.39641E-002	7.08368E-001	3.57360E+000	9	...........
	51	0.693333	7.12741E-001	9.10449E-005	0.00000E+000	6.48915E-005	5.39641E-002	7.12860E-001	3.57360E+000	9	...........
	52	0.706667	7.17227E-001	9.11033E-005	0.00000E+000	6.53417E-005	5.39641E-002	7.17328E-001	3.57360E+000	9	...........
	53	0.72	7.21636E-001	9.10126E-005	0.00000E+000	6.56780E-005	5.39641E-002	7.21714E-001	3.57360E+000	9	...........
	54	0.733333	7.25938E-001	9.09303E-005	0.00000E+000	6.60098E-005	5.39641E-002	7.26025E-001	3.57360E+000	9	...........
	55	0.746667	7.30168E-001	9.10679E-005	0.00000E+000	6.64948E-005	5.39641E-002	7.30299E-001	3.57360E+000	9	...........
	56	0.76	7.34379E-001	9.10929E-005	0.00000E+000	6.68967E-005	5.39641E-002	7.34498E-001	3.57360E+000	9	...........
	57	0.773333	7.38523E-001	9.12002E-005	0.00000E+000	6.73534E-005	5.39641E-002	7.38665E-001	3.57360E+000	9	...........
	58	0.786667	7.42643E-001	9.12408E-005	0.00000E+000	6.77594E-005	5.39641E-002	7.42770E-001	3.57360E+000	9	...........
	59	0.8	7.46706E-001	9.11481E-005	0.00000E+000	6.80608E-005	5.39641E-002	7.46818E-001	3.57360E+000	9	...........
	60	0.813333	7.50673E-001	9.11835E-005	0.00000E+000	6.84490E-005	5.39641E-002	7.50789E-001	3.57360E+000	9	...........
	61	0.826667	7.54602E-001	9.10574E-005	0.00000E+000	6.87121E-005	5.39641E-002	7.54731E-001	3.57360E+000	9	...........
	62	0.84	7.58474E-001	9.11220E-005	0.00000E+000	6.91137E-005	5.39641E-002	7.58615E-001	3.57360E+000	9	...........
	63	0.853333	7.62344E-001	9.10012E-005	0.00000E+000	6.93742E-005	5.39641E-002	7.62474E-001	3.57360E+000	9	...........
	64	0.866667	7.66108E-001	9.09053E-005	0.00000E+000	6.96433E-005	5.39641E-002	7.66247E-001	3.57360E+000	9	...........
	65	0.88	7.69858E-001	9.10814E-005	0.00000E+000	7.01198E-005	5.39641E-002	7.70016E-001	3.57360E+000	9	...........
	66	0.893333	7.73546E-001	9.11616E-005	0.00000E+000	7.05177E-005	5.39641E-002	7.73692E-001	3.57360E+000	9	...........
	67	0.906667	7.77186E-001	9.08345E-005	0.00000E+000	7.05953E-005	5.39641E-002	7.77337E-001	3.57360E+000	9	...........
	68	0.92	7.80801E-001	9.10595E-005	0.00000E+000	7.10994E-005	5.39641E-002	7.80950E-001	3.57360E+000	9	...........
	69	0.933333	7.84335E-001	9.09564E-005	0.00000E+000	7.13403E-005	5.39641E-002	7.84492E-001	3.57360E+000	9	...........
	70	0.946667	7.87840E-001	9.09803E-005	0.00000E+000	7.16780E-005	5.39641E-002	7.87980E-001	3.57360E+000	9	...........
	71	0.96	7.91324E-001	9.07011E-005	0.00000E+000	7.17740E-005	5.39641E-002	7.91500E-001	3.57360E+000	9	...........
	72	0.97333	7.94831E-001	9.09095E-005	0.00000E+000	7.22577E-005	5.39641E-002	7.94957E-001	3.57360E+000	9	...........
	73	0.98667	7.98205E-001	9.09345E-005	0.00000E+000	7.25844E-005	5.39641E-002	7.98343E-001	3.57360E+000	9	...........
	74	1	8.01570E-001	9.09095E-005	0.00000E+000	7.28703E-005	5.39641E-002	8.01720E-001	3.57360E+000	9	...........
	75	1.01333	8.04903E-001	9.11637E-005	0.00000E+000	7.33779E-005	5.39641E-002	8.05082E-001	3.57360E+000	9	...........
	76	1.02667	8.08221E-001	9.11512E-005	0.00000E+000	7.36704E-005	5.39641E-002	8.08361E-001	3.57360E+000	9	...........
	77	1.04	8.11478E-001	9.08241E-005	0.00000E+000	7.37017E-005	5.39641E-002	8.11630E-001	3.57330E+000	9	...........
	78	1.05333	8.14701E-001	9.09803E-005	0.00000E+000	7.41218E-005	5.39641E-002	8.14862E-001	3.57300E+000	9	...........
	79	1.06667	8.17921E-001	9.10533E-005	0.00000E+000	7.44744E-005	5.39641E-002	8.18078E-001	3.57300E+000	9	...........
	80	1.08	8.21099E-001	9.09897E-005	0.00000E+000	7.47115E-005	5.39641E-002	8.21258E-001	3.57300E+000	9	...........
	81	1.09333	8.24240E-001	9.08834E-005	0.00000E+000	7.49098E-005	5.39641E-002	8.24398E-001	3.57300E+000	9	...........
	82	1.10667	8.27321E-001	9.11283E-005	0.00000E+000	7.53923E-005	5.39641E-002	8.27493E-001	3.57300E+000	9	...........
	83	1.12	8.30367E-001	9.10147E-005	0.00000E+000	7.55756E-005	5.39641E-002	8.30547E-001	3.57300E+000	9	...........
	84	1.13333	8.33397E-001	9.11106E-005	0.00000E+000	7.59313E-005	5.39641E-002	8.33582E-001	3.57300E+000	9	...........
	85	1.14667	8.36382E-001	9.08574E-005	0.00000E+000	7.59915E-005	5.39641E-002	8.36605E-001	3.57300E+000	9	...........
	86	1.16	8.39377E-001	9.12554E-005	0.00000E+000	7.65977E-005	5.39641E-002	8.39561E-001	3.57300E+000	9	...........
	87	1.17333	8.42294E-001	9.09074E-005	0.00000E+000	7.65708E-005	5.39641E-002	8.42490E-001	3.57300E+000	9	...........
	88	1.18667	8.45240E-001	9.13117E-005	0.00000E+000	7.71803E-005	5.39641E-002	8.45424E-001	3.57300E+000	9	...........
	89	1.2	8.48072E-001	9.10866E-005	0.00000E+000	7.72480E-005	5.39641E-002	8.48284E-001	3.57300E+000	9	...........
	90	1.21333	8.50908E-001	9.06042E-005	0.00000E+000	7.70959E-005	5.39641E-002	8.51119E-001	3.57300E+000	9	...........
	91	1.22667	8.53712E-001	9.11575E-005	0.00000E+000	7.78222E-005	5.39641E-002	8.53917E-001	3.57300E+000	9	...........
	92	1.24	8.56488E-001	9.12616E-005	0.00000E+000	7.81645E-005	5.39641E-002	8.56698E-001	3.57300E+000	9	...........
	93	1.25333	8.59257E-001	9.09387E-005	0.00000E+000	7.81396E-005	5.39641E-002	8.59477E-001	3.57300E+000	9	...........
	94	1.26667	8.62028E-001	9.08595E-005	0.00000E+000	7.83234E-005	5.39641E-002	8.62207E-001	3.57300E+000	9	...........
	95	1.28	8.64687E-001	9.11127E-005	0.00000E+000	7.87840E-005	5.39641E-002	8.64882E-001	3.57300E+000	9	...........
	96	1.29333	8.67355E-001	9.07647E-005	0.00000E+000	7.87251E-005	5.39641E-002	8.67581E-001	3.57300E+000	9	...........
	97	1.30667	8.70050E-001	9.10918E-005	0.00000E+000	7.92545E-005	5.39641E-002	8.70237E-001	3.57300E+000	9	...........
	98	1.32	8.72653E-001	9.08168E-005	0.00000E+000	7.92515E-005	5.39641E-002	8.72862E-001	3.57300E+000	9	...........
	99	1.33333	8.75275E-001	9.08334E-005	0.00000E+000	7.95042E-005	5.39641E-002	8.75478E-001	3.57300E+000	9	...........
	100	1.34667	8.77858E-001	9.12387E-005	0.00000E+000	8.00947E-005	5.39641E-002	8.78013E-001	3.57300E+000	9	...........
	101	1.36	8.80407E-001	9.09428E-005	0.00000E+000	8.00667E-005	5.39641E-002	8.80568E-001	3.57300E+000	9	...........
	102	1.37333	8.82967E-001	9.09991E-005	0.00000E+000	8.03491E-005	5.39641E-002	8.83142E-001	3.57300E+000	9	...........
	103	1.38667	8.85451E-001	9.12523E-005	0.00000E+000	8.07994E-005	5.39641E-002	8.85634E-001	3.57300E+000	9	...........
	104	1.4	8.87947E-001	9.07563E-005	0.00000E+000	8.05868E-005	5.39641E-002	8.88104E-001	3.57300E+000	9	...........
	105	1.41333	8.90388E-001	9.09543E-005	0.00000E+000	8.09846E-005	5.39641E-002	8.90548E-001	3.57300E+000	9	...........
	106	1.42667	8.92798E-001	9.10637E-005	0.00000E+000	8.13014E-005	5.39641E-002	8.92987E-001	3.57300E+000	9	...........
	107	1.44	8.95190E-001	9.10345E-005	0.00000E+000	8.14932E-005	5.39641E-002	8.95402E-001	3.57300E+000	9	...........
	108	1.45333	8.97542E-001	9.10366E-005	0.00000E+000	8.17092E-005	5.39641E-002	8.97758E-001	3.57300E+000	9	...........
	109	1.46667	8.99912E-001	9.08751E-005	0.00000E+000	8.17796E-005	5.39641E-002	9.00105E-001	3.57300E+000	9	...........
	110	1.48	9.02235E-001	9.10210E-005	0.00000E+000	8.21223E-005	5.39641E-002	9.02434E-001	3.57300E+000	9	...........
	111	1.49333	9.04502E-001	9.10512E-005	0.00000E+000	8.23560E-005	5.39641E-002	9.04719E-001	3.57300E+000	9	...........
	112	1.50667	9.06780E-001	9.08793E-005	0.00000E+000	8.24075E-005	5.39641E-002	9.06997E-001	3.57300E+000	9	...........
	113	1.52	9.09049E-001	9.09803E-005	0.00000E+000	8.27056E-005	5.39641E-002	9.09235E-001	3.57300E+000	9	...........
	114	1.53333	9.11271E-001	9.08793E-005	0.00000E+000	8.28156E-005	5.39641E-002	9.11460E-001	3.57300E+000	9	...........
	115	1.54667	9.13493E-001	9.11074E-005	0.00000E+000	8.32260E-005	5.39641E-002	9.13689E-001	3.57300E+000	9	...........
	116	1.56	9.15681E-001	9.09387E-005	0.00000E+000	8.32708E-005	5.39641E-002	9.15887E-001	3.57300E+000	9	...........
	117	1.57333	9.17804E-001	9.11283E-005	0.00000E+000	8.36379E-005	5.39641E-002	9.18043E-001	3.57300E+000	9	...........
	118	1.58667	9.19956E-001	9.09553E-005	0.00000E+000	8.36749E-005	5.39641E-002	9.20140E-001	3.57300E+000	9	...........
	119	1.6	9.22122E-001	9.08616E-005	0.00000E+000	8.37855E-005	5.39641E-002	9.22272E-001	3.57300E+000	9	...........
	120	1.61333	9.24204E-001	9.10126E-005	0.00000E+000	8.41143E-005	5.39641E-002	9.24339E-001	3.57300E+000	9	...........
	121	1.62667	9.26256E-001	9.11199E-005	0.00000E+000	8.44004E-005	5.39641E-002	9.26417E-001	3.57300E+000	9	...........
	122	1.64	9.28278E-001	9.11022E-005	0.00000E+000	8.45682E-005	5.39641E-002	9.28452E-001	3.57300E+000	9	...........
	123	1.65333	9.30308E-001	9.09574E-005	0.00000E+000	8.46184E-005	5.39641E-002	9.30472E-001	3.57300E+000	9	...........
	124	1.66667	9.32314E-001	9.12189E-005	0.00000E+000	8.50446E-005	5.39641E-002	9.32489E-001	3.57300E+000	9	...........
	125	1.68	9.34273E-001	9.12398E-005	0.00000E+000	8.52428E-005	5.39641E-002	9.34510E-001	3.57300E+000	9	...........
	126	1.69333	9.36215E-001	9.11210E-005	0.00000E+000	8.53088E-005	5.39641E-002	9.36458E-001	3.57300E+000	9	...........
	127	1.70667	9.38193E-001	9.10626E-005	0.00000E+000	8.54344E-005	5.39641E-002	9.38389E-001	3.57300E+000	9	...........
	128	1.72	9.40103E-001	9.08095E-005	0.00000E+000	8.53702E-005	5.39641E-002	9.40310E-001	3.57300E+000	9	...........
	129	1.73333	9.42001E-001	9.08949E-005	0.00000E+000	8.56231E-005	5.39641E-002	9.42215E-001	3.57300E+000	9	...........
	130	1.74667	9.43854E-001	9.11668E-005	0.00000E+000	8.60482E-005	5.39641E-002	9.44054E-001	3.57300E+000	9	...........
	131	1.76	9.45701E-001	9.11898E-005	0.00000E+000	8.62382E-005	5.39641E-002	9.45921E-001	3.57300E+000	9	...........
	132	1.77333	9.47590E-001	9.10272E-005	0.00000E+000	8.62565E-005	5.39641E-002	9.47779E-001	3.57300E+000	9	...........
	133	1.78667	9.49420E-001	9.11814E-005	0.00000E+000	8.65695E-005	5.39641E-002	9.49585E-001	3.57300E+000	9	...........
	134	1.8	9.51207E-001	9.10793E-005	0.00000E+000	8.66353E-005	5.39641E-002	9.51386E-001	3.57300E+000	9	...........
	135	1.81333	9.53005E-001	9.10522E-005	0.00000E+000	8.67732E-005	5.39641E-002	9.53169E-001	3.57300E+000	9	...........
	136	1.82667	9.54764E-001	9.09918E-005	0.00000E+000	8.68757E-005	5.39641E-002	9.54910E-001	3.57300E+000	9	...........
	137	1.84	9.56487E-001	9.10439E-005	0.00000E+000	8.70823E-005	5.39641E-002	9.56658E-001	3.57300E+000	9	...........
	138	1.85333	9.58193E-001	9.11408E-005	0.00000E+000	8.73305E-005	5.39641E-002	9.58400E-001	3.57300E+000	9	...........
	139	1.86667	9.59902E-001	9.09574E-005	0.00000E+000	8.73102E-005	5.39641E-002	9.60111E-001	3.57300E+000	9	...........
	140	1.88	9.61587E-001	9.10991E-005	0.00000E+000	8.75997E-005	5.39641E-002	9.61819E-001	3.57300E+000	9	...........
	141	1.89333	9.63219E-001	9.07261E-005	0.00000E+000	8.73891E-005	5.39641E-002	9.63474E-001	3.57300E+000	9	...........
	142	1.90667	9.64884E-001	9.11137E-005	0.00000E+000	8.79142E-005	5.39641E-002	9.65115E-001	3.57300E+000	9	...........
	143	1.92	9.66515E-001	9.12137E-005	0.00000E+000	8.81594E-005	5.39641E-002	9.66750E-001	3.57300E+000	9	...........
	144	1.93333	9.68135E-001	9.13148E-005	0.00000E+000	8.84051E-005	5.39641E-002	9.68390E-001	3.57300E+000	9	...........
	145	1.94667	9.69747E-001	9.11231E-005	0.00000E+000	8.83664E-005	5.39641E-002	9.69993E-001	3.57300E+000	9	...........
	146	1.96	9.71329E-001	9.07511E-005	0.00000E+000	8.81492E-005	5.39641E-002	9.71588E-001	3.57300E+000	9	...........
	147	1.97333	9.72966E-001	9.11429E-005	0.00000E+000	8.86789E-005	5.39641E-002	9.73201E-001	3.57300E+000	9	...........
	148	1.98667	9.74545E-001	9.09397E-005	0.00000E+000	8.86249E-005	5.39641E-002	9.74739E-001	3.57300E+000	9	...........
	149	2	9.76077E-001	9.11741E-005	0.00000E+000	8.89930E-005	5.39641E-002	9.76283E-001	3.57300E+000	9	...........
	150	2.01333	9.77588E-001	9.11262E-005	0.00000E+000	8.90839E-005	5.39641E-002	9.77803E-001	3.57300E+000	9	...........
	151	2.02667	9.79097E-001	9.09439E-005	0.00000E+000	8.90429E-005	5.39641E-002	9.79295E-001	3.57300E+000	9	...........
	152	2.04	9.80584E-001	9.09960E-005	0.00000E+000	8.92292E-005	5.39641E-002	9.80783E-001	3.57285E+000	9	...........
	153	2.05333	9.82078E-001	9.11189E-005	0.00000E+000	8.94859E-005	5.39641E-002	9.82261E-001	3.57270E+000	9	...........
	154	2.06667	9.83526E-001	9.08345E-005	0.00000E+000	8.93381E-005	5.39641E-002	9.83741E-001	3.57270E+000	9	...........
	155	2.08	9.85004E-001	9.07667E-005	0.00000E+000	8.94056E-005	5.39641E-002	9.85201E-001	3.57270E+000	9	...........
	156	2.09333	9.86444E-001	9.08709E-005	0.00000E+000	8.96390E-005	5.39641E-002	9.86662E-001	3.57270E+000	9	...........
	157	2.10667	9.87878E-001	9.07376E-005	0.00000E+000	8.96376E-005	5.39641E-002	9.88080E-001	3.57270E+000	9	...........
	158	2.12	9.89302E-001	9.10533E-005	0.00000E+000	9.00792E-005	5.39641E-002	9.89491E-001	3.57270E+000	9	...........
	159	2.13333	9.90693E-001	9.07532E-005	0.00000E+000	8.99085E-005	5.39641E-002	9.90865E-001	3.57270E+000	9	...........
	160	2.14667	9.92061E-001	9.08678E-005	0.00000E+000	9.01464E-005	5.39641E-002	9.92235E-001	3.57270E+000	9	...........
	161	2.16	9.93432E-001	9.09335E-005	0.00000E+000	9.03362E-005	5.39641E-002	9.93617E-001	3.57270E+000	9	...........
	162	2.17333	9.94798E-001	9.10220E-005	0.00000E+000	9.05485E-005	5.39641E-002	9.94990E-001	3.57270E+000	9	...........
	163	2.18667	9.96141E-001	9.12460E-005	0.00000E+000	9.08939E-005	5.39641E-002	9.96331E-001	3.57270E+000	9	...........
	164	2.2	9.97465E-001	9.10814E-005	0.00000E+000	9.08505E-005	5.39641E-002	9.97654E-001	3.57270E+000	9	...........
	165	2.21333	9.98762E-001	9.08272E-005	0.00000E+000	9.07147E-005	5.39641E-002	9.98979E-001	3.57270E+000	9	...........
	166	2.22167	9.99816E-001	9.11027E-005	0.00000E+000	9.10859E-005	5.39641E-002	1.00002E+000	3.57270E+000	9	...........
STARTTIMEOFFSET	QUANT	2587.339	Start Time Offset (s)
