EXPLAIN
TAG	PWR800_CHARGE
TITLE	LABEL	PWR Cyclic Charge Discharge (Cell) - Charge Step	Test &Identifier
DATE	LABEL	10-7-2017	Date
TIME	LABEL	15:54:09	Time
NOTES	NOTES	3	&Notes...
	supercap test cell
	0.9mg
	6M KOH
PSTAT	PSTAT	IFC5000-01520	Potentiostat
CAPACITY	QUANT	1.00000E-003	Capacity (A-hr)
CELLTYPE	SELECTOR	1	&Cell Type
WORKINGCONNECTION	SELECTOR	0	&Working Lead
MAXCHARGETIME	VARIABLEANDUNITS	1.00000E+002	s	1.00000E+002	second(s)	Max &Charge Time
CHARGECURRENT	QUANT	9.00000E-005	&Charge Current (A) 
VOLTAGEFINISH	TWOPARAM	F	1.00000E-003	3.60000E+003	&Voltage Finish	 I (A) < 	Max Time(s)
SAMPLETIME	QUANT	1.00000E-002	Sa&mple Period (s)
CHARGESTOPAT1	MULTIPARAM	4	1.00000E+000	Charge Stop At &1	Voltage > Limit	V
CHARGESTOPAT2	MULTIPARAM	0	0.00000E+000	Charge Stop At &2	None	N/A
AESBHCSELECTOR	TOGGLE	F	Save Both Half Cells
IRCOMP	TOGGLE	F	IR &Measure
EOC	QUANT	0	Open Circuit (V)
SEQUENCER	TOGGLE	TRUE	Run as Sequence
PSTATMODEL	IQUANT	53	Pstat Model
PSTATSECTION	LABEL	IFC5000-01520	Pstat Section
PSTATSERIALNO	LABEL	01520	Pstat Serial Number
CTRLMODE	IQUANT	0	Control Mode
ELECTROMETER	IQUANT	1	RE=0 or CS=1
IESTAB	IQUANT	0	I/E Stability
CASPEED	IQUANT	4	Control Amp Speed
CONVENTION	IQUANT	1	Current Convention
ICHRANGE	IQUANT	2	Ich Range
ICHRANGEMODE	TOGGLE	T	Ich Auto Range
ICHOFFSETENABLE	TOGGLE	F	Ich Offset Enable
ICHOFFSET	QUANT	0	Ich Offset (V)
ICHFILTER	IQUANT	1	Ich Filter
VCHRANGE	IQUANT	2	Vch Range
VCHRANGEMODE	TOGGLE	T	Vch Auto Range
VCHOFFSETENABLE	TOGGLE	F	Vch Offset Enable
VCHOFFSET	QUANT	0	Vch Offset (V)
VCHFILTER	IQUANT	1	Vch Filter
IERANGELOWERLIMIT	IQUANT	9	I/E Range Lower Limit
IERANGEMODE	TOGGLE	F	I/E AutoRange
IERANGE	IQUANT	9	I/E Range
ACHSELECT	IQUANT	1	Ach Select
ACHRANGE	IQUANT	2	Ach Range
ACHOFFSETENABLE	TOGGLE	F	Ach Offset Enable
ACHOFFSET	QUANT	0	Ach Offset (V)
ACHFILTER	IQUANT	1	Ach Filter
CABLEID	IQUANT	14	Cable ID
DCCALDATE	LABEL	5-7-2017	DC Calibration Date
ACCALDATE	LABEL	12/3/2015	AC Calibration Date
FRAMEWORKVERSION	QUANT	7.01	Framework Version
INSTRUMENTVERSION	LABEL	4.00	Instrument Version
CURVE	TABLE	166
	Pt	T	Vf	Im	Vu	Pwr	Sig	Ach	Temp	IERange	Over
	#	s	V	A	V	W	V	V	deg C	#	bits
	0	0.013333	2.73013E-001	9.11866E-005	0.00000E+000	2.48951E-005	5.39641E-002	2.73061E-001	3.57400E+000	9	...........
	1	0.026667	2.92643E-001	9.10376E-005	0.00000E+000	2.66415E-005	5.39641E-002	2.92680E-001	3.57400E+000	9	...........
	2	0.04	3.11006E-001	9.09897E-005	0.00000E+000	2.82984E-005	5.39641E-002	3.11049E-001	3.57400E+000	9	...........
	3	0.053333	3.28270E-001	9.10533E-005	0.00000E+000	2.98901E-005	5.39641E-002	3.28314E-001	3.57400E+000	9	...........
	4	0.066667	3.44580E-001	9.07188E-005	0.00000E+000	3.12599E-005	5.39641E-002	3.44622E-001	3.57400E+000	9	...........
	5	0.08	3.60032E-001	9.10158E-005	0.00000E+000	3.27686E-005	5.39641E-002	3.60081E-001	3.57400E+000	9	...........
	6	0.093333	3.74706E-001	9.11575E-005	0.00000E+000	3.41573E-005	5.39641E-002	3.74751E-001	3.57400E+000	9	...........
	7	0.106667	3.88675E-001	9.08501E-005	0.00000E+000	3.53111E-005	5.39641E-002	3.88725E-001	3.57400E+000	9	...........
	8	0.12	4.01998E-001	9.09730E-005	0.00000E+000	3.65710E-005	5.39641E-002	4.02045E-001	3.57400E+000	9	...........
	9	0.133333	4.14716E-001	9.08887E-005	0.00000E+000	3.76929E-005	5.39641E-002	4.14771E-001	3.57400E+000	9	...........
	10	0.146667	4.26910E-001	9.09678E-005	0.00000E+000	3.88350E-005	5.39641E-002	4.26961E-001	3.57400E+000	9	...........
	11	0.16	4.38597E-001	9.13471E-005	0.00000E+000	4.00645E-005	5.39641E-002	4.38653E-001	3.57400E+000	9	...........
	12	0.173333	4.49842E-001	9.10710E-005	0.00000E+000	4.09675E-005	5.39641E-002	4.49901E-001	3.57400E+000	9	...........
	13	0.186667	4.60653E-001	9.08491E-005	0.00000E+000	4.18499E-005	5.39641E-002	4.60713E-001	3.57400E+000	9	...........
	14	0.2	4.71090E-001	9.08730E-005	0.00000E+000	4.28094E-005	5.39641E-002	4.71152E-001	3.57400E+000	9	...........
	15	0.213333	4.81170E-001	9.09595E-005	0.00000E+000	4.37670E-005	5.39641E-002	4.81242E-001	3.57400E+000	9	...........
	16	0.226667	4.90906E-001	9.10449E-005	0.00000E+000	4.46945E-005	5.39641E-002	4.90972E-001	3.57400E+000	9	...........
	17	0.24	5.00323E-001	9.10856E-005	0.00000E+000	4.55722E-005	5.39641E-002	5.00393E-001	3.57400E+000	9	...........
	18	0.253333	5.09429E-001	9.11533E-005	0.00000E+000	4.64361E-005	5.39641E-002	5.09497E-001	3.57400E+000	9	...........
	19	0.266667	5.18255E-001	9.08814E-005	0.00000E+000	4.70997E-005	5.39641E-002	5.18322E-001	3.57400E+000	9	...........
	20	0.28	5.26821E-001	9.10647E-005	0.00000E+000	4.79748E-005	5.39641E-002	5.26892E-001	3.57400E+000	9	...........
	21	0.293333	5.35066E-001	9.10741E-005	0.00000E+000	4.87307E-005	5.39641E-002	5.35129E-001	3.57400E+000	9	...........
	22	0.306667	5.43128E-001	9.11648E-005	0.00000E+000	4.95142E-005	5.39641E-002	5.43211E-001	3.57400E+000	9	...........
	23	0.32	5.50963E-001	9.11648E-005	0.00000E+000	5.02284E-005	5.39641E-002	5.51060E-001	3.57400E+000	9	...........
	24	0.333333	5.58588E-001	9.10199E-005	0.00000E+000	5.08426E-005	5.39641E-002	5.58712E-001	3.57400E+000	9	...........
	25	0.346667	5.66091E-001	9.11741E-005	0.00000E+000	5.16128E-005	5.39641E-002	5.66196E-001	3.57317E+000	9	...........
	26	0.36	5.73336E-001	9.09345E-005	0.00000E+000	5.21360E-005	5.39641E-002	5.73447E-001	3.57290E+000	9	...........
	27	0.373333	5.80403E-001	9.09814E-005	0.00000E+000	5.28059E-005	5.39641E-002	5.80535E-001	3.57290E+000	9	...........
	28	0.386667	5.87344E-001	9.09595E-005	0.00000E+000	5.34245E-005	5.39641E-002	5.87475E-001	3.57290E+000	9	...........
	29	0.4	5.94111E-001	9.11325E-005	0.00000E+000	5.41428E-005	5.39641E-002	5.94223E-001	3.57290E+000	9	...........
	30	0.413333	6.00702E-001	9.12033E-005	0.00000E+000	5.47860E-005	5.39641E-002	6.00855E-001	3.57290E+000	9	...........
	31	0.426667	6.07155E-001	9.11981E-005	0.00000E+000	5.53713E-005	5.39641E-002	6.07307E-001	3.57290E+000	9	...........
	32	0.44	6.13481E-001	9.10616E-005	0.00000E+000	5.58645E-005	5.39641E-002	6.13639E-001	3.57290E+000	9	...........
	33	0.453333	6.19715E-001	9.08741E-005	0.00000E+000	5.63161E-005	5.39641E-002	6.19822E-001	3.57290E+000	9	...........
	34	0.466667	6.25765E-001	9.11397E-005	0.00000E+000	5.70321E-005	5.39641E-002	6.25903E-001	3.57290E+000	9	...........
	35	0.48	6.31691E-001	9.11918E-005	0.00000E+000	5.76051E-005	5.39641E-002	6.31811E-001	3.57290E+000	9	...........
	36	0.493333	6.37518E-001	9.09845E-005	0.00000E+000	5.80043E-005	5.39641E-002	6.37642E-001	3.57290E+000	9	...........
	37	0.506667	6.43253E-001	9.09293E-005	0.00000E+000	5.84905E-005	5.39641E-002	6.43373E-001	3.57290E+000	9	...........
	38	0.52	6.48827E-001	9.08522E-005	0.00000E+000	5.89474E-005	5.39641E-002	6.48948E-001	3.57290E+000	9	...........
	39	0.533333	6.54339E-001	9.10356E-005	0.00000E+000	5.95682E-005	5.39641E-002	6.54439E-001	3.57290E+000	9	...........
	40	0.546667	6.59715E-001	9.10783E-005	0.00000E+000	6.00857E-005	5.39641E-002	6.59803E-001	3.57290E+000	9	...........
	41	0.56	6.64997E-001	9.10991E-005	0.00000E+000	6.05807E-005	5.39641E-002	6.65124E-001	3.57290E+000	9	...........
	42	0.573333	6.70223E-001	9.11283E-005	0.00000E+000	6.10763E-005	5.39641E-002	6.70332E-001	3.57290E+000	9	...........
	43	0.586667	6.75332E-001	9.12023E-005	0.00000E+000	6.15918E-005	5.39641E-002	6.75465E-001	3.57290E+000	9	...........
	44	0.6	6.80407E-001	9.12773E-005	0.00000E+000	6.21057E-005	5.39641E-002	6.80514E-001	3.57290E+000	9	...........
	45	0.613333	6.85312E-001	9.08616E-005	0.00000E+000	6.22685E-005	5.39641E-002	6.85442E-001	3.57290E+000	9	...........
	46	0.626667	6.90188E-001	9.10574E-005	0.00000E+000	6.28467E-005	5.39641E-002	6.90323E-001	3.57290E+000	9	...........
	47	0.64	6.94991E-001	9.10814E-005	0.00000E+000	6.33007E-005	5.39641E-002	6.95092E-001	3.57290E+000	9	...........
	48	0.653333	6.99693E-001	9.09866E-005	0.00000E+000	6.36626E-005	5.39641E-002	6.99804E-001	3.57290E+000	9	...........
	49	0.666667	7.04334E-001	9.10168E-005	0.00000E+000	6.41063E-005	5.39641E-002	7.04450E-001	3.57290E+000	9	...........
	50	0.68	7.08910E-001	9.10387E-005	0.00000E+000	6.45382E-005	5.39641E-002	7.09031E-001	3.57290E+000	9	...........
	51	0.693333	7.13408E-001	9.10835E-005	0.00000E+000	6.49796E-005	5.39641E-002	7.13503E-001	3.57290E+000	9	...........
	52	0.706667	7.17853E-001	9.09272E-005	0.00000E+000	6.52724E-005	5.39641E-002	7.17966E-001	3.57290E+000	9	...........
	53	0.72	7.22256E-001	9.10356E-005	0.00000E+000	6.57510E-005	5.39641E-002	7.22339E-001	3.57290E+000	9	...........
	54	0.733333	7.26569E-001	9.12043E-005	0.00000E+000	6.62662E-005	5.39641E-002	7.26659E-001	3.57290E+000	9	...........
	55	0.746667	7.30832E-001	9.10501E-005	0.00000E+000	6.65423E-005	5.39641E-002	7.30961E-001	3.57290E+000	9	...........
	56	0.76	7.35034E-001	9.10095E-005	0.00000E+000	6.68951E-005	5.39641E-002	7.35151E-001	3.57290E+000	9	...........
	57	0.773333	7.39145E-001	9.07584E-005	0.00000E+000	6.70836E-005	5.39641E-002	7.39269E-001	3.57290E+000	9	...........
	58	0.786667	7.43251E-001	9.11595E-005	0.00000E+000	6.77544E-005	5.39641E-002	7.43389E-001	3.57290E+000	9	...........
	59	0.8	7.47289E-001	9.09241E-005	0.00000E+000	6.79466E-005	5.39641E-002	7.47426E-001	3.57290E+000	9	...........
	60	0.813333	7.51279E-001	9.11450E-005	0.00000E+000	6.84753E-005	5.39641E-002	7.51396E-001	3.57290E+000	9	...........
	61	0.826667	7.55232E-001	9.09939E-005	0.00000E+000	6.87215E-005	5.39641E-002	7.55359E-001	3.57290E+000	9	...........
	62	0.84	7.59118E-001	9.10689E-005	0.00000E+000	6.91321E-005	5.39641E-002	7.59247E-001	3.57290E+000	9	...........
	63	0.853333	7.62968E-001	9.11356E-005	0.00000E+000	6.95336E-005	5.39641E-002	7.63091E-001	3.57290E+000	9	...........
	64	0.866667	7.66767E-001	9.10345E-005	0.00000E+000	6.98023E-005	5.39641E-002	7.66931E-001	3.57290E+000	9	...........
	65	0.88	7.70516E-001	9.10231E-005	0.00000E+000	7.01347E-005	5.39641E-002	7.70664E-001	3.57290E+000	9	...........
	66	0.893333	7.74204E-001	9.10887E-005	0.00000E+000	7.05212E-005	5.39641E-002	7.74345E-001	3.57290E+000	9	...........
	67	0.906667	7.77858E-001	9.12512E-005	0.00000E+000	7.09805E-005	5.39641E-002	7.78016E-001	3.57290E+000	9	...........
	68	0.92	7.81484E-001	9.10147E-005	0.00000E+000	7.11265E-005	5.39641E-002	7.81646E-001	3.57290E+000	9	...........
	69	0.933333	7.85062E-001	9.10814E-005	0.00000E+000	7.15045E-005	5.39641E-002	7.85200E-001	3.57290E+000	9	...........
	70	0.946667	7.88613E-001	9.10283E-005	0.00000E+000	7.17861E-005	5.39641E-002	7.88730E-001	3.57290E+000	9	...........
	71	0.96	7.92113E-001	9.10460E-005	0.00000E+000	7.21187E-005	5.39641E-002	7.92252E-001	3.57290E+000	9	...........
	72	0.97333	7.95610E-001	9.09574E-005	0.00000E+000	7.23667E-005	5.39641E-002	7.95722E-001	3.57290E+000	9	...........
	73	0.98667	7.99029E-001	9.08970E-005	0.00000E+000	7.26294E-005	5.39641E-002	7.99127E-001	3.57290E+000	9	...........
	74	1	8.02399E-001	9.11199E-005	0.00000E+000	7.31146E-005	5.39641E-002	8.02512E-001	3.57290E+000	9	...........
	75	1.01333	8.05758E-001	9.09741E-005	0.00000E+000	7.33031E-005	5.39641E-002	8.05902E-001	3.57290E+000	9	...........
	76	1.02667	8.09084E-001	9.11106E-005	0.00000E+000	7.37161E-005	5.39641E-002	8.09211E-001	3.57290E+000	9	...........
	77	1.04	8.12350E-001	9.09908E-005	0.00000E+000	7.39164E-005	5.39641E-002	8.12496E-001	3.57290E+000	9	...........
	78	1.05333	8.15593E-001	9.10824E-005	0.00000E+000	7.42862E-005	5.39641E-002	8.15777E-001	3.57290E+000	9	...........
	79	1.06667	8.18813E-001	9.10606E-005	0.00000E+000	7.45615E-005	5.39641E-002	8.18990E-001	3.57290E+000	9	...........
	80	1.08	8.22014E-001	9.08834E-005	0.00000E+000	7.47075E-005	5.39641E-002	8.22143E-001	3.57290E+000	9	...........
	81	1.09333	8.25133E-001	9.09866E-005	0.00000E+000	7.50760E-005	5.39641E-002	8.25301E-001	3.57290E+000	9	...........
	82	1.10667	8.28251E-001	9.10283E-005	0.00000E+000	7.53943E-005	5.39641E-002	8.28396E-001	3.57290E+000	9	...........
	83	1.12	8.31296E-001	9.10949E-005	0.00000E+000	7.57269E-005	5.39641E-002	8.31478E-001	3.57290E+000	9	...........
	84	1.13333	8.34329E-001	9.10679E-005	0.00000E+000	7.59805E-005	5.39641E-002	8.34531E-001	3.57290E+000	9	...........
	85	1.14667	8.37357E-001	9.08511E-005	0.00000E+000	7.60749E-005	5.39641E-002	8.37522E-001	3.57290E+000	9	...........
	86	1.16	8.40332E-001	9.11064E-005	0.00000E+000	7.65596E-005	5.39641E-002	8.40488E-001	3.57290E+000	9	...........
	87	1.17333	8.43281E-001	9.10991E-005	0.00000E+000	7.68221E-005	5.39641E-002	8.43441E-001	3.57290E+000	9	...........
	88	1.18667	8.46234E-001	9.09793E-005	0.00000E+000	7.69898E-005	5.39641E-002	8.46413E-001	3.57290E+000	9	...........
	89	1.2	8.49117E-001	9.11095E-005	0.00000E+000	7.73626E-005	5.39641E-002	8.49299E-001	3.57290E+000	9	...........
	90	1.21333	8.51960E-001	9.10491E-005	0.00000E+000	7.75702E-005	5.39641E-002	8.52168E-001	3.57290E+000	9	...........
	91	1.22667	8.54821E-001	9.08532E-005	0.00000E+000	7.76633E-005	5.39641E-002	8.55007E-001	3.57290E+000	9	...........
	92	1.24	8.57642E-001	9.11773E-005	0.00000E+000	7.81975E-005	5.39641E-002	8.57846E-001	3.57290E+000	9	...........
	93	1.25333	8.60461E-001	9.09814E-005	0.00000E+000	7.82859E-005	5.39641E-002	8.60643E-001	3.57290E+000	9	...........
	94	1.26667	8.63219E-001	9.09616E-005	0.00000E+000	7.85198E-005	5.39641E-002	8.63406E-001	3.57290E+000	9	...........
	95	1.28	8.65943E-001	9.11960E-005	0.00000E+000	7.89705E-005	5.39641E-002	8.66139E-001	3.57290E+000	9	...........
	96	1.29333	8.68675E-001	9.11981E-005	0.00000E+000	7.92215E-005	5.39641E-002	8.68841E-001	3.57290E+000	9	...........
	97	1.30667	8.71388E-001	9.10126E-005	0.00000E+000	7.93074E-005	5.39641E-002	8.71543E-001	3.57290E+000	9	...........
	98	1.32	8.74013E-001	9.08980E-005	0.00000E+000	7.94461E-005	5.39641E-002	8.74197E-001	3.57290E+000	9	...........
	99	1.33333	8.76632E-001	9.09751E-005	0.00000E+000	7.97517E-005	5.39641E-002	8.76804E-001	3.57290E+000	9	...........
	100	1.34667	8.79186E-001	9.09751E-005	0.00000E+000	7.99841E-005	5.39641E-002	8.79386E-001	3.57275E+000	9	...........
	101	1.36	8.81764E-001	9.10512E-005	0.00000E+000	8.02856E-005	5.39641E-002	8.81944E-001	3.57270E+000	9	...........
	102	1.37333	8.84335E-001	9.10679E-005	0.00000E+000	8.05344E-005	5.39641E-002	8.84499E-001	3.57270E+000	9	...........
	103	1.38667	8.86833E-001	9.08116E-005	0.00000E+000	8.05347E-005	5.39641E-002	8.87013E-001	3.57270E+000	9	...........
	104	1.4	8.89343E-001	9.11481E-005	0.00000E+000	8.10619E-005	5.39641E-002	8.89495E-001	3.57270E+000	9	...........
	105	1.41333	8.91769E-001	9.12356E-005	0.00000E+000	8.13610E-005	5.39641E-002	8.91933E-001	3.57270E+000	9	...........
	106	1.42667	8.94193E-001	9.09366E-005	0.00000E+000	8.13149E-005	5.39641E-002	8.94364E-001	3.57270E+000	9	...........
	107	1.44	8.96598E-001	9.10470E-005	0.00000E+000	8.16326E-005	5.39641E-002	8.96764E-001	3.57270E+000	9	...........
	108	1.45333	8.98996E-001	9.11220E-005	0.00000E+000	8.19184E-005	5.39641E-002	8.99155E-001	3.57270E+000	9	...........
	109	1.46667	9.01355E-001	9.11804E-005	0.00000E+000	8.21858E-005	5.39641E-002	9.01527E-001	3.57270E+000	9	...........
	110	1.48	9.03690E-001	9.14179E-005	0.00000E+000	8.26135E-005	5.39641E-002	9.03889E-001	3.57270E+000	9	...........
	111	1.49333	9.05988E-001	9.10679E-005	0.00000E+000	8.25063E-005	5.39641E-002	9.06177E-001	3.57270E+000	9	...........
	112	1.50667	9.08293E-001	9.09460E-005	0.00000E+000	8.26056E-005	5.39641E-002	9.08484E-001	3.57270E+000	9	...........
	113	1.52	9.10568E-001	9.11887E-005	0.00000E+000	8.30335E-005	5.39641E-002	9.10715E-001	3.57270E+000	9	...........
	114	1.53333	9.12808E-001	9.11658E-005	0.00000E+000	8.32168E-005	5.39641E-002	9.12948E-001	3.57270E+000	9	...........
	115	1.54667	9.14997E-001	9.08043E-005	0.00000E+000	8.30856E-005	5.39641E-002	9.15178E-001	3.57270E+000	9	...........
	116	1.56	9.17200E-001	9.10022E-005	0.00000E+000	8.34673E-005	5.39641E-002	9.17369E-001	3.57270E+000	9	...........
	117	1.57333	9.19356E-001	9.10428E-005	0.00000E+000	8.37008E-005	5.39641E-002	9.19537E-001	3.57270E+000	9	...........
	118	1.58667	9.21573E-001	9.08741E-005	0.00000E+000	8.37471E-005	5.39641E-002	9.21708E-001	3.57270E+000	9	...........
	119	1.6	9.23695E-001	9.09314E-005	0.00000E+000	8.39929E-005	5.39641E-002	9.23827E-001	3.57270E+000	9	...........
	120	1.61333	9.25790E-001	9.09876E-005	0.00000E+000	8.42354E-005	5.39641E-002	9.25928E-001	3.57270E+000	9	...........
	121	1.62667	9.27877E-001	9.10428E-005	0.00000E+000	8.44766E-005	5.39641E-002	9.28045E-001	3.57270E+000	9	...........
	122	1.64	9.29918E-001	9.12273E-005	0.00000E+000	8.48338E-005	5.39641E-002	9.30064E-001	3.57270E+000	9	...........
	123	1.65333	9.31940E-001	9.10751E-005	0.00000E+000	8.48765E-005	5.39641E-002	9.32104E-001	3.57270E+000	9	...........
	124	1.66667	9.33969E-001	9.10981E-005	0.00000E+000	8.50828E-005	5.39641E-002	9.34152E-001	3.57270E+000	9	...........
	125	1.68	9.35971E-001	9.09835E-005	0.00000E+000	8.51579E-005	5.39641E-002	9.36129E-001	3.57270E+000	9	...........
	126	1.69333	9.37932E-001	9.10668E-005	0.00000E+000	8.54145E-005	5.39641E-002	9.38104E-001	3.57270E+000	9	...........
	127	1.70667	9.39879E-001	9.10241E-005	0.00000E+000	8.55516E-005	5.39641E-002	9.40036E-001	3.57270E+000	9	...........
	128	1.72	9.41783E-001	9.09157E-005	0.00000E+000	8.56229E-005	5.39641E-002	9.41930E-001	3.57270E+000	9	...........
	129	1.73333	9.43683E-001	9.11345E-005	0.00000E+000	8.60021E-005	5.39641E-002	9.43850E-001	3.57270E+000	9	...........
	130	1.74667	9.45565E-001	9.10897E-005	0.00000E+000	8.61312E-005	5.39641E-002	9.45738E-001	3.57270E+000	9	...........
	131	1.76	9.47505E-001	9.10345E-005	0.00000E+000	8.62557E-005	5.39641E-002	9.47644E-001	3.57270E+000	9	...........
	132	1.77333	9.49335E-001	9.09095E-005	0.00000E+000	8.63035E-005	5.39641E-002	9.49493E-001	3.57270E+000	9	...........
	133	1.78667	9.51152E-001	9.11304E-005	0.00000E+000	8.66788E-005	5.39641E-002	9.51318E-001	3.57270E+000	9	...........
	134	1.8	9.52970E-001	9.09084E-005	0.00000E+000	8.66330E-005	5.39641E-002	9.53123E-001	3.57270E+000	9	...........
	135	1.81333	9.54742E-001	9.09960E-005	0.00000E+000	8.68776E-005	5.39641E-002	9.54910E-001	3.57270E+000	9	...........
	136	1.82667	9.56505E-001	9.08949E-005	0.00000E+000	8.69414E-005	5.39641E-002	9.56663E-001	3.57270E+000	9	...........
	137	1.84	9.58249E-001	9.09970E-005	0.00000E+000	8.71978E-005	5.39641E-002	9.58438E-001	3.57270E+000	9	...........
	138	1.85333	9.60010E-001	9.10981E-005	0.00000E+000	8.74551E-005	5.39641E-002	9.60191E-001	3.57270E+000	9	...........
	139	1.86667	9.61698E-001	9.09960E-005	0.00000E+000	8.75106E-005	5.39641E-002	9.61904E-001	3.57270E+000	9	...........
	140	1.88	9.63396E-001	9.08699E-005	0.00000E+000	8.75437E-005	5.39641E-002	9.63610E-001	3.57270E+000	9	...........
	141	1.89333	9.65052E-001	9.09876E-005	0.00000E+000	8.78078E-005	5.39641E-002	9.65269E-001	3.57270E+000	9	...........
	142	1.90667	9.66732E-001	9.10814E-005	0.00000E+000	8.80513E-005	5.39641E-002	9.66958E-001	3.57270E+000	9	...........
	143	1.92	9.68366E-001	9.11533E-005	0.00000E+000	8.82697E-005	5.39641E-002	9.68596E-001	3.57270E+000	9	...........
	144	1.93333	9.69974E-001	9.11335E-005	0.00000E+000	8.83971E-005	5.39641E-002	9.70246E-001	3.57270E+000	9	...........
	145	1.94667	9.71593E-001	9.07720E-005	0.00000E+000	8.81934E-005	5.39641E-002	9.71876E-001	3.57270E+000	9	...........
	146	1.96	9.73265E-001	9.13804E-005	0.00000E+000	8.89374E-005	5.39641E-002	9.73460E-001	3.57270E+000	9	...........
	147	1.97333	9.74841E-001	9.10533E-005	0.00000E+000	8.87624E-005	5.39641E-002	9.75058E-001	3.57270E+000	9	...........
	148	1.98667	9.76404E-001	9.13075E-005	0.00000E+000	8.91530E-005	5.39641E-002	9.76633E-001	3.57270E+000	9	...........
	149	2	9.77945E-001	9.08949E-005	0.00000E+000	8.88903E-005	5.39641E-002	9.78188E-001	3.57270E+000	9	...........
	150	2.01333	9.79496E-001	9.09585E-005	0.00000E+000	8.90934E-005	5.39641E-002	9.79695E-001	3.57270E+000	9	...........
	151	2.02667	9.80974E-001	9.08699E-005	0.00000E+000	8.91410E-005	5.39641E-002	9.81159E-001	3.57270E+000	9	...........
	152	2.04	9.82442E-001	9.13190E-005	0.00000E+000	8.97156E-005	5.39641E-002	9.82647E-001	3.57270E+000	9	...........
	153	2.05333	9.83893E-001	9.11752E-005	0.00000E+000	8.97066E-005	5.39641E-002	9.84109E-001	3.57270E+000	9	...........
	154	2.06667	9.85366E-001	9.10866E-005	0.00000E+000	8.97536E-005	5.39641E-002	9.85572E-001	3.57270E+000	9	...........
	155	2.08	9.86801E-001	9.10001E-005	0.00000E+000	8.97990E-005	5.39641E-002	9.87025E-001	3.57270E+000	9	...........
	156	2.09333	9.88233E-001	9.07178E-005	0.00000E+000	8.96503E-005	5.39641E-002	9.88457E-001	3.57270E+000	9	...........
	157	2.10667	9.89657E-001	9.10241E-005	0.00000E+000	9.00826E-005	5.39641E-002	9.89859E-001	3.57270E+000	9	...........
	158	2.12	9.91053E-001	9.11064E-005	0.00000E+000	9.02913E-005	5.39641E-002	9.91261E-001	3.57270E+000	9	...........
	159	2.13333	9.92447E-001	9.09939E-005	0.00000E+000	9.03066E-005	5.39641E-002	9.92644E-001	3.57270E+000	9	...........
	160	2.14667	9.93800E-001	9.11637E-005	0.00000E+000	9.05985E-005	5.39641E-002	9.94020E-001	3.57270E+000	9	...........
	161	2.16	9.95168E-001	9.12095E-005	0.00000E+000	9.07688E-005	5.39641E-002	9.95377E-001	3.57270E+000	9	...........
	162	2.17333	9.96518E-001	9.10356E-005	0.00000E+000	9.07186E-005	5.39641E-002	9.96714E-001	3.57270E+000	9	...........
	163	2.18667	9.97882E-001	9.12189E-005	0.00000E+000	9.10257E-005	5.39641E-002	9.98075E-001	3.57270E+000	9	...........
	164	2.2	9.99176E-001	9.12752E-005	0.00000E+000	9.12000E-005	5.39641E-002	9.99395E-001	3.57270E+000	9	...........
	165	2.20333	1.00000E+000	9.11002E-005	0.00000E+000	9.11002E-005	5.39641E-002	1.00022E+000	3.57270E+000	9	...........
STARTTIMEOFFSET	QUANT	2772.685	Start Time Offset (s)
