EXPLAIN
TAG	PWR800_CHARGE
TITLE	LABEL	PWR Cyclic Charge Discharge (Cell) - Charge Step	Test &Identifier
DATE	LABEL	10-7-2017	Date
TIME	LABEL	15:15:20	Time
NOTES	NOTES	3	&Notes...
	supercap test cell
	0.9mg
	6M KOH
PSTAT	PSTAT	IFC5000-01520	Potentiostat
CAPACITY	QUANT	1.00000E-003	Capacity (A-hr)
CELLTYPE	SELECTOR	1	&Cell Type
WORKINGCONNECTION	SELECTOR	0	&Working Lead
MAXCHARGETIME	VARIABLEANDUNITS	1.00000E+002	s	1.00000E+002	second(s)	Max &Charge Time
CHARGECURRENT	QUANT	9.00000E-005	&Charge Current (A) 
VOLTAGEFINISH	TWOPARAM	F	1.00000E-003	3.60000E+003	&Voltage Finish	 I (A) < 	Max Time(s)
SAMPLETIME	QUANT	1.00000E-002	Sa&mple Period (s)
CHARGESTOPAT1	MULTIPARAM	4	1.00000E+000	Charge Stop At &1	Voltage > Limit	V
CHARGESTOPAT2	MULTIPARAM	0	0.00000E+000	Charge Stop At &2	None	N/A
AESBHCSELECTOR	TOGGLE	F	Save Both Half Cells
IRCOMP	TOGGLE	F	IR &Measure
EOC	QUANT	0	Open Circuit (V)
SEQUENCER	TOGGLE	TRUE	Run as Sequence
PSTATMODEL	IQUANT	53	Pstat Model
PSTATSECTION	LABEL	IFC5000-01520	Pstat Section
PSTATSERIALNO	LABEL	01520	Pstat Serial Number
CTRLMODE	IQUANT	0	Control Mode
ELECTROMETER	IQUANT	1	RE=0 or CS=1
IESTAB	IQUANT	0	I/E Stability
CASPEED	IQUANT	4	Control Amp Speed
CONVENTION	IQUANT	1	Current Convention
ICHRANGE	IQUANT	2	Ich Range
ICHRANGEMODE	TOGGLE	T	Ich Auto Range
ICHOFFSETENABLE	TOGGLE	F	Ich Offset Enable
ICHOFFSET	QUANT	0	Ich Offset (V)
ICHFILTER	IQUANT	1	Ich Filter
VCHRANGE	IQUANT	2	Vch Range
VCHRANGEMODE	TOGGLE	T	Vch Auto Range
VCHOFFSETENABLE	TOGGLE	F	Vch Offset Enable
VCHOFFSET	QUANT	0	Vch Offset (V)
VCHFILTER	IQUANT	1	Vch Filter
IERANGELOWERLIMIT	IQUANT	9	I/E Range Lower Limit
IERANGEMODE	TOGGLE	F	I/E AutoRange
IERANGE	IQUANT	9	I/E Range
ACHSELECT	IQUANT	1	Ach Select
ACHRANGE	IQUANT	2	Ach Range
ACHOFFSETENABLE	TOGGLE	F	Ach Offset Enable
ACHOFFSET	QUANT	0	Ach Offset (V)
ACHFILTER	IQUANT	1	Ach Filter
CABLEID	IQUANT	14	Cable ID
DCCALDATE	LABEL	5-7-2017	DC Calibration Date
ACCALDATE	LABEL	12/3/2015	AC Calibration Date
FRAMEWORKVERSION	QUANT	7.01	Framework Version
INSTRUMENTVERSION	LABEL	4.00	Instrument Version
CURVE	TABLE	182
	Pt	T	Vf	Im	Vu	Pwr	Sig	Ach	Temp	IERange	Over
	#	s	V	A	V	W	V	V	deg C	#	bits
	0	0.013333	3.05652E-001	9.10053E-005	0.00000E+000	2.78159E-005	5.39641E-002	3.05704E-001	3.57220E+000	9	...........
	1	0.026667	3.24393E-001	9.11345E-005	0.00000E+000	2.95634E-005	5.39641E-002	3.24426E-001	3.57220E+000	9	...........
	2	0.04	3.41653E-001	9.09991E-005	0.00000E+000	3.10901E-005	5.39641E-002	3.41691E-001	3.57220E+000	9	...........
	3	0.053333	3.57718E-001	9.11179E-005	0.00000E+000	3.25945E-005	5.39641E-002	3.57758E-001	3.57220E+000	9	...........
	4	0.066667	3.72793E-001	9.07647E-005	0.00000E+000	3.38364E-005	5.39641E-002	3.72837E-001	3.57220E+000	9	...........
	5	0.08	3.87011E-001	9.09470E-005	0.00000E+000	3.51975E-005	5.39641E-002	3.87052E-001	3.57220E+000	9	...........
	6	0.093333	4.00479E-001	9.08824E-005	0.00000E+000	3.63965E-005	5.39641E-002	4.00523E-001	3.57220E+000	9	...........
	7	0.106667	4.13261E-001	9.11564E-005	0.00000E+000	3.76714E-005	5.39641E-002	4.13313E-001	3.57220E+000	9	...........
	8	0.12	4.25452E-001	9.10418E-005	0.00000E+000	3.87339E-005	5.39641E-002	4.25504E-001	3.57220E+000	9	...........
	9	0.133333	4.37115E-001	9.11074E-005	0.00000E+000	3.98244E-005	5.39641E-002	4.37167E-001	3.57220E+000	9	...........
	10	0.146667	4.48297E-001	9.10856E-005	0.00000E+000	4.08334E-005	5.39641E-002	4.48353E-001	3.57220E+000	9	...........
	11	0.16	4.59030E-001	9.08355E-005	0.00000E+000	4.16962E-005	5.39641E-002	4.59086E-001	3.57220E+000	9	...........
	12	0.173333	4.69355E-001	9.10835E-005	0.00000E+000	4.27505E-005	5.39641E-002	4.69408E-001	3.57220E+000	9	...........
	13	0.186667	4.79313E-001	9.10293E-005	0.00000E+000	4.36315E-005	5.39641E-002	4.79365E-001	3.57220E+000	9	...........
	14	0.2	4.88926E-001	9.09908E-005	0.00000E+000	4.44878E-005	5.39641E-002	4.88980E-001	3.57220E+000	9	...........
	15	0.213333	4.98221E-001	9.10220E-005	0.00000E+000	4.53491E-005	5.39641E-002	4.98282E-001	3.57220E+000	9	...........
	16	0.226667	5.07232E-001	9.07542E-005	0.00000E+000	4.60335E-005	5.39641E-002	5.07288E-001	3.57220E+000	9	...........
	17	0.24	5.15955E-001	9.11804E-005	0.00000E+000	4.70450E-005	5.39641E-002	5.16013E-001	3.57220E+000	9	...........
	18	0.253333	5.24405E-001	9.08678E-005	0.00000E+000	4.76515E-005	5.39641E-002	5.24458E-001	3.57220E+000	9	...........
	19	0.266667	5.32584E-001	9.10293E-005	0.00000E+000	4.84807E-005	5.39641E-002	5.32634E-001	3.57220E+000	9	...........
	20	0.28	5.40532E-001	9.10335E-005	0.00000E+000	4.92066E-005	5.39641E-002	5.40614E-001	3.57220E+000	9	...........
	21	0.293333	5.48289E-001	9.11210E-005	0.00000E+000	4.99606E-005	5.39641E-002	5.48360E-001	3.57220E+000	9	...........
	22	0.306667	5.55804E-001	9.10720E-005	0.00000E+000	5.06182E-005	5.39641E-002	5.55899E-001	3.57220E+000	9	...........
	23	0.32	5.63196E-001	9.09741E-005	0.00000E+000	5.12362E-005	5.39641E-002	5.63303E-001	3.57220E+000	9	...........
	24	0.333333	5.70376E-001	9.12679E-005	0.00000E+000	5.20570E-005	5.39641E-002	5.70462E-001	3.57220E+000	9	...........
	25	0.346667	5.77386E-001	9.11898E-005	0.00000E+000	5.26517E-005	5.39641E-002	5.77485E-001	3.57220E+000	9	...........
	26	0.36	5.84172E-001	9.10293E-005	0.00000E+000	5.31768E-005	5.39641E-002	5.84270E-001	3.57220E+000	9	...........
	27	0.373333	5.90862E-001	9.11450E-005	0.00000E+000	5.38541E-005	5.39641E-002	5.90958E-001	3.57220E+000	9	...........
	28	0.386667	5.97362E-001	9.11429E-005	0.00000E+000	5.44453E-005	5.39641E-002	5.97453E-001	3.57220E+000	9	...........
	29	0.4	6.03685E-001	9.11345E-005	0.00000E+000	5.50165E-005	5.39641E-002	6.03807E-001	3.57220E+000	9	...........
	30	0.413333	6.09894E-001	9.10262E-005	0.00000E+000	5.55164E-005	5.39641E-002	6.10022E-001	3.57220E+000	9	...........
	31	0.426667	6.16050E-001	9.10772E-005	0.00000E+000	5.61082E-005	5.39641E-002	6.16149E-001	3.57220E+000	9	...........
	32	0.44	6.22003E-001	9.10918E-005	0.00000E+000	5.66593E-005	5.39641E-002	6.22082E-001	3.57220E+000	9	...........
	33	0.453333	6.27833E-001	9.07897E-005	0.00000E+000	5.70008E-005	5.39641E-002	6.27934E-001	3.57220E+000	9	...........
	34	0.466667	6.33536E-001	9.09209E-005	0.00000E+000	5.76017E-005	5.39641E-002	6.33636E-001	3.57220E+000	9	...........
	35	0.48	6.39140E-001	9.11293E-005	0.00000E+000	5.82444E-005	5.39641E-002	6.39246E-001	3.57220E+000	9	...........
	36	0.493333	6.44642E-001	9.11179E-005	0.00000E+000	5.87384E-005	5.39641E-002	6.44736E-001	3.57220E+000	9	...........
	37	0.506667	6.50019E-001	9.12971E-005	0.00000E+000	5.93448E-005	5.39641E-002	6.50124E-001	3.57220E+000	9	...........
	38	0.52	6.55297E-001	9.14002E-005	0.00000E+000	5.98943E-005	5.39641E-002	6.55393E-001	3.57220E+000	9	...........
	39	0.533333	6.60469E-001	9.11616E-005	0.00000E+000	6.02095E-005	5.39641E-002	6.60550E-001	3.57220E+000	9	...........
	40	0.546667	6.65539E-001	9.10231E-005	0.00000E+000	6.05794E-005	5.39641E-002	6.65650E-001	3.57220E+000	9	...........
	41	0.56	6.70562E-001	9.08386E-005	0.00000E+000	6.09129E-005	5.39641E-002	6.70635E-001	3.57220E+000	9	...........
	42	0.573333	6.75450E-001	9.08657E-005	0.00000E+000	6.13752E-005	5.39641E-002	6.75537E-001	3.57220E+000	9	...........
	43	0.586667	6.80269E-001	9.11408E-005	0.00000E+000	6.20003E-005	5.39641E-002	6.80362E-001	3.57220E+000	9	...........
	44	0.6	6.85002E-001	9.10741E-005	0.00000E+000	6.23860E-005	5.39641E-002	6.85092E-001	3.57220E+000	9	...........
	45	0.613333	6.89631E-001	9.10877E-005	0.00000E+000	6.28169E-005	5.39641E-002	6.89727E-001	3.57220E+000	9	...........
	46	0.626667	6.94228E-001	9.09199E-005	0.00000E+000	6.31191E-005	5.39641E-002	6.94307E-001	3.57400E+000	9	...........
	47	0.64	6.98706E-001	9.09783E-005	0.00000E+000	6.35670E-005	5.39641E-002	6.98822E-001	3.57580E+000	9	...........
	48	0.653333	7.03146E-001	9.09449E-005	0.00000E+000	6.39476E-005	5.39641E-002	7.03248E-001	3.57580E+000	9	...........
	49	0.666667	7.07509E-001	9.11991E-005	0.00000E+000	6.45242E-005	5.39641E-002	7.07603E-001	3.57580E+000	9	...........
	50	0.68	7.11820E-001	9.09897E-005	0.00000E+000	6.47683E-005	5.39641E-002	7.11890E-001	3.57580E+000	9	...........
	51	0.693333	7.16049E-001	9.11210E-005	0.00000E+000	6.52471E-005	5.39641E-002	7.16131E-001	3.57580E+000	9	...........
	52	0.706667	7.20231E-001	9.11720E-005	0.00000E+000	6.56650E-005	5.39641E-002	7.20293E-001	3.57580E+000	9	...........
	53	0.72	7.24322E-001	9.11283E-005	0.00000E+000	6.60062E-005	5.39641E-002	7.24381E-001	3.57580E+000	9	...........
	54	0.733333	7.28362E-001	9.13867E-005	0.00000E+000	6.65626E-005	5.39641E-002	7.28390E-001	3.57580E+000	9	...........
	55	0.746667	7.32313E-001	9.09647E-005	0.00000E+000	6.66147E-005	5.39641E-002	7.32369E-001	3.57580E+000	9	...........
	56	0.76	7.36241E-001	9.10366E-005	0.00000E+000	6.70249E-005	5.39641E-002	7.36286E-001	3.57580E+000	9	...........
	57	0.773333	7.40075E-001	9.12231E-005	0.00000E+000	6.75119E-005	5.39641E-002	7.40150E-001	3.57580E+000	9	...........
	58	0.786667	7.43915E-001	9.11700E-005	0.00000E+000	6.78227E-005	5.39641E-002	7.44006E-001	3.57580E+000	9	...........
	59	0.8	7.47658E-001	9.11429E-005	0.00000E+000	6.81437E-005	5.39641E-002	7.47754E-001	3.57580E+000	9	...........
	60	0.813333	7.51322E-001	9.13137E-005	0.00000E+000	6.86060E-005	5.39641E-002	7.51427E-001	3.57580E+000	9	...........
	61	0.826667	7.54978E-001	9.11293E-005	0.00000E+000	6.88006E-005	5.39641E-002	7.55075E-001	3.57580E+000	9	...........
	62	0.84	7.58576E-001	9.09626E-005	0.00000E+000	6.90020E-005	5.39641E-002	7.58650E-001	3.57580E+000	9	...........
	63	0.853333	7.62118E-001	9.10762E-005	0.00000E+000	6.94108E-005	5.39641E-002	7.62197E-001	3.57580E+000	9	...........
	64	0.866667	7.65628E-001	9.13096E-005	0.00000E+000	6.99092E-005	5.39641E-002	7.65716E-001	3.57580E+000	9	...........
	65	0.88	7.69126E-001	9.11783E-005	0.00000E+000	7.01276E-005	5.39641E-002	7.69211E-001	3.57580E+000	9	...........
	66	0.893333	7.72554E-001	9.13085E-005	0.00000E+000	7.05408E-005	5.39641E-002	7.72636E-001	3.57580E+000	9	...........
	67	0.906667	7.75921E-001	9.10731E-005	0.00000E+000	7.06655E-005	5.39641E-002	7.76010E-001	3.57580E+000	9	...........
	68	0.92	7.79248E-001	9.10043E-005	0.00000E+000	7.09149E-005	5.39641E-002	7.79344E-001	3.57580E+000	9	...........
	69	0.933333	7.82532E-001	9.13981E-005	0.00000E+000	7.15220E-005	5.39641E-002	7.82646E-001	3.57580E+000	9	...........
	70	0.946667	7.85781E-001	9.12700E-005	0.00000E+000	7.17182E-005	5.39641E-002	7.85872E-001	3.57580E+000	9	...........
	71	0.96	7.89023E-001	9.13825E-005	0.00000E+000	7.21029E-005	5.39641E-002	7.89125E-001	3.57580E+000	9	...........
	72	0.97333	7.92205E-001	9.09845E-005	0.00000E+000	7.20784E-005	5.39641E-002	7.92352E-001	3.57580E+000	9	...........
	73	0.98667	7.95390E-001	9.11491E-005	0.00000E+000	7.24991E-005	5.39641E-002	7.95530E-001	3.57580E+000	9	...........
	74	1	7.98499E-001	9.11512E-005	0.00000E+000	7.27841E-005	5.39641E-002	7.98617E-001	3.57580E+000	9	...........
	75	1.01333	8.01596E-001	9.10668E-005	0.00000E+000	7.29988E-005	5.39641E-002	8.01706E-001	3.57580E+000	9	...........
	76	1.02667	8.04606E-001	9.12262E-005	0.00000E+000	7.34012E-005	5.39641E-002	8.04761E-001	3.57580E+000	9	...........
	77	1.04	8.07604E-001	9.08689E-005	0.00000E+000	7.33860E-005	5.39641E-002	8.07745E-001	3.57580E+000	9	...........
	78	1.05333	8.10560E-001	9.10470E-005	0.00000E+000	7.37990E-005	5.39641E-002	8.10693E-001	3.57580E+000	9	...........
	79	1.06667	8.13503E-001	9.09824E-005	0.00000E+000	7.40145E-005	5.39641E-002	8.13638E-001	3.57580E+000	9	...........
	80	1.08	8.16407E-001	9.11043E-005	0.00000E+000	7.43782E-005	5.39641E-002	8.16582E-001	3.57580E+000	9	...........
	81	1.09333	8.19327E-001	9.11866E-005	0.00000E+000	7.47116E-005	5.39641E-002	8.19490E-001	3.57580E+000	9	...........
	82	1.10667	8.22184E-001	9.12231E-005	0.00000E+000	7.50022E-005	5.39641E-002	8.22328E-001	3.57580E+000	9	...........
	83	1.12	8.24988E-001	9.12366E-005	0.00000E+000	7.52691E-005	5.39641E-002	8.25161E-001	3.57580E+000	9	...........
	84	1.13333	8.27760E-001	9.12762E-005	0.00000E+000	7.55548E-005	5.39641E-002	8.27911E-001	3.57580E+000	9	...........
	85	1.14667	8.30483E-001	9.09574E-005	0.00000E+000	7.55386E-005	5.39641E-002	8.30622E-001	3.57580E+000	9	...........
	86	1.16	8.33188E-001	9.11731E-005	0.00000E+000	7.59643E-005	5.39641E-002	8.33333E-001	3.57580E+000	9	...........
	87	1.17333	8.35860E-001	9.09720E-005	0.00000E+000	7.60399E-005	5.39641E-002	8.36035E-001	3.57580E+000	9	...........
	88	1.18667	8.38560E-001	9.11460E-005	0.00000E+000	7.64314E-005	5.39641E-002	8.38714E-001	3.57580E+000	9	...........
	89	1.2	8.41150E-001	9.09699E-005	0.00000E+000	7.65193E-005	5.39641E-002	8.41333E-001	3.57580E+000	9	...........
	90	1.21333	8.43790E-001	9.09387E-005	0.00000E+000	7.67331E-005	5.39641E-002	8.43938E-001	3.57580E+000	9	...........
	91	1.22667	8.46387E-001	9.10012E-005	0.00000E+000	7.70222E-005	5.39641E-002	8.46546E-001	3.57580E+000	9	...........
	92	1.24	8.48949E-001	9.09084E-005	0.00000E+000	7.71766E-005	5.39641E-002	8.49119E-001	3.57580E+000	9	...........
	93	1.25333	8.51475E-001	9.09730E-005	0.00000E+000	7.74613E-005	5.39641E-002	8.51636E-001	3.57580E+000	9	...........
	94	1.26667	8.53976E-001	9.12158E-005	0.00000E+000	7.78961E-005	5.39641E-002	8.54111E-001	3.57580E+000	9	...........
	95	1.28	8.56442E-001	9.10606E-005	0.00000E+000	7.79881E-005	5.39641E-002	8.56598E-001	3.57580E+000	9	...........
	96	1.29333	8.58889E-001	9.07615E-005	0.00000E+000	7.79541E-005	5.39641E-002	8.59081E-001	3.57580E+000	9	...........
	97	1.30667	8.61332E-001	9.10012E-005	0.00000E+000	7.83822E-005	5.39641E-002	8.61503E-001	3.57580E+000	9	...........
	98	1.32	8.63707E-001	9.10626E-005	0.00000E+000	7.86514E-005	5.39641E-002	8.63872E-001	3.57580E+000	9	...........
	99	1.33333	8.66088E-001	9.12043E-005	0.00000E+000	7.89910E-005	5.39641E-002	8.66293E-001	3.57580E+000	9	...........
	100	1.34667	8.68464E-001	9.12252E-005	0.00000E+000	7.92257E-005	5.39641E-002	8.68676E-001	3.57580E+000	9	...........
	101	1.36	8.70846E-001	9.10814E-005	0.00000E+000	7.93179E-005	5.39641E-002	8.71033E-001	3.57580E+000	9	...........
	102	1.37333	8.73147E-001	9.11523E-005	0.00000E+000	7.95893E-005	5.39641E-002	8.73333E-001	3.57580E+000	9	...........
	103	1.38667	8.75449E-001	9.12669E-005	0.00000E+000	7.98995E-005	5.39641E-002	8.75634E-001	3.57580E+000	9	...........
	104	1.4	8.77732E-001	9.08261E-005	0.00000E+000	7.97210E-005	5.39641E-002	8.77886E-001	3.57580E+000	9	...........
	105	1.41333	8.79958E-001	9.11450E-005	0.00000E+000	8.02037E-005	5.39641E-002	8.80133E-001	3.57580E+000	9	...........
	106	1.42667	8.82162E-001	9.10251E-005	0.00000E+000	8.02990E-005	5.39641E-002	8.82337E-001	3.57580E+000	9	...........
	107	1.44	8.84351E-001	9.11512E-005	0.00000E+000	8.06096E-005	5.39641E-002	8.84521E-001	3.57580E+000	9	...........
	108	1.45333	8.86507E-001	9.12356E-005	0.00000E+000	8.08810E-005	5.39641E-002	8.86702E-001	3.57580E+000	9	...........
	109	1.46667	8.88660E-001	9.12596E-005	0.00000E+000	8.10987E-005	5.39641E-002	8.88834E-001	3.57580E+000	9	...........
	110	1.48	8.90801E-001	9.12002E-005	0.00000E+000	8.12412E-005	5.39641E-002	8.90959E-001	3.57580E+000	9	...........
	111	1.49333	8.92884E-001	9.08897E-005	0.00000E+000	8.11540E-005	5.39641E-002	8.93048E-001	3.57580E+000	9	...........
	112	1.50667	8.94982E-001	9.11512E-005	0.00000E+000	8.15787E-005	5.39641E-002	8.95177E-001	3.57580E+000	9	...........
	113	1.52	8.97065E-001	9.11564E-005	0.00000E+000	8.17733E-005	5.39641E-002	8.97225E-001	3.57580E+000	9	...........
	114	1.53333	8.99112E-001	9.09720E-005	0.00000E+000	8.17941E-005	5.39641E-002	8.99283E-001	3.57580E+000	9	...........
	115	1.54667	9.01147E-001	9.11522E-005	0.00000E+000	8.21416E-005	5.39641E-002	9.01330E-001	3.57580E+000	9	...........
	116	1.56	9.03184E-001	9.11356E-005	0.00000E+000	8.23122E-005	5.39641E-002	9.03359E-001	3.57580E+000	9	...........
	117	1.57333	9.05186E-001	9.08480E-005	0.00000E+000	8.22343E-005	5.39641E-002	9.05374E-001	3.57580E+000	9	...........
	118	1.58667	9.07155E-001	9.09074E-005	0.00000E+000	8.24672E-005	5.39641E-002	9.07364E-001	3.57580E+000	9	...........
	119	1.6	9.09126E-001	9.10324E-005	0.00000E+000	8.27600E-005	5.39641E-002	9.09327E-001	3.57580E+000	9	...........
	120	1.61333	9.11077E-001	9.12679E-005	0.00000E+000	8.31521E-005	5.39641E-002	9.11215E-001	3.57580E+000	9	...........
	121	1.62667	9.12993E-001	9.10085E-005	0.00000E+000	8.30901E-005	5.39641E-002	9.13150E-001	3.57380E+000	9	...........
	122	1.64	9.14895E-001	9.10543E-005	0.00000E+000	8.33051E-005	5.39641E-002	9.15058E-001	3.57180E+000	9	...........
	123	1.65333	9.16778E-001	9.10522E-005	0.00000E+000	8.34747E-005	5.39641E-002	9.16947E-001	3.57180E+000	9	...........
	124	1.66667	9.18650E-001	9.08678E-005	0.00000E+000	8.34757E-005	5.39641E-002	9.18805E-001	3.57180E+000	9	...........
	125	1.68	9.20535E-001	9.11262E-005	0.00000E+000	8.38849E-005	5.39641E-002	9.20650E-001	3.57180E+000	9	...........
	126	1.69333	9.22391E-001	9.10731E-005	0.00000E+000	8.40050E-005	5.39641E-002	9.22490E-001	3.57180E+000	9	...........
	127	1.70667	9.24186E-001	9.11199E-005	0.00000E+000	8.42117E-005	5.39641E-002	9.24309E-001	3.57180E+000	9	...........
	128	1.72	9.25976E-001	9.10553E-005	0.00000E+000	8.43151E-005	5.39641E-002	9.26107E-001	3.57180E+000	9	...........
	129	1.73333	9.27764E-001	9.12127E-005	0.00000E+000	8.46239E-005	5.39641E-002	9.27883E-001	3.57180E+000	9	...........
	130	1.74667	9.29507E-001	9.10168E-005	0.00000E+000	8.46008E-005	5.39641E-002	9.29615E-001	3.57180E+000	9	...........
	131	1.76	9.31252E-001	9.10210E-005	0.00000E+000	8.47634E-005	5.39641E-002	9.31360E-001	3.57180E+000	9	...........
	132	1.77333	9.32966E-001	9.10158E-005	0.00000E+000	8.49146E-005	5.39641E-002	9.33092E-001	3.57180E+000	9	...........
	133	1.78667	9.34672E-001	9.10835E-005	0.00000E+000	8.51332E-005	5.39641E-002	9.34818E-001	3.57180E+000	9	...........
	134	1.8	9.36390E-001	9.11918E-005	0.00000E+000	8.53911E-005	5.39641E-002	9.36528E-001	3.57180E+000	9	...........
	135	1.81333	9.38074E-001	9.10564E-005	0.00000E+000	8.54177E-005	5.39641E-002	9.38233E-001	3.57180E+000	9	...........
	136	1.82667	9.39731E-001	9.09678E-005	0.00000E+000	8.54853E-005	5.39641E-002	9.39909E-001	3.57180E+000	9	...........
	137	1.84	9.41377E-001	9.12064E-005	0.00000E+000	8.58596E-005	5.39641E-002	9.41539E-001	3.57180E+000	9	...........
	138	1.85333	9.43002E-001	9.09637E-005	0.00000E+000	8.57790E-005	5.39641E-002	9.43158E-001	3.57180E+000	9	...........
	139	1.86667	9.44611E-001	9.10741E-005	0.00000E+000	8.60296E-005	5.39641E-002	9.44766E-001	3.57180E+000	9	...........
	140	1.88	9.46210E-001	9.09949E-005	0.00000E+000	8.61003E-005	5.39641E-002	9.46403E-001	3.57180E+000	9	...........
	141	1.89333	9.47839E-001	9.11502E-005	0.00000E+000	8.63957E-005	5.39641E-002	9.47968E-001	3.57180E+000	9	...........
	142	1.90667	9.49379E-001	9.12679E-005	0.00000E+000	8.66478E-005	5.39641E-002	9.49524E-001	3.57180E+000	9	...........
	143	1.92	9.50928E-001	9.09012E-005	0.00000E+000	8.64404E-005	5.39641E-002	9.51075E-001	3.57180E+000	9	...........
	144	1.93333	9.52466E-001	9.12898E-005	0.00000E+000	8.69504E-005	5.39641E-002	9.52621E-001	3.57180E+000	9	...........
	145	1.94667	9.53985E-001	9.11668E-005	0.00000E+000	8.69718E-005	5.39641E-002	9.54164E-001	3.57180E+000	9	...........
	146	1.96	9.55483E-001	9.08720E-005	0.00000E+000	8.68267E-005	5.39641E-002	9.55654E-001	3.57180E+000	9	...........
	147	1.97333	9.56991E-001	9.12523E-005	0.00000E+000	8.73276E-005	5.39641E-002	9.57150E-001	3.57180E+000	9	...........
	148	1.98667	9.58464E-001	9.12762E-005	0.00000E+000	8.74850E-005	5.39641E-002	9.58649E-001	3.57180E+000	9	...........
	149	2	9.59960E-001	9.10137E-005	0.00000E+000	8.73695E-005	5.39641E-002	9.60139E-001	3.57180E+000	9	...........
	150	2.01333	9.61403E-001	9.10647E-005	0.00000E+000	8.75499E-005	5.39641E-002	9.61591E-001	3.57180E+000	9	...........
	151	2.02667	9.62835E-001	9.09230E-005	0.00000E+000	8.75439E-005	5.39641E-002	9.63028E-001	3.57180E+000	9	...........
	152	2.04	9.64264E-001	9.14471E-005	0.00000E+000	8.81792E-005	5.39641E-002	9.64473E-001	3.57180E+000	9	...........
	153	2.05333	9.65686E-001	9.13096E-005	0.00000E+000	8.81764E-005	5.39641E-002	9.65885E-001	3.57180E+000	9	...........
	154	2.06667	9.67073E-001	9.10314E-005	0.00000E+000	8.80340E-005	5.39641E-002	9.67295E-001	3.57180E+000	9	...........
	155	2.08	9.68444E-001	9.10585E-005	0.00000E+000	8.81851E-005	5.39641E-002	9.68680E-001	3.57180E+000	9	...........
	156	2.09333	9.69812E-001	9.13315E-005	0.00000E+000	8.85744E-005	5.39641E-002	9.70060E-001	3.57180E+000	9	...........
	157	2.10667	9.71195E-001	9.10262E-005	0.00000E+000	8.84042E-005	5.39641E-002	9.71444E-001	3.57180E+000	9	...........
	158	2.12	9.72600E-001	9.08855E-005	0.00000E+000	8.83952E-005	5.39641E-002	9.72791E-001	3.57180E+000	9	...........
	159	2.13333	9.73958E-001	9.12950E-005	0.00000E+000	8.89174E-005	5.39641E-002	9.74118E-001	3.57180E+000	9	...........
	160	2.14667	9.75234E-001	9.11668E-005	0.00000E+000	8.89090E-005	5.39641E-002	9.75431E-001	3.57180E+000	9	...........
	161	2.16	9.76546E-001	9.11950E-005	0.00000E+000	8.90561E-005	5.39641E-002	9.76740E-001	3.57180E+000	9	...........
	162	2.17333	9.77852E-001	9.10699E-005	0.00000E+000	8.90529E-005	5.39641E-002	9.78026E-001	3.57180E+000	9	...........
	163	2.18667	9.79146E-001	9.08918E-005	0.00000E+000	8.89963E-005	5.39641E-002	9.79325E-001	3.57180E+000	9	...........
	164	2.2	9.80423E-001	9.09960E-005	0.00000E+000	8.92145E-005	5.39641E-002	9.80604E-001	3.57180E+000	9	...........
	165	2.21333	9.81673E-001	9.09585E-005	0.00000E+000	8.92915E-005	5.39641E-002	9.81864E-001	3.57180E+000	9	...........
	166	2.22667	9.82942E-001	9.10877E-005	0.00000E+000	8.95339E-005	5.39641E-002	9.83131E-001	3.57180E+000	9	...........
	167	2.24	9.84161E-001	9.11595E-005	0.00000E+000	8.97157E-005	5.39641E-002	9.84369E-001	3.57180E+000	9	...........
	168	2.25333	9.85418E-001	9.11543E-005	0.00000E+000	8.98251E-005	5.39641E-002	9.85629E-001	3.57180E+000	9	...........
	169	2.26667	9.86620E-001	9.12210E-005	0.00000E+000	9.00005E-005	5.39641E-002	9.86830E-001	3.57180E+000	9	...........
	170	2.28	9.87832E-001	9.10272E-005	0.00000E+000	8.99196E-005	5.39641E-002	9.88065E-001	3.57180E+000	9	...........
	171	2.29333	9.89048E-001	9.10491E-005	0.00000E+000	9.00520E-005	5.39641E-002	9.89255E-001	3.57180E+000	9	...........
	172	2.30667	9.90259E-001	9.11554E-005	0.00000E+000	9.02674E-005	5.39641E-002	9.90439E-001	3.57180E+000	9	...........
	173	2.32	9.91437E-001	9.11668E-005	0.00000E+000	9.03861E-005	5.39641E-002	9.91641E-001	3.57180E+000	9	...........
	174	2.33333	9.92582E-001	9.10074E-005	0.00000E+000	9.03323E-005	5.39641E-002	9.92800E-001	3.57180E+000	9	...........
	175	2.34667	9.93717E-001	9.09949E-005	0.00000E+000	9.04232E-005	5.39641E-002	9.93950E-001	3.57180E+000	9	...........
	176	2.36	9.94869E-001	9.12116E-005	0.00000E+000	9.07436E-005	5.39641E-002	9.95091E-001	3.57180E+000	9	...........
	177	2.37333	9.96017E-001	9.13190E-005	0.00000E+000	9.09552E-005	5.39641E-002	9.96201E-001	3.57180E+000	9	...........
	178	2.38667	9.97136E-001	9.12200E-005	0.00000E+000	9.09587E-005	5.39641E-002	9.97362E-001	3.57180E+000	9	...........
	179	2.4	9.98275E-001	9.10929E-005	0.00000E+000	9.09358E-005	5.39641E-002	9.98494E-001	3.57180E+000	9	...........
	180	2.41333	9.99368E-001	9.09460E-005	0.00000E+000	9.08885E-005	5.39641E-002	9.99579E-001	3.57180E+000	9	...........
	181	2.41667	1.00003E+000	9.10627E-005	0.00000E+000	9.10655E-005	5.39641E-002	1.00023E+000	3.57180E+000	9	...........
STARTTIMEOFFSET	QUANT	817.0131	Start Time Offset (s)
