EXPLAIN
TAG	PWR800_CHARGE
TITLE	LABEL	PWR Cyclic Charge Discharge (Cell) - Charge Step	Test &Identifier
DATE	LABEL	10-7-2017	Date
TIME	LABEL	16:14:48	Time
NOTES	NOTES	3	&Notes...
	supercap test cell
	0.9mg
	6M KOH
PSTAT	PSTAT	IFC5000-01520	Potentiostat
CAPACITY	QUANT	1.00000E-003	Capacity (A-hr)
CELLTYPE	SELECTOR	1	&Cell Type
WORKINGCONNECTION	SELECTOR	0	&Working Lead
MAXCHARGETIME	VARIABLEANDUNITS	1.00000E+002	s	1.00000E+002	second(s)	Max &Charge Time
CHARGECURRENT	QUANT	9.00000E-005	&Charge Current (A) 
VOLTAGEFINISH	TWOPARAM	F	1.00000E-003	3.60000E+003	&Voltage Finish	 I (A) < 	Max Time(s)
SAMPLETIME	QUANT	1.00000E-002	Sa&mple Period (s)
CHARGESTOPAT1	MULTIPARAM	4	1.00000E+000	Charge Stop At &1	Voltage > Limit	V
CHARGESTOPAT2	MULTIPARAM	0	0.00000E+000	Charge Stop At &2	None	N/A
AESBHCSELECTOR	TOGGLE	F	Save Both Half Cells
IRCOMP	TOGGLE	F	IR &Measure
EOC	QUANT	0	Open Circuit (V)
SEQUENCER	TOGGLE	TRUE	Run as Sequence
PSTATMODEL	IQUANT	53	Pstat Model
PSTATSECTION	LABEL	IFC5000-01520	Pstat Section
PSTATSERIALNO	LABEL	01520	Pstat Serial Number
CTRLMODE	IQUANT	0	Control Mode
ELECTROMETER	IQUANT	1	RE=0 or CS=1
IESTAB	IQUANT	0	I/E Stability
CASPEED	IQUANT	4	Control Amp Speed
CONVENTION	IQUANT	1	Current Convention
ICHRANGE	IQUANT	2	Ich Range
ICHRANGEMODE	TOGGLE	T	Ich Auto Range
ICHOFFSETENABLE	TOGGLE	F	Ich Offset Enable
ICHOFFSET	QUANT	0	Ich Offset (V)
ICHFILTER	IQUANT	1	Ich Filter
VCHRANGE	IQUANT	2	Vch Range
VCHRANGEMODE	TOGGLE	T	Vch Auto Range
VCHOFFSETENABLE	TOGGLE	F	Vch Offset Enable
VCHOFFSET	QUANT	0	Vch Offset (V)
VCHFILTER	IQUANT	1	Vch Filter
IERANGELOWERLIMIT	IQUANT	9	I/E Range Lower Limit
IERANGEMODE	TOGGLE	F	I/E AutoRange
IERANGE	IQUANT	9	I/E Range
ACHSELECT	IQUANT	1	Ach Select
ACHRANGE	IQUANT	2	Ach Range
ACHOFFSETENABLE	TOGGLE	F	Ach Offset Enable
ACHOFFSET	QUANT	0	Ach Offset (V)
ACHFILTER	IQUANT	1	Ach Filter
CABLEID	IQUANT	14	Cable ID
DCCALDATE	LABEL	5-7-2017	DC Calibration Date
ACCALDATE	LABEL	12/3/2015	AC Calibration Date
FRAMEWORKVERSION	QUANT	7.01	Framework Version
INSTRUMENTVERSION	LABEL	4.00	Instrument Version
CURVE	TABLE	162
	Pt	T	Vf	Im	Vu	Pwr	Sig	Ach	Temp	IERange	Over
	#	s	V	A	V	W	V	V	deg C	#	bits
	0	0.013333	2.63172E-001	9.09720E-005	0.00000E+000	2.39413E-005	5.39641E-002	2.63226E-001	3.57340E+000	9	...........
	1	0.026667	2.82938E-001	9.09282E-005	0.00000E+000	2.57270E-005	5.39641E-002	2.82977E-001	3.57340E+000	9	...........
	2	0.04	3.01510E-001	9.09178E-005	0.00000E+000	2.74126E-005	5.39641E-002	3.01548E-001	3.57340E+000	9	...........
	3	0.053333	3.19062E-001	9.11085E-005	0.00000E+000	2.90693E-005	5.39641E-002	3.19105E-001	3.57340E+000	9	...........
	4	0.066667	3.35672E-001	9.08939E-005	0.00000E+000	3.05105E-005	5.39641E-002	3.35714E-001	3.57340E+000	9	...........
	5	0.08	3.51451E-001	9.08439E-005	0.00000E+000	3.19272E-005	5.39641E-002	3.51498E-001	3.57340E+000	9	...........
	6	0.093333	3.66472E-001	9.07876E-005	0.00000E+000	3.32711E-005	5.39641E-002	3.66523E-001	3.57340E+000	9	...........
	7	0.106667	3.80801E-001	9.08480E-005	0.00000E+000	3.45950E-005	5.39641E-002	3.80851E-001	3.57340E+000	9	...........
	8	0.12	3.94476E-001	9.08116E-005	0.00000E+000	3.58229E-005	5.39641E-002	3.94522E-001	3.57340E+000	9	...........
	9	0.133333	4.07537E-001	9.08772E-005	0.00000E+000	3.70359E-005	5.39641E-002	4.07588E-001	3.57340E+000	9	...........
	10	0.146667	4.20057E-001	9.09762E-005	0.00000E+000	3.82152E-005	5.39641E-002	4.20110E-001	3.57340E+000	9	...........
	11	0.16	4.32074E-001	9.09168E-005	0.00000E+000	3.92828E-005	5.39641E-002	4.32128E-001	3.57340E+000	9	...........
	12	0.173333	4.43617E-001	9.11408E-005	0.00000E+000	4.04316E-005	5.39641E-002	4.43678E-001	3.57340E+000	9	...........
	13	0.186667	4.54723E-001	9.08751E-005	0.00000E+000	4.13230E-005	5.39641E-002	4.54783E-001	3.57340E+000	9	...........
	14	0.2	4.65411E-001	9.10418E-005	0.00000E+000	4.23718E-005	5.39641E-002	4.65475E-001	3.57340E+000	9	...........
	15	0.213333	4.75724E-001	9.10877E-005	0.00000E+000	4.33326E-005	5.39641E-002	4.75789E-001	3.57340E+000	9	...........
	16	0.226667	4.85684E-001	9.08887E-005	0.00000E+000	4.41432E-005	5.39641E-002	4.85749E-001	3.57340E+000	9	...........
	17	0.24	4.95309E-001	9.09908E-005	0.00000E+000	4.50686E-005	5.39641E-002	4.95384E-001	3.57349E+000	9	...........
	18	0.253333	5.04624E-001	9.11075E-005	0.00000E+000	4.59750E-005	5.39641E-002	5.04694E-001	3.57350E+000	9	...........
	19	0.266667	5.13658E-001	9.07751E-005	0.00000E+000	4.66274E-005	5.39641E-002	5.13729E-001	3.57350E+000	9	...........
	20	0.28	5.22425E-001	9.09949E-005	0.00000E+000	4.75380E-005	5.39641E-002	5.22499E-001	3.57350E+000	9	...........
	21	0.293333	5.30904E-001	9.09064E-005	0.00000E+000	4.82625E-005	5.39641E-002	5.30963E-001	3.57350E+000	9	...........
	22	0.306667	5.39086E-001	9.12846E-005	0.00000E+000	4.92102E-005	5.39641E-002	5.39180E-001	3.57350E+000	9	...........
	23	0.32	5.47111E-001	9.12179E-005	0.00000E+000	4.99063E-005	5.39641E-002	5.47194E-001	3.57350E+000	9	...........
	24	0.333333	5.54905E-001	9.09553E-005	0.00000E+000	5.04716E-005	5.39641E-002	5.54976E-001	3.57350E+000	9	...........
	25	0.346667	5.62521E-001	9.10293E-005	0.00000E+000	5.12059E-005	5.39641E-002	5.62599E-001	3.57350E+000	9	...........
	26	0.36	5.69933E-001	9.09699E-005	0.00000E+000	5.18468E-005	5.39641E-002	5.70033E-001	3.57350E+000	9	...........
	27	0.373333	5.77172E-001	9.09637E-005	0.00000E+000	5.25017E-005	5.39641E-002	5.77266E-001	3.57350E+000	9	...........
	28	0.386667	5.84207E-001	9.09981E-005	0.00000E+000	5.31617E-005	5.39641E-002	5.84281E-001	3.57350E+000	9	...........
	29	0.4	5.91121E-001	9.11741E-005	0.00000E+000	5.38950E-005	5.39641E-002	5.91211E-001	3.57350E+000	9	...........
	30	0.413333	5.97836E-001	9.09199E-005	0.00000E+000	5.43552E-005	5.39641E-002	5.97913E-001	3.57350E+000	9	...........
	31	0.426667	6.04394E-001	9.08334E-005	0.00000E+000	5.48991E-005	5.39641E-002	6.04501E-001	3.57350E+000	9	...........
	32	0.44	6.10822E-001	9.12033E-005	0.00000E+000	5.57090E-005	5.39641E-002	6.10927E-001	3.57350E+000	9	...........
	33	0.453333	6.17155E-001	9.10418E-005	0.00000E+000	5.61869E-005	5.39641E-002	6.17241E-001	3.57350E+000	9	...........
	34	0.466667	6.23313E-001	9.09147E-005	0.00000E+000	5.66683E-005	5.39641E-002	6.23386E-001	3.57350E+000	9	...........
	35	0.48	6.29309E-001	9.08928E-005	0.00000E+000	5.71997E-005	5.39641E-002	6.29413E-001	3.57350E+000	9	...........
	36	0.493333	6.35192E-001	9.07845E-005	0.00000E+000	5.76656E-005	5.39641E-002	6.35286E-001	3.57350E+000	9	...........
	37	0.506667	6.40988E-001	9.09887E-005	0.00000E+000	5.83227E-005	5.39641E-002	6.41107E-001	3.57350E+000	9	...........
	38	0.52	6.46672E-001	9.10908E-005	0.00000E+000	5.89058E-005	5.39641E-002	6.46769E-001	3.57350E+000	9	...........
	39	0.533333	6.52252E-001	9.11241E-005	0.00000E+000	5.94359E-005	5.39641E-002	6.52376E-001	3.57350E+000	9	...........
	40	0.546667	6.57730E-001	9.09032E-005	0.00000E+000	5.97897E-005	5.39641E-002	6.57833E-001	3.57350E+000	9	...........
	41	0.56	6.63099E-001	9.08959E-005	0.00000E+000	6.02730E-005	5.39641E-002	6.63245E-001	3.57350E+000	9	...........
	42	0.573333	6.68430E-001	9.09241E-005	0.00000E+000	6.07764E-005	5.39641E-002	6.68560E-001	3.57350E+000	9	...........
	43	0.586667	6.73645E-001	9.11929E-005	0.00000E+000	6.14317E-005	5.39641E-002	6.73755E-001	3.57350E+000	9	...........
	44	0.6	6.78765E-001	9.11637E-005	0.00000E+000	6.18787E-005	5.39641E-002	6.78885E-001	3.57350E+000	9	...........
	45	0.613333	6.83760E-001	9.07188E-005	0.00000E+000	6.20299E-005	5.39641E-002	6.83885E-001	3.57350E+000	9	...........
	46	0.626667	6.88718E-001	9.12231E-005	0.00000E+000	6.28270E-005	5.39641E-002	6.88885E-001	3.57350E+000	9	...........
	47	0.64	6.93614E-001	9.08428E-005	0.00000E+000	6.30098E-005	5.39641E-002	6.93722E-001	3.57350E+000	9	...........
	48	0.653333	6.98380E-001	9.10345E-005	0.00000E+000	6.35766E-005	5.39641E-002	6.98527E-001	3.57350E+000	9	...........
	49	0.666667	7.03110E-001	9.09637E-005	0.00000E+000	6.39575E-005	5.39641E-002	7.03249E-001	3.57350E+000	9	...........
	50	0.68	7.07758E-001	9.09303E-005	0.00000E+000	6.43567E-005	5.39641E-002	7.07890E-001	3.57350E+000	9	...........
	51	0.693333	7.12362E-001	9.07709E-005	0.00000E+000	6.46618E-005	5.39641E-002	7.12463E-001	3.57350E+000	9	...........
	52	0.706667	7.16874E-001	9.09699E-005	0.00000E+000	6.52140E-005	5.39641E-002	7.17018E-001	3.57350E+000	9	...........
	53	0.72	7.21386E-001	9.10647E-005	0.00000E+000	6.56928E-005	5.39641E-002	7.21486E-001	3.57350E+000	9	...........
	54	0.733333	7.25782E-001	9.09157E-005	0.00000E+000	6.59850E-005	5.39641E-002	7.25883E-001	3.57350E+000	9	...........
	55	0.746667	7.30131E-001	9.11293E-005	0.00000E+000	6.65364E-005	5.39641E-002	7.30230E-001	3.57350E+000	9	...........
	56	0.76	7.34413E-001	9.07355E-005	0.00000E+000	6.66373E-005	5.39641E-002	7.34519E-001	3.57350E+000	9	...........
	57	0.773333	7.38643E-001	9.12960E-005	0.00000E+000	6.74352E-005	5.39641E-002	7.38758E-001	3.57350E+000	9	...........
	58	0.786667	7.42861E-001	9.11470E-005	0.00000E+000	6.77096E-005	5.39641E-002	7.42986E-001	3.57350E+000	9	...........
	59	0.8	7.46969E-001	9.09855E-005	0.00000E+000	6.79634E-005	5.39641E-002	7.47071E-001	3.57350E+000	9	...........
	60	0.813333	7.51023E-001	9.06730E-005	0.00000E+000	6.80975E-005	5.39641E-002	7.51141E-001	3.57350E+000	9	...........
	61	0.826667	7.55044E-001	9.10397E-005	0.00000E+000	6.87390E-005	5.39641E-002	7.55183E-001	3.57350E+000	9	...........
	62	0.84	7.58994E-001	9.09314E-005	0.00000E+000	6.90164E-005	5.39641E-002	7.59125E-001	3.57350E+000	9	...........
	63	0.853333	7.62930E-001	9.09772E-005	0.00000E+000	6.94092E-005	5.39641E-002	7.63055E-001	3.57350E+000	9	...........
	64	0.866667	7.66774E-001	9.10158E-005	0.00000E+000	6.97885E-005	5.39641E-002	7.66959E-001	3.57350E+000	9	...........
	65	0.88	7.70654E-001	9.10345E-005	0.00000E+000	7.01561E-005	5.39641E-002	7.70802E-001	3.57350E+000	9	...........
	66	0.893333	7.74444E-001	9.10887E-005	0.00000E+000	7.05431E-005	5.39641E-002	7.74594E-001	3.57350E+000	9	...........
	67	0.906667	7.78184E-001	9.11085E-005	0.00000E+000	7.08992E-005	5.39641E-002	7.78344E-001	3.57350E+000	9	...........
	68	0.92	7.81900E-001	9.07501E-005	0.00000E+000	7.09575E-005	5.39641E-002	7.82057E-001	3.57350E+000	9	...........
	69	0.933333	7.85564E-001	9.13502E-005	0.00000E+000	7.17615E-005	5.39641E-002	7.85721E-001	3.57350E+000	9	...........
	70	0.946667	7.89201E-001	9.09397E-005	0.00000E+000	7.17697E-005	5.39641E-002	7.89347E-001	3.57350E+000	9	...........
	71	0.96	7.92822E-001	9.08626E-005	0.00000E+000	7.20379E-005	5.39641E-002	7.92981E-001	3.57350E+000	9	...........
	72	0.97333	7.96397E-001	9.10251E-005	0.00000E+000	7.24921E-005	5.39641E-002	7.96512E-001	3.57350E+000	9	...........
	73	0.98667	7.99885E-001	9.08855E-005	0.00000E+000	7.26979E-005	5.39641E-002	8.00031E-001	3.57350E+000	9	...........
	74	1	8.03342E-001	9.07824E-005	0.00000E+000	7.29293E-005	5.39641E-002	8.03504E-001	3.57350E+000	9	...........
	75	1.01333	8.06780E-001	9.06740E-005	0.00000E+000	7.31540E-005	5.39641E-002	8.06942E-001	3.57350E+000	9	...........
	76	1.02667	8.10148E-001	9.07532E-005	0.00000E+000	7.35236E-005	5.39641E-002	8.10305E-001	3.57350E+000	9	...........
	77	1.04	8.13525E-001	9.09116E-005	0.00000E+000	7.39588E-005	5.39641E-002	8.13683E-001	3.57350E+000	9	...........
	78	1.05333	8.16853E-001	9.10897E-005	0.00000E+000	7.44069E-005	5.39641E-002	8.17028E-001	3.57350E+000	9	...........
	79	1.06667	8.20192E-001	9.10501E-005	0.00000E+000	7.46786E-005	5.39641E-002	8.20332E-001	3.57350E+000	9	...........
	80	1.08	8.23452E-001	9.12596E-005	0.00000E+000	7.51479E-005	5.39641E-002	8.23597E-001	3.57350E+000	9	...........
	81	1.09333	8.26652E-001	9.09856E-005	0.00000E+000	7.52134E-005	5.39641E-002	8.26792E-001	3.57350E+000	9	...........
	82	1.10667	8.29833E-001	9.10543E-005	0.00000E+000	7.55599E-005	5.39641E-002	8.29976E-001	3.57350E+000	9	...........
	83	1.12	8.32982E-001	9.11106E-005	0.00000E+000	7.58934E-005	5.39641E-002	8.33133E-001	3.57350E+000	9	...........
	84	1.13333	8.36098E-001	9.09741E-005	0.00000E+000	7.60632E-005	5.39641E-002	8.36258E-001	3.57350E+000	9	...........
	85	1.14667	8.39182E-001	9.11189E-005	0.00000E+000	7.64653E-005	5.39641E-002	8.39339E-001	3.57350E+000	9	...........
	86	1.16	8.42210E-001	9.12293E-005	0.00000E+000	7.68343E-005	5.39641E-002	8.42373E-001	3.57350E+000	9	...........
	87	1.17333	8.45269E-001	9.08678E-005	0.00000E+000	7.68077E-005	5.39641E-002	8.45446E-001	3.57350E+000	9	...........
	88	1.18667	8.48265E-001	9.08730E-005	0.00000E+000	7.70844E-005	5.39641E-002	8.48443E-001	3.57350E+000	9	...........
	89	1.2	8.51211E-001	9.07876E-005	0.00000E+000	7.72794E-005	5.39641E-002	8.51408E-001	3.57350E+000	9	...........
	90	1.21333	8.54158E-001	9.11731E-005	0.00000E+000	7.78763E-005	5.39641E-002	8.54317E-001	3.57350E+000	9	...........
	91	1.22667	8.57026E-001	9.10929E-005	0.00000E+000	7.80689E-005	5.39641E-002	8.57234E-001	3.57350E+000	9	...........
	92	1.24	8.59927E-001	9.07907E-005	0.00000E+000	7.80734E-005	5.39641E-002	8.60116E-001	3.57403E+000	9	...........
	93	1.25333	8.62768E-001	9.08459E-005	0.00000E+000	7.83790E-005	5.39641E-002	8.62941E-001	3.57410E+000	9	...........
	94	1.26667	8.65565E-001	9.09230E-005	0.00000E+000	7.86998E-005	5.39641E-002	8.65748E-001	3.57410E+000	9	...........
	95	1.28	8.68374E-001	9.11898E-005	0.00000E+000	7.91868E-005	5.39641E-002	8.68536E-001	3.57410E+000	9	...........
	96	1.29333	8.71182E-001	9.09689E-005	0.00000E+000	7.92505E-005	5.39641E-002	8.71348E-001	3.57410E+000	9	...........
	97	1.30667	8.73904E-001	9.10449E-005	0.00000E+000	7.95646E-005	5.39641E-002	8.74092E-001	3.57410E+000	9	...........
	98	1.32	8.76604E-001	9.09407E-005	0.00000E+000	7.97190E-005	5.39641E-002	8.76792E-001	3.57410E+000	9	...........
	99	1.33333	8.79238E-001	9.10449E-005	0.00000E+000	8.00501E-005	5.39641E-002	8.79426E-001	3.57410E+000	9	...........
	100	1.34667	8.81894E-001	9.10189E-005	0.00000E+000	8.02690E-005	5.39641E-002	8.82063E-001	3.57410E+000	9	...........
	101	1.36	8.84530E-001	9.11147E-005	0.00000E+000	8.05937E-005	5.39641E-002	8.84692E-001	3.57410E+000	9	...........
	102	1.37333	8.87114E-001	9.07897E-005	0.00000E+000	8.05408E-005	5.39641E-002	8.87239E-001	3.57410E+000	9	...........
	103	1.38667	8.89661E-001	9.12356E-005	0.00000E+000	8.11688E-005	5.39641E-002	8.89778E-001	3.57410E+000	9	...........
	104	1.4	8.92162E-001	9.12919E-005	0.00000E+000	8.14472E-005	5.39641E-002	8.92293E-001	3.57410E+000	9	...........
	105	1.41333	8.94686E-001	9.07886E-005	0.00000E+000	8.12273E-005	5.39641E-002	8.94819E-001	3.57410E+000	9	...........
	106	1.42667	8.97184E-001	9.10533E-005	0.00000E+000	8.16916E-005	5.39641E-002	8.97317E-001	3.57410E+000	9	...........
	107	1.44	8.99614E-001	9.10356E-005	0.00000E+000	8.18969E-005	5.39641E-002	8.99760E-001	3.57410E+000	9	...........
	108	1.45333	9.02031E-001	9.09397E-005	0.00000E+000	8.20304E-005	5.39641E-002	9.02199E-001	3.57410E+000	9	...........
	109	1.46667	9.04448E-001	9.10033E-005	0.00000E+000	8.23077E-005	5.39641E-002	9.04622E-001	3.57410E+000	9	...........
	110	1.48	9.06820E-001	9.09991E-005	0.00000E+000	8.25198E-005	5.39641E-002	9.07024E-001	3.57410E+000	9	...........
	111	1.49333	9.09221E-001	9.09658E-005	0.00000E+000	8.27080E-005	5.39641E-002	9.09402E-001	3.57410E+000	9	...........
	112	1.50667	9.11550E-001	9.12241E-005	0.00000E+000	8.31553E-005	5.39641E-002	9.11743E-001	3.57410E+000	9	...........
	113	1.52	9.13878E-001	9.09064E-005	0.00000E+000	8.30773E-005	5.39641E-002	9.14053E-001	3.57410E+000	9	...........
	114	1.53333	9.16118E-001	9.11648E-005	0.00000E+000	8.35176E-005	5.39641E-002	9.16325E-001	3.57410E+000	9	...........
	115	1.54667	9.18378E-001	9.10178E-005	0.00000E+000	8.35888E-005	5.39641E-002	9.18598E-001	3.57410E+000	9	...........
	116	1.56	9.20648E-001	9.08022E-005	0.00000E+000	8.35968E-005	5.39641E-002	9.20840E-001	3.57410E+000	9	...........
	117	1.57333	9.22899E-001	9.11450E-005	0.00000E+000	8.41176E-005	5.39641E-002	9.23048E-001	3.57410E+000	9	...........
	118	1.58667	9.25091E-001	9.10001E-005	0.00000E+000	8.41834E-005	5.39641E-002	9.25235E-001	3.57410E+000	9	...........
	119	1.6	9.27239E-001	9.09730E-005	0.00000E+000	8.43538E-005	5.39641E-002	9.27413E-001	3.57410E+000	9	...........
	120	1.61333	9.29361E-001	9.10814E-005	0.00000E+000	8.46475E-005	5.39641E-002	9.29533E-001	3.57410E+000	9	...........
	121	1.62667	9.31479E-001	9.08824E-005	0.00000E+000	8.46551E-005	5.39641E-002	9.31659E-001	3.57410E+000	9	...........
	122	1.64	9.33571E-001	9.08459E-005	0.00000E+000	8.48112E-005	5.39641E-002	9.33768E-001	3.57410E+000	9	...........
	123	1.65333	9.35651E-001	9.10626E-005	0.00000E+000	8.52029E-005	5.39641E-002	9.35833E-001	3.57410E+000	9	...........
	124	1.66667	9.37689E-001	9.09585E-005	0.00000E+000	8.52908E-005	5.39641E-002	9.37898E-001	3.57410E+000	9	...........
	125	1.68	9.39726E-001	9.09230E-005	0.00000E+000	8.54428E-005	5.39641E-002	9.39923E-001	3.57410E+000	9	...........
	126	1.69333	9.41746E-001	9.09814E-005	0.00000E+000	8.56813E-005	5.39641E-002	9.41948E-001	3.57410E+000	9	...........
	127	1.70667	9.43739E-001	9.10543E-005	0.00000E+000	8.59315E-005	5.39641E-002	9.43929E-001	3.57410E+000	9	...........
	128	1.72	9.45692E-001	9.09460E-005	0.00000E+000	8.60069E-005	5.39641E-002	9.45913E-001	3.57410E+000	9	...........
	129	1.73333	9.47678E-001	9.07720E-005	0.00000E+000	8.60226E-005	5.39641E-002	9.47839E-001	3.57410E+000	9	...........
	130	1.74667	9.49586E-001	9.10168E-005	0.00000E+000	8.64283E-005	5.39641E-002	9.49754E-001	3.57410E+000	9	...........
	131	1.76	9.51489E-001	9.09262E-005	0.00000E+000	8.65153E-005	5.39641E-002	9.51650E-001	3.57410E+000	9	...........
	132	1.77333	9.53358E-001	9.11095E-005	0.00000E+000	8.68600E-005	5.39641E-002	9.53510E-001	3.57410E+000	9	...........
	133	1.78667	9.55189E-001	9.10783E-005	0.00000E+000	8.69970E-005	5.39641E-002	9.55346E-001	3.57410E+000	9	...........
	134	1.8	9.57036E-001	9.09710E-005	0.00000E+000	8.70625E-005	5.39641E-002	9.57193E-001	3.57410E+000	9	...........
	135	1.81333	9.58840E-001	9.11908E-005	0.00000E+000	8.74373E-005	5.39641E-002	9.59021E-001	3.57410E+000	9	...........
	136	1.82667	9.60623E-001	9.10106E-005	0.00000E+000	8.74268E-005	5.39641E-002	9.60829E-001	3.57410E+000	9	...........
	137	1.84	9.62380E-001	9.08439E-005	0.00000E+000	8.74263E-005	5.39641E-002	9.62600E-001	3.57410E+000	9	...........
	138	1.85333	9.64144E-001	9.10428E-005	0.00000E+000	8.77784E-005	5.39641E-002	9.64361E-001	3.57410E+000	9	...........
	139	1.86667	9.65883E-001	9.10668E-005	0.00000E+000	8.79599E-005	5.39641E-002	9.66076E-001	3.57410E+000	9	...........
	140	1.88	9.67597E-001	9.12835E-005	0.00000E+000	8.83256E-005	5.39641E-002	9.67773E-001	3.57410E+000	9	...........
	141	1.89333	9.69287E-001	9.07584E-005	0.00000E+000	8.79710E-005	5.39641E-002	9.69488E-001	3.57410E+000	9	...........
	142	1.90667	9.70952E-001	9.10189E-005	0.00000E+000	8.83749E-005	5.39641E-002	9.71204E-001	3.57410E+000	9	...........
	143	1.92	9.72691E-001	9.09335E-005	0.00000E+000	8.84501E-005	5.39641E-002	9.72872E-001	3.57410E+000	9	...........
	144	1.93333	9.74334E-001	9.12523E-005	0.00000E+000	8.89102E-005	5.39641E-002	9.74503E-001	3.57410E+000	9	...........
	145	1.94667	9.75966E-001	9.11231E-005	0.00000E+000	8.89330E-005	5.39641E-002	9.76149E-001	3.57410E+000	9	...........
	146	1.96	9.77561E-001	9.12929E-005	0.00000E+000	8.92444E-005	5.39641E-002	9.77751E-001	3.57410E+000	9	...........
	147	1.97333	9.79161E-001	9.11689E-005	0.00000E+000	8.92690E-005	5.39641E-002	9.79349E-001	3.57410E+000	9	...........
	148	1.98667	9.80751E-001	9.09272E-005	0.00000E+000	8.91770E-005	5.39641E-002	9.80945E-001	3.57410E+000	9	...........
	149	2	9.82307E-001	9.08814E-005	0.00000E+000	8.92734E-005	5.39641E-002	9.82514E-001	3.57410E+000	9	...........
	150	2.01333	9.83850E-001	9.10512E-005	0.00000E+000	8.95807E-005	5.39641E-002	9.84062E-001	3.57410E+000	9	...........
	151	2.02667	9.85383E-001	9.12575E-005	0.00000E+000	8.99236E-005	5.39641E-002	9.85608E-001	3.57410E+000	9	...........
	152	2.04	9.86889E-001	9.12023E-005	0.00000E+000	9.00065E-005	5.39641E-002	9.87115E-001	3.57410E+000	9	...........
	153	2.05333	9.88379E-001	9.09209E-005	0.00000E+000	8.98644E-005	5.39641E-002	9.88622E-001	3.57410E+000	9	...........
	154	2.06667	9.89882E-001	9.09522E-005	0.00000E+000	9.00320E-005	5.39641E-002	9.90080E-001	3.57410E+000	9	...........
	155	2.08	9.91329E-001	9.10804E-005	0.00000E+000	9.02906E-005	5.39641E-002	9.91565E-001	3.57410E+000	9	...........
	156	2.09333	9.92771E-001	9.10137E-005	0.00000E+000	9.03557E-005	5.39641E-002	9.92981E-001	3.57410E+000	9	...........
	157	2.10667	9.94199E-001	9.09084E-005	0.00000E+000	9.03811E-005	5.39641E-002	9.94394E-001	3.57410E+000	9	...........
	158	2.12	9.95627E-001	9.10033E-005	0.00000E+000	9.06053E-005	5.39641E-002	9.95827E-001	3.57410E+000	9	...........
	159	2.13333	9.97022E-001	9.11929E-005	0.00000E+000	9.09213E-005	5.39641E-002	9.97245E-001	3.57410E+000	9	...........
	160	2.14667	9.98427E-001	9.09626E-005	0.00000E+000	9.08195E-005	5.39641E-002	9.98627E-001	3.57410E+000	9	...........
	161	2.15667	9.99621E-001	9.11085E-005	0.00000E+000	9.10739E-005	5.39641E-002	9.99846E-001	3.57410E+000	9	...........
STARTTIMEOFFSET	QUANT	3801.011	Start Time Offset (s)
