EXPLAIN
TAG	PWR800_CHARGE
TITLE	LABEL	PWR Cyclic Charge Discharge (Cell) - Charge Step	Test &Identifier
DATE	LABEL	10-7-2017	Date
TIME	LABEL	16:07:55	Time
NOTES	NOTES	3	&Notes...
	supercap test cell
	0.9mg
	6M KOH
PSTAT	PSTAT	IFC5000-01520	Potentiostat
CAPACITY	QUANT	1.00000E-003	Capacity (A-hr)
CELLTYPE	SELECTOR	1	&Cell Type
WORKINGCONNECTION	SELECTOR	0	&Working Lead
MAXCHARGETIME	VARIABLEANDUNITS	1.00000E+002	s	1.00000E+002	second(s)	Max &Charge Time
CHARGECURRENT	QUANT	9.00000E-005	&Charge Current (A) 
VOLTAGEFINISH	TWOPARAM	F	1.00000E-003	3.60000E+003	&Voltage Finish	 I (A) < 	Max Time(s)
SAMPLETIME	QUANT	1.00000E-002	Sa&mple Period (s)
CHARGESTOPAT1	MULTIPARAM	4	1.00000E+000	Charge Stop At &1	Voltage > Limit	V
CHARGESTOPAT2	MULTIPARAM	0	0.00000E+000	Charge Stop At &2	None	N/A
AESBHCSELECTOR	TOGGLE	F	Save Both Half Cells
IRCOMP	TOGGLE	F	IR &Measure
EOC	QUANT	0	Open Circuit (V)
SEQUENCER	TOGGLE	TRUE	Run as Sequence
PSTATMODEL	IQUANT	53	Pstat Model
PSTATSECTION	LABEL	IFC5000-01520	Pstat Section
PSTATSERIALNO	LABEL	01520	Pstat Serial Number
CTRLMODE	IQUANT	0	Control Mode
ELECTROMETER	IQUANT	1	RE=0 or CS=1
IESTAB	IQUANT	0	I/E Stability
CASPEED	IQUANT	4	Control Amp Speed
CONVENTION	IQUANT	1	Current Convention
ICHRANGE	IQUANT	2	Ich Range
ICHRANGEMODE	TOGGLE	T	Ich Auto Range
ICHOFFSETENABLE	TOGGLE	F	Ich Offset Enable
ICHOFFSET	QUANT	0	Ich Offset (V)
ICHFILTER	IQUANT	1	Ich Filter
VCHRANGE	IQUANT	2	Vch Range
VCHRANGEMODE	TOGGLE	T	Vch Auto Range
VCHOFFSETENABLE	TOGGLE	F	Vch Offset Enable
VCHOFFSET	QUANT	0	Vch Offset (V)
VCHFILTER	IQUANT	1	Vch Filter
IERANGELOWERLIMIT	IQUANT	9	I/E Range Lower Limit
IERANGEMODE	TOGGLE	F	I/E AutoRange
IERANGE	IQUANT	9	I/E Range
ACHSELECT	IQUANT	1	Ach Select
ACHRANGE	IQUANT	2	Ach Range
ACHOFFSETENABLE	TOGGLE	F	Ach Offset Enable
ACHOFFSET	QUANT	0	Ach Offset (V)
ACHFILTER	IQUANT	1	Ach Filter
CABLEID	IQUANT	14	Cable ID
DCCALDATE	LABEL	5-7-2017	DC Calibration Date
ACCALDATE	LABEL	12/3/2015	AC Calibration Date
FRAMEWORKVERSION	QUANT	7.01	Framework Version
INSTRUMENTVERSION	LABEL	4.00	Instrument Version
CURVE	TABLE	163
	Pt	T	Vf	Im	Vu	Pwr	Sig	Ach	Temp	IERange	Over
	#	s	V	A	V	W	V	V	deg C	#	bits
	0	0.013333	2.72687E-001	9.10481E-005	0.00000E+000	2.48277E-005	5.39641E-002	2.72730E-001	3.57300E+000	9	...........
	1	0.026667	2.92288E-001	9.09043E-005	0.00000E+000	2.65702E-005	5.39641E-002	2.92326E-001	3.57300E+000	9	...........
	2	0.04	3.10657E-001	9.09314E-005	0.00000E+000	2.82485E-005	5.39641E-002	3.10697E-001	3.57300E+000	9	...........
	3	0.053333	3.27966E-001	9.09960E-005	0.00000E+000	2.98435E-005	5.39641E-002	3.28006E-001	3.57300E+000	9	...........
	4	0.066667	3.44330E-001	9.09480E-005	0.00000E+000	3.13162E-005	5.39641E-002	3.44375E-001	3.57300E+000	9	...........
	5	0.08	3.59836E-001	9.08230E-005	0.00000E+000	3.26814E-005	5.39641E-002	3.59886E-001	3.57300E+000	9	...........
	6	0.093333	3.74578E-001	9.12075E-005	0.00000E+000	3.41643E-005	5.39641E-002	3.74624E-001	3.57300E+000	9	...........
	7	0.106667	3.88614E-001	9.07220E-005	0.00000E+000	3.52558E-005	5.39641E-002	3.88663E-001	3.57300E+000	9	...........
	8	0.12	4.02021E-001	9.08355E-005	0.00000E+000	3.65178E-005	5.39641E-002	4.02074E-001	3.57300E+000	9	...........
	9	0.133333	4.14837E-001	9.09960E-005	0.00000E+000	3.77485E-005	5.39641E-002	4.14887E-001	3.57300E+000	9	...........
	10	0.146667	4.27106E-001	9.11710E-005	0.00000E+000	3.89397E-005	5.39641E-002	4.27160E-001	3.57300E+000	9	...........
	11	0.16	4.38882E-001	9.06042E-005	0.00000E+000	3.97646E-005	5.39641E-002	4.38940E-001	3.57300E+000	9	...........
	12	0.173333	4.50205E-001	9.08241E-005	0.00000E+000	4.08895E-005	5.39641E-002	4.50265E-001	3.57300E+000	9	...........
	13	0.186667	4.61100E-001	9.09137E-005	0.00000E+000	4.19203E-005	5.39641E-002	4.61162E-001	3.57300E+000	9	...........
	14	0.2	4.71594E-001	9.11189E-005	0.00000E+000	4.29711E-005	5.39641E-002	4.71653E-001	3.57300E+000	9	...........
	15	0.213333	4.81708E-001	9.10658E-005	0.00000E+000	4.38671E-005	5.39641E-002	4.81774E-001	3.57300E+000	9	...........
	16	0.226667	4.91483E-001	9.09105E-005	0.00000E+000	4.46810E-005	5.39641E-002	4.91552E-001	3.57300E+000	9	...........
	17	0.24	5.00927E-001	9.11304E-005	0.00000E+000	4.56497E-005	5.39641E-002	5.00998E-001	3.57300E+000	9	...........
	18	0.253333	5.10065E-001	9.09720E-005	0.00000E+000	4.64016E-005	5.39641E-002	5.10142E-001	3.57300E+000	9	...........
	19	0.266667	5.18920E-001	9.08970E-005	0.00000E+000	4.71683E-005	5.39641E-002	5.18993E-001	3.57300E+000	9	...........
	20	0.28	5.27519E-001	9.10439E-005	0.00000E+000	4.80274E-005	5.39641E-002	5.27593E-001	3.57300E+000	9	...........
	21	0.293333	5.35797E-001	9.11189E-005	0.00000E+000	4.88213E-005	5.39641E-002	5.35894E-001	3.57300E+000	9	...........
	22	0.306667	5.43911E-001	9.08272E-005	0.00000E+000	4.94019E-005	5.39641E-002	5.44006E-001	3.57300E+000	9	...........
	23	0.32	5.51825E-001	9.09564E-005	0.00000E+000	5.01920E-005	5.39641E-002	5.51937E-001	3.57300E+000	9	...........
	24	0.333333	5.59511E-001	9.10481E-005	0.00000E+000	5.09424E-005	5.39641E-002	5.59620E-001	3.57300E+000	9	...........
	25	0.346667	5.67041E-001	9.09532E-005	0.00000E+000	5.15742E-005	5.39641E-002	5.67112E-001	3.57300E+000	9	...........
	26	0.36	5.74337E-001	9.08605E-005	0.00000E+000	5.21846E-005	5.39641E-002	5.74397E-001	3.57300E+000	9	...........
	27	0.373333	5.81430E-001	9.11668E-005	0.00000E+000	5.30071E-005	5.39641E-002	5.81513E-001	3.57300E+000	9	...........
	28	0.386667	5.88373E-001	9.10960E-005	0.00000E+000	5.35984E-005	5.39641E-002	5.88481E-001	3.57300E+000	9	...........
	29	0.4	5.95150E-001	9.08782E-005	0.00000E+000	5.40862E-005	5.39641E-002	5.95262E-001	3.57300E+000	9	...........
	30	0.413333	6.01756E-001	9.12023E-005	0.00000E+000	5.48815E-005	5.39641E-002	6.01881E-001	3.57300E+000	9	...........
	31	0.426667	6.08192E-001	9.08376E-005	0.00000E+000	5.52467E-005	5.39641E-002	6.08326E-001	3.57300E+000	9	...........
	32	0.44	6.14547E-001	9.09564E-005	0.00000E+000	5.58970E-005	5.39641E-002	6.14683E-001	3.57300E+000	9	...........
	33	0.453333	6.20775E-001	9.08407E-005	0.00000E+000	5.63916E-005	5.39641E-002	6.20861E-001	3.57300E+000	9	...........
	34	0.466667	6.26829E-001	9.10137E-005	0.00000E+000	5.70500E-005	5.39641E-002	6.26924E-001	3.57300E+000	9	...........
	35	0.48	6.32762E-001	9.10762E-005	0.00000E+000	5.76295E-005	5.39641E-002	6.32869E-001	3.57300E+000	9	...........
	36	0.493333	6.38579E-001	9.10960E-005	0.00000E+000	5.81720E-005	5.39641E-002	6.38727E-001	3.57300E+000	9	...........
	37	0.506667	6.44313E-001	9.13617E-005	0.00000E+000	5.88655E-005	5.39641E-002	6.44451E-001	3.57300E+000	9	...........
	38	0.52	6.49929E-001	9.10428E-005	0.00000E+000	5.91714E-005	5.39641E-002	6.50061E-001	3.57300E+000	9	...........
	39	0.533333	6.55451E-001	9.10106E-005	0.00000E+000	5.96530E-005	5.39641E-002	6.55566E-001	3.57300E+000	9	...........
	40	0.546667	6.60861E-001	9.10043E-005	0.00000E+000	6.01412E-005	5.39641E-002	6.60952E-001	3.57300E+000	9	...........
	41	0.56	6.66183E-001	9.10053E-005	0.00000E+000	6.06262E-005	5.39641E-002	6.66288E-001	3.57300E+000	9	...........
	42	0.573333	6.71400E-001	9.09230E-005	0.00000E+000	6.10457E-005	5.39641E-002	6.71527E-001	3.57300E+000	9	...........
	43	0.586667	6.76561E-001	9.10439E-005	0.00000E+000	6.15968E-005	5.39641E-002	6.76675E-001	3.57300E+000	9	...........
	44	0.6	6.81621E-001	9.10970E-005	0.00000E+000	6.20936E-005	5.39641E-002	6.81708E-001	3.57300E+000	9	...........
	45	0.613333	6.86603E-001	9.09824E-005	0.00000E+000	6.24688E-005	5.39641E-002	6.86695E-001	3.57300E+000	9	...........
	46	0.626667	6.91497E-001	9.08876E-005	0.00000E+000	6.28485E-005	5.39641E-002	6.91587E-001	3.57300E+000	9	...........
	47	0.64	6.96300E-001	9.12054E-005	0.00000E+000	6.35063E-005	5.39641E-002	6.96402E-001	3.57300E+000	9	...........
	48	0.653333	7.01017E-001	9.10491E-005	0.00000E+000	6.38269E-005	5.39641E-002	7.01130E-001	3.57300E+000	9	...........
	49	0.666667	7.05671E-001	9.09314E-005	0.00000E+000	6.41676E-005	5.39641E-002	7.05779E-001	3.57300E+000	9	...........
	50	0.68	7.10224E-001	9.09564E-005	0.00000E+000	6.45994E-005	5.39641E-002	7.10360E-001	3.57300E+000	9	...........
	51	0.693333	7.14749E-001	9.11981E-005	0.00000E+000	6.51838E-005	5.39641E-002	7.14903E-001	3.57300E+000	9	...........
	52	0.706667	7.19282E-001	9.13210E-005	0.00000E+000	6.56856E-005	5.39641E-002	7.19380E-001	3.57300E+000	9	...........
	53	0.72	7.23674E-001	9.11481E-005	0.00000E+000	6.59615E-005	5.39641E-002	7.23780E-001	3.57300E+000	9	...........
	54	0.733333	7.27983E-001	9.10751E-005	0.00000E+000	6.63012E-005	5.39641E-002	7.28101E-001	3.57300E+000	9	...........
	55	0.746667	7.32255E-001	9.11731E-005	0.00000E+000	6.67619E-005	5.39641E-002	7.32374E-001	3.57300E+000	9	...........
	56	0.76	7.36436E-001	9.07355E-005	0.00000E+000	6.68209E-005	5.39641E-002	7.36570E-001	3.57300E+000	9	...........
	57	0.773333	7.40584E-001	9.08574E-005	0.00000E+000	6.72875E-005	5.39641E-002	7.40723E-001	3.57300E+000	9	...........
	58	0.786667	7.44713E-001	9.10231E-005	0.00000E+000	6.77860E-005	5.39641E-002	7.44838E-001	3.57300E+000	9	...........
	59	0.8	7.48772E-001	9.09522E-005	0.00000E+000	6.81025E-005	5.39641E-002	7.48887E-001	3.57300E+000	9	...........
	60	0.813333	7.52788E-001	9.09168E-005	0.00000E+000	6.84411E-005	5.39641E-002	7.52914E-001	3.57300E+000	9	...........
	61	0.826667	7.56785E-001	9.09866E-005	0.00000E+000	6.88573E-005	5.39641E-002	7.56919E-001	3.57300E+000	9	...........
	62	0.84	7.60696E-001	9.12054E-005	0.00000E+000	6.93796E-005	5.39641E-002	7.60837E-001	3.57300E+000	9	...........
	63	0.853333	7.64555E-001	9.09668E-005	0.00000E+000	6.95491E-005	5.39641E-002	7.64706E-001	3.57300E+000	9	...........
	64	0.866667	7.68384E-001	9.07511E-005	0.00000E+000	6.97317E-005	5.39641E-002	7.68584E-001	3.57300E+000	9	...........
	65	0.88	7.72204E-001	9.09116E-005	0.00000E+000	7.02023E-005	5.39641E-002	7.72335E-001	3.57300E+000	9	...........
	66	0.893333	7.75941E-001	9.09147E-005	0.00000E+000	7.05444E-005	5.39641E-002	7.76070E-001	3.57300E+000	9	...........
	67	0.906667	7.79648E-001	9.10012E-005	0.00000E+000	7.09489E-005	5.39641E-002	7.79799E-001	3.57300E+000	9	...........
	68	0.92	7.83313E-001	9.10981E-005	0.00000E+000	7.13584E-005	5.39641E-002	7.83462E-001	3.57300E+000	9	...........
	69	0.933333	7.86912E-001	9.09220E-005	0.00000E+000	7.15476E-005	5.39641E-002	7.87066E-001	3.57300E+000	9	...........
	70	0.946667	7.90457E-001	9.10168E-005	0.00000E+000	7.19449E-005	5.39641E-002	7.90599E-001	3.57300E+000	9	...........
	71	0.96	7.94009E-001	9.09647E-005	0.00000E+000	7.22268E-005	5.39641E-002	7.94164E-001	3.57300E+000	9	...........
	72	0.97333	7.97475E-001	9.11345E-005	0.00000E+000	7.26775E-005	5.39641E-002	7.97624E-001	3.57300E+000	9	...........
	73	0.98667	8.00945E-001	9.10199E-005	0.00000E+000	7.29020E-005	5.39641E-002	8.01084E-001	3.57300E+000	9	...........
	74	1	8.04360E-001	9.08793E-005	0.00000E+000	7.30997E-005	5.39641E-002	8.04503E-001	3.57300E+000	9	...........
	75	1.01333	8.07764E-001	9.09532E-005	0.00000E+000	7.34687E-005	5.39641E-002	8.07896E-001	3.57300E+000	9	...........
	76	1.02667	8.11102E-001	9.08897E-005	0.00000E+000	7.37209E-005	5.39641E-002	8.11241E-001	3.57300E+000	9	...........
	77	1.04	8.14397E-001	9.09918E-005	0.00000E+000	7.41035E-005	5.39641E-002	8.14552E-001	3.57300E+000	9	...........
	78	1.05333	8.17677E-001	9.10460E-005	0.00000E+000	7.44462E-005	5.39641E-002	8.17825E-001	3.57300E+000	9	...........
	79	1.06667	8.20931E-001	9.10053E-005	0.00000E+000	7.47091E-005	5.39641E-002	8.21105E-001	3.57300E+000	9	...........
	80	1.08	8.24121E-001	9.12314E-005	0.00000E+000	7.51857E-005	5.39641E-002	8.24297E-001	3.57300E+000	9	...........
	81	1.09333	8.27300E-001	9.10085E-005	0.00000E+000	7.52913E-005	5.39641E-002	8.27438E-001	3.57300E+000	9	...........
	82	1.10667	8.30423E-001	9.09074E-005	0.00000E+000	7.54916E-005	5.39641E-002	8.30570E-001	3.57300E+000	9	...........
	83	1.12	8.33531E-001	9.10210E-005	0.00000E+000	7.58688E-005	5.39641E-002	8.33703E-001	3.57300E+000	9	...........
	84	1.13333	8.36589E-001	9.09856E-005	0.00000E+000	7.61175E-005	5.39641E-002	8.36771E-001	3.57300E+000	9	...........
	85	1.14667	8.39632E-001	9.08762E-005	0.00000E+000	7.63025E-005	5.39641E-002	8.39797E-001	3.57300E+000	9	...........
	86	1.16	8.42638E-001	9.09730E-005	0.00000E+000	7.66573E-005	5.39641E-002	8.42821E-001	3.57300E+000	9	...........
	87	1.17333	8.45663E-001	9.09668E-005	0.00000E+000	7.69272E-005	5.39641E-002	8.45838E-001	3.57300E+000	9	...........
	88	1.18667	8.48606E-001	9.10501E-005	0.00000E+000	7.72657E-005	5.39641E-002	8.48792E-001	3.57300E+000	9	...........
	89	1.2	8.51536E-001	9.07522E-005	0.00000E+000	7.72788E-005	5.39641E-002	8.51702E-001	3.57300E+000	9	...........
	90	1.21333	8.54441E-001	9.09678E-005	0.00000E+000	7.77266E-005	5.39641E-002	8.54617E-001	3.57300E+000	9	...........
	91	1.22667	8.57313E-001	9.10022E-005	0.00000E+000	7.80174E-005	5.39641E-002	8.57531E-001	3.57300E+000	9	...........
	92	1.24	8.60184E-001	9.11366E-005	0.00000E+000	7.83943E-005	5.39641E-002	8.60383E-001	3.57300E+000	9	...........
	93	1.25333	8.63010E-001	9.09449E-005	0.00000E+000	7.84864E-005	5.39641E-002	8.63202E-001	3.57300E+000	9	...........
	94	1.26667	8.65805E-001	9.10408E-005	0.00000E+000	7.88236E-005	5.39641E-002	8.66002E-001	3.57300E+000	9	...........
	95	1.28	8.68572E-001	9.09876E-005	0.00000E+000	7.90293E-005	5.39641E-002	8.68778E-001	3.57300E+000	9	...........
	96	1.29333	8.71326E-001	9.08793E-005	0.00000E+000	7.91855E-005	5.39641E-002	8.71512E-001	3.57300E+000	9	...........
	97	1.30667	8.74009E-001	9.07897E-005	0.00000E+000	7.93510E-005	5.39641E-002	8.74223E-001	3.57300E+000	9	...........
	98	1.32	8.76673E-001	9.08564E-005	0.00000E+000	7.96513E-005	5.39641E-002	8.76877E-001	3.57300E+000	9	...........
	99	1.33333	8.79320E-001	9.10064E-005	0.00000E+000	8.00237E-005	5.39641E-002	8.79513E-001	3.57300E+000	9	...........
	100	1.34667	8.81925E-001	9.10845E-005	0.00000E+000	8.03297E-005	5.39641E-002	8.82136E-001	3.57300E+000	9	...........
	101	1.36	8.84508E-001	9.07532E-005	0.00000E+000	8.02720E-005	5.39641E-002	8.84708E-001	3.57300E+000	9	...........
	102	1.37333	8.87044E-001	9.12168E-005	0.00000E+000	8.09134E-005	5.39641E-002	8.87252E-001	3.57300E+000	9	...........
	103	1.38667	8.89591E-001	9.07303E-005	0.00000E+000	8.07129E-005	5.39641E-002	8.89771E-001	3.57300E+000	9	...........
	104	1.4	8.92092E-001	9.09751E-005	0.00000E+000	8.11582E-005	5.39641E-002	8.92288E-001	3.57300E+000	9	...........
	105	1.41333	8.94575E-001	9.08855E-005	0.00000E+000	8.13039E-005	5.39641E-002	8.94779E-001	3.57300E+000	9	...........
	106	1.42667	8.97062E-001	9.10616E-005	0.00000E+000	8.16879E-005	5.39641E-002	8.97250E-001	3.57300E+000	9	...........
	107	1.44	8.99470E-001	9.13679E-005	0.00000E+000	8.21827E-005	5.39641E-002	8.99663E-001	3.57300E+000	9	...........
	108	1.45333	9.01861E-001	9.10606E-005	0.00000E+000	8.21240E-005	5.39641E-002	9.02082E-001	3.57300E+000	9	...........
	109	1.46667	9.04244E-001	9.09064E-005	0.00000E+000	8.22016E-005	5.39641E-002	9.04434E-001	3.57300E+000	9	...........
	110	1.48	9.06570E-001	9.11481E-005	0.00000E+000	8.26321E-005	5.39641E-002	9.06769E-001	3.57300E+000	9	...........
	111	1.49333	9.08940E-001	9.08668E-005	0.00000E+000	8.25924E-005	5.39641E-002	9.09122E-001	3.57300E+000	9	...........
	112	1.50667	9.11231E-001	9.09272E-005	0.00000E+000	8.28557E-005	5.39641E-002	9.11398E-001	3.57300E+000	9	...........
	113	1.52	9.13504E-001	9.12252E-005	0.00000E+000	8.33346E-005	5.39641E-002	9.13689E-001	3.57300E+000	9	...........
	114	1.53333	9.15767E-001	9.09064E-005	0.00000E+000	8.32491E-005	5.39641E-002	9.15969E-001	3.57300E+000	9	...........
	115	1.54667	9.17964E-001	9.09730E-005	0.00000E+000	8.35100E-005	5.39641E-002	9.18185E-001	3.57300E+000	9	...........
	116	1.56	9.20217E-001	9.11564E-005	0.00000E+000	8.38836E-005	5.39641E-002	9.20403E-001	3.57300E+000	9	...........
	117	1.57333	9.22427E-001	9.08105E-005	0.00000E+000	8.37661E-005	5.39641E-002	9.22603E-001	3.57300E+000	9	...........
	118	1.58667	9.24601E-001	9.10397E-005	0.00000E+000	8.41754E-005	5.39641E-002	9.24769E-001	3.57300E+000	9	...........
	119	1.6	9.26724E-001	9.08293E-005	0.00000E+000	8.41737E-005	5.39641E-002	9.26915E-001	3.57300E+000	9	...........
	120	1.61333	9.28843E-001	9.12116E-005	0.00000E+000	8.47213E-005	5.39641E-002	9.29012E-001	3.57300E+000	9	...........
	121	1.62667	9.30924E-001	9.10533E-005	0.00000E+000	8.47637E-005	5.39641E-002	9.31080E-001	3.57300E+000	9	...........
	122	1.64	9.32995E-001	9.10543E-005	0.00000E+000	8.49532E-005	5.39641E-002	9.33180E-001	3.57300E+000	9	...........
	123	1.65333	9.35053E-001	9.10449E-005	0.00000E+000	8.51319E-005	5.39641E-002	9.35220E-001	3.57300E+000	9	...........
	124	1.66667	9.37088E-001	9.11179E-005	0.00000E+000	8.53854E-005	5.39641E-002	9.37259E-001	3.57300E+000	9	...........
	125	1.68	9.39055E-001	9.10751E-005	0.00000E+000	8.55245E-005	5.39641E-002	9.39266E-001	3.57300E+000	9	...........
	126	1.69333	9.41044E-001	9.10251E-005	0.00000E+000	8.56587E-005	5.39641E-002	9.41225E-001	3.57300E+000	9	...........
	127	1.70667	9.43005E-001	9.10387E-005	0.00000E+000	8.58499E-005	5.39641E-002	9.43183E-001	3.57300E+000	9	...........
	128	1.72	9.44944E-001	9.10064E-005	0.00000E+000	8.59960E-005	5.39641E-002	9.45140E-001	3.57300E+000	9	...........
	129	1.73333	9.46903E-001	9.08105E-005	0.00000E+000	8.59887E-005	5.39641E-002	9.47071E-001	3.57300E+000	9	...........
	130	1.74667	9.48797E-001	9.10814E-005	0.00000E+000	8.64178E-005	5.39641E-002	9.49000E-001	3.57300E+000	9	...........
	131	1.76	9.50690E-001	9.10272E-005	0.00000E+000	8.65387E-005	5.39641E-002	9.50903E-001	3.57300E+000	9	...........
	132	1.77333	9.52555E-001	9.10064E-005	0.00000E+000	8.66886E-005	5.39641E-002	9.52760E-001	3.57300E+000	9	...........
	133	1.78667	9.54379E-001	9.10658E-005	0.00000E+000	8.69113E-005	5.39641E-002	9.54569E-001	3.57300E+000	9	...........
	134	1.8	9.56194E-001	9.10376E-005	0.00000E+000	8.70496E-005	5.39641E-002	9.56368E-001	3.57300E+000	9	...........
	135	1.81333	9.57992E-001	9.08772E-005	0.00000E+000	8.70596E-005	5.39641E-002	9.58229E-001	3.57300E+000	9	...........
	136	1.82667	9.59811E-001	9.10251E-005	0.00000E+000	8.73669E-005	5.39641E-002	9.60010E-001	3.57300E+000	9	...........
	137	1.84	9.61574E-001	9.07334E-005	0.00000E+000	8.72469E-005	5.39641E-002	9.61770E-001	3.57300E+000	9	...........
	138	1.85333	9.63317E-001	9.10106E-005	0.00000E+000	8.76721E-005	5.39641E-002	9.63501E-001	3.57300E+000	9	...........
	139	1.86667	9.65031E-001	9.09512E-005	0.00000E+000	8.77707E-005	5.39641E-002	9.65196E-001	3.57300E+000	9	...........
	140	1.88	9.66737E-001	9.07782E-005	0.00000E+000	8.77587E-005	5.39641E-002	9.66898E-001	3.57300E+000	9	...........
	141	1.89333	9.68432E-001	9.08001E-005	0.00000E+000	8.79337E-005	5.39641E-002	9.68610E-001	3.57300E+000	9	...........
	142	1.90667	9.70090E-001	9.08907E-005	0.00000E+000	8.81722E-005	5.39641E-002	9.70299E-001	3.57300E+000	9	...........
	143	1.92	9.71744E-001	9.11981E-005	0.00000E+000	8.86212E-005	5.39641E-002	9.71965E-001	3.57300E+000	9	...........
	144	1.93333	9.73440E-001	9.09157E-005	0.00000E+000	8.85010E-005	5.39641E-002	9.73629E-001	3.57300E+000	9	...........
	145	1.94667	9.75039E-001	9.11293E-005	0.00000E+000	8.88547E-005	5.39641E-002	9.75205E-001	3.57300E+000	9	...........
	146	1.96	9.76642E-001	9.10824E-005	0.00000E+000	8.89550E-005	5.39641E-002	9.76821E-001	3.57300E+000	9	...........
	147	1.97333	9.78199E-001	9.12814E-005	0.00000E+000	8.92914E-005	5.39641E-002	9.78388E-001	3.57278E+000	9	...........
	148	1.98667	9.79750E-001	9.09668E-005	0.00000E+000	8.91247E-005	5.39641E-002	9.79941E-001	3.57270E+000	9	...........
	149	2	9.81289E-001	9.11523E-005	0.00000E+000	8.94467E-005	5.39641E-002	9.81470E-001	3.57270E+000	9	...........
	150	2.01333	9.82802E-001	9.08251E-005	0.00000E+000	8.92631E-005	5.39641E-002	9.82989E-001	3.57270E+000	9	...........
	151	2.02667	9.84288E-001	9.11210E-005	0.00000E+000	8.96893E-005	5.39641E-002	9.84514E-001	3.57270E+000	9	...........
	152	2.04	9.85770E-001	9.10574E-005	0.00000E+000	8.97616E-005	5.39641E-002	9.86007E-001	3.57270E+000	9	...........
	153	2.05333	9.87241E-001	9.10866E-005	0.00000E+000	8.99245E-005	5.39641E-002	9.87470E-001	3.57270E+000	9	...........
	154	2.06667	9.88706E-001	9.09991E-005	0.00000E+000	8.99713E-005	5.39641E-002	9.88926E-001	3.57270E+000	9	...........
	155	2.08	9.90159E-001	9.10720E-005	0.00000E+000	9.01758E-005	5.39641E-002	9.90377E-001	3.57270E+000	9	...........
	156	2.09333	9.91595E-001	9.11366E-005	0.00000E+000	9.03707E-005	5.39641E-002	9.91805E-001	3.57270E+000	9	...........
	157	2.10667	9.92976E-001	9.11470E-005	0.00000E+000	9.05068E-005	5.39641E-002	9.93220E-001	3.57270E+000	9	...........
	158	2.12	9.94395E-001	9.08699E-005	0.00000E+000	9.03606E-005	5.39641E-002	9.94616E-001	3.57270E+000	9	...........
	159	2.13333	9.95782E-001	9.10835E-005	0.00000E+000	9.06993E-005	5.39641E-002	9.96007E-001	3.57270E+000	9	...........
	160	2.14667	9.97176E-001	9.10845E-005	0.00000E+000	9.08273E-005	5.39641E-002	9.97422E-001	3.57270E+000	9	...........
	161	2.16	9.98562E-001	9.11356E-005	0.00000E+000	9.10045E-005	5.39641E-002	9.98815E-001	3.57270E+000	9	...........
	162	2.17	9.99734E-001	9.09501E-005	0.00000E+000	9.09260E-005	5.39641E-002	9.99992E-001	3.57270E+000	9	...........
STARTTIMEOFFSET	QUANT	3459.254	Start Time Offset (s)
