EXPLAIN
TAG	PWR800_CHARGE
TITLE	LABEL	PWR Cyclic Charge Discharge (Cell) - Charge Step	Test &Identifier
DATE	LABEL	10-7-2017	Date
TIME	LABEL	15:25:52	Time
NOTES	NOTES	3	&Notes...
	supercap test cell
	0.9mg
	6M KOH
PSTAT	PSTAT	IFC5000-01520	Potentiostat
CAPACITY	QUANT	1.00000E-003	Capacity (A-hr)
CELLTYPE	SELECTOR	1	&Cell Type
WORKINGCONNECTION	SELECTOR	0	&Working Lead
MAXCHARGETIME	VARIABLEANDUNITS	1.00000E+002	s	1.00000E+002	second(s)	Max &Charge Time
CHARGECURRENT	QUANT	9.00000E-005	&Charge Current (A) 
VOLTAGEFINISH	TWOPARAM	F	1.00000E-003	3.60000E+003	&Voltage Finish	 I (A) < 	Max Time(s)
SAMPLETIME	QUANT	1.00000E-002	Sa&mple Period (s)
CHARGESTOPAT1	MULTIPARAM	4	1.00000E+000	Charge Stop At &1	Voltage > Limit	V
CHARGESTOPAT2	MULTIPARAM	0	0.00000E+000	Charge Stop At &2	None	N/A
AESBHCSELECTOR	TOGGLE	F	Save Both Half Cells
IRCOMP	TOGGLE	F	IR &Measure
EOC	QUANT	0	Open Circuit (V)
SEQUENCER	TOGGLE	TRUE	Run as Sequence
PSTATMODEL	IQUANT	53	Pstat Model
PSTATSECTION	LABEL	IFC5000-01520	Pstat Section
PSTATSERIALNO	LABEL	01520	Pstat Serial Number
CTRLMODE	IQUANT	0	Control Mode
ELECTROMETER	IQUANT	1	RE=0 or CS=1
IESTAB	IQUANT	0	I/E Stability
CASPEED	IQUANT	4	Control Amp Speed
CONVENTION	IQUANT	1	Current Convention
ICHRANGE	IQUANT	2	Ich Range
ICHRANGEMODE	TOGGLE	T	Ich Auto Range
ICHOFFSETENABLE	TOGGLE	F	Ich Offset Enable
ICHOFFSET	QUANT	0	Ich Offset (V)
ICHFILTER	IQUANT	1	Ich Filter
VCHRANGE	IQUANT	2	Vch Range
VCHRANGEMODE	TOGGLE	T	Vch Auto Range
VCHOFFSETENABLE	TOGGLE	F	Vch Offset Enable
VCHOFFSET	QUANT	0	Vch Offset (V)
VCHFILTER	IQUANT	1	Vch Filter
IERANGELOWERLIMIT	IQUANT	9	I/E Range Lower Limit
IERANGEMODE	TOGGLE	F	I/E AutoRange
IERANGE	IQUANT	9	I/E Range
ACHSELECT	IQUANT	1	Ach Select
ACHRANGE	IQUANT	2	Ach Range
ACHOFFSETENABLE	TOGGLE	F	Ach Offset Enable
ACHOFFSET	QUANT	0	Ach Offset (V)
ACHFILTER	IQUANT	1	Ach Filter
CABLEID	IQUANT	14	Cable ID
DCCALDATE	LABEL	5-7-2017	DC Calibration Date
ACCALDATE	LABEL	12/3/2015	AC Calibration Date
FRAMEWORKVERSION	QUANT	7.01	Framework Version
INSTRUMENTVERSION	LABEL	4.00	Instrument Version
CURVE	TABLE	175
	Pt	T	Vf	Im	Vu	Pwr	Sig	Ach	Temp	IERange	Over
	#	s	V	A	V	W	V	V	deg C	#	bits
	0	0.013333	2.80796E-001	9.09553E-005	0.00000E+000	2.55399E-005	5.39641E-002	2.80847E-001	3.57310E+000	9	...........
	1	0.026667	3.00329E-001	9.09418E-005	0.00000E+000	2.73124E-005	5.39641E-002	3.00365E-001	3.57310E+000	9	...........
	2	0.04	3.18447E-001	9.09012E-005	0.00000E+000	2.89472E-005	5.39641E-002	3.18489E-001	3.57310E+000	9	...........
	3	0.053333	3.35376E-001	9.10210E-005	0.00000E+000	3.05263E-005	5.39641E-002	3.35420E-001	3.57310E+000	9	...........
	4	0.066667	3.51303E-001	9.09762E-005	0.00000E+000	3.19602E-005	5.39641E-002	3.51344E-001	3.57310E+000	9	...........
	5	0.08	3.66338E-001	9.09230E-005	0.00000E+000	3.33085E-005	5.39641E-002	3.66387E-001	3.57310E+000	9	...........
	6	0.093333	3.80596E-001	9.07428E-005	0.00000E+000	3.45363E-005	5.39641E-002	3.80642E-001	3.57310E+000	9	...........
	7	0.106667	3.94158E-001	9.08397E-005	0.00000E+000	3.58052E-005	5.39641E-002	3.94203E-001	3.57310E+000	9	...........
	8	0.12	4.07082E-001	9.11335E-005	0.00000E+000	3.70988E-005	5.39641E-002	4.07131E-001	3.57310E+000	9	...........
	9	0.133333	4.19431E-001	9.07897E-005	0.00000E+000	3.80800E-005	5.39641E-002	4.19482E-001	3.57310E+000	9	...........
	10	0.146667	4.31273E-001	9.11793E-005	0.00000E+000	3.93232E-005	5.39641E-002	4.31326E-001	3.57310E+000	9	...........
	11	0.16	4.42639E-001	9.11648E-005	0.00000E+000	4.03531E-005	5.39641E-002	4.42691E-001	3.57310E+000	9	...........
	12	0.173333	4.53578E-001	9.10408E-005	0.00000E+000	4.12941E-005	5.39641E-002	4.53631E-001	3.57310E+000	9	...........
	13	0.186667	4.64131E-001	9.09501E-005	0.00000E+000	4.22128E-005	5.39641E-002	4.64189E-001	3.57310E+000	9	...........
	14	0.2	4.74303E-001	9.07397E-005	0.00000E+000	4.30381E-005	5.39641E-002	4.74364E-001	3.57310E+000	9	...........
	15	0.213333	4.84129E-001	9.11783E-005	0.00000E+000	4.41421E-005	5.39641E-002	4.84184E-001	3.57310E+000	9	...........
	16	0.226667	4.93619E-001	9.10793E-005	0.00000E+000	4.49585E-005	5.39641E-002	4.93686E-001	3.57310E+000	9	...........
	17	0.24	5.02826E-001	9.10168E-005	0.00000E+000	4.57656E-005	5.39641E-002	5.02891E-001	3.57310E+000	9	...........
	18	0.253333	5.11739E-001	9.10606E-005	0.00000E+000	4.65992E-005	5.39641E-002	5.11807E-001	3.57310E+000	9	...........
	19	0.266667	5.20382E-001	9.10668E-005	0.00000E+000	4.73895E-005	5.39641E-002	5.20449E-001	3.57310E+000	9	...........
	20	0.28	5.28766E-001	9.10470E-005	0.00000E+000	4.81426E-005	5.39641E-002	5.28829E-001	3.57310E+000	9	...........
	21	0.293333	5.36826E-001	9.08970E-005	0.00000E+000	4.87959E-005	5.39641E-002	5.36917E-001	3.57310E+000	9	...........
	22	0.306667	5.44757E-001	9.10960E-005	0.00000E+000	4.96251E-005	5.39641E-002	5.44859E-001	3.57310E+000	9	...........
	23	0.32	5.52489E-001	9.12731E-005	0.00000E+000	5.04274E-005	5.39641E-002	5.52614E-001	3.57310E+000	9	...........
	24	0.333333	5.60020E-001	9.10845E-005	0.00000E+000	5.10091E-005	5.39641E-002	5.60130E-001	3.57310E+000	9	...........
	25	0.346667	5.67402E-001	9.11595E-005	0.00000E+000	5.17241E-005	5.39641E-002	5.67493E-001	3.57310E+000	9	...........
	26	0.36	5.74512E-001	9.10772E-005	0.00000E+000	5.23250E-005	5.39641E-002	5.74626E-001	3.57310E+000	9	...........
	27	0.373333	5.81498E-001	9.12283E-005	0.00000E+000	5.30490E-005	5.39641E-002	5.81600E-001	3.57310E+000	9	...........
	28	0.386667	5.88331E-001	9.12054E-005	0.00000E+000	5.36590E-005	5.39641E-002	5.88440E-001	3.57310E+000	9	...........
	29	0.4	5.94988E-001	9.12158E-005	0.00000E+000	5.42723E-005	5.39641E-002	5.95086E-001	3.57310E+000	9	...........
	30	0.413333	6.01464E-001	9.10949E-005	0.00000E+000	5.47903E-005	5.39641E-002	6.01591E-001	3.57310E+000	9	...........
	31	0.426667	6.07819E-001	9.09991E-005	0.00000E+000	5.53109E-005	5.39641E-002	6.07948E-001	3.57310E+000	9	...........
	32	0.44	6.14098E-001	9.11116E-005	0.00000E+000	5.59515E-005	5.39641E-002	6.14203E-001	3.57310E+000	9	...........
	33	0.453333	6.20247E-001	9.13377E-005	0.00000E+000	5.66519E-005	5.39641E-002	6.20319E-001	3.57310E+000	9	...........
	34	0.466667	6.26200E-001	9.11637E-005	0.00000E+000	5.70867E-005	5.39641E-002	6.26271E-001	3.57310E+000	9	...........
	35	0.48	6.32023E-001	9.11366E-005	0.00000E+000	5.76004E-005	5.39641E-002	6.32112E-001	3.57287E+000	9	...........
	36	0.493333	6.37748E-001	9.10491E-005	0.00000E+000	5.80664E-005	5.39641E-002	6.37844E-001	3.57280E+000	9	...........
	37	0.506667	6.43393E-001	9.10064E-005	0.00000E+000	5.85529E-005	5.39641E-002	6.43502E-001	3.57280E+000	9	...........
	38	0.52	6.48860E-001	9.11470E-005	0.00000E+000	5.91417E-005	5.39641E-002	6.48974E-001	3.57280E+000	9	...........
	39	0.533333	6.54278E-001	9.11908E-005	0.00000E+000	5.96642E-005	5.39641E-002	6.54401E-001	3.57280E+000	9	...........
	40	0.546667	6.59539E-001	9.12783E-005	0.00000E+000	6.02016E-005	5.39641E-002	6.59659E-001	3.57280E+000	9	...........
	41	0.56	6.64755E-001	9.10064E-005	0.00000E+000	6.04969E-005	5.39641E-002	6.64893E-001	3.57280E+000	9	...........
	42	0.573333	6.69880E-001	9.11293E-005	0.00000E+000	6.10457E-005	5.39641E-002	6.69975E-001	3.57280E+000	9	...........
	43	0.586667	6.74875E-001	9.08189E-005	0.00000E+000	6.12913E-005	5.39641E-002	6.74964E-001	3.57280E+000	9	...........
	44	0.6	6.79830E-001	9.08991E-005	0.00000E+000	6.17959E-005	5.39641E-002	6.79928E-001	3.57280E+000	9	...........
	45	0.613333	6.84675E-001	9.10012E-005	0.00000E+000	6.23062E-005	5.39641E-002	6.84752E-001	3.57280E+000	9	...........
	46	0.626667	6.89445E-001	9.08970E-005	0.00000E+000	6.26685E-005	5.39641E-002	6.89548E-001	3.57280E+000	9	...........
	47	0.64	6.94155E-001	9.10877E-005	0.00000E+000	6.32290E-005	5.39641E-002	6.94239E-001	3.57280E+000	9	...........
	48	0.653333	6.98751E-001	9.08105E-005	0.00000E+000	6.34539E-005	5.39641E-002	6.98883E-001	3.57280E+000	9	...........
	49	0.666667	7.03300E-001	9.11752E-005	0.00000E+000	6.41235E-005	5.39641E-002	7.03423E-001	3.57280E+000	9	...........
	50	0.68	7.07762E-001	9.12846E-005	0.00000E+000	6.46077E-005	5.39641E-002	7.07878E-001	3.57280E+000	9	...........
	51	0.693333	7.12171E-001	9.11335E-005	0.00000E+000	6.49026E-005	5.39641E-002	7.12289E-001	3.57280E+000	9	...........
	52	0.706667	7.16523E-001	9.09178E-005	0.00000E+000	6.51447E-005	5.39641E-002	7.16650E-001	3.57280E+000	9	...........
	53	0.72	7.20825E-001	9.11095E-005	0.00000E+000	6.56741E-005	5.39641E-002	7.20926E-001	3.57280E+000	9	...........
	54	0.733333	7.25053E-001	9.11710E-005	0.00000E+000	6.61038E-005	5.39641E-002	7.25111E-001	3.57280E+000	9	...........
	55	0.746667	7.29182E-001	9.13054E-005	0.00000E+000	6.65783E-005	5.39641E-002	7.29290E-001	3.57280E+000	9	...........
	56	0.76	7.33271E-001	9.11147E-005	0.00000E+000	6.68118E-005	5.39641E-002	7.33386E-001	3.57280E+000	9	...........
	57	0.773333	7.37305E-001	9.12189E-005	0.00000E+000	6.72562E-005	5.39641E-002	7.37440E-001	3.57280E+000	9	...........
	58	0.786667	7.41294E-001	9.11439E-005	0.00000E+000	6.75644E-005	5.39641E-002	7.41424E-001	3.57280E+000	9	...........
	59	0.8	7.45247E-001	9.10585E-005	0.00000E+000	6.78610E-005	5.39641E-002	7.45344E-001	3.57280E+000	9	...........
	60	0.813333	7.49095E-001	9.10574E-005	0.00000E+000	6.82106E-005	5.39641E-002	7.49232E-001	3.57280E+000	9	...........
	61	0.826667	7.52922E-001	9.12283E-005	0.00000E+000	6.86878E-005	5.39641E-002	7.53035E-001	3.57280E+000	9	...........
	62	0.84	7.56682E-001	9.12523E-005	0.00000E+000	6.90490E-005	5.39641E-002	7.56816E-001	3.57280E+000	9	...........
	63	0.853333	7.60376E-001	9.11199E-005	0.00000E+000	6.92854E-005	5.39641E-002	7.60496E-001	3.57280E+000	9	...........
	64	0.866667	7.64015E-001	9.09397E-005	0.00000E+000	6.94793E-005	5.39641E-002	7.64150E-001	3.57280E+000	9	...........
	65	0.88	7.67613E-001	9.13419E-005	0.00000E+000	7.01152E-005	5.39641E-002	7.67786E-001	3.57280E+000	9	...........
	66	0.893333	7.71170E-001	9.07980E-005	0.00000E+000	7.00207E-005	5.39641E-002	7.71335E-001	3.57280E+000	9	...........
	67	0.906667	7.74699E-001	9.08532E-005	0.00000E+000	7.03839E-005	5.39641E-002	7.74860E-001	3.57280E+000	9	...........
	68	0.92	7.78195E-001	9.09605E-005	0.00000E+000	7.07851E-005	5.39641E-002	7.78360E-001	3.57280E+000	9	...........
	69	0.933333	7.81687E-001	9.09105E-005	0.00000E+000	7.10635E-005	5.39641E-002	7.81852E-001	3.57280E+000	9	...........
	70	0.946667	7.85084E-001	9.12085E-005	0.00000E+000	7.16063E-005	5.39641E-002	7.85230E-001	3.57280E+000	9	...........
	71	0.96	7.88463E-001	9.11147E-005	0.00000E+000	7.18406E-005	5.39641E-002	7.88584E-001	3.57280E+000	9	...........
	72	0.97333	7.91798E-001	9.10074E-005	0.00000E+000	7.20595E-005	5.39641E-002	7.91931E-001	3.57280E+000	9	...........
	73	0.98667	7.95139E-001	9.10293E-005	0.00000E+000	7.23810E-005	5.39641E-002	7.95263E-001	3.57280E+000	9	...........
	74	1	7.98408E-001	9.10199E-005	0.00000E+000	7.26710E-005	5.39641E-002	7.98510E-001	3.57280E+000	9	...........
	75	1.01333	8.01619E-001	9.11033E-005	0.00000E+000	7.30301E-005	5.39641E-002	8.01744E-001	3.57280E+000	9	...........
	76	1.02667	8.04763E-001	9.12773E-005	0.00000E+000	7.34565E-005	5.39641E-002	8.04896E-001	3.57280E+000	9	...........
	77	1.04	8.07908E-001	9.10564E-005	0.00000E+000	7.35651E-005	5.39641E-002	8.08031E-001	3.57280E+000	9	...........
	78	1.05333	8.10999E-001	9.10699E-005	0.00000E+000	7.38576E-005	5.39641E-002	8.11141E-001	3.57280E+000	9	...........
	79	1.06667	8.14064E-001	9.10908E-005	0.00000E+000	7.41537E-005	5.39641E-002	8.14215E-001	3.57280E+000	9	...........
	80	1.08	8.17108E-001	9.10554E-005	0.00000E+000	7.44021E-005	5.39641E-002	8.17275E-001	3.57280E+000	9	...........
	81	1.09333	8.20125E-001	9.11908E-005	0.00000E+000	7.47878E-005	5.39641E-002	8.20308E-001	3.57280E+000	9	...........
	82	1.10667	8.23123E-001	9.13356E-005	0.00000E+000	7.51805E-005	5.39641E-002	8.23286E-001	3.57280E+000	9	...........
	83	1.12	8.26064E-001	9.09303E-005	0.00000E+000	7.51143E-005	5.39641E-002	8.26218E-001	3.57280E+000	9	...........
	84	1.13333	8.28960E-001	9.10897E-005	0.00000E+000	7.55098E-005	5.39641E-002	8.29108E-001	3.57280E+000	9	...........
	85	1.14667	8.31844E-001	9.09835E-005	0.00000E+000	7.56840E-005	5.39641E-002	8.32006E-001	3.57280E+000	9	...........
	86	1.16	8.34676E-001	9.11074E-005	0.00000E+000	7.60452E-005	5.39641E-002	8.34831E-001	3.57280E+000	9	...........
	87	1.17333	8.37495E-001	9.12387E-005	0.00000E+000	7.64120E-005	5.39641E-002	8.37660E-001	3.57280E+000	9	...........
	88	1.18667	8.40278E-001	9.09439E-005	0.00000E+000	7.64182E-005	5.39641E-002	8.40442E-001	3.57280E+000	9	...........
	89	1.2	8.43031E-001	9.12575E-005	0.00000E+000	7.69328E-005	5.39641E-002	8.43216E-001	3.57280E+000	9	...........
	90	1.21333	8.45817E-001	9.10877E-005	0.00000E+000	7.70434E-005	5.39641E-002	8.45985E-001	3.57280E+000	9	...........
	91	1.22667	8.48513E-001	9.12221E-005	0.00000E+000	7.74031E-005	5.39641E-002	8.48697E-001	3.57280E+000	9	...........
	92	1.24	8.51200E-001	9.11325E-005	0.00000E+000	7.75719E-005	5.39641E-002	8.51368E-001	3.57280E+000	9	...........
	93	1.25333	8.53864E-001	9.11804E-005	0.00000E+000	7.78557E-005	5.39641E-002	8.54042E-001	3.57280E+000	9	...........
	94	1.26667	8.56482E-001	9.13200E-005	0.00000E+000	7.82139E-005	5.39641E-002	8.56692E-001	3.57280E+000	9	...........
	95	1.28	8.59091E-001	9.10626E-005	0.00000E+000	7.82311E-005	5.39641E-002	8.59291E-001	3.57280E+000	9	...........
	96	1.29333	8.61699E-001	9.12502E-005	0.00000E+000	7.86302E-005	5.39641E-002	8.61874E-001	3.57280E+000	9	...........
	97	1.30667	8.64217E-001	9.11793E-005	0.00000E+000	7.87987E-005	5.39641E-002	8.64406E-001	3.57280E+000	9	...........
	98	1.32	8.66723E-001	9.10335E-005	0.00000E+000	7.89008E-005	5.39641E-002	8.66931E-001	3.57280E+000	9	...........
	99	1.33333	8.69243E-001	9.13002E-005	0.00000E+000	7.93620E-005	5.39641E-002	8.69421E-001	3.57280E+000	9	...........
	100	1.34667	8.71722E-001	9.10303E-005	0.00000E+000	7.93532E-005	5.39641E-002	8.71881E-001	3.57280E+000	9	...........
	101	1.36	8.74152E-001	9.10303E-005	0.00000E+000	7.95744E-005	5.39641E-002	8.74323E-001	3.57280E+000	9	...........
	102	1.37333	8.76572E-001	9.09043E-005	0.00000E+000	7.96841E-005	5.39641E-002	8.76717E-001	3.57280E+000	9	...........
	103	1.38667	8.78932E-001	9.10679E-005	0.00000E+000	8.00425E-005	5.39641E-002	8.79069E-001	3.57280E+000	9	...........
	104	1.4	8.81308E-001	9.10689E-005	0.00000E+000	8.02598E-005	5.39641E-002	8.81431E-001	3.57280E+000	9	...........
	105	1.41333	8.83649E-001	9.09626E-005	0.00000E+000	8.03791E-005	5.39641E-002	8.83797E-001	3.57280E+000	9	...........
	106	1.42667	8.85966E-001	9.09668E-005	0.00000E+000	8.05935E-005	5.39641E-002	8.86079E-001	3.57280E+000	9	...........
	107	1.44	8.88257E-001	9.10303E-005	0.00000E+000	8.08584E-005	5.39641E-002	8.88388E-001	3.57280E+000	9	...........
	108	1.45333	8.90539E-001	9.12502E-005	0.00000E+000	8.12619E-005	5.39641E-002	8.90647E-001	3.57280E+000	9	...........
	109	1.46667	8.92748E-001	9.11543E-005	0.00000E+000	8.13778E-005	5.39641E-002	8.92865E-001	3.57280E+000	9	...........
	110	1.48	8.94936E-001	9.09647E-005	0.00000E+000	8.14076E-005	5.39641E-002	8.95095E-001	3.57235E+000	9	...........
	111	1.49333	8.97147E-001	9.08730E-005	0.00000E+000	8.15264E-005	5.39641E-002	8.97339E-001	3.57220E+000	9	...........
	112	1.50667	8.99346E-001	9.11960E-005	0.00000E+000	8.20168E-005	5.39641E-002	8.99524E-001	3.57220E+000	9	...........
	113	1.52	9.01502E-001	9.10491E-005	0.00000E+000	8.20810E-005	5.39641E-002	9.01694E-001	3.57220E+000	9	...........
	114	1.53333	9.03652E-001	9.12221E-005	0.00000E+000	8.24330E-005	5.39641E-002	9.03849E-001	3.57220E+000	9	...........
	115	1.54667	9.05744E-001	9.10449E-005	0.00000E+000	8.24634E-005	5.39641E-002	9.05963E-001	3.57220E+000	9	...........
	116	1.56	9.07842E-001	9.08824E-005	0.00000E+000	8.25069E-005	5.39641E-002	9.08059E-001	3.57220E+000	9	...........
	117	1.57333	9.09950E-001	9.12085E-005	0.00000E+000	8.29952E-005	5.39641E-002	9.10140E-001	3.57220E+000	9	...........
	118	1.58667	9.11976E-001	9.10324E-005	0.00000E+000	8.30194E-005	5.39641E-002	9.12153E-001	3.57220E+000	9	...........
	119	1.6	9.13968E-001	9.09397E-005	0.00000E+000	8.31160E-005	5.39641E-002	9.14183E-001	3.57220E+000	9	...........
	120	1.61333	9.15994E-001	9.10720E-005	0.00000E+000	8.34214E-005	5.39641E-002	9.16209E-001	3.57220E+000	9	...........
	121	1.62667	9.17977E-001	9.12262E-005	0.00000E+000	8.37436E-005	5.39641E-002	9.18192E-001	3.57220E+000	9	...........
	122	1.64	9.19973E-001	9.11595E-005	0.00000E+000	8.38643E-005	5.39641E-002	9.20157E-001	3.57220E+000	9	...........
	123	1.65333	9.22018E-001	9.12148E-005	0.00000E+000	8.41017E-005	5.39641E-002	9.22150E-001	3.57220E+000	9	...........
	124	1.66667	9.23960E-001	9.11252E-005	0.00000E+000	8.41960E-005	5.39641E-002	9.24112E-001	3.57220E+000	9	...........
	125	1.68	9.25867E-001	9.12679E-005	0.00000E+000	8.45020E-005	5.39641E-002	9.26017E-001	3.57220E+000	9	...........
	126	1.69333	9.27739E-001	9.10303E-005	0.00000E+000	8.44524E-005	5.39641E-002	9.27907E-001	3.57220E+000	9	...........
	127	1.70667	9.29621E-001	9.09345E-005	0.00000E+000	8.45346E-005	5.39641E-002	9.29775E-001	3.57220E+000	9	...........
	128	1.72	9.31497E-001	9.11950E-005	0.00000E+000	8.49478E-005	5.39641E-002	9.31649E-001	3.57220E+000	9	...........
	129	1.73333	9.33338E-001	9.10929E-005	0.00000E+000	8.50204E-005	5.39641E-002	9.33522E-001	3.57220E+000	9	...........
	130	1.74667	9.35167E-001	9.11210E-005	0.00000E+000	8.52134E-005	5.39641E-002	9.35369E-001	3.57220E+000	9	...........
	131	1.76	9.37004E-001	9.13096E-005	0.00000E+000	8.55574E-005	5.39641E-002	9.37194E-001	3.57220E+000	9	...........
	132	1.77333	9.38808E-001	9.08689E-005	0.00000E+000	8.53084E-005	5.39641E-002	9.39016E-001	3.57220E+000	9	...........
	133	1.78667	9.40587E-001	9.09772E-005	0.00000E+000	8.55719E-005	5.39641E-002	9.40776E-001	3.57220E+000	9	...........
	134	1.8	9.42325E-001	9.09345E-005	0.00000E+000	8.56898E-005	5.39641E-002	9.42531E-001	3.57220E+000	9	...........
	135	1.81333	9.44042E-001	9.09803E-005	0.00000E+000	8.58892E-005	5.39641E-002	9.44241E-001	3.57220E+000	9	...........
	136	1.82667	9.45767E-001	9.10522E-005	0.00000E+000	8.61142E-005	5.39641E-002	9.45975E-001	3.57220E+000	9	...........
	137	1.84	9.47540E-001	9.10772E-005	0.00000E+000	8.62994E-005	5.39641E-002	9.47718E-001	3.57220E+000	9	...........
	138	1.85333	9.49195E-001	9.12158E-005	0.00000E+000	8.65816E-005	5.39641E-002	9.49395E-001	3.57220E+000	9	...........
	139	1.86667	9.50870E-001	9.08678E-005	0.00000E+000	8.64035E-005	5.39641E-002	9.51053E-001	3.57220E+000	9	...........
	140	1.88	9.52552E-001	9.12804E-005	0.00000E+000	8.69494E-005	5.39641E-002	9.52751E-001	3.57220E+000	9	...........
	141	1.89333	9.54194E-001	9.10585E-005	0.00000E+000	8.68875E-005	5.39641E-002	9.54369E-001	3.57220E+000	9	...........
	142	1.90667	9.55793E-001	9.10106E-005	0.00000E+000	8.69873E-005	5.39641E-002	9.55976E-001	3.57220E+000	9	...........
	143	1.92	9.57392E-001	9.11845E-005	0.00000E+000	8.72993E-005	5.39641E-002	9.57590E-001	3.57220E+000	9	...........
	144	1.93333	9.58955E-001	9.10137E-005	0.00000E+000	8.72780E-005	5.39641E-002	9.59168E-001	3.57220E+000	9	...........
	145	1.94667	9.60548E-001	9.10991E-005	0.00000E+000	8.75050E-005	5.39641E-002	9.60754E-001	3.57220E+000	9	...........
	146	1.96	9.62085E-001	9.12429E-005	0.00000E+000	8.77834E-005	5.39641E-002	9.62319E-001	3.57220E+000	9	...........
	147	1.97333	9.63638E-001	9.10606E-005	0.00000E+000	8.77494E-005	5.39641E-002	9.63856E-001	3.57220E+000	9	...........
	148	1.98667	9.65187E-001	9.11658E-005	0.00000E+000	8.79920E-005	5.39641E-002	9.65386E-001	3.57220E+000	9	...........
	149	2	9.66730E-001	9.12002E-005	0.00000E+000	8.81660E-005	5.39641E-002	9.66924E-001	3.57220E+000	9	...........
	150	2.01333	9.68217E-001	9.11241E-005	0.00000E+000	8.82279E-005	5.39641E-002	9.68419E-001	3.57220E+000	9	...........
	151	2.02667	9.69702E-001	9.11408E-005	0.00000E+000	8.83794E-005	5.39641E-002	9.69906E-001	3.57220E+000	9	...........
	152	2.04	9.71158E-001	9.10814E-005	0.00000E+000	8.84544E-005	5.39641E-002	9.71390E-001	3.57220E+000	9	...........
	153	2.05333	9.72662E-001	9.09699E-005	0.00000E+000	8.84830E-005	5.39641E-002	9.72861E-001	3.57220E+000	9	...........
	154	2.06667	9.74109E-001	9.11898E-005	0.00000E+000	8.88288E-005	5.39641E-002	9.74293E-001	3.57220E+000	9	...........
	155	2.08	9.75523E-001	9.11825E-005	0.00000E+000	8.89506E-005	5.39641E-002	9.75686E-001	3.57220E+000	9	...........
	156	2.09333	9.76934E-001	9.10335E-005	0.00000E+000	8.89337E-005	5.39641E-002	9.77110E-001	3.57220E+000	9	...........
	157	2.10667	9.78333E-001	9.10845E-005	0.00000E+000	8.91110E-005	5.39641E-002	9.78501E-001	3.57220E+000	9	...........
	158	2.12	9.79724E-001	9.09949E-005	0.00000E+000	8.91499E-005	5.39641E-002	9.79869E-001	3.57220E+000	9	...........
	159	2.13333	9.81094E-001	9.10751E-005	0.00000E+000	8.93533E-005	5.39641E-002	9.81243E-001	3.57220E+000	9	...........
	160	2.14667	9.82451E-001	9.10001E-005	0.00000E+000	8.94032E-005	5.39641E-002	9.82612E-001	3.57220E+000	9	...........
	161	2.16	9.83795E-001	9.08355E-005	0.00000E+000	8.93635E-005	5.39641E-002	9.83969E-001	3.57220E+000	9	...........
	162	2.17333	9.85117E-001	9.11595E-005	0.00000E+000	8.98028E-005	5.39641E-002	9.85294E-001	3.57220E+000	9	...........
	163	2.18667	9.86428E-001	9.11418E-005	0.00000E+000	8.99049E-005	5.39641E-002	9.86605E-001	3.57220E+000	9	...........
	164	2.2	9.87734E-001	9.10470E-005	0.00000E+000	8.99302E-005	5.39641E-002	9.87920E-001	3.57220E+000	9	...........
	165	2.21333	9.89048E-001	9.10116E-005	0.00000E+000	9.00149E-005	5.39641E-002	9.89202E-001	3.57220E+000	9	...........
	166	2.22667	9.90309E-001	9.11085E-005	0.00000E+000	9.02255E-005	5.39641E-002	9.90481E-001	3.57220E+000	9	...........
	167	2.24	9.91570E-001	9.12596E-005	0.00000E+000	9.04903E-005	5.39641E-002	9.91740E-001	3.57220E+000	9	...........
	168	2.25333	9.92833E-001	9.08543E-005	0.00000E+000	9.02032E-005	5.39641E-002	9.93016E-001	3.57220E+000	9	...........
	169	2.26667	9.94081E-001	9.09220E-005	0.00000E+000	9.03839E-005	5.39641E-002	9.94279E-001	3.57220E+000	9	...........
	170	2.28	9.95321E-001	9.12752E-005	0.00000E+000	9.08481E-005	5.39641E-002	9.95500E-001	3.57220E+000	9	...........
	171	2.29333	9.96558E-001	9.09783E-005	0.00000E+000	9.06651E-005	5.39641E-002	9.96772E-001	3.57220E+000	9	...........
	172	2.30667	9.97791E-001	9.10606E-005	0.00000E+000	9.08595E-005	5.39641E-002	9.98004E-001	3.57220E+000	9	...........
	173	2.32	9.99002E-001	9.11856E-005	0.00000E+000	9.10946E-005	5.39641E-002	9.99214E-001	3.57220E+000	9	...........
	174	2.32667	9.99901E-001	9.11606E-005	0.00000E+000	9.11516E-005	5.39641E-002	1.00012E+000	3.57220E+000	9	...........
STARTTIMEOFFSET	QUANT	1349.556	Start Time Offset (s)
