EXPLAIN
TAG	PWR800_CHARGE
TITLE	LABEL	PWR Cyclic Charge Discharge (Cell) - Charge Step	Test &Identifier
DATE	LABEL	10-7-2017	Date
TIME	LABEL	15:34:18	Time
NOTES	NOTES	3	&Notes...
	supercap test cell
	0.9mg
	6M KOH
PSTAT	PSTAT	IFC5000-01520	Potentiostat
CAPACITY	QUANT	1.00000E-003	Capacity (A-hr)
CELLTYPE	SELECTOR	1	&Cell Type
WORKINGCONNECTION	SELECTOR	0	&Working Lead
MAXCHARGETIME	VARIABLEANDUNITS	1.00000E+002	s	1.00000E+002	second(s)	Max &Charge Time
CHARGECURRENT	QUANT	9.00000E-005	&Charge Current (A) 
VOLTAGEFINISH	TWOPARAM	F	1.00000E-003	3.60000E+003	&Voltage Finish	 I (A) < 	Max Time(s)
SAMPLETIME	QUANT	1.00000E-002	Sa&mple Period (s)
CHARGESTOPAT1	MULTIPARAM	4	1.00000E+000	Charge Stop At &1	Voltage > Limit	V
CHARGESTOPAT2	MULTIPARAM	0	0.00000E+000	Charge Stop At &2	None	N/A
AESBHCSELECTOR	TOGGLE	F	Save Both Half Cells
IRCOMP	TOGGLE	F	IR &Measure
EOC	QUANT	0	Open Circuit (V)
SEQUENCER	TOGGLE	TRUE	Run as Sequence
PSTATMODEL	IQUANT	53	Pstat Model
PSTATSECTION	LABEL	IFC5000-01520	Pstat Section
PSTATSERIALNO	LABEL	01520	Pstat Serial Number
CTRLMODE	IQUANT	0	Control Mode
ELECTROMETER	IQUANT	1	RE=0 or CS=1
IESTAB	IQUANT	0	I/E Stability
CASPEED	IQUANT	4	Control Amp Speed
CONVENTION	IQUANT	1	Current Convention
ICHRANGE	IQUANT	2	Ich Range
ICHRANGEMODE	TOGGLE	T	Ich Auto Range
ICHOFFSETENABLE	TOGGLE	F	Ich Offset Enable
ICHOFFSET	QUANT	0	Ich Offset (V)
ICHFILTER	IQUANT	1	Ich Filter
VCHRANGE	IQUANT	2	Vch Range
VCHRANGEMODE	TOGGLE	T	Vch Auto Range
VCHOFFSETENABLE	TOGGLE	F	Vch Offset Enable
VCHOFFSET	QUANT	0	Vch Offset (V)
VCHFILTER	IQUANT	1	Vch Filter
IERANGELOWERLIMIT	IQUANT	9	I/E Range Lower Limit
IERANGEMODE	TOGGLE	F	I/E AutoRange
IERANGE	IQUANT	9	I/E Range
ACHSELECT	IQUANT	1	Ach Select
ACHRANGE	IQUANT	2	Ach Range
ACHOFFSETENABLE	TOGGLE	F	Ach Offset Enable
ACHOFFSET	QUANT	0	Ach Offset (V)
ACHFILTER	IQUANT	1	Ach Filter
CABLEID	IQUANT	14	Cable ID
DCCALDATE	LABEL	5-7-2017	DC Calibration Date
ACCALDATE	LABEL	12/3/2015	AC Calibration Date
FRAMEWORKVERSION	QUANT	7.01	Framework Version
INSTRUMENTVERSION	LABEL	4.00	Instrument Version
CURVE	TABLE	171
	Pt	T	Vf	Im	Vu	Pwr	Sig	Ach	Temp	IERange	Over
	#	s	V	A	V	W	V	V	deg C	#	bits
	0	0.013333	2.75778E-001	9.10845E-005	0.00000E+000	2.51191E-005	5.39641E-002	2.75824E-001	3.57310E+000	9	...........
	1	0.026667	2.95463E-001	9.10345E-005	0.00000E+000	2.68973E-005	5.39641E-002	2.95498E-001	3.57310E+000	9	...........
	2	0.04	3.13775E-001	9.08616E-005	0.00000E+000	2.85101E-005	5.39641E-002	3.13816E-001	3.57310E+000	9	...........
	3	0.053333	3.30940E-001	9.10460E-005	0.00000E+000	3.01308E-005	5.39641E-002	3.30979E-001	3.57310E+000	9	...........
	4	0.066667	3.47094E-001	9.09762E-005	0.00000E+000	3.15772E-005	5.39641E-002	3.47135E-001	3.57310E+000	9	...........
	5	0.08	3.62360E-001	9.11408E-005	0.00000E+000	3.30257E-005	5.39641E-002	3.62404E-001	3.57310E+000	9	...........
	6	0.093333	3.76839E-001	9.11252E-005	0.00000E+000	3.43396E-005	5.39641E-002	3.76884E-001	3.57310E+000	9	...........
	7	0.106667	3.90618E-001	9.07313E-005	0.00000E+000	3.54413E-005	5.39641E-002	3.90666E-001	3.57310E+000	9	...........
	8	0.12	4.03758E-001	9.10293E-005	0.00000E+000	3.67538E-005	5.39641E-002	4.03805E-001	3.57310E+000	9	...........
	9	0.133333	4.16314E-001	9.09710E-005	0.00000E+000	3.78725E-005	5.39641E-002	4.16368E-001	3.57310E+000	9	...........
	10	0.146667	4.28341E-001	9.10460E-005	0.00000E+000	3.89987E-005	5.39641E-002	4.28399E-001	3.57310E+000	9	...........
	11	0.16	4.39887E-001	9.08970E-005	0.00000E+000	3.99844E-005	5.39641E-002	4.39948E-001	3.57310E+000	9	...........
	12	0.173333	4.50990E-001	9.10543E-005	0.00000E+000	4.10646E-005	5.39641E-002	4.51049E-001	3.57310E+000	9	...........
	13	0.186667	4.61675E-001	9.09251E-005	0.00000E+000	4.19779E-005	5.39641E-002	4.61737E-001	3.57310E+000	9	...........
	14	0.2	4.71993E-001	9.09522E-005	0.00000E+000	4.29288E-005	5.39641E-002	4.72058E-001	3.57310E+000	9	...........
	15	0.213333	4.81955E-001	9.09960E-005	0.00000E+000	4.38559E-005	5.39641E-002	4.82011E-001	3.57310E+000	9	...........
	16	0.226667	4.91579E-001	9.11241E-005	0.00000E+000	4.47947E-005	5.39641E-002	4.91645E-001	3.57310E+000	9	...........
	17	0.24	5.00898E-001	9.11168E-005	0.00000E+000	4.56402E-005	5.39641E-002	5.00960E-001	3.57270E+000	9	...........
	18	0.253333	5.09931E-001	9.09835E-005	0.00000E+000	4.63953E-005	5.39641E-002	5.09992E-001	3.57270E+000	9	...........
	19	0.266667	5.18679E-001	9.09251E-005	0.00000E+000	4.71609E-005	5.39641E-002	5.18745E-001	3.57270E+000	9	...........
	20	0.28	5.27168E-001	9.11752E-005	0.00000E+000	4.80646E-005	5.39641E-002	5.27234E-001	3.57270E+000	9	...........
	21	0.293333	5.35348E-001	9.09553E-005	0.00000E+000	4.86928E-005	5.39641E-002	5.35420E-001	3.57270E+000	9	...........
	22	0.306667	5.43357E-001	9.11450E-005	0.00000E+000	4.95243E-005	5.39641E-002	5.43460E-001	3.57270E+000	9	...........
	23	0.32	5.51180E-001	9.09137E-005	0.00000E+000	5.01098E-005	5.39641E-002	5.51299E-001	3.57270E+000	9	...........
	24	0.333333	5.58759E-001	9.09876E-005	0.00000E+000	5.08402E-005	5.39641E-002	5.58891E-001	3.57270E+000	9	...........
	25	0.346667	5.66203E-001	9.12095E-005	0.00000E+000	5.16431E-005	5.39641E-002	5.66324E-001	3.57270E+000	9	...........
	26	0.36	5.73413E-001	9.09074E-005	0.00000E+000	5.21275E-005	5.39641E-002	5.73517E-001	3.57270E+000	9	...........
	27	0.373333	5.80457E-001	9.09918E-005	0.00000E+000	5.28168E-005	5.39641E-002	5.80573E-001	3.57270E+000	9	...........
	28	0.386667	5.87336E-001	9.08689E-005	0.00000E+000	5.33705E-005	5.39641E-002	5.87448E-001	3.57270E+000	9	...........
	29	0.4	5.94070E-001	9.10283E-005	0.00000E+000	5.40771E-005	5.39641E-002	5.94196E-001	3.57270E+000	9	...........
	30	0.413333	6.00601E-001	9.10231E-005	0.00000E+000	5.46685E-005	5.39641E-002	6.00755E-001	3.57270E+000	9	...........
	31	0.426667	6.07028E-001	9.10293E-005	0.00000E+000	5.52574E-005	5.39641E-002	6.07141E-001	3.57270E+000	9	...........
	32	0.44	6.13293E-001	9.11481E-005	0.00000E+000	5.59005E-005	5.39641E-002	6.13428E-001	3.57270E+000	9	...........
	33	0.453333	6.19489E-001	9.09897E-005	0.00000E+000	5.63671E-005	5.39641E-002	6.19557E-001	3.57270E+000	9	...........
	34	0.466667	6.25476E-001	9.12335E-005	0.00000E+000	5.70644E-005	5.39641E-002	6.25556E-001	3.57270E+000	9	...........
	35	0.48	6.31325E-001	9.11700E-005	0.00000E+000	5.75579E-005	5.39641E-002	6.31437E-001	3.57270E+000	9	...........
	36	0.493333	6.37083E-001	9.10856E-005	0.00000E+000	5.80291E-005	5.39641E-002	6.37204E-001	3.57270E+000	9	...........
	37	0.506667	6.42776E-001	9.09762E-005	0.00000E+000	5.84773E-005	5.39641E-002	6.42869E-001	3.57270E+000	9	...........
	38	0.52	6.48296E-001	9.10741E-005	0.00000E+000	5.90430E-005	5.39641E-002	6.48399E-001	3.57270E+000	9	...........
	39	0.533333	6.53738E-001	9.11210E-005	0.00000E+000	5.95693E-005	5.39641E-002	6.53874E-001	3.57270E+000	9	...........
	40	0.546667	6.59096E-001	9.10762E-005	0.00000E+000	6.00280E-005	5.39641E-002	6.59200E-001	3.57270E+000	9	...........
	41	0.56	6.64351E-001	9.13294E-005	0.00000E+000	6.06747E-005	5.39641E-002	6.64490E-001	3.57270E+000	9	...........
	42	0.573333	6.69519E-001	9.10512E-005	0.00000E+000	6.09605E-005	5.39641E-002	6.69638E-001	3.57270E+000	9	...........
	43	0.586667	6.74561E-001	9.09845E-005	0.00000E+000	6.13746E-005	5.39641E-002	6.74697E-001	3.57270E+000	9	...........
	44	0.6	6.79519E-001	9.09137E-005	0.00000E+000	6.17775E-005	5.39641E-002	6.79679E-001	3.57270E+000	9	...........
	45	0.613333	6.84432E-001	9.09626E-005	0.00000E+000	6.22577E-005	5.39641E-002	6.84580E-001	3.57270E+000	9	...........
	46	0.626667	6.89235E-001	9.11668E-005	0.00000E+000	6.28354E-005	5.39641E-002	6.89360E-001	3.57270E+000	9	...........
	47	0.64	6.93989E-001	9.09814E-005	0.00000E+000	6.31401E-005	5.39641E-002	6.94095E-001	3.57270E+000	9	...........
	48	0.653333	6.98662E-001	9.10397E-005	0.00000E+000	6.36060E-005	5.39641E-002	6.98797E-001	3.57270E+000	9	...........
	49	0.666667	7.03243E-001	9.08793E-005	0.00000E+000	6.39102E-005	5.39641E-002	7.03349E-001	3.57270E+000	9	...........
	50	0.68	7.07752E-001	9.10897E-005	0.00000E+000	6.44689E-005	5.39641E-002	7.07871E-001	3.57270E+000	9	...........
	51	0.693333	7.12213E-001	9.09532E-005	0.00000E+000	6.47781E-005	5.39641E-002	7.12308E-001	3.57270E+000	9	...........
	52	0.706667	7.16610E-001	9.10856E-005	0.00000E+000	6.52728E-005	5.39641E-002	7.16719E-001	3.57270E+000	9	...........
	53	0.72	7.20967E-001	9.09981E-005	0.00000E+000	6.56066E-005	5.39641E-002	7.21028E-001	3.57270E+000	9	...........
	54	0.733333	7.25228E-001	9.09626E-005	0.00000E+000	6.59687E-005	5.39641E-002	7.25273E-001	3.57270E+000	9	...........
	55	0.746667	7.29425E-001	9.09428E-005	0.00000E+000	6.63360E-005	5.39641E-002	7.29504E-001	3.57270E+000	9	...........
	56	0.76	7.33569E-001	9.08834E-005	0.00000E+000	6.66693E-005	5.39641E-002	7.33655E-001	3.57270E+000	9	...........
	57	0.773333	7.37659E-001	9.07970E-005	0.00000E+000	6.69772E-005	5.39641E-002	7.37759E-001	3.57270E+000	9	...........
	58	0.786667	7.41734E-001	9.10606E-005	0.00000E+000	6.75427E-005	5.39641E-002	7.41870E-001	3.57270E+000	9	...........
	59	0.8	7.45728E-001	9.10991E-005	0.00000E+000	6.79352E-005	5.39641E-002	7.45891E-001	3.57270E+000	9	...........
	60	0.813333	7.49672E-001	9.08136E-005	0.00000E+000	6.80805E-005	5.39641E-002	7.49820E-001	3.57270E+000	9	...........
	61	0.826667	7.53546E-001	9.10137E-005	0.00000E+000	6.85830E-005	5.39641E-002	7.53695E-001	3.57270E+000	9	...........
	62	0.84	7.57384E-001	9.09095E-005	0.00000E+000	6.88534E-005	5.39641E-002	7.57527E-001	3.57270E+000	9	...........
	63	0.853333	7.61163E-001	9.11418E-005	0.00000E+000	6.93738E-005	5.39641E-002	7.61305E-001	3.57270E+000	9	...........
	64	0.866667	7.64893E-001	9.11325E-005	0.00000E+000	6.97066E-005	5.39641E-002	7.65026E-001	3.57270E+000	9	...........
	65	0.88	7.68587E-001	9.12210E-005	0.00000E+000	7.01113E-005	5.39641E-002	7.68750E-001	3.57270E+000	9	...........
	66	0.893333	7.72208E-001	9.08584E-005	0.00000E+000	7.01616E-005	5.39641E-002	7.72357E-001	3.57270E+000	9	...........
	67	0.906667	7.75801E-001	9.09814E-005	0.00000E+000	7.05834E-005	5.39641E-002	7.75951E-001	3.57270E+000	9	...........
	68	0.92	7.79359E-001	9.10012E-005	0.00000E+000	7.09226E-005	5.39641E-002	7.79495E-001	3.57270E+000	9	...........
	69	0.933333	7.82913E-001	9.09064E-005	0.00000E+000	7.11718E-005	5.39641E-002	7.83035E-001	3.57270E+000	9	...........
	70	0.946667	7.86407E-001	9.10647E-005	0.00000E+000	7.16139E-005	5.39641E-002	7.86511E-001	3.57270E+000	9	...........
	71	0.96	7.89851E-001	9.11429E-005	0.00000E+000	7.19893E-005	5.39641E-002	7.89969E-001	3.57270E+000	9	...........
	72	0.97333	7.93271E-001	9.11887E-005	0.00000E+000	7.23374E-005	5.39641E-002	7.93384E-001	3.57270E+000	9	...........
	73	0.98667	7.96625E-001	9.09803E-005	0.00000E+000	7.24772E-005	5.39641E-002	7.96741E-001	3.57270E+000	9	...........
	74	1	7.99952E-001	9.10668E-005	0.00000E+000	7.28491E-005	5.39641E-002	8.00030E-001	3.57270E+000	9	...........
	75	1.01333	8.03203E-001	9.13033E-005	0.00000E+000	7.33351E-005	5.39641E-002	8.03316E-001	3.57270E+000	9	...........
	76	1.02667	8.06428E-001	9.11606E-005	0.00000E+000	7.35145E-005	5.39641E-002	8.06571E-001	3.57270E+000	9	...........
	77	1.04	8.09637E-001	9.11960E-005	0.00000E+000	7.38357E-005	5.39641E-002	8.09771E-001	3.57270E+000	9	...........
	78	1.05333	8.12822E-001	9.11700E-005	0.00000E+000	7.41049E-005	5.39641E-002	8.12950E-001	3.57270E+000	9	...........
	79	1.06667	8.15957E-001	9.09585E-005	0.00000E+000	7.42182E-005	5.39641E-002	8.16106E-001	3.57270E+000	9	...........
	80	1.08	8.19078E-001	9.10918E-005	0.00000E+000	7.46113E-005	5.39641E-002	8.19238E-001	3.57270E+000	9	...........
	81	1.09333	8.22145E-001	9.11116E-005	0.00000E+000	7.49070E-005	5.39641E-002	8.22301E-001	3.57270E+000	9	...........
	82	1.10667	8.25175E-001	9.11939E-005	0.00000E+000	7.52510E-005	5.39641E-002	8.25335E-001	3.57270E+000	9	...........
	83	1.12	8.28140E-001	9.12085E-005	0.00000E+000	7.55334E-005	5.39641E-002	8.28280E-001	3.57270E+000	9	...........
	84	1.13333	8.31089E-001	9.12471E-005	0.00000E+000	7.58344E-005	5.39641E-002	8.31258E-001	3.57270E+000	9	...........
	85	1.14667	8.34025E-001	9.10470E-005	0.00000E+000	7.59355E-005	5.39641E-002	8.34201E-001	3.57270E+000	9	...........
	86	1.16	8.36909E-001	9.12887E-005	0.00000E+000	7.64004E-005	5.39641E-002	8.37088E-001	3.57270E+000	9	...........
	87	1.17333	8.39786E-001	9.09668E-005	0.00000E+000	7.63926E-005	5.39641E-002	8.39954E-001	3.57270E+000	9	...........
	88	1.18667	8.42637E-001	9.11012E-005	0.00000E+000	7.67652E-005	5.39641E-002	8.42825E-001	3.57270E+000	9	...........
	89	1.2	8.45496E-001	9.13565E-005	0.00000E+000	7.72416E-005	5.39641E-002	8.45659E-001	3.57270E+000	9	...........
	90	1.21333	8.48262E-001	9.10949E-005	0.00000E+000	7.72724E-005	5.39641E-002	8.48464E-001	3.57270E+000	9	...........
	91	1.22667	8.51030E-001	9.10710E-005	0.00000E+000	7.75041E-005	5.39641E-002	8.51216E-001	3.57270E+000	9	...........
	92	1.24	8.53741E-001	9.09783E-005	0.00000E+000	7.76718E-005	5.39641E-002	8.53937E-001	3.57320E+000	9	...........
	93	1.25333	8.56460E-001	9.10418E-005	0.00000E+000	7.79737E-005	5.39641E-002	8.56648E-001	3.57320E+000	9	...........
	94	1.26667	8.59131E-001	9.09262E-005	0.00000E+000	7.81175E-005	5.39641E-002	8.59329E-001	3.57320E+000	9	...........
	95	1.28	8.61796E-001	9.11981E-005	0.00000E+000	7.85942E-005	5.39641E-002	8.61992E-001	3.57320E+000	9	...........
	96	1.29333	8.64377E-001	9.12095E-005	0.00000E+000	7.88394E-005	5.39641E-002	8.64592E-001	3.57320E+000	9	...........
	97	1.30667	8.66987E-001	9.12043E-005	0.00000E+000	7.90730E-005	5.39641E-002	8.67191E-001	3.57320E+000	9	...........
	98	1.32	8.69577E-001	9.11366E-005	0.00000E+000	7.92503E-005	5.39641E-002	8.69778E-001	3.57320E+000	9	...........
	99	1.33333	8.72131E-001	9.09928E-005	0.00000E+000	7.93577E-005	5.39641E-002	8.72306E-001	3.57320E+000	9	...........
	100	1.34667	8.74652E-001	9.11345E-005	0.00000E+000	7.97110E-005	5.39641E-002	8.74828E-001	3.57320E+000	9	...........
	101	1.36	8.77122E-001	9.13929E-005	0.00000E+000	8.01627E-005	5.39641E-002	8.77322E-001	3.57320E+000	9	...........
	102	1.37333	8.79595E-001	9.09887E-005	0.00000E+000	8.00332E-005	5.39641E-002	8.79767E-001	3.57320E+000	9	...........
	103	1.38667	8.82042E-001	9.10085E-005	0.00000E+000	8.02733E-005	5.39641E-002	8.82214E-001	3.57320E+000	9	...........
	104	1.4	8.84492E-001	9.11679E-005	0.00000E+000	8.06373E-005	5.39641E-002	8.84653E-001	3.57320E+000	9	...........
	105	1.41333	8.86867E-001	9.09387E-005	0.00000E+000	8.06505E-005	5.39641E-002	8.87027E-001	3.57320E+000	9	...........
	106	1.42667	8.89219E-001	9.11554E-005	0.00000E+000	8.10571E-005	5.39641E-002	8.89379E-001	3.57320E+000	9	...........
	107	1.44	8.91545E-001	9.10251E-005	0.00000E+000	8.11530E-005	5.39641E-002	8.91713E-001	3.57320E+000	9	...........
	108	1.45333	8.93841E-001	9.11564E-005	0.00000E+000	8.14793E-005	5.39641E-002	8.94018E-001	3.57320E+000	9	...........
	109	1.46667	8.96151E-001	9.09533E-005	0.00000E+000	8.15079E-005	5.39641E-002	8.96328E-001	3.57320E+000	9	...........
	110	1.48	8.98455E-001	9.08386E-005	0.00000E+000	8.16144E-005	5.39641E-002	8.98605E-001	3.57320E+000	9	...........
	111	1.49333	9.00684E-001	9.10231E-005	0.00000E+000	8.19830E-005	5.39641E-002	9.00868E-001	3.57320E+000	9	...........
	112	1.50667	9.02924E-001	9.11585E-005	0.00000E+000	8.23092E-005	5.39641E-002	9.03107E-001	3.57320E+000	9	...........
	113	1.52	9.05127E-001	9.10220E-005	0.00000E+000	8.23865E-005	5.39641E-002	9.05285E-001	3.57320E+000	9	...........
	114	1.53333	9.07309E-001	9.08689E-005	0.00000E+000	8.24461E-005	5.39641E-002	9.07479E-001	3.57320E+000	9	...........
	115	1.54667	9.09483E-001	9.09908E-005	0.00000E+000	8.27545E-005	5.39641E-002	9.09619E-001	3.57320E+000	9	...........
	116	1.56	9.11601E-001	9.11898E-005	0.00000E+000	8.31287E-005	5.39641E-002	9.11748E-001	3.57320E+000	9	...........
	117	1.57333	9.13739E-001	9.10210E-005	0.00000E+000	8.31694E-005	5.39641E-002	9.13897E-001	3.57320E+000	9	...........
	118	1.58667	9.15852E-001	9.11606E-005	0.00000E+000	8.34896E-005	5.39641E-002	9.15994E-001	3.57320E+000	9	...........
	119	1.6	9.17919E-001	9.10658E-005	0.00000E+000	8.35910E-005	5.39641E-002	9.18100E-001	3.57320E+000	9	...........
	120	1.61333	9.19969E-001	9.12346E-005	0.00000E+000	8.39330E-005	5.39641E-002	9.20168E-001	3.57320E+000	9	...........
	121	1.62667	9.22067E-001	9.09574E-005	0.00000E+000	8.38689E-005	5.39641E-002	9.22200E-001	3.57320E+000	9	...........
	122	1.64	9.24069E-001	9.08949E-005	0.00000E+000	8.39932E-005	5.39641E-002	9.24218E-001	3.57320E+000	9	...........
	123	1.65333	9.26061E-001	9.11210E-005	0.00000E+000	8.43836E-005	5.39641E-002	9.26205E-001	3.57320E+000	9	...........
	124	1.66667	9.28042E-001	9.09741E-005	0.00000E+000	8.44278E-005	5.39641E-002	9.28183E-001	3.57320E+000	9	...........
	125	1.68	9.29964E-001	9.12168E-005	0.00000E+000	8.48284E-005	5.39641E-002	9.30108E-001	3.57320E+000	9	...........
	126	1.69333	9.31885E-001	9.12012E-005	0.00000E+000	8.49890E-005	5.39641E-002	9.32028E-001	3.57320E+000	9	...........
	127	1.70667	9.33774E-001	9.08730E-005	0.00000E+000	8.48549E-005	5.39641E-002	9.33945E-001	3.57320E+000	9	...........
	128	1.72	9.35656E-001	9.10866E-005	0.00000E+000	8.52257E-005	5.39641E-002	9.35825E-001	3.57320E+000	9	...........
	129	1.73333	9.37517E-001	9.08845E-005	0.00000E+000	8.52057E-005	5.39641E-002	9.37685E-001	3.57320E+000	9	...........
	130	1.74667	9.39356E-001	9.10106E-005	0.00000E+000	8.54913E-005	5.39641E-002	9.39544E-001	3.57320E+000	9	...........
	131	1.76	9.41198E-001	9.09074E-005	0.00000E+000	8.55619E-005	5.39641E-002	9.41339E-001	3.57320E+000	9	...........
	132	1.77333	9.42990E-001	9.10085E-005	0.00000E+000	8.58201E-005	5.39641E-002	9.43150E-001	3.57320E+000	9	...........
	133	1.78667	9.44764E-001	9.10158E-005	0.00000E+000	8.59884E-005	5.39641E-002	9.44950E-001	3.57320E+000	9	...........
	134	1.8	9.46570E-001	9.09095E-005	0.00000E+000	8.60522E-005	5.39641E-002	9.46759E-001	3.57320E+000	9	...........
	135	1.81333	9.48351E-001	9.11939E-005	0.00000E+000	8.64838E-005	5.39641E-002	9.48496E-001	3.57320E+000	9	...........
	136	1.82667	9.50064E-001	9.09981E-005	0.00000E+000	8.64540E-005	5.39641E-002	9.50239E-001	3.57320E+000	9	...........
	137	1.84	9.51767E-001	9.08095E-005	0.00000E+000	8.64294E-005	5.39641E-002	9.51950E-001	3.57320E+000	9	...........
	138	1.85333	9.53479E-001	9.09658E-005	0.00000E+000	8.67339E-005	5.39641E-002	9.53645E-001	3.57320E+000	9	...........
	139	1.86667	9.55146E-001	9.09022E-005	0.00000E+000	8.68248E-005	5.39641E-002	9.55330E-001	3.57320E+000	9	...........
	140	1.88	9.56816E-001	9.08741E-005	0.00000E+000	8.69498E-005	5.39641E-002	9.56965E-001	3.57320E+000	9	...........
	141	1.89333	9.58417E-001	9.09772E-005	0.00000E+000	8.71941E-005	5.39641E-002	9.58609E-001	3.57320E+000	9	...........
	142	1.90667	9.60061E-001	9.09741E-005	0.00000E+000	8.73407E-005	5.39641E-002	9.60251E-001	3.57320E+000	9	...........
	143	1.92	9.61664E-001	9.08657E-005	0.00000E+000	8.73823E-005	5.39641E-002	9.61859E-001	3.57320E+000	9	...........
	144	1.93333	9.63281E-001	9.10324E-005	0.00000E+000	8.76898E-005	5.39641E-002	9.63465E-001	3.57320E+000	9	...........
	145	1.94667	9.64872E-001	9.10303E-005	0.00000E+000	8.78326E-005	5.39641E-002	9.65074E-001	3.57320E+000	9	...........
	146	1.96	9.66436E-001	9.10491E-005	0.00000E+000	8.79931E-005	5.39641E-002	9.66634E-001	3.57320E+000	9	...........
	147	1.97333	9.67994E-001	9.08022E-005	0.00000E+000	8.78960E-005	5.39641E-002	9.68194E-001	3.57320E+000	9	...........
	148	1.98667	9.69539E-001	9.09116E-005	0.00000E+000	8.81423E-005	5.39641E-002	9.69729E-001	3.57320E+000	9	...........
	149	2	9.71060E-001	9.11262E-005	0.00000E+000	8.84890E-005	5.39641E-002	9.71254E-001	3.57320E+000	9	...........
	150	2.01333	9.72638E-001	9.11252E-005	0.00000E+000	8.86318E-005	5.39641E-002	9.72780E-001	3.57320E+000	9	...........
	151	2.02667	9.74141E-001	9.09824E-005	0.00000E+000	8.86297E-005	5.39641E-002	9.74279E-001	3.57320E+000	9	...........
	152	2.04	9.75623E-001	9.10095E-005	0.00000E+000	8.87910E-005	5.39641E-002	9.75759E-001	3.57320E+000	9	...........
	153	2.05333	9.77085E-001	9.09887E-005	0.00000E+000	8.89037E-005	5.39641E-002	9.77223E-001	3.57320E+000	9	...........
	154	2.06667	9.78531E-001	9.10824E-005	0.00000E+000	8.91270E-005	5.39641E-002	9.78679E-001	3.57320E+000	9	...........
	155	2.08	9.79971E-001	9.09220E-005	0.00000E+000	8.91009E-005	5.39641E-002	9.80121E-001	3.57320E+000	9	...........
	156	2.09333	9.81418E-001	9.09220E-005	0.00000E+000	8.92325E-005	5.39641E-002	9.81562E-001	3.57320E+000	9	...........
	157	2.10667	9.82830E-001	9.10897E-005	0.00000E+000	8.95257E-005	5.39641E-002	9.82982E-001	3.57320E+000	9	...........
	158	2.12	9.84221E-001	9.09553E-005	0.00000E+000	8.95202E-005	5.39641E-002	9.84402E-001	3.57320E+000	9	...........
	159	2.13333	9.85608E-001	9.11304E-005	0.00000E+000	8.98188E-005	5.39641E-002	9.85784E-001	3.57320E+000	9	...........
	160	2.14667	9.86959E-001	9.11439E-005	0.00000E+000	8.99553E-005	5.39641E-002	9.87174E-001	3.57320E+000	9	...........
	161	2.16	9.88313E-001	9.12200E-005	0.00000E+000	9.01539E-005	5.39641E-002	9.88521E-001	3.57320E+000	9	...........
	162	2.17333	9.89648E-001	9.08491E-005	0.00000E+000	8.99086E-005	5.39641E-002	9.89850E-001	3.57320E+000	9	...........
	163	2.18667	9.90946E-001	9.12616E-005	0.00000E+000	9.04354E-005	5.39641E-002	9.91180E-001	3.57320E+000	9	...........
	164	2.2	9.92263E-001	9.10126E-005	0.00000E+000	9.03085E-005	5.39641E-002	9.92477E-001	3.57320E+000	9	...........
	165	2.21333	9.93550E-001	9.11054E-005	0.00000E+000	9.05177E-005	5.39641E-002	9.93776E-001	3.57320E+000	9	...........
	166	2.22667	9.94852E-001	9.09282E-005	0.00000E+000	9.04601E-005	5.39641E-002	9.95062E-001	3.57319E+000	9	...........
	167	2.24	9.96118E-001	9.10126E-005	0.00000E+000	9.06594E-005	5.39641E-002	9.96347E-001	3.57240E+000	9	...........
	168	2.25333	9.97401E-001	9.12002E-005	0.00000E+000	9.09632E-005	5.39641E-002	9.97641E-001	3.57240E+000	9	...........
	169	2.26667	9.98664E-001	9.11314E-005	0.00000E+000	9.10097E-005	5.39641E-002	9.98889E-001	3.57240E+000	9	...........
	170	2.275	9.99682E-001	9.08826E-005	0.00000E+000	9.08537E-005	5.39641E-002	9.99899E-001	3.57240E+000	9	...........
STARTTIMEOFFSET	QUANT	1774.851	Start Time Offset (s)
