EXPLAIN
TAG	PWR800_CHARGE
TITLE	LABEL	PWR Cyclic Charge Discharge (Cell) - Charge Step	Test &Identifier
DATE	LABEL	10-7-2017	Date
TIME	LABEL	15:52:14	Time
NOTES	NOTES	3	&Notes...
	supercap test cell
	0.9mg
	6M KOH
PSTAT	PSTAT	IFC5000-01520	Potentiostat
CAPACITY	QUANT	1.00000E-003	Capacity (A-hr)
CELLTYPE	SELECTOR	1	&Cell Type
WORKINGCONNECTION	SELECTOR	0	&Working Lead
MAXCHARGETIME	VARIABLEANDUNITS	1.00000E+002	s	1.00000E+002	second(s)	Max &Charge Time
CHARGECURRENT	QUANT	9.00000E-005	&Charge Current (A) 
VOLTAGEFINISH	TWOPARAM	F	1.00000E-003	3.60000E+003	&Voltage Finish	 I (A) < 	Max Time(s)
SAMPLETIME	QUANT	1.00000E-002	Sa&mple Period (s)
CHARGESTOPAT1	MULTIPARAM	4	1.00000E+000	Charge Stop At &1	Voltage > Limit	V
CHARGESTOPAT2	MULTIPARAM	0	0.00000E+000	Charge Stop At &2	None	N/A
AESBHCSELECTOR	TOGGLE	F	Save Both Half Cells
IRCOMP	TOGGLE	F	IR &Measure
EOC	QUANT	0	Open Circuit (V)
SEQUENCER	TOGGLE	TRUE	Run as Sequence
PSTATMODEL	IQUANT	53	Pstat Model
PSTATSECTION	LABEL	IFC5000-01520	Pstat Section
PSTATSERIALNO	LABEL	01520	Pstat Serial Number
CTRLMODE	IQUANT	0	Control Mode
ELECTROMETER	IQUANT	1	RE=0 or CS=1
IESTAB	IQUANT	0	I/E Stability
CASPEED	IQUANT	4	Control Amp Speed
CONVENTION	IQUANT	1	Current Convention
ICHRANGE	IQUANT	2	Ich Range
ICHRANGEMODE	TOGGLE	T	Ich Auto Range
ICHOFFSETENABLE	TOGGLE	F	Ich Offset Enable
ICHOFFSET	QUANT	0	Ich Offset (V)
ICHFILTER	IQUANT	1	Ich Filter
VCHRANGE	IQUANT	2	Vch Range
VCHRANGEMODE	TOGGLE	T	Vch Auto Range
VCHOFFSETENABLE	TOGGLE	F	Vch Offset Enable
VCHOFFSET	QUANT	0	Vch Offset (V)
VCHFILTER	IQUANT	1	Vch Filter
IERANGELOWERLIMIT	IQUANT	9	I/E Range Lower Limit
IERANGEMODE	TOGGLE	F	I/E AutoRange
IERANGE	IQUANT	9	I/E Range
ACHSELECT	IQUANT	1	Ach Select
ACHRANGE	IQUANT	2	Ach Range
ACHOFFSETENABLE	TOGGLE	F	Ach Offset Enable
ACHOFFSET	QUANT	0	Ach Offset (V)
ACHFILTER	IQUANT	1	Ach Filter
CABLEID	IQUANT	14	Cable ID
DCCALDATE	LABEL	5-7-2017	DC Calibration Date
ACCALDATE	LABEL	12/3/2015	AC Calibration Date
FRAMEWORKVERSION	QUANT	7.01	Framework Version
INSTRUMENTVERSION	LABEL	4.00	Instrument Version
CURVE	TABLE	166
	Pt	T	Vf	Im	Vu	Pwr	Sig	Ach	Temp	IERange	Over
	#	s	V	A	V	W	V	V	deg C	#	bits
	0	0.013333	2.72722E-001	9.09168E-005	0.00000E+000	2.47951E-005	5.39641E-002	2.72766E-001	3.57300E+000	9	...........
	1	0.026667	2.92399E-001	9.07897E-005	0.00000E+000	2.65468E-005	5.39641E-002	2.92437E-001	3.57300E+000	9	...........
	2	0.04	3.10800E-001	9.10783E-005	0.00000E+000	2.83072E-005	5.39641E-002	3.10838E-001	3.57300E+000	9	...........
	3	0.053333	3.28094E-001	9.09293E-005	0.00000E+000	2.98334E-005	5.39641E-002	3.28136E-001	3.57300E+000	9	...........
	4	0.066667	3.44417E-001	9.11439E-005	0.00000E+000	3.13915E-005	5.39641E-002	3.44459E-001	3.57300E+000	9	...........
	5	0.08	3.59861E-001	9.07813E-005	0.00000E+000	3.26686E-005	5.39641E-002	3.59911E-001	3.57300E+000	9	...........
	6	0.093333	3.74535E-001	9.09366E-005	0.00000E+000	3.40590E-005	5.39641E-002	3.74579E-001	3.57300E+000	9	...........
	7	0.106667	3.88498E-001	9.09043E-005	0.00000E+000	3.53161E-005	5.39641E-002	3.88550E-001	3.57300E+000	9	...........
	8	0.12	4.01827E-001	9.09730E-005	0.00000E+000	3.65555E-005	5.39641E-002	4.01876E-001	3.57300E+000	9	...........
	9	0.133333	4.14555E-001	9.07751E-005	0.00000E+000	3.76313E-005	5.39641E-002	4.14610E-001	3.57300E+000	9	...........
	10	0.146667	4.26753E-001	9.10022E-005	0.00000E+000	3.88355E-005	5.39641E-002	4.26811E-001	3.57300E+000	9	...........
	11	0.16	4.38449E-001	9.10533E-005	0.00000E+000	3.99222E-005	5.39641E-002	4.38512E-001	3.57300E+000	9	...........
	12	0.173333	4.49699E-001	9.09647E-005	0.00000E+000	4.09068E-005	5.39641E-002	4.49759E-001	3.57300E+000	9	...........
	13	0.186667	4.60526E-001	9.11304E-005	0.00000E+000	4.19679E-005	5.39641E-002	4.60584E-001	3.57300E+000	9	...........
	14	0.2	4.70960E-001	9.11022E-005	0.00000E+000	4.29055E-005	5.39641E-002	4.71019E-001	3.57300E+000	9	...........
	15	0.213333	4.81029E-001	9.10460E-005	0.00000E+000	4.37958E-005	5.39641E-002	4.81096E-001	3.57300E+000	9	...........
	16	0.226667	4.90772E-001	9.10314E-005	0.00000E+000	4.46756E-005	5.39641E-002	4.90836E-001	3.57300E+000	9	...........
	17	0.24	5.00193E-001	9.11408E-005	0.00000E+000	4.55880E-005	5.39641E-002	5.00259E-001	3.57300E+000	9	...........
	18	0.253333	5.09307E-001	9.08907E-005	0.00000E+000	4.62913E-005	5.39641E-002	5.09378E-001	3.57300E+000	9	...........
	19	0.266667	5.18136E-001	9.07553E-005	0.00000E+000	4.70236E-005	5.39641E-002	5.18207E-001	3.57300E+000	9	...........
	20	0.28	5.26711E-001	9.13377E-005	0.00000E+000	4.81086E-005	5.39641E-002	5.26782E-001	3.57300E+000	9	...........
	21	0.293333	5.34944E-001	9.12606E-005	0.00000E+000	4.88193E-005	5.39641E-002	5.35051E-001	3.57318E+000	9	...........
	22	0.306667	5.42998E-001	9.08459E-005	0.00000E+000	4.93292E-005	5.39641E-002	5.43101E-001	3.57320E+000	9	...........
	23	0.32	5.50876E-001	9.10428E-005	0.00000E+000	5.01533E-005	5.39641E-002	5.50966E-001	3.57320E+000	9	...........
	24	0.333333	5.58485E-001	9.09970E-005	0.00000E+000	5.08205E-005	5.39641E-002	5.58606E-001	3.57320E+000	9	...........
	25	0.346667	5.65989E-001	9.08428E-005	0.00000E+000	5.14161E-005	5.39641E-002	5.66096E-001	3.57320E+000	9	...........
	26	0.36	5.73227E-001	9.09762E-005	0.00000E+000	5.21500E-005	5.39641E-002	5.73343E-001	3.57320E+000	9	...........
	27	0.373333	5.80312E-001	9.10053E-005	0.00000E+000	5.28115E-005	5.39641E-002	5.80448E-001	3.57320E+000	9	...........
	28	0.386667	5.87217E-001	9.11064E-005	0.00000E+000	5.34993E-005	5.39641E-002	5.87328E-001	3.57320E+000	9	...........
	29	0.4	5.93970E-001	9.13637E-005	0.00000E+000	5.42673E-005	5.39641E-002	5.94076E-001	3.57320E+000	9	...........
	30	0.413333	6.00568E-001	9.09220E-005	0.00000E+000	5.46049E-005	5.39641E-002	6.00685E-001	3.57320E+000	9	...........
	31	0.426667	6.07002E-001	9.10053E-005	0.00000E+000	5.52404E-005	5.39641E-002	6.07127E-001	3.57320E+000	9	...........
	32	0.44	6.13317E-001	9.08407E-005	0.00000E+000	5.57142E-005	5.39641E-002	6.13458E-001	3.57320E+000	9	...........
	33	0.453333	6.19552E-001	9.11731E-005	0.00000E+000	5.64864E-005	5.39641E-002	6.19629E-001	3.57320E+000	9	...........
	34	0.466667	6.25575E-001	9.08470E-005	0.00000E+000	5.68316E-005	5.39641E-002	6.25671E-001	3.57320E+000	9	...........
	35	0.48	6.31501E-001	9.08814E-005	0.00000E+000	5.73917E-005	5.39641E-002	6.31582E-001	3.57320E+000	9	...........
	36	0.493333	6.37291E-001	9.12596E-005	0.00000E+000	5.81589E-005	5.39641E-002	6.37379E-001	3.57320E+000	9	...........
	37	0.506667	6.43028E-001	9.08991E-005	0.00000E+000	5.84506E-005	5.39641E-002	6.43082E-001	3.57320E+000	9	...........
	38	0.52	6.48580E-001	9.11773E-005	0.00000E+000	5.91357E-005	5.39641E-002	6.48683E-001	3.57320E+000	9	...........
	39	0.533333	6.54086E-001	9.09105E-005	0.00000E+000	5.94633E-005	5.39641E-002	6.54181E-001	3.57320E+000	9	...........
	40	0.546667	6.59440E-001	9.07980E-005	0.00000E+000	5.98759E-005	5.39641E-002	6.59574E-001	3.57320E+000	9	...........
	41	0.56	6.64722E-001	9.08720E-005	0.00000E+000	6.04046E-005	5.39641E-002	6.64888E-001	3.57320E+000	9	...........
	42	0.573333	6.69968E-001	9.10751E-005	0.00000E+000	6.10174E-005	5.39641E-002	6.70100E-001	3.57320E+000	9	...........
	43	0.586667	6.75080E-001	9.11325E-005	0.00000E+000	6.15217E-005	5.39641E-002	6.75199E-001	3.57320E+000	9	...........
	44	0.6	6.80125E-001	9.09553E-005	0.00000E+000	6.18610E-005	5.39641E-002	6.80265E-001	3.57320E+000	9	...........
	45	0.613333	6.85075E-001	9.10856E-005	0.00000E+000	6.24004E-005	5.39641E-002	6.85199E-001	3.57320E+000	9	...........
	46	0.626667	6.89931E-001	9.09553E-005	0.00000E+000	6.27529E-005	5.39641E-002	6.90067E-001	3.57320E+000	9	...........
	47	0.64	6.94752E-001	9.13648E-005	0.00000E+000	6.34759E-005	5.39641E-002	6.94878E-001	3.57320E+000	9	...........
	48	0.653333	6.99460E-001	9.14304E-005	0.00000E+000	6.39519E-005	5.39641E-002	6.99589E-001	3.57320E+000	9	...........
	49	0.666667	7.04115E-001	9.11929E-005	0.00000E+000	6.42103E-005	5.39641E-002	7.04248E-001	3.57320E+000	9	...........
	50	0.68	7.08678E-001	9.11325E-005	0.00000E+000	6.45836E-005	5.39641E-002	7.08814E-001	3.57320E+000	9	...........
	51	0.693333	7.13143E-001	9.09741E-005	0.00000E+000	6.48775E-005	5.39641E-002	7.13274E-001	3.57320E+000	9	...........
	52	0.706667	7.17613E-001	9.10710E-005	0.00000E+000	6.53537E-005	5.39641E-002	7.17764E-001	3.57320E+000	9	...........
	53	0.72	7.22002E-001	9.11502E-005	0.00000E+000	6.58106E-005	5.39641E-002	7.22140E-001	3.57320E+000	9	...........
	54	0.733333	7.26304E-001	9.10877E-005	0.00000E+000	6.61573E-005	5.39641E-002	7.26433E-001	3.57320E+000	9	...........
	55	0.746667	7.30534E-001	9.09105E-005	0.00000E+000	6.64132E-005	5.39641E-002	7.30724E-001	3.57320E+000	9	...........
	56	0.76	7.34714E-001	9.08543E-005	0.00000E+000	6.67519E-005	5.39641E-002	7.34891E-001	3.57320E+000	9	...........
	57	0.773333	7.38853E-001	9.10085E-005	0.00000E+000	6.72419E-005	5.39641E-002	7.39025E-001	3.57320E+000	9	...........
	58	0.786667	7.42959E-001	9.12116E-005	0.00000E+000	6.77665E-005	5.39641E-002	7.43125E-001	3.57320E+000	9	...........
	59	0.8	7.46975E-001	9.07084E-005	0.00000E+000	6.77569E-005	5.39641E-002	7.47144E-001	3.57320E+000	9	...........
	60	0.813333	7.50949E-001	9.10856E-005	0.00000E+000	6.84006E-005	5.39641E-002	7.51125E-001	3.57320E+000	9	...........
	61	0.826667	7.54912E-001	9.12106E-005	0.00000E+000	6.88559E-005	5.39641E-002	7.55070E-001	3.57320E+000	9	...........
	62	0.84	7.58804E-001	9.12523E-005	0.00000E+000	6.92426E-005	5.39641E-002	7.58966E-001	3.57320E+000	9	...........
	63	0.853333	7.62641E-001	9.09532E-005	0.00000E+000	6.93647E-005	5.39641E-002	7.62777E-001	3.57320E+000	9	...........
	64	0.866667	7.66427E-001	9.10053E-005	0.00000E+000	6.97490E-005	5.39641E-002	7.66594E-001	3.57320E+000	9	...........
	65	0.88	7.70190E-001	9.09710E-005	0.00000E+000	7.00649E-005	5.39641E-002	7.70350E-001	3.57320E+000	9	...........
	66	0.893333	7.73876E-001	9.11689E-005	0.00000E+000	7.05535E-005	5.39641E-002	7.73994E-001	3.57320E+000	9	...........
	67	0.906667	7.77515E-001	9.10741E-005	0.00000E+000	7.08115E-005	5.39641E-002	7.77655E-001	3.57320E+000	9	...........
	68	0.92	7.81155E-001	9.09387E-005	0.00000E+000	7.10372E-005	5.39641E-002	7.81285E-001	3.57320E+000	9	...........
	69	0.933333	7.84743E-001	9.10283E-005	0.00000E+000	7.14338E-005	5.39641E-002	7.84839E-001	3.57320E+000	9	...........
	70	0.946667	7.88262E-001	9.08907E-005	0.00000E+000	7.16457E-005	5.39641E-002	7.88361E-001	3.57320E+000	9	...........
	71	0.96	7.91728E-001	9.09189E-005	0.00000E+000	7.19830E-005	5.39641E-002	7.91849E-001	3.57320E+000	9	...........
	72	0.97333	7.95200E-001	9.11773E-005	0.00000E+000	7.25042E-005	5.39641E-002	7.95312E-001	3.57320E+000	9	...........
	73	0.98667	7.98580E-001	9.09022E-005	0.00000E+000	7.25927E-005	5.39641E-002	7.98690E-001	3.57320E+000	9	...........
	74	1	8.01953E-001	9.10501E-005	0.00000E+000	7.30179E-005	5.39641E-002	8.02083E-001	3.57320E+000	9	...........
	75	1.01333	8.05262E-001	9.12293E-005	0.00000E+000	7.34635E-005	5.39641E-002	8.05421E-001	3.57320E+000	9	...........
	76	1.02667	8.08553E-001	9.09314E-005	0.00000E+000	7.35228E-005	5.39641E-002	8.08705E-001	3.57320E+000	9	...........
	77	1.04	8.11821E-001	9.09720E-005	0.00000E+000	7.38530E-005	5.39641E-002	8.11971E-001	3.57320E+000	9	...........
	78	1.05333	8.15050E-001	9.10220E-005	0.00000E+000	7.41875E-005	5.39641E-002	8.15241E-001	3.57320E+000	9	...........
	79	1.06667	8.18256E-001	9.12731E-005	0.00000E+000	7.46848E-005	5.39641E-002	8.18436E-001	3.57320E+000	9	...........
	80	1.08	8.21450E-001	9.11502E-005	0.00000E+000	7.48753E-005	5.39641E-002	8.21627E-001	3.57320E+000	9	...........
	81	1.09333	8.24574E-001	9.11199E-005	0.00000E+000	7.51351E-005	5.39641E-002	8.24751E-001	3.57320E+000	9	...........
	82	1.10667	8.27680E-001	9.12439E-005	0.00000E+000	7.55208E-005	5.39641E-002	8.27836E-001	3.57320E+000	9	...........
	83	1.12	8.30733E-001	9.10189E-005	0.00000E+000	7.56124E-005	5.39641E-002	8.30922E-001	3.57320E+000	9	...........
	84	1.13333	8.33783E-001	9.10616E-005	0.00000E+000	7.59257E-005	5.39641E-002	8.33970E-001	3.57320E+000	9	...........
	85	1.14667	8.36782E-001	9.09012E-005	0.00000E+000	7.60645E-005	5.39641E-002	8.36967E-001	3.57320E+000	9	...........
	86	1.16	8.39718E-001	9.10991E-005	0.00000E+000	7.64976E-005	5.39641E-002	8.39916E-001	3.57320E+000	9	...........
	87	1.17333	8.42649E-001	9.09897E-005	0.00000E+000	7.66724E-005	5.39641E-002	8.42853E-001	3.57320E+000	9	...........
	88	1.18667	8.45608E-001	9.09574E-005	0.00000E+000	7.69143E-005	5.39641E-002	8.45803E-001	3.57320E+000	9	...........
	89	1.2	8.48477E-001	9.09397E-005	0.00000E+000	7.71603E-005	5.39641E-002	8.48677E-001	3.57320E+000	9	...........
	90	1.21333	8.51362E-001	9.09751E-005	0.00000E+000	7.74528E-005	5.39641E-002	8.51537E-001	3.57320E+000	9	...........
	91	1.22667	8.54190E-001	9.12064E-005	0.00000E+000	7.79076E-005	5.39641E-002	8.54362E-001	3.57320E+000	9	...........
	92	1.24	8.56989E-001	9.11314E-005	0.00000E+000	7.80987E-005	5.39641E-002	8.57181E-001	3.57320E+000	9	...........
	93	1.25333	8.59755E-001	9.12137E-005	0.00000E+000	7.84215E-005	5.39641E-002	8.59926E-001	3.57320E+000	9	...........
	94	1.26667	8.62503E-001	9.10418E-005	0.00000E+000	7.85238E-005	5.39641E-002	8.62662E-001	3.57320E+000	9	...........
	95	1.28	8.65191E-001	9.11637E-005	0.00000E+000	7.88740E-005	5.39641E-002	8.65394E-001	3.57320E+000	9	...........
	96	1.29333	8.67926E-001	9.09564E-005	0.00000E+000	7.89434E-005	5.39641E-002	8.68097E-001	3.57285E+000	9	...........
	97	1.30667	8.70612E-001	9.08730E-005	0.00000E+000	7.91151E-005	5.39641E-002	8.70777E-001	3.57280E+000	9	...........
	98	1.32	8.73219E-001	9.09595E-005	0.00000E+000	7.94276E-005	5.39641E-002	8.73406E-001	3.57280E+000	9	...........
	99	1.33333	8.75795E-001	9.09314E-005	0.00000E+000	7.96372E-005	5.39641E-002	8.75976E-001	3.57280E+000	9	...........
	100	1.34667	8.78337E-001	9.09783E-005	0.00000E+000	7.99096E-005	5.39641E-002	8.78532E-001	3.57280E+000	9	...........
	101	1.36	8.80880E-001	9.09230E-005	0.00000E+000	8.00922E-005	5.39641E-002	8.81074E-001	3.57280E+000	9	...........
	102	1.37333	8.83442E-001	9.07428E-005	0.00000E+000	8.01660E-005	5.39641E-002	8.83617E-001	3.57280E+000	9	...........
	103	1.38667	8.85920E-001	9.12023E-005	0.00000E+000	8.07979E-005	5.39641E-002	8.86099E-001	3.57280E+000	9	...........
	104	1.4	8.88395E-001	9.09053E-005	0.00000E+000	8.07598E-005	5.39641E-002	8.88594E-001	3.57280E+000	9	...........
	105	1.41333	8.90858E-001	9.10647E-005	0.00000E+000	8.11258E-005	5.39641E-002	8.91021E-001	3.57280E+000	9	...........
	106	1.42667	8.93258E-001	9.08814E-005	0.00000E+000	8.11805E-005	5.39641E-002	8.93443E-001	3.57280E+000	9	...........
	107	1.44	8.95647E-001	9.11679E-005	0.00000E+000	8.16543E-005	5.39641E-002	8.95869E-001	3.57280E+000	9	...........
	108	1.45333	8.98038E-001	9.10074E-005	0.00000E+000	8.17282E-005	5.39641E-002	8.98233E-001	3.57280E+000	9	...........
	109	1.46667	9.00402E-001	9.10668E-005	0.00000E+000	8.19967E-005	5.39641E-002	9.00593E-001	3.57280E+000	9	...........
	110	1.48	9.02721E-001	9.11616E-005	0.00000E+000	8.22935E-005	5.39641E-002	9.02927E-001	3.57280E+000	9	...........
	111	1.49333	9.05012E-001	9.07740E-005	0.00000E+000	8.21516E-005	5.39641E-002	9.05222E-001	3.57280E+000	9	...........
	112	1.50667	9.07299E-001	9.10939E-005	0.00000E+000	8.26494E-005	5.39641E-002	9.07500E-001	3.57280E+000	9	...........
	113	1.52	9.09574E-001	9.08418E-005	0.00000E+000	8.26273E-005	5.39641E-002	9.09739E-001	3.57280E+000	9	...........
	114	1.53333	9.11800E-001	9.09616E-005	0.00000E+000	8.29387E-005	5.39641E-002	9.11970E-001	3.57280E+000	9	...........
	115	1.54667	9.14014E-001	9.08834E-005	0.00000E+000	8.30688E-005	5.39641E-002	9.14204E-001	3.57280E+000	9	...........
	116	1.56	9.16175E-001	9.10845E-005	0.00000E+000	8.34494E-005	5.39641E-002	9.16408E-001	3.57280E+000	9	...........
	117	1.57333	9.18341E-001	9.10116E-005	0.00000E+000	8.35797E-005	5.39641E-002	9.18555E-001	3.57280E+000	9	...........
	118	1.58667	9.20525E-001	9.07897E-005	0.00000E+000	8.35742E-005	5.39641E-002	9.20724E-001	3.57280E+000	9	...........
	119	1.6	9.22674E-001	9.10147E-005	0.00000E+000	8.39769E-005	5.39641E-002	9.22847E-001	3.57280E+000	9	...........
	120	1.61333	9.24758E-001	9.10470E-005	0.00000E+000	8.41965E-005	5.39641E-002	9.24954E-001	3.57280E+000	9	...........
	121	1.62667	9.26845E-001	9.09147E-005	0.00000E+000	8.42639E-005	5.39641E-002	9.27039E-001	3.57280E+000	9	...........
	122	1.64	9.28896E-001	9.10897E-005	0.00000E+000	8.46129E-005	5.39641E-002	9.29092E-001	3.57280E+000	9	...........
	123	1.65333	9.30918E-001	9.08376E-005	0.00000E+000	8.45624E-005	5.39641E-002	9.31115E-001	3.57280E+000	9	...........
	124	1.66667	9.32941E-001	9.11179E-005	0.00000E+000	8.50076E-005	5.39641E-002	9.33153E-001	3.57280E+000	9	...........
	125	1.68	9.34932E-001	9.10418E-005	0.00000E+000	8.51179E-005	5.39641E-002	9.35142E-001	3.57280E+000	9	...........
	126	1.69333	9.36883E-001	9.11095E-005	0.00000E+000	8.53589E-005	5.39641E-002	9.37108E-001	3.57280E+000	9	...........
	127	1.70667	9.38816E-001	9.12314E-005	0.00000E+000	8.56495E-005	5.39641E-002	9.39076E-001	3.57280E+000	9	...........
	128	1.72	9.40765E-001	9.09574E-005	0.00000E+000	8.55696E-005	5.39641E-002	9.40960E-001	3.57280E+000	9	...........
	129	1.73333	9.42660E-001	9.09387E-005	0.00000E+000	8.57242E-005	5.39641E-002	9.42864E-001	3.57280E+000	9	...........
	130	1.74667	9.44538E-001	9.10491E-005	0.00000E+000	8.59993E-005	5.39641E-002	9.44735E-001	3.57280E+000	9	...........
	131	1.76	9.46446E-001	9.11377E-005	0.00000E+000	8.62569E-005	5.39641E-002	9.46670E-001	3.57280E+000	9	...........
	132	1.77333	9.48317E-001	9.10585E-005	0.00000E+000	8.63523E-005	5.39641E-002	9.48491E-001	3.57280E+000	9	...........
	133	1.78667	9.50129E-001	9.12887E-005	0.00000E+000	8.67361E-005	5.39641E-002	9.50321E-001	3.57280E+000	9	...........
	134	1.8	9.51919E-001	9.06876E-005	0.00000E+000	8.63273E-005	5.39641E-002	9.52131E-001	3.57280E+000	9	...........
	135	1.81333	9.53713E-001	9.12210E-005	0.00000E+000	8.69986E-005	5.39641E-002	9.53925E-001	3.57280E+000	9	...........
	136	1.82667	9.55460E-001	9.10491E-005	0.00000E+000	8.69937E-005	5.39641E-002	9.55654E-001	3.57280E+000	9	...........
	137	1.84	9.57189E-001	9.08991E-005	0.00000E+000	8.70076E-005	5.39641E-002	9.57409E-001	3.57280E+000	9	...........
	138	1.85333	9.58928E-001	9.09824E-005	0.00000E+000	8.72456E-005	5.39641E-002	9.59149E-001	3.57280E+000	9	...........
	139	1.86667	9.60614E-001	9.12877E-005	0.00000E+000	8.76922E-005	5.39641E-002	9.60881E-001	3.57280E+000	9	...........
	140	1.88	9.62318E-001	9.10210E-005	0.00000E+000	8.75912E-005	5.39641E-002	9.62554E-001	3.57280E+000	9	...........
	141	1.89333	9.63964E-001	9.11356E-005	0.00000E+000	8.78514E-005	5.39641E-002	9.64221E-001	3.57280E+000	9	...........
	142	1.90667	9.65636E-001	9.11231E-005	0.00000E+000	8.79917E-005	5.39641E-002	9.65865E-001	3.57280E+000	9	...........
	143	1.92	9.67286E-001	9.09730E-005	0.00000E+000	8.79970E-005	5.39641E-002	9.67519E-001	3.57280E+000	9	...........
	144	1.93333	9.68927E-001	9.08678E-005	0.00000E+000	8.80443E-005	5.39641E-002	9.69134E-001	3.57280E+000	9	...........
	145	1.94667	9.70555E-001	9.08834E-005	0.00000E+000	8.82074E-005	5.39641E-002	9.70778E-001	3.57280E+000	9	...........
	146	1.96	9.72154E-001	9.08709E-005	0.00000E+000	8.83406E-005	5.39641E-002	9.72390E-001	3.57280E+000	9	...........
	147	1.97333	9.73793E-001	9.10053E-005	0.00000E+000	8.86203E-005	5.39641E-002	9.73975E-001	3.57280E+000	9	...........
	148	1.98667	9.75346E-001	9.09658E-005	0.00000E+000	8.87231E-005	5.39641E-002	9.75514E-001	3.57280E+000	9	...........
	149	2	9.76865E-001	9.12023E-005	0.00000E+000	8.90923E-005	5.39641E-002	9.77053E-001	3.57280E+000	9	...........
	150	2.01333	9.78359E-001	9.10887E-005	0.00000E+000	8.91175E-005	5.39641E-002	9.78585E-001	3.57280E+000	9	...........
	151	2.02667	9.79890E-001	9.11814E-005	0.00000E+000	8.93477E-005	5.39641E-002	9.80086E-001	3.57280E+000	9	...........
	152	2.04	9.81375E-001	9.12346E-005	0.00000E+000	8.95354E-005	5.39641E-002	9.81588E-001	3.57280E+000	9	...........
	153	2.05333	9.82836E-001	9.09314E-005	0.00000E+000	8.93706E-005	5.39641E-002	9.83046E-001	3.57280E+000	9	...........
	154	2.06667	9.84308E-001	9.09022E-005	0.00000E+000	8.94757E-005	5.39641E-002	9.84517E-001	3.57280E+000	9	...........
	155	2.08	9.85749E-001	9.09178E-005	0.00000E+000	8.96222E-005	5.39641E-002	9.85982E-001	3.57280E+000	9	...........
	156	2.09333	9.87163E-001	9.10762E-005	0.00000E+000	8.99070E-005	5.39641E-002	9.87411E-001	3.57280E+000	9	...........
	157	2.10667	9.88599E-001	9.08709E-005	0.00000E+000	8.98349E-005	5.39641E-002	9.88797E-001	3.57280E+000	9	...........
	158	2.12	9.90022E-001	9.13158E-005	0.00000E+000	9.04047E-005	5.39641E-002	9.90222E-001	3.57280E+000	9	...........
	159	2.13333	9.91393E-001	9.10272E-005	0.00000E+000	9.02437E-005	5.39641E-002	9.91607E-001	3.57280E+000	9	...........
	160	2.14667	9.92761E-001	9.09845E-005	0.00000E+000	9.03259E-005	5.39641E-002	9.92986E-001	3.57280E+000	9	...........
	161	2.16	9.94144E-001	9.10064E-005	0.00000E+000	9.04734E-005	5.39641E-002	9.94354E-001	3.57280E+000	9	...........
	162	2.17333	9.95523E-001	9.09199E-005	0.00000E+000	9.05129E-005	5.39641E-002	9.95700E-001	3.57280E+000	9	...........
	163	2.18667	9.96840E-001	9.10720E-005	0.00000E+000	9.07842E-005	5.39641E-002	9.97064E-001	3.57280E+000	9	...........
	164	2.2	9.98202E-001	9.09783E-005	0.00000E+000	9.08146E-005	5.39641E-002	9.98400E-001	3.57280E+000	9	...........
	165	2.21333	9.99511E-001	9.08470E-005	0.00000E+000	9.08025E-005	5.39641E-002	9.99730E-001	3.57280E+000	9	...........
STARTTIMEOFFSET	QUANT	2675.955	Start Time Offset (s)
