EXPLAIN
TAG	PWR800_CHARGE
TITLE	LABEL	PWR Cyclic Charge Discharge (Cell) - Charge Step	Test &Identifier
DATE	LABEL	10-7-2017	Date
TIME	LABEL	15:31:42	Time
NOTES	NOTES	3	&Notes...
	supercap test cell
	0.9mg
	6M KOH
PSTAT	PSTAT	IFC5000-01520	Potentiostat
CAPACITY	QUANT	1.00000E-003	Capacity (A-hr)
CELLTYPE	SELECTOR	1	&Cell Type
WORKINGCONNECTION	SELECTOR	0	&Working Lead
MAXCHARGETIME	VARIABLEANDUNITS	1.00000E+002	s	1.00000E+002	second(s)	Max &Charge Time
CHARGECURRENT	QUANT	9.00000E-005	&Charge Current (A) 
VOLTAGEFINISH	TWOPARAM	F	1.00000E-003	3.60000E+003	&Voltage Finish	 I (A) < 	Max Time(s)
SAMPLETIME	QUANT	1.00000E-002	Sa&mple Period (s)
CHARGESTOPAT1	MULTIPARAM	4	1.00000E+000	Charge Stop At &1	Voltage > Limit	V
CHARGESTOPAT2	MULTIPARAM	0	0.00000E+000	Charge Stop At &2	None	N/A
AESBHCSELECTOR	TOGGLE	F	Save Both Half Cells
IRCOMP	TOGGLE	F	IR &Measure
EOC	QUANT	0	Open Circuit (V)
SEQUENCER	TOGGLE	TRUE	Run as Sequence
PSTATMODEL	IQUANT	53	Pstat Model
PSTATSECTION	LABEL	IFC5000-01520	Pstat Section
PSTATSERIALNO	LABEL	01520	Pstat Serial Number
CTRLMODE	IQUANT	0	Control Mode
ELECTROMETER	IQUANT	1	RE=0 or CS=1
IESTAB	IQUANT	0	I/E Stability
CASPEED	IQUANT	4	Control Amp Speed
CONVENTION	IQUANT	1	Current Convention
ICHRANGE	IQUANT	2	Ich Range
ICHRANGEMODE	TOGGLE	T	Ich Auto Range
ICHOFFSETENABLE	TOGGLE	F	Ich Offset Enable
ICHOFFSET	QUANT	0	Ich Offset (V)
ICHFILTER	IQUANT	1	Ich Filter
VCHRANGE	IQUANT	2	Vch Range
VCHRANGEMODE	TOGGLE	T	Vch Auto Range
VCHOFFSETENABLE	TOGGLE	F	Vch Offset Enable
VCHOFFSET	QUANT	0	Vch Offset (V)
VCHFILTER	IQUANT	1	Vch Filter
IERANGELOWERLIMIT	IQUANT	9	I/E Range Lower Limit
IERANGEMODE	TOGGLE	F	I/E AutoRange
IERANGE	IQUANT	9	I/E Range
ACHSELECT	IQUANT	1	Ach Select
ACHRANGE	IQUANT	2	Ach Range
ACHOFFSETENABLE	TOGGLE	F	Ach Offset Enable
ACHOFFSET	QUANT	0	Ach Offset (V)
ACHFILTER	IQUANT	1	Ach Filter
CABLEID	IQUANT	14	Cable ID
DCCALDATE	LABEL	5-7-2017	DC Calibration Date
ACCALDATE	LABEL	12/3/2015	AC Calibration Date
FRAMEWORKVERSION	QUANT	7.01	Framework Version
INSTRUMENTVERSION	LABEL	4.00	Instrument Version
CURVE	TABLE	173
	Pt	T	Vf	Im	Vu	Pwr	Sig	Ach	Temp	IERange	Over
	#	s	V	A	V	W	V	V	deg C	#	bits
	0	0.013333	2.80166E-001	9.10637E-005	0.00000E+000	2.55130E-005	5.39641E-002	2.80206E-001	3.57270E+000	9	...........
	1	0.026667	2.99731E-001	9.09282E-005	0.00000E+000	2.72540E-005	5.39641E-002	2.99762E-001	3.57270E+000	9	...........
	2	0.04	3.17907E-001	9.10168E-005	0.00000E+000	2.89349E-005	5.39641E-002	3.17942E-001	3.57270E+000	9	...........
	3	0.053333	3.34902E-001	9.08803E-005	0.00000E+000	3.04360E-005	5.39641E-002	3.34943E-001	3.57270E+000	9	...........
	4	0.066667	3.50900E-001	9.10512E-005	0.00000E+000	3.19498E-005	5.39641E-002	3.50935E-001	3.57270E+000	9	...........
	5	0.08	3.66008E-001	9.08105E-005	0.00000E+000	3.32374E-005	5.39641E-002	3.66048E-001	3.57270E+000	9	...........
	6	0.093333	3.80335E-001	9.11543E-005	0.00000E+000	3.46692E-005	5.39641E-002	3.80377E-001	3.57270E+000	9	...........
	7	0.106667	3.93957E-001	9.09345E-005	0.00000E+000	3.58243E-005	5.39641E-002	3.94002E-001	3.57270E+000	9	...........
	8	0.12	4.06960E-001	9.08126E-005	0.00000E+000	3.69571E-005	5.39641E-002	4.07005E-001	3.57270E+000	9	...........
	9	0.133333	4.19391E-001	9.09324E-005	0.00000E+000	3.81362E-005	5.39641E-002	4.19441E-001	3.57270E+000	9	...........
	10	0.146667	4.31293E-001	9.11845E-005	0.00000E+000	3.93273E-005	5.39641E-002	4.31344E-001	3.57270E+000	9	...........
	11	0.16	4.42711E-001	9.09428E-005	0.00000E+000	4.02614E-005	5.39641E-002	4.42770E-001	3.57270E+000	9	...........
	12	0.173333	4.53703E-001	9.10929E-005	0.00000E+000	4.13291E-005	5.39641E-002	4.53759E-001	3.57270E+000	9	...........
	13	0.186667	4.64287E-001	9.09032E-005	0.00000E+000	4.22052E-005	5.39641E-002	4.64346E-001	3.57270E+000	9	...........
	14	0.2	4.74499E-001	9.09470E-005	0.00000E+000	4.31543E-005	5.39641E-002	4.74561E-001	3.57270E+000	9	...........
	15	0.213333	4.84363E-001	9.12429E-005	0.00000E+000	4.41947E-005	5.39641E-002	4.84423E-001	3.57270E+000	9	...........
	16	0.226667	4.93897E-001	9.09970E-005	0.00000E+000	4.49431E-005	5.39641E-002	4.93958E-001	3.57270E+000	9	...........
	17	0.24	5.03122E-001	9.08303E-005	0.00000E+000	4.56987E-005	5.39641E-002	5.03186E-001	3.57270E+000	9	...........
	18	0.253333	5.12070E-001	9.10033E-005	0.00000E+000	4.66001E-005	5.39641E-002	5.12138E-001	3.57270E+000	9	...........
	19	0.266667	5.20753E-001	9.10324E-005	0.00000E+000	4.74054E-005	5.39641E-002	5.20821E-001	3.57270E+000	9	...........
	20	0.28	5.29163E-001	9.10126E-005	0.00000E+000	4.81605E-005	5.39641E-002	5.29232E-001	3.57270E+000	9	...........
	21	0.293333	5.37261E-001	9.13054E-005	0.00000E+000	4.90548E-005	5.39641E-002	5.37331E-001	3.57270E+000	9	...........
	22	0.306667	5.45217E-001	9.10189E-005	0.00000E+000	4.96250E-005	5.39641E-002	5.45297E-001	3.57270E+000	9	...........
	23	0.32	5.52953E-001	9.11502E-005	0.00000E+000	5.04018E-005	5.39641E-002	5.53045E-001	3.57270E+000	9	...........
	24	0.333333	5.60479E-001	9.08439E-005	0.00000E+000	5.09160E-005	5.39641E-002	5.60579E-001	3.57270E+000	9	...........
	25	0.346667	5.67853E-001	9.08949E-005	0.00000E+000	5.16149E-005	5.39641E-002	5.67950E-001	3.57270E+000	9	...........
	26	0.36	5.75014E-001	9.09126E-005	0.00000E+000	5.22760E-005	5.39641E-002	5.75101E-001	3.57270E+000	9	...........
	27	0.373333	5.81999E-001	9.11585E-005	0.00000E+000	5.30542E-005	5.39641E-002	5.82105E-001	3.57270E+000	9	...........
	28	0.386667	5.88827E-001	9.09137E-005	0.00000E+000	5.35324E-005	5.39641E-002	5.88913E-001	3.57270E+000	9	...........
	29	0.4	5.95487E-001	9.08386E-005	0.00000E+000	5.40932E-005	5.39641E-002	5.95580E-001	3.57270E+000	9	...........
	30	0.413333	6.01989E-001	9.10647E-005	0.00000E+000	5.48200E-005	5.39641E-002	6.02046E-001	3.57270E+000	9	...........
	31	0.426667	6.08312E-001	9.10283E-005	0.00000E+000	5.53736E-005	5.39641E-002	6.08387E-001	3.57270E+000	9	...........
	32	0.44	6.14607E-001	9.09262E-005	0.00000E+000	5.58839E-005	5.39641E-002	6.14656E-001	3.57270E+000	9	...........
	33	0.453333	6.20726E-001	9.10616E-005	0.00000E+000	5.65243E-005	5.39641E-002	6.20771E-001	3.57270E+000	9	...........
	34	0.466667	6.26668E-001	9.09147E-005	0.00000E+000	5.69733E-005	5.39641E-002	6.26737E-001	3.57307E+000	9	...........
	35	0.48	6.32500E-001	9.09220E-005	0.00000E+000	5.75082E-005	5.39641E-002	6.32571E-001	3.57330E+000	9	...........
	36	0.493333	6.38230E-001	9.12700E-005	0.00000E+000	5.82512E-005	5.39641E-002	6.38327E-001	3.57330E+000	9	...........
	37	0.506667	6.43868E-001	9.10522E-005	0.00000E+000	5.86256E-005	5.39641E-002	6.43964E-001	3.57330E+000	9	...........
	38	0.52	6.49350E-001	9.11199E-005	0.00000E+000	5.91688E-005	5.39641E-002	6.49476E-001	3.57330E+000	9	...........
	39	0.533333	6.54796E-001	9.11241E-005	0.00000E+000	5.96677E-005	5.39641E-002	6.54891E-001	3.57330E+000	9	...........
	40	0.546667	6.60075E-001	9.10137E-005	0.00000E+000	6.00759E-005	5.39641E-002	6.60184E-001	3.57330E+000	9	...........
	41	0.56	6.65299E-001	9.10720E-005	0.00000E+000	6.05901E-005	5.39641E-002	6.65427E-001	3.57330E+000	9	...........
	42	0.573333	6.70435E-001	9.11731E-005	0.00000E+000	6.11257E-005	5.39641E-002	6.70533E-001	3.57330E+000	9	...........
	43	0.586667	6.75457E-001	9.11991E-005	0.00000E+000	6.16011E-005	5.39641E-002	6.75548E-001	3.57330E+000	9	...........
	44	0.6	6.80365E-001	9.08126E-005	0.00000E+000	6.17857E-005	5.39641E-002	6.80478E-001	3.57330E+000	9	...........
	45	0.613333	6.85208E-001	9.12366E-005	0.00000E+000	6.25161E-005	5.39641E-002	6.85343E-001	3.57330E+000	9	...........
	46	0.626667	6.89970E-001	9.09335E-005	0.00000E+000	6.27414E-005	5.39641E-002	6.90094E-001	3.57330E+000	9	...........
	47	0.64	6.94677E-001	9.09064E-005	0.00000E+000	6.31506E-005	5.39641E-002	6.94798E-001	3.57330E+000	9	...........
	48	0.653333	6.99301E-001	9.10178E-005	0.00000E+000	6.36489E-005	5.39641E-002	6.99440E-001	3.57330E+000	9	...........
	49	0.666667	7.03845E-001	9.10856E-005	0.00000E+000	6.41102E-005	5.39641E-002	7.03978E-001	3.57330E+000	9	...........
	50	0.68	7.08317E-001	9.12960E-005	0.00000E+000	6.46665E-005	5.39641E-002	7.08473E-001	3.57330E+000	9	...........
	51	0.693333	7.12727E-001	9.11679E-005	0.00000E+000	6.49778E-005	5.39641E-002	7.12865E-001	3.57330E+000	9	...........
	52	0.706667	7.17099E-001	9.08678E-005	0.00000E+000	6.51612E-005	5.39641E-002	7.17245E-001	3.57330E+000	9	...........
	53	0.72	7.21436E-001	9.10283E-005	0.00000E+000	6.56710E-005	5.39641E-002	7.21554E-001	3.57330E+000	9	...........
	54	0.733333	7.25630E-001	9.10762E-005	0.00000E+000	6.60876E-005	5.39641E-002	7.25754E-001	3.57330E+000	9	...........
	55	0.746667	7.29794E-001	9.09532E-005	0.00000E+000	6.63771E-005	5.39641E-002	7.29939E-001	3.57330E+000	9	...........
	56	0.76	7.33918E-001	9.10876E-005	0.00000E+000	6.68508E-005	5.39641E-002	7.34039E-001	3.57330E+000	9	...........
	57	0.773333	7.37938E-001	9.12450E-005	0.00000E+000	6.73331E-005	5.39641E-002	7.38073E-001	3.57330E+000	9	...........
	58	0.786667	7.41952E-001	9.09324E-005	0.00000E+000	6.74675E-005	5.39641E-002	7.42066E-001	3.57330E+000	9	...........
	59	0.8	7.45886E-001	9.09699E-005	0.00000E+000	6.78532E-005	5.39641E-002	7.45983E-001	3.57330E+000	9	...........
	60	0.813333	7.49752E-001	9.09835E-005	0.00000E+000	6.82151E-005	5.39641E-002	7.49855E-001	3.57330E+000	9	...........
	61	0.826667	7.53589E-001	9.10387E-005	0.00000E+000	6.86057E-005	5.39641E-002	7.53709E-001	3.57330E+000	9	...........
	62	0.84	7.57408E-001	9.09824E-005	0.00000E+000	6.89108E-005	5.39641E-002	7.57506E-001	3.57330E+000	9	...........
	63	0.853333	7.61135E-001	9.11147E-005	0.00000E+000	6.93506E-005	5.39641E-002	7.61226E-001	3.57330E+000	9	...........
	64	0.866667	7.64814E-001	9.10929E-005	0.00000E+000	6.96691E-005	5.39641E-002	7.64935E-001	3.57330E+000	9	...........
	65	0.88	7.68455E-001	9.08782E-005	0.00000E+000	6.98359E-005	5.39641E-002	7.68595E-001	3.57330E+000	9	...........
	66	0.893333	7.72062E-001	9.11356E-005	0.00000E+000	7.03623E-005	5.39641E-002	7.72192E-001	3.57330E+000	9	...........
	67	0.906667	7.75636E-001	9.10199E-005	0.00000E+000	7.05983E-005	5.39641E-002	7.75779E-001	3.57330E+000	9	...........
	68	0.92	7.79187E-001	9.09595E-005	0.00000E+000	7.08744E-005	5.39641E-002	7.79326E-001	3.57330E+000	9	...........
	69	0.933333	7.82692E-001	9.10960E-005	0.00000E+000	7.13001E-005	5.39641E-002	7.82842E-001	3.57330E+000	9	...........
	70	0.946667	7.86101E-001	9.07803E-005	0.00000E+000	7.13625E-005	5.39641E-002	7.86241E-001	3.57330E+000	9	...........
	71	0.96	7.89512E-001	9.10376E-005	0.00000E+000	7.18753E-005	5.39641E-002	7.89641E-001	3.57330E+000	9	...........
	72	0.97333	7.92856E-001	9.11804E-005	0.00000E+000	7.22929E-005	5.39641E-002	7.93030E-001	3.57330E+000	9	...........
	73	0.98667	7.96201E-001	9.10418E-005	0.00000E+000	7.24875E-005	5.39641E-002	7.96340E-001	3.57330E+000	9	...........
	74	1	7.99479E-001	9.13262E-005	0.00000E+000	7.30134E-005	5.39641E-002	7.99600E-001	3.57330E+000	9	...........
	75	1.01333	8.02723E-001	9.08845E-005	0.00000E+000	7.29551E-005	5.39641E-002	8.02850E-001	3.57330E+000	9	...........
	76	1.02667	8.05894E-001	9.08772E-005	0.00000E+000	7.32374E-005	5.39641E-002	8.06042E-001	3.57330E+000	9	...........
	77	1.04	8.09047E-001	9.09960E-005	0.00000E+000	7.36200E-005	5.39641E-002	8.09178E-001	3.57330E+000	9	...........
	78	1.05333	8.12150E-001	9.06667E-005	0.00000E+000	7.36350E-005	5.39641E-002	8.12302E-001	3.57330E+000	9	...........
	79	1.06667	8.15223E-001	9.12877E-005	0.00000E+000	7.44198E-005	5.39641E-002	8.15383E-001	3.57330E+000	9	...........
	80	1.08	8.18271E-001	9.09605E-005	0.00000E+000	7.44304E-005	5.39641E-002	8.18456E-001	3.57330E+000	9	...........
	81	1.09333	8.21343E-001	9.09668E-005	0.00000E+000	7.47149E-005	5.39641E-002	8.21512E-001	3.57330E+000	9	...........
	82	1.10667	8.24342E-001	9.10939E-005	0.00000E+000	7.50926E-005	5.39641E-002	8.24525E-001	3.57330E+000	9	...........
	83	1.12	8.27292E-001	9.09084E-005	0.00000E+000	7.52078E-005	5.39641E-002	8.27467E-001	3.57330E+000	9	...........
	84	1.13333	8.30241E-001	9.09532E-005	0.00000E+000	7.55131E-005	5.39641E-002	8.30395E-001	3.57330E+000	9	...........
	85	1.14667	8.33131E-001	9.10616E-005	0.00000E+000	7.58662E-005	5.39641E-002	8.33317E-001	3.57330E+000	9	...........
	86	1.16	8.35989E-001	9.10481E-005	0.00000E+000	7.61152E-005	5.39641E-002	8.36182E-001	3.57330E+000	9	...........
	87	1.17333	8.38815E-001	9.09314E-005	0.00000E+000	7.62746E-005	5.39641E-002	8.39005E-001	3.57330E+000	9	...........
	88	1.18667	8.41644E-001	9.12679E-005	0.00000E+000	7.68150E-005	5.39641E-002	8.41807E-001	3.57330E+000	9	...........
	89	1.2	8.44451E-001	9.11523E-005	0.00000E+000	7.69736E-005	5.39641E-002	8.44638E-001	3.57330E+000	9	...........
	90	1.21333	8.47211E-001	9.11220E-005	0.00000E+000	7.71996E-005	5.39641E-002	8.47400E-001	3.57330E+000	9	...........
	91	1.22667	8.49967E-001	9.11262E-005	0.00000E+000	7.74542E-005	5.39641E-002	8.50126E-001	3.57330E+000	9	...........
	92	1.24	8.52657E-001	9.10501E-005	0.00000E+000	7.76345E-005	5.39641E-002	8.52833E-001	3.57330E+000	9	...........
	93	1.25333	8.55349E-001	9.10856E-005	0.00000E+000	7.79099E-005	5.39641E-002	8.55519E-001	3.57330E+000	9	...........
	94	1.26667	8.57972E-001	9.10512E-005	0.00000E+000	7.81194E-005	5.39641E-002	8.58176E-001	3.57330E+000	9	...........
	95	1.28	8.60616E-001	9.11543E-005	0.00000E+000	7.84489E-005	5.39641E-002	8.60782E-001	3.57330E+000	9	...........
	96	1.29333	8.63185E-001	9.08126E-005	0.00000E+000	7.83881E-005	5.39641E-002	8.63382E-001	3.57330E+000	9	...........
	97	1.30667	8.65736E-001	9.08772E-005	0.00000E+000	7.86757E-005	5.39641E-002	8.65926E-001	3.57330E+000	9	...........
	98	1.32	8.68306E-001	9.10845E-005	0.00000E+000	7.90893E-005	5.39641E-002	8.68467E-001	3.57330E+000	9	...........
	99	1.33333	8.70871E-001	9.10564E-005	0.00000E+000	7.92984E-005	5.39641E-002	8.71016E-001	3.57330E+000	9	...........
	100	1.34667	8.73353E-001	9.09928E-005	0.00000E+000	7.94689E-005	5.39641E-002	8.73518E-001	3.57330E+000	9	...........
	101	1.36	8.75815E-001	9.11397E-005	0.00000E+000	7.98216E-005	5.39641E-002	8.76001E-001	3.57330E+000	9	...........
	102	1.37333	8.78271E-001	9.11095E-005	0.00000E+000	8.00189E-005	5.39641E-002	8.78454E-001	3.57330E+000	9	...........
	103	1.38667	8.80679E-001	9.11658E-005	0.00000E+000	8.02878E-005	5.39641E-002	8.80881E-001	3.57330E+000	9	...........
	104	1.4	8.83100E-001	9.10970E-005	0.00000E+000	8.04478E-005	5.39641E-002	8.83303E-001	3.57330E+000	9	...........
	105	1.41333	8.85471E-001	9.08887E-005	0.00000E+000	8.04793E-005	5.39641E-002	8.85688E-001	3.57330E+000	9	...........
	106	1.42667	8.87841E-001	9.10564E-005	0.00000E+000	8.08436E-005	5.39641E-002	8.88059E-001	3.57330E+000	9	...........
	107	1.44	8.90190E-001	9.09783E-005	0.00000E+000	8.09880E-005	5.39641E-002	8.90378E-001	3.57330E+000	9	...........
	108	1.45333	8.92478E-001	9.09043E-005	0.00000E+000	8.11300E-005	5.39641E-002	8.92702E-001	3.57330E+000	9	...........
	109	1.46667	8.94788E-001	9.10762E-005	0.00000E+000	8.14939E-005	5.39641E-002	8.94998E-001	3.57274E+000	9	...........
	110	1.48	8.97061E-001	9.11564E-005	0.00000E+000	8.17728E-005	5.39641E-002	8.97240E-001	3.57240E+000	9	...........
	111	1.49333	8.99271E-001	9.12867E-005	0.00000E+000	8.20915E-005	5.39641E-002	8.99464E-001	3.57240E+000	9	...........
	112	1.50667	9.01481E-001	9.10668E-005	0.00000E+000	8.20950E-005	5.39641E-002	9.01668E-001	3.57240E+000	9	...........
	113	1.52	9.03647E-001	9.10074E-005	0.00000E+000	8.22386E-005	5.39641E-002	9.03834E-001	3.57240E+000	9	...........
	114	1.53333	9.05832E-001	9.10637E-005	0.00000E+000	8.24884E-005	5.39641E-002	9.05975E-001	3.57240E+000	9	...........
	115	1.54667	9.07974E-001	9.10949E-005	0.00000E+000	8.27119E-005	5.39641E-002	9.08105E-001	3.57240E+000	9	...........
	116	1.56	9.10138E-001	9.12950E-005	0.00000E+000	8.30910E-005	5.39641E-002	9.10264E-001	3.57240E+000	9	...........
	117	1.57333	9.12236E-001	9.11064E-005	0.00000E+000	8.31105E-005	5.39641E-002	9.12380E-001	3.57240E+000	9	...........
	118	1.58667	9.14328E-001	9.12929E-005	0.00000E+000	8.34717E-005	5.39641E-002	9.14490E-001	3.57240E+000	9	...........
	119	1.6	9.16391E-001	9.11012E-005	0.00000E+000	8.34844E-005	5.39641E-002	9.16570E-001	3.57240E+000	9	...........
	120	1.61333	9.18425E-001	9.11220E-005	0.00000E+000	8.36887E-005	5.39641E-002	9.18619E-001	3.57240E+000	9	...........
	121	1.62667	9.20490E-001	9.12273E-005	0.00000E+000	8.39738E-005	5.39641E-002	9.20637E-001	3.57240E+000	9	...........
	122	1.64	9.22531E-001	9.10491E-005	0.00000E+000	8.39956E-005	5.39641E-002	9.22683E-001	3.57240E+000	9	...........
	123	1.65333	9.24516E-001	9.11345E-005	0.00000E+000	8.42553E-005	5.39641E-002	9.24668E-001	3.57240E+000	9	...........
	124	1.66667	9.26463E-001	9.11637E-005	0.00000E+000	8.44598E-005	5.39641E-002	9.26653E-001	3.57240E+000	9	...........
	125	1.68	9.28420E-001	9.11668E-005	0.00000E+000	8.46411E-005	5.39641E-002	9.28588E-001	3.57240E+000	9	...........
	126	1.69333	9.30360E-001	9.10491E-005	0.00000E+000	8.47085E-005	5.39641E-002	9.30502E-001	3.57240E+000	9	...........
	127	1.70667	9.32247E-001	9.10033E-005	0.00000E+000	8.48375E-005	5.39641E-002	9.32429E-001	3.57240E+000	9	...........
	128	1.72	9.34125E-001	9.10428E-005	0.00000E+000	8.50454E-005	5.39641E-002	9.34318E-001	3.57240E+000	9	...........
	129	1.73333	9.35979E-001	9.10158E-005	0.00000E+000	8.51888E-005	5.39641E-002	9.36163E-001	3.57240E+000	9	...........
	130	1.74667	9.37816E-001	9.11502E-005	0.00000E+000	8.54820E-005	5.39641E-002	9.37997E-001	3.57240E+000	9	...........
	131	1.76	9.39615E-001	9.08928E-005	0.00000E+000	8.54043E-005	5.39641E-002	9.39803E-001	3.57240E+000	9	...........
	132	1.77333	9.41423E-001	9.11033E-005	0.00000E+000	8.57667E-005	5.39641E-002	9.41609E-001	3.57240E+000	9	...........
	133	1.78667	9.43211E-001	9.13794E-005	0.00000E+000	8.61901E-005	5.39641E-002	9.43400E-001	3.57240E+000	9	...........
	134	1.8	9.44972E-001	9.11210E-005	0.00000E+000	8.61068E-005	5.39641E-002	9.45154E-001	3.57240E+000	9	...........
	135	1.81333	9.46761E-001	9.12002E-005	0.00000E+000	8.63448E-005	5.39641E-002	9.46948E-001	3.57240E+000	9	...........
	136	1.82667	9.48464E-001	9.11012E-005	0.00000E+000	8.64062E-005	5.39641E-002	9.48670E-001	3.57240E+000	9	...........
	137	1.84	9.50168E-001	9.12408E-005	0.00000E+000	8.66941E-005	5.39641E-002	9.50371E-001	3.57240E+000	9	...........
	138	1.85333	9.51863E-001	9.08439E-005	0.00000E+000	8.64709E-005	5.39641E-002	9.52096E-001	3.57240E+000	9	...........
	139	1.86667	9.53541E-001	9.11043E-005	0.00000E+000	8.68717E-005	5.39641E-002	9.53758E-001	3.57240E+000	9	...........
	140	1.88	9.55221E-001	9.09532E-005	0.00000E+000	8.68804E-005	5.39641E-002	9.55410E-001	3.57240E+000	9	...........
	141	1.89333	9.56866E-001	9.10679E-005	0.00000E+000	8.71398E-005	5.39641E-002	9.57078E-001	3.57240E+000	9	...........
	142	1.90667	9.58491E-001	9.11700E-005	0.00000E+000	8.73856E-005	5.39641E-002	9.58710E-001	3.57240E+000	9	...........
	143	1.92	9.60133E-001	9.08272E-005	0.00000E+000	8.72061E-005	5.39641E-002	9.60348E-001	3.57240E+000	9	...........
	144	1.93333	9.61737E-001	9.08699E-005	0.00000E+000	8.73929E-005	5.39641E-002	9.61960E-001	3.57240E+000	9	...........
	145	1.94667	9.63305E-001	9.10720E-005	0.00000E+000	8.77301E-005	5.39641E-002	9.63540E-001	3.57240E+000	9	...........
	146	1.96	9.64841E-001	9.13242E-005	0.00000E+000	8.81132E-005	5.39641E-002	9.65074E-001	3.57240E+000	9	...........
	147	1.97333	9.66404E-001	9.07324E-005	0.00000E+000	8.76841E-005	5.39641E-002	9.66600E-001	3.57240E+000	9	...........
	148	1.98667	9.67923E-001	9.08418E-005	0.00000E+000	8.79278E-005	5.39641E-002	9.68130E-001	3.57240E+000	9	...........
	149	2	9.69438E-001	9.09762E-005	0.00000E+000	8.81958E-005	5.39641E-002	9.69656E-001	3.57240E+000	9	...........
	150	2.01333	9.70955E-001	9.09084E-005	0.00000E+000	8.82680E-005	5.39641E-002	9.71173E-001	3.57240E+000	9	...........
	151	2.02667	9.72473E-001	9.09428E-005	0.00000E+000	8.84395E-005	5.39641E-002	9.72670E-001	3.57240E+000	9	...........
	152	2.04	9.74000E-001	9.11752E-005	0.00000E+000	8.88046E-005	5.39641E-002	9.74171E-001	3.57240E+000	9	...........
	153	2.05333	9.75446E-001	9.10918E-005	0.00000E+000	8.88551E-005	5.39641E-002	9.75624E-001	3.57240E+000	9	...........
	154	2.06667	9.76876E-001	9.09407E-005	0.00000E+000	8.88378E-005	5.39641E-002	9.77065E-001	3.57240E+000	9	...........
	155	2.08	9.78287E-001	9.10720E-005	0.00000E+000	8.90946E-005	5.39641E-002	9.78489E-001	3.57240E+000	9	...........
	156	2.09333	9.79725E-001	9.09949E-005	0.00000E+000	8.91500E-005	5.39641E-002	9.79896E-001	3.57240E+000	9	...........
	157	2.10667	9.81125E-001	9.11054E-005	0.00000E+000	8.93858E-005	5.39641E-002	9.81311E-001	3.57240E+000	9	...........
	158	2.12	9.82512E-001	9.08126E-005	0.00000E+000	8.92245E-005	5.39641E-002	9.82706E-001	3.57240E+000	9	...........
	159	2.13333	9.83889E-001	9.10053E-005	0.00000E+000	8.95391E-005	5.39641E-002	9.84087E-001	3.57240E+000	9	...........
	160	2.14667	9.85257E-001	9.10887E-005	0.00000E+000	8.97458E-005	5.39641E-002	9.85446E-001	3.57240E+000	9	...........
	161	2.16	9.86584E-001	9.11918E-005	0.00000E+000	8.99684E-005	5.39641E-002	9.86776E-001	3.57240E+000	9	...........
	162	2.17333	9.87898E-001	9.10918E-005	0.00000E+000	8.99894E-005	5.39641E-002	9.88112E-001	3.57240E+000	9	...........
	163	2.18667	9.89223E-001	9.09126E-005	0.00000E+000	8.99329E-005	5.39641E-002	9.89392E-001	3.57240E+000	9	...........
	164	2.2	9.90509E-001	9.08814E-005	0.00000E+000	9.00188E-005	5.39641E-002	9.90700E-001	3.57240E+000	9	...........
	165	2.21333	9.91784E-001	9.10408E-005	0.00000E+000	9.02928E-005	5.39641E-002	9.91972E-001	3.57240E+000	9	...........
	166	2.22667	9.93071E-001	9.10970E-005	0.00000E+000	9.04658E-005	5.39641E-002	9.93252E-001	3.57240E+000	9	...........
	167	2.24	9.94353E-001	9.12658E-005	0.00000E+000	9.07504E-005	5.39641E-002	9.94516E-001	3.57240E+000	9	...........
	168	2.25333	9.95641E-001	9.09835E-005	0.00000E+000	9.05868E-005	5.39641E-002	9.95785E-001	3.57240E+000	9	...........
	169	2.26667	9.96877E-001	9.06834E-005	0.00000E+000	9.04002E-005	5.39641E-002	9.97082E-001	3.57240E+000	9	...........
	170	2.28	9.98167E-001	9.12971E-005	0.00000E+000	9.11297E-005	5.39641E-002	9.98362E-001	3.57240E+000	9	...........
	171	2.29333	9.99365E-001	9.12971E-005	0.00000E+000	9.12391E-005	5.39641E-002	9.99590E-001	3.57240E+000	9	...........
	172	2.295	1.00002E+000	9.11543E-005	0.00000E+000	9.11558E-005	5.39641E-002	1.00028E+000	3.57240E+000	9	...........
STARTTIMEOFFSET	QUANT	1644.379	Start Time Offset (s)
