EXPLAIN
TAG	PWR800_CHARGE
TITLE	LABEL	PWR Cyclic Charge Discharge (Cell) - Charge Step	Test &Identifier
DATE	LABEL	10-7-2017	Date
TIME	LABEL	14:59:57	Time
NOTES	NOTES	3	&Notes...
	supercap test cell
	0.9mg
	6M KOH
PSTAT	PSTAT	IFC5000-01520	Potentiostat
CAPACITY	QUANT	1.00000E-003	Capacity (A-hr)
CELLTYPE	SELECTOR	1	&Cell Type
WORKINGCONNECTION	SELECTOR	0	&Working Lead
MAXCHARGETIME	VARIABLEANDUNITS	1.00000E+002	s	1.00000E+002	second(s)	Max &Charge Time
CHARGECURRENT	QUANT	9.00000E-005	&Charge Current (A) 
VOLTAGEFINISH	TWOPARAM	F	1.00000E-003	3.60000E+003	&Voltage Finish	 I (A) < 	Max Time(s)
SAMPLETIME	QUANT	1.00000E-002	Sa&mple Period (s)
CHARGESTOPAT1	MULTIPARAM	4	1.00000E+000	Charge Stop At &1	Voltage > Limit	V
CHARGESTOPAT2	MULTIPARAM	0	0.00000E+000	Charge Stop At &2	None	N/A
AESBHCSELECTOR	TOGGLE	F	Save Both Half Cells
IRCOMP	TOGGLE	F	IR &Measure
EOC	QUANT	0	Open Circuit (V)
SEQUENCER	TOGGLE	TRUE	Run as Sequence
PSTATMODEL	IQUANT	53	Pstat Model
PSTATSECTION	LABEL	IFC5000-01520	Pstat Section
PSTATSERIALNO	LABEL	01520	Pstat Serial Number
CTRLMODE	IQUANT	0	Control Mode
ELECTROMETER	IQUANT	1	RE=0 or CS=1
IESTAB	IQUANT	0	I/E Stability
CASPEED	IQUANT	4	Control Amp Speed
CONVENTION	IQUANT	1	Current Convention
ICHRANGE	IQUANT	2	Ich Range
ICHRANGEMODE	TOGGLE	T	Ich Auto Range
ICHOFFSETENABLE	TOGGLE	F	Ich Offset Enable
ICHOFFSET	QUANT	0	Ich Offset (V)
ICHFILTER	IQUANT	1	Ich Filter
VCHRANGE	IQUANT	2	Vch Range
VCHRANGEMODE	TOGGLE	T	Vch Auto Range
VCHOFFSETENABLE	TOGGLE	F	Vch Offset Enable
VCHOFFSET	QUANT	0	Vch Offset (V)
VCHFILTER	IQUANT	1	Vch Filter
IERANGELOWERLIMIT	IQUANT	9	I/E Range Lower Limit
IERANGEMODE	TOGGLE	F	I/E AutoRange
IERANGE	IQUANT	9	I/E Range
ACHSELECT	IQUANT	1	Ach Select
ACHRANGE	IQUANT	2	Ach Range
ACHOFFSETENABLE	TOGGLE	F	Ach Offset Enable
ACHOFFSET	QUANT	0	Ach Offset (V)
ACHFILTER	IQUANT	1	Ach Filter
CABLEID	IQUANT	14	Cable ID
DCCALDATE	LABEL	5-7-2017	DC Calibration Date
ACCALDATE	LABEL	12/3/2015	AC Calibration Date
FRAMEWORKVERSION	QUANT	7.01	Framework Version
INSTRUMENTVERSION	LABEL	4.00	Instrument Version
CURVE	TABLE	226
	Pt	T	Vf	Im	Vu	Pwr	Sig	Ach	Temp	IERange	Over
	#	s	V	A	V	W	V	V	deg C	#	bits
	0	0.013333	3.01372E-001	9.11752E-005	0.00000E+000	2.74776E-005	5.39641E-002	3.01411E-001	3.57090E+000	9	...........
	1	0.026667	3.19211E-001	9.12898E-005	0.00000E+000	2.91407E-005	5.39641E-002	3.19237E-001	3.57090E+000	9	...........
	2	0.04	3.35557E-001	9.11137E-005	0.00000E+000	3.05738E-005	5.39641E-002	3.35586E-001	3.57090E+000	9	...........
	3	0.053333	3.50733E-001	9.10241E-005	0.00000E+000	3.19251E-005	5.39641E-002	3.50756E-001	3.57090E+000	9	...........
	4	0.066667	3.64916E-001	9.13856E-005	0.00000E+000	3.33481E-005	5.39641E-002	3.64943E-001	3.57090E+000	9	...........
	5	0.08	3.78277E-001	9.11564E-005	0.00000E+000	3.44824E-005	5.39641E-002	3.78304E-001	3.57090E+000	9	...........
	6	0.093333	3.90929E-001	9.11272E-005	0.00000E+000	3.56243E-005	5.39641E-002	3.90961E-001	3.57090E+000	9	...........
	7	0.106667	4.02966E-001	9.12971E-005	0.00000E+000	3.67897E-005	5.39641E-002	4.02998E-001	3.57090E+000	9	...........
	8	0.12	4.14462E-001	9.15513E-005	0.00000E+000	3.79445E-005	5.39641E-002	4.14498E-001	3.57090E+000	9	...........
	9	0.133333	4.25462E-001	9.11752E-005	0.00000E+000	3.87916E-005	5.39641E-002	4.25501E-001	3.57090E+000	9	...........
	10	0.146667	4.36028E-001	9.13752E-005	0.00000E+000	3.98422E-005	5.39641E-002	4.36062E-001	3.57090E+000	9	...........
	11	0.16	4.46192E-001	9.11752E-005	0.00000E+000	4.06816E-005	5.39641E-002	4.46232E-001	3.57090E+000	9	...........
	12	0.173333	4.55987E-001	9.10293E-005	0.00000E+000	4.15082E-005	5.39641E-002	4.56026E-001	3.57090E+000	9	...........
	13	0.186667	4.65453E-001	9.10356E-005	0.00000E+000	4.23727E-005	5.39641E-002	4.65487E-001	3.57090E+000	9	...........
	14	0.2	4.74603E-001	9.13481E-005	0.00000E+000	4.33541E-005	5.39641E-002	4.74642E-001	3.57090E+000	9	...........
	15	0.213333	4.83466E-001	9.12106E-005	0.00000E+000	4.40972E-005	5.39641E-002	4.83504E-001	3.57090E+000	9	...........
	16	0.226667	4.92065E-001	9.14096E-005	0.00000E+000	4.49794E-005	5.39641E-002	4.92102E-001	3.57090E+000	9	...........
	17	0.24	5.00397E-001	9.13294E-005	0.00000E+000	4.57009E-005	5.39641E-002	5.00443E-001	3.57090E+000	9	...........
	18	0.253333	5.08505E-001	9.14002E-005	0.00000E+000	4.64775E-005	5.39641E-002	5.08549E-001	3.57090E+000	9	...........
	19	0.266667	5.16381E-001	9.10199E-005	0.00000E+000	4.70009E-005	5.39641E-002	5.16428E-001	3.57090E+000	9	...........
	20	0.28	5.24061E-001	9.10897E-005	0.00000E+000	4.77365E-005	5.39641E-002	5.24107E-001	3.57090E+000	9	...........
	21	0.293333	5.31536E-001	9.13867E-005	0.00000E+000	4.85753E-005	5.39641E-002	5.31581E-001	3.57090E+000	9	...........
	22	0.306667	5.38833E-001	9.13783E-005	0.00000E+000	4.92377E-005	5.39641E-002	5.38894E-001	3.57090E+000	9	...........
	23	0.32	5.45947E-001	9.12429E-005	0.00000E+000	4.98138E-005	5.39641E-002	5.45996E-001	3.57090E+000	9	...........
	24	0.333333	5.52864E-001	9.11950E-005	0.00000E+000	5.04185E-005	5.39641E-002	5.52935E-001	3.57090E+000	9	...........
	25	0.346667	5.59622E-001	9.12325E-005	0.00000E+000	5.10557E-005	5.39641E-002	5.59677E-001	3.57090E+000	9	...........
	26	0.36	5.66254E-001	9.13200E-005	0.00000E+000	5.17104E-005	5.39641E-002	5.66315E-001	3.57090E+000	9	...........
	27	0.373333	5.72704E-001	9.10283E-005	0.00000E+000	5.21323E-005	5.39641E-002	5.72776E-001	3.57090E+000	9	...........
	28	0.386667	5.79014E-001	9.14367E-005	0.00000E+000	5.29431E-005	5.39641E-002	5.79085E-001	3.57090E+000	9	...........
	29	0.4	5.85194E-001	9.10814E-005	0.00000E+000	5.33003E-005	5.39641E-002	5.85265E-001	3.57090E+000	9	...........
	30	0.413333	5.91252E-001	9.10866E-005	0.00000E+000	5.38552E-005	5.39641E-002	5.91321E-001	3.57090E+000	9	...........
	31	0.426667	5.97140E-001	9.10606E-005	0.00000E+000	5.43759E-005	5.39641E-002	5.97205E-001	3.57090E+000	9	...........
	32	0.44	6.02909E-001	9.13377E-005	0.00000E+000	5.50683E-005	5.39641E-002	6.02998E-001	3.57090E+000	9	...........
	33	0.453333	6.08583E-001	9.13523E-005	0.00000E+000	5.55954E-005	5.39641E-002	6.08651E-001	3.57090E+000	9	...........
	34	0.466667	6.14150E-001	9.14169E-005	0.00000E+000	5.61436E-005	5.39641E-002	6.14251E-001	3.57090E+000	9	...........
	35	0.48	6.19635E-001	9.11491E-005	0.00000E+000	5.64792E-005	5.39641E-002	6.19692E-001	3.57090E+000	9	...........
	36	0.493333	6.24971E-001	9.12710E-005	0.00000E+000	5.70418E-005	5.39641E-002	6.25008E-001	3.57090E+000	9	...........
	37	0.506667	6.30174E-001	9.10220E-005	0.00000E+000	5.73597E-005	5.39641E-002	6.30263E-001	3.57090E+000	9	...........
	38	0.52	6.35282E-001	9.12596E-005	0.00000E+000	5.79756E-005	5.39641E-002	6.35348E-001	3.57090E+000	9	...........
	39	0.533333	6.40359E-001	9.10178E-005	0.00000E+000	5.82841E-005	5.39641E-002	6.40407E-001	3.57090E+000	9	...........
	40	0.546667	6.45295E-001	9.13763E-005	0.00000E+000	5.89646E-005	5.39641E-002	6.45337E-001	3.57090E+000	9	...........
	41	0.56	6.50119E-001	9.12700E-005	0.00000E+000	5.93364E-005	5.39641E-002	6.50172E-001	3.57090E+000	9	...........
	42	0.573333	6.54875E-001	9.12658E-005	0.00000E+000	5.97677E-005	5.39641E-002	6.54921E-001	3.57090E+000	9	...........
	43	0.586667	6.59556E-001	9.13200E-005	0.00000E+000	6.02307E-005	5.39641E-002	6.59584E-001	3.57090E+000	9	...........
	44	0.6	6.64151E-001	9.11523E-005	0.00000E+000	6.05388E-005	5.39641E-002	6.64209E-001	3.57090E+000	9	...........
	45	0.613333	6.68690E-001	9.11470E-005	0.00000E+000	6.09491E-005	5.39641E-002	6.68735E-001	3.57090E+000	9	...........
	46	0.626667	6.73100E-001	9.13710E-005	0.00000E+000	6.15019E-005	5.39641E-002	6.73144E-001	3.57090E+000	9	...........
	47	0.64	6.77464E-001	9.12971E-005	0.00000E+000	6.18505E-005	5.39641E-002	6.77502E-001	3.57090E+000	9	...........
	48	0.653333	6.81738E-001	9.11762E-005	0.00000E+000	6.21583E-005	5.39641E-002	6.81774E-001	3.57090E+000	9	...........
	49	0.666667	6.85927E-001	9.12846E-005	0.00000E+000	6.26146E-005	5.39641E-002	6.85990E-001	3.57090E+000	9	...........
	50	0.68	6.90061E-001	9.13096E-005	0.00000E+000	6.30092E-005	5.39641E-002	6.90134E-001	3.57090E+000	9	...........
	51	0.693333	6.94158E-001	9.12783E-005	0.00000E+000	6.33616E-005	5.39641E-002	6.94198E-001	3.57090E+000	9	...........
	52	0.706667	6.98152E-001	9.12981E-005	0.00000E+000	6.37400E-005	5.39641E-002	6.98215E-001	3.57090E+000	9	...........
	53	0.72	7.02097E-001	9.13117E-005	0.00000E+000	6.41097E-005	5.39641E-002	7.02144E-001	3.57090E+000	9	...........
	54	0.733333	7.05990E-001	9.11481E-005	0.00000E+000	6.43496E-005	5.39641E-002	7.06046E-001	3.57090E+000	9	...........
	55	0.746667	7.09792E-001	9.10481E-005	0.00000E+000	6.46252E-005	5.39641E-002	7.09850E-001	3.57090E+000	9	...........
	56	0.76	7.13538E-001	9.12387E-005	0.00000E+000	6.51023E-005	5.39641E-002	7.13601E-001	3.57090E+000	9	...........
	57	0.773333	7.17259E-001	9.12366E-005	0.00000E+000	6.54403E-005	5.39641E-002	7.17338E-001	3.57090E+000	9	...........
	58	0.786667	7.20898E-001	9.12971E-005	0.00000E+000	6.58159E-005	5.39641E-002	7.20956E-001	3.57090E+000	9	...........
	59	0.8	7.24487E-001	9.12450E-005	0.00000E+000	6.61058E-005	5.39641E-002	7.24526E-001	3.57186E+000	9	...........
	60	0.813333	7.28014E-001	9.12012E-005	0.00000E+000	6.63958E-005	5.39641E-002	7.28038E-001	3.57200E+000	9	...........
	61	0.826667	7.31497E-001	9.12241E-005	0.00000E+000	6.67302E-005	5.39641E-002	7.31553E-001	3.57200E+000	9	...........
	62	0.84	7.34911E-001	9.11158E-005	0.00000E+000	6.69619E-005	5.39641E-002	7.34959E-001	3.57200E+000	9	...........
	63	0.853333	7.38291E-001	9.13398E-005	0.00000E+000	6.74353E-005	5.39641E-002	7.38349E-001	3.57200E+000	9	...........
	64	0.866667	7.41624E-001	9.12012E-005	0.00000E+000	6.76370E-005	5.39641E-002	7.41703E-001	3.57200E+000	9	...........
	65	0.88	7.44915E-001	9.12919E-005	0.00000E+000	6.80047E-005	5.39641E-002	7.45005E-001	3.57200E+000	9	...........
	66	0.893333	7.48170E-001	9.13137E-005	0.00000E+000	6.83182E-005	5.39641E-002	7.48233E-001	3.57200E+000	9	...........
	67	0.906667	7.51337E-001	9.11877E-005	0.00000E+000	6.85126E-005	5.39641E-002	7.51411E-001	3.57200E+000	9	...........
	68	0.92	7.54520E-001	9.13638E-005	0.00000E+000	6.89358E-005	5.39641E-002	7.54565E-001	3.57200E+000	9	...........
	69	0.933333	7.57618E-001	9.12658E-005	0.00000E+000	6.91446E-005	5.39641E-002	7.57670E-001	3.57200E+000	9	...........
	70	0.946667	7.60659E-001	9.13085E-005	0.00000E+000	6.94546E-005	5.39641E-002	7.60726E-001	3.57200E+000	9	...........
	71	0.96	7.63709E-001	9.12283E-005	0.00000E+000	6.96718E-005	5.39641E-002	7.63757E-001	3.57200E+000	9	...........
	72	0.97333	7.66685E-001	9.08918E-005	0.00000E+000	6.96853E-005	5.39641E-002	7.66777E-001	3.57200E+000	9	...........
	73	0.98667	7.69627E-001	9.12002E-005	0.00000E+000	7.01901E-005	5.39641E-002	7.69730E-001	3.57200E+000	9	...........
	74	1	7.72522E-001	9.11595E-005	0.00000E+000	7.04227E-005	5.39641E-002	7.72617E-001	3.57200E+000	9	...........
	75	1.01333	7.75407E-001	9.12919E-005	0.00000E+000	7.07883E-005	5.39641E-002	7.75464E-001	3.57200E+000	9	...........
	76	1.02667	7.78229E-001	9.14773E-005	0.00000E+000	7.11903E-005	5.39641E-002	7.78295E-001	3.57200E+000	9	...........
	77	1.04	7.81033E-001	9.09616E-005	0.00000E+000	7.10440E-005	5.39641E-002	7.81095E-001	3.57200E+000	9	...........
	78	1.05333	7.83762E-001	9.12679E-005	0.00000E+000	7.15323E-005	5.39641E-002	7.83839E-001	3.57200E+000	9	...........
	79	1.06667	7.86490E-001	9.11814E-005	0.00000E+000	7.17132E-005	5.39641E-002	7.86549E-001	3.57200E+000	9	...........
	80	1.08	7.89161E-001	9.12627E-005	0.00000E+000	7.20209E-005	5.39641E-002	7.89237E-001	3.57200E+000	9	...........
	81	1.09333	7.91784E-001	9.12325E-005	0.00000E+000	7.22364E-005	5.39641E-002	7.91905E-001	3.57200E+000	9	...........
	82	1.10667	7.94470E-001	9.09314E-005	0.00000E+000	7.22422E-005	5.39641E-002	7.94527E-001	3.57200E+000	9	...........
	83	1.12	7.97038E-001	9.10408E-005	0.00000E+000	7.25630E-005	5.39641E-002	7.97102E-001	3.57200E+000	9	...........
	84	1.13333	7.99618E-001	9.14617E-005	0.00000E+000	7.31344E-005	5.39641E-002	7.99653E-001	3.57200E+000	9	...........
	85	1.14667	8.02153E-001	9.11814E-005	0.00000E+000	7.31414E-005	5.39641E-002	8.02196E-001	3.57200E+000	9	...........
	86	1.16	8.04644E-001	9.11054E-005	0.00000E+000	7.33074E-005	5.39641E-002	8.04711E-001	3.57200E+000	9	...........
	87	1.17333	8.07123E-001	9.09699E-005	0.00000E+000	7.34240E-005	5.39641E-002	8.07158E-001	3.57200E+000	9	...........
	88	1.18667	8.09526E-001	9.10949E-005	0.00000E+000	7.37437E-005	5.39641E-002	8.09571E-001	3.57200E+000	9	...........
	89	1.2	8.11928E-001	9.13502E-005	0.00000E+000	7.41698E-005	5.39641E-002	8.12005E-001	3.57200E+000	9	...........
	90	1.21333	8.14311E-001	9.11950E-005	0.00000E+000	7.42611E-005	5.39641E-002	8.14418E-001	3.57200E+000	9	...........
	91	1.22667	8.16685E-001	9.12721E-005	0.00000E+000	7.45405E-005	5.39641E-002	8.16771E-001	3.57200E+000	9	...........
	92	1.24	8.19049E-001	9.12835E-005	0.00000E+000	7.47657E-005	5.39641E-002	8.19140E-001	3.57200E+000	9	...........
	93	1.25333	8.21368E-001	9.11387E-005	0.00000E+000	7.48584E-005	5.39641E-002	8.21446E-001	3.57200E+000	9	...........
	94	1.26667	8.23615E-001	9.12908E-005	0.00000E+000	7.51885E-005	5.39641E-002	8.23723E-001	3.57200E+000	9	...........
	95	1.28	8.25890E-001	9.13158E-005	0.00000E+000	7.54169E-005	5.39641E-002	8.25988E-001	3.57200E+000	9	...........
	96	1.29333	8.28134E-001	9.11200E-005	0.00000E+000	7.54595E-005	5.39641E-002	8.28218E-001	3.57200E+000	9	...........
	97	1.30667	8.30347E-001	9.13544E-005	0.00000E+000	7.58558E-005	5.39641E-002	8.30440E-001	3.57200E+000	9	...........
	98	1.32	8.32563E-001	9.14679E-005	0.00000E+000	7.61528E-005	5.39641E-002	8.32685E-001	3.57200E+000	9	...........
	99	1.33333	8.34737E-001	9.11179E-005	0.00000E+000	7.60595E-005	5.39641E-002	8.34855E-001	3.57200E+000	9	...........
	100	1.34667	8.36866E-001	9.11564E-005	0.00000E+000	7.62857E-005	5.39641E-002	8.37006E-001	3.57200E+000	9	...........
	101	1.36	8.39004E-001	9.11752E-005	0.00000E+000	7.64963E-005	5.39641E-002	8.39114E-001	3.57200E+000	9	...........
	102	1.37333	8.41110E-001	9.10981E-005	0.00000E+000	7.66235E-005	5.39641E-002	8.41226E-001	3.57200E+000	9	...........
	103	1.38667	8.43214E-001	9.10991E-005	0.00000E+000	7.68161E-005	5.39641E-002	8.43332E-001	3.57200E+000	9	...........
	104	1.4	8.45325E-001	9.12398E-005	0.00000E+000	7.71273E-005	5.39641E-002	8.45433E-001	3.57200E+000	9	...........
	105	1.41333	8.47343E-001	9.13315E-005	0.00000E+000	7.73891E-005	5.39641E-002	8.47470E-001	3.57200E+000	9	...........
	106	1.42667	8.49374E-001	9.12293E-005	0.00000E+000	7.74878E-005	5.39641E-002	8.49497E-001	3.57200E+000	9	...........
	107	1.44	8.51390E-001	9.13429E-005	0.00000E+000	7.77684E-005	5.39641E-002	8.51512E-001	3.57200E+000	9	...........
	108	1.45333	8.53349E-001	9.11887E-005	0.00000E+000	7.78158E-005	5.39641E-002	8.53494E-001	3.57200E+000	9	...........
	109	1.46667	8.55328E-001	9.11845E-005	0.00000E+000	7.79927E-005	5.39641E-002	8.55463E-001	3.57200E+000	9	...........
	110	1.48	8.57301E-001	9.15117E-005	0.00000E+000	7.84530E-005	5.39641E-002	8.57453E-001	3.57200E+000	9	...........
	111	1.49333	8.59248E-001	9.14117E-005	0.00000E+000	7.85453E-005	5.39641E-002	8.59408E-001	3.57200E+000	9	...........
	112	1.50667	8.61167E-001	9.10668E-005	0.00000E+000	7.84238E-005	5.39641E-002	8.61322E-001	3.57200E+000	9	...........
	113	1.52	8.63047E-001	9.11043E-005	0.00000E+000	7.86273E-005	5.39641E-002	8.63196E-001	3.57200E+000	9	...........
	114	1.53333	8.64934E-001	9.13127E-005	0.00000E+000	7.89794E-005	5.39641E-002	8.65086E-001	3.57200E+000	9	...........
	115	1.54667	8.66798E-001	9.14492E-005	0.00000E+000	7.92680E-005	5.39641E-002	8.66932E-001	3.57200E+000	9	...........
	116	1.56	8.68654E-001	9.12064E-005	0.00000E+000	7.92268E-005	5.39641E-002	8.68784E-001	3.57200E+000	9	...........
	117	1.57333	8.70484E-001	9.11773E-005	0.00000E+000	7.93684E-005	5.39641E-002	8.70619E-001	3.57200E+000	9	...........
	118	1.58667	8.72269E-001	9.11898E-005	0.00000E+000	7.95420E-005	5.39641E-002	8.72406E-001	3.57200E+000	9	...........
	119	1.6	8.74066E-001	9.13023E-005	0.00000E+000	7.98042E-005	5.39641E-002	8.74192E-001	3.57200E+000	9	...........
	120	1.61333	8.75821E-001	9.11710E-005	0.00000E+000	7.98495E-005	5.39641E-002	8.75981E-001	3.57200E+000	9	...........
	121	1.62667	8.77586E-001	9.11898E-005	0.00000E+000	8.00268E-005	5.39641E-002	8.77709E-001	3.57200E+000	9	...........
	122	1.64	8.79313E-001	9.12439E-005	0.00000E+000	8.02319E-005	5.39641E-002	8.79422E-001	3.57200E+000	9	...........
	123	1.65333	8.81033E-001	9.13127E-005	0.00000E+000	8.04495E-005	5.39641E-002	8.81153E-001	3.57200E+000	9	...........
	124	1.66667	8.82748E-001	9.13242E-005	0.00000E+000	8.06162E-005	5.39641E-002	8.82874E-001	3.57200E+000	9	...........
	125	1.68	8.84475E-001	9.12752E-005	0.00000E+000	8.07306E-005	5.39641E-002	8.84569E-001	3.57200E+000	9	...........
	126	1.69333	8.86144E-001	9.13398E-005	0.00000E+000	8.09402E-005	5.39641E-002	8.86258E-001	3.57200E+000	9	...........
	127	1.70667	8.87803E-001	9.10845E-005	0.00000E+000	8.08651E-005	5.39641E-002	8.87939E-001	3.57200E+000	9	...........
	128	1.72	8.89475E-001	9.10856E-005	0.00000E+000	8.10183E-005	5.39641E-002	8.89578E-001	3.57200E+000	9	...........
	129	1.73333	8.91096E-001	9.11773E-005	0.00000E+000	8.12477E-005	5.39641E-002	8.91219E-001	3.57200E+000	9	...........
	130	1.74667	8.92714E-001	9.14086E-005	0.00000E+000	8.16017E-005	5.39641E-002	8.92835E-001	3.57200E+000	9	...........
	131	1.76	8.94307E-001	9.12481E-005	0.00000E+000	8.16038E-005	5.39641E-002	8.94430E-001	3.57200E+000	9	...........
	132	1.77333	8.95913E-001	9.13429E-005	0.00000E+000	8.18353E-005	5.39641E-002	8.96044E-001	3.57200E+000	9	...........
	133	1.78667	8.97464E-001	9.13002E-005	0.00000E+000	8.19387E-005	5.39641E-002	8.97605E-001	3.57200E+000	9	...........
	134	1.8	8.99029E-001	9.11991E-005	0.00000E+000	8.19906E-005	5.39641E-002	8.99159E-001	3.57078E+000	9	...........
	135	1.81333	9.00558E-001	9.09449E-005	0.00000E+000	8.19012E-005	5.39641E-002	9.00685E-001	3.57060E+000	9	...........
	136	1.82667	9.02096E-001	9.12887E-005	0.00000E+000	8.23512E-005	5.39641E-002	9.02249E-001	3.57060E+000	9	...........
	137	1.84	9.03623E-001	9.12752E-005	0.00000E+000	8.24783E-005	5.39641E-002	9.03782E-001	3.57060E+000	9	...........
	138	1.85333	9.05118E-001	9.14523E-005	0.00000E+000	8.27752E-005	5.39641E-002	9.05290E-001	3.57060E+000	9	...........
	139	1.86667	9.06620E-001	9.11220E-005	0.00000E+000	8.26131E-005	5.39641E-002	9.06769E-001	3.57060E+000	9	...........
	140	1.88	9.08116E-001	9.09293E-005	0.00000E+000	8.25743E-005	5.39641E-002	9.08272E-001	3.57060E+000	9	...........
	141	1.89333	9.09570E-001	9.12012E-005	0.00000E+000	8.29539E-005	5.39641E-002	9.09719E-001	3.57060E+000	9	...........
	142	1.90667	9.11044E-001	9.12648E-005	0.00000E+000	8.31463E-005	5.39641E-002	9.11167E-001	3.57060E+000	9	...........
	143	1.92	9.12461E-001	9.11106E-005	0.00000E+000	8.31349E-005	5.39641E-002	9.12624E-001	3.57060E+000	9	...........
	144	1.93333	9.13918E-001	9.13408E-005	0.00000E+000	8.34780E-005	5.39641E-002	9.14075E-001	3.57060E+000	9	...........
	145	1.94667	9.15350E-001	9.14513E-005	0.00000E+000	8.37099E-005	5.39641E-002	9.15492E-001	3.57060E+000	9	...........
	146	1.96	9.16757E-001	9.11158E-005	0.00000E+000	8.35310E-005	5.39641E-002	9.16907E-001	3.57060E+000	9	...........
	147	1.97333	9.18128E-001	9.13867E-005	0.00000E+000	8.39047E-005	5.39641E-002	9.18317E-001	3.57060E+000	9	...........
	148	1.98667	9.19529E-001	9.13325E-005	0.00000E+000	8.39829E-005	5.39641E-002	9.19667E-001	3.57060E+000	9	...........
	149	2	9.20956E-001	9.13690E-005	0.00000E+000	8.41467E-005	5.39641E-002	9.21074E-001	3.57060E+000	9	...........
	150	2.01333	9.22329E-001	9.11168E-005	0.00000E+000	8.40396E-005	5.39641E-002	9.22420E-001	3.57060E+000	9	...........
	151	2.02667	9.23658E-001	9.12627E-005	0.00000E+000	8.42955E-005	5.39641E-002	9.23764E-001	3.57060E+000	9	...........
	152	2.04	9.24986E-001	9.11804E-005	0.00000E+000	8.43406E-005	5.39641E-002	9.25105E-001	3.57060E+000	9	...........
	153	2.05333	9.26315E-001	9.10689E-005	0.00000E+000	8.43585E-005	5.39641E-002	9.26427E-001	3.57060E+000	9	...........
	154	2.06667	9.27625E-001	9.12064E-005	0.00000E+000	8.46054E-005	5.39641E-002	9.27772E-001	3.57060E+000	9	...........
	155	2.08	9.28940E-001	9.11908E-005	0.00000E+000	8.47108E-005	5.39641E-002	9.29049E-001	3.57060E+000	9	...........
	156	2.09333	9.30220E-001	9.14325E-005	0.00000E+000	8.50524E-005	5.39641E-002	9.30345E-001	3.57060E+000	9	...........
	157	2.10667	9.31508E-001	9.13981E-005	0.00000E+000	8.51381E-005	5.39641E-002	9.31648E-001	3.57060E+000	9	...........
	158	2.12	9.32764E-001	9.11116E-005	0.00000E+000	8.49856E-005	5.39641E-002	9.32919E-001	3.57060E+000	9	...........
	159	2.13333	9.34047E-001	9.13179E-005	0.00000E+000	8.52952E-005	5.39641E-002	9.34207E-001	3.57060E+000	9	...........
	160	2.14667	9.35318E-001	9.12804E-005	0.00000E+000	8.53762E-005	5.39641E-002	9.35482E-001	3.57060E+000	9	...........
	161	2.16	9.36561E-001	9.11147E-005	0.00000E+000	8.53345E-005	5.39641E-002	9.36728E-001	3.57060E+000	9	...........
	162	2.17333	9.37816E-001	9.12554E-005	0.00000E+000	8.55807E-005	5.39641E-002	9.37960E-001	3.57060E+000	9	...........
	163	2.18667	9.39043E-001	9.13315E-005	0.00000E+000	8.57642E-005	5.39641E-002	9.39208E-001	3.57060E+000	9	...........
	164	2.2	9.40268E-001	9.13387E-005	0.00000E+000	8.58829E-005	5.39641E-002	9.40439E-001	3.57060E+000	9	...........
	165	2.21333	9.41492E-001	9.13419E-005	0.00000E+000	8.59976E-005	5.39641E-002	9.41634E-001	3.57060E+000	9	...........
	166	2.22667	9.42717E-001	9.11470E-005	0.00000E+000	8.59259E-005	5.39641E-002	9.42834E-001	3.57060E+000	9	...........
	167	2.24	9.43914E-001	9.11085E-005	0.00000E+000	8.59986E-005	5.39641E-002	9.44035E-001	3.57060E+000	9	...........
	168	2.25333	9.45068E-001	9.13148E-005	0.00000E+000	8.62987E-005	5.39641E-002	9.45215E-001	3.57060E+000	9	...........
	169	2.26667	9.46271E-001	9.12137E-005	0.00000E+000	8.63129E-005	5.39641E-002	9.46433E-001	3.57060E+000	9	...........
	170	2.28	9.47477E-001	9.13460E-005	0.00000E+000	8.65482E-005	5.39641E-002	9.47598E-001	3.57060E+000	9	...........
	171	2.29333	9.48612E-001	9.13565E-005	0.00000E+000	8.66618E-005	5.39641E-002	9.48741E-001	3.57060E+000	9	...........
	172	2.30667	9.49756E-001	9.11585E-005	0.00000E+000	8.65784E-005	5.39641E-002	9.49883E-001	3.57060E+000	9	...........
	173	2.32	9.50888E-001	9.11272E-005	0.00000E+000	8.66518E-005	5.39641E-002	9.51026E-001	3.57060E+000	9	...........
	174	2.33333	9.52021E-001	9.13356E-005	0.00000E+000	8.69534E-005	5.39641E-002	9.52135E-001	3.57060E+000	9	...........
	175	2.34667	9.53129E-001	9.12231E-005	0.00000E+000	8.69474E-005	5.39641E-002	9.53246E-001	3.57060E+000	9	...........
	176	2.36	9.54250E-001	9.11283E-005	0.00000E+000	8.69592E-005	5.39641E-002	9.54304E-001	3.57060E+000	9	...........
	177	2.37333	9.55346E-001	9.12908E-005	0.00000E+000	8.72143E-005	5.39641E-002	9.55420E-001	3.57060E+000	9	...........
	178	2.38667	9.56452E-001	9.12700E-005	0.00000E+000	8.72954E-005	5.39641E-002	9.56520E-001	3.57060E+000	9	...........
	179	2.4	9.57534E-001	9.11325E-005	0.00000E+000	8.72624E-005	5.39641E-002	9.57606E-001	3.57060E+000	9	...........
	180	2.41333	9.58592E-001	9.12304E-005	0.00000E+000	8.74527E-005	5.39641E-002	9.58679E-001	3.57060E+000	9	...........
	181	2.42667	9.59664E-001	9.12523E-005	0.00000E+000	8.75715E-005	5.39641E-002	9.59761E-001	3.57060E+000	9	...........
	182	2.44	9.60735E-001	9.12960E-005	0.00000E+000	8.77113E-005	5.39641E-002	9.60856E-001	3.57060E+000	9	...........
	183	2.45333	9.61771E-001	9.13648E-005	0.00000E+000	8.78720E-005	5.39641E-002	9.61919E-001	3.57060E+000	9	...........
	184	2.46667	9.62822E-001	9.12887E-005	0.00000E+000	8.78948E-005	5.39641E-002	9.62950E-001	3.57060E+000	9	...........
	185	2.48	9.63866E-001	9.12939E-005	0.00000E+000	8.79952E-005	5.39641E-002	9.63995E-001	3.57060E+000	9	...........
	186	2.49333	9.64881E-001	9.13856E-005	0.00000E+000	8.81762E-005	5.39641E-002	9.65018E-001	3.57060E+000	9	...........
	187	2.50667	9.65898E-001	9.10658E-005	0.00000E+000	8.79603E-005	5.39641E-002	9.66036E-001	3.57060E+000	9	...........
	188	2.52	9.66914E-001	9.14877E-005	0.00000E+000	8.84608E-005	5.39641E-002	9.67036E-001	3.57060E+000	9	...........
	189	2.53333	9.67928E-001	9.13273E-005	0.00000E+000	8.83982E-005	5.39641E-002	9.68045E-001	3.57060E+000	9	...........
	190	2.54667	9.68896E-001	9.11220E-005	0.00000E+000	8.82878E-005	5.39641E-002	9.69039E-001	3.57060E+000	9	...........
	191	2.56	9.69879E-001	9.12867E-005	0.00000E+000	8.85370E-005	5.39641E-002	9.70018E-001	3.57060E+000	9	...........
	192	2.57333	9.70870E-001	9.12116E-005	0.00000E+000	8.85547E-005	5.39641E-002	9.71020E-001	3.57060E+000	9	...........
	193	2.58667	9.71821E-001	9.12085E-005	0.00000E+000	8.86383E-005	5.39641E-002	9.72011E-001	3.57060E+000	9	...........
	194	2.6	9.72853E-001	9.09491E-005	0.00000E+000	8.84801E-005	5.39641E-002	9.72979E-001	3.57060E+000	9	...........
	195	2.61333	9.73814E-001	9.14429E-005	0.00000E+000	8.90484E-005	5.39641E-002	9.73953E-001	3.57060E+000	9	...........
	196	2.62667	9.74754E-001	9.10606E-005	0.00000E+000	8.87617E-005	5.39641E-002	9.74925E-001	3.57060E+000	9	...........
	197	2.64	9.75722E-001	9.13440E-005	0.00000E+000	8.91263E-005	5.39641E-002	9.75869E-001	3.57060E+000	9	...........
	198	2.65333	9.76651E-001	9.11022E-005	0.00000E+000	8.89751E-005	5.39641E-002	9.76823E-001	3.57060E+000	9	...........
	199	2.66667	9.77569E-001	9.13575E-005	0.00000E+000	8.93083E-005	5.39641E-002	9.77755E-001	3.57060E+000	9	...........
	200	2.68	9.78526E-001	9.10960E-005	0.00000E+000	8.91398E-005	5.39641E-002	9.78683E-001	3.57060E+000	9	...........
	201	2.69333	9.79456E-001	9.10147E-005	0.00000E+000	8.91449E-005	5.39641E-002	9.79596E-001	3.57060E+000	9	...........
	202	2.70667	9.80372E-001	9.13575E-005	0.00000E+000	8.95644E-005	5.39641E-002	9.80500E-001	3.57060E+000	9	...........
	203	2.72	9.81280E-001	9.11752E-005	0.00000E+000	8.94684E-005	5.39641E-002	9.81415E-001	3.57060E+000	9	...........
	204	2.73333	9.82173E-001	9.13648E-005	0.00000E+000	8.97361E-005	5.39641E-002	9.82302E-001	3.57060E+000	9	...........
	205	2.74667	9.83078E-001	9.13012E-005	0.00000E+000	8.97563E-005	5.39641E-002	9.83219E-001	3.57060E+000	9	...........
	206	2.76	9.83954E-001	9.10220E-005	0.00000E+000	8.95615E-005	5.39641E-002	9.84091E-001	3.57060E+000	9	...........
	207	2.77333	9.84823E-001	9.13137E-005	0.00000E+000	8.99279E-005	5.39641E-002	9.84975E-001	3.57060E+000	9	...........
	208	2.78667	9.85717E-001	9.11991E-005	0.00000E+000	8.98965E-005	5.39641E-002	9.85860E-001	3.57060E+000	9	...........
	209	2.8	9.86559E-001	9.11189E-005	0.00000E+000	8.98941E-005	5.39641E-002	9.86721E-001	3.57069E+000	9	...........
	210	2.81333	9.87428E-001	9.12106E-005	0.00000E+000	9.00639E-005	5.39641E-002	9.87581E-001	3.57070E+000	9	...........
	211	2.82667	9.88289E-001	9.12887E-005	0.00000E+000	9.02197E-005	5.39641E-002	9.88449E-001	3.57070E+000	9	...........
	212	2.84	9.89151E-001	9.13367E-005	0.00000E+000	9.03457E-005	5.39641E-002	9.89296E-001	3.57070E+000	9	...........
	213	2.85333	9.90002E-001	9.14284E-005	0.00000E+000	9.05143E-005	5.39641E-002	9.90135E-001	3.57070E+000	9	...........
	214	2.86667	9.90825E-001	9.12648E-005	0.00000E+000	9.04274E-005	5.39641E-002	9.90964E-001	3.57070E+000	9	...........
	215	2.88	9.91642E-001	9.13950E-005	0.00000E+000	9.06311E-005	5.39641E-002	9.91791E-001	3.57070E+000	9	...........
	216	2.89333	9.92452E-001	9.11418E-005	0.00000E+000	9.04539E-005	5.39641E-002	9.92602E-001	3.57070E+000	9	...........
	217	2.90667	9.93246E-001	9.14086E-005	0.00000E+000	9.07912E-005	5.39641E-002	9.93417E-001	3.57070E+000	9	...........
	218	2.92	9.94068E-001	9.14148E-005	0.00000E+000	9.08725E-005	5.39641E-002	9.94261E-001	3.57070E+000	9	...........
	219	2.93333	9.94910E-001	9.11637E-005	0.00000E+000	9.06997E-005	5.39641E-002	9.95065E-001	3.57070E+000	9	...........
	220	2.94667	9.95707E-001	9.13762E-005	0.00000E+000	9.09840E-005	5.39641E-002	9.95875E-001	3.57070E+000	9	...........
	221	2.96	9.96492E-001	9.12596E-005	0.00000E+000	9.09394E-005	5.39641E-002	9.96660E-001	3.57070E+000	9	...........
	222	2.97333	9.97300E-001	9.11762E-005	0.00000E+000	9.09300E-005	5.39641E-002	9.97502E-001	3.57070E+000	9	...........
	223	2.98667	9.98157E-001	9.12919E-005	0.00000E+000	9.11236E-005	5.39641E-002	9.98312E-001	3.57070E+000	9	...........
	224	3	9.98944E-001	9.10168E-005	0.00000E+000	9.09207E-005	5.39641E-002	9.99129E-001	3.57070E+000	9	...........
	225	3.01167	9.99712E-001	9.12139E-005	0.00000E+000	9.11876E-005	5.39641E-002	9.99867E-001	3.57070E+000	9	...........
STARTTIMEOFFSET	QUANT	33.475	Start Time Offset (s)
