EXPLAIN
TAG	PWR800_CHARGE
TITLE	LABEL	PWR Cyclic Charge Discharge (Cell) - Charge Step	Test &Identifier
DATE	LABEL	10-7-2017	Date
TIME	LABEL	15:00:03	Time
NOTES	NOTES	3	&Notes...
	supercap test cell
	0.9mg
	6M KOH
PSTAT	PSTAT	IFC5000-01520	Potentiostat
CAPACITY	QUANT	1.00000E-003	Capacity (A-hr)
CELLTYPE	SELECTOR	1	&Cell Type
WORKINGCONNECTION	SELECTOR	0	&Working Lead
MAXCHARGETIME	VARIABLEANDUNITS	1.00000E+002	s	1.00000E+002	second(s)	Max &Charge Time
CHARGECURRENT	QUANT	9.00000E-005	&Charge Current (A) 
VOLTAGEFINISH	TWOPARAM	F	1.00000E-003	3.60000E+003	&Voltage Finish	 I (A) < 	Max Time(s)
SAMPLETIME	QUANT	1.00000E-002	Sa&mple Period (s)
CHARGESTOPAT1	MULTIPARAM	4	1.00000E+000	Charge Stop At &1	Voltage > Limit	V
CHARGESTOPAT2	MULTIPARAM	0	0.00000E+000	Charge Stop At &2	None	N/A
AESBHCSELECTOR	TOGGLE	F	Save Both Half Cells
IRCOMP	TOGGLE	F	IR &Measure
EOC	QUANT	0	Open Circuit (V)
SEQUENCER	TOGGLE	TRUE	Run as Sequence
PSTATMODEL	IQUANT	53	Pstat Model
PSTATSECTION	LABEL	IFC5000-01520	Pstat Section
PSTATSERIALNO	LABEL	01520	Pstat Serial Number
CTRLMODE	IQUANT	0	Control Mode
ELECTROMETER	IQUANT	1	RE=0 or CS=1
IESTAB	IQUANT	0	I/E Stability
CASPEED	IQUANT	4	Control Amp Speed
CONVENTION	IQUANT	1	Current Convention
ICHRANGE	IQUANT	2	Ich Range
ICHRANGEMODE	TOGGLE	T	Ich Auto Range
ICHOFFSETENABLE	TOGGLE	F	Ich Offset Enable
ICHOFFSET	QUANT	0	Ich Offset (V)
ICHFILTER	IQUANT	1	Ich Filter
VCHRANGE	IQUANT	2	Vch Range
VCHRANGEMODE	TOGGLE	T	Vch Auto Range
VCHOFFSETENABLE	TOGGLE	F	Vch Offset Enable
VCHOFFSET	QUANT	0	Vch Offset (V)
VCHFILTER	IQUANT	1	Vch Filter
IERANGELOWERLIMIT	IQUANT	9	I/E Range Lower Limit
IERANGEMODE	TOGGLE	F	I/E AutoRange
IERANGE	IQUANT	9	I/E Range
ACHSELECT	IQUANT	1	Ach Select
ACHRANGE	IQUANT	2	Ach Range
ACHOFFSETENABLE	TOGGLE	F	Ach Offset Enable
ACHOFFSET	QUANT	0	Ach Offset (V)
ACHFILTER	IQUANT	1	Ach Filter
CABLEID	IQUANT	14	Cable ID
DCCALDATE	LABEL	5-7-2017	DC Calibration Date
ACCALDATE	LABEL	12/3/2015	AC Calibration Date
FRAMEWORKVERSION	QUANT	7.01	Framework Version
INSTRUMENTVERSION	LABEL	4.00	Instrument Version
CURVE	TABLE	224
	Pt	T	Vf	Im	Vu	Pwr	Sig	Ach	Temp	IERange	Over
	#	s	V	A	V	W	V	V	deg C	#	bits
	0	0.013333	3.02975E-001	9.10303E-005	0.00000E+000	2.75799E-005	5.39641E-002	3.03002E-001	3.57100E+000	9	...........
	1	0.026667	3.20772E-001	9.13669E-005	0.00000E+000	2.93079E-005	5.39641E-002	3.20795E-001	3.57100E+000	9	...........
	2	0.04	3.37088E-001	9.13252E-005	0.00000E+000	3.07847E-005	5.39641E-002	3.37119E-001	3.57100E+000	9	...........
	3	0.053333	3.52240E-001	9.10564E-005	0.00000E+000	3.20737E-005	5.39641E-002	3.52271E-001	3.57100E+000	9	...........
	4	0.066667	3.66422E-001	9.11741E-005	0.00000E+000	3.34082E-005	5.39641E-002	3.66445E-001	3.57100E+000	9	...........
	5	0.08	3.79776E-001	9.11918E-005	0.00000E+000	3.46325E-005	5.39641E-002	3.79801E-001	3.57100E+000	9	...........
	6	0.093333	3.92429E-001	9.10095E-005	0.00000E+000	3.57147E-005	5.39641E-002	3.92459E-001	3.57100E+000	9	...........
	7	0.106667	4.04460E-001	9.13262E-005	0.00000E+000	3.69378E-005	5.39641E-002	4.04486E-001	3.57100E+000	9	...........
	8	0.12	4.15930E-001	9.11085E-005	0.00000E+000	3.78948E-005	5.39641E-002	4.15965E-001	3.57100E+000	9	...........
	9	0.133333	4.26923E-001	9.12856E-005	0.00000E+000	3.89719E-005	5.39641E-002	4.26958E-001	3.57100E+000	9	...........
	10	0.146667	4.37462E-001	9.12200E-005	0.00000E+000	3.99053E-005	5.39641E-002	4.37504E-001	3.57100E+000	9	...........
	11	0.16	4.47608E-001	9.12617E-005	0.00000E+000	4.08494E-005	5.39641E-002	4.47648E-001	3.57100E+000	9	...........
	12	0.173333	4.57390E-001	9.14221E-005	0.00000E+000	4.18156E-005	5.39641E-002	4.57428E-001	3.57100E+000	9	...........
	13	0.186667	4.66843E-001	9.11856E-005	0.00000E+000	4.25693E-005	5.39641E-002	4.66881E-001	3.57100E+000	9	...........
	14	0.2	4.75990E-001	9.11575E-005	0.00000E+000	4.33901E-005	5.39641E-002	4.76033E-001	3.57100E+000	9	...........
	15	0.213333	4.84852E-001	9.11627E-005	0.00000E+000	4.42004E-005	5.39641E-002	4.84891E-001	3.57100E+000	9	...........
	16	0.226667	4.93448E-001	9.10908E-005	0.00000E+000	4.49486E-005	5.39641E-002	4.93492E-001	3.57100E+000	9	...........
	17	0.24	5.01788E-001	9.09970E-005	0.00000E+000	4.56612E-005	5.39641E-002	5.01831E-001	3.57100E+000	9	...........
	18	0.253333	5.09877E-001	9.10939E-005	0.00000E+000	4.64467E-005	5.39641E-002	5.09923E-001	3.57100E+000	9	...........
	19	0.266667	5.17747E-001	9.12241E-005	0.00000E+000	4.72310E-005	5.39641E-002	5.17790E-001	3.57100E+000	9	...........
	20	0.28	5.25412E-001	9.10626E-005	0.00000E+000	4.78454E-005	5.39641E-002	5.25456E-001	3.57100E+000	9	...........
	21	0.293333	5.32868E-001	9.10022E-005	0.00000E+000	4.84921E-005	5.39641E-002	5.32896E-001	3.57100E+000	9	...........
	22	0.306667	5.40162E-001	9.10929E-005	0.00000E+000	4.92049E-005	5.39641E-002	5.40204E-001	3.57100E+000	9	...........
	23	0.32	5.47242E-001	9.11325E-005	0.00000E+000	4.98715E-005	5.39641E-002	5.47289E-001	3.57100E+000	9	...........
	24	0.333333	5.54180E-001	9.11616E-005	0.00000E+000	5.05199E-005	5.39641E-002	5.54232E-001	3.57100E+000	9	...........
	25	0.346667	5.60931E-001	9.13502E-005	0.00000E+000	5.12412E-005	5.39641E-002	5.60992E-001	3.57100E+000	9	...........
	26	0.36	5.67576E-001	9.09835E-005	0.00000E+000	5.16400E-005	5.39641E-002	5.67637E-001	3.57100E+000	9	...........
	27	0.373333	5.74005E-001	9.14773E-005	0.00000E+000	5.25084E-005	5.39641E-002	5.74056E-001	3.57100E+000	9	...........
	28	0.386667	5.80313E-001	9.11804E-005	0.00000E+000	5.29132E-005	5.39641E-002	5.80370E-001	3.57100E+000	9	...........
	29	0.4	5.86478E-001	9.11606E-005	0.00000E+000	5.34637E-005	5.39641E-002	5.86562E-001	3.57100E+000	9	...........
	30	0.413333	5.92533E-001	9.13492E-005	0.00000E+000	5.41274E-005	5.39641E-002	5.92612E-001	3.57100E+000	9	...........
	31	0.426667	5.98454E-001	9.13596E-005	0.00000E+000	5.46745E-005	5.39641E-002	5.98512E-001	3.57100E+000	9	...........
	32	0.44	6.04220E-001	9.13617E-005	0.00000E+000	5.52025E-005	5.39641E-002	6.04295E-001	3.57100E+000	9	...........
	33	0.453333	6.09883E-001	9.11512E-005	0.00000E+000	5.55916E-005	5.39641E-002	6.09966E-001	3.57100E+000	9	...........
	34	0.466667	6.15490E-001	9.09585E-005	0.00000E+000	5.59840E-005	5.39641E-002	6.15541E-001	3.57100E+000	9	...........
	35	0.48	6.20927E-001	9.11439E-005	0.00000E+000	5.65937E-005	5.39641E-002	6.20976E-001	3.57102E+000	9	...........
	36	0.493333	6.26238E-001	9.11231E-005	0.00000E+000	5.70647E-005	5.39641E-002	6.26317E-001	3.57110E+000	9	...........
	37	0.506667	6.31456E-001	9.11460E-005	0.00000E+000	5.75547E-005	5.39641E-002	6.31543E-001	3.57110E+000	9	...........
	38	0.52	6.36605E-001	9.14315E-005	0.00000E+000	5.82058E-005	5.39641E-002	6.36678E-001	3.57110E+000	9	...........
	39	0.533333	6.41685E-001	9.12158E-005	0.00000E+000	5.85318E-005	5.39641E-002	6.41744E-001	3.57110E+000	9	...........
	40	0.546667	6.46587E-001	9.12710E-005	0.00000E+000	5.90146E-005	5.39641E-002	6.46666E-001	3.57110E+000	9	...........
	41	0.56	6.51427E-001	9.10501E-005	0.00000E+000	5.93125E-005	5.39641E-002	6.51503E-001	3.57110E+000	9	...........
	42	0.573333	6.56173E-001	9.11366E-005	0.00000E+000	5.98014E-005	5.39641E-002	6.56238E-001	3.57110E+000	9	...........
	43	0.586667	6.60797E-001	9.12419E-005	0.00000E+000	6.02923E-005	5.39641E-002	6.60888E-001	3.57110E+000	9	...........
	44	0.6	6.65419E-001	9.13189E-005	0.00000E+000	6.07653E-005	5.39641E-002	6.65488E-001	3.57110E+000	9	...........
	45	0.613333	6.69954E-001	9.11210E-005	0.00000E+000	6.10469E-005	5.39641E-002	6.70005E-001	3.57110E+000	9	...........
	46	0.626667	6.74389E-001	9.12033E-005	0.00000E+000	6.15065E-005	5.39641E-002	6.74457E-001	3.57110E+000	9	...........
	47	0.64	6.78739E-001	9.13940E-005	0.00000E+000	6.20326E-005	5.39641E-002	6.78822E-001	3.57110E+000	9	...........
	48	0.653333	6.83014E-001	9.12575E-005	0.00000E+000	6.23301E-005	5.39641E-002	6.83084E-001	3.57110E+000	9	...........
	49	0.666667	6.87214E-001	9.13450E-005	0.00000E+000	6.27736E-005	5.39641E-002	6.87273E-001	3.57110E+000	9	...........
	50	0.68	6.91362E-001	9.13304E-005	0.00000E+000	6.31424E-005	5.39641E-002	6.91409E-001	3.57110E+000	9	...........
	51	0.693333	6.95460E-001	9.12700E-005	0.00000E+000	6.34746E-005	5.39641E-002	6.95493E-001	3.57110E+000	9	...........
	52	0.706667	6.99432E-001	9.11981E-005	0.00000E+000	6.37869E-005	5.39641E-002	6.99473E-001	3.57110E+000	9	...........
	53	0.72	7.03385E-001	9.11543E-005	0.00000E+000	6.41166E-005	5.39641E-002	7.03415E-001	3.57110E+000	9	...........
	54	0.733333	7.07272E-001	9.13200E-005	0.00000E+000	6.45880E-005	5.39641E-002	7.07320E-001	3.57110E+000	9	...........
	55	0.746667	7.11067E-001	9.13179E-005	0.00000E+000	6.49331E-005	5.39641E-002	7.11118E-001	3.57110E+000	9	...........
	56	0.76	7.14813E-001	9.11710E-005	0.00000E+000	6.51702E-005	5.39641E-002	7.14896E-001	3.57110E+000	9	...........
	57	0.773333	7.18562E-001	9.14617E-005	0.00000E+000	6.57209E-005	5.39641E-002	7.18615E-001	3.57110E+000	9	...........
	58	0.786667	7.22182E-001	9.13888E-005	0.00000E+000	6.59993E-005	5.39641E-002	7.22241E-001	3.57110E+000	9	...........
	59	0.8	7.25772E-001	9.09855E-005	0.00000E+000	6.60348E-005	5.39641E-002	7.25805E-001	3.57110E+000	9	...........
	60	0.813333	7.29283E-001	9.11314E-005	0.00000E+000	6.64606E-005	5.39641E-002	7.29359E-001	3.57110E+000	9	...........
	61	0.826667	7.32760E-001	9.13158E-005	0.00000E+000	6.69126E-005	5.39641E-002	7.32854E-001	3.57110E+000	9	...........
	62	0.84	7.36192E-001	9.12742E-005	0.00000E+000	6.71953E-005	5.39641E-002	7.36259E-001	3.57110E+000	9	...........
	63	0.853333	7.39534E-001	9.11710E-005	0.00000E+000	6.74240E-005	5.39641E-002	7.39605E-001	3.57110E+000	9	...........
	64	0.866667	7.42887E-001	9.13742E-005	0.00000E+000	6.78807E-005	5.39641E-002	7.42970E-001	3.57110E+000	9	...........
	65	0.88	7.46148E-001	9.12929E-005	0.00000E+000	6.81181E-005	5.39641E-002	7.46235E-001	3.57110E+000	9	...........
	66	0.893333	7.49370E-001	9.11762E-005	0.00000E+000	6.83247E-005	5.39641E-002	7.49460E-001	3.57110E+000	9	...........
	67	0.906667	7.52533E-001	9.15159E-005	0.00000E+000	6.88687E-005	5.39641E-002	7.52634E-001	3.57110E+000	9	...........
	68	0.92	7.55727E-001	9.13065E-005	0.00000E+000	6.90028E-005	5.39641E-002	7.55811E-001	3.57110E+000	9	...........
	69	0.933333	7.58809E-001	9.11939E-005	0.00000E+000	6.91988E-005	5.39641E-002	7.58907E-001	3.57110E+000	9	...........
	70	0.946667	7.61868E-001	9.12877E-005	0.00000E+000	6.95492E-005	5.39641E-002	7.61934E-001	3.57110E+000	9	...........
	71	0.96	7.64888E-001	9.13471E-005	0.00000E+000	6.98703E-005	5.39641E-002	7.64965E-001	3.57110E+000	9	...........
	72	0.97333	7.67866E-001	9.13179E-005	0.00000E+000	7.01200E-005	5.39641E-002	7.67991E-001	3.57110E+000	9	...........
	73	0.98667	7.70823E-001	9.11710E-005	0.00000E+000	7.02767E-005	5.39641E-002	7.70914E-001	3.57110E+000	9	...........
	74	1	7.73715E-001	9.14367E-005	0.00000E+000	7.07459E-005	5.39641E-002	7.73796E-001	3.57110E+000	9	...........
	75	1.01333	7.76562E-001	9.12846E-005	0.00000E+000	7.08881E-005	5.39641E-002	7.76654E-001	3.57110E+000	9	...........
	76	1.02667	7.79372E-001	9.13533E-005	0.00000E+000	7.11982E-005	5.39641E-002	7.79461E-001	3.57110E+000	9	...........
	77	1.04	7.82203E-001	9.12627E-005	0.00000E+000	7.13859E-005	5.39641E-002	7.82261E-001	3.57110E+000	9	...........
	78	1.05333	7.84953E-001	9.12919E-005	0.00000E+000	7.16598E-005	5.39641E-002	7.84994E-001	3.57110E+000	9	...........
	79	1.06667	7.87654E-001	9.14554E-005	0.00000E+000	7.20352E-005	5.39641E-002	7.87721E-001	3.57110E+000	9	...........
	80	1.08	7.90349E-001	9.14627E-005	0.00000E+000	7.22874E-005	5.39641E-002	7.90415E-001	3.57110E+000	9	...........
	81	1.09333	7.93028E-001	9.13794E-005	0.00000E+000	7.24664E-005	5.39641E-002	7.93090E-001	3.57110E+000	9	...........
	82	1.10667	7.95678E-001	9.10856E-005	0.00000E+000	7.24748E-005	5.39641E-002	7.95721E-001	3.57110E+000	9	...........
	83	1.12	7.98256E-001	9.11773E-005	0.00000E+000	7.27828E-005	5.39641E-002	7.98313E-001	3.57110E+000	9	...........
	84	1.13333	8.00829E-001	9.14679E-005	0.00000E+000	7.32501E-005	5.39641E-002	8.00895E-001	3.57110E+000	9	...........
	85	1.14667	8.03341E-001	9.12627E-005	0.00000E+000	7.33150E-005	5.39641E-002	8.03418E-001	3.57110E+000	9	...........
	86	1.16	8.05834E-001	9.12043E-005	0.00000E+000	7.34956E-005	5.39641E-002	8.05903E-001	3.57110E+000	9	...........
	87	1.17333	8.08321E-001	9.12939E-005	0.00000E+000	7.37949E-005	5.39641E-002	8.08363E-001	3.57110E+000	9	...........
	88	1.18667	8.10742E-001	9.10949E-005	0.00000E+000	7.38545E-005	5.39641E-002	8.10796E-001	3.57110E+000	9	...........
	89	1.2	8.13194E-001	9.11950E-005	0.00000E+000	7.41592E-005	5.39641E-002	8.13252E-001	3.57110E+000	9	...........
	90	1.21333	8.15573E-001	9.11856E-005	0.00000E+000	7.43685E-005	5.39641E-002	8.15651E-001	3.57110E+000	9	...........
	91	1.22667	8.17959E-001	9.08074E-005	0.00000E+000	7.42767E-005	5.39641E-002	8.18037E-001	3.57110E+000	9	...........
	92	1.24	8.20361E-001	9.11095E-005	0.00000E+000	7.47427E-005	5.39641E-002	8.20420E-001	3.57110E+000	9	...........
	93	1.25333	8.22648E-001	9.10804E-005	0.00000E+000	7.49271E-005	5.39641E-002	8.22748E-001	3.57110E+000	9	...........
	94	1.26667	8.24943E-001	9.13919E-005	0.00000E+000	7.53931E-005	5.39641E-002	8.25051E-001	3.57110E+000	9	...........
	95	1.28	8.27220E-001	9.13346E-005	0.00000E+000	7.55538E-005	5.39641E-002	8.27300E-001	3.57110E+000	9	...........
	96	1.29333	8.29459E-001	9.12606E-005	0.00000E+000	7.56970E-005	5.39641E-002	8.29540E-001	3.57110E+000	9	...........
	97	1.30667	8.31695E-001	9.10929E-005	0.00000E+000	7.57615E-005	5.39641E-002	8.31763E-001	3.57110E+000	9	...........
	98	1.32	8.33873E-001	9.14586E-005	0.00000E+000	7.62649E-005	5.39641E-002	8.33983E-001	3.57110E+000	9	...........
	99	1.33333	8.36084E-001	9.11960E-005	0.00000E+000	7.62475E-005	5.39641E-002	8.36176E-001	3.57110E+000	9	...........
	100	1.34667	8.38243E-001	9.13804E-005	0.00000E+000	7.65990E-005	5.39641E-002	8.38332E-001	3.57110E+000	9	...........
	101	1.36	8.40381E-001	9.14575E-005	0.00000E+000	7.68591E-005	5.39641E-002	8.40478E-001	3.57110E+000	9	...........
	102	1.37333	8.42499E-001	9.13429E-005	0.00000E+000	7.69563E-005	5.39641E-002	8.42622E-001	3.57110E+000	9	...........
	103	1.38667	8.44629E-001	9.14773E-005	0.00000E+000	7.72644E-005	5.39641E-002	8.44753E-001	3.57110E+000	9	...........
	104	1.4	8.46701E-001	9.11429E-005	0.00000E+000	7.71707E-005	5.39641E-002	8.46826E-001	3.57110E+000	9	...........
	105	1.41333	8.48729E-001	9.14461E-005	0.00000E+000	7.76129E-005	5.39641E-002	8.48873E-001	3.57110E+000	9	...........
	106	1.42667	8.50747E-001	9.13117E-005	0.00000E+000	7.76831E-005	5.39641E-002	8.50868E-001	3.57110E+000	9	...........
	107	1.44	8.52747E-001	9.14627E-005	0.00000E+000	7.79945E-005	5.39641E-002	8.52878E-001	3.57110E+000	9	...........
	108	1.45333	8.54734E-001	9.11418E-005	0.00000E+000	7.79020E-005	5.39641E-002	8.54863E-001	3.57110E+000	9	...........
	109	1.46667	8.56697E-001	9.12429E-005	0.00000E+000	7.81675E-005	5.39641E-002	8.56816E-001	3.57110E+000	9	...........
	110	1.48	8.58635E-001	9.13752E-005	0.00000E+000	7.84580E-005	5.39641E-002	8.58779E-001	3.57098E+000	9	...........
	111	1.49333	8.60566E-001	9.11741E-005	0.00000E+000	7.84613E-005	5.39641E-002	8.60693E-001	3.57060E+000	9	...........
	112	1.50667	8.62480E-001	9.12960E-005	0.00000E+000	7.87410E-005	5.39641E-002	8.62602E-001	3.57060E+000	9	...........
	113	1.52	8.64356E-001	9.10460E-005	0.00000E+000	7.86961E-005	5.39641E-002	8.64506E-001	3.57060E+000	9	...........
	114	1.53333	8.66247E-001	9.13752E-005	0.00000E+000	7.91535E-005	5.39641E-002	8.66402E-001	3.57060E+000	9	...........
	115	1.54667	8.68119E-001	9.12794E-005	0.00000E+000	7.92413E-005	5.39641E-002	8.68271E-001	3.57060E+000	9	...........
	116	1.56	8.69993E-001	9.13044E-005	0.00000E+000	7.94342E-005	5.39641E-002	8.70134E-001	3.57060E+000	9	...........
	117	1.57333	8.71829E-001	9.11752E-005	0.00000E+000	7.94891E-005	5.39641E-002	8.71968E-001	3.57060E+000	9	...........
	118	1.58667	8.73653E-001	9.12189E-005	0.00000E+000	7.96937E-005	5.39641E-002	8.73773E-001	3.57060E+000	9	...........
	119	1.6	8.75432E-001	9.14190E-005	0.00000E+000	8.00311E-005	5.39641E-002	8.75584E-001	3.57060E+000	9	...........
	120	1.61333	8.77199E-001	9.11575E-005	0.00000E+000	7.99633E-005	5.39641E-002	8.77352E-001	3.57060E+000	9	...........
	121	1.62667	8.78986E-001	9.12981E-005	0.00000E+000	8.02498E-005	5.39641E-002	8.79121E-001	3.57060E+000	9	...........
	122	1.64	8.80729E-001	9.11877E-005	0.00000E+000	8.03117E-005	5.39641E-002	8.80867E-001	3.57060E+000	9	...........
	123	1.65333	8.82445E-001	9.12877E-005	0.00000E+000	8.05564E-005	5.39641E-002	8.82613E-001	3.57060E+000	9	...........
	124	1.66667	8.84191E-001	9.11554E-005	0.00000E+000	8.05987E-005	5.39641E-002	8.84306E-001	3.57060E+000	9	...........
	125	1.68	8.85870E-001	9.13877E-005	0.00000E+000	8.09576E-005	5.39641E-002	8.85998E-001	3.57060E+000	9	...........
	126	1.69333	8.87533E-001	9.11793E-005	0.00000E+000	8.09247E-005	5.39641E-002	8.87673E-001	3.57060E+000	9	...........
	127	1.70667	8.89225E-001	9.12200E-005	0.00000E+000	8.11151E-005	5.39641E-002	8.89331E-001	3.57060E+000	9	...........
	128	1.72	8.90878E-001	9.12314E-005	0.00000E+000	8.12761E-005	5.39641E-002	8.90984E-001	3.57060E+000	9	...........
	129	1.73333	8.92494E-001	9.10835E-005	0.00000E+000	8.12914E-005	5.39641E-002	8.92636E-001	3.57060E+000	9	...........
	130	1.74667	8.94131E-001	9.11220E-005	0.00000E+000	8.14750E-005	5.39641E-002	8.94264E-001	3.57060E+000	9	...........
	131	1.76	8.95754E-001	9.14419E-005	0.00000E+000	8.19094E-005	5.39641E-002	8.95905E-001	3.57060E+000	9	...........
	132	1.77333	8.97351E-001	9.12231E-005	0.00000E+000	8.18591E-005	5.39641E-002	8.97503E-001	3.57060E+000	9	...........
	133	1.78667	8.98932E-001	9.13804E-005	0.00000E+000	8.21448E-005	5.39641E-002	8.99080E-001	3.57060E+000	9	...........
	134	1.8	9.00472E-001	9.13252E-005	0.00000E+000	8.22358E-005	5.39641E-002	9.00638E-001	3.57060E+000	9	...........
	135	1.81333	9.02030E-001	9.11741E-005	0.00000E+000	8.22418E-005	5.39641E-002	9.02199E-001	3.57060E+000	9	...........
	136	1.82667	9.03589E-001	9.12554E-005	0.00000E+000	8.24574E-005	5.39641E-002	9.03737E-001	3.57060E+000	9	...........
	137	1.84	9.05106E-001	9.10751E-005	0.00000E+000	8.24327E-005	5.39641E-002	9.05262E-001	3.57060E+000	9	...........
	138	1.85333	9.06612E-001	9.12908E-005	0.00000E+000	8.27653E-005	5.39641E-002	9.06767E-001	3.57060E+000	9	...........
	139	1.86667	9.08136E-001	9.11210E-005	0.00000E+000	8.27502E-005	5.39641E-002	9.08290E-001	3.57060E+000	9	...........
	140	1.88	9.09611E-001	9.12742E-005	0.00000E+000	8.30240E-005	5.39641E-002	9.09737E-001	3.57060E+000	9	...........
	141	1.89333	9.11097E-001	9.14992E-005	0.00000E+000	8.33646E-005	5.39641E-002	9.11219E-001	3.57060E+000	9	...........
	142	1.90667	9.12552E-001	9.11022E-005	0.00000E+000	8.31356E-005	5.39641E-002	9.12685E-001	3.57060E+000	9	...........
	143	1.92	9.13994E-001	9.13346E-005	0.00000E+000	8.34793E-005	5.39641E-002	9.14147E-001	3.57060E+000	9	...........
	144	1.93333	9.15435E-001	9.12043E-005	0.00000E+000	8.34916E-005	5.39641E-002	9.15598E-001	3.57060E+000	9	...........
	145	1.94667	9.16844E-001	9.13012E-005	0.00000E+000	8.37090E-005	5.39641E-002	9.17004E-001	3.57060E+000	9	...........
	146	1.96	9.18262E-001	9.12919E-005	0.00000E+000	8.38299E-005	5.39641E-002	9.18414E-001	3.57060E+000	9	...........
	147	1.97333	9.19670E-001	9.12200E-005	0.00000E+000	8.38923E-005	5.39641E-002	9.19827E-001	3.57060E+000	9	...........
	148	1.98667	9.21134E-001	9.12481E-005	0.00000E+000	8.40518E-005	5.39641E-002	9.21239E-001	3.57060E+000	9	...........
	149	2	9.22549E-001	9.11304E-005	0.00000E+000	8.40722E-005	5.39641E-002	9.22622E-001	3.57060E+000	9	...........
	150	2.01333	9.23890E-001	9.12200E-005	0.00000E+000	8.42773E-005	5.39641E-002	9.23983E-001	3.57060E+000	9	...........
	151	2.02667	9.25236E-001	9.12075E-005	0.00000E+000	8.43884E-005	5.39641E-002	9.25345E-001	3.57060E+000	9	...........
	152	2.04	9.26581E-001	9.11512E-005	0.00000E+000	8.44590E-005	5.39641E-002	9.26697E-001	3.57060E+000	9	...........
	153	2.05333	9.27914E-001	9.12148E-005	0.00000E+000	8.46395E-005	5.39641E-002	9.28047E-001	3.57060E+000	9	...........
	154	2.06667	9.29247E-001	9.13523E-005	0.00000E+000	8.48889E-005	5.39641E-002	9.29354E-001	3.57060E+000	9	...........
	155	2.08	9.30564E-001	9.12648E-005	0.00000E+000	8.49277E-005	5.39641E-002	9.30677E-001	3.57060E+000	9	...........
	156	2.09333	9.31860E-001	9.10877E-005	0.00000E+000	8.48809E-005	5.39641E-002	9.31969E-001	3.57060E+000	9	...........
	157	2.10667	9.33145E-001	9.13971E-005	0.00000E+000	8.52867E-005	5.39641E-002	9.33265E-001	3.57060E+000	9	...........
	158	2.12	9.34448E-001	9.11241E-005	0.00000E+000	8.51508E-005	5.39641E-002	9.34565E-001	3.57060E+000	9	...........
	159	2.13333	9.35722E-001	9.11877E-005	0.00000E+000	8.53263E-005	5.39641E-002	9.35845E-001	3.57060E+000	9	...........
	160	2.14667	9.36975E-001	9.12919E-005	0.00000E+000	8.55382E-005	5.39641E-002	9.37132E-001	3.57060E+000	9	...........
	161	2.16	9.38239E-001	9.10679E-005	0.00000E+000	8.54435E-005	5.39641E-002	9.38360E-001	3.57060E+000	9	...........
	162	2.17333	9.39469E-001	9.13554E-005	0.00000E+000	8.58256E-005	5.39641E-002	9.39629E-001	3.57060E+000	9	...........
	163	2.18667	9.40704E-001	9.14367E-005	0.00000E+000	8.60149E-005	5.39641E-002	9.40835E-001	3.57060E+000	9	...........
	164	2.2	9.41943E-001	9.11043E-005	0.00000E+000	8.58151E-005	5.39641E-002	9.42075E-001	3.57060E+000	9	...........
	165	2.21333	9.43157E-001	9.11262E-005	0.00000E+000	8.59464E-005	5.39641E-002	9.43269E-001	3.57060E+000	9	...........
	166	2.22667	9.44349E-001	9.12627E-005	0.00000E+000	8.61839E-005	5.39641E-002	9.44476E-001	3.57060E+000	9	...........
	167	2.24	9.45550E-001	9.12627E-005	0.00000E+000	8.62934E-005	5.39641E-002	9.45684E-001	3.57060E+000	9	...........
	168	2.25333	9.46773E-001	9.11648E-005	0.00000E+000	8.63123E-005	5.39641E-002	9.46880E-001	3.57060E+000	9	...........
	169	2.26667	9.47937E-001	9.11991E-005	0.00000E+000	8.64510E-005	5.39641E-002	9.48056E-001	3.57060E+000	9	...........
	170	2.28	9.49106E-001	9.12898E-005	0.00000E+000	8.66437E-005	5.39641E-002	9.49228E-001	3.57060E+000	9	...........
	171	2.29333	9.50255E-001	9.11429E-005	0.00000E+000	8.66090E-005	5.39641E-002	9.50359E-001	3.57060E+000	9	...........
	172	2.30667	9.51383E-001	9.10626E-005	0.00000E+000	8.66355E-005	5.39641E-002	9.51528E-001	3.57060E+000	9	...........
	173	2.32	9.52526E-001	9.12617E-005	0.00000E+000	8.69291E-005	5.39641E-002	9.52650E-001	3.57060E+000	9	...........
	174	2.33333	9.53669E-001	9.14304E-005	0.00000E+000	8.71944E-005	5.39641E-002	9.53779E-001	3.57060E+000	9	...........
	175	2.34667	9.54798E-001	9.12460E-005	0.00000E+000	8.71215E-005	5.39641E-002	9.54924E-001	3.57060E+000	9	...........
	176	2.36	9.55908E-001	9.12804E-005	0.00000E+000	8.72557E-005	5.39641E-002	9.56029E-001	3.57060E+000	9	...........
	177	2.37333	9.57028E-001	9.12689E-005	0.00000E+000	8.73469E-005	5.39641E-002	9.57130E-001	3.57060E+000	9	...........
	178	2.38667	9.58096E-001	9.10804E-005	0.00000E+000	8.72637E-005	5.39641E-002	9.58225E-001	3.57060E+000	9	...........
	179	2.4	9.59161E-001	9.13679E-005	0.00000E+000	8.76365E-005	5.39641E-002	9.59316E-001	3.57060E+000	9	...........
	180	2.41333	9.60270E-001	9.13190E-005	0.00000E+000	8.76909E-005	5.39641E-002	9.60394E-001	3.57060E+000	9	...........
	181	2.42667	9.61335E-001	9.10012E-005	0.00000E+000	8.74827E-005	5.39641E-002	9.61476E-001	3.57060E+000	9	...........
	182	2.44	9.62397E-001	9.12179E-005	0.00000E+000	8.77878E-005	5.39641E-002	9.62536E-001	3.57060E+000	9	...........
	183	2.45333	9.63435E-001	9.12346E-005	0.00000E+000	8.78986E-005	5.39641E-002	9.63613E-001	3.57060E+000	9	...........
	184	2.46667	9.64482E-001	9.13585E-005	0.00000E+000	8.81136E-005	5.39641E-002	9.64656E-001	3.57060E+000	9	...........
	185	2.48	9.65525E-001	9.12179E-005	0.00000E+000	8.80731E-005	5.39641E-002	9.65679E-001	3.57060E+000	9	...........
	186	2.49333	9.66591E-001	9.12075E-005	0.00000E+000	8.81603E-005	5.39641E-002	9.66716E-001	3.57060E+000	9	...........
	187	2.50667	9.67604E-001	9.10804E-005	0.00000E+000	8.81297E-005	5.39641E-002	9.67763E-001	3.57060E+000	9	...........
	188	2.52	9.68632E-001	9.10595E-005	0.00000E+000	8.82032E-005	5.39641E-002	9.68769E-001	3.57060E+000	9	...........
	189	2.53333	9.69616E-001	9.12877E-005	0.00000E+000	8.85140E-005	5.39641E-002	9.69801E-001	3.57060E+000	9	...........
	190	2.54667	9.70630E-001	9.14523E-005	0.00000E+000	8.87664E-005	5.39641E-002	9.70801E-001	3.57060E+000	9	...........
	191	2.56	9.71597E-001	9.09324E-005	0.00000E+000	8.83496E-005	5.39641E-002	9.71801E-001	3.57060E+000	9	...........
	192	2.57333	9.72651E-001	9.11064E-005	0.00000E+000	8.86147E-005	5.39641E-002	9.72808E-001	3.57060E+000	9	...........
	193	2.58667	9.73663E-001	9.10668E-005	0.00000E+000	8.86683E-005	5.39641E-002	9.73783E-001	3.57060E+000	9	...........
	194	2.6	9.74619E-001	9.15148E-005	0.00000E+000	8.91921E-005	5.39641E-002	9.74751E-001	3.57060E+000	9	...........
	195	2.61333	9.75577E-001	9.08834E-005	0.00000E+000	8.86638E-005	5.39641E-002	9.75723E-001	3.57060E+000	9	...........
	196	2.62667	9.76515E-001	9.12064E-005	0.00000E+000	8.90644E-005	5.39641E-002	9.76679E-001	3.57060E+000	9	...........
	197	2.64	9.77464E-001	9.12596E-005	0.00000E+000	8.92029E-005	5.39641E-002	9.77606E-001	3.57060E+000	9	...........
	198	2.65333	9.78403E-001	9.11731E-005	0.00000E+000	8.92040E-005	5.39641E-002	9.78565E-001	3.57060E+000	9	...........
	199	2.66667	9.79360E-001	9.13158E-005	0.00000E+000	8.94310E-005	5.39641E-002	9.79502E-001	3.57060E+000	9	...........
	200	2.68	9.80308E-001	9.13137E-005	0.00000E+000	8.95155E-005	5.39641E-002	9.80433E-001	3.57060E+000	9	...........
	201	2.69333	9.81222E-001	9.09803E-005	0.00000E+000	8.92719E-005	5.39641E-002	9.81355E-001	3.57060E+000	9	...........
	202	2.70667	9.82159E-001	9.11512E-005	0.00000E+000	8.95250E-005	5.39641E-002	9.82269E-001	3.57060E+000	9	...........
	203	2.72	9.83043E-001	9.13919E-005	0.00000E+000	8.98422E-005	5.39641E-002	9.83182E-001	3.57060E+000	9	...........
	204	2.73333	9.83955E-001	9.11762E-005	0.00000E+000	8.97133E-005	5.39641E-002	9.84115E-001	3.57060E+000	9	...........
	205	2.74667	9.84845E-001	9.14461E-005	0.00000E+000	9.00602E-005	5.39641E-002	9.85027E-001	3.57060E+000	9	...........
	206	2.76	9.85757E-001	9.13023E-005	0.00000E+000	9.00019E-005	5.39641E-002	9.85922E-001	3.57060E+000	9	...........
	207	2.77333	9.86632E-001	9.12023E-005	0.00000E+000	8.99831E-005	5.39641E-002	9.86802E-001	3.57060E+000	9	...........
	208	2.78667	9.87513E-001	9.11220E-005	0.00000E+000	8.99842E-005	5.39641E-002	9.87682E-001	3.57060E+000	9	...........
	209	2.8	9.88405E-001	9.12950E-005	0.00000E+000	9.02365E-005	5.39641E-002	9.88535E-001	3.57060E+000	9	...........
	210	2.81333	9.89278E-001	9.11325E-005	0.00000E+000	9.01554E-005	5.39641E-002	9.89417E-001	3.57060E+000	9	...........
	211	2.82667	9.90146E-001	9.11220E-005	0.00000E+000	9.02241E-005	5.39641E-002	9.90277E-001	3.57060E+000	9	...........
	212	2.84	9.90988E-001	9.13012E-005	0.00000E+000	9.04784E-005	5.39641E-002	9.91131E-001	3.57060E+000	9	...........
	213	2.85333	9.91842E-001	9.12127E-005	0.00000E+000	9.04685E-005	5.39641E-002	9.91976E-001	3.57060E+000	9	...........
	214	2.86667	9.92675E-001	9.12544E-005	0.00000E+000	9.05859E-005	5.39641E-002	9.92827E-001	3.57060E+000	9	...........
	215	2.88	9.93495E-001	9.12189E-005	0.00000E+000	9.06255E-005	5.39641E-002	9.93671E-001	3.57060E+000	9	...........
	216	2.89333	9.94331E-001	9.12387E-005	0.00000E+000	9.07215E-005	5.39641E-002	9.94507E-001	3.57060E+000	9	...........
	217	2.90667	9.95179E-001	9.15992E-005	0.00000E+000	9.11576E-005	5.39641E-002	9.95317E-001	3.57060E+000	9	...........
	218	2.92	9.96005E-001	9.14315E-005	0.00000E+000	9.10662E-005	5.39641E-002	9.96150E-001	3.57060E+000	9	...........
	219	2.93333	9.96822E-001	9.12564E-005	0.00000E+000	9.09665E-005	5.39641E-002	9.96979E-001	3.57060E+000	9	...........
	220	2.94667	9.97630E-001	9.09949E-005	0.00000E+000	9.07793E-005	5.39641E-002	9.97805E-001	3.57060E+000	9	...........
	221	2.96	9.98464E-001	9.12523E-005	0.00000E+000	9.11121E-005	5.39641E-002	9.98586E-001	3.57060E+000	9	...........
	222	2.97333	9.99252E-001	9.13179E-005	0.00000E+000	9.12496E-005	5.39641E-002	9.99387E-001	3.57060E+000	9	...........
	223	2.98	9.99838E-001	9.10960E-005	0.00000E+000	9.10813E-005	5.39641E-002	9.99975E-001	3.57060E+000	9	...........
STARTTIMEOFFSET	QUANT	38.925	Start Time Offset (s)
