EXPLAIN
TAG	PWR800_CHARGE
TITLE	LABEL	PWR Cyclic Charge Discharge (Cell) - Charge Step	Test &Identifier
DATE	LABEL	10-7-2017	Date
TIME	LABEL	16:13:03	Time
NOTES	NOTES	3	&Notes...
	supercap test cell
	0.9mg
	6M KOH
PSTAT	PSTAT	IFC5000-01520	Potentiostat
CAPACITY	QUANT	1.00000E-003	Capacity (A-hr)
CELLTYPE	SELECTOR	1	&Cell Type
WORKINGCONNECTION	SELECTOR	0	&Working Lead
MAXCHARGETIME	VARIABLEANDUNITS	1.00000E+002	s	1.00000E+002	second(s)	Max &Charge Time
CHARGECURRENT	QUANT	9.00000E-005	&Charge Current (A) 
VOLTAGEFINISH	TWOPARAM	F	1.00000E-003	3.60000E+003	&Voltage Finish	 I (A) < 	Max Time(s)
SAMPLETIME	QUANT	1.00000E-002	Sa&mple Period (s)
CHARGESTOPAT1	MULTIPARAM	4	1.00000E+000	Charge Stop At &1	Voltage > Limit	V
CHARGESTOPAT2	MULTIPARAM	0	0.00000E+000	Charge Stop At &2	None	N/A
AESBHCSELECTOR	TOGGLE	F	Save Both Half Cells
IRCOMP	TOGGLE	F	IR &Measure
EOC	QUANT	0	Open Circuit (V)
SEQUENCER	TOGGLE	TRUE	Run as Sequence
PSTATMODEL	IQUANT	53	Pstat Model
PSTATSECTION	LABEL	IFC5000-01520	Pstat Section
PSTATSERIALNO	LABEL	01520	Pstat Serial Number
CTRLMODE	IQUANT	0	Control Mode
ELECTROMETER	IQUANT	1	RE=0 or CS=1
IESTAB	IQUANT	0	I/E Stability
CASPEED	IQUANT	4	Control Amp Speed
CONVENTION	IQUANT	1	Current Convention
ICHRANGE	IQUANT	2	Ich Range
ICHRANGEMODE	TOGGLE	T	Ich Auto Range
ICHOFFSETENABLE	TOGGLE	F	Ich Offset Enable
ICHOFFSET	QUANT	0	Ich Offset (V)
ICHFILTER	IQUANT	1	Ich Filter
VCHRANGE	IQUANT	2	Vch Range
VCHRANGEMODE	TOGGLE	T	Vch Auto Range
VCHOFFSETENABLE	TOGGLE	F	Vch Offset Enable
VCHOFFSET	QUANT	0	Vch Offset (V)
VCHFILTER	IQUANT	1	Vch Filter
IERANGELOWERLIMIT	IQUANT	9	I/E Range Lower Limit
IERANGEMODE	TOGGLE	F	I/E AutoRange
IERANGE	IQUANT	9	I/E Range
ACHSELECT	IQUANT	1	Ach Select
ACHRANGE	IQUANT	2	Ach Range
ACHOFFSETENABLE	TOGGLE	F	Ach Offset Enable
ACHOFFSET	QUANT	0	Ach Offset (V)
ACHFILTER	IQUANT	1	Ach Filter
CABLEID	IQUANT	14	Cable ID
DCCALDATE	LABEL	5-7-2017	DC Calibration Date
ACCALDATE	LABEL	12/3/2015	AC Calibration Date
FRAMEWORKVERSION	QUANT	7.01	Framework Version
INSTRUMENTVERSION	LABEL	4.00	Instrument Version
CURVE	TABLE	162
	Pt	T	Vf	Im	Vu	Pwr	Sig	Ach	Temp	IERange	Over
	#	s	V	A	V	W	V	V	deg C	#	bits
	0	0.013333	2.70704E-001	9.08730E-005	0.00000E+000	2.45997E-005	5.39641E-002	2.70754E-001	3.57300E+000	9	...........
	1	0.026667	2.90296E-001	9.07793E-005	0.00000E+000	2.63528E-005	5.39641E-002	2.90342E-001	3.57300E+000	9	...........
	2	0.04	3.08688E-001	9.11783E-005	0.00000E+000	2.81456E-005	5.39641E-002	3.08730E-001	3.57300E+000	9	...........
	3	0.053333	3.26036E-001	9.08272E-005	0.00000E+000	2.96129E-005	5.39641E-002	3.26079E-001	3.57300E+000	9	...........
	4	0.066667	3.42446E-001	9.10491E-005	0.00000E+000	3.11794E-005	5.39641E-002	3.42492E-001	3.57300E+000	9	...........
	5	0.08	3.58019E-001	9.08220E-005	0.00000E+000	3.25160E-005	5.39641E-002	3.58064E-001	3.57300E+000	9	...........
	6	0.093333	3.72828E-001	9.09397E-005	0.00000E+000	3.39049E-005	5.39641E-002	3.72878E-001	3.57300E+000	9	...........
	7	0.106667	3.86948E-001	9.10158E-005	0.00000E+000	3.52184E-005	5.39641E-002	3.86996E-001	3.57300E+000	9	...........
	8	0.12	4.00422E-001	9.12221E-005	0.00000E+000	3.65273E-005	5.39641E-002	4.00469E-001	3.57300E+000	9	...........
	9	0.133333	4.13292E-001	9.06626E-005	0.00000E+000	3.74701E-005	5.39641E-002	4.13348E-001	3.57300E+000	9	...........
	10	0.146667	4.25621E-001	9.10033E-005	0.00000E+000	3.87329E-005	5.39641E-002	4.25675E-001	3.57300E+000	9	...........
	11	0.16	4.37458E-001	9.10231E-005	0.00000E+000	3.98187E-005	5.39641E-002	4.37521E-001	3.57300E+000	9	...........
	12	0.173333	4.48820E-001	9.10804E-005	0.00000E+000	4.08787E-005	5.39641E-002	4.48883E-001	3.57300E+000	9	...........
	13	0.186667	4.59753E-001	9.11345E-005	0.00000E+000	4.18994E-005	5.39641E-002	4.59814E-001	3.57300E+000	9	...........
	14	0.2	4.70295E-001	9.11731E-005	0.00000E+000	4.28783E-005	5.39641E-002	4.70358E-001	3.57300E+000	9	...........
	15	0.213333	4.80472E-001	9.08449E-005	0.00000E+000	4.36484E-005	5.39641E-002	4.80535E-001	3.57300E+000	9	...........
	16	0.226667	4.90290E-001	9.09532E-005	0.00000E+000	4.45935E-005	5.39641E-002	4.90357E-001	3.57300E+000	9	...........
	17	0.24	4.99786E-001	9.08876E-005	0.00000E+000	4.54243E-005	5.39641E-002	4.99859E-001	3.57300E+000	9	...........
	18	0.253333	5.08984E-001	9.08793E-005	0.00000E+000	4.62561E-005	5.39641E-002	5.09059E-001	3.57300E+000	9	...........
	19	0.266667	5.17900E-001	9.10679E-005	0.00000E+000	4.71641E-005	5.39641E-002	5.17972E-001	3.57300E+000	9	...........
	20	0.28	5.26534E-001	9.09533E-005	0.00000E+000	4.78900E-005	5.39641E-002	5.26611E-001	3.57300E+000	9	...........
	21	0.293333	5.34821E-001	9.09032E-005	0.00000E+000	4.86169E-005	5.39641E-002	5.34944E-001	3.57300E+000	9	...........
	22	0.306667	5.42945E-001	9.11335E-005	0.00000E+000	4.94804E-005	5.39641E-002	5.43077E-001	3.57300E+000	9	...........
	23	0.32	5.50853E-001	9.10991E-005	0.00000E+000	5.01822E-005	5.39641E-002	5.51001E-001	3.57300E+000	9	...........
	24	0.333333	5.58543E-001	9.10835E-005	0.00000E+000	5.08740E-005	5.39641E-002	5.58689E-001	3.57300E+000	9	...........
	25	0.346667	5.66073E-001	9.10022E-005	0.00000E+000	5.15139E-005	5.39641E-002	5.66200E-001	3.57300E+000	9	...........
	26	0.36	5.73375E-001	9.12252E-005	0.00000E+000	5.23062E-005	5.39641E-002	5.73487E-001	3.57300E+000	9	...........
	27	0.373333	5.80503E-001	9.11877E-005	0.00000E+000	5.29348E-005	5.39641E-002	5.80626E-001	3.57300E+000	9	...........
	28	0.386667	5.87474E-001	9.11272E-005	0.00000E+000	5.35348E-005	5.39641E-002	5.87590E-001	3.57300E+000	9	...........
	29	0.4	5.94294E-001	9.11585E-005	0.00000E+000	5.41749E-005	5.39641E-002	5.94406E-001	3.57300E+000	9	...........
	30	0.413333	6.00936E-001	9.11502E-005	0.00000E+000	5.47754E-005	5.39641E-002	6.01050E-001	3.57300E+000	9	...........
	31	0.426667	6.07411E-001	9.10376E-005	0.00000E+000	5.52973E-005	5.39641E-002	6.07527E-001	3.57300E+000	9	...........
	32	0.44	6.13775E-001	9.10158E-005	0.00000E+000	5.58632E-005	5.39641E-002	6.13889E-001	3.57300E+000	9	...........
	33	0.453333	6.20031E-001	9.09178E-005	0.00000E+000	5.63718E-005	5.39641E-002	6.20104E-001	3.57300E+000	9	...........
	34	0.466667	6.26120E-001	9.11179E-005	0.00000E+000	5.70507E-005	5.39641E-002	6.26201E-001	3.57300E+000	9	...........
	35	0.48	6.32073E-001	9.10564E-005	0.00000E+000	5.75542E-005	5.39641E-002	6.32154E-001	3.57300E+000	9	...........
	36	0.493333	6.37913E-001	9.08386E-005	0.00000E+000	5.79472E-005	5.39641E-002	6.37993E-001	3.57300E+000	9	...........
	37	0.506667	6.43663E-001	9.09876E-005	0.00000E+000	5.85654E-005	5.39641E-002	6.43769E-001	3.57300E+000	9	...........
	38	0.52	6.49290E-001	9.09783E-005	0.00000E+000	5.90713E-005	5.39641E-002	6.49397E-001	3.57300E+000	9	...........
	39	0.533333	6.54832E-001	9.10449E-005	0.00000E+000	5.96192E-005	5.39641E-002	6.54931E-001	3.57300E+000	9	...........
	40	0.546667	6.60205E-001	9.09157E-005	0.00000E+000	6.00231E-005	5.39641E-002	6.60319E-001	3.57300E+000	9	...........
	41	0.56	6.65547E-001	9.13867E-005	0.00000E+000	6.08222E-005	5.39641E-002	6.65694E-001	3.57300E+000	9	...........
	42	0.573333	6.70808E-001	9.10491E-005	0.00000E+000	6.10765E-005	5.39641E-002	6.70925E-001	3.57300E+000	9	...........
	43	0.586667	6.75934E-001	9.11783E-005	0.00000E+000	6.16305E-005	5.39641E-002	6.76074E-001	3.57300E+000	9	...........
	44	0.6	6.80986E-001	9.09366E-005	0.00000E+000	6.19265E-005	5.39641E-002	6.81129E-001	3.57300E+000	9	...........
	45	0.613333	6.85947E-001	9.10147E-005	0.00000E+000	6.24313E-005	5.39641E-002	6.86110E-001	3.57300E+000	9	...........
	46	0.626667	6.90898E-001	9.08470E-005	0.00000E+000	6.27660E-005	5.39641E-002	6.91030E-001	3.57300E+000	9	...........
	47	0.64	6.95725E-001	9.09387E-005	0.00000E+000	6.32683E-005	5.39641E-002	6.95835E-001	3.57300E+000	9	...........
	48	0.653333	7.00454E-001	9.12898E-005	0.00000E+000	6.39443E-005	5.39641E-002	7.00580E-001	3.57300E+000	9	...........
	49	0.666667	7.05148E-001	9.08616E-005	0.00000E+000	6.40709E-005	5.39641E-002	7.05230E-001	3.57300E+000	9	...........
	50	0.68	7.09714E-001	9.08230E-005	0.00000E+000	6.44583E-005	5.39641E-002	7.09828E-001	3.57300E+000	9	...........
	51	0.693333	7.14225E-001	9.15450E-005	0.00000E+000	6.53838E-005	5.39641E-002	7.14356E-001	3.57300E+000	9	...........
	52	0.706667	7.18750E-001	9.09157E-005	0.00000E+000	6.53457E-005	5.39641E-002	7.18851E-001	3.57300E+000	9	...........
	53	0.72	7.23179E-001	9.09887E-005	0.00000E+000	6.58011E-005	5.39641E-002	7.23275E-001	3.57300E+000	9	...........
	54	0.733333	7.27537E-001	9.11387E-005	0.00000E+000	6.63067E-005	5.39641E-002	7.27651E-001	3.57300E+000	9	...........
	55	0.746667	7.31834E-001	9.10137E-005	0.00000E+000	6.66069E-005	5.39641E-002	7.31969E-001	3.57300E+000	9	...........
	56	0.76	7.36086E-001	9.09418E-005	0.00000E+000	6.69410E-005	5.39641E-002	7.36215E-001	3.57300E+000	9	...........
	57	0.773333	7.40304E-001	9.09074E-005	0.00000E+000	6.72991E-005	5.39641E-002	7.40428E-001	3.57300E+000	9	...........
	58	0.786667	7.44479E-001	9.09282E-005	0.00000E+000	6.76942E-005	5.39641E-002	7.44590E-001	3.57300E+000	9	...........
	59	0.8	7.48568E-001	9.11627E-005	0.00000E+000	6.82415E-005	5.39641E-002	7.48672E-001	3.57300E+000	9	...........
	60	0.813333	7.52586E-001	9.10929E-005	0.00000E+000	6.85552E-005	5.39641E-002	7.52707E-001	3.57300E+000	9	...........
	61	0.826667	7.56612E-001	9.10772E-005	0.00000E+000	6.89102E-005	5.39641E-002	7.56729E-001	3.57300E+000	9	...........
	62	0.84	7.60538E-001	9.10043E-005	0.00000E+000	6.92122E-005	5.39641E-002	7.60651E-001	3.57300E+000	9	...........
	63	0.853333	7.64431E-001	9.08845E-005	0.00000E+000	6.94750E-005	5.39641E-002	7.64569E-001	3.57300E+000	9	...........
	64	0.866667	7.68278E-001	9.09970E-005	0.00000E+000	6.99110E-005	5.39641E-002	7.68420E-001	3.57300E+000	9	...........
	65	0.88	7.72101E-001	9.09668E-005	0.00000E+000	7.02355E-005	5.39641E-002	7.72232E-001	3.57300E+000	9	...........
	66	0.893333	7.75872E-001	9.10303E-005	0.00000E+000	7.06279E-005	5.39641E-002	7.75995E-001	3.57300E+000	9	...........
	67	0.906667	7.79617E-001	9.09209E-005	0.00000E+000	7.08835E-005	5.39641E-002	7.79744E-001	3.57300E+000	9	...........
	68	0.92	7.83290E-001	9.09522E-005	0.00000E+000	7.12419E-005	5.39641E-002	7.83412E-001	3.57300E+000	9	...........
	69	0.933333	7.86912E-001	9.10845E-005	0.00000E+000	7.16755E-005	5.39641E-002	7.87044E-001	3.57300E+000	9	...........
	70	0.946667	7.90510E-001	9.08991E-005	0.00000E+000	7.18566E-005	5.39641E-002	7.90644E-001	3.57300E+000	9	...........
	71	0.96	7.94097E-001	9.11106E-005	0.00000E+000	7.23507E-005	5.39641E-002	7.94250E-001	3.57300E+000	9	...........
	72	0.97333	7.97606E-001	9.10147E-005	0.00000E+000	7.25939E-005	5.39641E-002	7.97748E-001	3.57295E+000	9	...........
	73	0.98667	8.01105E-001	9.11137E-005	0.00000E+000	7.29916E-005	5.39641E-002	8.01237E-001	3.57280E+000	9	...........
	74	1	8.04533E-001	9.10814E-005	0.00000E+000	7.32779E-005	5.39641E-002	8.04693E-001	3.57280E+000	9	...........
	75	1.01333	8.07916E-001	9.10022E-005	0.00000E+000	7.35222E-005	5.39641E-002	8.08071E-001	3.57280E+000	9	...........
	76	1.02667	8.11275E-001	9.09012E-005	0.00000E+000	7.37458E-005	5.39641E-002	8.11453E-001	3.57280E+000	9	...........
	77	1.04	8.14611E-001	9.08970E-005	0.00000E+000	7.40457E-005	5.39641E-002	8.14790E-001	3.57280E+000	9	...........
	78	1.05333	8.17939E-001	9.11450E-005	0.00000E+000	7.45510E-005	5.39641E-002	8.18113E-001	3.57280E+000	9	...........
	79	1.06667	8.21222E-001	9.10908E-005	0.00000E+000	7.48058E-005	5.39641E-002	8.21396E-001	3.57280E+000	9	...........
	80	1.08	8.24450E-001	9.10637E-005	0.00000E+000	7.50774E-005	5.39641E-002	8.24621E-001	3.57280E+000	9	...........
	81	1.09333	8.27651E-001	9.09522E-005	0.00000E+000	7.52767E-005	5.39641E-002	8.27798E-001	3.57280E+000	9	...........
	82	1.10667	8.30830E-001	9.09762E-005	0.00000E+000	7.55857E-005	5.39641E-002	8.30975E-001	3.57280E+000	9	...........
	83	1.12	8.33942E-001	9.10397E-005	0.00000E+000	7.59219E-005	5.39641E-002	8.34107E-001	3.57280E+000	9	...........
	84	1.13333	8.37041E-001	9.11731E-005	0.00000E+000	7.63156E-005	5.39641E-002	8.37200E-001	3.57280E+000	9	...........
	85	1.14667	8.40112E-001	9.09460E-005	0.00000E+000	7.64048E-005	5.39641E-002	8.40273E-001	3.57280E+000	9	...........
	86	1.16	8.43177E-001	9.09209E-005	0.00000E+000	7.66624E-005	5.39641E-002	8.43312E-001	3.57280E+000	9	...........
	87	1.17333	8.46207E-001	9.09939E-005	0.00000E+000	7.69996E-005	5.39641E-002	8.46359E-001	3.57280E+000	9	...........
	88	1.18667	8.49190E-001	9.11491E-005	0.00000E+000	7.74029E-005	5.39641E-002	8.49344E-001	3.57280E+000	9	...........
	89	1.2	8.52150E-001	9.08407E-005	0.00000E+000	7.74099E-005	5.39641E-002	8.52294E-001	3.57280E+000	9	...........
	90	1.21333	8.55029E-001	9.11033E-005	0.00000E+000	7.78959E-005	5.39641E-002	8.55196E-001	3.57280E+000	9	...........
	91	1.22667	8.57895E-001	9.11637E-005	0.00000E+000	7.82089E-005	5.39641E-002	8.58097E-001	3.57280E+000	9	...........
	92	1.24	8.60760E-001	9.12898E-005	0.00000E+000	7.85786E-005	5.39641E-002	8.60949E-001	3.57280E+000	9	...........
	93	1.25333	8.63577E-001	9.11741E-005	0.00000E+000	7.87359E-005	5.39641E-002	8.63758E-001	3.57280E+000	9	...........
	94	1.26667	8.66355E-001	9.12116E-005	0.00000E+000	7.90217E-005	5.39641E-002	8.66566E-001	3.57280E+000	9	...........
	95	1.28	8.69156E-001	9.09939E-005	0.00000E+000	7.90879E-005	5.39641E-002	8.69347E-001	3.57280E+000	9	...........
	96	1.29333	8.71906E-001	9.10085E-005	0.00000E+000	7.93508E-005	5.39641E-002	8.72122E-001	3.57280E+000	9	...........
	97	1.30667	8.74605E-001	9.11127E-005	0.00000E+000	7.96876E-005	5.39641E-002	8.74826E-001	3.57280E+000	9	...........
	98	1.32	8.77304E-001	9.11220E-005	0.00000E+000	7.99418E-005	5.39641E-002	8.77508E-001	3.57280E+000	9	...........
	99	1.33333	8.79949E-001	9.14721E-005	0.00000E+000	8.04908E-005	5.39641E-002	8.80161E-001	3.57280E+000	9	...........
	100	1.34667	8.82594E-001	9.11387E-005	0.00000E+000	8.04385E-005	5.39641E-002	8.82779E-001	3.57280E+000	9	...........
	101	1.36	8.85192E-001	9.10116E-005	0.00000E+000	8.05628E-005	5.39641E-002	8.85372E-001	3.57280E+000	9	...........
	102	1.37333	8.87699E-001	9.07990E-005	0.00000E+000	8.06023E-005	5.39641E-002	8.87907E-001	3.57280E+000	9	...........
	103	1.38667	8.90249E-001	9.12835E-005	0.00000E+000	8.12651E-005	5.39641E-002	8.90414E-001	3.57280E+000	9	...........
	104	1.4	8.92749E-001	9.08636E-005	0.00000E+000	8.11184E-005	5.39641E-002	8.92954E-001	3.57280E+000	9	...........
	105	1.41333	8.95244E-001	9.09741E-005	0.00000E+000	8.14440E-005	5.39641E-002	8.95452E-001	3.57280E+000	9	...........
	106	1.42667	8.97728E-001	9.12054E-005	0.00000E+000	8.18776E-005	5.39641E-002	8.97898E-001	3.57280E+000	9	...........
	107	1.44	9.00150E-001	9.09324E-005	0.00000E+000	8.18528E-005	5.39641E-002	9.00337E-001	3.57280E+000	9	...........
	108	1.45333	9.02545E-001	9.08730E-005	0.00000E+000	8.20170E-005	5.39641E-002	9.02745E-001	3.57280E+000	9	...........
	109	1.46667	9.04916E-001	9.09855E-005	0.00000E+000	8.23343E-005	5.39641E-002	9.05134E-001	3.57280E+000	9	...........
	110	1.48	9.07307E-001	9.10147E-005	0.00000E+000	8.25783E-005	5.39641E-002	9.07530E-001	3.57280E+000	9	...........
	111	1.49333	9.09663E-001	9.09866E-005	0.00000E+000	8.27671E-005	5.39641E-002	9.09865E-001	3.57280E+000	9	...........
	112	1.50667	9.11980E-001	9.10085E-005	0.00000E+000	8.29979E-005	5.39641E-002	9.12164E-001	3.57280E+000	9	...........
	113	1.52	9.14241E-001	9.11147E-005	0.00000E+000	8.33008E-005	5.39641E-002	9.14473E-001	3.57280E+000	9	...........
	114	1.53333	9.16540E-001	9.07834E-005	0.00000E+000	8.32067E-005	5.39641E-002	9.16762E-001	3.57280E+000	9	...........
	115	1.54667	9.18776E-001	9.10283E-005	0.00000E+000	8.36346E-005	5.39641E-002	9.18983E-001	3.57280E+000	9	...........
	116	1.56	9.21033E-001	9.09741E-005	0.00000E+000	8.37901E-005	5.39641E-002	9.21194E-001	3.57280E+000	9	...........
	117	1.57333	9.23255E-001	9.10199E-005	0.00000E+000	8.40346E-005	5.39641E-002	9.23418E-001	3.57280E+000	9	...........
	118	1.58667	9.25426E-001	9.12075E-005	0.00000E+000	8.44058E-005	5.39641E-002	9.25578E-001	3.57280E+000	9	...........
	119	1.6	9.27569E-001	9.08647E-005	0.00000E+000	8.42833E-005	5.39641E-002	9.27743E-001	3.57280E+000	9	...........
	120	1.61333	9.29691E-001	9.10178E-005	0.00000E+000	8.46185E-005	5.39641E-002	9.29868E-001	3.57280E+000	9	...........
	121	1.62667	9.31765E-001	9.11783E-005	0.00000E+000	8.49567E-005	5.39641E-002	9.31934E-001	3.57280E+000	9	...........
	122	1.64	9.33850E-001	9.08001E-005	0.00000E+000	8.47937E-005	5.39641E-002	9.34024E-001	3.57280E+000	9	...........
	123	1.65333	9.35901E-001	9.09137E-005	0.00000E+000	8.50862E-005	5.39641E-002	9.36085E-001	3.57280E+000	9	...........
	124	1.66667	9.37942E-001	9.08261E-005	0.00000E+000	8.51896E-005	5.39641E-002	9.38116E-001	3.57280E+000	9	...........
	125	1.68	9.39925E-001	9.09387E-005	0.00000E+000	8.54755E-005	5.39641E-002	9.40101E-001	3.57280E+000	9	...........
	126	1.69333	9.41925E-001	9.10053E-005	0.00000E+000	8.57202E-005	5.39641E-002	9.42118E-001	3.57280E+000	9	...........
	127	1.70667	9.43873E-001	9.09022E-005	0.00000E+000	8.58001E-005	5.39641E-002	9.44070E-001	3.57280E+000	9	...........
	128	1.72	9.45832E-001	9.11929E-005	0.00000E+000	8.62532E-005	5.39641E-002	9.46045E-001	3.57280E+000	9	...........
	129	1.73333	9.47809E-001	9.07449E-005	0.00000E+000	8.60088E-005	5.39641E-002	9.48005E-001	3.57280E+000	9	...........
	130	1.74667	9.49700E-001	9.09699E-005	0.00000E+000	8.63941E-005	5.39641E-002	9.49913E-001	3.57280E+000	9	...........
	131	1.76	9.51591E-001	9.08188E-005	0.00000E+000	8.64224E-005	5.39641E-002	9.51781E-001	3.57280E+000	9	...........
	132	1.77333	9.53453E-001	9.10460E-005	0.00000E+000	8.68080E-005	5.39641E-002	9.53630E-001	3.57280E+000	9	...........
	133	1.78667	9.55291E-001	9.10710E-005	0.00000E+000	8.69993E-005	5.39641E-002	9.55478E-001	3.57280E+000	9	...........
	134	1.8	9.57125E-001	9.11991E-005	0.00000E+000	8.72890E-005	5.39641E-002	9.57294E-001	3.57280E+000	9	...........
	135	1.81333	9.58935E-001	9.11679E-005	0.00000E+000	8.74240E-005	5.39641E-002	9.59143E-001	3.57280E+000	9	...........
	136	1.82667	9.60728E-001	9.09855E-005	0.00000E+000	8.74123E-005	5.39641E-002	9.60930E-001	3.57280E+000	9	...........
	137	1.84	9.62508E-001	9.08095E-005	0.00000E+000	8.74049E-005	5.39641E-002	9.62735E-001	3.57280E+000	9	...........
	138	1.85333	9.64248E-001	9.09001E-005	0.00000E+000	8.76502E-005	5.39641E-002	9.64456E-001	3.57280E+000	9	...........
	139	1.86667	9.65940E-001	9.11752E-005	0.00000E+000	8.80697E-005	5.39641E-002	9.66143E-001	3.57280E+000	9	...........
	140	1.88	9.67633E-001	9.09303E-005	0.00000E+000	8.79872E-005	5.39641E-002	9.67863E-001	3.57280E+000	9	...........
	141	1.89333	9.69336E-001	9.11804E-005	0.00000E+000	8.83844E-005	5.39641E-002	9.69536E-001	3.57280E+000	9	...........
	142	1.90667	9.70997E-001	9.09126E-005	0.00000E+000	8.82758E-005	5.39641E-002	9.71225E-001	3.57280E+000	9	...........
	143	1.92	9.72668E-001	9.10908E-005	0.00000E+000	8.86011E-005	5.39641E-002	9.72875E-001	3.57280E+000	9	...........
	144	1.93333	9.74313E-001	9.09918E-005	0.00000E+000	8.86545E-005	5.39641E-002	9.74523E-001	3.57280E+000	9	...........
	145	1.94667	9.75923E-001	9.09355E-005	0.00000E+000	8.87461E-005	5.39641E-002	9.76144E-001	3.57280E+000	9	...........
	146	1.96	9.77534E-001	9.10085E-005	0.00000E+000	8.89639E-005	5.39641E-002	9.77746E-001	3.57280E+000	9	...........
	147	1.97333	9.79108E-001	9.10439E-005	0.00000E+000	8.91418E-005	5.39641E-002	9.79315E-001	3.57280E+000	9	...........
	148	1.98667	9.80661E-001	9.10668E-005	0.00000E+000	8.93057E-005	5.39641E-002	9.80862E-001	3.57280E+000	9	...........
	149	2	9.82202E-001	9.09595E-005	0.00000E+000	8.93406E-005	5.39641E-002	9.82384E-001	3.57280E+000	9	...........
	150	2.01333	9.83748E-001	9.11637E-005	0.00000E+000	8.96821E-005	5.39641E-002	9.83941E-001	3.57280E+000	9	...........
	151	2.02667	9.85254E-001	9.09772E-005	0.00000E+000	8.96357E-005	5.39641E-002	9.85470E-001	3.57280E+000	9	...........
	152	2.04	9.86749E-001	9.07595E-005	0.00000E+000	8.95568E-005	5.39641E-002	9.86954E-001	3.57280E+000	9	...........
	153	2.05333	9.88244E-001	9.11710E-005	0.00000E+000	9.00992E-005	5.39641E-002	9.88459E-001	3.57280E+000	9	...........
	154	2.06667	9.89761E-001	9.09814E-005	0.00000E+000	9.00498E-005	5.39641E-002	9.89950E-001	3.57280E+000	9	...........
	155	2.08	9.91207E-001	9.09626E-005	0.00000E+000	9.01627E-005	5.39641E-002	9.91412E-001	3.57280E+000	9	...........
	156	2.09333	9.92635E-001	9.09824E-005	0.00000E+000	9.03123E-005	5.39641E-002	9.92837E-001	3.57280E+000	9	...........
	157	2.10667	9.94053E-001	9.10929E-005	0.00000E+000	9.05511E-005	5.39641E-002	9.94256E-001	3.57280E+000	9	...........
	158	2.12	9.95449E-001	9.08678E-005	0.00000E+000	9.04543E-005	5.39641E-002	9.95647E-001	3.57280E+000	9	...........
	159	2.13333	9.96834E-001	9.08730E-005	0.00000E+000	9.05853E-005	5.39641E-002	9.97050E-001	3.57280E+000	9	...........
	160	2.14667	9.98230E-001	9.08595E-005	0.00000E+000	9.06987E-005	5.39641E-002	9.98436E-001	3.57280E+000	9	...........
	161	2.16	9.99601E-001	9.09595E-005	0.00000E+000	9.09232E-005	5.39641E-002	9.99817E-001	3.57280E+000	9	...........
STARTTIMEOFFSET	QUANT	3714.746	Start Time Offset (s)
