EXPLAIN
TAG	PWR800_CHARGE
TITLE	LABEL	PWR Cyclic Charge Discharge (Cell) - Charge Step	Test &Identifier
DATE	LABEL	10-7-2017	Date
TIME	LABEL	15:58:29	Time
NOTES	NOTES	3	&Notes...
	supercap test cell
	0.9mg
	6M KOH
PSTAT	PSTAT	IFC5000-01520	Potentiostat
CAPACITY	QUANT	1.00000E-003	Capacity (A-hr)
CELLTYPE	SELECTOR	1	&Cell Type
WORKINGCONNECTION	SELECTOR	0	&Working Lead
MAXCHARGETIME	VARIABLEANDUNITS	1.00000E+002	s	1.00000E+002	second(s)	Max &Charge Time
CHARGECURRENT	QUANT	9.00000E-005	&Charge Current (A) 
VOLTAGEFINISH	TWOPARAM	F	1.00000E-003	3.60000E+003	&Voltage Finish	 I (A) < 	Max Time(s)
SAMPLETIME	QUANT	1.00000E-002	Sa&mple Period (s)
CHARGESTOPAT1	MULTIPARAM	4	1.00000E+000	Charge Stop At &1	Voltage > Limit	V
CHARGESTOPAT2	MULTIPARAM	0	0.00000E+000	Charge Stop At &2	None	N/A
AESBHCSELECTOR	TOGGLE	F	Save Both Half Cells
IRCOMP	TOGGLE	F	IR &Measure
EOC	QUANT	0	Open Circuit (V)
SEQUENCER	TOGGLE	TRUE	Run as Sequence
PSTATMODEL	IQUANT	53	Pstat Model
PSTATSECTION	LABEL	IFC5000-01520	Pstat Section
PSTATSERIALNO	LABEL	01520	Pstat Serial Number
CTRLMODE	IQUANT	0	Control Mode
ELECTROMETER	IQUANT	1	RE=0 or CS=1
IESTAB	IQUANT	0	I/E Stability
CASPEED	IQUANT	4	Control Amp Speed
CONVENTION	IQUANT	1	Current Convention
ICHRANGE	IQUANT	2	Ich Range
ICHRANGEMODE	TOGGLE	T	Ich Auto Range
ICHOFFSETENABLE	TOGGLE	F	Ich Offset Enable
ICHOFFSET	QUANT	0	Ich Offset (V)
ICHFILTER	IQUANT	1	Ich Filter
VCHRANGE	IQUANT	2	Vch Range
VCHRANGEMODE	TOGGLE	T	Vch Auto Range
VCHOFFSETENABLE	TOGGLE	F	Vch Offset Enable
VCHOFFSET	QUANT	0	Vch Offset (V)
VCHFILTER	IQUANT	1	Vch Filter
IERANGELOWERLIMIT	IQUANT	9	I/E Range Lower Limit
IERANGEMODE	TOGGLE	F	I/E AutoRange
IERANGE	IQUANT	9	I/E Range
ACHSELECT	IQUANT	1	Ach Select
ACHRANGE	IQUANT	2	Ach Range
ACHOFFSETENABLE	TOGGLE	F	Ach Offset Enable
ACHOFFSET	QUANT	0	Ach Offset (V)
ACHFILTER	IQUANT	1	Ach Filter
CABLEID	IQUANT	14	Cable ID
DCCALDATE	LABEL	5-7-2017	DC Calibration Date
ACCALDATE	LABEL	12/3/2015	AC Calibration Date
FRAMEWORKVERSION	QUANT	7.01	Framework Version
INSTRUMENTVERSION	LABEL	4.00	Instrument Version
CURVE	TABLE	165
	Pt	T	Vf	Im	Vu	Pwr	Sig	Ach	Temp	IERange	Over
	#	s	V	A	V	W	V	V	deg C	#	bits
	0	0.013333	2.67216E-001	9.07334E-005	0.00000E+000	2.42455E-005	5.39641E-002	2.67265E-001	3.57290E+000	9	...........
	1	0.026667	2.87016E-001	9.10783E-005	0.00000E+000	2.61409E-005	5.39641E-002	2.87055E-001	3.57290E+000	9	...........
	2	0.04	3.05551E-001	9.11783E-005	0.00000E+000	2.78596E-005	5.39641E-002	3.05594E-001	3.57290E+000	9	...........
	3	0.053333	3.23011E-001	9.08470E-005	0.00000E+000	2.93445E-005	5.39641E-002	3.23053E-001	3.57290E+000	9	...........
	4	0.066667	3.39506E-001	9.10564E-005	0.00000E+000	3.09142E-005	5.39641E-002	3.39548E-001	3.57290E+000	9	...........
	5	0.08	3.55141E-001	9.09189E-005	0.00000E+000	3.22890E-005	5.39641E-002	3.55183E-001	3.57290E+000	9	...........
	6	0.093333	3.70002E-001	9.09762E-005	0.00000E+000	3.36614E-005	5.39641E-002	3.70049E-001	3.57290E+000	9	...........
	7	0.106667	3.84159E-001	9.09501E-005	0.00000E+000	3.49393E-005	5.39641E-002	3.84206E-001	3.57290E+000	9	...........
	8	0.12	3.97668E-001	9.09303E-005	0.00000E+000	3.61601E-005	5.39641E-002	3.97713E-001	3.57290E+000	9	...........
	9	0.133333	4.10573E-001	9.09022E-005	0.00000E+000	3.73219E-005	5.39641E-002	4.10628E-001	3.57290E+000	9	...........
	10	0.146667	4.22935E-001	9.09762E-005	0.00000E+000	3.84770E-005	5.39641E-002	4.22990E-001	3.57290E+000	9	...........
	11	0.16	4.34787E-001	9.08084E-005	0.00000E+000	3.94823E-005	5.39641E-002	4.34841E-001	3.57290E+000	9	...........
	12	0.173333	4.46181E-001	9.09230E-005	0.00000E+000	4.05681E-005	5.39641E-002	4.46239E-001	3.57290E+000	9	...........
	13	0.186667	4.57153E-001	9.10981E-005	0.00000E+000	4.16458E-005	5.39641E-002	4.57212E-001	3.57290E+000	9	...........
	14	0.2	4.67715E-001	9.09449E-005	0.00000E+000	4.25363E-005	5.39641E-002	4.67774E-001	3.57290E+000	9	...........
	15	0.213333	4.77896E-001	9.09585E-005	0.00000E+000	4.34686E-005	5.39641E-002	4.77962E-001	3.57290E+000	9	...........
	16	0.226667	4.87747E-001	9.09855E-005	0.00000E+000	4.43780E-005	5.39641E-002	4.87814E-001	3.57290E+000	9	...........
	17	0.24	4.97263E-001	9.10949E-005	0.00000E+000	4.52982E-005	5.39641E-002	4.97327E-001	3.57290E+000	9	...........
	18	0.253333	5.06469E-001	9.09564E-005	0.00000E+000	4.60666E-005	5.39641E-002	5.06538E-001	3.57290E+000	9	...........
	19	0.266667	5.15409E-001	9.08626E-005	0.00000E+000	4.68314E-005	5.39641E-002	5.15480E-001	3.57290E+000	9	...........
	20	0.28	5.24069E-001	9.08532E-005	0.00000E+000	4.76134E-005	5.39641E-002	5.24142E-001	3.57290E+000	9	...........
	21	0.293333	5.32444E-001	9.10970E-005	0.00000E+000	4.85041E-005	5.39641E-002	5.32514E-001	3.57290E+000	9	...........
	22	0.306667	5.40567E-001	9.09658E-005	0.00000E+000	4.91731E-005	5.39641E-002	5.40671E-001	3.57290E+000	9	...........
	23	0.32	5.48524E-001	9.10262E-005	0.00000E+000	4.99301E-005	5.39641E-002	5.48611E-001	3.57290E+000	9	...........
	24	0.333333	5.56219E-001	9.09918E-005	0.00000E+000	5.06114E-005	5.39641E-002	5.56329E-001	3.57290E+000	9	...........
	25	0.346667	5.63767E-001	9.10241E-005	0.00000E+000	5.13164E-005	5.39641E-002	5.63881E-001	3.57290E+000	9	...........
	26	0.36	5.71100E-001	9.10345E-005	0.00000E+000	5.19898E-005	5.39641E-002	5.71210E-001	3.57290E+000	9	...........
	27	0.373333	5.78231E-001	9.10762E-005	0.00000E+000	5.26631E-005	5.39641E-002	5.78377E-001	3.57290E+000	9	...........
	28	0.386667	5.85210E-001	9.10449E-005	0.00000E+000	5.32804E-005	5.39641E-002	5.85353E-001	3.57290E+000	9	...........
	29	0.4	5.92064E-001	9.09626E-005	0.00000E+000	5.38557E-005	5.39641E-002	5.92208E-001	3.57290E+000	9	...........
	30	0.413333	5.98724E-001	9.09564E-005	0.00000E+000	5.44578E-005	5.39641E-002	5.98868E-001	3.57290E+000	9	...........
	31	0.426667	6.05245E-001	9.12700E-005	0.00000E+000	5.52407E-005	5.39641E-002	6.05395E-001	3.57290E+000	9	...........
	32	0.44	6.11621E-001	9.09897E-005	0.00000E+000	5.56512E-005	5.39641E-002	6.11778E-001	3.57290E+000	9	...........
	33	0.453333	6.17921E-001	9.10481E-005	0.00000E+000	5.62605E-005	5.39641E-002	6.18043E-001	3.57290E+000	9	...........
	34	0.466667	6.23997E-001	9.09699E-005	0.00000E+000	5.67650E-005	5.39641E-002	6.24129E-001	3.57290E+000	9	...........
	35	0.48	6.29968E-001	9.09637E-005	0.00000E+000	5.73042E-005	5.39641E-002	6.30107E-001	3.57290E+000	9	...........
	36	0.493333	6.35824E-001	9.09293E-005	0.00000E+000	5.78150E-005	5.39641E-002	6.35953E-001	3.57290E+000	9	...........
	37	0.506667	6.41592E-001	9.08772E-005	0.00000E+000	5.83061E-005	5.39641E-002	6.41717E-001	3.57290E+000	9	...........
	38	0.52	6.47227E-001	9.09991E-005	0.00000E+000	5.88971E-005	5.39641E-002	6.47338E-001	3.57290E+000	9	...........
	39	0.533333	6.52731E-001	9.10283E-005	0.00000E+000	5.94170E-005	5.39641E-002	6.52869E-001	3.57290E+000	9	...........
	40	0.546667	6.58150E-001	9.13710E-005	0.00000E+000	6.01358E-005	5.39641E-002	6.58289E-001	3.57290E+000	9	...........
	41	0.56	6.63462E-001	9.08939E-005	0.00000E+000	6.03046E-005	5.39641E-002	6.63645E-001	3.57290E+000	9	...........
	42	0.573333	6.68752E-001	9.09209E-005	0.00000E+000	6.08036E-005	5.39641E-002	6.68903E-001	3.57290E+000	9	...........
	43	0.586667	6.73919E-001	9.09376E-005	0.00000E+000	6.12846E-005	5.39641E-002	6.74070E-001	3.57290E+000	9	...........
	44	0.6	6.78974E-001	9.09262E-005	0.00000E+000	6.17365E-005	5.39641E-002	6.79139E-001	3.57290E+000	9	...........
	45	0.613333	6.83977E-001	9.10887E-005	0.00000E+000	6.23025E-005	5.39641E-002	6.84158E-001	3.57290E+000	9	...........
	46	0.626667	6.88909E-001	9.09491E-005	0.00000E+000	6.26556E-005	5.39641E-002	6.89069E-001	3.57290E+000	9	...........
	47	0.64	6.93773E-001	9.10731E-005	0.00000E+000	6.31840E-005	5.39641E-002	6.93903E-001	3.57290E+000	9	...........
	48	0.653333	6.98515E-001	9.10262E-005	0.00000E+000	6.35831E-005	5.39641E-002	6.98644E-001	3.57290E+000	9	...........
	49	0.666667	7.03219E-001	9.11616E-005	0.00000E+000	6.41066E-005	5.39641E-002	7.03345E-001	3.57290E+000	9	...........
	50	0.68	7.07848E-001	9.10814E-005	0.00000E+000	6.44718E-005	5.39641E-002	7.07970E-001	3.57290E+000	9	...........
	51	0.693333	7.12391E-001	9.10033E-005	0.00000E+000	6.48299E-005	5.39641E-002	7.12529E-001	3.57290E+000	9	...........
	52	0.706667	7.16899E-001	9.10929E-005	0.00000E+000	6.53044E-005	5.39641E-002	7.17033E-001	3.57290E+000	9	...........
	53	0.72	7.21346E-001	9.10241E-005	0.00000E+000	6.56598E-005	5.39641E-002	7.21454E-001	3.57290E+000	9	...........
	54	0.733333	7.25687E-001	9.09793E-005	0.00000E+000	6.60225E-005	5.39641E-002	7.25810E-001	3.57290E+000	9	...........
	55	0.746667	7.29970E-001	9.09460E-005	0.00000E+000	6.63878E-005	5.39641E-002	7.30108E-001	3.57290E+000	9	...........
	56	0.76	7.34192E-001	9.10804E-005	0.00000E+000	6.68704E-005	5.39641E-002	7.34346E-001	3.57290E+000	9	...........
	57	0.773333	7.38377E-001	9.10251E-005	0.00000E+000	6.72109E-005	5.39641E-002	7.38514E-001	3.57290E+000	9	...........
	58	0.786667	7.42530E-001	9.10376E-005	0.00000E+000	6.75981E-005	5.39641E-002	7.42655E-001	3.57290E+000	9	...........
	59	0.8	7.46577E-001	9.12054E-005	0.00000E+000	6.80919E-005	5.39641E-002	7.46705E-001	3.57290E+000	9	...........
	60	0.813333	7.50591E-001	9.07490E-005	0.00000E+000	6.81154E-005	5.39641E-002	7.50709E-001	3.57290E+000	9	...........
	61	0.826667	7.54560E-001	9.10647E-005	0.00000E+000	6.87138E-005	5.39641E-002	7.54682E-001	3.57290E+000	9	...........
	62	0.84	7.58508E-001	9.10564E-005	0.00000E+000	6.90670E-005	5.39641E-002	7.58616E-001	3.57290E+000	9	...........
	63	0.853333	7.62371E-001	9.11741E-005	0.00000E+000	6.95085E-005	5.39641E-002	7.62502E-001	3.57290E+000	9	...........
	64	0.866667	7.66188E-001	9.10283E-005	0.00000E+000	6.97448E-005	5.39641E-002	7.66334E-001	3.57290E+000	9	...........
	65	0.88	7.69987E-001	9.10074E-005	0.00000E+000	7.00746E-005	5.39641E-002	7.70141E-001	3.57290E+000	9	...........
	66	0.893333	7.73727E-001	9.11429E-005	0.00000E+000	7.05197E-005	5.39641E-002	7.73881E-001	3.57290E+000	9	...........
	67	0.906667	7.77433E-001	9.10428E-005	0.00000E+000	7.07797E-005	5.39641E-002	7.77577E-001	3.57290E+000	9	...........
	68	0.92	7.81083E-001	9.11147E-005	0.00000E+000	7.11681E-005	5.39641E-002	7.81240E-001	3.57290E+000	9	...........
	69	0.933333	7.84684E-001	9.11564E-005	0.00000E+000	7.15290E-005	5.39641E-002	7.84841E-001	3.57290E+000	9	...........
	70	0.946667	7.88248E-001	9.07647E-005	0.00000E+000	7.15450E-005	5.39641E-002	7.88421E-001	3.57290E+000	9	...........
	71	0.96	7.91787E-001	9.11231E-005	0.00000E+000	7.21500E-005	5.39641E-002	7.91931E-001	3.57290E+000	9	...........
	72	0.97333	7.95324E-001	9.10501E-005	0.00000E+000	7.24144E-005	5.39641E-002	7.95464E-001	3.57290E+000	9	...........
	73	0.98667	7.98754E-001	9.09512E-005	0.00000E+000	7.26476E-005	5.39641E-002	7.98880E-001	3.57273E+000	9	...........
	74	1	8.02163E-001	9.13033E-005	0.00000E+000	7.32401E-005	5.39641E-002	8.02306E-001	3.57270E+000	9	...........
	75	1.01333	8.05539E-001	9.11043E-005	0.00000E+000	7.33881E-005	5.39641E-002	8.05685E-001	3.57270E+000	9	...........
	76	1.02667	8.08878E-001	9.10356E-005	0.00000E+000	7.36366E-005	5.39641E-002	8.09027E-001	3.57270E+000	9	...........
	77	1.04	8.12185E-001	9.09564E-005	0.00000E+000	7.38734E-005	5.39641E-002	8.12336E-001	3.57270E+000	9	...........
	78	1.05333	8.15444E-001	9.08345E-005	0.00000E+000	7.40704E-005	5.39641E-002	8.15631E-001	3.57270E+000	9	...........
	79	1.06667	8.18703E-001	9.09658E-005	0.00000E+000	7.44739E-005	5.39641E-002	8.18877E-001	3.57270E+000	9	...........
	80	1.08	8.21909E-001	9.13044E-005	0.00000E+000	7.50439E-005	5.39641E-002	8.22082E-001	3.57270E+000	9	...........
	81	1.09333	8.25083E-001	9.07105E-005	0.00000E+000	7.48437E-005	5.39641E-002	8.25273E-001	3.57270E+000	9	...........
	82	1.10667	8.28196E-001	9.11898E-005	0.00000E+000	7.55230E-005	5.39641E-002	8.28377E-001	3.57270E+000	9	...........
	83	1.12	8.31315E-001	9.09532E-005	0.00000E+000	7.56108E-005	5.39641E-002	8.31505E-001	3.57270E+000	9	...........
	84	1.13333	8.34399E-001	9.09230E-005	0.00000E+000	7.58660E-005	5.39641E-002	8.34597E-001	3.57270E+000	9	...........
	85	1.14667	8.37431E-001	9.11054E-005	0.00000E+000	7.62945E-005	5.39641E-002	8.37638E-001	3.57270E+000	9	...........
	86	1.16	8.40426E-001	9.09032E-005	0.00000E+000	7.63974E-005	5.39641E-002	8.40614E-001	3.57270E+000	9	...........
	87	1.17333	8.43432E-001	9.10376E-005	0.00000E+000	7.67840E-005	5.39641E-002	8.43614E-001	3.57270E+000	9	...........
	88	1.18667	8.46431E-001	9.08324E-005	0.00000E+000	7.68833E-005	5.39641E-002	8.46602E-001	3.57270E+000	9	...........
	89	1.2	8.49354E-001	9.10251E-005	0.00000E+000	7.73126E-005	5.39641E-002	8.49524E-001	3.57270E+000	9	...........
	90	1.21333	8.52241E-001	9.09168E-005	0.00000E+000	7.74830E-005	5.39641E-002	8.52417E-001	3.57270E+000	9	...........
	91	1.22667	8.55081E-001	9.10376E-005	0.00000E+000	7.78446E-005	5.39641E-002	8.55279E-001	3.57270E+000	9	...........
	92	1.24	8.57897E-001	9.11022E-005	0.00000E+000	7.81564E-005	5.39641E-002	8.58124E-001	3.57270E+000	9	...........
	93	1.25333	8.60695E-001	9.08272E-005	0.00000E+000	7.81745E-005	5.39641E-002	8.60902E-001	3.57270E+000	9	...........
	94	1.26667	8.63467E-001	9.09262E-005	0.00000E+000	7.85117E-005	5.39641E-002	8.63682E-001	3.57270E+000	9	...........
	95	1.28	8.66200E-001	9.11095E-005	0.00000E+000	7.89191E-005	5.39641E-002	8.66424E-001	3.57270E+000	9	...........
	96	1.29333	8.68953E-001	9.09699E-005	0.00000E+000	7.90485E-005	5.39641E-002	8.69151E-001	3.57270E+000	9	...........
	97	1.30667	8.71667E-001	9.10345E-005	0.00000E+000	7.93518E-005	5.39641E-002	8.71873E-001	3.57270E+000	9	...........
	98	1.32	8.74333E-001	9.09178E-005	0.00000E+000	7.94925E-005	5.39641E-002	8.74524E-001	3.57270E+000	9	...........
	99	1.33333	8.76971E-001	9.09605E-005	0.00000E+000	7.97697E-005	5.39641E-002	8.77177E-001	3.57270E+000	9	...........
	100	1.34667	8.79584E-001	9.10699E-005	0.00000E+000	8.01037E-005	5.39641E-002	8.79788E-001	3.57270E+000	9	...........
	101	1.36	8.82197E-001	9.09960E-005	0.00000E+000	8.02764E-005	5.39641E-002	8.82377E-001	3.57270E+000	9	...........
	102	1.37333	8.84760E-001	9.11606E-005	0.00000E+000	8.06552E-005	5.39641E-002	8.84916E-001	3.57270E+000	9	...........
	103	1.38667	8.87261E-001	9.08418E-005	0.00000E+000	8.06003E-005	5.39641E-002	8.87452E-001	3.57270E+000	9	...........
	104	1.4	8.89774E-001	9.09991E-005	0.00000E+000	8.09686E-005	5.39641E-002	8.89946E-001	3.57270E+000	9	...........
	105	1.41333	8.92242E-001	9.12669E-005	0.00000E+000	8.14322E-005	5.39641E-002	8.92412E-001	3.57270E+000	9	...........
	106	1.42667	8.94687E-001	9.10929E-005	0.00000E+000	8.14996E-005	5.39641E-002	8.94880E-001	3.57270E+000	9	...........
	107	1.44	8.97123E-001	9.10345E-005	0.00000E+000	8.16692E-005	5.39641E-002	8.97288E-001	3.57270E+000	9	...........
	108	1.45333	8.99530E-001	9.11168E-005	0.00000E+000	8.19623E-005	5.39641E-002	8.99678E-001	3.57270E+000	9	...........
	109	1.46667	9.01909E-001	9.12877E-005	0.00000E+000	8.23332E-005	5.39641E-002	9.02074E-001	3.57270E+000	9	...........
	110	1.48	9.04283E-001	9.11293E-005	0.00000E+000	8.24067E-005	5.39641E-002	9.04427E-001	3.57270E+000	9	...........
	111	1.49333	9.06589E-001	9.10866E-005	0.00000E+000	8.25781E-005	5.39641E-002	9.06762E-001	3.57270E+000	9	...........
	112	1.50667	9.08932E-001	9.11168E-005	0.00000E+000	8.28190E-005	5.39641E-002	9.09070E-001	3.57270E+000	9	...........
	113	1.52	9.11193E-001	9.10845E-005	0.00000E+000	8.29956E-005	5.39641E-002	9.11342E-001	3.57270E+000	9	...........
	114	1.53333	9.13427E-001	9.11033E-005	0.00000E+000	8.32161E-005	5.39641E-002	9.13592E-001	3.57270E+000	9	...........
	115	1.54667	9.15661E-001	9.10095E-005	0.00000E+000	8.33339E-005	5.39641E-002	9.15833E-001	3.57270E+000	9	...........
	116	1.56	9.17871E-001	9.11856E-005	0.00000E+000	8.36966E-005	5.39641E-002	9.18059E-001	3.57270E+000	9	...........
	117	1.57333	9.20079E-001	9.11408E-005	0.00000E+000	8.38567E-005	5.39641E-002	9.20252E-001	3.57270E+000	9	...........
	118	1.58667	9.22292E-001	9.12752E-005	0.00000E+000	8.41824E-005	5.39641E-002	9.22422E-001	3.57270E+000	9	...........
	119	1.6	9.24399E-001	9.09470E-005	0.00000E+000	8.40713E-005	5.39641E-002	9.24562E-001	3.57270E+000	9	...........
	120	1.61333	9.26483E-001	9.10147E-005	0.00000E+000	8.43236E-005	5.39641E-002	9.26694E-001	3.57270E+000	9	...........
	121	1.62667	9.28601E-001	9.12314E-005	0.00000E+000	8.47176E-005	5.39641E-002	9.28771E-001	3.57270E+000	9	...........
	122	1.64	9.30677E-001	9.09866E-005	0.00000E+000	8.46791E-005	5.39641E-002	9.30852E-001	3.57270E+000	9	...........
	123	1.65333	9.32714E-001	9.07918E-005	0.00000E+000	8.46827E-005	5.39641E-002	9.32885E-001	3.57270E+000	9	...........
	124	1.66667	9.34751E-001	9.11179E-005	0.00000E+000	8.51725E-005	5.39641E-002	9.34920E-001	3.57270E+000	9	...........
	125	1.68	9.36744E-001	9.10637E-005	0.00000E+000	8.53034E-005	5.39641E-002	9.36930E-001	3.57270E+000	9	...........
	126	1.69333	9.38731E-001	9.11804E-005	0.00000E+000	8.55938E-005	5.39641E-002	9.38909E-001	3.57270E+000	9	...........
	127	1.70667	9.40719E-001	9.11043E-005	0.00000E+000	8.57036E-005	5.39641E-002	9.40859E-001	3.57270E+000	9	...........
	128	1.72	9.42661E-001	9.10335E-005	0.00000E+000	8.58137E-005	5.39641E-002	9.42805E-001	3.57270E+000	9	...........
	129	1.73333	9.44604E-001	9.10877E-005	0.00000E+000	8.60418E-005	5.39641E-002	9.44753E-001	3.57270E+000	9	...........
	130	1.74667	9.46545E-001	9.12679E-005	0.00000E+000	8.63892E-005	5.39641E-002	9.46696E-001	3.57270E+000	9	...........
	131	1.76	9.48443E-001	9.10085E-005	0.00000E+000	8.63164E-005	5.39641E-002	9.48574E-001	3.57270E+000	9	...........
	132	1.77333	9.50296E-001	9.10533E-005	0.00000E+000	8.65276E-005	5.39641E-002	9.50448E-001	3.57270E+000	9	...........
	133	1.78667	9.52130E-001	9.09918E-005	0.00000E+000	8.66360E-005	5.39641E-002	9.52293E-001	3.57270E+000	9	...........
	134	1.8	9.53942E-001	9.10512E-005	0.00000E+000	8.68575E-005	5.39641E-002	9.54098E-001	3.57270E+000	9	...........
	135	1.81333	9.55735E-001	9.09699E-005	0.00000E+000	8.69431E-005	5.39641E-002	9.55873E-001	3.57270E+000	9	...........
	136	1.82667	9.57508E-001	9.11387E-005	0.00000E+000	8.72660E-005	5.39641E-002	9.57651E-001	3.57270E+000	9	...........
	137	1.84	9.59256E-001	9.11741E-005	0.00000E+000	8.74593E-005	5.39641E-002	9.59429E-001	3.57270E+000	9	...........
	138	1.85333	9.60977E-001	9.09772E-005	0.00000E+000	8.74270E-005	5.39641E-002	9.61179E-001	3.57270E+000	9	...........
	139	1.86667	9.62692E-001	9.09845E-005	0.00000E+000	8.75901E-005	5.39641E-002	9.62891E-001	3.57270E+000	9	...........
	140	1.88	9.64364E-001	9.11835E-005	0.00000E+000	8.79341E-005	5.39641E-002	9.64578E-001	3.57270E+000	9	...........
	141	1.89333	9.66046E-001	9.10574E-005	0.00000E+000	8.79657E-005	5.39641E-002	9.66233E-001	3.57270E+000	9	...........
	142	1.90667	9.67707E-001	9.10366E-005	0.00000E+000	8.80967E-005	5.39641E-002	9.67903E-001	3.57270E+000	9	...........
	143	1.92	9.69347E-001	9.11335E-005	0.00000E+000	8.83400E-005	5.39641E-002	9.69531E-001	3.57270E+000	9	...........
	144	1.93333	9.70980E-001	9.11262E-005	0.00000E+000	8.84817E-005	5.39641E-002	9.71174E-001	3.57270E+000	9	...........
	145	1.94667	9.72626E-001	9.10741E-005	0.00000E+000	8.85810E-005	5.39641E-002	9.72796E-001	3.57270E+000	9	...........
	146	1.96	9.74253E-001	9.11825E-005	0.00000E+000	8.88348E-005	5.39641E-002	9.74424E-001	3.57270E+000	9	...........
	147	1.97333	9.75838E-001	9.10262E-005	0.00000E+000	8.88268E-005	5.39641E-002	9.76001E-001	3.57270E+000	9	...........
	148	1.98667	9.77360E-001	9.07522E-005	0.00000E+000	8.86976E-005	5.39641E-002	9.77556E-001	3.57261E+000	9	...........
	149	2	9.78911E-001	9.07501E-005	0.00000E+000	8.88362E-005	5.39641E-002	9.79074E-001	3.57260E+000	9	...........
	150	2.01333	9.80407E-001	9.09303E-005	0.00000E+000	8.91488E-005	5.39641E-002	9.80584E-001	3.57260E+000	9	...........
	151	2.02667	9.81916E-001	9.11481E-005	0.00000E+000	8.94997E-005	5.39641E-002	9.82101E-001	3.57260E+000	9	...........
	152	2.04	9.83390E-001	9.09730E-005	0.00000E+000	8.94620E-005	5.39641E-002	9.83577E-001	3.57260E+000	9	...........
	153	2.05333	9.84863E-001	9.08355E-005	0.00000E+000	8.94605E-005	5.39641E-002	9.85080E-001	3.57260E+000	9	...........
	154	2.06667	9.86330E-001	9.12127E-005	0.00000E+000	8.99658E-005	5.39641E-002	9.86534E-001	3.57260E+000	9	...........
	155	2.08	9.87772E-001	9.12356E-005	0.00000E+000	9.01199E-005	5.39641E-002	9.87980E-001	3.57260E+000	9	...........
	156	2.09333	9.89226E-001	9.12283E-005	0.00000E+000	9.02454E-005	5.39641E-002	9.89407E-001	3.57260E+000	9	...........
	157	2.10667	9.90634E-001	9.10668E-005	0.00000E+000	9.02139E-005	5.39641E-002	9.90825E-001	3.57260E+000	9	...........
	158	2.12	9.92027E-001	9.10606E-005	0.00000E+000	9.03345E-005	5.39641E-002	9.92227E-001	3.57260E+000	9	...........
	159	2.13333	9.93424E-001	9.08261E-005	0.00000E+000	9.02288E-005	5.39641E-002	9.93649E-001	3.57260E+000	9	...........
	160	2.14667	9.94805E-001	9.10658E-005	0.00000E+000	9.05927E-005	5.39641E-002	9.95040E-001	3.57260E+000	9	...........
	161	2.16	9.96170E-001	9.10283E-005	0.00000E+000	9.06796E-005	5.39641E-002	9.96381E-001	3.57260E+000	9	...........
	162	2.17333	9.97545E-001	9.10835E-005	0.00000E+000	9.08599E-005	5.39641E-002	9.97776E-001	3.57260E+000	9	...........
	163	2.18667	9.98883E-001	9.11408E-005	0.00000E+000	9.10390E-005	5.39641E-002	9.99092E-001	3.57260E+000	9	...........
	164	2.19333	9.99893E-001	9.12127E-005	0.00000E+000	9.12030E-005	5.39641E-002	1.00011E+000	3.57260E+000	9	...........
STARTTIMEOFFSET	QUANT	2990.273	Start Time Offset (s)
