EXPLAIN
TAG	PWR800_CHARGE
TITLE	LABEL	PWR Cyclic Charge Discharge (Cell) - Charge Step	Test &Identifier
DATE	LABEL	10-7-2017	Date
TIME	LABEL	16:21:01	Time
NOTES	NOTES	3	&Notes...
	supercap test cell
	0.9mg
	6M KOH
PSTAT	PSTAT	IFC5000-01520	Potentiostat
CAPACITY	QUANT	1.00000E-003	Capacity (A-hr)
CELLTYPE	SELECTOR	1	&Cell Type
WORKINGCONNECTION	SELECTOR	0	&Working Lead
MAXCHARGETIME	VARIABLEANDUNITS	1.00000E+002	s	1.00000E+002	second(s)	Max &Charge Time
CHARGECURRENT	QUANT	9.00000E-005	&Charge Current (A) 
VOLTAGEFINISH	TWOPARAM	F	1.00000E-003	3.60000E+003	&Voltage Finish	 I (A) < 	Max Time(s)
SAMPLETIME	QUANT	1.00000E-002	Sa&mple Period (s)
CHARGESTOPAT1	MULTIPARAM	4	1.00000E+000	Charge Stop At &1	Voltage > Limit	V
CHARGESTOPAT2	MULTIPARAM	0	0.00000E+000	Charge Stop At &2	None	N/A
AESBHCSELECTOR	TOGGLE	F	Save Both Half Cells
IRCOMP	TOGGLE	F	IR &Measure
EOC	QUANT	0	Open Circuit (V)
SEQUENCER	TOGGLE	TRUE	Run as Sequence
PSTATMODEL	IQUANT	53	Pstat Model
PSTATSECTION	LABEL	IFC5000-01520	Pstat Section
PSTATSERIALNO	LABEL	01520	Pstat Serial Number
CTRLMODE	IQUANT	0	Control Mode
ELECTROMETER	IQUANT	1	RE=0 or CS=1
IESTAB	IQUANT	0	I/E Stability
CASPEED	IQUANT	4	Control Amp Speed
CONVENTION	IQUANT	1	Current Convention
ICHRANGE	IQUANT	2	Ich Range
ICHRANGEMODE	TOGGLE	T	Ich Auto Range
ICHOFFSETENABLE	TOGGLE	F	Ich Offset Enable
ICHOFFSET	QUANT	0	Ich Offset (V)
ICHFILTER	IQUANT	1	Ich Filter
VCHRANGE	IQUANT	2	Vch Range
VCHRANGEMODE	TOGGLE	T	Vch Auto Range
VCHOFFSETENABLE	TOGGLE	F	Vch Offset Enable
VCHOFFSET	QUANT	0	Vch Offset (V)
VCHFILTER	IQUANT	1	Vch Filter
IERANGELOWERLIMIT	IQUANT	9	I/E Range Lower Limit
IERANGEMODE	TOGGLE	F	I/E AutoRange
IERANGE	IQUANT	9	I/E Range
ACHSELECT	IQUANT	1	Ach Select
ACHRANGE	IQUANT	2	Ach Range
ACHOFFSETENABLE	TOGGLE	F	Ach Offset Enable
ACHOFFSET	QUANT	0	Ach Offset (V)
ACHFILTER	IQUANT	1	Ach Filter
CABLEID	IQUANT	14	Cable ID
DCCALDATE	LABEL	5-7-2017	DC Calibration Date
ACCALDATE	LABEL	12/3/2015	AC Calibration Date
FRAMEWORKVERSION	QUANT	7.01	Framework Version
INSTRUMENTVERSION	LABEL	4.00	Instrument Version
CURVE	TABLE	161
	Pt	T	Vf	Im	Vu	Pwr	Sig	Ach	Temp	IERange	Over
	#	s	V	A	V	W	V	V	deg C	#	bits
	0	0.013333	2.80458E-001	9.07803E-005	0.00000E+000	2.54600E-005	5.39641E-002	2.80499E-001	3.57320E+000	9	...........
	1	0.026667	2.99748E-001	9.07876E-005	0.00000E+000	2.72134E-005	5.39641E-002	2.99789E-001	3.57320E+000	9	...........
	2	0.04	3.17848E-001	9.07803E-005	0.00000E+000	2.88544E-005	5.39641E-002	3.17889E-001	3.57320E+000	9	...........
	3	0.053333	3.34919E-001	9.10606E-005	0.00000E+000	3.04979E-005	5.39641E-002	3.34961E-001	3.57320E+000	9	...........
	4	0.066667	3.51072E-001	9.08459E-005	0.00000E+000	3.18935E-005	5.39641E-002	3.51115E-001	3.57320E+000	9	...........
	5	0.08	3.66382E-001	9.08564E-005	0.00000E+000	3.32881E-005	5.39641E-002	3.66431E-001	3.57320E+000	9	...........
	6	0.093333	3.80933E-001	9.08897E-005	0.00000E+000	3.46229E-005	5.39641E-002	3.80984E-001	3.57320E+000	9	...........
	7	0.106667	3.94799E-001	9.08261E-005	0.00000E+000	3.58581E-005	5.39641E-002	3.94851E-001	3.57320E+000	9	...........
	8	0.12	4.08021E-001	9.09293E-005	0.00000E+000	3.71011E-005	5.39641E-002	4.08074E-001	3.57320E+000	9	...........
	9	0.133333	4.20664E-001	9.09480E-005	0.00000E+000	3.82586E-005	5.39641E-002	4.20728E-001	3.57320E+000	9	...........
	10	0.146667	4.32775E-001	9.08355E-005	0.00000E+000	3.93114E-005	5.39641E-002	4.32835E-001	3.57320E+000	9	...........
	11	0.16	4.44394E-001	9.09960E-005	0.00000E+000	4.04380E-005	5.39641E-002	4.44458E-001	3.57320E+000	9	...........
	12	0.173333	4.55556E-001	9.11762E-005	0.00000E+000	4.15359E-005	5.39641E-002	4.55612E-001	3.57320E+000	9	...........
	13	0.186667	4.66297E-001	9.07522E-005	0.00000E+000	4.23174E-005	5.39641E-002	4.66351E-001	3.57320E+000	9	...........
	14	0.2	4.76643E-001	9.07365E-005	0.00000E+000	4.32489E-005	5.39641E-002	4.76702E-001	3.57320E+000	9	...........
	15	0.213333	4.86634E-001	9.08386E-005	0.00000E+000	4.42051E-005	5.39641E-002	4.86695E-001	3.57320E+000	9	...........
	16	0.226667	4.96293E-001	9.09387E-005	0.00000E+000	4.51323E-005	5.39641E-002	4.96360E-001	3.57320E+000	9	...........
	17	0.24	5.05628E-001	9.13710E-005	0.00000E+000	4.61998E-005	5.39641E-002	5.05697E-001	3.57320E+000	9	...........
	18	0.253333	5.14666E-001	9.10845E-005	0.00000E+000	4.68781E-005	5.39641E-002	5.14737E-001	3.57320E+000	9	...........
	19	0.266667	5.23424E-001	9.06021E-005	0.00000E+000	4.74233E-005	5.39641E-002	5.23500E-001	3.57320E+000	9	...........
	20	0.28	5.31876E-001	9.08636E-005	0.00000E+000	4.83282E-005	5.39641E-002	5.31960E-001	3.57320E+000	9	...........
	21	0.293333	5.40022E-001	9.07022E-005	0.00000E+000	4.89812E-005	5.39641E-002	5.40150E-001	3.57320E+000	9	...........
	22	0.306667	5.48043E-001	9.08178E-005	0.00000E+000	4.97720E-005	5.39641E-002	5.48135E-001	3.57320E+000	9	...........
	23	0.32	5.55824E-001	9.09741E-005	0.00000E+000	5.05656E-005	5.39641E-002	5.55939E-001	3.57320E+000	9	...........
	24	0.333333	5.63407E-001	9.13210E-005	0.00000E+000	5.14509E-005	5.39641E-002	5.63561E-001	3.57320E+000	9	...........
	25	0.346667	5.70809E-001	9.08699E-005	0.00000E+000	5.18693E-005	5.39641E-002	5.70906E-001	3.57320E+000	9	...........
	26	0.36	5.77953E-001	9.09012E-005	0.00000E+000	5.25366E-005	5.39641E-002	5.78098E-001	3.57320E+000	9	...........
	27	0.373333	5.84985E-001	9.10824E-005	0.00000E+000	5.32819E-005	5.39641E-002	5.85111E-001	3.57320E+000	9	...........
	28	0.386667	5.91890E-001	9.10189E-005	0.00000E+000	5.38732E-005	5.39641E-002	5.92003E-001	3.57320E+000	9	...........
	29	0.4	5.98584E-001	9.09022E-005	0.00000E+000	5.44126E-005	5.39641E-002	5.98716E-001	3.57320E+000	9	...........
	30	0.413333	6.05110E-001	9.11002E-005	0.00000E+000	5.51256E-005	5.39641E-002	6.05262E-001	3.57320E+000	9	...........
	31	0.426667	6.11495E-001	9.09314E-005	0.00000E+000	5.56041E-005	5.39641E-002	6.11668E-001	3.57320E+000	9	...........
	32	0.44	6.17832E-001	9.08845E-005	0.00000E+000	5.61514E-005	5.39641E-002	6.17926E-001	3.57320E+000	9	...........
	33	0.453333	6.23950E-001	9.10501E-005	0.00000E+000	5.68107E-005	5.39641E-002	6.24059E-001	3.57320E+000	9	...........
	34	0.466667	6.29968E-001	9.09095E-005	0.00000E+000	5.72701E-005	5.39641E-002	6.30108E-001	3.57320E+000	9	...........
	35	0.48	6.35848E-001	9.10168E-005	0.00000E+000	5.78728E-005	5.39641E-002	6.36003E-001	3.57320E+000	9	...........
	36	0.493333	6.41666E-001	9.10699E-005	0.00000E+000	5.84365E-005	5.39641E-002	6.41788E-001	3.57320E+000	9	...........
	37	0.506667	6.47317E-001	9.11095E-005	0.00000E+000	5.89767E-005	5.39641E-002	6.47467E-001	3.57320E+000	9	...........
	38	0.52	6.52896E-001	9.08168E-005	0.00000E+000	5.92939E-005	5.39641E-002	6.53047E-001	3.57320E+000	9	...........
	39	0.533333	6.58401E-001	9.09460E-005	0.00000E+000	5.98789E-005	5.39641E-002	6.58503E-001	3.57320E+000	9	...........
	40	0.546667	6.63738E-001	9.11116E-005	0.00000E+000	6.04742E-005	5.39641E-002	6.63897E-001	3.57320E+000	9	...........
	41	0.56	6.69034E-001	9.09605E-005	0.00000E+000	6.08557E-005	5.39641E-002	6.69159E-001	3.57320E+000	9	...........
	42	0.573333	6.74196E-001	9.10856E-005	0.00000E+000	6.14095E-005	5.39641E-002	6.74315E-001	3.57320E+000	9	...........
	43	0.586667	6.79310E-001	9.07240E-005	0.00000E+000	6.16297E-005	5.39641E-002	6.79413E-001	3.57600E+000	9	...........
	44	0.6	6.84302E-001	9.09939E-005	0.00000E+000	6.22673E-005	5.39641E-002	6.84445E-001	3.57640E+000	9	...........
	45	0.613333	6.89241E-001	9.08803E-005	0.00000E+000	6.26384E-005	5.39641E-002	6.89372E-001	3.57640E+000	9	...........
	46	0.626667	6.94129E-001	9.10241E-005	0.00000E+000	6.31825E-005	5.39641E-002	6.94269E-001	3.57640E+000	9	...........
	47	0.64	6.98918E-001	9.08272E-005	0.00000E+000	6.34808E-005	5.39641E-002	6.99038E-001	3.57640E+000	9	...........
	48	0.653333	7.03633E-001	9.10710E-005	0.00000E+000	6.40805E-005	5.39641E-002	7.03773E-001	3.57640E+000	9	...........
	49	0.666667	7.08278E-001	9.10481E-005	0.00000E+000	6.44874E-005	5.39641E-002	7.08425E-001	3.57640E+000	9	...........
	50	0.68	7.12839E-001	9.10512E-005	0.00000E+000	6.49048E-005	5.39641E-002	7.12993E-001	3.57640E+000	9	...........
	51	0.693333	7.17375E-001	9.11658E-005	0.00000E+000	6.54001E-005	5.39641E-002	7.17538E-001	3.57640E+000	9	...........
	52	0.706667	7.21859E-001	9.08470E-005	0.00000E+000	6.55787E-005	5.39641E-002	7.22000E-001	3.57640E+000	9	...........
	53	0.72	7.26256E-001	9.08199E-005	0.00000E+000	6.59585E-005	5.39641E-002	7.26379E-001	3.57640E+000	9	...........
	54	0.733333	7.30563E-001	9.10137E-005	0.00000E+000	6.64912E-005	5.39641E-002	7.30710E-001	3.57640E+000	9	...........
	55	0.746667	7.34836E-001	9.08657E-005	0.00000E+000	6.67714E-005	5.39641E-002	7.34959E-001	3.57640E+000	9	...........
	56	0.76	7.39056E-001	9.09741E-005	0.00000E+000	6.72349E-005	5.39641E-002	7.39179E-001	3.57640E+000	9	...........
	57	0.773333	7.43250E-001	9.08178E-005	0.00000E+000	6.75003E-005	5.39641E-002	7.43389E-001	3.57640E+000	9	...........
	58	0.786667	7.47368E-001	9.10439E-005	0.00000E+000	6.80433E-005	5.39641E-002	7.47496E-001	3.57640E+000	9	...........
	59	0.8	7.51460E-001	9.10303E-005	0.00000E+000	6.84057E-005	5.39641E-002	7.51584E-001	3.57640E+000	9	...........
	60	0.813333	7.55492E-001	9.08793E-005	0.00000E+000	6.86586E-005	5.39641E-002	7.55611E-001	3.57640E+000	9	...........
	61	0.826667	7.59440E-001	9.10689E-005	0.00000E+000	6.91613E-005	5.39641E-002	7.59581E-001	3.57640E+000	9	...........
	62	0.84	7.63369E-001	9.12356E-005	0.00000E+000	6.96464E-005	5.39641E-002	7.63494E-001	3.57640E+000	9	...........
	63	0.853333	7.67211E-001	9.09876E-005	0.00000E+000	6.98067E-005	5.39641E-002	7.67382E-001	3.57640E+000	9	...........
	64	0.866667	7.71074E-001	9.11220E-005	0.00000E+000	7.02618E-005	5.39641E-002	7.71225E-001	3.57640E+000	9	...........
	65	0.88	7.74847E-001	9.11085E-005	0.00000E+000	7.05951E-005	5.39641E-002	7.75001E-001	3.57640E+000	9	...........
	66	0.893333	7.78613E-001	9.10741E-005	0.00000E+000	7.09115E-005	5.39641E-002	7.78784E-001	3.57640E+000	9	...........
	67	0.906667	7.82338E-001	9.09585E-005	0.00000E+000	7.11603E-005	5.39641E-002	7.82487E-001	3.57640E+000	9	...........
	68	0.92	7.85993E-001	9.08543E-005	0.00000E+000	7.14108E-005	5.39641E-002	7.86131E-001	3.57640E+000	9	...........
	69	0.933333	7.89626E-001	9.09480E-005	0.00000E+000	7.18149E-005	5.39641E-002	7.89771E-001	3.57640E+000	9	...........
	70	0.946667	7.93226E-001	9.11491E-005	0.00000E+000	7.23018E-005	5.39641E-002	7.93388E-001	3.57640E+000	9	...........
	71	0.96	7.96795E-001	9.13273E-005	0.00000E+000	7.27691E-005	5.39641E-002	7.96929E-001	3.57640E+000	9	...........
	72	0.97333	8.00316E-001	9.11397E-005	0.00000E+000	7.29406E-005	5.39641E-002	8.00462E-001	3.57640E+000	9	...........
	73	0.98667	8.03816E-001	9.11127E-005	0.00000E+000	7.32378E-005	5.39641E-002	8.03955E-001	3.57640E+000	9	...........
	74	1	8.07272E-001	9.10626E-005	0.00000E+000	7.35124E-005	5.39641E-002	8.07435E-001	3.57640E+000	9	...........
	75	1.01333	8.10705E-001	9.10272E-005	0.00000E+000	7.37962E-005	5.39641E-002	8.10838E-001	3.57640E+000	9	...........
	76	1.02667	8.14082E-001	9.10199E-005	0.00000E+000	7.40977E-005	5.39641E-002	8.14228E-001	3.57640E+000	9	...........
	77	1.04	8.17412E-001	9.11981E-005	0.00000E+000	7.45464E-005	5.39641E-002	8.17570E-001	3.57640E+000	9	...........
	78	1.05333	8.20738E-001	9.11054E-005	0.00000E+000	7.47737E-005	5.39641E-002	8.20891E-001	3.57640E+000	9	...........
	79	1.06667	8.23972E-001	9.11179E-005	0.00000E+000	7.50786E-005	5.39641E-002	8.24166E-001	3.57640E+000	9	...........
	80	1.08	8.27226E-001	9.09553E-005	0.00000E+000	7.52406E-005	5.39641E-002	8.27388E-001	3.57640E+000	9	...........
	81	1.09333	8.30416E-001	9.09783E-005	0.00000E+000	7.55498E-005	5.39641E-002	8.30597E-001	3.57640E+000	9	...........
	82	1.10667	8.33558E-001	9.10949E-005	0.00000E+000	7.59329E-005	5.39641E-002	8.33755E-001	3.57640E+000	9	...........
	83	1.12	8.36683E-001	9.10897E-005	0.00000E+000	7.62132E-005	5.39641E-002	8.36871E-001	3.57640E+000	9	...........
	84	1.13333	8.39759E-001	9.08220E-005	0.00000E+000	7.62686E-005	5.39641E-002	8.39954E-001	3.57640E+000	9	...........
	85	1.14667	8.42849E-001	9.10199E-005	0.00000E+000	7.67161E-005	5.39641E-002	8.43061E-001	3.57640E+000	9	...........
	86	1.16	8.45953E-001	9.09793E-005	0.00000E+000	7.69642E-005	5.39641E-002	8.46116E-001	3.57640E+000	9	...........
	87	1.17333	8.48931E-001	9.09470E-005	0.00000E+000	7.72078E-005	5.39641E-002	8.49144E-001	3.57640E+000	9	...........
	88	1.18667	8.51906E-001	9.08730E-005	0.00000E+000	7.74153E-005	5.39641E-002	8.52092E-001	3.57640E+000	9	...........
	89	1.2	8.54851E-001	9.07303E-005	0.00000E+000	7.75609E-005	5.39641E-002	8.55056E-001	3.57640E+000	9	...........
	90	1.21333	8.57756E-001	9.08251E-005	0.00000E+000	7.79058E-005	5.39641E-002	8.57968E-001	3.57640E+000	9	...........
	91	1.22667	8.60650E-001	9.11137E-005	0.00000E+000	7.84170E-005	5.39641E-002	8.60824E-001	3.57640E+000	9	...........
	92	1.24	8.63498E-001	9.09178E-005	0.00000E+000	7.85074E-005	5.39641E-002	8.63666E-001	3.57640E+000	9	...........
	93	1.25333	8.66323E-001	9.08397E-005	0.00000E+000	7.86965E-005	5.39641E-002	8.66493E-001	3.57640E+000	9	...........
	94	1.26667	8.69146E-001	9.09001E-005	0.00000E+000	7.90055E-005	5.39641E-002	8.69287E-001	3.57640E+000	9	...........
	95	1.28	8.71919E-001	9.10585E-005	0.00000E+000	7.93956E-005	5.39641E-002	8.72074E-001	3.57640E+000	9	...........
	96	1.29333	8.74633E-001	9.09053E-005	0.00000E+000	7.95088E-005	5.39641E-002	8.74779E-001	3.57640E+000	9	...........
	97	1.30667	8.77356E-001	9.11658E-005	0.00000E+000	7.99848E-005	5.39641E-002	8.77504E-001	3.57640E+000	9	...........
	98	1.32	8.80020E-001	9.08949E-005	0.00000E+000	7.99894E-005	5.39641E-002	8.80186E-001	3.57640E+000	9	...........
	99	1.33333	8.82680E-001	9.10387E-005	0.00000E+000	8.03580E-005	5.39641E-002	8.82857E-001	3.57640E+000	9	...........
	100	1.34667	8.85314E-001	9.11700E-005	0.00000E+000	8.07140E-005	5.39641E-002	8.85512E-001	3.57640E+000	9	...........
	101	1.36	8.87883E-001	9.08366E-005	0.00000E+000	8.06523E-005	5.39641E-002	8.88083E-001	3.57640E+000	9	...........
	102	1.37333	8.90456E-001	9.10085E-005	0.00000E+000	8.10390E-005	5.39641E-002	8.90662E-001	3.57640E+000	9	...........
	103	1.38667	8.92981E-001	9.11866E-005	0.00000E+000	8.14280E-005	5.39641E-002	8.93182E-001	3.57640E+000	9	...........
	104	1.4	8.95491E-001	9.10387E-005	0.00000E+000	8.15243E-005	5.39641E-002	8.95725E-001	3.57640E+000	9	...........
	105	1.41333	8.97981E-001	9.08834E-005	0.00000E+000	8.16116E-005	5.39641E-002	8.98192E-001	3.57640E+000	9	...........
	106	1.42667	9.00467E-001	9.08730E-005	0.00000E+000	8.18281E-005	5.39641E-002	9.00673E-001	3.57640E+000	9	...........
	107	1.44	9.02890E-001	9.08709E-005	0.00000E+000	8.20465E-005	5.39641E-002	9.03128E-001	3.57640E+000	9	...........
	108	1.45333	9.05304E-001	9.12168E-005	0.00000E+000	8.25789E-005	5.39641E-002	9.05530E-001	3.57640E+000	9	...........
	109	1.46667	9.07698E-001	9.10783E-005	0.00000E+000	8.26716E-005	5.39641E-002	9.07944E-001	3.57640E+000	9	...........
	110	1.48	9.10109E-001	9.09616E-005	0.00000E+000	8.27850E-005	5.39641E-002	9.10270E-001	3.57640E+000	9	...........
	111	1.49333	9.12430E-001	9.11366E-005	0.00000E+000	8.31558E-005	5.39641E-002	9.12608E-001	3.57640E+000	9	...........
	112	1.50667	9.14741E-001	9.10533E-005	0.00000E+000	8.32901E-005	5.39641E-002	9.14935E-001	3.57640E+000	9	...........
	113	1.52	9.17012E-001	9.10554E-005	0.00000E+000	8.34988E-005	5.39641E-002	9.17227E-001	3.57640E+000	9	...........
	114	1.53333	9.19301E-001	9.10981E-005	0.00000E+000	8.37466E-005	5.39641E-002	9.19477E-001	3.57640E+000	9	...........
	115	1.54667	9.21596E-001	9.09939E-005	0.00000E+000	8.38596E-005	5.39641E-002	9.21743E-001	3.57640E+000	9	...........
	116	1.56	9.23798E-001	9.07042E-005	0.00000E+000	8.37924E-005	5.39641E-002	9.23944E-001	3.57640E+000	9	...........
	117	1.57333	9.25979E-001	9.09970E-005	0.00000E+000	8.42613E-005	5.39641E-002	9.26154E-001	3.57640E+000	9	...........
	118	1.58667	9.28149E-001	9.08282E-005	0.00000E+000	8.43022E-005	5.39641E-002	9.28306E-001	3.57334E+000	9	...........
	119	1.6	9.30304E-001	9.09074E-005	0.00000E+000	8.45715E-005	5.39641E-002	9.30443E-001	3.57290E+000	9	...........
	120	1.61333	9.32426E-001	9.09199E-005	0.00000E+000	8.47761E-005	5.39641E-002	9.32573E-001	3.57290E+000	9	...........
	121	1.62667	9.34503E-001	9.08564E-005	0.00000E+000	8.49055E-005	5.39641E-002	9.34694E-001	3.57290E+000	9	...........
	122	1.64	9.36573E-001	9.10595E-005	0.00000E+000	8.52838E-005	5.39641E-002	9.36733E-001	3.57290E+000	9	...........
	123	1.65333	9.38612E-001	9.10147E-005	0.00000E+000	8.54275E-005	5.39641E-002	9.38808E-001	3.57290E+000	9	...........
	124	1.66667	9.40665E-001	9.08991E-005	0.00000E+000	8.55056E-005	5.39641E-002	9.40831E-001	3.57290E+000	9	...........
	125	1.68	9.42660E-001	9.11950E-005	0.00000E+000	8.59658E-005	5.39641E-002	9.42848E-001	3.57290E+000	9	...........
	126	1.69333	9.44631E-001	9.08824E-005	0.00000E+000	8.58503E-005	5.39641E-002	9.44814E-001	3.57290E+000	9	...........
	127	1.70667	9.46618E-001	9.08626E-005	0.00000E+000	8.60121E-005	5.39641E-002	9.46790E-001	3.57290E+000	9	...........
	128	1.72	9.48578E-001	9.10168E-005	0.00000E+000	8.63366E-005	5.39641E-002	9.48751E-001	3.57290E+000	9	...........
	129	1.73333	9.50484E-001	9.12960E-005	0.00000E+000	8.67754E-005	5.39641E-002	9.50671E-001	3.57290E+000	9	...........
	130	1.74667	9.52390E-001	9.09262E-005	0.00000E+000	8.65971E-005	5.39641E-002	9.52558E-001	3.57290E+000	9	...........
	131	1.76	9.54245E-001	9.10522E-005	0.00000E+000	8.68862E-005	5.39641E-002	9.54401E-001	3.57290E+000	9	...........
	132	1.77333	9.56095E-001	9.11658E-005	0.00000E+000	8.71631E-005	5.39641E-002	9.56273E-001	3.57290E+000	9	...........
	133	1.78667	9.57913E-001	9.08376E-005	0.00000E+000	8.70145E-005	5.39641E-002	9.58110E-001	3.57290E+000	9	...........
	134	1.8	9.59746E-001	9.09887E-005	0.00000E+000	8.73260E-005	5.39641E-002	9.59929E-001	3.57290E+000	9	...........
	135	1.81333	9.61511E-001	9.08272E-005	0.00000E+000	8.73313E-005	5.39641E-002	9.61693E-001	3.57290E+000	9	...........
	136	1.82667	9.63262E-001	9.12627E-005	0.00000E+000	8.79099E-005	5.39641E-002	9.63461E-001	3.57290E+000	9	...........
	137	1.84	9.65001E-001	9.08303E-005	0.00000E+000	8.76513E-005	5.39641E-002	9.65194E-001	3.57290E+000	9	...........
	138	1.85333	9.66745E-001	9.10512E-005	0.00000E+000	8.80233E-005	5.39641E-002	9.66928E-001	3.57290E+000	9	...........
	139	1.86667	9.68434E-001	9.10428E-005	0.00000E+000	8.81690E-005	5.39641E-002	9.68621E-001	3.57290E+000	9	...........
	140	1.88	9.70111E-001	9.08845E-005	0.00000E+000	8.81681E-005	5.39641E-002	9.70320E-001	3.57290E+000	9	...........
	141	1.89333	9.71787E-001	9.11345E-005	0.00000E+000	8.85633E-005	5.39641E-002	9.72030E-001	3.57290E+000	9	...........
	142	1.90667	9.73534E-001	9.10168E-005	0.00000E+000	8.86079E-005	5.39641E-002	9.73725E-001	3.57290E+000	9	...........
	143	1.92	9.75219E-001	9.11262E-005	0.00000E+000	8.88680E-005	5.39641E-002	9.75391E-001	3.57290E+000	9	...........
	144	1.93333	9.76839E-001	9.08709E-005	0.00000E+000	8.87663E-005	5.39641E-002	9.77041E-001	3.57290E+000	9	...........
	145	1.94667	9.78448E-001	9.11543E-005	0.00000E+000	8.91898E-005	5.39641E-002	9.78659E-001	3.57290E+000	9	...........
	146	1.96	9.80060E-001	9.09251E-005	0.00000E+000	8.91121E-005	5.39641E-002	9.80251E-001	3.57290E+000	9	...........
	147	1.97333	9.81620E-001	9.11564E-005	0.00000E+000	8.94810E-005	5.39641E-002	9.81839E-001	3.57290E+000	9	...........
	148	1.98667	9.83164E-001	9.07990E-005	0.00000E+000	8.92703E-005	5.39641E-002	9.83386E-001	3.57290E+000	9	...........
	149	2	9.84714E-001	9.09147E-005	0.00000E+000	8.95250E-005	5.39641E-002	9.84921E-001	3.57290E+000	9	...........
	150	2.01333	9.86250E-001	9.11835E-005	0.00000E+000	8.99297E-005	5.39641E-002	9.86446E-001	3.57290E+000	9	...........
	151	2.02667	9.87723E-001	9.11460E-005	0.00000E+000	9.00270E-005	5.39641E-002	9.87956E-001	3.57290E+000	9	...........
	152	2.04	9.89225E-001	9.07782E-005	0.00000E+000	8.98000E-005	5.39641E-002	9.89423E-001	3.57290E+000	9	...........
	153	2.05333	9.90675E-001	9.08261E-005	0.00000E+000	8.99792E-005	5.39641E-002	9.90867E-001	3.57290E+000	9	...........
	154	2.06667	9.92118E-001	9.10772E-005	0.00000E+000	9.03594E-005	5.39641E-002	9.92336E-001	3.57290E+000	9	...........
	155	2.08	9.93540E-001	9.11356E-005	0.00000E+000	9.05468E-005	5.39641E-002	9.93774E-001	3.57290E+000	9	...........
	156	2.09333	9.94984E-001	9.08470E-005	0.00000E+000	9.03913E-005	5.39641E-002	9.95209E-001	3.57290E+000	9	...........
	157	2.10667	9.96410E-001	9.10043E-005	0.00000E+000	9.06776E-005	5.39641E-002	9.96621E-001	3.57290E+000	9	...........
	158	2.12	9.97804E-001	9.09387E-005	0.00000E+000	9.07390E-005	5.39641E-002	9.98011E-001	3.57290E+000	9	...........
	159	2.13333	9.99167E-001	9.11554E-005	0.00000E+000	9.10794E-005	5.39641E-002	9.99375E-001	3.57290E+000	9	...........
	160	2.13667	9.99996E-001	9.06751E-005	0.00000E+000	9.06747E-005	5.39641E-002	1.00027E+000	3.57290E+000	9	...........
STARTTIMEOFFSET	QUANT	4112.66	Start Time Offset (s)
