EXPLAIN
TAG	PWR800_CHARGE
TITLE	LABEL	PWR Cyclic Charge Discharge (Cell) - Charge Step	Test &Identifier
DATE	LABEL	10-7-2017	Date
TIME	LABEL	15:27:27	Time
NOTES	NOTES	3	&Notes...
	supercap test cell
	0.9mg
	6M KOH
PSTAT	PSTAT	IFC5000-01520	Potentiostat
CAPACITY	QUANT	1.00000E-003	Capacity (A-hr)
CELLTYPE	SELECTOR	1	&Cell Type
WORKINGCONNECTION	SELECTOR	0	&Working Lead
MAXCHARGETIME	VARIABLEANDUNITS	1.00000E+002	s	1.00000E+002	second(s)	Max &Charge Time
CHARGECURRENT	QUANT	9.00000E-005	&Charge Current (A) 
VOLTAGEFINISH	TWOPARAM	F	1.00000E-003	3.60000E+003	&Voltage Finish	 I (A) < 	Max Time(s)
SAMPLETIME	QUANT	1.00000E-002	Sa&mple Period (s)
CHARGESTOPAT1	MULTIPARAM	4	1.00000E+000	Charge Stop At &1	Voltage > Limit	V
CHARGESTOPAT2	MULTIPARAM	0	0.00000E+000	Charge Stop At &2	None	N/A
AESBHCSELECTOR	TOGGLE	F	Save Both Half Cells
IRCOMP	TOGGLE	F	IR &Measure
EOC	QUANT	0	Open Circuit (V)
SEQUENCER	TOGGLE	TRUE	Run as Sequence
PSTATMODEL	IQUANT	53	Pstat Model
PSTATSECTION	LABEL	IFC5000-01520	Pstat Section
PSTATSERIALNO	LABEL	01520	Pstat Serial Number
CTRLMODE	IQUANT	0	Control Mode
ELECTROMETER	IQUANT	1	RE=0 or CS=1
IESTAB	IQUANT	0	I/E Stability
CASPEED	IQUANT	4	Control Amp Speed
CONVENTION	IQUANT	1	Current Convention
ICHRANGE	IQUANT	2	Ich Range
ICHRANGEMODE	TOGGLE	T	Ich Auto Range
ICHOFFSETENABLE	TOGGLE	F	Ich Offset Enable
ICHOFFSET	QUANT	0	Ich Offset (V)
ICHFILTER	IQUANT	1	Ich Filter
VCHRANGE	IQUANT	2	Vch Range
VCHRANGEMODE	TOGGLE	T	Vch Auto Range
VCHOFFSETENABLE	TOGGLE	F	Vch Offset Enable
VCHOFFSET	QUANT	0	Vch Offset (V)
VCHFILTER	IQUANT	1	Vch Filter
IERANGELOWERLIMIT	IQUANT	9	I/E Range Lower Limit
IERANGEMODE	TOGGLE	F	I/E AutoRange
IERANGE	IQUANT	9	I/E Range
ACHSELECT	IQUANT	1	Ach Select
ACHRANGE	IQUANT	2	Ach Range
ACHOFFSETENABLE	TOGGLE	F	Ach Offset Enable
ACHOFFSET	QUANT	0	Ach Offset (V)
ACHFILTER	IQUANT	1	Ach Filter
CABLEID	IQUANT	14	Cable ID
DCCALDATE	LABEL	5-7-2017	DC Calibration Date
ACCALDATE	LABEL	12/3/2015	AC Calibration Date
FRAMEWORKVERSION	QUANT	7.01	Framework Version
INSTRUMENTVERSION	LABEL	4.00	Instrument Version
CURVE	TABLE	176
	Pt	T	Vf	Im	Vu	Pwr	Sig	Ach	Temp	IERange	Over
	#	s	V	A	V	W	V	V	deg C	#	bits
	0	0.013333	2.79530E-001	9.09678E-005	0.00000E+000	2.54283E-005	5.39641E-002	2.79568E-001	3.57270E+000	9	...........
	1	0.026667	2.99099E-001	9.11720E-005	0.00000E+000	2.72695E-005	5.39641E-002	2.99142E-001	3.57270E+000	9	...........
	2	0.04	3.17263E-001	9.10960E-005	0.00000E+000	2.89014E-005	5.39641E-002	3.17302E-001	3.57270E+000	9	...........
	3	0.053333	3.34251E-001	9.09272E-005	0.00000E+000	3.03925E-005	5.39641E-002	3.34296E-001	3.57270E+000	9	...........
	4	0.066667	3.50224E-001	9.09345E-005	0.00000E+000	3.18475E-005	5.39641E-002	3.50269E-001	3.57270E+000	9	...........
	5	0.08	3.65324E-001	9.09345E-005	0.00000E+000	3.32205E-005	5.39641E-002	3.65366E-001	3.57270E+000	9	...........
	6	0.093333	3.79639E-001	9.10241E-005	0.00000E+000	3.45563E-005	5.39641E-002	3.79685E-001	3.57270E+000	9	...........
	7	0.106667	3.93240E-001	9.07980E-005	0.00000E+000	3.57054E-005	5.39641E-002	3.93284E-001	3.57270E+000	9	...........
	8	0.12	4.06205E-001	9.08730E-005	0.00000E+000	3.69131E-005	5.39641E-002	4.06252E-001	3.57270E+000	9	...........
	9	0.133333	4.18603E-001	9.07230E-005	0.00000E+000	3.79769E-005	5.39641E-002	4.18658E-001	3.57270E+000	9	...........
	10	0.146667	4.30480E-001	9.10929E-005	0.00000E+000	3.92137E-005	5.39641E-002	4.30541E-001	3.57270E+000	9	...........
	11	0.16	4.41892E-001	9.08855E-005	0.00000E+000	4.01616E-005	5.39641E-002	4.41953E-001	3.57270E+000	9	...........
	12	0.173333	4.52868E-001	9.11418E-005	0.00000E+000	4.12752E-005	5.39641E-002	4.52924E-001	3.57270E+000	9	...........
	13	0.186667	4.63438E-001	9.14231E-005	0.00000E+000	4.23689E-005	5.39641E-002	4.63501E-001	3.57270E+000	9	...........
	14	0.2	4.73634E-001	9.12325E-005	0.00000E+000	4.32108E-005	5.39641E-002	4.73691E-001	3.57270E+000	9	...........
	15	0.213333	4.83476E-001	9.12023E-005	0.00000E+000	4.40941E-005	5.39641E-002	4.83541E-001	3.57270E+000	9	...........
	16	0.226667	4.92996E-001	9.11241E-005	0.00000E+000	4.49238E-005	5.39641E-002	4.93066E-001	3.57270E+000	9	...........
	17	0.24	5.02219E-001	9.09199E-005	0.00000E+000	4.56617E-005	5.39641E-002	5.02288E-001	3.57270E+000	9	...........
	18	0.253333	5.11154E-001	9.11345E-005	0.00000E+000	4.65838E-005	5.39641E-002	5.11220E-001	3.57270E+000	9	...........
	19	0.266667	5.19822E-001	9.11043E-005	0.00000E+000	4.73581E-005	5.39641E-002	5.19891E-001	3.57270E+000	9	...........
	20	0.28	5.28235E-001	9.08043E-005	0.00000E+000	4.79660E-005	5.39641E-002	5.28300E-001	3.57270E+000	9	...........
	21	0.293333	5.36352E-001	9.12554E-005	0.00000E+000	4.89450E-005	5.39641E-002	5.36414E-001	3.57270E+000	9	...........
	22	0.306667	5.44269E-001	9.11397E-005	0.00000E+000	4.96045E-005	5.39641E-002	5.44346E-001	3.57270E+000	9	...........
	23	0.32	5.52017E-001	9.09762E-005	0.00000E+000	5.02204E-005	5.39641E-002	5.52100E-001	3.57270E+000	9	...........
	24	0.333333	5.59544E-001	9.09241E-005	0.00000E+000	5.08761E-005	5.39641E-002	5.59660E-001	3.57270E+000	9	...........
	25	0.346667	5.66902E-001	9.12596E-005	0.00000E+000	5.17352E-005	5.39641E-002	5.67027E-001	3.57258E+000	9	...........
	26	0.36	5.74042E-001	9.12502E-005	0.00000E+000	5.23815E-005	5.39641E-002	5.74162E-001	3.57250E+000	9	...........
	27	0.373333	5.81007E-001	9.12158E-005	0.00000E+000	5.29971E-005	5.39641E-002	5.81136E-001	3.57250E+000	9	...........
	28	0.386667	5.87836E-001	9.09043E-005	0.00000E+000	5.34368E-005	5.39641E-002	5.87961E-001	3.57250E+000	9	...........
	29	0.4	5.94537E-001	9.11314E-005	0.00000E+000	5.41810E-005	5.39641E-002	5.94655E-001	3.57250E+000	9	...........
	30	0.413333	6.01020E-001	9.10606E-005	0.00000E+000	5.47292E-005	5.39641E-002	6.01152E-001	3.57250E+000	9	...........
	31	0.426667	6.07380E-001	9.09501E-005	0.00000E+000	5.52413E-005	5.39641E-002	6.07506E-001	3.57250E+000	9	...........
	32	0.44	6.13665E-001	9.13315E-005	0.00000E+000	5.60469E-005	5.39641E-002	6.13774E-001	3.57250E+000	9	...........
	33	0.453333	6.19810E-001	9.09876E-005	0.00000E+000	5.63951E-005	5.39641E-002	6.19871E-001	3.57250E+000	9	...........
	34	0.466667	6.25768E-001	9.11293E-005	0.00000E+000	5.70258E-005	5.39641E-002	6.25847E-001	3.57250E+000	9	...........
	35	0.48	6.31611E-001	9.11345E-005	0.00000E+000	5.75616E-005	5.39641E-002	6.31711E-001	3.57250E+000	9	...........
	36	0.493333	6.37306E-001	9.11304E-005	0.00000E+000	5.80779E-005	5.39641E-002	6.37424E-001	3.57250E+000	9	...........
	37	0.506667	6.42933E-001	9.10439E-005	0.00000E+000	5.85351E-005	5.39641E-002	6.43048E-001	3.57250E+000	9	...........
	38	0.52	6.48425E-001	9.12221E-005	0.00000E+000	5.91506E-005	5.39641E-002	6.48524E-001	3.57250E+000	9	...........
	39	0.533333	6.53791E-001	9.10303E-005	0.00000E+000	5.95148E-005	5.39641E-002	6.53904E-001	3.57250E+000	9	...........
	40	0.546667	6.59068E-001	9.09324E-005	0.00000E+000	5.99306E-005	5.39641E-002	6.59179E-001	3.57250E+000	9	...........
	41	0.56	6.64279E-001	9.12856E-005	0.00000E+000	6.06392E-005	5.39641E-002	6.64410E-001	3.57250E+000	9	...........
	42	0.573333	6.69398E-001	9.09720E-005	0.00000E+000	6.08964E-005	5.39641E-002	6.69524E-001	3.57250E+000	9	...........
	43	0.586667	6.74414E-001	9.12137E-005	0.00000E+000	6.15158E-005	5.39641E-002	6.74552E-001	3.57250E+000	9	...........
	44	0.6	6.79345E-001	9.11595E-005	0.00000E+000	6.19288E-005	5.39641E-002	6.79500E-001	3.57250E+000	9	...........
	45	0.613333	6.84209E-001	9.11720E-005	0.00000E+000	6.23808E-005	5.39641E-002	6.84317E-001	3.57250E+000	9	...........
	46	0.626667	6.88966E-001	9.11304E-005	0.00000E+000	6.27857E-005	5.39641E-002	6.89064E-001	3.57250E+000	9	...........
	47	0.64	6.93663E-001	9.11773E-005	0.00000E+000	6.32463E-005	5.39641E-002	6.93753E-001	3.57250E+000	9	...........
	48	0.653333	6.98283E-001	9.10012E-005	0.00000E+000	6.35446E-005	5.39641E-002	6.98397E-001	3.57250E+000	9	...........
	49	0.666667	7.02821E-001	9.11064E-005	0.00000E+000	6.40315E-005	5.39641E-002	7.02914E-001	3.57250E+000	9	...........
	50	0.68	7.07285E-001	9.08949E-005	0.00000E+000	6.42886E-005	5.39641E-002	7.07380E-001	3.57250E+000	9	...........
	51	0.693333	7.11657E-001	9.13992E-005	0.00000E+000	6.50449E-005	5.39641E-002	7.11749E-001	3.57250E+000	9	...........
	52	0.706667	7.15995E-001	9.12273E-005	0.00000E+000	6.53182E-005	5.39641E-002	7.16121E-001	3.57250E+000	9	...........
	53	0.72	7.20286E-001	9.11054E-005	0.00000E+000	6.56219E-005	5.39641E-002	7.20400E-001	3.57250E+000	9	...........
	54	0.733333	7.24485E-001	9.11585E-005	0.00000E+000	6.60430E-005	5.39641E-002	7.24569E-001	3.57250E+000	9	...........
	55	0.746667	7.28612E-001	9.10106E-005	0.00000E+000	6.63114E-005	5.39641E-002	7.28718E-001	3.57250E+000	9	...........
	56	0.76	7.32691E-001	9.11085E-005	0.00000E+000	6.67544E-005	5.39641E-002	7.32844E-001	3.57250E+000	9	...........
	57	0.773333	7.36719E-001	9.08907E-005	0.00000E+000	6.69609E-005	5.39641E-002	7.36843E-001	3.57250E+000	9	...........
	58	0.786667	7.40688E-001	9.13981E-005	0.00000E+000	6.76975E-005	5.39641E-002	7.40826E-001	3.57250E+000	9	...........
	59	0.8	7.44623E-001	9.10376E-005	0.00000E+000	6.77887E-005	5.39641E-002	7.44784E-001	3.57250E+000	9	...........
	60	0.813333	7.48496E-001	9.12491E-005	0.00000E+000	6.82996E-005	5.39641E-002	7.48645E-001	3.57250E+000	9	...........
	61	0.826667	7.52286E-001	9.11283E-005	0.00000E+000	6.85545E-005	5.39641E-002	7.52440E-001	3.57250E+000	9	...........
	62	0.84	7.56073E-001	9.07928E-005	0.00000E+000	6.86460E-005	5.39641E-002	7.56209E-001	3.57250E+000	9	...........
	63	0.853333	7.59784E-001	9.09918E-005	0.00000E+000	6.91341E-005	5.39641E-002	7.59915E-001	3.57250E+000	9	...........
	64	0.866667	7.63422E-001	9.09897E-005	0.00000E+000	6.94636E-005	5.39641E-002	7.63551E-001	3.57250E+000	9	...........
	65	0.88	7.67042E-001	9.10022E-005	0.00000E+000	6.98026E-005	5.39641E-002	7.67209E-001	3.57250E+000	9	...........
	66	0.893333	7.70650E-001	9.09001E-005	0.00000E+000	7.00522E-005	5.39641E-002	7.70822E-001	3.57250E+000	9	...........
	67	0.906667	7.74199E-001	9.12210E-005	0.00000E+000	7.06232E-005	5.39641E-002	7.74357E-001	3.57250E+000	9	...........
	68	0.92	7.77696E-001	9.10845E-005	0.00000E+000	7.08361E-005	5.39641E-002	7.77870E-001	3.57250E+000	9	...........
	69	0.933333	7.81186E-001	9.11158E-005	0.00000E+000	7.11784E-005	5.39641E-002	7.81346E-001	3.57250E+000	9	...........
	70	0.946667	7.84606E-001	9.11710E-005	0.00000E+000	7.15334E-005	5.39641E-002	7.84779E-001	3.57250E+000	9	...........
	71	0.96	7.87994E-001	9.07959E-005	0.00000E+000	7.15466E-005	5.39641E-002	7.88122E-001	3.57250E+000	9	...........
	72	0.97333	7.91314E-001	9.10491E-005	0.00000E+000	7.20484E-005	5.39641E-002	7.91485E-001	3.57250E+000	9	...........
	73	0.98667	7.94648E-001	9.09845E-005	0.00000E+000	7.23006E-005	5.39641E-002	7.94790E-001	3.57250E+000	9	...........
	74	1	7.97913E-001	9.08699E-005	0.00000E+000	7.25062E-005	5.39641E-002	7.98032E-001	3.57250E+000	9	...........
	75	1.01333	8.01154E-001	9.08053E-005	0.00000E+000	7.27490E-005	5.39641E-002	8.01260E-001	3.57250E+000	9	...........
	76	1.02667	8.04291E-001	9.12481E-005	0.00000E+000	7.33900E-005	5.39641E-002	8.04452E-001	3.57250E+000	9	...........
	77	1.04	8.07439E-001	9.12491E-005	0.00000E+000	7.36781E-005	5.39641E-002	8.07603E-001	3.57250E+000	9	...........
	78	1.05333	8.10541E-001	9.11533E-005	0.00000E+000	7.38835E-005	5.39641E-002	8.10692E-001	3.57250E+000	9	...........
	79	1.06667	8.13613E-001	9.11293E-005	0.00000E+000	7.41440E-005	5.39641E-002	8.13761E-001	3.57250E+000	9	...........
	80	1.08	8.16670E-001	9.09334E-005	0.00000E+000	7.42626E-005	5.39641E-002	8.16801E-001	3.57250E+000	9	...........
	81	1.09333	8.19662E-001	9.09981E-005	0.00000E+000	7.45876E-005	5.39641E-002	8.19787E-001	3.57250E+000	9	...........
	82	1.10667	8.22635E-001	9.08897E-005	0.00000E+000	7.47691E-005	5.39641E-002	8.22781E-001	3.57250E+000	9	...........
	83	1.12	8.25570E-001	9.09366E-005	0.00000E+000	7.50745E-005	5.39641E-002	8.25725E-001	3.57250E+000	9	...........
	84	1.13333	8.28493E-001	9.10106E-005	0.00000E+000	7.54016E-005	5.39641E-002	8.28628E-001	3.57250E+000	9	...........
	85	1.14667	8.31354E-001	9.11356E-005	0.00000E+000	7.57659E-005	5.39641E-002	8.31531E-001	3.57250E+000	9	...........
	86	1.16	8.34215E-001	9.10720E-005	0.00000E+000	7.59736E-005	5.39641E-002	8.34372E-001	3.57250E+000	9	...........
	87	1.17333	8.37009E-001	9.07959E-005	0.00000E+000	7.59970E-005	5.39641E-002	8.37193E-001	3.57250E+000	9	...........
	88	1.18667	8.39802E-001	9.11523E-005	0.00000E+000	7.65498E-005	5.39641E-002	8.39972E-001	3.57250E+000	9	...........
	89	1.2	8.42525E-001	9.09480E-005	0.00000E+000	7.66260E-005	5.39641E-002	8.42709E-001	3.57250E+000	9	...........
	90	1.21333	8.45239E-001	9.09574E-005	0.00000E+000	7.68807E-005	5.39641E-002	8.45422E-001	3.57250E+000	9	...........
	91	1.22667	8.47879E-001	9.12554E-005	0.00000E+000	7.73735E-005	5.39641E-002	8.48061E-001	3.57250E+000	9	...........
	92	1.24	8.50508E-001	9.10835E-005	0.00000E+000	7.74673E-005	5.39641E-002	8.50677E-001	3.57250E+000	9	...........
	93	1.25333	8.53103E-001	9.13554E-005	0.00000E+000	7.79356E-005	5.39641E-002	8.53294E-001	3.57250E+000	9	...........
	94	1.26667	8.55688E-001	9.09084E-005	0.00000E+000	7.77892E-005	5.39641E-002	8.55874E-001	3.57250E+000	9	...........
	95	1.28	8.58227E-001	9.09803E-005	0.00000E+000	7.80818E-005	5.39641E-002	8.58443E-001	3.57250E+000	9	...........
	96	1.29333	8.60803E-001	9.09710E-005	0.00000E+000	7.83081E-005	5.39641E-002	8.60998E-001	3.57250E+000	9	...........
	97	1.30667	8.63309E-001	9.09637E-005	0.00000E+000	7.85298E-005	5.39641E-002	8.63497E-001	3.57250E+000	9	...........
	98	1.32	8.65791E-001	9.10710E-005	0.00000E+000	7.88485E-005	5.39641E-002	8.65992E-001	3.57250E+000	9	...........
	99	1.33333	8.68264E-001	9.10637E-005	0.00000E+000	7.90673E-005	5.39641E-002	8.68448E-001	3.57250E+000	9	...........
	100	1.34667	8.70730E-001	9.08293E-005	0.00000E+000	7.90877E-005	5.39641E-002	8.70893E-001	3.57237E+000	9	...........
	101	1.36	8.73127E-001	9.10085E-005	0.00000E+000	7.94619E-005	5.39641E-002	8.73296E-001	3.57230E+000	9	...........
	102	1.37333	8.75543E-001	9.10303E-005	0.00000E+000	7.97009E-005	5.39641E-002	8.75712E-001	3.57230E+000	9	...........
	103	1.38667	8.77916E-001	9.11793E-005	0.00000E+000	8.00478E-005	5.39641E-002	8.78087E-001	3.57230E+000	9	...........
	104	1.4	8.80255E-001	9.09866E-005	0.00000E+000	8.00914E-005	5.39641E-002	8.80444E-001	3.57230E+000	9	...........
	105	1.41333	8.82595E-001	9.11981E-005	0.00000E+000	8.04910E-005	5.39641E-002	8.82778E-001	3.57230E+000	9	...........
	106	1.42667	8.84920E-001	9.10053E-005	0.00000E+000	8.05324E-005	5.39641E-002	8.85086E-001	3.57230E+000	9	...........
	107	1.44	8.87201E-001	9.09710E-005	0.00000E+000	8.07095E-005	5.39641E-002	8.87367E-001	3.57230E+000	9	...........
	108	1.45333	8.89494E-001	9.10366E-005	0.00000E+000	8.09765E-005	5.39641E-002	8.89643E-001	3.57230E+000	9	...........
	109	1.46667	8.91753E-001	9.10366E-005	0.00000E+000	8.11822E-005	5.39641E-002	8.91914E-001	3.57230E+000	9	...........
	110	1.48	8.93984E-001	9.10387E-005	0.00000E+000	8.13872E-005	5.39641E-002	8.94182E-001	3.57230E+000	9	...........
	111	1.49333	8.96254E-001	9.10022E-005	0.00000E+000	8.15611E-005	5.39641E-002	8.96445E-001	3.57230E+000	9	...........
	112	1.50667	8.98452E-001	9.12679E-005	0.00000E+000	8.19998E-005	5.39641E-002	8.98648E-001	3.57230E+000	9	...........
	113	1.52	9.00603E-001	9.11877E-005	0.00000E+000	8.21239E-005	5.39641E-002	9.00818E-001	3.57230E+000	9	...........
	114	1.53333	9.02751E-001	9.12158E-005	0.00000E+000	8.23452E-005	5.39641E-002	9.02980E-001	3.57230E+000	9	...........
	115	1.54667	9.04863E-001	9.08105E-005	0.00000E+000	8.21711E-005	5.39641E-002	9.05093E-001	3.57230E+000	9	...........
	116	1.56	9.06970E-001	9.13127E-005	0.00000E+000	8.28179E-005	5.39641E-002	9.07188E-001	3.57230E+000	9	...........
	117	1.57333	9.09052E-001	9.13315E-005	0.00000E+000	8.30251E-005	5.39641E-002	9.09238E-001	3.57230E+000	9	...........
	118	1.58667	9.11087E-001	9.09397E-005	0.00000E+000	8.28540E-005	5.39641E-002	9.11279E-001	3.57230E+000	9	...........
	119	1.6	9.13118E-001	9.11210E-005	0.00000E+000	8.32042E-005	5.39641E-002	9.13327E-001	3.57230E+000	9	...........
	120	1.61333	9.15167E-001	9.11012E-005	0.00000E+000	8.33728E-005	5.39641E-002	9.15339E-001	3.57230E+000	9	...........
	121	1.62667	9.17130E-001	9.12471E-005	0.00000E+000	8.36855E-005	5.39641E-002	9.17343E-001	3.57230E+000	9	...........
	122	1.64	9.19107E-001	9.11429E-005	0.00000E+000	8.37701E-005	5.39641E-002	9.19289E-001	3.57230E+000	9	...........
	123	1.65333	9.21109E-001	9.10481E-005	0.00000E+000	8.38652E-005	5.39641E-002	9.21278E-001	3.57230E+000	9	...........
	124	1.66667	9.23075E-001	9.12179E-005	0.00000E+000	8.42010E-005	5.39641E-002	9.23213E-001	3.57230E+000	9	...........
	125	1.68	9.25001E-001	9.12273E-005	0.00000E+000	8.43853E-005	5.39641E-002	9.25165E-001	3.57230E+000	9	...........
	126	1.69333	9.26919E-001	9.09324E-005	0.00000E+000	8.42870E-005	5.39641E-002	9.27104E-001	3.57230E+000	9	...........
	127	1.70667	9.28807E-001	9.11085E-005	0.00000E+000	8.46222E-005	5.39641E-002	9.28984E-001	3.57230E+000	9	...........
	128	1.72	9.30682E-001	9.08803E-005	0.00000E+000	8.45806E-005	5.39641E-002	9.30840E-001	3.57230E+000	9	...........
	129	1.73333	9.32525E-001	9.11054E-005	0.00000E+000	8.49580E-005	5.39641E-002	9.32716E-001	3.57230E+000	9	...........
	130	1.74667	9.34378E-001	9.08949E-005	0.00000E+000	8.49302E-005	5.39641E-002	9.34564E-001	3.57230E+000	9	...........
	131	1.76	9.36179E-001	9.12398E-005	0.00000E+000	8.54167E-005	5.39641E-002	9.36375E-001	3.57230E+000	9	...........
	132	1.77333	9.37978E-001	9.11366E-005	0.00000E+000	8.54842E-005	5.39641E-002	9.38164E-001	3.57230E+000	9	...........
	133	1.78667	9.39769E-001	9.12387E-005	0.00000E+000	8.57433E-005	5.39641E-002	9.39953E-001	3.57230E+000	9	...........
	134	1.8	9.41524E-001	9.10158E-005	0.00000E+000	8.56936E-005	5.39641E-002	9.41710E-001	3.57230E+000	9	...........
	135	1.81333	9.43261E-001	9.09949E-005	0.00000E+000	8.58320E-005	5.39641E-002	9.43448E-001	3.57230E+000	9	...........
	136	1.82667	9.44958E-001	9.09710E-005	0.00000E+000	8.59638E-005	5.39641E-002	9.45178E-001	3.57230E+000	9	...........
	137	1.84	9.46728E-001	9.09032E-005	0.00000E+000	8.60606E-005	5.39641E-002	9.46901E-001	3.57230E+000	9	...........
	138	1.85333	9.48409E-001	9.12846E-005	0.00000E+000	8.65751E-005	5.39641E-002	9.48599E-001	3.57230E+000	9	...........
	139	1.86667	9.50074E-001	9.09366E-005	0.00000E+000	8.63965E-005	5.39641E-002	9.50274E-001	3.57230E+000	9	...........
	140	1.88	9.51731E-001	9.09439E-005	0.00000E+000	8.65541E-005	5.39641E-002	9.51931E-001	3.57230E+000	9	...........
	141	1.89333	9.53388E-001	9.12752E-005	0.00000E+000	8.70206E-005	5.39641E-002	9.53555E-001	3.57230E+000	9	...........
	142	1.90667	9.54992E-001	9.11325E-005	0.00000E+000	8.70308E-005	5.39641E-002	9.55175E-001	3.57230E+000	9	...........
	143	1.92	9.56604E-001	9.08626E-005	0.00000E+000	8.69195E-005	5.39641E-002	9.56788E-001	3.57230E+000	9	...........
	144	1.93333	9.58173E-001	9.11481E-005	0.00000E+000	8.73356E-005	5.39641E-002	9.58378E-001	3.57230E+000	9	...........
	145	1.94667	9.59762E-001	9.09428E-005	0.00000E+000	8.72835E-005	5.39641E-002	9.59936E-001	3.57230E+000	9	...........
	146	1.96	9.61297E-001	9.12554E-005	0.00000E+000	8.77235E-005	5.39641E-002	9.61480E-001	3.57230E+000	9	...........
	147	1.97333	9.62844E-001	9.10731E-005	0.00000E+000	8.76891E-005	5.39641E-002	9.63046E-001	3.57230E+000	9	...........
	148	1.98667	9.64367E-001	9.09407E-005	0.00000E+000	8.77002E-005	5.39641E-002	9.64570E-001	3.57230E+000	9	...........
	149	2	9.65882E-001	9.08720E-005	0.00000E+000	8.77716E-005	5.39641E-002	9.66079E-001	3.57230E+000	9	...........
	150	2.01333	9.67396E-001	9.12794E-005	0.00000E+000	8.83033E-005	5.39641E-002	9.67579E-001	3.57230E+000	9	...........
	151	2.02667	9.68852E-001	9.09887E-005	0.00000E+000	8.81546E-005	5.39641E-002	9.69040E-001	3.57230E+000	9	...........
	152	2.04	9.70335E-001	9.10668E-005	0.00000E+000	8.83653E-005	5.39641E-002	9.70529E-001	3.57230E+000	9	...........
	153	2.05333	9.71793E-001	9.11397E-005	0.00000E+000	8.85690E-005	5.39641E-002	9.72019E-001	3.57230E+000	9	...........
	154	2.06667	9.73291E-001	9.12960E-005	0.00000E+000	8.88576E-005	5.39641E-002	9.73469E-001	3.57230E+000	9	...........
	155	2.08	9.74707E-001	9.11866E-005	0.00000E+000	8.88802E-005	5.39641E-002	9.74894E-001	3.57230E+000	9	...........
	156	2.09333	9.76103E-001	9.11439E-005	0.00000E+000	8.89659E-005	5.39641E-002	9.76318E-001	3.57230E+000	9	...........
	157	2.10667	9.77501E-001	9.11387E-005	0.00000E+000	8.90882E-005	5.39641E-002	9.77710E-001	3.57230E+000	9	...........
	158	2.12	9.78868E-001	9.10178E-005	0.00000E+000	8.90945E-005	5.39641E-002	9.79088E-001	3.57230E+000	9	...........
	159	2.13333	9.80262E-001	9.10345E-005	0.00000E+000	8.92377E-005	5.39641E-002	9.80449E-001	3.57230E+000	9	...........
	160	2.14667	9.81601E-001	9.10356E-005	0.00000E+000	8.93606E-005	5.39641E-002	9.81806E-001	3.57230E+000	9	...........
	161	2.16	9.82946E-001	9.10376E-005	0.00000E+000	8.94851E-005	5.39641E-002	9.83140E-001	3.57230E+000	9	...........
	162	2.17333	9.84254E-001	9.10845E-005	0.00000E+000	8.96503E-005	5.39641E-002	9.84477E-001	3.57230E+000	9	...........
	163	2.18667	9.85612E-001	9.09574E-005	0.00000E+000	8.96487E-005	5.39641E-002	9.85825E-001	3.57230E+000	9	...........
	164	2.2	9.86932E-001	9.12377E-005	0.00000E+000	9.00454E-005	5.39641E-002	9.87125E-001	3.57230E+000	9	...........
	165	2.21333	9.88234E-001	9.08053E-005	0.00000E+000	8.97369E-005	5.39641E-002	9.88411E-001	3.57230E+000	9	...........
	166	2.22667	9.89526E-001	9.11345E-005	0.00000E+000	9.01800E-005	5.39641E-002	9.89711E-001	3.57230E+000	9	...........
	167	2.24	9.90788E-001	9.09762E-005	0.00000E+000	9.01381E-005	5.39641E-002	9.90965E-001	3.57230E+000	9	...........
	168	2.25333	9.92022E-001	9.10533E-005	0.00000E+000	9.03268E-005	5.39641E-002	9.92219E-001	3.57230E+000	9	...........
	169	2.26667	9.93260E-001	9.11387E-005	0.00000E+000	9.05244E-005	5.39641E-002	9.93477E-001	3.57230E+000	9	...........
	170	2.28	9.94500E-001	9.08584E-005	0.00000E+000	9.03587E-005	5.39641E-002	9.94679E-001	3.57230E+000	9	...........
	171	2.29333	9.95732E-001	9.12366E-005	0.00000E+000	9.08472E-005	5.39641E-002	9.95892E-001	3.57230E+000	9	...........
	172	2.30667	9.96911E-001	9.12002E-005	0.00000E+000	9.09185E-005	5.39641E-002	9.97124E-001	3.57230E+000	9	...........
	173	2.32	9.98128E-001	9.10595E-005	0.00000E+000	9.08890E-005	5.39641E-002	9.98304E-001	3.57230E+000	9	...........
	174	2.33333	9.99317E-001	9.13492E-005	0.00000E+000	9.12868E-005	5.39641E-002	9.99481E-001	3.57230E+000	9	...........
	175	2.335	1.00001E+000	9.03958E-005	0.00000E+000	9.03964E-005	5.39641E-002	1.00010E+000	3.57230E+000	9	...........
STARTTIMEOFFSET	QUANT	1428.799	Start Time Offset (s)
