EXPLAIN
TAG	PWR800_CHARGE
TITLE	LABEL	PWR Cyclic Charge Discharge (Cell) - Charge Step	Test &Identifier
DATE	LABEL	10-7-2017	Date
TIME	LABEL	15:22:54	Time
NOTES	NOTES	3	&Notes...
	supercap test cell
	0.9mg
	6M KOH
PSTAT	PSTAT	IFC5000-01520	Potentiostat
CAPACITY	QUANT	1.00000E-003	Capacity (A-hr)
CELLTYPE	SELECTOR	1	&Cell Type
WORKINGCONNECTION	SELECTOR	0	&Working Lead
MAXCHARGETIME	VARIABLEANDUNITS	1.00000E+002	s	1.00000E+002	second(s)	Max &Charge Time
CHARGECURRENT	QUANT	9.00000E-005	&Charge Current (A) 
VOLTAGEFINISH	TWOPARAM	F	1.00000E-003	3.60000E+003	&Voltage Finish	 I (A) < 	Max Time(s)
SAMPLETIME	QUANT	1.00000E-002	Sa&mple Period (s)
CHARGESTOPAT1	MULTIPARAM	4	1.00000E+000	Charge Stop At &1	Voltage > Limit	V
CHARGESTOPAT2	MULTIPARAM	0	0.00000E+000	Charge Stop At &2	None	N/A
AESBHCSELECTOR	TOGGLE	F	Save Both Half Cells
IRCOMP	TOGGLE	F	IR &Measure
EOC	QUANT	0	Open Circuit (V)
SEQUENCER	TOGGLE	TRUE	Run as Sequence
PSTATMODEL	IQUANT	53	Pstat Model
PSTATSECTION	LABEL	IFC5000-01520	Pstat Section
PSTATSERIALNO	LABEL	01520	Pstat Serial Number
CTRLMODE	IQUANT	0	Control Mode
ELECTROMETER	IQUANT	1	RE=0 or CS=1
IESTAB	IQUANT	0	I/E Stability
CASPEED	IQUANT	4	Control Amp Speed
CONVENTION	IQUANT	1	Current Convention
ICHRANGE	IQUANT	2	Ich Range
ICHRANGEMODE	TOGGLE	T	Ich Auto Range
ICHOFFSETENABLE	TOGGLE	F	Ich Offset Enable
ICHOFFSET	QUANT	0	Ich Offset (V)
ICHFILTER	IQUANT	1	Ich Filter
VCHRANGE	IQUANT	2	Vch Range
VCHRANGEMODE	TOGGLE	T	Vch Auto Range
VCHOFFSETENABLE	TOGGLE	F	Vch Offset Enable
VCHOFFSET	QUANT	0	Vch Offset (V)
VCHFILTER	IQUANT	1	Vch Filter
IERANGELOWERLIMIT	IQUANT	9	I/E Range Lower Limit
IERANGEMODE	TOGGLE	F	I/E AutoRange
IERANGE	IQUANT	9	I/E Range
ACHSELECT	IQUANT	1	Ach Select
ACHRANGE	IQUANT	2	Ach Range
ACHOFFSETENABLE	TOGGLE	F	Ach Offset Enable
ACHOFFSET	QUANT	0	Ach Offset (V)
ACHFILTER	IQUANT	1	Ach Filter
CABLEID	IQUANT	14	Cable ID
DCCALDATE	LABEL	5-7-2017	DC Calibration Date
ACCALDATE	LABEL	12/3/2015	AC Calibration Date
FRAMEWORKVERSION	QUANT	7.01	Framework Version
INSTRUMENTVERSION	LABEL	4.00	Instrument Version
CURVE	TABLE	176
	Pt	T	Vf	Im	Vu	Pwr	Sig	Ach	Temp	IERange	Over
	#	s	V	A	V	W	V	V	deg C	#	bits
	0	0.013333	2.82457E-001	9.08314E-005	0.00000E+000	2.56560E-005	5.39641E-002	2.82482E-001	3.57240E+000	9	...........
	1	0.026667	3.01899E-001	9.07980E-005	0.00000E+000	2.74118E-005	5.39641E-002	3.01933E-001	3.57240E+000	9	...........
	2	0.04	3.19929E-001	9.10866E-005	0.00000E+000	2.91413E-005	5.39641E-002	3.19965E-001	3.57240E+000	9	...........
	3	0.053333	3.36782E-001	9.11825E-005	0.00000E+000	3.07086E-005	5.39641E-002	3.36815E-001	3.57240E+000	9	...........
	4	0.066667	3.52618E-001	9.09657E-005	0.00000E+000	3.20762E-005	5.39641E-002	3.52657E-001	3.57240E+000	9	...........
	5	0.08	3.67575E-001	9.10106E-005	0.00000E+000	3.34532E-005	5.39641E-002	3.67614E-001	3.57240E+000	9	...........
	6	0.093333	3.81758E-001	9.09918E-005	0.00000E+000	3.47369E-005	5.39641E-002	3.81798E-001	3.57240E+000	9	...........
	7	0.106667	3.95247E-001	9.09324E-005	0.00000E+000	3.59408E-005	5.39641E-002	3.95285E-001	3.57240E+000	9	...........
	8	0.12	4.08102E-001	9.09751E-005	0.00000E+000	3.71271E-005	5.39641E-002	4.08143E-001	3.57240E+000	9	...........
	9	0.133333	4.20387E-001	9.11512E-005	0.00000E+000	3.83187E-005	5.39641E-002	4.20442E-001	3.57240E+000	9	...........
	10	0.146667	4.32178E-001	9.10220E-005	0.00000E+000	3.93377E-005	5.39641E-002	4.32228E-001	3.57240E+000	9	...........
	11	0.16	4.43500E-001	9.10970E-005	0.00000E+000	4.04016E-005	5.39641E-002	4.43554E-001	3.57240E+000	9	...........
	12	0.173333	4.54387E-001	9.08897E-005	0.00000E+000	4.12991E-005	5.39641E-002	4.54439E-001	3.57240E+000	9	...........
	13	0.186667	4.64873E-001	9.10949E-005	0.00000E+000	4.23476E-005	5.39641E-002	4.64929E-001	3.57240E+000	9	...........
	14	0.2	4.75006E-001	9.10866E-005	0.00000E+000	4.32667E-005	5.39641E-002	4.75063E-001	3.57240E+000	9	...........
	15	0.213333	4.84783E-001	9.09334E-005	0.00000E+000	4.40829E-005	5.39641E-002	4.84839E-001	3.57240E+000	9	...........
	16	0.226667	4.94254E-001	9.12210E-005	0.00000E+000	4.50863E-005	5.39641E-002	4.94313E-001	3.57240E+000	9	...........
	17	0.24	5.03424E-001	9.09605E-005	0.00000E+000	4.57917E-005	5.39641E-002	5.03485E-001	3.57240E+000	9	...........
	18	0.253333	5.12297E-001	9.12200E-005	0.00000E+000	4.67317E-005	5.39641E-002	5.12360E-001	3.57240E+000	9	...........
	19	0.266667	5.20926E-001	9.07511E-005	0.00000E+000	4.72747E-005	5.39641E-002	5.20988E-001	3.57240E+000	9	...........
	20	0.28	5.29307E-001	9.11856E-005	0.00000E+000	4.82652E-005	5.39641E-002	5.29368E-001	3.57240E+000	9	...........
	21	0.293333	5.37393E-001	9.10699E-005	0.00000E+000	4.89404E-005	5.39641E-002	5.37432E-001	3.57240E+000	9	...........
	22	0.306667	5.45324E-001	9.11137E-005	0.00000E+000	4.96865E-005	5.39641E-002	5.45352E-001	3.57240E+000	9	...........
	23	0.32	5.53020E-001	9.09501E-005	0.00000E+000	5.02972E-005	5.39641E-002	5.53052E-001	3.57240E+000	9	...........
	24	0.333333	5.60512E-001	9.12335E-005	0.00000E+000	5.11375E-005	5.39641E-002	5.60592E-001	3.57240E+000	9	...........
	25	0.346667	5.67836E-001	9.10366E-005	0.00000E+000	5.16939E-005	5.39641E-002	5.67931E-001	3.57240E+000	9	...........
	26	0.36	5.74944E-001	9.07376E-005	0.00000E+000	5.21690E-005	5.39641E-002	5.75043E-001	3.57240E+000	9	...........
	27	0.373333	5.81876E-001	9.10710E-005	0.00000E+000	5.29921E-005	5.39641E-002	5.82000E-001	3.57240E+000	9	...........
	28	0.386667	5.88694E-001	9.13117E-005	0.00000E+000	5.37546E-005	5.39641E-002	5.88812E-001	3.57240E+000	9	...........
	29	0.4	5.95336E-001	9.09168E-005	0.00000E+000	5.41261E-005	5.39641E-002	5.95426E-001	3.57240E+000	9	...........
	30	0.413333	6.01799E-001	9.10647E-005	0.00000E+000	5.48026E-005	5.39641E-002	6.01925E-001	3.57240E+000	9	...........
	31	0.426667	6.08129E-001	9.08543E-005	0.00000E+000	5.52511E-005	5.39641E-002	6.08256E-001	3.57240E+000	9	...........
	32	0.44	6.14397E-001	9.11825E-005	0.00000E+000	5.60223E-005	5.39641E-002	6.14507E-001	3.57240E+000	9	...........
	33	0.453333	6.20515E-001	9.10585E-005	0.00000E+000	5.65031E-005	5.39641E-002	6.20581E-001	3.57240E+000	9	...........
	34	0.466667	6.26439E-001	9.11773E-005	0.00000E+000	5.71170E-005	5.39641E-002	6.26527E-001	3.57240E+000	9	...........
	35	0.48	6.32274E-001	9.09960E-005	0.00000E+000	5.75344E-005	5.39641E-002	6.32342E-001	3.57240E+000	9	...........
	36	0.493333	6.37970E-001	9.11627E-005	0.00000E+000	5.81590E-005	5.39641E-002	6.38083E-001	3.57240E+000	9	...........
	37	0.506667	6.43619E-001	9.08220E-005	0.00000E+000	5.84548E-005	5.39641E-002	6.43716E-001	3.57240E+000	9	...........
	38	0.52	6.49109E-001	9.08616E-005	0.00000E+000	5.89790E-005	5.39641E-002	6.49198E-001	3.57240E+000	9	...........
	39	0.533333	6.54486E-001	9.10085E-005	0.00000E+000	5.95638E-005	5.39641E-002	6.54602E-001	3.57240E+000	9	...........
	40	0.546667	6.59769E-001	9.11408E-005	0.00000E+000	6.01319E-005	5.39641E-002	6.59882E-001	3.57240E+000	9	...........
	41	0.56	6.64971E-001	9.11887E-005	0.00000E+000	6.06378E-005	5.39641E-002	6.65094E-001	3.57240E+000	9	...........
	42	0.573333	6.70102E-001	9.10606E-005	0.00000E+000	6.10198E-005	5.39641E-002	6.70194E-001	3.57240E+000	9	...........
	43	0.586667	6.75066E-001	9.09626E-005	0.00000E+000	6.14058E-005	5.39641E-002	6.75173E-001	3.57240E+000	9	...........
	44	0.6	6.80005E-001	9.09147E-005	0.00000E+000	6.18225E-005	5.39641E-002	6.80098E-001	3.57240E+000	9	...........
	45	0.613333	6.84798E-001	9.12200E-005	0.00000E+000	6.24673E-005	5.39641E-002	6.84924E-001	3.57240E+000	9	...........
	46	0.626667	6.89561E-001	9.10866E-005	0.00000E+000	6.28098E-005	5.39641E-002	6.89659E-001	3.57240E+000	9	...........
	47	0.64	6.94249E-001	9.10335E-005	0.00000E+000	6.31999E-005	5.39641E-002	6.94362E-001	3.57240E+000	9	...........
	48	0.653333	6.98837E-001	9.10199E-005	0.00000E+000	6.36081E-005	5.39641E-002	6.98964E-001	3.57240E+000	9	...........
	49	0.666667	7.03365E-001	9.11595E-005	0.00000E+000	6.41184E-005	5.39641E-002	7.03488E-001	3.57240E+000	9	...........
	50	0.68	7.07842E-001	9.12512E-005	0.00000E+000	6.45914E-005	5.39641E-002	7.07976E-001	3.57240E+000	9	...........
	51	0.693333	7.12228E-001	9.12523E-005	0.00000E+000	6.49925E-005	5.39641E-002	7.12343E-001	3.57240E+000	9	...........
	52	0.706667	7.16580E-001	9.10293E-005	0.00000E+000	6.52298E-005	5.39641E-002	7.16683E-001	3.57240E+000	9	...........
	53	0.72	7.20865E-001	9.12523E-005	0.00000E+000	6.57806E-005	5.39641E-002	7.20949E-001	3.57240E+000	9	...........
	54	0.733333	7.25031E-001	9.10158E-005	0.00000E+000	6.59892E-005	5.39641E-002	7.25150E-001	3.57240E+000	9	...........
	55	0.746667	7.29192E-001	9.09751E-005	0.00000E+000	6.63384E-005	5.39641E-002	7.29278E-001	3.57240E+000	9	...........
	56	0.76	7.33266E-001	9.11231E-005	0.00000E+000	6.68175E-005	5.39641E-002	7.33360E-001	3.57240E+000	9	...........
	57	0.773333	7.37244E-001	9.10356E-005	0.00000E+000	6.71154E-005	5.39641E-002	7.37348E-001	3.57240E+000	9	...........
	58	0.786667	7.41213E-001	9.10428E-005	0.00000E+000	6.74821E-005	5.39641E-002	7.41344E-001	3.57240E+000	9	...........
	59	0.8	7.45147E-001	9.12064E-005	0.00000E+000	6.79622E-005	5.39641E-002	7.45283E-001	3.57240E+000	9	...........
	60	0.813333	7.48998E-001	9.11231E-005	0.00000E+000	6.82510E-005	5.39641E-002	7.49099E-001	3.57240E+000	9	...........
	61	0.826667	7.52791E-001	9.09960E-005	0.00000E+000	6.85009E-005	5.39641E-002	7.52910E-001	3.57240E+000	9	...........
	62	0.84	7.56565E-001	9.11064E-005	0.00000E+000	6.89279E-005	5.39641E-002	7.56675E-001	3.57240E+000	9	...........
	63	0.853333	7.60267E-001	9.09210E-005	0.00000E+000	6.91242E-005	5.39641E-002	7.60385E-001	3.57240E+000	9	...........
	64	0.866667	7.63925E-001	9.13085E-005	0.00000E+000	6.97529E-005	5.39641E-002	7.64042E-001	3.57240E+000	9	...........
	65	0.88	7.67519E-001	9.10481E-005	0.00000E+000	6.98811E-005	5.39641E-002	7.67655E-001	3.57295E+000	9	...........
	66	0.893333	7.71130E-001	9.11387E-005	0.00000E+000	7.02798E-005	5.39641E-002	7.71227E-001	3.57350E+000	9	...........
	67	0.906667	7.74635E-001	9.09512E-005	0.00000E+000	7.04540E-005	5.39641E-002	7.74737E-001	3.57350E+000	9	...........
	68	0.92	7.78118E-001	9.09157E-005	0.00000E+000	7.07432E-005	5.39641E-002	7.78230E-001	3.57350E+000	9	...........
	69	0.933333	7.81597E-001	9.11241E-005	0.00000E+000	7.12223E-005	5.39641E-002	7.81695E-001	3.57350E+000	9	...........
	70	0.946667	7.84958E-001	9.11918E-005	0.00000E+000	7.15817E-005	5.39641E-002	7.85084E-001	3.57350E+000	9	...........
	71	0.96	7.88333E-001	9.08293E-005	0.00000E+000	7.16037E-005	5.39641E-002	7.88447E-001	3.57350E+000	9	...........
	72	0.97333	7.91659E-001	9.08897E-005	0.00000E+000	7.19536E-005	5.39641E-002	7.91806E-001	3.57350E+000	9	...........
	73	0.98667	7.94980E-001	9.11887E-005	0.00000E+000	7.24932E-005	5.39641E-002	7.95092E-001	3.57350E+000	9	...........
	74	1	7.98215E-001	9.11689E-005	0.00000E+000	7.27724E-005	5.39641E-002	7.98311E-001	3.57350E+000	9	...........
	75	1.01333	8.01404E-001	9.09949E-005	0.00000E+000	7.29237E-005	5.39641E-002	8.01511E-001	3.57350E+000	9	...........
	76	1.02667	8.04525E-001	9.11397E-005	0.00000E+000	7.33242E-005	5.39641E-002	8.04682E-001	3.57350E+000	9	...........
	77	1.04	8.07661E-001	9.10064E-005	0.00000E+000	7.35023E-005	5.39641E-002	8.07822E-001	3.57350E+000	9	...........
	78	1.05333	8.10757E-001	9.10606E-005	0.00000E+000	7.38280E-005	5.39641E-002	8.10881E-001	3.57350E+000	9	...........
	79	1.06667	8.13800E-001	9.09647E-005	0.00000E+000	7.40271E-005	5.39641E-002	8.13951E-001	3.57350E+000	9	...........
	80	1.08	8.16811E-001	9.13023E-005	0.00000E+000	7.45767E-005	5.39641E-002	8.16983E-001	3.57350E+000	9	...........
	81	1.09333	8.19849E-001	9.11418E-005	0.00000E+000	7.47226E-005	5.39641E-002	8.19991E-001	3.57350E+000	9	...........
	82	1.10667	8.22798E-001	9.09720E-005	0.00000E+000	7.48516E-005	5.39641E-002	8.22960E-001	3.57350E+000	9	...........
	83	1.12	8.25715E-001	9.09803E-005	0.00000E+000	7.51239E-005	5.39641E-002	8.25902E-001	3.57350E+000	9	...........
	84	1.13333	8.28608E-001	9.10689E-005	0.00000E+000	7.54604E-005	5.39641E-002	8.28768E-001	3.57350E+000	9	...........
	85	1.14667	8.31486E-001	9.10053E-005	0.00000E+000	7.56697E-005	5.39641E-002	8.31658E-001	3.57350E+000	9	...........
	86	1.16	8.34330E-001	9.13231E-005	0.00000E+000	7.61936E-005	5.39641E-002	8.34516E-001	3.57350E+000	9	...........
	87	1.17333	8.37142E-001	9.12544E-005	0.00000E+000	7.63929E-005	5.39641E-002	8.37331E-001	3.57350E+000	9	...........
	88	1.18667	8.39929E-001	9.12471E-005	0.00000E+000	7.66411E-005	5.39641E-002	8.40112E-001	3.57350E+000	9	...........
	89	1.2	8.42693E-001	9.08939E-005	0.00000E+000	7.65956E-005	5.39641E-002	8.42870E-001	3.57350E+000	9	...........
	90	1.21333	8.45480E-001	9.10043E-005	0.00000E+000	7.69423E-005	5.39641E-002	8.45632E-001	3.57350E+000	9	...........
	91	1.22667	8.48134E-001	9.10991E-005	0.00000E+000	7.72642E-005	5.39641E-002	8.48309E-001	3.57350E+000	9	...........
	92	1.24	8.50817E-001	9.07240E-005	0.00000E+000	7.71896E-005	5.39641E-002	8.50967E-001	3.57350E+000	9	...........
	93	1.25333	8.53452E-001	9.11689E-005	0.00000E+000	7.78083E-005	5.39641E-002	8.53596E-001	3.57350E+000	9	...........
	94	1.26667	8.56032E-001	9.09439E-005	0.00000E+000	7.78508E-005	5.39641E-002	8.56227E-001	3.57350E+000	9	...........
	95	1.28	8.58618E-001	9.11668E-005	0.00000E+000	7.82774E-005	5.39641E-002	8.58821E-001	3.57350E+000	9	...........
	96	1.29333	8.61208E-001	9.10772E-005	0.00000E+000	7.84365E-005	5.39641E-002	8.61353E-001	3.57350E+000	9	...........
	97	1.30667	8.63673E-001	9.09084E-005	0.00000E+000	7.85152E-005	5.39641E-002	8.63879E-001	3.57350E+000	9	...........
	98	1.32	8.66189E-001	9.10908E-005	0.00000E+000	7.89018E-005	5.39641E-002	8.66376E-001	3.57350E+000	9	...........
	99	1.33333	8.68672E-001	9.09460E-005	0.00000E+000	7.90023E-005	5.39641E-002	8.68858E-001	3.57350E+000	9	...........
	100	1.34667	8.71138E-001	9.12762E-005	0.00000E+000	7.95142E-005	5.39641E-002	8.71296E-001	3.57350E+000	9	...........
	101	1.36	8.73552E-001	9.12752E-005	0.00000E+000	7.97336E-005	5.39641E-002	8.73689E-001	3.57350E+000	9	...........
	102	1.37333	8.75950E-001	9.10074E-005	0.00000E+000	7.97180E-005	5.39641E-002	8.76099E-001	3.57350E+000	9	...........
	103	1.38667	8.78329E-001	9.10658E-005	0.00000E+000	7.99857E-005	5.39641E-002	8.78458E-001	3.57350E+000	9	...........
	104	1.4	8.80696E-001	9.11220E-005	0.00000E+000	8.02508E-005	5.39641E-002	8.80829E-001	3.57350E+000	9	...........
	105	1.41333	8.83064E-001	9.11408E-005	0.00000E+000	8.04832E-005	5.39641E-002	8.83204E-001	3.57350E+000	9	...........
	106	1.42667	8.85364E-001	9.10845E-005	0.00000E+000	8.06429E-005	5.39641E-002	8.85489E-001	3.57350E+000	9	...........
	107	1.44	8.87656E-001	9.11481E-005	0.00000E+000	8.09081E-005	5.39641E-002	8.87768E-001	3.57350E+000	9	...........
	108	1.45333	8.89920E-001	9.10970E-005	0.00000E+000	8.10691E-005	5.39641E-002	8.90046E-001	3.57350E+000	9	...........
	109	1.46667	8.92159E-001	9.11543E-005	0.00000E+000	8.13241E-005	5.39641E-002	8.92264E-001	3.57350E+000	9	...........
	110	1.48	8.94349E-001	9.10210E-005	0.00000E+000	8.14046E-005	5.39641E-002	8.94504E-001	3.57350E+000	9	...........
	111	1.49333	8.96580E-001	9.10460E-005	0.00000E+000	8.16300E-005	5.39641E-002	8.96729E-001	3.57350E+000	9	...........
	112	1.50667	8.98762E-001	9.10345E-005	0.00000E+000	8.18184E-005	5.39641E-002	8.98902E-001	3.57350E+000	9	...........
	113	1.52	9.00884E-001	9.09126E-005	0.00000E+000	8.19018E-005	5.39641E-002	9.01040E-001	3.57350E+000	9	...........
	114	1.53333	9.03021E-001	9.11845E-005	0.00000E+000	8.23416E-005	5.39641E-002	9.03193E-001	3.57350E+000	9	...........
	115	1.54667	9.05110E-001	9.11481E-005	0.00000E+000	8.24990E-005	5.39641E-002	9.05295E-001	3.57350E+000	9	...........
	116	1.56	9.07210E-001	9.13492E-005	0.00000E+000	8.28729E-005	5.39641E-002	9.07395E-001	3.57350E+000	9	...........
	117	1.57333	9.09291E-001	9.09970E-005	0.00000E+000	8.27428E-005	5.39641E-002	9.09468E-001	3.57350E+000	9	...........
	118	1.58667	9.11352E-001	9.09616E-005	0.00000E+000	8.28980E-005	5.39641E-002	9.11539E-001	3.57350E+000	9	...........
	119	1.6	9.13366E-001	9.12252E-005	0.00000E+000	8.33220E-005	5.39641E-002	9.13584E-001	3.57350E+000	9	...........
	120	1.61333	9.15396E-001	9.10137E-005	0.00000E+000	8.33135E-005	5.39641E-002	9.15582E-001	3.57350E+000	9	...........
	121	1.62667	9.17384E-001	9.10814E-005	0.00000E+000	8.35566E-005	5.39641E-002	9.17572E-001	3.57350E+000	9	...........
	122	1.64	9.19352E-001	9.10533E-005	0.00000E+000	8.37100E-005	5.39641E-002	9.19510E-001	3.57350E+000	9	...........
	123	1.65333	9.21377E-001	9.09855E-005	0.00000E+000	8.38320E-005	5.39641E-002	9.21490E-001	3.57350E+000	9	...........
	124	1.66667	9.23270E-001	9.10553E-005	0.00000E+000	8.40687E-005	5.39641E-002	9.23404E-001	3.57350E+000	9	...........
	125	1.68	9.25182E-001	9.09751E-005	0.00000E+000	8.41686E-005	5.39641E-002	9.25314E-001	3.57350E+000	9	...........
	126	1.69333	9.27074E-001	9.12064E-005	0.00000E+000	8.45551E-005	5.39641E-002	9.27197E-001	3.57350E+000	9	...........
	127	1.70667	9.28944E-001	9.12210E-005	0.00000E+000	8.47392E-005	5.39641E-002	9.29062E-001	3.57350E+000	9	...........
	128	1.72	9.30780E-001	9.09084E-005	0.00000E+000	8.46158E-005	5.39641E-002	9.30909E-001	3.57350E+000	9	...........
	129	1.73333	9.32591E-001	9.10554E-005	0.00000E+000	8.49174E-005	5.39641E-002	9.32749E-001	3.57350E+000	9	...........
	130	1.74667	9.34413E-001	9.11564E-005	0.00000E+000	8.51777E-005	5.39641E-002	9.34578E-001	3.57350E+000	9	...........
	131	1.76	9.36184E-001	9.13096E-005	0.00000E+000	8.54825E-005	5.39641E-002	9.36383E-001	3.57350E+000	9	...........
	132	1.77333	9.37977E-001	9.10866E-005	0.00000E+000	8.54371E-005	5.39641E-002	9.38165E-001	3.57350E+000	9	...........
	133	1.78667	9.39719E-001	9.11064E-005	0.00000E+000	8.56144E-005	5.39641E-002	9.39944E-001	3.57350E+000	9	...........
	134	1.8	9.41458E-001	9.09960E-005	0.00000E+000	8.56689E-005	5.39641E-002	9.41639E-001	3.57350E+000	9	...........
	135	1.81333	9.43179E-001	9.10574E-005	0.00000E+000	8.58834E-005	5.39641E-002	9.43348E-001	3.57350E+000	9	...........
	136	1.82667	9.44869E-001	9.12752E-005	0.00000E+000	8.62431E-005	5.39641E-002	9.45054E-001	3.57350E+000	9	...........
	137	1.84	9.46573E-001	9.11043E-005	0.00000E+000	8.62369E-005	5.39641E-002	9.46783E-001	3.57350E+000	9	...........
	138	1.85333	9.48284E-001	9.11293E-005	0.00000E+000	8.64165E-005	5.39641E-002	9.48455E-001	3.57350E+000	9	...........
	139	1.86667	9.49953E-001	9.12064E-005	0.00000E+000	8.66418E-005	5.39641E-002	9.50110E-001	3.57350E+000	9	...........
	140	1.88	9.51581E-001	9.10658E-005	0.00000E+000	8.66564E-005	5.39641E-002	9.51770E-001	3.57280E+000	9	...........
	141	1.89333	9.53218E-001	9.11075E-005	0.00000E+000	8.68452E-005	5.39641E-002	9.53386E-001	3.57210E+000	9	...........
	142	1.90667	9.54814E-001	9.11991E-005	0.00000E+000	8.70782E-005	5.39641E-002	9.54980E-001	3.57210E+000	9	...........
	143	1.92	9.56402E-001	9.12877E-005	0.00000E+000	8.73078E-005	5.39641E-002	9.56566E-001	3.57210E+000	9	...........
	144	1.93333	9.57976E-001	9.11804E-005	0.00000E+000	8.73486E-005	5.39641E-002	9.58158E-001	3.57210E+000	9	...........
	145	1.94667	9.59555E-001	9.10991E-005	0.00000E+000	8.74146E-005	5.39641E-002	9.59738E-001	3.57210E+000	9	...........
	146	1.96	9.61122E-001	9.09303E-005	0.00000E+000	8.73951E-005	5.39641E-002	9.61314E-001	3.57210E+000	9	...........
	147	1.97333	9.62637E-001	9.08574E-005	0.00000E+000	8.74627E-005	5.39641E-002	9.62828E-001	3.57210E+000	9	...........
	148	1.98667	9.64164E-001	9.10408E-005	0.00000E+000	8.77782E-005	5.39641E-002	9.64349E-001	3.57210E+000	9	...........
	149	2	9.65673E-001	9.09543E-005	0.00000E+000	8.78321E-005	5.39641E-002	9.65866E-001	3.57210E+000	9	...........
	150	2.01333	9.67143E-001	9.11918E-005	0.00000E+000	8.81955E-005	5.39641E-002	9.67349E-001	3.57210E+000	9	...........
	151	2.02667	9.68609E-001	9.09855E-005	0.00000E+000	8.81295E-005	5.39641E-002	9.68806E-001	3.57210E+000	9	...........
	152	2.04	9.70076E-001	9.10637E-005	0.00000E+000	8.83387E-005	5.39641E-002	9.70289E-001	3.57210E+000	9	...........
	153	2.05333	9.71525E-001	9.10783E-005	0.00000E+000	8.84849E-005	5.39641E-002	9.71786E-001	3.57210E+000	9	...........
	154	2.06667	9.73021E-001	9.09553E-005	0.00000E+000	8.85015E-005	5.39641E-002	9.73214E-001	3.57210E+000	9	...........
	155	2.08	9.74469E-001	9.12606E-005	0.00000E+000	8.89306E-005	5.39641E-002	9.74661E-001	3.57210E+000	9	...........
	156	2.09333	9.75850E-001	9.10501E-005	0.00000E+000	8.88512E-005	5.39641E-002	9.76055E-001	3.57210E+000	9	...........
	157	2.10667	9.77241E-001	9.09699E-005	0.00000E+000	8.88996E-005	5.39641E-002	9.77440E-001	3.57210E+000	9	...........
	158	2.12	9.78622E-001	9.09032E-005	0.00000E+000	8.89599E-005	5.39641E-002	9.78798E-001	3.57210E+000	9	...........
	159	2.13333	9.79966E-001	9.12200E-005	0.00000E+000	8.93925E-005	5.39641E-002	9.80140E-001	3.57210E+000	9	...........
	160	2.14667	9.81302E-001	9.13981E-005	0.00000E+000	8.96891E-005	5.39641E-002	9.81480E-001	3.57210E+000	9	...........
	161	2.16	9.82642E-001	9.11377E-005	0.00000E+000	8.95557E-005	5.39641E-002	9.82822E-001	3.57210E+000	9	...........
	162	2.17333	9.83956E-001	9.10522E-005	0.00000E+000	8.95914E-005	5.39641E-002	9.84152E-001	3.57210E+000	9	...........
	163	2.18667	9.85278E-001	9.11158E-005	0.00000E+000	8.97744E-005	5.39641E-002	9.85484E-001	3.57210E+000	9	...........
	164	2.2	9.86566E-001	9.12679E-005	0.00000E+000	9.00418E-005	5.39641E-002	9.86765E-001	3.57210E+000	9	...........
	165	2.21333	9.87887E-001	9.10043E-005	0.00000E+000	8.99019E-005	5.39641E-002	9.88069E-001	3.57210E+000	9	...........
	166	2.22667	9.89178E-001	9.10824E-005	0.00000E+000	9.00968E-005	5.39641E-002	9.89340E-001	3.57210E+000	9	...........
	167	2.24	9.90424E-001	9.10783E-005	0.00000E+000	9.02061E-005	5.39641E-002	9.90586E-001	3.57210E+000	9	...........
	168	2.25333	9.91675E-001	9.11179E-005	0.00000E+000	9.03593E-005	5.39641E-002	9.91809E-001	3.57210E+000	9	...........
	169	2.26667	9.92887E-001	9.10178E-005	0.00000E+000	9.03704E-005	5.39641E-002	9.93045E-001	3.57210E+000	9	...........
	170	2.28	9.94131E-001	9.11960E-005	0.00000E+000	9.06608E-005	5.39641E-002	9.94281E-001	3.57210E+000	9	...........
	171	2.29333	9.95357E-001	9.11877E-005	0.00000E+000	9.07643E-005	5.39641E-002	9.95501E-001	3.57210E+000	9	...........
	172	2.30667	9.96540E-001	9.09543E-005	0.00000E+000	9.06396E-005	5.39641E-002	9.96711E-001	3.57210E+000	9	...........
	173	2.32	9.97746E-001	9.09564E-005	0.00000E+000	9.07514E-005	5.39641E-002	9.97946E-001	3.57210E+000	9	...........
	174	2.33333	9.98948E-001	9.09981E-005	0.00000E+000	9.09023E-005	5.39641E-002	9.99141E-001	3.57210E+000	9	...........
	175	2.34167	9.99898E-001	9.12427E-005	0.00000E+000	9.12334E-005	5.39641E-002	1.00009E+000	3.57210E+000	9	...........
STARTTIMEOFFSET	QUANT	1199.229	Start Time Offset (s)
