EXPLAIN
TAG	PWR800_CHARGE
TITLE	LABEL	PWR Cyclic Charge Discharge (Cell) - Charge Step	Test &Identifier
DATE	LABEL	10-7-2017	Date
TIME	LABEL	15:29:06	Time
NOTES	NOTES	3	&Notes...
	supercap test cell
	0.9mg
	6M KOH
PSTAT	PSTAT	IFC5000-01520	Potentiostat
CAPACITY	QUANT	1.00000E-003	Capacity (A-hr)
CELLTYPE	SELECTOR	1	&Cell Type
WORKINGCONNECTION	SELECTOR	0	&Working Lead
MAXCHARGETIME	VARIABLEANDUNITS	1.00000E+002	s	1.00000E+002	second(s)	Max &Charge Time
CHARGECURRENT	QUANT	9.00000E-005	&Charge Current (A) 
VOLTAGEFINISH	TWOPARAM	F	1.00000E-003	3.60000E+003	&Voltage Finish	 I (A) < 	Max Time(s)
SAMPLETIME	QUANT	1.00000E-002	Sa&mple Period (s)
CHARGESTOPAT1	MULTIPARAM	4	1.00000E+000	Charge Stop At &1	Voltage > Limit	V
CHARGESTOPAT2	MULTIPARAM	0	0.00000E+000	Charge Stop At &2	None	N/A
AESBHCSELECTOR	TOGGLE	F	Save Both Half Cells
IRCOMP	TOGGLE	F	IR &Measure
EOC	QUANT	0	Open Circuit (V)
SEQUENCER	TOGGLE	TRUE	Run as Sequence
PSTATMODEL	IQUANT	53	Pstat Model
PSTATSECTION	LABEL	IFC5000-01520	Pstat Section
PSTATSERIALNO	LABEL	01520	Pstat Serial Number
CTRLMODE	IQUANT	0	Control Mode
ELECTROMETER	IQUANT	1	RE=0 or CS=1
IESTAB	IQUANT	0	I/E Stability
CASPEED	IQUANT	4	Control Amp Speed
CONVENTION	IQUANT	1	Current Convention
ICHRANGE	IQUANT	2	Ich Range
ICHRANGEMODE	TOGGLE	T	Ich Auto Range
ICHOFFSETENABLE	TOGGLE	F	Ich Offset Enable
ICHOFFSET	QUANT	0	Ich Offset (V)
ICHFILTER	IQUANT	1	Ich Filter
VCHRANGE	IQUANT	2	Vch Range
VCHRANGEMODE	TOGGLE	T	Vch Auto Range
VCHOFFSETENABLE	TOGGLE	F	Vch Offset Enable
VCHOFFSET	QUANT	0	Vch Offset (V)
VCHFILTER	IQUANT	1	Vch Filter
IERANGELOWERLIMIT	IQUANT	9	I/E Range Lower Limit
IERANGEMODE	TOGGLE	F	I/E AutoRange
IERANGE	IQUANT	9	I/E Range
ACHSELECT	IQUANT	1	Ach Select
ACHRANGE	IQUANT	2	Ach Range
ACHOFFSETENABLE	TOGGLE	F	Ach Offset Enable
ACHOFFSET	QUANT	0	Ach Offset (V)
ACHFILTER	IQUANT	1	Ach Filter
CABLEID	IQUANT	14	Cable ID
DCCALDATE	LABEL	5-7-2017	DC Calibration Date
ACCALDATE	LABEL	12/3/2015	AC Calibration Date
FRAMEWORKVERSION	QUANT	7.01	Framework Version
INSTRUMENTVERSION	LABEL	4.00	Instrument Version
CURVE	TABLE	175
	Pt	T	Vf	Im	Vu	Pwr	Sig	Ach	Temp	IERange	Over
	#	s	V	A	V	W	V	V	deg C	#	bits
	0	0.013333	2.80830E-001	9.08199E-005	0.00000E+000	2.55049E-005	5.39641E-002	2.80879E-001	3.57340E+000	9	...........
	1	0.026667	3.00361E-001	9.09074E-005	0.00000E+000	2.73050E-005	5.39641E-002	3.00395E-001	3.57340E+000	9	...........
	2	0.04	3.18489E-001	9.09522E-005	0.00000E+000	2.89673E-005	5.39641E-002	3.18524E-001	3.57340E+000	9	...........
	3	0.053333	3.35434E-001	9.10877E-005	0.00000E+000	3.05539E-005	5.39641E-002	3.35471E-001	3.57340E+000	9	...........
	4	0.066667	3.51372E-001	9.08991E-005	0.00000E+000	3.19394E-005	5.39641E-002	3.51411E-001	3.57340E+000	9	...........
	5	0.08	3.66414E-001	9.10397E-005	0.00000E+000	3.33583E-005	5.39641E-002	3.66455E-001	3.57340E+000	9	...........
	6	0.093333	3.80676E-001	9.10262E-005	0.00000E+000	3.46515E-005	5.39641E-002	3.80719E-001	3.57340E+000	9	...........
	7	0.106667	3.94245E-001	9.08616E-005	0.00000E+000	3.58217E-005	5.39641E-002	3.94290E-001	3.57340E+000	9	...........
	8	0.12	4.07182E-001	9.13460E-005	0.00000E+000	3.71945E-005	5.39641E-002	4.07228E-001	3.57340E+000	9	...........
	9	0.133333	4.19552E-001	9.09960E-005	0.00000E+000	3.81775E-005	5.39641E-002	4.19598E-001	3.57340E+000	9	...........
	10	0.146667	4.31390E-001	9.11262E-005	0.00000E+000	3.93109E-005	5.39641E-002	4.31441E-001	3.57340E+000	9	...........
	11	0.16	4.42754E-001	9.11825E-005	0.00000E+000	4.03714E-005	5.39641E-002	4.42804E-001	3.57340E+000	9	...........
	12	0.173333	4.53667E-001	9.09887E-005	0.00000E+000	4.12786E-005	5.39641E-002	4.53724E-001	3.57340E+000	9	...........
	13	0.186667	4.64204E-001	9.11189E-005	0.00000E+000	4.22978E-005	5.39641E-002	4.64258E-001	3.57340E+000	9	...........
	14	0.2	4.74353E-001	9.11116E-005	0.00000E+000	4.32190E-005	5.39641E-002	4.74412E-001	3.57340E+000	9	...........
	15	0.213333	4.84170E-001	9.08532E-005	0.00000E+000	4.39884E-005	5.39641E-002	4.84226E-001	3.57340E+000	9	...........
	16	0.226667	4.93655E-001	9.08637E-005	0.00000E+000	4.48553E-005	5.39641E-002	4.93720E-001	3.57340E+000	9	...........
	17	0.24	5.02841E-001	9.11064E-005	0.00000E+000	4.58120E-005	5.39641E-002	5.02905E-001	3.57340E+000	9	...........
	18	0.253333	5.11740E-001	9.08282E-005	0.00000E+000	4.64804E-005	5.39641E-002	5.11806E-001	3.57340E+000	9	...........
	19	0.266667	5.20369E-001	9.08980E-005	0.00000E+000	4.73005E-005	5.39641E-002	5.20441E-001	3.57340E+000	9	...........
	20	0.28	5.28757E-001	9.10991E-005	0.00000E+000	4.81693E-005	5.39641E-002	5.28829E-001	3.57340E+000	9	...........
	21	0.293333	5.36823E-001	9.08720E-005	0.00000E+000	4.87822E-005	5.39641E-002	5.36955E-001	3.57340E+000	9	...........
	22	0.306667	5.44738E-001	9.11616E-005	0.00000E+000	4.96592E-005	5.39641E-002	5.44870E-001	3.57340E+000	9	...........
	23	0.32	5.52456E-001	9.10564E-005	0.00000E+000	5.03046E-005	5.39641E-002	5.52567E-001	3.57340E+000	9	...........
	24	0.333333	5.59953E-001	9.09928E-005	0.00000E+000	5.09518E-005	5.39641E-002	5.60059E-001	3.57340E+000	9	...........
	25	0.346667	5.67289E-001	9.10064E-005	0.00000E+000	5.16269E-005	5.39641E-002	5.67376E-001	3.57340E+000	9	...........
	26	0.36	5.74400E-001	9.11679E-005	0.00000E+000	5.23668E-005	5.39641E-002	5.74507E-001	3.57340E+000	9	...........
	27	0.373333	5.81356E-001	9.09803E-005	0.00000E+000	5.28920E-005	5.39641E-002	5.81480E-001	3.57340E+000	9	...........
	28	0.386667	5.88156E-001	9.09647E-005	0.00000E+000	5.35015E-005	5.39641E-002	5.88287E-001	3.57340E+000	9	...........
	29	0.4	5.94797E-001	9.09814E-005	0.00000E+000	5.41155E-005	5.39641E-002	5.94913E-001	3.57340E+000	9	...........
	30	0.413333	6.01250E-001	9.11418E-005	0.00000E+000	5.47990E-005	5.39641E-002	6.01395E-001	3.57340E+000	9	...........
	31	0.426667	6.07600E-001	9.09783E-005	0.00000E+000	5.52784E-005	5.39641E-002	6.07732E-001	3.57340E+000	9	...........
	32	0.44	6.13853E-001	9.11460E-005	0.00000E+000	5.59503E-005	5.39641E-002	6.13961E-001	3.57340E+000	9	...........
	33	0.453333	6.19946E-001	9.09720E-005	0.00000E+000	5.63977E-005	5.39641E-002	6.20023E-001	3.57340E+000	9	...........
	34	0.466667	6.25885E-001	9.10199E-005	0.00000E+000	5.69680E-005	5.39641E-002	6.25958E-001	3.57340E+000	9	...........
	35	0.48	6.31695E-001	9.12106E-005	0.00000E+000	5.76173E-005	5.39641E-002	6.31792E-001	3.57340E+000	9	...........
	36	0.493333	6.37388E-001	9.10554E-005	0.00000E+000	5.80376E-005	5.39641E-002	6.37523E-001	3.57340E+000	9	...........
	37	0.506667	6.43028E-001	9.11804E-005	0.00000E+000	5.86315E-005	5.39641E-002	6.43136E-001	3.57340E+000	9	...........
	38	0.52	6.48511E-001	9.08949E-005	0.00000E+000	5.89464E-005	5.39641E-002	6.48631E-001	3.57340E+000	9	...........
	39	0.533333	6.53909E-001	9.10147E-005	0.00000E+000	5.95154E-005	5.39641E-002	6.54012E-001	3.57340E+000	9	...........
	40	0.546667	6.59175E-001	9.09449E-005	0.00000E+000	5.99486E-005	5.39641E-002	6.59294E-001	3.57340E+000	9	...........
	41	0.56	6.64378E-001	9.10022E-005	0.00000E+000	6.04599E-005	5.39641E-002	6.64517E-001	3.57340E+000	9	...........
	42	0.573333	6.69475E-001	9.12262E-005	0.00000E+000	6.10737E-005	5.39641E-002	6.69607E-001	3.57340E+000	9	...........
	43	0.586667	6.74448E-001	9.09699E-005	0.00000E+000	6.13545E-005	5.39641E-002	6.74559E-001	3.57340E+000	9	...........
	44	0.6	6.79346E-001	9.12221E-005	0.00000E+000	6.19714E-005	5.39641E-002	6.79472E-001	3.57340E+000	9	...........
	45	0.613333	6.84198E-001	9.11095E-005	0.00000E+000	6.23370E-005	5.39641E-002	6.84283E-001	3.57340E+000	9	...........
	46	0.626667	6.88942E-001	9.07699E-005	0.00000E+000	6.25352E-005	5.39641E-002	6.89059E-001	3.57340E+000	9	...........
	47	0.64	6.93653E-001	9.11658E-005	0.00000E+000	6.32374E-005	5.39641E-002	6.93743E-001	3.57340E+000	9	...........
	48	0.653333	6.98240E-001	9.09553E-005	0.00000E+000	6.35086E-005	5.39641E-002	6.98352E-001	3.57340E+000	9	...........
	49	0.666667	7.02766E-001	9.12752E-005	0.00000E+000	6.41451E-005	5.39641E-002	7.02858E-001	3.57366E+000	9	...........
	50	0.68	7.07202E-001	9.09928E-005	0.00000E+000	6.43503E-005	5.39641E-002	7.07316E-001	3.57370E+000	9	...........
	51	0.693333	7.11597E-001	9.10877E-005	0.00000E+000	6.48177E-005	5.39641E-002	7.11698E-001	3.57370E+000	9	...........
	52	0.706667	7.15917E-001	9.10762E-005	0.00000E+000	6.52030E-005	5.39641E-002	7.16013E-001	3.57370E+000	9	...........
	53	0.72	7.20224E-001	9.10262E-005	0.00000E+000	6.55592E-005	5.39641E-002	7.20316E-001	3.57370E+000	9	...........
	54	0.733333	7.24434E-001	9.11773E-005	0.00000E+000	6.60519E-005	5.39641E-002	7.24493E-001	3.57370E+000	9	...........
	55	0.746667	7.28562E-001	9.11314E-005	0.00000E+000	6.63949E-005	5.39641E-002	7.28674E-001	3.57370E+000	9	...........
	56	0.76	7.32627E-001	9.11595E-005	0.00000E+000	6.67860E-005	5.39641E-002	7.32748E-001	3.57370E+000	9	...........
	57	0.773333	7.36666E-001	9.10178E-005	0.00000E+000	6.70498E-005	5.39641E-002	7.36803E-001	3.57370E+000	9	...........
	58	0.786667	7.40628E-001	9.11293E-005	0.00000E+000	6.74929E-005	5.39641E-002	7.40766E-001	3.57370E+000	9	...........
	59	0.8	7.44600E-001	9.09480E-005	0.00000E+000	6.77199E-005	5.39641E-002	7.44716E-001	3.57370E+000	9	...........
	60	0.813333	7.48459E-001	9.10387E-005	0.00000E+000	6.81388E-005	5.39641E-002	7.48589E-001	3.57370E+000	9	...........
	61	0.826667	7.52272E-001	9.12293E-005	0.00000E+000	6.86293E-005	5.39641E-002	7.52415E-001	3.57370E+000	9	...........
	62	0.84	7.56032E-001	9.12377E-005	0.00000E+000	6.89786E-005	5.39641E-002	7.56177E-001	3.57370E+000	9	...........
	63	0.853333	7.59736E-001	9.08855E-005	0.00000E+000	6.90490E-005	5.39641E-002	7.59845E-001	3.57370E+000	9	...........
	64	0.866667	7.63367E-001	9.13085E-005	0.00000E+000	6.97019E-005	5.39641E-002	7.63492E-001	3.57370E+000	9	...........
	65	0.88	7.66989E-001	9.10147E-005	0.00000E+000	6.98073E-005	5.39641E-002	7.67140E-001	3.57370E+000	9	...........
	66	0.893333	7.70596E-001	9.11627E-005	0.00000E+000	7.02496E-005	5.39641E-002	7.70726E-001	3.57370E+000	9	...........
	67	0.906667	7.74108E-001	9.09928E-005	0.00000E+000	7.04382E-005	5.39641E-002	7.74264E-001	3.57370E+000	9	...........
	68	0.92	7.77589E-001	9.12648E-005	0.00000E+000	7.09665E-005	5.39641E-002	7.77759E-001	3.57370E+000	9	...........
	69	0.933333	7.81055E-001	9.12877E-005	0.00000E+000	7.13007E-005	5.39641E-002	7.81234E-001	3.57370E+000	9	...........
	70	0.946667	7.84480E-001	9.11106E-005	0.00000E+000	7.14744E-005	5.39641E-002	7.84637E-001	3.57370E+000	9	...........
	71	0.96	7.87893E-001	9.10335E-005	0.00000E+000	7.17246E-005	5.39641E-002	7.88016E-001	3.57370E+000	9	...........
	72	0.97333	7.91180E-001	9.11179E-005	0.00000E+000	7.20906E-005	5.39641E-002	7.91352E-001	3.57370E+000	9	...........
	73	0.98667	7.94545E-001	9.10876E-005	0.00000E+000	7.23732E-005	5.39641E-002	7.94662E-001	3.57370E+000	9	...........
	74	1	7.97780E-001	9.10501E-005	0.00000E+000	7.26380E-005	5.39641E-002	7.97920E-001	3.57370E+000	9	...........
	75	1.01333	8.01011E-001	9.10751E-005	0.00000E+000	7.29522E-005	5.39641E-002	8.01146E-001	3.57370E+000	9	...........
	76	1.02667	8.04182E-001	9.09480E-005	0.00000E+000	7.31388E-005	5.39641E-002	8.04306E-001	3.57370E+000	9	...........
	77	1.04	8.07285E-001	9.09710E-005	0.00000E+000	7.34395E-005	5.39641E-002	8.07440E-001	3.57370E+000	9	...........
	78	1.05333	8.10388E-001	9.09522E-005	0.00000E+000	7.37066E-005	5.39641E-002	8.10500E-001	3.57370E+000	9	...........
	79	1.06667	8.13418E-001	9.10720E-005	0.00000E+000	7.40797E-005	5.39641E-002	8.13575E-001	3.57370E+000	9	...........
	80	1.08	8.16458E-001	9.10001E-005	0.00000E+000	7.42978E-005	5.39641E-002	8.16606E-001	3.57370E+000	9	...........
	81	1.09333	8.19469E-001	9.08814E-005	0.00000E+000	7.44745E-005	5.39641E-002	8.19636E-001	3.57370E+000	9	...........
	82	1.10667	8.22434E-001	9.11054E-005	0.00000E+000	7.49282E-005	5.39641E-002	8.22602E-001	3.57370E+000	9	...........
	83	1.12	8.25384E-001	9.09741E-005	0.00000E+000	7.50886E-005	5.39641E-002	8.25551E-001	3.57370E+000	9	...........
	84	1.13333	8.28311E-001	9.10033E-005	0.00000E+000	7.53790E-005	5.39641E-002	8.28448E-001	3.57370E+000	9	...........
	85	1.14667	8.31172E-001	9.07074E-005	0.00000E+000	7.53935E-005	5.39641E-002	8.31357E-001	3.57370E+000	9	...........
	86	1.16	8.34047E-001	9.10824E-005	0.00000E+000	7.59671E-005	5.39641E-002	8.34193E-001	3.57370E+000	9	...........
	87	1.17333	8.36837E-001	9.11074E-005	0.00000E+000	7.62421E-005	5.39641E-002	8.37018E-001	3.57370E+000	9	...........
	88	1.18667	8.39623E-001	9.11773E-005	0.00000E+000	7.65545E-005	5.39641E-002	8.39804E-001	3.57370E+000	9	...........
	89	1.2	8.42380E-001	9.10887E-005	0.00000E+000	7.67313E-005	5.39641E-002	8.42559E-001	3.57370E+000	9	...........
	90	1.21333	8.45149E-001	9.09835E-005	0.00000E+000	7.68946E-005	5.39641E-002	8.45308E-001	3.57370E+000	9	...........
	91	1.22667	8.47855E-001	9.12439E-005	0.00000E+000	7.73616E-005	5.39641E-002	8.48018E-001	3.57370E+000	9	...........
	92	1.24	8.50527E-001	9.09293E-005	0.00000E+000	7.73378E-005	5.39641E-002	8.50697E-001	3.57370E+000	9	...........
	93	1.25333	8.53189E-001	9.11189E-005	0.00000E+000	7.77417E-005	5.39641E-002	8.53358E-001	3.57370E+000	9	...........
	94	1.26667	8.55808E-001	9.11783E-005	0.00000E+000	7.80311E-005	5.39641E-002	8.55982E-001	3.57370E+000	9	...........
	95	1.28	8.58417E-001	9.12033E-005	0.00000E+000	7.82905E-005	5.39641E-002	8.58598E-001	3.57370E+000	9	...........
	96	1.29333	8.60993E-001	9.10595E-005	0.00000E+000	7.84016E-005	5.39641E-002	8.61172E-001	3.57370E+000	9	...........
	97	1.30667	8.63514E-001	9.10241E-005	0.00000E+000	7.86006E-005	5.39641E-002	8.63696E-001	3.57370E+000	9	...........
	98	1.32	8.66025E-001	9.10939E-005	0.00000E+000	7.88896E-005	5.39641E-002	8.66212E-001	3.57370E+000	9	...........
	99	1.33333	8.68541E-001	9.10251E-005	0.00000E+000	7.90591E-005	5.39641E-002	8.68734E-001	3.57370E+000	9	...........
	100	1.34667	8.71065E-001	9.12460E-005	0.00000E+000	7.94812E-005	5.39641E-002	8.71226E-001	3.57370E+000	9	...........
	101	1.36	8.73514E-001	9.08647E-005	0.00000E+000	7.93716E-005	5.39641E-002	8.73687E-001	3.57370E+000	9	...........
	102	1.37333	8.75939E-001	9.09616E-005	0.00000E+000	7.96768E-005	5.39641E-002	8.76113E-001	3.57370E+000	9	...........
	103	1.38667	8.78334E-001	9.11241E-005	0.00000E+000	8.00374E-005	5.39641E-002	8.78487E-001	3.57370E+000	9	...........
	104	1.4	8.80694E-001	9.09460E-005	0.00000E+000	8.00956E-005	5.39641E-002	8.80873E-001	3.57370E+000	9	...........
	105	1.41333	8.83067E-001	9.11762E-005	0.00000E+000	8.05147E-005	5.39641E-002	8.83234E-001	3.57370E+000	9	...........
	106	1.42667	8.85396E-001	9.10501E-005	0.00000E+000	8.06154E-005	5.39641E-002	8.85568E-001	3.57370E+000	9	...........
	107	1.44	8.87695E-001	9.09835E-005	0.00000E+000	8.07655E-005	5.39641E-002	8.87863E-001	3.57370E+000	9	...........
	108	1.45333	8.89958E-001	9.10752E-005	0.00000E+000	8.10530E-005	5.39641E-002	8.90132E-001	3.57370E+000	9	...........
	109	1.46667	8.92217E-001	9.14419E-005	0.00000E+000	8.15861E-005	5.39641E-002	8.92388E-001	3.57370E+000	9	...........
	110	1.48	8.94438E-001	9.09012E-005	0.00000E+000	8.13055E-005	5.39641E-002	8.94627E-001	3.57370E+000	9	...........
	111	1.49333	8.96677E-001	9.09595E-005	0.00000E+000	8.15613E-005	5.39641E-002	8.96852E-001	3.57370E+000	9	...........
	112	1.50667	8.98834E-001	9.08116E-005	0.00000E+000	8.16245E-005	5.39641E-002	8.99032E-001	3.57370E+000	9	...........
	113	1.52	9.00968E-001	9.08543E-005	0.00000E+000	8.18568E-005	5.39641E-002	9.01159E-001	3.57370E+000	9	...........
	114	1.53333	9.03124E-001	9.09876E-005	0.00000E+000	8.21731E-005	5.39641E-002	9.03312E-001	3.57370E+000	9	...........
	115	1.54667	9.05217E-001	9.11991E-005	0.00000E+000	8.25550E-005	5.39641E-002	9.05422E-001	3.57370E+000	9	...........
	116	1.56	9.07302E-001	9.12106E-005	0.00000E+000	8.27555E-005	5.39641E-002	9.07529E-001	3.57370E+000	9	...........
	117	1.57333	9.09421E-001	9.11366E-005	0.00000E+000	8.28816E-005	5.39641E-002	9.09612E-001	3.57370E+000	9	...........
	118	1.58667	9.11507E-001	9.11147E-005	0.00000E+000	8.30517E-005	5.39641E-002	9.11698E-001	3.57370E+000	9	...........
	119	1.6	9.13539E-001	9.10595E-005	0.00000E+000	8.31864E-005	5.39641E-002	9.13755E-001	3.57370E+000	9	...........
	120	1.61333	9.15544E-001	9.11002E-005	0.00000E+000	8.34062E-005	5.39641E-002	9.15774E-001	3.57370E+000	9	...........
	121	1.62667	9.17563E-001	9.08834E-005	0.00000E+000	8.33913E-005	5.39641E-002	9.17790E-001	3.57370E+000	9	...........
	122	1.64	9.19576E-001	9.12564E-005	0.00000E+000	8.39173E-005	5.39641E-002	9.19788E-001	3.57370E+000	9	...........
	123	1.65333	9.21631E-001	9.12168E-005	0.00000E+000	8.40683E-005	5.39641E-002	9.21784E-001	3.57370E+000	9	...........
	124	1.66667	9.23575E-001	9.11356E-005	0.00000E+000	8.41706E-005	5.39641E-002	9.23722E-001	3.57247E+000	9	...........
	125	1.68	9.25490E-001	9.08637E-005	0.00000E+000	8.40934E-005	5.39641E-002	9.25652E-001	3.57230E+000	9	...........
	126	1.69333	9.27405E-001	9.09866E-005	0.00000E+000	8.43815E-005	5.39641E-002	9.27570E-001	3.57230E+000	9	...........
	127	1.70667	9.29291E-001	9.10064E-005	0.00000E+000	8.45714E-005	5.39641E-002	9.29417E-001	3.57230E+000	9	...........
	128	1.72	9.31166E-001	9.09751E-005	0.00000E+000	8.47129E-005	5.39641E-002	9.31285E-001	3.57230E+000	9	...........
	129	1.73333	9.33008E-001	9.10647E-005	0.00000E+000	8.49641E-005	5.39641E-002	9.33134E-001	3.57230E+000	9	...........
	130	1.74667	9.34834E-001	9.11387E-005	0.00000E+000	8.51996E-005	5.39641E-002	9.34975E-001	3.57230E+000	9	...........
	131	1.76	9.36653E-001	9.11377E-005	0.00000E+000	8.53643E-005	5.39641E-002	9.36795E-001	3.57230E+000	9	...........
	132	1.77333	9.38430E-001	9.13127E-005	0.00000E+000	8.56905E-005	5.39641E-002	9.38571E-001	3.57230E+000	9	...........
	133	1.78667	9.40176E-001	9.09095E-005	0.00000E+000	8.54710E-005	5.39641E-002	9.40305E-001	3.57230E+000	9	...........
	134	1.8	9.41937E-001	9.09251E-005	0.00000E+000	8.56457E-005	5.39641E-002	9.42050E-001	3.57230E+000	9	...........
	135	1.81333	9.43635E-001	9.10210E-005	0.00000E+000	8.58906E-005	5.39641E-002	9.43780E-001	3.57230E+000	9	...........
	136	1.82667	9.45346E-001	9.09845E-005	0.00000E+000	8.60118E-005	5.39641E-002	9.45508E-001	3.57230E+000	9	...........
	137	1.84	9.47105E-001	9.09282E-005	0.00000E+000	8.61186E-005	5.39641E-002	9.47261E-001	3.57230E+000	9	...........
	138	1.85333	9.48788E-001	9.11523E-005	0.00000E+000	8.64842E-005	5.39641E-002	9.48946E-001	3.57230E+000	9	...........
	139	1.86667	9.50458E-001	9.08418E-005	0.00000E+000	8.63413E-005	5.39641E-002	9.50644E-001	3.57230E+000	9	...........
	140	1.88	9.52090E-001	9.11356E-005	0.00000E+000	8.67692E-005	5.39641E-002	9.52261E-001	3.57230E+000	9	...........
	141	1.89333	9.53759E-001	9.12033E-005	0.00000E+000	8.69860E-005	5.39641E-002	9.53881E-001	3.57230E+000	9	...........
	142	1.90667	9.55360E-001	9.09991E-005	0.00000E+000	8.69369E-005	5.39641E-002	9.55490E-001	3.57230E+000	9	...........
	143	1.92	9.56951E-001	9.11200E-005	0.00000E+000	8.71974E-005	5.39641E-002	9.57100E-001	3.57230E+000	9	...........
	144	1.93333	9.58512E-001	9.12231E-005	0.00000E+000	8.74384E-005	5.39641E-002	9.58690E-001	3.57230E+000	9	...........
	145	1.94667	9.60103E-001	9.10574E-005	0.00000E+000	8.74245E-005	5.39641E-002	9.60284E-001	3.57230E+000	9	...........
	146	1.96	9.61662E-001	9.13273E-005	0.00000E+000	8.78260E-005	5.39641E-002	9.61841E-001	3.57230E+000	9	...........
	147	1.97333	9.63200E-001	9.11689E-005	0.00000E+000	8.78139E-005	5.39641E-002	9.63388E-001	3.57230E+000	9	...........
	148	1.98667	9.64710E-001	9.10220E-005	0.00000E+000	8.78099E-005	5.39641E-002	9.64914E-001	3.57230E+000	9	...........
	149	2	9.66214E-001	9.09126E-005	0.00000E+000	8.78410E-005	5.39641E-002	9.66410E-001	3.57230E+000	9	...........
	150	2.01333	9.67705E-001	9.11325E-005	0.00000E+000	8.81894E-005	5.39641E-002	9.67905E-001	3.57230E+000	9	...........
	151	2.02667	9.69170E-001	9.09678E-005	0.00000E+000	8.81633E-005	5.39641E-002	9.69378E-001	3.57230E+000	9	...........
	152	2.04	9.70625E-001	9.07647E-005	0.00000E+000	8.80985E-005	5.39641E-002	9.70851E-001	3.57230E+000	9	...........
	153	2.05333	9.72078E-001	9.10387E-005	0.00000E+000	8.84967E-005	5.39641E-002	9.72315E-001	3.57230E+000	9	...........
	154	2.06667	9.73562E-001	9.12137E-005	0.00000E+000	8.88023E-005	5.39641E-002	9.73755E-001	3.57230E+000	9	...........
	155	2.08	9.74971E-001	9.11564E-005	0.00000E+000	8.88748E-005	5.39641E-002	9.75174E-001	3.57230E+000	9	...........
	156	2.09333	9.76372E-001	9.09262E-005	0.00000E+000	8.87778E-005	5.39641E-002	9.76569E-001	3.57230E+000	9	...........
	157	2.10667	9.77774E-001	9.11022E-005	0.00000E+000	8.90774E-005	5.39641E-002	9.77983E-001	3.57230E+000	9	...........
	158	2.12	9.79160E-001	9.10085E-005	0.00000E+000	8.91118E-005	5.39641E-002	9.79369E-001	3.57230E+000	9	...........
	159	2.13333	9.80529E-001	9.12293E-005	0.00000E+000	8.94530E-005	5.39641E-002	9.80711E-001	3.57230E+000	9	...........
	160	2.14667	9.81886E-001	9.09303E-005	0.00000E+000	8.92832E-005	5.39641E-002	9.82037E-001	3.57230E+000	9	...........
	161	2.16	9.83185E-001	9.11252E-005	0.00000E+000	8.95929E-005	5.39641E-002	9.83389E-001	3.57230E+000	9	...........
	162	2.17333	9.84502E-001	9.10731E-005	0.00000E+000	8.96616E-005	5.39641E-002	9.84705E-001	3.57230E+000	9	...........
	163	2.18667	9.85806E-001	9.11554E-005	0.00000E+000	8.98615E-005	5.39641E-002	9.86006E-001	3.57230E+000	9	...........
	164	2.2	9.87090E-001	9.10512E-005	0.00000E+000	8.98757E-005	5.39641E-002	9.87307E-001	3.57230E+000	9	...........
	165	2.21333	9.88395E-001	9.11272E-005	0.00000E+000	9.00698E-005	5.39641E-002	9.88607E-001	3.57230E+000	9	...........
	166	2.22667	9.89691E-001	9.08053E-005	0.00000E+000	8.98692E-005	5.39641E-002	9.89900E-001	3.57230E+000	9	...........
	167	2.24	9.90960E-001	9.12366E-005	0.00000E+000	9.04119E-005	5.39641E-002	9.91135E-001	3.57230E+000	9	...........
	168	2.25333	9.92182E-001	9.11689E-005	0.00000E+000	9.04562E-005	5.39641E-002	9.92396E-001	3.57230E+000	9	...........
	169	2.26667	9.93434E-001	9.08762E-005	0.00000E+000	9.02794E-005	5.39641E-002	9.93647E-001	3.57230E+000	9	...........
	170	2.28	9.94678E-001	9.08907E-005	0.00000E+000	9.04070E-005	5.39641E-002	9.94881E-001	3.57230E+000	9	...........
	171	2.29333	9.95922E-001	9.11606E-005	0.00000E+000	9.07888E-005	5.39641E-002	9.96096E-001	3.57230E+000	9	...........
	172	2.30667	9.97115E-001	9.12731E-005	0.00000E+000	9.10098E-005	5.39641E-002	9.97362E-001	3.57230E+000	9	...........
	173	2.32	9.98364E-001	9.10272E-005	0.00000E+000	9.08783E-005	5.39641E-002	9.98567E-001	3.57230E+000	9	...........
	174	2.33333	9.99561E-001	9.09751E-005	0.00000E+000	9.09352E-005	5.39641E-002	9.99762E-001	3.57230E+000	9	...........
STARTTIMEOFFSET	QUANT	1512.904	Start Time Offset (s)
