EXPLAIN
TAG	PWR800_CHARGE
TITLE	LABEL	PWR Cyclic Charge Discharge (Cell) - Charge Step	Test &Identifier
DATE	LABEL	10-7-2017	Date
TIME	LABEL	15:05:21	Time
NOTES	NOTES	3	&Notes...
	supercap test cell
	0.9mg
	6M KOH
PSTAT	PSTAT	IFC5000-01520	Potentiostat
CAPACITY	QUANT	1.00000E-003	Capacity (A-hr)
CELLTYPE	SELECTOR	1	&Cell Type
WORKINGCONNECTION	SELECTOR	0	&Working Lead
MAXCHARGETIME	VARIABLEANDUNITS	1.00000E+002	s	1.00000E+002	second(s)	Max &Charge Time
CHARGECURRENT	QUANT	9.00000E-005	&Charge Current (A) 
VOLTAGEFINISH	TWOPARAM	F	1.00000E-003	3.60000E+003	&Voltage Finish	 I (A) < 	Max Time(s)
SAMPLETIME	QUANT	1.00000E-002	Sa&mple Period (s)
CHARGESTOPAT1	MULTIPARAM	4	1.00000E+000	Charge Stop At &1	Voltage > Limit	V
CHARGESTOPAT2	MULTIPARAM	0	0.00000E+000	Charge Stop At &2	None	N/A
AESBHCSELECTOR	TOGGLE	F	Save Both Half Cells
IRCOMP	TOGGLE	F	IR &Measure
EOC	QUANT	0	Open Circuit (V)
SEQUENCER	TOGGLE	TRUE	Run as Sequence
PSTATMODEL	IQUANT	53	Pstat Model
PSTATSECTION	LABEL	IFC5000-01520	Pstat Section
PSTATSERIALNO	LABEL	01520	Pstat Serial Number
CTRLMODE	IQUANT	0	Control Mode
ELECTROMETER	IQUANT	1	RE=0 or CS=1
IESTAB	IQUANT	0	I/E Stability
CASPEED	IQUANT	4	Control Amp Speed
CONVENTION	IQUANT	1	Current Convention
ICHRANGE	IQUANT	2	Ich Range
ICHRANGEMODE	TOGGLE	T	Ich Auto Range
ICHOFFSETENABLE	TOGGLE	F	Ich Offset Enable
ICHOFFSET	QUANT	0	Ich Offset (V)
ICHFILTER	IQUANT	1	Ich Filter
VCHRANGE	IQUANT	2	Vch Range
VCHRANGEMODE	TOGGLE	T	Vch Auto Range
VCHOFFSETENABLE	TOGGLE	F	Vch Offset Enable
VCHOFFSET	QUANT	0	Vch Offset (V)
VCHFILTER	IQUANT	1	Vch Filter
IERANGELOWERLIMIT	IQUANT	9	I/E Range Lower Limit
IERANGEMODE	TOGGLE	F	I/E AutoRange
IERANGE	IQUANT	9	I/E Range
ACHSELECT	IQUANT	1	Ach Select
ACHRANGE	IQUANT	2	Ach Range
ACHOFFSETENABLE	TOGGLE	F	Ach Offset Enable
ACHOFFSET	QUANT	0	Ach Offset (V)
ACHFILTER	IQUANT	1	Ach Filter
CABLEID	IQUANT	14	Cable ID
DCCALDATE	LABEL	5-7-2017	DC Calibration Date
ACCALDATE	LABEL	12/3/2015	AC Calibration Date
FRAMEWORKVERSION	QUANT	7.01	Framework Version
INSTRUMENTVERSION	LABEL	4.00	Instrument Version
CURVE	TABLE	193
	Pt	T	Vf	Im	Vu	Pwr	Sig	Ach	Temp	IERange	Over
	#	s	V	A	V	W	V	V	deg C	#	bits
	0	0.013333	2.97218E-001	9.10481E-005	0.00000E+000	2.70611E-005	5.39641E-002	2.97258E-001	3.57220E+000	9	...........
	1	0.026667	3.15950E-001	9.12679E-005	0.00000E+000	2.88361E-005	5.39641E-002	3.15982E-001	3.57220E+000	9	...........
	2	0.04	3.33166E-001	9.13179E-005	0.00000E+000	3.04240E-005	5.39641E-002	3.33199E-001	3.57220E+000	9	...........
	3	0.053333	3.49195E-001	9.11085E-005	0.00000E+000	3.18146E-005	5.39641E-002	3.49222E-001	3.57220E+000	9	...........
	4	0.066667	3.64209E-001	9.13429E-005	0.00000E+000	3.32679E-005	5.39641E-002	3.64246E-001	3.57220E+000	9	...........
	5	0.08	3.78376E-001	9.11554E-005	0.00000E+000	3.44910E-005	5.39641E-002	3.78411E-001	3.57220E+000	9	...........
	6	0.093333	3.91794E-001	9.11981E-005	0.00000E+000	3.57309E-005	5.39641E-002	3.91826E-001	3.57220E+000	9	...........
	7	0.106667	4.04555E-001	9.09939E-005	0.00000E+000	3.68120E-005	5.39641E-002	4.04593E-001	3.57220E+000	9	...........
	8	0.12	4.16727E-001	9.13294E-005	0.00000E+000	3.80594E-005	5.39641E-002	4.16770E-001	3.57220E+000	9	...........
	9	0.133333	4.28381E-001	9.11220E-005	0.00000E+000	3.90349E-005	5.39641E-002	4.28424E-001	3.57220E+000	9	...........
	10	0.146667	4.39557E-001	9.11595E-005	0.00000E+000	4.00698E-005	5.39641E-002	4.39598E-001	3.57220E+000	9	...........
	11	0.16	4.50287E-001	9.10845E-005	0.00000E+000	4.10142E-005	5.39641E-002	4.50336E-001	3.57220E+000	9	...........
	12	0.173333	4.60628E-001	9.10199E-005	0.00000E+000	4.19263E-005	5.39641E-002	4.60674E-001	3.57220E+000	9	...........
	13	0.186667	4.70609E-001	9.11554E-005	0.00000E+000	4.28985E-005	5.39641E-002	4.70656E-001	3.57220E+000	9	...........
	14	0.2	4.80257E-001	9.09387E-005	0.00000E+000	4.36740E-005	5.39641E-002	4.80305E-001	3.57220E+000	9	...........
	15	0.213333	4.89577E-001	9.13617E-005	0.00000E+000	4.47286E-005	5.39641E-002	4.89635E-001	3.57220E+000	9	...........
	16	0.226667	4.98597E-001	9.11002E-005	0.00000E+000	4.54222E-005	5.39641E-002	4.98651E-001	3.57220E+000	9	...........
	17	0.24	5.07356E-001	9.09793E-005	0.00000E+000	4.61589E-005	5.39641E-002	5.07407E-001	3.57220E+000	9	...........
	18	0.253333	5.15855E-001	9.11845E-005	0.00000E+000	4.70380E-005	5.39641E-002	5.15910E-001	3.57220E+000	9	...........
	19	0.266667	5.24128E-001	9.11095E-005	0.00000E+000	4.77530E-005	5.39641E-002	5.24184E-001	3.57220E+000	9	...........
	20	0.28	5.32137E-001	9.10470E-005	0.00000E+000	4.84495E-005	5.39641E-002	5.32186E-001	3.57220E+000	9	...........
	21	0.293333	5.39920E-001	9.13825E-005	0.00000E+000	4.93392E-005	5.39641E-002	5.40006E-001	3.57220E+000	9	...........
	22	0.306667	5.47500E-001	9.13846E-005	0.00000E+000	5.00331E-005	5.39641E-002	5.47579E-001	3.57220E+000	9	...........
	23	0.32	5.54906E-001	9.13190E-005	0.00000E+000	5.06735E-005	5.39641E-002	5.54992E-001	3.57220E+000	9	...........
	24	0.333333	5.62139E-001	9.11043E-005	0.00000E+000	5.12133E-005	5.39641E-002	5.62239E-001	3.57220E+000	9	...........
	25	0.346667	5.69216E-001	9.11022E-005	0.00000E+000	5.18568E-005	5.39641E-002	5.69293E-001	3.57220E+000	9	...........
	26	0.36	5.76082E-001	9.13752E-005	0.00000E+000	5.26396E-005	5.39641E-002	5.76168E-001	3.57220E+000	9	...........
	27	0.373333	5.82782E-001	9.08366E-005	0.00000E+000	5.29379E-005	5.39641E-002	5.82882E-001	3.57220E+000	9	...........
	28	0.386667	5.89378E-001	9.08647E-005	0.00000E+000	5.35536E-005	5.39641E-002	5.89448E-001	3.57220E+000	9	...........
	29	0.4	5.95775E-001	9.09626E-005	0.00000E+000	5.41933E-005	5.39641E-002	5.95868E-001	3.57220E+000	9	...........
	30	0.413333	6.02046E-001	9.12898E-005	0.00000E+000	5.49607E-005	5.39641E-002	6.02156E-001	3.57220E+000	9	...........
	31	0.426667	6.08182E-001	9.10470E-005	0.00000E+000	5.53732E-005	5.39641E-002	6.08281E-001	3.57220E+000	9	...........
	32	0.44	6.14258E-001	9.12919E-005	0.00000E+000	5.60768E-005	5.39641E-002	6.14334E-001	3.57220E+000	9	...........
	33	0.453333	6.20166E-001	9.10345E-005	0.00000E+000	5.64565E-005	5.39641E-002	6.20214E-001	3.57220E+000	9	...........
	34	0.466667	6.25906E-001	9.12419E-005	0.00000E+000	5.71089E-005	5.39641E-002	6.25983E-001	3.57190E+000	9	...........
	35	0.48	6.31529E-001	9.14283E-005	0.00000E+000	5.77396E-005	5.39641E-002	6.31626E-001	3.57180E+000	9	...........
	36	0.493333	6.37059E-001	9.12168E-005	0.00000E+000	5.81105E-005	5.39641E-002	6.37161E-001	3.57180E+000	9	...........
	37	0.506667	6.42528E-001	9.13940E-005	0.00000E+000	5.87231E-005	5.39641E-002	6.42586E-001	3.57180E+000	9	...........
	38	0.52	6.47830E-001	9.12012E-005	0.00000E+000	5.90828E-005	5.39641E-002	6.47908E-001	3.57180E+000	9	...........
	39	0.533333	6.53063E-001	9.12804E-005	0.00000E+000	5.96118E-005	5.39641E-002	6.53136E-001	3.57180E+000	9	...........
	40	0.546667	6.58162E-001	9.10668E-005	0.00000E+000	5.99367E-005	5.39641E-002	6.58248E-001	3.57180E+000	9	...........
	41	0.56	6.63182E-001	9.11731E-005	0.00000E+000	6.04643E-005	5.39641E-002	6.63273E-001	3.57180E+000	9	...........
	42	0.573333	6.68168E-001	9.10731E-005	0.00000E+000	6.08521E-005	5.39641E-002	6.68253E-001	3.57180E+000	9	...........
	43	0.586667	6.73018E-001	9.11481E-005	0.00000E+000	6.13443E-005	5.39641E-002	6.73078E-001	3.57180E+000	9	...........
	44	0.6	6.77757E-001	9.11637E-005	0.00000E+000	6.17868E-005	5.39641E-002	6.77842E-001	3.57180E+000	9	...........
	45	0.613333	6.82416E-001	9.11898E-005	0.00000E+000	6.22294E-005	5.39641E-002	6.82505E-001	3.57180E+000	9	...........
	46	0.626667	6.87005E-001	9.11804E-005	0.00000E+000	6.26414E-005	5.39641E-002	6.87107E-001	3.57180E+000	9	...........
	47	0.64	6.91547E-001	9.11345E-005	0.00000E+000	6.30238E-005	5.39641E-002	6.91670E-001	3.57180E+000	9	...........
	48	0.653333	6.95986E-001	9.11773E-005	0.00000E+000	6.34581E-005	5.39641E-002	6.96104E-001	3.57180E+000	9	...........
	49	0.666667	7.00330E-001	9.11720E-005	0.00000E+000	6.38505E-005	5.39641E-002	7.00457E-001	3.57180E+000	9	...........
	50	0.68	7.04644E-001	9.11335E-005	0.00000E+000	6.42167E-005	5.39641E-002	7.04756E-001	3.57180E+000	9	...........
	51	0.693333	7.08862E-001	9.13554E-005	0.00000E+000	6.47584E-005	5.39641E-002	7.08975E-001	3.57180E+000	9	...........
	52	0.706667	7.13036E-001	9.12273E-005	0.00000E+000	6.50483E-005	5.39641E-002	7.13141E-001	3.57180E+000	9	...........
	53	0.72	7.17156E-001	9.14138E-005	0.00000E+000	6.55580E-005	5.39641E-002	7.17258E-001	3.57180E+000	9	...........
	54	0.733333	7.21209E-001	9.11835E-005	0.00000E+000	6.57624E-005	5.39641E-002	7.21275E-001	3.57180E+000	9	...........
	55	0.746667	7.25151E-001	9.10616E-005	0.00000E+000	6.60334E-005	5.39641E-002	7.25221E-001	3.57180E+000	9	...........
	56	0.76	7.29071E-001	9.12398E-005	0.00000E+000	6.65203E-005	5.39641E-002	7.29129E-001	3.57180E+000	9	...........
	57	0.773333	7.32892E-001	9.12439E-005	0.00000E+000	6.68720E-005	5.39641E-002	7.32979E-001	3.57180E+000	9	...........
	58	0.786667	7.36684E-001	9.11554E-005	0.00000E+000	6.71527E-005	5.39641E-002	7.36756E-001	3.57180E+000	9	...........
	59	0.8	7.40439E-001	9.12283E-005	0.00000E+000	6.75490E-005	5.39641E-002	7.40515E-001	3.57180E+000	9	...........
	60	0.813333	7.44166E-001	9.13169E-005	0.00000E+000	6.79550E-005	5.39641E-002	7.44241E-001	3.57180E+000	9	...........
	61	0.826667	7.47774E-001	9.10804E-005	0.00000E+000	6.81075E-005	5.39641E-002	7.47854E-001	3.57180E+000	9	...........
	62	0.84	7.51329E-001	9.13335E-005	0.00000E+000	6.86215E-005	5.39641E-002	7.51397E-001	3.57180E+000	9	...........
	63	0.853333	7.54844E-001	9.10178E-005	0.00000E+000	6.87043E-005	5.39641E-002	7.54934E-001	3.57180E+000	9	...........
	64	0.866667	7.58284E-001	9.14544E-005	0.00000E+000	6.93484E-005	5.39641E-002	7.58389E-001	3.57180E+000	9	...........
	65	0.88	7.61735E-001	9.09897E-005	0.00000E+000	6.93101E-005	5.39641E-002	7.61835E-001	3.57180E+000	9	...........
	66	0.893333	7.65107E-001	9.12168E-005	0.00000E+000	6.97906E-005	5.39641E-002	7.65240E-001	3.57180E+000	9	...........
	67	0.906667	7.68463E-001	9.12460E-005	0.00000E+000	7.01192E-005	5.39641E-002	7.68596E-001	3.57180E+000	9	...........
	68	0.92	7.71775E-001	9.12731E-005	0.00000E+000	7.04423E-005	5.39641E-002	7.71889E-001	3.57180E+000	9	...........
	69	0.933333	7.75018E-001	9.09001E-005	0.00000E+000	7.04492E-005	5.39641E-002	7.75121E-001	3.57180E+000	9	...........
	70	0.946667	7.78230E-001	9.14679E-005	0.00000E+000	7.11831E-005	5.39641E-002	7.78340E-001	3.57180E+000	9	...........
	71	0.96	7.81414E-001	9.07636E-005	0.00000E+000	7.09240E-005	5.39641E-002	7.81514E-001	3.57180E+000	9	...........
	72	0.97333	7.84545E-001	9.12856E-005	0.00000E+000	7.16177E-005	5.39641E-002	7.84630E-001	3.57180E+000	9	...........
	73	0.98667	7.87621E-001	9.13825E-005	0.00000E+000	7.19748E-005	5.39641E-002	7.87692E-001	3.57180E+000	9	...........
	74	1	7.90672E-001	9.11095E-005	0.00000E+000	7.20378E-005	5.39641E-002	7.90760E-001	3.57180E+000	9	...........
	75	1.01333	7.93722E-001	9.10606E-005	0.00000E+000	7.22768E-005	5.39641E-002	7.93827E-001	3.57180E+000	9	...........
	76	1.02667	7.96698E-001	9.10543E-005	0.00000E+000	7.25428E-005	5.39641E-002	7.96800E-001	3.57180E+000	9	...........
	77	1.04	7.99662E-001	9.11325E-005	0.00000E+000	7.28752E-005	5.39641E-002	7.99756E-001	3.57180E+000	9	...........
	78	1.05333	8.02584E-001	9.12867E-005	0.00000E+000	7.32652E-005	5.39641E-002	8.02681E-001	3.57180E+000	9	...........
	79	1.06667	8.05435E-001	9.12648E-005	0.00000E+000	7.35079E-005	5.39641E-002	8.05566E-001	3.57180E+000	9	...........
	80	1.08	8.08291E-001	9.12096E-005	0.00000E+000	7.37239E-005	5.39641E-002	8.08418E-001	3.57180E+000	9	...........
	81	1.09333	8.11077E-001	9.12189E-005	0.00000E+000	7.39856E-005	5.39641E-002	8.11225E-001	3.57180E+000	9	...........
	82	1.10667	8.13893E-001	9.10481E-005	0.00000E+000	7.41034E-005	5.39641E-002	8.14005E-001	3.57180E+000	9	...........
	83	1.12	8.16649E-001	9.09543E-005	0.00000E+000	7.42778E-005	5.39641E-002	8.16787E-001	3.57180E+000	9	...........
	84	1.13333	8.19402E-001	9.14492E-005	0.00000E+000	7.49336E-005	5.39641E-002	8.19506E-001	3.57180E+000	9	...........
	85	1.14667	8.22080E-001	9.11054E-005	0.00000E+000	7.48959E-005	5.39641E-002	8.22187E-001	3.57180E+000	9	...........
	86	1.16	8.24751E-001	9.13231E-005	0.00000E+000	7.53189E-005	5.39641E-002	8.24878E-001	3.57180E+000	9	...........
	87	1.17333	8.27375E-001	9.12356E-005	0.00000E+000	7.54860E-005	5.39641E-002	8.27488E-001	3.57180E+000	9	...........
	88	1.18667	8.29983E-001	9.10793E-005	0.00000E+000	7.55943E-005	5.39641E-002	8.30128E-001	3.57180E+000	9	...........
	89	1.2	8.32572E-001	9.11335E-005	0.00000E+000	7.58752E-005	5.39641E-002	8.32705E-001	3.57180E+000	9	...........
	90	1.21333	8.35083E-001	9.11908E-005	0.00000E+000	7.61518E-005	5.39641E-002	8.35253E-001	3.57180E+000	9	...........
	91	1.22667	8.37617E-001	9.09428E-005	0.00000E+000	7.61753E-005	5.39641E-002	8.37770E-001	3.57180E+000	9	...........
	92	1.24	8.40091E-001	9.12346E-005	0.00000E+000	7.66453E-005	5.39641E-002	8.40230E-001	3.57180E+000	9	...........
	93	1.25333	8.42575E-001	9.10439E-005	0.00000E+000	7.67113E-005	5.39641E-002	8.42726E-001	3.57180E+000	9	...........
	94	1.26667	8.45036E-001	9.10585E-005	0.00000E+000	7.69477E-005	5.39641E-002	8.45190E-001	3.57180E+000	9	...........
	95	1.28	8.47448E-001	9.12554E-005	0.00000E+000	7.73342E-005	5.39641E-002	8.47586E-001	3.57180E+000	9	...........
	96	1.29333	8.49803E-001	9.09241E-005	0.00000E+000	7.72676E-005	5.39641E-002	8.49944E-001	3.57180E+000	9	...........
	97	1.30667	8.52165E-001	9.12137E-005	0.00000E+000	7.77291E-005	5.39641E-002	8.52302E-001	3.57180E+000	9	...........
	98	1.32	8.54504E-001	9.11512E-005	0.00000E+000	7.78890E-005	5.39641E-002	8.54649E-001	3.57180E+000	9	...........
	99	1.33333	8.56818E-001	9.14086E-005	0.00000E+000	7.83205E-005	5.39641E-002	8.56987E-001	3.57180E+000	9	...........
	100	1.34667	8.59128E-001	9.09803E-005	0.00000E+000	7.81637E-005	5.39641E-002	8.59294E-001	3.57180E+000	9	...........
	101	1.36	8.61415E-001	9.15857E-005	0.00000E+000	7.88933E-005	5.39641E-002	8.61591E-001	3.57180E+000	9	...........
	102	1.37333	8.63649E-001	9.13231E-005	0.00000E+000	7.88712E-005	5.39641E-002	8.63811E-001	3.57180E+000	9	...........
	103	1.38667	8.65851E-001	9.10981E-005	0.00000E+000	7.88774E-005	5.39641E-002	8.66061E-001	3.57180E+000	9	...........
	104	1.4	8.68101E-001	9.14846E-005	0.00000E+000	7.94179E-005	5.39641E-002	8.68283E-001	3.57180E+000	9	...........
	105	1.41333	8.70291E-001	9.14804E-005	0.00000E+000	7.96146E-005	5.39641E-002	8.70454E-001	3.57180E+000	9	...........
	106	1.42667	8.72436E-001	9.11012E-005	0.00000E+000	7.94800E-005	5.39641E-002	8.72594E-001	3.57180E+000	9	...........
	107	1.44	8.74560E-001	9.13637E-005	0.00000E+000	7.99030E-005	5.39641E-002	8.74739E-001	3.57180E+000	9	...........
	108	1.45333	8.76680E-001	9.12168E-005	0.00000E+000	7.99680E-005	5.39641E-002	8.76822E-001	3.57180E+000	9	...........
	109	1.46667	8.78778E-001	9.10345E-005	0.00000E+000	7.99991E-005	5.39641E-002	8.78896E-001	3.57142E+000	9	...........
	110	1.48	8.80830E-001	9.12304E-005	0.00000E+000	8.03584E-005	5.39641E-002	8.80987E-001	3.57130E+000	9	...........
	111	1.49333	8.82901E-001	9.11877E-005	0.00000E+000	8.05097E-005	5.39641E-002	8.83069E-001	3.57130E+000	9	...........
	112	1.50667	8.84962E-001	9.12585E-005	0.00000E+000	8.07603E-005	5.39641E-002	8.85108E-001	3.57130E+000	9	...........
	113	1.52	8.86994E-001	9.11710E-005	0.00000E+000	8.08682E-005	5.39641E-002	8.87147E-001	3.57130E+000	9	...........
	114	1.53333	8.88989E-001	9.10929E-005	0.00000E+000	8.09805E-005	5.39641E-002	8.89128E-001	3.57130E+000	9	...........
	115	1.54667	8.90959E-001	9.13252E-005	0.00000E+000	8.13670E-005	5.39641E-002	8.91108E-001	3.57130E+000	9	...........
	116	1.56	8.92923E-001	9.11168E-005	0.00000E+000	8.13603E-005	5.39641E-002	8.93079E-001	3.57130E+000	9	...........
	117	1.57333	8.94848E-001	9.12523E-005	0.00000E+000	8.16570E-005	5.39641E-002	8.95018E-001	3.57130E+000	9	...........
	118	1.58667	8.96790E-001	9.11991E-005	0.00000E+000	8.17865E-005	5.39641E-002	8.96947E-001	3.57130E+000	9	...........
	119	1.6	8.98684E-001	9.12887E-005	0.00000E+000	8.20397E-005	5.39641E-002	8.98845E-001	3.57130E+000	9	...........
	120	1.61333	9.00597E-001	9.11918E-005	0.00000E+000	8.21271E-005	5.39641E-002	9.00750E-001	3.57130E+000	9	...........
	121	1.62667	9.02452E-001	9.13377E-005	0.00000E+000	8.24279E-005	5.39641E-002	9.02623E-001	3.57130E+000	9	...........
	122	1.64	9.04309E-001	9.08845E-005	0.00000E+000	8.21877E-005	5.39641E-002	9.04500E-001	3.57130E+000	9	...........
	123	1.65333	9.06160E-001	9.09407E-005	0.00000E+000	8.24069E-005	5.39641E-002	9.06327E-001	3.57130E+000	9	...........
	124	1.66667	9.07966E-001	9.12544E-005	0.00000E+000	8.28558E-005	5.39641E-002	9.08155E-001	3.57130E+000	9	...........
	125	1.68	9.09790E-001	9.11543E-005	0.00000E+000	8.29313E-005	5.39641E-002	9.09938E-001	3.57130E+000	9	...........
	126	1.69333	9.11561E-001	9.11793E-005	0.00000E+000	8.31155E-005	5.39641E-002	9.11743E-001	3.57130E+000	9	...........
	127	1.70667	9.13338E-001	9.11710E-005	0.00000E+000	8.32699E-005	5.39641E-002	9.13528E-001	3.57130E+000	9	...........
	128	1.72	9.15101E-001	9.11283E-005	0.00000E+000	8.33916E-005	5.39641E-002	9.15303E-001	3.57130E+000	9	...........
	129	1.73333	9.16839E-001	9.13460E-005	0.00000E+000	8.37496E-005	5.39641E-002	9.17052E-001	3.57130E+000	9	...........
	130	1.74667	9.18563E-001	9.11700E-005	0.00000E+000	8.37454E-005	5.39641E-002	9.18765E-001	3.57130E+000	9	...........
	131	1.76	9.20282E-001	9.10772E-005	0.00000E+000	8.38167E-005	5.39641E-002	9.20475E-001	3.57130E+000	9	...........
	132	1.77333	9.22030E-001	9.12689E-005	0.00000E+000	8.41527E-005	5.39641E-002	9.22169E-001	3.57130E+000	9	...........
	133	1.78667	9.23738E-001	9.13273E-005	0.00000E+000	8.43625E-005	5.39641E-002	9.23854E-001	3.57130E+000	9	...........
	134	1.8	9.25383E-001	9.08782E-005	0.00000E+000	8.40972E-005	5.39641E-002	9.25517E-001	3.57130E+000	9	...........
	135	1.81333	9.27019E-001	9.13575E-005	0.00000E+000	8.46901E-005	5.39641E-002	9.27164E-001	3.57130E+000	9	...........
	136	1.82667	9.28655E-001	9.12054E-005	0.00000E+000	8.46983E-005	5.39641E-002	9.28789E-001	3.57130E+000	9	...........
	137	1.84	9.30288E-001	9.11252E-005	0.00000E+000	8.47726E-005	5.39641E-002	9.30412E-001	3.57130E+000	9	...........
	138	1.85333	9.31885E-001	9.11283E-005	0.00000E+000	8.49210E-005	5.39641E-002	9.32000E-001	3.57130E+000	9	...........
	139	1.86667	9.33469E-001	9.13908E-005	0.00000E+000	8.53105E-005	5.39641E-002	9.33580E-001	3.57130E+000	9	...........
	140	1.88	9.35030E-001	9.14096E-005	0.00000E+000	8.54707E-005	5.39641E-002	9.35179E-001	3.57130E+000	9	...........
	141	1.89333	9.36595E-001	9.09824E-005	0.00000E+000	8.52137E-005	5.39641E-002	9.36729E-001	3.57130E+000	9	...........
	142	1.90667	9.38123E-001	9.13481E-005	0.00000E+000	8.56958E-005	5.39641E-002	9.38259E-001	3.57130E+000	9	...........
	143	1.92	9.39625E-001	9.14419E-005	0.00000E+000	8.59211E-005	5.39641E-002	9.39784E-001	3.57130E+000	9	...........
	144	1.93333	9.41132E-001	9.09491E-005	0.00000E+000	8.55951E-005	5.39641E-002	9.41268E-001	3.57130E+000	9	...........
	145	1.94667	9.42626E-001	9.12637E-005	0.00000E+000	8.60276E-005	5.39641E-002	9.42761E-001	3.57130E+000	9	...........
	146	1.96	9.44088E-001	9.11554E-005	0.00000E+000	8.60587E-005	5.39641E-002	9.44230E-001	3.57130E+000	9	...........
	147	1.97333	9.45533E-001	9.13565E-005	0.00000E+000	8.63806E-005	5.39641E-002	9.45666E-001	3.57130E+000	9	...........
	148	1.98667	9.47051E-001	9.12939E-005	0.00000E+000	8.64601E-005	5.39641E-002	9.47141E-001	3.57130E+000	9	...........
	149	2	9.48520E-001	9.09960E-005	0.00000E+000	8.63114E-005	5.39641E-002	9.48575E-001	3.57130E+000	9	...........
	150	2.01333	9.49961E-001	9.12721E-005	0.00000E+000	8.67049E-005	5.39641E-002	9.50034E-001	3.57130E+000	9	...........
	151	2.02667	9.51369E-001	9.12387E-005	0.00000E+000	8.68017E-005	5.39641E-002	9.51465E-001	3.57130E+000	9	...........
	152	2.04	9.52786E-001	9.11648E-005	0.00000E+000	8.68605E-005	5.39641E-002	9.52880E-001	3.57130E+000	9	...........
	153	2.05333	9.54187E-001	9.11970E-005	0.00000E+000	8.70190E-005	5.39641E-002	9.54268E-001	3.57130E+000	9	...........
	154	2.06667	9.55550E-001	9.09376E-005	0.00000E+000	8.68954E-005	5.39641E-002	9.55636E-001	3.57130E+000	9	...........
	155	2.08	9.56916E-001	9.09824E-005	0.00000E+000	8.70626E-005	5.39641E-002	9.57018E-001	3.57130E+000	9	...........
	156	2.09333	9.58267E-001	9.13481E-005	0.00000E+000	8.75359E-005	5.39641E-002	9.58390E-001	3.57130E+000	9	...........
	157	2.10667	9.59587E-001	9.10366E-005	0.00000E+000	8.73576E-005	5.39641E-002	9.59761E-001	3.57130E+000	9	...........
	158	2.12	9.60904E-001	9.15430E-005	0.00000E+000	8.79640E-005	5.39641E-002	9.61084E-001	3.57130E+000	9	...........
	159	2.13333	9.62233E-001	9.11220E-005	0.00000E+000	8.76807E-005	5.39641E-002	9.62410E-001	3.57130E+000	9	...........
	160	2.14667	9.63531E-001	9.10397E-005	0.00000E+000	8.77196E-005	5.39641E-002	9.63718E-001	3.57130E+000	9	...........
	161	2.16	9.64831E-001	9.09908E-005	0.00000E+000	8.77907E-005	5.39641E-002	9.65020E-001	3.57130E+000	9	...........
	162	2.17333	9.66130E-001	9.11314E-005	0.00000E+000	8.80448E-005	5.39641E-002	9.66314E-001	3.57130E+000	9	...........
	163	2.18667	9.67416E-001	9.10501E-005	0.00000E+000	8.80834E-005	5.39641E-002	9.67599E-001	3.57130E+000	9	...........
	164	2.2	9.68678E-001	9.12137E-005	0.00000E+000	8.83567E-005	5.39641E-002	9.68853E-001	3.57130E+000	9	...........
	165	2.21333	9.69941E-001	9.10835E-005	0.00000E+000	8.83456E-005	5.39641E-002	9.70103E-001	3.57130E+000	9	...........
	166	2.22667	9.71184E-001	9.09835E-005	0.00000E+000	8.83617E-005	5.39641E-002	9.71376E-001	3.57130E+000	9	...........
	167	2.24	9.72460E-001	9.14419E-005	0.00000E+000	8.89235E-005	5.39641E-002	9.72621E-001	3.57130E+000	9	...........
	168	2.25333	9.73736E-001	9.12377E-005	0.00000E+000	8.88415E-005	5.39641E-002	9.73854E-001	3.57130E+000	9	...........
	169	2.26667	9.74947E-001	9.09793E-005	0.00000E+000	8.87000E-005	5.39641E-002	9.75058E-001	3.57130E+000	9	...........
	170	2.28	9.76168E-001	9.13158E-005	0.00000E+000	8.91396E-005	5.39641E-002	9.76270E-001	3.57130E+000	9	...........
	171	2.29333	9.77361E-001	9.14138E-005	0.00000E+000	8.93443E-005	5.39641E-002	9.77486E-001	3.57130E+000	9	...........
	172	2.30667	9.78533E-001	9.12116E-005	0.00000E+000	8.92536E-005	5.39641E-002	9.78683E-001	3.57130E+000	9	...........
	173	2.32	9.79724E-001	9.15502E-005	0.00000E+000	8.96939E-005	5.39641E-002	9.79868E-001	3.57130E+000	9	...........
	174	2.33333	9.80908E-001	9.11720E-005	0.00000E+000	8.94314E-005	5.39641E-002	9.81037E-001	3.57130E+000	9	...........
	175	2.34667	9.82058E-001	9.10658E-005	0.00000E+000	8.94319E-005	5.39641E-002	9.82171E-001	3.57130E+000	9	...........
	176	2.36	9.83201E-001	9.11679E-005	0.00000E+000	8.96363E-005	5.39641E-002	9.83307E-001	3.57130E+000	9	...........
	177	2.37333	9.84283E-001	9.12085E-005	0.00000E+000	8.97750E-005	5.39641E-002	9.84430E-001	3.57130E+000	9	...........
	178	2.38667	9.85441E-001	9.13440E-005	0.00000E+000	9.00140E-005	5.39641E-002	9.85554E-001	3.57130E+000	9	...........
	179	2.4	9.86560E-001	9.14461E-005	0.00000E+000	9.02170E-005	5.39641E-002	9.86676E-001	3.57130E+000	9	...........
	180	2.41333	9.87668E-001	9.12481E-005	0.00000E+000	9.01228E-005	5.39641E-002	9.87795E-001	3.57130E+000	9	...........
	181	2.42667	9.88762E-001	9.11720E-005	0.00000E+000	9.01474E-005	5.39641E-002	9.88871E-001	3.57130E+000	9	...........
	182	2.44	9.89840E-001	9.11668E-005	0.00000E+000	9.02406E-005	5.39641E-002	9.89971E-001	3.57130E+000	9	...........
	183	2.45333	9.90904E-001	9.12398E-005	0.00000E+000	9.04098E-005	5.39641E-002	9.91040E-001	3.57130E+000	9	...........
	184	2.46667	9.91946E-001	9.09251E-005	0.00000E+000	9.01928E-005	5.39641E-002	9.92120E-001	3.57122E+000	9	...........
	185	2.48	9.93011E-001	9.12971E-005	0.00000E+000	9.06590E-005	5.39641E-002	9.93196E-001	3.57120E+000	9	...........
	186	2.49333	9.94084E-001	9.10876E-005	0.00000E+000	9.05488E-005	5.39641E-002	9.94250E-001	3.57120E+000	9	...........
	187	2.50667	9.95169E-001	9.10501E-005	0.00000E+000	9.06103E-005	5.39641E-002	9.95314E-001	3.57120E+000	9	...........
	188	2.52	9.96196E-001	9.11585E-005	0.00000E+000	9.08117E-005	5.39641E-002	9.96332E-001	3.57120E+000	9	...........
	189	2.53333	9.97214E-001	9.11366E-005	0.00000E+000	9.08827E-005	5.39641E-002	9.97416E-001	3.57120E+000	9	...........
	190	2.54667	9.98257E-001	9.11585E-005	0.00000E+000	9.09996E-005	5.39641E-002	9.98440E-001	3.57120E+000	9	...........
	191	2.56	9.99258E-001	9.12908E-005	0.00000E+000	9.12231E-005	5.39641E-002	9.99432E-001	3.57120E+000	9	...........
	192	2.565	9.99943E-001	9.13377E-005	0.00000E+000	9.13325E-005	5.39641E-002	1.00012E+000	3.57120E+000	9	...........
STARTTIMEOFFSET	QUANT	309.8066	Start Time Offset (s)
