EXPLAIN
TAG	PWR800_CHARGE
TITLE	LABEL	PWR Cyclic Charge Discharge (Cell) - Charge Step	Test &Identifier
DATE	LABEL	10-7-2017	Date
TIME	LABEL	15:06:12	Time
NOTES	NOTES	3	&Notes...
	supercap test cell
	0.9mg
	6M KOH
PSTAT	PSTAT	IFC5000-01520	Potentiostat
CAPACITY	QUANT	1.00000E-003	Capacity (A-hr)
CELLTYPE	SELECTOR	1	&Cell Type
WORKINGCONNECTION	SELECTOR	0	&Working Lead
MAXCHARGETIME	VARIABLEANDUNITS	1.00000E+002	s	1.00000E+002	second(s)	Max &Charge Time
CHARGECURRENT	QUANT	9.00000E-005	&Charge Current (A) 
VOLTAGEFINISH	TWOPARAM	F	1.00000E-003	3.60000E+003	&Voltage Finish	 I (A) < 	Max Time(s)
SAMPLETIME	QUANT	1.00000E-002	Sa&mple Period (s)
CHARGESTOPAT1	MULTIPARAM	4	1.00000E+000	Charge Stop At &1	Voltage > Limit	V
CHARGESTOPAT2	MULTIPARAM	0	0.00000E+000	Charge Stop At &2	None	N/A
AESBHCSELECTOR	TOGGLE	F	Save Both Half Cells
IRCOMP	TOGGLE	F	IR &Measure
EOC	QUANT	0	Open Circuit (V)
SEQUENCER	TOGGLE	TRUE	Run as Sequence
PSTATMODEL	IQUANT	53	Pstat Model
PSTATSECTION	LABEL	IFC5000-01520	Pstat Section
PSTATSERIALNO	LABEL	01520	Pstat Serial Number
CTRLMODE	IQUANT	0	Control Mode
ELECTROMETER	IQUANT	1	RE=0 or CS=1
IESTAB	IQUANT	0	I/E Stability
CASPEED	IQUANT	4	Control Amp Speed
CONVENTION	IQUANT	1	Current Convention
ICHRANGE	IQUANT	2	Ich Range
ICHRANGEMODE	TOGGLE	T	Ich Auto Range
ICHOFFSETENABLE	TOGGLE	F	Ich Offset Enable
ICHOFFSET	QUANT	0	Ich Offset (V)
ICHFILTER	IQUANT	1	Ich Filter
VCHRANGE	IQUANT	2	Vch Range
VCHRANGEMODE	TOGGLE	T	Vch Auto Range
VCHOFFSETENABLE	TOGGLE	F	Vch Offset Enable
VCHOFFSET	QUANT	0	Vch Offset (V)
VCHFILTER	IQUANT	1	Vch Filter
IERANGELOWERLIMIT	IQUANT	9	I/E Range Lower Limit
IERANGEMODE	TOGGLE	F	I/E AutoRange
IERANGE	IQUANT	9	I/E Range
ACHSELECT	IQUANT	1	Ach Select
ACHRANGE	IQUANT	2	Ach Range
ACHOFFSETENABLE	TOGGLE	F	Ach Offset Enable
ACHOFFSET	QUANT	0	Ach Offset (V)
ACHFILTER	IQUANT	1	Ach Filter
CABLEID	IQUANT	14	Cable ID
DCCALDATE	LABEL	5-7-2017	DC Calibration Date
ACCALDATE	LABEL	12/3/2015	AC Calibration Date
FRAMEWORKVERSION	QUANT	7.01	Framework Version
INSTRUMENTVERSION	LABEL	4.00	Instrument Version
CURVE	TABLE	191
	Pt	T	Vf	Im	Vu	Pwr	Sig	Ach	Temp	IERange	Over
	#	s	V	A	V	W	V	V	deg C	#	bits
	0	0.013333	2.98562E-001	9.11731E-005	0.00000E+000	2.72208E-005	5.39641E-002	2.98609E-001	3.57150E+000	9	...........
	1	0.026667	3.17229E-001	9.11210E-005	0.00000E+000	2.89062E-005	5.39641E-002	3.17259E-001	3.57150E+000	9	...........
	2	0.04	3.34398E-001	9.12106E-005	0.00000E+000	3.05006E-005	5.39641E-002	3.34433E-001	3.57150E+000	9	...........
	3	0.053333	3.50378E-001	9.12158E-005	0.00000E+000	3.19600E-005	5.39641E-002	3.50413E-001	3.57150E+000	9	...........
	4	0.066667	3.65347E-001	9.09053E-005	0.00000E+000	3.32120E-005	5.39641E-002	3.65380E-001	3.57150E+000	9	...........
	5	0.08	3.79466E-001	9.10064E-005	0.00000E+000	3.45339E-005	5.39641E-002	3.79499E-001	3.57150E+000	9	...........
	6	0.093333	3.92849E-001	9.10804E-005	0.00000E+000	3.57809E-005	5.39641E-002	3.92879E-001	3.57150E+000	9	...........
	7	0.106667	4.05547E-001	9.11147E-005	0.00000E+000	3.69513E-005	5.39641E-002	4.05580E-001	3.57150E+000	9	...........
	8	0.12	4.17664E-001	9.13023E-005	0.00000E+000	3.81337E-005	5.39641E-002	4.17708E-001	3.57150E+000	9	...........
	9	0.133333	4.29280E-001	9.09126E-005	0.00000E+000	3.90269E-005	5.39641E-002	4.29321E-001	3.57150E+000	9	...........
	10	0.146667	4.40417E-001	9.10939E-005	0.00000E+000	4.01193E-005	5.39641E-002	4.40465E-001	3.57150E+000	9	...........
	11	0.16	4.51130E-001	9.11231E-005	0.00000E+000	4.11084E-005	5.39641E-002	4.51179E-001	3.57150E+000	9	...........
	12	0.173333	4.61459E-001	9.09064E-005	0.00000E+000	4.19496E-005	5.39641E-002	4.61504E-001	3.57150E+000	9	...........
	13	0.186667	4.71419E-001	9.13262E-005	0.00000E+000	4.30529E-005	5.39641E-002	4.71465E-001	3.57150E+000	9	...........
	14	0.2	4.81034E-001	9.11418E-005	0.00000E+000	4.38423E-005	5.39641E-002	4.81086E-001	3.57150E+000	9	...........
	15	0.213333	4.90334E-001	9.08928E-005	0.00000E+000	4.45678E-005	5.39641E-002	4.90385E-001	3.57150E+000	9	...........
	16	0.226667	4.99334E-001	9.12908E-005	0.00000E+000	4.55846E-005	5.39641E-002	4.99388E-001	3.57150E+000	9	...........
	17	0.24	5.08053E-001	9.12533E-005	0.00000E+000	4.63615E-005	5.39641E-002	5.08110E-001	3.57150E+000	9	...........
	18	0.253333	5.16540E-001	9.12377E-005	0.00000E+000	4.71279E-005	5.39641E-002	5.16597E-001	3.57150E+000	9	...........
	19	0.266667	5.24779E-001	9.11408E-005	0.00000E+000	4.78288E-005	5.39641E-002	5.24836E-001	3.57150E+000	9	...........
	20	0.28	5.32757E-001	9.12075E-005	0.00000E+000	4.85915E-005	5.39641E-002	5.32833E-001	3.57150E+000	9	...........
	21	0.293333	5.40557E-001	9.10772E-005	0.00000E+000	4.92325E-005	5.39641E-002	5.40649E-001	3.57150E+000	9	...........
	22	0.306667	5.48130E-001	9.09658E-005	0.00000E+000	4.98611E-005	5.39641E-002	5.48215E-001	3.57150E+000	9	...........
	23	0.32	5.55523E-001	9.08772E-005	0.00000E+000	5.04844E-005	5.39641E-002	5.55600E-001	3.57150E+000	9	...........
	24	0.333333	5.62748E-001	9.11064E-005	0.00000E+000	5.12700E-005	5.39641E-002	5.62828E-001	3.57150E+000	9	...........
	25	0.346667	5.69811E-001	9.10106E-005	0.00000E+000	5.18588E-005	5.39641E-002	5.69887E-001	3.57150E+000	9	...........
	26	0.36	5.76687E-001	9.10762E-005	0.00000E+000	5.25225E-005	5.39641E-002	5.76757E-001	3.57150E+000	9	...........
	27	0.373333	5.83381E-001	9.12856E-005	0.00000E+000	5.32543E-005	5.39641E-002	5.83476E-001	3.57150E+000	9	...........
	28	0.386667	5.89972E-001	9.11595E-005	0.00000E+000	5.37816E-005	5.39641E-002	5.90066E-001	3.57150E+000	9	...........
	29	0.4	5.96369E-001	9.10783E-005	0.00000E+000	5.43163E-005	5.39641E-002	5.96462E-001	3.57150E+000	9	...........
	30	0.413333	6.02630E-001	9.11616E-005	0.00000E+000	5.49368E-005	5.39641E-002	6.02741E-001	3.57150E+000	9	...........
	31	0.426667	6.08744E-001	9.08657E-005	0.00000E+000	5.53140E-005	5.39641E-002	6.08851E-001	3.57150E+000	9	...........
	32	0.44	6.14772E-001	9.13648E-005	0.00000E+000	5.61686E-005	5.39641E-002	6.14896E-001	3.57150E+000	9	...........
	33	0.453333	6.20678E-001	9.13065E-005	0.00000E+000	5.66719E-005	5.39641E-002	6.20754E-001	3.57150E+000	9	...........
	34	0.466667	6.26428E-001	9.14054E-005	0.00000E+000	5.72589E-005	5.39641E-002	6.26528E-001	3.57150E+000	9	...........
	35	0.48	6.32043E-001	9.13117E-005	0.00000E+000	5.77128E-005	5.39641E-002	6.32152E-001	3.57150E+000	9	...........
	36	0.493333	6.37575E-001	9.11856E-005	0.00000E+000	5.81376E-005	5.39641E-002	6.37694E-001	3.57150E+000	9	...........
	37	0.506667	6.43019E-001	9.11533E-005	0.00000E+000	5.86133E-005	5.39641E-002	6.43111E-001	3.57150E+000	9	...........
	38	0.52	6.48326E-001	9.12231E-005	0.00000E+000	5.91423E-005	5.39641E-002	6.48394E-001	3.57150E+000	9	...........
	39	0.533333	6.53528E-001	9.12002E-005	0.00000E+000	5.96019E-005	5.39641E-002	6.53624E-001	3.57150E+000	9	...........
	40	0.546667	6.58646E-001	9.12710E-005	0.00000E+000	6.01153E-005	5.39641E-002	6.58742E-001	3.57150E+000	9	...........
	41	0.56	6.63697E-001	9.11877E-005	0.00000E+000	6.05210E-005	5.39641E-002	6.63794E-001	3.57150E+000	9	...........
	42	0.573333	6.68662E-001	9.11533E-005	0.00000E+000	6.09508E-005	5.39641E-002	6.68758E-001	3.57150E+000	9	...........
	43	0.586667	6.73515E-001	9.14190E-005	0.00000E+000	6.15721E-005	5.39641E-002	6.73595E-001	3.57150E+000	9	...........
	44	0.6	6.78253E-001	9.12346E-005	0.00000E+000	6.18801E-005	5.39641E-002	6.78379E-001	3.57150E+000	9	...........
	45	0.613333	6.82930E-001	9.13752E-005	0.00000E+000	6.24029E-005	5.39641E-002	6.83028E-001	3.57150E+000	9	...........
	46	0.626667	6.87512E-001	9.09428E-005	0.00000E+000	6.25243E-005	5.39641E-002	6.87634E-001	3.57150E+000	9	...........
	47	0.64	6.92065E-001	9.09303E-005	0.00000E+000	6.29297E-005	5.39641E-002	6.92194E-001	3.57150E+000	9	...........
	48	0.653333	6.96530E-001	9.11085E-005	0.00000E+000	6.34598E-005	5.39641E-002	6.96637E-001	3.57150E+000	9	...........
	49	0.666667	7.00913E-001	9.11543E-005	0.00000E+000	6.38913E-005	5.39641E-002	7.01013E-001	3.57150E+000	9	...........
	50	0.68	7.05228E-001	9.10564E-005	0.00000E+000	6.42155E-005	5.39641E-002	7.05328E-001	3.57150E+000	9	...........
	51	0.693333	7.09431E-001	9.12940E-005	0.00000E+000	6.47668E-005	5.39641E-002	7.09579E-001	3.57150E+000	9	...........
	52	0.706667	7.13600E-001	9.11950E-005	0.00000E+000	6.50767E-005	5.39641E-002	7.13710E-001	3.57150E+000	9	...........
	53	0.72	7.17737E-001	9.14982E-005	0.00000E+000	6.56716E-005	5.39641E-002	7.17846E-001	3.57150E+000	9	...........
	54	0.733333	7.21777E-001	9.12398E-005	0.00000E+000	6.58548E-005	5.39641E-002	7.21870E-001	3.57150E+000	9	...........
	55	0.746667	7.25723E-001	9.11720E-005	0.00000E+000	6.61657E-005	5.39641E-002	7.25833E-001	3.57150E+000	9	...........
	56	0.76	7.29640E-001	9.12637E-005	0.00000E+000	6.65897E-005	5.39641E-002	7.29754E-001	3.57150E+000	9	...........
	57	0.773333	7.33484E-001	9.11898E-005	0.00000E+000	6.68862E-005	5.39641E-002	7.33596E-001	3.57150E+000	9	...........
	58	0.786667	7.37276E-001	9.13908E-005	0.00000E+000	6.73803E-005	5.39641E-002	7.37394E-001	3.57150E+000	9	...........
	59	0.8	7.41048E-001	9.12387E-005	0.00000E+000	6.76123E-005	5.39641E-002	7.41169E-001	3.57150E+000	9	...........
	60	0.813333	7.44780E-001	9.09189E-005	0.00000E+000	6.77146E-005	5.39641E-002	7.44898E-001	3.57150E+000	9	...........
	61	0.826667	7.48394E-001	9.13940E-005	0.00000E+000	6.83987E-005	5.39641E-002	7.48506E-001	3.57150E+000	9	...........
	62	0.84	7.51999E-001	9.11970E-005	0.00000E+000	6.85801E-005	5.39641E-002	7.52117E-001	3.57150E+000	9	...........
	63	0.853333	7.55572E-001	9.11439E-005	0.00000E+000	6.88658E-005	5.39641E-002	7.55667E-001	3.57150E+000	9	...........
	64	0.866667	7.59069E-001	9.11960E-005	0.00000E+000	6.92241E-005	5.39641E-002	7.59179E-001	3.57150E+000	9	...........
	65	0.88	7.62516E-001	9.12221E-005	0.00000E+000	6.95582E-005	5.39641E-002	7.62626E-001	3.57150E+000	9	...........
	66	0.893333	7.65909E-001	9.12148E-005	0.00000E+000	6.98622E-005	5.39641E-002	7.66019E-001	3.57150E+000	9	...........
	67	0.906667	7.69296E-001	9.14440E-005	0.00000E+000	7.03475E-005	5.39641E-002	7.69409E-001	3.57150E+000	9	...........
	68	0.92	7.72611E-001	9.11970E-005	0.00000E+000	7.04598E-005	5.39641E-002	7.72689E-001	3.57150E+000	9	...........
	69	0.933333	7.75879E-001	9.10553E-005	0.00000E+000	7.06480E-005	5.39641E-002	7.75971E-001	3.57150E+000	9	...........
	70	0.946667	7.79112E-001	9.10095E-005	0.00000E+000	7.09066E-005	5.39641E-002	7.79230E-001	3.57150E+000	9	...........
	71	0.96	7.82312E-001	9.15628E-005	0.00000E+000	7.16306E-005	5.39641E-002	7.82419E-001	3.57150E+000	9	...........
	72	0.97333	7.85459E-001	9.12012E-005	0.00000E+000	7.16348E-005	5.39641E-002	7.85567E-001	3.57146E+000	9	...........
	73	0.98667	7.88569E-001	9.10335E-005	0.00000E+000	7.17862E-005	5.39641E-002	7.88675E-001	3.57140E+000	9	...........
	74	1	7.91627E-001	9.10428E-005	0.00000E+000	7.20719E-005	5.39641E-002	7.91755E-001	3.57140E+000	9	...........
	75	1.01333	7.94679E-001	9.11158E-005	0.00000E+000	7.24078E-005	5.39641E-002	7.94806E-001	3.57140E+000	9	...........
	76	1.02667	7.97661E-001	9.11950E-005	0.00000E+000	7.27427E-005	5.39641E-002	7.97810E-001	3.57140E+000	9	...........
	77	1.04	8.00616E-001	9.13679E-005	0.00000E+000	7.31506E-005	5.39641E-002	8.00752E-001	3.57140E+000	9	...........
	78	1.05333	8.03530E-001	9.10158E-005	0.00000E+000	7.31339E-005	5.39641E-002	8.03657E-001	3.57140E+000	9	...........
	79	1.06667	8.06432E-001	9.10418E-005	0.00000E+000	7.34190E-005	5.39641E-002	8.06553E-001	3.57140E+000	9	...........
	80	1.08	8.09259E-001	9.12523E-005	0.00000E+000	7.38467E-005	5.39641E-002	8.09397E-001	3.57140E+000	9	...........
	81	1.09333	8.12092E-001	9.13065E-005	0.00000E+000	7.41492E-005	5.39641E-002	8.12213E-001	3.57140E+000	9	...........
	82	1.10667	8.14871E-001	9.11043E-005	0.00000E+000	7.42383E-005	5.39641E-002	8.15001E-001	3.57140E+000	9	...........
	83	1.12	8.17601E-001	9.09095E-005	0.00000E+000	7.43277E-005	5.39641E-002	8.17757E-001	3.57140E+000	9	...........
	84	1.13333	8.20367E-001	9.10626E-005	0.00000E+000	7.47048E-005	5.39641E-002	8.20495E-001	3.57140E+000	9	...........
	85	1.14667	8.23027E-001	9.09689E-005	0.00000E+000	7.48698E-005	5.39641E-002	8.23173E-001	3.57140E+000	9	...........
	86	1.16	8.25710E-001	9.10220E-005	0.00000E+000	7.51578E-005	5.39641E-002	8.25848E-001	3.57140E+000	9	...........
	87	1.17333	8.28349E-001	9.11210E-005	0.00000E+000	7.54800E-005	5.39641E-002	8.28481E-001	3.57140E+000	9	...........
	88	1.18667	8.30954E-001	9.09387E-005	0.00000E+000	7.55658E-005	5.39641E-002	8.31097E-001	3.57140E+000	9	...........
	89	1.2	8.33553E-001	9.11658E-005	0.00000E+000	7.59915E-005	5.39641E-002	8.33697E-001	3.57140E+000	9	...........
	90	1.21333	8.36089E-001	9.12158E-005	0.00000E+000	7.62646E-005	5.39641E-002	8.36237E-001	3.57140E+000	9	...........
	91	1.22667	8.38628E-001	9.12721E-005	0.00000E+000	7.65433E-005	5.39641E-002	8.38767E-001	3.57140E+000	9	...........
	92	1.24	8.41131E-001	9.10345E-005	0.00000E+000	7.65720E-005	5.39641E-002	8.41280E-001	3.57140E+000	9	...........
	93	1.25333	8.43628E-001	9.12887E-005	0.00000E+000	7.70138E-005	5.39641E-002	8.43787E-001	3.57140E+000	9	...........
	94	1.26667	8.46132E-001	9.10658E-005	0.00000E+000	7.70536E-005	5.39641E-002	8.46292E-001	3.57140E+000	9	...........
	95	1.28	8.48559E-001	9.12075E-005	0.00000E+000	7.73949E-005	5.39641E-002	8.48713E-001	3.57140E+000	9	...........
	96	1.29333	8.50955E-001	9.11606E-005	0.00000E+000	7.75735E-005	5.39641E-002	8.51103E-001	3.57140E+000	9	...........
	97	1.30667	8.53323E-001	9.12023E-005	0.00000E+000	7.78250E-005	5.39641E-002	8.53447E-001	3.57140E+000	9	...........
	98	1.32	8.55658E-001	9.13304E-005	0.00000E+000	7.81476E-005	5.39641E-002	8.55791E-001	3.57140E+000	9	...........
	99	1.33333	8.58016E-001	9.08970E-005	0.00000E+000	7.79911E-005	5.39641E-002	8.58156E-001	3.57140E+000	9	...........
	100	1.34667	8.60324E-001	9.12085E-005	0.00000E+000	7.84689E-005	5.39641E-002	8.60443E-001	3.57140E+000	9	...........
	101	1.36	8.62599E-001	9.09710E-005	0.00000E+000	7.84715E-005	5.39641E-002	8.62737E-001	3.57140E+000	9	...........
	102	1.37333	8.64850E-001	9.11700E-005	0.00000E+000	7.88483E-005	5.39641E-002	8.64989E-001	3.57140E+000	9	...........
	103	1.38667	8.67107E-001	9.14252E-005	0.00000E+000	7.92754E-005	5.39641E-002	8.67244E-001	3.57140E+000	9	...........
	104	1.4	8.69331E-001	9.10574E-005	0.00000E+000	7.91591E-005	5.39641E-002	8.69476E-001	3.57140E+000	9	...........
	105	1.41333	8.71525E-001	9.11981E-005	0.00000E+000	7.94814E-005	5.39641E-002	8.71681E-001	3.57140E+000	9	...........
	106	1.42667	8.73711E-001	9.12679E-005	0.00000E+000	7.97417E-005	5.39641E-002	8.73866E-001	3.57140E+000	9	...........
	107	1.44	8.75876E-001	9.12752E-005	0.00000E+000	7.99458E-005	5.39641E-002	8.76054E-001	3.57140E+000	9	...........
	108	1.45333	8.78030E-001	9.09960E-005	0.00000E+000	7.98972E-005	5.39641E-002	8.78192E-001	3.57140E+000	9	...........
	109	1.46667	8.80132E-001	9.10897E-005	0.00000E+000	8.01710E-005	5.39641E-002	8.80311E-001	3.57140E+000	9	...........
	110	1.48	8.82220E-001	9.11752E-005	0.00000E+000	8.04366E-005	5.39641E-002	8.82408E-001	3.57140E+000	9	...........
	111	1.49333	8.84307E-001	9.11460E-005	0.00000E+000	8.06010E-005	5.39641E-002	8.84478E-001	3.57140E+000	9	...........
	112	1.50667	8.86368E-001	9.13794E-005	0.00000E+000	8.09957E-005	5.39641E-002	8.86499E-001	3.57140E+000	9	...........
	113	1.52	8.88370E-001	9.12554E-005	0.00000E+000	8.10685E-005	5.39641E-002	8.88526E-001	3.57140E+000	9	...........
	114	1.53333	8.90369E-001	9.12898E-005	0.00000E+000	8.12816E-005	5.39641E-002	8.90532E-001	3.57140E+000	9	...........
	115	1.54667	8.92359E-001	9.09835E-005	0.00000E+000	8.11899E-005	5.39641E-002	8.92505E-001	3.57140E+000	9	...........
	116	1.56	8.94306E-001	9.11272E-005	0.00000E+000	8.14956E-005	5.39641E-002	8.94479E-001	3.57140E+000	9	...........
	117	1.57333	8.96268E-001	9.10637E-005	0.00000E+000	8.16174E-005	5.39641E-002	8.96449E-001	3.57140E+000	9	...........
	118	1.58667	8.98183E-001	9.12398E-005	0.00000E+000	8.19500E-005	5.39641E-002	8.98329E-001	3.57140E+000	9	...........
	119	1.6	9.00044E-001	9.11387E-005	0.00000E+000	8.20288E-005	5.39641E-002	9.00220E-001	3.57140E+000	9	...........
	120	1.61333	9.01940E-001	9.10001E-005	0.00000E+000	8.20766E-005	5.39641E-002	9.02115E-001	3.57140E+000	9	...........
	121	1.62667	9.03819E-001	9.10835E-005	0.00000E+000	8.23230E-005	5.39641E-002	9.03998E-001	3.57140E+000	9	...........
	122	1.64	9.05681E-001	9.12627E-005	0.00000E+000	8.26549E-005	5.39641E-002	9.05848E-001	3.57140E+000	9	...........
	123	1.65333	9.07506E-001	9.13210E-005	0.00000E+000	8.28744E-005	5.39641E-002	9.07682E-001	3.57140E+000	9	...........
	124	1.66667	9.09371E-001	9.13356E-005	0.00000E+000	8.30580E-005	5.39641E-002	9.09495E-001	3.57140E+000	9	...........
	125	1.68	9.11166E-001	9.11845E-005	0.00000E+000	8.30842E-005	5.39641E-002	9.11295E-001	3.57140E+000	9	...........
	126	1.69333	9.12965E-001	9.09387E-005	0.00000E+000	8.30238E-005	5.39641E-002	9.13113E-001	3.57140E+000	9	...........
	127	1.70667	9.14751E-001	9.11033E-005	0.00000E+000	8.33368E-005	5.39641E-002	9.14900E-001	3.57140E+000	9	...........
	128	1.72	9.16493E-001	9.13440E-005	0.00000E+000	8.37161E-005	5.39641E-002	9.16655E-001	3.57140E+000	9	...........
	129	1.73333	9.18235E-001	9.12491E-005	0.00000E+000	8.37881E-005	5.39641E-002	9.18414E-001	3.57140E+000	9	...........
	130	1.74667	9.19940E-001	9.12064E-005	0.00000E+000	8.39045E-005	5.39641E-002	9.20122E-001	3.57140E+000	9	...........
	131	1.76	9.21736E-001	9.12700E-005	0.00000E+000	8.41268E-005	5.39641E-002	9.21852E-001	3.57140E+000	9	...........
	132	1.77333	9.23439E-001	9.11741E-005	0.00000E+000	8.41937E-005	5.39641E-002	9.23559E-001	3.57140E+000	9	...........
	133	1.78667	9.25146E-001	9.11627E-005	0.00000E+000	8.43388E-005	5.39641E-002	9.25260E-001	3.57140E+000	9	...........
	134	1.8	9.26811E-001	9.10970E-005	0.00000E+000	8.44298E-005	5.39641E-002	9.26935E-001	3.57140E+000	9	...........
	135	1.81333	9.28460E-001	9.12981E-005	0.00000E+000	8.47666E-005	5.39641E-002	9.28590E-001	3.57140E+000	9	...........
	136	1.82667	9.30089E-001	9.10376E-005	0.00000E+000	8.46731E-005	5.39641E-002	9.30176E-001	3.57140E+000	9	...........
	137	1.84	9.31687E-001	9.11512E-005	0.00000E+000	8.49244E-005	5.39641E-002	9.31817E-001	3.57140E+000	9	...........
	138	1.85333	9.33280E-001	9.11668E-005	0.00000E+000	8.50842E-005	5.39641E-002	9.33428E-001	3.57140E+000	9	...........
	139	1.86667	9.34868E-001	9.11741E-005	0.00000E+000	8.52358E-005	5.39641E-002	9.35004E-001	3.57140E+000	9	...........
	140	1.88	9.36450E-001	9.14992E-005	0.00000E+000	8.56844E-005	5.39641E-002	9.36574E-001	3.57140E+000	9	...........
	141	1.89333	9.38018E-001	9.09605E-005	0.00000E+000	8.53226E-005	5.39641E-002	9.38135E-001	3.57140E+000	9	...........
	142	1.90667	9.39519E-001	9.13825E-005	0.00000E+000	8.58556E-005	5.39641E-002	9.39689E-001	3.57140E+000	9	...........
	143	1.92	9.41063E-001	9.12012E-005	0.00000E+000	8.58261E-005	5.39641E-002	9.41215E-001	3.57140E+000	9	...........
	144	1.93333	9.42559E-001	9.11429E-005	0.00000E+000	8.59075E-005	5.39641E-002	9.42723E-001	3.57140E+000	9	...........
	145	1.94667	9.44082E-001	9.13888E-005	0.00000E+000	8.62784E-005	5.39641E-002	9.44204E-001	3.57140E+000	9	...........
	146	1.96	9.45546E-001	9.11397E-005	0.00000E+000	8.61768E-005	5.39641E-002	9.45703E-001	3.57140E+000	9	...........
	147	1.97333	9.47075E-001	9.12502E-005	0.00000E+000	8.64208E-005	5.39641E-002	9.47208E-001	3.57136E+000	9	...........
	148	1.98667	9.48525E-001	9.13304E-005	0.00000E+000	8.66291E-005	5.39641E-002	9.48679E-001	3.57130E+000	9	...........
	149	2	9.49968E-001	9.10679E-005	0.00000E+000	8.65115E-005	5.39641E-002	9.50111E-001	3.57130E+000	9	...........
	150	2.01333	9.51411E-001	9.14211E-005	0.00000E+000	8.69790E-005	5.39641E-002	9.51546E-001	3.57130E+000	9	...........
	151	2.02667	9.52829E-001	9.10564E-005	0.00000E+000	8.67611E-005	5.39641E-002	9.52969E-001	3.57130E+000	9	...........
	152	2.04	9.54243E-001	9.13481E-005	0.00000E+000	8.71683E-005	5.39641E-002	9.54384E-001	3.57130E+000	9	...........
	153	2.05333	9.55640E-001	9.10220E-005	0.00000E+000	8.69842E-005	5.39641E-002	9.55774E-001	3.57130E+000	9	...........
	154	2.06667	9.57009E-001	9.12043E-005	0.00000E+000	8.72834E-005	5.39641E-002	9.57139E-001	3.57130E+000	9	...........
	155	2.08	9.58378E-001	9.11793E-005	0.00000E+000	8.73843E-005	5.39641E-002	9.58503E-001	3.57130E+000	9	...........
	156	2.09333	9.59749E-001	9.13815E-005	0.00000E+000	8.77032E-005	5.39641E-002	9.59890E-001	3.57130E+000	9	...........
	157	2.10667	9.61102E-001	9.11127E-005	0.00000E+000	8.75685E-005	5.39641E-002	9.61264E-001	3.57130E+000	9	...........
	158	2.12	9.62426E-001	9.12658E-005	0.00000E+000	8.78366E-005	5.39641E-002	9.62588E-001	3.57130E+000	9	...........
	159	2.13333	9.63758E-001	9.14596E-005	0.00000E+000	8.81449E-005	5.39641E-002	9.63928E-001	3.57130E+000	9	...........
	160	2.14667	9.65068E-001	9.13117E-005	0.00000E+000	8.81220E-005	5.39641E-002	9.65231E-001	3.57130E+000	9	...........
	161	2.16	9.66370E-001	9.10741E-005	0.00000E+000	8.80113E-005	5.39641E-002	9.66544E-001	3.57130E+000	9	...........
	162	2.17333	9.67663E-001	9.10804E-005	0.00000E+000	8.81351E-005	5.39641E-002	9.67831E-001	3.57130E+000	9	...........
	163	2.18667	9.68932E-001	9.10918E-005	0.00000E+000	8.82618E-005	5.39641E-002	9.69108E-001	3.57130E+000	9	...........
	164	2.2	9.70176E-001	9.12773E-005	0.00000E+000	8.85550E-005	5.39641E-002	9.70366E-001	3.57130E+000	9	...........
	165	2.21333	9.71434E-001	9.11137E-005	0.00000E+000	8.85110E-005	5.39641E-002	9.71653E-001	3.57130E+000	9	...........
	166	2.22667	9.72725E-001	9.10939E-005	0.00000E+000	8.86093E-005	5.39641E-002	9.72898E-001	3.57130E+000	9	...........
	167	2.24	9.73961E-001	9.09678E-005	0.00000E+000	8.85992E-005	5.39641E-002	9.74148E-001	3.57130E+000	9	...........
	168	2.25333	9.75187E-001	9.12398E-005	0.00000E+000	8.89758E-005	5.39641E-002	9.75373E-001	3.57130E+000	9	...........
	169	2.26667	9.76397E-001	9.11179E-005	0.00000E+000	8.89672E-005	5.39641E-002	9.76566E-001	3.57130E+000	9	...........
	170	2.28	9.77615E-001	9.08282E-005	0.00000E+000	8.87951E-005	5.39641E-002	9.77777E-001	3.57130E+000	9	...........
	171	2.29333	9.78831E-001	9.07761E-005	0.00000E+000	8.88545E-005	5.39641E-002	9.78971E-001	3.57130E+000	9	...........
	172	2.30667	9.80025E-001	9.11429E-005	0.00000E+000	8.93223E-005	5.39641E-002	9.80154E-001	3.57130E+000	9	...........
	173	2.32	9.81187E-001	9.12377E-005	0.00000E+000	8.95212E-005	5.39641E-002	9.81321E-001	3.57130E+000	9	...........
	174	2.33333	9.82357E-001	9.11366E-005	0.00000E+000	8.95287E-005	5.39641E-002	9.82498E-001	3.57130E+000	9	...........
	175	2.34667	9.83509E-001	9.12346E-005	0.00000E+000	8.97300E-005	5.39641E-002	9.83656E-001	3.57130E+000	9	...........
	176	2.36	9.84633E-001	9.11450E-005	0.00000E+000	8.97443E-005	5.39641E-002	9.84794E-001	3.57130E+000	9	...........
	177	2.37333	9.85770E-001	9.12325E-005	0.00000E+000	8.99342E-005	5.39641E-002	9.85942E-001	3.57130E+000	9	...........
	178	2.38667	9.86895E-001	9.12606E-005	0.00000E+000	9.00646E-005	5.39641E-002	9.87052E-001	3.57130E+000	9	...........
	179	2.4	9.88043E-001	9.09084E-005	0.00000E+000	8.98214E-005	5.39641E-002	9.88194E-001	3.57130E+000	9	...........
	180	2.41333	9.89146E-001	9.11523E-005	0.00000E+000	9.01629E-005	5.39641E-002	9.89296E-001	3.57130E+000	9	...........
	181	2.42667	9.90232E-001	9.11387E-005	0.00000E+000	9.02485E-005	5.39641E-002	9.90387E-001	3.57130E+000	9	...........
	182	2.44	9.91314E-001	9.11679E-005	0.00000E+000	9.03760E-005	5.39641E-002	9.91452E-001	3.57130E+000	9	...........
	183	2.45333	9.92347E-001	9.10470E-005	0.00000E+000	9.03502E-005	5.39641E-002	9.92524E-001	3.57130E+000	9	...........
	184	2.46667	9.93399E-001	9.11397E-005	0.00000E+000	9.05381E-005	5.39641E-002	9.93597E-001	3.57130E+000	9	...........
	185	2.48	9.94485E-001	9.13085E-005	0.00000E+000	9.08050E-005	5.39641E-002	9.94654E-001	3.57130E+000	9	...........
	186	2.49333	9.95561E-001	9.13137E-005	0.00000E+000	9.09084E-005	5.39641E-002	9.95737E-001	3.57130E+000	9	...........
	187	2.50667	9.96630E-001	9.13179E-005	0.00000E+000	9.10102E-005	5.39641E-002	9.96795E-001	3.57130E+000	9	...........
	188	2.52	9.97674E-001	9.10356E-005	0.00000E+000	9.08238E-005	5.39641E-002	9.97865E-001	3.57130E+000	9	...........
	189	2.53333	9.98707E-001	9.10668E-005	0.00000E+000	9.09490E-005	5.39641E-002	9.98889E-001	3.57130E+000	9	...........
	190	2.545	9.99659E-001	9.11234E-005	0.00000E+000	9.10923E-005	5.39641E-002	9.99832E-001	3.57130E+000	9	...........
STARTTIMEOFFSET	QUANT	352.9017	Start Time Offset (s)
