EXPLAIN
TAG	PWR800_CHARGE
TITLE	LABEL	PWR Cyclic Charge Discharge (Cell) - Charge Step	Test &Identifier
DATE	LABEL	10-7-2017	Date
TIME	LABEL	15:34:07	Time
NOTES	NOTES	3	&Notes...
	supercap test cell
	0.9mg
	6M KOH
PSTAT	PSTAT	IFC5000-01520	Potentiostat
CAPACITY	QUANT	1.00000E-003	Capacity (A-hr)
CELLTYPE	SELECTOR	1	&Cell Type
WORKINGCONNECTION	SELECTOR	0	&Working Lead
MAXCHARGETIME	VARIABLEANDUNITS	1.00000E+002	s	1.00000E+002	second(s)	Max &Charge Time
CHARGECURRENT	QUANT	9.00000E-005	&Charge Current (A) 
VOLTAGEFINISH	TWOPARAM	F	1.00000E-003	3.60000E+003	&Voltage Finish	 I (A) < 	Max Time(s)
SAMPLETIME	QUANT	1.00000E-002	Sa&mple Period (s)
CHARGESTOPAT1	MULTIPARAM	4	1.00000E+000	Charge Stop At &1	Voltage > Limit	V
CHARGESTOPAT2	MULTIPARAM	0	0.00000E+000	Charge Stop At &2	None	N/A
AESBHCSELECTOR	TOGGLE	F	Save Both Half Cells
IRCOMP	TOGGLE	F	IR &Measure
EOC	QUANT	0	Open Circuit (V)
SEQUENCER	TOGGLE	TRUE	Run as Sequence
PSTATMODEL	IQUANT	53	Pstat Model
PSTATSECTION	LABEL	IFC5000-01520	Pstat Section
PSTATSERIALNO	LABEL	01520	Pstat Serial Number
CTRLMODE	IQUANT	0	Control Mode
ELECTROMETER	IQUANT	1	RE=0 or CS=1
IESTAB	IQUANT	0	I/E Stability
CASPEED	IQUANT	4	Control Amp Speed
CONVENTION	IQUANT	1	Current Convention
ICHRANGE	IQUANT	2	Ich Range
ICHRANGEMODE	TOGGLE	T	Ich Auto Range
ICHOFFSETENABLE	TOGGLE	F	Ich Offset Enable
ICHOFFSET	QUANT	0	Ich Offset (V)
ICHFILTER	IQUANT	1	Ich Filter
VCHRANGE	IQUANT	2	Vch Range
VCHRANGEMODE	TOGGLE	T	Vch Auto Range
VCHOFFSETENABLE	TOGGLE	F	Vch Offset Enable
VCHOFFSET	QUANT	0	Vch Offset (V)
VCHFILTER	IQUANT	1	Vch Filter
IERANGELOWERLIMIT	IQUANT	9	I/E Range Lower Limit
IERANGEMODE	TOGGLE	F	I/E AutoRange
IERANGE	IQUANT	9	I/E Range
ACHSELECT	IQUANT	1	Ach Select
ACHRANGE	IQUANT	2	Ach Range
ACHOFFSETENABLE	TOGGLE	F	Ach Offset Enable
ACHOFFSET	QUANT	0	Ach Offset (V)
ACHFILTER	IQUANT	1	Ach Filter
CABLEID	IQUANT	14	Cable ID
DCCALDATE	LABEL	5-7-2017	DC Calibration Date
ACCALDATE	LABEL	12/3/2015	AC Calibration Date
FRAMEWORKVERSION	QUANT	7.01	Framework Version
INSTRUMENTVERSION	LABEL	4.00	Instrument Version
CURVE	TABLE	172
	Pt	T	Vf	Im	Vu	Pwr	Sig	Ach	Temp	IERange	Over
	#	s	V	A	V	W	V	V	deg C	#	bits
	0	0.013333	2.76706E-001	9.09053E-005	0.00000E+000	2.51540E-005	5.39641E-002	2.76751E-001	3.57300E+000	9	...........
	1	0.026667	2.96367E-001	9.10001E-005	0.00000E+000	2.69694E-005	5.39641E-002	2.96409E-001	3.57300E+000	9	...........
	2	0.04	3.14662E-001	9.11627E-005	0.00000E+000	2.86854E-005	5.39641E-002	3.14700E-001	3.57300E+000	9	...........
	3	0.053333	3.31799E-001	9.10324E-005	0.00000E+000	3.02045E-005	5.39641E-002	3.31838E-001	3.57300E+000	9	...........
	4	0.066667	3.47915E-001	9.10574E-005	0.00000E+000	3.16803E-005	5.39641E-002	3.47958E-001	3.57300E+000	9	...........
	5	0.08	3.63148E-001	9.07282E-005	0.00000E+000	3.29477E-005	5.39641E-002	3.63189E-001	3.57300E+000	9	...........
	6	0.093333	3.77585E-001	9.10210E-005	0.00000E+000	3.43682E-005	5.39641E-002	3.77630E-001	3.57300E+000	9	...........
	7	0.106667	3.91330E-001	9.10908E-005	0.00000E+000	3.56466E-005	5.39641E-002	3.91373E-001	3.57300E+000	9	...........
	8	0.12	4.04430E-001	9.08803E-005	0.00000E+000	3.67547E-005	5.39641E-002	4.04476E-001	3.57300E+000	9	...........
	9	0.133333	4.16954E-001	9.10564E-005	0.00000E+000	3.79663E-005	5.39641E-002	4.17013E-001	3.57300E+000	9	...........
	10	0.146667	4.28967E-001	9.09189E-005	0.00000E+000	3.90012E-005	5.39641E-002	4.29016E-001	3.57300E+000	9	...........
	11	0.16	4.40487E-001	9.12231E-005	0.00000E+000	4.01825E-005	5.39641E-002	4.40544E-001	3.57300E+000	9	...........
	12	0.173333	4.51567E-001	9.09908E-005	0.00000E+000	4.10885E-005	5.39641E-002	4.51628E-001	3.57300E+000	9	...........
	13	0.186667	4.62231E-001	9.09637E-005	0.00000E+000	4.20462E-005	5.39641E-002	4.62290E-001	3.57300E+000	9	...........
	14	0.2	4.72511E-001	9.07157E-005	0.00000E+000	4.28641E-005	5.39641E-002	4.72571E-001	3.57300E+000	9	...........
	15	0.213333	4.82438E-001	9.09960E-005	0.00000E+000	4.38999E-005	5.39641E-002	4.82505E-001	3.57300E+000	9	...........
	16	0.226667	4.92044E-001	9.09522E-005	0.00000E+000	4.47525E-005	5.39641E-002	4.92109E-001	3.57300E+000	9	...........
	17	0.24	5.01357E-001	9.07511E-005	0.00000E+000	4.54988E-005	5.39641E-002	5.01429E-001	3.57300E+000	9	...........
	18	0.253333	5.10379E-001	9.08636E-005	0.00000E+000	4.63749E-005	5.39641E-002	5.10446E-001	3.57300E+000	9	...........
	19	0.266667	5.19110E-001	9.09116E-005	0.00000E+000	4.71931E-005	5.39641E-002	5.19181E-001	3.57300E+000	9	...........
	20	0.28	5.27598E-001	9.09137E-005	0.00000E+000	4.79659E-005	5.39641E-002	5.27674E-001	3.57300E+000	9	...........
	21	0.293333	5.35768E-001	9.10731E-005	0.00000E+000	4.87940E-005	5.39641E-002	5.35858E-001	3.57300E+000	9	...........
	22	0.306667	5.43757E-001	9.08616E-005	0.00000E+000	4.94066E-005	5.39641E-002	5.43884E-001	3.57300E+000	9	...........
	23	0.32	5.51548E-001	9.08553E-005	0.00000E+000	5.01110E-005	5.39641E-002	5.51666E-001	3.57300E+000	9	...........
	24	0.333333	5.59138E-001	9.10356E-005	0.00000E+000	5.09014E-005	5.39641E-002	5.59257E-001	3.57300E+000	9	...........
	25	0.346667	5.66570E-001	9.08022E-005	0.00000E+000	5.14457E-005	5.39641E-002	5.66682E-001	3.57300E+000	9	...........
	26	0.36	5.73766E-001	9.09543E-005	0.00000E+000	5.21865E-005	5.39641E-002	5.73872E-001	3.57300E+000	9	...........
	27	0.373333	5.80786E-001	9.10991E-005	0.00000E+000	5.29091E-005	5.39641E-002	5.80927E-001	3.57300E+000	9	...........
	28	0.386667	5.87639E-001	9.09199E-005	0.00000E+000	5.34280E-005	5.39641E-002	5.87781E-001	3.57300E+000	9	...........
	29	0.4	5.94390E-001	9.11991E-005	0.00000E+000	5.42078E-005	5.39641E-002	5.94492E-001	3.57300E+000	9	...........
	30	0.413333	6.00891E-001	9.10324E-005	0.00000E+000	5.47006E-005	5.39641E-002	6.01032E-001	3.57300E+000	9	...........
	31	0.426667	6.07303E-001	9.09855E-005	0.00000E+000	5.52558E-005	5.39641E-002	6.07438E-001	3.57300E+000	9	...........
	32	0.44	6.13582E-001	9.09699E-005	0.00000E+000	5.58175E-005	5.39641E-002	6.13711E-001	3.57300E+000	9	...........
	33	0.453333	6.19783E-001	9.11366E-005	0.00000E+000	5.64849E-005	5.39641E-002	6.19866E-001	3.57300E+000	9	...........
	34	0.466667	6.25773E-001	9.11991E-005	0.00000E+000	5.70699E-005	5.39641E-002	6.25874E-001	3.57300E+000	9	...........
	35	0.48	6.31652E-001	9.09335E-005	0.00000E+000	5.74383E-005	5.39641E-002	6.31759E-001	3.57300E+000	9	...........
	36	0.493333	6.37392E-001	9.11398E-005	0.00000E+000	5.80917E-005	5.39641E-002	6.37542E-001	3.57300E+000	9	...........
	37	0.506667	6.43080E-001	9.12700E-005	0.00000E+000	5.86939E-005	5.39641E-002	6.43197E-001	3.57300E+000	9	...........
	38	0.52	6.48627E-001	9.09751E-005	0.00000E+000	5.90090E-005	5.39641E-002	6.48722E-001	3.57396E+000	9	...........
	39	0.533333	6.54036E-001	9.13356E-005	0.00000E+000	5.97368E-005	5.39641E-002	6.54162E-001	3.57410E+000	9	...........
	40	0.546667	6.59351E-001	9.12210E-005	0.00000E+000	6.01467E-005	5.39641E-002	6.59495E-001	3.57410E+000	9	...........
	41	0.56	6.64615E-001	9.08553E-005	0.00000E+000	6.03838E-005	5.39641E-002	6.64758E-001	3.57410E+000	9	...........
	42	0.573333	6.69798E-001	9.13398E-005	0.00000E+000	6.11792E-005	5.39641E-002	6.69930E-001	3.57410E+000	9	...........
	43	0.586667	6.74856E-001	9.11345E-005	0.00000E+000	6.15027E-005	5.39641E-002	6.74980E-001	3.57410E+000	9	...........
	44	0.6	6.79840E-001	9.09699E-005	0.00000E+000	6.18450E-005	5.39641E-002	6.79980E-001	3.57410E+000	9	...........
	45	0.613333	6.84723E-001	9.09084E-005	0.00000E+000	6.22471E-005	5.39641E-002	6.84829E-001	3.57410E+000	9	...........
	46	0.626667	6.89554E-001	9.12054E-005	0.00000E+000	6.28910E-005	5.39641E-002	6.89667E-001	3.57410E+000	9	...........
	47	0.64	6.94298E-001	9.09501E-005	0.00000E+000	6.31465E-005	5.39641E-002	6.94410E-001	3.57410E+000	9	...........
	48	0.653333	6.98964E-001	9.10741E-005	0.00000E+000	6.36575E-005	5.39641E-002	6.99060E-001	3.57410E+000	9	...........
	49	0.666667	7.03535E-001	9.12116E-005	0.00000E+000	6.41706E-005	5.39641E-002	7.03643E-001	3.57410E+000	9	...........
	50	0.68	7.08039E-001	9.10043E-005	0.00000E+000	6.44346E-005	5.39641E-002	7.08150E-001	3.57410E+000	9	...........
	51	0.693333	7.12474E-001	9.12606E-005	0.00000E+000	6.50208E-005	5.39641E-002	7.12595E-001	3.57410E+000	9	...........
	52	0.706667	7.16904E-001	9.07886E-005	0.00000E+000	6.50867E-005	5.39641E-002	7.16996E-001	3.57410E+000	9	...........
	53	0.72	7.21218E-001	9.09710E-005	0.00000E+000	6.56099E-005	5.39641E-002	7.21329E-001	3.57410E+000	9	...........
	54	0.733333	7.25491E-001	9.11012E-005	0.00000E+000	6.60931E-005	5.39641E-002	7.25583E-001	3.57410E+000	9	...........
	55	0.746667	7.29665E-001	9.11366E-005	0.00000E+000	6.64992E-005	5.39641E-002	7.29796E-001	3.57410E+000	9	...........
	56	0.76	7.33788E-001	9.11095E-005	0.00000E+000	6.68550E-005	5.39641E-002	7.33919E-001	3.57410E+000	9	...........
	57	0.773333	7.37852E-001	9.09835E-005	0.00000E+000	6.71323E-005	5.39641E-002	7.37979E-001	3.57410E+000	9	...........
	58	0.786667	7.41899E-001	9.09178E-005	0.00000E+000	6.74519E-005	5.39641E-002	7.42043E-001	3.57410E+000	9	...........
	59	0.8	7.45860E-001	9.12960E-005	0.00000E+000	6.80940E-005	5.39641E-002	7.45994E-001	3.57410E+000	9	...........
	60	0.813333	7.49751E-001	9.09282E-005	0.00000E+000	6.81735E-005	5.39641E-002	7.49877E-001	3.57410E+000	9	...........
	61	0.826667	7.53626E-001	9.09428E-005	0.00000E+000	6.85369E-005	5.39641E-002	7.53776E-001	3.57410E+000	9	...........
	62	0.84	7.57459E-001	9.12221E-005	0.00000E+000	6.90970E-005	5.39641E-002	7.57584E-001	3.57410E+000	9	...........
	63	0.853333	7.61243E-001	9.11689E-005	0.00000E+000	6.94017E-005	5.39641E-002	7.61349E-001	3.57410E+000	9	...........
	64	0.866667	7.64945E-001	9.07772E-005	0.00000E+000	6.94396E-005	5.39641E-002	7.65099E-001	3.57410E+000	9	...........
	65	0.88	7.68629E-001	9.10418E-005	0.00000E+000	6.99774E-005	5.39641E-002	7.68781E-001	3.57410E+000	9	...........
	66	0.893333	7.72286E-001	9.09658E-005	0.00000E+000	7.02515E-005	5.39641E-002	7.72426E-001	3.57410E+000	9	...........
	67	0.906667	7.75892E-001	9.09387E-005	0.00000E+000	7.05586E-005	5.39641E-002	7.76009E-001	3.57410E+000	9	...........
	68	0.92	7.79420E-001	9.09470E-005	0.00000E+000	7.08859E-005	5.39641E-002	7.79570E-001	3.57410E+000	9	...........
	69	0.933333	7.82957E-001	9.10137E-005	0.00000E+000	7.12598E-005	5.39641E-002	7.83057E-001	3.57410E+000	9	...........
	70	0.946667	7.86431E-001	9.06032E-005	0.00000E+000	7.12531E-005	5.39641E-002	7.86525E-001	3.57410E+000	9	...........
	71	0.96	7.89828E-001	9.11106E-005	0.00000E+000	7.19617E-005	5.39641E-002	7.89964E-001	3.57410E+000	9	...........
	72	0.97333	7.93265E-001	9.11502E-005	0.00000E+000	7.23062E-005	5.39641E-002	7.93402E-001	3.57410E+000	9	...........
	73	0.98667	7.96616E-001	9.09387E-005	0.00000E+000	7.24432E-005	5.39641E-002	7.96737E-001	3.57410E+000	9	...........
	74	1	7.99930E-001	9.10335E-005	0.00000E+000	7.28204E-005	5.39641E-002	8.00045E-001	3.57410E+000	9	...........
	75	1.01333	8.03217E-001	9.09293E-005	0.00000E+000	7.30360E-005	5.39641E-002	8.03332E-001	3.57410E+000	9	...........
	76	1.02667	8.06437E-001	9.10595E-005	0.00000E+000	7.34338E-005	5.39641E-002	8.06592E-001	3.57410E+000	9	...........
	77	1.04	8.09603E-001	9.10533E-005	0.00000E+000	7.37170E-005	5.39641E-002	8.09763E-001	3.57410E+000	9	...........
	78	1.05333	8.12747E-001	9.10845E-005	0.00000E+000	7.40287E-005	5.39641E-002	8.12910E-001	3.57410E+000	9	...........
	79	1.06667	8.15830E-001	9.08887E-005	0.00000E+000	7.41497E-005	5.39641E-002	8.16008E-001	3.57410E+000	9	...........
	80	1.08	8.18945E-001	9.10679E-005	0.00000E+000	7.45796E-005	5.39641E-002	8.19096E-001	3.57410E+000	9	...........
	81	1.09333	8.22004E-001	9.10606E-005	0.00000E+000	7.48521E-005	5.39641E-002	8.22132E-001	3.57410E+000	9	...........
	82	1.10667	8.25000E-001	9.11450E-005	0.00000E+000	7.51946E-005	5.39641E-002	8.25145E-001	3.57410E+000	9	...........
	83	1.12	8.27981E-001	9.12929E-005	0.00000E+000	7.55888E-005	5.39641E-002	8.28125E-001	3.57410E+000	9	...........
	84	1.13333	8.30932E-001	9.13315E-005	0.00000E+000	7.58902E-005	5.39641E-002	8.31081E-001	3.57410E+000	9	...........
	85	1.14667	8.33843E-001	9.11616E-005	0.00000E+000	7.60145E-005	5.39641E-002	8.34017E-001	3.57410E+000	9	...........
	86	1.16	8.36748E-001	9.11106E-005	0.00000E+000	7.62366E-005	5.39641E-002	8.36913E-001	3.57410E+000	9	...........
	87	1.17333	8.39614E-001	9.08637E-005	0.00000E+000	7.62904E-005	5.39641E-002	8.39786E-001	3.57410E+000	9	...........
	88	1.18667	8.42445E-001	9.10251E-005	0.00000E+000	7.66837E-005	5.39641E-002	8.42628E-001	3.57410E+000	9	...........
	89	1.2	8.45324E-001	9.09428E-005	0.00000E+000	7.68761E-005	5.39641E-002	8.45466E-001	3.57410E+000	9	...........
	90	1.21333	8.48089E-001	9.10949E-005	0.00000E+000	7.72566E-005	5.39641E-002	8.48255E-001	3.57410E+000	9	...........
	91	1.22667	8.50823E-001	9.12450E-005	0.00000E+000	7.76334E-005	5.39641E-002	8.51008E-001	3.57410E+000	9	...........
	92	1.24	8.53573E-001	9.10397E-005	0.00000E+000	7.77091E-005	5.39641E-002	8.53743E-001	3.57410E+000	9	...........
	93	1.25333	8.56260E-001	9.10793E-005	0.00000E+000	7.79876E-005	5.39641E-002	8.56436E-001	3.57410E+000	9	...........
	94	1.26667	8.58944E-001	9.10085E-005	0.00000E+000	7.81712E-005	5.39641E-002	8.59127E-001	3.57410E+000	9	...........
	95	1.28	8.61619E-001	9.10439E-005	0.00000E+000	7.84451E-005	5.39641E-002	8.61789E-001	3.57410E+000	9	...........
	96	1.29333	8.64212E-001	9.10314E-005	0.00000E+000	7.86704E-005	5.39641E-002	8.64387E-001	3.57410E+000	9	...........
	97	1.30667	8.66806E-001	9.09293E-005	0.00000E+000	7.88180E-005	5.39641E-002	8.66983E-001	3.57410E+000	9	...........
	98	1.32	8.69386E-001	9.09407E-005	0.00000E+000	7.90627E-005	5.39641E-002	8.69564E-001	3.57410E+000	9	...........
	99	1.33333	8.71940E-001	9.12658E-005	0.00000E+000	7.95783E-005	5.39641E-002	8.72094E-001	3.57410E+000	9	...........
	100	1.34667	8.74426E-001	9.11595E-005	0.00000E+000	7.97123E-005	5.39641E-002	8.74633E-001	3.57410E+000	9	...........
	101	1.36	8.76913E-001	9.09491E-005	0.00000E+000	7.97544E-005	5.39641E-002	8.77093E-001	3.57410E+000	9	...........
	102	1.37333	8.79358E-001	9.10366E-005	0.00000E+000	8.00537E-005	5.39641E-002	8.79539E-001	3.57410E+000	9	...........
	103	1.38667	8.81792E-001	9.12085E-005	0.00000E+000	8.04270E-005	5.39641E-002	8.81959E-001	3.57410E+000	9	...........
	104	1.4	8.84194E-001	9.10126E-005	0.00000E+000	8.04729E-005	5.39641E-002	8.84386E-001	3.57410E+000	9	...........
	105	1.41333	8.86573E-001	9.10866E-005	0.00000E+000	8.07549E-005	5.39641E-002	8.86764E-001	3.57410E+000	9	...........
	106	1.42667	8.88922E-001	9.11366E-005	0.00000E+000	8.10134E-005	5.39641E-002	8.89105E-001	3.57410E+000	9	...........
	107	1.44	8.91263E-001	9.11366E-005	0.00000E+000	8.12267E-005	5.39641E-002	8.91437E-001	3.57410E+000	9	...........
	108	1.45333	8.93565E-001	9.10387E-005	0.00000E+000	8.13490E-005	5.39641E-002	8.93755E-001	3.57410E+000	9	...........
	109	1.46667	8.95856E-001	9.12064E-005	0.00000E+000	8.17078E-005	5.39641E-002	8.96057E-001	3.57410E+000	9	...........
	110	1.48	8.98107E-001	9.12502E-005	0.00000E+000	8.19525E-005	5.39641E-002	8.98303E-001	3.57410E+000	9	...........
	111	1.49333	9.00338E-001	9.11231E-005	0.00000E+000	8.20416E-005	5.39641E-002	9.00539E-001	3.57410E+000	9	...........
	112	1.50667	9.02566E-001	9.11252E-005	0.00000E+000	8.22465E-005	5.39641E-002	9.02760E-001	3.57410E+000	9	...........
	113	1.52	9.04788E-001	9.10762E-005	0.00000E+000	8.24047E-005	5.39641E-002	9.04947E-001	3.57261E+000	9	...........
	114	1.53333	9.06930E-001	9.10699E-005	0.00000E+000	8.25941E-005	5.39641E-002	9.07123E-001	3.57240E+000	9	...........
	115	1.54667	9.09109E-001	9.08574E-005	0.00000E+000	8.25992E-005	5.39641E-002	9.09272E-001	3.57240E+000	9	...........
	116	1.56	9.11211E-001	9.11825E-005	0.00000E+000	8.30864E-005	5.39641E-002	9.11370E-001	3.57240E+000	9	...........
	117	1.57333	9.13309E-001	9.08574E-005	0.00000E+000	8.29809E-005	5.39641E-002	9.13495E-001	3.57240E+000	9	...........
	118	1.58667	9.15417E-001	9.09793E-005	0.00000E+000	8.32840E-005	5.39641E-002	9.15579E-001	3.57240E+000	9	...........
	119	1.6	9.17477E-001	9.12846E-005	0.00000E+000	8.37515E-005	5.39641E-002	9.17674E-001	3.57240E+000	9	...........
	120	1.61333	9.19544E-001	9.10106E-005	0.00000E+000	8.36882E-005	5.39641E-002	9.19739E-001	3.57240E+000	9	...........
	121	1.62667	9.21658E-001	9.11043E-005	0.00000E+000	8.39671E-005	5.39641E-002	9.21778E-001	3.57240E+000	9	...........
	122	1.64	9.23664E-001	9.07105E-005	0.00000E+000	8.37860E-005	5.39641E-002	9.23818E-001	3.57240E+000	9	...........
	123	1.65333	9.25650E-001	9.13304E-005	0.00000E+000	8.45400E-005	5.39641E-002	9.25809E-001	3.57240E+000	9	...........
	124	1.66667	9.27623E-001	9.11543E-005	0.00000E+000	8.45569E-005	5.39641E-002	9.27798E-001	3.57240E+000	9	...........
	125	1.68	9.29558E-001	9.08803E-005	0.00000E+000	8.44785E-005	5.39641E-002	9.29723E-001	3.57240E+000	9	...........
	126	1.69333	9.31477E-001	9.10460E-005	0.00000E+000	8.48072E-005	5.39641E-002	9.31639E-001	3.57240E+000	9	...........
	127	1.70667	9.33384E-001	9.09751E-005	0.00000E+000	8.49147E-005	5.39641E-002	9.33573E-001	3.57240E+000	9	...........
	128	1.72	9.35271E-001	9.12950E-005	0.00000E+000	8.53855E-005	5.39641E-002	9.35462E-001	3.57240E+000	9	...........
	129	1.73333	9.37144E-001	9.08584E-005	0.00000E+000	8.51474E-005	5.39641E-002	9.37328E-001	3.57240E+000	9	...........
	130	1.74667	9.38980E-001	9.08459E-005	0.00000E+000	8.53025E-005	5.39641E-002	9.39188E-001	3.57240E+000	9	...........
	131	1.76	9.40830E-001	9.09553E-005	0.00000E+000	8.55735E-005	5.39641E-002	9.41019E-001	3.57240E+000	9	...........
	132	1.77333	9.42626E-001	9.13190E-005	0.00000E+000	8.60796E-005	5.39641E-002	9.42799E-001	3.57240E+000	9	...........
	133	1.78667	9.44413E-001	9.10210E-005	0.00000E+000	8.59614E-005	5.39641E-002	9.44604E-001	3.57240E+000	9	...........
	134	1.8	9.46175E-001	9.09689E-005	0.00000E+000	8.60725E-005	5.39641E-002	9.46369E-001	3.57240E+000	9	...........
	135	1.81333	9.47947E-001	9.10772E-005	0.00000E+000	8.63364E-005	5.39641E-002	9.48145E-001	3.57240E+000	9	...........
	136	1.82667	9.49685E-001	9.09876E-005	0.00000E+000	8.64096E-005	5.39641E-002	9.49883E-001	3.57240E+000	9	...........
	137	1.84	9.51416E-001	9.09345E-005	0.00000E+000	8.65165E-005	5.39641E-002	9.51596E-001	3.57240E+000	9	...........
	138	1.85333	9.53120E-001	9.11116E-005	0.00000E+000	8.68403E-005	5.39641E-002	9.53334E-001	3.57240E+000	9	...........
	139	1.86667	9.54801E-001	9.10366E-005	0.00000E+000	8.69218E-005	5.39641E-002	9.55004E-001	3.57240E+000	9	...........
	140	1.88	9.56480E-001	9.11429E-005	0.00000E+000	8.71763E-005	5.39641E-002	9.56663E-001	3.57240E+000	9	...........
	141	1.89333	9.58132E-001	9.12856E-005	0.00000E+000	8.74636E-005	5.39641E-002	9.58333E-001	3.57240E+000	9	...........
	142	1.90667	9.59785E-001	9.11981E-005	0.00000E+000	8.75305E-005	5.39641E-002	9.60001E-001	3.57240E+000	9	...........
	143	1.92	9.61392E-001	9.11095E-005	0.00000E+000	8.75920E-005	5.39641E-002	9.61600E-001	3.57240E+000	9	...........
	144	1.93333	9.62991E-001	9.13888E-005	0.00000E+000	8.80066E-005	5.39641E-002	9.63180E-001	3.57240E+000	9	...........
	145	1.94667	9.64547E-001	9.08741E-005	0.00000E+000	8.76523E-005	5.39641E-002	9.64736E-001	3.57240E+000	9	...........
	146	1.96	9.66130E-001	9.09397E-005	0.00000E+000	8.78596E-005	5.39641E-002	9.66313E-001	3.57240E+000	9	...........
	147	1.97333	9.67687E-001	9.10647E-005	0.00000E+000	8.81221E-005	5.39641E-002	9.67863E-001	3.57240E+000	9	...........
	148	1.98667	9.69208E-001	9.09845E-005	0.00000E+000	8.81829E-005	5.39641E-002	9.69401E-001	3.57240E+000	9	...........
	149	2	9.70704E-001	9.10439E-005	0.00000E+000	8.83767E-005	5.39641E-002	9.70933E-001	3.57240E+000	9	...........
	150	2.01333	9.72241E-001	9.10303E-005	0.00000E+000	8.85034E-005	5.39641E-002	9.72469E-001	3.57240E+000	9	...........
	151	2.02667	9.73778E-001	9.10637E-005	0.00000E+000	8.86758E-005	5.39641E-002	9.73931E-001	3.57240E+000	9	...........
	152	2.04	9.75241E-001	9.10418E-005	0.00000E+000	8.87877E-005	5.39641E-002	9.75393E-001	3.57240E+000	9	...........
	153	2.05333	9.76707E-001	9.11210E-005	0.00000E+000	8.89985E-005	5.39641E-002	9.76869E-001	3.57240E+000	9	...........
	154	2.06667	9.78144E-001	9.08532E-005	0.00000E+000	8.88676E-005	5.39641E-002	9.78321E-001	3.57240E+000	9	...........
	155	2.08	9.79577E-001	9.12096E-005	0.00000E+000	8.93468E-005	5.39641E-002	9.79750E-001	3.57240E+000	9	...........
	156	2.09333	9.80985E-001	9.09605E-005	0.00000E+000	8.92309E-005	5.39641E-002	9.81174E-001	3.57240E+000	9	...........
	157	2.10667	9.82367E-001	9.08157E-005	0.00000E+000	8.92144E-005	5.39641E-002	9.82575E-001	3.57240E+000	9	...........
	158	2.12	9.83718E-001	9.10553E-005	0.00000E+000	8.95727E-005	5.39641E-002	9.83960E-001	3.57240E+000	9	...........
	159	2.13333	9.85122E-001	9.06167E-005	0.00000E+000	8.92685E-005	5.39641E-002	9.85349E-001	3.57240E+000	9	...........
	160	2.14667	9.86484E-001	9.08668E-005	0.00000E+000	8.96386E-005	5.39641E-002	9.86705E-001	3.57240E+000	9	...........
	161	2.16	9.87830E-001	9.10949E-005	0.00000E+000	8.99863E-005	5.39641E-002	9.88060E-001	3.57240E+000	9	...........
	162	2.17333	9.89167E-001	9.11314E-005	0.00000E+000	9.01442E-005	5.39641E-002	9.89392E-001	3.57240E+000	9	...........
	163	2.18667	9.90469E-001	9.11272E-005	0.00000E+000	9.02587E-005	5.39641E-002	9.90676E-001	3.57240E+000	9	...........
	164	2.2	9.91793E-001	9.10679E-005	0.00000E+000	9.03205E-005	5.39641E-002	9.91969E-001	3.57240E+000	9	...........
	165	2.21333	9.93081E-001	9.11304E-005	0.00000E+000	9.04998E-005	5.39641E-002	9.93290E-001	3.57240E+000	9	...........
	166	2.22667	9.94370E-001	9.11210E-005	0.00000E+000	9.06080E-005	5.39641E-002	9.94584E-001	3.57240E+000	9	...........
	167	2.24	9.95668E-001	9.09855E-005	0.00000E+000	9.05914E-005	5.39641E-002	9.95856E-001	3.57240E+000	9	...........
	168	2.25333	9.96924E-001	9.08949E-005	0.00000E+000	9.06153E-005	5.39641E-002	9.97131E-001	3.57240E+000	9	...........
	169	2.26667	9.98185E-001	9.10158E-005	0.00000E+000	9.08506E-005	5.39641E-002	9.98412E-001	3.57240E+000	9	...........
	170	2.28	9.99411E-001	9.08522E-005	0.00000E+000	9.07987E-005	5.39641E-002	9.99632E-001	3.57240E+000	9	...........
	171	2.28167	1.00009E+000	9.10960E-005	0.00000E+000	9.11038E-005	5.39641E-002	1.00029E+000	3.57240E+000	9	...........
STARTTIMEOFFSET	QUANT	1766.191	Start Time Offset (s)
