EXPLAIN
TAG	PWR800_CHARGE
TITLE	LABEL	PWR Cyclic Charge Discharge (Cell) - Charge Step	Test &Identifier
DATE	LABEL	10-7-2017	Date
TIME	LABEL	15:14:15	Time
NOTES	NOTES	3	&Notes...
	supercap test cell
	0.9mg
	6M KOH
PSTAT	PSTAT	IFC5000-01520	Potentiostat
CAPACITY	QUANT	1.00000E-003	Capacity (A-hr)
CELLTYPE	SELECTOR	1	&Cell Type
WORKINGCONNECTION	SELECTOR	0	&Working Lead
MAXCHARGETIME	VARIABLEANDUNITS	1.00000E+002	s	1.00000E+002	second(s)	Max &Charge Time
CHARGECURRENT	QUANT	9.00000E-005	&Charge Current (A) 
VOLTAGEFINISH	TWOPARAM	F	1.00000E-003	3.60000E+003	&Voltage Finish	 I (A) < 	Max Time(s)
SAMPLETIME	QUANT	1.00000E-002	Sa&mple Period (s)
CHARGESTOPAT1	MULTIPARAM	4	1.00000E+000	Charge Stop At &1	Voltage > Limit	V
CHARGESTOPAT2	MULTIPARAM	0	0.00000E+000	Charge Stop At &2	None	N/A
AESBHCSELECTOR	TOGGLE	F	Save Both Half Cells
IRCOMP	TOGGLE	F	IR &Measure
EOC	QUANT	0	Open Circuit (V)
SEQUENCER	TOGGLE	TRUE	Run as Sequence
PSTATMODEL	IQUANT	53	Pstat Model
PSTATSECTION	LABEL	IFC5000-01520	Pstat Section
PSTATSERIALNO	LABEL	01520	Pstat Serial Number
CTRLMODE	IQUANT	0	Control Mode
ELECTROMETER	IQUANT	1	RE=0 or CS=1
IESTAB	IQUANT	0	I/E Stability
CASPEED	IQUANT	4	Control Amp Speed
CONVENTION	IQUANT	1	Current Convention
ICHRANGE	IQUANT	2	Ich Range
ICHRANGEMODE	TOGGLE	T	Ich Auto Range
ICHOFFSETENABLE	TOGGLE	F	Ich Offset Enable
ICHOFFSET	QUANT	0	Ich Offset (V)
ICHFILTER	IQUANT	1	Ich Filter
VCHRANGE	IQUANT	2	Vch Range
VCHRANGEMODE	TOGGLE	T	Vch Auto Range
VCHOFFSETENABLE	TOGGLE	F	Vch Offset Enable
VCHOFFSET	QUANT	0	Vch Offset (V)
VCHFILTER	IQUANT	1	Vch Filter
IERANGELOWERLIMIT	IQUANT	9	I/E Range Lower Limit
IERANGEMODE	TOGGLE	F	I/E AutoRange
IERANGE	IQUANT	9	I/E Range
ACHSELECT	IQUANT	1	Ach Select
ACHRANGE	IQUANT	2	Ach Range
ACHOFFSETENABLE	TOGGLE	F	Ach Offset Enable
ACHOFFSET	QUANT	0	Ach Offset (V)
ACHFILTER	IQUANT	1	Ach Filter
CABLEID	IQUANT	14	Cable ID
DCCALDATE	LABEL	5-7-2017	DC Calibration Date
ACCALDATE	LABEL	12/3/2015	AC Calibration Date
FRAMEWORKVERSION	QUANT	7.01	Framework Version
INSTRUMENTVERSION	LABEL	4.00	Instrument Version
CURVE	TABLE	183
	Pt	T	Vf	Im	Vu	Pwr	Sig	Ach	Temp	IERange	Over
	#	s	V	A	V	W	V	V	deg C	#	bits
	0	0.013333	2.88752E-001	9.09105E-005	0.00000E+000	2.62506E-005	5.39641E-002	2.88797E-001	3.57220E+000	9	...........
	1	0.026667	3.07997E-001	9.11127E-005	0.00000E+000	2.80624E-005	5.39641E-002	3.08034E-001	3.57220E+000	9	...........
	2	0.04	3.25754E-001	9.10033E-005	0.00000E+000	2.96447E-005	5.39641E-002	3.25793E-001	3.57220E+000	9	...........
	3	0.053333	3.42303E-001	9.11773E-005	0.00000E+000	3.12103E-005	5.39641E-002	3.42343E-001	3.57220E+000	9	...........
	4	0.066667	3.57829E-001	9.10022E-005	0.00000E+000	3.25632E-005	5.39641E-002	3.57867E-001	3.57220E+000	9	...........
	5	0.08	3.72472E-001	9.09491E-005	0.00000E+000	3.38760E-005	5.39641E-002	3.72506E-001	3.57220E+000	9	...........
	6	0.093333	3.86340E-001	9.10012E-005	0.00000E+000	3.51574E-005	5.39641E-002	3.86385E-001	3.57220E+000	9	...........
	7	0.106667	3.99547E-001	9.09022E-005	0.00000E+000	3.63197E-005	5.39641E-002	3.99584E-001	3.57220E+000	9	...........
	8	0.12	4.12129E-001	9.10658E-005	0.00000E+000	3.75309E-005	5.39641E-002	4.12173E-001	3.57220E+000	9	...........
	9	0.133333	4.24167E-001	9.09762E-005	0.00000E+000	3.85891E-005	5.39641E-002	4.24211E-001	3.57220E+000	9	...........
	10	0.146667	4.35715E-001	9.10022E-005	0.00000E+000	3.96511E-005	5.39641E-002	4.35756E-001	3.57220E+000	9	...........
	11	0.16	4.46797E-001	9.08272E-005	0.00000E+000	4.05813E-005	5.39641E-002	4.46847E-001	3.57220E+000	9	...........
	12	0.173333	4.57450E-001	9.10887E-005	0.00000E+000	4.16685E-005	5.39641E-002	4.57499E-001	3.57220E+000	9	...........
	13	0.186667	4.67721E-001	9.11074E-005	0.00000E+000	4.26128E-005	5.39641E-002	4.67772E-001	3.57220E+000	9	...........
	14	0.2	4.77639E-001	9.10585E-005	0.00000E+000	4.34931E-005	5.39641E-002	4.77692E-001	3.57220E+000	9	...........
	15	0.213333	4.87223E-001	9.08209E-005	0.00000E+000	4.42500E-005	5.39641E-002	4.87278E-001	3.57220E+000	9	...........
	16	0.226667	4.96487E-001	9.11054E-005	0.00000E+000	4.52326E-005	5.39641E-002	4.96547E-001	3.57220E+000	9	...........
	17	0.24	5.05472E-001	9.09574E-005	0.00000E+000	4.59764E-005	5.39641E-002	5.05530E-001	3.57220E+000	9	...........
	18	0.253333	5.14188E-001	9.09460E-005	0.00000E+000	4.67633E-005	5.39641E-002	5.14249E-001	3.57220E+000	9	...........
	19	0.266667	5.22658E-001	9.12512E-005	0.00000E+000	4.76932E-005	5.39641E-002	5.22719E-001	3.57220E+000	9	...........
	20	0.28	5.30872E-001	9.12679E-005	0.00000E+000	4.84515E-005	5.39641E-002	5.30943E-001	3.57220E+000	9	...........
	21	0.293333	5.38813E-001	9.12971E-005	0.00000E+000	4.91921E-005	5.39641E-002	5.38890E-001	3.57220E+000	9	...........
	22	0.306667	5.46586E-001	9.13617E-005	0.00000E+000	4.99370E-005	5.39641E-002	5.46692E-001	3.57220E+000	9	...........
	23	0.32	5.54169E-001	9.10856E-005	0.00000E+000	5.04768E-005	5.39641E-002	5.54275E-001	3.57211E+000	9	...........
	24	0.333333	5.61580E-001	9.12168E-005	0.00000E+000	5.12256E-005	5.39641E-002	5.61700E-001	3.57210E+000	9	...........
	25	0.346667	5.68830E-001	9.10533E-005	0.00000E+000	5.17939E-005	5.39641E-002	5.68918E-001	3.57210E+000	9	...........
	26	0.36	5.75848E-001	9.11116E-005	0.00000E+000	5.24664E-005	5.39641E-002	5.75961E-001	3.57210E+000	9	...........
	27	0.373333	5.82705E-001	9.11825E-005	0.00000E+000	5.31325E-005	5.39641E-002	5.82816E-001	3.57210E+000	9	...........
	28	0.386667	5.89429E-001	9.08709E-005	0.00000E+000	5.35620E-005	5.39641E-002	5.89533E-001	3.57210E+000	9	...........
	29	0.4	5.95949E-001	9.13075E-005	0.00000E+000	5.44146E-005	5.39641E-002	5.96085E-001	3.57210E+000	9	...........
	30	0.413333	6.02345E-001	9.10793E-005	0.00000E+000	5.48612E-005	5.39641E-002	6.02468E-001	3.57210E+000	9	...........
	31	0.426667	6.08583E-001	9.12502E-005	0.00000E+000	5.55333E-005	5.39641E-002	6.08698E-001	3.57210E+000	9	...........
	32	0.44	6.14746E-001	9.08501E-005	0.00000E+000	5.58497E-005	5.39641E-002	6.14851E-001	3.57210E+000	9	...........
	33	0.453333	6.20766E-001	9.12731E-005	0.00000E+000	5.66592E-005	5.39641E-002	6.20839E-001	3.57210E+000	9	...........
	34	0.466667	6.26627E-001	9.09637E-005	0.00000E+000	5.70003E-005	5.39641E-002	6.26711E-001	3.57210E+000	9	...........
	35	0.48	6.32371E-001	9.13273E-005	0.00000E+000	5.77528E-005	5.39641E-002	6.32441E-001	3.57210E+000	9	...........
	36	0.493333	6.38018E-001	9.09220E-005	0.00000E+000	5.80099E-005	5.39641E-002	6.38084E-001	3.57210E+000	9	...........
	37	0.506667	6.43551E-001	9.12179E-005	0.00000E+000	5.87033E-005	5.39641E-002	6.43606E-001	3.57210E+000	9	...........
	38	0.52	6.48938E-001	9.09074E-005	0.00000E+000	5.89932E-005	5.39641E-002	6.49009E-001	3.57210E+000	9	...........
	39	0.533333	6.54244E-001	9.13325E-005	0.00000E+000	5.97538E-005	5.39641E-002	6.54325E-001	3.57210E+000	9	...........
	40	0.546667	6.59468E-001	9.08782E-005	0.00000E+000	5.99313E-005	5.39641E-002	6.59533E-001	3.57210E+000	9	...........
	41	0.56	6.64577E-001	9.09012E-005	0.00000E+000	6.04108E-005	5.39641E-002	6.64693E-001	3.57210E+000	9	...........
	42	0.573333	6.69615E-001	9.13190E-005	0.00000E+000	6.11486E-005	5.39641E-002	6.69698E-001	3.57210E+000	9	...........
	43	0.586667	6.74531E-001	9.12471E-005	0.00000E+000	6.15489E-005	5.39641E-002	6.74638E-001	3.57210E+000	9	...........
	44	0.6	6.79409E-001	9.10491E-005	0.00000E+000	6.18596E-005	5.39641E-002	6.79510E-001	3.57210E+000	9	...........
	45	0.613333	6.84148E-001	9.10616E-005	0.00000E+000	6.22996E-005	5.39641E-002	6.84255E-001	3.57210E+000	9	...........
	46	0.626667	6.88814E-001	9.13742E-005	0.00000E+000	6.29398E-005	5.39641E-002	6.88940E-001	3.57210E+000	9	...........
	47	0.64	6.93420E-001	9.12012E-005	0.00000E+000	6.32408E-005	5.39641E-002	6.93514E-001	3.57210E+000	9	...........
	48	0.653333	6.97929E-001	9.13346E-005	0.00000E+000	6.37451E-005	5.39641E-002	6.98059E-001	3.57210E+000	9	...........
	49	0.666667	7.02411E-001	9.10199E-005	0.00000E+000	6.39334E-005	5.39641E-002	7.02514E-001	3.57210E+000	9	...........
	50	0.68	7.06811E-001	9.10012E-005	0.00000E+000	6.43207E-005	5.39641E-002	7.06905E-001	3.57210E+000	9	...........
	51	0.693333	7.11115E-001	9.10283E-005	0.00000E+000	6.47316E-005	5.39641E-002	7.11223E-001	3.57210E+000	9	...........
	52	0.706667	7.15372E-001	9.12408E-005	0.00000E+000	6.52711E-005	5.39641E-002	7.15489E-001	3.57210E+000	9	...........
	53	0.72	7.19597E-001	9.12669E-005	0.00000E+000	6.56754E-005	5.39641E-002	7.19699E-001	3.57210E+000	9	...........
	54	0.733333	7.23713E-001	9.11366E-005	0.00000E+000	6.59567E-005	5.39641E-002	7.23820E-001	3.57210E+000	9	...........
	55	0.746667	7.27772E-001	9.10783E-005	0.00000E+000	6.62842E-005	5.39641E-002	7.27886E-001	3.57210E+000	9	...........
	56	0.76	7.31767E-001	9.12398E-005	0.00000E+000	6.67662E-005	5.39641E-002	7.31913E-001	3.57210E+000	9	...........
	57	0.773333	7.35695E-001	9.12471E-005	0.00000E+000	6.71300E-005	5.39641E-002	7.35813E-001	3.57210E+000	9	...........
	58	0.786667	7.39556E-001	9.13565E-005	0.00000E+000	6.75632E-005	5.39641E-002	7.39689E-001	3.57210E+000	9	...........
	59	0.8	7.43449E-001	9.10647E-005	0.00000E+000	6.77020E-005	5.39641E-002	7.43555E-001	3.57210E+000	9	...........
	60	0.813333	7.47196E-001	9.10981E-005	0.00000E+000	6.80681E-005	5.39641E-002	7.47313E-001	3.57210E+000	9	...........
	61	0.826667	7.50929E-001	9.11095E-005	0.00000E+000	6.84168E-005	5.39641E-002	7.51042E-001	3.57210E+000	9	...........
	62	0.84	7.54600E-001	9.13554E-005	0.00000E+000	6.89368E-005	5.39641E-002	7.54732E-001	3.57210E+000	9	...........
	63	0.853333	7.58243E-001	9.09793E-005	0.00000E+000	6.89844E-005	5.39641E-002	7.58350E-001	3.57210E+000	9	...........
	64	0.866667	7.61794E-001	9.13023E-005	0.00000E+000	6.95535E-005	5.39641E-002	7.61882E-001	3.57210E+000	9	...........
	65	0.88	7.65334E-001	9.11564E-005	0.00000E+000	6.97651E-005	5.39641E-002	7.65444E-001	3.57210E+000	9	...........
	66	0.893333	7.68831E-001	9.10929E-005	0.00000E+000	7.00350E-005	5.39641E-002	7.68974E-001	3.57210E+000	9	...........
	67	0.906667	7.72288E-001	9.09918E-005	0.00000E+000	7.02719E-005	5.39641E-002	7.72386E-001	3.57210E+000	9	...........
	68	0.92	7.75672E-001	9.11418E-005	0.00000E+000	7.06961E-005	5.39641E-002	7.75779E-001	3.57210E+000	9	...........
	69	0.933333	7.79021E-001	9.11720E-005	0.00000E+000	7.10249E-005	5.39641E-002	7.79137E-001	3.57210E+000	9	...........
	70	0.946667	7.82364E-001	9.13242E-005	0.00000E+000	7.14488E-005	5.39641E-002	7.82460E-001	3.57210E+000	9	...........
	71	0.96	7.85610E-001	9.11210E-005	0.00000E+000	7.15856E-005	5.39641E-002	7.85705E-001	3.57210E+000	9	...........
	72	0.97333	7.88872E-001	9.11700E-005	0.00000E+000	7.19214E-005	5.39641E-002	7.88970E-001	3.57210E+000	9	...........
	73	0.98667	7.92079E-001	9.11022E-005	0.00000E+000	7.21602E-005	5.39641E-002	7.92194E-001	3.57210E+000	9	...........
	74	1	7.95292E-001	9.11804E-005	0.00000E+000	7.25150E-005	5.39641E-002	7.95370E-001	3.57210E+000	9	...........
	75	1.01333	7.98418E-001	9.11918E-005	0.00000E+000	7.28092E-005	5.39641E-002	7.98478E-001	3.57210E+000	9	...........
	76	1.02667	8.01493E-001	9.09991E-005	0.00000E+000	7.29351E-005	5.39641E-002	8.01595E-001	3.57210E+000	9	...........
	77	1.04	8.04538E-001	9.12273E-005	0.00000E+000	7.33958E-005	5.39641E-002	8.04643E-001	3.57210E+000	9	...........
	78	1.05333	8.07537E-001	9.12491E-005	0.00000E+000	7.36871E-005	5.39641E-002	8.07666E-001	3.57210E+000	9	...........
	79	1.06667	8.10508E-001	9.10064E-005	0.00000E+000	7.37614E-005	5.39641E-002	8.10641E-001	3.57210E+000	9	...........
	80	1.08	8.13472E-001	9.10564E-005	0.00000E+000	7.40718E-005	5.39641E-002	8.13611E-001	3.57210E+000	9	...........
	81	1.09333	8.16382E-001	9.08532E-005	0.00000E+000	7.41709E-005	5.39641E-002	8.16552E-001	3.57210E+000	9	...........
	82	1.10667	8.19304E-001	9.10199E-005	0.00000E+000	7.45730E-005	5.39641E-002	8.19455E-001	3.57210E+000	9	...........
	83	1.12	8.22144E-001	9.13064E-005	0.00000E+000	7.50670E-005	5.39641E-002	8.22308E-001	3.57210E+000	9	...........
	84	1.13333	8.24969E-001	9.09876E-005	0.00000E+000	7.50620E-005	5.39641E-002	8.25128E-001	3.57210E+000	9	...........
	85	1.14667	8.27747E-001	9.10074E-005	0.00000E+000	7.53312E-005	5.39641E-002	8.27865E-001	3.57210E+000	9	...........
	86	1.16	8.30502E-001	9.08241E-005	0.00000E+000	7.54296E-005	5.39641E-002	8.30621E-001	3.57210E+000	9	...........
	87	1.17333	8.33248E-001	9.10887E-005	0.00000E+000	7.58995E-005	5.39641E-002	8.33372E-001	3.57210E+000	9	...........
	88	1.18667	8.35949E-001	9.11116E-005	0.00000E+000	7.61647E-005	5.39641E-002	8.36063E-001	3.57210E+000	9	...........
	89	1.2	8.38633E-001	9.11762E-005	0.00000E+000	7.64633E-005	5.39641E-002	8.38738E-001	3.57210E+000	9	...........
	90	1.21333	8.41270E-001	9.09168E-005	0.00000E+000	7.64856E-005	5.39641E-002	8.41393E-001	3.57210E+000	9	...........
	91	1.22667	8.43898E-001	9.09418E-005	0.00000E+000	7.67456E-005	5.39641E-002	8.44063E-001	3.57210E+000	9	...........
	92	1.24	8.46517E-001	9.10585E-005	0.00000E+000	7.70825E-005	5.39641E-002	8.46653E-001	3.57210E+000	9	...........
	93	1.25333	8.49061E-001	9.07657E-005	0.00000E+000	7.70657E-005	5.39641E-002	8.49242E-001	3.57210E+000	9	...........
	94	1.26667	8.51619E-001	9.11043E-005	0.00000E+000	7.75861E-005	5.39641E-002	8.51748E-001	3.57210E+000	9	...........
	95	1.28	8.54080E-001	9.10647E-005	0.00000E+000	7.77765E-005	5.39641E-002	8.54263E-001	3.57210E+000	9	...........
	96	1.29333	8.56568E-001	9.14294E-005	0.00000E+000	7.83155E-005	5.39641E-002	8.56738E-001	3.57210E+000	9	...........
	97	1.30667	8.59009E-001	9.11304E-005	0.00000E+000	7.82818E-005	5.39641E-002	8.59208E-001	3.57210E+000	9	...........
	98	1.32	8.61451E-001	9.12096E-005	0.00000E+000	7.85726E-005	5.39641E-002	8.61619E-001	3.57184E+000	9	...........
	99	1.33333	8.63828E-001	9.11741E-005	0.00000E+000	7.87588E-005	5.39641E-002	8.63998E-001	3.57180E+000	9	...........
	100	1.34667	8.66178E-001	9.13242E-005	0.00000E+000	7.91030E-005	5.39641E-002	8.66351E-001	3.57180E+000	9	...........
	101	1.36	8.68560E-001	9.11887E-005	0.00000E+000	7.92029E-005	5.39641E-002	8.68712E-001	3.57180E+000	9	...........
	102	1.37333	8.70905E-001	9.09189E-005	0.00000E+000	7.91817E-005	5.39641E-002	8.71029E-001	3.57180E+000	9	...........
	103	1.38667	8.73228E-001	9.10460E-005	0.00000E+000	7.95039E-005	5.39641E-002	8.73371E-001	3.57180E+000	9	...........
	104	1.4	8.75493E-001	9.11585E-005	0.00000E+000	7.98086E-005	5.39641E-002	8.75662E-001	3.57180E+000	9	...........
	105	1.41333	8.77755E-001	9.12731E-005	0.00000E+000	8.01154E-005	5.39641E-002	8.77909E-001	3.57180E+000	9	...........
	106	1.42667	8.80007E-001	9.09751E-005	0.00000E+000	8.00587E-005	5.39641E-002	8.80171E-001	3.57180E+000	9	...........
	107	1.44	8.82230E-001	9.11314E-005	0.00000E+000	8.03989E-005	5.39641E-002	8.82394E-001	3.57180E+000	9	...........
	108	1.45333	8.84435E-001	9.10439E-005	0.00000E+000	8.05224E-005	5.39641E-002	8.84589E-001	3.57180E+000	9	...........
	109	1.46667	8.86623E-001	9.12252E-005	0.00000E+000	8.08823E-005	5.39641E-002	8.86761E-001	3.57180E+000	9	...........
	110	1.48	8.88791E-001	9.10564E-005	0.00000E+000	8.09301E-005	5.39641E-002	8.88928E-001	3.57180E+000	9	...........
	111	1.49333	8.90923E-001	9.12408E-005	0.00000E+000	8.12885E-005	5.39641E-002	8.91054E-001	3.57180E+000	9	...........
	112	1.50667	8.93020E-001	9.12835E-005	0.00000E+000	8.15180E-005	5.39641E-002	8.93151E-001	3.57180E+000	9	...........
	113	1.52	8.95132E-001	9.10752E-005	0.00000E+000	8.15243E-005	5.39641E-002	8.95300E-001	3.57180E+000	9	...........
	114	1.53333	8.97236E-001	9.13273E-005	0.00000E+000	8.19421E-005	5.39641E-002	8.97394E-001	3.57180E+000	9	...........
	115	1.54667	8.99271E-001	9.10574E-005	0.00000E+000	8.18853E-005	5.39641E-002	8.99428E-001	3.57180E+000	9	...........
	116	1.56	9.01285E-001	9.10960E-005	0.00000E+000	8.21034E-005	5.39641E-002	9.01490E-001	3.57180E+000	9	...........
	117	1.57333	9.03310E-001	9.11345E-005	0.00000E+000	8.23228E-005	5.39641E-002	9.03502E-001	3.57180E+000	9	...........
	118	1.58667	9.05296E-001	9.11470E-005	0.00000E+000	8.25151E-005	5.39641E-002	9.05482E-001	3.57180E+000	9	...........
	119	1.6	9.07269E-001	9.09855E-005	0.00000E+000	8.25484E-005	5.39641E-002	9.07474E-001	3.57180E+000	9	...........
	120	1.61333	9.09256E-001	9.11012E-005	0.00000E+000	8.28343E-005	5.39641E-002	9.09442E-001	3.57180E+000	9	...........
	121	1.62667	9.11223E-001	9.11970E-005	0.00000E+000	8.31009E-005	5.39641E-002	9.11384E-001	3.57180E+000	9	...........
	122	1.64	9.13141E-001	9.10835E-005	0.00000E+000	8.31721E-005	5.39641E-002	9.13323E-001	3.57180E+000	9	...........
	123	1.65333	9.15072E-001	9.12200E-005	0.00000E+000	8.34729E-005	5.39641E-002	9.15249E-001	3.57180E+000	9	...........
	124	1.66667	9.16937E-001	9.10949E-005	0.00000E+000	8.35283E-005	5.39641E-002	9.17134E-001	3.57180E+000	9	...........
	125	1.68	9.18796E-001	9.10876E-005	0.00000E+000	8.36910E-005	5.39641E-002	9.19003E-001	3.57180E+000	9	...........
	126	1.69333	9.20677E-001	9.11929E-005	0.00000E+000	8.39592E-005	5.39641E-002	9.20837E-001	3.57180E+000	9	...........
	127	1.70667	9.22561E-001	9.10929E-005	0.00000E+000	8.40387E-005	5.39641E-002	9.22700E-001	3.57180E+000	9	...........
	128	1.72	9.24367E-001	9.11512E-005	0.00000E+000	8.42572E-005	5.39641E-002	9.24495E-001	3.57180E+000	9	...........
	129	1.73333	9.26175E-001	9.11668E-005	0.00000E+000	8.44364E-005	5.39641E-002	9.26300E-001	3.57180E+000	9	...........
	130	1.74667	9.27961E-001	9.10449E-005	0.00000E+000	8.44861E-005	5.39641E-002	9.28105E-001	3.57180E+000	9	...........
	131	1.76	9.29716E-001	9.08314E-005	0.00000E+000	8.44474E-005	5.39641E-002	9.29824E-001	3.57180E+000	9	...........
	132	1.77333	9.31436E-001	9.08511E-005	0.00000E+000	8.46220E-005	5.39641E-002	9.31599E-001	3.57180E+000	9	...........
	133	1.78667	9.33153E-001	9.08803E-005	0.00000E+000	8.48052E-005	5.39641E-002	9.33298E-001	3.57180E+000	9	...........
	134	1.8	9.34867E-001	9.10647E-005	0.00000E+000	8.51334E-005	5.39641E-002	9.35017E-001	3.57180E+000	9	...........
	135	1.81333	9.36521E-001	9.10804E-005	0.00000E+000	8.52987E-005	5.39641E-002	9.36707E-001	3.57180E+000	9	...........
	136	1.82667	9.38209E-001	9.09564E-005	0.00000E+000	8.53361E-005	5.39641E-002	9.38368E-001	3.57180E+000	9	...........
	137	1.84	9.39884E-001	9.10845E-005	0.00000E+000	8.56089E-005	5.39641E-002	9.40035E-001	3.57180E+000	9	...........
	138	1.85333	9.41503E-001	9.11012E-005	0.00000E+000	8.57721E-005	5.39641E-002	9.41686E-001	3.57180E+000	9	...........
	139	1.86667	9.43119E-001	9.08855E-005	0.00000E+000	8.57158E-005	5.39641E-002	9.43289E-001	3.57180E+000	9	...........
	140	1.88	9.44743E-001	9.11887E-005	0.00000E+000	8.61499E-005	5.39641E-002	9.44930E-001	3.57180E+000	9	...........
	141	1.89333	9.46368E-001	9.09824E-005	0.00000E+000	8.61028E-005	5.39641E-002	9.46539E-001	3.57180E+000	9	...........
	142	1.90667	9.47964E-001	9.13221E-005	0.00000E+000	8.65701E-005	5.39641E-002	9.48136E-001	3.57180E+000	9	...........
	143	1.92	9.49530E-001	9.13262E-005	0.00000E+000	8.67170E-005	5.39641E-002	9.49699E-001	3.57180E+000	9	...........
	144	1.93333	9.51092E-001	9.14033E-005	0.00000E+000	8.69330E-005	5.39641E-002	9.51253E-001	3.57180E+000	9	...........
	145	1.94667	9.52616E-001	9.10856E-005	0.00000E+000	8.67696E-005	5.39641E-002	9.52794E-001	3.57180E+000	9	...........
	146	1.96	9.54137E-001	9.10418E-005	0.00000E+000	8.68663E-005	5.39641E-002	9.54306E-001	3.57180E+000	9	...........
	147	1.97333	9.55648E-001	9.11366E-005	0.00000E+000	8.70946E-005	5.39641E-002	9.55796E-001	3.57180E+000	9	...........
	148	1.98667	9.57133E-001	9.11648E-005	0.00000E+000	8.72568E-005	5.39641E-002	9.57268E-001	3.57180E+000	9	...........
	149	2	9.58603E-001	9.12481E-005	0.00000E+000	8.74707E-005	5.39641E-002	9.58758E-001	3.57180E+000	9	...........
	150	2.01333	9.60065E-001	9.10960E-005	0.00000E+000	8.74581E-005	5.39641E-002	9.60234E-001	3.57180E+000	9	...........
	151	2.02667	9.61498E-001	9.11658E-005	0.00000E+000	8.76557E-005	5.39641E-002	9.61658E-001	3.57180E+000	9	...........
	152	2.04	9.62927E-001	9.10491E-005	0.00000E+000	8.76737E-005	5.39641E-002	9.63111E-001	3.57180E+000	9	...........
	153	2.05333	9.64365E-001	9.11762E-005	0.00000E+000	8.79272E-005	5.39641E-002	9.64546E-001	3.57180E+000	9	...........
	154	2.06667	9.65763E-001	9.12700E-005	0.00000E+000	8.81452E-005	5.39641E-002	9.65946E-001	3.57180E+000	9	...........
	155	2.08	9.67161E-001	9.10522E-005	0.00000E+000	8.80622E-005	5.39641E-002	9.67335E-001	3.57180E+000	9	...........
	156	2.09333	9.68516E-001	9.12189E-005	0.00000E+000	8.83470E-005	5.39641E-002	9.68719E-001	3.57180E+000	9	...........
	157	2.10667	9.69889E-001	9.08876E-005	0.00000E+000	8.81509E-005	5.39641E-002	9.70081E-001	3.57180E+000	9	...........
	158	2.12	9.71249E-001	9.12148E-005	0.00000E+000	8.85923E-005	5.39641E-002	9.71466E-001	3.57180E+000	9	...........
	159	2.13333	9.72638E-001	9.12450E-005	0.00000E+000	8.87484E-005	5.39641E-002	9.72809E-001	3.57180E+000	9	...........
	160	2.14667	9.73981E-001	9.11314E-005	0.00000E+000	8.87603E-005	5.39641E-002	9.74163E-001	3.57180E+000	9	...........
	161	2.16	9.75306E-001	9.10616E-005	0.00000E+000	8.88129E-005	5.39641E-002	9.75465E-001	3.57180E+000	9	...........
	162	2.17333	9.76609E-001	9.10929E-005	0.00000E+000	8.89621E-005	5.39641E-002	9.76779E-001	3.57180E+000	9	...........
	163	2.18667	9.77918E-001	9.09626E-005	0.00000E+000	8.89540E-005	5.39641E-002	9.78069E-001	3.57180E+000	9	...........
	164	2.2	9.79231E-001	9.11220E-005	0.00000E+000	8.92295E-005	5.39641E-002	9.79340E-001	3.57180E+000	9	...........
	165	2.21333	9.80473E-001	9.09647E-005	0.00000E+000	8.91884E-005	5.39641E-002	9.80598E-001	3.57180E+000	9	...........
	166	2.22667	9.81709E-001	9.11325E-005	0.00000E+000	8.94656E-005	5.39641E-002	9.81861E-001	3.57180E+000	9	...........
	167	2.24	9.82972E-001	9.12148E-005	0.00000E+000	8.96616E-005	5.39641E-002	9.83122E-001	3.57180E+000	9	...........
	168	2.25333	9.84233E-001	9.09397E-005	0.00000E+000	8.95058E-005	5.39641E-002	9.84401E-001	3.57180E+000	9	...........
	169	2.26667	9.85484E-001	9.09918E-005	0.00000E+000	8.96710E-005	5.39641E-002	9.85657E-001	3.57180E+000	9	...........
	170	2.28	9.86702E-001	9.08939E-005	0.00000E+000	8.96852E-005	5.39641E-002	9.86872E-001	3.57180E+000	9	...........
	171	2.29333	9.87897E-001	9.09126E-005	0.00000E+000	8.98123E-005	5.39641E-002	9.88045E-001	3.57180E+000	9	...........
	172	2.30667	9.89120E-001	9.12887E-005	0.00000E+000	9.02955E-005	5.39641E-002	9.89275E-001	3.57180E+000	9	...........
	173	2.32	9.90296E-001	9.11616E-005	0.00000E+000	9.02770E-005	5.39641E-002	9.90456E-001	3.57189E+000	9	...........
	174	2.33333	9.91464E-001	9.13606E-005	0.00000E+000	9.05808E-005	5.39641E-002	9.91612E-001	3.57190E+000	9	...........
	175	2.34667	9.92615E-001	9.12981E-005	0.00000E+000	9.06238E-005	5.39641E-002	9.92777E-001	3.57190E+000	9	...........
	176	2.36	9.93765E-001	9.11033E-005	0.00000E+000	9.05352E-005	5.39641E-002	9.93925E-001	3.57190E+000	9	...........
	177	2.37333	9.94957E-001	9.11158E-005	0.00000E+000	9.06563E-005	5.39641E-002	9.95122E-001	3.57190E+000	9	...........
	178	2.38667	9.96100E-001	9.13012E-005	0.00000E+000	9.09451E-005	5.39641E-002	9.96262E-001	3.57190E+000	9	...........
	179	2.4	9.97199E-001	9.10908E-005	0.00000E+000	9.08356E-005	5.39641E-002	9.97396E-001	3.57190E+000	9	...........
	180	2.41333	9.98337E-001	9.10751E-005	0.00000E+000	9.09237E-005	5.39641E-002	9.98510E-001	3.57190E+000	9	...........
	181	2.42667	9.99413E-001	9.09616E-005	0.00000E+000	9.09082E-005	5.39641E-002	9.99600E-001	3.57190E+000	9	...........
	182	2.42833	1.00006E+000	9.15127E-005	0.00000E+000	9.15179E-005	5.39641E-002	1.00023E+000	3.57190E+000	9	...........
STARTTIMEOFFSET	QUANT	762.0714	Start Time Offset (s)
