EXPLAIN
TAG	PWR800_CHARGE
TITLE	LABEL	PWR Cyclic Charge Discharge (Cell) - Charge Step	Test &Identifier
DATE	LABEL	10-7-2017	Date
TIME	LABEL	15:20:41	Time
NOTES	NOTES	3	&Notes...
	supercap test cell
	0.9mg
	6M KOH
PSTAT	PSTAT	IFC5000-01520	Potentiostat
CAPACITY	QUANT	1.00000E-003	Capacity (A-hr)
CELLTYPE	SELECTOR	1	&Cell Type
WORKINGCONNECTION	SELECTOR	0	&Working Lead
MAXCHARGETIME	VARIABLEANDUNITS	1.00000E+002	s	1.00000E+002	second(s)	Max &Charge Time
CHARGECURRENT	QUANT	9.00000E-005	&Charge Current (A) 
VOLTAGEFINISH	TWOPARAM	F	1.00000E-003	3.60000E+003	&Voltage Finish	 I (A) < 	Max Time(s)
SAMPLETIME	QUANT	1.00000E-002	Sa&mple Period (s)
CHARGESTOPAT1	MULTIPARAM	4	1.00000E+000	Charge Stop At &1	Voltage > Limit	V
CHARGESTOPAT2	MULTIPARAM	0	0.00000E+000	Charge Stop At &2	None	N/A
AESBHCSELECTOR	TOGGLE	F	Save Both Half Cells
IRCOMP	TOGGLE	F	IR &Measure
EOC	QUANT	0	Open Circuit (V)
SEQUENCER	TOGGLE	TRUE	Run as Sequence
PSTATMODEL	IQUANT	53	Pstat Model
PSTATSECTION	LABEL	IFC5000-01520	Pstat Section
PSTATSERIALNO	LABEL	01520	Pstat Serial Number
CTRLMODE	IQUANT	0	Control Mode
ELECTROMETER	IQUANT	1	RE=0 or CS=1
IESTAB	IQUANT	0	I/E Stability
CASPEED	IQUANT	4	Control Amp Speed
CONVENTION	IQUANT	1	Current Convention
ICHRANGE	IQUANT	2	Ich Range
ICHRANGEMODE	TOGGLE	T	Ich Auto Range
ICHOFFSETENABLE	TOGGLE	F	Ich Offset Enable
ICHOFFSET	QUANT	0	Ich Offset (V)
ICHFILTER	IQUANT	1	Ich Filter
VCHRANGE	IQUANT	2	Vch Range
VCHRANGEMODE	TOGGLE	T	Vch Auto Range
VCHOFFSETENABLE	TOGGLE	F	Vch Offset Enable
VCHOFFSET	QUANT	0	Vch Offset (V)
VCHFILTER	IQUANT	1	Vch Filter
IERANGELOWERLIMIT	IQUANT	9	I/E Range Lower Limit
IERANGEMODE	TOGGLE	F	I/E AutoRange
IERANGE	IQUANT	9	I/E Range
ACHSELECT	IQUANT	1	Ach Select
ACHRANGE	IQUANT	2	Ach Range
ACHOFFSETENABLE	TOGGLE	F	Ach Offset Enable
ACHOFFSET	QUANT	0	Ach Offset (V)
ACHFILTER	IQUANT	1	Ach Filter
CABLEID	IQUANT	14	Cable ID
DCCALDATE	LABEL	5-7-2017	DC Calibration Date
ACCALDATE	LABEL	12/3/2015	AC Calibration Date
FRAMEWORKVERSION	QUANT	7.01	Framework Version
INSTRUMENTVERSION	LABEL	4.00	Instrument Version
CURVE	TABLE	177
	Pt	T	Vf	Im	Vu	Pwr	Sig	Ach	Temp	IERange	Over
	#	s	V	A	V	W	V	V	deg C	#	bits
	0	0.013333	2.85026E-001	9.11366E-005	0.00000E+000	2.59763E-005	5.39641E-002	2.85069E-001	3.57280E+000	9	...........
	1	0.026667	3.04384E-001	9.09928E-005	0.00000E+000	2.76968E-005	5.39641E-002	3.04418E-001	3.57280E+000	9	...........
	2	0.04	3.22305E-001	9.12721E-005	0.00000E+000	2.94174E-005	5.39641E-002	3.22344E-001	3.57280E+000	9	...........
	3	0.053333	3.39037E-001	9.09647E-005	0.00000E+000	3.08404E-005	5.39641E-002	3.39073E-001	3.57280E+000	9	...........
	4	0.066667	3.54763E-001	9.10762E-005	0.00000E+000	3.23104E-005	5.39641E-002	3.54806E-001	3.57280E+000	9	...........
	5	0.08	3.69616E-001	9.08949E-005	0.00000E+000	3.35962E-005	5.39641E-002	3.69658E-001	3.57280E+000	9	...........
	6	0.093333	3.83701E-001	9.12085E-005	0.00000E+000	3.49968E-005	5.39641E-002	3.83748E-001	3.57280E+000	9	...........
	7	0.106667	3.97105E-001	9.11158E-005	0.00000E+000	3.61825E-005	5.39641E-002	3.97149E-001	3.57280E+000	9	...........
	8	0.12	4.09883E-001	9.07574E-005	0.00000E+000	3.71999E-005	5.39641E-002	4.09930E-001	3.57280E+000	9	...........
	9	0.133333	4.22099E-001	9.09022E-005	0.00000E+000	3.83698E-005	5.39641E-002	4.22149E-001	3.57280E+000	9	...........
	10	0.146667	4.33802E-001	9.08616E-005	0.00000E+000	3.94159E-005	5.39641E-002	4.33854E-001	3.57280E+000	9	...........
	11	0.16	4.45032E-001	9.10710E-005	0.00000E+000	4.05295E-005	5.39641E-002	4.45083E-001	3.57280E+000	9	...........
	12	0.173333	4.55849E-001	9.12148E-005	0.00000E+000	4.15802E-005	5.39641E-002	4.55893E-001	3.57280E+000	9	...........
	13	0.186667	4.66276E-001	9.09522E-005	0.00000E+000	4.24088E-005	5.39641E-002	4.66326E-001	3.57280E+000	9	...........
	14	0.2	4.76343E-001	9.09355E-005	0.00000E+000	4.33166E-005	5.39641E-002	4.76395E-001	3.57280E+000	9	...........
	15	0.213333	4.86054E-001	9.11074E-005	0.00000E+000	4.42831E-005	5.39641E-002	4.86115E-001	3.57280E+000	9	...........
	16	0.226667	4.95457E-001	9.10449E-005	0.00000E+000	4.51089E-005	5.39641E-002	4.95514E-001	3.57280E+000	9	...........
	17	0.24	5.04560E-001	9.10272E-005	0.00000E+000	4.59287E-005	5.39641E-002	5.04625E-001	3.57280E+000	9	...........
	18	0.253333	5.13398E-001	9.12168E-005	0.00000E+000	4.68305E-005	5.39641E-002	5.13459E-001	3.57280E+000	9	...........
	19	0.266667	5.21971E-001	9.11366E-005	0.00000E+000	4.75707E-005	5.39641E-002	5.22036E-001	3.57280E+000	9	...........
	20	0.28	5.30300E-001	9.10178E-005	0.00000E+000	4.82667E-005	5.39641E-002	5.30350E-001	3.57280E+000	9	...........
	21	0.293333	5.38310E-001	9.06063E-005	0.00000E+000	4.87743E-005	5.39641E-002	5.38425E-001	3.57280E+000	9	...........
	22	0.306667	5.46198E-001	9.11460E-005	0.00000E+000	4.97838E-005	5.39641E-002	5.46305E-001	3.57280E+000	9	...........
	23	0.32	5.53836E-001	9.10231E-005	0.00000E+000	5.04119E-005	5.39641E-002	5.53962E-001	3.57280E+000	9	...........
	24	0.333333	5.61304E-001	9.11189E-005	0.00000E+000	5.11454E-005	5.39641E-002	5.61437E-001	3.57280E+000	9	...........
	25	0.346667	5.68610E-001	9.11637E-005	0.00000E+000	5.18366E-005	5.39641E-002	5.68723E-001	3.57280E+000	9	...........
	26	0.36	5.75697E-001	9.09293E-005	0.00000E+000	5.23477E-005	5.39641E-002	5.75820E-001	3.57280E+000	9	...........
	27	0.373333	5.82599E-001	9.11106E-005	0.00000E+000	5.30809E-005	5.39641E-002	5.82735E-001	3.57280E+000	9	...........
	28	0.386667	5.89402E-001	9.08907E-005	0.00000E+000	5.35712E-005	5.39641E-002	5.89545E-001	3.57280E+000	9	...........
	29	0.4	5.95997E-001	9.09689E-005	0.00000E+000	5.42171E-005	5.39641E-002	5.96110E-001	3.57280E+000	9	...........
	30	0.413333	6.02452E-001	9.10835E-005	0.00000E+000	5.48734E-005	5.39641E-002	6.02578E-001	3.57280E+000	9	...........
	31	0.426667	6.08735E-001	9.11741E-005	0.00000E+000	5.55009E-005	5.39641E-002	6.08887E-001	3.57280E+000	9	...........
	32	0.44	6.14957E-001	9.10251E-005	0.00000E+000	5.59766E-005	5.39641E-002	6.15079E-001	3.57280E+000	9	...........
	33	0.453333	6.21015E-001	9.10064E-005	0.00000E+000	5.65163E-005	5.39641E-002	6.21084E-001	3.57280E+000	9	...........
	34	0.466667	6.26916E-001	9.09178E-005	0.00000E+000	5.69978E-005	5.39641E-002	6.27004E-001	3.57280E+000	9	...........
	35	0.48	6.32690E-001	9.10439E-005	0.00000E+000	5.76026E-005	5.39641E-002	6.32787E-001	3.57280E+000	9	...........
	36	0.493333	6.38392E-001	9.11262E-005	0.00000E+000	5.81743E-005	5.39641E-002	6.38502E-001	3.57280E+000	9	...........
	37	0.506667	6.43979E-001	9.11877E-005	0.00000E+000	5.87230E-005	5.39641E-002	6.44072E-001	3.57280E+000	9	...........
	38	0.52	6.49441E-001	9.10001E-005	0.00000E+000	5.90993E-005	5.39641E-002	6.49518E-001	3.57280E+000	9	...........
	39	0.533333	6.54831E-001	9.11262E-005	0.00000E+000	5.96723E-005	5.39641E-002	6.54883E-001	3.57280E+000	9	...........
	40	0.546667	6.60082E-001	9.10845E-005	0.00000E+000	6.01232E-005	5.39641E-002	6.60123E-001	3.57280E+000	9	...........
	41	0.56	6.65230E-001	9.09928E-005	0.00000E+000	6.05312E-005	5.39641E-002	6.65312E-001	3.57311E+000	9	...........
	42	0.573333	6.70314E-001	9.09293E-005	0.00000E+000	6.09512E-005	5.39641E-002	6.70379E-001	3.57330E+000	9	...........
	43	0.586667	6.75267E-001	9.12877E-005	0.00000E+000	6.16436E-005	5.39641E-002	6.75359E-001	3.57330E+000	9	...........
	44	0.6	6.80142E-001	9.09647E-005	0.00000E+000	6.18689E-005	5.39641E-002	6.80237E-001	3.57330E+000	9	...........
	45	0.613333	6.84936E-001	9.11231E-005	0.00000E+000	6.24135E-005	5.39641E-002	6.85022E-001	3.57330E+000	9	...........
	46	0.626667	6.89670E-001	9.09803E-005	0.00000E+000	6.27464E-005	5.39641E-002	6.89757E-001	3.57330E+000	9	...........
	47	0.64	6.94327E-001	9.08803E-005	0.00000E+000	6.31006E-005	5.39641E-002	6.94412E-001	3.57330E+000	9	...........
	48	0.653333	6.98919E-001	9.09220E-005	0.00000E+000	6.35471E-005	5.39641E-002	6.99033E-001	3.57330E+000	9	...........
	49	0.666667	7.03444E-001	9.07918E-005	0.00000E+000	6.38669E-005	5.39641E-002	7.03535E-001	3.57330E+000	9	...........
	50	0.68	7.07873E-001	9.08334E-005	0.00000E+000	6.42985E-005	5.39641E-002	7.07991E-001	3.57330E+000	9	...........
	51	0.693333	7.12202E-001	9.12846E-005	0.00000E+000	6.50131E-005	5.39641E-002	7.12324E-001	3.57330E+000	9	...........
	52	0.706667	7.16515E-001	9.09022E-005	0.00000E+000	6.51328E-005	5.39641E-002	7.16629E-001	3.57330E+000	9	...........
	53	0.72	7.20788E-001	9.11356E-005	0.00000E+000	6.56894E-005	5.39641E-002	7.20869E-001	3.57330E+000	9	...........
	54	0.733333	7.24949E-001	9.11939E-005	0.00000E+000	6.61110E-005	5.39641E-002	7.25049E-001	3.57330E+000	9	...........
	55	0.746667	7.29061E-001	9.10178E-005	0.00000E+000	6.63576E-005	5.39641E-002	7.29159E-001	3.57330E+000	9	...........
	56	0.76	7.33096E-001	9.10147E-005	0.00000E+000	6.67225E-005	5.39641E-002	7.33218E-001	3.57330E+000	9	...........
	57	0.773333	7.37066E-001	9.11127E-005	0.00000E+000	6.71561E-005	5.39641E-002	7.37189E-001	3.57330E+000	9	...........
	58	0.786667	7.40998E-001	9.09908E-005	0.00000E+000	6.74240E-005	5.39641E-002	7.41126E-001	3.57330E+000	9	...........
	59	0.8	7.44892E-001	9.09553E-005	0.00000E+000	6.77519E-005	5.39641E-002	7.45029E-001	3.57330E+000	9	...........
	60	0.813333	7.48704E-001	9.11502E-005	0.00000E+000	6.82445E-005	5.39641E-002	7.48836E-001	3.57330E+000	9	...........
	61	0.826667	7.52488E-001	9.11408E-005	0.00000E+000	6.85824E-005	5.39641E-002	7.52610E-001	3.57330E+000	9	...........
	62	0.84	7.56203E-001	9.10428E-005	0.00000E+000	6.88469E-005	5.39641E-002	7.56345E-001	3.57330E+000	9	...........
	63	0.853333	7.59852E-001	9.10720E-005	0.00000E+000	6.92013E-005	5.39641E-002	7.59977E-001	3.57330E+000	9	...........
	64	0.866667	7.63480E-001	9.10022E-005	0.00000E+000	6.94784E-005	5.39641E-002	7.63612E-001	3.57330E+000	9	...........
	65	0.88	7.67062E-001	9.10533E-005	0.00000E+000	6.98435E-005	5.39641E-002	7.67224E-001	3.57330E+000	9	...........
	66	0.893333	7.70641E-001	9.12939E-005	0.00000E+000	7.03549E-005	5.39641E-002	7.70767E-001	3.57330E+000	9	...........
	67	0.906667	7.74138E-001	9.10053E-005	0.00000E+000	7.04507E-005	5.39641E-002	7.74254E-001	3.57330E+000	9	...........
	68	0.92	7.77600E-001	9.12523E-005	0.00000E+000	7.09578E-005	5.39641E-002	7.77730E-001	3.57330E+000	9	...........
	69	0.933333	7.81025E-001	9.11908E-005	0.00000E+000	7.12223E-005	5.39641E-002	7.81164E-001	3.57330E+000	9	...........
	70	0.946667	7.84424E-001	9.11502E-005	0.00000E+000	7.15004E-005	5.39641E-002	7.84550E-001	3.57330E+000	9	...........
	71	0.96	7.87756E-001	9.10199E-005	0.00000E+000	7.17015E-005	5.39641E-002	7.87867E-001	3.57330E+000	9	...........
	72	0.97333	7.91043E-001	9.12116E-005	0.00000E+000	7.21523E-005	5.39641E-002	7.91209E-001	3.57330E+000	9	...........
	73	0.98667	7.94365E-001	9.10168E-005	0.00000E+000	7.23006E-005	5.39641E-002	7.94487E-001	3.57330E+000	9	...........
	74	1	7.97580E-001	9.11189E-005	0.00000E+000	7.26746E-005	5.39641E-002	7.97702E-001	3.57330E+000	9	...........
	75	1.01333	8.00800E-001	9.11918E-005	0.00000E+000	7.30264E-005	5.39641E-002	8.00905E-001	3.57330E+000	9	...........
	76	1.02667	8.03922E-001	9.09595E-005	0.00000E+000	7.31244E-005	5.39641E-002	8.04051E-001	3.57330E+000	9	...........
	77	1.04	8.07045E-001	9.12241E-005	0.00000E+000	7.36220E-005	5.39641E-002	8.07172E-001	3.57330E+000	9	...........
	78	1.05333	8.10082E-001	9.11689E-005	0.00000E+000	7.38543E-005	5.39641E-002	8.10221E-001	3.57330E+000	9	...........
	79	1.06667	8.13126E-001	9.11345E-005	0.00000E+000	7.41038E-005	5.39641E-002	8.13270E-001	3.57330E+000	9	...........
	80	1.08	8.16134E-001	9.12252E-005	0.00000E+000	7.44520E-005	5.39641E-002	8.16275E-001	3.57330E+000	9	...........
	81	1.09333	8.19142E-001	9.10866E-005	0.00000E+000	7.46128E-005	5.39641E-002	8.19286E-001	3.57330E+000	9	...........
	82	1.10667	8.22089E-001	9.11470E-005	0.00000E+000	7.49310E-005	5.39641E-002	8.22245E-001	3.57330E+000	9	...........
	83	1.12	8.25006E-001	9.10929E-005	0.00000E+000	7.51522E-005	5.39641E-002	8.25162E-001	3.57330E+000	9	...........
	84	1.13333	8.27885E-001	9.13210E-005	0.00000E+000	7.56033E-005	5.39641E-002	8.28047E-001	3.57330E+000	9	...........
	85	1.14667	8.30752E-001	9.10564E-005	0.00000E+000	7.56453E-005	5.39641E-002	8.30922E-001	3.57330E+000	9	...........
	86	1.16	8.33549E-001	9.09501E-005	0.00000E+000	7.58114E-005	5.39641E-002	8.33732E-001	3.57330E+000	9	...........
	87	1.17333	8.36334E-001	9.11127E-005	0.00000E+000	7.62006E-005	5.39641E-002	8.36515E-001	3.57330E+000	9	...........
	88	1.18667	8.39108E-001	9.08782E-005	0.00000E+000	7.62566E-005	5.39641E-002	8.39275E-001	3.57330E+000	9	...........
	89	1.2	8.41830E-001	9.11658E-005	0.00000E+000	7.67461E-005	5.39641E-002	8.41988E-001	3.57330E+000	9	...........
	90	1.21333	8.44542E-001	9.10470E-005	0.00000E+000	7.68931E-005	5.39641E-002	8.44709E-001	3.57330E+000	9	...........
	91	1.22667	8.47202E-001	9.11283E-005	0.00000E+000	7.72041E-005	5.39641E-002	8.47383E-001	3.57330E+000	9	...........
	92	1.24	8.49827E-001	9.11929E-005	0.00000E+000	7.74982E-005	5.39641E-002	8.50022E-001	3.57330E+000	9	...........
	93	1.25333	8.52468E-001	9.11179E-005	0.00000E+000	7.76750E-005	5.39641E-002	8.52671E-001	3.57330E+000	9	...........
	94	1.26667	8.55060E-001	9.10064E-005	0.00000E+000	7.78159E-005	5.39641E-002	8.55247E-001	3.57330E+000	9	...........
	95	1.28	8.57616E-001	9.11658E-005	0.00000E+000	7.81852E-005	5.39641E-002	8.57819E-001	3.57330E+000	9	...........
	96	1.29333	8.60173E-001	9.10814E-005	0.00000E+000	7.83458E-005	5.39641E-002	8.60366E-001	3.57330E+000	9	...........
	97	1.30667	8.62689E-001	9.13346E-005	0.00000E+000	7.87933E-005	5.39641E-002	8.62867E-001	3.57330E+000	9	...........
	98	1.32	8.65169E-001	9.10824E-005	0.00000E+000	7.88017E-005	5.39641E-002	8.65337E-001	3.57330E+000	9	...........
	99	1.33333	8.67651E-001	9.13408E-005	0.00000E+000	7.92519E-005	5.39641E-002	8.67809E-001	3.57330E+000	9	...........
	100	1.34667	8.70088E-001	9.13023E-005	0.00000E+000	7.94410E-005	5.39641E-002	8.70262E-001	3.57330E+000	9	...........
	101	1.36	8.72500E-001	9.10512E-005	0.00000E+000	7.94422E-005	5.39641E-002	8.72679E-001	3.57330E+000	9	...........
	102	1.37333	8.74875E-001	9.11648E-005	0.00000E+000	7.97577E-005	5.39641E-002	8.75078E-001	3.57330E+000	9	...........
	103	1.38667	8.77249E-001	9.11387E-005	0.00000E+000	7.99514E-005	5.39641E-002	8.77429E-001	3.57330E+000	9	...........
	104	1.4	8.79565E-001	9.12481E-005	0.00000E+000	8.02587E-005	5.39641E-002	8.79757E-001	3.57330E+000	9	...........
	105	1.41333	8.81922E-001	9.11314E-005	0.00000E+000	8.03708E-005	5.39641E-002	8.82111E-001	3.57330E+000	9	...........
	106	1.42667	8.84232E-001	9.13242E-005	0.00000E+000	8.07517E-005	5.39641E-002	8.84437E-001	3.57330E+000	9	...........
	107	1.44	8.86515E-001	9.11043E-005	0.00000E+000	8.07654E-005	5.39641E-002	8.86681E-001	3.57330E+000	9	...........
	108	1.45333	8.88754E-001	9.11512E-005	0.00000E+000	8.10110E-005	5.39641E-002	8.88934E-001	3.57330E+000	9	...........
	109	1.46667	8.90993E-001	9.14315E-005	0.00000E+000	8.14648E-005	5.39641E-002	8.91167E-001	3.57330E+000	9	...........
	110	1.48	8.93207E-001	9.10116E-005	0.00000E+000	8.12921E-005	5.39641E-002	8.93355E-001	3.57330E+000	9	...........
	111	1.49333	8.95391E-001	9.11377E-005	0.00000E+000	8.16039E-005	5.39641E-002	8.95579E-001	3.57330E+000	9	...........
	112	1.50667	8.97567E-001	9.10408E-005	0.00000E+000	8.17152E-005	5.39641E-002	8.97758E-001	3.57330E+000	9	...........
	113	1.52	8.99693E-001	9.08834E-005	0.00000E+000	8.17672E-005	5.39641E-002	8.99870E-001	3.57330E+000	9	...........
	114	1.53333	9.01811E-001	9.12168E-005	0.00000E+000	8.22604E-005	5.39641E-002	9.01977E-001	3.57330E+000	9	...........
	115	1.54667	9.03908E-001	9.12627E-005	0.00000E+000	8.24931E-005	5.39641E-002	9.04090E-001	3.57330E+000	9	...........
	116	1.56	9.05965E-001	9.10897E-005	0.00000E+000	8.25241E-005	5.39641E-002	9.06182E-001	3.57299E+000	9	...........
	117	1.57333	9.08058E-001	9.10293E-005	0.00000E+000	8.26599E-005	5.39641E-002	9.08267E-001	3.57280E+000	9	...........
	118	1.58667	9.10092E-001	9.09105E-005	0.00000E+000	8.27369E-005	5.39641E-002	9.10278E-001	3.57280E+000	9	...........
	119	1.6	9.12126E-001	9.08439E-005	0.00000E+000	8.28610E-005	5.39641E-002	9.12327E-001	3.57280E+000	9	...........
	120	1.61333	9.14122E-001	9.11762E-005	0.00000E+000	8.33462E-005	5.39641E-002	9.14304E-001	3.57280E+000	9	...........
	121	1.62667	9.16067E-001	9.11595E-005	0.00000E+000	8.35083E-005	5.39641E-002	9.16282E-001	3.57280E+000	9	...........
	122	1.64	9.18024E-001	9.11845E-005	0.00000E+000	8.37096E-005	5.39641E-002	9.18245E-001	3.57280E+000	9	...........
	123	1.65333	9.19994E-001	9.12262E-005	0.00000E+000	8.39276E-005	5.39641E-002	9.20179E-001	3.57280E+000	9	...........
	124	1.66667	9.21981E-001	9.10001E-005	0.00000E+000	8.39004E-005	5.39641E-002	9.22113E-001	3.57280E+000	9	...........
	125	1.68	9.23865E-001	9.13012E-005	0.00000E+000	8.43501E-005	5.39641E-002	9.24032E-001	3.57280E+000	9	...........
	126	1.69333	9.25744E-001	9.12616E-005	0.00000E+000	8.44849E-005	5.39641E-002	9.25898E-001	3.57280E+000	9	...........
	127	1.70667	9.27602E-001	9.11043E-005	0.00000E+000	8.45085E-005	5.39641E-002	9.27773E-001	3.57280E+000	9	...........
	128	1.72	9.29424E-001	9.10970E-005	0.00000E+000	8.46677E-005	5.39641E-002	9.29602E-001	3.57280E+000	9	...........
	129	1.73333	9.31248E-001	9.12398E-005	0.00000E+000	8.49669E-005	5.39641E-002	9.31404E-001	3.57280E+000	9	...........
	130	1.74667	9.33036E-001	9.11054E-005	0.00000E+000	8.50046E-005	5.39641E-002	9.33218E-001	3.57280E+000	9	...........
	131	1.76	9.34854E-001	9.10356E-005	0.00000E+000	8.51050E-005	5.39641E-002	9.35002E-001	3.57280E+000	9	...........
	132	1.77333	9.36591E-001	9.11387E-005	0.00000E+000	8.53597E-005	5.39641E-002	9.36774E-001	3.57280E+000	9	...........
	133	1.78667	9.38339E-001	9.11773E-005	0.00000E+000	8.55552E-005	5.39641E-002	9.38513E-001	3.57280E+000	9	...........
	134	1.8	9.40075E-001	9.10418E-005	0.00000E+000	8.55861E-005	5.39641E-002	9.40220E-001	3.57280E+000	9	...........
	135	1.81333	9.41782E-001	9.09189E-005	0.00000E+000	8.56258E-005	5.39641E-002	9.41936E-001	3.57280E+000	9	...........
	136	1.82667	9.43485E-001	9.10481E-005	0.00000E+000	8.59025E-005	5.39641E-002	9.43640E-001	3.57280E+000	9	...........
	137	1.84	9.45175E-001	9.12158E-005	0.00000E+000	8.62149E-005	5.39641E-002	9.45341E-001	3.57280E+000	9	...........
	138	1.85333	9.46874E-001	9.09387E-005	0.00000E+000	8.61074E-005	5.39641E-002	9.47039E-001	3.57280E+000	9	...........
	139	1.86667	9.48508E-001	9.10168E-005	0.00000E+000	8.63302E-005	5.39641E-002	9.48679E-001	3.57280E+000	9	...........
	140	1.88	9.50140E-001	9.12512E-005	0.00000E+000	8.67015E-005	5.39641E-002	9.50330E-001	3.57280E+000	9	...........
	141	1.89333	9.51742E-001	9.11970E-005	0.00000E+000	8.67961E-005	5.39641E-002	9.51941E-001	3.57280E+000	9	...........
	142	1.90667	9.53364E-001	9.09689E-005	0.00000E+000	8.67264E-005	5.39641E-002	9.53546E-001	3.57280E+000	9	...........
	143	1.92	9.54961E-001	9.11387E-005	0.00000E+000	8.70339E-005	5.39641E-002	9.55150E-001	3.57280E+000	9	...........
	144	1.93333	9.56517E-001	9.12023E-005	0.00000E+000	8.72366E-005	5.39641E-002	9.56726E-001	3.57280E+000	9	...........
	145	1.94667	9.58101E-001	9.09699E-005	0.00000E+000	8.71583E-005	5.39641E-002	9.58310E-001	3.57280E+000	9	...........
	146	1.96	9.59650E-001	9.10189E-005	0.00000E+000	8.73463E-005	5.39641E-002	9.59875E-001	3.57280E+000	9	...........
	147	1.97333	9.61179E-001	9.11054E-005	0.00000E+000	8.75686E-005	5.39641E-002	9.61416E-001	3.57280E+000	9	...........
	148	1.98667	9.62687E-001	9.11012E-005	0.00000E+000	8.77020E-005	5.39641E-002	9.62938E-001	3.57280E+000	9	...........
	149	2	9.64209E-001	9.10220E-005	0.00000E+000	8.77642E-005	5.39641E-002	9.64445E-001	3.57280E+000	9	...........
	150	2.01333	9.65712E-001	9.10439E-005	0.00000E+000	8.79222E-005	5.39641E-002	9.65930E-001	3.57280E+000	9	...........
	151	2.02667	9.67209E-001	9.09095E-005	0.00000E+000	8.79285E-005	5.39641E-002	9.67413E-001	3.57280E+000	9	...........
	152	2.04	9.68656E-001	9.11147E-005	0.00000E+000	8.82588E-005	5.39641E-002	9.68869E-001	3.57280E+000	9	...........
	153	2.05333	9.70102E-001	9.11408E-005	0.00000E+000	8.84159E-005	5.39641E-002	9.70321E-001	3.57280E+000	9	...........
	154	2.06667	9.71533E-001	9.12856E-005	0.00000E+000	8.86870E-005	5.39641E-002	9.71745E-001	3.57280E+000	9	...........
	155	2.08	9.72999E-001	9.11783E-005	0.00000E+000	8.87164E-005	5.39641E-002	9.73153E-001	3.57280E+000	9	...........
	156	2.09333	9.74407E-001	9.12992E-005	0.00000E+000	8.89625E-005	5.39641E-002	9.74589E-001	3.57280E+000	9	...........
	157	2.10667	9.75800E-001	9.11491E-005	0.00000E+000	8.89433E-005	5.39641E-002	9.75984E-001	3.57280E+000	9	...........
	158	2.12	9.77165E-001	9.11220E-005	0.00000E+000	8.90413E-005	5.39641E-002	9.77364E-001	3.57280E+000	9	...........
	159	2.13333	9.78534E-001	9.12127E-005	0.00000E+000	8.92547E-005	5.39641E-002	9.78713E-001	3.57280E+000	9	...........
	160	2.14667	9.79885E-001	9.12481E-005	0.00000E+000	8.94126E-005	5.39641E-002	9.80070E-001	3.57280E+000	9	...........
	161	2.16	9.81219E-001	9.10460E-005	0.00000E+000	8.93361E-005	5.39641E-002	9.81413E-001	3.57280E+000	9	...........
	162	2.17333	9.82527E-001	9.11470E-005	0.00000E+000	8.95544E-005	5.39641E-002	9.82705E-001	3.57280E+000	9	...........
	163	2.18667	9.83865E-001	9.12106E-005	0.00000E+000	8.97389E-005	5.39641E-002	9.84036E-001	3.57280E+000	9	...........
	164	2.2	9.85147E-001	9.12064E-005	0.00000E+000	8.98517E-005	5.39641E-002	9.85350E-001	3.57280E+000	9	...........
	165	2.21333	9.86442E-001	9.10522E-005	0.00000E+000	8.98178E-005	5.39641E-002	9.86635E-001	3.57280E+000	9	...........
	166	2.22667	9.87710E-001	9.09668E-005	0.00000E+000	8.98488E-005	5.39641E-002	9.87901E-001	3.57280E+000	9	...........
	167	2.24	9.88978E-001	9.14023E-005	0.00000E+000	9.03949E-005	5.39641E-002	9.89152E-001	3.57280E+000	9	...........
	168	2.25333	9.90222E-001	9.11918E-005	0.00000E+000	9.03002E-005	5.39641E-002	9.90411E-001	3.57280E+000	9	...........
	169	2.26667	9.91462E-001	9.11627E-005	0.00000E+000	9.03843E-005	5.39641E-002	9.91645E-001	3.57280E+000	9	...........
	170	2.28	9.92676E-001	9.10574E-005	0.00000E+000	9.03905E-005	5.39641E-002	9.92877E-001	3.57280E+000	9	...........
	171	2.29333	9.93909E-001	9.13023E-005	0.00000E+000	9.07461E-005	5.39641E-002	9.94115E-001	3.57280E+000	9	...........
	172	2.30667	9.95153E-001	9.11512E-005	0.00000E+000	9.07094E-005	5.39641E-002	9.95322E-001	3.57280E+000	9	...........
	173	2.32	9.96346E-001	9.10772E-005	0.00000E+000	9.07444E-005	5.39641E-002	9.96525E-001	3.57280E+000	9	...........
	174	2.33333	9.97541E-001	9.10929E-005	0.00000E+000	9.08689E-005	5.39641E-002	9.97747E-001	3.57280E+000	9	...........
	175	2.34667	9.98734E-001	9.10668E-005	0.00000E+000	9.09516E-005	5.39641E-002	9.98930E-001	3.57280E+000	9	...........
	176	2.35667	9.99733E-001	9.13627E-005	0.00000E+000	9.13383E-005	5.39641E-002	9.99926E-001	3.57280E+000	9	...........
STARTTIMEOFFSET	QUANT	1088.216	Start Time Offset (s)
