EXPLAIN
TAG	PWR800_CHARGE
TITLE	LABEL	PWR Cyclic Charge Discharge (Cell) - Charge Step	Test &Identifier
DATE	LABEL	10-7-2017	Date
TIME	LABEL	15:57:19	Time
NOTES	NOTES	3	&Notes...
	supercap test cell
	0.9mg
	6M KOH
PSTAT	PSTAT	IFC5000-01520	Potentiostat
CAPACITY	QUANT	1.00000E-003	Capacity (A-hr)
CELLTYPE	SELECTOR	1	&Cell Type
WORKINGCONNECTION	SELECTOR	0	&Working Lead
MAXCHARGETIME	VARIABLEANDUNITS	1.00000E+002	s	1.00000E+002	second(s)	Max &Charge Time
CHARGECURRENT	QUANT	9.00000E-005	&Charge Current (A) 
VOLTAGEFINISH	TWOPARAM	F	1.00000E-003	3.60000E+003	&Voltage Finish	 I (A) < 	Max Time(s)
SAMPLETIME	QUANT	1.00000E-002	Sa&mple Period (s)
CHARGESTOPAT1	MULTIPARAM	4	1.00000E+000	Charge Stop At &1	Voltage > Limit	V
CHARGESTOPAT2	MULTIPARAM	0	0.00000E+000	Charge Stop At &2	None	N/A
AESBHCSELECTOR	TOGGLE	F	Save Both Half Cells
IRCOMP	TOGGLE	F	IR &Measure
EOC	QUANT	0	Open Circuit (V)
SEQUENCER	TOGGLE	TRUE	Run as Sequence
PSTATMODEL	IQUANT	53	Pstat Model
PSTATSECTION	LABEL	IFC5000-01520	Pstat Section
PSTATSERIALNO	LABEL	01520	Pstat Serial Number
CTRLMODE	IQUANT	0	Control Mode
ELECTROMETER	IQUANT	1	RE=0 or CS=1
IESTAB	IQUANT	0	I/E Stability
CASPEED	IQUANT	4	Control Amp Speed
CONVENTION	IQUANT	1	Current Convention
ICHRANGE	IQUANT	2	Ich Range
ICHRANGEMODE	TOGGLE	T	Ich Auto Range
ICHOFFSETENABLE	TOGGLE	F	Ich Offset Enable
ICHOFFSET	QUANT	0	Ich Offset (V)
ICHFILTER	IQUANT	1	Ich Filter
VCHRANGE	IQUANT	2	Vch Range
VCHRANGEMODE	TOGGLE	T	Vch Auto Range
VCHOFFSETENABLE	TOGGLE	F	Vch Offset Enable
VCHOFFSET	QUANT	0	Vch Offset (V)
VCHFILTER	IQUANT	1	Vch Filter
IERANGELOWERLIMIT	IQUANT	9	I/E Range Lower Limit
IERANGEMODE	TOGGLE	F	I/E AutoRange
IERANGE	IQUANT	9	I/E Range
ACHSELECT	IQUANT	1	Ach Select
ACHRANGE	IQUANT	2	Ach Range
ACHOFFSETENABLE	TOGGLE	F	Ach Offset Enable
ACHOFFSET	QUANT	0	Ach Offset (V)
ACHFILTER	IQUANT	1	Ach Filter
CABLEID	IQUANT	14	Cable ID
DCCALDATE	LABEL	5-7-2017	DC Calibration Date
ACCALDATE	LABEL	12/3/2015	AC Calibration Date
FRAMEWORKVERSION	QUANT	7.01	Framework Version
INSTRUMENTVERSION	LABEL	4.00	Instrument Version
CURVE	TABLE	165
	Pt	T	Vf	Im	Vu	Pwr	Sig	Ach	Temp	IERange	Over
	#	s	V	A	V	W	V	V	deg C	#	bits
	0	0.013333	2.70930E-001	9.10845E-005	0.00000E+000	2.46775E-005	5.39641E-002	2.70957E-001	3.57360E+000	9	...........
	1	0.026667	2.90600E-001	9.09762E-005	0.00000E+000	2.64377E-005	5.39641E-002	2.90644E-001	3.57360E+000	9	...........
	2	0.04	3.09013E-001	9.08084E-005	0.00000E+000	2.80610E-005	5.39641E-002	3.09054E-001	3.57360E+000	9	...........
	3	0.053333	3.26351E-001	9.10835E-005	0.00000E+000	2.97251E-005	5.39641E-002	3.26390E-001	3.57360E+000	9	...........
	4	0.066667	3.42721E-001	9.08105E-005	0.00000E+000	3.11227E-005	5.39641E-002	3.42764E-001	3.57360E+000	9	...........
	5	0.08	3.58234E-001	9.13585E-005	0.00000E+000	3.27277E-005	5.39641E-002	3.58283E-001	3.57360E+000	9	...........
	6	0.093333	3.72968E-001	9.07490E-005	0.00000E+000	3.38465E-005	5.39641E-002	3.73015E-001	3.57360E+000	9	...........
	7	0.106667	3.86997E-001	9.09137E-005	0.00000E+000	3.51833E-005	5.39641E-002	3.87051E-001	3.57360E+000	9	...........
	8	0.12	4.00385E-001	9.11231E-005	0.00000E+000	3.64843E-005	5.39641E-002	4.00437E-001	3.57360E+000	9	...........
	9	0.133333	4.13176E-001	9.10053E-005	0.00000E+000	3.76012E-005	5.39641E-002	4.13228E-001	3.57360E+000	9	...........
	10	0.146667	4.25438E-001	9.08178E-005	0.00000E+000	3.86373E-005	5.39641E-002	4.25495E-001	3.57360E+000	9	...........
	11	0.16	4.37204E-001	9.13085E-005	0.00000E+000	3.99205E-005	5.39641E-002	4.37268E-001	3.57360E+000	9	...........
	12	0.173333	4.48502E-001	9.07355E-005	0.00000E+000	4.06951E-005	5.39641E-002	4.48570E-001	3.57360E+000	9	...........
	13	0.186667	4.59377E-001	9.08136E-005	0.00000E+000	4.17177E-005	5.39641E-002	4.59438E-001	3.57360E+000	9	...........
	14	0.2	4.69841E-001	9.09199E-005	0.00000E+000	4.27179E-005	5.39641E-002	4.69900E-001	3.57360E+000	9	...........
	15	0.213333	4.79940E-001	9.11345E-005	0.00000E+000	4.37391E-005	5.39641E-002	4.80001E-001	3.57360E+000	9	...........
	16	0.226667	4.89718E-001	9.09710E-005	0.00000E+000	4.45501E-005	5.39641E-002	4.89781E-001	3.57360E+000	9	...........
	17	0.24	4.99169E-001	9.08720E-005	0.00000E+000	4.53605E-005	5.39641E-002	4.99238E-001	3.57360E+000	9	...........
	18	0.253333	5.08321E-001	9.09074E-005	0.00000E+000	4.62102E-005	5.39641E-002	5.08391E-001	3.57360E+000	9	...........
	19	0.266667	5.17183E-001	9.10314E-005	0.00000E+000	4.70799E-005	5.39641E-002	5.17256E-001	3.57360E+000	9	...........
	20	0.28	5.25772E-001	9.11220E-005	0.00000E+000	4.79094E-005	5.39641E-002	5.25845E-001	3.57360E+000	9	...........
	21	0.293333	5.34049E-001	9.11054E-005	0.00000E+000	4.86548E-005	5.39641E-002	5.34135E-001	3.57360E+000	9	...........
	22	0.306667	5.42126E-001	9.09189E-005	0.00000E+000	4.92894E-005	5.39641E-002	5.42244E-001	3.57360E+000	9	...........
	23	0.32	5.50006E-001	9.11137E-005	0.00000E+000	5.01131E-005	5.39641E-002	5.50116E-001	3.57360E+000	9	...........
	24	0.333333	5.57661E-001	9.12387E-005	0.00000E+000	5.08803E-005	5.39641E-002	5.57824E-001	3.57360E+000	9	...........
	25	0.346667	5.65185E-001	9.10835E-005	0.00000E+000	5.14790E-005	5.39641E-002	5.65337E-001	3.57360E+000	9	...........
	26	0.36	5.72467E-001	9.10356E-005	0.00000E+000	5.21148E-005	5.39641E-002	5.72602E-001	3.57360E+000	9	...........
	27	0.373333	5.79549E-001	9.10668E-005	0.00000E+000	5.27777E-005	5.39641E-002	5.79702E-001	3.57360E+000	9	...........
	28	0.386667	5.86496E-001	9.07918E-005	0.00000E+000	5.32490E-005	5.39641E-002	5.86651E-001	3.57360E+000	9	...........
	29	0.4	5.93299E-001	9.11158E-005	0.00000E+000	5.40589E-005	5.39641E-002	5.93445E-001	3.57360E+000	9	...........
	30	0.413333	5.99906E-001	9.09626E-005	0.00000E+000	5.45690E-005	5.39641E-002	6.00052E-001	3.57360E+000	9	...........
	31	0.426667	6.06348E-001	9.09960E-005	0.00000E+000	5.51752E-005	5.39641E-002	6.06491E-001	3.57360E+000	9	...........
	32	0.44	6.12694E-001	9.10314E-005	0.00000E+000	5.57744E-005	5.39641E-002	6.12841E-001	3.57360E+000	9	...........
	33	0.453333	6.18963E-001	9.10356E-005	0.00000E+000	5.63476E-005	5.39641E-002	6.19043E-001	3.57360E+000	9	...........
	34	0.466667	6.25040E-001	9.10345E-005	0.00000E+000	5.69002E-005	5.39641E-002	6.25134E-001	3.57360E+000	9	...........
	35	0.48	6.31003E-001	9.09824E-005	0.00000E+000	5.74102E-005	5.39641E-002	6.31128E-001	3.57360E+000	9	...........
	36	0.493333	6.36822E-001	9.06355E-005	0.00000E+000	5.77186E-005	5.39641E-002	6.36952E-001	3.57360E+000	9	...........
	37	0.506667	6.42573E-001	9.10689E-005	0.00000E+000	5.85184E-005	5.39641E-002	6.42679E-001	3.57360E+000	9	...........
	38	0.52	6.48162E-001	9.10606E-005	0.00000E+000	5.90220E-005	5.39641E-002	6.48287E-001	3.57360E+000	9	...........
	39	0.533333	6.53668E-001	9.10293E-005	0.00000E+000	5.95029E-005	5.39641E-002	6.53802E-001	3.57360E+000	9	...........
	40	0.546667	6.59059E-001	9.09335E-005	0.00000E+000	5.99305E-005	5.39641E-002	6.59169E-001	3.57360E+000	9	...........
	41	0.56	6.64356E-001	9.09032E-005	0.00000E+000	6.03921E-005	5.39641E-002	6.64493E-001	3.57360E+000	9	...........
	42	0.573333	6.69616E-001	9.11262E-005	0.00000E+000	6.10196E-005	5.39641E-002	6.69698E-001	3.57360E+000	9	...........
	43	0.586667	6.74711E-001	9.10522E-005	0.00000E+000	6.14339E-005	5.39641E-002	6.74813E-001	3.57360E+000	9	...........
	44	0.6	6.79780E-001	9.11095E-005	0.00000E+000	6.19345E-005	5.39641E-002	6.79878E-001	3.57360E+000	9	...........
	45	0.613333	6.84731E-001	9.09668E-005	0.00000E+000	6.22878E-005	5.39641E-002	6.84827E-001	3.57360E+000	9	...........
	46	0.626667	6.89626E-001	9.11220E-005	0.00000E+000	6.28402E-005	5.39641E-002	6.89723E-001	3.57360E+000	9	...........
	47	0.64	6.94452E-001	9.09668E-005	0.00000E+000	6.31721E-005	5.39641E-002	6.94538E-001	3.57360E+000	9	...........
	48	0.653333	6.99201E-001	9.11179E-005	0.00000E+000	6.37097E-005	5.39641E-002	6.99310E-001	3.57360E+000	9	...........
	49	0.666667	7.03874E-001	9.08678E-005	0.00000E+000	6.39595E-005	5.39641E-002	7.03977E-001	3.57360E+000	9	...........
	50	0.68	7.08473E-001	9.07803E-005	0.00000E+000	6.43154E-005	5.39641E-002	7.08593E-001	3.57360E+000	9	...........
	51	0.693333	7.12989E-001	9.09053E-005	0.00000E+000	6.48145E-005	5.39641E-002	7.13129E-001	3.57390E+000	9	...........
	52	0.706667	7.17495E-001	9.08605E-005	0.00000E+000	6.51920E-005	5.39641E-002	7.17640E-001	3.57400E+000	9	...........
	53	0.72	7.21914E-001	9.08303E-005	0.00000E+000	6.55717E-005	5.39641E-002	7.22036E-001	3.57400E+000	9	...........
	54	0.733333	7.26255E-001	9.10553E-005	0.00000E+000	6.61294E-005	5.39641E-002	7.26379E-001	3.57400E+000	9	...........
	55	0.746667	7.30571E-001	9.09564E-005	0.00000E+000	6.64501E-005	5.39641E-002	7.30694E-001	3.57400E+000	9	...........
	56	0.76	7.34792E-001	9.10137E-005	0.00000E+000	6.68761E-005	5.39641E-002	7.34909E-001	3.57400E+000	9	...........
	57	0.773333	7.38952E-001	9.09428E-005	0.00000E+000	6.72024E-005	5.39641E-002	7.39073E-001	3.57400E+000	9	...........
	58	0.786667	7.43104E-001	9.08574E-005	0.00000E+000	6.75165E-005	5.39641E-002	7.43224E-001	3.57400E+000	9	...........
	59	0.8	7.47175E-001	9.09835E-005	0.00000E+000	6.79806E-005	5.39641E-002	7.47296E-001	3.57400E+000	9	...........
	60	0.813333	7.51190E-001	9.10053E-005	0.00000E+000	6.83623E-005	5.39641E-002	7.51297E-001	3.57400E+000	9	...........
	61	0.826667	7.55169E-001	9.09543E-005	0.00000E+000	6.86859E-005	5.39641E-002	7.55275E-001	3.57400E+000	9	...........
	62	0.84	7.59083E-001	9.08762E-005	0.00000E+000	6.89826E-005	5.39641E-002	7.59216E-001	3.57400E+000	9	...........
	63	0.853333	7.62971E-001	9.08772E-005	0.00000E+000	6.93367E-005	5.39641E-002	7.63099E-001	3.57400E+000	9	...........
	64	0.866667	7.66789E-001	9.12637E-005	0.00000E+000	6.99800E-005	5.39641E-002	7.66955E-001	3.57400E+000	9	...........
	65	0.88	7.70565E-001	9.08720E-005	0.00000E+000	7.00228E-005	5.39641E-002	7.70716E-001	3.57400E+000	9	...........
	66	0.893333	7.74288E-001	9.10501E-005	0.00000E+000	7.04990E-005	5.39641E-002	7.74450E-001	3.57400E+000	9	...........
	67	0.906667	7.77966E-001	9.09783E-005	0.00000E+000	7.07780E-005	5.39641E-002	7.78122E-001	3.57400E+000	9	...........
	68	0.92	7.81624E-001	9.10272E-005	0.00000E+000	7.11491E-005	5.39641E-002	7.81795E-001	3.57400E+000	9	...........
	69	0.933333	7.85222E-001	9.10491E-005	0.00000E+000	7.14937E-005	5.39641E-002	7.85369E-001	3.57400E+000	9	...........
	70	0.946667	7.88779E-001	9.10887E-005	0.00000E+000	7.18489E-005	5.39641E-002	7.88931E-001	3.57400E+000	9	...........
	71	0.96	7.92336E-001	9.10283E-005	0.00000E+000	7.21249E-005	5.39641E-002	7.92477E-001	3.57400E+000	9	...........
	72	0.97333	7.95831E-001	9.10272E-005	0.00000E+000	7.24422E-005	5.39641E-002	7.95964E-001	3.57400E+000	9	...........
	73	0.98667	7.99282E-001	9.07001E-005	0.00000E+000	7.24949E-005	5.39641E-002	7.99412E-001	3.57400E+000	9	...........
	74	1	8.02707E-001	9.09637E-005	0.00000E+000	7.30172E-005	5.39641E-002	8.02825E-001	3.57400E+000	9	...........
	75	1.01333	8.06073E-001	9.11002E-005	0.00000E+000	7.34334E-005	5.39641E-002	8.06216E-001	3.57400E+000	9	...........
	76	1.02667	8.09411E-001	9.10668E-005	0.00000E+000	7.37104E-005	5.39641E-002	8.09563E-001	3.57400E+000	9	...........
	77	1.04	8.12712E-001	9.09407E-005	0.00000E+000	7.39086E-005	5.39641E-002	8.12868E-001	3.57400E+000	9	...........
	78	1.05333	8.15991E-001	9.09220E-005	0.00000E+000	7.41915E-005	5.39641E-002	8.16148E-001	3.57400E+000	9	...........
	79	1.06667	8.19235E-001	9.09908E-005	0.00000E+000	7.45428E-005	5.39641E-002	8.19388E-001	3.57400E+000	9	...........
	80	1.08	8.22429E-001	9.08595E-005	0.00000E+000	7.47255E-005	5.39641E-002	8.22565E-001	3.57400E+000	9	...........
	81	1.09333	8.25604E-001	9.09418E-005	0.00000E+000	7.50819E-005	5.39641E-002	8.25740E-001	3.57400E+000	9	...........
	82	1.10667	8.28696E-001	9.10543E-005	0.00000E+000	7.54564E-005	5.39641E-002	8.28830E-001	3.57400E+000	9	...........
	83	1.12	8.31785E-001	9.09897E-005	0.00000E+000	7.56839E-005	5.39641E-002	8.31938E-001	3.57400E+000	9	...........
	84	1.13333	8.34805E-001	9.09439E-005	0.00000E+000	7.59204E-005	5.39641E-002	8.34982E-001	3.57400E+000	9	...........
	85	1.14667	8.37825E-001	9.09720E-005	0.00000E+000	7.62186E-005	5.39641E-002	8.38011E-001	3.57400E+000	9	...........
	86	1.16	8.40807E-001	9.10731E-005	0.00000E+000	7.65749E-005	5.39641E-002	8.40962E-001	3.57400E+000	9	...........
	87	1.17333	8.43765E-001	9.09741E-005	0.00000E+000	7.67607E-005	5.39641E-002	8.43972E-001	3.57400E+000	9	...........
	88	1.18667	8.46744E-001	9.11543E-005	0.00000E+000	7.71844E-005	5.39641E-002	8.46916E-001	3.57400E+000	9	...........
	89	1.2	8.49635E-001	9.09585E-005	0.00000E+000	7.72815E-005	5.39641E-002	8.49824E-001	3.57400E+000	9	...........
	90	1.21333	8.52505E-001	9.12741E-005	0.00000E+000	7.78117E-005	5.39641E-002	8.52667E-001	3.57400E+000	9	...........
	91	1.22667	8.55306E-001	9.10397E-005	0.00000E+000	7.78668E-005	5.39641E-002	8.55507E-001	3.57400E+000	9	...........
	92	1.24	8.58134E-001	9.12335E-005	0.00000E+000	7.82905E-005	5.39641E-002	8.58331E-001	3.57400E+000	9	...........
	93	1.25333	8.60920E-001	9.11220E-005	0.00000E+000	7.84487E-005	5.39641E-002	8.61101E-001	3.57400E+000	9	...........
	94	1.26667	8.63664E-001	9.08720E-005	0.00000E+000	7.84829E-005	5.39641E-002	8.63839E-001	3.57400E+000	9	...........
	95	1.28	8.66368E-001	9.06042E-005	0.00000E+000	7.84966E-005	5.39641E-002	8.66571E-001	3.57400E+000	9	...........
	96	1.29333	8.69100E-001	9.09449E-005	0.00000E+000	7.90402E-005	5.39641E-002	8.69296E-001	3.57400E+000	9	...........
	97	1.30667	8.71800E-001	9.12012E-005	0.00000E+000	7.95092E-005	5.39641E-002	8.71993E-001	3.57400E+000	9	...........
	98	1.32	8.74461E-001	9.10585E-005	0.00000E+000	7.96271E-005	5.39641E-002	8.74666E-001	3.57400E+000	9	...........
	99	1.33333	8.77087E-001	9.11512E-005	0.00000E+000	7.99475E-005	5.39641E-002	8.77286E-001	3.57400E+000	9	...........
	100	1.34667	8.79660E-001	9.10470E-005	0.00000E+000	8.00904E-005	5.39641E-002	8.79879E-001	3.57400E+000	9	...........
	101	1.36	8.82239E-001	9.10845E-005	0.00000E+000	8.03583E-005	5.39641E-002	8.82465E-001	3.57400E+000	9	...........
	102	1.37333	8.84783E-001	9.10376E-005	0.00000E+000	8.05486E-005	5.39641E-002	8.85003E-001	3.57400E+000	9	...........
	103	1.38667	8.87284E-001	9.10606E-005	0.00000E+000	8.07966E-005	5.39641E-002	8.87494E-001	3.57400E+000	9	...........
	104	1.4	8.89780E-001	9.12825E-005	0.00000E+000	8.12214E-005	5.39641E-002	8.89992E-001	3.57400E+000	9	...........
	105	1.41333	8.92224E-001	9.10012E-005	0.00000E+000	8.11934E-005	5.39641E-002	8.92444E-001	3.57400E+000	9	...........
	106	1.42667	8.94683E-001	9.12210E-005	0.00000E+000	8.16139E-005	5.39641E-002	8.94922E-001	3.57400E+000	9	...........
	107	1.44	8.97134E-001	9.10491E-005	0.00000E+000	8.16833E-005	5.39641E-002	8.97342E-001	3.57400E+000	9	...........
	108	1.45333	8.99523E-001	9.09668E-005	0.00000E+000	8.18267E-005	5.39641E-002	8.99727E-001	3.57400E+000	9	...........
	109	1.46667	9.01877E-001	9.10814E-005	0.00000E+000	8.21442E-005	5.39641E-002	9.02063E-001	3.57400E+000	9	...........
	110	1.48	9.04209E-001	9.08105E-005	0.00000E+000	8.21117E-005	5.39641E-002	9.04407E-001	3.57400E+000	9	...........
	111	1.49333	9.06536E-001	9.09543E-005	0.00000E+000	8.24534E-005	5.39641E-002	9.06730E-001	3.57400E+000	9	...........
	112	1.50667	9.08877E-001	9.12273E-005	0.00000E+000	8.29144E-005	5.39641E-002	9.09045E-001	3.57400E+000	9	...........
	113	1.52	9.11144E-001	9.10929E-005	0.00000E+000	8.29988E-005	5.39641E-002	9.11297E-001	3.57400E+000	9	...........
	114	1.53333	9.13398E-001	9.08272E-005	0.00000E+000	8.29613E-005	5.39641E-002	9.13575E-001	3.57400E+000	9	...........
	115	1.54667	9.15615E-001	9.10189E-005	0.00000E+000	8.33382E-005	5.39641E-002	9.15775E-001	3.57400E+000	9	...........
	116	1.56	9.17792E-001	9.10470E-005	0.00000E+000	8.35622E-005	5.39641E-002	9.17992E-001	3.57400E+000	9	...........
	117	1.57333	9.19980E-001	9.09908E-005	0.00000E+000	8.37097E-005	5.39641E-002	9.20148E-001	3.57400E+000	9	...........
	118	1.58667	9.22202E-001	9.13492E-005	0.00000E+000	8.42424E-005	5.39641E-002	9.22312E-001	3.57400E+000	9	...........
	119	1.6	9.24323E-001	9.09793E-005	0.00000E+000	8.40943E-005	5.39641E-002	9.24450E-001	3.57400E+000	9	...........
	120	1.61333	9.26395E-001	9.09189E-005	0.00000E+000	8.42268E-005	5.39641E-002	9.26560E-001	3.57400E+000	9	...........
	121	1.62667	9.28465E-001	9.08709E-005	0.00000E+000	8.43704E-005	5.39641E-002	9.28625E-001	3.57400E+000	9	...........
	122	1.64	9.30543E-001	9.09574E-005	0.00000E+000	8.46398E-005	5.39641E-002	9.30677E-001	3.57400E+000	9	...........
	123	1.65333	9.32564E-001	9.10835E-005	0.00000E+000	8.49411E-005	5.39641E-002	9.32715E-001	3.57400E+000	9	...........
	124	1.66667	9.34603E-001	9.08355E-005	0.00000E+000	8.48952E-005	5.39641E-002	9.34775E-001	3.57400E+000	9	...........
	125	1.68	9.36616E-001	9.10481E-005	0.00000E+000	8.52771E-005	5.39641E-002	9.36784E-001	3.57400E+000	9	...........
	126	1.69333	9.38591E-001	9.10918E-005	0.00000E+000	8.54979E-005	5.39641E-002	9.38788E-001	3.57295E+000	9	...........
	127	1.70667	9.40562E-001	9.10970E-005	0.00000E+000	8.56824E-005	5.39641E-002	9.40749E-001	3.57260E+000	9	...........
	128	1.72	9.42497E-001	9.10762E-005	0.00000E+000	8.58391E-005	5.39641E-002	9.42680E-001	3.57260E+000	9	...........
	129	1.73333	9.44412E-001	9.08657E-005	0.00000E+000	8.58147E-005	5.39641E-002	9.44589E-001	3.57260E+000	9	...........
	130	1.74667	9.46332E-001	9.08543E-005	0.00000E+000	8.59783E-005	5.39641E-002	9.46498E-001	3.57260E+000	9	...........
	131	1.76	9.48221E-001	9.08209E-005	0.00000E+000	8.61183E-005	5.39641E-002	9.48399E-001	3.57260E+000	9	...........
	132	1.77333	9.50100E-001	9.09314E-005	0.00000E+000	8.63939E-005	5.39641E-002	9.50268E-001	3.57260E+000	9	...........
	133	1.78667	9.51946E-001	9.08626E-005	0.00000E+000	8.64963E-005	5.39641E-002	9.52116E-001	3.57260E+000	9	...........
	134	1.8	9.53771E-001	9.10574E-005	0.00000E+000	8.68480E-005	5.39641E-002	9.53963E-001	3.57260E+000	9	...........
	135	1.81333	9.55567E-001	9.13054E-005	0.00000E+000	8.72484E-005	5.39641E-002	9.55749E-001	3.57260E+000	9	...........
	136	1.82667	9.57360E-001	9.10564E-005	0.00000E+000	8.71738E-005	5.39641E-002	9.57516E-001	3.57260E+000	9	...........
	137	1.84	9.59117E-001	9.13888E-005	0.00000E+000	8.76525E-005	5.39641E-002	9.59285E-001	3.57260E+000	9	...........
	138	1.85333	9.60850E-001	9.09553E-005	0.00000E+000	8.73945E-005	5.39641E-002	9.61020E-001	3.57260E+000	9	...........
	139	1.86667	9.62575E-001	9.12095E-005	0.00000E+000	8.77960E-005	5.39641E-002	9.62763E-001	3.57260E+000	9	...........
	140	1.88	9.64285E-001	9.12398E-005	0.00000E+000	8.79812E-005	5.39641E-002	9.64478E-001	3.57260E+000	9	...........
	141	1.89333	9.65952E-001	9.10501E-005	0.00000E+000	8.79501E-005	5.39641E-002	9.66154E-001	3.57260E+000	9	...........
	142	1.90667	9.67623E-001	9.13398E-005	0.00000E+000	8.83825E-005	5.39641E-002	9.67811E-001	3.57260E+000	9	...........
	143	1.92	9.69252E-001	9.11304E-005	0.00000E+000	8.83283E-005	5.39641E-002	9.69453E-001	3.57260E+000	9	...........
	144	1.93333	9.70908E-001	9.10512E-005	0.00000E+000	8.84023E-005	5.39641E-002	9.71120E-001	3.57260E+000	9	...........
	145	1.94667	9.72540E-001	9.10606E-005	0.00000E+000	8.85600E-005	5.39641E-002	9.72758E-001	3.57260E+000	9	...........
	146	1.96	9.74163E-001	9.09564E-005	0.00000E+000	8.86063E-005	5.39641E-002	9.74348E-001	3.57260E+000	9	...........
	147	1.97333	9.75747E-001	9.10835E-005	0.00000E+000	8.88744E-005	5.39641E-002	9.75925E-001	3.57260E+000	9	...........
	148	1.98667	9.77303E-001	9.09543E-005	0.00000E+000	8.88899E-005	5.39641E-002	9.77490E-001	3.57260E+000	9	...........
	149	2	9.78826E-001	9.07105E-005	0.00000E+000	8.87898E-005	5.39641E-002	9.79024E-001	3.57260E+000	9	...........
	150	2.01333	9.80368E-001	9.07657E-005	0.00000E+000	8.89838E-005	5.39641E-002	9.80541E-001	3.57260E+000	9	...........
	151	2.02667	9.81858E-001	9.09241E-005	0.00000E+000	8.92745E-005	5.39641E-002	9.82049E-001	3.57260E+000	9	...........
	152	2.04	9.83359E-001	9.10043E-005	0.00000E+000	8.94899E-005	5.39641E-002	9.83579E-001	3.57260E+000	9	...........
	153	2.05333	9.84868E-001	9.11356E-005	0.00000E+000	8.97565E-005	5.39641E-002	9.85094E-001	3.57260E+000	9	...........
	154	2.06667	9.86340E-001	9.09939E-005	0.00000E+000	8.97509E-005	5.39641E-002	9.86541E-001	3.57260E+000	9	...........
	155	2.08	9.87783E-001	9.10408E-005	0.00000E+000	8.99285E-005	5.39641E-002	9.87981E-001	3.57260E+000	9	...........
	156	2.09333	9.89231E-001	9.10387E-005	0.00000E+000	9.00583E-005	5.39641E-002	9.89427E-001	3.57260E+000	9	...........
	157	2.10667	9.90655E-001	9.10085E-005	0.00000E+000	9.01580E-005	5.39641E-002	9.90831E-001	3.57260E+000	9	...........
	158	2.12	9.92059E-001	9.10387E-005	0.00000E+000	9.03158E-005	5.39641E-002	9.92230E-001	3.57260E+000	9	...........
	159	2.13333	9.93436E-001	9.09553E-005	0.00000E+000	9.03583E-005	5.39641E-002	9.93624E-001	3.57260E+000	9	...........
	160	2.14667	9.94799E-001	9.12252E-005	0.00000E+000	9.07507E-005	5.39641E-002	9.95000E-001	3.57260E+000	9	...........
	161	2.16	9.96170E-001	9.09116E-005	0.00000E+000	9.05633E-005	5.39641E-002	9.96362E-001	3.57260E+000	9	...........
	162	2.17333	9.97521E-001	9.10449E-005	0.00000E+000	9.08193E-005	5.39641E-002	9.97744E-001	3.57260E+000	9	...........
	163	2.18667	9.98867E-001	9.08532E-005	0.00000E+000	9.07503E-005	5.39641E-002	9.99074E-001	3.57260E+000	9	...........
	164	2.19333	9.99864E-001	9.13523E-005	0.00000E+000	9.13398E-005	5.39641E-002	1.00008E+000	3.57260E+000	9	...........
STARTTIMEOFFSET	QUANT	2931.798	Start Time Offset (s)
