EXPLAIN
TAG	PWR800_CHARGE
TITLE	LABEL	PWR Cyclic Charge Discharge (Cell) - Charge Step	Test &Identifier
DATE	LABEL	10-7-2017	Date
TIME	LABEL	15:57:49	Time
NOTES	NOTES	3	&Notes...
	supercap test cell
	0.9mg
	6M KOH
PSTAT	PSTAT	IFC5000-01520	Potentiostat
CAPACITY	QUANT	1.00000E-003	Capacity (A-hr)
CELLTYPE	SELECTOR	1	&Cell Type
WORKINGCONNECTION	SELECTOR	0	&Working Lead
MAXCHARGETIME	VARIABLEANDUNITS	1.00000E+002	s	1.00000E+002	second(s)	Max &Charge Time
CHARGECURRENT	QUANT	9.00000E-005	&Charge Current (A) 
VOLTAGEFINISH	TWOPARAM	F	1.00000E-003	3.60000E+003	&Voltage Finish	 I (A) < 	Max Time(s)
SAMPLETIME	QUANT	1.00000E-002	Sa&mple Period (s)
CHARGESTOPAT1	MULTIPARAM	4	1.00000E+000	Charge Stop At &1	Voltage > Limit	V
CHARGESTOPAT2	MULTIPARAM	0	0.00000E+000	Charge Stop At &2	None	N/A
AESBHCSELECTOR	TOGGLE	F	Save Both Half Cells
IRCOMP	TOGGLE	F	IR &Measure
EOC	QUANT	0	Open Circuit (V)
SEQUENCER	TOGGLE	TRUE	Run as Sequence
PSTATMODEL	IQUANT	53	Pstat Model
PSTATSECTION	LABEL	IFC5000-01520	Pstat Section
PSTATSERIALNO	LABEL	01520	Pstat Serial Number
CTRLMODE	IQUANT	0	Control Mode
ELECTROMETER	IQUANT	1	RE=0 or CS=1
IESTAB	IQUANT	0	I/E Stability
CASPEED	IQUANT	4	Control Amp Speed
CONVENTION	IQUANT	1	Current Convention
ICHRANGE	IQUANT	2	Ich Range
ICHRANGEMODE	TOGGLE	T	Ich Auto Range
ICHOFFSETENABLE	TOGGLE	F	Ich Offset Enable
ICHOFFSET	QUANT	0	Ich Offset (V)
ICHFILTER	IQUANT	1	Ich Filter
VCHRANGE	IQUANT	2	Vch Range
VCHRANGEMODE	TOGGLE	T	Vch Auto Range
VCHOFFSETENABLE	TOGGLE	F	Vch Offset Enable
VCHOFFSET	QUANT	0	Vch Offset (V)
VCHFILTER	IQUANT	1	Vch Filter
IERANGELOWERLIMIT	IQUANT	9	I/E Range Lower Limit
IERANGEMODE	TOGGLE	F	I/E AutoRange
IERANGE	IQUANT	9	I/E Range
ACHSELECT	IQUANT	1	Ach Select
ACHRANGE	IQUANT	2	Ach Range
ACHOFFSETENABLE	TOGGLE	F	Ach Offset Enable
ACHOFFSET	QUANT	0	Ach Offset (V)
ACHFILTER	IQUANT	1	Ach Filter
CABLEID	IQUANT	14	Cable ID
DCCALDATE	LABEL	5-7-2017	DC Calibration Date
ACCALDATE	LABEL	12/3/2015	AC Calibration Date
FRAMEWORKVERSION	QUANT	7.01	Framework Version
INSTRUMENTVERSION	LABEL	4.00	Instrument Version
CURVE	TABLE	165
	Pt	T	Vf	Im	Vu	Pwr	Sig	Ach	Temp	IERange	Over
	#	s	V	A	V	W	V	V	deg C	#	bits
	0	0.013333	2.64288E-001	9.08751E-005	0.00000E+000	2.40172E-005	5.39641E-002	2.64345E-001	3.57380E+000	9	...........
	1	0.026667	2.84147E-001	9.09241E-005	0.00000E+000	2.58358E-005	5.39641E-002	2.84185E-001	3.57380E+000	9	...........
	2	0.04	3.02747E-001	9.08407E-005	0.00000E+000	2.75017E-005	5.39641E-002	3.02791E-001	3.57380E+000	9	...........
	3	0.053333	3.20270E-001	9.08761E-005	0.00000E+000	2.91049E-005	5.39641E-002	3.20312E-001	3.57380E+000	9	...........
	4	0.066667	3.36818E-001	9.08751E-005	0.00000E+000	3.06084E-005	5.39641E-002	3.36866E-001	3.57380E+000	9	...........
	5	0.08	3.52515E-001	9.09293E-005	0.00000E+000	3.20540E-005	5.39641E-002	3.52560E-001	3.57380E+000	9	...........
	6	0.093333	3.67435E-001	9.10814E-005	0.00000E+000	3.34665E-005	5.39641E-002	3.67482E-001	3.57380E+000	9	...........
	7	0.106667	3.81647E-001	9.07334E-005	0.00000E+000	3.46281E-005	5.39641E-002	3.81699E-001	3.57380E+000	9	...........
	8	0.12	3.95212E-001	9.09105E-005	0.00000E+000	3.59290E-005	5.39641E-002	3.95263E-001	3.57380E+000	9	...........
	9	0.133333	4.08177E-001	9.11866E-005	0.00000E+000	3.72203E-005	5.39641E-002	4.08229E-001	3.57380E+000	9	...........
	10	0.146667	4.20591E-001	9.10564E-005	0.00000E+000	3.82975E-005	5.39641E-002	4.20656E-001	3.57380E+000	9	...........
	11	0.16	4.32498E-001	9.08501E-005	0.00000E+000	3.92925E-005	5.39641E-002	4.32561E-001	3.57380E+000	9	...........
	12	0.173333	4.43935E-001	9.08689E-005	0.00000E+000	4.03398E-005	5.39641E-002	4.43999E-001	3.57380E+000	9	...........
	13	0.186667	4.54940E-001	9.09293E-005	0.00000E+000	4.13674E-005	5.39641E-002	4.55012E-001	3.57380E+000	9	...........
	14	0.2	4.65553E-001	9.09720E-005	0.00000E+000	4.23523E-005	5.39641E-002	4.65619E-001	3.57380E+000	9	...........
	15	0.213333	4.75794E-001	9.11199E-005	0.00000E+000	4.33543E-005	5.39641E-002	4.75857E-001	3.57380E+000	9	...........
	16	0.226667	4.85698E-001	9.07647E-005	0.00000E+000	4.40842E-005	5.39641E-002	4.85764E-001	3.57380E+000	9	...........
	17	0.24	4.95271E-001	9.07938E-005	0.00000E+000	4.49676E-005	5.39641E-002	4.95347E-001	3.57380E+000	9	...........
	18	0.253333	5.04534E-001	9.10074E-005	0.00000E+000	4.59163E-005	5.39641E-002	5.04602E-001	3.57380E+000	9	...........
	19	0.266667	5.13491E-001	9.09866E-005	0.00000E+000	4.67208E-005	5.39641E-002	5.13562E-001	3.57380E+000	9	...........
	20	0.28	5.22199E-001	9.10074E-005	0.00000E+000	4.75240E-005	5.39641E-002	5.22276E-001	3.57380E+000	9	...........
	21	0.293333	5.30641E-001	9.10960E-005	0.00000E+000	4.83393E-005	5.39641E-002	5.30724E-001	3.57380E+000	9	...........
	22	0.306667	5.38774E-001	9.09053E-005	0.00000E+000	4.89775E-005	5.39641E-002	5.38906E-001	3.57380E+000	9	...........
	23	0.32	5.46751E-001	9.10533E-005	0.00000E+000	4.97835E-005	5.39641E-002	5.46892E-001	3.57380E+000	9	...........
	24	0.333333	5.54540E-001	9.10658E-005	0.00000E+000	5.04996E-005	5.39641E-002	5.54677E-001	3.57380E+000	9	...........
	25	0.346667	5.62123E-001	9.11668E-005	0.00000E+000	5.12470E-005	5.39641E-002	5.62265E-001	3.57380E+000	9	...........
	26	0.36	5.69532E-001	9.10918E-005	0.00000E+000	5.18797E-005	5.39641E-002	5.69657E-001	3.57380E+000	9	...........
	27	0.373333	5.76707E-001	9.10324E-005	0.00000E+000	5.24991E-005	5.39641E-002	5.76857E-001	3.57380E+000	9	...........
	28	0.386667	5.83707E-001	9.09876E-005	0.00000E+000	5.31101E-005	5.39641E-002	5.83868E-001	3.57380E+000	9	...........
	29	0.4	5.90605E-001	9.12033E-005	0.00000E+000	5.38651E-005	5.39641E-002	5.90750E-001	3.57380E+000	9	...........
	30	0.413333	5.97293E-001	9.11002E-005	0.00000E+000	5.44135E-005	5.39641E-002	5.97448E-001	3.57380E+000	9	...........
	31	0.426667	6.03837E-001	9.12971E-005	0.00000E+000	5.51286E-005	5.39641E-002	6.03996E-001	3.57380E+000	9	...........
	32	0.44	6.10196E-001	9.09658E-005	0.00000E+000	5.55069E-005	5.39641E-002	6.10370E-001	3.57380E+000	9	...........
	33	0.453333	6.16534E-001	9.09230E-005	0.00000E+000	5.60572E-005	5.39641E-002	6.16638E-001	3.57380E+000	9	...........
	34	0.466667	6.22672E-001	9.10939E-005	0.00000E+000	5.67216E-005	5.39641E-002	6.22746E-001	3.57380E+000	9	...........
	35	0.48	6.28656E-001	9.09262E-005	0.00000E+000	5.71613E-005	5.39641E-002	6.28779E-001	3.57380E+000	9	...........
	36	0.493333	6.34533E-001	9.11022E-005	0.00000E+000	5.78074E-005	5.39641E-002	6.34643E-001	3.57380E+000	9	...........
	37	0.506667	6.40313E-001	9.06678E-005	0.00000E+000	5.80558E-005	5.39641E-002	6.40436E-001	3.57380E+000	9	...........
	38	0.52	6.45975E-001	9.07136E-005	0.00000E+000	5.85987E-005	5.39641E-002	6.46091E-001	3.57380E+000	9	...........
	39	0.533333	6.51525E-001	9.09418E-005	0.00000E+000	5.92508E-005	5.39641E-002	6.51642E-001	3.57380E+000	9	...........
	40	0.546667	6.56976E-001	9.09876E-005	0.00000E+000	5.97766E-005	5.39641E-002	6.57099E-001	3.57380E+000	9	...........
	41	0.56	6.62302E-001	9.09793E-005	0.00000E+000	6.02558E-005	5.39641E-002	6.62413E-001	3.57380E+000	9	...........
	42	0.573333	6.67608E-001	9.08959E-005	0.00000E+000	6.06829E-005	5.39641E-002	6.67705E-001	3.57380E+000	9	...........
	43	0.586667	6.72756E-001	9.11731E-005	0.00000E+000	6.13373E-005	5.39641E-002	6.72877E-001	3.57380E+000	9	...........
	44	0.6	6.77849E-001	9.09960E-005	0.00000E+000	6.16816E-005	5.39641E-002	6.77962E-001	3.57380E+000	9	...........
	45	0.613333	6.82838E-001	9.11012E-005	0.00000E+000	6.22073E-005	5.39641E-002	6.82934E-001	3.57380E+000	9	...........
	46	0.626667	6.87767E-001	9.10449E-005	0.00000E+000	6.26177E-005	5.39641E-002	6.87877E-001	3.57380E+000	9	...........
	47	0.64	6.92616E-001	9.09845E-005	0.00000E+000	6.30173E-005	5.39641E-002	6.92723E-001	3.57380E+000	9	...........
	48	0.653333	6.97412E-001	9.08063E-005	0.00000E+000	6.33294E-005	5.39641E-002	6.97522E-001	3.57380E+000	9	...........
	49	0.666667	7.02096E-001	9.07949E-005	0.00000E+000	6.37467E-005	5.39641E-002	7.02190E-001	3.57380E+000	9	...........
	50	0.68	7.06701E-001	9.10106E-005	0.00000E+000	6.43173E-005	5.39641E-002	7.06833E-001	3.57380E+000	9	...........
	51	0.693333	7.11228E-001	9.10991E-005	0.00000E+000	6.47922E-005	5.39641E-002	7.11359E-001	3.57380E+000	9	...........
	52	0.706667	7.15721E-001	9.10303E-005	0.00000E+000	6.51523E-005	5.39641E-002	7.15896E-001	3.57380E+000	9	...........
	53	0.72	7.20191E-001	9.07376E-005	0.00000E+000	6.53484E-005	5.39641E-002	7.20323E-001	3.57380E+000	9	...........
	54	0.733333	7.24543E-001	9.09605E-005	0.00000E+000	6.59048E-005	5.39641E-002	7.24678E-001	3.57380E+000	9	...........
	55	0.746667	7.28861E-001	9.11408E-005	0.00000E+000	6.64289E-005	5.39641E-002	7.29010E-001	3.57380E+000	9	...........
	56	0.76	7.33100E-001	9.10449E-005	0.00000E+000	6.67450E-005	5.39641E-002	7.33220E-001	3.57380E+000	9	...........
	57	0.773333	7.37293E-001	9.11418E-005	0.00000E+000	6.71982E-005	5.39641E-002	7.37411E-001	3.57380E+000	9	...........
	58	0.786667	7.41450E-001	9.11179E-005	0.00000E+000	6.75594E-005	5.39641E-002	7.41569E-001	3.57380E+000	9	...........
	59	0.8	7.45539E-001	9.09480E-005	0.00000E+000	6.78054E-005	5.39641E-002	7.45634E-001	3.57380E+000	9	...........
	60	0.813333	7.49626E-001	9.10699E-005	0.00000E+000	6.82684E-005	5.39641E-002	7.49719E-001	3.57393E+000	9	...........
	61	0.826667	7.53601E-001	9.09105E-005	0.00000E+000	6.85103E-005	5.39641E-002	7.53719E-001	3.57400E+000	9	...........
	62	0.84	7.57569E-001	9.10220E-005	0.00000E+000	6.89554E-005	5.39641E-002	7.57650E-001	3.57400E+000	9	...........
	63	0.853333	7.61422E-001	9.08887E-005	0.00000E+000	6.92046E-005	5.39641E-002	7.61514E-001	3.57400E+000	9	...........
	64	0.866667	7.65256E-001	9.08876E-005	0.00000E+000	6.95522E-005	5.39641E-002	7.65375E-001	3.57400E+000	9	...........
	65	0.88	7.69056E-001	9.11147E-005	0.00000E+000	7.00723E-005	5.39641E-002	7.69200E-001	3.57400E+000	9	...........
	66	0.893333	7.72816E-001	9.08616E-005	0.00000E+000	7.02193E-005	5.39641E-002	7.72921E-001	3.57400E+000	9	...........
	67	0.906667	7.76500E-001	9.10751E-005	0.00000E+000	7.07198E-005	5.39641E-002	7.76619E-001	3.57400E+000	9	...........
	68	0.92	7.80189E-001	9.11429E-005	0.00000E+000	7.11086E-005	5.39641E-002	7.80320E-001	3.57400E+000	9	...........
	69	0.933333	7.83830E-001	9.10856E-005	0.00000E+000	7.13956E-005	5.39641E-002	7.83952E-001	3.57400E+000	9	...........
	70	0.946667	7.87414E-001	9.09407E-005	0.00000E+000	7.16080E-005	5.39641E-002	7.87530E-001	3.57400E+000	9	...........
	71	0.96	7.90990E-001	9.10585E-005	0.00000E+000	7.20263E-005	5.39641E-002	7.91119E-001	3.57400E+000	9	...........
	72	0.97333	7.94528E-001	9.11481E-005	0.00000E+000	7.24197E-005	5.39641E-002	7.94650E-001	3.57400E+000	9	...........
	73	0.98667	7.97981E-001	9.08188E-005	0.00000E+000	7.24717E-005	5.39641E-002	7.98127E-001	3.57400E+000	9	...........
	74	1	8.01416E-001	9.11523E-005	0.00000E+000	7.30509E-005	5.39641E-002	8.01546E-001	3.57400E+000	9	...........
	75	1.01333	8.04769E-001	9.09074E-005	0.00000E+000	7.31594E-005	5.39641E-002	8.04908E-001	3.57400E+000	9	...........
	76	1.02667	8.08136E-001	9.11189E-005	0.00000E+000	7.36365E-005	5.39641E-002	8.08257E-001	3.57400E+000	9	...........
	77	1.04	8.11449E-001	9.11387E-005	0.00000E+000	7.39544E-005	5.39641E-002	8.11607E-001	3.57400E+000	9	...........
	78	1.05333	8.14733E-001	9.09532E-005	0.00000E+000	7.41026E-005	5.39641E-002	8.14896E-001	3.57400E+000	9	...........
	79	1.06667	8.17995E-001	9.10199E-005	0.00000E+000	7.44538E-005	5.39641E-002	8.18173E-001	3.57400E+000	9	...........
	80	1.08	8.21231E-001	9.12335E-005	0.00000E+000	7.49238E-005	5.39641E-002	8.21395E-001	3.57400E+000	9	...........
	81	1.09333	8.24374E-001	9.10116E-005	0.00000E+000	7.50276E-005	5.39641E-002	8.24558E-001	3.57400E+000	9	...........
	82	1.10667	8.27504E-001	9.10293E-005	0.00000E+000	7.53271E-005	5.39641E-002	8.27648E-001	3.57400E+000	9	...........
	83	1.12	8.30583E-001	9.12575E-005	0.00000E+000	7.57970E-005	5.39641E-002	8.30773E-001	3.57400E+000	9	...........
	84	1.13333	8.33657E-001	9.09543E-005	0.00000E+000	7.58247E-005	5.39641E-002	8.33852E-001	3.57400E+000	9	...........
	85	1.14667	8.36717E-001	9.10543E-005	0.00000E+000	7.61867E-005	5.39641E-002	8.36907E-001	3.57400E+000	9	...........
	86	1.16	8.39741E-001	9.10428E-005	0.00000E+000	7.64524E-005	5.39641E-002	8.39898E-001	3.57400E+000	9	...........
	87	1.17333	8.42683E-001	9.10303E-005	0.00000E+000	7.67097E-005	5.39641E-002	8.42868E-001	3.57400E+000	9	...........
	88	1.18667	8.45670E-001	9.08199E-005	0.00000E+000	7.68037E-005	5.39641E-002	8.45842E-001	3.57400E+000	9	...........
	89	1.2	8.48589E-001	9.09564E-005	0.00000E+000	7.71846E-005	5.39641E-002	8.48759E-001	3.57400E+000	9	...........
	90	1.21333	8.51474E-001	9.11679E-005	0.00000E+000	7.76270E-005	5.39641E-002	8.51637E-001	3.57400E+000	9	...........
	91	1.22667	8.54336E-001	9.11720E-005	0.00000E+000	7.78915E-005	5.39641E-002	8.54498E-001	3.57400E+000	9	...........
	92	1.24	8.57189E-001	9.09710E-005	0.00000E+000	7.79793E-005	5.39641E-002	8.57343E-001	3.57400E+000	9	...........
	93	1.25333	8.59983E-001	9.10022E-005	0.00000E+000	7.82604E-005	5.39641E-002	8.60148E-001	3.57400E+000	9	...........
	94	1.26667	8.62764E-001	9.09678E-005	0.00000E+000	7.84838E-005	5.39641E-002	8.62922E-001	3.57400E+000	9	...........
	95	1.28	8.65506E-001	9.11741E-005	0.00000E+000	7.89118E-005	5.39641E-002	8.65666E-001	3.57400E+000	9	...........
	96	1.29333	8.68232E-001	9.09387E-005	0.00000E+000	7.89559E-005	5.39641E-002	8.68379E-001	3.57400E+000	9	...........
	97	1.30667	8.70948E-001	9.10178E-005	0.00000E+000	7.92718E-005	5.39641E-002	8.71089E-001	3.57400E+000	9	...........
	98	1.32	8.73617E-001	9.09168E-005	0.00000E+000	7.94264E-005	5.39641E-002	8.73767E-001	3.57400E+000	9	...........
	99	1.33333	8.76270E-001	9.11283E-005	0.00000E+000	7.98530E-005	5.39641E-002	8.76422E-001	3.57400E+000	9	...........
	100	1.34667	8.78903E-001	9.09887E-005	0.00000E+000	7.99702E-005	5.39641E-002	8.79054E-001	3.57400E+000	9	...........
	101	1.36	8.81476E-001	9.12398E-005	0.00000E+000	8.04257E-005	5.39641E-002	8.81662E-001	3.57400E+000	9	...........
	102	1.37333	8.84063E-001	9.10616E-005	0.00000E+000	8.05042E-005	5.39641E-002	8.84241E-001	3.57400E+000	9	...........
	103	1.38667	8.86578E-001	9.08845E-005	0.00000E+000	8.05762E-005	5.39641E-002	8.86779E-001	3.57400E+000	9	...........
	104	1.4	8.89103E-001	9.12752E-005	0.00000E+000	8.11530E-005	5.39641E-002	8.89293E-001	3.57400E+000	9	...........
	105	1.41333	8.91605E-001	9.12033E-005	0.00000E+000	8.13173E-005	5.39641E-002	8.91772E-001	3.57400E+000	9	...........
	106	1.42667	8.94064E-001	9.10710E-005	0.00000E+000	8.14233E-005	5.39641E-002	8.94250E-001	3.57400E+000	9	...........
	107	1.44	8.96499E-001	9.12585E-005	0.00000E+000	8.18132E-005	5.39641E-002	8.96715E-001	3.57400E+000	9	...........
	108	1.45333	8.98901E-001	9.09397E-005	0.00000E+000	8.17458E-005	5.39641E-002	8.99089E-001	3.57400E+000	9	...........
	109	1.46667	9.01261E-001	9.09741E-005	0.00000E+000	8.19914E-005	5.39641E-002	9.01497E-001	3.57400E+000	9	...........
	110	1.48	9.03624E-001	9.11387E-005	0.00000E+000	8.23551E-005	5.39641E-002	9.03828E-001	3.57400E+000	9	...........
	111	1.49333	9.05940E-001	9.12012E-005	0.00000E+000	8.26228E-005	5.39641E-002	9.06152E-001	3.57400E+000	9	...........
	112	1.50667	9.08238E-001	9.10001E-005	0.00000E+000	8.26498E-005	5.39641E-002	9.08455E-001	3.57400E+000	9	...........
	113	1.52	9.10524E-001	9.11137E-005	0.00000E+000	8.29612E-005	5.39641E-002	9.10723E-001	3.57400E+000	9	...........
	114	1.53333	9.12779E-001	9.09418E-005	0.00000E+000	8.30097E-005	5.39641E-002	9.12963E-001	3.57400E+000	9	...........
	115	1.54667	9.15015E-001	9.10085E-005	0.00000E+000	8.32741E-005	5.39641E-002	9.15243E-001	3.57400E+000	9	...........
	116	1.56	9.17223E-001	9.10866E-005	0.00000E+000	8.35467E-005	5.39641E-002	9.17449E-001	3.57400E+000	9	...........
	117	1.57333	9.19425E-001	9.11439E-005	0.00000E+000	8.38000E-005	5.39641E-002	9.19634E-001	3.57400E+000	9	...........
	118	1.58667	9.21661E-001	9.13565E-005	0.00000E+000	8.41997E-005	5.39641E-002	9.21808E-001	3.57400E+000	9	...........
	119	1.6	9.23768E-001	9.12325E-005	0.00000E+000	8.42776E-005	5.39641E-002	9.23962E-001	3.57400E+000	9	...........
	120	1.61333	9.25897E-001	9.08793E-005	0.00000E+000	8.41449E-005	5.39641E-002	9.26050E-001	3.57400E+000	9	...........
	121	1.62667	9.28016E-001	9.09324E-005	0.00000E+000	8.43867E-005	5.39641E-002	9.28151E-001	3.57400E+000	9	...........
	122	1.64	9.30090E-001	9.09199E-005	0.00000E+000	8.45637E-005	5.39641E-002	9.30219E-001	3.57400E+000	9	...........
	123	1.65333	9.32126E-001	9.10751E-005	0.00000E+000	8.48935E-005	5.39641E-002	9.32262E-001	3.57400E+000	9	...........
	124	1.66667	9.34183E-001	9.09022E-005	0.00000E+000	8.49193E-005	5.39641E-002	9.34340E-001	3.57400E+000	9	...........
	125	1.68	9.36212E-001	9.10783E-005	0.00000E+000	8.52686E-005	5.39641E-002	9.36373E-001	3.57400E+000	9	...........
	126	1.69333	9.38204E-001	9.09084E-005	0.00000E+000	8.52907E-005	5.39641E-002	9.38386E-001	3.57400E+000	9	...........
	127	1.70667	9.40166E-001	9.11418E-005	0.00000E+000	8.56885E-005	5.39641E-002	9.40345E-001	3.57400E+000	9	...........
	128	1.72	9.42118E-001	9.09355E-005	0.00000E+000	8.56720E-005	5.39641E-002	9.42281E-001	3.57400E+000	9	...........
	129	1.73333	9.44028E-001	9.10512E-005	0.00000E+000	8.59549E-005	5.39641E-002	9.44213E-001	3.57400E+000	9	...........
	130	1.74667	9.45931E-001	9.11033E-005	0.00000E+000	8.61774E-005	5.39641E-002	9.46138E-001	3.57400E+000	9	...........
	131	1.76	9.47857E-001	9.08355E-005	0.00000E+000	8.60991E-005	5.39641E-002	9.48038E-001	3.57400E+000	9	...........
	132	1.77333	9.49715E-001	9.10689E-005	0.00000E+000	8.64895E-005	5.39641E-002	9.49888E-001	3.57400E+000	9	...........
	133	1.78667	9.51561E-001	9.09314E-005	0.00000E+000	8.65267E-005	5.39641E-002	9.51765E-001	3.57400E+000	9	...........
	134	1.8	9.53380E-001	9.09876E-005	0.00000E+000	8.67458E-005	5.39641E-002	9.53560E-001	3.57400E+000	9	...........
	135	1.81333	9.55157E-001	9.09939E-005	0.00000E+000	8.69134E-005	5.39641E-002	9.55336E-001	3.57324E+000	9	...........
	136	1.82667	9.56939E-001	9.07980E-005	0.00000E+000	8.68881E-005	5.39641E-002	9.57110E-001	3.57280E+000	9	...........
	137	1.84	9.58709E-001	9.10366E-005	0.00000E+000	8.72777E-005	5.39641E-002	9.58894E-001	3.57280E+000	9	...........
	138	1.85333	9.60486E-001	9.09553E-005	0.00000E+000	8.73614E-005	5.39641E-002	9.60633E-001	3.57280E+000	9	...........
	139	1.86667	9.62207E-001	9.11147E-005	0.00000E+000	8.76713E-005	5.39641E-002	9.62373E-001	3.57280E+000	9	...........
	140	1.88	9.63928E-001	9.12179E-005	0.00000E+000	8.79274E-005	5.39641E-002	9.64106E-001	3.57280E+000	9	...........
	141	1.89333	9.65628E-001	9.09647E-005	0.00000E+000	8.78381E-005	5.39641E-002	9.65786E-001	3.57280E+000	9	...........
	142	1.90667	9.67300E-001	9.08355E-005	0.00000E+000	8.78652E-005	5.39641E-002	9.67476E-001	3.57280E+000	9	...........
	143	1.92	9.68935E-001	9.10741E-005	0.00000E+000	8.82449E-005	5.39641E-002	9.69129E-001	3.57280E+000	9	...........
	144	1.93333	9.70550E-001	9.10303E-005	0.00000E+000	8.83495E-005	5.39641E-002	9.70776E-001	3.57280E+000	9	...........
	145	1.94667	9.72194E-001	9.11866E-005	0.00000E+000	8.86511E-005	5.39641E-002	9.72429E-001	3.57280E+000	9	...........
	146	1.96	9.73829E-001	9.10137E-005	0.00000E+000	8.86317E-005	5.39641E-002	9.74018E-001	3.57280E+000	9	...........
	147	1.97333	9.75419E-001	9.11866E-005	0.00000E+000	8.89452E-005	5.39641E-002	9.75608E-001	3.57280E+000	9	...........
	148	1.98667	9.76973E-001	9.08970E-005	0.00000E+000	8.88039E-005	5.39641E-002	9.77163E-001	3.57280E+000	9	...........
	149	2	9.78516E-001	9.08241E-005	0.00000E+000	8.88728E-005	5.39641E-002	9.78721E-001	3.57280E+000	9	...........
	150	2.01333	9.80071E-001	9.11658E-005	0.00000E+000	8.93490E-005	5.39641E-002	9.80268E-001	3.57280E+000	9	...........
	151	2.02667	9.81577E-001	9.08689E-005	0.00000E+000	8.91947E-005	5.39641E-002	9.81766E-001	3.57280E+000	9	...........
	152	2.04	9.83070E-001	9.11898E-005	0.00000E+000	8.96459E-005	5.39641E-002	9.83281E-001	3.57280E+000	9	...........
	153	2.05333	9.84563E-001	9.09241E-005	0.00000E+000	8.95205E-005	5.39641E-002	9.84759E-001	3.57280E+000	9	...........
	154	2.06667	9.86052E-001	9.11929E-005	0.00000E+000	8.99209E-005	5.39641E-002	9.86259E-001	3.57280E+000	9	...........
	155	2.08	9.87509E-001	9.12783E-005	0.00000E+000	9.01381E-005	5.39641E-002	9.87716E-001	3.57280E+000	9	...........
	156	2.09333	9.88971E-001	9.10418E-005	0.00000E+000	9.00377E-005	5.39641E-002	9.89145E-001	3.57280E+000	9	...........
	157	2.10667	9.90414E-001	9.09084E-005	0.00000E+000	9.00370E-005	5.39641E-002	9.90595E-001	3.57280E+000	9	...........
	158	2.12	9.91808E-001	9.10408E-005	0.00000E+000	9.02950E-005	5.39641E-002	9.91989E-001	3.57280E+000	9	...........
	159	2.13333	9.93190E-001	9.10585E-005	0.00000E+000	9.04384E-005	5.39641E-002	9.93407E-001	3.57280E+000	9	...........
	160	2.14667	9.94589E-001	9.09512E-005	0.00000E+000	9.04590E-005	5.39641E-002	9.94785E-001	3.57280E+000	9	...........
	161	2.16	9.95957E-001	9.08834E-005	0.00000E+000	9.05160E-005	5.39641E-002	9.96151E-001	3.57280E+000	9	...........
	162	2.17333	9.97308E-001	9.10158E-005	0.00000E+000	9.07707E-005	5.39641E-002	9.97535E-001	3.57280E+000	9	...........
	163	2.18667	9.98659E-001	9.08011E-005	0.00000E+000	9.06794E-005	5.39641E-002	9.98857E-001	3.57280E+000	9	...........
	164	2.195	9.99728E-001	9.07192E-005	0.00000E+000	9.06946E-005	5.39641E-002	9.99915E-001	3.57280E+000	9	...........
STARTTIMEOFFSET	QUANT	2956.86	Start Time Offset (s)
