EXPLAIN
TAG	PWR800_CHARGE
TITLE	LABEL	PWR Cyclic Charge Discharge (Cell) - Charge Step	Test &Identifier
DATE	LABEL	10-7-2017	Date
TIME	LABEL	15:45:08	Time
NOTES	NOTES	3	&Notes...
	supercap test cell
	0.9mg
	6M KOH
PSTAT	PSTAT	IFC5000-01520	Potentiostat
CAPACITY	QUANT	1.00000E-003	Capacity (A-hr)
CELLTYPE	SELECTOR	1	&Cell Type
WORKINGCONNECTION	SELECTOR	0	&Working Lead
MAXCHARGETIME	VARIABLEANDUNITS	1.00000E+002	s	1.00000E+002	second(s)	Max &Charge Time
CHARGECURRENT	QUANT	9.00000E-005	&Charge Current (A) 
VOLTAGEFINISH	TWOPARAM	F	1.00000E-003	3.60000E+003	&Voltage Finish	 I (A) < 	Max Time(s)
SAMPLETIME	QUANT	1.00000E-002	Sa&mple Period (s)
CHARGESTOPAT1	MULTIPARAM	4	1.00000E+000	Charge Stop At &1	Voltage > Limit	V
CHARGESTOPAT2	MULTIPARAM	0	0.00000E+000	Charge Stop At &2	None	N/A
AESBHCSELECTOR	TOGGLE	F	Save Both Half Cells
IRCOMP	TOGGLE	F	IR &Measure
EOC	QUANT	0	Open Circuit (V)
SEQUENCER	TOGGLE	TRUE	Run as Sequence
PSTATMODEL	IQUANT	53	Pstat Model
PSTATSECTION	LABEL	IFC5000-01520	Pstat Section
PSTATSERIALNO	LABEL	01520	Pstat Serial Number
CTRLMODE	IQUANT	0	Control Mode
ELECTROMETER	IQUANT	1	RE=0 or CS=1
IESTAB	IQUANT	0	I/E Stability
CASPEED	IQUANT	4	Control Amp Speed
CONVENTION	IQUANT	1	Current Convention
ICHRANGE	IQUANT	2	Ich Range
ICHRANGEMODE	TOGGLE	T	Ich Auto Range
ICHOFFSETENABLE	TOGGLE	F	Ich Offset Enable
ICHOFFSET	QUANT	0	Ich Offset (V)
ICHFILTER	IQUANT	1	Ich Filter
VCHRANGE	IQUANT	2	Vch Range
VCHRANGEMODE	TOGGLE	T	Vch Auto Range
VCHOFFSETENABLE	TOGGLE	F	Vch Offset Enable
VCHOFFSET	QUANT	0	Vch Offset (V)
VCHFILTER	IQUANT	1	Vch Filter
IERANGELOWERLIMIT	IQUANT	9	I/E Range Lower Limit
IERANGEMODE	TOGGLE	F	I/E AutoRange
IERANGE	IQUANT	9	I/E Range
ACHSELECT	IQUANT	1	Ach Select
ACHRANGE	IQUANT	2	Ach Range
ACHOFFSETENABLE	TOGGLE	F	Ach Offset Enable
ACHOFFSET	QUANT	0	Ach Offset (V)
ACHFILTER	IQUANT	1	Ach Filter
CABLEID	IQUANT	14	Cable ID
DCCALDATE	LABEL	5-7-2017	DC Calibration Date
ACCALDATE	LABEL	12/3/2015	AC Calibration Date
FRAMEWORKVERSION	QUANT	7.01	Framework Version
INSTRUMENTVERSION	LABEL	4.00	Instrument Version
CURVE	TABLE	168
	Pt	T	Vf	Im	Vu	Pwr	Sig	Ach	Temp	IERange	Over
	#	s	V	A	V	W	V	V	deg C	#	bits
	0	0.013333	2.74721E-001	9.08491E-005	0.00000E+000	2.49581E-005	5.39641E-002	2.74760E-001	3.57290E+000	9	...........
	1	0.026667	2.94376E-001	9.08480E-005	0.00000E+000	2.67435E-005	5.39641E-002	2.94414E-001	3.57290E+000	9	...........
	2	0.04	3.12702E-001	9.09209E-005	0.00000E+000	2.84312E-005	5.39641E-002	3.12745E-001	3.57290E+000	9	...........
	3	0.053333	3.29914E-001	9.11356E-005	0.00000E+000	3.00669E-005	5.39641E-002	3.29958E-001	3.57290E+000	9	...........
	4	0.066667	3.46135E-001	9.09387E-005	0.00000E+000	3.14770E-005	5.39641E-002	3.46179E-001	3.57290E+000	9	...........
	5	0.08	3.61492E-001	9.09887E-005	0.00000E+000	3.28917E-005	5.39641E-002	3.61540E-001	3.57290E+000	9	...........
	6	0.093333	3.76057E-001	9.07980E-005	0.00000E+000	3.41452E-005	5.39641E-002	3.76108E-001	3.57290E+000	9	...........
	7	0.106667	3.89912E-001	9.08647E-005	0.00000E+000	3.54293E-005	5.39641E-002	3.89961E-001	3.57290E+000	9	...........
	8	0.12	4.03125E-001	9.08511E-005	0.00000E+000	3.66244E-005	5.39641E-002	4.03177E-001	3.57290E+000	9	...........
	9	0.133333	4.15753E-001	9.10397E-005	0.00000E+000	3.78500E-005	5.39641E-002	4.15807E-001	3.57290E+000	9	...........
	10	0.146667	4.27846E-001	9.09678E-005	0.00000E+000	3.89202E-005	5.39641E-002	4.27900E-001	3.57290E+000	9	...........
	11	0.16	4.39456E-001	9.07595E-005	0.00000E+000	3.98848E-005	5.39641E-002	4.39512E-001	3.57290E+000	9	...........
	12	0.173333	4.50622E-001	9.08241E-005	0.00000E+000	4.09273E-005	5.39641E-002	4.50679E-001	3.57290E+000	9	...........
	13	0.186667	4.61358E-001	9.06761E-005	0.00000E+000	4.18342E-005	5.39641E-002	4.61417E-001	3.57290E+000	9	...........
	14	0.2	4.71719E-001	9.07991E-005	0.00000E+000	4.28317E-005	5.39641E-002	4.71775E-001	3.57290E+000	9	...........
	15	0.213333	4.81711E-001	9.05532E-005	0.00000E+000	4.36204E-005	5.39641E-002	4.81771E-001	3.57290E+000	9	...........
	16	0.226667	4.91359E-001	9.10387E-005	0.00000E+000	4.47327E-005	5.39641E-002	4.91422E-001	3.57290E+000	9	...........
	17	0.24	5.00701E-001	9.11793E-005	0.00000E+000	4.56536E-005	5.39641E-002	5.00768E-001	3.57290E+000	9	...........
	18	0.253333	5.09755E-001	9.08866E-005	0.00000E+000	4.63298E-005	5.39641E-002	5.09818E-001	3.57290E+000	9	...........
	19	0.266667	5.18529E-001	9.10710E-005	0.00000E+000	4.72229E-005	5.39641E-002	5.18600E-001	3.57290E+000	9	...........
	20	0.28	5.27047E-001	9.10376E-005	0.00000E+000	4.79812E-005	5.39641E-002	5.27116E-001	3.57290E+000	9	...........
	21	0.293333	5.35240E-001	9.10251E-005	0.00000E+000	4.87203E-005	5.39641E-002	5.35330E-001	3.57290E+000	9	...........
	22	0.306667	5.43263E-001	9.10626E-005	0.00000E+000	4.94710E-005	5.39641E-002	5.43364E-001	3.57290E+000	9	...........
	23	0.32	5.51090E-001	9.11689E-005	0.00000E+000	5.02423E-005	5.39641E-002	5.51195E-001	3.57290E+000	9	...........
	24	0.333333	5.58692E-001	9.09418E-005	0.00000E+000	5.08084E-005	5.39641E-002	5.58802E-001	3.57290E+000	9	...........
	25	0.346667	5.66101E-001	9.12304E-005	0.00000E+000	5.16456E-005	5.39641E-002	5.66226E-001	3.57290E+000	9	...........
	26	0.36	5.73346E-001	9.08605E-005	0.00000E+000	5.20945E-005	5.39641E-002	5.73436E-001	3.57290E+000	9	...........
	27	0.373333	5.80382E-001	9.07094E-005	0.00000E+000	5.26461E-005	5.39641E-002	5.80490E-001	3.57290E+000	9	...........
	28	0.386667	5.87285E-001	9.11637E-005	0.00000E+000	5.35391E-005	5.39641E-002	5.87381E-001	3.57290E+000	9	...........
	29	0.4	5.94025E-001	9.09199E-005	0.00000E+000	5.40087E-005	5.39641E-002	5.94110E-001	3.57290E+000	9	...........
	30	0.413333	6.00568E-001	9.09814E-005	0.00000E+000	5.46405E-005	5.39641E-002	6.00697E-001	3.57290E+000	9	...........
	31	0.426667	6.06987E-001	9.10731E-005	0.00000E+000	5.52802E-005	5.39641E-002	6.07106E-001	3.57290E+000	9	...........
	32	0.44	6.13272E-001	9.11877E-005	0.00000E+000	5.59228E-005	5.39641E-002	6.13394E-001	3.57290E+000	9	...........
	33	0.453333	6.19460E-001	9.11950E-005	0.00000E+000	5.64917E-005	5.39641E-002	6.19533E-001	3.57290E+000	9	...........
	34	0.466667	6.25459E-001	9.11637E-005	0.00000E+000	5.70191E-005	5.39641E-002	6.25541E-001	3.57290E+000	9	...........
	35	0.48	6.31328E-001	9.08845E-005	0.00000E+000	5.73780E-005	5.39641E-002	6.31441E-001	3.57290E+000	9	...........
	36	0.493333	6.37137E-001	9.11939E-005	0.00000E+000	5.81030E-005	5.39641E-002	6.37233E-001	3.57290E+000	9	...........
	37	0.506667	6.42839E-001	9.11116E-005	0.00000E+000	5.85701E-005	5.39641E-002	6.42938E-001	3.57290E+000	9	...........
	38	0.52	6.48395E-001	9.07230E-005	0.00000E+000	5.88243E-005	5.39641E-002	6.48481E-001	3.57290E+000	9	...........
	39	0.533333	6.53881E-001	9.11439E-005	0.00000E+000	5.95972E-005	5.39641E-002	6.53966E-001	3.57290E+000	9	...........
	40	0.546667	6.59210E-001	9.10085E-005	0.00000E+000	5.99937E-005	5.39641E-002	6.59333E-001	3.57290E+000	9	...........
	41	0.56	6.64482E-001	9.11200E-005	0.00000E+000	6.05476E-005	5.39641E-002	6.64600E-001	3.57290E+000	9	...........
	42	0.573333	6.69696E-001	9.09335E-005	0.00000E+000	6.08978E-005	5.39641E-002	6.69799E-001	3.57290E+000	9	...........
	43	0.586667	6.74766E-001	9.12877E-005	0.00000E+000	6.15978E-005	5.39641E-002	6.74875E-001	3.57290E+000	9	...........
	44	0.6	6.79759E-001	9.10481E-005	0.00000E+000	6.18907E-005	5.39641E-002	6.79894E-001	3.57290E+000	9	...........
	45	0.613333	6.84711E-001	9.12189E-005	0.00000E+000	6.24586E-005	5.39641E-002	6.84825E-001	3.57290E+000	9	...........
	46	0.626667	6.89566E-001	9.10856E-005	0.00000E+000	6.28095E-005	5.39641E-002	6.89687E-001	3.57290E+000	9	...........
	47	0.64	6.94331E-001	9.10731E-005	0.00000E+000	6.32348E-005	5.39641E-002	6.94454E-001	3.57290E+000	9	...........
	48	0.653333	6.99042E-001	9.10012E-005	0.00000E+000	6.36137E-005	5.39641E-002	6.99172E-001	3.57290E+000	9	...........
	49	0.666667	7.03677E-001	9.11585E-005	0.00000E+000	6.41461E-005	5.39641E-002	7.03793E-001	3.57290E+000	9	...........
	50	0.68	7.08239E-001	9.09678E-005	0.00000E+000	6.44270E-005	5.39641E-002	7.08355E-001	3.57290E+000	9	...........
	51	0.693333	7.12746E-001	9.12189E-005	0.00000E+000	6.50159E-005	5.39641E-002	7.12849E-001	3.57290E+000	9	...........
	52	0.706667	7.17164E-001	9.11158E-005	0.00000E+000	6.53450E-005	5.39641E-002	7.17303E-001	3.57290E+000	9	...........
	53	0.72	7.21539E-001	9.08303E-005	0.00000E+000	6.55376E-005	5.39641E-002	7.21654E-001	3.57290E+000	9	...........
	54	0.733333	7.25801E-001	9.08720E-005	0.00000E+000	6.59550E-005	5.39641E-002	7.25914E-001	3.57317E+000	9	...........
	55	0.746667	7.30005E-001	9.11064E-005	0.00000E+000	6.65081E-005	5.39641E-002	7.30148E-001	3.57400E+000	9	...........
	56	0.76	7.34173E-001	9.10887E-005	0.00000E+000	6.68748E-005	5.39641E-002	7.34306E-001	3.57400E+000	9	...........
	57	0.773333	7.38273E-001	9.09658E-005	0.00000E+000	6.71576E-005	5.39641E-002	7.38394E-001	3.57400E+000	9	...........
	58	0.786667	7.42341E-001	9.11241E-005	0.00000E+000	6.76452E-005	5.39641E-002	7.42500E-001	3.57400E+000	9	...........
	59	0.8	7.46362E-001	9.09845E-005	0.00000E+000	6.79074E-005	5.39641E-002	7.46499E-001	3.57400E+000	9	...........
	60	0.813333	7.50324E-001	9.09012E-005	0.00000E+000	6.82053E-005	5.39641E-002	7.50440E-001	3.57400E+000	9	...........
	61	0.826667	7.54214E-001	9.09012E-005	0.00000E+000	6.85589E-005	5.39641E-002	7.54334E-001	3.57400E+000	9	...........
	62	0.84	7.58083E-001	9.10574E-005	0.00000E+000	6.90291E-005	5.39641E-002	7.58202E-001	3.57400E+000	9	...........
	63	0.853333	7.61884E-001	9.11033E-005	0.00000E+000	6.94102E-005	5.39641E-002	7.62021E-001	3.57400E+000	9	...........
	64	0.866667	7.65648E-001	9.08272E-005	0.00000E+000	6.95417E-005	5.39641E-002	7.65800E-001	3.57400E+000	9	...........
	65	0.88	7.69381E-001	9.11502E-005	0.00000E+000	7.01292E-005	5.39641E-002	7.69534E-001	3.57400E+000	9	...........
	66	0.893333	7.73042E-001	9.10824E-005	0.00000E+000	7.04106E-005	5.39641E-002	7.73210E-001	3.57400E+000	9	...........
	67	0.906667	7.76682E-001	9.09887E-005	0.00000E+000	7.06693E-005	5.39641E-002	7.76822E-001	3.57400E+000	9	...........
	68	0.92	7.80257E-001	9.10335E-005	0.00000E+000	7.10295E-005	5.39641E-002	7.80439E-001	3.57400E+000	9	...........
	69	0.933333	7.83819E-001	9.07313E-005	0.00000E+000	7.11169E-005	5.39641E-002	7.83967E-001	3.57400E+000	9	...........
	70	0.946667	7.87292E-001	9.08574E-005	0.00000E+000	7.15313E-005	5.39641E-002	7.87456E-001	3.57400E+000	9	...........
	71	0.96	7.90757E-001	9.10314E-005	0.00000E+000	7.19837E-005	5.39641E-002	7.90931E-001	3.57400E+000	9	...........
	72	0.97333	7.94227E-001	9.10189E-005	0.00000E+000	7.22897E-005	5.39641E-002	7.94390E-001	3.57400E+000	9	...........
	73	0.98667	7.97597E-001	9.08887E-005	0.00000E+000	7.24926E-005	5.39641E-002	7.97738E-001	3.57400E+000	9	...........
	74	1	8.00942E-001	9.10772E-005	0.00000E+000	7.29476E-005	5.39641E-002	8.01077E-001	3.57400E+000	9	...........
	75	1.01333	8.04269E-001	9.09814E-005	0.00000E+000	7.31735E-005	5.39641E-002	8.04428E-001	3.57400E+000	9	...........
	76	1.02667	8.07556E-001	9.10158E-005	0.00000E+000	7.35003E-005	5.39641E-002	8.07701E-001	3.57400E+000	9	...........
	77	1.04	8.10759E-001	9.09720E-005	0.00000E+000	7.37563E-005	5.39641E-002	8.10910E-001	3.57400E+000	9	...........
	78	1.05333	8.13970E-001	9.09658E-005	0.00000E+000	7.40434E-005	5.39641E-002	8.14116E-001	3.57400E+000	9	...........
	79	1.06667	8.17153E-001	9.09262E-005	0.00000E+000	7.43006E-005	5.39641E-002	8.17310E-001	3.57400E+000	9	...........
	80	1.08	8.20315E-001	9.09928E-005	0.00000E+000	7.46428E-005	5.39641E-002	8.20471E-001	3.57400E+000	9	...........
	81	1.09333	8.23417E-001	9.09272E-005	0.00000E+000	7.48710E-005	5.39641E-002	8.23582E-001	3.57400E+000	9	...........
	82	1.10667	8.26484E-001	9.10491E-005	0.00000E+000	7.52507E-005	5.39641E-002	8.26640E-001	3.57400E+000	9	...........
	83	1.12	8.29523E-001	9.09793E-005	0.00000E+000	7.54694E-005	5.39641E-002	8.29661E-001	3.57400E+000	9	...........
	84	1.13333	8.32492E-001	9.08970E-005	0.00000E+000	7.56710E-005	5.39641E-002	8.32671E-001	3.57400E+000	9	...........
	85	1.14667	8.35481E-001	9.11627E-005	0.00000E+000	7.61647E-005	5.39641E-002	8.35655E-001	3.57400E+000	9	...........
	86	1.16	8.38451E-001	9.10001E-005	0.00000E+000	7.62992E-005	5.39641E-002	8.38605E-001	3.57400E+000	9	...........
	87	1.17333	8.41384E-001	9.09689E-005	0.00000E+000	7.65397E-005	5.39641E-002	8.41531E-001	3.57400E+000	9	...........
	88	1.18667	8.44306E-001	9.10637E-005	0.00000E+000	7.68856E-005	5.39641E-002	8.44469E-001	3.57400E+000	9	...........
	89	1.2	8.47178E-001	9.11898E-005	0.00000E+000	7.72540E-005	5.39641E-002	8.47359E-001	3.57400E+000	9	...........
	90	1.21333	8.50011E-001	9.11043E-005	0.00000E+000	7.74396E-005	5.39641E-002	8.50169E-001	3.57400E+000	9	...........
	91	1.22667	8.52808E-001	9.11210E-005	0.00000E+000	7.77087E-005	5.39641E-002	8.52976E-001	3.57400E+000	9	...........
	92	1.24	8.55584E-001	9.10147E-005	0.00000E+000	7.78707E-005	5.39641E-002	8.55776E-001	3.57400E+000	9	...........
	93	1.25333	8.58349E-001	9.10293E-005	0.00000E+000	7.81349E-005	5.39641E-002	8.58562E-001	3.57400E+000	9	...........
	94	1.26667	8.61080E-001	9.13044E-005	0.00000E+000	7.86203E-005	5.39641E-002	8.61264E-001	3.57400E+000	9	...........
	95	1.28	8.63753E-001	9.10168E-005	0.00000E+000	7.86161E-005	5.39641E-002	8.63932E-001	3.57400E+000	9	...........
	96	1.29333	8.66392E-001	9.09272E-005	0.00000E+000	7.87786E-005	5.39641E-002	8.66604E-001	3.57400E+000	9	...........
	97	1.30667	8.69039E-001	9.11731E-005	0.00000E+000	7.92330E-005	5.39641E-002	8.69233E-001	3.57400E+000	9	...........
	98	1.32	8.71669E-001	9.08928E-005	0.00000E+000	7.92284E-005	5.39641E-002	8.71872E-001	3.57400E+000	9	...........
	99	1.33333	8.74235E-001	9.11231E-005	0.00000E+000	7.96629E-005	5.39641E-002	8.74463E-001	3.57400E+000	9	...........
	100	1.34667	8.76804E-001	9.09678E-005	0.00000E+000	7.97610E-005	5.39641E-002	8.77011E-001	3.57400E+000	9	...........
	101	1.36	8.79341E-001	9.11408E-005	0.00000E+000	8.01439E-005	5.39641E-002	8.79537E-001	3.57400E+000	9	...........
	102	1.37333	8.81845E-001	9.11179E-005	0.00000E+000	8.03518E-005	5.39641E-002	8.82054E-001	3.57400E+000	9	...........
	103	1.38667	8.84356E-001	9.09720E-005	0.00000E+000	8.04516E-005	5.39641E-002	8.84572E-001	3.57400E+000	9	...........
	104	1.4	8.86817E-001	9.12512E-005	0.00000E+000	8.09231E-005	5.39641E-002	8.87026E-001	3.57400E+000	9	...........
	105	1.41333	8.89246E-001	9.09053E-005	0.00000E+000	8.08372E-005	5.39641E-002	8.89442E-001	3.57400E+000	9	...........
	106	1.42667	8.91660E-001	9.10658E-005	0.00000E+000	8.11997E-005	5.39641E-002	8.91858E-001	3.57400E+000	9	...........
	107	1.44	8.94046E-001	9.08095E-005	0.00000E+000	8.11878E-005	5.39641E-002	8.94258E-001	3.57400E+000	9	...........
	108	1.45333	8.96413E-001	9.10022E-005	0.00000E+000	8.15755E-005	5.39641E-002	8.96629E-001	3.57400E+000	9	...........
	109	1.46667	8.98752E-001	9.10637E-005	0.00000E+000	8.18437E-005	5.39641E-002	8.98950E-001	3.57400E+000	9	...........
	110	1.48	9.01062E-001	9.07584E-005	0.00000E+000	8.17790E-005	5.39641E-002	9.01277E-001	3.57400E+000	9	...........
	111	1.49333	9.03349E-001	9.08564E-005	0.00000E+000	8.20750E-005	5.39641E-002	9.03569E-001	3.57400E+000	9	...........
	112	1.50667	9.05614E-001	9.10522E-005	0.00000E+000	8.24581E-005	5.39641E-002	9.05850E-001	3.57400E+000	9	...........
	113	1.52	9.07893E-001	9.11074E-005	0.00000E+000	8.27158E-005	5.39641E-002	9.08112E-001	3.57400E+000	9	...........
	114	1.53333	9.10147E-001	9.09397E-005	0.00000E+000	8.27685E-005	5.39641E-002	9.10342E-001	3.57400E+000	9	...........
	115	1.54667	9.12370E-001	9.11002E-005	0.00000E+000	8.31170E-005	5.39641E-002	9.12550E-001	3.57400E+000	9	...........
	116	1.56	9.14536E-001	9.10835E-005	0.00000E+000	8.32991E-005	5.39641E-002	9.14720E-001	3.57400E+000	9	...........
	117	1.57333	9.16700E-001	9.08147E-005	0.00000E+000	8.32498E-005	5.39641E-002	9.16879E-001	3.57400E+000	9	...........
	118	1.58667	9.18810E-001	9.09564E-005	0.00000E+000	8.35716E-005	5.39641E-002	9.18984E-001	3.57400E+000	9	...........
	119	1.6	9.20982E-001	9.09293E-005	0.00000E+000	8.37442E-005	5.39641E-002	9.21095E-001	3.57400E+000	9	...........
	120	1.61333	9.23058E-001	9.09803E-005	0.00000E+000	8.39801E-005	5.39641E-002	9.23164E-001	3.57400E+000	9	...........
	121	1.62667	9.25110E-001	9.08074E-005	0.00000E+000	8.40068E-005	5.39641E-002	9.25223E-001	3.57400E+000	9	...........
	122	1.64	9.27113E-001	9.11366E-005	0.00000E+000	8.44939E-005	5.39641E-002	9.27255E-001	3.57400E+000	9	...........
	123	1.65333	9.29126E-001	9.11095E-005	0.00000E+000	8.46522E-005	5.39641E-002	9.29288E-001	3.57400E+000	9	...........
	124	1.66667	9.31097E-001	9.09981E-005	0.00000E+000	8.47280E-005	5.39641E-002	9.31272E-001	3.57400E+000	9	...........
	125	1.68	9.33083E-001	9.09522E-005	0.00000E+000	8.48659E-005	5.39641E-002	9.33258E-001	3.57400E+000	9	...........
	126	1.69333	9.35009E-001	9.08949E-005	0.00000E+000	8.49876E-005	5.39641E-002	9.35208E-001	3.57400E+000	9	...........
	127	1.70667	9.36944E-001	9.10283E-005	0.00000E+000	8.52884E-005	5.39641E-002	9.37149E-001	3.57400E+000	9	...........
	128	1.72	9.38813E-001	9.07720E-005	0.00000E+000	8.52179E-005	5.39641E-002	9.39019E-001	3.57400E+000	9	...........
	129	1.73333	9.40732E-001	9.08491E-005	0.00000E+000	8.54646E-005	5.39641E-002	9.40890E-001	3.57365E+000	9	...........
	130	1.74667	9.42601E-001	9.09074E-005	0.00000E+000	8.56894E-005	5.39641E-002	9.42785E-001	3.57260E+000	9	...........
	131	1.76	9.44459E-001	9.11137E-005	0.00000E+000	8.60532E-005	5.39641E-002	9.44658E-001	3.57260E+000	9	...........
	132	1.77333	9.46332E-001	9.12992E-005	0.00000E+000	8.63993E-005	5.39641E-002	9.46506E-001	3.57260E+000	9	...........
	133	1.78667	9.48178E-001	9.12210E-005	0.00000E+000	8.64938E-005	5.39641E-002	9.48349E-001	3.57260E+000	9	...........
	134	1.8	9.49961E-001	9.09616E-005	0.00000E+000	8.64100E-005	5.39641E-002	9.50149E-001	3.57260E+000	9	...........
	135	1.81333	9.51738E-001	9.11002E-005	0.00000E+000	8.67035E-005	5.39641E-002	9.51925E-001	3.57260E+000	9	...........
	136	1.82667	9.53505E-001	9.11564E-005	0.00000E+000	8.69181E-005	5.39641E-002	9.53669E-001	3.57260E+000	9	...........
	137	1.84	9.55221E-001	9.11220E-005	0.00000E+000	8.70417E-005	5.39641E-002	9.55396E-001	3.57260E+000	9	...........
	138	1.85333	9.56935E-001	9.09720E-005	0.00000E+000	8.70543E-005	5.39641E-002	9.57121E-001	3.57260E+000	9	...........
	139	1.86667	9.58645E-001	9.10262E-005	0.00000E+000	8.72617E-005	5.39641E-002	9.58831E-001	3.57260E+000	9	...........
	140	1.88	9.60315E-001	9.10637E-005	0.00000E+000	8.74498E-005	5.39641E-002	9.60534E-001	3.57260E+000	9	...........
	141	1.89333	9.61975E-001	9.11866E-005	0.00000E+000	8.77192E-005	5.39641E-002	9.62194E-001	3.57260E+000	9	...........
	142	1.90667	9.63626E-001	9.08241E-005	0.00000E+000	8.75204E-005	5.39641E-002	9.63843E-001	3.57260E+000	9	...........
	143	1.92	9.65244E-001	9.09699E-005	0.00000E+000	8.78082E-005	5.39641E-002	9.65455E-001	3.57260E+000	9	...........
	144	1.93333	9.66868E-001	9.10231E-005	0.00000E+000	8.80072E-005	5.39641E-002	9.67061E-001	3.57260E+000	9	...........
	145	1.94667	9.68478E-001	9.09397E-005	0.00000E+000	8.80731E-005	5.39641E-002	9.68674E-001	3.57260E+000	9	...........
	146	1.96	9.70067E-001	9.10106E-005	0.00000E+000	8.82864E-005	5.39641E-002	9.70259E-001	3.57260E+000	9	...........
	147	1.97333	9.71631E-001	9.08605E-005	0.00000E+000	8.82829E-005	5.39641E-002	9.71844E-001	3.57260E+000	9	...........
	148	1.98667	9.73212E-001	9.09449E-005	0.00000E+000	8.85087E-005	5.39641E-002	9.73399E-001	3.57260E+000	9	...........
	149	2	9.74735E-001	9.09512E-005	0.00000E+000	8.86533E-005	5.39641E-002	9.74937E-001	3.57260E+000	9	...........
	150	2.01333	9.76255E-001	9.10710E-005	0.00000E+000	8.89085E-005	5.39641E-002	9.76439E-001	3.57260E+000	9	...........
	151	2.02667	9.77768E-001	9.10908E-005	0.00000E+000	8.90656E-005	5.39641E-002	9.77975E-001	3.57260E+000	9	...........
	152	2.04	9.79275E-001	9.11200E-005	0.00000E+000	8.92315E-005	5.39641E-002	9.79452E-001	3.57260E+000	9	...........
	153	2.05333	9.80740E-001	9.11054E-005	0.00000E+000	8.93507E-005	5.39641E-002	9.80933E-001	3.57260E+000	9	...........
	154	2.06667	9.82181E-001	9.09355E-005	0.00000E+000	8.93151E-005	5.39641E-002	9.82363E-001	3.57260E+000	9	...........
	155	2.08	9.83604E-001	9.09064E-005	0.00000E+000	8.94158E-005	5.39641E-002	9.83799E-001	3.57260E+000	9	...........
	156	2.09333	9.85033E-001	9.09366E-005	0.00000E+000	8.95755E-005	5.39641E-002	9.85220E-001	3.57260E+000	9	...........
	157	2.10667	9.86452E-001	9.11439E-005	0.00000E+000	8.99091E-005	5.39641E-002	9.86651E-001	3.57260E+000	9	...........
	158	2.12	9.87857E-001	9.10647E-005	0.00000E+000	8.99589E-005	5.39641E-002	9.88054E-001	3.57260E+000	9	...........
	159	2.13333	9.89261E-001	9.11335E-005	0.00000E+000	9.01548E-005	5.39641E-002	9.89434E-001	3.57260E+000	9	...........
	160	2.14667	9.90636E-001	9.11064E-005	0.00000E+000	9.02533E-005	5.39641E-002	9.90840E-001	3.57260E+000	9	...........
	161	2.16	9.91988E-001	9.09991E-005	0.00000E+000	9.02700E-005	5.39641E-002	9.92207E-001	3.57260E+000	9	...........
	162	2.17333	9.93322E-001	9.08907E-005	0.00000E+000	9.02838E-005	5.39641E-002	9.93554E-001	3.57260E+000	9	...........
	163	2.18667	9.94669E-001	9.10324E-005	0.00000E+000	9.05471E-005	5.39641E-002	9.94874E-001	3.57260E+000	9	...........
	164	2.2	9.95976E-001	9.09012E-005	0.00000E+000	9.05354E-005	5.39641E-002	9.96211E-001	3.57260E+000	9	...........
	165	2.21333	9.97290E-001	9.09157E-005	0.00000E+000	9.06694E-005	5.39641E-002	9.97540E-001	3.57260E+000	9	...........
	166	2.22667	9.98599E-001	9.08511E-005	0.00000E+000	9.07239E-005	5.39641E-002	9.98852E-001	3.57260E+000	9	...........
	167	2.23667	9.99744E-001	9.11488E-005	0.00000E+000	9.11255E-005	5.39641E-002	9.99947E-001	3.57260E+000	9	...........
STARTTIMEOFFSET	QUANT	2320.168	Start Time Offset (s)
