EXPLAIN
TAG	PWR800_CHARGE
TITLE	LABEL	PWR Cyclic Charge Discharge (Cell) - Charge Step	Test &Identifier
DATE	LABEL	10-7-2017	Date
TIME	LABEL	15:24:55	Time
NOTES	NOTES	3	&Notes...
	supercap test cell
	0.9mg
	6M KOH
PSTAT	PSTAT	IFC5000-01520	Potentiostat
CAPACITY	QUANT	1.00000E-003	Capacity (A-hr)
CELLTYPE	SELECTOR	1	&Cell Type
WORKINGCONNECTION	SELECTOR	0	&Working Lead
MAXCHARGETIME	VARIABLEANDUNITS	1.00000E+002	s	1.00000E+002	second(s)	Max &Charge Time
CHARGECURRENT	QUANT	9.00000E-005	&Charge Current (A) 
VOLTAGEFINISH	TWOPARAM	F	1.00000E-003	3.60000E+003	&Voltage Finish	 I (A) < 	Max Time(s)
SAMPLETIME	QUANT	1.00000E-002	Sa&mple Period (s)
CHARGESTOPAT1	MULTIPARAM	4	1.00000E+000	Charge Stop At &1	Voltage > Limit	V
CHARGESTOPAT2	MULTIPARAM	0	0.00000E+000	Charge Stop At &2	None	N/A
AESBHCSELECTOR	TOGGLE	F	Save Both Half Cells
IRCOMP	TOGGLE	F	IR &Measure
EOC	QUANT	0	Open Circuit (V)
SEQUENCER	TOGGLE	TRUE	Run as Sequence
PSTATMODEL	IQUANT	53	Pstat Model
PSTATSECTION	LABEL	IFC5000-01520	Pstat Section
PSTATSERIALNO	LABEL	01520	Pstat Serial Number
CTRLMODE	IQUANT	0	Control Mode
ELECTROMETER	IQUANT	1	RE=0 or CS=1
IESTAB	IQUANT	0	I/E Stability
CASPEED	IQUANT	4	Control Amp Speed
CONVENTION	IQUANT	1	Current Convention
ICHRANGE	IQUANT	2	Ich Range
ICHRANGEMODE	TOGGLE	T	Ich Auto Range
ICHOFFSETENABLE	TOGGLE	F	Ich Offset Enable
ICHOFFSET	QUANT	0	Ich Offset (V)
ICHFILTER	IQUANT	1	Ich Filter
VCHRANGE	IQUANT	2	Vch Range
VCHRANGEMODE	TOGGLE	T	Vch Auto Range
VCHOFFSETENABLE	TOGGLE	F	Vch Offset Enable
VCHOFFSET	QUANT	0	Vch Offset (V)
VCHFILTER	IQUANT	1	Vch Filter
IERANGELOWERLIMIT	IQUANT	9	I/E Range Lower Limit
IERANGEMODE	TOGGLE	F	I/E AutoRange
IERANGE	IQUANT	9	I/E Range
ACHSELECT	IQUANT	1	Ach Select
ACHRANGE	IQUANT	2	Ach Range
ACHOFFSETENABLE	TOGGLE	F	Ach Offset Enable
ACHOFFSET	QUANT	0	Ach Offset (V)
ACHFILTER	IQUANT	1	Ach Filter
CABLEID	IQUANT	14	Cable ID
DCCALDATE	LABEL	5-7-2017	DC Calibration Date
ACCALDATE	LABEL	12/3/2015	AC Calibration Date
FRAMEWORKVERSION	QUANT	7.01	Framework Version
INSTRUMENTVERSION	LABEL	4.00	Instrument Version
CURVE	TABLE	176
	Pt	T	Vf	Im	Vu	Pwr	Sig	Ach	Temp	IERange	Over
	#	s	V	A	V	W	V	V	deg C	#	bits
	0	0.013333	2.82723E-001	9.10043E-005	0.00000E+000	2.57290E-005	5.39641E-002	2.82776E-001	3.57250E+000	9	...........
	1	0.026667	3.02197E-001	9.10606E-005	0.00000E+000	2.75182E-005	5.39641E-002	3.02232E-001	3.57250E+000	9	...........
	2	0.04	3.20245E-001	9.09626E-005	0.00000E+000	2.91303E-005	5.39641E-002	3.20290E-001	3.57250E+000	9	...........
	3	0.053333	3.37108E-001	9.09095E-005	0.00000E+000	3.06463E-005	5.39641E-002	3.37151E-001	3.57250E+000	9	...........
	4	0.066667	3.52965E-001	9.10231E-005	0.00000E+000	3.21280E-005	5.39641E-002	3.53005E-001	3.57250E+000	9	...........
	5	0.08	3.67930E-001	9.12960E-005	0.00000E+000	3.35906E-005	5.39641E-002	3.67976E-001	3.57250E+000	9	...........
	6	0.093333	3.82121E-001	9.11470E-005	0.00000E+000	3.48292E-005	5.39641E-002	3.82163E-001	3.57250E+000	9	...........
	7	0.106667	3.95608E-001	9.10147E-005	0.00000E+000	3.60062E-005	5.39641E-002	3.95650E-001	3.57250E+000	9	...........
	8	0.12	4.08460E-001	9.09668E-005	0.00000E+000	3.71563E-005	5.39641E-002	4.08509E-001	3.57250E+000	9	...........
	9	0.133333	4.20746E-001	9.11637E-005	0.00000E+000	3.83568E-005	5.39641E-002	4.20802E-001	3.57250E+000	9	...........
	10	0.146667	4.32535E-001	9.11189E-005	0.00000E+000	3.94121E-005	5.39641E-002	4.32592E-001	3.57250E+000	9	...........
	11	0.16	4.43844E-001	9.10762E-005	0.00000E+000	4.04236E-005	5.39641E-002	4.43906E-001	3.57250E+000	9	...........
	12	0.173333	4.54743E-001	9.09355E-005	0.00000E+000	4.13523E-005	5.39641E-002	4.54796E-001	3.57250E+000	9	...........
	13	0.186667	4.65231E-001	9.11304E-005	0.00000E+000	4.23967E-005	5.39641E-002	4.65293E-001	3.57250E+000	9	...........
	14	0.2	4.75347E-001	9.08553E-005	0.00000E+000	4.31878E-005	5.39641E-002	4.75404E-001	3.57250E+000	9	...........
	15	0.213333	4.85118E-001	9.11470E-005	0.00000E+000	4.42171E-005	5.39641E-002	4.85175E-001	3.57250E+000	9	...........
	16	0.226667	4.94576E-001	9.14346E-005	0.00000E+000	4.52214E-005	5.39641E-002	4.94639E-001	3.57250E+000	9	...........
	17	0.24	5.03731E-001	9.10949E-005	0.00000E+000	4.58873E-005	5.39641E-002	5.03796E-001	3.57250E+000	9	...........
	18	0.253333	5.12601E-001	9.10210E-005	0.00000E+000	4.66574E-005	5.39641E-002	5.12672E-001	3.57250E+000	9	...........
	19	0.266667	5.21220E-001	9.09637E-005	0.00000E+000	4.74121E-005	5.39641E-002	5.21290E-001	3.57250E+000	9	...........
	20	0.28	5.29586E-001	9.09293E-005	0.00000E+000	4.81549E-005	5.39641E-002	5.29655E-001	3.57250E+000	9	...........
	21	0.293333	5.37634E-001	9.10022E-005	0.00000E+000	4.89259E-005	5.39641E-002	5.37740E-001	3.57250E+000	9	...........
	22	0.306667	5.45541E-001	9.09658E-005	0.00000E+000	4.96255E-005	5.39641E-002	5.45640E-001	3.57250E+000	9	...........
	23	0.32	5.53228E-001	9.11533E-005	0.00000E+000	5.04286E-005	5.39641E-002	5.53337E-001	3.57250E+000	9	...........
	24	0.333333	5.60729E-001	9.12127E-005	0.00000E+000	5.11456E-005	5.39641E-002	5.60848E-001	3.57250E+000	9	...........
	25	0.346667	5.68100E-001	9.11554E-005	0.00000E+000	5.17854E-005	5.39641E-002	5.68183E-001	3.57250E+000	9	...........
	26	0.36	5.75186E-001	9.09262E-005	0.00000E+000	5.22995E-005	5.39641E-002	5.75305E-001	3.57250E+000	9	...........
	27	0.373333	5.82107E-001	9.12721E-005	0.00000E+000	5.31301E-005	5.39641E-002	5.82246E-001	3.57250E+000	9	...........
	28	0.386667	5.88908E-001	9.08272E-005	0.00000E+000	5.34888E-005	5.39641E-002	5.89046E-001	3.57250E+000	9	...........
	29	0.4	5.95525E-001	9.09835E-005	0.00000E+000	5.41830E-005	5.39641E-002	5.95670E-001	3.57250E+000	9	...........
	30	0.413333	6.02000E-001	9.10752E-005	0.00000E+000	5.48273E-005	5.39641E-002	6.02160E-001	3.57250E+000	9	...........
	31	0.426667	6.08325E-001	9.11095E-005	0.00000E+000	5.54242E-005	5.39641E-002	6.08483E-001	3.57250E+000	9	...........
	32	0.44	6.14575E-001	9.10939E-005	0.00000E+000	5.59840E-005	5.39641E-002	6.14725E-001	3.57250E+000	9	...........
	33	0.453333	6.20662E-001	9.13117E-005	0.00000E+000	5.66737E-005	5.39641E-002	6.20782E-001	3.57250E+000	9	...........
	34	0.466667	6.26592E-001	9.12512E-005	0.00000E+000	5.71773E-005	5.39641E-002	6.26721E-001	3.57250E+000	9	...........
	35	0.48	6.32414E-001	9.09626E-005	0.00000E+000	5.75260E-005	5.39641E-002	6.32534E-001	3.57250E+000	9	...........
	36	0.493333	6.38121E-001	9.10043E-005	0.00000E+000	5.80718E-005	5.39641E-002	6.38272E-001	3.57250E+000	9	...........
	37	0.506667	6.43747E-001	9.09324E-005	0.00000E+000	5.85375E-005	5.39641E-002	6.43888E-001	3.57250E+000	9	...........
	38	0.52	6.49229E-001	9.11845E-005	0.00000E+000	5.91996E-005	5.39641E-002	6.49358E-001	3.57250E+000	9	...........
	39	0.533333	6.54613E-001	9.13721E-005	0.00000E+000	5.98134E-005	5.39641E-002	6.54727E-001	3.57250E+000	9	...........
	40	0.546667	6.59860E-001	9.11418E-005	0.00000E+000	6.01409E-005	5.39641E-002	6.59978E-001	3.57250E+000	9	...........
	41	0.56	6.65046E-001	9.09074E-005	0.00000E+000	6.04576E-005	5.39641E-002	6.65172E-001	3.57250E+000	9	...........
	42	0.573333	6.70172E-001	9.09668E-005	0.00000E+000	6.09634E-005	5.39641E-002	6.70248E-001	3.57250E+000	9	...........
	43	0.586667	6.75191E-001	9.09533E-005	0.00000E+000	6.14108E-005	5.39641E-002	6.75278E-001	3.57250E+000	9	...........
	44	0.6	6.80098E-001	9.13575E-005	0.00000E+000	6.21320E-005	5.39641E-002	6.80187E-001	3.57250E+000	9	...........
	45	0.613333	6.84906E-001	9.13137E-005	0.00000E+000	6.25413E-005	5.39641E-002	6.85009E-001	3.57250E+000	9	...........
	46	0.626667	6.89648E-001	9.10606E-005	0.00000E+000	6.27997E-005	5.39641E-002	6.89752E-001	3.57250E+000	9	...........
	47	0.64	6.94337E-001	9.12158E-005	0.00000E+000	6.33345E-005	5.39641E-002	6.94427E-001	3.57250E+000	9	...........
	48	0.653333	6.98935E-001	9.10741E-005	0.00000E+000	6.36549E-005	5.39641E-002	6.99030E-001	3.57250E+000	9	...........
	49	0.666667	7.03471E-001	9.10001E-005	0.00000E+000	6.40160E-005	5.39641E-002	7.03549E-001	3.57250E+000	9	...........
	50	0.68	7.07893E-001	9.08803E-005	0.00000E+000	6.43335E-005	5.39641E-002	7.08016E-001	3.57250E+000	9	...........
	51	0.693333	7.12276E-001	9.08657E-005	0.00000E+000	6.47215E-005	5.39641E-002	7.12406E-001	3.57250E+000	9	...........
	52	0.706667	7.16609E-001	9.11845E-005	0.00000E+000	6.53436E-005	5.39641E-002	7.16723E-001	3.57250E+000	9	...........
	53	0.72	7.20870E-001	9.09334E-005	0.00000E+000	6.55512E-005	5.39641E-002	7.20970E-001	3.57250E+000	9	...........
	54	0.733333	7.25033E-001	9.09512E-005	0.00000E+000	6.59426E-005	5.39641E-002	7.25148E-001	3.57250E+000	9	...........
	55	0.746667	7.29137E-001	9.07990E-005	0.00000E+000	6.62050E-005	5.39641E-002	7.29275E-001	3.57250E+000	9	...........
	56	0.76	7.33196E-001	9.09897E-005	0.00000E+000	6.67133E-005	5.39641E-002	7.33331E-001	3.57250E+000	9	...........
	57	0.773333	7.37191E-001	9.10637E-005	0.00000E+000	6.71314E-005	5.39641E-002	7.37314E-001	3.57250E+000	9	...........
	58	0.786667	7.41127E-001	9.09730E-005	0.00000E+000	6.74225E-005	5.39641E-002	7.41286E-001	3.57250E+000	9	...........
	59	0.8	7.45051E-001	9.10335E-005	0.00000E+000	6.78245E-005	5.39641E-002	7.45205E-001	3.57250E+000	9	...........
	60	0.813333	7.48911E-001	9.10679E-005	0.00000E+000	6.82017E-005	5.39641E-002	7.49046E-001	3.57250E+000	9	...........
	61	0.826667	7.52707E-001	9.11606E-005	0.00000E+000	6.86172E-005	5.39641E-002	7.52867E-001	3.57250E+000	9	...........
	62	0.84	7.56509E-001	9.08741E-005	0.00000E+000	6.87470E-005	5.39641E-002	7.56610E-001	3.57250E+000	9	...........
	63	0.853333	7.60204E-001	9.10168E-005	0.00000E+000	6.91913E-005	5.39641E-002	7.60299E-001	3.57250E+000	9	...........
	64	0.866667	7.63835E-001	9.11616E-005	0.00000E+000	6.96324E-005	5.39641E-002	7.63950E-001	3.57250E+000	9	...........
	65	0.88	7.67449E-001	9.11418E-005	0.00000E+000	6.99467E-005	5.39641E-002	7.67612E-001	3.57250E+000	9	...........
	66	0.893333	7.71064E-001	9.11700E-005	0.00000E+000	7.02979E-005	5.39641E-002	7.71182E-001	3.57250E+000	9	...........
	67	0.906667	7.74603E-001	9.10116E-005	0.00000E+000	7.04978E-005	5.39641E-002	7.74709E-001	3.57250E+000	9	...........
	68	0.92	7.78058E-001	9.10564E-005	0.00000E+000	7.08471E-005	5.39641E-002	7.78187E-001	3.57250E+000	9	...........
	69	0.933333	7.81533E-001	9.10845E-005	0.00000E+000	7.11855E-005	5.39641E-002	7.81651E-001	3.57250E+000	9	...........
	70	0.946667	7.84933E-001	9.10804E-005	0.00000E+000	7.14920E-005	5.39641E-002	7.85046E-001	3.57250E+000	9	...........
	71	0.96	7.88289E-001	9.10793E-005	0.00000E+000	7.17968E-005	5.39641E-002	7.88406E-001	3.57250E+000	9	...........
	72	0.97333	7.91589E-001	9.13783E-005	0.00000E+000	7.23341E-005	5.39641E-002	7.91725E-001	3.57250E+000	9	...........
	73	0.98667	7.94918E-001	9.11210E-005	0.00000E+000	7.24337E-005	5.39641E-002	7.95018E-001	3.57250E+000	9	...........
	74	1	7.98155E-001	9.11200E-005	0.00000E+000	7.27279E-005	5.39641E-002	7.98266E-001	3.57250E+000	9	...........
	75	1.01333	8.01351E-001	9.12450E-005	0.00000E+000	7.31193E-005	5.39641E-002	8.01490E-001	3.57252E+000	9	...........
	76	1.02667	8.04505E-001	9.09241E-005	0.00000E+000	7.31489E-005	5.39641E-002	8.04647E-001	3.57260E+000	9	...........
	77	1.04	8.07656E-001	9.10126E-005	0.00000E+000	7.35069E-005	5.39641E-002	8.07778E-001	3.57260E+000	9	...........
	78	1.05333	8.10727E-001	9.11741E-005	0.00000E+000	7.39174E-005	5.39641E-002	8.10873E-001	3.57260E+000	9	...........
	79	1.06667	8.13787E-001	9.10387E-005	0.00000E+000	7.40861E-005	5.39641E-002	8.13930E-001	3.57260E+000	9	...........
	80	1.08	8.16798E-001	9.11585E-005	0.00000E+000	7.44581E-005	5.39641E-002	8.16953E-001	3.57260E+000	9	...........
	81	1.09333	8.19816E-001	9.11595E-005	0.00000E+000	7.47340E-005	5.39641E-002	8.19962E-001	3.57260E+000	9	...........
	82	1.10667	8.22752E-001	9.11335E-005	0.00000E+000	7.49802E-005	5.39641E-002	8.22912E-001	3.57260E+000	9	...........
	83	1.12	8.25673E-001	9.10866E-005	0.00000E+000	7.52077E-005	5.39641E-002	8.25828E-001	3.57260E+000	9	...........
	84	1.13333	8.28549E-001	9.11387E-005	0.00000E+000	7.55129E-005	5.39641E-002	8.28703E-001	3.57260E+000	9	...........
	85	1.14667	8.31421E-001	9.11887E-005	0.00000E+000	7.58162E-005	5.39641E-002	8.31573E-001	3.57260E+000	9	...........
	86	1.16	8.34247E-001	9.12325E-005	0.00000E+000	7.61104E-005	5.39641E-002	8.34426E-001	3.57260E+000	9	...........
	87	1.17333	8.37058E-001	9.09845E-005	0.00000E+000	7.61593E-005	5.39641E-002	8.37251E-001	3.57260E+000	9	...........
	88	1.18667	8.39833E-001	9.10637E-005	0.00000E+000	7.64783E-005	5.39641E-002	8.40005E-001	3.57260E+000	9	...........
	89	1.2	8.42579E-001	9.12929E-005	0.00000E+000	7.69215E-005	5.39641E-002	8.42762E-001	3.57260E+000	9	...........
	90	1.21333	8.45356E-001	9.11804E-005	0.00000E+000	7.70799E-005	5.39641E-002	8.45527E-001	3.57260E+000	9	...........
	91	1.22667	8.48032E-001	9.12950E-005	0.00000E+000	7.74211E-005	5.39641E-002	8.48203E-001	3.57260E+000	9	...........
	92	1.24	8.50712E-001	9.07449E-005	0.00000E+000	7.71978E-005	5.39641E-002	8.50873E-001	3.57260E+000	9	...........
	93	1.25333	8.53361E-001	9.09324E-005	0.00000E+000	7.75981E-005	5.39641E-002	8.53539E-001	3.57260E+000	9	...........
	94	1.26667	8.55977E-001	9.11116E-005	0.00000E+000	7.79894E-005	5.39641E-002	8.56166E-001	3.57260E+000	9	...........
	95	1.28	8.58543E-001	9.11033E-005	0.00000E+000	7.82160E-005	5.39641E-002	8.58756E-001	3.57260E+000	9	...........
	96	1.29333	8.61091E-001	9.09376E-005	0.00000E+000	7.83056E-005	5.39641E-002	8.61272E-001	3.57260E+000	9	...........
	97	1.30667	8.63591E-001	9.10220E-005	0.00000E+000	7.86057E-005	5.39641E-002	8.63791E-001	3.57260E+000	9	...........
	98	1.32	8.66075E-001	9.10908E-005	0.00000E+000	7.88915E-005	5.39641E-002	8.66299E-001	3.57260E+000	9	...........
	99	1.33333	8.68581E-001	9.10439E-005	0.00000E+000	7.90790E-005	5.39641E-002	8.68793E-001	3.57260E+000	9	...........
	100	1.34667	8.71056E-001	9.11470E-005	0.00000E+000	7.93942E-005	5.39641E-002	8.71256E-001	3.57260E+000	9	...........
	101	1.36	8.73497E-001	9.09595E-005	0.00000E+000	7.94528E-005	5.39641E-002	8.73688E-001	3.57260E+000	9	...........
	102	1.37333	8.75871E-001	9.10772E-005	0.00000E+000	7.97719E-005	5.39641E-002	8.76099E-001	3.57260E+000	9	...........
	103	1.38667	8.78277E-001	9.12992E-005	0.00000E+000	8.01860E-005	5.39641E-002	8.78461E-001	3.57260E+000	9	...........
	104	1.4	8.80607E-001	9.10835E-005	0.00000E+000	8.02087E-005	5.39641E-002	8.80812E-001	3.57260E+000	9	...........
	105	1.41333	8.82953E-001	9.10460E-005	0.00000E+000	8.03893E-005	5.39641E-002	8.83159E-001	3.57260E+000	9	...........
	106	1.42667	8.85285E-001	9.09074E-005	0.00000E+000	8.04790E-005	5.39641E-002	8.85467E-001	3.57260E+000	9	...........
	107	1.44	8.87566E-001	9.10356E-005	0.00000E+000	8.08000E-005	5.39641E-002	8.87770E-001	3.57260E+000	9	...........
	108	1.45333	8.89849E-001	9.10835E-005	0.00000E+000	8.10506E-005	5.39641E-002	8.90047E-001	3.57260E+000	9	...........
	109	1.46667	8.92090E-001	9.09668E-005	0.00000E+000	8.11506E-005	5.39641E-002	8.92302E-001	3.57260E+000	9	...........
	110	1.48	8.94326E-001	9.11752E-005	0.00000E+000	8.15403E-005	5.39641E-002	8.94549E-001	3.57260E+000	9	...........
	111	1.49333	8.96560E-001	9.11241E-005	0.00000E+000	8.16983E-005	5.39641E-002	8.96772E-001	3.57260E+000	9	...........
	112	1.50667	8.98735E-001	9.10158E-005	0.00000E+000	8.17990E-005	5.39641E-002	8.98932E-001	3.57260E+000	9	...........
	113	1.52	9.00874E-001	9.08584E-005	0.00000E+000	8.18520E-005	5.39641E-002	9.01084E-001	3.57260E+000	9	...........
	114	1.53333	9.03001E-001	9.10470E-005	0.00000E+000	8.22156E-005	5.39641E-002	9.03218E-001	3.57260E+000	9	...........
	115	1.54667	9.05128E-001	9.13106E-005	0.00000E+000	8.26478E-005	5.39641E-002	9.05330E-001	3.57260E+000	9	...........
	116	1.56	9.07222E-001	9.13440E-005	0.00000E+000	8.28692E-005	5.39641E-002	9.07444E-001	3.57260E+000	9	...........
	117	1.57333	9.09349E-001	9.08063E-005	0.00000E+000	8.25746E-005	5.39641E-002	9.09524E-001	3.57260E+000	9	...........
	118	1.58667	9.11408E-001	9.09626E-005	0.00000E+000	8.29041E-005	5.39641E-002	9.11582E-001	3.57260E+000	9	...........
	119	1.6	9.13454E-001	9.09814E-005	0.00000E+000	8.31073E-005	5.39641E-002	9.13620E-001	3.57260E+000	9	...........
	120	1.61333	9.15465E-001	9.10293E-005	0.00000E+000	8.33341E-005	5.39641E-002	9.15654E-001	3.57260E+000	9	...........
	121	1.62667	9.17469E-001	9.09189E-005	0.00000E+000	8.34153E-005	5.39641E-002	9.17660E-001	3.57260E+000	9	...........
	122	1.64	9.19420E-001	9.11366E-005	0.00000E+000	8.37928E-005	5.39641E-002	9.19624E-001	3.57260E+000	9	...........
	123	1.65333	9.21421E-001	9.11981E-005	0.00000E+000	8.40318E-005	5.39641E-002	9.21575E-001	3.57260E+000	9	...........
	124	1.66667	9.23370E-001	9.11668E-005	0.00000E+000	8.41807E-005	5.39641E-002	9.23509E-001	3.57260E+000	9	...........
	125	1.68	9.25250E-001	9.09012E-005	0.00000E+000	8.41063E-005	5.39641E-002	9.25420E-001	3.57260E+000	9	...........
	126	1.69333	9.27152E-001	9.12168E-005	0.00000E+000	8.45718E-005	5.39641E-002	9.27321E-001	3.57260E+000	9	...........
	127	1.70667	9.29047E-001	9.10918E-005	0.00000E+000	8.46286E-005	5.39641E-002	9.29187E-001	3.57260E+000	9	...........
	128	1.72	9.30902E-001	9.10043E-005	0.00000E+000	8.47161E-005	5.39641E-002	9.31062E-001	3.57260E+000	9	...........
	129	1.73333	9.32725E-001	9.10053E-005	0.00000E+000	8.48830E-005	5.39641E-002	9.32902E-001	3.57260E+000	9	...........
	130	1.74667	9.34552E-001	9.10741E-005	0.00000E+000	8.51135E-005	5.39641E-002	9.34729E-001	3.57260E+000	9	...........
	131	1.76	9.36359E-001	9.09793E-005	0.00000E+000	8.51893E-005	5.39641E-002	9.36539E-001	3.57260E+000	9	...........
	132	1.77333	9.38119E-001	9.09918E-005	0.00000E+000	8.53612E-005	5.39641E-002	9.38296E-001	3.57260E+000	9	...........
	133	1.78667	9.39875E-001	9.09658E-005	0.00000E+000	8.54964E-005	5.39641E-002	9.40058E-001	3.57260E+000	9	...........
	134	1.8	9.41603E-001	9.10981E-005	0.00000E+000	8.57782E-005	5.39641E-002	9.41788E-001	3.57260E+000	9	...........
	135	1.81333	9.43336E-001	9.09137E-005	0.00000E+000	8.57622E-005	5.39641E-002	9.43508E-001	3.57260E+000	9	...........
	136	1.82667	9.45044E-001	9.12116E-005	0.00000E+000	8.61991E-005	5.39641E-002	9.45245E-001	3.57260E+000	9	...........
	137	1.84	9.46774E-001	9.11700E-005	0.00000E+000	8.63173E-005	5.39641E-002	9.46960E-001	3.57260E+000	9	...........
	138	1.85333	9.48469E-001	9.10262E-005	0.00000E+000	8.63356E-005	5.39641E-002	9.48641E-001	3.57260E+000	9	...........
	139	1.86667	9.50133E-001	9.09543E-005	0.00000E+000	8.64186E-005	5.39641E-002	9.50315E-001	3.57260E+000	9	...........
	140	1.88	9.51801E-001	9.10939E-005	0.00000E+000	8.67032E-005	5.39641E-002	9.51986E-001	3.57260E+000	9	...........
	141	1.89333	9.53419E-001	9.09168E-005	0.00000E+000	8.66818E-005	5.39641E-002	9.53609E-001	3.57260E+000	9	...........
	142	1.90667	9.55058E-001	9.11502E-005	0.00000E+000	8.70537E-005	5.39641E-002	9.55206E-001	3.57260E+000	9	...........
	143	1.92	9.56650E-001	9.10408E-005	0.00000E+000	8.70942E-005	5.39641E-002	9.56849E-001	3.57260E+000	9	...........
	144	1.93333	9.58252E-001	9.11054E-005	0.00000E+000	8.73019E-005	5.39641E-002	9.58430E-001	3.57260E+000	9	...........
	145	1.94667	9.59797E-001	9.12491E-005	0.00000E+000	8.75807E-005	5.39641E-002	9.59999E-001	3.57260E+000	9	...........
	146	1.96	9.61338E-001	9.09824E-005	0.00000E+000	8.74649E-005	5.39641E-002	9.61558E-001	3.57260E+000	9	...........
	147	1.97333	9.62875E-001	9.09981E-005	0.00000E+000	8.76197E-005	5.39641E-002	9.63093E-001	3.57260E+000	9	...........
	148	1.98667	9.64403E-001	9.12773E-005	0.00000E+000	8.80281E-005	5.39641E-002	9.64606E-001	3.57260E+000	9	...........
	149	2	9.65913E-001	9.09928E-005	0.00000E+000	8.78912E-005	5.39641E-002	9.66128E-001	3.57260E+000	9	...........
	150	2.01333	9.67407E-001	9.10137E-005	0.00000E+000	8.80472E-005	5.39641E-002	9.67625E-001	3.57250E+000	9	...........
	151	2.02667	9.68900E-001	9.09449E-005	0.00000E+000	8.81165E-005	5.39641E-002	9.69101E-001	3.57220E+000	9	...........
	152	2.04	9.70355E-001	9.12314E-005	0.00000E+000	8.85269E-005	5.39641E-002	9.70568E-001	3.57220E+000	9	...........
	153	2.05333	9.71824E-001	9.09928E-005	0.00000E+000	8.84291E-005	5.39641E-002	9.72054E-001	3.57220E+000	9	...........
	154	2.06667	9.73311E-001	9.11085E-005	0.00000E+000	8.86769E-005	5.39641E-002	9.73491E-001	3.57220E+000	9	...........
	155	2.08	9.74754E-001	9.12814E-005	0.00000E+000	8.89770E-005	5.39641E-002	9.74933E-001	3.57220E+000	9	...........
	156	2.09333	9.76146E-001	9.10262E-005	0.00000E+000	8.88548E-005	5.39641E-002	9.76330E-001	3.57220E+000	9	...........
	157	2.10667	9.77528E-001	9.14117E-005	0.00000E+000	8.93575E-005	5.39641E-002	9.77731E-001	3.57220E+000	9	...........
	158	2.12	9.78934E-001	9.11429E-005	0.00000E+000	8.92229E-005	5.39641E-002	9.79121E-001	3.57220E+000	9	...........
	159	2.13333	9.80294E-001	9.10814E-005	0.00000E+000	8.92865E-005	5.39641E-002	9.80473E-001	3.57220E+000	9	...........
	160	2.14667	9.81664E-001	9.12762E-005	0.00000E+000	8.96026E-005	5.39641E-002	9.81833E-001	3.57220E+000	9	...........
	161	2.16	9.82992E-001	9.09803E-005	0.00000E+000	8.94330E-005	5.39641E-002	9.83182E-001	3.57220E+000	9	...........
	162	2.17333	9.84315E-001	9.10345E-005	0.00000E+000	8.96067E-005	5.39641E-002	9.84524E-001	3.57220E+000	9	...........
	163	2.18667	9.85623E-001	9.09470E-005	0.00000E+000	8.96395E-005	5.39641E-002	9.85844E-001	3.57220E+000	9	...........
	164	2.2	9.86916E-001	9.11074E-005	0.00000E+000	8.99154E-005	5.39641E-002	9.87160E-001	3.57220E+000	9	...........
	165	2.21333	9.88245E-001	9.09908E-005	0.00000E+000	8.99212E-005	5.39641E-002	9.88445E-001	3.57220E+000	9	...........
	166	2.22667	9.89536E-001	9.11345E-005	0.00000E+000	9.01809E-005	5.39641E-002	9.89737E-001	3.57220E+000	9	...........
	167	2.24	9.90805E-001	9.10626E-005	0.00000E+000	9.02253E-005	5.39641E-002	9.91006E-001	3.57220E+000	9	...........
	168	2.25333	9.92064E-001	9.10418E-005	0.00000E+000	9.03193E-005	5.39641E-002	9.92241E-001	3.57220E+000	9	...........
	169	2.26667	9.93315E-001	9.09970E-005	0.00000E+000	9.03887E-005	5.39641E-002	9.93505E-001	3.57220E+000	9	...........
	170	2.28	9.94547E-001	9.08751E-005	0.00000E+000	9.03795E-005	5.39641E-002	9.94731E-001	3.57220E+000	9	...........
	171	2.29333	9.95773E-001	9.07938E-005	0.00000E+000	9.04101E-005	5.39641E-002	9.95940E-001	3.57220E+000	9	...........
	172	2.30667	9.96979E-001	9.12439E-005	0.00000E+000	9.09683E-005	5.39641E-002	9.97165E-001	3.57220E+000	9	...........
	173	2.32	9.98202E-001	9.10116E-005	0.00000E+000	9.08479E-005	5.39641E-002	9.98379E-001	3.57220E+000	9	...........
	174	2.33333	9.99380E-001	9.09376E-005	0.00000E+000	9.08812E-005	5.39641E-002	9.99570E-001	3.57220E+000	9	...........
	175	2.335	1.00007E+000	9.10460E-005	0.00000E+000	9.10520E-005	5.39641E-002	1.00021E+000	3.57220E+000	9	...........
STARTTIMEOFFSET	QUANT	1300.947	Start Time Offset (s)
