EXPLAIN
TAG	PWR800_CHARGE
TITLE	LABEL	PWR Cyclic Charge Discharge (Cell) - Charge Step	Test &Identifier
DATE	LABEL	10-7-2017	Date
TIME	LABEL	16:11:53	Time
NOTES	NOTES	3	&Notes...
	supercap test cell
	0.9mg
	6M KOH
PSTAT	PSTAT	IFC5000-01520	Potentiostat
CAPACITY	QUANT	1.00000E-003	Capacity (A-hr)
CELLTYPE	SELECTOR	1	&Cell Type
WORKINGCONNECTION	SELECTOR	0	&Working Lead
MAXCHARGETIME	VARIABLEANDUNITS	1.00000E+002	s	1.00000E+002	second(s)	Max &Charge Time
CHARGECURRENT	QUANT	9.00000E-005	&Charge Current (A) 
VOLTAGEFINISH	TWOPARAM	F	1.00000E-003	3.60000E+003	&Voltage Finish	 I (A) < 	Max Time(s)
SAMPLETIME	QUANT	1.00000E-002	Sa&mple Period (s)
CHARGESTOPAT1	MULTIPARAM	4	1.00000E+000	Charge Stop At &1	Voltage > Limit	V
CHARGESTOPAT2	MULTIPARAM	0	0.00000E+000	Charge Stop At &2	None	N/A
AESBHCSELECTOR	TOGGLE	F	Save Both Half Cells
IRCOMP	TOGGLE	F	IR &Measure
EOC	QUANT	0	Open Circuit (V)
SEQUENCER	TOGGLE	TRUE	Run as Sequence
PSTATMODEL	IQUANT	53	Pstat Model
PSTATSECTION	LABEL	IFC5000-01520	Pstat Section
PSTATSERIALNO	LABEL	01520	Pstat Serial Number
CTRLMODE	IQUANT	0	Control Mode
ELECTROMETER	IQUANT	1	RE=0 or CS=1
IESTAB	IQUANT	0	I/E Stability
CASPEED	IQUANT	4	Control Amp Speed
CONVENTION	IQUANT	1	Current Convention
ICHRANGE	IQUANT	2	Ich Range
ICHRANGEMODE	TOGGLE	T	Ich Auto Range
ICHOFFSETENABLE	TOGGLE	F	Ich Offset Enable
ICHOFFSET	QUANT	0	Ich Offset (V)
ICHFILTER	IQUANT	1	Ich Filter
VCHRANGE	IQUANT	2	Vch Range
VCHRANGEMODE	TOGGLE	T	Vch Auto Range
VCHOFFSETENABLE	TOGGLE	F	Vch Offset Enable
VCHOFFSET	QUANT	0	Vch Offset (V)
VCHFILTER	IQUANT	1	Vch Filter
IERANGELOWERLIMIT	IQUANT	9	I/E Range Lower Limit
IERANGEMODE	TOGGLE	F	I/E AutoRange
IERANGE	IQUANT	9	I/E Range
ACHSELECT	IQUANT	1	Ach Select
ACHRANGE	IQUANT	2	Ach Range
ACHOFFSETENABLE	TOGGLE	F	Ach Offset Enable
ACHOFFSET	QUANT	0	Ach Offset (V)
ACHFILTER	IQUANT	1	Ach Filter
CABLEID	IQUANT	14	Cable ID
DCCALDATE	LABEL	5-7-2017	DC Calibration Date
ACCALDATE	LABEL	12/3/2015	AC Calibration Date
FRAMEWORKVERSION	QUANT	7.01	Framework Version
INSTRUMENTVERSION	LABEL	4.00	Instrument Version
CURVE	TABLE	162
	Pt	T	Vf	Im	Vu	Pwr	Sig	Ach	Temp	IERange	Over
	#	s	V	A	V	W	V	V	deg C	#	bits
	0	0.013333	2.68378E-001	9.09668E-005	0.00000E+000	2.44135E-005	5.39641E-002	2.68417E-001	3.57320E+000	9	...........
	1	0.026667	2.87991E-001	9.09241E-005	0.00000E+000	2.61853E-005	5.39641E-002	2.88035E-001	3.57320E+000	9	...........
	2	0.04	3.06423E-001	9.10324E-005	0.00000E+000	2.78944E-005	5.39641E-002	3.06459E-001	3.57320E+000	9	...........
	3	0.053333	3.23824E-001	9.08178E-005	0.00000E+000	2.94090E-005	5.39641E-002	3.23863E-001	3.57320E+000	9	...........
	4	0.066667	3.40298E-001	9.08574E-005	0.00000E+000	3.09186E-005	5.39641E-002	3.40342E-001	3.57320E+000	9	...........
	5	0.08	3.55942E-001	9.08209E-005	0.00000E+000	3.23270E-005	5.39641E-002	3.55986E-001	3.57320E+000	9	...........
	6	0.093333	3.70806E-001	9.09334E-005	0.00000E+000	3.37187E-005	5.39641E-002	3.70851E-001	3.57320E+000	9	...........
	7	0.106667	3.84972E-001	9.08011E-005	0.00000E+000	3.49559E-005	5.39641E-002	3.85013E-001	3.57320E+000	9	...........
	8	0.12	3.98486E-001	9.08876E-005	0.00000E+000	3.62175E-005	5.39641E-002	3.98534E-001	3.57320E+000	9	...........
	9	0.133333	4.11414E-001	9.11283E-005	0.00000E+000	3.74914E-005	5.39641E-002	4.11468E-001	3.57320E+000	9	...........
	10	0.146667	4.23813E-001	9.10585E-005	0.00000E+000	3.85918E-005	5.39641E-002	4.23869E-001	3.57320E+000	9	...........
	11	0.16	4.35696E-001	9.10741E-005	0.00000E+000	3.96807E-005	5.39641E-002	4.35757E-001	3.57320E+000	9	...........
	12	0.173333	4.47122E-001	9.09626E-005	0.00000E+000	4.06714E-005	5.39641E-002	4.47183E-001	3.57320E+000	9	...........
	13	0.186667	4.58111E-001	9.09366E-005	0.00000E+000	4.16590E-005	5.39641E-002	4.58178E-001	3.57320E+000	9	...........
	14	0.2	4.68716E-001	9.09835E-005	0.00000E+000	4.26454E-005	5.39641E-002	4.68777E-001	3.57320E+000	9	...........
	15	0.213333	4.78940E-001	9.08855E-005	0.00000E+000	4.35287E-005	5.39641E-002	4.79005E-001	3.57320E+000	9	...........
	16	0.226667	4.88803E-001	9.09116E-005	0.00000E+000	4.44379E-005	5.39641E-002	4.88874E-001	3.57320E+000	9	...........
	17	0.24	4.98344E-001	9.08366E-005	0.00000E+000	4.52679E-005	5.39641E-002	4.98413E-001	3.57320E+000	9	...........
	18	0.253333	5.07579E-001	9.08616E-005	0.00000E+000	4.61194E-005	5.39641E-002	5.07655E-001	3.57320E+000	9	...........
	19	0.266667	5.16537E-001	9.08834E-005	0.00000E+000	4.69447E-005	5.39641E-002	5.16611E-001	3.57320E+000	9	...........
	20	0.28	5.25216E-001	9.07959E-005	0.00000E+000	4.76875E-005	5.39641E-002	5.25290E-001	3.57320E+000	9	...........
	21	0.293333	5.33578E-001	9.08345E-005	0.00000E+000	4.84673E-005	5.39641E-002	5.33668E-001	3.57320E+000	9	...........
	22	0.306667	5.41723E-001	9.10137E-005	0.00000E+000	4.93042E-005	5.39641E-002	5.41835E-001	3.57320E+000	9	...........
	23	0.32	5.49685E-001	9.11387E-005	0.00000E+000	5.00975E-005	5.39641E-002	5.49799E-001	3.57320E+000	9	...........
	24	0.333333	5.57412E-001	9.10408E-005	0.00000E+000	5.07473E-005	5.39641E-002	5.57510E-001	3.57333E+000	9	...........
	25	0.346667	5.64971E-001	9.08689E-005	0.00000E+000	5.13383E-005	5.39641E-002	5.65104E-001	3.57340E+000	9	...........
	26	0.36	5.72310E-001	9.10210E-005	0.00000E+000	5.20923E-005	5.39641E-002	5.72425E-001	3.57340E+000	9	...........
	27	0.373333	5.79459E-001	9.09512E-005	0.00000E+000	5.27025E-005	5.39641E-002	5.79573E-001	3.57340E+000	9	...........
	28	0.386667	5.86426E-001	9.11491E-005	0.00000E+000	5.34522E-005	5.39641E-002	5.86582E-001	3.57340E+000	9	...........
	29	0.4	5.93263E-001	9.10022E-005	0.00000E+000	5.39883E-005	5.39641E-002	5.93417E-001	3.57340E+000	9	...........
	30	0.413333	5.99921E-001	9.09491E-005	0.00000E+000	5.45622E-005	5.39641E-002	6.00065E-001	3.57340E+000	9	...........
	31	0.426667	6.06401E-001	9.11731E-005	0.00000E+000	5.52874E-005	5.39641E-002	6.06552E-001	3.57340E+000	9	...........
	32	0.44	6.12793E-001	9.10522E-005	0.00000E+000	5.57962E-005	5.39641E-002	6.12922E-001	3.57340E+000	9	...........
	33	0.453333	6.19065E-001	9.08720E-005	0.00000E+000	5.62557E-005	5.39641E-002	6.19146E-001	3.57340E+000	9	...........
	34	0.466667	6.25164E-001	9.11022E-005	0.00000E+000	5.69538E-005	5.39641E-002	6.25246E-001	3.57340E+000	9	...........
	35	0.48	6.31128E-001	9.12773E-005	0.00000E+000	5.76077E-005	5.39641E-002	6.31254E-001	3.57340E+000	9	...........
	36	0.493333	6.36991E-001	9.08689E-005	0.00000E+000	5.78826E-005	5.39641E-002	6.37121E-001	3.57340E+000	9	...........
	37	0.506667	6.42769E-001	9.10356E-005	0.00000E+000	5.85148E-005	5.39641E-002	6.42896E-001	3.57340E+000	9	...........
	38	0.52	6.48394E-001	9.10699E-005	0.00000E+000	5.90492E-005	5.39641E-002	6.48531E-001	3.57340E+000	9	...........
	39	0.533333	6.53967E-001	9.09824E-005	0.00000E+000	5.94995E-005	5.39641E-002	6.54097E-001	3.57340E+000	9	...........
	40	0.546667	6.59389E-001	9.13721E-005	0.00000E+000	6.02497E-005	5.39641E-002	6.59494E-001	3.57340E+000	9	...........
	41	0.56	6.64752E-001	9.10856E-005	0.00000E+000	6.05493E-005	5.39641E-002	6.64880E-001	3.57340E+000	9	...........
	42	0.573333	6.70019E-001	9.09543E-005	0.00000E+000	6.09411E-005	5.39641E-002	6.70110E-001	3.57340E+000	9	...........
	43	0.586667	6.75177E-001	9.11231E-005	0.00000E+000	6.15242E-005	5.39641E-002	6.75279E-001	3.57340E+000	9	...........
	44	0.6	6.80254E-001	9.09480E-005	0.00000E+000	6.18678E-005	5.39641E-002	6.80358E-001	3.57340E+000	9	...........
	45	0.613333	6.85232E-001	9.09949E-005	0.00000E+000	6.23527E-005	5.39641E-002	6.85340E-001	3.57340E+000	9	...........
	46	0.626667	6.90161E-001	9.08116E-005	0.00000E+000	6.26746E-005	5.39641E-002	6.90250E-001	3.57340E+000	9	...........
	47	0.64	6.95042E-001	9.09522E-005	0.00000E+000	6.32156E-005	5.39641E-002	6.95114E-001	3.57340E+000	9	...........
	48	0.653333	6.99796E-001	9.10470E-005	0.00000E+000	6.37144E-005	5.39641E-002	6.99899E-001	3.57340E+000	9	...........
	49	0.666667	7.04486E-001	9.09460E-005	0.00000E+000	6.40701E-005	5.39641E-002	7.04605E-001	3.57340E+000	9	...........
	50	0.68	7.09104E-001	9.09772E-005	0.00000E+000	6.45123E-005	5.39641E-002	7.09241E-001	3.57340E+000	9	...........
	51	0.693333	7.13660E-001	9.10001E-005	0.00000E+000	6.49432E-005	5.39641E-002	7.13823E-001	3.57340E+000	9	...........
	52	0.706667	7.18222E-001	9.11377E-005	0.00000E+000	6.54571E-005	5.39641E-002	7.18348E-001	3.57340E+000	9	...........
	53	0.72	7.22657E-001	9.10897E-005	0.00000E+000	6.58267E-005	5.39641E-002	7.22784E-001	3.57340E+000	9	...........
	54	0.733333	7.26995E-001	9.11418E-005	0.00000E+000	6.62597E-005	5.39641E-002	7.27135E-001	3.57340E+000	9	...........
	55	0.746667	7.31309E-001	9.07813E-005	0.00000E+000	6.63892E-005	5.39641E-002	7.31480E-001	3.57340E+000	9	...........
	56	0.76	7.35588E-001	9.10866E-005	0.00000E+000	6.70022E-005	5.39641E-002	7.35729E-001	3.57340E+000	9	...........
	57	0.773333	7.39807E-001	9.09397E-005	0.00000E+000	6.72779E-005	5.39641E-002	7.39968E-001	3.57340E+000	9	...........
	58	0.786667	7.43986E-001	9.11814E-005	0.00000E+000	6.78377E-005	5.39641E-002	7.44135E-001	3.57340E+000	9	...........
	59	0.8	7.48090E-001	9.10189E-005	0.00000E+000	6.80904E-005	5.39641E-002	7.48221E-001	3.57340E+000	9	...........
	60	0.813333	7.52122E-001	9.10043E-005	0.00000E+000	6.84463E-005	5.39641E-002	7.52251E-001	3.57340E+000	9	...........
	61	0.826667	7.56145E-001	9.11970E-005	0.00000E+000	6.89582E-005	5.39641E-002	7.56278E-001	3.57340E+000	9	...........
	62	0.84	7.60101E-001	9.11168E-005	0.00000E+000	6.92580E-005	5.39641E-002	7.60236E-001	3.57340E+000	9	...........
	63	0.853333	7.64014E-001	9.10241E-005	0.00000E+000	6.95437E-005	5.39641E-002	7.64125E-001	3.57340E+000	9	...........
	64	0.866667	7.67869E-001	9.10564E-005	0.00000E+000	6.99194E-005	5.39641E-002	7.68036E-001	3.57340E+000	9	...........
	65	0.88	7.71724E-001	9.11137E-005	0.00000E+000	7.03146E-005	5.39641E-002	7.71859E-001	3.57340E+000	9	...........
	66	0.893333	7.75493E-001	9.07990E-005	0.00000E+000	7.04140E-005	5.39641E-002	7.75606E-001	3.57340E+000	9	...........
	67	0.906667	7.79187E-001	9.11783E-005	0.00000E+000	7.10449E-005	5.39641E-002	7.79344E-001	3.57340E+000	9	...........
	68	0.92	7.82885E-001	9.09116E-005	0.00000E+000	7.11733E-005	5.39641E-002	7.83014E-001	3.57340E+000	9	...........
	69	0.933333	7.86475E-001	9.12877E-005	0.00000E+000	7.17955E-005	5.39641E-002	7.86591E-001	3.57340E+000	9	...........
	70	0.946667	7.90061E-001	9.10751E-005	0.00000E+000	7.19549E-005	5.39641E-002	7.90182E-001	3.57340E+000	9	...........
	71	0.96	7.93641E-001	9.10668E-005	0.00000E+000	7.22744E-005	5.39641E-002	7.93771E-001	3.57340E+000	9	...........
	72	0.97333	7.97189E-001	9.10658E-005	0.00000E+000	7.25966E-005	5.39641E-002	7.97302E-001	3.57340E+000	9	...........
	73	0.98667	8.00645E-001	9.08824E-005	0.00000E+000	7.27645E-005	5.39641E-002	8.00765E-001	3.57340E+000	9	...........
	74	1	8.04061E-001	9.10658E-005	0.00000E+000	7.32224E-005	5.39641E-002	8.04217E-001	3.57340E+000	9	...........
	75	1.01333	8.07492E-001	9.09168E-005	0.00000E+000	7.34146E-005	5.39641E-002	8.07645E-001	3.57340E+000	9	...........
	76	1.02667	8.10832E-001	9.09480E-005	0.00000E+000	7.37436E-005	5.39641E-002	8.10991E-001	3.57340E+000	9	...........
	77	1.04	8.14179E-001	9.08689E-005	0.00000E+000	7.39835E-005	5.39641E-002	8.14346E-001	3.57340E+000	9	...........
	78	1.05333	8.17500E-001	9.11210E-005	0.00000E+000	7.44914E-005	5.39641E-002	8.17653E-001	3.57340E+000	9	...........
	79	1.06667	8.20786E-001	9.08876E-005	0.00000E+000	7.45993E-005	5.39641E-002	8.20956E-001	3.57340E+000	9	...........
	80	1.08	8.24016E-001	9.12471E-005	0.00000E+000	7.51890E-005	5.39641E-002	8.24216E-001	3.57340E+000	9	...........
	81	1.09333	8.27215E-001	9.11793E-005	0.00000E+000	7.54249E-005	5.39641E-002	8.27392E-001	3.57340E+000	9	...........
	82	1.10667	8.30366E-001	9.11898E-005	0.00000E+000	7.57209E-005	5.39641E-002	8.30515E-001	3.57340E+000	9	...........
	83	1.12	8.33494E-001	9.08772E-005	0.00000E+000	7.57456E-005	5.39641E-002	8.33663E-001	3.57340E+000	9	...........
	84	1.13333	8.36559E-001	9.11887E-005	0.00000E+000	7.62848E-005	5.39641E-002	8.36752E-001	3.57340E+000	9	...........
	85	1.14667	8.39618E-001	9.09522E-005	0.00000E+000	7.63651E-005	5.39641E-002	8.39781E-001	3.57340E+000	9	...........
	86	1.16	8.42663E-001	9.11210E-005	0.00000E+000	7.67843E-005	5.39641E-002	8.42817E-001	3.57340E+000	9	...........
	87	1.17333	8.45718E-001	9.11637E-005	0.00000E+000	7.70988E-005	5.39641E-002	8.45859E-001	3.57340E+000	9	...........
	88	1.18667	8.48698E-001	9.10283E-005	0.00000E+000	7.72555E-005	5.39641E-002	8.48847E-001	3.57340E+000	9	...........
	89	1.2	8.51647E-001	9.09460E-005	0.00000E+000	7.74539E-005	5.39641E-002	8.51806E-001	3.57340E+000	9	...........
	90	1.21333	8.54544E-001	9.11064E-005	0.00000E+000	7.78544E-005	5.39641E-002	8.54709E-001	3.57340E+000	9	...........
	91	1.22667	8.57438E-001	9.09241E-005	0.00000E+000	7.79618E-005	5.39641E-002	8.57611E-001	3.57340E+000	9	...........
	92	1.24	8.60268E-001	9.11470E-005	0.00000E+000	7.84109E-005	5.39641E-002	8.60454E-001	3.57340E+000	9	...........
	93	1.25333	8.63082E-001	9.10366E-005	0.00000E+000	7.85720E-005	5.39641E-002	8.63257E-001	3.57340E+000	9	...........
	94	1.26667	8.65861E-001	9.10210E-005	0.00000E+000	7.88116E-005	5.39641E-002	8.66054E-001	3.57340E+000	9	...........
	95	1.28	8.68679E-001	9.08355E-005	0.00000E+000	7.89069E-005	5.39641E-002	8.68863E-001	3.57340E+000	9	...........
	96	1.29333	8.71447E-001	9.11689E-005	0.00000E+000	7.94489E-005	5.39641E-002	8.71624E-001	3.57340E+000	9	...........
	97	1.30667	8.74150E-001	9.10210E-005	0.00000E+000	7.95659E-005	5.39641E-002	8.74346E-001	3.57340E+000	9	...........
	98	1.32	8.76833E-001	9.09939E-005	0.00000E+000	7.97864E-005	5.39641E-002	8.77019E-001	3.57340E+000	9	...........
	99	1.33333	8.79497E-001	9.09928E-005	0.00000E+000	8.00279E-005	5.39641E-002	8.79672E-001	3.57302E+000	9	...........
	100	1.34667	8.82131E-001	9.10585E-005	0.00000E+000	8.03255E-005	5.39641E-002	8.82319E-001	3.57280E+000	9	...........
	101	1.36	8.84762E-001	9.09928E-005	0.00000E+000	8.05070E-005	5.39641E-002	8.84923E-001	3.57280E+000	9	...........
	102	1.37333	8.87297E-001	9.10356E-005	0.00000E+000	8.07756E-005	5.39641E-002	8.87478E-001	3.57280E+000	9	...........
	103	1.38667	8.89854E-001	9.09616E-005	0.00000E+000	8.09425E-005	5.39641E-002	8.90012E-001	3.57280E+000	9	...........
	104	1.4	8.92372E-001	9.09866E-005	0.00000E+000	8.11939E-005	5.39641E-002	8.92539E-001	3.57280E+000	9	...........
	105	1.41333	8.94860E-001	9.11179E-005	0.00000E+000	8.15377E-005	5.39641E-002	8.95080E-001	3.57280E+000	9	...........
	106	1.42667	8.97358E-001	9.09720E-005	0.00000E+000	8.16345E-005	5.39641E-002	8.97560E-001	3.57280E+000	9	...........
	107	1.44	8.99795E-001	9.09762E-005	0.00000E+000	8.18599E-005	5.39641E-002	9.00008E-001	3.57280E+000	9	...........
	108	1.45333	9.02199E-001	9.11043E-005	0.00000E+000	8.21942E-005	5.39641E-002	9.02410E-001	3.57280E+000	9	...........
	109	1.46667	9.04573E-001	9.12085E-005	0.00000E+000	8.25048E-005	5.39641E-002	9.04785E-001	3.57280E+000	9	...........
	110	1.48	9.06928E-001	9.09001E-005	0.00000E+000	8.24399E-005	5.39641E-002	9.07132E-001	3.57280E+000	9	...........
	111	1.49333	9.09299E-001	9.07970E-005	0.00000E+000	8.25616E-005	5.39641E-002	9.09468E-001	3.57280E+000	9	...........
	112	1.50667	9.11593E-001	9.08918E-005	0.00000E+000	8.28563E-005	5.39641E-002	9.11778E-001	3.57280E+000	9	...........
	113	1.52	9.13850E-001	9.10001E-005	0.00000E+000	8.31605E-005	5.39641E-002	9.14078E-001	3.57280E+000	9	...........
	114	1.53333	9.16117E-001	9.09178E-005	0.00000E+000	8.32914E-005	5.39641E-002	9.16337E-001	3.57280E+000	9	...........
	115	1.54667	9.18351E-001	9.09814E-005	0.00000E+000	8.35528E-005	5.39641E-002	9.18589E-001	3.57280E+000	9	...........
	116	1.56	9.20635E-001	9.07376E-005	0.00000E+000	8.35362E-005	5.39641E-002	9.20827E-001	3.57280E+000	9	...........
	117	1.57333	9.22866E-001	9.10074E-005	0.00000E+000	8.39877E-005	5.39641E-002	9.23043E-001	3.57280E+000	9	...........
	118	1.58667	9.25050E-001	9.10397E-005	0.00000E+000	8.42163E-005	5.39641E-002	9.25217E-001	3.57280E+000	9	...........
	119	1.6	9.27224E-001	9.09658E-005	0.00000E+000	8.43456E-005	5.39641E-002	9.27389E-001	3.57280E+000	9	...........
	120	1.61333	9.29365E-001	9.10564E-005	0.00000E+000	8.46246E-005	5.39641E-002	9.29529E-001	3.57280E+000	9	...........
	121	1.62667	9.31468E-001	9.09012E-005	0.00000E+000	8.46715E-005	5.39641E-002	9.31619E-001	3.57280E+000	9	...........
	122	1.64	9.33535E-001	9.09220E-005	0.00000E+000	8.48789E-005	5.39641E-002	9.33697E-001	3.57280E+000	9	...........
	123	1.65333	9.35571E-001	9.10585E-005	0.00000E+000	8.51917E-005	5.39641E-002	9.35759E-001	3.57280E+000	9	...........
	124	1.66667	9.37615E-001	9.12439E-005	0.00000E+000	8.55517E-005	5.39641E-002	9.37799E-001	3.57280E+000	9	...........
	125	1.68	9.39624E-001	9.10387E-005	0.00000E+000	8.55421E-005	5.39641E-002	9.39816E-001	3.57280E+000	9	...........
	126	1.69333	9.41602E-001	9.10501E-005	0.00000E+000	8.57330E-005	5.39641E-002	9.41785E-001	3.57280E+000	9	...........
	127	1.70667	9.43564E-001	9.09574E-005	0.00000E+000	8.58241E-005	5.39641E-002	9.43753E-001	3.57280E+000	9	...........
	128	1.72	9.45513E-001	9.11627E-005	0.00000E+000	8.61955E-005	5.39641E-002	9.45731E-001	3.57280E+000	9	...........
	129	1.73333	9.47503E-001	9.09366E-005	0.00000E+000	8.61627E-005	5.39641E-002	9.47708E-001	3.57280E+000	9	...........
	130	1.74667	9.49421E-001	9.09574E-005	0.00000E+000	8.63569E-005	5.39641E-002	9.49613E-001	3.57280E+000	9	...........
	131	1.76	9.51302E-001	9.12471E-005	0.00000E+000	8.68035E-005	5.39641E-002	9.51504E-001	3.57280E+000	9	...........
	132	1.77333	9.53195E-001	9.12481E-005	0.00000E+000	8.69772E-005	5.39641E-002	9.53384E-001	3.57280E+000	9	...........
	133	1.78667	9.55024E-001	9.10720E-005	0.00000E+000	8.69760E-005	5.39641E-002	9.55198E-001	3.57280E+000	9	...........
	134	1.8	9.56859E-001	9.08626E-005	0.00000E+000	8.69427E-005	5.39641E-002	9.57006E-001	3.57280E+000	9	...........
	135	1.81333	9.58647E-001	9.07730E-005	0.00000E+000	8.70193E-005	5.39641E-002	9.58838E-001	3.57280E+000	9	...........
	136	1.82667	9.60455E-001	9.10512E-005	0.00000E+000	8.74506E-005	5.39641E-002	9.60650E-001	3.57280E+000	9	...........
	137	1.84	9.62221E-001	9.09908E-005	0.00000E+000	8.75532E-005	5.39641E-002	9.62439E-001	3.57280E+000	9	...........
	138	1.85333	9.63956E-001	9.10470E-005	0.00000E+000	8.77654E-005	5.39641E-002	9.64195E-001	3.57280E+000	9	...........
	139	1.86667	9.65701E-001	9.10543E-005	0.00000E+000	8.79312E-005	5.39641E-002	9.65906E-001	3.57280E+000	9	...........
	140	1.88	9.67426E-001	9.09293E-005	0.00000E+000	8.79674E-005	5.39641E-002	9.67669E-001	3.57280E+000	9	...........
	141	1.89333	9.69130E-001	9.08741E-005	0.00000E+000	8.80687E-005	5.39641E-002	9.69381E-001	3.57280E+000	9	...........
	142	1.90667	9.70823E-001	9.11554E-005	0.00000E+000	8.84957E-005	5.39641E-002	9.71078E-001	3.57280E+000	9	...........
	143	1.92	9.72500E-001	9.09637E-005	0.00000E+000	8.84621E-005	5.39641E-002	9.72739E-001	3.57280E+000	9	...........
	144	1.93333	9.74144E-001	9.09512E-005	0.00000E+000	8.85995E-005	5.39641E-002	9.74349E-001	3.57280E+000	9	...........
	145	1.94667	9.75768E-001	9.10178E-005	0.00000E+000	8.88123E-005	5.39641E-002	9.75950E-001	3.57280E+000	9	...........
	146	1.96	9.77383E-001	9.11325E-005	0.00000E+000	8.90713E-005	5.39641E-002	9.77558E-001	3.57280E+000	9	...........
	147	1.97333	9.78994E-001	9.11241E-005	0.00000E+000	8.92100E-005	5.39641E-002	9.79136E-001	3.57280E+000	9	...........
	148	1.98667	9.80588E-001	9.10741E-005	0.00000E+000	8.93061E-005	5.39641E-002	9.80751E-001	3.57280E+000	9	...........
	149	2	9.82139E-001	9.09407E-005	0.00000E+000	8.93165E-005	5.39641E-002	9.82319E-001	3.57280E+000	9	...........
	150	2.01333	9.83662E-001	9.11814E-005	0.00000E+000	8.96917E-005	5.39641E-002	9.83851E-001	3.57280E+000	9	...........
	151	2.02667	9.85148E-001	9.10324E-005	0.00000E+000	8.96804E-005	5.39641E-002	9.85375E-001	3.57280E+000	9	...........
	152	2.04	9.86675E-001	9.10074E-005	0.00000E+000	8.97947E-005	5.39641E-002	9.86855E-001	3.57280E+000	9	...........
	153	2.05333	9.88139E-001	9.09501E-005	0.00000E+000	8.98714E-005	5.39641E-002	9.88328E-001	3.57280E+000	9	...........
	154	2.06667	9.89633E-001	9.10043E-005	0.00000E+000	9.00609E-005	5.39641E-002	9.89834E-001	3.57280E+000	9	...........
	155	2.08	9.91100E-001	9.10606E-005	0.00000E+000	9.02501E-005	5.39641E-002	9.91311E-001	3.57280E+000	9	...........
	156	2.09333	9.92551E-001	9.10793E-005	0.00000E+000	9.04008E-005	5.39641E-002	9.92769E-001	3.57280E+000	9	...........
	157	2.10667	9.93954E-001	9.09157E-005	0.00000E+000	9.03660E-005	5.39641E-002	9.94189E-001	3.57280E+000	9	...........
	158	2.12	9.95384E-001	9.08959E-005	0.00000E+000	9.04764E-005	5.39641E-002	9.95586E-001	3.57280E+000	9	...........
	159	2.13333	9.96760E-001	9.10647E-005	0.00000E+000	9.07697E-005	5.39641E-002	9.96976E-001	3.57280E+000	9	...........
	160	2.14667	9.98129E-001	9.08324E-005	0.00000E+000	9.06624E-005	5.39641E-002	9.98345E-001	3.57280E+000	9	...........
	161	2.16	9.99515E-001	9.08386E-005	0.00000E+000	9.07946E-005	5.39641E-002	9.99754E-001	3.57280E+000	9	...........
STARTTIMEOFFSET	QUANT	3657.124	Start Time Offset (s)
