EXPLAIN
TAG	PWR800_CHARGE
TITLE	LABEL	PWR Cyclic Charge Discharge (Cell) - Charge Step	Test &Identifier
DATE	LABEL	10-7-2017	Date
TIME	LABEL	16:05:10	Time
NOTES	NOTES	3	&Notes...
	supercap test cell
	0.9mg
	6M KOH
PSTAT	PSTAT	IFC5000-01520	Potentiostat
CAPACITY	QUANT	1.00000E-003	Capacity (A-hr)
CELLTYPE	SELECTOR	1	&Cell Type
WORKINGCONNECTION	SELECTOR	0	&Working Lead
MAXCHARGETIME	VARIABLEANDUNITS	1.00000E+002	s	1.00000E+002	second(s)	Max &Charge Time
CHARGECURRENT	QUANT	9.00000E-005	&Charge Current (A) 
VOLTAGEFINISH	TWOPARAM	F	1.00000E-003	3.60000E+003	&Voltage Finish	 I (A) < 	Max Time(s)
SAMPLETIME	QUANT	1.00000E-002	Sa&mple Period (s)
CHARGESTOPAT1	MULTIPARAM	4	1.00000E+000	Charge Stop At &1	Voltage > Limit	V
CHARGESTOPAT2	MULTIPARAM	0	0.00000E+000	Charge Stop At &2	None	N/A
AESBHCSELECTOR	TOGGLE	F	Save Both Half Cells
IRCOMP	TOGGLE	F	IR &Measure
EOC	QUANT	0	Open Circuit (V)
SEQUENCER	TOGGLE	TRUE	Run as Sequence
PSTATMODEL	IQUANT	53	Pstat Model
PSTATSECTION	LABEL	IFC5000-01520	Pstat Section
PSTATSERIALNO	LABEL	01520	Pstat Serial Number
CTRLMODE	IQUANT	0	Control Mode
ELECTROMETER	IQUANT	1	RE=0 or CS=1
IESTAB	IQUANT	0	I/E Stability
CASPEED	IQUANT	4	Control Amp Speed
CONVENTION	IQUANT	1	Current Convention
ICHRANGE	IQUANT	2	Ich Range
ICHRANGEMODE	TOGGLE	T	Ich Auto Range
ICHOFFSETENABLE	TOGGLE	F	Ich Offset Enable
ICHOFFSET	QUANT	0	Ich Offset (V)
ICHFILTER	IQUANT	1	Ich Filter
VCHRANGE	IQUANT	2	Vch Range
VCHRANGEMODE	TOGGLE	T	Vch Auto Range
VCHOFFSETENABLE	TOGGLE	F	Vch Offset Enable
VCHOFFSET	QUANT	0	Vch Offset (V)
VCHFILTER	IQUANT	1	Vch Filter
IERANGELOWERLIMIT	IQUANT	9	I/E Range Lower Limit
IERANGEMODE	TOGGLE	F	I/E AutoRange
IERANGE	IQUANT	9	I/E Range
ACHSELECT	IQUANT	1	Ach Select
ACHRANGE	IQUANT	2	Ach Range
ACHOFFSETENABLE	TOGGLE	F	Ach Offset Enable
ACHOFFSET	QUANT	0	Ach Offset (V)
ACHFILTER	IQUANT	1	Ach Filter
CABLEID	IQUANT	14	Cable ID
DCCALDATE	LABEL	5-7-2017	DC Calibration Date
ACCALDATE	LABEL	12/3/2015	AC Calibration Date
FRAMEWORKVERSION	QUANT	7.01	Framework Version
INSTRUMENTVERSION	LABEL	4.00	Instrument Version
CURVE	TABLE	164
	Pt	T	Vf	Im	Vu	Pwr	Sig	Ach	Temp	IERange	Over
	#	s	V	A	V	W	V	V	deg C	#	bits
	0	0.013333	2.68016E-001	9.08157E-005	0.00000E+000	2.43401E-005	5.39641E-002	2.68058E-001	3.57340E+000	9	...........
	1	0.026667	2.87763E-001	9.10158E-005	0.00000E+000	2.61910E-005	5.39641E-002	2.87808E-001	3.57340E+000	9	...........
	2	0.04	3.06288E-001	9.12273E-005	0.00000E+000	2.79418E-005	5.39641E-002	3.06331E-001	3.57340E+000	9	...........
	3	0.053333	3.23734E-001	9.07188E-005	0.00000E+000	2.93687E-005	5.39641E-002	3.23777E-001	3.57340E+000	9	...........
	4	0.066667	3.40232E-001	9.08480E-005	0.00000E+000	3.09094E-005	5.39641E-002	3.40275E-001	3.57340E+000	9	...........
	5	0.08	3.55895E-001	9.12085E-005	0.00000E+000	3.24606E-005	5.39641E-002	3.55939E-001	3.57340E+000	9	...........
	6	0.093333	3.70782E-001	9.12669E-005	0.00000E+000	3.38401E-005	5.39641E-002	3.70829E-001	3.57340E+000	9	...........
	7	0.106667	3.84951E-001	9.11127E-005	0.00000E+000	3.50739E-005	5.39641E-002	3.84996E-001	3.57340E+000	9	...........
	8	0.12	3.98477E-001	9.10626E-005	0.00000E+000	3.62864E-005	5.39641E-002	3.98525E-001	3.57340E+000	9	...........
	9	0.133333	4.11407E-001	9.11220E-005	0.00000E+000	3.74883E-005	5.39641E-002	4.11457E-001	3.57340E+000	9	...........
	10	0.146667	4.23779E-001	9.08084E-005	0.00000E+000	3.84827E-005	5.39641E-002	4.23838E-001	3.57340E+000	9	...........
	11	0.16	4.35655E-001	9.10501E-005	0.00000E+000	3.96664E-005	5.39641E-002	4.35717E-001	3.57340E+000	9	...........
	12	0.173333	4.47062E-001	9.09168E-005	0.00000E+000	4.06454E-005	5.39641E-002	4.47122E-001	3.57340E+000	9	...........
	13	0.186667	4.58022E-001	9.08293E-005	0.00000E+000	4.16018E-005	5.39641E-002	4.58090E-001	3.57340E+000	9	...........
	14	0.2	4.68603E-001	9.10241E-005	0.00000E+000	4.26542E-005	5.39641E-002	4.68664E-001	3.57340E+000	9	...........
	15	0.213333	4.78805E-001	9.09783E-005	0.00000E+000	4.35609E-005	5.39641E-002	4.78871E-001	3.57340E+000	9	...........
	16	0.226667	4.88653E-001	9.10147E-005	0.00000E+000	4.44746E-005	5.39641E-002	4.88718E-001	3.57340E+000	9	...........
	17	0.24	4.98170E-001	9.08168E-005	0.00000E+000	4.52422E-005	5.39641E-002	4.98238E-001	3.57302E+000	9	...........
	18	0.253333	5.07378E-001	9.10116E-005	0.00000E+000	4.61772E-005	5.39641E-002	5.07448E-001	3.57290E+000	9	...........
	19	0.266667	5.16295E-001	9.10939E-005	0.00000E+000	4.70313E-005	5.39641E-002	5.16367E-001	3.57290E+000	9	...........
	20	0.28	5.24937E-001	9.09939E-005	0.00000E+000	4.77660E-005	5.39641E-002	5.25015E-001	3.57290E+000	9	...........
	21	0.293333	5.33277E-001	9.09470E-005	0.00000E+000	4.84999E-005	5.39641E-002	5.33359E-001	3.57290E+000	9	...........
	22	0.306667	5.41394E-001	9.09678E-005	0.00000E+000	4.92494E-005	5.39641E-002	5.41530E-001	3.57290E+000	9	...........
	23	0.32	5.49317E-001	9.10158E-005	0.00000E+000	4.99965E-005	5.39641E-002	5.49460E-001	3.57290E+000	9	...........
	24	0.333333	5.57015E-001	9.07918E-005	0.00000E+000	5.05723E-005	5.39641E-002	5.57166E-001	3.57290E+000	9	...........
	25	0.346667	5.64571E-001	9.06844E-005	0.00000E+000	5.11978E-005	5.39641E-002	5.64711E-001	3.57290E+000	9	...........
	26	0.36	5.71908E-001	9.10283E-005	0.00000E+000	5.20598E-005	5.39641E-002	5.72017E-001	3.57290E+000	9	...........
	27	0.373333	5.79004E-001	9.10991E-005	0.00000E+000	5.27468E-005	5.39641E-002	5.79182E-001	3.57290E+000	9	...........
	28	0.386667	5.86003E-001	9.12408E-005	0.00000E+000	5.34674E-005	5.39641E-002	5.86112E-001	3.57290E+000	9	...........
	29	0.4	5.92823E-001	9.08741E-005	0.00000E+000	5.38722E-005	5.39641E-002	5.92952E-001	3.57290E+000	9	...........
	30	0.413333	5.99472E-001	9.10793E-005	0.00000E+000	5.45995E-005	5.39641E-002	5.99608E-001	3.57290E+000	9	...........
	31	0.426667	6.05953E-001	9.11033E-005	0.00000E+000	5.52043E-005	5.39641E-002	6.06100E-001	3.57290E+000	9	...........
	32	0.44	6.12355E-001	9.09585E-005	0.00000E+000	5.56989E-005	5.39641E-002	6.12483E-001	3.57290E+000	9	...........
	33	0.453333	6.18628E-001	9.07803E-005	0.00000E+000	5.61592E-005	5.39641E-002	6.18744E-001	3.57290E+000	9	...........
	34	0.466667	6.24722E-001	9.10762E-005	0.00000E+000	5.68973E-005	5.39641E-002	6.24821E-001	3.57290E+000	9	...........
	35	0.48	6.30692E-001	9.10085E-005	0.00000E+000	5.73983E-005	5.39641E-002	6.30797E-001	3.57290E+000	9	...........
	36	0.493333	6.36540E-001	9.09710E-005	0.00000E+000	5.79067E-005	5.39641E-002	6.36672E-001	3.57290E+000	9	...........
	37	0.506667	6.42313E-001	9.10501E-005	0.00000E+000	5.84827E-005	5.39641E-002	6.42429E-001	3.57290E+000	9	...........
	38	0.52	6.47918E-001	9.09793E-005	0.00000E+000	5.89472E-005	5.39641E-002	6.48054E-001	3.57290E+000	9	...........
	39	0.533333	6.53468E-001	9.09783E-005	0.00000E+000	5.94514E-005	5.39641E-002	6.53579E-001	3.57290E+000	9	...........
	40	0.546667	6.58886E-001	9.10397E-005	0.00000E+000	5.99848E-005	5.39641E-002	6.59006E-001	3.57290E+000	9	...........
	41	0.56	6.64189E-001	9.08491E-005	0.00000E+000	6.03410E-005	5.39641E-002	6.64327E-001	3.57290E+000	9	...........
	42	0.573333	6.69469E-001	9.08897E-005	0.00000E+000	6.08478E-005	5.39641E-002	6.69572E-001	3.57290E+000	9	...........
	43	0.586667	6.74602E-001	9.10626E-005	0.00000E+000	6.14310E-005	5.39641E-002	6.74708E-001	3.57290E+000	9	...........
	44	0.6	6.79654E-001	9.10137E-005	0.00000E+000	6.18578E-005	5.39641E-002	6.79779E-001	3.57290E+000	9	...........
	45	0.613333	6.84618E-001	9.10043E-005	0.00000E+000	6.23032E-005	5.39641E-002	6.84757E-001	3.57290E+000	9	...........
	46	0.626667	6.89519E-001	9.10376E-005	0.00000E+000	6.27722E-005	5.39641E-002	6.89647E-001	3.57290E+000	9	...........
	47	0.64	6.94349E-001	9.10918E-005	0.00000E+000	6.32495E-005	5.39641E-002	6.94475E-001	3.57290E+000	9	...........
	48	0.653333	6.99062E-001	9.10335E-005	0.00000E+000	6.36381E-005	5.39641E-002	6.99210E-001	3.57290E+000	9	...........
	49	0.666667	7.03710E-001	9.09522E-005	0.00000E+000	6.40040E-005	5.39641E-002	7.03837E-001	3.57290E+000	9	...........
	50	0.68	7.08282E-001	9.13783E-005	0.00000E+000	6.47216E-005	5.39641E-002	7.08456E-001	3.57290E+000	9	...........
	51	0.693333	7.12799E-001	9.11314E-005	0.00000E+000	6.49583E-005	5.39641E-002	7.12963E-001	3.57290E+000	9	...........
	52	0.706667	7.17294E-001	9.11502E-005	0.00000E+000	6.53815E-005	5.39641E-002	7.17454E-001	3.57290E+000	9	...........
	53	0.72	7.21727E-001	9.10460E-005	0.00000E+000	6.57103E-005	5.39641E-002	7.21874E-001	3.57290E+000	9	...........
	54	0.733333	7.26105E-001	9.09084E-005	0.00000E+000	6.60091E-005	5.39641E-002	7.26191E-001	3.57290E+000	9	...........
	55	0.746667	7.30410E-001	9.11616E-005	0.00000E+000	6.65854E-005	5.39641E-002	7.30523E-001	3.57290E+000	9	...........
	56	0.76	7.34618E-001	9.09220E-005	0.00000E+000	6.67929E-005	5.39641E-002	7.34719E-001	3.57290E+000	9	...........
	57	0.773333	7.38789E-001	9.10866E-005	0.00000E+000	6.72938E-005	5.39641E-002	7.38913E-001	3.57290E+000	9	...........
	58	0.786667	7.42960E-001	9.10033E-005	0.00000E+000	6.76118E-005	5.39641E-002	7.43068E-001	3.57290E+000	9	...........
	59	0.8	7.47010E-001	9.11106E-005	0.00000E+000	6.80605E-005	5.39641E-002	7.47110E-001	3.57290E+000	9	...........
	60	0.813333	7.51040E-001	9.10241E-005	0.00000E+000	6.83628E-005	5.39641E-002	7.51136E-001	3.57290E+000	9	...........
	61	0.826667	7.55019E-001	9.08939E-005	0.00000E+000	6.86266E-005	5.39641E-002	7.55116E-001	3.57290E+000	9	...........
	62	0.84	7.58929E-001	9.12544E-005	0.00000E+000	6.92556E-005	5.39641E-002	7.59036E-001	3.57290E+000	9	...........
	63	0.853333	7.62801E-001	9.09293E-005	0.00000E+000	6.93609E-005	5.39641E-002	7.62917E-001	3.57290E+000	9	...........
	64	0.866667	7.66625E-001	9.10241E-005	0.00000E+000	6.97813E-005	5.39641E-002	7.66752E-001	3.57290E+000	9	...........
	65	0.88	7.70407E-001	9.11356E-005	0.00000E+000	7.02115E-005	5.39641E-002	7.70551E-001	3.57290E+000	9	...........
	66	0.893333	7.74154E-001	9.09043E-005	0.00000E+000	7.03739E-005	5.39641E-002	7.74281E-001	3.57290E+000	9	...........
	67	0.906667	7.77843E-001	9.09678E-005	0.00000E+000	7.07587E-005	5.39641E-002	7.77984E-001	3.57290E+000	9	...........
	68	0.92	7.81553E-001	9.11335E-005	0.00000E+000	7.12256E-005	5.39641E-002	7.81657E-001	3.57290E+000	9	...........
	69	0.933333	7.85175E-001	9.10668E-005	0.00000E+000	7.15034E-005	5.39641E-002	7.85306E-001	3.57290E+000	9	...........
	70	0.946667	7.88768E-001	9.11470E-005	0.00000E+000	7.18939E-005	5.39641E-002	7.88900E-001	3.57290E+000	9	...........
	71	0.96	7.92337E-001	9.10272E-005	0.00000E+000	7.21242E-005	5.39641E-002	7.92464E-001	3.57290E+000	9	...........
	72	0.97333	7.95871E-001	9.09189E-005	0.00000E+000	7.23596E-005	5.39641E-002	7.95994E-001	3.57290E+000	9	...........
	73	0.98667	7.99341E-001	9.09887E-005	0.00000E+000	7.27309E-005	5.39641E-002	7.99460E-001	3.57290E+000	9	...........
	74	1	8.02748E-001	9.08095E-005	0.00000E+000	7.28971E-005	5.39641E-002	8.02878E-001	3.57290E+000	9	...........
	75	1.01333	8.06142E-001	9.08824E-005	0.00000E+000	7.32641E-005	5.39641E-002	8.06293E-001	3.57290E+000	9	...........
	76	1.02667	8.09487E-001	9.11512E-005	0.00000E+000	7.37857E-005	5.39641E-002	8.09637E-001	3.57290E+000	9	...........
	77	1.04	8.12786E-001	9.12012E-005	0.00000E+000	7.41270E-005	5.39641E-002	8.12950E-001	3.57290E+000	9	...........
	78	1.05333	8.16044E-001	9.08824E-005	0.00000E+000	7.41641E-005	5.39641E-002	8.16218E-001	3.57290E+000	9	...........
	79	1.06667	8.19329E-001	9.11668E-005	0.00000E+000	7.46957E-005	5.39641E-002	8.19496E-001	3.57290E+000	9	...........
	80	1.08	8.22552E-001	9.10272E-005	0.00000E+000	7.48746E-005	5.39641E-002	8.22716E-001	3.57290E+000	9	...........
	81	1.09333	8.25745E-001	9.11377E-005	0.00000E+000	7.52565E-005	5.39641E-002	8.25873E-001	3.57290E+000	9	...........
	82	1.10667	8.28877E-001	9.09199E-005	0.00000E+000	7.53614E-005	5.39641E-002	8.29007E-001	3.57290E+000	9	...........
	83	1.12	8.31999E-001	9.07803E-005	0.00000E+000	7.55291E-005	5.39641E-002	8.32148E-001	3.57290E+000	9	...........
	84	1.13333	8.35055E-001	9.10689E-005	0.00000E+000	7.60476E-005	5.39641E-002	8.35241E-001	3.57290E+000	9	...........
	85	1.14667	8.38089E-001	9.06646E-005	0.00000E+000	7.59850E-005	5.39641E-002	8.38267E-001	3.57290E+000	9	...........
	86	1.16	8.41114E-001	9.10158E-005	0.00000E+000	7.65546E-005	5.39641E-002	8.41254E-001	3.57290E+000	9	...........
	87	1.17333	8.44111E-001	9.10283E-005	0.00000E+000	7.68380E-005	5.39641E-002	8.44233E-001	3.57290E+000	9	...........
	88	1.18667	8.47083E-001	9.11679E-005	0.00000E+000	7.72268E-005	5.39641E-002	8.47198E-001	3.57290E+000	9	...........
	89	1.2	8.50022E-001	9.09470E-005	0.00000E+000	7.73069E-005	5.39641E-002	8.50161E-001	3.57290E+000	9	...........
	90	1.21333	8.52912E-001	9.11106E-005	0.00000E+000	7.77093E-005	5.39641E-002	8.53064E-001	3.57290E+000	9	...........
	91	1.22667	8.55770E-001	9.08720E-005	0.00000E+000	7.77655E-005	5.39641E-002	8.55957E-001	3.57290E+000	9	...........
	92	1.24	8.58604E-001	9.08303E-005	0.00000E+000	7.79872E-005	5.39641E-002	8.58819E-001	3.57313E+000	9	...........
	93	1.25333	8.61429E-001	9.10720E-005	0.00000E+000	7.84520E-005	5.39641E-002	8.61629E-001	3.57320E+000	9	...........
	94	1.26667	8.64213E-001	9.09470E-005	0.00000E+000	7.85976E-005	5.39641E-002	8.64399E-001	3.57320E+000	9	...........
	95	1.28	8.67002E-001	9.13648E-005	0.00000E+000	7.92135E-005	5.39641E-002	8.67167E-001	3.57320E+000	9	...........
	96	1.29333	8.69760E-001	9.08334E-005	0.00000E+000	7.90033E-005	5.39641E-002	8.69912E-001	3.57320E+000	9	...........
	97	1.30667	8.72476E-001	9.11043E-005	0.00000E+000	7.94864E-005	5.39641E-002	8.72619E-001	3.57320E+000	9	...........
	98	1.32	8.75121E-001	9.10710E-005	0.00000E+000	7.96981E-005	5.39641E-002	8.75289E-001	3.57320E+000	9	...........
	99	1.33333	8.77775E-001	9.09553E-005	0.00000E+000	7.98383E-005	5.39641E-002	8.77896E-001	3.57320E+000	9	...........
	100	1.34667	8.80354E-001	9.10314E-005	0.00000E+000	8.01399E-005	5.39641E-002	8.80498E-001	3.57320E+000	9	...........
	101	1.36	8.82982E-001	9.07188E-005	0.00000E+000	8.01031E-005	5.39641E-002	8.83125E-001	3.57320E+000	9	...........
	102	1.37333	8.85557E-001	9.08876E-005	0.00000E+000	8.04862E-005	5.39641E-002	8.85718E-001	3.57320E+000	9	...........
	103	1.38667	8.88100E-001	9.09032E-005	0.00000E+000	8.07311E-005	5.39641E-002	8.88292E-001	3.57320E+000	9	...........
	104	1.4	8.90639E-001	9.09678E-005	0.00000E+000	8.10195E-005	5.39641E-002	8.90809E-001	3.57320E+000	9	...........
	105	1.41333	8.93128E-001	9.11220E-005	0.00000E+000	8.13836E-005	5.39641E-002	8.93295E-001	3.57320E+000	9	...........
	106	1.42667	8.95611E-001	9.09324E-005	0.00000E+000	8.14401E-005	5.39641E-002	8.95802E-001	3.57320E+000	9	...........
	107	1.44	8.98072E-001	9.10397E-005	0.00000E+000	8.17602E-005	5.39641E-002	8.98222E-001	3.57320E+000	9	...........
	108	1.45333	9.00473E-001	9.10887E-005	0.00000E+000	8.20229E-005	5.39641E-002	9.00634E-001	3.57320E+000	9	...........
	109	1.46667	9.02859E-001	9.09960E-005	0.00000E+000	8.21565E-005	5.39641E-002	9.03034E-001	3.57320E+000	9	...........
	110	1.48	9.05215E-001	9.09981E-005	0.00000E+000	8.23728E-005	5.39641E-002	9.05395E-001	3.57320E+000	9	...........
	111	1.49333	9.07556E-001	9.09928E-005	0.00000E+000	8.25811E-005	5.39641E-002	9.07742E-001	3.57320E+000	9	...........
	112	1.50667	9.09890E-001	9.09720E-005	0.00000E+000	8.27745E-005	5.39641E-002	9.10064E-001	3.57320E+000	9	...........
	113	1.52	9.12160E-001	9.11366E-005	0.00000E+000	8.31312E-005	5.39641E-002	9.12353E-001	3.57320E+000	9	...........
	114	1.53333	9.14406E-001	9.11866E-005	0.00000E+000	8.33816E-005	5.39641E-002	9.14624E-001	3.57320E+000	9	...........
	115	1.54667	9.16668E-001	9.12356E-005	0.00000E+000	8.36327E-005	5.39641E-002	9.16868E-001	3.57320E+000	9	...........
	116	1.56	9.18837E-001	9.10126E-005	0.00000E+000	8.36258E-005	5.39641E-002	9.19047E-001	3.57320E+000	9	...........
	117	1.57333	9.21094E-001	9.09772E-005	0.00000E+000	8.37986E-005	5.39641E-002	9.21243E-001	3.57320E+000	9	...........
	118	1.58667	9.23273E-001	9.11689E-005	0.00000E+000	8.41738E-005	5.39641E-002	9.23418E-001	3.57320E+000	9	...........
	119	1.6	9.25426E-001	9.12992E-005	0.00000E+000	8.44906E-005	5.39641E-002	9.25554E-001	3.57320E+000	9	...........
	120	1.61333	9.27553E-001	9.10877E-005	0.00000E+000	8.44886E-005	5.39641E-002	9.27703E-001	3.57320E+000	9	...........
	121	1.62667	9.29664E-001	9.10449E-005	0.00000E+000	8.46412E-005	5.39641E-002	9.29813E-001	3.57320E+000	9	...........
	122	1.64	9.31738E-001	9.11231E-005	0.00000E+000	8.49029E-005	5.39641E-002	9.31895E-001	3.57320E+000	9	...........
	123	1.65333	9.33782E-001	9.09991E-005	0.00000E+000	8.49733E-005	5.39641E-002	9.33959E-001	3.57320E+000	9	...........
	124	1.66667	9.35784E-001	9.07563E-005	0.00000E+000	8.49283E-005	5.39641E-002	9.35989E-001	3.57320E+000	9	...........
	125	1.68	9.37813E-001	9.09043E-005	0.00000E+000	8.52512E-005	5.39641E-002	9.38014E-001	3.57320E+000	9	...........
	126	1.69333	9.39808E-001	9.09293E-005	0.00000E+000	8.54560E-005	5.39641E-002	9.40015E-001	3.57320E+000	9	...........
	127	1.70667	9.41777E-001	9.10356E-005	0.00000E+000	8.57352E-005	5.39641E-002	9.41954E-001	3.57320E+000	9	...........
	128	1.72	9.43686E-001	9.11429E-005	0.00000E+000	8.60103E-005	5.39641E-002	9.43876E-001	3.57320E+000	9	...........
	129	1.73333	9.45608E-001	9.10970E-005	0.00000E+000	8.61421E-005	5.39641E-002	9.45814E-001	3.57320E+000	9	...........
	130	1.74667	9.47547E-001	9.10887E-005	0.00000E+000	8.63108E-005	5.39641E-002	9.47730E-001	3.57320E+000	9	...........
	131	1.76	9.49435E-001	9.10991E-005	0.00000E+000	8.64927E-005	5.39641E-002	9.49601E-001	3.57320E+000	9	...........
	132	1.77333	9.51287E-001	9.11304E-005	0.00000E+000	8.66911E-005	5.39641E-002	9.51471E-001	3.57320E+000	9	...........
	133	1.78667	9.53146E-001	9.09887E-005	0.00000E+000	8.67255E-005	5.39641E-002	9.53303E-001	3.57320E+000	9	...........
	134	1.8	9.54963E-001	9.10470E-005	0.00000E+000	8.69466E-005	5.39641E-002	9.55118E-001	3.57320E+000	9	...........
	135	1.81333	9.56755E-001	9.10658E-005	0.00000E+000	8.71276E-005	5.39641E-002	9.56916E-001	3.57320E+000	9	...........
	136	1.82667	9.58532E-001	9.09126E-005	0.00000E+000	8.71427E-005	5.39641E-002	9.58703E-001	3.57320E+000	9	...........
	137	1.84	9.60300E-001	9.08668E-005	0.00000E+000	8.72594E-005	5.39641E-002	9.60483E-001	3.57320E+000	9	...........
	138	1.85333	9.62028E-001	9.08741E-005	0.00000E+000	8.74234E-005	5.39641E-002	9.62226E-001	3.57320E+000	9	...........
	139	1.86667	9.63713E-001	9.09553E-005	0.00000E+000	8.76548E-005	5.39641E-002	9.63911E-001	3.57320E+000	9	...........
	140	1.88	9.65423E-001	9.10231E-005	0.00000E+000	8.78758E-005	5.39641E-002	9.65621E-001	3.57320E+000	9	...........
	141	1.89333	9.67100E-001	9.10699E-005	0.00000E+000	8.80737E-005	5.39641E-002	9.67289E-001	3.57320E+000	9	...........
	142	1.90667	9.68717E-001	9.10147E-005	0.00000E+000	8.81675E-005	5.39641E-002	9.68930E-001	3.57320E+000	9	...........
	143	1.92	9.70359E-001	9.10658E-005	0.00000E+000	8.83665E-005	5.39641E-002	9.70600E-001	3.57320E+000	9	...........
	144	1.93333	9.72034E-001	9.10293E-005	0.00000E+000	8.84836E-005	5.39641E-002	9.72255E-001	3.57320E+000	9	...........
	145	1.94667	9.73728E-001	9.10106E-005	0.00000E+000	8.86195E-005	5.39641E-002	9.73915E-001	3.57320E+000	9	...........
	146	1.96	9.75334E-001	9.09980E-005	0.00000E+000	8.87535E-005	5.39641E-002	9.75514E-001	3.57320E+000	9	...........
	147	1.97333	9.76915E-001	9.10043E-005	0.00000E+000	8.89035E-005	5.39641E-002	9.77111E-001	3.57320E+000	9	...........
	148	1.98667	9.78507E-001	9.10606E-005	0.00000E+000	8.91034E-005	5.39641E-002	9.78681E-001	3.57320E+000	9	...........
	149	2	9.80027E-001	9.08459E-005	0.00000E+000	8.90315E-005	5.39641E-002	9.80218E-001	3.57320E+000	9	...........
	150	2.01333	9.81560E-001	9.10293E-005	0.00000E+000	8.93508E-005	5.39641E-002	9.81739E-001	3.57320E+000	9	...........
	151	2.02667	9.83048E-001	9.09835E-005	0.00000E+000	8.94412E-005	5.39641E-002	9.83244E-001	3.57320E+000	9	...........
	152	2.04	9.84547E-001	9.12491E-005	0.00000E+000	8.98390E-005	5.39641E-002	9.84776E-001	3.57320E+000	9	...........
	153	2.05333	9.86038E-001	9.10741E-005	0.00000E+000	8.98026E-005	5.39641E-002	9.86265E-001	3.57320E+000	9	...........
	154	2.06667	9.87496E-001	9.14336E-005	0.00000E+000	9.02903E-005	5.39641E-002	9.87736E-001	3.57320E+000	9	...........
	155	2.08	9.88976E-001	9.12273E-005	0.00000E+000	9.02215E-005	5.39641E-002	9.89187E-001	3.57320E+000	9	...........
	156	2.09333	9.90410E-001	9.10074E-005	0.00000E+000	9.01347E-005	5.39641E-002	9.90624E-001	3.57320E+000	9	...........
	157	2.10667	9.91827E-001	9.11658E-005	0.00000E+000	9.04207E-005	5.39641E-002	9.92055E-001	3.57320E+000	9	...........
	158	2.12	9.93247E-001	9.10001E-005	0.00000E+000	9.03856E-005	5.39641E-002	9.93490E-001	3.57320E+000	9	...........
	159	2.13333	9.94620E-001	9.08063E-005	0.00000E+000	9.03178E-005	5.39641E-002	9.94872E-001	3.57320E+000	9	...........
	160	2.14667	9.96023E-001	9.08501E-005	0.00000E+000	9.04888E-005	5.39641E-002	9.96232E-001	3.57320E+000	9	...........
	161	2.16	9.97373E-001	9.09084E-005	0.00000E+000	9.06696E-005	5.39641E-002	9.97616E-001	3.57320E+000	9	...........
	162	2.17333	9.98743E-001	9.08751E-005	0.00000E+000	9.07609E-005	5.39641E-002	9.98960E-001	3.57320E+000	9	...........
	163	2.18167	9.99822E-001	9.11843E-005	0.00000E+000	9.11681E-005	5.39641E-002	1.00004E+000	3.57320E+000	9	...........
STARTTIMEOFFSET	QUANT	3322.834	Start Time Offset (s)
