EXPLAIN
TAG	PWR800_CHARGE
TITLE	LABEL	PWR Cyclic Charge Discharge (Cell) - Charge Step	Test &Identifier
DATE	LABEL	10-7-2017	Date
TIME	LABEL	15:13:20	Time
NOTES	NOTES	3	&Notes...
	supercap test cell
	0.9mg
	6M KOH
PSTAT	PSTAT	IFC5000-01520	Potentiostat
CAPACITY	QUANT	1.00000E-003	Capacity (A-hr)
CELLTYPE	SELECTOR	1	&Cell Type
WORKINGCONNECTION	SELECTOR	0	&Working Lead
MAXCHARGETIME	VARIABLEANDUNITS	1.00000E+002	s	1.00000E+002	second(s)	Max &Charge Time
CHARGECURRENT	QUANT	9.00000E-005	&Charge Current (A) 
VOLTAGEFINISH	TWOPARAM	F	1.00000E-003	3.60000E+003	&Voltage Finish	 I (A) < 	Max Time(s)
SAMPLETIME	QUANT	1.00000E-002	Sa&mple Period (s)
CHARGESTOPAT1	MULTIPARAM	4	1.00000E+000	Charge Stop At &1	Voltage > Limit	V
CHARGESTOPAT2	MULTIPARAM	0	0.00000E+000	Charge Stop At &2	None	N/A
AESBHCSELECTOR	TOGGLE	F	Save Both Half Cells
IRCOMP	TOGGLE	F	IR &Measure
EOC	QUANT	0	Open Circuit (V)
SEQUENCER	TOGGLE	TRUE	Run as Sequence
PSTATMODEL	IQUANT	53	Pstat Model
PSTATSECTION	LABEL	IFC5000-01520	Pstat Section
PSTATSERIALNO	LABEL	01520	Pstat Serial Number
CTRLMODE	IQUANT	0	Control Mode
ELECTROMETER	IQUANT	1	RE=0 or CS=1
IESTAB	IQUANT	0	I/E Stability
CASPEED	IQUANT	4	Control Amp Speed
CONVENTION	IQUANT	1	Current Convention
ICHRANGE	IQUANT	2	Ich Range
ICHRANGEMODE	TOGGLE	T	Ich Auto Range
ICHOFFSETENABLE	TOGGLE	F	Ich Offset Enable
ICHOFFSET	QUANT	0	Ich Offset (V)
ICHFILTER	IQUANT	1	Ich Filter
VCHRANGE	IQUANT	2	Vch Range
VCHRANGEMODE	TOGGLE	T	Vch Auto Range
VCHOFFSETENABLE	TOGGLE	F	Vch Offset Enable
VCHOFFSET	QUANT	0	Vch Offset (V)
VCHFILTER	IQUANT	1	Vch Filter
IERANGELOWERLIMIT	IQUANT	9	I/E Range Lower Limit
IERANGEMODE	TOGGLE	F	I/E AutoRange
IERANGE	IQUANT	9	I/E Range
ACHSELECT	IQUANT	1	Ach Select
ACHRANGE	IQUANT	2	Ach Range
ACHOFFSETENABLE	TOGGLE	F	Ach Offset Enable
ACHOFFSET	QUANT	0	Ach Offset (V)
ACHFILTER	IQUANT	1	Ach Filter
CABLEID	IQUANT	14	Cable ID
DCCALDATE	LABEL	5-7-2017	DC Calibration Date
ACCALDATE	LABEL	12/3/2015	AC Calibration Date
FRAMEWORKVERSION	QUANT	7.01	Framework Version
INSTRUMENTVERSION	LABEL	4.00	Instrument Version
CURVE	TABLE	183
	Pt	T	Vf	Im	Vu	Pwr	Sig	Ach	Temp	IERange	Over
	#	s	V	A	V	W	V	V	deg C	#	bits
	0	0.013333	2.99829E-001	9.09751E-005	0.00000E+000	2.72770E-005	5.39641E-002	2.99873E-001	3.57280E+000	9	...........
	1	0.026667	3.18689E-001	9.10762E-005	0.00000E+000	2.90250E-005	5.39641E-002	3.18731E-001	3.57280E+000	9	...........
	2	0.04	3.36087E-001	9.12627E-005	0.00000E+000	3.06722E-005	5.39641E-002	3.36126E-001	3.57280E+000	9	...........
	3	0.053333	3.52290E-001	9.11304E-005	0.00000E+000	3.21043E-005	5.39641E-002	3.52330E-001	3.57280E+000	9	...........
	4	0.066667	3.67472E-001	9.10668E-005	0.00000E+000	3.34645E-005	5.39641E-002	3.67513E-001	3.57280E+000	9	...........
	5	0.08	3.81795E-001	9.14127E-005	0.00000E+000	3.49009E-005	5.39641E-002	3.81836E-001	3.57280E+000	9	...........
	6	0.093333	3.95350E-001	9.13242E-005	0.00000E+000	3.61050E-005	5.39641E-002	3.95396E-001	3.57280E+000	9	...........
	7	0.106667	4.08240E-001	9.08647E-005	0.00000E+000	3.70946E-005	5.39641E-002	4.08289E-001	3.57280E+000	9	...........
	8	0.12	4.20543E-001	9.10053E-005	0.00000E+000	3.82717E-005	5.39641E-002	4.20587E-001	3.57280E+000	9	...........
	9	0.133333	4.32318E-001	9.12116E-005	0.00000E+000	3.94324E-005	5.39641E-002	4.32372E-001	3.57280E+000	9	...........
	10	0.146667	4.43609E-001	9.11595E-005	0.00000E+000	4.04392E-005	5.39641E-002	4.43661E-001	3.57280E+000	9	...........
	11	0.16	4.54446E-001	9.10793E-005	0.00000E+000	4.13906E-005	5.39641E-002	4.54503E-001	3.57280E+000	9	...........
	12	0.173333	4.64884E-001	9.10564E-005	0.00000E+000	4.23306E-005	5.39641E-002	4.64936E-001	3.57280E+000	9	...........
	13	0.186667	4.74935E-001	9.11637E-005	0.00000E+000	4.32968E-005	5.39641E-002	4.74992E-001	3.57280E+000	9	...........
	14	0.2	4.84635E-001	9.13679E-005	0.00000E+000	4.42801E-005	5.39641E-002	4.84690E-001	3.57280E+000	9	...........
	15	0.213333	4.94020E-001	9.08939E-005	0.00000E+000	4.49034E-005	5.39641E-002	4.94073E-001	3.57280E+000	9	...........
	16	0.226667	5.03096E-001	9.10731E-005	0.00000E+000	4.58185E-005	5.39641E-002	5.03158E-001	3.57280E+000	9	...........
	17	0.24	5.11897E-001	9.10647E-005	0.00000E+000	4.66158E-005	5.39641E-002	5.11956E-001	3.57280E+000	9	...........
	18	0.253333	5.20426E-001	9.11200E-005	0.00000E+000	4.74212E-005	5.39641E-002	5.20485E-001	3.57280E+000	9	...........
	19	0.266667	5.28706E-001	9.11116E-005	0.00000E+000	4.81713E-005	5.39641E-002	5.28769E-001	3.57280E+000	9	...........
	20	0.28	5.36713E-001	9.09595E-005	0.00000E+000	4.88192E-005	5.39641E-002	5.36786E-001	3.57280E+000	9	...........
	21	0.293333	5.44533E-001	9.11752E-005	0.00000E+000	4.96479E-005	5.39641E-002	5.44639E-001	3.57280E+000	9	...........
	22	0.306667	5.52166E-001	9.12450E-005	0.00000E+000	5.03823E-005	5.39641E-002	5.52261E-001	3.57280E+000	9	...........
	23	0.32	5.59577E-001	9.11106E-005	0.00000E+000	5.09834E-005	5.39641E-002	5.59690E-001	3.57280E+000	9	...........
	24	0.333333	5.66846E-001	9.13065E-005	0.00000E+000	5.17567E-005	5.39641E-002	5.66966E-001	3.57280E+000	9	...........
	25	0.346667	5.73894E-001	9.10470E-005	0.00000E+000	5.22513E-005	5.39641E-002	5.73983E-001	3.57280E+000	9	...........
	26	0.36	5.80746E-001	9.10658E-005	0.00000E+000	5.28861E-005	5.39641E-002	5.80881E-001	3.57280E+000	9	...........
	27	0.373333	5.87472E-001	9.12564E-005	0.00000E+000	5.36106E-005	5.39641E-002	5.87601E-001	3.57280E+000	9	...........
	28	0.386667	5.94050E-001	9.11074E-005	0.00000E+000	5.41223E-005	5.39641E-002	5.94172E-001	3.57280E+000	9	...........
	29	0.4	6.00463E-001	9.10877E-005	0.00000E+000	5.46948E-005	5.39641E-002	6.00607E-001	3.57280E+000	9	...........
	30	0.413333	6.06747E-001	9.10824E-005	0.00000E+000	5.52640E-005	5.39641E-002	6.06882E-001	3.57280E+000	9	...........
	31	0.426667	6.12903E-001	9.11356E-005	0.00000E+000	5.58573E-005	5.39641E-002	6.13046E-001	3.57280E+000	9	...........
	32	0.44	6.18963E-001	9.08418E-005	0.00000E+000	5.62277E-005	5.39641E-002	6.19052E-001	3.57280E+000	9	...........
	33	0.453333	6.24847E-001	9.11325E-005	0.00000E+000	5.69439E-005	5.39641E-002	6.24943E-001	3.57280E+000	9	...........
	34	0.466667	6.30582E-001	9.12752E-005	0.00000E+000	5.75565E-005	5.39641E-002	6.30702E-001	3.57280E+000	9	...........
	35	0.48	6.36212E-001	9.12867E-005	0.00000E+000	5.80776E-005	5.39641E-002	6.36346E-001	3.57280E+000	9	...........
	36	0.493333	6.41791E-001	9.09710E-005	0.00000E+000	5.83844E-005	5.39641E-002	6.41906E-001	3.57280E+000	9	...........
	37	0.506667	6.47194E-001	9.10324E-005	0.00000E+000	5.89157E-005	5.39641E-002	6.47339E-001	3.57267E+000	9	...........
	38	0.52	6.52530E-001	9.07688E-005	0.00000E+000	5.92294E-005	5.39641E-002	6.52673E-001	3.57230E+000	9	...........
	39	0.533333	6.57751E-001	9.09835E-005	0.00000E+000	5.98444E-005	5.39641E-002	6.57885E-001	3.57230E+000	9	...........
	40	0.546667	6.62886E-001	9.11429E-005	0.00000E+000	6.04174E-005	5.39641E-002	6.63028E-001	3.57230E+000	9	...........
	41	0.56	6.67973E-001	9.12533E-005	0.00000E+000	6.09548E-005	5.39641E-002	6.68090E-001	3.57230E+000	9	...........
	42	0.573333	6.72924E-001	9.10845E-005	0.00000E+000	6.12930E-005	5.39641E-002	6.73034E-001	3.57230E+000	9	...........
	43	0.586667	6.77818E-001	9.12502E-005	0.00000E+000	6.18510E-005	5.39641E-002	6.77903E-001	3.57230E+000	9	...........
	44	0.6	6.82569E-001	9.12773E-005	0.00000E+000	6.23030E-005	5.39641E-002	6.82673E-001	3.57230E+000	9	...........
	45	0.613333	6.87275E-001	9.11627E-005	0.00000E+000	6.26539E-005	5.39641E-002	6.87369E-001	3.57230E+000	9	...........
	46	0.626667	6.91926E-001	9.12450E-005	0.00000E+000	6.31348E-005	5.39641E-002	6.92013E-001	3.57230E+000	9	...........
	47	0.64	6.96468E-001	9.10366E-005	0.00000E+000	6.34040E-005	5.39641E-002	6.96552E-001	3.57230E+000	9	...........
	48	0.653333	7.00962E-001	9.09407E-005	0.00000E+000	6.37460E-005	5.39641E-002	7.01032E-001	3.57230E+000	9	...........
	49	0.666667	7.05368E-001	9.10679E-005	0.00000E+000	6.42364E-005	5.39641E-002	7.05441E-001	3.57230E+000	9	...........
	50	0.68	7.09662E-001	9.12304E-005	0.00000E+000	6.47428E-005	5.39641E-002	7.09778E-001	3.57230E+000	9	...........
	51	0.693333	7.13905E-001	9.09241E-005	0.00000E+000	6.49112E-005	5.39641E-002	7.14024E-001	3.57230E+000	9	...........
	52	0.706667	7.18149E-001	9.10824E-005	0.00000E+000	6.54108E-005	5.39641E-002	7.18265E-001	3.57230E+000	9	...........
	53	0.72	7.22278E-001	9.13106E-005	0.00000E+000	6.59517E-005	5.39641E-002	7.22379E-001	3.57230E+000	9	...........
	54	0.733333	7.26344E-001	9.11543E-005	0.00000E+000	6.62094E-005	5.39641E-002	7.26429E-001	3.57230E+000	9	...........
	55	0.746667	7.30353E-001	9.12054E-005	0.00000E+000	6.66121E-005	5.39641E-002	7.30473E-001	3.57230E+000	9	...........
	56	0.76	7.34307E-001	9.10428E-005	0.00000E+000	6.68534E-005	5.39641E-002	7.34405E-001	3.57230E+000	9	...........
	57	0.773333	7.38192E-001	9.10679E-005	0.00000E+000	6.72255E-005	5.39641E-002	7.38308E-001	3.57230E+000	9	...........
	58	0.786667	7.42062E-001	9.10689E-005	0.00000E+000	6.75788E-005	5.39641E-002	7.42170E-001	3.57230E+000	9	...........
	59	0.8	7.45857E-001	9.10501E-005	0.00000E+000	6.79104E-005	5.39641E-002	7.45980E-001	3.57230E+000	9	...........
	60	0.813333	7.49580E-001	9.09803E-005	0.00000E+000	6.81970E-005	5.39641E-002	7.49681E-001	3.57230E+000	9	...........
	61	0.826667	7.53261E-001	9.11627E-005	0.00000E+000	6.86693E-005	5.39641E-002	7.53364E-001	3.57230E+000	9	...........
	62	0.84	7.56915E-001	9.10679E-005	0.00000E+000	6.89306E-005	5.39641E-002	7.57009E-001	3.57230E+000	9	...........
	63	0.853333	7.60485E-001	9.11074E-005	0.00000E+000	6.92858E-005	5.39641E-002	7.60567E-001	3.57230E+000	9	...........
	64	0.866667	7.64021E-001	9.10199E-005	0.00000E+000	6.95412E-005	5.39641E-002	7.64112E-001	3.57230E+000	9	...........
	65	0.88	7.67480E-001	9.10856E-005	0.00000E+000	6.99064E-005	5.39641E-002	7.67620E-001	3.57230E+000	9	...........
	66	0.893333	7.70938E-001	9.09658E-005	0.00000E+000	7.01289E-005	5.39641E-002	7.71056E-001	3.57230E+000	9	...........
	67	0.906667	7.74315E-001	9.11470E-005	0.00000E+000	7.05765E-005	5.39641E-002	7.74440E-001	3.57230E+000	9	...........
	68	0.92	7.77663E-001	9.10283E-005	0.00000E+000	7.07893E-005	5.39641E-002	7.77785E-001	3.57230E+000	9	...........
	69	0.933333	7.80993E-001	9.09116E-005	0.00000E+000	7.10013E-005	5.39641E-002	7.81121E-001	3.57230E+000	9	...........
	70	0.946667	7.84271E-001	9.11283E-005	0.00000E+000	7.14693E-005	5.39641E-002	7.84380E-001	3.57230E+000	9	...........
	71	0.96	7.87502E-001	9.10303E-005	0.00000E+000	7.16866E-005	5.39641E-002	7.87617E-001	3.57230E+000	9	...........
	72	0.97333	7.90697E-001	9.10939E-005	0.00000E+000	7.20277E-005	5.39641E-002	7.90817E-001	3.57230E+000	9	...........
	73	0.98667	7.93906E-001	9.12804E-005	0.00000E+000	7.24681E-005	5.39641E-002	7.94025E-001	3.57230E+000	9	...........
	74	1	7.97032E-001	9.10543E-005	0.00000E+000	7.25732E-005	5.39641E-002	7.97141E-001	3.57230E+000	9	...........
	75	1.01333	8.00122E-001	9.10845E-005	0.00000E+000	7.28787E-005	5.39641E-002	8.00230E-001	3.57230E+000	9	...........
	76	1.02667	8.03180E-001	9.12867E-005	0.00000E+000	7.33196E-005	5.39641E-002	8.03276E-001	3.57230E+000	9	...........
	77	1.04	8.06169E-001	9.11377E-005	0.00000E+000	7.34724E-005	5.39641E-002	8.06287E-001	3.57230E+000	9	...........
	78	1.05333	8.09137E-001	9.11731E-005	0.00000E+000	7.37715E-005	5.39641E-002	8.09237E-001	3.57230E+000	9	...........
	79	1.06667	8.12069E-001	9.11283E-005	0.00000E+000	7.40025E-005	5.39641E-002	8.12180E-001	3.57230E+000	9	...........
	80	1.08	8.14961E-001	9.08689E-005	0.00000E+000	7.40546E-005	5.39641E-002	8.15100E-001	3.57230E+000	9	...........
	81	1.09333	8.17834E-001	9.13825E-005	0.00000E+000	7.47357E-005	5.39641E-002	8.17971E-001	3.57230E+000	9	...........
	82	1.10667	8.20707E-001	9.13929E-005	0.00000E+000	7.50068E-005	5.39641E-002	8.20816E-001	3.57230E+000	9	...........
	83	1.12	8.23498E-001	9.10074E-005	0.00000E+000	7.49445E-005	5.39641E-002	8.23650E-001	3.57230E+000	9	...........
	84	1.13333	8.26289E-001	9.11262E-005	0.00000E+000	7.52966E-005	5.39641E-002	8.26425E-001	3.57230E+000	9	...........
	85	1.14667	8.29037E-001	9.12064E-005	0.00000E+000	7.56135E-005	5.39641E-002	8.29187E-001	3.57230E+000	9	...........
	86	1.16	8.31775E-001	9.11116E-005	0.00000E+000	7.57844E-005	5.39641E-002	8.31913E-001	3.57230E+000	9	...........
	87	1.17333	8.34442E-001	9.09324E-005	0.00000E+000	7.58779E-005	5.39641E-002	8.34620E-001	3.57230E+000	9	...........
	88	1.18667	8.37123E-001	9.12085E-005	0.00000E+000	7.63528E-005	5.39641E-002	8.37287E-001	3.57230E+000	9	...........
	89	1.2	8.39764E-001	9.11991E-005	0.00000E+000	7.65858E-005	5.39641E-002	8.39906E-001	3.57230E+000	9	...........
	90	1.21333	8.42350E-001	9.09324E-005	0.00000E+000	7.65969E-005	5.39641E-002	8.42501E-001	3.57230E+000	9	...........
	91	1.22667	8.44967E-001	9.14909E-005	0.00000E+000	7.73068E-005	5.39641E-002	8.45133E-001	3.57230E+000	9	...........
	92	1.24	8.47531E-001	9.12054E-005	0.00000E+000	7.72994E-005	5.39641E-002	8.47674E-001	3.57230E+000	9	...........
	93	1.25333	8.50054E-001	9.13648E-005	0.00000E+000	7.76650E-005	5.39641E-002	8.50207E-001	3.57230E+000	9	...........
	94	1.26667	8.52522E-001	9.11720E-005	0.00000E+000	7.77261E-005	5.39641E-002	8.52698E-001	3.57230E+000	9	...........
	95	1.28	8.55005E-001	9.13762E-005	0.00000E+000	7.81271E-005	5.39641E-002	8.55178E-001	3.57230E+000	9	...........
	96	1.29333	8.57440E-001	9.12585E-005	0.00000E+000	7.82487E-005	5.39641E-002	8.57608E-001	3.57230E+000	9	...........
	97	1.30667	8.59853E-001	9.14231E-005	0.00000E+000	7.86105E-005	5.39641E-002	8.60047E-001	3.57230E+000	9	...........
	98	1.32	8.62255E-001	9.13398E-005	0.00000E+000	7.87582E-005	5.39641E-002	8.62458E-001	3.57230E+000	9	...........
	99	1.33333	8.64638E-001	9.10428E-005	0.00000E+000	7.87191E-005	5.39641E-002	8.64803E-001	3.57230E+000	9	...........
	100	1.34667	8.66972E-001	9.10970E-005	0.00000E+000	7.89786E-005	5.39641E-002	8.67146E-001	3.57230E+000	9	...........
	101	1.36	8.69320E-001	9.12856E-005	0.00000E+000	7.93564E-005	5.39641E-002	8.69493E-001	3.57230E+000	9	...........
	102	1.37333	8.71637E-001	9.12075E-005	0.00000E+000	7.94998E-005	5.39641E-002	8.71808E-001	3.57230E+000	9	...........
	103	1.38667	8.73943E-001	9.11304E-005	0.00000E+000	7.96428E-005	5.39641E-002	8.74108E-001	3.57230E+000	9	...........
	104	1.4	8.76210E-001	9.11397E-005	0.00000E+000	7.98576E-005	5.39641E-002	8.76384E-001	3.57230E+000	9	...........
	105	1.41333	8.78470E-001	9.09251E-005	0.00000E+000	7.98750E-005	5.39641E-002	8.78619E-001	3.57230E+000	9	...........
	106	1.42667	8.80662E-001	9.09251E-005	0.00000E+000	8.00743E-005	5.39641E-002	8.80843E-001	3.57230E+000	9	...........
	107	1.44	8.82873E-001	9.10970E-005	0.00000E+000	8.04271E-005	5.39641E-002	8.83044E-001	3.57230E+000	9	...........
	108	1.45333	8.85061E-001	9.11710E-005	0.00000E+000	8.06919E-005	5.39641E-002	8.85228E-001	3.57230E+000	9	...........
	109	1.46667	8.87219E-001	9.11981E-005	0.00000E+000	8.09127E-005	5.39641E-002	8.87389E-001	3.57230E+000	9	...........
	110	1.48	8.89356E-001	9.12064E-005	0.00000E+000	8.11150E-005	5.39641E-002	8.89513E-001	3.57230E+000	9	...........
	111	1.49333	8.91452E-001	9.09855E-005	0.00000E+000	8.11093E-005	5.39641E-002	8.91637E-001	3.57230E+000	9	...........
	112	1.50667	8.93552E-001	9.13981E-005	0.00000E+000	8.16690E-005	5.39641E-002	8.93727E-001	3.57225E+000	9	...........
	113	1.52	8.95646E-001	9.09814E-005	0.00000E+000	8.14871E-005	5.39641E-002	8.95844E-001	3.57210E+000	9	...........
	114	1.53333	8.97738E-001	9.12127E-005	0.00000E+000	8.18851E-005	5.39641E-002	8.97897E-001	3.57210E+000	9	...........
	115	1.54667	8.99749E-001	9.11845E-005	0.00000E+000	8.20432E-005	5.39641E-002	8.99897E-001	3.57210E+000	9	...........
	116	1.56	9.01760E-001	9.10689E-005	0.00000E+000	8.21223E-005	5.39641E-002	9.01925E-001	3.57210E+000	9	...........
	117	1.57333	9.03763E-001	9.10908E-005	0.00000E+000	8.23245E-005	5.39641E-002	9.03932E-001	3.57210E+000	9	...........
	118	1.58667	9.05702E-001	9.13096E-005	0.00000E+000	8.26993E-005	5.39641E-002	9.05878E-001	3.57210E+000	9	...........
	119	1.6	9.07677E-001	9.12064E-005	0.00000E+000	8.27860E-005	5.39641E-002	9.07838E-001	3.57210E+000	9	...........
	120	1.61333	9.09598E-001	9.12293E-005	0.00000E+000	8.29820E-005	5.39641E-002	9.09775E-001	3.57210E+000	9	...........
	121	1.62667	9.11510E-001	9.13023E-005	0.00000E+000	8.32229E-005	5.39641E-002	9.11649E-001	3.57210E+000	9	...........
	122	1.64	9.13375E-001	9.11293E-005	0.00000E+000	8.32353E-005	5.39641E-002	9.13530E-001	3.57210E+000	9	...........
	123	1.65333	9.15280E-001	9.10960E-005	0.00000E+000	8.33783E-005	5.39641E-002	9.15437E-001	3.57210E+000	9	...........
	124	1.66667	9.17149E-001	9.09668E-005	0.00000E+000	8.34301E-005	5.39641E-002	9.17299E-001	3.57210E+000	9	...........
	125	1.68	9.18999E-001	9.12450E-005	0.00000E+000	8.38540E-005	5.39641E-002	9.19147E-001	3.57210E+000	9	...........
	126	1.69333	9.20899E-001	9.09241E-005	0.00000E+000	8.37319E-005	5.39641E-002	9.21019E-001	3.57210E+000	9	...........
	127	1.70667	9.22730E-001	9.10116E-005	0.00000E+000	8.39791E-005	5.39641E-002	9.22832E-001	3.57210E+000	9	...........
	128	1.72	9.24516E-001	9.11418E-005	0.00000E+000	8.42620E-005	5.39641E-002	9.24630E-001	3.57210E+000	9	...........
	129	1.73333	9.26294E-001	9.10887E-005	0.00000E+000	8.43749E-005	5.39641E-002	9.26432E-001	3.57210E+000	9	...........
	130	1.74667	9.28077E-001	9.14971E-005	0.00000E+000	8.49164E-005	5.39641E-002	9.28194E-001	3.57210E+000	9	...........
	131	1.76	9.29801E-001	9.11450E-005	0.00000E+000	8.47467E-005	5.39641E-002	9.29922E-001	3.57210E+000	9	...........
	132	1.77333	9.31546E-001	9.12814E-005	0.00000E+000	8.50328E-005	5.39641E-002	9.31645E-001	3.57210E+000	9	...........
	133	1.78667	9.33256E-001	9.11252E-005	0.00000E+000	8.50431E-005	5.39641E-002	9.33378E-001	3.57210E+000	9	...........
	134	1.8	9.34986E-001	9.14940E-005	0.00000E+000	8.55456E-005	5.39641E-002	9.35124E-001	3.57210E+000	9	...........
	135	1.81333	9.36678E-001	9.12064E-005	0.00000E+000	8.54310E-005	5.39641E-002	9.36818E-001	3.57210E+000	9	...........
	136	1.82667	9.38359E-001	9.12043E-005	0.00000E+000	8.55825E-005	5.39641E-002	9.38485E-001	3.57210E+000	9	...........
	137	1.84	9.39994E-001	9.12960E-005	0.00000E+000	8.58177E-005	5.39641E-002	9.40156E-001	3.57210E+000	9	...........
	138	1.85333	9.41654E-001	9.13710E-005	0.00000E+000	8.60400E-005	5.39641E-002	9.41768E-001	3.57210E+000	9	...........
	139	1.86667	9.43261E-001	9.11658E-005	0.00000E+000	8.59932E-005	5.39641E-002	9.43395E-001	3.57210E+000	9	...........
	140	1.88	9.44854E-001	9.11460E-005	0.00000E+000	8.61197E-005	5.39641E-002	9.45008E-001	3.57210E+000	9	...........
	141	1.89333	9.46449E-001	9.11762E-005	0.00000E+000	8.62936E-005	5.39641E-002	9.46619E-001	3.57210E+000	9	...........
	142	1.90667	9.48032E-001	9.10824E-005	0.00000E+000	8.63491E-005	5.39641E-002	9.48205E-001	3.57210E+000	9	...........
	143	1.92	9.49590E-001	9.12106E-005	0.00000E+000	8.66127E-005	5.39641E-002	9.49763E-001	3.57210E+000	9	...........
	144	1.93333	9.51122E-001	9.11450E-005	0.00000E+000	8.66899E-005	5.39641E-002	9.51309E-001	3.57210E+000	9	...........
	145	1.94667	9.52662E-001	9.10949E-005	0.00000E+000	8.67827E-005	5.39641E-002	9.52854E-001	3.57210E+000	9	...........
	146	1.96	9.54184E-001	9.12992E-005	0.00000E+000	8.71162E-005	5.39641E-002	9.54350E-001	3.57210E+000	9	...........
	147	1.97333	9.55687E-001	9.11762E-005	0.00000E+000	8.71359E-005	5.39641E-002	9.55870E-001	3.57210E+000	9	...........
	148	1.98667	9.57165E-001	9.09981E-005	0.00000E+000	8.71002E-005	5.39641E-002	9.57343E-001	3.57210E+000	9	...........
	149	2	9.58651E-001	9.14794E-005	0.00000E+000	8.76968E-005	5.39641E-002	9.58820E-001	3.57210E+000	9	...........
	150	2.01333	9.60129E-001	9.08366E-005	0.00000E+000	8.72148E-005	5.39641E-002	9.60303E-001	3.57210E+000	9	...........
	151	2.02667	9.61584E-001	9.11304E-005	0.00000E+000	8.76295E-005	5.39641E-002	9.61763E-001	3.57210E+000	9	...........
	152	2.04	9.63015E-001	9.12075E-005	0.00000E+000	8.78341E-005	5.39641E-002	9.63194E-001	3.57210E+000	9	...........
	153	2.05333	9.64439E-001	9.11106E-005	0.00000E+000	8.78706E-005	5.39641E-002	9.64623E-001	3.57210E+000	9	...........
	154	2.06667	9.65855E-001	9.10512E-005	0.00000E+000	8.79422E-005	5.39641E-002	9.66054E-001	3.57210E+000	9	...........
	155	2.08	9.67274E-001	9.12762E-005	0.00000E+000	8.82891E-005	5.39641E-002	9.67454E-001	3.57210E+000	9	...........
	156	2.09333	9.68662E-001	9.12033E-005	0.00000E+000	8.83452E-005	5.39641E-002	9.68836E-001	3.57210E+000	9	...........
	157	2.10667	9.70045E-001	9.11512E-005	0.00000E+000	8.84208E-005	5.39641E-002	9.70231E-001	3.57210E+000	9	...........
	158	2.12	9.71384E-001	9.10606E-005	0.00000E+000	8.84548E-005	5.39641E-002	9.71616E-001	3.57210E+000	9	...........
	159	2.13333	9.72778E-001	9.11689E-005	0.00000E+000	8.86872E-005	5.39641E-002	9.72951E-001	3.57210E+000	9	...........
	160	2.14667	9.74121E-001	9.09574E-005	0.00000E+000	8.86036E-005	5.39641E-002	9.74300E-001	3.57210E+000	9	...........
	161	2.16	9.75437E-001	9.13481E-005	0.00000E+000	8.91043E-005	5.39641E-002	9.75630E-001	3.57210E+000	9	...........
	162	2.17333	9.76742E-001	9.11835E-005	0.00000E+000	8.90628E-005	5.39641E-002	9.76940E-001	3.57210E+000	9	...........
	163	2.18667	9.78048E-001	9.08334E-005	0.00000E+000	8.88394E-005	5.39641E-002	9.78234E-001	3.57210E+000	9	...........
	164	2.2	9.79347E-001	9.09981E-005	0.00000E+000	8.91187E-005	5.39641E-002	9.79511E-001	3.57210E+000	9	...........
	165	2.21333	9.80610E-001	9.10272E-005	0.00000E+000	8.92622E-005	5.39641E-002	9.80785E-001	3.57210E+000	9	...........
	166	2.22667	9.81877E-001	9.08970E-005	0.00000E+000	8.92496E-005	5.39641E-002	9.82040E-001	3.57210E+000	9	...........
	167	2.24	9.83132E-001	9.10168E-005	0.00000E+000	8.94816E-005	5.39641E-002	9.83292E-001	3.57210E+000	9	...........
	168	2.25333	9.84352E-001	9.12710E-005	0.00000E+000	8.98428E-005	5.39641E-002	9.84544E-001	3.57210E+000	9	...........
	169	2.26667	9.85584E-001	9.11074E-005	0.00000E+000	8.97941E-005	5.39641E-002	9.85767E-001	3.57210E+000	9	...........
	170	2.28	9.86790E-001	9.11845E-005	0.00000E+000	8.99800E-005	5.39641E-002	9.86979E-001	3.57210E+000	9	...........
	171	2.29333	9.87992E-001	9.12512E-005	0.00000E+000	9.01555E-005	5.39641E-002	9.88195E-001	3.57210E+000	9	...........
	172	2.30667	9.89181E-001	9.11814E-005	0.00000E+000	9.01949E-005	5.39641E-002	9.89384E-001	3.57210E+000	9	...........
	173	2.32	9.90347E-001	9.10814E-005	0.00000E+000	9.02022E-005	5.39641E-002	9.90544E-001	3.57210E+000	9	...........
	174	2.33333	9.91498E-001	9.11231E-005	0.00000E+000	9.03483E-005	5.39641E-002	9.91711E-001	3.57210E+000	9	...........
	175	2.34667	9.92672E-001	9.12554E-005	0.00000E+000	9.05867E-005	5.39641E-002	9.92865E-001	3.57210E+000	9	...........
	176	2.36	9.93820E-001	9.11825E-005	0.00000E+000	9.06190E-005	5.39641E-002	9.94021E-001	3.57210E+000	9	...........
	177	2.37333	9.94992E-001	9.09845E-005	0.00000E+000	9.05288E-005	5.39641E-002	9.95169E-001	3.57210E+000	9	...........
	178	2.38667	9.96090E-001	9.10085E-005	0.00000E+000	9.06526E-005	5.39641E-002	9.96294E-001	3.57210E+000	9	...........
	179	2.4	9.97215E-001	9.13929E-005	0.00000E+000	9.11384E-005	5.39641E-002	9.97436E-001	3.57210E+000	9	...........
	180	2.41333	9.98357E-001	9.13596E-005	0.00000E+000	9.12094E-005	5.39641E-002	9.98547E-001	3.57210E+000	9	...........
	181	2.42667	9.99432E-001	9.11543E-005	0.00000E+000	9.11026E-005	5.39641E-002	9.99649E-001	3.57210E+000	9	...........
	182	2.42833	1.00007E+000	9.12710E-005	0.00000E+000	9.12770E-005	5.39641E-002	1.00027E+000	3.57210E+000	9	...........
STARTTIMEOFFSET	QUANT	716.1567	Start Time Offset (s)
