EXPLAIN
TAG	PWR800_CHARGE
TITLE	LABEL	PWR Cyclic Charge Discharge (Cell) - Charge Step	Test &Identifier
DATE	LABEL	10-7-2017	Date
TIME	LABEL	15:21:24	Time
NOTES	NOTES	3	&Notes...
	supercap test cell
	0.9mg
	6M KOH
PSTAT	PSTAT	IFC5000-01520	Potentiostat
CAPACITY	QUANT	1.00000E-003	Capacity (A-hr)
CELLTYPE	SELECTOR	1	&Cell Type
WORKINGCONNECTION	SELECTOR	0	&Working Lead
MAXCHARGETIME	VARIABLEANDUNITS	1.00000E+002	s	1.00000E+002	second(s)	Max &Charge Time
CHARGECURRENT	QUANT	9.00000E-005	&Charge Current (A) 
VOLTAGEFINISH	TWOPARAM	F	1.00000E-003	3.60000E+003	&Voltage Finish	 I (A) < 	Max Time(s)
SAMPLETIME	QUANT	1.00000E-002	Sa&mple Period (s)
CHARGESTOPAT1	MULTIPARAM	4	1.00000E+000	Charge Stop At &1	Voltage > Limit	V
CHARGESTOPAT2	MULTIPARAM	0	0.00000E+000	Charge Stop At &2	None	N/A
AESBHCSELECTOR	TOGGLE	F	Save Both Half Cells
IRCOMP	TOGGLE	F	IR &Measure
EOC	QUANT	0	Open Circuit (V)
SEQUENCER	TOGGLE	TRUE	Run as Sequence
PSTATMODEL	IQUANT	53	Pstat Model
PSTATSECTION	LABEL	IFC5000-01520	Pstat Section
PSTATSERIALNO	LABEL	01520	Pstat Serial Number
CTRLMODE	IQUANT	0	Control Mode
ELECTROMETER	IQUANT	1	RE=0 or CS=1
IESTAB	IQUANT	0	I/E Stability
CASPEED	IQUANT	4	Control Amp Speed
CONVENTION	IQUANT	1	Current Convention
ICHRANGE	IQUANT	2	Ich Range
ICHRANGEMODE	TOGGLE	T	Ich Auto Range
ICHOFFSETENABLE	TOGGLE	F	Ich Offset Enable
ICHOFFSET	QUANT	0	Ich Offset (V)
ICHFILTER	IQUANT	1	Ich Filter
VCHRANGE	IQUANT	2	Vch Range
VCHRANGEMODE	TOGGLE	T	Vch Auto Range
VCHOFFSETENABLE	TOGGLE	F	Vch Offset Enable
VCHOFFSET	QUANT	0	Vch Offset (V)
VCHFILTER	IQUANT	1	Vch Filter
IERANGELOWERLIMIT	IQUANT	9	I/E Range Lower Limit
IERANGEMODE	TOGGLE	F	I/E AutoRange
IERANGE	IQUANT	9	I/E Range
ACHSELECT	IQUANT	1	Ach Select
ACHRANGE	IQUANT	2	Ach Range
ACHOFFSETENABLE	TOGGLE	F	Ach Offset Enable
ACHOFFSET	QUANT	0	Ach Offset (V)
ACHFILTER	IQUANT	1	Ach Filter
CABLEID	IQUANT	14	Cable ID
DCCALDATE	LABEL	5-7-2017	DC Calibration Date
ACCALDATE	LABEL	12/3/2015	AC Calibration Date
FRAMEWORKVERSION	QUANT	7.01	Framework Version
INSTRUMENTVERSION	LABEL	4.00	Instrument Version
CURVE	TABLE	177
	Pt	T	Vf	Im	Vu	Pwr	Sig	Ach	Temp	IERange	Over
	#	s	V	A	V	W	V	V	deg C	#	bits
	0	0.013333	2.86082E-001	9.08459E-005	0.00000E+000	2.59894E-005	5.39641E-002	2.86133E-001	3.57240E+000	9	...........
	1	0.026667	3.05445E-001	9.10918E-005	0.00000E+000	2.78235E-005	5.39641E-002	3.05483E-001	3.57240E+000	9	...........
	2	0.04	3.23368E-001	9.08522E-005	0.00000E+000	2.93787E-005	5.39641E-002	3.23406E-001	3.57240E+000	9	...........
	3	0.053333	3.40094E-001	9.12085E-005	0.00000E+000	3.10194E-005	5.39641E-002	3.40138E-001	3.57240E+000	9	...........
	4	0.066667	3.55805E-001	9.10897E-005	0.00000E+000	3.24101E-005	5.39641E-002	3.55846E-001	3.57240E+000	9	...........
	5	0.08	3.70632E-001	9.08376E-005	0.00000E+000	3.36673E-005	5.39641E-002	3.70668E-001	3.57240E+000	9	...........
	6	0.093333	3.84678E-001	9.10001E-005	0.00000E+000	3.50057E-005	5.39641E-002	3.84720E-001	3.57240E+000	9	...........
	7	0.106667	3.98044E-001	9.08730E-005	0.00000E+000	3.61714E-005	5.39641E-002	3.98092E-001	3.57240E+000	9	...........
	8	0.12	4.10798E-001	9.09710E-005	0.00000E+000	3.73707E-005	5.39641E-002	4.10849E-001	3.57240E+000	9	...........
	9	0.133333	4.22989E-001	9.12262E-005	0.00000E+000	3.85877E-005	5.39641E-002	4.23042E-001	3.57240E+000	9	...........
	10	0.146667	4.34676E-001	9.07595E-005	0.00000E+000	3.94510E-005	5.39641E-002	4.34730E-001	3.57240E+000	9	...........
	11	0.16	4.45897E-001	9.09949E-005	0.00000E+000	4.05743E-005	5.39641E-002	4.45957E-001	3.57240E+000	9	...........
	12	0.173333	4.56694E-001	9.09637E-005	0.00000E+000	4.15426E-005	5.39641E-002	4.56750E-001	3.57240E+000	9	...........
	13	0.186667	4.67108E-001	9.12794E-005	0.00000E+000	4.26373E-005	5.39641E-002	4.67164E-001	3.57240E+000	9	...........
	14	0.2	4.77160E-001	9.10970E-005	0.00000E+000	4.34678E-005	5.39641E-002	4.77217E-001	3.57240E+000	9	...........
	15	0.213333	4.86863E-001	9.12033E-005	0.00000E+000	4.44035E-005	5.39641E-002	4.86918E-001	3.57240E+000	9	...........
	16	0.226667	4.96236E-001	9.08407E-005	0.00000E+000	4.50784E-005	5.39641E-002	4.96298E-001	3.57240E+000	9	...........
	17	0.24	5.05325E-001	9.11002E-005	0.00000E+000	4.60352E-005	5.39641E-002	5.05387E-001	3.57240E+000	9	...........
	18	0.253333	5.14144E-001	9.11616E-005	0.00000E+000	4.68702E-005	5.39641E-002	5.14206E-001	3.57240E+000	9	...........
	19	0.266667	5.22703E-001	9.12512E-005	0.00000E+000	4.76973E-005	5.39641E-002	5.22771E-001	3.57240E+000	9	...........
	20	0.28	5.31011E-001	9.08720E-005	0.00000E+000	4.82540E-005	5.39641E-002	5.31065E-001	3.57240E+000	9	...........
	21	0.293333	5.39042E-001	9.09366E-005	0.00000E+000	4.90186E-005	5.39641E-002	5.39154E-001	3.57240E+000	9	...........
	22	0.306667	5.46916E-001	9.10751E-005	0.00000E+000	4.98105E-005	5.39641E-002	5.47006E-001	3.57240E+000	9	...........
	23	0.32	5.54553E-001	9.11575E-005	0.00000E+000	5.05516E-005	5.39641E-002	5.54644E-001	3.57240E+000	9	...........
	24	0.333333	5.61989E-001	9.11648E-005	0.00000E+000	5.12336E-005	5.39641E-002	5.62107E-001	3.57240E+000	9	...........
	25	0.346667	5.69267E-001	9.11439E-005	0.00000E+000	5.18852E-005	5.39641E-002	5.69380E-001	3.57240E+000	9	...........
	26	0.36	5.76344E-001	9.07949E-005	0.00000E+000	5.23291E-005	5.39641E-002	5.76473E-001	3.57240E+000	9	...........
	27	0.373333	5.83246E-001	9.09209E-005	0.00000E+000	5.30293E-005	5.39641E-002	5.83360E-001	3.57240E+000	9	...........
	28	0.386667	5.90026E-001	9.10981E-005	0.00000E+000	5.37502E-005	5.39641E-002	5.90150E-001	3.57240E+000	9	...........
	29	0.4	5.96636E-001	9.11731E-005	0.00000E+000	5.43971E-005	5.39641E-002	5.96755E-001	3.57240E+000	9	...........
	30	0.413333	6.03053E-001	9.10887E-005	0.00000E+000	5.49313E-005	5.39641E-002	6.03205E-001	3.57240E+000	9	...........
	31	0.426667	6.09330E-001	9.08668E-005	0.00000E+000	5.53679E-005	5.39641E-002	6.09491E-001	3.57240E+000	9	...........
	32	0.44	6.15555E-001	9.09887E-005	0.00000E+000	5.60085E-005	5.39641E-002	6.15702E-001	3.57240E+000	9	...........
	33	0.453333	6.21606E-001	9.14409E-005	0.00000E+000	5.68402E-005	5.39641E-002	6.21698E-001	3.57240E+000	9	...........
	34	0.466667	6.27503E-001	9.11689E-005	0.00000E+000	5.72088E-005	5.39641E-002	6.27629E-001	3.57240E+000	9	...........
	35	0.48	6.33290E-001	9.09678E-005	0.00000E+000	5.76091E-005	5.39641E-002	6.33407E-001	3.57240E+000	9	...........
	36	0.493333	6.38993E-001	9.11929E-005	0.00000E+000	5.82716E-005	5.39641E-002	6.39106E-001	3.57240E+000	9	...........
	37	0.506667	6.44586E-001	9.11179E-005	0.00000E+000	5.87333E-005	5.39641E-002	6.44676E-001	3.57240E+000	9	...........
	38	0.52	6.50032E-001	9.09637E-005	0.00000E+000	5.91293E-005	5.39641E-002	6.50147E-001	3.57240E+000	9	...........
	39	0.533333	6.55400E-001	9.11179E-005	0.00000E+000	5.97186E-005	5.39641E-002	6.55501E-001	3.57240E+000	9	...........
	40	0.546667	6.60636E-001	9.11022E-005	0.00000E+000	6.01854E-005	5.39641E-002	6.60769E-001	3.57240E+000	9	...........
	41	0.56	6.65809E-001	9.11512E-005	0.00000E+000	6.06893E-005	5.39641E-002	6.65952E-001	3.57240E+000	9	...........
	42	0.573333	6.70911E-001	9.10845E-005	0.00000E+000	6.11096E-005	5.39641E-002	6.71024E-001	3.57240E+000	9	...........
	43	0.586667	6.75905E-001	9.11981E-005	0.00000E+000	6.16412E-005	5.39641E-002	6.76008E-001	3.57240E+000	9	...........
	44	0.6	6.80758E-001	9.10376E-005	0.00000E+000	6.19746E-005	5.39641E-002	6.80892E-001	3.57240E+000	9	...........
	45	0.613333	6.85552E-001	9.10053E-005	0.00000E+000	6.23889E-005	5.39641E-002	6.85695E-001	3.57240E+000	9	...........
	46	0.626667	6.90279E-001	9.11012E-005	0.00000E+000	6.28853E-005	5.39641E-002	6.90407E-001	3.57440E+000	9	...........
	47	0.64	6.94932E-001	9.09334E-005	0.00000E+000	6.31926E-005	5.39641E-002	6.95057E-001	3.57560E+000	9	...........
	48	0.653333	6.99516E-001	9.09553E-005	0.00000E+000	6.36247E-005	5.39641E-002	6.99661E-001	3.57560E+000	9	...........
	49	0.666667	7.04032E-001	9.10918E-005	0.00000E+000	6.41315E-005	5.39641E-002	7.04184E-001	3.57560E+000	9	...........
	50	0.68	7.08448E-001	9.10741E-005	0.00000E+000	6.45213E-005	5.39641E-002	7.08614E-001	3.57560E+000	9	...........
	51	0.693333	7.12815E-001	9.10085E-005	0.00000E+000	6.48722E-005	5.39641E-002	7.12948E-001	3.57560E+000	9	...........
	52	0.706667	7.17151E-001	9.10814E-005	0.00000E+000	6.53192E-005	5.39641E-002	7.17261E-001	3.57560E+000	9	...........
	53	0.72	7.21403E-001	9.11668E-005	0.00000E+000	6.57680E-005	5.39641E-002	7.21508E-001	3.57560E+000	9	...........
	54	0.733333	7.25581E-001	9.11064E-005	0.00000E+000	6.61051E-005	5.39641E-002	7.25668E-001	3.57560E+000	9	...........
	55	0.746667	7.29669E-001	9.10939E-005	0.00000E+000	6.64684E-005	5.39641E-002	7.29775E-001	3.57560E+000	9	...........
	56	0.76	7.33699E-001	9.10293E-005	0.00000E+000	6.67881E-005	5.39641E-002	7.33823E-001	3.57560E+000	9	...........
	57	0.773333	7.37693E-001	9.09730E-005	0.00000E+000	6.71102E-005	5.39641E-002	7.37795E-001	3.57560E+000	9	...........
	58	0.786667	7.41661E-001	9.08355E-005	0.00000E+000	6.73691E-005	5.39641E-002	7.41786E-001	3.57560E+000	9	...........
	59	0.8	7.45572E-001	9.11710E-005	0.00000E+000	6.79745E-005	5.39641E-002	7.45671E-001	3.57560E+000	9	...........
	60	0.813333	7.49425E-001	9.11564E-005	0.00000E+000	6.83149E-005	5.39641E-002	7.49525E-001	3.57560E+000	9	...........
	61	0.826667	7.53211E-001	9.11866E-005	0.00000E+000	6.86828E-005	5.39641E-002	7.53304E-001	3.57560E+000	9	...........
	62	0.84	7.56942E-001	9.10314E-005	0.00000E+000	6.89055E-005	5.39641E-002	7.57050E-001	3.57560E+000	9	...........
	63	0.853333	7.60604E-001	9.09105E-005	0.00000E+000	6.91469E-005	5.39641E-002	7.60700E-001	3.57560E+000	9	...........
	64	0.866667	7.64249E-001	9.12054E-005	0.00000E+000	6.97036E-005	5.39641E-002	7.64362E-001	3.57560E+000	9	...........
	65	0.88	7.67848E-001	9.10533E-005	0.00000E+000	6.99150E-005	5.39641E-002	7.67986E-001	3.57560E+000	9	...........
	66	0.893333	7.71412E-001	9.11272E-005	0.00000E+000	7.02966E-005	5.39641E-002	7.71535E-001	3.57560E+000	9	...........
	67	0.906667	7.74902E-001	9.10262E-005	0.00000E+000	7.05363E-005	5.39641E-002	7.75039E-001	3.57560E+000	9	...........
	68	0.92	7.78344E-001	9.09710E-005	0.00000E+000	7.08067E-005	5.39641E-002	7.78511E-001	3.57560E+000	9	...........
	69	0.933333	7.81770E-001	9.11231E-005	0.00000E+000	7.12373E-005	5.39641E-002	7.81927E-001	3.57560E+000	9	...........
	70	0.946667	7.85109E-001	9.11575E-005	0.00000E+000	7.15686E-005	5.39641E-002	7.85276E-001	3.57560E+000	9	...........
	71	0.96	7.88453E-001	9.09522E-005	0.00000E+000	7.17115E-005	5.39641E-002	7.88616E-001	3.57560E+000	9	...........
	72	0.97333	7.91770E-001	9.09783E-005	0.00000E+000	7.20339E-005	5.39641E-002	7.91931E-001	3.57560E+000	9	...........
	73	0.98667	7.95039E-001	9.08678E-005	0.00000E+000	7.22435E-005	5.39641E-002	7.95207E-001	3.57560E+000	9	...........
	74	1	7.98256E-001	9.11408E-005	0.00000E+000	7.27537E-005	5.39641E-002	7.98388E-001	3.57560E+000	9	...........
	75	1.01333	8.01415E-001	9.10658E-005	0.00000E+000	7.29815E-005	5.39641E-002	8.01548E-001	3.57560E+000	9	...........
	76	1.02667	8.04554E-001	9.08272E-005	0.00000E+000	7.30754E-005	5.39641E-002	8.04688E-001	3.57560E+000	9	...........
	77	1.04	8.07677E-001	9.10804E-005	0.00000E+000	7.35635E-005	5.39641E-002	8.07817E-001	3.57560E+000	9	...........
	78	1.05333	8.10736E-001	9.09970E-005	0.00000E+000	7.37746E-005	5.39641E-002	8.10896E-001	3.57560E+000	9	...........
	79	1.06667	8.13776E-001	9.12523E-005	0.00000E+000	7.42589E-005	5.39641E-002	8.13957E-001	3.57560E+000	9	...........
	80	1.08	8.16802E-001	9.10074E-005	0.00000E+000	7.43351E-005	5.39641E-002	8.16988E-001	3.57560E+000	9	...........
	81	1.09333	8.19824E-001	9.10960E-005	0.00000E+000	7.46827E-005	5.39641E-002	8.19973E-001	3.57560E+000	9	...........
	82	1.10667	8.22716E-001	9.11908E-005	0.00000E+000	7.50241E-005	5.39641E-002	8.22907E-001	3.57560E+000	9	...........
	83	1.12	8.25642E-001	9.11179E-005	0.00000E+000	7.52307E-005	5.39641E-002	8.25790E-001	3.57560E+000	9	...........
	84	1.13333	8.28488E-001	9.12231E-005	0.00000E+000	7.55772E-005	5.39641E-002	8.28646E-001	3.57560E+000	9	...........
	85	1.14667	8.31324E-001	9.10710E-005	0.00000E+000	7.57095E-005	5.39641E-002	8.31501E-001	3.57560E+000	9	...........
	86	1.16	8.34141E-001	9.09605E-005	0.00000E+000	7.58739E-005	5.39641E-002	8.34321E-001	3.57560E+000	9	...........
	87	1.17333	8.36940E-001	9.08397E-005	0.00000E+000	7.60273E-005	5.39641E-002	8.37110E-001	3.57560E+000	9	...........
	88	1.18667	8.39714E-001	9.11408E-005	0.00000E+000	7.65322E-005	5.39641E-002	8.39872E-001	3.57560E+000	9	...........
	89	1.2	8.42435E-001	9.09345E-005	0.00000E+000	7.66064E-005	5.39641E-002	8.42604E-001	3.57560E+000	9	...........
	90	1.21333	8.45190E-001	9.11585E-005	0.00000E+000	7.70463E-005	5.39641E-002	8.45368E-001	3.57560E+000	9	...........
	91	1.22667	8.47874E-001	9.08689E-005	0.00000E+000	7.70453E-005	5.39641E-002	8.48037E-001	3.57560E+000	9	...........
	92	1.24	8.50492E-001	9.12064E-005	0.00000E+000	7.75703E-005	5.39641E-002	8.50676E-001	3.57560E+000	9	...........
	93	1.25333	8.53119E-001	9.09835E-005	0.00000E+000	7.76197E-005	5.39641E-002	8.53293E-001	3.57560E+000	9	...........
	94	1.26667	8.55706E-001	9.12273E-005	0.00000E+000	7.80638E-005	5.39641E-002	8.55901E-001	3.57560E+000	9	...........
	95	1.28	8.58272E-001	9.07928E-005	0.00000E+000	7.79249E-005	5.39641E-002	8.58477E-001	3.57560E+000	9	...........
	96	1.29333	8.60835E-001	9.09668E-005	0.00000E+000	7.83074E-005	5.39641E-002	8.61016E-001	3.57560E+000	9	...........
	97	1.30667	8.63337E-001	9.11637E-005	0.00000E+000	7.87050E-005	5.39641E-002	8.63532E-001	3.57560E+000	9	...........
	98	1.32	8.65818E-001	9.12231E-005	0.00000E+000	7.89826E-005	5.39641E-002	8.66028E-001	3.57560E+000	9	...........
	99	1.33333	8.68302E-001	9.11002E-005	0.00000E+000	7.91025E-005	5.39641E-002	8.68514E-001	3.57560E+000	9	...........
	100	1.34667	8.70806E-001	9.12085E-005	0.00000E+000	7.94249E-005	5.39641E-002	8.70993E-001	3.57560E+000	9	...........
	101	1.36	8.73187E-001	9.10512E-005	0.00000E+000	7.95047E-005	5.39641E-002	8.73392E-001	3.57560E+000	9	...........
	102	1.37333	8.75609E-001	9.11095E-005	0.00000E+000	7.97763E-005	5.39641E-002	8.75789E-001	3.57560E+000	9	...........
	103	1.38667	8.77960E-001	9.10783E-005	0.00000E+000	7.99631E-005	5.39641E-002	8.78129E-001	3.57560E+000	9	...........
	104	1.4	8.80282E-001	9.10668E-005	0.00000E+000	8.01645E-005	5.39641E-002	8.80473E-001	3.57560E+000	9	...........
	105	1.41333	8.82609E-001	9.07897E-005	0.00000E+000	8.01318E-005	5.39641E-002	8.82784E-001	3.57560E+000	9	...........
	106	1.42667	8.84919E-001	9.10658E-005	0.00000E+000	8.05858E-005	5.39641E-002	8.85079E-001	3.57560E+000	9	...........
	107	1.44	8.87169E-001	9.09428E-005	0.00000E+000	8.06817E-005	5.39641E-002	8.87343E-001	3.57560E+000	9	...........
	108	1.45333	8.89415E-001	9.10897E-005	0.00000E+000	8.10166E-005	5.39641E-002	8.89584E-001	3.57560E+000	9	...........
	109	1.46667	8.91648E-001	9.10220E-005	0.00000E+000	8.11596E-005	5.39641E-002	8.91834E-001	3.57560E+000	9	...........
	110	1.48	8.93864E-001	9.10064E-005	0.00000E+000	8.13474E-005	5.39641E-002	8.94040E-001	3.57560E+000	9	...........
	111	1.49333	8.96059E-001	9.09439E-005	0.00000E+000	8.14911E-005	5.39641E-002	8.96263E-001	3.57560E+000	9	...........
	112	1.50667	8.98227E-001	9.09512E-005	0.00000E+000	8.16948E-005	5.39641E-002	8.98438E-001	3.57560E+000	9	...........
	113	1.52	9.00374E-001	9.11293E-005	0.00000E+000	8.20505E-005	5.39641E-002	9.00580E-001	3.57560E+000	9	...........
	114	1.53333	9.02501E-001	9.09095E-005	0.00000E+000	8.20459E-005	5.39641E-002	9.02705E-001	3.57560E+000	9	...........
	115	1.54667	9.04593E-001	9.12137E-005	0.00000E+000	8.25113E-005	5.39641E-002	9.04807E-001	3.57560E+000	9	...........
	116	1.56	9.06663E-001	9.12658E-005	0.00000E+000	8.27473E-005	5.39641E-002	9.06879E-001	3.57560E+000	9	...........
	117	1.57333	9.08746E-001	9.10564E-005	0.00000E+000	8.27471E-005	5.39641E-002	9.08927E-001	3.57560E+000	9	...........
	118	1.58667	9.10764E-001	9.10679E-005	0.00000E+000	8.29414E-005	5.39641E-002	9.10954E-001	3.57560E+000	9	...........
	119	1.6	9.12789E-001	9.09241E-005	0.00000E+000	8.29945E-005	5.39641E-002	9.12962E-001	3.57560E+000	9	...........
	120	1.61333	9.14788E-001	9.10210E-005	0.00000E+000	8.32649E-005	5.39641E-002	9.14982E-001	3.57560E+000	9	...........
	121	1.62667	9.16763E-001	9.09522E-005	0.00000E+000	8.33816E-005	5.39641E-002	9.16937E-001	3.57397E+000	9	...........
	122	1.64	9.18723E-001	9.09595E-005	0.00000E+000	8.35666E-005	5.39641E-002	9.18909E-001	3.57300E+000	9	...........
	123	1.65333	9.20722E-001	9.08699E-005	0.00000E+000	8.36659E-005	5.39641E-002	9.20843E-001	3.57300E+000	9	...........
	124	1.66667	9.22667E-001	9.10491E-005	0.00000E+000	8.40080E-005	5.39641E-002	9.22758E-001	3.57300E+000	9	...........
	125	1.68	9.24573E-001	9.08439E-005	0.00000E+000	8.39918E-005	5.39641E-002	9.24673E-001	3.57300E+000	9	...........
	126	1.69333	9.26425E-001	9.10418E-005	0.00000E+000	8.43434E-005	5.39641E-002	9.26573E-001	3.57300E+000	9	...........
	127	1.70667	9.28336E-001	9.11575E-005	0.00000E+000	8.46247E-005	5.39641E-002	9.28437E-001	3.57300E+000	9	...........
	128	1.72	9.30175E-001	9.12273E-005	0.00000E+000	8.48573E-005	5.39641E-002	9.30285E-001	3.57300E+000	9	...........
	129	1.73333	9.31988E-001	9.10439E-005	0.00000E+000	8.48519E-005	5.39641E-002	9.32114E-001	3.57300E+000	9	...........
	130	1.74667	9.33778E-001	9.10439E-005	0.00000E+000	8.50148E-005	5.39641E-002	9.33939E-001	3.57300E+000	9	...........
	131	1.76	9.35570E-001	9.10887E-005	0.00000E+000	8.52198E-005	5.39641E-002	9.35742E-001	3.57300E+000	9	...........
	132	1.77333	9.37348E-001	9.08970E-005	0.00000E+000	8.52021E-005	5.39641E-002	9.37519E-001	3.57300E+000	9	...........
	133	1.78667	9.39077E-001	9.11606E-005	0.00000E+000	8.56068E-005	5.39641E-002	9.39279E-001	3.57300E+000	9	...........
	134	1.8	9.40825E-001	9.13481E-005	0.00000E+000	8.59426E-005	5.39641E-002	9.41010E-001	3.57300E+000	9	...........
	135	1.81333	9.42517E-001	9.12304E-005	0.00000E+000	8.59862E-005	5.39641E-002	9.42713E-001	3.57300E+000	9	...........
	136	1.82667	9.44209E-001	9.10918E-005	0.00000E+000	8.60097E-005	5.39641E-002	9.44415E-001	3.57300E+000	9	...........
	137	1.84	9.45920E-001	9.12689E-005	0.00000E+000	8.63331E-005	5.39641E-002	9.46103E-001	3.57300E+000	9	...........
	138	1.85333	9.47650E-001	9.11064E-005	0.00000E+000	8.63370E-005	5.39641E-002	9.47814E-001	3.57300E+000	9	...........
	139	1.86667	9.49316E-001	9.09137E-005	0.00000E+000	8.63058E-005	5.39641E-002	9.49486E-001	3.57300E+000	9	...........
	140	1.88	9.50953E-001	9.09856E-005	0.00000E+000	8.65230E-005	5.39641E-002	9.51128E-001	3.57300E+000	9	...........
	141	1.89333	9.52573E-001	9.10512E-005	0.00000E+000	8.67329E-005	5.39641E-002	9.52754E-001	3.57300E+000	9	...........
	142	1.90667	9.54185E-001	9.11866E-005	0.00000E+000	8.70089E-005	5.39641E-002	9.54343E-001	3.57300E+000	9	...........
	143	1.92	9.55782E-001	9.09043E-005	0.00000E+000	8.68847E-005	5.39641E-002	9.55949E-001	3.57300E+000	9	...........
	144	1.93333	9.57343E-001	9.12939E-005	0.00000E+000	8.73996E-005	5.39641E-002	9.57533E-001	3.57300E+000	9	...........
	145	1.94667	9.58901E-001	9.11179E-005	0.00000E+000	8.73730E-005	5.39641E-002	9.59111E-001	3.57300E+000	9	...........
	146	1.96	9.60460E-001	9.10522E-005	0.00000E+000	8.74520E-005	5.39641E-002	9.60661E-001	3.57300E+000	9	...........
	147	1.97333	9.61975E-001	9.09731E-005	0.00000E+000	8.75138E-005	5.39641E-002	9.62170E-001	3.57300E+000	9	...........
	148	1.98667	9.63481E-001	9.11773E-005	0.00000E+000	8.78476E-005	5.39641E-002	9.63714E-001	3.57300E+000	9	...........
	149	2	9.64982E-001	9.10064E-005	0.00000E+000	8.78195E-005	5.39641E-002	9.65209E-001	3.57300E+000	9	...........
	150	2.01333	9.66487E-001	9.10574E-005	0.00000E+000	8.80059E-005	5.39641E-002	9.66711E-001	3.57300E+000	9	...........
	151	2.02667	9.67937E-001	9.11585E-005	0.00000E+000	8.82357E-005	5.39641E-002	9.68156E-001	3.57300E+000	9	...........
	152	2.04	9.69412E-001	9.10616E-005	0.00000E+000	8.82762E-005	5.39641E-002	9.69650E-001	3.57300E+000	9	...........
	153	2.05333	9.70864E-001	9.10970E-005	0.00000E+000	8.84428E-005	5.39641E-002	9.71085E-001	3.57300E+000	9	...........
	154	2.06667	9.72310E-001	9.09637E-005	0.00000E+000	8.84448E-005	5.39641E-002	9.72544E-001	3.57300E+000	9	...........
	155	2.08	9.73756E-001	9.10991E-005	0.00000E+000	8.87083E-005	5.39641E-002	9.73950E-001	3.57300E+000	9	...........
	156	2.09333	9.75161E-001	9.11325E-005	0.00000E+000	8.88688E-005	5.39641E-002	9.75344E-001	3.57300E+000	9	...........
	157	2.10667	9.76530E-001	9.09564E-005	0.00000E+000	8.88216E-005	5.39641E-002	9.76723E-001	3.57300E+000	9	...........
	158	2.12	9.77900E-001	9.11158E-005	0.00000E+000	8.91022E-005	5.39641E-002	9.78104E-001	3.57300E+000	9	...........
	159	2.13333	9.79257E-001	9.12929E-005	0.00000E+000	8.93992E-005	5.39641E-002	9.79449E-001	3.57300E+000	9	...........
	160	2.14667	9.80616E-001	9.12095E-005	0.00000E+000	8.94416E-005	5.39641E-002	9.80790E-001	3.57300E+000	9	...........
	161	2.16	9.81946E-001	9.09387E-005	0.00000E+000	8.92968E-005	5.39641E-002	9.82144E-001	3.57300E+000	9	...........
	162	2.17333	9.83259E-001	9.09918E-005	0.00000E+000	8.94685E-005	5.39641E-002	9.83472E-001	3.57300E+000	9	...........
	163	2.18667	9.84568E-001	9.11252E-005	0.00000E+000	8.97189E-005	5.39641E-002	9.84792E-001	3.57300E+000	9	...........
	164	2.2	9.85887E-001	9.08407E-005	0.00000E+000	8.95587E-005	5.39641E-002	9.86075E-001	3.57300E+000	9	...........
	165	2.21333	9.87173E-001	9.13012E-005	0.00000E+000	9.01301E-005	5.39641E-002	9.87355E-001	3.57300E+000	9	...........
	166	2.22667	9.88438E-001	9.10908E-005	0.00000E+000	9.00376E-005	5.39641E-002	9.88619E-001	3.57300E+000	9	...........
	167	2.24	9.89698E-001	9.12366E-005	0.00000E+000	9.02968E-005	5.39641E-002	9.89855E-001	3.57300E+000	9	...........
	168	2.25333	9.90930E-001	9.10804E-005	0.00000E+000	9.02543E-005	5.39641E-002	9.91090E-001	3.57300E+000	9	...........
	169	2.26667	9.92159E-001	9.09376E-005	0.00000E+000	9.02246E-005	5.39641E-002	9.92330E-001	3.57300E+000	9	...........
	170	2.28	9.93375E-001	9.10491E-005	0.00000E+000	9.04459E-005	5.39641E-002	9.93554E-001	3.57300E+000	9	...........
	171	2.29333	9.94598E-001	9.10949E-005	0.00000E+000	9.06028E-005	5.39641E-002	9.94764E-001	3.57300E+000	9	...........
	172	2.30667	9.95818E-001	9.11793E-005	0.00000E+000	9.07980E-005	5.39641E-002	9.96012E-001	3.57300E+000	9	...........
	173	2.32	9.97021E-001	9.10210E-005	0.00000E+000	9.07498E-005	5.39641E-002	9.97207E-001	3.57300E+000	9	...........
	174	2.33333	9.98233E-001	9.10939E-005	0.00000E+000	9.09329E-005	5.39641E-002	9.98411E-001	3.57300E+000	9	...........
	175	2.34667	9.99385E-001	9.12564E-005	0.00000E+000	9.12003E-005	5.39641E-002	9.99594E-001	3.57300E+000	9	...........
	176	2.34833	1.00010E+000	9.15044E-005	0.00000E+000	9.15132E-005	5.39641E-002	1.00024E+000	3.57300E+000	9	...........
STARTTIMEOFFSET	QUANT	1123.773	Start Time Offset (s)
