EXPLAIN
TAG	PWR800_CHARGE
TITLE	LABEL	PWR Cyclic Charge Discharge (Cell) - Charge Step	Test &Identifier
DATE	LABEL	10-7-2017	Date
TIME	LABEL	16:04:05	Time
NOTES	NOTES	3	&Notes...
	supercap test cell
	0.9mg
	6M KOH
PSTAT	PSTAT	IFC5000-01520	Potentiostat
CAPACITY	QUANT	1.00000E-003	Capacity (A-hr)
CELLTYPE	SELECTOR	1	&Cell Type
WORKINGCONNECTION	SELECTOR	0	&Working Lead
MAXCHARGETIME	VARIABLEANDUNITS	1.00000E+002	s	1.00000E+002	second(s)	Max &Charge Time
CHARGECURRENT	QUANT	9.00000E-005	&Charge Current (A) 
VOLTAGEFINISH	TWOPARAM	F	1.00000E-003	3.60000E+003	&Voltage Finish	 I (A) < 	Max Time(s)
SAMPLETIME	QUANT	1.00000E-002	Sa&mple Period (s)
CHARGESTOPAT1	MULTIPARAM	4	1.00000E+000	Charge Stop At &1	Voltage > Limit	V
CHARGESTOPAT2	MULTIPARAM	0	0.00000E+000	Charge Stop At &2	None	N/A
AESBHCSELECTOR	TOGGLE	F	Save Both Half Cells
IRCOMP	TOGGLE	F	IR &Measure
EOC	QUANT	0	Open Circuit (V)
SEQUENCER	TOGGLE	TRUE	Run as Sequence
PSTATMODEL	IQUANT	53	Pstat Model
PSTATSECTION	LABEL	IFC5000-01520	Pstat Section
PSTATSERIALNO	LABEL	01520	Pstat Serial Number
CTRLMODE	IQUANT	0	Control Mode
ELECTROMETER	IQUANT	1	RE=0 or CS=1
IESTAB	IQUANT	0	I/E Stability
CASPEED	IQUANT	4	Control Amp Speed
CONVENTION	IQUANT	1	Current Convention
ICHRANGE	IQUANT	2	Ich Range
ICHRANGEMODE	TOGGLE	T	Ich Auto Range
ICHOFFSETENABLE	TOGGLE	F	Ich Offset Enable
ICHOFFSET	QUANT	0	Ich Offset (V)
ICHFILTER	IQUANT	1	Ich Filter
VCHRANGE	IQUANT	2	Vch Range
VCHRANGEMODE	TOGGLE	T	Vch Auto Range
VCHOFFSETENABLE	TOGGLE	F	Vch Offset Enable
VCHOFFSET	QUANT	0	Vch Offset (V)
VCHFILTER	IQUANT	1	Vch Filter
IERANGELOWERLIMIT	IQUANT	9	I/E Range Lower Limit
IERANGEMODE	TOGGLE	F	I/E AutoRange
IERANGE	IQUANT	9	I/E Range
ACHSELECT	IQUANT	1	Ach Select
ACHRANGE	IQUANT	2	Ach Range
ACHOFFSETENABLE	TOGGLE	F	Ach Offset Enable
ACHOFFSET	QUANT	0	Ach Offset (V)
ACHFILTER	IQUANT	1	Ach Filter
CABLEID	IQUANT	14	Cable ID
DCCALDATE	LABEL	5-7-2017	DC Calibration Date
ACCALDATE	LABEL	12/3/2015	AC Calibration Date
FRAMEWORKVERSION	QUANT	7.01	Framework Version
INSTRUMENTVERSION	LABEL	4.00	Instrument Version
CURVE	TABLE	164
	Pt	T	Vf	Im	Vu	Pwr	Sig	Ach	Temp	IERange	Over
	#	s	V	A	V	W	V	V	deg C	#	bits
	0	0.013333	2.69102E-001	9.08907E-005	0.00000E+000	2.44588E-005	5.39641E-002	2.69152E-001	3.57310E+000	9	...........
	1	0.026667	2.88814E-001	9.11043E-005	0.00000E+000	2.63122E-005	5.39641E-002	2.88857E-001	3.57310E+000	9	...........
	2	0.04	3.07278E-001	9.10158E-005	0.00000E+000	2.79671E-005	5.39641E-002	3.07321E-001	3.57310E+000	9	...........
	3	0.053333	3.24671E-001	9.09658E-005	0.00000E+000	2.95340E-005	5.39641E-002	3.24710E-001	3.57310E+000	9	...........
	4	0.066667	3.41129E-001	9.10835E-005	0.00000E+000	3.10712E-005	5.39641E-002	3.41179E-001	3.57310E+000	9	...........
	5	0.08	3.56741E-001	9.08626E-005	0.00000E+000	3.24144E-005	5.39641E-002	3.56784E-001	3.57310E+000	9	...........
	6	0.093333	3.71563E-001	9.08449E-005	0.00000E+000	3.37546E-005	5.39641E-002	3.71612E-001	3.57310E+000	9	...........
	7	0.106667	3.85687E-001	9.09449E-005	0.00000E+000	3.50762E-005	5.39641E-002	3.85740E-001	3.57310E+000	9	...........
	8	0.12	3.99170E-001	9.08022E-005	0.00000E+000	3.62455E-005	5.39641E-002	3.99220E-001	3.57310E+000	9	...........
	9	0.133333	4.12050E-001	9.08439E-005	0.00000E+000	3.74322E-005	5.39641E-002	4.12105E-001	3.57310E+000	9	...........
	10	0.146667	4.24389E-001	9.09532E-005	0.00000E+000	3.85996E-005	5.39641E-002	4.24449E-001	3.57310E+000	9	...........
	11	0.16	4.36236E-001	9.08762E-005	0.00000E+000	3.96435E-005	5.39641E-002	4.36293E-001	3.57297E+000	9	...........
	12	0.173333	4.47591E-001	9.09355E-005	0.00000E+000	4.07020E-005	5.39641E-002	4.47653E-001	3.57290E+000	9	...........
	13	0.186667	4.58529E-001	9.11220E-005	0.00000E+000	4.17821E-005	5.39641E-002	4.58591E-001	3.57290E+000	9	...........
	14	0.2	4.69074E-001	9.09376E-005	0.00000E+000	4.26565E-005	5.39641E-002	4.69136E-001	3.57290E+000	9	...........
	15	0.213333	4.79253E-001	9.09855E-005	0.00000E+000	4.36051E-005	5.39641E-002	4.79322E-001	3.57290E+000	9	...........
	16	0.226667	4.89088E-001	9.11689E-005	0.00000E+000	4.45896E-005	5.39641E-002	4.89151E-001	3.57290E+000	9	...........
	17	0.24	4.98589E-001	9.11970E-005	0.00000E+000	4.54699E-005	5.39641E-002	4.98661E-001	3.57290E+000	9	...........
	18	0.253333	5.07786E-001	9.09960E-005	0.00000E+000	4.62064E-005	5.39641E-002	5.07860E-001	3.57290E+000	9	...........
	19	0.266667	5.16693E-001	9.07761E-005	0.00000E+000	4.69034E-005	5.39641E-002	5.16764E-001	3.57290E+000	9	...........
	20	0.28	5.25319E-001	9.06834E-005	0.00000E+000	4.76377E-005	5.39641E-002	5.25400E-001	3.57290E+000	9	...........
	21	0.293333	5.33640E-001	9.08876E-005	0.00000E+000	4.85013E-005	5.39641E-002	5.33729E-001	3.57290E+000	9	...........
	22	0.306667	5.41760E-001	9.09793E-005	0.00000E+000	4.92890E-005	5.39641E-002	5.41892E-001	3.57290E+000	9	...........
	23	0.32	5.49691E-001	9.11022E-005	0.00000E+000	5.00781E-005	5.39641E-002	5.49784E-001	3.57290E+000	9	...........
	24	0.333333	5.57391E-001	9.10491E-005	0.00000E+000	5.07500E-005	5.39641E-002	5.57497E-001	3.57290E+000	9	...........
	25	0.346667	5.64930E-001	9.08293E-005	0.00000E+000	5.13122E-005	5.39641E-002	5.65050E-001	3.57290E+000	9	...........
	26	0.36	5.72257E-001	9.09730E-005	0.00000E+000	5.20599E-005	5.39641E-002	5.72350E-001	3.57290E+000	9	...........
	27	0.373333	5.79369E-001	9.11043E-005	0.00000E+000	5.27830E-005	5.39641E-002	5.79496E-001	3.57290E+000	9	...........
	28	0.386667	5.86356E-001	9.09147E-005	0.00000E+000	5.33083E-005	5.39641E-002	5.86465E-001	3.57290E+000	9	...........
	29	0.4	5.93177E-001	9.09657E-005	0.00000E+000	5.39588E-005	5.39641E-002	5.93288E-001	3.57290E+000	9	...........
	30	0.413333	5.99799E-001	9.07876E-005	0.00000E+000	5.44543E-005	5.39641E-002	5.99911E-001	3.57290E+000	9	...........
	31	0.426667	6.06289E-001	9.08241E-005	0.00000E+000	5.50656E-005	5.39641E-002	6.06436E-001	3.57290E+000	9	...........
	32	0.44	6.12667E-001	9.08991E-005	0.00000E+000	5.56908E-005	5.39641E-002	6.12776E-001	3.57290E+000	9	...........
	33	0.453333	6.18916E-001	9.11283E-005	0.00000E+000	5.64008E-005	5.39641E-002	6.18999E-001	3.57290E+000	9	...........
	34	0.466667	6.24992E-001	9.12293E-005	0.00000E+000	5.70177E-005	5.39641E-002	6.25068E-001	3.57290E+000	9	...........
	35	0.48	6.30965E-001	9.10314E-005	0.00000E+000	5.74376E-005	5.39641E-002	6.31063E-001	3.57290E+000	9	...........
	36	0.493333	6.36788E-001	9.08053E-005	0.00000E+000	5.78237E-005	5.39641E-002	6.36889E-001	3.57290E+000	9	...........
	37	0.506667	6.42533E-001	9.09470E-005	0.00000E+000	5.84364E-005	5.39641E-002	6.42634E-001	3.57290E+000	9	...........
	38	0.52	6.48145E-001	9.09616E-005	0.00000E+000	5.89563E-005	5.39641E-002	6.48262E-001	3.57290E+000	9	...........
	39	0.533333	6.53686E-001	9.10022E-005	0.00000E+000	5.94868E-005	5.39641E-002	6.53777E-001	3.57290E+000	9	...........
	40	0.546667	6.59088E-001	9.10418E-005	0.00000E+000	6.00045E-005	5.39641E-002	6.59168E-001	3.57290E+000	9	...........
	41	0.56	6.64409E-001	9.09564E-005	0.00000E+000	6.04323E-005	5.39641E-002	6.64525E-001	3.57290E+000	9	...........
	42	0.573333	6.69680E-001	9.14544E-005	0.00000E+000	6.12452E-005	5.39641E-002	6.69787E-001	3.57290E+000	9	...........
	43	0.586667	6.74803E-001	9.11252E-005	0.00000E+000	6.14916E-005	5.39641E-002	6.74920E-001	3.57290E+000	9	...........
	44	0.6	6.79863E-001	9.08438E-005	0.00000E+000	6.17613E-005	5.39641E-002	6.79985E-001	3.57290E+000	9	...........
	45	0.613333	6.84843E-001	9.09970E-005	0.00000E+000	6.23187E-005	5.39641E-002	6.84963E-001	3.57290E+000	9	...........
	46	0.626667	6.89754E-001	9.11981E-005	0.00000E+000	6.29042E-005	5.39641E-002	6.89889E-001	3.57290E+000	9	...........
	47	0.64	6.94583E-001	9.10335E-005	0.00000E+000	6.32303E-005	5.39641E-002	6.94717E-001	3.57290E+000	9	...........
	48	0.653333	6.99315E-001	9.12085E-005	0.00000E+000	6.37835E-005	5.39641E-002	6.99469E-001	3.57290E+000	9	...........
	49	0.666667	7.04003E-001	9.09335E-005	0.00000E+000	6.40174E-005	5.39641E-002	7.04127E-001	3.57290E+000	9	...........
	50	0.68	7.08587E-001	9.10210E-005	0.00000E+000	6.44963E-005	5.39641E-002	7.08744E-001	3.57290E+000	9	...........
	51	0.693333	7.13115E-001	9.09491E-005	0.00000E+000	6.48572E-005	5.39641E-002	7.13241E-001	3.57290E+000	9	...........
	52	0.706667	7.17633E-001	9.10095E-005	0.00000E+000	6.53114E-005	5.39641E-002	7.17754E-001	3.57290E+000	9	...........
	53	0.72	7.22055E-001	9.12366E-005	0.00000E+000	6.58778E-005	5.39641E-002	7.22145E-001	3.57290E+000	9	...........
	54	0.733333	7.26407E-001	9.12314E-005	0.00000E+000	6.62712E-005	5.39641E-002	7.26508E-001	3.57290E+000	9	...........
	55	0.746667	7.30705E-001	9.09032E-005	0.00000E+000	6.64235E-005	5.39641E-002	7.30810E-001	3.57290E+000	9	...........
	56	0.76	7.34916E-001	9.09772E-005	0.00000E+000	6.68606E-005	5.39641E-002	7.35049E-001	3.57290E+000	9	...........
	57	0.773333	7.39090E-001	9.11960E-005	0.00000E+000	6.74020E-005	5.39641E-002	7.39208E-001	3.57290E+000	9	...........
	58	0.786667	7.43219E-001	9.10095E-005	0.00000E+000	6.76400E-005	5.39641E-002	7.43335E-001	3.57290E+000	9	...........
	59	0.8	7.47280E-001	9.10501E-005	0.00000E+000	6.80400E-005	5.39641E-002	7.47398E-001	3.57290E+000	9	...........
	60	0.813333	7.51309E-001	9.11554E-005	0.00000E+000	6.84859E-005	5.39641E-002	7.51426E-001	3.57290E+000	9	...........
	61	0.826667	7.55312E-001	9.09658E-005	0.00000E+000	6.87075E-005	5.39641E-002	7.55429E-001	3.57290E+000	9	...........
	62	0.84	7.59236E-001	9.11345E-005	0.00000E+000	6.91926E-005	5.39641E-002	7.59337E-001	3.57290E+000	9	...........
	63	0.853333	7.63111E-001	9.09616E-005	0.00000E+000	6.94138E-005	5.39641E-002	7.63231E-001	3.57290E+000	9	...........
	64	0.866667	7.66906E-001	9.10210E-005	0.00000E+000	6.98045E-005	5.39641E-002	7.67076E-001	3.57290E+000	9	...........
	65	0.88	7.70721E-001	9.09157E-005	0.00000E+000	7.00707E-005	5.39641E-002	7.70859E-001	3.57290E+000	9	...........
	66	0.893333	7.74441E-001	9.12148E-005	0.00000E+000	7.06405E-005	5.39641E-002	7.74574E-001	3.57290E+000	9	...........
	67	0.906667	7.78094E-001	9.10220E-005	0.00000E+000	7.08237E-005	5.39641E-002	7.78250E-001	3.57290E+000	9	...........
	68	0.92	7.81773E-001	9.10272E-005	0.00000E+000	7.11626E-005	5.39641E-002	7.81912E-001	3.57290E+000	9	...........
	69	0.933333	7.85374E-001	9.10303E-005	0.00000E+000	7.14929E-005	5.39641E-002	7.85504E-001	3.57290E+000	9	...........
	70	0.946667	7.88931E-001	9.10616E-005	0.00000E+000	7.18413E-005	5.39641E-002	7.89087E-001	3.57290E+000	9	...........
	71	0.96	7.92489E-001	9.09022E-005	0.00000E+000	7.20390E-005	5.39641E-002	7.92635E-001	3.57290E+000	9	...........
	72	0.97333	7.96009E-001	9.08699E-005	0.00000E+000	7.23333E-005	5.39641E-002	7.96167E-001	3.57290E+000	9	...........
	73	0.98667	7.99467E-001	9.11106E-005	0.00000E+000	7.28399E-005	5.39641E-002	7.99589E-001	3.57290E+000	9	...........
	74	1	8.02874E-001	9.09512E-005	0.00000E+000	7.30224E-005	5.39641E-002	8.03022E-001	3.57290E+000	9	...........
	75	1.01333	8.06243E-001	9.11929E-005	0.00000E+000	7.35236E-005	5.39641E-002	8.06407E-001	3.57290E+000	9	...........
	76	1.02667	8.09574E-001	9.09970E-005	0.00000E+000	7.36688E-005	5.39641E-002	8.09741E-001	3.57290E+000	9	...........
	77	1.04	8.12882E-001	9.09387E-005	0.00000E+000	7.39224E-005	5.39641E-002	8.13050E-001	3.57290E+000	9	...........
	78	1.05333	8.16148E-001	9.09480E-005	0.00000E+000	7.42271E-005	5.39641E-002	8.16332E-001	3.57290E+000	9	...........
	79	1.06667	8.19438E-001	9.08699E-005	0.00000E+000	7.44622E-005	5.39641E-002	8.19593E-001	3.57290E+000	9	...........
	80	1.08	8.22660E-001	9.09574E-005	0.00000E+000	7.48271E-005	5.39641E-002	8.22793E-001	3.57290E+000	9	...........
	81	1.09333	8.25832E-001	9.10595E-005	0.00000E+000	7.51998E-005	5.39641E-002	8.25983E-001	3.57290E+000	9	...........
	82	1.10667	8.28952E-001	9.11033E-005	0.00000E+000	7.55202E-005	5.39641E-002	8.29092E-001	3.57290E+000	9	...........
	83	1.12	8.32079E-001	9.11210E-005	0.00000E+000	7.58199E-005	5.39641E-002	8.32237E-001	3.57290E+000	9	...........
	84	1.13333	8.35143E-001	9.10418E-005	0.00000E+000	7.60329E-005	5.39641E-002	8.35305E-001	3.57290E+000	9	...........
	85	1.14667	8.38192E-001	9.09772E-005	0.00000E+000	7.62564E-005	5.39641E-002	8.38351E-001	3.57290E+000	9	...........
	86	1.16	8.41225E-001	9.09939E-005	0.00000E+000	7.65463E-005	5.39641E-002	8.41370E-001	3.57302E+000	9	...........
	87	1.17333	8.44230E-001	9.10939E-005	0.00000E+000	7.69042E-005	5.39641E-002	8.44417E-001	3.57310E+000	9	...........
	88	1.18667	8.47212E-001	9.11835E-005	0.00000E+000	7.72518E-005	5.39641E-002	8.47394E-001	3.57310E+000	9	...........
	89	1.2	8.50142E-001	9.07824E-005	0.00000E+000	7.71779E-005	5.39641E-002	8.50322E-001	3.57310E+000	9	...........
	90	1.21333	8.53035E-001	9.10543E-005	0.00000E+000	7.76726E-005	5.39641E-002	8.53214E-001	3.57310E+000	9	...........
	91	1.22667	8.55893E-001	9.08293E-005	0.00000E+000	7.77401E-005	5.39641E-002	8.56096E-001	3.57310E+000	9	...........
	92	1.24	8.58703E-001	9.09928E-005	0.00000E+000	7.81358E-005	5.39641E-002	8.58926E-001	3.57310E+000	9	...........
	93	1.25333	8.61555E-001	9.12512E-005	0.00000E+000	7.86179E-005	5.39641E-002	8.61716E-001	3.57310E+000	9	...........
	94	1.26667	8.64323E-001	9.10231E-005	0.00000E+000	7.86734E-005	5.39641E-002	8.64507E-001	3.57310E+000	9	...........
	95	1.28	8.67096E-001	9.10533E-005	0.00000E+000	7.89519E-005	5.39641E-002	8.67277E-001	3.57310E+000	9	...........
	96	1.29333	8.69853E-001	9.11856E-005	0.00000E+000	7.93181E-005	5.39641E-002	8.70029E-001	3.57310E+000	9	...........
	97	1.30667	8.72540E-001	9.09793E-005	0.00000E+000	7.93831E-005	5.39641E-002	8.72714E-001	3.57310E+000	9	...........
	98	1.32	8.75200E-001	9.09845E-005	0.00000E+000	7.96296E-005	5.39641E-002	8.75399E-001	3.57310E+000	9	...........
	99	1.33333	8.77846E-001	9.11970E-005	0.00000E+000	8.00570E-005	5.39641E-002	8.78042E-001	3.57310E+000	9	...........
	100	1.34667	8.80449E-001	9.08699E-005	0.00000E+000	8.00063E-005	5.39641E-002	8.80657E-001	3.57310E+000	9	...........
	101	1.36	8.83052E-001	9.09668E-005	0.00000E+000	8.03284E-005	5.39641E-002	8.83265E-001	3.57310E+000	9	...........
	102	1.37333	8.85615E-001	9.10345E-005	0.00000E+000	8.06215E-005	5.39641E-002	8.85805E-001	3.57310E+000	9	...........
	103	1.38667	8.88127E-001	9.09168E-005	0.00000E+000	8.07457E-005	5.39641E-002	8.88342E-001	3.57310E+000	9	...........
	104	1.4	8.90631E-001	9.10199E-005	0.00000E+000	8.10651E-005	5.39641E-002	8.90782E-001	3.57310E+000	9	...........
	105	1.41333	8.93103E-001	9.11074E-005	0.00000E+000	8.13683E-005	5.39641E-002	8.93230E-001	3.57310E+000	9	...........
	106	1.42667	8.95567E-001	9.11929E-005	0.00000E+000	8.16694E-005	5.39641E-002	8.95738E-001	3.57310E+000	9	...........
	107	1.44	8.98011E-001	9.10710E-005	0.00000E+000	8.17827E-005	5.39641E-002	8.98165E-001	3.57310E+000	9	...........
	108	1.45333	9.00405E-001	9.07126E-005	0.00000E+000	8.16781E-005	5.39641E-002	9.00590E-001	3.57310E+000	9	...........
	109	1.46667	9.02803E-001	9.08928E-005	0.00000E+000	8.20583E-005	5.39641E-002	9.02987E-001	3.57310E+000	9	...........
	110	1.48	9.05163E-001	9.11137E-005	0.00000E+000	8.24728E-005	5.39641E-002	9.05350E-001	3.57310E+000	9	...........
	111	1.49333	9.07519E-001	9.09064E-005	0.00000E+000	8.24993E-005	5.39641E-002	9.07712E-001	3.57310E+000	9	...........
	112	1.50667	9.09855E-001	9.11991E-005	0.00000E+000	8.29780E-005	5.39641E-002	9.10034E-001	3.57310E+000	9	...........
	113	1.52	9.12147E-001	9.10897E-005	0.00000E+000	8.30873E-005	5.39641E-002	9.12328E-001	3.57310E+000	9	...........
	114	1.53333	9.14413E-001	9.07959E-005	0.00000E+000	8.30250E-005	5.39641E-002	9.14582E-001	3.57310E+000	9	...........
	115	1.54667	9.16656E-001	9.10460E-005	0.00000E+000	8.34579E-005	5.39641E-002	9.16832E-001	3.57310E+000	9	...........
	116	1.56	9.18851E-001	9.09251E-005	0.00000E+000	8.35466E-005	5.39641E-002	9.19048E-001	3.57310E+000	9	...........
	117	1.57333	9.21113E-001	9.10137E-005	0.00000E+000	8.38339E-005	5.39641E-002	9.21262E-001	3.57310E+000	9	...........
	118	1.58667	9.23286E-001	9.09637E-005	0.00000E+000	8.39855E-005	5.39641E-002	9.23448E-001	3.57310E+000	9	...........
	119	1.6	9.25425E-001	9.11012E-005	0.00000E+000	8.43073E-005	5.39641E-002	9.25564E-001	3.57310E+000	9	...........
	120	1.61333	9.27563E-001	9.10637E-005	0.00000E+000	8.44673E-005	5.39641E-002	9.27722E-001	3.57310E+000	9	...........
	121	1.62667	9.29659E-001	9.08668E-005	0.00000E+000	8.44751E-005	5.39641E-002	9.29820E-001	3.57310E+000	9	...........
	122	1.64	9.31737E-001	9.08637E-005	0.00000E+000	8.46610E-005	5.39641E-002	9.31912E-001	3.57310E+000	9	...........
	123	1.65333	9.33825E-001	9.09428E-005	0.00000E+000	8.49247E-005	5.39641E-002	9.33985E-001	3.57310E+000	9	...........
	124	1.66667	9.35862E-001	9.11408E-005	0.00000E+000	8.52952E-005	5.39641E-002	9.36053E-001	3.57310E+000	9	...........
	125	1.68	9.37846E-001	9.08907E-005	0.00000E+000	8.52415E-005	5.39641E-002	9.38033E-001	3.57310E+000	9	...........
	126	1.69333	9.39848E-001	9.08845E-005	0.00000E+000	8.54176E-005	5.39641E-002	9.40030E-001	3.57310E+000	9	...........
	127	1.70667	9.41802E-001	9.09251E-005	0.00000E+000	8.56335E-005	5.39641E-002	9.41965E-001	3.57310E+000	9	...........
	128	1.72	9.43725E-001	9.10293E-005	0.00000E+000	8.59067E-005	5.39641E-002	9.43905E-001	3.57310E+000	9	...........
	129	1.73333	9.45645E-001	9.07376E-005	0.00000E+000	8.58055E-005	5.39641E-002	9.45846E-001	3.57310E+000	9	...........
	130	1.74667	9.47592E-001	9.08720E-005	0.00000E+000	8.61095E-005	5.39641E-002	9.47750E-001	3.57310E+000	9	...........
	131	1.76	9.49470E-001	9.10626E-005	0.00000E+000	8.64612E-005	5.39641E-002	9.49635E-001	3.57310E+000	9	...........
	132	1.77333	9.51331E-001	9.09178E-005	0.00000E+000	8.64929E-005	5.39641E-002	9.51501E-001	3.57310E+000	9	...........
	133	1.78667	9.53147E-001	9.11762E-005	0.00000E+000	8.69044E-005	5.39641E-002	9.53360E-001	3.57310E+000	9	...........
	134	1.8	9.54976E-001	9.09480E-005	0.00000E+000	8.68532E-005	5.39641E-002	9.55141E-001	3.57310E+000	9	...........
	135	1.81333	9.56776E-001	9.09553E-005	0.00000E+000	8.70239E-005	5.39641E-002	9.56961E-001	3.57310E+000	9	...........
	136	1.82667	9.58581E-001	9.10376E-005	0.00000E+000	8.72669E-005	5.39641E-002	9.58784E-001	3.57310E+000	9	...........
	137	1.84	9.60353E-001	9.10522E-005	0.00000E+000	8.74422E-005	5.39641E-002	9.60535E-001	3.57310E+000	9	...........
	138	1.85333	9.62113E-001	9.08324E-005	0.00000E+000	8.73910E-005	5.39641E-002	9.62296E-001	3.57310E+000	9	...........
	139	1.86667	9.63844E-001	9.11450E-005	0.00000E+000	8.78495E-005	5.39641E-002	9.64051E-001	3.57310E+000	9	...........
	140	1.88	9.65572E-001	9.08574E-005	0.00000E+000	8.77294E-005	5.39641E-002	9.65751E-001	3.57310E+000	9	...........
	141	1.89333	9.67259E-001	9.09866E-005	0.00000E+000	8.80076E-005	5.39641E-002	9.67431E-001	3.57310E+000	9	...........
	142	1.90667	9.68908E-001	9.09501E-005	0.00000E+000	8.81223E-005	5.39641E-002	9.69088E-001	3.57310E+000	9	...........
	143	1.92	9.70574E-001	9.10231E-005	0.00000E+000	8.83446E-005	5.39641E-002	9.70765E-001	3.57310E+000	9	...........
	144	1.93333	9.72247E-001	9.11793E-005	0.00000E+000	8.86488E-005	5.39641E-002	9.72427E-001	3.57310E+000	9	...........
	145	1.94667	9.73916E-001	9.09241E-005	0.00000E+000	8.85524E-005	5.39641E-002	9.74068E-001	3.57310E+000	9	...........
	146	1.96	9.75509E-001	9.09626E-005	0.00000E+000	8.87349E-005	5.39641E-002	9.75670E-001	3.57310E+000	9	...........
	147	1.97333	9.77093E-001	9.10741E-005	0.00000E+000	8.89878E-005	5.39641E-002	9.77281E-001	3.57310E+000	9	...........
	148	1.98667	9.78641E-001	9.09251E-005	0.00000E+000	8.89830E-005	5.39641E-002	9.78830E-001	3.57310E+000	9	...........
	149	2	9.80201E-001	9.12544E-005	0.00000E+000	8.94476E-005	5.39641E-002	9.80374E-001	3.57310E+000	9	...........
	150	2.01333	9.81708E-001	9.09439E-005	0.00000E+000	8.92803E-005	5.39641E-002	9.81891E-001	3.57310E+000	9	...........
	151	2.02667	9.83209E-001	9.09710E-005	0.00000E+000	8.94434E-005	5.39641E-002	9.83382E-001	3.57310E+000	9	...........
	152	2.04	9.84672E-001	9.09001E-005	0.00000E+000	8.95068E-005	5.39641E-002	9.84896E-001	3.57310E+000	9	...........
	153	2.05333	9.86155E-001	9.12200E-005	0.00000E+000	8.99570E-005	5.39641E-002	9.86360E-001	3.57310E+000	9	...........
	154	2.06667	9.87608E-001	9.12981E-005	0.00000E+000	9.01667E-005	5.39641E-002	9.87819E-001	3.57310E+000	9	...........
	155	2.08	9.89073E-001	9.10835E-005	0.00000E+000	9.00882E-005	5.39641E-002	9.89237E-001	3.57310E+000	9	...........
	156	2.09333	9.90480E-001	9.12085E-005	0.00000E+000	9.03402E-005	5.39641E-002	9.90639E-001	3.57310E+000	9	...........
	157	2.10667	9.91887E-001	9.09043E-005	0.00000E+000	9.01668E-005	5.39641E-002	9.92024E-001	3.57310E+000	9	...........
	158	2.12	9.93279E-001	9.09012E-005	0.00000E+000	9.02902E-005	5.39641E-002	9.93420E-001	3.57310E+000	9	...........
	159	2.13333	9.94667E-001	9.11658E-005	0.00000E+000	9.06796E-005	5.39641E-002	9.94812E-001	3.57310E+000	9	...........
	160	2.14667	9.96035E-001	9.09710E-005	0.00000E+000	9.06102E-005	5.39641E-002	9.96194E-001	3.57310E+000	9	...........
	161	2.16	9.97391E-001	9.12366E-005	0.00000E+000	9.09986E-005	5.39641E-002	9.97591E-001	3.57285E+000	9	...........
	162	2.17333	9.98749E-001	9.12221E-005	0.00000E+000	9.11080E-005	5.39641E-002	9.98932E-001	3.57270E+000	9	...........
	163	2.18167	9.99816E-001	9.11277E-005	0.00000E+000	9.11109E-005	5.39641E-002	1.00003E+000	3.57270E+000	9	...........
STARTTIMEOFFSET	QUANT	3268.962	Start Time Offset (s)
