EXPLAIN
TAG	PWR800_CHARGE
TITLE	LABEL	PWR Cyclic Charge Discharge (Cell) - Charge Step	Test &Identifier
DATE	LABEL	10-7-2017	Date
TIME	LABEL	15:59:49	Time
NOTES	NOTES	3	&Notes...
	supercap test cell
	0.9mg
	6M KOH
PSTAT	PSTAT	IFC5000-01520	Potentiostat
CAPACITY	QUANT	1.00000E-003	Capacity (A-hr)
CELLTYPE	SELECTOR	1	&Cell Type
WORKINGCONNECTION	SELECTOR	0	&Working Lead
MAXCHARGETIME	VARIABLEANDUNITS	1.00000E+002	s	1.00000E+002	second(s)	Max &Charge Time
CHARGECURRENT	QUANT	9.00000E-005	&Charge Current (A) 
VOLTAGEFINISH	TWOPARAM	F	1.00000E-003	3.60000E+003	&Voltage Finish	 I (A) < 	Max Time(s)
SAMPLETIME	QUANT	1.00000E-002	Sa&mple Period (s)
CHARGESTOPAT1	MULTIPARAM	4	1.00000E+000	Charge Stop At &1	Voltage > Limit	V
CHARGESTOPAT2	MULTIPARAM	0	0.00000E+000	Charge Stop At &2	None	N/A
AESBHCSELECTOR	TOGGLE	F	Save Both Half Cells
IRCOMP	TOGGLE	F	IR &Measure
EOC	QUANT	0	Open Circuit (V)
SEQUENCER	TOGGLE	TRUE	Run as Sequence
PSTATMODEL	IQUANT	53	Pstat Model
PSTATSECTION	LABEL	IFC5000-01520	Pstat Section
PSTATSERIALNO	LABEL	01520	Pstat Serial Number
CTRLMODE	IQUANT	0	Control Mode
ELECTROMETER	IQUANT	1	RE=0 or CS=1
IESTAB	IQUANT	0	I/E Stability
CASPEED	IQUANT	4	Control Amp Speed
CONVENTION	IQUANT	1	Current Convention
ICHRANGE	IQUANT	2	Ich Range
ICHRANGEMODE	TOGGLE	T	Ich Auto Range
ICHOFFSETENABLE	TOGGLE	F	Ich Offset Enable
ICHOFFSET	QUANT	0	Ich Offset (V)
ICHFILTER	IQUANT	1	Ich Filter
VCHRANGE	IQUANT	2	Vch Range
VCHRANGEMODE	TOGGLE	T	Vch Auto Range
VCHOFFSETENABLE	TOGGLE	F	Vch Offset Enable
VCHOFFSET	QUANT	0	Vch Offset (V)
VCHFILTER	IQUANT	1	Vch Filter
IERANGELOWERLIMIT	IQUANT	9	I/E Range Lower Limit
IERANGEMODE	TOGGLE	F	I/E AutoRange
IERANGE	IQUANT	9	I/E Range
ACHSELECT	IQUANT	1	Ach Select
ACHRANGE	IQUANT	2	Ach Range
ACHOFFSETENABLE	TOGGLE	F	Ach Offset Enable
ACHOFFSET	QUANT	0	Ach Offset (V)
ACHFILTER	IQUANT	1	Ach Filter
CABLEID	IQUANT	14	Cable ID
DCCALDATE	LABEL	5-7-2017	DC Calibration Date
ACCALDATE	LABEL	12/3/2015	AC Calibration Date
FRAMEWORKVERSION	QUANT	7.01	Framework Version
INSTRUMENTVERSION	LABEL	4.00	Instrument Version
CURVE	TABLE	165
	Pt	T	Vf	Im	Vu	Pwr	Sig	Ach	Temp	IERange	Over
	#	s	V	A	V	W	V	V	deg C	#	bits
	0	0.013333	2.64913E-001	9.08136E-005	0.00000E+000	2.40577E-005	5.39641E-002	2.64962E-001	3.57350E+000	9	...........
	1	0.026667	2.84740E-001	9.09199E-005	0.00000E+000	2.58885E-005	5.39641E-002	2.84782E-001	3.57350E+000	9	...........
	2	0.04	3.03318E-001	9.10762E-005	0.00000E+000	2.76251E-005	5.39641E-002	3.03361E-001	3.57350E+000	9	...........
	3	0.053333	3.20833E-001	9.09824E-005	0.00000E+000	2.91901E-005	5.39641E-002	3.20877E-001	3.57350E+000	9	...........
	4	0.066667	3.37402E-001	9.07272E-005	0.00000E+000	3.06115E-005	5.39641E-002	3.37446E-001	3.57350E+000	9	...........
	5	0.08	3.53120E-001	9.11283E-005	0.00000E+000	3.21792E-005	5.39641E-002	3.53163E-001	3.57350E+000	9	...........
	6	0.093333	3.68047E-001	9.08595E-005	0.00000E+000	3.34406E-005	5.39641E-002	3.68094E-001	3.57350E+000	9	...........
	7	0.106667	3.82266E-001	9.07615E-005	0.00000E+000	3.46951E-005	5.39641E-002	3.82311E-001	3.57350E+000	9	...........
	8	0.12	3.95840E-001	9.08220E-005	0.00000E+000	3.59509E-005	5.39641E-002	3.95889E-001	3.57350E+000	9	...........
	9	0.133333	4.08827E-001	9.09710E-005	0.00000E+000	3.71913E-005	5.39641E-002	4.08880E-001	3.57350E+000	9	...........
	10	0.146667	4.21267E-001	9.08157E-005	0.00000E+000	3.82577E-005	5.39641E-002	4.21318E-001	3.57350E+000	9	...........
	11	0.16	4.33193E-001	9.09397E-005	0.00000E+000	3.93945E-005	5.39641E-002	4.33252E-001	3.57350E+000	9	...........
	12	0.173333	4.44646E-001	9.08980E-005	0.00000E+000	4.04174E-005	5.39641E-002	4.44706E-001	3.57350E+000	9	...........
	13	0.186667	4.55669E-001	9.08980E-005	0.00000E+000	4.14195E-005	5.39641E-002	4.55730E-001	3.57350E+000	9	...........
	14	0.2	4.66295E-001	9.07605E-005	0.00000E+000	4.23212E-005	5.39641E-002	4.66355E-001	3.57350E+000	9	...........
	15	0.213333	4.76540E-001	9.11606E-005	0.00000E+000	4.34417E-005	5.39641E-002	4.76601E-001	3.57350E+000	9	...........
	16	0.226667	4.86423E-001	9.09751E-005	0.00000E+000	4.42524E-005	5.39641E-002	4.86482E-001	3.57350E+000	9	...........
	17	0.24	4.95987E-001	9.09960E-005	0.00000E+000	4.51328E-005	5.39641E-002	4.96061E-001	3.57350E+000	9	...........
	18	0.253333	5.05260E-001	9.07449E-005	0.00000E+000	4.58497E-005	5.39641E-002	5.05325E-001	3.57350E+000	9	...........
	19	0.266667	5.14230E-001	9.05823E-005	0.00000E+000	4.65801E-005	5.39641E-002	5.14300E-001	3.57350E+000	9	...........
	20	0.28	5.22922E-001	9.10553E-005	0.00000E+000	4.76148E-005	5.39641E-002	5.22992E-001	3.57350E+000	9	...........
	21	0.293333	5.31341E-001	9.06032E-005	0.00000E+000	4.81412E-005	5.39641E-002	5.31412E-001	3.57350E+000	9	...........
	22	0.306667	5.39475E-001	9.11512E-005	0.00000E+000	4.91738E-005	5.39641E-002	5.39601E-001	3.57350E+000	9	...........
	23	0.32	5.47446E-001	9.08522E-005	0.00000E+000	4.97367E-005	5.39641E-002	5.47576E-001	3.57350E+000	9	...........
	24	0.333333	5.55202E-001	9.08782E-005	0.00000E+000	5.04557E-005	5.39641E-002	5.55349E-001	3.57350E+000	9	...........
	25	0.346667	5.62807E-001	9.09720E-005	0.00000E+000	5.11997E-005	5.39641E-002	5.62940E-001	3.57350E+000	9	...........
	26	0.36	5.70220E-001	9.10845E-005	0.00000E+000	5.19382E-005	5.39641E-002	5.70292E-001	3.57350E+000	9	...........
	27	0.373333	5.77387E-001	9.09293E-005	0.00000E+000	5.25014E-005	5.39641E-002	5.77493E-001	3.57350E+000	9	...........
	28	0.386667	5.84401E-001	9.09585E-005	0.00000E+000	5.31562E-005	5.39641E-002	5.84525E-001	3.57350E+000	9	...........
	29	0.4	5.91291E-001	9.08970E-005	0.00000E+000	5.37466E-005	5.39641E-002	5.91412E-001	3.57350E+000	9	...........
	30	0.413333	5.97970E-001	9.10793E-005	0.00000E+000	5.44627E-005	5.39641E-002	5.98092E-001	3.57350E+000	9	...........
	31	0.426667	6.04482E-001	9.09730E-005	0.00000E+000	5.49916E-005	5.39641E-002	6.04638E-001	3.57350E+000	9	...........
	32	0.44	6.10875E-001	9.10439E-005	0.00000E+000	5.56164E-005	5.39641E-002	6.11017E-001	3.57350E+000	9	...........
	33	0.453333	6.17212E-001	9.08345E-005	0.00000E+000	5.60641E-005	5.39641E-002	6.17336E-001	3.57350E+000	9	...........
	34	0.466667	6.23332E-001	9.08834E-005	0.00000E+000	5.66505E-005	5.39641E-002	6.23446E-001	3.57350E+000	9	...........
	35	0.48	6.29339E-001	9.10668E-005	0.00000E+000	5.73119E-005	5.39641E-002	6.29463E-001	3.57350E+000	9	...........
	36	0.493333	6.35206E-001	9.10564E-005	0.00000E+000	5.78396E-005	5.39641E-002	6.35349E-001	3.57350E+000	9	...........
	37	0.506667	6.41008E-001	9.09032E-005	0.00000E+000	5.82697E-005	5.39641E-002	6.41121E-001	3.57350E+000	9	...........
	38	0.52	6.46647E-001	9.10658E-005	0.00000E+000	5.88874E-005	5.39641E-002	6.46764E-001	3.57350E+000	9	...........
	39	0.533333	6.52190E-001	9.10699E-005	0.00000E+000	5.93949E-005	5.39641E-002	6.52328E-001	3.57350E+000	9	...........
	40	0.546667	6.57641E-001	9.11200E-005	0.00000E+000	5.99242E-005	5.39641E-002	6.57743E-001	3.57350E+000	9	...........
	41	0.56	6.62974E-001	9.11533E-005	0.00000E+000	6.04323E-005	5.39641E-002	6.63112E-001	3.57350E+000	9	...........
	42	0.573333	6.68260E-001	9.10397E-005	0.00000E+000	6.08382E-005	5.39641E-002	6.68378E-001	3.57350E+000	9	...........
	43	0.586667	6.73404E-001	9.08793E-005	0.00000E+000	6.11985E-005	5.39641E-002	6.73520E-001	3.57350E+000	9	...........
	44	0.6	6.78476E-001	9.09783E-005	0.00000E+000	6.17266E-005	5.39641E-002	6.78609E-001	3.57350E+000	9	...........
	45	0.613333	6.83460E-001	9.10126E-005	0.00000E+000	6.22035E-005	5.39641E-002	6.83585E-001	3.57350E+000	9	...........
	46	0.626667	6.88371E-001	9.10022E-005	0.00000E+000	6.26433E-005	5.39641E-002	6.88507E-001	3.57350E+000	9	...........
	47	0.64	6.93226E-001	9.08751E-005	0.00000E+000	6.29970E-005	5.39641E-002	6.93348E-001	3.57350E+000	9	...........
	48	0.653333	6.97982E-001	9.11252E-005	0.00000E+000	6.36037E-005	5.39641E-002	6.98137E-001	3.57350E+000	9	...........
	49	0.666667	7.02695E-001	9.09105E-005	0.00000E+000	6.38824E-005	5.39641E-002	7.02823E-001	3.57350E+000	9	...........
	50	0.68	7.07295E-001	9.09595E-005	0.00000E+000	6.43352E-005	5.39641E-002	7.07454E-001	3.57350E+000	9	...........
	51	0.693333	7.11863E-001	9.11283E-005	0.00000E+000	6.48709E-005	5.39641E-002	7.11999E-001	3.57350E+000	9	...........
	52	0.706667	7.16352E-001	9.11408E-005	0.00000E+000	6.52889E-005	5.39641E-002	7.16498E-001	3.57350E+000	9	...........
	53	0.72	7.20813E-001	9.08345E-005	0.00000E+000	6.54747E-005	5.39641E-002	7.20946E-001	3.57350E+000	9	...........
	54	0.733333	7.25167E-001	9.07668E-005	0.00000E+000	6.58210E-005	5.39641E-002	7.25294E-001	3.57350E+000	9	...........
	55	0.746667	7.29452E-001	9.09855E-005	0.00000E+000	6.63696E-005	5.39641E-002	7.29613E-001	3.57350E+000	9	...........
	56	0.76	7.33695E-001	9.11773E-005	0.00000E+000	6.68963E-005	5.39641E-002	7.33830E-001	3.57350E+000	9	...........
	57	0.773333	7.37880E-001	9.08720E-005	0.00000E+000	6.70527E-005	5.39641E-002	7.38016E-001	3.57350E+000	9	...........
	58	0.786667	7.42042E-001	9.09699E-005	0.00000E+000	6.75035E-005	5.39641E-002	7.42201E-001	3.57350E+000	9	...........
	59	0.8	7.46132E-001	9.10137E-005	0.00000E+000	6.79082E-005	5.39641E-002	7.46279E-001	3.57350E+000	9	...........
	60	0.813333	7.50150E-001	9.05907E-005	0.00000E+000	6.79566E-005	5.39641E-002	7.50301E-001	3.57350E+000	9	...........
	61	0.826667	7.54139E-001	9.11554E-005	0.00000E+000	6.87438E-005	5.39641E-002	7.54284E-001	3.57350E+000	9	...........
	62	0.84	7.58064E-001	9.10251E-005	0.00000E+000	6.90029E-005	5.39641E-002	7.58209E-001	3.57350E+000	9	...........
	63	0.853333	7.61939E-001	9.10314E-005	0.00000E+000	6.93604E-005	5.39641E-002	7.62065E-001	3.57350E+000	9	...........
	64	0.866667	7.65766E-001	9.09022E-005	0.00000E+000	6.96098E-005	5.39641E-002	7.65934E-001	3.57350E+000	9	...........
	65	0.88	7.69595E-001	9.09918E-005	0.00000E+000	7.00268E-005	5.39641E-002	7.69741E-001	3.57350E+000	9	...........
	66	0.893333	7.73338E-001	9.11002E-005	0.00000E+000	7.04513E-005	5.39641E-002	7.73492E-001	3.57388E+000	9	...........
	67	0.906667	7.77034E-001	9.09116E-005	0.00000E+000	7.06414E-005	5.39641E-002	7.77164E-001	3.57410E+000	9	...........
	68	0.92	7.80696E-001	9.11512E-005	0.00000E+000	7.11614E-005	5.39641E-002	7.80839E-001	3.57410E+000	9	...........
	69	0.933333	7.84320E-001	9.07688E-005	0.00000E+000	7.11918E-005	5.39641E-002	7.84470E-001	3.57410E+000	9	...........
	70	0.946667	7.87905E-001	9.09532E-005	0.00000E+000	7.16625E-005	5.39641E-002	7.88037E-001	3.57410E+000	9	...........
	71	0.96	7.91429E-001	9.09824E-005	0.00000E+000	7.20061E-005	5.39641E-002	7.91586E-001	3.57410E+000	9	...........
	72	0.97333	7.94981E-001	9.08939E-005	0.00000E+000	7.22589E-005	5.39641E-002	7.95114E-001	3.57410E+000	9	...........
	73	0.98667	7.98465E-001	9.09960E-005	0.00000E+000	7.26571E-005	5.39641E-002	7.98613E-001	3.57410E+000	9	...........
	74	1	8.01909E-001	9.11575E-005	0.00000E+000	7.31000E-005	5.39641E-002	8.02040E-001	3.57410E+000	9	...........
	75	1.01333	8.05265E-001	9.09105E-005	0.00000E+000	7.32071E-005	5.39641E-002	8.05436E-001	3.57410E+000	9	...........
	76	1.02667	8.08634E-001	9.11825E-005	0.00000E+000	7.37332E-005	5.39641E-002	8.08798E-001	3.57410E+000	9	...........
	77	1.04	8.11938E-001	9.10095E-005	0.00000E+000	7.38941E-005	5.39641E-002	8.12121E-001	3.57410E+000	9	...........
	78	1.05333	8.15237E-001	9.10345E-005	0.00000E+000	7.42147E-005	5.39641E-002	8.15425E-001	3.57410E+000	9	...........
	79	1.06667	8.18496E-001	9.09147E-005	0.00000E+000	7.44134E-005	5.39641E-002	8.18673E-001	3.57410E+000	9	...........
	80	1.08	8.21734E-001	9.10428E-005	0.00000E+000	7.48130E-005	5.39641E-002	8.21913E-001	3.57410E+000	9	...........
	81	1.09333	8.24909E-001	9.10283E-005	0.00000E+000	7.50900E-005	5.39641E-002	8.25107E-001	3.57410E+000	9	...........
	82	1.10667	8.28057E-001	9.10324E-005	0.00000E+000	7.53801E-005	5.39641E-002	8.28196E-001	3.57410E+000	9	...........
	83	1.12	8.31131E-001	9.09522E-005	0.00000E+000	7.55932E-005	5.39641E-002	8.31311E-001	3.57410E+000	9	...........
	84	1.13333	8.34197E-001	9.11397E-005	0.00000E+000	7.60285E-005	5.39641E-002	8.34372E-001	3.57410E+000	9	...........
	85	1.14667	8.37251E-001	9.11054E-005	0.00000E+000	7.62780E-005	5.39641E-002	8.37426E-001	3.57410E+000	9	...........
	86	1.16	8.40268E-001	9.07063E-005	0.00000E+000	7.62176E-005	5.39641E-002	8.40441E-001	3.57410E+000	9	...........
	87	1.17333	8.43257E-001	9.12971E-005	0.00000E+000	7.69869E-005	5.39641E-002	8.43424E-001	3.57410E+000	9	...........
	88	1.18667	8.46263E-001	9.10720E-005	0.00000E+000	7.70709E-005	5.39641E-002	8.46405E-001	3.57410E+000	9	...........
	89	1.2	8.49170E-001	9.08751E-005	0.00000E+000	7.71684E-005	5.39641E-002	8.49342E-001	3.57410E+000	9	...........
	90	1.21333	8.52074E-001	9.10168E-005	0.00000E+000	7.75530E-005	5.39641E-002	8.52247E-001	3.57410E+000	9	...........
	91	1.22667	8.54910E-001	9.13346E-005	0.00000E+000	7.80828E-005	5.39641E-002	8.55068E-001	3.57410E+000	9	...........
	92	1.24	8.57736E-001	9.11835E-005	0.00000E+000	7.82114E-005	5.39641E-002	8.57916E-001	3.57410E+000	9	...........
	93	1.25333	8.60534E-001	9.08824E-005	0.00000E+000	7.82074E-005	5.39641E-002	8.60717E-001	3.57410E+000	9	...........
	94	1.26667	8.63307E-001	9.12627E-005	0.00000E+000	7.87877E-005	5.39641E-002	8.63481E-001	3.57410E+000	9	...........
	95	1.28	8.66032E-001	9.11293E-005	0.00000E+000	7.89209E-005	5.39641E-002	8.66226E-001	3.57410E+000	9	...........
	96	1.29333	8.68771E-001	9.13190E-005	0.00000E+000	7.93353E-005	5.39641E-002	8.68948E-001	3.57410E+000	9	...........
	97	1.30667	8.71467E-001	9.09699E-005	0.00000E+000	7.92773E-005	5.39641E-002	8.71634E-001	3.57410E+000	9	...........
	98	1.32	8.74134E-001	9.09522E-005	0.00000E+000	7.95045E-005	5.39641E-002	8.74317E-001	3.57410E+000	9	...........
	99	1.33333	8.76779E-001	9.11564E-005	0.00000E+000	7.99240E-005	5.39641E-002	8.76953E-001	3.57410E+000	9	...........
	100	1.34667	8.79379E-001	9.10501E-005	0.00000E+000	8.00676E-005	5.39641E-002	8.79581E-001	3.57410E+000	9	...........
	101	1.36	8.81972E-001	9.09866E-005	0.00000E+000	8.02477E-005	5.39641E-002	8.82167E-001	3.57410E+000	9	...........
	102	1.37333	8.84601E-001	9.11606E-005	0.00000E+000	8.06407E-005	5.39641E-002	8.84742E-001	3.57410E+000	9	...........
	103	1.38667	8.87113E-001	9.10324E-005	0.00000E+000	8.07561E-005	5.39641E-002	8.87295E-001	3.57410E+000	9	...........
	104	1.4	8.89623E-001	9.09699E-005	0.00000E+000	8.09289E-005	5.39641E-002	8.89797E-001	3.57410E+000	9	...........
	105	1.41333	8.92092E-001	9.12971E-005	0.00000E+000	8.14454E-005	5.39641E-002	8.92259E-001	3.57410E+000	9	...........
	106	1.42667	8.94510E-001	9.12221E-005	0.00000E+000	8.15990E-005	5.39641E-002	8.94720E-001	3.57410E+000	9	...........
	107	1.44	8.96978E-001	9.10647E-005	0.00000E+000	8.16831E-005	5.39641E-002	8.97174E-001	3.57410E+000	9	...........
	108	1.45333	8.99393E-001	9.10626E-005	0.00000E+000	8.19011E-005	5.39641E-002	8.99584E-001	3.57410E+000	9	...........
	109	1.46667	9.01792E-001	9.11366E-005	0.00000E+000	8.21863E-005	5.39641E-002	9.02000E-001	3.57410E+000	9	...........
	110	1.48	9.04154E-001	9.09512E-005	0.00000E+000	8.22339E-005	5.39641E-002	9.04368E-001	3.57410E+000	9	...........
	111	1.49333	9.06503E-001	9.13262E-005	0.00000E+000	8.27875E-005	5.39641E-002	9.06717E-001	3.57410E+000	9	...........
	112	1.50667	9.08847E-001	9.11387E-005	0.00000E+000	8.28312E-005	5.39641E-002	9.09054E-001	3.57410E+000	9	...........
	113	1.52	9.11134E-001	9.10845E-005	0.00000E+000	8.29902E-005	5.39641E-002	9.11300E-001	3.57410E+000	9	...........
	114	1.53333	9.13400E-001	9.09032E-005	0.00000E+000	8.30310E-005	5.39641E-002	9.13579E-001	3.57410E+000	9	...........
	115	1.54667	9.15664E-001	9.08845E-005	0.00000E+000	8.32196E-005	5.39641E-002	9.15853E-001	3.57410E+000	9	...........
	116	1.56	9.17907E-001	9.12158E-005	0.00000E+000	8.37276E-005	5.39641E-002	9.18089E-001	3.57410E+000	9	...........
	117	1.57333	9.20093E-001	9.09397E-005	0.00000E+000	8.36730E-005	5.39641E-002	9.20279E-001	3.57410E+000	9	...........
	118	1.58667	9.22307E-001	9.10574E-005	0.00000E+000	8.39829E-005	5.39641E-002	9.22427E-001	3.57410E+000	9	...........
	119	1.6	9.24452E-001	9.09908E-005	0.00000E+000	8.41166E-005	5.39641E-002	9.24558E-001	3.57410E+000	9	...........
	120	1.61333	9.26551E-001	9.11022E-005	0.00000E+000	8.44109E-005	5.39641E-002	9.26674E-001	3.57410E+000	9	...........
	121	1.62667	9.28652E-001	9.11397E-005	0.00000E+000	8.46371E-005	5.39641E-002	9.28806E-001	3.57410E+000	9	...........
	122	1.64	9.30735E-001	9.10845E-005	0.00000E+000	8.47756E-005	5.39641E-002	9.30879E-001	3.57410E+000	9	...........
	123	1.65333	9.32764E-001	9.12564E-005	0.00000E+000	8.51207E-005	5.39641E-002	9.32928E-001	3.57410E+000	9	...........
	124	1.66667	9.34798E-001	9.09689E-005	0.00000E+000	8.50375E-005	5.39641E-002	9.34977E-001	3.57410E+000	9	...........
	125	1.68	9.36803E-001	9.11106E-005	0.00000E+000	8.53526E-005	5.39641E-002	9.36990E-001	3.57410E+000	9	...........
	126	1.69333	9.38775E-001	9.11147E-005	0.00000E+000	8.55362E-005	5.39641E-002	9.38974E-001	3.57410E+000	9	...........
	127	1.70667	9.40762E-001	9.08866E-005	0.00000E+000	8.55026E-005	5.39641E-002	9.40943E-001	3.57410E+000	9	...........
	128	1.72	9.42702E-001	9.11543E-005	0.00000E+000	8.59314E-005	5.39641E-002	9.42890E-001	3.57410E+000	9	...........
	129	1.73333	9.44642E-001	9.11825E-005	0.00000E+000	8.61348E-005	5.39641E-002	9.44816E-001	3.57410E+000	9	...........
	130	1.74667	9.46606E-001	9.10522E-005	0.00000E+000	8.61906E-005	5.39641E-002	9.46776E-001	3.57410E+000	9	...........
	131	1.76	9.48500E-001	9.10501E-005	0.00000E+000	8.63610E-005	5.39641E-002	9.48664E-001	3.57410E+000	9	...........
	132	1.77333	9.50361E-001	9.10095E-005	0.00000E+000	8.64919E-005	5.39641E-002	9.50548E-001	3.57410E+000	9	...........
	133	1.78667	9.52195E-001	9.10616E-005	0.00000E+000	8.67084E-005	5.39641E-002	9.52383E-001	3.57410E+000	9	...........
	134	1.8	9.54039E-001	9.08355E-005	0.00000E+000	8.66606E-005	5.39641E-002	9.54206E-001	3.57410E+000	9	...........
	135	1.81333	9.55821E-001	9.10835E-005	0.00000E+000	8.70595E-005	5.39641E-002	9.56013E-001	3.57410E+000	9	...........
	136	1.82667	9.57585E-001	9.07761E-005	0.00000E+000	8.69259E-005	5.39641E-002	9.57781E-001	3.57410E+000	9	...........
	137	1.84	9.59354E-001	9.10668E-005	0.00000E+000	8.73653E-005	5.39641E-002	9.59568E-001	3.57410E+000	9	...........
	138	1.85333	9.61105E-001	9.08188E-005	0.00000E+000	8.72865E-005	5.39641E-002	9.61311E-001	3.57410E+000	9	...........
	139	1.86667	9.62794E-001	9.10085E-005	0.00000E+000	8.76224E-005	5.39641E-002	9.63016E-001	3.57410E+000	9	...........
	140	1.88	9.64490E-001	9.09699E-005	0.00000E+000	8.77396E-005	5.39641E-002	9.64713E-001	3.57410E+000	9	...........
	141	1.89333	9.66177E-001	9.06928E-005	0.00000E+000	8.76253E-005	5.39641E-002	9.66389E-001	3.57316E+000	9	...........
	142	1.90667	9.67842E-001	9.10460E-005	0.00000E+000	8.81181E-005	5.39641E-002	9.68063E-001	3.57260E+000	9	...........
	143	1.92	9.69491E-001	9.08939E-005	0.00000E+000	8.81208E-005	5.39641E-002	9.69693E-001	3.57260E+000	9	...........
	144	1.93333	9.71122E-001	9.08803E-005	0.00000E+000	8.82558E-005	5.39641E-002	9.71340E-001	3.57260E+000	9	...........
	145	1.94667	9.72748E-001	9.10793E-005	0.00000E+000	8.85973E-005	5.39641E-002	9.72954E-001	3.57260E+000	9	...........
	146	1.96	9.74359E-001	9.09137E-005	0.00000E+000	8.85825E-005	5.39641E-002	9.74558E-001	3.57260E+000	9	...........
	147	1.97333	9.75948E-001	9.11085E-005	0.00000E+000	8.89172E-005	5.39641E-002	9.76121E-001	3.57260E+000	9	...........
	148	1.98667	9.77498E-001	9.08043E-005	0.00000E+000	8.87610E-005	5.39641E-002	9.77697E-001	3.57260E+000	9	...........
	149	2	9.79041E-001	9.13471E-005	0.00000E+000	8.94325E-005	5.39641E-002	9.79214E-001	3.57260E+000	9	...........
	150	2.01333	9.80555E-001	9.07532E-005	0.00000E+000	8.89885E-005	5.39641E-002	9.80725E-001	3.57260E+000	9	...........
	151	2.02667	9.82071E-001	9.10606E-005	0.00000E+000	8.94279E-005	5.39641E-002	9.82234E-001	3.57260E+000	9	...........
	152	2.04	9.83556E-001	9.10106E-005	0.00000E+000	8.95140E-005	5.39641E-002	9.83751E-001	3.57260E+000	9	...........
	153	2.05333	9.85038E-001	9.10012E-005	0.00000E+000	8.96396E-005	5.39641E-002	9.85276E-001	3.57260E+000	9	...........
	154	2.06667	9.86529E-001	9.09751E-005	0.00000E+000	8.97496E-005	5.39641E-002	9.86754E-001	3.57260E+000	9	...........
	155	2.08	9.87969E-001	9.11648E-005	0.00000E+000	9.00680E-005	5.39641E-002	9.88190E-001	3.57260E+000	9	...........
	156	2.09333	9.89416E-001	9.10366E-005	0.00000E+000	9.00731E-005	5.39641E-002	9.89634E-001	3.57260E+000	9	...........
	157	2.10667	9.90834E-001	9.10033E-005	0.00000E+000	9.01691E-005	5.39641E-002	9.91031E-001	3.57260E+000	9	...........
	158	2.12	9.92206E-001	9.12356E-005	0.00000E+000	9.05245E-005	5.39641E-002	9.92419E-001	3.57260E+000	9	...........
	159	2.13333	9.93592E-001	9.10033E-005	0.00000E+000	9.04201E-005	5.39641E-002	9.93811E-001	3.57260E+000	9	...........
	160	2.14667	9.94980E-001	9.10470E-005	0.00000E+000	9.05900E-005	5.39641E-002	9.95186E-001	3.57260E+000	9	...........
	161	2.16	9.96341E-001	9.11720E-005	0.00000E+000	9.08384E-005	5.39641E-002	9.96577E-001	3.57260E+000	9	...........
	162	2.17333	9.97709E-001	9.11845E-005	0.00000E+000	9.09756E-005	5.39641E-002	9.97931E-001	3.57260E+000	9	...........
	163	2.18667	9.99033E-001	9.09168E-005	0.00000E+000	9.08289E-005	5.39641E-002	9.99255E-001	3.57260E+000	9	...........
	164	2.19167	9.99953E-001	9.09460E-005	0.00000E+000	9.09417E-005	5.39641E-002	1.00013E+000	3.57260E+000	9	...........
STARTTIMEOFFSET	QUANT	3056.888	Start Time Offset (s)
