EXPLAIN
TAG	PWR800_CHARGE
TITLE	LABEL	PWR Cyclic Charge Discharge (Cell) - Charge Step	Test &Identifier
DATE	LABEL	10-7-2017	Date
TIME	LABEL	16:12:58	Time
NOTES	NOTES	3	&Notes...
	supercap test cell
	0.9mg
	6M KOH
PSTAT	PSTAT	IFC5000-01520	Potentiostat
CAPACITY	QUANT	1.00000E-003	Capacity (A-hr)
CELLTYPE	SELECTOR	1	&Cell Type
WORKINGCONNECTION	SELECTOR	0	&Working Lead
MAXCHARGETIME	VARIABLEANDUNITS	1.00000E+002	s	1.00000E+002	second(s)	Max &Charge Time
CHARGECURRENT	QUANT	9.00000E-005	&Charge Current (A) 
VOLTAGEFINISH	TWOPARAM	F	1.00000E-003	3.60000E+003	&Voltage Finish	 I (A) < 	Max Time(s)
SAMPLETIME	QUANT	1.00000E-002	Sa&mple Period (s)
CHARGESTOPAT1	MULTIPARAM	4	1.00000E+000	Charge Stop At &1	Voltage > Limit	V
CHARGESTOPAT2	MULTIPARAM	0	0.00000E+000	Charge Stop At &2	None	N/A
AESBHCSELECTOR	TOGGLE	F	Save Both Half Cells
IRCOMP	TOGGLE	F	IR &Measure
EOC	QUANT	0	Open Circuit (V)
SEQUENCER	TOGGLE	TRUE	Run as Sequence
PSTATMODEL	IQUANT	53	Pstat Model
PSTATSECTION	LABEL	IFC5000-01520	Pstat Section
PSTATSERIALNO	LABEL	01520	Pstat Serial Number
CTRLMODE	IQUANT	0	Control Mode
ELECTROMETER	IQUANT	1	RE=0 or CS=1
IESTAB	IQUANT	0	I/E Stability
CASPEED	IQUANT	4	Control Amp Speed
CONVENTION	IQUANT	1	Current Convention
ICHRANGE	IQUANT	2	Ich Range
ICHRANGEMODE	TOGGLE	T	Ich Auto Range
ICHOFFSETENABLE	TOGGLE	F	Ich Offset Enable
ICHOFFSET	QUANT	0	Ich Offset (V)
ICHFILTER	IQUANT	1	Ich Filter
VCHRANGE	IQUANT	2	Vch Range
VCHRANGEMODE	TOGGLE	T	Vch Auto Range
VCHOFFSETENABLE	TOGGLE	F	Vch Offset Enable
VCHOFFSET	QUANT	0	Vch Offset (V)
VCHFILTER	IQUANT	1	Vch Filter
IERANGELOWERLIMIT	IQUANT	9	I/E Range Lower Limit
IERANGEMODE	TOGGLE	F	I/E AutoRange
IERANGE	IQUANT	9	I/E Range
ACHSELECT	IQUANT	1	Ach Select
ACHRANGE	IQUANT	2	Ach Range
ACHOFFSETENABLE	TOGGLE	F	Ach Offset Enable
ACHOFFSET	QUANT	0	Ach Offset (V)
ACHFILTER	IQUANT	1	Ach Filter
CABLEID	IQUANT	14	Cable ID
DCCALDATE	LABEL	5-7-2017	DC Calibration Date
ACCALDATE	LABEL	12/3/2015	AC Calibration Date
FRAMEWORKVERSION	QUANT	7.01	Framework Version
INSTRUMENTVERSION	LABEL	4.00	Instrument Version
CURVE	TABLE	163
	Pt	T	Vf	Im	Vu	Pwr	Sig	Ach	Temp	IERange	Over
	#	s	V	A	V	W	V	V	deg C	#	bits
	0	0.013333	2.62843E-001	9.08001E-005	0.00000E+000	2.38661E-005	5.39641E-002	2.62887E-001	3.57300E+000	9	...........
	1	0.026667	2.82637E-001	9.11710E-005	0.00000E+000	2.57683E-005	5.39641E-002	2.82681E-001	3.57300E+000	9	...........
	2	0.04	3.01234E-001	9.09605E-005	0.00000E+000	2.74004E-005	5.39641E-002	3.01278E-001	3.57300E+000	9	...........
	3	0.053333	3.18805E-001	9.10335E-005	0.00000E+000	2.90220E-005	5.39641E-002	3.18843E-001	3.57300E+000	9	...........
	4	0.066667	3.35441E-001	9.07699E-005	0.00000E+000	3.04479E-005	5.39641E-002	3.35482E-001	3.57300E+000	9	...........
	5	0.08	3.51237E-001	9.08188E-005	0.00000E+000	3.18989E-005	5.39641E-002	3.51284E-001	3.57300E+000	9	...........
	6	0.093333	3.66258E-001	9.08355E-005	0.00000E+000	3.32692E-005	5.39641E-002	3.66306E-001	3.57300E+000	9	...........
	7	0.106667	3.80584E-001	9.08699E-005	0.00000E+000	3.45837E-005	5.39641E-002	3.80631E-001	3.57300E+000	9	...........
	8	0.12	3.94262E-001	9.11012E-005	0.00000E+000	3.59177E-005	5.39641E-002	3.94311E-001	3.57300E+000	9	...........
	9	0.133333	4.07334E-001	9.08480E-005	0.00000E+000	3.70055E-005	5.39641E-002	4.07385E-001	3.57300E+000	9	...........
	10	0.146667	4.19852E-001	9.09376E-005	0.00000E+000	3.81804E-005	5.39641E-002	4.19915E-001	3.57300E+000	9	...........
	11	0.16	4.31877E-001	9.10335E-005	0.00000E+000	3.93152E-005	5.39641E-002	4.31937E-001	3.57300E+000	9	...........
	12	0.173333	4.43414E-001	9.08543E-005	0.00000E+000	4.02861E-005	5.39641E-002	4.43475E-001	3.57300E+000	9	...........
	13	0.186667	4.54521E-001	9.08720E-005	0.00000E+000	4.13032E-005	5.39641E-002	4.54586E-001	3.57300E+000	9	...........
	14	0.2	4.65218E-001	9.08043E-005	0.00000E+000	4.22438E-005	5.39641E-002	4.65284E-001	3.57300E+000	9	...........
	15	0.213333	4.75538E-001	9.08126E-005	0.00000E+000	4.31848E-005	5.39641E-002	4.75603E-001	3.57300E+000	9	...........
	16	0.226667	4.85509E-001	9.10522E-005	0.00000E+000	4.42066E-005	5.39641E-002	4.85578E-001	3.57300E+000	9	...........
	17	0.24	4.95143E-001	9.10585E-005	0.00000E+000	4.50869E-005	5.39641E-002	4.95212E-001	3.57300E+000	9	...........
	18	0.253333	5.04465E-001	9.10585E-005	0.00000E+000	4.59358E-005	5.39641E-002	5.04533E-001	3.57300E+000	9	...........
	19	0.266667	5.13491E-001	9.11773E-005	0.00000E+000	4.68187E-005	5.39641E-002	5.13557E-001	3.57300E+000	9	...........
	20	0.28	5.22242E-001	9.10001E-005	0.00000E+000	4.75241E-005	5.39641E-002	5.22317E-001	3.57300E+000	9	...........
	21	0.293333	5.30715E-001	9.11439E-005	0.00000E+000	4.83715E-005	5.39641E-002	5.30794E-001	3.57300E+000	9	...........
	22	0.306667	5.38877E-001	9.09553E-005	0.00000E+000	4.90137E-005	5.39641E-002	5.38975E-001	3.57300E+000	9	...........
	23	0.32	5.46882E-001	9.09376E-005	0.00000E+000	4.97322E-005	5.39641E-002	5.46981E-001	3.57300E+000	9	...........
	24	0.333333	5.54673E-001	9.11179E-005	0.00000E+000	5.05406E-005	5.39641E-002	5.54761E-001	3.57300E+000	9	...........
	25	0.346667	5.62302E-001	9.08907E-005	0.00000E+000	5.11080E-005	5.39641E-002	5.62382E-001	3.57300E+000	9	...........
	26	0.36	5.69732E-001	9.10616E-005	0.00000E+000	5.18807E-005	5.39641E-002	5.69805E-001	3.57300E+000	9	...........
	27	0.373333	5.76917E-001	9.10345E-005	0.00000E+000	5.25194E-005	5.39641E-002	5.77038E-001	3.57300E+000	9	...........
	28	0.386667	5.83977E-001	9.11345E-005	0.00000E+000	5.32205E-005	5.39641E-002	5.84092E-001	3.57300E+000	9	...........
	29	0.4	5.90872E-001	9.10220E-005	0.00000E+000	5.37824E-005	5.39641E-002	5.91000E-001	3.57300E+000	9	...........
	30	0.413333	5.97569E-001	9.11387E-005	0.00000E+000	5.44616E-005	5.39641E-002	5.97685E-001	3.57300E+000	9	...........
	31	0.426667	6.04106E-001	9.10001E-005	0.00000E+000	5.49737E-005	5.39641E-002	6.04250E-001	3.57300E+000	9	...........
	32	0.44	6.10517E-001	9.08438E-005	0.00000E+000	5.54617E-005	5.39641E-002	6.10678E-001	3.57300E+000	9	...........
	33	0.453333	6.16868E-001	9.08199E-005	0.00000E+000	5.60239E-005	5.39641E-002	6.17002E-001	3.57300E+000	9	...........
	34	0.466667	6.23023E-001	9.10460E-005	0.00000E+000	5.67237E-005	5.39641E-002	6.23147E-001	3.57300E+000	9	...........
	35	0.48	6.29053E-001	9.08793E-005	0.00000E+000	5.71679E-005	5.39641E-002	6.29198E-001	3.57300E+000	9	...........
	36	0.493333	6.34945E-001	9.11731E-005	0.00000E+000	5.78899E-005	5.39641E-002	6.35103E-001	3.57300E+000	9	...........
	37	0.506667	6.40806E-001	9.14721E-005	0.00000E+000	5.86159E-005	5.39641E-002	6.40926E-001	3.57300E+000	9	...........
	38	0.52	6.46462E-001	9.11356E-005	0.00000E+000	5.89157E-005	5.39641E-002	6.46617E-001	3.57300E+000	9	...........
	39	0.533333	6.52021E-001	9.12231E-005	0.00000E+000	5.94794E-005	5.39641E-002	6.52188E-001	3.57300E+000	9	...........
	40	0.546667	6.57504E-001	9.09668E-005	0.00000E+000	5.98111E-005	5.39641E-002	6.57639E-001	3.57300E+000	9	...........
	41	0.56	6.62889E-001	9.12762E-005	0.00000E+000	6.05060E-005	5.39641E-002	6.63059E-001	3.57300E+000	9	...........
	42	0.573333	6.68241E-001	9.10866E-005	0.00000E+000	6.08678E-005	5.39641E-002	6.68355E-001	3.57300E+000	9	...........
	43	0.586667	6.73419E-001	9.08657E-005	0.00000E+000	6.11907E-005	5.39641E-002	6.73558E-001	3.57300E+000	9	...........
	44	0.6	6.78568E-001	9.09480E-005	0.00000E+000	6.17145E-005	5.39641E-002	6.78692E-001	3.57300E+000	9	...........
	45	0.613333	6.83567E-001	9.09533E-005	0.00000E+000	6.21726E-005	5.39641E-002	6.83692E-001	3.57300E+000	9	...........
	46	0.626667	6.88531E-001	9.11533E-005	0.00000E+000	6.27619E-005	5.39641E-002	6.88659E-001	3.57300E+000	9	...........
	47	0.64	6.93414E-001	9.09293E-005	0.00000E+000	6.30516E-005	5.39641E-002	6.93515E-001	3.57300E+000	9	...........
	48	0.653333	6.98213E-001	9.08636E-005	0.00000E+000	6.34422E-005	5.39641E-002	6.98318E-001	3.57300E+000	9	...........
	49	0.666667	7.02907E-001	9.14002E-005	0.00000E+000	6.42459E-005	5.39641E-002	7.03029E-001	3.57300E+000	9	...........
	50	0.68	7.07547E-001	9.11845E-005	0.00000E+000	6.45173E-005	5.39641E-002	7.07696E-001	3.57300E+000	9	...........
	51	0.693333	7.12132E-001	9.10283E-005	0.00000E+000	6.48242E-005	5.39641E-002	7.12248E-001	3.57300E+000	9	...........
	52	0.706667	7.16651E-001	9.08709E-005	0.00000E+000	6.51228E-005	5.39641E-002	7.16785E-001	3.57300E+000	9	...........
	53	0.72	7.21104E-001	9.10637E-005	0.00000E+000	6.56664E-005	5.39641E-002	7.21216E-001	3.57300E+000	9	...........
	54	0.733333	7.25491E-001	9.11637E-005	0.00000E+000	6.61384E-005	5.39641E-002	7.25616E-001	3.57300E+000	9	...........
	55	0.746667	7.29819E-001	9.07667E-005	0.00000E+000	6.62433E-005	5.39641E-002	7.29959E-001	3.57300E+000	9	...........
	56	0.76	7.34085E-001	9.10397E-005	0.00000E+000	6.68309E-005	5.39641E-002	7.34216E-001	3.57300E+000	9	...........
	57	0.773333	7.38299E-001	9.09762E-005	0.00000E+000	6.71676E-005	5.39641E-002	7.38433E-001	3.57300E+000	9	...........
	58	0.786667	7.42517E-001	9.10262E-005	0.00000E+000	6.75885E-005	5.39641E-002	7.42659E-001	3.57300E+000	9	...........
	59	0.8	7.46649E-001	9.09928E-005	0.00000E+000	6.79397E-005	5.39641E-002	7.46778E-001	3.57300E+000	9	...........
	60	0.813333	7.50716E-001	9.11668E-005	0.00000E+000	6.84404E-005	5.39641E-002	7.50844E-001	3.57300E+000	9	...........
	61	0.826667	7.54752E-001	9.13137E-005	0.00000E+000	6.89192E-005	5.39641E-002	7.54887E-001	3.57300E+000	9	...........
	62	0.84	7.58727E-001	9.08866E-005	0.00000E+000	6.89581E-005	5.39641E-002	7.58855E-001	3.57300E+000	9	...........
	63	0.853333	7.62647E-001	9.09397E-005	0.00000E+000	6.93549E-005	5.39641E-002	7.62761E-001	3.57300E+000	9	...........
	64	0.866667	7.66513E-001	9.11314E-005	0.00000E+000	6.98535E-005	5.39641E-002	7.66642E-001	3.57300E+000	9	...........
	65	0.88	7.70364E-001	9.10428E-005	0.00000E+000	7.01361E-005	5.39641E-002	7.70477E-001	3.57300E+000	9	...........
	66	0.893333	7.74161E-001	9.10824E-005	0.00000E+000	7.05125E-005	5.39641E-002	7.74255E-001	3.57300E+000	9	...........
	67	0.906667	7.77888E-001	9.10147E-005	0.00000E+000	7.07992E-005	5.39641E-002	7.77989E-001	3.57300E+000	9	...........
	68	0.92	7.81600E-001	9.07386E-005	0.00000E+000	7.09213E-005	5.39641E-002	7.81696E-001	3.57300E+000	9	...........
	69	0.933333	7.85245E-001	9.10168E-005	0.00000E+000	7.14705E-005	5.39641E-002	7.85329E-001	3.57300E+000	9	...........
	70	0.946667	7.88845E-001	9.10449E-005	0.00000E+000	7.18204E-005	5.39641E-002	7.88926E-001	3.57343E+000	9	...........
	71	0.96	7.92438E-001	9.11095E-005	0.00000E+000	7.21987E-005	5.39641E-002	7.92561E-001	3.57420E+000	9	...........
	72	0.97333	7.95967E-001	9.07303E-005	0.00000E+000	7.22183E-005	5.39641E-002	7.96086E-001	3.57420E+000	9	...........
	73	0.98667	7.99454E-001	9.13356E-005	0.00000E+000	7.30187E-005	5.39641E-002	7.99545E-001	3.57420E+000	9	...........
	74	1	8.02874E-001	9.10522E-005	0.00000E+000	7.31035E-005	5.39641E-002	8.03005E-001	3.57420E+000	9	...........
	75	1.01333	8.06282E-001	9.08803E-005	0.00000E+000	7.32752E-005	5.39641E-002	8.06428E-001	3.57420E+000	9	...........
	76	1.02667	8.09641E-001	9.12794E-005	0.00000E+000	7.39035E-005	5.39641E-002	8.09793E-001	3.57420E+000	9	...........
	77	1.04	8.12964E-001	9.08970E-005	0.00000E+000	7.38960E-005	5.39641E-002	8.13142E-001	3.57420E+000	9	...........
	78	1.05333	8.16283E-001	9.08668E-005	0.00000E+000	7.41730E-005	5.39641E-002	8.16475E-001	3.57420E+000	9	...........
	79	1.06667	8.19603E-001	9.11043E-005	0.00000E+000	7.46694E-005	5.39641E-002	8.19765E-001	3.57420E+000	9	...........
	80	1.08	8.22816E-001	9.10376E-005	0.00000E+000	7.49072E-005	5.39641E-002	8.22992E-001	3.57420E+000	9	...........
	81	1.09333	8.26015E-001	9.10553E-005	0.00000E+000	7.52131E-005	5.39641E-002	8.26168E-001	3.57420E+000	9	...........
	82	1.10667	8.29172E-001	9.11741E-005	0.00000E+000	7.55990E-005	5.39641E-002	8.29316E-001	3.57420E+000	9	...........
	83	1.12	8.32314E-001	9.11793E-005	0.00000E+000	7.58898E-005	5.39641E-002	8.32440E-001	3.57420E+000	9	...........
	84	1.13333	8.35421E-001	9.09678E-005	0.00000E+000	7.59965E-005	5.39641E-002	8.35567E-001	3.57420E+000	9	...........
	85	1.14667	8.38506E-001	9.10533E-005	0.00000E+000	7.63487E-005	5.39641E-002	8.38646E-001	3.57420E+000	9	...........
	86	1.16	8.41522E-001	9.10449E-005	0.00000E+000	7.66164E-005	5.39641E-002	8.41664E-001	3.57420E+000	9	...........
	87	1.17333	8.44591E-001	9.10001E-005	0.00000E+000	7.68579E-005	5.39641E-002	8.44733E-001	3.57420E+000	9	...........
	88	1.18667	8.47582E-001	9.09939E-005	0.00000E+000	7.71248E-005	5.39641E-002	8.47737E-001	3.57420E+000	9	...........
	89	1.2	8.50537E-001	9.10356E-005	0.00000E+000	7.74291E-005	5.39641E-002	8.50723E-001	3.57420E+000	9	...........
	90	1.21333	8.53473E-001	9.13648E-005	0.00000E+000	7.79774E-005	5.39641E-002	8.53622E-001	3.57420E+000	9	...........
	91	1.22667	8.56332E-001	9.09532E-005	0.00000E+000	7.78861E-005	5.39641E-002	8.56526E-001	3.57420E+000	9	...........
	92	1.24	8.59205E-001	9.10564E-005	0.00000E+000	7.82361E-005	5.39641E-002	8.59398E-001	3.57420E+000	9	...........
	93	1.25333	8.62068E-001	9.09220E-005	0.00000E+000	7.83809E-005	5.39641E-002	8.62231E-001	3.57420E+000	9	...........
	94	1.26667	8.64851E-001	9.13075E-005	0.00000E+000	7.89674E-005	5.39641E-002	8.65024E-001	3.57420E+000	9	...........
	95	1.28	8.67647E-001	9.08887E-005	0.00000E+000	7.88593E-005	5.39641E-002	8.67798E-001	3.57420E+000	9	...........
	96	1.29333	8.70446E-001	9.11356E-005	0.00000E+000	7.93286E-005	5.39641E-002	8.70576E-001	3.57420E+000	9	...........
	97	1.30667	8.73158E-001	9.11585E-005	0.00000E+000	7.95958E-005	5.39641E-002	8.73304E-001	3.57420E+000	9	...........
	98	1.32	8.75855E-001	9.09522E-005	0.00000E+000	7.96610E-005	5.39641E-002	8.76014E-001	3.57420E+000	9	...........
	99	1.33333	8.78521E-001	9.07855E-005	0.00000E+000	7.97570E-005	5.39641E-002	8.78693E-001	3.57420E+000	9	...........
	100	1.34667	8.81156E-001	9.11564E-005	0.00000E+000	8.03230E-005	5.39641E-002	8.81343E-001	3.57420E+000	9	...........
	101	1.36	8.83787E-001	9.12273E-005	0.00000E+000	8.06255E-005	5.39641E-002	8.83997E-001	3.57420E+000	9	...........
	102	1.37333	8.86385E-001	9.11252E-005	0.00000E+000	8.07720E-005	5.39641E-002	8.86577E-001	3.57420E+000	9	...........
	103	1.38667	8.88926E-001	9.10418E-005	0.00000E+000	8.09295E-005	5.39641E-002	8.89131E-001	3.57420E+000	9	...........
	104	1.4	8.91446E-001	9.11720E-005	0.00000E+000	8.12749E-005	5.39641E-002	8.91667E-001	3.57420E+000	9	...........
	105	1.41333	8.93923E-001	9.09783E-005	0.00000E+000	8.13276E-005	5.39641E-002	8.94140E-001	3.57420E+000	9	...........
	106	1.42667	8.96425E-001	9.11689E-005	0.00000E+000	8.17261E-005	5.39641E-002	8.96639E-001	3.57420E+000	9	...........
	107	1.44	8.98871E-001	9.10658E-005	0.00000E+000	8.18564E-005	5.39641E-002	8.99074E-001	3.57420E+000	9	...........
	108	1.45333	9.01287E-001	9.09751E-005	0.00000E+000	8.19947E-005	5.39641E-002	9.01508E-001	3.57420E+000	9	...........
	109	1.46667	9.03678E-001	9.12314E-005	0.00000E+000	8.24438E-005	5.39641E-002	9.03892E-001	3.57420E+000	9	...........
	110	1.48	9.06068E-001	9.11564E-005	0.00000E+000	8.25939E-005	5.39641E-002	9.06273E-001	3.57420E+000	9	...........
	111	1.49333	9.08425E-001	9.07959E-005	0.00000E+000	8.24813E-005	5.39641E-002	9.08625E-001	3.57420E+000	9	...........
	112	1.50667	9.10742E-001	9.08345E-005	0.00000E+000	8.27268E-005	5.39641E-002	9.10920E-001	3.57420E+000	9	...........
	113	1.52	9.13041E-001	9.10314E-005	0.00000E+000	8.31154E-005	5.39641E-002	9.13232E-001	3.57420E+000	9	...........
	114	1.53333	9.15307E-001	9.11991E-005	0.00000E+000	8.34752E-005	5.39641E-002	9.15534E-001	3.57420E+000	9	...........
	115	1.54667	9.17554E-001	9.09647E-005	0.00000E+000	8.34651E-005	5.39641E-002	9.17767E-001	3.57420E+000	9	...........
	116	1.56	9.19811E-001	9.11637E-005	0.00000E+000	8.38534E-005	5.39641E-002	9.19992E-001	3.57420E+000	9	...........
	117	1.57333	9.22060E-001	9.09741E-005	0.00000E+000	8.38835E-005	5.39641E-002	9.22204E-001	3.57420E+000	9	...........
	118	1.58667	9.24234E-001	9.11689E-005	0.00000E+000	8.42614E-005	5.39641E-002	9.24410E-001	3.57420E+000	9	...........
	119	1.6	9.26398E-001	9.12137E-005	0.00000E+000	8.45002E-005	5.39641E-002	9.26575E-001	3.57420E+000	9	...........
	120	1.61333	9.28525E-001	9.12919E-005	0.00000E+000	8.47667E-005	5.39641E-002	9.28700E-001	3.57420E+000	9	...........
	121	1.62667	9.30634E-001	9.10262E-005	0.00000E+000	8.47121E-005	5.39641E-002	9.30815E-001	3.57420E+000	9	...........
	122	1.64	9.32707E-001	9.11325E-005	0.00000E+000	8.49999E-005	5.39641E-002	9.32898E-001	3.57420E+000	9	...........
	123	1.65333	9.34786E-001	9.10793E-005	0.00000E+000	8.51396E-005	5.39641E-002	9.34977E-001	3.57420E+000	9	...........
	124	1.66667	9.36803E-001	9.09970E-005	0.00000E+000	8.52462E-005	5.39641E-002	9.36994E-001	3.57420E+000	9	...........
	125	1.68	9.38803E-001	9.10679E-005	0.00000E+000	8.54948E-005	5.39641E-002	9.39006E-001	3.57420E+000	9	...........
	126	1.69333	9.40804E-001	9.09407E-005	0.00000E+000	8.55574E-005	5.39641E-002	9.40999E-001	3.57420E+000	9	...........
	127	1.70667	9.42771E-001	9.09689E-005	0.00000E+000	8.57628E-005	5.39641E-002	9.42951E-001	3.57420E+000	9	...........
	128	1.72	9.44709E-001	9.11720E-005	0.00000E+000	8.61311E-005	5.39641E-002	9.44883E-001	3.57420E+000	9	...........
	129	1.73333	9.46666E-001	9.13075E-005	0.00000E+000	8.64377E-005	5.39641E-002	9.46846E-001	3.57420E+000	9	...........
	130	1.74667	9.48610E-001	9.11272E-005	0.00000E+000	8.64442E-005	5.39641E-002	9.48748E-001	3.57420E+000	9	...........
	131	1.76	9.50489E-001	9.09230E-005	0.00000E+000	8.64213E-005	5.39641E-002	9.50628E-001	3.57420E+000	9	...........
	132	1.77333	9.52347E-001	9.10658E-005	0.00000E+000	8.67262E-005	5.39641E-002	9.52483E-001	3.57420E+000	9	...........
	133	1.78667	9.54185E-001	9.09595E-005	0.00000E+000	8.67922E-005	5.39641E-002	9.54296E-001	3.57420E+000	9	...........
	134	1.8	9.56014E-001	9.10168E-005	0.00000E+000	8.70133E-005	5.39641E-002	9.56106E-001	3.57420E+000	9	...........
	135	1.81333	9.57800E-001	9.08876E-005	0.00000E+000	8.70522E-005	5.39641E-002	9.57934E-001	3.57420E+000	9	...........
	136	1.82667	9.59592E-001	9.13252E-005	0.00000E+000	8.76350E-005	5.39641E-002	9.59740E-001	3.57420E+000	9	...........
	137	1.84	9.61348E-001	9.12293E-005	0.00000E+000	8.77031E-005	5.39641E-002	9.61526E-001	3.57420E+000	9	...........
	138	1.85333	9.63107E-001	9.08084E-005	0.00000E+000	8.74583E-005	5.39641E-002	9.63289E-001	3.57420E+000	9	...........
	139	1.86667	9.64862E-001	9.10929E-005	0.00000E+000	8.78920E-005	5.39641E-002	9.65063E-001	3.57420E+000	9	...........
	140	1.88	9.66592E-001	9.10939E-005	0.00000E+000	8.80507E-005	5.39641E-002	9.66800E-001	3.57420E+000	9	...........
	141	1.89333	9.68287E-001	9.09522E-005	0.00000E+000	8.80678E-005	5.39641E-002	9.68504E-001	3.57420E+000	9	...........
	142	1.90667	9.69954E-001	9.08762E-005	0.00000E+000	8.81457E-005	5.39641E-002	9.70179E-001	3.57420E+000	9	...........
	143	1.92	9.71618E-001	9.10137E-005	0.00000E+000	8.84305E-005	5.39641E-002	9.71856E-001	3.57420E+000	9	...........
	144	1.93333	9.73327E-001	9.09897E-005	0.00000E+000	8.85628E-005	5.39641E-002	9.73501E-001	3.57420E+000	9	...........
	145	1.94667	9.74927E-001	9.10939E-005	0.00000E+000	8.88099E-005	5.39641E-002	9.75126E-001	3.57391E+000	9	...........
	146	1.96	9.76532E-001	9.10533E-005	0.00000E+000	8.89165E-005	5.39641E-002	9.76732E-001	3.57340E+000	9	...........
	147	1.97333	9.78105E-001	9.08730E-005	0.00000E+000	8.88834E-005	5.39641E-002	9.78320E-001	3.57340E+000	9	...........
	148	1.98667	9.79676E-001	9.11460E-005	0.00000E+000	8.92935E-005	5.39641E-002	9.79869E-001	3.57340E+000	9	...........
	149	2	9.81203E-001	9.08022E-005	0.00000E+000	8.90954E-005	5.39641E-002	9.81405E-001	3.57340E+000	9	...........
	150	2.01333	9.82736E-001	9.10991E-005	0.00000E+000	8.95264E-005	5.39641E-002	9.82942E-001	3.57340E+000	9	...........
	151	2.02667	9.84250E-001	9.10106E-005	0.00000E+000	8.95772E-005	5.39641E-002	9.84460E-001	3.57340E+000	9	...........
	152	2.04	9.85754E-001	9.09897E-005	0.00000E+000	8.96935E-005	5.39641E-002	9.85991E-001	3.57340E+000	9	...........
	153	2.05333	9.87238E-001	9.10241E-005	0.00000E+000	8.98624E-005	5.39641E-002	9.87462E-001	3.57340E+000	9	...........
	154	2.06667	9.88718E-001	9.11262E-005	0.00000E+000	9.00981E-005	5.39641E-002	9.88946E-001	3.57340E+000	9	...........
	155	2.08	9.90194E-001	9.11106E-005	0.00000E+000	9.02171E-005	5.39641E-002	9.90414E-001	3.57340E+000	9	...........
	156	2.09333	9.91662E-001	9.08532E-005	0.00000E+000	9.00957E-005	5.39641E-002	9.91849E-001	3.57340E+000	9	...........
	157	2.10667	9.93090E-001	9.09460E-005	0.00000E+000	9.03175E-005	5.39641E-002	9.93300E-001	3.57340E+000	9	...........
	158	2.12	9.94508E-001	9.09012E-005	0.00000E+000	9.04019E-005	5.39641E-002	9.94684E-001	3.57340E+000	9	...........
	159	2.13333	9.95920E-001	9.10991E-005	0.00000E+000	9.07274E-005	5.39641E-002	9.96067E-001	3.57340E+000	9	...........
	160	2.14667	9.97310E-001	9.08491E-005	0.00000E+000	9.06047E-005	5.39641E-002	9.97481E-001	3.57340E+000	9	...........
	161	2.16	9.98697E-001	9.12564E-005	0.00000E+000	9.11375E-005	5.39641E-002	9.98865E-001	3.57340E+000	9	...........
	162	2.16833	9.99792E-001	9.13694E-005	0.00000E+000	9.13504E-005	5.39641E-002	9.99977E-001	3.57340E+000	9	...........
STARTTIMEOFFSET	QUANT	3710.619	Start Time Offset (s)
