EXPLAIN
TAG	PWR800_CHARGE
TITLE	LABEL	PWR Cyclic Charge Discharge (Cell) - Charge Step	Test &Identifier
DATE	LABEL	10-7-2017	Date
TIME	LABEL	16:22:25	Time
NOTES	NOTES	3	&Notes...
	supercap test cell
	0.9mg
	6M KOH
PSTAT	PSTAT	IFC5000-01520	Potentiostat
CAPACITY	QUANT	1.00000E-003	Capacity (A-hr)
CELLTYPE	SELECTOR	1	&Cell Type
WORKINGCONNECTION	SELECTOR	0	&Working Lead
MAXCHARGETIME	VARIABLEANDUNITS	1.00000E+002	s	1.00000E+002	second(s)	Max &Charge Time
CHARGECURRENT	QUANT	9.00000E-005	&Charge Current (A) 
VOLTAGEFINISH	TWOPARAM	F	1.00000E-003	3.60000E+003	&Voltage Finish	 I (A) < 	Max Time(s)
SAMPLETIME	QUANT	1.00000E-002	Sa&mple Period (s)
CHARGESTOPAT1	MULTIPARAM	4	1.00000E+000	Charge Stop At &1	Voltage > Limit	V
CHARGESTOPAT2	MULTIPARAM	0	0.00000E+000	Charge Stop At &2	None	N/A
AESBHCSELECTOR	TOGGLE	F	Save Both Half Cells
IRCOMP	TOGGLE	F	IR &Measure
EOC	QUANT	0	Open Circuit (V)
SEQUENCER	TOGGLE	TRUE	Run as Sequence
PSTATMODEL	IQUANT	53	Pstat Model
PSTATSECTION	LABEL	IFC5000-01520	Pstat Section
PSTATSERIALNO	LABEL	01520	Pstat Serial Number
CTRLMODE	IQUANT	0	Control Mode
ELECTROMETER	IQUANT	1	RE=0 or CS=1
IESTAB	IQUANT	0	I/E Stability
CASPEED	IQUANT	4	Control Amp Speed
CONVENTION	IQUANT	1	Current Convention
ICHRANGE	IQUANT	2	Ich Range
ICHRANGEMODE	TOGGLE	T	Ich Auto Range
ICHOFFSETENABLE	TOGGLE	F	Ich Offset Enable
ICHOFFSET	QUANT	0	Ich Offset (V)
ICHFILTER	IQUANT	1	Ich Filter
VCHRANGE	IQUANT	2	Vch Range
VCHRANGEMODE	TOGGLE	T	Vch Auto Range
VCHOFFSETENABLE	TOGGLE	F	Vch Offset Enable
VCHOFFSET	QUANT	0	Vch Offset (V)
VCHFILTER	IQUANT	1	Vch Filter
IERANGELOWERLIMIT	IQUANT	9	I/E Range Lower Limit
IERANGEMODE	TOGGLE	F	I/E AutoRange
IERANGE	IQUANT	9	I/E Range
ACHSELECT	IQUANT	1	Ach Select
ACHRANGE	IQUANT	2	Ach Range
ACHOFFSETENABLE	TOGGLE	F	Ach Offset Enable
ACHOFFSET	QUANT	0	Ach Offset (V)
ACHFILTER	IQUANT	1	Ach Filter
CABLEID	IQUANT	14	Cable ID
DCCALDATE	LABEL	5-7-2017	DC Calibration Date
ACCALDATE	LABEL	12/3/2015	AC Calibration Date
FRAMEWORKVERSION	QUANT	7.01	Framework Version
INSTRUMENTVERSION	LABEL	4.00	Instrument Version
CURVE	TABLE	161
	Pt	T	Vf	Im	Vu	Pwr	Sig	Ach	Temp	IERange	Over
	#	s	V	A	V	W	V	V	deg C	#	bits
	0	0.013333	2.60681E-001	9.09762E-005	0.00000E+000	2.37158E-005	5.39641E-002	2.60731E-001	3.57330E+000	9	...........
	1	0.026667	2.80435E-001	9.09355E-005	0.00000E+000	2.55015E-005	5.39641E-002	2.80478E-001	3.57330E+000	9	...........
	2	0.04	2.99029E-001	9.10262E-005	0.00000E+000	2.72195E-005	5.39641E-002	2.99068E-001	3.57330E+000	9	...........
	3	0.053333	3.16618E-001	9.09105E-005	0.00000E+000	2.87839E-005	5.39641E-002	3.16657E-001	3.57330E+000	9	...........
	4	0.066667	3.33293E-001	9.09626E-005	0.00000E+000	3.03172E-005	5.39641E-002	3.33329E-001	3.57330E+000	9	...........
	5	0.08	3.49152E-001	9.10679E-005	0.00000E+000	3.17965E-005	5.39641E-002	3.49192E-001	3.57330E+000	9	...........
	6	0.093333	3.64267E-001	9.09710E-005	0.00000E+000	3.31377E-005	5.39641E-002	3.64312E-001	3.57330E+000	9	...........
	7	0.106667	3.78686E-001	9.06094E-005	0.00000E+000	3.43125E-005	5.39641E-002	3.78733E-001	3.57330E+000	9	...........
	8	0.12	3.92461E-001	9.09418E-005	0.00000E+000	3.56911E-005	5.39641E-002	3.92506E-001	3.57330E+000	9	...........
	9	0.133333	4.05639E-001	9.07824E-005	0.00000E+000	3.68249E-005	5.39641E-002	4.05696E-001	3.57330E+000	9	...........
	10	0.146667	4.18277E-001	9.10439E-005	0.00000E+000	3.80816E-005	5.39641E-002	4.18328E-001	3.57330E+000	9	...........
	11	0.16	4.30387E-001	9.08511E-005	0.00000E+000	3.91012E-005	5.39641E-002	4.30447E-001	3.57330E+000	9	...........
	12	0.173333	4.42021E-001	9.09522E-005	0.00000E+000	4.02028E-005	5.39641E-002	4.42086E-001	3.57330E+000	9	...........
	13	0.186667	4.53218E-001	9.08772E-005	0.00000E+000	4.11871E-005	5.39641E-002	4.53275E-001	3.57330E+000	9	...........
	14	0.2	4.63992E-001	9.08616E-005	0.00000E+000	4.21591E-005	5.39641E-002	4.64057E-001	3.57330E+000	9	...........
	15	0.213333	4.74377E-001	9.08876E-005	0.00000E+000	4.31150E-005	5.39641E-002	4.74442E-001	3.57330E+000	9	...........
	16	0.226667	4.84406E-001	9.11418E-005	0.00000E+000	4.41497E-005	5.39641E-002	4.84468E-001	3.57330E+000	9	...........
	17	0.24	4.94105E-001	9.07074E-005	0.00000E+000	4.48190E-005	5.39641E-002	4.94178E-001	3.57330E+000	9	...........
	18	0.253333	5.03496E-001	9.09439E-005	0.00000E+000	4.57898E-005	5.39641E-002	5.03569E-001	3.57330E+000	9	...........
	19	0.266667	5.12611E-001	9.09793E-005	0.00000E+000	4.66369E-005	5.39641E-002	5.12683E-001	3.57330E+000	9	...........
	20	0.28	5.21437E-001	9.08251E-005	0.00000E+000	4.73596E-005	5.39641E-002	5.21512E-001	3.57330E+000	9	...........
	21	0.293333	5.29982E-001	9.11898E-005	0.00000E+000	4.83290E-005	5.39641E-002	5.30044E-001	3.57330E+000	9	...........
	22	0.306667	5.38200E-001	9.10022E-005	0.00000E+000	4.89774E-005	5.39641E-002	5.38289E-001	3.57330E+000	9	...........
	23	0.32	5.46271E-001	9.08168E-005	0.00000E+000	4.96105E-005	5.39641E-002	5.46382E-001	3.57330E+000	9	...........
	24	0.333333	5.54137E-001	9.10668E-005	0.00000E+000	5.04635E-005	5.39641E-002	5.54227E-001	3.57330E+000	9	...........
	25	0.346667	5.61779E-001	9.10241E-005	0.00000E+000	5.11354E-005	5.39641E-002	5.61895E-001	3.57330E+000	9	...........
	26	0.36	5.69252E-001	9.09199E-005	0.00000E+000	5.17563E-005	5.39641E-002	5.69347E-001	3.57330E+000	9	...........
	27	0.373333	5.76483E-001	9.08199E-005	0.00000E+000	5.23561E-005	5.39641E-002	5.76591E-001	3.57330E+000	9	...........
	28	0.386667	5.83546E-001	9.09470E-005	0.00000E+000	5.30717E-005	5.39641E-002	5.83658E-001	3.57330E+000	9	...........
	29	0.4	5.90463E-001	9.09960E-005	0.00000E+000	5.37298E-005	5.39641E-002	5.90590E-001	3.57330E+000	9	...........
	30	0.413333	5.97241E-001	9.08564E-005	0.00000E+000	5.42631E-005	5.39641E-002	5.97358E-001	3.57330E+000	9	...........
	31	0.426667	6.03832E-001	9.09241E-005	0.00000E+000	5.49029E-005	5.39641E-002	6.03987E-001	3.57330E+000	9	...........
	32	0.44	6.10264E-001	9.10949E-005	0.00000E+000	5.55920E-005	5.39641E-002	6.10399E-001	3.57330E+000	9	...........
	33	0.453333	6.16656E-001	9.09678E-005	0.00000E+000	5.60958E-005	5.39641E-002	6.16767E-001	3.57330E+000	9	...........
	34	0.466667	6.22849E-001	9.08293E-005	0.00000E+000	5.65729E-005	5.39641E-002	6.22919E-001	3.57330E+000	9	...........
	35	0.48	6.28863E-001	9.09262E-005	0.00000E+000	5.71801E-005	5.39641E-002	6.28994E-001	3.57330E+000	9	...........
	36	0.493333	6.34809E-001	9.09647E-005	0.00000E+000	5.77452E-005	5.39641E-002	6.34916E-001	3.57330E+000	9	...........
	37	0.506667	6.40673E-001	9.11960E-005	0.00000E+000	5.84268E-005	5.39641E-002	6.40789E-001	3.57330E+000	9	...........
	38	0.52	6.46403E-001	9.09189E-005	0.00000E+000	5.87702E-005	5.39641E-002	6.46527E-001	3.57390E+000	9	...........
	39	0.533333	6.52020E-001	9.09616E-005	0.00000E+000	5.93088E-005	5.39641E-002	6.52147E-001	3.57450E+000	9	...........
	40	0.546667	6.57537E-001	9.11710E-005	0.00000E+000	5.99483E-005	5.39641E-002	6.57647E-001	3.57450E+000	9	...........
	41	0.56	6.62915E-001	9.12919E-005	0.00000E+000	6.05188E-005	5.39641E-002	6.63083E-001	3.57450E+000	9	...........
	42	0.573333	6.68293E-001	9.09168E-005	0.00000E+000	6.07591E-005	5.39641E-002	6.68404E-001	3.57450E+000	9	...........
	43	0.586667	6.73498E-001	9.07011E-005	0.00000E+000	6.10870E-005	5.39641E-002	6.73615E-001	3.57450E+000	9	...........
	44	0.6	6.78670E-001	9.09355E-005	0.00000E+000	6.17152E-005	5.39641E-002	6.78760E-001	3.57450E+000	9	...........
	45	0.613333	6.83703E-001	9.08741E-005	0.00000E+000	6.21308E-005	5.39641E-002	6.83813E-001	3.57450E+000	9	...........
	46	0.626667	6.88632E-001	9.08209E-005	0.00000E+000	6.25422E-005	5.39641E-002	6.88752E-001	3.57450E+000	9	...........
	47	0.64	6.93539E-001	9.09939E-005	0.00000E+000	6.31078E-005	5.39641E-002	6.93662E-001	3.57450E+000	9	...........
	48	0.653333	6.98372E-001	9.09262E-005	0.00000E+000	6.35003E-005	5.39641E-002	6.98499E-001	3.57450E+000	9	...........
	49	0.666667	7.03136E-001	9.08376E-005	0.00000E+000	6.38712E-005	5.39641E-002	7.03240E-001	3.57450E+000	9	...........
	50	0.68	7.07802E-001	9.06303E-005	0.00000E+000	6.41483E-005	5.39641E-002	7.07923E-001	3.57450E+000	9	...........
	51	0.693333	7.12420E-001	9.08261E-005	0.00000E+000	6.47063E-005	5.39641E-002	7.12519E-001	3.57450E+000	9	...........
	52	0.706667	7.16980E-001	9.08303E-005	0.00000E+000	6.51235E-005	5.39641E-002	7.17096E-001	3.57450E+000	9	...........
	53	0.72	7.21509E-001	9.07563E-005	0.00000E+000	6.54815E-005	5.39641E-002	7.21589E-001	3.57450E+000	9	...........
	54	0.733333	7.25938E-001	9.08845E-005	0.00000E+000	6.59765E-005	5.39641E-002	7.26043E-001	3.57450E+000	9	...........
	55	0.746667	7.30294E-001	9.05938E-005	0.00000E+000	6.61601E-005	5.39641E-002	7.30419E-001	3.57450E+000	9	...........
	56	0.76	7.34575E-001	9.10283E-005	0.00000E+000	6.68671E-005	5.39641E-002	7.34719E-001	3.57450E+000	9	...........
	57	0.773333	7.38816E-001	9.07845E-005	0.00000E+000	6.70730E-005	5.39641E-002	7.38975E-001	3.57450E+000	9	...........
	58	0.786667	7.43065E-001	9.10512E-005	0.00000E+000	6.76569E-005	5.39641E-002	7.43208E-001	3.57450E+000	9	...........
	59	0.8	7.47205E-001	9.10335E-005	0.00000E+000	6.80207E-005	5.39641E-002	7.47346E-001	3.57450E+000	9	...........
	60	0.813333	7.51305E-001	9.08709E-005	0.00000E+000	6.82718E-005	5.39641E-002	7.51441E-001	3.57450E+000	9	...........
	61	0.826667	7.55357E-001	9.11918E-005	0.00000E+000	6.88824E-005	5.39641E-002	7.55517E-001	3.57450E+000	9	...........
	62	0.84	7.59355E-001	9.10168E-005	0.00000E+000	6.91140E-005	5.39641E-002	7.59470E-001	3.57450E+000	9	...........
	63	0.853333	7.63295E-001	9.10324E-005	0.00000E+000	6.94846E-005	5.39641E-002	7.63439E-001	3.57450E+000	9	...........
	64	0.866667	7.67179E-001	9.10689E-005	0.00000E+000	6.98661E-005	5.39641E-002	7.67345E-001	3.57450E+000	9	...........
	65	0.88	7.71075E-001	9.10908E-005	0.00000E+000	7.02378E-005	5.39641E-002	7.71192E-001	3.57450E+000	9	...........
	66	0.893333	7.74902E-001	9.10647E-005	0.00000E+000	7.05662E-005	5.39641E-002	7.75015E-001	3.57450E+000	9	...........
	67	0.906667	7.78663E-001	9.12585E-005	0.00000E+000	7.10596E-005	5.39641E-002	7.78802E-001	3.57450E+000	9	...........
	68	0.92	7.82422E-001	9.07761E-005	0.00000E+000	7.10252E-005	5.39641E-002	7.82551E-001	3.57450E+000	9	...........
	69	0.933333	7.86092E-001	9.12137E-005	0.00000E+000	7.17024E-005	5.39641E-002	7.86199E-001	3.57450E+000	9	...........
	70	0.946667	7.89723E-001	9.10647E-005	0.00000E+000	7.19159E-005	5.39641E-002	7.89857E-001	3.57450E+000	9	...........
	71	0.96	7.93371E-001	9.12314E-005	0.00000E+000	7.23804E-005	5.39641E-002	7.93483E-001	3.57450E+000	9	...........
	72	0.97333	7.96940E-001	9.09991E-005	0.00000E+000	7.25208E-005	5.39641E-002	7.97044E-001	3.57450E+000	9	...........
	73	0.98667	8.00477E-001	9.12273E-005	0.00000E+000	7.30254E-005	5.39641E-002	8.00601E-001	3.57450E+000	9	...........
	74	1	8.03972E-001	9.08501E-005	0.00000E+000	7.30410E-005	5.39641E-002	8.04126E-001	3.57450E+000	9	...........
	75	1.01333	8.07427E-001	9.10001E-005	0.00000E+000	7.34760E-005	5.39641E-002	8.07592E-001	3.57450E+000	9	...........
	76	1.02667	8.10856E-001	9.09345E-005	0.00000E+000	7.37348E-005	5.39641E-002	8.11011E-001	3.57450E+000	9	...........
	77	1.04	8.14259E-001	9.09783E-005	0.00000E+000	7.40798E-005	5.39641E-002	8.14402E-001	3.57450E+000	9	...........
	78	1.05333	8.17614E-001	9.07761E-005	0.00000E+000	7.42198E-005	5.39641E-002	8.17772E-001	3.57450E+000	9	...........
	79	1.06667	8.20946E-001	9.09574E-005	0.00000E+000	7.46711E-005	5.39641E-002	8.21117E-001	3.57450E+000	9	...........
	80	1.08	8.24222E-001	9.09449E-005	0.00000E+000	7.49588E-005	5.39641E-002	8.24406E-001	3.57450E+000	9	...........
	81	1.09333	8.27472E-001	9.07542E-005	0.00000E+000	7.50966E-005	5.39641E-002	8.27617E-001	3.57450E+000	9	...........
	82	1.10667	8.30656E-001	9.11012E-005	0.00000E+000	7.56737E-005	5.39641E-002	8.30847E-001	3.57450E+000	9	...........
	83	1.12	8.33823E-001	9.10606E-005	0.00000E+000	7.59284E-005	5.39641E-002	8.34026E-001	3.57450E+000	9	...........
	84	1.13333	8.36968E-001	9.10741E-005	0.00000E+000	7.62261E-005	5.39641E-002	8.37165E-001	3.57450E+000	9	...........
	85	1.14667	8.40084E-001	9.09345E-005	0.00000E+000	7.63927E-005	5.39641E-002	8.40259E-001	3.57450E+000	9	...........
	86	1.16	8.43194E-001	9.08959E-005	0.00000E+000	7.66429E-005	5.39641E-002	8.43374E-001	3.57450E+000	9	...........
	87	1.17333	8.46279E-001	9.07261E-005	0.00000E+000	7.67796E-005	5.39641E-002	8.46483E-001	3.57450E+000	9	...........
	88	1.18667	8.49313E-001	9.08803E-005	0.00000E+000	7.71858E-005	5.39641E-002	8.49499E-001	3.57450E+000	9	...........
	89	1.2	8.52298E-001	9.13825E-005	0.00000E+000	7.78851E-005	5.39641E-002	8.52491E-001	3.57450E+000	9	...........
	90	1.21333	8.55259E-001	9.11272E-005	0.00000E+000	7.79374E-005	5.39641E-002	8.55438E-001	3.57450E+000	9	...........
	91	1.22667	8.58182E-001	9.11835E-005	0.00000E+000	7.82521E-005	5.39641E-002	8.58388E-001	3.57450E+000	9	...........
	92	1.24	8.61095E-001	9.11731E-005	0.00000E+000	7.85087E-005	5.39641E-002	8.61273E-001	3.57450E+000	9	...........
	93	1.25333	8.63922E-001	9.07761E-005	0.00000E+000	7.84235E-005	5.39641E-002	8.64108E-001	3.57450E+000	9	...........
	94	1.26667	8.66753E-001	9.10251E-005	0.00000E+000	7.88963E-005	5.39641E-002	8.66964E-001	3.57450E+000	9	...........
	95	1.28	8.69585E-001	9.11877E-005	0.00000E+000	7.92955E-005	5.39641E-002	8.69781E-001	3.57450E+000	9	...........
	96	1.29333	8.72384E-001	9.11450E-005	0.00000E+000	7.95134E-005	5.39641E-002	8.72578E-001	3.57450E+000	9	...........
	97	1.30667	8.75127E-001	9.10481E-005	0.00000E+000	7.96786E-005	5.39641E-002	8.75326E-001	3.57450E+000	9	...........
	98	1.32	8.77840E-001	9.09845E-005	0.00000E+000	7.98698E-005	5.39641E-002	8.78049E-001	3.57450E+000	9	...........
	99	1.33333	8.80513E-001	9.10824E-005	0.00000E+000	8.01993E-005	5.39641E-002	8.80741E-001	3.57450E+000	9	...........
	100	1.34667	8.83214E-001	9.08709E-005	0.00000E+000	8.02585E-005	5.39641E-002	8.83419E-001	3.57450E+000	9	...........
	101	1.36	8.85865E-001	9.09939E-005	0.00000E+000	8.06083E-005	5.39641E-002	8.86055E-001	3.57450E+000	9	...........
	102	1.37333	8.88467E-001	9.09960E-005	0.00000E+000	8.08469E-005	5.39641E-002	8.88652E-001	3.57450E+000	9	...........
	103	1.38667	8.91037E-001	9.10178E-005	0.00000E+000	8.11003E-005	5.39641E-002	8.91218E-001	3.57450E+000	9	...........
	104	1.4	8.93588E-001	9.08959E-005	0.00000E+000	8.12235E-005	5.39641E-002	8.93782E-001	3.57450E+000	9	...........
	105	1.41333	8.96143E-001	9.11116E-005	0.00000E+000	8.16490E-005	5.39641E-002	8.96338E-001	3.57450E+000	9	...........
	106	1.42667	8.98650E-001	9.09720E-005	0.00000E+000	8.17520E-005	5.39641E-002	8.98843E-001	3.57450E+000	9	...........
	107	1.44	9.01113E-001	9.10877E-005	0.00000E+000	8.20803E-005	5.39641E-002	9.01335E-001	3.57450E+000	9	...........
	108	1.45333	9.03587E-001	9.09043E-005	0.00000E+000	8.21399E-005	5.39641E-002	9.03787E-001	3.57450E+000	9	...........
	109	1.46667	9.06010E-001	9.08439E-005	0.00000E+000	8.23054E-005	5.39641E-002	9.06188E-001	3.57450E+000	9	...........
	110	1.48	9.08405E-001	9.10231E-005	0.00000E+000	8.26858E-005	5.39641E-002	9.08599E-001	3.57450E+000	9	...........
	111	1.49333	9.10791E-001	9.08355E-005	0.00000E+000	8.27321E-005	5.39641E-002	9.10962E-001	3.57450E+000	9	...........
	112	1.50667	9.13109E-001	9.09397E-005	0.00000E+000	8.30379E-005	5.39641E-002	9.13314E-001	3.57450E+000	9	...........
	113	1.52	9.15441E-001	9.10314E-005	0.00000E+000	8.33339E-005	5.39641E-002	9.15637E-001	3.57410E+000	9	...........
	114	1.53333	9.17724E-001	9.10241E-005	0.00000E+000	8.35350E-005	5.39641E-002	9.17912E-001	3.57370E+000	9	...........
	115	1.54667	9.19981E-001	9.10710E-005	0.00000E+000	8.37836E-005	5.39641E-002	9.20164E-001	3.57370E+000	9	...........
	116	1.56	9.22289E-001	9.10731E-005	0.00000E+000	8.39956E-005	5.39641E-002	9.22437E-001	3.57370E+000	9	...........
	117	1.57333	9.24497E-001	9.10053E-005	0.00000E+000	8.41342E-005	5.39641E-002	9.24655E-001	3.57370E+000	9	...........
	118	1.58667	9.26693E-001	9.09772E-005	0.00000E+000	8.43079E-005	5.39641E-002	9.26869E-001	3.57370E+000	9	...........
	119	1.6	9.28875E-001	9.08605E-005	0.00000E+000	8.43980E-005	5.39641E-002	9.29018E-001	3.57370E+000	9	...........
	120	1.61333	9.31014E-001	9.10481E-005	0.00000E+000	8.47670E-005	5.39641E-002	9.31167E-001	3.57370E+000	9	...........
	121	1.62667	9.33136E-001	9.11429E-005	0.00000E+000	8.50487E-005	5.39641E-002	9.33280E-001	3.57370E+000	9	...........
	122	1.64	9.35221E-001	9.07720E-005	0.00000E+000	8.48918E-005	5.39641E-002	9.35397E-001	3.57370E+000	9	...........
	123	1.65333	9.37284E-001	9.11491E-005	0.00000E+000	8.54326E-005	5.39641E-002	9.37450E-001	3.57370E+000	9	...........
	124	1.66667	9.39336E-001	9.09637E-005	0.00000E+000	8.54455E-005	5.39641E-002	9.39525E-001	3.57370E+000	9	...........
	125	1.68	9.41404E-001	9.09553E-005	0.00000E+000	8.56257E-005	5.39641E-002	9.41559E-001	3.57370E+000	9	...........
	126	1.69333	9.43411E-001	9.08564E-005	0.00000E+000	8.57149E-005	5.39641E-002	9.43569E-001	3.57370E+000	9	...........
	127	1.70667	9.45402E-001	9.10783E-005	0.00000E+000	8.61056E-005	5.39641E-002	9.45596E-001	3.57370E+000	9	...........
	128	1.72	9.47422E-001	9.09835E-005	0.00000E+000	8.61997E-005	5.39641E-002	9.47590E-001	3.57370E+000	9	...........
	129	1.73333	9.49352E-001	9.10053E-005	0.00000E+000	8.63961E-005	5.39641E-002	9.49545E-001	3.57370E+000	9	...........
	130	1.74667	9.51277E-001	9.08428E-005	0.00000E+000	8.64167E-005	5.39641E-002	9.51468E-001	3.57370E+000	9	...........
	131	1.76	9.53194E-001	9.10210E-005	0.00000E+000	8.67606E-005	5.39641E-002	9.53390E-001	3.57370E+000	9	...........
	132	1.77333	9.55083E-001	9.10543E-005	0.00000E+000	8.69644E-005	5.39641E-002	9.55285E-001	3.57370E+000	9	...........
	133	1.78667	9.56941E-001	9.11356E-005	0.00000E+000	8.72114E-005	5.39641E-002	9.57135E-001	3.57370E+000	9	...........
	134	1.8	9.58797E-001	9.12762E-005	0.00000E+000	8.75154E-005	5.39641E-002	9.59010E-001	3.57370E+000	9	...........
	135	1.81333	9.60645E-001	9.09157E-005	0.00000E+000	8.73378E-005	5.39641E-002	9.60864E-001	3.57370E+000	9	...........
	136	1.82667	9.62417E-001	9.09314E-005	0.00000E+000	8.75139E-005	5.39641E-002	9.62645E-001	3.57370E+000	9	...........
	137	1.84	9.64185E-001	9.09543E-005	0.00000E+000	8.76968E-005	5.39641E-002	9.64438E-001	3.57370E+000	9	...........
	138	1.85333	9.65953E-001	9.09824E-005	0.00000E+000	8.78848E-005	5.39641E-002	9.66181E-001	3.57370E+000	9	...........
	139	1.86667	9.67725E-001	9.12439E-005	0.00000E+000	8.82991E-005	5.39641E-002	9.67949E-001	3.57370E+000	9	...........
	140	1.88	9.69433E-001	9.10626E-005	0.00000E+000	8.82792E-005	5.39641E-002	9.69678E-001	3.57370E+000	9	...........
	141	1.89333	9.71147E-001	9.08449E-005	0.00000E+000	8.82237E-005	5.39641E-002	9.71400E-001	3.57370E+000	9	...........
	142	1.90667	9.72893E-001	9.08616E-005	0.00000E+000	8.83986E-005	5.39641E-002	9.73131E-001	3.57370E+000	9	...........
	143	1.92	9.74588E-001	9.11648E-005	0.00000E+000	8.88481E-005	5.39641E-002	9.74806E-001	3.57370E+000	9	...........
	144	1.93333	9.76228E-001	9.09887E-005	0.00000E+000	8.88257E-005	5.39641E-002	9.76446E-001	3.57370E+000	9	...........
	145	1.94667	9.77857E-001	9.13398E-005	0.00000E+000	8.93172E-005	5.39641E-002	9.78076E-001	3.57370E+000	9	...........
	146	1.96	9.79462E-001	9.09137E-005	0.00000E+000	8.90465E-005	5.39641E-002	9.79684E-001	3.57370E+000	9	...........
	147	1.97333	9.81042E-001	9.08636E-005	0.00000E+000	8.91410E-005	5.39641E-002	9.81266E-001	3.57370E+000	9	...........
	148	1.98667	9.82630E-001	9.12221E-005	0.00000E+000	8.96375E-005	5.39641E-002	9.82824E-001	3.57370E+000	9	...........
	149	2	9.84149E-001	9.11293E-005	0.00000E+000	8.96848E-005	5.39641E-002	9.84379E-001	3.57370E+000	9	...........
	150	2.01333	9.85708E-001	9.09032E-005	0.00000E+000	8.96041E-005	5.39641E-002	9.85935E-001	3.57370E+000	9	...........
	151	2.02667	9.87249E-001	9.10074E-005	0.00000E+000	8.98470E-005	5.39641E-002	9.87491E-001	3.57370E+000	9	...........
	152	2.04	9.88766E-001	9.10158E-005	0.00000E+000	8.99932E-005	5.39641E-002	9.88984E-001	3.57370E+000	9	...........
	153	2.05333	9.90266E-001	9.09960E-005	0.00000E+000	9.01102E-005	5.39641E-002	9.90485E-001	3.57370E+000	9	...........
	154	2.06667	9.91753E-001	9.11929E-005	0.00000E+000	9.04408E-005	5.39641E-002	9.91960E-001	3.57370E+000	9	...........
	155	2.08	9.93206E-001	9.09116E-005	0.00000E+000	9.02939E-005	5.39641E-002	9.93416E-001	3.57370E+000	9	...........
	156	2.09333	9.94654E-001	9.11022E-005	0.00000E+000	9.06152E-005	5.39641E-002	9.94850E-001	3.57370E+000	9	...........
	157	2.10667	9.96067E-001	9.11366E-005	0.00000E+000	9.07782E-005	5.39641E-002	9.96277E-001	3.57370E+000	9	...........
	158	2.12	9.97506E-001	9.09501E-005	0.00000E+000	9.07233E-005	5.39641E-002	9.97737E-001	3.57370E+000	9	...........
	159	2.13333	9.98918E-001	9.09939E-005	0.00000E+000	9.08954E-005	5.39641E-002	9.99142E-001	3.57370E+000	9	...........
	160	2.13833	9.99849E-001	9.08709E-005	0.00000E+000	9.08572E-005	5.39641E-002	1.00009E+000	3.57370E+000	9	...........
STARTTIMEOFFSET	QUANT	4181.814	Start Time Offset (s)
