EXPLAIN
TAG	PWR800_CHARGE
TITLE	LABEL	PWR Cyclic Charge Discharge (Cell) - Charge Step	Test &Identifier
DATE	LABEL	10-7-2017	Date
TIME	LABEL	16:14:03	Time
NOTES	NOTES	3	&Notes...
	supercap test cell
	0.9mg
	6M KOH
PSTAT	PSTAT	IFC5000-01520	Potentiostat
CAPACITY	QUANT	1.00000E-003	Capacity (A-hr)
CELLTYPE	SELECTOR	1	&Cell Type
WORKINGCONNECTION	SELECTOR	0	&Working Lead
MAXCHARGETIME	VARIABLEANDUNITS	1.00000E+002	s	1.00000E+002	second(s)	Max &Charge Time
CHARGECURRENT	QUANT	9.00000E-005	&Charge Current (A) 
VOLTAGEFINISH	TWOPARAM	F	1.00000E-003	3.60000E+003	&Voltage Finish	 I (A) < 	Max Time(s)
SAMPLETIME	QUANT	1.00000E-002	Sa&mple Period (s)
CHARGESTOPAT1	MULTIPARAM	4	1.00000E+000	Charge Stop At &1	Voltage > Limit	V
CHARGESTOPAT2	MULTIPARAM	0	0.00000E+000	Charge Stop At &2	None	N/A
AESBHCSELECTOR	TOGGLE	F	Save Both Half Cells
IRCOMP	TOGGLE	F	IR &Measure
EOC	QUANT	0	Open Circuit (V)
SEQUENCER	TOGGLE	TRUE	Run as Sequence
PSTATMODEL	IQUANT	53	Pstat Model
PSTATSECTION	LABEL	IFC5000-01520	Pstat Section
PSTATSERIALNO	LABEL	01520	Pstat Serial Number
CTRLMODE	IQUANT	0	Control Mode
ELECTROMETER	IQUANT	1	RE=0 or CS=1
IESTAB	IQUANT	0	I/E Stability
CASPEED	IQUANT	4	Control Amp Speed
CONVENTION	IQUANT	1	Current Convention
ICHRANGE	IQUANT	2	Ich Range
ICHRANGEMODE	TOGGLE	T	Ich Auto Range
ICHOFFSETENABLE	TOGGLE	F	Ich Offset Enable
ICHOFFSET	QUANT	0	Ich Offset (V)
ICHFILTER	IQUANT	1	Ich Filter
VCHRANGE	IQUANT	2	Vch Range
VCHRANGEMODE	TOGGLE	T	Vch Auto Range
VCHOFFSETENABLE	TOGGLE	F	Vch Offset Enable
VCHOFFSET	QUANT	0	Vch Offset (V)
VCHFILTER	IQUANT	1	Vch Filter
IERANGELOWERLIMIT	IQUANT	9	I/E Range Lower Limit
IERANGEMODE	TOGGLE	F	I/E AutoRange
IERANGE	IQUANT	9	I/E Range
ACHSELECT	IQUANT	1	Ach Select
ACHRANGE	IQUANT	2	Ach Range
ACHOFFSETENABLE	TOGGLE	F	Ach Offset Enable
ACHOFFSET	QUANT	0	Ach Offset (V)
ACHFILTER	IQUANT	1	Ach Filter
CABLEID	IQUANT	14	Cable ID
DCCALDATE	LABEL	5-7-2017	DC Calibration Date
ACCALDATE	LABEL	12/3/2015	AC Calibration Date
FRAMEWORKVERSION	QUANT	7.01	Framework Version
INSTRUMENTVERSION	LABEL	4.00	Instrument Version
CURVE	TABLE	163
	Pt	T	Vf	Im	Vu	Pwr	Sig	Ach	Temp	IERange	Over
	#	s	V	A	V	W	V	V	deg C	#	bits
	0	0.013333	2.66151E-001	9.08959E-005	0.00000E+000	2.41920E-005	5.39641E-002	2.66194E-001	3.57310E+000	9	...........
	1	0.026667	2.85827E-001	9.10595E-005	0.00000E+000	2.60273E-005	5.39641E-002	2.85864E-001	3.57310E+000	9	...........
	2	0.04	3.04306E-001	9.10762E-005	0.00000E+000	2.77151E-005	5.39641E-002	3.04340E-001	3.57310E+000	9	...........
	3	0.053333	3.21764E-001	9.07813E-005	0.00000E+000	2.92102E-005	5.39641E-002	3.21801E-001	3.57310E+000	9	...........
	4	0.066667	3.38284E-001	9.06323E-005	0.00000E+000	3.06595E-005	5.39641E-002	3.38328E-001	3.57310E+000	9	...........
	5	0.08	3.53975E-001	9.09053E-005	0.00000E+000	3.21782E-005	5.39641E-002	3.54021E-001	3.57310E+000	9	...........
	6	0.093333	3.68901E-001	9.11793E-005	0.00000E+000	3.36362E-005	5.39641E-002	3.68951E-001	3.57310E+000	9	...........
	7	0.106667	3.83123E-001	9.11022E-005	0.00000E+000	3.49034E-005	5.39641E-002	3.83174E-001	3.57310E+000	9	...........
	8	0.12	3.96710E-001	9.09783E-005	0.00000E+000	3.60920E-005	5.39641E-002	3.96762E-001	3.57310E+000	9	...........
	9	0.133333	4.09707E-001	9.11408E-005	0.00000E+000	3.73410E-005	5.39641E-002	4.09757E-001	3.57310E+000	9	...........
	10	0.146667	4.22143E-001	9.08709E-005	0.00000E+000	3.83605E-005	5.39641E-002	4.22201E-001	3.57310E+000	9	...........
	11	0.16	4.34075E-001	9.09449E-005	0.00000E+000	3.94770E-005	5.39641E-002	4.34133E-001	3.57310E+000	9	...........
	12	0.173333	4.45547E-001	9.10533E-005	0.00000E+000	4.05685E-005	5.39641E-002	4.45608E-001	3.57310E+000	9	...........
	13	0.186667	4.56592E-001	9.11304E-005	0.00000E+000	4.16094E-005	5.39641E-002	4.56660E-001	3.57310E+000	9	...........
	14	0.2	4.67230E-001	9.10022E-005	0.00000E+000	4.25190E-005	5.39641E-002	4.67299E-001	3.57310E+000	9	...........
	15	0.213333	4.77497E-001	9.09470E-005	0.00000E+000	4.34269E-005	5.39641E-002	4.77566E-001	3.57310E+000	9	...........
	16	0.226667	4.87409E-001	9.08970E-005	0.00000E+000	4.43041E-005	5.39641E-002	4.87481E-001	3.57310E+000	9	...........
	17	0.24	4.96974E-001	9.10439E-005	0.00000E+000	4.52465E-005	5.39641E-002	4.97045E-001	3.57310E+000	9	...........
	18	0.253333	5.06218E-001	9.11606E-005	0.00000E+000	4.61471E-005	5.39641E-002	5.06294E-001	3.57310E+000	9	...........
	19	0.266667	5.15182E-001	9.12106E-005	0.00000E+000	4.69901E-005	5.39641E-002	5.15263E-001	3.57310E+000	9	...........
	20	0.28	5.23891E-001	9.10710E-005	0.00000E+000	4.77112E-005	5.39641E-002	5.23965E-001	3.57310E+000	9	...........
	21	0.293333	5.32293E-001	9.07678E-005	0.00000E+000	4.83151E-005	5.39641E-002	5.32369E-001	3.57310E+000	9	...........
	22	0.306667	5.40439E-001	9.11616E-005	0.00000E+000	4.92673E-005	5.39641E-002	5.40569E-001	3.57310E+000	9	...........
	23	0.32	5.48430E-001	9.07709E-005	0.00000E+000	4.97815E-005	5.39641E-002	5.48549E-001	3.57310E+000	9	...........
	24	0.333333	5.56172E-001	9.07407E-005	0.00000E+000	5.04674E-005	5.39641E-002	5.56301E-001	3.57310E+000	9	...........
	25	0.346667	5.63747E-001	9.09428E-005	0.00000E+000	5.12688E-005	5.39641E-002	5.63850E-001	3.57310E+000	9	...........
	26	0.36	5.71118E-001	9.07938E-005	0.00000E+000	5.18540E-005	5.39641E-002	5.71223E-001	3.57310E+000	9	...........
	27	0.373333	5.78294E-001	9.08324E-005	0.00000E+000	5.25278E-005	5.39641E-002	5.78417E-001	3.57310E+000	9	...........
	28	0.386667	5.85285E-001	9.10303E-005	0.00000E+000	5.32787E-005	5.39641E-002	5.85410E-001	3.57310E+000	9	...........
	29	0.4	5.92138E-001	9.11783E-005	0.00000E+000	5.39901E-005	5.39641E-002	5.92265E-001	3.57310E+000	9	...........
	30	0.413333	5.98804E-001	9.08855E-005	0.00000E+000	5.44226E-005	5.39641E-002	5.98937E-001	3.57310E+000	9	...........
	31	0.426667	6.05323E-001	9.09168E-005	0.00000E+000	5.50340E-005	5.39641E-002	6.05472E-001	3.57310E+000	9	...........
	32	0.44	6.11740E-001	9.08751E-005	0.00000E+000	5.55919E-005	5.39641E-002	6.11863E-001	3.57310E+000	9	...........
	33	0.453333	6.18047E-001	9.10887E-005	0.00000E+000	5.62971E-005	5.39641E-002	6.18142E-001	3.57310E+000	9	...........
	34	0.466667	6.24138E-001	9.09491E-005	0.00000E+000	5.67648E-005	5.39641E-002	6.24239E-001	3.57310E+000	9	...........
	35	0.48	6.30123E-001	9.09449E-005	0.00000E+000	5.73065E-005	5.39641E-002	6.30246E-001	3.57310E+000	9	...........
	36	0.493333	6.36010E-001	9.08053E-005	0.00000E+000	5.77531E-005	5.39641E-002	6.36133E-001	3.57310E+000	9	...........
	37	0.506667	6.41840E-001	9.07834E-005	0.00000E+000	5.82684E-005	5.39641E-002	6.41928E-001	3.57310E+000	9	...........
	38	0.52	6.47491E-001	9.09949E-005	0.00000E+000	5.89184E-005	5.39641E-002	6.47596E-001	3.57310E+000	9	...........
	39	0.533333	6.53044E-001	9.11022E-005	0.00000E+000	5.94938E-005	5.39641E-002	6.53159E-001	3.57310E+000	9	...........
	40	0.546667	6.58515E-001	9.09241E-005	0.00000E+000	5.98749E-005	5.39641E-002	6.58618E-001	3.57310E+000	9	...........
	41	0.56	6.63871E-001	9.08928E-005	0.00000E+000	6.03411E-005	5.39641E-002	6.64012E-001	3.57310E+000	9	...........
	42	0.573333	6.69189E-001	9.10908E-005	0.00000E+000	6.09569E-005	5.39641E-002	6.69299E-001	3.57310E+000	9	...........
	43	0.586667	6.74379E-001	9.09835E-005	0.00000E+000	6.13574E-005	5.39641E-002	6.74478E-001	3.57310E+000	9	...........
	44	0.6	6.79470E-001	9.08001E-005	0.00000E+000	6.16959E-005	5.39641E-002	6.79583E-001	3.57310E+000	9	...........
	45	0.613333	6.84469E-001	9.10428E-005	0.00000E+000	6.23160E-005	5.39641E-002	6.84570E-001	3.57310E+000	9	...........
	46	0.626667	6.89390E-001	9.10272E-005	0.00000E+000	6.27533E-005	5.39641E-002	6.89503E-001	3.57310E+000	9	...........
	47	0.64	6.94239E-001	9.10658E-005	0.00000E+000	6.32214E-005	5.39641E-002	6.94349E-001	3.57310E+000	9	...........
	48	0.653333	6.98981E-001	9.11127E-005	0.00000E+000	6.36860E-005	5.39641E-002	6.99115E-001	3.57310E+000	9	...........
	49	0.666667	7.03680E-001	9.09522E-005	0.00000E+000	6.40013E-005	5.39641E-002	7.03803E-001	3.57310E+000	9	...........
	50	0.68	7.08286E-001	9.10939E-005	0.00000E+000	6.45205E-005	5.39641E-002	7.08431E-001	3.57310E+000	9	...........
	51	0.693333	7.12826E-001	9.09407E-005	0.00000E+000	6.48249E-005	5.39641E-002	7.12961E-001	3.57310E+000	9	...........
	52	0.706667	7.17372E-001	9.11804E-005	0.00000E+000	6.54102E-005	5.39641E-002	7.17500E-001	3.57310E+000	9	...........
	53	0.72	7.21841E-001	9.11012E-005	0.00000E+000	6.57606E-005	5.39641E-002	7.21924E-001	3.57310E+000	9	...........
	54	0.733333	7.26199E-001	9.10210E-005	0.00000E+000	6.60993E-005	5.39641E-002	7.26321E-001	3.57310E+000	9	...........
	55	0.746667	7.30504E-001	9.12054E-005	0.00000E+000	6.66259E-005	5.39641E-002	7.30650E-001	3.57310E+000	9	...........
	56	0.76	7.34754E-001	9.11804E-005	0.00000E+000	6.69952E-005	5.39641E-002	7.34885E-001	3.57310E+000	9	...........
	57	0.773333	7.38966E-001	9.08939E-005	0.00000E+000	6.71675E-005	5.39641E-002	7.39110E-001	3.57310E+000	9	...........
	58	0.786667	7.43167E-001	9.11793E-005	0.00000E+000	6.77615E-005	5.39641E-002	7.43318E-001	3.57310E+000	9	...........
	59	0.8	7.47270E-001	9.08543E-005	0.00000E+000	6.78927E-005	5.39641E-002	7.47410E-001	3.57420E+000	9	...........
	60	0.813333	7.51310E-001	9.09783E-005	0.00000E+000	6.83529E-005	5.39641E-002	7.51466E-001	3.57420E+000	9	...........
	61	0.826667	7.55333E-001	9.11741E-005	0.00000E+000	6.88668E-005	5.39641E-002	7.55484E-001	3.57420E+000	9	...........
	62	0.84	7.59305E-001	9.09783E-005	0.00000E+000	6.90802E-005	5.39641E-002	7.59442E-001	3.57420E+000	9	...........
	63	0.853333	7.63240E-001	9.10616E-005	0.00000E+000	6.95018E-005	5.39641E-002	7.63365E-001	3.57420E+000	9	...........
	64	0.866667	7.67104E-001	9.08741E-005	0.00000E+000	6.97098E-005	5.39641E-002	7.67249E-001	3.57420E+000	9	...........
	65	0.88	7.70945E-001	9.10095E-005	0.00000E+000	7.01633E-005	5.39641E-002	7.71066E-001	3.57420E+000	9	...........
	66	0.893333	7.74708E-001	9.09532E-005	0.00000E+000	7.04622E-005	5.39641E-002	7.74826E-001	3.57420E+000	9	...........
	67	0.906667	7.78429E-001	9.08084E-005	0.00000E+000	7.06879E-005	5.39641E-002	7.78571E-001	3.57420E+000	9	...........
	68	0.92	7.82134E-001	9.07022E-005	0.00000E+000	7.09413E-005	5.39641E-002	7.82245E-001	3.57420E+000	9	...........
	69	0.933333	7.85754E-001	9.13367E-005	0.00000E+000	7.17682E-005	5.39641E-002	7.85860E-001	3.57420E+000	9	...........
	70	0.946667	7.89368E-001	9.10981E-005	0.00000E+000	7.19099E-005	5.39641E-002	7.89474E-001	3.57420E+000	9	...........
	71	0.96	7.92931E-001	9.09928E-005	0.00000E+000	7.21510E-005	5.39641E-002	7.93061E-001	3.57420E+000	9	...........
	72	0.97333	7.96472E-001	9.11554E-005	0.00000E+000	7.26027E-005	5.39641E-002	7.96585E-001	3.57420E+000	9	...........
	73	0.98667	7.99962E-001	9.09105E-005	0.00000E+000	7.27250E-005	5.39641E-002	8.00063E-001	3.57420E+000	9	...........
	74	1	8.03402E-001	9.11085E-005	0.00000E+000	7.31968E-005	5.39641E-002	8.03510E-001	3.57420E+000	9	...........
	75	1.01333	8.06815E-001	9.09522E-005	0.00000E+000	7.33816E-005	5.39641E-002	8.06950E-001	3.57420E+000	9	...........
	76	1.02667	8.10201E-001	9.10272E-005	0.00000E+000	7.37503E-005	5.39641E-002	8.10326E-001	3.57420E+000	9	...........
	77	1.04	8.13551E-001	9.09397E-005	0.00000E+000	7.39841E-005	5.39641E-002	8.13693E-001	3.57420E+000	9	...........
	78	1.05333	8.16860E-001	9.10606E-005	0.00000E+000	7.43837E-005	5.39641E-002	8.17032E-001	3.57420E+000	9	...........
	79	1.06667	8.20157E-001	9.08511E-005	0.00000E+000	7.45122E-005	5.39641E-002	8.20310E-001	3.57420E+000	9	...........
	80	1.08	8.23388E-001	9.12043E-005	0.00000E+000	7.50966E-005	5.39641E-002	8.23558E-001	3.57420E+000	9	...........
	81	1.09333	8.26612E-001	9.11054E-005	0.00000E+000	7.53088E-005	5.39641E-002	8.26756E-001	3.57420E+000	9	...........
	82	1.10667	8.29781E-001	9.08803E-005	0.00000E+000	7.54107E-005	5.39641E-002	8.29930E-001	3.57420E+000	9	...........
	83	1.12	8.32906E-001	9.09001E-005	0.00000E+000	7.57112E-005	5.39641E-002	8.33092E-001	3.57420E+000	9	...........
	84	1.13333	8.36010E-001	9.09897E-005	0.00000E+000	7.60683E-005	5.39641E-002	8.36181E-001	3.57420E+000	9	...........
	85	1.14667	8.39094E-001	9.10126E-005	0.00000E+000	7.63682E-005	5.39641E-002	8.39263E-001	3.57420E+000	9	...........
	86	1.16	8.42110E-001	9.10168E-005	0.00000E+000	7.66462E-005	5.39641E-002	8.42303E-001	3.57420E+000	9	...........
	87	1.17333	8.45174E-001	9.09303E-005	0.00000E+000	7.68519E-005	5.39641E-002	8.45349E-001	3.57420E+000	9	...........
	88	1.18667	8.48151E-001	9.09428E-005	0.00000E+000	7.71333E-005	5.39641E-002	8.48343E-001	3.57420E+000	9	...........
	89	1.2	8.51113E-001	9.10512E-005	0.00000E+000	7.74949E-005	5.39641E-002	8.51317E-001	3.57420E+000	9	...........
	90	1.21333	8.54031E-001	9.09491E-005	0.00000E+000	7.76733E-005	5.39641E-002	8.54214E-001	3.57420E+000	9	...........
	91	1.22667	8.56931E-001	9.12304E-005	0.00000E+000	7.81781E-005	5.39641E-002	8.57138E-001	3.57420E+000	9	...........
	92	1.24	8.59763E-001	9.10022E-005	0.00000E+000	7.82403E-005	5.39641E-002	8.59991E-001	3.57420E+000	9	...........
	93	1.25333	8.62583E-001	9.11116E-005	0.00000E+000	7.85913E-005	5.39641E-002	8.62791E-001	3.57420E+000	9	...........
	94	1.26667	8.65332E-001	9.11210E-005	0.00000E+000	7.88500E-005	5.39641E-002	8.65566E-001	3.57420E+000	9	...........
	95	1.28	8.68139E-001	9.08887E-005	0.00000E+000	7.89039E-005	5.39641E-002	8.68367E-001	3.57420E+000	9	...........
	96	1.29333	8.70908E-001	9.10418E-005	0.00000E+000	7.92891E-005	5.39641E-002	8.71127E-001	3.57420E+000	9	...........
	97	1.30667	8.73624E-001	9.10439E-005	0.00000E+000	7.95382E-005	5.39641E-002	8.73852E-001	3.57420E+000	9	...........
	98	1.32	8.76329E-001	9.11147E-005	0.00000E+000	7.98465E-005	5.39641E-002	8.76551E-001	3.57420E+000	9	...........
	99	1.33333	8.78983E-001	9.07636E-005	0.00000E+000	7.97796E-005	5.39641E-002	8.79226E-001	3.57420E+000	9	...........
	100	1.34667	8.81642E-001	9.08866E-005	0.00000E+000	8.01294E-005	5.39641E-002	8.81891E-001	3.57420E+000	9	...........
	101	1.36	8.84293E-001	9.10564E-005	0.00000E+000	8.05206E-005	5.39641E-002	8.84511E-001	3.57420E+000	9	...........
	102	1.37333	8.86864E-001	9.11397E-005	0.00000E+000	8.08286E-005	5.39641E-002	8.87091E-001	3.57420E+000	9	...........
	103	1.38667	8.89415E-001	9.10804E-005	0.00000E+000	8.10082E-005	5.39641E-002	8.89625E-001	3.57420E+000	9	...........
	104	1.4	8.91956E-001	9.11668E-005	0.00000E+000	8.13168E-005	5.39641E-002	8.92162E-001	3.57420E+000	9	...........
	105	1.41333	8.94445E-001	9.09397E-005	0.00000E+000	8.13405E-005	5.39641E-002	8.94679E-001	3.57420E+000	9	...........
	106	1.42667	8.96949E-001	9.11981E-005	0.00000E+000	8.18000E-005	5.39641E-002	8.97184E-001	3.57420E+000	9	...........
	107	1.44	8.99386E-001	9.08241E-005	0.00000E+000	8.16859E-005	5.39641E-002	8.99607E-001	3.57420E+000	9	...........
	108	1.45333	9.01832E-001	9.11450E-005	0.00000E+000	8.21975E-005	5.39641E-002	9.02039E-001	3.57420E+000	9	...........
	109	1.46667	9.04236E-001	9.06157E-005	0.00000E+000	8.19379E-005	5.39641E-002	9.04444E-001	3.57420E+000	9	...........
	110	1.48	9.06614E-001	9.10668E-005	0.00000E+000	8.25625E-005	5.39641E-002	9.06854E-001	3.57420E+000	9	...........
	111	1.49333	9.09042E-001	9.08397E-005	0.00000E+000	8.25771E-005	5.39641E-002	9.09224E-001	3.57420E+000	9	...........
	112	1.50667	9.11364E-001	9.10428E-005	0.00000E+000	8.29732E-005	5.39641E-002	9.11528E-001	3.57420E+000	9	...........
	113	1.52	9.13648E-001	9.11585E-005	0.00000E+000	8.32868E-005	5.39641E-002	9.13848E-001	3.57420E+000	9	...........
	114	1.53333	9.15937E-001	9.12252E-005	0.00000E+000	8.35566E-005	5.39641E-002	9.16122E-001	3.57420E+000	9	...........
	115	1.54667	9.18178E-001	9.09376E-005	0.00000E+000	8.34969E-005	5.39641E-002	9.18380E-001	3.57420E+000	9	...........
	116	1.56	9.20465E-001	9.07834E-005	0.00000E+000	8.35630E-005	5.39641E-002	9.20619E-001	3.57420E+000	9	...........
	117	1.57333	9.22681E-001	9.12241E-005	0.00000E+000	8.41708E-005	5.39641E-002	9.22819E-001	3.57420E+000	9	...........
	118	1.58667	9.24843E-001	9.11127E-005	0.00000E+000	8.42649E-005	5.39641E-002	9.25005E-001	3.57420E+000	9	...........
	119	1.6	9.27002E-001	9.11512E-005	0.00000E+000	8.44973E-005	5.39641E-002	9.27157E-001	3.57420E+000	9	...........
	120	1.61333	9.29150E-001	9.11866E-005	0.00000E+000	8.47260E-005	5.39641E-002	9.29270E-001	3.57420E+000	9	...........
	121	1.62667	9.31234E-001	9.13190E-005	0.00000E+000	8.50393E-005	5.39641E-002	9.31397E-001	3.57420E+000	9	...........
	122	1.64	9.33323E-001	9.10626E-005	0.00000E+000	8.49908E-005	5.39641E-002	9.33489E-001	3.57420E+000	9	...........
	123	1.65333	9.35402E-001	9.13471E-005	0.00000E+000	8.54463E-005	5.39641E-002	9.35575E-001	3.57420E+000	9	...........
	124	1.66667	9.37437E-001	9.13804E-005	0.00000E+000	8.56633E-005	5.39641E-002	9.37634E-001	3.57420E+000	9	...........
	125	1.68	9.39439E-001	9.11189E-005	0.00000E+000	8.56006E-005	5.39641E-002	9.39633E-001	3.57420E+000	9	...........
	126	1.69333	9.41418E-001	9.11689E-005	0.00000E+000	8.58281E-005	5.39641E-002	9.41648E-001	3.57420E+000	9	...........
	127	1.70667	9.43406E-001	9.11002E-005	0.00000E+000	8.59445E-005	5.39641E-002	9.43596E-001	3.57420E+000	9	...........
	128	1.72	9.45325E-001	9.07240E-005	0.00000E+000	8.57637E-005	5.39641E-002	9.45551E-001	3.57420E+000	9	...........
	129	1.73333	9.47327E-001	9.07699E-005	0.00000E+000	8.59887E-005	5.39641E-002	9.47491E-001	3.57420E+000	9	...........
	130	1.74667	9.49241E-001	9.11720E-005	0.00000E+000	8.65442E-005	5.39641E-002	9.49423E-001	3.57420E+000	9	...........
	131	1.76	9.51118E-001	9.10741E-005	0.00000E+000	8.66222E-005	5.39641E-002	9.51300E-001	3.57420E+000	9	...........
	132	1.77333	9.52980E-001	9.09605E-005	0.00000E+000	8.66836E-005	5.39641E-002	9.53158E-001	3.57420E+000	9	...........
	133	1.78667	9.54816E-001	9.10262E-005	0.00000E+000	8.69132E-005	5.39641E-002	9.54988E-001	3.57420E+000	9	...........
	134	1.8	9.56626E-001	9.09730E-005	0.00000E+000	8.70272E-005	5.39641E-002	9.56798E-001	3.57300E+000	9	...........
	135	1.81333	9.58426E-001	9.11741E-005	0.00000E+000	8.73836E-005	5.39641E-002	9.58594E-001	3.57300E+000	9	...........
	136	1.82667	9.60215E-001	9.10210E-005	0.00000E+000	8.73997E-005	5.39641E-002	9.60398E-001	3.57300E+000	9	...........
	137	1.84	9.61943E-001	9.10210E-005	0.00000E+000	8.75570E-005	5.39641E-002	9.62171E-001	3.57300E+000	9	...........
	138	1.85333	9.63699E-001	9.13846E-005	0.00000E+000	8.80672E-005	5.39641E-002	9.63896E-001	3.57300E+000	9	...........
	139	1.86667	9.65432E-001	9.08543E-005	0.00000E+000	8.77136E-005	5.39641E-002	9.65658E-001	3.57300E+000	9	...........
	140	1.88	9.67156E-001	9.14784E-005	0.00000E+000	8.84739E-005	5.39641E-002	9.67378E-001	3.57300E+000	9	...........
	141	1.89333	9.68851E-001	9.11116E-005	0.00000E+000	8.82736E-005	5.39641E-002	9.69070E-001	3.57300E+000	9	...........
	142	1.90667	9.70523E-001	9.09230E-005	0.00000E+000	8.82429E-005	5.39641E-002	9.70758E-001	3.57300E+000	9	...........
	143	1.92	9.72178E-001	9.11481E-005	0.00000E+000	8.86122E-005	5.39641E-002	9.72429E-001	3.57300E+000	9	...........
	144	1.93333	9.73850E-001	9.09116E-005	0.00000E+000	8.85343E-005	5.39641E-002	9.74048E-001	3.57300E+000	9	...........
	145	1.94667	9.75431E-001	9.11835E-005	0.00000E+000	8.89432E-005	5.39641E-002	9.75645E-001	3.57300E+000	9	...........
	146	1.96	9.77038E-001	9.14877E-005	0.00000E+000	8.93870E-005	5.39641E-002	9.77245E-001	3.57300E+000	9	...........
	147	1.97333	9.78618E-001	9.11074E-005	0.00000E+000	8.91594E-005	5.39641E-002	9.78824E-001	3.57300E+000	9	...........
	148	1.98667	9.80186E-001	9.10178E-005	0.00000E+000	8.92144E-005	5.39641E-002	9.80391E-001	3.57300E+000	9	...........
	149	2	9.81702E-001	9.09897E-005	0.00000E+000	8.93248E-005	5.39641E-002	9.81915E-001	3.57300E+000	9	...........
	150	2.01333	9.83224E-001	9.10324E-005	0.00000E+000	8.95052E-005	5.39641E-002	9.83427E-001	3.57300E+000	9	...........
	151	2.02667	9.84745E-001	9.14158E-005	0.00000E+000	9.00213E-005	5.39641E-002	9.84982E-001	3.57300E+000	9	...........
	152	2.04	9.86257E-001	9.08178E-005	0.00000E+000	8.95697E-005	5.39641E-002	9.86464E-001	3.57300E+000	9	...........
	153	2.05333	9.87710E-001	9.07532E-005	0.00000E+000	8.96379E-005	5.39641E-002	9.87937E-001	3.57300E+000	9	...........
	154	2.06667	9.89197E-001	9.09522E-005	0.00000E+000	8.99697E-005	5.39641E-002	9.89436E-001	3.57300E+000	9	...........
	155	2.08	9.90655E-001	9.11460E-005	0.00000E+000	9.02942E-005	5.39641E-002	9.90884E-001	3.57300E+000	9	...........
	156	2.09333	9.92103E-001	9.12252E-005	0.00000E+000	9.05048E-005	5.39641E-002	9.92331E-001	3.57300E+000	9	...........
	157	2.10667	9.93510E-001	9.11533E-005	0.00000E+000	9.05617E-005	5.39641E-002	9.93741E-001	3.57300E+000	9	...........
	158	2.12	9.94909E-001	9.09939E-005	0.00000E+000	9.05306E-005	5.39641E-002	9.95131E-001	3.57300E+000	9	...........
	159	2.13333	9.96318E-001	9.08272E-005	0.00000E+000	9.04928E-005	5.39641E-002	9.96534E-001	3.57300E+000	9	...........
	160	2.14667	9.97713E-001	9.08126E-005	0.00000E+000	9.06049E-005	5.39641E-002	9.97940E-001	3.57300E+000	9	...........
	161	2.16	9.99097E-001	9.10293E-005	0.00000E+000	9.09471E-005	5.39641E-002	9.99305E-001	3.57300E+000	9	...........
	162	2.16333	9.99926E-001	9.12293E-005	0.00000E+000	9.12226E-005	5.39641E-002	1.00015E+000	3.57300E+000	9	...........
STARTTIMEOFFSET	QUANT	3764.016	Start Time Offset (s)
