EXPLAIN
TAG	PWR800_CHARGE
TITLE	LABEL	PWR Cyclic Charge Discharge (Cell) - Charge Step	Test &Identifier
DATE	LABEL	10-7-2017	Date
TIME	LABEL	15:09:37	Time
NOTES	NOTES	3	&Notes...
	supercap test cell
	0.9mg
	6M KOH
PSTAT	PSTAT	IFC5000-01520	Potentiostat
CAPACITY	QUANT	1.00000E-003	Capacity (A-hr)
CELLTYPE	SELECTOR	1	&Cell Type
WORKINGCONNECTION	SELECTOR	0	&Working Lead
MAXCHARGETIME	VARIABLEANDUNITS	1.00000E+002	s	1.00000E+002	second(s)	Max &Charge Time
CHARGECURRENT	QUANT	9.00000E-005	&Charge Current (A) 
VOLTAGEFINISH	TWOPARAM	F	1.00000E-003	3.60000E+003	&Voltage Finish	 I (A) < 	Max Time(s)
SAMPLETIME	QUANT	1.00000E-002	Sa&mple Period (s)
CHARGESTOPAT1	MULTIPARAM	4	1.00000E+000	Charge Stop At &1	Voltage > Limit	V
CHARGESTOPAT2	MULTIPARAM	0	0.00000E+000	Charge Stop At &2	None	N/A
AESBHCSELECTOR	TOGGLE	F	Save Both Half Cells
IRCOMP	TOGGLE	F	IR &Measure
EOC	QUANT	0	Open Circuit (V)
SEQUENCER	TOGGLE	TRUE	Run as Sequence
PSTATMODEL	IQUANT	53	Pstat Model
PSTATSECTION	LABEL	IFC5000-01520	Pstat Section
PSTATSERIALNO	LABEL	01520	Pstat Serial Number
CTRLMODE	IQUANT	0	Control Mode
ELECTROMETER	IQUANT	1	RE=0 or CS=1
IESTAB	IQUANT	0	I/E Stability
CASPEED	IQUANT	4	Control Amp Speed
CONVENTION	IQUANT	1	Current Convention
ICHRANGE	IQUANT	2	Ich Range
ICHRANGEMODE	TOGGLE	T	Ich Auto Range
ICHOFFSETENABLE	TOGGLE	F	Ich Offset Enable
ICHOFFSET	QUANT	0	Ich Offset (V)
ICHFILTER	IQUANT	1	Ich Filter
VCHRANGE	IQUANT	2	Vch Range
VCHRANGEMODE	TOGGLE	T	Vch Auto Range
VCHOFFSETENABLE	TOGGLE	F	Vch Offset Enable
VCHOFFSET	QUANT	0	Vch Offset (V)
VCHFILTER	IQUANT	1	Vch Filter
IERANGELOWERLIMIT	IQUANT	9	I/E Range Lower Limit
IERANGEMODE	TOGGLE	F	I/E AutoRange
IERANGE	IQUANT	9	I/E Range
ACHSELECT	IQUANT	1	Ach Select
ACHRANGE	IQUANT	2	Ach Range
ACHOFFSETENABLE	TOGGLE	F	Ach Offset Enable
ACHOFFSET	QUANT	0	Ach Offset (V)
ACHFILTER	IQUANT	1	Ach Filter
CABLEID	IQUANT	14	Cable ID
DCCALDATE	LABEL	5-7-2017	DC Calibration Date
ACCALDATE	LABEL	12/3/2015	AC Calibration Date
FRAMEWORKVERSION	QUANT	7.01	Framework Version
INSTRUMENTVERSION	LABEL	4.00	Instrument Version
CURVE	TABLE	186
	Pt	T	Vf	Im	Vu	Pwr	Sig	Ach	Temp	IERange	Over
	#	s	V	A	V	W	V	V	deg C	#	bits
	0	0.013333	2.91145E-001	9.09605E-005	0.00000E+000	2.64827E-005	5.39641E-002	2.91187E-001	3.57210E+000	9	...........
	1	0.026667	3.10273E-001	9.11450E-005	0.00000E+000	2.82798E-005	5.39641E-002	3.10308E-001	3.57210E+000	9	...........
	2	0.04	3.27908E-001	9.13419E-005	0.00000E+000	2.99517E-005	5.39641E-002	3.27938E-001	3.57210E+000	9	...........
	3	0.053333	3.44309E-001	9.11241E-005	0.00000E+000	3.13748E-005	5.39641E-002	3.44345E-001	3.57210E+000	9	...........
	4	0.066667	3.59695E-001	9.09376E-005	0.00000E+000	3.27098E-005	5.39641E-002	3.59726E-001	3.57210E+000	9	...........
	5	0.08	3.74207E-001	9.12616E-005	0.00000E+000	3.41507E-005	5.39641E-002	3.74237E-001	3.57210E+000	9	...........
	6	0.093333	3.87941E-001	9.10835E-005	0.00000E+000	3.53350E-005	5.39641E-002	3.87977E-001	3.57210E+000	9	...........
	7	0.106667	4.00994E-001	9.12439E-005	0.00000E+000	3.65883E-005	5.39641E-002	4.01031E-001	3.57210E+000	9	...........
	8	0.12	4.13448E-001	9.11616E-005	0.00000E+000	3.76906E-005	5.39641E-002	4.13494E-001	3.57210E+000	9	...........
	9	0.133333	4.25365E-001	9.13502E-005	0.00000E+000	3.88572E-005	5.39641E-002	4.25416E-001	3.57210E+000	9	...........
	10	0.146667	4.36785E-001	9.12773E-005	0.00000E+000	3.98686E-005	5.39641E-002	4.36830E-001	3.57210E+000	9	...........
	11	0.16	4.47765E-001	9.09897E-005	0.00000E+000	4.07420E-005	5.39641E-002	4.47815E-001	3.57210E+000	9	...........
	12	0.173333	4.58334E-001	9.11106E-005	0.00000E+000	4.17591E-005	5.39641E-002	4.58380E-001	3.57210E+000	9	...........
	13	0.186667	4.68509E-001	9.11408E-005	0.00000E+000	4.27002E-005	5.39641E-002	4.68554E-001	3.57210E+000	9	...........
	14	0.2	4.78331E-001	9.09564E-005	0.00000E+000	4.35073E-005	5.39641E-002	4.78380E-001	3.57210E+000	9	...........
	15	0.213333	4.87819E-001	9.09147E-005	0.00000E+000	4.43499E-005	5.39641E-002	4.87867E-001	3.57210E+000	9	...........
	16	0.226667	4.97001E-001	9.13690E-005	0.00000E+000	4.54105E-005	5.39641E-002	4.97061E-001	3.57210E+000	9	...........
	17	0.24	5.05907E-001	9.12356E-005	0.00000E+000	4.61567E-005	5.39641E-002	5.05961E-001	3.57210E+000	9	...........
	18	0.253333	5.14549E-001	9.10356E-005	0.00000E+000	4.68423E-005	5.39641E-002	5.14607E-001	3.57210E+000	9	...........
	19	0.266667	5.22934E-001	9.11002E-005	0.00000E+000	4.76394E-005	5.39641E-002	5.22996E-001	3.57210E+000	9	...........
	20	0.28	5.31067E-001	9.10751E-005	0.00000E+000	4.83670E-005	5.39641E-002	5.31132E-001	3.57210E+000	9	...........
	21	0.293333	5.38964E-001	9.10658E-005	0.00000E+000	4.90812E-005	5.39641E-002	5.39081E-001	3.57210E+000	9	...........
	22	0.306667	5.46700E-001	9.10501E-005	0.00000E+000	4.97771E-005	5.39641E-002	5.46794E-001	3.57210E+000	9	...........
	23	0.32	5.54196E-001	9.14263E-005	0.00000E+000	5.06681E-005	5.39641E-002	5.54332E-001	3.57210E+000	9	...........
	24	0.333333	5.61535E-001	9.11252E-005	0.00000E+000	5.11700E-005	5.39641E-002	5.61665E-001	3.57210E+000	9	...........
	25	0.346667	5.68728E-001	9.09866E-005	0.00000E+000	5.17466E-005	5.39641E-002	5.68801E-001	3.57210E+000	9	...........
	26	0.36	5.75677E-001	9.10887E-005	0.00000E+000	5.24376E-005	5.39641E-002	5.75775E-001	3.57210E+000	9	...........
	27	0.373333	5.82469E-001	9.10741E-005	0.00000E+000	5.30479E-005	5.39641E-002	5.82577E-001	3.57210E+000	9	...........
	28	0.386667	5.89117E-001	9.10824E-005	0.00000E+000	5.36582E-005	5.39641E-002	5.89228E-001	3.57210E+000	9	...........
	29	0.4	5.95629E-001	9.12023E-005	0.00000E+000	5.43227E-005	5.39641E-002	5.95735E-001	3.57210E+000	9	...........
	30	0.413333	6.01978E-001	9.11168E-005	0.00000E+000	5.48503E-005	5.39641E-002	6.02096E-001	3.57210E+000	9	...........
	31	0.426667	6.08187E-001	9.11720E-005	0.00000E+000	5.54497E-005	5.39641E-002	6.08318E-001	3.57210E+000	9	...........
	32	0.44	6.14315E-001	9.11804E-005	0.00000E+000	5.60134E-005	5.39641E-002	6.14412E-001	3.57210E+000	9	...........
	33	0.453333	6.20298E-001	9.10324E-005	0.00000E+000	5.64673E-005	5.39641E-002	6.20396E-001	3.57210E+000	9	...........
	34	0.466667	6.26157E-001	9.11460E-005	0.00000E+000	5.70717E-005	5.39641E-002	6.26219E-001	3.57210E+000	9	...........
	35	0.48	6.31865E-001	9.12210E-005	0.00000E+000	5.76394E-005	5.39641E-002	6.31942E-001	3.57210E+000	9	...........
	36	0.493333	6.37463E-001	9.12471E-005	0.00000E+000	5.81666E-005	5.39641E-002	6.37553E-001	3.57210E+000	9	...........
	37	0.506667	6.42995E-001	9.13346E-005	0.00000E+000	5.87277E-005	5.39641E-002	6.43067E-001	3.57210E+000	9	...........
	38	0.52	6.48392E-001	9.11074E-005	0.00000E+000	5.90734E-005	5.39641E-002	6.48449E-001	3.57210E+000	9	...........
	39	0.533333	6.53671E-001	9.09887E-005	0.00000E+000	5.94766E-005	5.39641E-002	6.53732E-001	3.57210E+000	9	...........
	40	0.546667	6.58876E-001	9.09991E-005	0.00000E+000	5.99571E-005	5.39641E-002	6.58940E-001	3.57210E+000	9	...........
	41	0.56	6.63946E-001	9.10481E-005	0.00000E+000	6.04510E-005	5.39641E-002	6.64057E-001	3.57210E+000	9	...........
	42	0.573333	6.68970E-001	9.09835E-005	0.00000E+000	6.08652E-005	5.39641E-002	6.69057E-001	3.57210E+000	9	...........
	43	0.586667	6.73859E-001	9.09658E-005	0.00000E+000	6.12981E-005	5.39641E-002	6.73957E-001	3.57210E+000	9	...........
	44	0.6	6.78691E-001	9.09595E-005	0.00000E+000	6.17334E-005	5.39641E-002	6.78798E-001	3.57210E+000	9	...........
	45	0.613333	6.83394E-001	9.10616E-005	0.00000E+000	6.22310E-005	5.39641E-002	6.83509E-001	3.57210E+000	9	...........
	46	0.626667	6.88049E-001	9.13960E-005	0.00000E+000	6.28850E-005	5.39641E-002	6.88157E-001	3.57210E+000	9	...........
	47	0.64	6.92667E-001	9.11189E-005	0.00000E+000	6.31151E-005	5.39641E-002	6.92777E-001	3.57210E+000	9	...........
	48	0.653333	6.97162E-001	9.11929E-005	0.00000E+000	6.35762E-005	5.39641E-002	6.97265E-001	3.57210E+000	9	...........
	49	0.666667	7.01608E-001	9.14513E-005	0.00000E+000	6.41630E-005	5.39641E-002	7.01702E-001	3.57210E+000	9	...........
	50	0.68	7.05929E-001	9.09543E-005	0.00000E+000	6.42072E-005	5.39641E-002	7.06033E-001	3.57210E+000	9	...........
	51	0.693333	7.10216E-001	9.13742E-005	0.00000E+000	6.48954E-005	5.39641E-002	7.10339E-001	3.57210E+000	9	...........
	52	0.706667	7.14443E-001	9.11762E-005	0.00000E+000	6.51402E-005	5.39641E-002	7.14553E-001	3.57210E+000	9	...........
	53	0.72	7.18643E-001	9.09960E-005	0.00000E+000	6.53936E-005	5.39641E-002	7.18724E-001	3.57210E+000	9	...........
	54	0.733333	7.22715E-001	9.10522E-005	0.00000E+000	6.58048E-005	5.39641E-002	7.22781E-001	3.57210E+000	9	...........
	55	0.746667	7.26734E-001	9.11262E-005	0.00000E+000	6.62245E-005	5.39641E-002	7.26823E-001	3.57210E+000	9	...........
	56	0.76	7.30685E-001	9.12710E-005	0.00000E+000	6.66904E-005	5.39641E-002	7.30805E-001	3.57210E+000	9	...........
	57	0.773333	7.34595E-001	9.12293E-005	0.00000E+000	6.70167E-005	5.39641E-002	7.34679E-001	3.57210E+000	9	...........
	58	0.786667	7.38422E-001	9.15044E-005	0.00000E+000	6.75689E-005	5.39641E-002	7.38544E-001	3.57210E+000	9	...........
	59	0.8	7.42248E-001	9.14356E-005	0.00000E+000	6.78679E-005	5.39641E-002	7.42365E-001	3.57210E+000	9	...........
	60	0.813333	7.45986E-001	9.12752E-005	0.00000E+000	6.80900E-005	5.39641E-002	7.46088E-001	3.57210E+000	9	...........
	61	0.826667	7.49668E-001	9.09626E-005	0.00000E+000	6.81918E-005	5.39641E-002	7.49779E-001	3.57210E+000	9	...........
	62	0.84	7.53304E-001	9.09043E-005	0.00000E+000	6.84785E-005	5.39641E-002	7.53429E-001	3.57210E+000	9	...........
	63	0.853333	7.56906E-001	9.12377E-005	0.00000E+000	6.90584E-005	5.39641E-002	7.56985E-001	3.57210E+000	9	...........
	64	0.866667	7.60411E-001	9.11168E-005	0.00000E+000	6.92863E-005	5.39641E-002	7.60494E-001	3.57210E+000	9	...........
	65	0.88	7.63876E-001	9.10324E-005	0.00000E+000	6.95375E-005	5.39641E-002	7.63981E-001	3.57210E+000	9	...........
	66	0.893333	7.67300E-001	9.11502E-005	0.00000E+000	6.99395E-005	5.39641E-002	7.67437E-001	3.57210E+000	9	...........
	67	0.906667	7.70738E-001	9.11012E-005	0.00000E+000	7.02151E-005	5.39641E-002	7.70856E-001	3.57210E+000	9	...........
	68	0.92	7.74085E-001	9.11241E-005	0.00000E+000	7.05378E-005	5.39641E-002	7.74197E-001	3.57210E+000	9	...........
	69	0.933333	7.77393E-001	9.12075E-005	0.00000E+000	7.09040E-005	5.39641E-002	7.77506E-001	3.57210E+000	9	...........
	70	0.946667	7.80681E-001	9.11429E-005	0.00000E+000	7.11535E-005	5.39641E-002	7.80829E-001	3.57210E+000	9	...........
	71	0.96	7.83939E-001	9.09689E-005	0.00000E+000	7.13140E-005	5.39641E-002	7.84031E-001	3.57210E+000	9	...........
	72	0.97333	7.87127E-001	9.12523E-005	0.00000E+000	7.18272E-005	5.39641E-002	7.87227E-001	3.57210E+000	9	...........
	73	0.98667	7.90252E-001	9.12502E-005	0.00000E+000	7.21107E-005	5.39641E-002	7.90395E-001	3.57210E+000	9	...........
	74	1	7.93410E-001	9.12054E-005	0.00000E+000	7.23632E-005	5.39641E-002	7.93540E-001	3.57210E+000	9	...........
	75	1.01333	7.96520E-001	9.12325E-005	0.00000E+000	7.26685E-005	5.39641E-002	7.96627E-001	3.57210E+000	9	...........
	76	1.02667	7.99543E-001	9.14804E-005	0.00000E+000	7.31426E-005	5.39641E-002	7.99686E-001	3.57210E+000	9	...........
	77	1.04	8.02562E-001	9.13888E-005	0.00000E+000	7.33451E-005	5.39641E-002	8.02693E-001	3.57210E+000	9	...........
	78	1.05333	8.05523E-001	9.13950E-005	0.00000E+000	7.36208E-005	5.39641E-002	8.05665E-001	3.57210E+000	9	...........
	79	1.06667	8.08455E-001	9.11804E-005	0.00000E+000	7.37153E-005	5.39641E-002	8.08592E-001	3.57210E+000	9	...........
	80	1.08	8.11339E-001	9.12804E-005	0.00000E+000	7.40593E-005	5.39641E-002	8.11465E-001	3.57210E+000	9	...........
	81	1.09333	8.14220E-001	9.09605E-005	0.00000E+000	7.40619E-005	5.39641E-002	8.14345E-001	3.57210E+000	9	...........
	82	1.10667	8.17052E-001	9.12742E-005	0.00000E+000	7.45757E-005	5.39641E-002	8.17185E-001	3.57210E+000	9	...........
	83	1.12	8.19899E-001	9.10699E-005	0.00000E+000	7.46682E-005	5.39641E-002	8.20008E-001	3.57210E+000	9	...........
	84	1.13333	8.22649E-001	9.10699E-005	0.00000E+000	7.49186E-005	5.39641E-002	8.22780E-001	3.57210E+000	9	...........
	85	1.14667	8.25372E-001	9.11220E-005	0.00000E+000	7.52095E-005	5.39641E-002	8.25521E-001	3.57210E+000	9	...........
	86	1.16	8.28107E-001	9.11762E-005	0.00000E+000	7.55037E-005	5.39641E-002	8.28207E-001	3.57210E+000	9	...........
	87	1.17333	8.30767E-001	9.09981E-005	0.00000E+000	7.55982E-005	5.39641E-002	8.30913E-001	3.57210E+000	9	...........
	88	1.18667	8.33432E-001	9.12564E-005	0.00000E+000	7.60560E-005	5.39641E-002	8.33586E-001	3.57210E+000	9	...........
	89	1.2	8.36077E-001	9.12221E-005	0.00000E+000	7.62686E-005	5.39641E-002	8.36200E-001	3.57210E+000	9	...........
	90	1.21333	8.38673E-001	9.11470E-005	0.00000E+000	7.64425E-005	5.39641E-002	8.38809E-001	3.57210E+000	9	...........
	91	1.22667	8.41247E-001	9.12637E-005	0.00000E+000	7.67754E-005	5.39641E-002	8.41401E-001	3.57210E+000	9	...........
	92	1.24	8.43831E-001	9.12210E-005	0.00000E+000	7.69751E-005	5.39641E-002	8.43979E-001	3.57210E+000	9	...........
	93	1.25333	8.46398E-001	9.10908E-005	0.00000E+000	7.70991E-005	5.39641E-002	8.46534E-001	3.57210E+000	9	...........
	94	1.26667	8.48869E-001	9.10116E-005	0.00000E+000	7.72569E-005	5.39641E-002	8.49023E-001	3.57210E+000	9	...........
	95	1.28	8.51350E-001	9.10866E-005	0.00000E+000	7.75466E-005	5.39641E-002	8.51487E-001	3.57210E+000	9	...........
	96	1.29333	8.53779E-001	9.10741E-005	0.00000E+000	7.77572E-005	5.39641E-002	8.53917E-001	3.57210E+000	9	...........
	97	1.30667	8.56218E-001	9.12648E-005	0.00000E+000	7.81425E-005	5.39641E-002	8.56383E-001	3.57210E+000	9	...........
	98	1.32	8.58600E-001	9.11606E-005	0.00000E+000	7.82705E-005	5.39641E-002	8.58774E-001	3.57210E+000	9	...........
	99	1.33333	8.60983E-001	9.11147E-005	0.00000E+000	7.84483E-005	5.39641E-002	8.61144E-001	3.57210E+000	9	...........
	100	1.34667	8.63313E-001	9.10720E-005	0.00000E+000	7.86237E-005	5.39641E-002	8.63467E-001	3.57210E+000	9	...........
	101	1.36	8.65640E-001	9.12200E-005	0.00000E+000	7.89637E-005	5.39641E-002	8.65791E-001	3.57210E+000	9	...........
	102	1.37333	8.67945E-001	9.08532E-005	0.00000E+000	7.88556E-005	5.39641E-002	8.68102E-001	3.57210E+000	9	...........
	103	1.38667	8.70239E-001	9.10210E-005	0.00000E+000	7.92100E-005	5.39641E-002	8.70401E-001	3.57210E+000	9	...........
	104	1.4	8.72494E-001	9.12710E-005	0.00000E+000	7.96334E-005	5.39641E-002	8.72651E-001	3.57210E+000	9	...........
	105	1.41333	8.74721E-001	9.11627E-005	0.00000E+000	7.97419E-005	5.39641E-002	8.74873E-001	3.57210E+000	9	...........
	106	1.42667	8.76932E-001	9.09501E-005	0.00000E+000	7.97571E-005	5.39641E-002	8.77088E-001	3.57210E+000	9	...........
	107	1.44	8.79144E-001	9.12689E-005	0.00000E+000	8.02385E-005	5.39641E-002	8.79309E-001	3.57210E+000	9	...........
	108	1.45333	8.81326E-001	9.13231E-005	0.00000E+000	8.04854E-005	5.39641E-002	8.81493E-001	3.57172E+000	9	...........
	109	1.46667	8.83492E-001	9.09605E-005	0.00000E+000	8.03629E-005	5.39641E-002	8.83654E-001	3.57150E+000	9	...........
	110	1.48	8.85624E-001	9.12127E-005	0.00000E+000	8.07801E-005	5.39641E-002	8.85787E-001	3.57150E+000	9	...........
	111	1.49333	8.87717E-001	9.11397E-005	0.00000E+000	8.09063E-005	5.39641E-002	8.87886E-001	3.57150E+000	9	...........
	112	1.50667	8.89812E-001	9.11356E-005	0.00000E+000	8.10935E-005	5.39641E-002	8.89974E-001	3.57150E+000	9	...........
	113	1.52	8.91889E-001	9.11147E-005	0.00000E+000	8.12642E-005	5.39641E-002	8.92042E-001	3.57150E+000	9	...........
	114	1.53333	8.93914E-001	9.14200E-005	0.00000E+000	8.17217E-005	5.39641E-002	8.94070E-001	3.57150E+000	9	...........
	115	1.54667	8.95931E-001	9.11189E-005	0.00000E+000	8.16363E-005	5.39641E-002	8.96108E-001	3.57150E+000	9	...........
	116	1.56	8.97958E-001	9.11648E-005	0.00000E+000	8.18621E-005	5.39641E-002	8.98103E-001	3.57150E+000	9	...........
	117	1.57333	8.99932E-001	9.12887E-005	0.00000E+000	8.21536E-005	5.39641E-002	9.00100E-001	3.57150E+000	9	...........
	118	1.58667	9.01902E-001	9.11262E-005	0.00000E+000	8.21869E-005	5.39641E-002	9.02088E-001	3.57150E+000	9	...........
	119	1.6	9.03875E-001	9.10522E-005	0.00000E+000	8.22999E-005	5.39641E-002	9.04050E-001	3.57150E+000	9	...........
	120	1.61333	9.05822E-001	9.12398E-005	0.00000E+000	8.26470E-005	5.39641E-002	9.05982E-001	3.57150E+000	9	...........
	121	1.62667	9.07734E-001	9.12273E-005	0.00000E+000	8.28101E-005	5.39641E-002	9.07912E-001	3.57150E+000	9	...........
	122	1.64	9.09649E-001	9.11252E-005	0.00000E+000	8.28919E-005	5.39641E-002	9.09760E-001	3.57150E+000	9	...........
	123	1.65333	9.11508E-001	9.11366E-005	0.00000E+000	8.30718E-005	5.39641E-002	9.11659E-001	3.57150E+000	9	...........
	124	1.66667	9.13369E-001	9.10481E-005	0.00000E+000	8.31605E-005	5.39641E-002	9.13505E-001	3.57150E+000	9	...........
	125	1.68	9.15212E-001	9.11825E-005	0.00000E+000	8.34513E-005	5.39641E-002	9.15375E-001	3.57150E+000	9	...........
	126	1.69333	9.17023E-001	9.11648E-005	0.00000E+000	8.36002E-005	5.39641E-002	9.17220E-001	3.57150E+000	9	...........
	127	1.70667	9.18839E-001	9.12929E-005	0.00000E+000	8.38834E-005	5.39641E-002	9.19027E-001	3.57150E+000	9	...........
	128	1.72	9.20682E-001	9.14169E-005	0.00000E+000	8.41659E-005	5.39641E-002	9.20822E-001	3.57150E+000	9	...........
	129	1.73333	9.22512E-001	9.12002E-005	0.00000E+000	8.41333E-005	5.39641E-002	9.22642E-001	3.57150E+000	9	...........
	130	1.74667	9.24259E-001	9.11637E-005	0.00000E+000	8.42589E-005	5.39641E-002	9.24389E-001	3.57150E+000	9	...........
	131	1.76	9.26009E-001	9.11575E-005	0.00000E+000	8.44126E-005	5.39641E-002	9.26170E-001	3.57150E+000	9	...........
	132	1.77333	9.27733E-001	9.12783E-005	0.00000E+000	8.46819E-005	5.39641E-002	9.27890E-001	3.57150E+000	9	...........
	133	1.78667	9.29429E-001	9.14023E-005	0.00000E+000	8.49519E-005	5.39641E-002	9.29568E-001	3.57150E+000	9	...........
	134	1.8	9.31137E-001	9.11283E-005	0.00000E+000	8.48529E-005	5.39641E-002	9.31258E-001	3.57150E+000	9	...........
	135	1.81333	9.32791E-001	9.12200E-005	0.00000E+000	8.50892E-005	5.39641E-002	9.32950E-001	3.57150E+000	9	...........
	136	1.82667	9.34454E-001	9.11898E-005	0.00000E+000	8.52127E-005	5.39641E-002	9.34622E-001	3.57150E+000	9	...........
	137	1.84	9.36086E-001	9.12356E-005	0.00000E+000	8.54044E-005	5.39641E-002	9.36267E-001	3.57150E+000	9	...........
	138	1.85333	9.37701E-001	9.10074E-005	0.00000E+000	8.53377E-005	5.39641E-002	9.37883E-001	3.57150E+000	9	...........
	139	1.86667	9.39316E-001	9.12335E-005	0.00000E+000	8.56971E-005	5.39641E-002	9.39488E-001	3.57150E+000	9	...........
	140	1.88	9.40918E-001	9.11773E-005	0.00000E+000	8.57903E-005	5.39641E-002	9.41083E-001	3.57150E+000	9	...........
	141	1.89333	9.42495E-001	9.10303E-005	0.00000E+000	8.57956E-005	5.39641E-002	9.42656E-001	3.57150E+000	9	...........
	142	1.90667	9.44045E-001	9.12741E-005	0.00000E+000	8.61669E-005	5.39641E-002	9.44213E-001	3.57150E+000	9	...........
	143	1.92	9.45578E-001	9.11335E-005	0.00000E+000	8.61739E-005	5.39641E-002	9.45761E-001	3.57150E+000	9	...........
	144	1.93333	9.47191E-001	9.10991E-005	0.00000E+000	8.62883E-005	5.39641E-002	9.47338E-001	3.57150E+000	9	...........
	145	1.94667	9.48725E-001	9.12043E-005	0.00000E+000	8.65278E-005	5.39641E-002	9.48869E-001	3.57150E+000	9	...........
	146	1.96	9.50240E-001	9.12596E-005	0.00000E+000	8.67185E-005	5.39641E-002	9.50385E-001	3.57150E+000	9	...........
	147	1.97333	9.51724E-001	9.13429E-005	0.00000E+000	8.69333E-005	5.39641E-002	9.51878E-001	3.57150E+000	9	...........
	148	1.98667	9.53229E-001	9.11481E-005	0.00000E+000	8.68850E-005	5.39641E-002	9.53358E-001	3.57150E+000	9	...........
	149	2	9.54693E-001	9.09887E-005	0.00000E+000	8.68663E-005	5.39641E-002	9.54843E-001	3.57150E+000	9	...........
	150	2.01333	9.56130E-001	9.10460E-005	0.00000E+000	8.70518E-005	5.39641E-002	9.56285E-001	3.57150E+000	9	...........
	151	2.02667	9.57557E-001	9.08720E-005	0.00000E+000	8.70151E-005	5.39641E-002	9.57718E-001	3.57150E+000	9	...........
	152	2.04	9.58998E-001	9.10877E-005	0.00000E+000	8.73529E-005	5.39641E-002	9.59175E-001	3.57150E+000	9	...........
	153	2.05333	9.60421E-001	9.12075E-005	0.00000E+000	8.75976E-005	5.39641E-002	9.60589E-001	3.57150E+000	9	...........
	154	2.06667	9.61828E-001	9.12450E-005	0.00000E+000	8.77620E-005	5.39641E-002	9.62018E-001	3.57150E+000	9	...........
	155	2.08	9.63211E-001	9.11616E-005	0.00000E+000	8.78079E-005	5.39641E-002	9.63401E-001	3.57150E+000	9	...........
	156	2.09333	9.64592E-001	9.11835E-005	0.00000E+000	8.79548E-005	5.39641E-002	9.64786E-001	3.57150E+000	9	...........
	157	2.10667	9.65977E-001	9.11168E-005	0.00000E+000	8.80168E-005	5.39641E-002	9.66156E-001	3.57150E+000	9	...........
	158	2.12	9.67308E-001	9.10981E-005	0.00000E+000	8.81199E-005	5.39641E-002	9.67518E-001	3.57150E+000	9	...........
	159	2.13333	9.68648E-001	9.11418E-005	0.00000E+000	8.82844E-005	5.39641E-002	9.68868E-001	3.57150E+000	9	...........
	160	2.14667	9.69992E-001	9.13231E-005	0.00000E+000	8.85827E-005	5.39641E-002	9.70199E-001	3.57150E+000	9	...........
	161	2.16	9.71292E-001	9.08793E-005	0.00000E+000	8.82703E-005	5.39641E-002	9.71533E-001	3.57150E+000	9	...........
	162	2.17333	9.72635E-001	9.09668E-005	0.00000E+000	8.84775E-005	5.39641E-002	9.72810E-001	3.57150E+000	9	...........
	163	2.18667	9.73958E-001	9.10293E-005	0.00000E+000	8.86587E-005	5.39641E-002	9.74124E-001	3.57150E+000	9	...........
	164	2.2	9.75217E-001	9.11116E-005	0.00000E+000	8.88536E-005	5.39641E-002	9.75389E-001	3.57150E+000	9	...........
	165	2.21333	9.76504E-001	9.13106E-005	0.00000E+000	8.91651E-005	5.39641E-002	9.76670E-001	3.57150E+000	9	...........
	166	2.22667	9.77763E-001	9.12168E-005	0.00000E+000	8.91884E-005	5.39641E-002	9.77940E-001	3.57150E+000	9	...........
	167	2.24	9.79030E-001	9.11762E-005	0.00000E+000	8.92642E-005	5.39641E-002	9.79191E-001	3.57150E+000	9	...........
	168	2.25333	9.80294E-001	9.13804E-005	0.00000E+000	8.95797E-005	5.39641E-002	9.80439E-001	3.57150E+000	9	...........
	169	2.26667	9.81519E-001	9.12929E-005	0.00000E+000	8.96057E-005	5.39641E-002	9.81673E-001	3.57150E+000	9	...........
	170	2.28	9.82741E-001	9.12679E-005	0.00000E+000	8.96927E-005	5.39641E-002	9.82885E-001	3.57150E+000	9	...........
	171	2.29333	9.83930E-001	9.10585E-005	0.00000E+000	8.95952E-005	5.39641E-002	9.84082E-001	3.57150E+000	9	...........
	172	2.30667	9.85118E-001	9.11595E-005	0.00000E+000	8.98029E-005	5.39641E-002	9.85294E-001	3.57150E+000	9	...........
	173	2.32	9.86315E-001	9.13335E-005	0.00000E+000	9.00836E-005	5.39641E-002	9.86491E-001	3.57150E+000	9	...........
	174	2.33333	9.87493E-001	9.11637E-005	0.00000E+000	9.00235E-005	5.39641E-002	9.87669E-001	3.57150E+000	9	...........
	175	2.34667	9.88688E-001	9.12366E-005	0.00000E+000	9.02046E-005	5.39641E-002	9.88830E-001	3.57150E+000	9	...........
	176	2.36	9.89819E-001	9.13012E-005	0.00000E+000	9.03717E-005	5.39641E-002	9.89987E-001	3.57150E+000	9	...........
	177	2.37333	9.90970E-001	9.10960E-005	0.00000E+000	9.02734E-005	5.39641E-002	9.91136E-001	3.57150E+000	9	...........
	178	2.38667	9.92081E-001	9.11137E-005	0.00000E+000	9.03921E-005	5.39641E-002	9.92235E-001	3.57150E+000	9	...........
	179	2.4	9.93177E-001	9.10751E-005	0.00000E+000	9.04538E-005	5.39641E-002	9.93382E-001	3.57150E+000	9	...........
	180	2.41333	9.94310E-001	9.12564E-005	0.00000E+000	9.07372E-005	5.39641E-002	9.94512E-001	3.57150E+000	9	...........
	181	2.42667	9.95441E-001	9.11387E-005	0.00000E+000	9.07232E-005	5.39641E-002	9.95612E-001	3.57150E+000	9	...........
	182	2.44	9.96530E-001	9.10158E-005	0.00000E+000	9.06999E-005	5.39641E-002	9.96725E-001	3.57150E+000	9	...........
	183	2.45333	9.97669E-001	9.11189E-005	0.00000E+000	9.09065E-005	5.39641E-002	9.97825E-001	3.57150E+000	9	...........
	184	2.46667	9.98768E-001	9.11804E-005	0.00000E+000	9.10681E-005	5.39641E-002	9.98939E-001	3.57150E+000	9	...........
	185	2.47667	9.99708E-001	9.10849E-005	0.00000E+000	9.10582E-005	5.39641E-002	9.99894E-001	3.57150E+000	9	...........
STARTTIMEOFFSET	QUANT	527.0267	Start Time Offset (s)
