EXPLAIN
TAG	PWR800_CHARGE
TITLE	LABEL	PWR Cyclic Charge Discharge (Cell) - Charge Step	Test &Identifier
DATE	LABEL	10-7-2017	Date
TIME	LABEL	16:18:24	Time
NOTES	NOTES	3	&Notes...
	supercap test cell
	0.9mg
	6M KOH
PSTAT	PSTAT	IFC5000-01520	Potentiostat
CAPACITY	QUANT	1.00000E-003	Capacity (A-hr)
CELLTYPE	SELECTOR	1	&Cell Type
WORKINGCONNECTION	SELECTOR	0	&Working Lead
MAXCHARGETIME	VARIABLEANDUNITS	1.00000E+002	s	1.00000E+002	second(s)	Max &Charge Time
CHARGECURRENT	QUANT	9.00000E-005	&Charge Current (A) 
VOLTAGEFINISH	TWOPARAM	F	1.00000E-003	3.60000E+003	&Voltage Finish	 I (A) < 	Max Time(s)
SAMPLETIME	QUANT	1.00000E-002	Sa&mple Period (s)
CHARGESTOPAT1	MULTIPARAM	4	1.00000E+000	Charge Stop At &1	Voltage > Limit	V
CHARGESTOPAT2	MULTIPARAM	0	0.00000E+000	Charge Stop At &2	None	N/A
AESBHCSELECTOR	TOGGLE	F	Save Both Half Cells
IRCOMP	TOGGLE	F	IR &Measure
EOC	QUANT	0	Open Circuit (V)
SEQUENCER	TOGGLE	TRUE	Run as Sequence
PSTATMODEL	IQUANT	53	Pstat Model
PSTATSECTION	LABEL	IFC5000-01520	Pstat Section
PSTATSERIALNO	LABEL	01520	Pstat Serial Number
CTRLMODE	IQUANT	0	Control Mode
ELECTROMETER	IQUANT	1	RE=0 or CS=1
IESTAB	IQUANT	0	I/E Stability
CASPEED	IQUANT	4	Control Amp Speed
CONVENTION	IQUANT	1	Current Convention
ICHRANGE	IQUANT	2	Ich Range
ICHRANGEMODE	TOGGLE	T	Ich Auto Range
ICHOFFSETENABLE	TOGGLE	F	Ich Offset Enable
ICHOFFSET	QUANT	0	Ich Offset (V)
ICHFILTER	IQUANT	1	Ich Filter
VCHRANGE	IQUANT	2	Vch Range
VCHRANGEMODE	TOGGLE	T	Vch Auto Range
VCHOFFSETENABLE	TOGGLE	F	Vch Offset Enable
VCHOFFSET	QUANT	0	Vch Offset (V)
VCHFILTER	IQUANT	1	Vch Filter
IERANGELOWERLIMIT	IQUANT	9	I/E Range Lower Limit
IERANGEMODE	TOGGLE	F	I/E AutoRange
IERANGE	IQUANT	9	I/E Range
ACHSELECT	IQUANT	1	Ach Select
ACHRANGE	IQUANT	2	Ach Range
ACHOFFSETENABLE	TOGGLE	F	Ach Offset Enable
ACHOFFSET	QUANT	0	Ach Offset (V)
ACHFILTER	IQUANT	1	Ach Filter
CABLEID	IQUANT	14	Cable ID
DCCALDATE	LABEL	5-7-2017	DC Calibration Date
ACCALDATE	LABEL	12/3/2015	AC Calibration Date
FRAMEWORKVERSION	QUANT	7.01	Framework Version
INSTRUMENTVERSION	LABEL	4.00	Instrument Version
CURVE	TABLE	162
	Pt	T	Vf	Im	Vu	Pwr	Sig	Ach	Temp	IERange	Over
	#	s	V	A	V	W	V	V	deg C	#	bits
	0	0.013333	2.59387E-001	9.08241E-005	0.00000E+000	2.35585E-005	5.39641E-002	2.59432E-001	3.57320E+000	9	...........
	1	0.026667	2.79197E-001	9.08355E-005	0.00000E+000	2.53610E-005	5.39641E-002	2.79229E-001	3.57320E+000	9	...........
	2	0.04	2.97831E-001	9.09387E-005	0.00000E+000	2.70844E-005	5.39641E-002	2.97875E-001	3.57320E+000	9	...........
	3	0.053333	3.15466E-001	9.08470E-005	0.00000E+000	2.86591E-005	5.39641E-002	3.15507E-001	3.57320E+000	9	...........
	4	0.066667	3.32178E-001	9.12346E-005	0.00000E+000	3.03061E-005	5.39641E-002	3.32223E-001	3.57320E+000	9	...........
	5	0.08	3.48077E-001	9.09543E-005	0.00000E+000	3.16591E-005	5.39641E-002	3.48130E-001	3.57320E+000	9	...........
	6	0.093333	3.63218E-001	9.07522E-005	0.00000E+000	3.29629E-005	5.39641E-002	3.63263E-001	3.57320E+000	9	...........
	7	0.106667	3.77652E-001	9.10095E-005	0.00000E+000	3.43700E-005	5.39641E-002	3.77700E-001	3.57320E+000	9	...........
	8	0.12	3.91434E-001	9.10449E-005	0.00000E+000	3.56380E-005	5.39641E-002	3.91482E-001	3.57320E+000	9	...........
	9	0.133333	4.04617E-001	9.09262E-005	0.00000E+000	3.67903E-005	5.39641E-002	4.04667E-001	3.57320E+000	9	...........
	10	0.146667	4.17249E-001	9.11637E-005	0.00000E+000	3.80379E-005	5.39641E-002	4.17311E-001	3.57320E+000	9	...........
	11	0.16	4.29375E-001	9.10335E-005	0.00000E+000	3.90875E-005	5.39641E-002	4.29433E-001	3.57320E+000	9	...........
	12	0.173333	4.41014E-001	9.08188E-005	0.00000E+000	4.00524E-005	5.39641E-002	4.41071E-001	3.57320E+000	9	...........
	13	0.186667	4.52218E-001	9.09512E-005	0.00000E+000	4.11297E-005	5.39641E-002	4.52281E-001	3.57320E+000	9	...........
	14	0.2	4.63003E-001	9.09981E-005	0.00000E+000	4.21323E-005	5.39641E-002	4.63067E-001	3.57320E+000	9	...........
	15	0.213333	4.73406E-001	9.07261E-005	0.00000E+000	4.29503E-005	5.39641E-002	4.73468E-001	3.57320E+000	9	...........
	16	0.226667	4.83447E-001	9.10178E-005	0.00000E+000	4.40023E-005	5.39641E-002	4.83517E-001	3.57320E+000	9	...........
	17	0.24	4.93152E-001	9.10283E-005	0.00000E+000	4.48908E-005	5.39641E-002	4.93220E-001	3.57320E+000	9	...........
	18	0.253333	5.02545E-001	9.10220E-005	0.00000E+000	4.57426E-005	5.39641E-002	5.02616E-001	3.57320E+000	9	...........
	19	0.266667	5.11630E-001	9.09668E-005	0.00000E+000	4.65413E-005	5.39641E-002	5.11706E-001	3.57320E+000	9	...........
	20	0.28	5.20454E-001	9.08355E-005	0.00000E+000	4.72757E-005	5.39641E-002	5.20526E-001	3.57320E+000	9	...........
	21	0.293333	5.29021E-001	9.06980E-005	0.00000E+000	4.79811E-005	5.39641E-002	5.29090E-001	3.57320E+000	9	...........
	22	0.306667	5.37226E-001	9.11585E-005	0.00000E+000	4.89727E-005	5.39641E-002	5.37286E-001	3.57320E+000	9	...........
	23	0.32	5.45303E-001	9.09928E-005	0.00000E+000	4.96187E-005	5.39641E-002	5.45382E-001	3.57320E+000	9	...........
	24	0.333333	5.53152E-001	9.10783E-005	0.00000E+000	5.03801E-005	5.39641E-002	5.53250E-001	3.57320E+000	9	...........
	25	0.346667	5.60814E-001	9.12158E-005	0.00000E+000	5.11551E-005	5.39641E-002	5.60907E-001	3.57320E+000	9	...........
	26	0.36	5.68285E-001	9.10022E-005	0.00000E+000	5.17152E-005	5.39641E-002	5.68346E-001	3.57320E+000	9	...........
	27	0.373333	5.75524E-001	9.09095E-005	0.00000E+000	5.23206E-005	5.39641E-002	5.75640E-001	3.57320E+000	9	...........
	28	0.386667	5.82612E-001	9.11106E-005	0.00000E+000	5.30821E-005	5.39641E-002	5.82748E-001	3.57320E+000	9	...........
	29	0.4	5.89523E-001	9.10418E-005	0.00000E+000	5.36712E-005	5.39641E-002	5.89687E-001	3.57320E+000	9	...........
	30	0.413333	5.96296E-001	9.11127E-005	0.00000E+000	5.43301E-005	5.39641E-002	5.96446E-001	3.57320E+000	9	...........
	31	0.426667	6.02907E-001	9.11408E-005	0.00000E+000	5.49494E-005	5.39641E-002	6.03075E-001	3.57320E+000	9	...........
	32	0.44	6.09365E-001	9.11481E-005	0.00000E+000	5.55425E-005	5.39641E-002	6.09527E-001	3.57320E+000	9	...........
	33	0.453333	6.15748E-001	9.10543E-005	0.00000E+000	5.60665E-005	5.39641E-002	6.15911E-001	3.57320E+000	9	...........
	34	0.466667	6.21978E-001	9.10158E-005	0.00000E+000	5.66098E-005	5.39641E-002	6.22067E-001	3.57320E+000	9	...........
	35	0.48	6.28029E-001	9.10668E-005	0.00000E+000	5.71926E-005	5.39641E-002	6.28161E-001	3.57320E+000	9	...........
	36	0.493333	6.33961E-001	9.09366E-005	0.00000E+000	5.76502E-005	5.39641E-002	6.34088E-001	3.57320E+000	9	...........
	37	0.506667	6.39828E-001	9.10408E-005	0.00000E+000	5.82504E-005	5.39641E-002	6.39953E-001	3.57320E+000	9	...........
	38	0.52	6.45540E-001	9.09303E-005	0.00000E+000	5.86992E-005	5.39641E-002	6.45674E-001	3.57320E+000	9	...........
	39	0.533333	6.51167E-001	9.11908E-005	0.00000E+000	5.93804E-005	5.39641E-002	6.51268E-001	3.57320E+000	9	...........
	40	0.546667	6.56677E-001	9.09887E-005	0.00000E+000	5.97501E-005	5.39641E-002	6.56801E-001	3.57320E+000	9	...........
	41	0.56	6.62092E-001	9.09981E-005	0.00000E+000	6.02491E-005	5.39641E-002	6.62199E-001	3.57320E+000	9	...........
	42	0.573333	6.67446E-001	9.10793E-005	0.00000E+000	6.07905E-005	5.39641E-002	6.67558E-001	3.57320E+000	9	...........
	43	0.586667	6.72700E-001	9.09199E-005	0.00000E+000	6.11618E-005	5.39641E-002	6.72795E-001	3.57320E+000	9	...........
	44	0.6	6.77843E-001	9.10824E-005	0.00000E+000	6.17396E-005	5.39641E-002	6.77955E-001	3.57320E+000	9	...........
	45	0.613333	6.82916E-001	9.10835E-005	0.00000E+000	6.22024E-005	5.39641E-002	6.83019E-001	3.57320E+000	9	...........
	46	0.626667	6.87864E-001	9.09939E-005	0.00000E+000	6.25915E-005	5.39641E-002	6.87997E-001	3.57320E+000	9	...........
	47	0.64	6.92816E-001	9.10574E-005	0.00000E+000	6.30861E-005	5.39641E-002	6.92925E-001	3.57320E+000	9	...........
	48	0.653333	6.97634E-001	9.09772E-005	0.00000E+000	6.34688E-005	5.39641E-002	6.97764E-001	3.57320E+000	9	...........
	49	0.666667	7.02356E-001	9.09439E-005	0.00000E+000	6.38750E-005	5.39641E-002	7.02478E-001	3.57320E+000	9	...........
	50	0.68	7.07014E-001	9.09053E-005	0.00000E+000	6.42713E-005	5.39641E-002	7.07159E-001	3.57334E+000	9	...........
	51	0.693333	7.11612E-001	9.08866E-005	0.00000E+000	6.46760E-005	5.39641E-002	7.11760E-001	3.57430E+000	9	...........
	52	0.706667	7.16190E-001	9.08095E-005	0.00000E+000	6.50368E-005	5.39641E-002	7.16351E-001	3.57430E+000	9	...........
	53	0.72	7.20717E-001	9.08501E-005	0.00000E+000	6.54772E-005	5.39641E-002	7.20846E-001	3.57430E+000	9	...........
	54	0.733333	7.25148E-001	9.08282E-005	0.00000E+000	6.58639E-005	5.39641E-002	7.25251E-001	3.57430E+000	9	...........
	55	0.746667	7.29481E-001	9.09178E-005	0.00000E+000	6.63228E-005	5.39641E-002	7.29621E-001	3.57430E+000	9	...........
	56	0.76	7.33796E-001	9.10189E-005	0.00000E+000	6.67893E-005	5.39641E-002	7.33899E-001	3.57430E+000	9	...........
	57	0.773333	7.38039E-001	9.13398E-005	0.00000E+000	6.74123E-005	5.39641E-002	7.38134E-001	3.57430E+000	9	...........
	58	0.786667	7.42227E-001	9.11450E-005	0.00000E+000	6.76502E-005	5.39641E-002	7.42306E-001	3.57430E+000	9	...........
	59	0.8	7.46361E-001	9.11595E-005	0.00000E+000	6.80379E-005	5.39641E-002	7.46475E-001	3.57430E+000	9	...........
	60	0.813333	7.50463E-001	9.11773E-005	0.00000E+000	6.84251E-005	5.39641E-002	7.50546E-001	3.57430E+000	9	...........
	61	0.826667	7.54529E-001	9.08949E-005	0.00000E+000	6.85828E-005	5.39641E-002	7.54635E-001	3.57430E+000	9	...........
	62	0.84	7.58513E-001	9.11179E-005	0.00000E+000	6.91141E-005	5.39641E-002	7.58624E-001	3.57430E+000	9	...........
	63	0.853333	7.62461E-001	9.08491E-005	0.00000E+000	6.92688E-005	5.39641E-002	7.62581E-001	3.57430E+000	9	...........
	64	0.866667	7.66311E-001	9.09637E-005	0.00000E+000	6.97065E-005	5.39641E-002	7.66487E-001	3.57430E+000	9	...........
	65	0.88	7.70194E-001	9.08314E-005	0.00000E+000	6.99577E-005	5.39641E-002	7.70320E-001	3.57430E+000	9	...........
	66	0.893333	7.73986E-001	9.11252E-005	0.00000E+000	7.05296E-005	5.39641E-002	7.74141E-001	3.57430E+000	9	...........
	67	0.906667	7.77755E-001	9.12939E-005	0.00000E+000	7.10043E-005	5.39641E-002	7.77890E-001	3.57430E+000	9	...........
	68	0.92	7.81490E-001	9.09095E-005	0.00000E+000	7.10449E-005	5.39641E-002	7.81644E-001	3.57430E+000	9	...........
	69	0.933333	7.85169E-001	9.11137E-005	0.00000E+000	7.15397E-005	5.39641E-002	7.85296E-001	3.57430E+000	9	...........
	70	0.946667	7.88820E-001	9.10012E-005	0.00000E+000	7.17836E-005	5.39641E-002	7.88956E-001	3.57430E+000	9	...........
	71	0.96	7.92427E-001	9.09678E-005	0.00000E+000	7.20853E-005	5.39641E-002	7.92570E-001	3.57430E+000	9	...........
	72	0.97333	7.96033E-001	9.09262E-005	0.00000E+000	7.23802E-005	5.39641E-002	7.96157E-001	3.57430E+000	9	...........
	73	0.98667	7.99552E-001	9.07355E-005	0.00000E+000	7.25477E-005	5.39641E-002	7.99652E-001	3.57430E+000	9	...........
	74	1	8.03028E-001	9.09689E-005	0.00000E+000	7.30506E-005	5.39641E-002	8.03133E-001	3.57430E+000	9	...........
	75	1.01333	8.06472E-001	9.10064E-005	0.00000E+000	7.33941E-005	5.39641E-002	8.06582E-001	3.57430E+000	9	...........
	76	1.02667	8.09862E-001	9.11606E-005	0.00000E+000	7.38275E-005	5.39641E-002	8.09990E-001	3.57430E+000	9	...........
	77	1.04	8.13234E-001	9.10585E-005	0.00000E+000	7.40519E-005	5.39641E-002	8.13370E-001	3.57430E+000	9	...........
	78	1.05333	8.16568E-001	9.13002E-005	0.00000E+000	7.45528E-005	5.39641E-002	8.16723E-001	3.57430E+000	9	...........
	79	1.06667	8.19898E-001	9.10074E-005	0.00000E+000	7.46168E-005	5.39641E-002	8.20042E-001	3.57430E+000	9	...........
	80	1.08	8.23144E-001	9.08105E-005	0.00000E+000	7.47502E-005	5.39641E-002	8.23310E-001	3.57430E+000	9	...........
	81	1.09333	8.26376E-001	9.10699E-005	0.00000E+000	7.52580E-005	5.39641E-002	8.26535E-001	3.57430E+000	9	...........
	82	1.10667	8.29576E-001	9.09970E-005	0.00000E+000	7.54889E-005	5.39641E-002	8.29718E-001	3.57430E+000	9	...........
	83	1.12	8.32722E-001	9.10408E-005	0.00000E+000	7.58116E-005	5.39641E-002	8.32870E-001	3.57430E+000	9	...........
	84	1.13333	8.35860E-001	9.08626E-005	0.00000E+000	7.59484E-005	5.39641E-002	8.36027E-001	3.57430E+000	9	...........
	85	1.14667	8.38995E-001	9.08230E-005	0.00000E+000	7.62001E-005	5.39641E-002	8.39123E-001	3.57430E+000	9	...........
	86	1.16	8.42045E-001	9.09407E-005	0.00000E+000	7.65762E-005	5.39641E-002	8.42188E-001	3.57430E+000	9	...........
	87	1.17333	8.45125E-001	9.09501E-005	0.00000E+000	7.68642E-005	5.39641E-002	8.45286E-001	3.57430E+000	9	...........
	88	1.18667	8.48111E-001	9.08803E-005	0.00000E+000	7.70766E-005	5.39641E-002	8.48278E-001	3.57430E+000	9	...........
	89	1.2	8.51092E-001	9.10418E-005	0.00000E+000	7.74850E-005	5.39641E-002	8.51244E-001	3.57430E+000	9	...........
	90	1.21333	8.54022E-001	9.09626E-005	0.00000E+000	7.76841E-005	5.39641E-002	8.54182E-001	3.57430E+000	9	...........
	91	1.22667	8.56962E-001	9.12502E-005	0.00000E+000	7.81979E-005	5.39641E-002	8.57114E-001	3.57430E+000	9	...........
	92	1.24	8.59870E-001	9.11689E-005	0.00000E+000	7.83935E-005	5.39641E-002	8.60029E-001	3.57430E+000	9	...........
	93	1.25333	8.62718E-001	9.09960E-005	0.00000E+000	7.85038E-005	5.39641E-002	8.62863E-001	3.57430E+000	9	...........
	94	1.26667	8.65523E-001	9.12366E-005	0.00000E+000	7.89674E-005	5.39641E-002	8.65703E-001	3.57430E+000	9	...........
	95	1.28	8.68345E-001	9.08230E-005	0.00000E+000	7.88657E-005	5.39641E-002	8.68516E-001	3.57430E+000	9	...........
	96	1.29333	8.71163E-001	9.11179E-005	0.00000E+000	7.93785E-005	5.39641E-002	8.71287E-001	3.57430E+000	9	...........
	97	1.30667	8.73866E-001	9.11783E-005	0.00000E+000	7.96776E-005	5.39641E-002	8.74047E-001	3.57430E+000	9	...........
	98	1.32	8.76570E-001	9.11418E-005	0.00000E+000	7.98922E-005	5.39641E-002	8.76762E-001	3.57430E+000	9	...........
	99	1.33333	8.79248E-001	9.10626E-005	0.00000E+000	8.00666E-005	5.39641E-002	8.79447E-001	3.57430E+000	9	...........
	100	1.34667	8.81880E-001	9.10220E-005	0.00000E+000	8.02705E-005	5.39641E-002	8.82082E-001	3.57430E+000	9	...........
	101	1.36	8.84536E-001	9.11293E-005	0.00000E+000	8.06072E-005	5.39641E-002	8.84719E-001	3.57430E+000	9	...........
	102	1.37333	8.87129E-001	9.10116E-005	0.00000E+000	8.07391E-005	5.39641E-002	8.87338E-001	3.57430E+000	9	...........
	103	1.38667	8.89722E-001	9.09012E-005	0.00000E+000	8.08767E-005	5.39641E-002	8.89891E-001	3.57430E+000	9	...........
	104	1.4	8.92265E-001	9.11575E-005	0.00000E+000	8.13366E-005	5.39641E-002	8.92452E-001	3.57430E+000	9	...........
	105	1.41333	8.94785E-001	9.10720E-005	0.00000E+000	8.14899E-005	5.39641E-002	8.95010E-001	3.57430E+000	9	...........
	106	1.42667	8.97292E-001	9.12335E-005	0.00000E+000	8.18631E-005	5.39641E-002	8.97515E-001	3.57430E+000	9	...........
	107	1.44	8.99750E-001	9.06042E-005	0.00000E+000	8.15212E-005	5.39641E-002	8.99963E-001	3.57430E+000	9	...........
	108	1.45333	9.02215E-001	9.11429E-005	0.00000E+000	8.22305E-005	5.39641E-002	9.02417E-001	3.57430E+000	9	...........
	109	1.46667	9.04641E-001	9.11679E-005	0.00000E+000	8.24742E-005	5.39641E-002	9.04857E-001	3.57430E+000	9	...........
	110	1.48	9.07020E-001	9.08136E-005	0.00000E+000	8.23698E-005	5.39641E-002	9.07230E-001	3.57430E+000	9	...........
	111	1.49333	9.09410E-001	9.08126E-005	0.00000E+000	8.25859E-005	5.39641E-002	9.09595E-001	3.57430E+000	9	...........
	112	1.50667	9.11710E-001	9.11033E-005	0.00000E+000	8.30597E-005	5.39641E-002	9.11934E-001	3.57430E+000	9	...........
	113	1.52	9.14012E-001	9.08532E-005	0.00000E+000	8.30409E-005	5.39641E-002	9.14233E-001	3.57430E+000	9	...........
	114	1.53333	9.16299E-001	9.09230E-005	0.00000E+000	8.33127E-005	5.39641E-002	9.16514E-001	3.57430E+000	9	...........
	115	1.54667	9.18561E-001	9.09418E-005	0.00000E+000	8.35356E-005	5.39641E-002	9.18783E-001	3.57430E+000	9	...........
	116	1.56	9.20854E-001	9.10616E-005	0.00000E+000	8.38545E-005	5.39641E-002	9.21044E-001	3.57430E+000	9	...........
	117	1.57333	9.23065E-001	9.09012E-005	0.00000E+000	8.39077E-005	5.39641E-002	9.23249E-001	3.57430E+000	9	...........
	118	1.58667	9.25273E-001	9.10022E-005	0.00000E+000	8.42019E-005	5.39641E-002	9.25447E-001	3.57430E+000	9	...........
	119	1.6	9.27442E-001	9.09595E-005	0.00000E+000	8.43596E-005	5.39641E-002	9.27594E-001	3.57430E+000	9	...........
	120	1.61333	9.29567E-001	9.10324E-005	0.00000E+000	8.46208E-005	5.39641E-002	9.29753E-001	3.57430E+000	9	...........
	121	1.62667	9.31700E-001	9.13346E-005	0.00000E+000	8.50964E-005	5.39641E-002	9.31848E-001	3.57430E+000	9	...........
	122	1.64	9.33789E-001	9.08126E-005	0.00000E+000	8.47998E-005	5.39641E-002	9.33954E-001	3.57430E+000	9	...........
	123	1.65333	9.35876E-001	9.06615E-005	0.00000E+000	8.48480E-005	5.39641E-002	9.36054E-001	3.57430E+000	9	...........
	124	1.66667	9.37896E-001	9.09824E-005	0.00000E+000	8.53320E-005	5.39641E-002	9.38105E-001	3.57430E+000	9	...........
	125	1.68	9.39940E-001	9.10658E-005	0.00000E+000	8.55964E-005	5.39641E-002	9.40133E-001	3.57411E+000	9	...........
	126	1.69333	9.41945E-001	9.09772E-005	0.00000E+000	8.56955E-005	5.39641E-002	9.42125E-001	3.57280E+000	9	...........
	127	1.70667	9.43954E-001	9.11502E-005	0.00000E+000	8.60416E-005	5.39641E-002	9.44110E-001	3.57280E+000	9	...........
	128	1.72	9.45927E-001	9.08928E-005	0.00000E+000	8.59780E-005	5.39641E-002	9.46111E-001	3.57280E+000	9	...........
	129	1.73333	9.47909E-001	9.08793E-005	0.00000E+000	8.61453E-005	5.39641E-002	9.48093E-001	3.57280E+000	9	...........
	130	1.74667	9.49810E-001	9.10939E-005	0.00000E+000	8.65219E-005	5.39641E-002	9.50004E-001	3.57280E+000	9	...........
	131	1.76	9.51701E-001	9.09845E-005	0.00000E+000	8.65900E-005	5.39641E-002	9.51895E-001	3.57280E+000	9	...........
	132	1.77333	9.53571E-001	9.08762E-005	0.00000E+000	8.66569E-005	5.39641E-002	9.53760E-001	3.57280E+000	9	...........
	133	1.78667	9.55418E-001	9.10668E-005	0.00000E+000	8.70069E-005	5.39641E-002	9.55604E-001	3.57280E+000	9	...........
	134	1.8	9.57235E-001	9.11199E-005	0.00000E+000	8.72232E-005	5.39641E-002	9.57449E-001	3.57280E+000	9	...........
	135	1.81333	9.59072E-001	9.09595E-005	0.00000E+000	8.72367E-005	5.39641E-002	9.59255E-001	3.57280E+000	9	...........
	136	1.82667	9.60844E-001	9.12491E-005	0.00000E+000	8.76762E-005	5.39641E-002	9.61066E-001	3.57280E+000	9	...........
	137	1.84	9.62597E-001	9.09824E-005	0.00000E+000	8.75794E-005	5.39641E-002	9.62806E-001	3.57280E+000	9	...........
	138	1.85333	9.64330E-001	9.10314E-005	0.00000E+000	8.77843E-005	5.39641E-002	9.64548E-001	3.57280E+000	9	...........
	139	1.86667	9.66077E-001	9.12293E-005	0.00000E+000	8.81346E-005	5.39641E-002	9.66278E-001	3.57280E+000	9	...........
	140	1.88	9.67800E-001	9.08897E-005	0.00000E+000	8.79631E-005	5.39641E-002	9.68005E-001	3.57280E+000	9	...........
	141	1.89333	9.69465E-001	9.10168E-005	0.00000E+000	8.82376E-005	5.39641E-002	9.69703E-001	3.57280E+000	9	...........
	142	1.90667	9.71149E-001	9.10012E-005	0.00000E+000	8.83757E-005	5.39641E-002	9.71391E-001	3.57280E+000	9	...........
	143	1.92	9.72852E-001	9.08709E-005	0.00000E+000	8.84040E-005	5.39641E-002	9.73065E-001	3.57280E+000	9	...........
	144	1.93333	9.74488E-001	9.10387E-005	0.00000E+000	8.87161E-005	5.39641E-002	9.74701E-001	3.57280E+000	9	...........
	145	1.94667	9.76128E-001	9.08303E-005	0.00000E+000	8.86620E-005	5.39641E-002	9.76336E-001	3.57280E+000	9	...........
	146	1.96	9.77745E-001	9.09866E-005	0.00000E+000	8.89617E-005	5.39641E-002	9.77936E-001	3.57280E+000	9	...........
	147	1.97333	9.79333E-001	9.10793E-005	0.00000E+000	8.91970E-005	5.39641E-002	9.79532E-001	3.57280E+000	9	...........
	148	1.98667	9.80896E-001	9.12460E-005	0.00000E+000	8.95029E-005	5.39641E-002	9.81114E-001	3.57280E+000	9	...........
	149	2	9.82457E-001	9.10356E-005	0.00000E+000	8.94385E-005	5.39641E-002	9.82664E-001	3.57280E+000	9	...........
	150	2.01333	9.83998E-001	9.10064E-005	0.00000E+000	8.95501E-005	5.39641E-002	9.84192E-001	3.57280E+000	9	...........
	151	2.02667	9.85533E-001	9.07188E-005	0.00000E+000	8.94064E-005	5.39641E-002	9.85737E-001	3.57280E+000	9	...........
	152	2.04	9.87021E-001	9.07615E-005	0.00000E+000	8.95836E-005	5.39641E-002	9.87236E-001	3.57280E+000	9	...........
	153	2.05333	9.88517E-001	9.11908E-005	0.00000E+000	9.01436E-005	5.39641E-002	9.88695E-001	3.57280E+000	9	...........
	154	2.06667	9.90009E-001	9.09793E-005	0.00000E+000	9.00703E-005	5.39641E-002	9.90179E-001	3.57280E+000	9	...........
	155	2.08	9.91485E-001	9.09168E-005	0.00000E+000	9.01427E-005	5.39641E-002	9.91645E-001	3.57280E+000	9	...........
	156	2.09333	9.92907E-001	9.11502E-005	0.00000E+000	9.05037E-005	5.39641E-002	9.93087E-001	3.57280E+000	9	...........
	157	2.10667	9.94346E-001	9.13179E-005	0.00000E+000	9.08016E-005	5.39641E-002	9.94514E-001	3.57280E+000	9	...........
	158	2.12	9.95786E-001	9.09439E-005	0.00000E+000	9.05606E-005	5.39641E-002	9.95951E-001	3.57280E+000	9	...........
	159	2.13333	9.97194E-001	9.11262E-005	0.00000E+000	9.08705E-005	5.39641E-002	9.97366E-001	3.57280E+000	9	...........
	160	2.14667	9.98567E-001	9.09970E-005	0.00000E+000	9.08666E-005	5.39641E-002	9.98775E-001	3.57280E+000	9	...........
	161	2.155	9.99714E-001	9.07859E-005	0.00000E+000	9.07599E-005	5.39641E-002	9.99895E-001	3.57280E+000	9	...........
STARTTIMEOFFSET	QUANT	3981.75	Start Time Offset (s)
