EXPLAIN
TAG	PWR800_CHARGE
TITLE	LABEL	PWR Cyclic Charge Discharge (Cell) - Charge Step	Test &Identifier
DATE	LABEL	10-7-2017	Date
TIME	LABEL	16:11:48	Time
NOTES	NOTES	3	&Notes...
	supercap test cell
	0.9mg
	6M KOH
PSTAT	PSTAT	IFC5000-01520	Potentiostat
CAPACITY	QUANT	1.00000E-003	Capacity (A-hr)
CELLTYPE	SELECTOR	1	&Cell Type
WORKINGCONNECTION	SELECTOR	0	&Working Lead
MAXCHARGETIME	VARIABLEANDUNITS	1.00000E+002	s	1.00000E+002	second(s)	Max &Charge Time
CHARGECURRENT	QUANT	9.00000E-005	&Charge Current (A) 
VOLTAGEFINISH	TWOPARAM	F	1.00000E-003	3.60000E+003	&Voltage Finish	 I (A) < 	Max Time(s)
SAMPLETIME	QUANT	1.00000E-002	Sa&mple Period (s)
CHARGESTOPAT1	MULTIPARAM	4	1.00000E+000	Charge Stop At &1	Voltage > Limit	V
CHARGESTOPAT2	MULTIPARAM	0	0.00000E+000	Charge Stop At &2	None	N/A
AESBHCSELECTOR	TOGGLE	F	Save Both Half Cells
IRCOMP	TOGGLE	F	IR &Measure
EOC	QUANT	0	Open Circuit (V)
SEQUENCER	TOGGLE	TRUE	Run as Sequence
PSTATMODEL	IQUANT	53	Pstat Model
PSTATSECTION	LABEL	IFC5000-01520	Pstat Section
PSTATSERIALNO	LABEL	01520	Pstat Serial Number
CTRLMODE	IQUANT	0	Control Mode
ELECTROMETER	IQUANT	1	RE=0 or CS=1
IESTAB	IQUANT	0	I/E Stability
CASPEED	IQUANT	4	Control Amp Speed
CONVENTION	IQUANT	1	Current Convention
ICHRANGE	IQUANT	2	Ich Range
ICHRANGEMODE	TOGGLE	T	Ich Auto Range
ICHOFFSETENABLE	TOGGLE	F	Ich Offset Enable
ICHOFFSET	QUANT	0	Ich Offset (V)
ICHFILTER	IQUANT	1	Ich Filter
VCHRANGE	IQUANT	2	Vch Range
VCHRANGEMODE	TOGGLE	T	Vch Auto Range
VCHOFFSETENABLE	TOGGLE	F	Vch Offset Enable
VCHOFFSET	QUANT	0	Vch Offset (V)
VCHFILTER	IQUANT	1	Vch Filter
IERANGELOWERLIMIT	IQUANT	9	I/E Range Lower Limit
IERANGEMODE	TOGGLE	F	I/E AutoRange
IERANGE	IQUANT	9	I/E Range
ACHSELECT	IQUANT	1	Ach Select
ACHRANGE	IQUANT	2	Ach Range
ACHOFFSETENABLE	TOGGLE	F	Ach Offset Enable
ACHOFFSET	QUANT	0	Ach Offset (V)
ACHFILTER	IQUANT	1	Ach Filter
CABLEID	IQUANT	14	Cable ID
DCCALDATE	LABEL	5-7-2017	DC Calibration Date
ACCALDATE	LABEL	12/3/2015	AC Calibration Date
FRAMEWORKVERSION	QUANT	7.01	Framework Version
INSTRUMENTVERSION	LABEL	4.00	Instrument Version
CURVE	TABLE	163
	Pt	T	Vf	Im	Vu	Pwr	Sig	Ach	Temp	IERange	Over
	#	s	V	A	V	W	V	V	deg C	#	bits
	0	0.013333	2.67199E-001	9.09334E-005	0.00000E+000	2.42973E-005	5.39641E-002	2.67255E-001	3.57350E+000	9	...........
	1	0.026667	2.86887E-001	9.07980E-005	0.00000E+000	2.60488E-005	5.39641E-002	2.86935E-001	3.57350E+000	9	...........
	2	0.04	3.05367E-001	9.08907E-005	0.00000E+000	2.77551E-005	5.39641E-002	3.05413E-001	3.57350E+000	9	...........
	3	0.053333	3.22802E-001	9.09678E-005	0.00000E+000	2.93646E-005	5.39641E-002	3.22849E-001	3.57350E+000	9	...........
	4	0.066667	3.39313E-001	9.08261E-005	0.00000E+000	3.08185E-005	5.39641E-002	3.39355E-001	3.57350E+000	9	...........
	5	0.08	3.54975E-001	9.11700E-005	0.00000E+000	3.23631E-005	5.39641E-002	3.55027E-001	3.57350E+000	9	...........
	6	0.093333	3.69870E-001	9.06740E-005	0.00000E+000	3.35376E-005	5.39641E-002	3.69923E-001	3.57350E+000	9	...........
	7	0.106667	3.84070E-001	9.10783E-005	0.00000E+000	3.49804E-005	5.39641E-002	3.84115E-001	3.57350E+000	9	...........
	8	0.12	3.97615E-001	9.06678E-005	0.00000E+000	3.60508E-005	5.39641E-002	3.97667E-001	3.57350E+000	9	...........
	9	0.133333	4.10575E-001	9.10324E-005	0.00000E+000	3.73757E-005	5.39641E-002	4.10629E-001	3.57350E+000	9	...........
	10	0.146667	4.22986E-001	9.10116E-005	0.00000E+000	3.84967E-005	5.39641E-002	4.23047E-001	3.57350E+000	9	...........
	11	0.16	4.34889E-001	9.09209E-005	0.00000E+000	3.95405E-005	5.39641E-002	4.34946E-001	3.57350E+000	9	...........
	12	0.173333	4.46328E-001	9.08605E-005	0.00000E+000	4.05536E-005	5.39641E-002	4.46388E-001	3.57350E+000	9	...........
	13	0.186667	4.57333E-001	9.07949E-005	0.00000E+000	4.15235E-005	5.39641E-002	4.57391E-001	3.57350E+000	9	...........
	14	0.2	4.67924E-001	9.11595E-005	0.00000E+000	4.26557E-005	5.39641E-002	4.67986E-001	3.57350E+000	9	...........
	15	0.213333	4.78138E-001	9.07480E-005	0.00000E+000	4.33901E-005	5.39641E-002	4.78197E-001	3.57350E+000	9	...........
	16	0.226667	4.88005E-001	9.09710E-005	0.00000E+000	4.43943E-005	5.39641E-002	4.88065E-001	3.57350E+000	9	...........
	17	0.24	4.97556E-001	9.09116E-005	0.00000E+000	4.52336E-005	5.39641E-002	4.97626E-001	3.57350E+000	9	...........
	18	0.253333	5.06815E-001	9.08293E-005	0.00000E+000	4.60336E-005	5.39641E-002	5.06888E-001	3.57350E+000	9	...........
	19	0.266667	5.15784E-001	9.10897E-005	0.00000E+000	4.69826E-005	5.39641E-002	5.15856E-001	3.57350E+000	9	...........
	20	0.28	5.24487E-001	9.10262E-005	0.00000E+000	4.77421E-005	5.39641E-002	5.24563E-001	3.57350E+000	9	...........
	21	0.293333	5.32890E-001	9.07803E-005	0.00000E+000	4.83759E-005	5.39641E-002	5.32978E-001	3.57350E+000	9	...........
	22	0.306667	5.41028E-001	9.10710E-005	0.00000E+000	4.92719E-005	5.39641E-002	5.41160E-001	3.57350E+000	9	...........
	23	0.32	5.48982E-001	9.10251E-005	0.00000E+000	4.99711E-005	5.39641E-002	5.49115E-001	3.57350E+000	9	...........
	24	0.333333	5.56721E-001	9.08626E-005	0.00000E+000	5.05851E-005	5.39641E-002	5.56834E-001	3.57332E+000	9	...........
	25	0.346667	5.64281E-001	9.09480E-005	0.00000E+000	5.13203E-005	5.39641E-002	5.64418E-001	3.57300E+000	9	...........
	26	0.36	5.71668E-001	9.12460E-005	0.00000E+000	5.21624E-005	5.39641E-002	5.71781E-001	3.57300E+000	9	...........
	27	0.373333	5.78843E-001	9.10929E-005	0.00000E+000	5.27285E-005	5.39641E-002	5.78963E-001	3.57300E+000	9	...........
	28	0.386667	5.85820E-001	9.10491E-005	0.00000E+000	5.33384E-005	5.39641E-002	5.85967E-001	3.57300E+000	9	...........
	29	0.4	5.92689E-001	9.10210E-005	0.00000E+000	5.39471E-005	5.39641E-002	5.92833E-001	3.57300E+000	9	...........
	30	0.413333	5.99339E-001	9.11137E-005	0.00000E+000	5.46080E-005	5.39641E-002	5.99487E-001	3.57300E+000	9	...........
	31	0.426667	6.05853E-001	9.11648E-005	0.00000E+000	5.52324E-005	5.39641E-002	6.06014E-001	3.57300E+000	9	...........
	32	0.44	6.12249E-001	9.10814E-005	0.00000E+000	5.57645E-005	5.39641E-002	6.12393E-001	3.57300E+000	9	...........
	33	0.453333	6.18584E-001	9.09012E-005	0.00000E+000	5.62300E-005	5.39641E-002	6.18674E-001	3.57300E+000	9	...........
	34	0.466667	6.24685E-001	9.12627E-005	0.00000E+000	5.70104E-005	5.39641E-002	6.24769E-001	3.57300E+000	9	...........
	35	0.48	6.30660E-001	9.09272E-005	0.00000E+000	5.73441E-005	5.39641E-002	6.30802E-001	3.57300E+000	9	...........
	36	0.493333	6.36539E-001	9.10064E-005	0.00000E+000	5.79291E-005	5.39641E-002	6.36661E-001	3.57300E+000	9	...........
	37	0.506667	6.42339E-001	9.10616E-005	0.00000E+000	5.84924E-005	5.39641E-002	6.42462E-001	3.57300E+000	9	...........
	38	0.52	6.47986E-001	9.10168E-005	0.00000E+000	5.89776E-005	5.39641E-002	6.48108E-001	3.57300E+000	9	...........
	39	0.533333	6.53562E-001	9.08168E-005	0.00000E+000	5.93544E-005	5.39641E-002	6.53684E-001	3.57300E+000	9	...........
	40	0.546667	6.59019E-001	9.10908E-005	0.00000E+000	6.00305E-005	5.39641E-002	6.59124E-001	3.57300E+000	9	...........
	41	0.56	6.64367E-001	9.09710E-005	0.00000E+000	6.04381E-005	5.39641E-002	6.64510E-001	3.57300E+000	9	...........
	42	0.573333	6.69668E-001	9.08918E-005	0.00000E+000	6.08673E-005	5.39641E-002	6.69775E-001	3.57300E+000	9	...........
	43	0.586667	6.74802E-001	9.09574E-005	0.00000E+000	6.13783E-005	5.39641E-002	6.74933E-001	3.57300E+000	9	...........
	44	0.6	6.79895E-001	9.09230E-005	0.00000E+000	6.18181E-005	5.39641E-002	6.80010E-001	3.57300E+000	9	...........
	45	0.613333	6.84856E-001	9.11241E-005	0.00000E+000	6.24069E-005	5.39641E-002	6.84995E-001	3.57300E+000	9	...........
	46	0.626667	6.89754E-001	9.09543E-005	0.00000E+000	6.27361E-005	5.39641E-002	6.89880E-001	3.57300E+000	9	...........
	47	0.64	6.94588E-001	9.09824E-005	0.00000E+000	6.31953E-005	5.39641E-002	6.94715E-001	3.57300E+000	9	...........
	48	0.653333	6.99316E-001	9.10408E-005	0.00000E+000	6.36663E-005	5.39641E-002	6.99447E-001	3.57300E+000	9	...........
	49	0.666667	7.04009E-001	9.11429E-005	0.00000E+000	6.41654E-005	5.39641E-002	7.04130E-001	3.57300E+000	9	...........
	50	0.68	7.08648E-001	9.12023E-005	0.00000E+000	6.46303E-005	5.39641E-002	7.08771E-001	3.57300E+000	9	...........
	51	0.693333	7.13178E-001	9.08116E-005	0.00000E+000	6.47648E-005	5.39641E-002	7.13313E-001	3.57300E+000	9	...........
	52	0.706667	7.17702E-001	9.11533E-005	0.00000E+000	6.54209E-005	5.39641E-002	7.17839E-001	3.57300E+000	9	...........
	53	0.72	7.22167E-001	9.12221E-005	0.00000E+000	6.58776E-005	5.39641E-002	7.22291E-001	3.57300E+000	9	...........
	54	0.733333	7.26540E-001	9.09209E-005	0.00000E+000	6.60577E-005	5.39641E-002	7.26674E-001	3.57300E+000	9	...........
	55	0.746667	7.30889E-001	9.10626E-005	0.00000E+000	6.65567E-005	5.39641E-002	7.31038E-001	3.57300E+000	9	...........
	56	0.76	7.35133E-001	9.12533E-005	0.00000E+000	6.70833E-005	5.39641E-002	7.35290E-001	3.57300E+000	9	...........
	57	0.773333	7.39340E-001	9.10564E-005	0.00000E+000	6.73216E-005	5.39641E-002	7.39508E-001	3.57300E+000	9	...........
	58	0.786667	7.43544E-001	9.10137E-005	0.00000E+000	6.76726E-005	5.39641E-002	7.43695E-001	3.57300E+000	9	...........
	59	0.8	7.47630E-001	9.09105E-005	0.00000E+000	6.79675E-005	5.39641E-002	7.47761E-001	3.57300E+000	9	...........
	60	0.813333	7.51680E-001	9.09970E-005	0.00000E+000	6.84007E-005	5.39641E-002	7.51825E-001	3.57300E+000	9	...........
	61	0.826667	7.55692E-001	9.08261E-005	0.00000E+000	6.86366E-005	5.39641E-002	7.55805E-001	3.57300E+000	9	...........
	62	0.84	7.59613E-001	9.11523E-005	0.00000E+000	6.92405E-005	5.39641E-002	7.59735E-001	3.57300E+000	9	...........
	63	0.853333	7.63511E-001	9.11022E-005	0.00000E+000	6.95576E-005	5.39641E-002	7.63635E-001	3.57300E+000	9	...........
	64	0.866667	7.67384E-001	9.09824E-005	0.00000E+000	6.98184E-005	5.39641E-002	7.67544E-001	3.57300E+000	9	...........
	65	0.88	7.71188E-001	9.09928E-005	0.00000E+000	7.01726E-005	5.39641E-002	7.71322E-001	3.57300E+000	9	...........
	66	0.893333	7.74965E-001	9.10522E-005	0.00000E+000	7.05623E-005	5.39641E-002	7.75070E-001	3.57300E+000	9	...........
	67	0.906667	7.78663E-001	9.10460E-005	0.00000E+000	7.08941E-005	5.39641E-002	7.78785E-001	3.57300E+000	9	...........
	68	0.92	7.82332E-001	9.09605E-005	0.00000E+000	7.11613E-005	5.39641E-002	7.82441E-001	3.57300E+000	9	...........
	69	0.933333	7.85916E-001	9.12700E-005	0.00000E+000	7.17305E-005	5.39641E-002	7.86041E-001	3.57300E+000	9	...........
	70	0.946667	7.89526E-001	9.12637E-005	0.00000E+000	7.20551E-005	5.39641E-002	7.89640E-001	3.57300E+000	9	...........
	71	0.96	7.93095E-001	9.10428E-005	0.00000E+000	7.22056E-005	5.39641E-002	7.93255E-001	3.57300E+000	9	...........
	72	0.97333	7.96661E-001	9.08199E-005	0.00000E+000	7.23527E-005	5.39641E-002	7.96786E-001	3.57300E+000	9	...........
	73	0.98667	8.00133E-001	9.08480E-005	0.00000E+000	7.26905E-005	5.39641E-002	8.00266E-001	3.57300E+000	9	...........
	74	1	8.03577E-001	9.09522E-005	0.00000E+000	7.30871E-005	5.39641E-002	8.03690E-001	3.57300E+000	9	...........
	75	1.01333	8.06935E-001	9.09335E-005	0.00000E+000	7.33774E-005	5.39641E-002	8.07095E-001	3.57300E+000	9	...........
	76	1.02667	8.10311E-001	9.08345E-005	0.00000E+000	7.36042E-005	5.39641E-002	8.10440E-001	3.57300E+000	9	...........
	77	1.04	8.13652E-001	9.10220E-005	0.00000E+000	7.40603E-005	5.39641E-002	8.13781E-001	3.57300E+000	9	...........
	78	1.05333	8.16955E-001	9.09407E-005	0.00000E+000	7.42945E-005	5.39641E-002	8.17088E-001	3.57300E+000	9	...........
	79	1.06667	8.20252E-001	9.13012E-005	0.00000E+000	7.48900E-005	5.39641E-002	8.20375E-001	3.57300E+000	9	...........
	80	1.08	8.23482E-001	9.12752E-005	0.00000E+000	7.51635E-005	5.39641E-002	8.23616E-001	3.57300E+000	9	...........
	81	1.09333	8.26688E-001	9.11950E-005	0.00000E+000	7.53898E-005	5.39641E-002	8.26830E-001	3.57300E+000	9	...........
	82	1.10667	8.29846E-001	9.08845E-005	0.00000E+000	7.54201E-005	5.39641E-002	8.29981E-001	3.57300E+000	9	...........
	83	1.12	8.32963E-001	9.11377E-005	0.00000E+000	7.59143E-005	5.39641E-002	8.33122E-001	3.57300E+000	9	...........
	84	1.13333	8.36032E-001	9.10918E-005	0.00000E+000	7.61556E-005	5.39641E-002	8.36222E-001	3.57300E+000	9	...........
	85	1.14667	8.39102E-001	9.11356E-005	0.00000E+000	7.64720E-005	5.39641E-002	8.39284E-001	3.57300E+000	9	...........
	86	1.16	8.42125E-001	9.08657E-005	0.00000E+000	7.65203E-005	5.39641E-002	8.42330E-001	3.57300E+000	9	...........
	87	1.17333	8.45168E-001	9.09376E-005	0.00000E+000	7.68575E-005	5.39641E-002	8.45361E-001	3.57300E+000	9	...........
	88	1.18667	8.48161E-001	9.09616E-005	0.00000E+000	7.71501E-005	5.39641E-002	8.48374E-001	3.57300E+000	9	...........
	89	1.2	8.51112E-001	9.09012E-005	0.00000E+000	7.73671E-005	5.39641E-002	8.51303E-001	3.57300E+000	9	...........
	90	1.21333	8.54018E-001	9.11783E-005	0.00000E+000	7.78679E-005	5.39641E-002	8.54196E-001	3.57300E+000	9	...........
	91	1.22667	8.56892E-001	9.11189E-005	0.00000E+000	7.80791E-005	5.39641E-002	8.57087E-001	3.57300E+000	9	...........
	92	1.24	8.59785E-001	9.12689E-005	0.00000E+000	7.84717E-005	5.39641E-002	8.59953E-001	3.57300E+000	9	...........
	93	1.25333	8.62604E-001	9.08095E-005	0.00000E+000	7.83326E-005	5.39641E-002	8.62787E-001	3.57300E+000	9	...........
	94	1.26667	8.65385E-001	9.09043E-005	0.00000E+000	7.86672E-005	5.39641E-002	8.65579E-001	3.57300E+000	9	...........
	95	1.28	8.68182E-001	9.09689E-005	0.00000E+000	7.89776E-005	5.39641E-002	8.68362E-001	3.57300E+000	9	...........
	96	1.29333	8.70943E-001	9.10741E-005	0.00000E+000	7.93204E-005	5.39641E-002	8.71146E-001	3.57300E+000	9	...........
	97	1.30667	8.73653E-001	9.10512E-005	0.00000E+000	7.95471E-005	5.39641E-002	8.73833E-001	3.57300E+000	9	...........
	98	1.32	8.76317E-001	9.10324E-005	0.00000E+000	7.97732E-005	5.39641E-002	8.76516E-001	3.57300E+000	9	...........
	99	1.33333	8.78954E-001	9.11981E-005	0.00000E+000	8.01589E-005	5.39641E-002	8.79164E-001	3.57290E+000	9	...........
	100	1.34667	8.81605E-001	9.08855E-005	0.00000E+000	8.01251E-005	5.39641E-002	8.81812E-001	3.57270E+000	9	...........
	101	1.36	8.84202E-001	9.10866E-005	0.00000E+000	8.05390E-005	5.39641E-002	8.84405E-001	3.57270E+000	9	...........
	102	1.37333	8.86793E-001	9.10303E-005	0.00000E+000	8.07251E-005	5.39641E-002	8.86991E-001	3.57270E+000	9	...........
	103	1.38667	8.89339E-001	9.09345E-005	0.00000E+000	8.08716E-005	5.39641E-002	8.89536E-001	3.57270E+000	9	...........
	104	1.4	8.91851E-001	9.09970E-005	0.00000E+000	8.11558E-005	5.39641E-002	8.92078E-001	3.57270E+000	9	...........
	105	1.41333	8.94363E-001	9.08366E-005	0.00000E+000	8.12409E-005	5.39641E-002	8.94594E-001	3.57270E+000	9	...........
	106	1.42667	8.96845E-001	9.11502E-005	0.00000E+000	8.17476E-005	5.39641E-002	8.97087E-001	3.57270E+000	9	...........
	107	1.44	8.99304E-001	9.07688E-005	0.00000E+000	8.16288E-005	5.39641E-002	8.99507E-001	3.57270E+000	9	...........
	108	1.45333	9.01690E-001	9.10595E-005	0.00000E+000	8.21074E-005	5.39641E-002	9.01925E-001	3.57270E+000	9	...........
	109	1.46667	9.04088E-001	9.09814E-005	0.00000E+000	8.22552E-005	5.39641E-002	9.04315E-001	3.57270E+000	9	...........
	110	1.48	9.06443E-001	9.10251E-005	0.00000E+000	8.25091E-005	5.39641E-002	9.06688E-001	3.57270E+000	9	...........
	111	1.49333	9.08807E-001	9.08803E-005	0.00000E+000	8.25927E-005	5.39641E-002	9.09038E-001	3.57270E+000	9	...........
	112	1.50667	9.11131E-001	9.10689E-005	0.00000E+000	8.29757E-005	5.39641E-002	9.11353E-001	3.57270E+000	9	...........
	113	1.52	9.13417E-001	9.10022E-005	0.00000E+000	8.31229E-005	5.39641E-002	9.13664E-001	3.57270E+000	9	...........
	114	1.53333	9.15707E-001	9.08428E-005	0.00000E+000	8.31854E-005	5.39641E-002	9.15935E-001	3.57270E+000	9	...........
	115	1.54667	9.17941E-001	9.11595E-005	0.00000E+000	8.36790E-005	5.39641E-002	9.18179E-001	3.57270E+000	9	...........
	116	1.56	9.20205E-001	9.12669E-005	0.00000E+000	8.39842E-005	5.39641E-002	9.20418E-001	3.57270E+000	9	...........
	117	1.57333	9.22476E-001	9.11022E-005	0.00000E+000	8.40396E-005	5.39641E-002	9.22623E-001	3.57270E+000	9	...........
	118	1.58667	9.24628E-001	9.08741E-005	0.00000E+000	8.40247E-005	5.39641E-002	9.24807E-001	3.57270E+000	9	...........
	119	1.6	9.26783E-001	9.09845E-005	0.00000E+000	8.43229E-005	5.39641E-002	9.26960E-001	3.57270E+000	9	...........
	120	1.61333	9.28913E-001	9.14096E-005	0.00000E+000	8.49116E-005	5.39641E-002	9.29072E-001	3.57270E+000	9	...........
	121	1.62667	9.31013E-001	9.07147E-005	0.00000E+000	8.44565E-005	5.39641E-002	9.31172E-001	3.57270E+000	9	...........
	122	1.64	9.33093E-001	9.09064E-005	0.00000E+000	8.48241E-005	5.39641E-002	9.33263E-001	3.57270E+000	9	...........
	123	1.65333	9.35148E-001	9.12137E-005	0.00000E+000	8.52984E-005	5.39641E-002	9.35322E-001	3.57270E+000	9	...........
	124	1.66667	9.37168E-001	9.11220E-005	0.00000E+000	8.53966E-005	5.39641E-002	9.37366E-001	3.57270E+000	9	...........
	125	1.68	9.39147E-001	9.08897E-005	0.00000E+000	8.53588E-005	5.39641E-002	9.39371E-001	3.57270E+000	9	...........
	126	1.69333	9.41166E-001	9.13971E-005	0.00000E+000	8.60198E-005	5.39641E-002	9.41359E-001	3.57270E+000	9	...........
	127	1.70667	9.43126E-001	9.08814E-005	0.00000E+000	8.57126E-005	5.39641E-002	9.43334E-001	3.57270E+000	9	...........
	128	1.72	9.45074E-001	9.09595E-005	0.00000E+000	8.59635E-005	5.39641E-002	9.45314E-001	3.57270E+000	9	...........
	129	1.73333	9.47065E-001	9.10585E-005	0.00000E+000	8.62383E-005	5.39641E-002	9.47273E-001	3.57270E+000	9	...........
	130	1.74667	9.48998E-001	9.13012E-005	0.00000E+000	8.66447E-005	5.39641E-002	9.49218E-001	3.57270E+000	9	...........
	131	1.76	9.50910E-001	9.10543E-005	0.00000E+000	8.65845E-005	5.39641E-002	9.51120E-001	3.57270E+000	9	...........
	132	1.77333	9.52786E-001	9.12564E-005	0.00000E+000	8.69479E-005	5.39641E-002	9.53019E-001	3.57270E+000	9	...........
	133	1.78667	9.54679E-001	9.08334E-005	0.00000E+000	8.67168E-005	5.39641E-002	9.54865E-001	3.57270E+000	9	...........
	134	1.8	9.56502E-001	9.09803E-005	0.00000E+000	8.70229E-005	5.39641E-002	9.56718E-001	3.57270E+000	9	...........
	135	1.81333	9.58342E-001	9.08584E-005	0.00000E+000	8.70734E-005	5.39641E-002	9.58535E-001	3.57270E+000	9	...........
	136	1.82667	9.60149E-001	9.08928E-005	0.00000E+000	8.72706E-005	5.39641E-002	9.60348E-001	3.57270E+000	9	...........
	137	1.84	9.61928E-001	9.10845E-005	0.00000E+000	8.76168E-005	5.39641E-002	9.62125E-001	3.57270E+000	9	...........
	138	1.85333	9.63664E-001	9.09803E-005	0.00000E+000	8.76745E-005	5.39641E-002	9.63876E-001	3.57270E+000	9	...........
	139	1.86667	9.65402E-001	9.10741E-005	0.00000E+000	8.79231E-005	5.39641E-002	9.65610E-001	3.57270E+000	9	...........
	140	1.88	9.67121E-001	9.09960E-005	0.00000E+000	8.80041E-005	5.39641E-002	9.67294E-001	3.57270E+000	9	...........
	141	1.89333	9.68804E-001	9.10428E-005	0.00000E+000	8.82027E-005	5.39641E-002	9.69003E-001	3.57270E+000	9	...........
	142	1.90667	9.70484E-001	9.07876E-005	0.00000E+000	8.81079E-005	5.39641E-002	9.70711E-001	3.57270E+000	9	...........
	143	1.92	9.72176E-001	9.09970E-005	0.00000E+000	8.84651E-005	5.39641E-002	9.72369E-001	3.57270E+000	9	...........
	144	1.93333	9.73873E-001	9.11543E-005	0.00000E+000	8.87727E-005	5.39641E-002	9.74051E-001	3.57270E+000	9	...........
	145	1.94667	9.75494E-001	9.08188E-005	0.00000E+000	8.85933E-005	5.39641E-002	9.75675E-001	3.57270E+000	9	...........
	146	1.96	9.77095E-001	9.09991E-005	0.00000E+000	8.89148E-005	5.39641E-002	9.77288E-001	3.57270E+000	9	...........
	147	1.97333	9.78683E-001	9.10470E-005	0.00000E+000	8.91062E-005	5.39641E-002	9.78868E-001	3.57270E+000	9	...........
	148	1.98667	9.80266E-001	9.09918E-005	0.00000E+000	8.91962E-005	5.39641E-002	9.80421E-001	3.57270E+000	9	...........
	149	2	9.81804E-001	9.10731E-005	0.00000E+000	8.94159E-005	5.39641E-002	9.81960E-001	3.57270E+000	9	...........
	150	2.01333	9.83302E-001	9.13085E-005	0.00000E+000	8.97839E-005	5.39641E-002	9.83525E-001	3.57270E+000	9	...........
	151	2.02667	9.84844E-001	9.08480E-005	0.00000E+000	8.94711E-005	5.39641E-002	9.85055E-001	3.57270E+000	9	...........
	152	2.04	9.86356E-001	9.10845E-005	0.00000E+000	8.98418E-005	5.39641E-002	9.86589E-001	3.57270E+000	9	...........
	153	2.05333	9.87839E-001	9.11147E-005	0.00000E+000	9.00067E-005	5.39641E-002	9.88067E-001	3.57270E+000	9	...........
	154	2.06667	9.89343E-001	9.10877E-005	0.00000E+000	9.01170E-005	5.39641E-002	9.89566E-001	3.57270E+000	9	...........
	155	2.08	9.90784E-001	9.09251E-005	0.00000E+000	9.00871E-005	5.39641E-002	9.91010E-001	3.57270E+000	9	...........
	156	2.09333	9.92211E-001	9.10168E-005	0.00000E+000	9.03078E-005	5.39641E-002	9.92431E-001	3.57270E+000	9	...........
	157	2.10667	9.93634E-001	9.09626E-005	0.00000E+000	9.03835E-005	5.39641E-002	9.93862E-001	3.57270E+000	9	...........
	158	2.12	9.95054E-001	9.08751E-005	0.00000E+000	9.04257E-005	5.39641E-002	9.95266E-001	3.57270E+000	9	...........
	159	2.13333	9.96442E-001	9.09303E-005	0.00000E+000	9.06068E-005	5.39641E-002	9.96667E-001	3.57270E+000	9	...........
	160	2.14667	9.97862E-001	9.09845E-005	0.00000E+000	9.07899E-005	5.39641E-002	9.98079E-001	3.57270E+000	9	...........
	161	2.16	9.99226E-001	9.07928E-005	0.00000E+000	9.07225E-005	5.39641E-002	9.99429E-001	3.57270E+000	9	...........
	162	2.16333	1.00007E+000	9.09876E-005	0.00000E+000	9.09941E-005	5.39641E-002	1.00026E+000	3.57270E+000	9	...........
STARTTIMEOFFSET	QUANT	3653.012	Start Time Offset (s)
