EXPLAIN
TAG	PWR800_CHARGE
TITLE	LABEL	PWR Cyclic Charge Discharge (Cell) - Charge Step	Test &Identifier
DATE	LABEL	10-7-2017	Date
TIME	LABEL	15:30:30	Time
NOTES	NOTES	3	&Notes...
	supercap test cell
	0.9mg
	6M KOH
PSTAT	PSTAT	IFC5000-01520	Potentiostat
CAPACITY	QUANT	1.00000E-003	Capacity (A-hr)
CELLTYPE	SELECTOR	1	&Cell Type
WORKINGCONNECTION	SELECTOR	0	&Working Lead
MAXCHARGETIME	VARIABLEANDUNITS	1.00000E+002	s	1.00000E+002	second(s)	Max &Charge Time
CHARGECURRENT	QUANT	9.00000E-005	&Charge Current (A) 
VOLTAGEFINISH	TWOPARAM	F	1.00000E-003	3.60000E+003	&Voltage Finish	 I (A) < 	Max Time(s)
SAMPLETIME	QUANT	1.00000E-002	Sa&mple Period (s)
CHARGESTOPAT1	MULTIPARAM	4	1.00000E+000	Charge Stop At &1	Voltage > Limit	V
CHARGESTOPAT2	MULTIPARAM	0	0.00000E+000	Charge Stop At &2	None	N/A
AESBHCSELECTOR	TOGGLE	F	Save Both Half Cells
IRCOMP	TOGGLE	F	IR &Measure
EOC	QUANT	0	Open Circuit (V)
SEQUENCER	TOGGLE	TRUE	Run as Sequence
PSTATMODEL	IQUANT	53	Pstat Model
PSTATSECTION	LABEL	IFC5000-01520	Pstat Section
PSTATSERIALNO	LABEL	01520	Pstat Serial Number
CTRLMODE	IQUANT	0	Control Mode
ELECTROMETER	IQUANT	1	RE=0 or CS=1
IESTAB	IQUANT	0	I/E Stability
CASPEED	IQUANT	4	Control Amp Speed
CONVENTION	IQUANT	1	Current Convention
ICHRANGE	IQUANT	2	Ich Range
ICHRANGEMODE	TOGGLE	T	Ich Auto Range
ICHOFFSETENABLE	TOGGLE	F	Ich Offset Enable
ICHOFFSET	QUANT	0	Ich Offset (V)
ICHFILTER	IQUANT	1	Ich Filter
VCHRANGE	IQUANT	2	Vch Range
VCHRANGEMODE	TOGGLE	T	Vch Auto Range
VCHOFFSETENABLE	TOGGLE	F	Vch Offset Enable
VCHOFFSET	QUANT	0	Vch Offset (V)
VCHFILTER	IQUANT	1	Vch Filter
IERANGELOWERLIMIT	IQUANT	9	I/E Range Lower Limit
IERANGEMODE	TOGGLE	F	I/E AutoRange
IERANGE	IQUANT	9	I/E Range
ACHSELECT	IQUANT	1	Ach Select
ACHRANGE	IQUANT	2	Ach Range
ACHOFFSETENABLE	TOGGLE	F	Ach Offset Enable
ACHOFFSET	QUANT	0	Ach Offset (V)
ACHFILTER	IQUANT	1	Ach Filter
CABLEID	IQUANT	14	Cable ID
DCCALDATE	LABEL	5-7-2017	DC Calibration Date
ACCALDATE	LABEL	12/3/2015	AC Calibration Date
FRAMEWORKVERSION	QUANT	7.01	Framework Version
INSTRUMENTVERSION	LABEL	4.00	Instrument Version
CURVE	TABLE	173
	Pt	T	Vf	Im	Vu	Pwr	Sig	Ach	Temp	IERange	Over
	#	s	V	A	V	W	V	V	deg C	#	bits
	0	0.013333	2.80318E-001	9.10074E-005	0.00000E+000	2.55110E-005	5.39641E-002	2.80348E-001	3.57340E+000	9	...........
	1	0.026667	2.99841E-001	9.10741E-005	0.00000E+000	2.73077E-005	5.39641E-002	2.99873E-001	3.57340E+000	9	...........
	2	0.04	3.17966E-001	9.07959E-005	0.00000E+000	2.88700E-005	5.39641E-002	3.18004E-001	3.57340E+000	9	...........
	3	0.053333	3.34931E-001	9.11345E-005	0.00000E+000	3.05237E-005	5.39641E-002	3.34977E-001	3.57340E+000	9	...........
	4	0.066667	3.50895E-001	9.09793E-005	0.00000E+000	3.19242E-005	5.39641E-002	3.50935E-001	3.57340E+000	9	...........
	5	0.08	3.65977E-001	9.09647E-005	0.00000E+000	3.32910E-005	5.39641E-002	3.66016E-001	3.57340E+000	9	...........
	6	0.093333	3.80265E-001	9.09866E-005	0.00000E+000	3.45990E-005	5.39641E-002	3.80306E-001	3.57340E+000	9	...........
	7	0.106667	3.93857E-001	9.10262E-005	0.00000E+000	3.58513E-005	5.39641E-002	3.93899E-001	3.57340E+000	9	...........
	8	0.12	4.06827E-001	9.11127E-005	0.00000E+000	3.70671E-005	5.39641E-002	4.06874E-001	3.57340E+000	9	...........
	9	0.133333	4.19222E-001	9.09105E-005	0.00000E+000	3.81117E-005	5.39641E-002	4.19269E-001	3.57300E+000	9	...........
	10	0.146667	4.31096E-001	9.10199E-005	0.00000E+000	3.92383E-005	5.39641E-002	4.31150E-001	3.57260E+000	9	...........
	11	0.16	4.42496E-001	9.10522E-005	0.00000E+000	4.02903E-005	5.39641E-002	4.42548E-001	3.57260E+000	9	...........
	12	0.173333	4.53454E-001	9.08887E-005	0.00000E+000	4.12138E-005	5.39641E-002	4.53505E-001	3.57260E+000	9	...........
	13	0.186667	4.64000E-001	9.12127E-005	0.00000E+000	4.23227E-005	5.39641E-002	4.64053E-001	3.57260E+000	9	...........
	14	0.2	4.74175E-001	9.09564E-005	0.00000E+000	4.31293E-005	5.39641E-002	4.74233E-001	3.57260E+000	9	...........
	15	0.213333	4.84015E-001	9.09626E-005	0.00000E+000	4.40273E-005	5.39641E-002	4.84073E-001	3.57260E+000	9	...........
	16	0.226667	4.93522E-001	9.05750E-005	0.00000E+000	4.47007E-005	5.39641E-002	4.93583E-001	3.57260E+000	9	...........
	17	0.24	5.02728E-001	9.10147E-005	0.00000E+000	4.57557E-005	5.39641E-002	5.02791E-001	3.57260E+000	9	...........
	18	0.253333	5.11664E-001	9.13325E-005	0.00000E+000	4.67316E-005	5.39641E-002	5.11725E-001	3.57260E+000	9	...........
	19	0.266667	5.20317E-001	9.10699E-005	0.00000E+000	4.73852E-005	5.39641E-002	5.20379E-001	3.57260E+000	9	...........
	20	0.28	5.28724E-001	9.10220E-005	0.00000E+000	4.81255E-005	5.39641E-002	5.28792E-001	3.57260E+000	9	...........
	21	0.293333	5.36840E-001	9.08855E-005	0.00000E+000	4.87910E-005	5.39641E-002	5.36930E-001	3.57260E+000	9	...........
	22	0.306667	5.44774E-001	9.10137E-005	0.00000E+000	4.95819E-005	5.39641E-002	5.44855E-001	3.57260E+000	9	...........
	23	0.32	5.52501E-001	9.10491E-005	0.00000E+000	5.03047E-005	5.39641E-002	5.52601E-001	3.57260E+000	9	...........
	24	0.333333	5.60021E-001	9.10845E-005	0.00000E+000	5.10092E-005	5.39641E-002	5.60154E-001	3.57260E+000	9	...........
	25	0.346667	5.67416E-001	9.10533E-005	0.00000E+000	5.16651E-005	5.39641E-002	5.67521E-001	3.57260E+000	9	...........
	26	0.36	5.74538E-001	9.10908E-005	0.00000E+000	5.23351E-005	5.39641E-002	5.74651E-001	3.57260E+000	9	...........
	27	0.373333	5.81491E-001	9.09220E-005	0.00000E+000	5.28704E-005	5.39641E-002	5.81625E-001	3.57260E+000	9	...........
	28	0.386667	5.88304E-001	9.10376E-005	0.00000E+000	5.35578E-005	5.39641E-002	5.88463E-001	3.57260E+000	9	...........
	29	0.4	5.94969E-001	9.10220E-005	0.00000E+000	5.41553E-005	5.39641E-002	5.95098E-001	3.57260E+000	9	...........
	30	0.413333	6.01476E-001	9.11356E-005	0.00000E+000	5.48159E-005	5.39641E-002	6.01623E-001	3.57260E+000	9	...........
	31	0.426667	6.07827E-001	9.09543E-005	0.00000E+000	5.52845E-005	5.39641E-002	6.07967E-001	3.57260E+000	9	...........
	32	0.44	6.14073E-001	9.09126E-005	0.00000E+000	5.58270E-005	5.39641E-002	6.14197E-001	3.57260E+000	9	...........
	33	0.453333	6.20202E-001	9.10783E-005	0.00000E+000	5.64869E-005	5.39641E-002	6.20289E-001	3.57260E+000	9	...........
	34	0.466667	6.26169E-001	9.08605E-005	0.00000E+000	5.68941E-005	5.39641E-002	6.26224E-001	3.57260E+000	9	...........
	35	0.48	6.31986E-001	9.11387E-005	0.00000E+000	5.75984E-005	5.39641E-002	6.32078E-001	3.57260E+000	9	...........
	36	0.493333	6.37705E-001	9.09699E-005	0.00000E+000	5.80119E-005	5.39641E-002	6.37806E-001	3.57260E+000	9	...........
	37	0.506667	6.43342E-001	9.09741E-005	0.00000E+000	5.85274E-005	5.39641E-002	6.43453E-001	3.57260E+000	9	...........
	38	0.52	6.48826E-001	9.09824E-005	0.00000E+000	5.90318E-005	5.39641E-002	6.48937E-001	3.57260E+000	9	...........
	39	0.533333	6.54249E-001	9.10001E-005	0.00000E+000	5.95368E-005	5.39641E-002	6.54357E-001	3.57260E+000	9	...........
	40	0.546667	6.59554E-001	9.12283E-005	0.00000E+000	6.01700E-005	5.39641E-002	6.59647E-001	3.57260E+000	9	...........
	41	0.56	6.64765E-001	9.11304E-005	0.00000E+000	6.05802E-005	5.39641E-002	6.64862E-001	3.57260E+000	9	...........
	42	0.573333	6.69884E-001	9.11481E-005	0.00000E+000	6.10586E-005	5.39641E-002	6.69957E-001	3.57260E+000	9	...........
	43	0.586667	6.74891E-001	9.10897E-005	0.00000E+000	6.14756E-005	5.39641E-002	6.74993E-001	3.57260E+000	9	...........
	44	0.6	6.79814E-001	9.08834E-005	0.00000E+000	6.17838E-005	5.39641E-002	6.79940E-001	3.57260E+000	9	...........
	45	0.613333	6.84667E-001	9.09876E-005	0.00000E+000	6.22962E-005	5.39641E-002	6.84760E-001	3.57260E+000	9	...........
	46	0.626667	6.89436E-001	9.10012E-005	0.00000E+000	6.27395E-005	5.39641E-002	6.89534E-001	3.57260E+000	9	...........
	47	0.64	6.94137E-001	9.11043E-005	0.00000E+000	6.32389E-005	5.39641E-002	6.94210E-001	3.57260E+000	9	...........
	48	0.653333	6.98726E-001	9.08261E-005	0.00000E+000	6.34626E-005	5.39641E-002	6.98848E-001	3.57260E+000	9	...........
	49	0.666667	7.03283E-001	9.11981E-005	0.00000E+000	6.41380E-005	5.39641E-002	7.03363E-001	3.57260E+000	9	...........
	50	0.68	7.07738E-001	9.07605E-005	0.00000E+000	6.42346E-005	5.39641E-002	7.07864E-001	3.57260E+000	9	...........
	51	0.693333	7.12152E-001	9.11700E-005	0.00000E+000	6.49269E-005	5.39641E-002	7.12271E-001	3.57260E+000	9	...........
	52	0.706667	7.16507E-001	9.10064E-005	0.00000E+000	6.52068E-005	5.39641E-002	7.16649E-001	3.57260E+000	9	...........
	53	0.72	7.20825E-001	9.09949E-005	0.00000E+000	6.55914E-005	5.39641E-002	7.20934E-001	3.57260E+000	9	...........
	54	0.733333	7.25028E-001	9.11002E-005	0.00000E+000	6.60502E-005	5.39641E-002	7.25149E-001	3.57260E+000	9	...........
	55	0.746667	7.29188E-001	9.10949E-005	0.00000E+000	6.64254E-005	5.39641E-002	7.29321E-001	3.57260E+000	9	...........
	56	0.76	7.33271E-001	9.10824E-005	0.00000E+000	6.67881E-005	5.39641E-002	7.33408E-001	3.57260E+000	9	...........
	57	0.773333	7.37311E-001	9.12887E-005	0.00000E+000	6.73082E-005	5.39641E-002	7.37436E-001	3.57260E+000	9	...........
	58	0.786667	7.41298E-001	9.10533E-005	0.00000E+000	6.74976E-005	5.39641E-002	7.41438E-001	3.57260E+000	9	...........
	59	0.8	7.45238E-001	9.08793E-005	0.00000E+000	6.77267E-005	5.39641E-002	7.45378E-001	3.57260E+000	9	...........
	60	0.813333	7.49115E-001	9.09751E-005	0.00000E+000	6.81508E-005	5.39641E-002	7.49271E-001	3.57260E+000	9	...........
	61	0.826667	7.52972E-001	9.09522E-005	0.00000E+000	6.84845E-005	5.39641E-002	7.53115E-001	3.57260E+000	9	...........
	62	0.84	7.56795E-001	9.13565E-005	0.00000E+000	6.91381E-005	5.39641E-002	7.56914E-001	3.57260E+000	9	...........
	63	0.853333	7.60507E-001	9.10626E-005	0.00000E+000	6.92538E-005	5.39641E-002	7.60636E-001	3.57260E+000	9	...........
	64	0.866667	7.64204E-001	9.13158E-005	0.00000E+000	6.97839E-005	5.39641E-002	7.64327E-001	3.57260E+000	9	...........
	65	0.88	7.67874E-001	9.09480E-005	0.00000E+000	6.98366E-005	5.39641E-002	7.68019E-001	3.57260E+000	9	...........
	66	0.893333	7.71474E-001	9.11429E-005	0.00000E+000	7.03144E-005	5.39641E-002	7.71611E-001	3.57260E+000	9	...........
	67	0.906667	7.75014E-001	9.09824E-005	0.00000E+000	7.05127E-005	5.39641E-002	7.75150E-001	3.57260E+000	9	...........
	68	0.92	7.78514E-001	9.10856E-005	0.00000E+000	7.09114E-005	5.39641E-002	7.78639E-001	3.57260E+000	9	...........
	69	0.933333	7.81998E-001	9.09553E-005	0.00000E+000	7.11269E-005	5.39641E-002	7.82111E-001	3.57260E+000	9	...........
	70	0.946667	7.85413E-001	9.11054E-005	0.00000E+000	7.15553E-005	5.39641E-002	7.85544E-001	3.57260E+000	9	...........
	71	0.96	7.88824E-001	9.09157E-005	0.00000E+000	7.17165E-005	5.39641E-002	7.88964E-001	3.57260E+000	9	...........
	72	0.97333	7.92189E-001	9.10303E-005	0.00000E+000	7.21133E-005	5.39641E-002	7.92319E-001	3.57260E+000	9	...........
	73	0.98667	7.95507E-001	9.11887E-005	0.00000E+000	7.25412E-005	5.39641E-002	7.95621E-001	3.57260E+000	9	...........
	74	1	7.98778E-001	9.11022E-005	0.00000E+000	7.27705E-005	5.39641E-002	7.98866E-001	3.57260E+000	9	...........
	75	1.01333	8.01985E-001	9.10689E-005	0.00000E+000	7.30359E-005	5.39641E-002	8.02110E-001	3.57260E+000	9	...........
	76	1.02667	8.05182E-001	9.10053E-005	0.00000E+000	7.32758E-005	5.39641E-002	8.05318E-001	3.57260E+000	9	...........
	77	1.04	8.08349E-001	9.12054E-005	0.00000E+000	7.37258E-005	5.39641E-002	8.08496E-001	3.57260E+000	9	...........
	78	1.05333	8.11479E-001	9.11241E-005	0.00000E+000	7.39453E-005	5.39641E-002	8.11625E-001	3.57260E+000	9	...........
	79	1.06667	8.14560E-001	9.11908E-005	0.00000E+000	7.42804E-005	5.39641E-002	8.14750E-001	3.57260E+000	9	...........
	80	1.08	8.17636E-001	9.11022E-005	0.00000E+000	7.44885E-005	5.39641E-002	8.17802E-001	3.57260E+000	9	...........
	81	1.09333	8.20666E-001	9.09689E-005	0.00000E+000	7.46551E-005	5.39641E-002	8.20855E-001	3.57260E+000	9	...........
	82	1.10667	8.23690E-001	9.12252E-005	0.00000E+000	7.51412E-005	5.39641E-002	8.23846E-001	3.57260E+000	9	...........
	83	1.12	8.26667E-001	9.08459E-005	0.00000E+000	7.50993E-005	5.39641E-002	8.26837E-001	3.57260E+000	9	...........
	84	1.13333	8.29594E-001	9.10856E-005	0.00000E+000	7.55641E-005	5.39641E-002	8.29758E-001	3.57275E+000	9	...........
	85	1.14667	8.32528E-001	9.09855E-005	0.00000E+000	7.57480E-005	5.39641E-002	8.32675E-001	3.57290E+000	9	...........
	86	1.16	8.35406E-001	9.11773E-005	0.00000E+000	7.61701E-005	5.39641E-002	8.35573E-001	3.57290E+000	9	...........
	87	1.17333	8.38250E-001	9.13471E-005	0.00000E+000	7.65717E-005	5.39641E-002	8.38395E-001	3.57290E+000	9	...........
	88	1.18667	8.41077E-001	9.10970E-005	0.00000E+000	7.66196E-005	5.39641E-002	8.41192E-001	3.57290E+000	9	...........
	89	1.2	8.43863E-001	9.11127E-005	0.00000E+000	7.68866E-005	5.39641E-002	8.44019E-001	3.57290E+000	9	...........
	90	1.21333	8.46639E-001	9.10262E-005	0.00000E+000	7.70663E-005	5.39641E-002	8.46788E-001	3.57290E+000	9	...........
	91	1.22667	8.49383E-001	9.11668E-005	0.00000E+000	7.74355E-005	5.39641E-002	8.49552E-001	3.57290E+000	9	...........
	92	1.24	8.52101E-001	9.11585E-005	0.00000E+000	7.76763E-005	5.39641E-002	8.52266E-001	3.57290E+000	9	...........
	93	1.25333	8.54759E-001	9.08782E-005	0.00000E+000	7.76790E-005	5.39641E-002	8.54934E-001	3.57290E+000	9	...........
	94	1.26667	8.57408E-001	9.11877E-005	0.00000E+000	7.81851E-005	5.39641E-002	8.57597E-001	3.57290E+000	9	...........
	95	1.28	8.60034E-001	9.10731E-005	0.00000E+000	7.83260E-005	5.39641E-002	8.60223E-001	3.57290E+000	9	...........
	96	1.29333	8.62630E-001	9.11200E-005	0.00000E+000	7.86028E-005	5.39641E-002	8.62826E-001	3.57290E+000	9	...........
	97	1.30667	8.65186E-001	9.08470E-005	0.00000E+000	7.85996E-005	5.39641E-002	8.65392E-001	3.57290E+000	9	...........
	98	1.32	8.67742E-001	9.08991E-005	0.00000E+000	7.88770E-005	5.39641E-002	8.67944E-001	3.57290E+000	9	...........
	99	1.33333	8.70301E-001	9.09970E-005	0.00000E+000	7.91948E-005	5.39641E-002	8.70481E-001	3.57290E+000	9	...........
	100	1.34667	8.72794E-001	9.10637E-005	0.00000E+000	7.94798E-005	5.39641E-002	8.72971E-001	3.57290E+000	9	...........
	101	1.36	8.75246E-001	9.09730E-005	0.00000E+000	7.96238E-005	5.39641E-002	8.75428E-001	3.57290E+000	9	...........
	102	1.37333	8.77718E-001	9.11773E-005	0.00000E+000	8.00279E-005	5.39641E-002	8.77878E-001	3.57290E+000	9	...........
	103	1.38667	8.80139E-001	9.10668E-005	0.00000E+000	8.01515E-005	5.39641E-002	8.80301E-001	3.57290E+000	9	...........
	104	1.4	8.82544E-001	9.09241E-005	0.00000E+000	8.02445E-005	5.39641E-002	8.82703E-001	3.57290E+000	9	...........
	105	1.41333	8.84937E-001	9.10877E-005	0.00000E+000	8.06069E-005	5.39641E-002	8.85082E-001	3.57290E+000	9	...........
	106	1.42667	8.87252E-001	9.12825E-005	0.00000E+000	8.09906E-005	5.39641E-002	8.87407E-001	3.57290E+000	9	...........
	107	1.44	8.89575E-001	9.11179E-005	0.00000E+000	8.10562E-005	5.39641E-002	8.89731E-001	3.57290E+000	9	...........
	108	1.45333	8.91874E-001	9.08480E-005	0.00000E+000	8.10249E-005	5.39641E-002	8.92027E-001	3.57290E+000	9	...........
	109	1.46667	8.94093E-001	9.11731E-005	0.00000E+000	8.15172E-005	5.39641E-002	8.94294E-001	3.57290E+000	9	...........
	110	1.48	8.96370E-001	9.10324E-005	0.00000E+000	8.15988E-005	5.39641E-002	8.96547E-001	3.57290E+000	9	...........
	111	1.49333	8.98582E-001	9.10053E-005	0.00000E+000	8.17758E-005	5.39641E-002	8.98755E-001	3.57290E+000	9	...........
	112	1.50667	9.00759E-001	9.12742E-005	0.00000E+000	8.22160E-005	5.39641E-002	9.00952E-001	3.57290E+000	9	...........
	113	1.52	9.02959E-001	9.12939E-005	0.00000E+000	8.24347E-005	5.39641E-002	9.03135E-001	3.57290E+000	9	...........
	114	1.53333	9.05115E-001	9.08491E-005	0.00000E+000	8.22288E-005	5.39641E-002	9.05284E-001	3.57290E+000	9	...........
	115	1.54667	9.07232E-001	9.11470E-005	0.00000E+000	8.26915E-005	5.39641E-002	9.07437E-001	3.57290E+000	9	...........
	116	1.56	9.09373E-001	9.09699E-005	0.00000E+000	8.27255E-005	5.39641E-002	9.09543E-001	3.57290E+000	9	...........
	117	1.57333	9.11472E-001	9.10283E-005	0.00000E+000	8.29697E-005	5.39641E-002	9.11658E-001	3.57290E+000	9	...........
	118	1.58667	9.13570E-001	9.10158E-005	0.00000E+000	8.31493E-005	5.39641E-002	9.13784E-001	3.57290E+000	9	...........
	119	1.6	9.15652E-001	9.07720E-005	0.00000E+000	8.31156E-005	5.39641E-002	9.15839E-001	3.57290E+000	9	...........
	120	1.61333	9.17677E-001	9.10251E-005	0.00000E+000	8.35317E-005	5.39641E-002	9.17875E-001	3.57290E+000	9	...........
	121	1.62667	9.19730E-001	9.10314E-005	0.00000E+000	8.37243E-005	5.39641E-002	9.19903E-001	3.57290E+000	9	...........
	122	1.64	9.21796E-001	9.10564E-005	0.00000E+000	8.39354E-005	5.39641E-002	9.21893E-001	3.57290E+000	9	...........
	123	1.65333	9.23754E-001	9.10679E-005	0.00000E+000	8.41243E-005	5.39641E-002	9.23883E-001	3.57290E+000	9	...........
	124	1.66667	9.25719E-001	9.12085E-005	0.00000E+000	8.44334E-005	5.39641E-002	9.25853E-001	3.57290E+000	9	...........
	125	1.68	9.27657E-001	9.09616E-005	0.00000E+000	8.43811E-005	5.39641E-002	9.27794E-001	3.57290E+000	9	...........
	126	1.69333	9.29606E-001	9.10106E-005	0.00000E+000	8.46040E-005	5.39641E-002	9.29755E-001	3.57290E+000	9	...........
	127	1.70667	9.31534E-001	9.07115E-005	0.00000E+000	8.45009E-005	5.39641E-002	9.31668E-001	3.57290E+000	9	...........
	128	1.72	9.33399E-001	9.10887E-005	0.00000E+000	8.50221E-005	5.39641E-002	9.33577E-001	3.57290E+000	9	...........
	129	1.73333	9.35277E-001	9.11054E-005	0.00000E+000	8.52088E-005	5.39641E-002	9.35465E-001	3.57290E+000	9	...........
	130	1.74667	9.37119E-001	9.10574E-005	0.00000E+000	8.53317E-005	5.39641E-002	9.37300E-001	3.57290E+000	9	...........
	131	1.76	9.38946E-001	9.11168E-005	0.00000E+000	8.55538E-005	5.39641E-002	9.39126E-001	3.57290E+000	9	...........
	132	1.77333	9.40763E-001	9.09866E-005	0.00000E+000	8.55968E-005	5.39641E-002	9.40946E-001	3.57290E+000	9	...........
	133	1.78667	9.42535E-001	9.09678E-005	0.00000E+000	8.57404E-005	5.39641E-002	9.42725E-001	3.57290E+000	9	...........
	134	1.8	9.44288E-001	9.11700E-005	0.00000E+000	8.60907E-005	5.39641E-002	9.44470E-001	3.57290E+000	9	...........
	135	1.81333	9.46036E-001	9.13304E-005	0.00000E+000	8.64019E-005	5.39641E-002	9.46216E-001	3.57290E+000	9	...........
	136	1.82667	9.47819E-001	9.10470E-005	0.00000E+000	8.62961E-005	5.39641E-002	9.47961E-001	3.57290E+000	9	...........
	137	1.84	9.49501E-001	9.11960E-005	0.00000E+000	8.65907E-005	5.39641E-002	9.49679E-001	3.57290E+000	9	...........
	138	1.85333	9.51189E-001	9.12544E-005	0.00000E+000	8.68002E-005	5.39641E-002	9.51368E-001	3.57290E+000	9	...........
	139	1.86667	9.52859E-001	9.12356E-005	0.00000E+000	8.69346E-005	5.39641E-002	9.53031E-001	3.57290E+000	9	...........
	140	1.88	9.54505E-001	9.10824E-005	0.00000E+000	8.69387E-005	5.39641E-002	9.54656E-001	3.57290E+000	9	...........
	141	1.89333	9.56127E-001	9.09251E-005	0.00000E+000	8.69360E-005	5.39641E-002	9.56306E-001	3.57290E+000	9	...........
	142	1.90667	9.57769E-001	9.09970E-005	0.00000E+000	8.71541E-005	5.39641E-002	9.57913E-001	3.57290E+000	9	...........
	143	1.92	9.59361E-001	9.11512E-005	0.00000E+000	8.74469E-005	5.39641E-002	9.59549E-001	3.57290E+000	9	...........
	144	1.93333	9.60962E-001	9.11158E-005	0.00000E+000	8.75588E-005	5.39641E-002	9.61159E-001	3.57290E+000	9	...........
	145	1.94667	9.62517E-001	9.07907E-005	0.00000E+000	8.73876E-005	5.39641E-002	9.62765E-001	3.57290E+000	9	...........
	146	1.96	9.64089E-001	9.10418E-005	0.00000E+000	8.77724E-005	5.39641E-002	9.64296E-001	3.57290E+000	9	...........
	147	1.97333	9.65610E-001	9.10335E-005	0.00000E+000	8.79028E-005	5.39641E-002	9.65803E-001	3.57290E+000	9	...........
	148	1.98667	9.67155E-001	9.09574E-005	0.00000E+000	8.79699E-005	5.39641E-002	9.67346E-001	3.57290E+000	9	...........
	149	2	9.68686E-001	9.08116E-005	0.00000E+000	8.79679E-005	5.39641E-002	9.68854E-001	3.57290E+000	9	...........
	150	2.01333	9.70160E-001	9.11272E-005	0.00000E+000	8.84080E-005	5.39641E-002	9.70384E-001	3.57290E+000	9	...........
	151	2.02667	9.71658E-001	9.12929E-005	0.00000E+000	8.87055E-005	5.39641E-002	9.71886E-001	3.57290E+000	9	...........
	152	2.04	9.73205E-001	9.10970E-005	0.00000E+000	8.86561E-005	5.39641E-002	9.73373E-001	3.57290E+000	9	...........
	153	2.05333	9.74637E-001	9.10762E-005	0.00000E+000	8.87662E-005	5.39641E-002	9.74800E-001	3.57290E+000	9	...........
	154	2.06667	9.76065E-001	9.10470E-005	0.00000E+000	8.88678E-005	5.39641E-002	9.76230E-001	3.57290E+000	9	...........
	155	2.08	9.77475E-001	9.10220E-005	0.00000E+000	8.89718E-005	5.39641E-002	9.77664E-001	3.57290E+000	9	...........
	156	2.09333	9.78879E-001	9.10439E-005	0.00000E+000	8.91210E-005	5.39641E-002	9.79058E-001	3.57290E+000	9	...........
	157	2.10667	9.80258E-001	9.09824E-005	0.00000E+000	8.91862E-005	5.39641E-002	9.80433E-001	3.57290E+000	9	...........
	158	2.12	9.81648E-001	9.12783E-005	0.00000E+000	8.96032E-005	5.39641E-002	9.81840E-001	3.57290E+000	9	...........
	159	2.13333	9.83033E-001	9.12512E-005	0.00000E+000	8.97030E-005	5.39641E-002	9.83210E-001	3.57260E+000	9	...........
	160	2.14667	9.84354E-001	9.10668E-005	0.00000E+000	8.96420E-005	5.39641E-002	9.84565E-001	3.57230E+000	9	...........
	161	2.16	9.85711E-001	9.11304E-005	0.00000E+000	8.98282E-005	5.39641E-002	9.85924E-001	3.57230E+000	9	...........
	162	2.17333	9.87039E-001	9.12346E-005	0.00000E+000	9.00520E-005	5.39641E-002	9.87267E-001	3.57230E+000	9	...........
	163	2.18667	9.88377E-001	9.11773E-005	0.00000E+000	9.01175E-005	5.39641E-002	9.88599E-001	3.57230E+000	9	...........
	164	2.2	9.89717E-001	9.09418E-005	0.00000E+000	9.00067E-005	5.39641E-002	9.89922E-001	3.57230E+000	9	...........
	165	2.21333	9.91029E-001	9.12992E-005	0.00000E+000	9.04801E-005	5.39641E-002	9.91234E-001	3.57230E+000	9	...........
	166	2.22667	9.92288E-001	9.11523E-005	0.00000E+000	9.04493E-005	5.39641E-002	9.92512E-001	3.57230E+000	9	...........
	167	2.24	9.93551E-001	9.10981E-005	0.00000E+000	9.05106E-005	5.39641E-002	9.93779E-001	3.57230E+000	9	...........
	168	2.25333	9.94799E-001	9.11741E-005	0.00000E+000	9.06999E-005	5.39641E-002	9.95017E-001	3.57230E+000	9	...........
	169	2.26667	9.96030E-001	9.09647E-005	0.00000E+000	9.06035E-005	5.39641E-002	9.96240E-001	3.57230E+000	9	...........
	170	2.28	9.97259E-001	9.11481E-005	0.00000E+000	9.08982E-005	5.39641E-002	9.97501E-001	3.57230E+000	9	...........
	171	2.29333	9.98530E-001	9.08699E-005	0.00000E+000	9.07364E-005	5.39641E-002	9.98730E-001	3.57230E+000	9	...........
	172	2.305	9.99666E-001	9.09662E-005	0.00000E+000	9.09358E-005	5.39641E-002	9.99869E-001	3.57230E+000	9	...........
STARTTIMEOFFSET	QUANT	1583.268	Start Time Offset (s)
