EXPLAIN
TAG	PWR800_DISCHARGE
TITLE	LABEL	PWR Cyclic Charge Discharge (Cell) - Discharge Step	Test &Identifier
DATE	LABEL	10-7-2017	Date
TIME	LABEL	15:38:32	Time
NOTES	NOTES	3	&Notes...
	supercap test cell
	0.9mg
	6M KOH
PSTAT	PSTAT	IFC5000-01520	Potentiostat
CAPACITY	QUANT	1.00000E-003	Capacity (A-hr)
CELLTYPE	SELECTOR	1	&Cell Type
WORKINGCONNECTION	SELECTOR	0	&Working Lead
MAXDISCHARGETIME	VARIABLEANDUNITS	1.00000E+002	s	1.00000E+002	second(s)	Max &Discharge Time
DISCHARGEMODE	MULTIPARAM	0	9.00000E-005	&Discharge Mode	Constant Current	Amp(s)
SAMPLETIME	QUANT	1.00000E-002	Sa&mple Period (s)
DISCHARGESTOPAT1	MULTIPARAM	3	0.00000E+000	Discharge Stop At &1	Voltage < Limit	V
DISCHARGESTOPAT2	MULTIPARAM	0	0.00000E+000	Discharge Stop At &2	None	N/A
AESBHCSELECTOR	TOGGLE	F	Save Both Half Cells
IRCOMP	TOGGLE	F	IR &Measure
EOC	QUANT	0	Open Circuit (V)
SEQUENCER	TOGGLE	TRUE	Run as Sequence
PSTATMODEL	IQUANT	53	Pstat Model
PSTATSECTION	LABEL	IFC5000-01520	Pstat Section
PSTATSERIALNO	LABEL	01520	Pstat Serial Number
CTRLMODE	IQUANT	0	Control Mode
ELECTROMETER	IQUANT	1	RE=0 or CS=1
IESTAB	IQUANT	0	I/E Stability
CASPEED	IQUANT	4	Control Amp Speed
CONVENTION	IQUANT	1	Current Convention
ICHRANGE	IQUANT	2	Ich Range
ICHRANGEMODE	TOGGLE	T	Ich Auto Range
ICHOFFSETENABLE	TOGGLE	F	Ich Offset Enable
ICHOFFSET	QUANT	0	Ich Offset (V)
ICHFILTER	IQUANT	1	Ich Filter
VCHRANGE	IQUANT	2	Vch Range
VCHRANGEMODE	TOGGLE	T	Vch Auto Range
VCHOFFSETENABLE	TOGGLE	F	Vch Offset Enable
VCHOFFSET	QUANT	0	Vch Offset (V)
VCHFILTER	IQUANT	1	Vch Filter
IERANGELOWERLIMIT	IQUANT	9	I/E Range Lower Limit
IERANGEMODE	TOGGLE	F	I/E AutoRange
IERANGE	IQUANT	9	I/E Range
ACHSELECT	IQUANT	1	Ach Select
ACHRANGE	IQUANT	2	Ach Range
ACHOFFSETENABLE	TOGGLE	F	Ach Offset Enable
ACHOFFSET	QUANT	0	Ach Offset (V)
ACHFILTER	IQUANT	1	Ach Filter
CABLEID	IQUANT	14	Cable ID
DCCALDATE	LABEL	5-7-2017	DC Calibration Date
ACCALDATE	LABEL	12/3/2015	AC Calibration Date
FRAMEWORKVERSION	QUANT	7.01	Framework Version
INSTRUMENTVERSION	LABEL	4.00	Instrument Version
CURVE	TABLE	153
	Pt	T	Vf	Im	Vu	Pwr	Sig	Ach	Temp	IERange	Over
	#	s	V	A	V	W	V	V	deg C	#	bits
	0	0.013333	8.13745E-001	-8.90499E-005	0.00000E+000	-7.24639E-005	-5.39641E-002	8.13907E-001	3.57330E+000	9	...........
	1	0.026667	8.00318E-001	-8.85978E-005	0.00000E+000	-7.09064E-005	-5.39641E-002	8.00473E-001	3.57330E+000	9	...........
	2	0.04	7.87744E-001	-8.88968E-005	0.00000E+000	-7.00279E-005	-5.39641E-002	7.87897E-001	3.57330E+000	9	...........
	3	0.053333	7.75904E-001	-8.89478E-005	0.00000E+000	-6.90150E-005	-5.39641E-002	7.76065E-001	3.57330E+000	9	...........
	4	0.066667	7.64597E-001	-8.87947E-005	0.00000E+000	-6.78921E-005	-5.39641E-002	7.64776E-001	3.57330E+000	9	...........
	5	0.08	7.53790E-001	-8.90322E-005	0.00000E+000	-6.71116E-005	-5.39641E-002	7.53954E-001	3.57330E+000	9	...........
	6	0.093333	7.43397E-001	-8.85061E-005	0.00000E+000	-6.57952E-005	-5.39641E-002	7.43534E-001	3.57330E+000	9	...........
	7	0.106667	7.33380E-001	-8.87707E-005	0.00000E+000	-6.51027E-005	-5.39641E-002	7.33533E-001	3.57330E+000	9	...........
	8	0.12	7.23723E-001	-8.86780E-005	0.00000E+000	-6.41783E-005	-5.39641E-002	7.23860E-001	3.57330E+000	9	...........
	9	0.133333	7.14333E-001	-8.87843E-005	0.00000E+000	-6.34215E-005	-5.39641E-002	7.14484E-001	3.57330E+000	9	...........
	10	0.146667	7.05270E-001	-8.87717E-005	0.00000E+000	-6.26080E-005	-5.39641E-002	7.05396E-001	3.57330E+000	9	...........
	11	0.16	6.96451E-001	-8.88374E-005	0.00000E+000	-6.18709E-005	-5.39641E-002	6.96567E-001	3.57330E+000	9	...........
	12	0.173333	6.87837E-001	-8.86978E-005	0.00000E+000	-6.10096E-005	-5.39641E-002	6.87979E-001	3.57330E+000	9	...........
	13	0.186667	6.79473E-001	-8.88499E-005	0.00000E+000	-6.03711E-005	-5.39641E-002	6.79608E-001	3.57330E+000	9	...........
	14	0.2	6.71320E-001	-8.88926E-005	0.00000E+000	-5.96753E-005	-5.39641E-002	6.71440E-001	3.57330E+000	9	...........
	15	0.213333	6.63320E-001	-8.88395E-005	0.00000E+000	-5.89290E-005	-5.39641E-002	6.63435E-001	3.57330E+000	9	...........
	16	0.226667	6.55504E-001	-8.87624E-005	0.00000E+000	-5.81841E-005	-5.39641E-002	6.55639E-001	3.57330E+000	9	...........
	17	0.24	6.47836E-001	-8.87842E-005	0.00000E+000	-5.75176E-005	-5.39641E-002	6.47966E-001	3.57330E+000	9	...........
	18	0.253333	6.40332E-001	-8.87978E-005	0.00000E+000	-5.68601E-005	-5.39641E-002	6.40467E-001	3.57330E+000	9	...........
	19	0.266667	6.32970E-001	-8.86259E-005	0.00000E+000	-5.60976E-005	-5.39641E-002	6.33109E-001	3.57330E+000	9	...........
	20	0.28	6.25789E-001	-8.87728E-005	0.00000E+000	-5.55530E-005	-5.39641E-002	6.25883E-001	3.57330E+000	9	...........
	21	0.293333	6.18704E-001	-8.88624E-005	0.00000E+000	-5.49795E-005	-5.39641E-002	6.18839E-001	3.57330E+000	9	...........
	22	0.306667	6.11697E-001	-8.87645E-005	0.00000E+000	-5.42970E-005	-5.39641E-002	6.11856E-001	3.57330E+000	9	...........
	23	0.32	6.04832E-001	-8.90103E-005	0.00000E+000	-5.38363E-005	-5.39641E-002	6.05010E-001	3.57330E+000	9	...........
	24	0.333333	5.98111E-001	-8.86551E-005	0.00000E+000	-5.30256E-005	-5.39641E-002	5.98246E-001	3.57330E+000	9	...........
	25	0.346667	5.91445E-001	-8.88718E-005	0.00000E+000	-5.25628E-005	-5.39641E-002	5.91632E-001	3.57330E+000	9	...........
	26	0.36	5.84895E-001	-8.87030E-005	0.00000E+000	-5.18819E-005	-5.39641E-002	5.85051E-001	3.57330E+000	9	...........
	27	0.373333	5.78442E-001	-8.87301E-005	0.00000E+000	-5.13252E-005	-5.39641E-002	5.78590E-001	3.57330E+000	9	...........
	28	0.386667	5.72090E-001	-8.86019E-005	0.00000E+000	-5.06883E-005	-5.39641E-002	5.72221E-001	3.57330E+000	9	...........
	29	0.4	5.65819E-001	-8.86238E-005	0.00000E+000	-5.01451E-005	-5.39641E-002	5.65960E-001	3.57330E+000	9	...........
	30	0.413333	5.59590E-001	-8.86051E-005	0.00000E+000	-4.95825E-005	-5.39641E-002	5.59714E-001	3.57330E+000	9	...........
	31	0.426667	5.53456E-001	-8.88197E-005	0.00000E+000	-4.91578E-005	-5.39641E-002	5.53566E-001	3.57320E+000	9	...........
	32	0.44	5.47415E-001	-8.88270E-005	0.00000E+000	-4.86252E-005	-5.39641E-002	5.47507E-001	3.57250E+000	9	...........
	33	0.453333	5.41434E-001	-8.88030E-005	0.00000E+000	-4.80810E-005	-5.39641E-002	5.41534E-001	3.57250E+000	9	...........
	34	0.466667	5.35478E-001	-8.90604E-005	0.00000E+000	-4.76899E-005	-5.39641E-002	5.35565E-001	3.57250E+000	9	...........
	35	0.48	5.29602E-001	-8.87645E-005	0.00000E+000	-4.70099E-005	-5.39641E-002	5.29666E-001	3.57250E+000	9	...........
	36	0.493333	5.23787E-001	-8.87790E-005	0.00000E+000	-4.65014E-005	-5.39641E-002	5.23830E-001	3.57250E+000	9	...........
	37	0.506667	5.17994E-001	-8.89134E-005	0.00000E+000	-4.60566E-005	-5.39641E-002	5.18044E-001	3.57250E+000	9	...........
	38	0.52	5.12253E-001	-8.86415E-005	0.00000E+000	-4.54069E-005	-5.39641E-002	5.12311E-001	3.57250E+000	9	...........
	39	0.533333	5.06510E-001	-8.87936E-005	0.00000E+000	-4.49749E-005	-5.39641E-002	5.06645E-001	3.57250E+000	9	...........
	40	0.546667	5.00890E-001	-8.84696E-005	0.00000E+000	-4.43136E-005	-5.39641E-002	5.00986E-001	3.57250E+000	9	...........
	41	0.56	4.95302E-001	-8.89624E-005	0.00000E+000	-4.40633E-005	-5.39641E-002	4.95408E-001	3.57250E+000	9	...........
	42	0.573333	4.89732E-001	-8.88989E-005	0.00000E+000	-4.35367E-005	-5.39641E-002	4.89836E-001	3.57250E+000	9	...........
	43	0.586667	4.84276E-001	-8.88395E-005	0.00000E+000	-4.30228E-005	-5.39641E-002	4.84357E-001	3.57250E+000	9	...........
	44	0.6	4.78850E-001	-8.85686E-005	0.00000E+000	-4.24111E-005	-5.39641E-002	4.78917E-001	3.57250E+000	9	...........
	45	0.613333	4.73418E-001	-8.87165E-005	0.00000E+000	-4.20000E-005	-5.39641E-002	4.73481E-001	3.57250E+000	9	...........
	46	0.626667	4.68016E-001	-8.87530E-005	0.00000E+000	-4.15378E-005	-5.39641E-002	4.68078E-001	3.57250E+000	9	...........
	47	0.64	4.62630E-001	-8.90656E-005	0.00000E+000	-4.12044E-005	-5.39641E-002	4.62693E-001	3.57250E+000	9	...........
	48	0.653333	4.57279E-001	-8.88759E-005	0.00000E+000	-4.06411E-005	-5.39641E-002	4.57344E-001	3.57250E+000	9	...........
	49	0.666667	4.51966E-001	-8.88155E-005	0.00000E+000	-4.01416E-005	-5.39641E-002	4.52028E-001	3.57250E+000	9	...........
	50	0.68	4.46673E-001	-8.88103E-005	0.00000E+000	-3.96692E-005	-5.39641E-002	4.46732E-001	3.57250E+000	9	...........
	51	0.693333	4.41405E-001	-8.88072E-005	0.00000E+000	-3.92000E-005	-5.39641E-002	4.41468E-001	3.57250E+000	9	...........
	52	0.706667	4.36165E-001	-8.87342E-005	0.00000E+000	-3.87028E-005	-5.39641E-002	4.36221E-001	3.57250E+000	9	...........
	53	0.72	4.30942E-001	-8.89739E-005	0.00000E+000	-3.83426E-005	-5.39641E-002	4.30991E-001	3.57250E+000	9	...........
	54	0.733333	4.25728E-001	-8.86926E-005	0.00000E+000	-3.77589E-005	-5.39641E-002	4.25784E-001	3.57250E+000	9	...........
	55	0.746667	4.20546E-001	-8.89530E-005	0.00000E+000	-3.74088E-005	-5.39641E-002	4.20601E-001	3.57250E+000	9	...........
	56	0.76	4.15386E-001	-8.89468E-005	0.00000E+000	-3.69472E-005	-5.39641E-002	4.15438E-001	3.57250E+000	9	...........
	57	0.773333	4.10253E-001	-8.86592E-005	0.00000E+000	-3.63727E-005	-5.39641E-002	4.10306E-001	3.57250E+000	9	...........
	58	0.786667	4.05148E-001	-8.88843E-005	0.00000E+000	-3.60113E-005	-5.39641E-002	4.05200E-001	3.57250E+000	9	...........
	59	0.8	4.00041E-001	-8.90343E-005	0.00000E+000	-3.56174E-005	-5.39641E-002	4.00090E-001	3.57250E+000	9	...........
	60	0.813333	3.94960E-001	-8.88176E-005	0.00000E+000	-3.50794E-005	-5.39641E-002	3.95008E-001	3.57250E+000	9	...........
	61	0.826667	3.89907E-001	-8.87853E-005	0.00000E+000	-3.46180E-005	-5.39641E-002	3.89960E-001	3.57250E+000	9	...........
	62	0.84	3.84858E-001	-8.89416E-005	0.00000E+000	-3.42299E-005	-5.39641E-002	3.84900E-001	3.57250E+000	9	...........
	63	0.853333	3.79810E-001	-8.88416E-005	0.00000E+000	-3.37429E-005	-5.39641E-002	3.79860E-001	3.57250E+000	9	...........
	64	0.866667	3.74789E-001	-8.87978E-005	0.00000E+000	-3.32804E-005	-5.39641E-002	3.74836E-001	3.57250E+000	9	...........
	65	0.88	3.69794E-001	-8.86978E-005	0.00000E+000	-3.27999E-005	-5.39641E-002	3.69837E-001	3.57250E+000	9	...........
	66	0.893333	3.64797E-001	-8.88832E-005	0.00000E+000	-3.24244E-005	-5.39641E-002	3.64843E-001	3.57250E+000	9	...........
	67	0.906667	3.59826E-001	-8.88499E-005	0.00000E+000	-3.19705E-005	-5.39641E-002	3.59867E-001	3.57250E+000	9	...........
	68	0.92	3.54870E-001	-8.88395E-005	0.00000E+000	-3.15265E-005	-5.39641E-002	3.54915E-001	3.57250E+000	9	...........
	69	0.933333	3.49931E-001	-8.88384E-005	0.00000E+000	-3.10874E-005	-5.39641E-002	3.49973E-001	3.57250E+000	9	...........
	70	0.946667	3.44993E-001	-8.89030E-005	0.00000E+000	-3.06710E-005	-5.39641E-002	3.45035E-001	3.57250E+000	9	...........
	71	0.96	3.40077E-001	-8.87957E-005	0.00000E+000	-3.01974E-005	-5.39641E-002	3.40112E-001	3.57250E+000	9	...........
	72	0.97333	3.35166E-001	-8.89895E-005	0.00000E+000	-2.98262E-005	-5.39641E-002	3.35202E-001	3.57250E+000	9	...........
	73	0.98667	3.30281E-001	-8.88238E-005	0.00000E+000	-2.93368E-005	-5.39641E-002	3.30319E-001	3.57250E+000	9	...........
	74	1	3.25400E-001	-8.85936E-005	0.00000E+000	-2.88284E-005	-5.39641E-002	3.25446E-001	3.57250E+000	9	...........
	75	1.01333	3.20550E-001	-8.84706E-005	0.00000E+000	-2.83593E-005	-5.39641E-002	3.20586E-001	3.57250E+000	9	...........
	76	1.02667	3.15699E-001	-8.88530E-005	0.00000E+000	-2.80508E-005	-5.39641E-002	3.15738E-001	3.57250E+000	9	...........
	77	1.04	3.10878E-001	-8.88426E-005	0.00000E+000	-2.76192E-005	-5.39641E-002	3.10914E-001	3.57250E+000	9	...........
	78	1.05333	3.06061E-001	-8.88436E-005	0.00000E+000	-2.71916E-005	-5.39641E-002	3.06101E-001	3.57250E+000	9	...........
	79	1.06667	3.01274E-001	-8.91375E-005	0.00000E+000	-2.68548E-005	-5.39641E-002	3.01311E-001	3.57250E+000	9	...........
	80	1.08	2.96494E-001	-8.88218E-005	0.00000E+000	-2.63351E-005	-5.39641E-002	2.96533E-001	3.57250E+000	9	...........
	81	1.09333	2.91726E-001	-8.84800E-005	0.00000E+000	-2.58119E-005	-5.39641E-002	2.91763E-001	3.57250E+000	9	...........
	82	1.10667	2.86988E-001	-8.87936E-005	0.00000E+000	-2.54828E-005	-5.39641E-002	2.87025E-001	3.57250E+000	9	...........
	83	1.12	2.82260E-001	-8.86863E-005	0.00000E+000	-2.50326E-005	-5.39641E-002	2.82293E-001	3.57250E+000	9	...........
	84	1.13333	2.77547E-001	-8.89291E-005	0.00000E+000	-2.46820E-005	-5.39641E-002	2.77581E-001	3.57250E+000	9	...........
	85	1.14667	2.72847E-001	-8.88405E-005	0.00000E+000	-2.42399E-005	-5.39641E-002	2.72873E-001	3.57250E+000	9	...........
	86	1.16	2.68168E-001	-8.86811E-005	0.00000E+000	-2.37814E-005	-5.39641E-002	2.68202E-001	3.57250E+000	9	...........
	87	1.17333	2.63515E-001	-8.87592E-005	0.00000E+000	-2.33894E-005	-5.39641E-002	2.63547E-001	3.57250E+000	9	...........
	88	1.18667	2.58874E-001	-8.88041E-005	0.00000E+000	-2.29891E-005	-5.39641E-002	2.58908E-001	3.57250E+000	9	...........
	89	1.2	2.54265E-001	-8.88145E-005	0.00000E+000	-2.25824E-005	-5.39641E-002	2.54301E-001	3.57250E+000	9	...........
	90	1.21333	2.49680E-001	-8.89395E-005	0.00000E+000	-2.22064E-005	-5.39641E-002	2.49712E-001	3.57250E+000	9	...........
	91	1.22667	2.45107E-001	-8.87436E-005	0.00000E+000	-2.17516E-005	-5.39641E-002	2.45130E-001	3.57250E+000	9	...........
	92	1.24	2.40557E-001	-8.88176E-005	0.00000E+000	-2.13657E-005	-5.39641E-002	2.40583E-001	3.57250E+000	9	...........
	93	1.25333	2.36021E-001	-8.89197E-005	0.00000E+000	-2.09869E-005	-5.39641E-002	2.36048E-001	3.57250E+000	9	...........
	94	1.26667	2.31501E-001	-8.89364E-005	0.00000E+000	-2.05889E-005	-5.39641E-002	2.31530E-001	3.57250E+000	9	...........
	95	1.28	2.26999E-001	-8.85352E-005	0.00000E+000	-2.00974E-005	-5.39641E-002	2.27025E-001	3.57250E+000	9	...........
	96	1.29333	2.22518E-001	-8.89197E-005	0.00000E+000	-1.97862E-005	-5.39641E-002	2.22542E-001	3.57250E+000	9	...........
	97	1.30667	2.18062E-001	-8.85946E-005	0.00000E+000	-1.93191E-005	-5.39641E-002	2.18080E-001	3.57250E+000	9	...........
	98	1.32	2.13625E-001	-8.90822E-005	0.00000E+000	-1.90302E-005	-5.39641E-002	2.13645E-001	3.57250E+000	9	...........
	99	1.33333	2.09204E-001	-8.87499E-005	0.00000E+000	-1.85669E-005	-5.39641E-002	2.09226E-001	3.57250E+000	9	...........
	100	1.34667	2.04818E-001	-8.89134E-005	0.00000E+000	-1.82111E-005	-5.39641E-002	2.04837E-001	3.57250E+000	9	...........
	101	1.36	2.00453E-001	-8.88155E-005	0.00000E+000	-1.78033E-005	-5.39641E-002	2.00477E-001	3.57250E+000	9	...........
	102	1.37333	1.96111E-001	-8.89051E-005	0.00000E+000	-1.74353E-005	-5.39641E-002	1.96125E-001	3.57250E+000	9	...........
	103	1.38667	1.91768E-001	-8.87947E-005	0.00000E+000	-1.70280E-005	-5.39641E-002	1.91785E-001	3.57250E+000	9	...........
	104	1.4	1.87441E-001	-8.88822E-005	0.00000E+000	-1.66602E-005	-5.39641E-002	1.87453E-001	3.57250E+000	9	...........
	105	1.41333	1.83133E-001	-8.89780E-005	0.00000E+000	-1.62948E-005	-5.39641E-002	1.83155E-001	3.57250E+000	9	...........
	106	1.42667	1.78863E-001	-8.87780E-005	0.00000E+000	-1.58791E-005	-5.39641E-002	1.78884E-001	3.57250E+000	9	...........
	107	1.44	1.74605E-001	-8.89228E-005	0.00000E+000	-1.55264E-005	-5.39641E-002	1.74631E-001	3.57250E+000	9	...........
	108	1.45333	1.70379E-001	-8.86707E-005	0.00000E+000	-1.51076E-005	-5.39641E-002	1.70401E-001	3.57250E+000	9	...........
	109	1.46667	1.66148E-001	-8.90093E-005	0.00000E+000	-1.47887E-005	-5.39641E-002	1.66169E-001	3.57250E+000	9	...........
	110	1.48	1.61946E-001	-8.87540E-005	0.00000E+000	-1.43734E-005	-5.39641E-002	1.61963E-001	3.57250E+000	9	...........
	111	1.49333	1.57753E-001	-8.88468E-005	0.00000E+000	-1.40158E-005	-5.39641E-002	1.57771E-001	3.57250E+000	9	...........
	112	1.50667	1.53575E-001	-8.86176E-005	0.00000E+000	-1.36094E-005	-5.39641E-002	1.53600E-001	3.57250E+000	9	...........
	113	1.52	1.49406E-001	-8.89708E-005	0.00000E+000	-1.32928E-005	-5.39641E-002	1.49421E-001	3.57250E+000	9	...........
	114	1.53333	1.45251E-001	-8.90291E-005	0.00000E+000	-1.29316E-005	-5.39641E-002	1.45267E-001	3.57250E+000	9	...........
	115	1.54667	1.41119E-001	-8.88238E-005	0.00000E+000	-1.25347E-005	-5.39641E-002	1.41134E-001	3.57250E+000	9	...........
	116	1.56	1.37011E-001	-8.87697E-005	0.00000E+000	-1.21624E-005	-5.39641E-002	1.37022E-001	3.57250E+000	9	...........
	117	1.57333	1.32930E-001	-8.87707E-005	0.00000E+000	-1.18003E-005	-5.39641E-002	1.32945E-001	3.57250E+000	9	...........
	118	1.58667	1.28868E-001	-8.86113E-005	0.00000E+000	-1.14192E-005	-5.39641E-002	1.28875E-001	3.57250E+000	9	...........
	119	1.6	1.24817E-001	-8.86926E-005	0.00000E+000	-1.10703E-005	-5.39641E-002	1.24833E-001	3.57250E+000	9	...........
	120	1.61333	1.20789E-001	-8.87134E-005	0.00000E+000	-1.07156E-005	-5.39641E-002	1.20802E-001	3.57250E+000	9	...........
	121	1.62667	1.16794E-001	-8.89426E-005	0.00000E+000	-1.03880E-005	-5.39641E-002	1.16804E-001	3.57250E+000	9	...........
	122	1.64	1.12816E-001	-8.88728E-005	0.00000E+000	-1.00262E-005	-5.39641E-002	1.12822E-001	3.57250E+000	9	...........
	123	1.65333	1.08842E-001	-8.85540E-005	0.00000E+000	-9.63835E-006	-5.39641E-002	1.08855E-001	3.57250E+000	9	...........
	124	1.66667	1.04889E-001	-8.87426E-005	0.00000E+000	-9.30808E-006	-5.39641E-002	1.04900E-001	3.57250E+000	9	...........
	125	1.68	1.00947E-001	-8.86509E-005	0.00000E+000	-8.94908E-006	-5.39641E-002	1.00966E-001	3.57250E+000	9	...........
	126	1.69333	9.70232E-002	-8.88197E-005	0.00000E+000	-8.61757E-006	-5.39641E-002	9.70382E-002	3.57250E+000	9	...........
	127	1.70667	9.31208E-002	-8.88113E-005	0.00000E+000	-8.27019E-006	-5.39641E-002	9.31314E-002	3.57250E+000	9	...........
	128	1.72	8.92607E-002	-8.90426E-005	0.00000E+000	-7.94801E-006	-5.39641E-002	8.92685E-002	3.57250E+000	9	...........
	129	1.73333	8.53993E-002	-8.87113E-005	0.00000E+000	-7.57588E-006	-5.39641E-002	8.54045E-002	3.57250E+000	9	...........
	130	1.74667	8.15527E-002	-8.90020E-005	0.00000E+000	-7.25835E-006	-5.39641E-002	8.15509E-002	3.57250E+000	9	...........
	131	1.76	7.77004E-002	-8.89291E-005	0.00000E+000	-6.90983E-006	-5.39641E-002	7.77088E-002	3.57250E+000	9	...........
	132	1.77333	7.38749E-002	-8.90239E-005	0.00000E+000	-6.57663E-006	-5.39641E-002	7.38757E-002	3.57250E+000	9	...........
	133	1.78667	7.00787E-002	-8.86759E-005	0.00000E+000	-6.21429E-006	-5.39641E-002	7.00838E-002	3.57250E+000	9	...........
	134	1.8	6.62902E-002	-8.87988E-005	0.00000E+000	-5.88650E-006	-5.39641E-002	6.62916E-002	3.57250E+000	9	...........
	135	1.81333	6.25215E-002	-8.89082E-005	0.00000E+000	-5.55867E-006	-5.39641E-002	6.25212E-002	3.57250E+000	9	...........
	136	1.82667	5.87759E-002	-8.90145E-005	0.00000E+000	-5.23191E-006	-5.39641E-002	5.87779E-002	3.57250E+000	9	...........
	137	1.84	5.50393E-002	-8.89332E-005	0.00000E+000	-4.89482E-006	-5.39641E-002	5.50457E-002	3.57250E+000	9	...........
	138	1.85333	5.13232E-002	-8.88041E-005	0.00000E+000	-4.55770E-006	-5.39641E-002	5.13292E-002	3.57250E+000	9	...........
	139	1.86667	4.76266E-002	-8.90406E-005	0.00000E+000	-4.24070E-006	-5.39641E-002	4.76321E-002	3.57250E+000	9	...........
	140	1.88	4.39448E-002	-8.86749E-005	0.00000E+000	-3.89680E-006	-5.39641E-002	4.39510E-002	3.57250E+000	9	...........
	141	1.89333	4.02869E-002	-8.86280E-005	0.00000E+000	-3.57055E-006	-5.39641E-002	4.02998E-002	3.57250E+000	9	...........
	142	1.90667	3.66375E-002	-8.88551E-005	0.00000E+000	-3.25543E-006	-5.39641E-002	3.66432E-002	3.57250E+000	9	...........
	143	1.92	3.30082E-002	-8.87384E-005	0.00000E+000	-2.92910E-006	-5.39641E-002	3.30118E-002	3.57250E+000	9	...........
	144	1.93333	2.93996E-002	-8.88124E-005	0.00000E+000	-2.61104E-006	-5.39641E-002	2.94036E-002	3.57250E+000	9	...........
	145	1.94667	2.57988E-002	-8.87717E-005	0.00000E+000	-2.29020E-006	-5.39641E-002	2.58001E-002	3.57250E+000	9	...........
	146	1.96	2.22261E-002	-8.88780E-005	0.00000E+000	-1.97541E-006	-5.39641E-002	2.22258E-002	3.57250E+000	9	...........
	147	1.97333	1.86723E-002	-8.87311E-005	0.00000E+000	-1.65681E-006	-5.39641E-002	1.86705E-002	3.57250E+000	9	...........
	148	1.98667	1.51311E-002	-8.91500E-005	0.00000E+000	-1.34893E-006	-5.39641E-002	1.51280E-002	3.57250E+000	9	...........
	149	2	1.15824E-002	-8.86582E-005	0.00000E+000	-1.02687E-006	-5.39641E-002	1.15743E-002	3.57250E+000	9	...........
	150	2.01333	8.06463E-003	-8.87103E-005	0.00000E+000	-7.15415E-007	-5.39641E-002	8.05456E-003	3.57250E+000	9	...........
	151	2.02667	4.56301E-003	-8.88770E-005	0.00000E+000	-4.05546E-007	-5.39641E-002	4.54977E-003	3.57250E+000	9	...........
	152	2.03833	1.29811E-003	-8.89940E-005	0.00000E+000	-1.15524E-007	-5.39641E-002	1.28697E-003	3.57250E+000	9	...........
STARTTIMEOFFSET	QUANT	1988.583	Start Time Offset (s)
