EXPLAIN
TAG	PWR800_DISCHARGE
TITLE	LABEL	PWR Cyclic Charge Discharge (Cell) - Discharge Step	Test &Identifier
DATE	LABEL	10-7-2017	Date
TIME	LABEL	15:57:02	Time
NOTES	NOTES	3	&Notes...
	supercap test cell
	0.9mg
	6M KOH
PSTAT	PSTAT	IFC5000-01520	Potentiostat
CAPACITY	QUANT	1.00000E-003	Capacity (A-hr)
CELLTYPE	SELECTOR	1	&Cell Type
WORKINGCONNECTION	SELECTOR	0	&Working Lead
MAXDISCHARGETIME	VARIABLEANDUNITS	1.00000E+002	s	1.00000E+002	second(s)	Max &Discharge Time
DISCHARGEMODE	MULTIPARAM	0	9.00000E-005	&Discharge Mode	Constant Current	Amp(s)
SAMPLETIME	QUANT	1.00000E-002	Sa&mple Period (s)
DISCHARGESTOPAT1	MULTIPARAM	3	0.00000E+000	Discharge Stop At &1	Voltage < Limit	V
DISCHARGESTOPAT2	MULTIPARAM	0	0.00000E+000	Discharge Stop At &2	None	N/A
AESBHCSELECTOR	TOGGLE	F	Save Both Half Cells
IRCOMP	TOGGLE	F	IR &Measure
EOC	QUANT	0	Open Circuit (V)
SEQUENCER	TOGGLE	TRUE	Run as Sequence
PSTATMODEL	IQUANT	53	Pstat Model
PSTATSECTION	LABEL	IFC5000-01520	Pstat Section
PSTATSERIALNO	LABEL	01520	Pstat Serial Number
CTRLMODE	IQUANT	0	Control Mode
ELECTROMETER	IQUANT	1	RE=0 or CS=1
IESTAB	IQUANT	0	I/E Stability
CASPEED	IQUANT	4	Control Amp Speed
CONVENTION	IQUANT	1	Current Convention
ICHRANGE	IQUANT	2	Ich Range
ICHRANGEMODE	TOGGLE	T	Ich Auto Range
ICHOFFSETENABLE	TOGGLE	F	Ich Offset Enable
ICHOFFSET	QUANT	0	Ich Offset (V)
ICHFILTER	IQUANT	1	Ich Filter
VCHRANGE	IQUANT	2	Vch Range
VCHRANGEMODE	TOGGLE	T	Vch Auto Range
VCHOFFSETENABLE	TOGGLE	F	Vch Offset Enable
VCHOFFSET	QUANT	0	Vch Offset (V)
VCHFILTER	IQUANT	1	Vch Filter
IERANGELOWERLIMIT	IQUANT	9	I/E Range Lower Limit
IERANGEMODE	TOGGLE	F	I/E AutoRange
IERANGE	IQUANT	9	I/E Range
ACHSELECT	IQUANT	1	Ach Select
ACHRANGE	IQUANT	2	Ach Range
ACHOFFSETENABLE	TOGGLE	F	Ach Offset Enable
ACHOFFSET	QUANT	0	Ach Offset (V)
ACHFILTER	IQUANT	1	Ach Filter
CABLEID	IQUANT	14	Cable ID
DCCALDATE	LABEL	5-7-2017	DC Calibration Date
ACCALDATE	LABEL	12/3/2015	AC Calibration Date
FRAMEWORKVERSION	QUANT	7.01	Framework Version
INSTRUMENTVERSION	LABEL	4.00	Instrument Version
CURVE	TABLE	149
	Pt	T	Vf	Im	Vu	Pwr	Sig	Ach	Temp	IERange	Over
	#	s	V	A	V	W	V	V	deg C	#	bits
	0	0.013333	8.06009E-001	-8.87645E-005	0.00000E+000	-7.15450E-005	-5.39641E-002	8.06122E-001	3.57270E+000	9	...........
	1	0.026667	7.92095E-001	-8.87426E-005	0.00000E+000	-7.02926E-005	-5.39641E-002	7.92204E-001	3.57270E+000	9	...........
	2	0.04	7.79089E-001	-8.87572E-005	0.00000E+000	-6.91498E-005	-5.39641E-002	7.79192E-001	3.57270E+000	9	...........
	3	0.053333	7.66832E-001	-8.86540E-005	0.00000E+000	-6.79828E-005	-5.39641E-002	7.66939E-001	3.57340E+000	9	...........
	4	0.066667	7.55202E-001	-8.88374E-005	0.00000E+000	-6.70902E-005	-5.39641E-002	7.55317E-001	3.57340E+000	9	...........
	5	0.08	7.44101E-001	-8.86301E-005	0.00000E+000	-6.59498E-005	-5.39641E-002	7.44205E-001	3.57340E+000	9	...........
	6	0.093333	7.33374E-001	-8.88395E-005	0.00000E+000	-6.51525E-005	-5.39641E-002	7.33525E-001	3.57340E+000	9	...........
	7	0.106667	7.23162E-001	-8.89009E-005	0.00000E+000	-6.42898E-005	-5.39641E-002	7.23273E-001	3.57340E+000	9	...........
	8	0.12	7.13231E-001	-8.85144E-005	0.00000E+000	-6.31312E-005	-5.39641E-002	7.13369E-001	3.57340E+000	9	...........
	9	0.133333	7.03650E-001	-8.87499E-005	0.00000E+000	-6.24489E-005	-5.39641E-002	7.03804E-001	3.57340E+000	9	...........
	10	0.146667	6.94371E-001	-8.87530E-005	0.00000E+000	-6.16275E-005	-5.39641E-002	6.94489E-001	3.57340E+000	9	...........
	11	0.16	6.85332E-001	-8.87947E-005	0.00000E+000	-6.08538E-005	-5.39641E-002	6.85454E-001	3.57340E+000	9	...........
	12	0.173333	6.76582E-001	-8.86405E-005	0.00000E+000	-5.99725E-005	-5.39641E-002	6.76733E-001	3.57340E+000	9	...........
	13	0.186667	6.68070E-001	-8.88520E-005	0.00000E+000	-5.93593E-005	-5.39641E-002	6.68177E-001	3.57340E+000	9	...........
	14	0.2	6.59688E-001	-8.88259E-005	0.00000E+000	-5.85974E-005	-5.39641E-002	6.59803E-001	3.57340E+000	9	...........
	15	0.213333	6.51556E-001	-8.87342E-005	0.00000E+000	-5.78153E-005	-5.39641E-002	6.51678E-001	3.57340E+000	9	...........
	16	0.226667	6.43647E-001	-8.87322E-005	0.00000E+000	-5.71122E-005	-5.39641E-002	6.43733E-001	3.57340E+000	9	...........
	17	0.24	6.35845E-001	-8.86134E-005	0.00000E+000	-5.63444E-005	-5.39641E-002	6.35952E-001	3.57340E+000	9	...........
	18	0.253333	6.28256E-001	-8.86446E-005	0.00000E+000	-5.56915E-005	-5.39641E-002	6.28353E-001	3.57340E+000	9	...........
	19	0.266667	6.20805E-001	-8.88395E-005	0.00000E+000	-5.51520E-005	-5.39641E-002	6.20903E-001	3.57340E+000	9	...........
	20	0.28	6.13457E-001	-8.86082E-005	0.00000E+000	-5.43573E-005	-5.39641E-002	6.13594E-001	3.57340E+000	9	...........
	21	0.293333	6.06260E-001	-8.87207E-005	0.00000E+000	-5.37879E-005	-5.39641E-002	6.06414E-001	3.57340E+000	9	...........
	22	0.306667	5.99232E-001	-8.89187E-005	0.00000E+000	-5.32829E-005	-5.39641E-002	5.99363E-001	3.57340E+000	9	...........
	23	0.32	5.92318E-001	-8.90103E-005	0.00000E+000	-5.27224E-005	-5.39641E-002	5.92442E-001	3.57340E+000	9	...........
	24	0.333333	5.85480E-001	-8.85144E-005	0.00000E+000	-5.18234E-005	-5.39641E-002	5.85617E-001	3.57340E+000	9	...........
	25	0.346667	5.78790E-001	-8.86144E-005	0.00000E+000	-5.12892E-005	-5.39641E-002	5.78915E-001	3.57340E+000	9	...........
	26	0.36	5.72200E-001	-8.85582E-005	0.00000E+000	-5.06730E-005	-5.39641E-002	5.72300E-001	3.57340E+000	9	...........
	27	0.373333	5.65703E-001	-8.89124E-005	0.00000E+000	-5.02980E-005	-5.39641E-002	5.65803E-001	3.57340E+000	9	...........
	28	0.386667	5.59253E-001	-8.87092E-005	0.00000E+000	-4.96109E-005	-5.39641E-002	5.59359E-001	3.57340E+000	9	...........
	29	0.4	5.52940E-001	-8.87884E-005	0.00000E+000	-4.90946E-005	-5.39641E-002	5.53057E-001	3.57340E+000	9	...........
	30	0.413333	5.46711E-001	-8.89239E-005	0.00000E+000	-4.86157E-005	-5.39641E-002	5.46821E-001	3.57340E+000	9	...........
	31	0.426667	5.40546E-001	-8.88447E-005	0.00000E+000	-4.80247E-005	-5.39641E-002	5.40671E-001	3.57340E+000	9	...........
	32	0.44	5.34405E-001	-8.85290E-005	0.00000E+000	-4.73104E-005	-5.39641E-002	5.34524E-001	3.57340E+000	9	...........
	33	0.453333	5.28395E-001	-8.86571E-005	0.00000E+000	-4.68460E-005	-5.39641E-002	5.28500E-001	3.57340E+000	9	...........
	34	0.466667	5.22441E-001	-8.86707E-005	0.00000E+000	-4.63252E-005	-5.39641E-002	5.22531E-001	3.57340E+000	9	...........
	35	0.48	5.16552E-001	-8.89760E-005	0.00000E+000	-4.59607E-005	-5.39641E-002	5.16636E-001	3.57340E+000	9	...........
	36	0.493333	5.10694E-001	-8.86321E-005	0.00000E+000	-4.52639E-005	-5.39641E-002	5.10805E-001	3.57340E+000	9	...........
	37	0.506667	5.04869E-001	-8.88176E-005	0.00000E+000	-4.48413E-005	-5.39641E-002	5.05023E-001	3.57340E+000	9	...........
	38	0.52	4.99168E-001	-8.87707E-005	0.00000E+000	-4.43115E-005	-5.39641E-002	4.99288E-001	3.57340E+000	9	...........
	39	0.533333	4.93531E-001	-8.88666E-005	0.00000E+000	-4.38584E-005	-5.39641E-002	4.93623E-001	3.57340E+000	9	...........
	40	0.546667	4.87899E-001	-8.88228E-005	0.00000E+000	-4.33366E-005	-5.39641E-002	4.88023E-001	3.57340E+000	9	...........
	41	0.56	4.82416E-001	-8.89176E-005	0.00000E+000	-4.28953E-005	-5.39641E-002	4.82469E-001	3.57340E+000	9	...........
	42	0.573333	4.76869E-001	-8.86071E-005	0.00000E+000	-4.22540E-005	-5.39641E-002	4.76939E-001	3.57340E+000	9	...........
	43	0.586667	4.71376E-001	-8.90187E-005	0.00000E+000	-4.19613E-005	-5.39641E-002	4.71438E-001	3.57340E+000	9	...........
	44	0.6	4.65911E-001	-8.87780E-005	0.00000E+000	-4.13627E-005	-5.39641E-002	4.65976E-001	3.57340E+000	9	...........
	45	0.613333	4.60488E-001	-8.88332E-005	0.00000E+000	-4.09066E-005	-5.39641E-002	4.60548E-001	3.57340E+000	9	...........
	46	0.626667	4.55102E-001	-8.87926E-005	0.00000E+000	-4.04096E-005	-5.39641E-002	4.55167E-001	3.57340E+000	9	...........
	47	0.64	4.49747E-001	-8.87113E-005	0.00000E+000	-3.98977E-005	-5.39641E-002	4.49814E-001	3.57340E+000	9	...........
	48	0.653333	4.44422E-001	-8.85644E-005	0.00000E+000	-3.93600E-005	-5.39641E-002	4.44484E-001	3.57340E+000	9	...........
	49	0.666667	4.39127E-001	-8.88145E-005	0.00000E+000	-3.90009E-005	-5.39641E-002	4.39190E-001	3.57340E+000	9	...........
	50	0.68	4.33848E-001	-8.89291E-005	0.00000E+000	-3.85817E-005	-5.39641E-002	4.33910E-001	3.57340E+000	9	...........
	51	0.693333	4.28589E-001	-8.87436E-005	0.00000E+000	-3.80345E-005	-5.39641E-002	4.28653E-001	3.57340E+000	9	...........
	52	0.706667	4.23359E-001	-8.88499E-005	0.00000E+000	-3.76154E-005	-5.39641E-002	4.23423E-001	3.57340E+000	9	...........
	53	0.72	4.18158E-001	-8.86384E-005	0.00000E+000	-3.70649E-005	-5.39641E-002	4.18217E-001	3.57340E+000	9	...........
	54	0.733333	4.12967E-001	-8.86801E-005	0.00000E+000	-3.66219E-005	-5.39641E-002	4.13022E-001	3.57340E+000	9	...........
	55	0.746667	4.07812E-001	-8.89416E-005	0.00000E+000	-3.62714E-005	-5.39641E-002	4.07861E-001	3.57340E+000	9	...........
	56	0.76	4.02695E-001	-8.86478E-005	0.00000E+000	-3.56980E-005	-5.39641E-002	4.02742E-001	3.57340E+000	9	...........
	57	0.773333	3.97600E-001	-8.90062E-005	0.00000E+000	-3.53888E-005	-5.39641E-002	3.97646E-001	3.57340E+000	9	...........
	58	0.786667	3.92509E-001	-8.88541E-005	0.00000E+000	-3.48760E-005	-5.39641E-002	3.92559E-001	3.57340E+000	9	...........
	59	0.8	3.87442E-001	-8.89541E-005	0.00000E+000	-3.44646E-005	-5.39641E-002	3.87489E-001	3.57340E+000	9	...........
	60	0.813333	3.82376E-001	-8.89562E-005	0.00000E+000	-3.40147E-005	-5.39641E-002	3.82424E-001	3.57340E+000	9	...........
	61	0.826667	3.77311E-001	-8.90583E-005	0.00000E+000	-3.36027E-005	-5.39641E-002	3.77358E-001	3.57340E+000	9	...........
	62	0.84	3.72271E-001	-8.89822E-005	0.00000E+000	-3.31255E-005	-5.39641E-002	3.72313E-001	3.57340E+000	9	...........
	63	0.853333	3.67247E-001	-8.90322E-005	0.00000E+000	-3.26968E-005	-5.39641E-002	3.67290E-001	3.57340E+000	9	...........
	64	0.866667	3.62228E-001	-8.88520E-005	0.00000E+000	-3.21847E-005	-5.39641E-002	3.62274E-001	3.57340E+000	9	...........
	65	0.88	3.57236E-001	-8.88676E-005	0.00000E+000	-3.17467E-005	-5.39641E-002	3.57277E-001	3.57340E+000	9	...........
	66	0.893333	3.52275E-001	-8.85582E-005	0.00000E+000	-3.11968E-005	-5.39641E-002	3.52314E-001	3.57340E+000	9	...........
	67	0.906667	3.47304E-001	-8.88676E-005	0.00000E+000	-3.08641E-005	-5.39641E-002	3.47350E-001	3.57340E+000	9	...........
	68	0.92	3.42343E-001	-8.88207E-005	0.00000E+000	-3.04072E-005	-5.39641E-002	3.42388E-001	3.57340E+000	9	...........
	69	0.933333	3.37406E-001	-8.87811E-005	0.00000E+000	-2.99553E-005	-5.39641E-002	3.37450E-001	3.57340E+000	9	...........
	70	0.946667	3.32490E-001	-8.88541E-005	0.00000E+000	-2.95431E-005	-5.39641E-002	3.32534E-001	3.57340E+000	9	...........
	71	0.96	3.27591E-001	-8.91083E-005	0.00000E+000	-2.91911E-005	-5.39641E-002	3.27631E-001	3.57340E+000	9	...........
	72	0.97333	3.22704E-001	-8.88874E-005	0.00000E+000	-2.86843E-005	-5.39641E-002	3.22742E-001	3.57340E+000	9	...........
	73	0.98667	3.17815E-001	-8.88780E-005	0.00000E+000	-2.82468E-005	-5.39641E-002	3.17856E-001	3.57340E+000	9	...........
	74	1	3.12926E-001	-8.87686E-005	0.00000E+000	-2.77780E-005	-5.39641E-002	3.12967E-001	3.57340E+000	9	...........
	75	1.01333	3.08056E-001	-8.87186E-005	0.00000E+000	-2.73303E-005	-5.39641E-002	3.08093E-001	3.57340E+000	9	...........
	76	1.02667	3.03194E-001	-8.88759E-005	0.00000E+000	-2.69466E-005	-5.39641E-002	3.03235E-001	3.57340E+000	9	...........
	77	1.04	2.98354E-001	-8.86238E-005	0.00000E+000	-2.64412E-005	-5.39641E-002	2.98385E-001	3.57340E+000	9	...........
	78	1.05333	2.93524E-001	-8.87822E-005	0.00000E+000	-2.60597E-005	-5.39641E-002	2.93557E-001	3.57290E+000	9	...........
	79	1.06667	2.88709E-001	-8.87269E-005	0.00000E+000	-2.56163E-005	-5.39641E-002	2.88741E-001	3.57290E+000	9	...........
	80	1.08	2.83928E-001	-8.88457E-005	0.00000E+000	-2.52257E-005	-5.39641E-002	2.83962E-001	3.57290E+000	9	...........
	81	1.09333	2.79164E-001	-8.88291E-005	0.00000E+000	-2.47979E-005	-5.39641E-002	2.79193E-001	3.57290E+000	9	...........
	82	1.10667	2.74424E-001	-8.85009E-005	0.00000E+000	-2.42868E-005	-5.39641E-002	2.74460E-001	3.57290E+000	9	...........
	83	1.12	2.69694E-001	-8.87634E-005	0.00000E+000	-2.39390E-005	-5.39641E-002	2.69726E-001	3.57290E+000	9	...........
	84	1.13333	2.64968E-001	-8.88291E-005	0.00000E+000	-2.35369E-005	-5.39641E-002	2.65007E-001	3.57290E+000	9	...........
	85	1.14667	2.60263E-001	-8.87655E-005	0.00000E+000	-2.31023E-005	-5.39641E-002	2.60295E-001	3.57290E+000	9	...........
	86	1.16	2.55573E-001	-8.86686E-005	0.00000E+000	-2.26613E-005	-5.39641E-002	2.55606E-001	3.57290E+000	9	...........
	87	1.17333	2.50901E-001	-8.87342E-005	0.00000E+000	-2.22635E-005	-5.39641E-002	2.50932E-001	3.57290E+000	9	...........
	88	1.18667	2.46239E-001	-8.88707E-005	0.00000E+000	-2.18835E-005	-5.39641E-002	2.46269E-001	3.57290E+000	9	...........
	89	1.2	2.41598E-001	-8.88947E-005	0.00000E+000	-2.14768E-005	-5.39641E-002	2.41626E-001	3.57290E+000	9	...........
	90	1.21333	2.36970E-001	-8.86019E-005	0.00000E+000	-2.09960E-005	-5.39641E-002	2.36998E-001	3.57290E+000	9	...........
	91	1.22667	2.32377E-001	-8.89093E-005	0.00000E+000	-2.06604E-005	-5.39641E-002	2.32403E-001	3.57290E+000	9	...........
	92	1.24	2.27793E-001	-8.90093E-005	0.00000E+000	-2.02757E-005	-5.39641E-002	2.27817E-001	3.57290E+000	9	...........
	93	1.25333	2.23211E-001	-8.86207E-005	0.00000E+000	-1.97811E-005	-5.39641E-002	2.23241E-001	3.57290E+000	9	...........
	94	1.26667	2.18657E-001	-8.87968E-005	0.00000E+000	-1.94160E-005	-5.39641E-002	2.18686E-001	3.57290E+000	9	...........
	95	1.28	2.14126E-001	-8.85915E-005	0.00000E+000	-1.89697E-005	-5.39641E-002	2.14154E-001	3.57290E+000	9	...........
	96	1.29333	2.09610E-001	-8.87103E-005	0.00000E+000	-1.85946E-005	-5.39641E-002	2.09630E-001	3.57290E+000	9	...........
	97	1.30667	2.05106E-001	-8.87155E-005	0.00000E+000	-1.81961E-005	-5.39641E-002	2.05129E-001	3.57290E+000	9	...........
	98	1.32	2.00619E-001	-8.88561E-005	0.00000E+000	-1.78262E-005	-5.39641E-002	2.00642E-001	3.57290E+000	9	...........
	99	1.33333	1.96148E-001	-8.87801E-005	0.00000E+000	-1.74140E-005	-5.39641E-002	1.96173E-001	3.57290E+000	9	...........
	100	1.34667	1.91688E-001	-8.86332E-005	0.00000E+000	-1.69899E-005	-5.39641E-002	1.91715E-001	3.57290E+000	9	...........
	101	1.36	1.87264E-001	-8.86905E-005	0.00000E+000	-1.66085E-005	-5.39641E-002	1.87282E-001	3.57290E+000	9	...........
	102	1.37333	1.82846E-001	-8.85675E-005	0.00000E+000	-1.61942E-005	-5.39641E-002	1.82868E-001	3.57290E+000	9	...........
	103	1.38667	1.78458E-001	-8.86696E-005	0.00000E+000	-1.58238E-005	-5.39641E-002	1.78482E-001	3.57290E+000	9	...........
	104	1.4	1.74097E-001	-8.86894E-005	0.00000E+000	-1.54405E-005	-5.39641E-002	1.74114E-001	3.57290E+000	9	...........
	105	1.41333	1.69748E-001	-8.88218E-005	0.00000E+000	-1.50773E-005	-5.39641E-002	1.69768E-001	3.57290E+000	9	...........
	106	1.42667	1.65420E-001	-8.87155E-005	0.00000E+000	-1.46753E-005	-5.39641E-002	1.65440E-001	3.57290E+000	9	...........
	107	1.44	1.61118E-001	-8.87072E-005	0.00000E+000	-1.42923E-005	-5.39641E-002	1.61136E-001	3.57290E+000	9	...........
	108	1.45333	1.56832E-001	-8.86988E-005	0.00000E+000	-1.39108E-005	-5.39641E-002	1.56844E-001	3.57290E+000	9	...........
	109	1.46667	1.52551E-001	-8.86363E-005	0.00000E+000	-1.35216E-005	-5.39641E-002	1.52571E-001	3.57290E+000	9	...........
	110	1.48	1.48293E-001	-8.91864E-005	0.00000E+000	-1.32257E-005	-5.39641E-002	1.48305E-001	3.57290E+000	9	...........
	111	1.49333	1.44054E-001	-8.86540E-005	0.00000E+000	-1.27709E-005	-5.39641E-002	1.44066E-001	3.57290E+000	9	...........
	112	1.50667	1.39839E-001	-8.88770E-005	0.00000E+000	-1.24285E-005	-5.39641E-002	1.39851E-001	3.57290E+000	9	...........
	113	1.52	1.35638E-001	-8.87176E-005	0.00000E+000	-1.20335E-005	-5.39641E-002	1.35653E-001	3.57290E+000	9	...........
	114	1.53333	1.31471E-001	-8.87259E-005	0.00000E+000	-1.16649E-005	-5.39641E-002	1.31485E-001	3.57290E+000	9	...........
	115	1.54667	1.27322E-001	-8.88343E-005	0.00000E+000	-1.13106E-005	-5.39641E-002	1.27334E-001	3.57290E+000	9	...........
	116	1.56	1.23177E-001	-8.88499E-005	0.00000E+000	-1.09442E-005	-5.39641E-002	1.23185E-001	3.57290E+000	9	...........
	117	1.57333	1.19040E-001	-8.89416E-005	0.00000E+000	-1.05876E-005	-5.39641E-002	1.19052E-001	3.57290E+000	9	...........
	118	1.58667	1.14925E-001	-8.89385E-005	0.00000E+000	-1.02213E-005	-5.39641E-002	1.14942E-001	3.57290E+000	9	...........
	119	1.6	1.10833E-001	-8.89916E-005	0.00000E+000	-9.86324E-006	-5.39641E-002	1.10850E-001	3.57290E+000	9	...........
	120	1.61333	1.06763E-001	-8.88041E-005	0.00000E+000	-9.48096E-006	-5.39641E-002	1.06772E-001	3.57290E+000	9	...........
	121	1.62667	1.02705E-001	-8.89635E-005	0.00000E+000	-9.13695E-006	-5.39641E-002	1.02717E-001	3.57290E+000	9	...........
	122	1.64	9.86677E-002	-8.89645E-005	0.00000E+000	-8.77792E-006	-5.39641E-002	9.86809E-002	3.57290E+000	9	...........
	123	1.65333	9.46550E-002	-8.86238E-005	0.00000E+000	-8.38869E-006	-5.39641E-002	9.46662E-002	3.57290E+000	9	...........
	124	1.66667	9.06578E-002	-8.86269E-005	0.00000E+000	-8.03472E-006	-5.39641E-002	9.06629E-002	3.57290E+000	9	...........
	125	1.68	8.66720E-002	-8.84852E-005	0.00000E+000	-7.66919E-006	-5.39641E-002	8.66773E-002	3.57290E+000	9	...........
	126	1.69333	8.27086E-002	-8.88489E-005	0.00000E+000	-7.34856E-006	-5.39641E-002	8.27144E-002	3.57290E+000	9	...........
	127	1.70667	7.87623E-002	-8.86540E-005	0.00000E+000	-6.98259E-006	-5.39641E-002	7.87643E-002	3.57290E+000	9	...........
	128	1.72	7.48464E-002	-8.90916E-005	0.00000E+000	-6.66819E-006	-5.39641E-002	7.48461E-002	3.57290E+000	9	...........
	129	1.73333	7.09346E-002	-8.87978E-005	0.00000E+000	-6.29884E-006	-5.39641E-002	7.09329E-002	3.57290E+000	9	...........
	130	1.74667	6.70471E-002	-8.86290E-005	0.00000E+000	-5.94232E-006	-5.39641E-002	6.70526E-002	3.57290E+000	9	...........
	131	1.76	6.32040E-002	-8.89134E-005	0.00000E+000	-5.61969E-006	-5.39641E-002	6.32008E-002	3.57290E+000	9	...........
	132	1.77333	5.93682E-002	-8.88353E-005	0.00000E+000	-5.27399E-006	-5.39641E-002	5.93658E-002	3.57290E+000	9	...........
	133	1.78667	5.55388E-002	-8.89020E-005	0.00000E+000	-4.93751E-006	-5.39641E-002	5.55396E-002	3.57290E+000	9	...........
	134	1.8	5.17223E-002	-8.88186E-005	0.00000E+000	-4.59390E-006	-5.39641E-002	5.17219E-002	3.57290E+000	9	...........
	135	1.81333	4.79333E-002	-8.88322E-005	0.00000E+000	-4.25802E-006	-5.39641E-002	4.79290E-002	3.57290E+000	9	...........
	136	1.82667	4.41642E-002	-8.90030E-005	0.00000E+000	-3.93075E-006	-5.39641E-002	4.41728E-002	3.57290E+000	9	...........
	137	1.84	4.04022E-002	-8.85925E-005	0.00000E+000	-3.57933E-006	-5.39641E-002	4.04030E-002	3.57290E+000	9	...........
	138	1.85333	3.66573E-002	-8.87551E-005	0.00000E+000	-3.25352E-006	-5.39641E-002	3.66591E-002	3.57290E+000	9	...........
	139	1.86667	3.29271E-002	-8.91791E-005	0.00000E+000	-2.93641E-006	-5.39641E-002	3.29285E-002	3.57290E+000	9	...........
	140	1.88	2.92187E-002	-8.87269E-005	0.00000E+000	-2.59248E-006	-5.39641E-002	2.92163E-002	3.57290E+000	9	...........
	141	1.89333	2.55330E-002	-8.90353E-005	0.00000E+000	-2.27334E-006	-5.39641E-002	2.55323E-002	3.57290E+000	9	...........
	142	1.90667	2.18697E-002	-8.88030E-005	0.00000E+000	-1.94210E-006	-5.39641E-002	2.18616E-002	3.57290E+000	9	...........
	143	1.92	1.82065E-002	-8.87749E-005	0.00000E+000	-1.61628E-006	-5.39641E-002	1.82008E-002	3.57290E+000	9	...........
	144	1.93333	1.45587E-002	-8.86717E-005	0.00000E+000	-1.29094E-006	-5.39641E-002	1.45523E-002	3.57290E+000	9	...........
	145	1.94667	1.09352E-002	-8.87520E-005	0.00000E+000	-9.70523E-007	-5.39641E-002	1.09255E-002	3.57290E+000	9	...........
	146	1.96	7.32256E-003	-8.86613E-005	0.00000E+000	-6.49228E-007	-5.39641E-002	7.31475E-003	3.57290E+000	9	...........
	147	1.97333	3.74170E-003	-8.88905E-005	0.00000E+000	-3.32602E-007	-5.39641E-002	3.72760E-003	3.57290E+000	9	...........
	148	1.98167	8.44316E-004	-8.88015E-005	0.00000E+000	-7.49766E-008	-5.39641E-002	8.27954E-004	3.57290E+000	9	...........
STARTTIMEOFFSET	QUANT	2917.284	Start Time Offset (s)
