EXPLAIN
TAG	PWR800_DISCHARGE
TITLE	LABEL	PWR Cyclic Charge Discharge (Cell) - Discharge Step	Test &Identifier
DATE	LABEL	10-7-2017	Date
TIME	LABEL	15:17:21	Time
NOTES	NOTES	3	&Notes...
	supercap test cell
	0.9mg
	6M KOH
PSTAT	PSTAT	IFC5000-01520	Potentiostat
CAPACITY	QUANT	1.00000E-003	Capacity (A-hr)
CELLTYPE	SELECTOR	1	&Cell Type
WORKINGCONNECTION	SELECTOR	0	&Working Lead
MAXDISCHARGETIME	VARIABLEANDUNITS	1.00000E+002	s	1.00000E+002	second(s)	Max &Discharge Time
DISCHARGEMODE	MULTIPARAM	0	9.00000E-005	&Discharge Mode	Constant Current	Amp(s)
SAMPLETIME	QUANT	1.00000E-002	Sa&mple Period (s)
DISCHARGESTOPAT1	MULTIPARAM	3	0.00000E+000	Discharge Stop At &1	Voltage < Limit	V
DISCHARGESTOPAT2	MULTIPARAM	0	0.00000E+000	Discharge Stop At &2	None	N/A
AESBHCSELECTOR	TOGGLE	F	Save Both Half Cells
IRCOMP	TOGGLE	F	IR &Measure
EOC	QUANT	0	Open Circuit (V)
SEQUENCER	TOGGLE	TRUE	Run as Sequence
PSTATMODEL	IQUANT	53	Pstat Model
PSTATSECTION	LABEL	IFC5000-01520	Pstat Section
PSTATSERIALNO	LABEL	01520	Pstat Serial Number
CTRLMODE	IQUANT	0	Control Mode
ELECTROMETER	IQUANT	1	RE=0 or CS=1
IESTAB	IQUANT	0	I/E Stability
CASPEED	IQUANT	4	Control Amp Speed
CONVENTION	IQUANT	1	Current Convention
ICHRANGE	IQUANT	2	Ich Range
ICHRANGEMODE	TOGGLE	T	Ich Auto Range
ICHOFFSETENABLE	TOGGLE	F	Ich Offset Enable
ICHOFFSET	QUANT	0	Ich Offset (V)
ICHFILTER	IQUANT	1	Ich Filter
VCHRANGE	IQUANT	2	Vch Range
VCHRANGEMODE	TOGGLE	T	Vch Auto Range
VCHOFFSETENABLE	TOGGLE	F	Vch Offset Enable
VCHOFFSET	QUANT	0	Vch Offset (V)
VCHFILTER	IQUANT	1	Vch Filter
IERANGELOWERLIMIT	IQUANT	9	I/E Range Lower Limit
IERANGEMODE	TOGGLE	F	I/E AutoRange
IERANGE	IQUANT	9	I/E Range
ACHSELECT	IQUANT	1	Ach Select
ACHRANGE	IQUANT	2	Ach Range
ACHOFFSETENABLE	TOGGLE	F	Ach Offset Enable
ACHOFFSET	QUANT	0	Ach Offset (V)
ACHFILTER	IQUANT	1	Ach Filter
CABLEID	IQUANT	14	Cable ID
DCCALDATE	LABEL	5-7-2017	DC Calibration Date
ACCALDATE	LABEL	12/3/2015	AC Calibration Date
FRAMEWORKVERSION	QUANT	7.01	Framework Version
INSTRUMENTVERSION	LABEL	4.00	Instrument Version
CURVE	TABLE	161
	Pt	T	Vf	Im	Vu	Pwr	Sig	Ach	Temp	IERange	Over
	#	s	V	A	V	W	V	V	deg C	#	bits
	0	0.013333	8.25944E-001	-8.86884E-005	0.00000E+000	-7.32517E-005	-5.39641E-002	8.26100E-001	3.57210E+000	9	...........
	1	0.026667	8.13523E-001	-8.87551E-005	0.00000E+000	-7.22043E-005	-5.39641E-002	8.13628E-001	3.57210E+000	9	...........
	2	0.04	8.01852E-001	-8.86644E-005	0.00000E+000	-7.10957E-005	-5.39641E-002	8.01945E-001	3.57210E+000	9	...........
	3	0.053333	7.90759E-001	-8.85832E-005	0.00000E+000	-7.00479E-005	-5.39641E-002	7.90841E-001	3.57210E+000	9	...........
	4	0.066667	7.80167E-001	-8.88249E-005	0.00000E+000	-6.92983E-005	-5.39641E-002	7.80252E-001	3.57210E+000	9	...........
	5	0.08	7.69985E-001	-8.87676E-005	0.00000E+000	-6.83497E-005	-5.39641E-002	7.70086E-001	3.57210E+000	9	...........
	6	0.093333	7.60197E-001	-8.89978E-005	0.00000E+000	-6.76559E-005	-5.39641E-002	7.60265E-001	3.57210E+000	9	...........
	7	0.106667	7.50729E-001	-8.87624E-005	0.00000E+000	-6.66365E-005	-5.39641E-002	7.50803E-001	3.57210E+000	9	...........
	8	0.12	7.41534E-001	-8.88051E-005	0.00000E+000	-6.58520E-005	-5.39641E-002	7.41644E-001	3.57210E+000	9	...........
	9	0.133333	7.32621E-001	-8.85029E-005	0.00000E+000	-6.48391E-005	-5.39641E-002	7.32723E-001	3.57210E+000	9	...........
	10	0.146667	7.23958E-001	-8.86769E-005	0.00000E+000	-6.41984E-005	-5.39641E-002	7.24040E-001	3.57210E+000	9	...........
	11	0.16	7.15466E-001	-8.86947E-005	0.00000E+000	-6.34580E-005	-5.39641E-002	7.15595E-001	3.57210E+000	9	...........
	12	0.173333	7.07242E-001	-8.85040E-005	0.00000E+000	-6.25937E-005	-5.39641E-002	7.07345E-001	3.57210E+000	9	...........
	13	0.186667	6.99177E-001	-8.88551E-005	0.00000E+000	-6.21255E-005	-5.39641E-002	6.99294E-001	3.57210E+000	9	...........
	14	0.2	6.91296E-001	-8.87061E-005	0.00000E+000	-6.13221E-005	-5.39641E-002	6.91404E-001	3.57210E+000	9	...........
	15	0.213333	6.83554E-001	-8.88957E-005	0.00000E+000	-6.07650E-005	-5.39641E-002	6.83677E-001	3.57210E+000	9	...........
	16	0.226667	6.75990E-001	-8.85290E-005	0.00000E+000	-5.98447E-005	-5.39641E-002	6.76128E-001	3.57210E+000	9	...........
	17	0.24	6.68580E-001	-8.85280E-005	0.00000E+000	-5.91880E-005	-5.39641E-002	6.68687E-001	3.57210E+000	9	...........
	18	0.253333	6.61276E-001	-8.84915E-005	0.00000E+000	-5.85173E-005	-5.39641E-002	6.61398E-001	3.57210E+000	9	...........
	19	0.266667	6.54106E-001	-8.87457E-005	0.00000E+000	-5.80491E-005	-5.39641E-002	6.54235E-001	3.57210E+000	9	...........
	20	0.28	6.47093E-001	-8.85915E-005	0.00000E+000	-5.73269E-005	-5.39641E-002	6.47211E-001	3.57210E+000	9	...........
	21	0.293333	6.40179E-001	-8.86603E-005	0.00000E+000	-5.67585E-005	-5.39641E-002	6.40293E-001	3.57210E+000	9	...........
	22	0.306667	6.33329E-001	-8.86103E-005	0.00000E+000	-5.61195E-005	-5.39641E-002	6.33451E-001	3.57210E+000	9	...........
	23	0.32	6.26634E-001	-8.88124E-005	0.00000E+000	-5.56529E-005	-5.39641E-002	6.26744E-001	3.57210E+000	9	...........
	24	0.333333	6.20018E-001	-8.87030E-005	0.00000E+000	-5.49975E-005	-5.39641E-002	6.20117E-001	3.57210E+000	9	...........
	25	0.346667	6.13458E-001	-8.85894E-005	0.00000E+000	-5.43459E-005	-5.39641E-002	6.13592E-001	3.57216E+000	9	...........
	26	0.36	6.06996E-001	-8.88551E-005	0.00000E+000	-5.39347E-005	-5.39641E-002	6.07133E-001	3.57230E+000	9	...........
	27	0.373333	6.00642E-001	-8.88082E-005	0.00000E+000	-5.33420E-005	-5.39641E-002	6.00768E-001	3.57230E+000	9	...........
	28	0.386667	5.94354E-001	-8.87290E-005	0.00000E+000	-5.27364E-005	-5.39641E-002	5.94492E-001	3.57230E+000	9	...........
	29	0.4	5.88130E-001	-8.84748E-005	0.00000E+000	-5.20347E-005	-5.39641E-002	5.88280E-001	3.57230E+000	9	...........
	30	0.413333	5.81985E-001	-8.87290E-005	0.00000E+000	-5.16390E-005	-5.39641E-002	5.82103E-001	3.57230E+000	9	...........
	31	0.426667	5.75917E-001	-8.87301E-005	0.00000E+000	-5.11011E-005	-5.39641E-002	5.76037E-001	3.57230E+000	9	...........
	32	0.44	5.69918E-001	-8.84832E-005	0.00000E+000	-5.04282E-005	-5.39641E-002	5.70017E-001	3.57230E+000	9	...........
	33	0.453333	5.63956E-001	-8.86884E-005	0.00000E+000	-5.00164E-005	-5.39641E-002	5.64090E-001	3.57230E+000	9	...........
	34	0.466667	5.58051E-001	-8.87645E-005	0.00000E+000	-4.95351E-005	-5.39641E-002	5.58137E-001	3.57230E+000	9	...........
	35	0.48	5.52203E-001	-8.86009E-005	0.00000E+000	-4.89257E-005	-5.39641E-002	5.52304E-001	3.57230E+000	9	...........
	36	0.493333	5.46386E-001	-8.86717E-005	0.00000E+000	-4.84490E-005	-5.39641E-002	5.46474E-001	3.57230E+000	9	...........
	37	0.506667	5.40635E-001	-8.88572E-005	0.00000E+000	-4.80393E-005	-5.39641E-002	5.40735E-001	3.57230E+000	9	...........
	38	0.52	5.34898E-001	-8.86728E-005	0.00000E+000	-4.74309E-005	-5.39641E-002	5.34977E-001	3.57230E+000	9	...........
	39	0.533333	5.29238E-001	-8.87051E-005	0.00000E+000	-4.69461E-005	-5.39641E-002	5.29317E-001	3.57230E+000	9	...........
	40	0.546667	5.23620E-001	-8.89312E-005	0.00000E+000	-4.65661E-005	-5.39641E-002	5.23661E-001	3.57230E+000	9	...........
	41	0.56	5.18008E-001	-8.87822E-005	0.00000E+000	-4.59899E-005	-5.39641E-002	5.18066E-001	3.57230E+000	9	...........
	42	0.573333	5.12442E-001	-8.87790E-005	0.00000E+000	-4.54941E-005	-5.39641E-002	5.12511E-001	3.57230E+000	9	...........
	43	0.586667	5.06845E-001	-8.90395E-005	0.00000E+000	-4.51292E-005	-5.39641E-002	5.06989E-001	3.57230E+000	9	...........
	44	0.6	5.01384E-001	-8.88999E-005	0.00000E+000	-4.45730E-005	-5.39641E-002	5.01486E-001	3.57230E+000	9	...........
	45	0.613333	4.95910E-001	-8.87301E-005	0.00000E+000	-4.40021E-005	-5.39641E-002	4.96034E-001	3.57230E+000	9	...........
	46	0.626667	4.90518E-001	-8.86634E-005	0.00000E+000	-4.34910E-005	-5.39641E-002	4.90619E-001	3.57230E+000	9	...........
	47	0.64	4.85178E-001	-8.88436E-005	0.00000E+000	-4.31050E-005	-5.39641E-002	4.85235E-001	3.57230E+000	9	...........
	48	0.653333	4.79822E-001	-8.86040E-005	0.00000E+000	-4.25141E-005	-5.39641E-002	4.79877E-001	3.57230E+000	9	...........
	49	0.666667	4.74462E-001	-8.86363E-005	0.00000E+000	-4.20546E-005	-5.39641E-002	4.74518E-001	3.57230E+000	9	...........
	50	0.68	4.69129E-001	-8.87749E-005	0.00000E+000	-4.16469E-005	-5.39641E-002	4.69188E-001	3.57230E+000	9	...........
	51	0.693333	4.63824E-001	-8.89676E-005	0.00000E+000	-4.12653E-005	-5.39641E-002	4.63874E-001	3.57230E+000	9	...........
	52	0.706667	4.58543E-001	-8.85040E-005	0.00000E+000	-4.05829E-005	-5.39641E-002	4.58599E-001	3.57230E+000	9	...........
	53	0.72	4.53272E-001	-8.86613E-005	0.00000E+000	-4.01877E-005	-5.39641E-002	4.53329E-001	3.57230E+000	9	...........
	54	0.733333	4.48027E-001	-8.88541E-005	0.00000E+000	-3.98090E-005	-5.39641E-002	4.48081E-001	3.57230E+000	9	...........
	55	0.746667	4.42798E-001	-8.88832E-005	0.00000E+000	-3.93573E-005	-5.39641E-002	4.42856E-001	3.57230E+000	9	...........
	56	0.76	4.37601E-001	-8.87801E-005	0.00000E+000	-3.88503E-005	-5.39641E-002	4.37655E-001	3.57230E+000	9	...........
	57	0.773333	4.32409E-001	-8.87311E-005	0.00000E+000	-3.83681E-005	-5.39641E-002	4.32453E-001	3.57230E+000	9	...........
	58	0.786667	4.27223E-001	-8.88093E-005	0.00000E+000	-3.79413E-005	-5.39641E-002	4.27270E-001	3.57230E+000	9	...........
	59	0.8	4.22059E-001	-8.86571E-005	0.00000E+000	-3.74186E-005	-5.39641E-002	4.22105E-001	3.57230E+000	9	...........
	60	0.813333	4.16931E-001	-8.85061E-005	0.00000E+000	-3.69009E-005	-5.39641E-002	4.16979E-001	3.57230E+000	9	...........
	61	0.826667	4.11831E-001	-8.87061E-005	0.00000E+000	-3.65319E-005	-5.39641E-002	4.11881E-001	3.57230E+000	9	...........
	62	0.84	4.06729E-001	-8.88801E-005	0.00000E+000	-3.61502E-005	-5.39641E-002	4.06776E-001	3.57230E+000	9	...........
	63	0.853333	4.01658E-001	-8.88186E-005	0.00000E+000	-3.56747E-005	-5.39641E-002	4.01699E-001	3.57230E+000	9	...........
	64	0.866667	3.96607E-001	-8.89958E-005	0.00000E+000	-3.52963E-005	-5.39641E-002	3.96649E-001	3.57230E+000	9	...........
	65	0.88	3.91570E-001	-8.89124E-005	0.00000E+000	-3.48154E-005	-5.39641E-002	3.91609E-001	3.57230E+000	9	...........
	66	0.893333	3.86540E-001	-8.87176E-005	0.00000E+000	-3.42929E-005	-5.39641E-002	3.86584E-001	3.57230E+000	9	...........
	67	0.906667	3.81547E-001	-8.89020E-005	0.00000E+000	-3.39203E-005	-5.39641E-002	3.81585E-001	3.57230E+000	9	...........
	68	0.92	3.76570E-001	-8.85853E-005	0.00000E+000	-3.33585E-005	-5.39641E-002	3.76615E-001	3.57230E+000	9	...........
	69	0.933333	3.71624E-001	-8.85946E-005	0.00000E+000	-3.29239E-005	-5.39641E-002	3.71664E-001	3.57230E+000	9	...........
	70	0.946667	3.66682E-001	-8.89166E-005	0.00000E+000	-3.26041E-005	-5.39641E-002	3.66722E-001	3.57230E+000	9	...........
	71	0.96	3.61754E-001	-8.87134E-005	0.00000E+000	-3.20924E-005	-5.39641E-002	3.61790E-001	3.57230E+000	9	...........
	72	0.97333	3.56853E-001	-8.89187E-005	0.00000E+000	-3.17309E-005	-5.39641E-002	3.56894E-001	3.57230E+000	9	...........
	73	0.98667	3.51961E-001	-8.87686E-005	0.00000E+000	-3.12431E-005	-5.39641E-002	3.51997E-001	3.57230E+000	9	...........
	74	1	3.47080E-001	-8.87926E-005	0.00000E+000	-3.08181E-005	-5.39641E-002	3.47113E-001	3.57230E+000	9	...........
	75	1.01333	3.42236E-001	-8.88322E-005	0.00000E+000	-3.04015E-005	-5.39641E-002	3.42272E-001	3.57230E+000	9	...........
	76	1.02667	3.37425E-001	-8.89322E-005	0.00000E+000	-3.00079E-005	-5.39641E-002	3.37454E-001	3.57230E+000	9	...........
	77	1.04	3.32608E-001	-8.87342E-005	0.00000E+000	-2.95137E-005	-5.39641E-002	3.32640E-001	3.57230E+000	9	...........
	78	1.05333	3.27795E-001	-8.86259E-005	0.00000E+000	-2.90511E-005	-5.39641E-002	3.27826E-001	3.57230E+000	9	...........
	79	1.06667	3.23005E-001	-8.86780E-005	0.00000E+000	-2.86435E-005	-5.39641E-002	3.23036E-001	3.57230E+000	9	...........
	80	1.08	3.18240E-001	-8.86269E-005	0.00000E+000	-2.82046E-005	-5.39641E-002	3.18278E-001	3.57230E+000	9	...........
	81	1.09333	3.13506E-001	-8.87728E-005	0.00000E+000	-2.78308E-005	-5.39641E-002	3.13544E-001	3.57230E+000	9	...........
	82	1.10667	3.08796E-001	-8.86311E-005	0.00000E+000	-2.73689E-005	-5.39641E-002	3.08830E-001	3.57230E+000	9	...........
	83	1.12	3.04100E-001	-8.87561E-005	0.00000E+000	-2.69907E-005	-5.39641E-002	3.04135E-001	3.57230E+000	9	...........
	84	1.13333	2.99425E-001	-8.86822E-005	0.00000E+000	-2.65536E-005	-5.39641E-002	2.99455E-001	3.57230E+000	9	...........
	85	1.14667	2.94790E-001	-8.85165E-005	0.00000E+000	-2.60938E-005	-5.39641E-002	2.94820E-001	3.57230E+000	9	...........
	86	1.16	2.90180E-001	-8.86728E-005	0.00000E+000	-2.57311E-005	-5.39641E-002	2.90208E-001	3.57230E+000	9	...........
	87	1.17333	2.85580E-001	-8.85894E-005	0.00000E+000	-2.52994E-005	-5.39641E-002	2.85610E-001	3.57230E+000	9	...........
	88	1.18667	2.80999E-001	-8.86874E-005	0.00000E+000	-2.49210E-005	-5.39641E-002	2.81028E-001	3.57230E+000	9	...........
	89	1.2	2.76437E-001	-8.87415E-005	0.00000E+000	-2.45314E-005	-5.39641E-002	2.76469E-001	3.57230E+000	9	...........
	90	1.21333	2.71902E-001	-8.87582E-005	0.00000E+000	-2.41336E-005	-5.39641E-002	2.71933E-001	3.57230E+000	9	...........
	91	1.22667	2.67394E-001	-8.87978E-005	0.00000E+000	-2.37440E-005	-5.39641E-002	2.67419E-001	3.57230E+000	9	...........
	92	1.24	2.62905E-001	-8.85780E-005	0.00000E+000	-2.32875E-005	-5.39641E-002	2.62939E-001	3.57230E+000	9	...........
	93	1.25333	2.58453E-001	-8.86759E-005	0.00000E+000	-2.29185E-005	-5.39641E-002	2.58483E-001	3.57230E+000	9	...........
	94	1.26667	2.54023E-001	-8.86936E-005	0.00000E+000	-2.25302E-005	-5.39641E-002	2.54047E-001	3.57230E+000	9	...........
	95	1.28	2.49601E-001	-8.89416E-005	0.00000E+000	-2.21999E-005	-5.39641E-002	2.49628E-001	3.57230E+000	9	...........
	96	1.29333	2.45191E-001	-8.84904E-005	0.00000E+000	-2.16970E-005	-5.39641E-002	2.45216E-001	3.57230E+000	9	...........
	97	1.30667	2.40790E-001	-8.88666E-005	0.00000E+000	-2.13982E-005	-5.39641E-002	2.40815E-001	3.57230E+000	9	...........
	98	1.32	2.36405E-001	-8.87853E-005	0.00000E+000	-2.09893E-005	-5.39641E-002	2.36426E-001	3.57230E+000	9	...........
	99	1.33333	2.32040E-001	-8.86936E-005	0.00000E+000	-2.05804E-005	-5.39641E-002	2.32064E-001	3.57230E+000	9	...........
	100	1.34667	2.27710E-001	-8.86582E-005	0.00000E+000	-2.01883E-005	-5.39641E-002	2.27727E-001	3.57242E+000	9	...........
	101	1.36	2.23386E-001	-8.86269E-005	0.00000E+000	-1.97980E-005	-5.39641E-002	2.23403E-001	3.57270E+000	9	...........
	102	1.37333	2.19090E-001	-8.85915E-005	0.00000E+000	-1.94095E-005	-5.39641E-002	2.19108E-001	3.57270E+000	9	...........
	103	1.38667	2.14813E-001	-8.87301E-005	0.00000E+000	-1.90604E-005	-5.39641E-002	2.14837E-001	3.57270E+000	9	...........
	104	1.4	2.10528E-001	-8.87228E-005	0.00000E+000	-1.86786E-005	-5.39641E-002	2.10545E-001	3.57270E+000	9	...........
	105	1.41333	2.06254E-001	-8.87853E-005	0.00000E+000	-1.83123E-005	-5.39641E-002	2.06274E-001	3.57270E+000	9	...........
	106	1.42667	2.02032E-001	-8.85405E-005	0.00000E+000	-1.78880E-005	-5.39641E-002	2.02052E-001	3.57270E+000	9	...........
	107	1.44	1.97835E-001	-8.87374E-005	0.00000E+000	-1.75553E-005	-5.39641E-002	1.97854E-001	3.57270E+000	9	...........
	108	1.45333	1.93663E-001	-8.85727E-005	0.00000E+000	-1.71532E-005	-5.39641E-002	1.93685E-001	3.57270E+000	9	...........
	109	1.46667	1.89512E-001	-8.88530E-005	0.00000E+000	-1.68388E-005	-5.39641E-002	1.89534E-001	3.57270E+000	9	...........
	110	1.48	1.85374E-001	-8.88541E-005	0.00000E+000	-1.64712E-005	-5.39641E-002	1.85392E-001	3.57270E+000	9	...........
	111	1.49333	1.81260E-001	-8.87353E-005	0.00000E+000	-1.60842E-005	-5.39641E-002	1.81285E-001	3.57270E+000	9	...........
	112	1.50667	1.77154E-001	-8.86978E-005	0.00000E+000	-1.57132E-005	-5.39641E-002	1.77172E-001	3.57270E+000	9	...........
	113	1.52	1.73054E-001	-8.86696E-005	0.00000E+000	-1.53446E-005	-5.39641E-002	1.73077E-001	3.57270E+000	9	...........
	114	1.53333	1.68986E-001	-8.86894E-005	0.00000E+000	-1.49873E-005	-5.39641E-002	1.69005E-001	3.57270E+000	9	...........
	115	1.54667	1.64942E-001	-8.87718E-005	0.00000E+000	-1.46422E-005	-5.39641E-002	1.64962E-001	3.57270E+000	9	...........
	116	1.56	1.60908E-001	-8.86957E-005	0.00000E+000	-1.42719E-005	-5.39641E-002	1.60922E-001	3.57270E+000	9	...........
	117	1.57333	1.56903E-001	-8.88718E-005	0.00000E+000	-1.39442E-005	-5.39641E-002	1.56920E-001	3.57270E+000	9	...........
	118	1.58667	1.52902E-001	-8.88228E-005	0.00000E+000	-1.35812E-005	-5.39641E-002	1.52916E-001	3.57270E+000	9	...........
	119	1.6	1.48925E-001	-8.90333E-005	0.00000E+000	-1.32592E-005	-5.39641E-002	1.48936E-001	3.57270E+000	9	...........
	120	1.61333	1.44969E-001	-8.88686E-005	0.00000E+000	-1.28832E-005	-5.39641E-002	1.44975E-001	3.57270E+000	9	...........
	121	1.62667	1.41017E-001	-8.87936E-005	0.00000E+000	-1.25214E-005	-5.39641E-002	1.41034E-001	3.57270E+000	9	...........
	122	1.64	1.37091E-001	-8.89041E-005	0.00000E+000	-1.21880E-005	-5.39641E-002	1.37101E-001	3.57270E+000	9	...........
	123	1.65333	1.33181E-001	-8.86571E-005	0.00000E+000	-1.18074E-005	-5.39641E-002	1.33191E-001	3.57270E+000	9	...........
	124	1.66667	1.29284E-001	-8.88041E-005	0.00000E+000	-1.14809E-005	-5.39641E-002	1.29296E-001	3.57270E+000	9	...........
	125	1.68	1.25389E-001	-8.85946E-005	0.00000E+000	-1.11088E-005	-5.39641E-002	1.25392E-001	3.57270E+000	9	...........
	126	1.69333	1.21500E-001	-8.88270E-005	0.00000E+000	-1.07925E-005	-5.39641E-002	1.21512E-001	3.57270E+000	9	...........
	127	1.70667	1.17646E-001	-8.90228E-005	0.00000E+000	-1.04732E-005	-5.39641E-002	1.17655E-001	3.57270E+000	9	...........
	128	1.72	1.13798E-001	-8.86582E-005	0.00000E+000	-1.00891E-005	-5.39641E-002	1.13808E-001	3.57270E+000	9	...........
	129	1.73333	1.09963E-001	-8.86561E-005	0.00000E+000	-9.74890E-006	-5.39641E-002	1.09968E-001	3.57270E+000	9	...........
	130	1.74667	1.06147E-001	-8.87019E-005	0.00000E+000	-9.41542E-006	-5.39641E-002	1.06153E-001	3.57270E+000	9	...........
	131	1.76	1.02349E-001	-8.87249E-005	0.00000E+000	-9.08093E-006	-5.39641E-002	1.02357E-001	3.57270E+000	9	...........
	132	1.77333	9.85828E-002	-8.87249E-005	0.00000E+000	-8.74674E-006	-5.39641E-002	9.85881E-002	3.57270E+000	9	...........
	133	1.78667	9.48292E-002	-8.88489E-005	0.00000E+000	-8.42547E-006	-5.39641E-002	9.48279E-002	3.57270E+000	9	...........
	134	1.8	9.10631E-002	-8.86082E-005	0.00000E+000	-8.06893E-006	-5.39641E-002	9.10691E-002	3.57270E+000	9	...........
	135	1.81333	8.73246E-002	-8.89583E-005	0.00000E+000	-7.76824E-006	-5.39641E-002	8.73236E-002	3.57270E+000	9	...........
	136	1.82667	8.35729E-002	-8.85832E-005	0.00000E+000	-7.40315E-006	-5.39641E-002	8.35780E-002	3.57270E+000	9	...........
	137	1.84	7.98613E-002	-8.88134E-005	0.00000E+000	-7.09275E-006	-5.39641E-002	7.98574E-002	3.57270E+000	9	...........
	138	1.85333	7.61558E-002	-8.86228E-005	0.00000E+000	-6.74914E-006	-5.39641E-002	7.61570E-002	3.57270E+000	9	...........
	139	1.86667	7.24694E-002	-8.86290E-005	0.00000E+000	-6.42289E-006	-5.39641E-002	7.24697E-002	3.57270E+000	9	...........
	140	1.88	6.87887E-002	-8.89280E-005	0.00000E+000	-6.11724E-006	-5.39641E-002	6.87836E-002	3.57270E+000	9	...........
	141	1.89333	6.51326E-002	-8.88666E-005	0.00000E+000	-5.78811E-006	-5.39641E-002	6.51314E-002	3.57270E+000	9	...........
	142	1.90667	6.14844E-002	-8.86822E-005	0.00000E+000	-5.45257E-006	-5.39641E-002	6.14767E-002	3.57270E+000	9	...........
	143	1.92	5.78636E-002	-8.89603E-005	0.00000E+000	-5.14756E-006	-5.39641E-002	5.78630E-002	3.57270E+000	9	...........
	144	1.93333	5.42559E-002	-8.86551E-005	0.00000E+000	-4.81006E-006	-5.39641E-002	5.42469E-002	3.57270E+000	9	...........
	145	1.94667	5.06466E-002	-8.83290E-005	0.00000E+000	-4.47356E-006	-5.39641E-002	5.06423E-002	3.57270E+000	9	...........
	146	1.96	4.70552E-002	-8.86863E-005	0.00000E+000	-4.17315E-006	-5.39641E-002	4.70618E-002	3.57270E+000	9	...........
	147	1.97333	4.34911E-002	-8.87301E-005	0.00000E+000	-3.85897E-006	-5.39641E-002	4.35004E-002	3.57270E+000	9	...........
	148	1.98667	3.99531E-002	-8.88238E-005	0.00000E+000	-3.54879E-006	-5.39641E-002	3.99535E-002	3.57270E+000	9	...........
	149	2	3.64302E-002	-8.87832E-005	0.00000E+000	-3.23439E-006	-5.39641E-002	3.64339E-002	3.57270E+000	9	...........
	150	2.01333	3.29213E-002	-8.85227E-005	0.00000E+000	-2.91429E-006	-5.39641E-002	3.29239E-002	3.57270E+000	9	...........
	151	2.02667	2.94259E-002	-8.87103E-005	0.00000E+000	-2.61038E-006	-5.39641E-002	2.94244E-002	3.57270E+000	9	...........
	152	2.04	2.59603E-002	-8.87728E-005	0.00000E+000	-2.30457E-006	-5.39641E-002	2.59600E-002	3.57270E+000	9	...........
	153	2.05333	2.25121E-002	-8.86842E-005	0.00000E+000	-1.99647E-006	-5.39641E-002	2.25071E-002	3.57270E+000	9	...........
	154	2.06667	1.90800E-002	-8.85915E-005	0.00000E+000	-1.69032E-006	-5.39641E-002	1.90749E-002	3.57270E+000	9	...........
	155	2.08	1.56721E-002	-8.87155E-005	0.00000E+000	-1.39036E-006	-5.39641E-002	1.56630E-002	3.57270E+000	9	...........
	156	2.09333	1.22664E-002	-8.87238E-005	0.00000E+000	-1.08832E-006	-5.39641E-002	1.22584E-002	3.57270E+000	9	...........
	157	2.10667	8.87365E-003	-8.85582E-005	0.00000E+000	-7.85834E-007	-5.39641E-002	8.86671E-003	3.57270E+000	9	...........
	158	2.12	5.48088E-003	-8.85780E-005	0.00000E+000	-4.85485E-007	-5.39641E-002	5.46975E-003	3.57270E+000	9	...........
	159	2.13333	2.10066E-003	-8.86217E-005	0.00000E+000	-1.86164E-007	-5.39641E-002	2.08353E-003	3.57270E+000	9	...........
	160	2.13667	-3.03772E-006	-8.84832E-005	0.00000E+000	2.68787E-010	-5.39641E-002	-1.68126E-005	3.57270E+000	9	...........
STARTTIMEOFFSET	QUANT	919.5613	Start Time Offset (s)
