EXPLAIN
TAG	PWR800_DISCHARGE
TITLE	LABEL	PWR Cyclic Charge Discharge (Cell) - Discharge Step	Test &Identifier
DATE	LABEL	10-7-2017	Date
TIME	LABEL	15:41:37	Time
NOTES	NOTES	3	&Notes...
	supercap test cell
	0.9mg
	6M KOH
PSTAT	PSTAT	IFC5000-01520	Potentiostat
CAPACITY	QUANT	1.00000E-003	Capacity (A-hr)
CELLTYPE	SELECTOR	1	&Cell Type
WORKINGCONNECTION	SELECTOR	0	&Working Lead
MAXDISCHARGETIME	VARIABLEANDUNITS	1.00000E+002	s	1.00000E+002	second(s)	Max &Discharge Time
DISCHARGEMODE	MULTIPARAM	0	9.00000E-005	&Discharge Mode	Constant Current	Amp(s)
SAMPLETIME	QUANT	1.00000E-002	Sa&mple Period (s)
DISCHARGESTOPAT1	MULTIPARAM	3	0.00000E+000	Discharge Stop At &1	Voltage < Limit	V
DISCHARGESTOPAT2	MULTIPARAM	0	0.00000E+000	Discharge Stop At &2	None	N/A
AESBHCSELECTOR	TOGGLE	F	Save Both Half Cells
IRCOMP	TOGGLE	F	IR &Measure
EOC	QUANT	0	Open Circuit (V)
SEQUENCER	TOGGLE	TRUE	Run as Sequence
PSTATMODEL	IQUANT	53	Pstat Model
PSTATSECTION	LABEL	IFC5000-01520	Pstat Section
PSTATSERIALNO	LABEL	01520	Pstat Serial Number
CTRLMODE	IQUANT	0	Control Mode
ELECTROMETER	IQUANT	1	RE=0 or CS=1
IESTAB	IQUANT	0	I/E Stability
CASPEED	IQUANT	4	Control Amp Speed
CONVENTION	IQUANT	1	Current Convention
ICHRANGE	IQUANT	2	Ich Range
ICHRANGEMODE	TOGGLE	T	Ich Auto Range
ICHOFFSETENABLE	TOGGLE	F	Ich Offset Enable
ICHOFFSET	QUANT	0	Ich Offset (V)
ICHFILTER	IQUANT	1	Ich Filter
VCHRANGE	IQUANT	2	Vch Range
VCHRANGEMODE	TOGGLE	T	Vch Auto Range
VCHOFFSETENABLE	TOGGLE	F	Vch Offset Enable
VCHOFFSET	QUANT	0	Vch Offset (V)
VCHFILTER	IQUANT	1	Vch Filter
IERANGELOWERLIMIT	IQUANT	9	I/E Range Lower Limit
IERANGEMODE	TOGGLE	F	I/E AutoRange
IERANGE	IQUANT	9	I/E Range
ACHSELECT	IQUANT	1	Ach Select
ACHRANGE	IQUANT	2	Ach Range
ACHOFFSETENABLE	TOGGLE	F	Ach Offset Enable
ACHOFFSET	QUANT	0	Ach Offset (V)
ACHFILTER	IQUANT	1	Ach Filter
CABLEID	IQUANT	14	Cable ID
DCCALDATE	LABEL	5-7-2017	DC Calibration Date
ACCALDATE	LABEL	12/3/2015	AC Calibration Date
FRAMEWORKVERSION	QUANT	7.01	Framework Version
INSTRUMENTVERSION	LABEL	4.00	Instrument Version
CURVE	TABLE	153
	Pt	T	Vf	Im	Vu	Pwr	Sig	Ach	Temp	IERange	Over
	#	s	V	A	V	W	V	V	deg C	#	bits
	0	0.013333	8.11463E-001	-8.89114E-005	0.00000E+000	-7.21482E-005	-5.39641E-002	8.11608E-001	3.57260E+000	9	...........
	1	0.026667	7.98016E-001	-8.86634E-005	0.00000E+000	-7.07548E-005	-5.39641E-002	7.98149E-001	3.57260E+000	9	...........
	2	0.04	7.85397E-001	-8.87520E-005	0.00000E+000	-6.97055E-005	-5.39641E-002	7.85511E-001	3.57260E+000	9	...........
	3	0.053333	7.73512E-001	-8.87842E-005	0.00000E+000	-6.86757E-005	-5.39641E-002	7.73632E-001	3.57260E+000	9	...........
	4	0.066667	7.62186E-001	-8.87030E-005	0.00000E+000	-6.76081E-005	-5.39641E-002	7.62274E-001	3.57260E+000	9	...........
	5	0.08	7.51344E-001	-8.88426E-005	0.00000E+000	-6.67514E-005	-5.39641E-002	7.51460E-001	3.57260E+000	9	...........
	6	0.093333	7.40916E-001	-8.87728E-005	0.00000E+000	-6.57732E-005	-5.39641E-002	7.41044E-001	3.57260E+000	9	...........
	7	0.106667	7.30895E-001	-8.88561E-005	0.00000E+000	-6.49445E-005	-5.39641E-002	7.31001E-001	3.57260E+000	9	...........
	8	0.12	7.21222E-001	-8.87113E-005	0.00000E+000	-6.39805E-005	-5.39641E-002	7.21315E-001	3.57260E+000	9	...........
	9	0.133333	7.11794E-001	-8.85561E-005	0.00000E+000	-6.30337E-005	-5.39641E-002	7.11921E-001	3.57260E+000	9	...........
	10	0.146667	7.02711E-001	-8.87092E-005	0.00000E+000	-6.23370E-005	-5.39641E-002	7.02828E-001	3.57260E+000	9	...........
	11	0.16	6.93874E-001	-8.87832E-005	0.00000E+000	-6.16044E-005	-5.39641E-002	6.93998E-001	3.57260E+000	9	...........
	12	0.173333	6.85266E-001	-8.86436E-005	0.00000E+000	-6.07444E-005	-5.39641E-002	6.85378E-001	3.57260E+000	9	...........
	13	0.186667	6.76877E-001	-8.90572E-005	0.00000E+000	-6.02808E-005	-5.39641E-002	6.77017E-001	3.57260E+000	9	...........
	14	0.2	6.68711E-001	-8.83748E-005	0.00000E+000	-5.90972E-005	-5.39641E-002	6.68839E-001	3.57260E+000	9	...........
	15	0.213333	6.60709E-001	-8.88280E-005	0.00000E+000	-5.86895E-005	-5.39641E-002	6.60859E-001	3.57260E+000	9	...........
	16	0.226667	6.52916E-001	-8.87999E-005	0.00000E+000	-5.79789E-005	-5.39641E-002	6.53029E-001	3.57260E+000	9	...........
	17	0.24	6.45257E-001	-8.86050E-005	0.00000E+000	-5.71731E-005	-5.39641E-002	6.45389E-001	3.57260E+000	9	...........
	18	0.253333	6.37726E-001	-8.85436E-005	0.00000E+000	-5.64665E-005	-5.39641E-002	6.37874E-001	3.57260E+000	9	...........
	19	0.266667	6.30389E-001	-8.85623E-005	0.00000E+000	-5.58288E-005	-5.39641E-002	6.30506E-001	3.57260E+000	9	...........
	20	0.28	6.23195E-001	-8.86603E-005	0.00000E+000	-5.52527E-005	-5.39641E-002	6.23299E-001	3.57260E+000	9	...........
	21	0.293333	6.16084E-001	-8.87822E-005	0.00000E+000	-5.46973E-005	-5.39641E-002	6.16236E-001	3.57260E+000	9	...........
	22	0.306667	6.09090E-001	-8.87290E-005	0.00000E+000	-5.40440E-005	-5.39641E-002	6.09247E-001	3.57260E+000	9	...........
	23	0.32	6.02228E-001	-8.88030E-005	0.00000E+000	-5.34796E-005	-5.39641E-002	6.02405E-001	3.57260E+000	9	...........
	24	0.333333	5.95510E-001	-8.88499E-005	0.00000E+000	-5.29110E-005	-5.39641E-002	5.95640E-001	3.57260E+000	9	...........
	25	0.346667	5.88864E-001	-8.88468E-005	0.00000E+000	-5.23187E-005	-5.39641E-002	5.89013E-001	3.57260E+000	9	...........
	26	0.36	5.82307E-001	-8.86405E-005	0.00000E+000	-5.16159E-005	-5.39641E-002	5.82447E-001	3.57260E+000	9	...........
	27	0.373333	5.75879E-001	-8.88395E-005	0.00000E+000	-5.11608E-005	-5.39641E-002	5.76010E-001	3.57260E+000	9	...........
	28	0.386667	5.69526E-001	-8.88082E-005	0.00000E+000	-5.05786E-005	-5.39641E-002	5.69650E-001	3.57260E+000	9	...........
	29	0.4	5.63210E-001	-8.88363E-005	0.00000E+000	-5.00335E-005	-5.39641E-002	5.63357E-001	3.57260E+000	9	...........
	30	0.413333	5.56971E-001	-8.86686E-005	0.00000E+000	-4.93858E-005	-5.39641E-002	5.57132E-001	3.57260E+000	9	...........
	31	0.426667	5.50862E-001	-8.88436E-005	0.00000E+000	-4.89406E-005	-5.39641E-002	5.51009E-001	3.57260E+000	9	...........
	32	0.44	5.44810E-001	-8.86509E-005	0.00000E+000	-4.82979E-005	-5.39641E-002	5.44942E-001	3.57260E+000	9	...........
	33	0.453333	5.38787E-001	-8.86769E-005	0.00000E+000	-4.77780E-005	-5.39641E-002	5.38926E-001	3.57260E+000	9	...........
	34	0.466667	5.32843E-001	-8.88697E-005	0.00000E+000	-4.73536E-005	-5.39641E-002	5.32950E-001	3.57260E+000	9	...........
	35	0.48	5.26951E-001	-8.89062E-005	0.00000E+000	-4.68492E-005	-5.39641E-002	5.27067E-001	3.57260E+000	9	...........
	36	0.493333	5.21120E-001	-8.88770E-005	0.00000E+000	-4.63156E-005	-5.39641E-002	5.21227E-001	3.57260E+000	9	...........
	37	0.506667	5.15364E-001	-8.89416E-005	0.00000E+000	-4.58373E-005	-5.39641E-002	5.15470E-001	3.57260E+000	9	...........
	38	0.52	5.09602E-001	-8.90239E-005	0.00000E+000	-4.53668E-005	-5.39641E-002	5.09716E-001	3.57260E+000	9	...........
	39	0.533333	5.03923E-001	-8.88322E-005	0.00000E+000	-4.47646E-005	-5.39641E-002	5.04049E-001	3.57260E+000	9	...........
	40	0.546667	4.98299E-001	-8.87770E-005	0.00000E+000	-4.42375E-005	-5.39641E-002	4.98411E-001	3.57260E+000	9	...........
	41	0.56	4.92742E-001	-8.90239E-005	0.00000E+000	-4.38658E-005	-5.39641E-002	4.92826E-001	3.57260E+000	9	...........
	42	0.573333	4.87207E-001	-8.89468E-005	0.00000E+000	-4.33355E-005	-5.39641E-002	4.87279E-001	3.57260E+000	9	...........
	43	0.586667	4.81770E-001	-8.88416E-005	0.00000E+000	-4.28012E-005	-5.39641E-002	4.81843E-001	3.57260E+000	9	...........
	44	0.6	4.76305E-001	-8.88739E-005	0.00000E+000	-4.23311E-005	-5.39641E-002	4.76373E-001	3.57260E+000	9	...........
	45	0.613333	4.70862E-001	-8.88134E-005	0.00000E+000	-4.18188E-005	-5.39641E-002	4.70934E-001	3.57260E+000	9	...........
	46	0.626667	4.65453E-001	-8.85707E-005	0.00000E+000	-4.12255E-005	-5.39641E-002	4.65517E-001	3.57260E+000	9	...........
	47	0.64	4.60074E-001	-8.89510E-005	0.00000E+000	-4.09240E-005	-5.39641E-002	4.60143E-001	3.57260E+000	9	...........
	48	0.653333	4.54735E-001	-8.87520E-005	0.00000E+000	-4.03586E-005	-5.39641E-002	4.54801E-001	3.57260E+000	9	...........
	49	0.666667	4.49430E-001	-8.87613E-005	0.00000E+000	-3.98920E-005	-5.39641E-002	4.49491E-001	3.57260E+000	9	...........
	50	0.68	4.44140E-001	-8.90718E-005	0.00000E+000	-3.95603E-005	-5.39641E-002	4.44205E-001	3.57260E+000	9	...........
	51	0.693333	4.38881E-001	-8.87655E-005	0.00000E+000	-3.89574E-005	-5.39641E-002	4.38940E-001	3.57260E+000	9	...........
	52	0.706667	4.33648E-001	-8.86686E-005	0.00000E+000	-3.84510E-005	-5.39641E-002	4.33706E-001	3.57260E+000	9	...........
	53	0.72	4.28434E-001	-8.87019E-005	0.00000E+000	-3.80029E-005	-5.39641E-002	4.28493E-001	3.57325E+000	9	...........
	54	0.733333	4.23219E-001	-8.87603E-005	0.00000E+000	-3.75650E-005	-5.39641E-002	4.23282E-001	3.57390E+000	9	...........
	55	0.746667	4.18040E-001	-8.87582E-005	0.00000E+000	-3.71044E-005	-5.39641E-002	4.18098E-001	3.57390E+000	9	...........
	56	0.76	4.12901E-001	-8.87561E-005	0.00000E+000	-3.66475E-005	-5.39641E-002	4.12958E-001	3.57390E+000	9	...........
	57	0.773333	4.07770E-001	-8.85873E-005	0.00000E+000	-3.61232E-005	-5.39641E-002	4.07827E-001	3.57390E+000	9	...........
	58	0.786667	4.02657E-001	-8.86894E-005	0.00000E+000	-3.57114E-005	-5.39641E-002	4.02705E-001	3.57390E+000	9	...........
	59	0.8	3.97564E-001	-8.86811E-005	0.00000E+000	-3.52564E-005	-5.39641E-002	3.97615E-001	3.57390E+000	9	...........
	60	0.813333	3.92480E-001	-8.87030E-005	0.00000E+000	-3.48142E-005	-5.39641E-002	3.92523E-001	3.57390E+000	9	...........
	61	0.826667	3.87406E-001	-8.86967E-005	0.00000E+000	-3.43617E-005	-5.39641E-002	3.87444E-001	3.57390E+000	9	...........
	62	0.84	3.82335E-001	-8.89405E-005	0.00000E+000	-3.40050E-005	-5.39641E-002	3.82376E-001	3.57390E+000	9	...........
	63	0.853333	3.77318E-001	-8.86592E-005	0.00000E+000	-3.34527E-005	-5.39641E-002	3.77359E-001	3.57390E+000	9	...........
	64	0.866667	3.72329E-001	-8.87259E-005	0.00000E+000	-3.30352E-005	-5.39641E-002	3.72369E-001	3.57390E+000	9	...........
	65	0.88	3.67344E-001	-8.87780E-005	0.00000E+000	-3.26120E-005	-5.39641E-002	3.67387E-001	3.57390E+000	9	...........
	66	0.893333	3.62369E-001	-8.87665E-005	0.00000E+000	-3.21662E-005	-5.39641E-002	3.62416E-001	3.57390E+000	9	...........
	67	0.906667	3.57383E-001	-8.88041E-005	0.00000E+000	-3.17371E-005	-5.39641E-002	3.57432E-001	3.57390E+000	9	...........
	68	0.92	3.52417E-001	-8.89853E-005	0.00000E+000	-3.13599E-005	-5.39641E-002	3.52460E-001	3.57390E+000	9	...........
	69	0.933333	3.47481E-001	-8.89457E-005	0.00000E+000	-3.09070E-005	-5.39641E-002	3.47528E-001	3.57390E+000	9	...........
	70	0.946667	3.42561E-001	-8.86165E-005	0.00000E+000	-3.03566E-005	-5.39641E-002	3.42600E-001	3.57390E+000	9	...........
	71	0.96	3.37656E-001	-8.88645E-005	0.00000E+000	-3.00056E-005	-5.39641E-002	3.37693E-001	3.57390E+000	9	...........
	72	0.97333	3.32769E-001	-8.90249E-005	0.00000E+000	-2.96247E-005	-5.39641E-002	3.32808E-001	3.57390E+000	9	...........
	73	0.98667	3.27889E-001	-8.86363E-005	0.00000E+000	-2.90629E-005	-5.39641E-002	3.27929E-001	3.57390E+000	9	...........
	74	1	3.23033E-001	-8.89197E-005	0.00000E+000	-2.87240E-005	-5.39641E-002	3.23081E-001	3.57390E+000	9	...........
	75	1.01333	3.18196E-001	-8.88614E-005	0.00000E+000	-2.82753E-005	-5.39641E-002	3.18241E-001	3.57390E+000	9	...........
	76	1.02667	3.13356E-001	-8.88020E-005	0.00000E+000	-2.78266E-005	-5.39641E-002	3.13401E-001	3.57390E+000	9	...........
	77	1.04	3.08530E-001	-8.86624E-005	0.00000E+000	-2.73550E-005	-5.39641E-002	3.08572E-001	3.57390E+000	9	...........
	78	1.05333	3.03727E-001	-8.89999E-005	0.00000E+000	-2.70317E-005	-5.39641E-002	3.03769E-001	3.57390E+000	9	...........
	79	1.06667	2.98949E-001	-8.86853E-005	0.00000E+000	-2.65124E-005	-5.39641E-002	2.98990E-001	3.57390E+000	9	...........
	80	1.08	2.94177E-001	-8.86832E-005	0.00000E+000	-2.60886E-005	-5.39641E-002	2.94214E-001	3.57390E+000	9	...........
	81	1.09333	2.89421E-001	-8.88874E-005	0.00000E+000	-2.57259E-005	-5.39641E-002	2.89461E-001	3.57390E+000	9	...........
	82	1.10667	2.84693E-001	-8.89155E-005	0.00000E+000	-2.53136E-005	-5.39641E-002	2.84737E-001	3.57390E+000	9	...........
	83	1.12	2.79984E-001	-8.88551E-005	0.00000E+000	-2.48780E-005	-5.39641E-002	2.80025E-001	3.57390E+000	9	...........
	84	1.13333	2.75283E-001	-8.86103E-005	0.00000E+000	-2.43929E-005	-5.39641E-002	2.75319E-001	3.57390E+000	9	...........
	85	1.14667	2.70591E-001	-8.89020E-005	0.00000E+000	-2.40561E-005	-5.39641E-002	2.70635E-001	3.57390E+000	9	...........
	86	1.16	2.65920E-001	-8.88780E-005	0.00000E+000	-2.36345E-005	-5.39641E-002	2.65959E-001	3.57390E+000	9	...........
	87	1.17333	2.61265E-001	-8.82623E-005	0.00000E+000	-2.30598E-005	-5.39641E-002	2.61297E-001	3.57390E+000	9	...........
	88	1.18667	2.56627E-001	-8.89291E-005	0.00000E+000	-2.28216E-005	-5.39641E-002	2.56664E-001	3.57390E+000	9	...........
	89	1.2	2.52011E-001	-8.87801E-005	0.00000E+000	-2.23735E-005	-5.39641E-002	2.52042E-001	3.57390E+000	9	...........
	90	1.21333	2.47408E-001	-8.84675E-005	0.00000E+000	-2.18876E-005	-5.39641E-002	2.47439E-001	3.57390E+000	9	...........
	91	1.22667	2.42823E-001	-8.88697E-005	0.00000E+000	-2.15796E-005	-5.39641E-002	2.42850E-001	3.57390E+000	9	...........
	92	1.24	2.38255E-001	-8.89291E-005	0.00000E+000	-2.11878E-005	-5.39641E-002	2.38288E-001	3.57390E+000	9	...........
	93	1.25333	2.33705E-001	-8.87863E-005	0.00000E+000	-2.07498E-005	-5.39641E-002	2.33734E-001	3.57390E+000	9	...........
	94	1.26667	2.29184E-001	-8.89395E-005	0.00000E+000	-2.03835E-005	-5.39641E-002	2.29214E-001	3.57390E+000	9	...........
	95	1.28	2.24688E-001	-8.86384E-005	0.00000E+000	-1.99159E-005	-5.39641E-002	2.24716E-001	3.57390E+000	9	...........
	96	1.29333	2.20215E-001	-8.87884E-005	0.00000E+000	-1.95526E-005	-5.39641E-002	2.20236E-001	3.57390E+000	9	...........
	97	1.30667	2.15751E-001	-8.86301E-005	0.00000E+000	-1.91220E-005	-5.39641E-002	2.15771E-001	3.57390E+000	9	...........
	98	1.32	2.11297E-001	-8.86488E-005	0.00000E+000	-1.87313E-005	-5.39641E-002	2.11321E-001	3.57390E+000	9	...........
	99	1.33333	2.06871E-001	-8.89708E-005	0.00000E+000	-1.84055E-005	-5.39641E-002	2.06892E-001	3.57390E+000	9	...........
	100	1.34667	2.02472E-001	-8.88301E-005	0.00000E+000	-1.79856E-005	-5.39641E-002	2.02497E-001	3.57390E+000	9	...........
	101	1.36	1.98082E-001	-8.91166E-005	0.00000E+000	-1.76524E-005	-5.39641E-002	1.98109E-001	3.57390E+000	9	...........
	102	1.37333	1.93715E-001	-8.88103E-005	0.00000E+000	-1.72039E-005	-5.39641E-002	1.93738E-001	3.57390E+000	9	...........
	103	1.38667	1.89362E-001	-8.89593E-005	0.00000E+000	-1.68455E-005	-5.39641E-002	1.89386E-001	3.57390E+000	9	...........
	104	1.4	1.85033E-001	-8.88801E-005	0.00000E+000	-1.64457E-005	-5.39641E-002	1.85052E-001	3.57390E+000	9	...........
	105	1.41333	1.80714E-001	-8.87270E-005	0.00000E+000	-1.60342E-005	-5.39641E-002	1.80736E-001	3.57390E+000	9	...........
	106	1.42667	1.76412E-001	-8.86967E-005	0.00000E+000	-1.56472E-005	-5.39641E-002	1.76431E-001	3.57390E+000	9	...........
	107	1.44	1.72138E-001	-8.87280E-005	0.00000E+000	-1.52735E-005	-5.39641E-002	1.72163E-001	3.57390E+000	9	...........
	108	1.45333	1.67901E-001	-8.89416E-005	0.00000E+000	-1.49334E-005	-5.39641E-002	1.67919E-001	3.57390E+000	9	...........
	109	1.46667	1.63668E-001	-8.89562E-005	0.00000E+000	-1.45593E-005	-5.39641E-002	1.63682E-001	3.57390E+000	9	...........
	110	1.48	1.59444E-001	-8.91437E-005	0.00000E+000	-1.42134E-005	-5.39641E-002	1.59466E-001	3.57390E+000	9	...........
	111	1.49333	1.55232E-001	-8.88134E-005	0.00000E+000	-1.37867E-005	-5.39641E-002	1.55250E-001	3.57390E+000	9	...........
	112	1.50667	1.51047E-001	-8.86728E-005	0.00000E+000	-1.33938E-005	-5.39641E-002	1.51065E-001	3.57390E+000	9	...........
	113	1.52	1.46880E-001	-8.88280E-005	0.00000E+000	-1.30471E-005	-5.39641E-002	1.46900E-001	3.57390E+000	9	...........
	114	1.53333	1.42744E-001	-8.88249E-005	0.00000E+000	-1.26792E-005	-5.39641E-002	1.42758E-001	3.57390E+000	9	...........
	115	1.54667	1.38618E-001	-8.86301E-005	0.00000E+000	-1.22857E-005	-5.39641E-002	1.38629E-001	3.57390E+000	9	...........
	116	1.56	1.34502E-001	-8.89645E-005	0.00000E+000	-1.19659E-005	-5.39641E-002	1.34517E-001	3.57390E+000	9	...........
	117	1.57333	1.30413E-001	-8.88145E-005	0.00000E+000	-1.15826E-005	-5.39641E-002	1.30425E-001	3.57390E+000	9	...........
	118	1.58667	1.26355E-001	-8.87457E-005	0.00000E+000	-1.12134E-005	-5.39641E-002	1.26367E-001	3.57390E+000	9	...........
	119	1.6	1.22306E-001	-8.89176E-005	0.00000E+000	-1.08752E-005	-5.39641E-002	1.22316E-001	3.57390E+000	9	...........
	120	1.61333	1.18267E-001	-8.88520E-005	0.00000E+000	-1.05083E-005	-5.39641E-002	1.18278E-001	3.57390E+000	9	...........
	121	1.62667	1.14248E-001	-8.86519E-005	0.00000E+000	-1.01283E-005	-5.39641E-002	1.14256E-001	3.57390E+000	9	...........
	122	1.64	1.10234E-001	-8.87467E-005	0.00000E+000	-9.78292E-006	-5.39641E-002	1.10248E-001	3.57390E+000	9	...........
	123	1.65333	1.06257E-001	-8.88478E-005	0.00000E+000	-9.44074E-006	-5.39641E-002	1.06270E-001	3.57390E+000	9	...........
	124	1.66667	1.02294E-001	-8.85405E-005	0.00000E+000	-9.05719E-006	-5.39641E-002	1.02305E-001	3.57390E+000	9	...........
	125	1.68	9.83574E-002	-8.88916E-005	0.00000E+000	-8.74314E-006	-5.39641E-002	9.83656E-002	3.57390E+000	9	...........
	126	1.69333	9.44328E-002	-8.88864E-005	0.00000E+000	-8.39379E-006	-5.39641E-002	9.44410E-002	3.57390E+000	9	...........
	127	1.70667	9.05292E-002	-8.88728E-005	0.00000E+000	-8.04559E-006	-5.39641E-002	9.05428E-002	3.57390E+000	9	...........
	128	1.72	8.66453E-002	-8.87155E-005	0.00000E+000	-7.68678E-006	-5.39641E-002	8.66577E-002	3.57380E+000	9	...........
	129	1.73333	8.27820E-002	-8.87697E-005	0.00000E+000	-7.34853E-006	-5.39641E-002	8.27922E-002	3.57370E+000	9	...........
	130	1.74667	7.89465E-002	-8.88718E-005	0.00000E+000	-7.01612E-006	-5.39641E-002	7.89468E-002	3.57370E+000	9	...........
	131	1.76	7.51218E-002	-8.90176E-005	0.00000E+000	-6.68717E-006	-5.39641E-002	7.51257E-002	3.57370E+000	9	...........
	132	1.77333	7.13136E-002	-8.86071E-005	0.00000E+000	-6.31890E-006	-5.39641E-002	7.13191E-002	3.57370E+000	9	...........
	133	1.78667	6.75250E-002	-8.86436E-005	0.00000E+000	-5.98565E-006	-5.39641E-002	6.75289E-002	3.57370E+000	9	...........
	134	1.8	6.37517E-002	-8.91375E-005	0.00000E+000	-5.68266E-006	-5.39641E-002	6.37487E-002	3.57370E+000	9	...........
	135	1.81333	5.99839E-002	-8.89207E-005	0.00000E+000	-5.33381E-006	-5.39641E-002	5.99918E-002	3.57370E+000	9	...........
	136	1.82667	5.62426E-002	-8.88134E-005	0.00000E+000	-4.99510E-006	-5.39641E-002	5.62393E-002	3.57370E+000	9	...........
	137	1.84	5.25036E-002	-8.87770E-005	0.00000E+000	-4.66111E-006	-5.39641E-002	5.25067E-002	3.57370E+000	9	...........
	138	1.85333	4.88008E-002	-8.88666E-005	0.00000E+000	-4.33676E-006	-5.39641E-002	4.88078E-002	3.57370E+000	9	...........
	139	1.86667	4.51253E-002	-8.84581E-005	0.00000E+000	-3.99170E-006	-5.39641E-002	4.51358E-002	3.57370E+000	9	...........
	140	1.88	4.14464E-002	-8.87957E-005	0.00000E+000	-3.68026E-006	-5.39641E-002	4.14579E-002	3.57370E+000	9	...........
	141	1.89333	3.77798E-002	-8.89437E-005	0.00000E+000	-3.36027E-006	-5.39641E-002	3.77883E-002	3.57370E+000	9	...........
	142	1.90667	3.41314E-002	-8.87634E-005	0.00000E+000	-3.02962E-006	-5.39641E-002	3.41321E-002	3.57370E+000	9	...........
	143	1.92	3.04956E-002	-8.88884E-005	0.00000E+000	-2.71071E-006	-5.39641E-002	3.04996E-002	3.57370E+000	9	...........
	144	1.93333	2.68837E-002	-8.88603E-005	0.00000E+000	-2.38889E-006	-5.39641E-002	2.68818E-002	3.57370E+000	9	...........
	145	1.94667	2.32803E-002	-8.87467E-005	0.00000E+000	-2.06605E-006	-5.39641E-002	2.32807E-002	3.57370E+000	9	...........
	146	1.96	1.96827E-002	-8.88416E-005	0.00000E+000	-1.74864E-006	-5.39641E-002	1.96776E-002	3.57370E+000	9	...........
	147	1.97333	1.61133E-002	-8.90812E-005	0.00000E+000	-1.43539E-006	-5.39641E-002	1.61069E-002	3.57370E+000	9	...........
	148	1.98667	1.25567E-002	-8.86759E-005	0.00000E+000	-1.11348E-006	-5.39641E-002	1.25512E-002	3.57370E+000	9	...........
	149	2	9.01391E-003	-8.87186E-005	0.00000E+000	-7.99702E-007	-5.39641E-002	9.01156E-003	3.57370E+000	9	...........
	150	2.01333	5.50070E-003	-8.89239E-005	0.00000E+000	-4.89144E-007	-5.39641E-002	5.48673E-003	3.57370E+000	9	...........
	151	2.02667	2.00942E-003	-8.86228E-005	0.00000E+000	-1.78080E-007	-5.39641E-002	1.99589E-003	3.57370E+000	9	...........
	152	2.03	-1.61362E-004	-8.85998E-005	0.00000E+000	1.42967E-008	-5.39641E-002	-1.84146E-004	3.57370E+000	9	...........
STARTTIMEOFFSET	QUANT	2143.183	Start Time Offset (s)
