EXPLAIN
TAG	PWR800_DISCHARGE
TITLE	LABEL	PWR Cyclic Charge Discharge (Cell) - Discharge Step	Test &Identifier
DATE	LABEL	10-7-2017	Date
TIME	LABEL	15:26:58	Time
NOTES	NOTES	3	&Notes...
	supercap test cell
	0.9mg
	6M KOH
PSTAT	PSTAT	IFC5000-01520	Potentiostat
CAPACITY	QUANT	1.00000E-003	Capacity (A-hr)
CELLTYPE	SELECTOR	1	&Cell Type
WORKINGCONNECTION	SELECTOR	0	&Working Lead
MAXDISCHARGETIME	VARIABLEANDUNITS	1.00000E+002	s	1.00000E+002	second(s)	Max &Discharge Time
DISCHARGEMODE	MULTIPARAM	0	9.00000E-005	&Discharge Mode	Constant Current	Amp(s)
SAMPLETIME	QUANT	1.00000E-002	Sa&mple Period (s)
DISCHARGESTOPAT1	MULTIPARAM	3	0.00000E+000	Discharge Stop At &1	Voltage < Limit	V
DISCHARGESTOPAT2	MULTIPARAM	0	0.00000E+000	Discharge Stop At &2	None	N/A
AESBHCSELECTOR	TOGGLE	F	Save Both Half Cells
IRCOMP	TOGGLE	F	IR &Measure
EOC	QUANT	0	Open Circuit (V)
SEQUENCER	TOGGLE	TRUE	Run as Sequence
PSTATMODEL	IQUANT	53	Pstat Model
PSTATSECTION	LABEL	IFC5000-01520	Pstat Section
PSTATSERIALNO	LABEL	01520	Pstat Serial Number
CTRLMODE	IQUANT	0	Control Mode
ELECTROMETER	IQUANT	1	RE=0 or CS=1
IESTAB	IQUANT	0	I/E Stability
CASPEED	IQUANT	4	Control Amp Speed
CONVENTION	IQUANT	1	Current Convention
ICHRANGE	IQUANT	2	Ich Range
ICHRANGEMODE	TOGGLE	T	Ich Auto Range
ICHOFFSETENABLE	TOGGLE	F	Ich Offset Enable
ICHOFFSET	QUANT	0	Ich Offset (V)
ICHFILTER	IQUANT	1	Ich Filter
VCHRANGE	IQUANT	2	Vch Range
VCHRANGEMODE	TOGGLE	T	Vch Auto Range
VCHOFFSETENABLE	TOGGLE	F	Vch Offset Enable
VCHOFFSET	QUANT	0	Vch Offset (V)
VCHFILTER	IQUANT	1	Vch Filter
IERANGELOWERLIMIT	IQUANT	9	I/E Range Lower Limit
IERANGEMODE	TOGGLE	F	I/E AutoRange
IERANGE	IQUANT	9	I/E Range
ACHSELECT	IQUANT	1	Ach Select
ACHRANGE	IQUANT	2	Ach Range
ACHOFFSETENABLE	TOGGLE	F	Ach Offset Enable
ACHOFFSET	QUANT	0	Ach Offset (V)
ACHFILTER	IQUANT	1	Ach Filter
CABLEID	IQUANT	14	Cable ID
DCCALDATE	LABEL	5-7-2017	DC Calibration Date
ACCALDATE	LABEL	12/3/2015	AC Calibration Date
FRAMEWORKVERSION	QUANT	7.01	Framework Version
INSTRUMENTVERSION	LABEL	4.00	Instrument Version
CURVE	TABLE	156
	Pt	T	Vf	Im	Vu	Pwr	Sig	Ach	Temp	IERange	Over
	#	s	V	A	V	W	V	V	deg C	#	bits
	0	0.013333	8.19154E-001	-8.85978E-005	0.00000E+000	-7.25752E-005	-5.39641E-002	8.19317E-001	3.57220E+000	9	...........
	1	0.026667	8.06157E-001	-8.87301E-005	0.00000E+000	-7.15304E-005	-5.39641E-002	8.06330E-001	3.57220E+000	9	...........
	2	0.04	7.94015E-001	-8.88624E-005	0.00000E+000	-7.05581E-005	-5.39641E-002	7.94166E-001	3.57220E+000	9	...........
	3	0.053333	7.82487E-001	-8.88728E-005	0.00000E+000	-6.95418E-005	-5.39641E-002	7.82682E-001	3.57220E+000	9	...........
	4	0.066667	7.71537E-001	-8.87561E-005	0.00000E+000	-6.84786E-005	-5.39641E-002	7.71710E-001	3.57220E+000	9	...........
	5	0.08	7.61015E-001	-8.87124E-005	0.00000E+000	-6.75114E-005	-5.39641E-002	7.61156E-001	3.57220E+000	9	...........
	6	0.093333	7.50915E-001	-8.87634E-005	0.00000E+000	-6.66538E-005	-5.39641E-002	7.51050E-001	3.57220E+000	9	...........
	7	0.106667	7.41140E-001	-8.86551E-005	0.00000E+000	-6.57058E-005	-5.39641E-002	7.41286E-001	3.57220E+000	9	...........
	8	0.12	7.31692E-001	-8.85113E-005	0.00000E+000	-6.47630E-005	-5.39641E-002	7.31839E-001	3.57220E+000	9	...........
	9	0.133333	7.22568E-001	-8.84946E-005	0.00000E+000	-6.39434E-005	-5.39641E-002	7.22678E-001	3.57220E+000	9	...........
	10	0.146667	7.13636E-001	-8.85071E-005	0.00000E+000	-6.31619E-005	-5.39641E-002	7.13770E-001	3.57220E+000	9	...........
	11	0.16	7.04986E-001	-8.86248E-005	0.00000E+000	-6.24793E-005	-5.39641E-002	7.05130E-001	3.57220E+000	9	...........
	12	0.173333	6.96534E-001	-8.86551E-005	0.00000E+000	-6.17513E-005	-5.39641E-002	6.96674E-001	3.57220E+000	9	...........
	13	0.186667	6.88317E-001	-8.88176E-005	0.00000E+000	-6.11347E-005	-5.39641E-002	6.88433E-001	3.57220E+000	9	...........
	14	0.2	6.80272E-001	-8.87467E-005	0.00000E+000	-6.03719E-005	-5.39641E-002	6.80400E-001	3.57220E+000	9	...........
	15	0.213333	6.72405E-001	-8.88020E-005	0.00000E+000	-5.97109E-005	-5.39641E-002	6.72528E-001	3.57220E+000	9	...........
	16	0.226667	6.64696E-001	-8.86655E-005	0.00000E+000	-5.89356E-005	-5.39641E-002	6.64837E-001	3.57220E+000	9	...........
	17	0.24	6.57138E-001	-8.85873E-005	0.00000E+000	-5.82141E-005	-5.39641E-002	6.57248E-001	3.57220E+000	9	...........
	18	0.253333	6.49750E-001	-8.88270E-005	0.00000E+000	-5.77154E-005	-5.39641E-002	6.49863E-001	3.57220E+000	9	...........
	19	0.266667	6.42475E-001	-8.88301E-005	0.00000E+000	-5.70711E-005	-5.39641E-002	6.42599E-001	3.57220E+000	9	...........
	20	0.28	6.35290E-001	-8.87530E-005	0.00000E+000	-5.63839E-005	-5.39641E-002	6.35412E-001	3.57220E+000	9	...........
	21	0.293333	6.28280E-001	-8.87165E-005	0.00000E+000	-5.57388E-005	-5.39641E-002	6.28393E-001	3.57220E+000	9	...........
	22	0.306667	6.21385E-001	-8.85425E-005	0.00000E+000	-5.50190E-005	-5.39641E-002	6.21467E-001	3.57220E+000	9	...........
	23	0.32	6.14545E-001	-8.89322E-005	0.00000E+000	-5.46528E-005	-5.39641E-002	6.14670E-001	3.57220E+000	9	...........
	24	0.333333	6.07807E-001	-8.88301E-005	0.00000E+000	-5.39916E-005	-5.39641E-002	6.07955E-001	3.57220E+000	9	...........
	25	0.346667	6.01231E-001	-8.84800E-005	0.00000E+000	-5.31969E-005	-5.39641E-002	6.01345E-001	3.57220E+000	9	...........
	26	0.36	5.94736E-001	-8.85946E-005	0.00000E+000	-5.26904E-005	-5.39641E-002	5.94866E-001	3.57220E+000	9	...........
	27	0.373333	5.88305E-001	-8.87176E-005	0.00000E+000	-5.21930E-005	-5.39641E-002	5.88413E-001	3.57220E+000	9	...........
	28	0.386667	5.81957E-001	-8.87426E-005	0.00000E+000	-5.16443E-005	-5.39641E-002	5.82041E-001	3.57220E+000	9	...........
	29	0.4	5.75708E-001	-8.86801E-005	0.00000E+000	-5.10538E-005	-5.39641E-002	5.75806E-001	3.57220E+000	9	...........
	30	0.413333	5.69547E-001	-8.86290E-005	0.00000E+000	-5.04784E-005	-5.39641E-002	5.69618E-001	3.57220E+000	9	...........
	31	0.426667	5.63415E-001	-8.86269E-005	0.00000E+000	-4.99337E-005	-5.39641E-002	5.63493E-001	3.57220E+000	9	...........
	32	0.44	5.57349E-001	-8.86332E-005	0.00000E+000	-4.93996E-005	-5.39641E-002	5.57412E-001	3.57220E+000	9	...........
	33	0.453333	5.51368E-001	-8.87061E-005	0.00000E+000	-4.89097E-005	-5.39641E-002	5.51434E-001	3.57220E+000	9	...........
	34	0.466667	5.45413E-001	-8.84186E-005	0.00000E+000	-4.82246E-005	-5.39641E-002	5.45476E-001	3.57220E+000	9	...........
	35	0.48	5.39528E-001	-8.86165E-005	0.00000E+000	-4.78111E-005	-5.39641E-002	5.39620E-001	3.57220E+000	9	...........
	36	0.493333	5.33674E-001	-8.86509E-005	0.00000E+000	-4.73106E-005	-5.39641E-002	5.33765E-001	3.57220E+000	9	...........
	37	0.506667	5.27904E-001	-8.85321E-005	0.00000E+000	-4.67365E-005	-5.39641E-002	5.28002E-001	3.57220E+000	9	...........
	38	0.52	5.22141E-001	-8.87520E-005	0.00000E+000	-4.63410E-005	-5.39641E-002	5.22234E-001	3.57220E+000	9	...........
	39	0.533333	5.16470E-001	-8.86457E-005	0.00000E+000	-4.57828E-005	-5.39641E-002	5.16563E-001	3.57220E+000	9	...........
	40	0.546667	5.10793E-001	-8.84863E-005	0.00000E+000	-4.51981E-005	-5.39641E-002	5.10889E-001	3.57220E+000	9	...........
	41	0.56	5.05159E-001	-8.88666E-005	0.00000E+000	-4.48918E-005	-5.39641E-002	5.05278E-001	3.57220E+000	9	...........
	42	0.573333	4.99610E-001	-8.87988E-005	0.00000E+000	-4.43648E-005	-5.39641E-002	4.99705E-001	3.57220E+000	9	...........
	43	0.586667	4.94094E-001	-8.84561E-005	0.00000E+000	-4.37056E-005	-5.39641E-002	4.94184E-001	3.57220E+000	9	...........
	44	0.6	4.88597E-001	-8.89291E-005	0.00000E+000	-4.34505E-005	-5.39641E-002	4.88680E-001	3.57220E+000	9	...........
	45	0.613333	4.83197E-001	-8.87759E-005	0.00000E+000	-4.28963E-005	-5.39641E-002	4.83247E-001	3.57220E+000	9	...........
	46	0.626667	4.77760E-001	-8.87634E-005	0.00000E+000	-4.24076E-005	-5.39641E-002	4.77821E-001	3.57220E+000	9	...........
	47	0.64	4.72332E-001	-8.90114E-005	0.00000E+000	-4.20429E-005	-5.39641E-002	4.72390E-001	3.57220E+000	9	...........
	48	0.653333	4.66944E-001	-8.89020E-005	0.00000E+000	-4.15122E-005	-5.39641E-002	4.67003E-001	3.57220E+000	9	...........
	49	0.666667	4.61594E-001	-8.85488E-005	0.00000E+000	-4.08736E-005	-5.39641E-002	4.61650E-001	3.57220E+000	9	...........
	50	0.68	4.56269E-001	-8.87624E-005	0.00000E+000	-4.04995E-005	-5.39641E-002	4.56324E-001	3.57220E+000	9	...........
	51	0.693333	4.50958E-001	-8.85425E-005	0.00000E+000	-3.99289E-005	-5.39641E-002	4.51012E-001	3.57220E+000	9	...........
	52	0.706667	4.45668E-001	-8.89718E-005	0.00000E+000	-3.96519E-005	-5.39641E-002	4.45725E-001	3.57220E+000	9	...........
	53	0.72	4.40413E-001	-8.85102E-005	0.00000E+000	-3.89810E-005	-5.39641E-002	4.40474E-001	3.57220E+000	9	...........
	54	0.733333	4.35192E-001	-8.88832E-005	0.00000E+000	-3.86813E-005	-5.39641E-002	4.35242E-001	3.57220E+000	9	...........
	55	0.746667	4.29989E-001	-8.87613E-005	0.00000E+000	-3.81664E-005	-5.39641E-002	4.30041E-001	3.57220E+000	9	...........
	56	0.76	4.24802E-001	-8.91250E-005	0.00000E+000	-3.78605E-005	-5.39641E-002	4.24858E-001	3.57220E+000	9	...........
	57	0.773333	4.19634E-001	-8.84706E-005	0.00000E+000	-3.71253E-005	-5.39641E-002	4.19684E-001	3.57220E+000	9	...........
	58	0.786667	4.14481E-001	-8.86592E-005	0.00000E+000	-3.67476E-005	-5.39641E-002	4.14533E-001	3.57220E+000	9	...........
	59	0.8	4.09354E-001	-8.87686E-005	0.00000E+000	-3.63378E-005	-5.39641E-002	4.09400E-001	3.57220E+000	9	...........
	60	0.813333	4.04236E-001	-8.87968E-005	0.00000E+000	-3.58949E-005	-5.39641E-002	4.04278E-001	3.57220E+000	9	...........
	61	0.826667	3.99129E-001	-8.88301E-005	0.00000E+000	-3.54547E-005	-5.39641E-002	3.99172E-001	3.57220E+000	9	...........
	62	0.84	3.94033E-001	-8.87259E-005	0.00000E+000	-3.49610E-005	-5.39641E-002	3.94075E-001	3.57220E+000	9	...........
	63	0.853333	3.88959E-001	-8.89260E-005	0.00000E+000	-3.45886E-005	-5.39641E-002	3.89005E-001	3.57220E+000	9	...........
	64	0.866667	3.83908E-001	-8.87426E-005	0.00000E+000	-3.40689E-005	-5.39641E-002	3.83946E-001	3.57220E+000	9	...........
	65	0.88	3.78854E-001	-8.86926E-005	0.00000E+000	-3.36015E-005	-5.39641E-002	3.78903E-001	3.57220E+000	9	...........
	66	0.893333	3.73855E-001	-8.87322E-005	0.00000E+000	-3.31730E-005	-5.39641E-002	3.73896E-001	3.57220E+000	9	...........
	67	0.906667	3.68867E-001	-8.87009E-005	0.00000E+000	-3.27188E-005	-5.39641E-002	3.68911E-001	3.57220E+000	9	...........
	68	0.92	3.63892E-001	-8.90614E-005	0.00000E+000	-3.24087E-005	-5.39641E-002	3.63942E-001	3.57220E+000	9	...........
	69	0.933333	3.58935E-001	-8.87228E-005	0.00000E+000	-3.18457E-005	-5.39641E-002	3.58982E-001	3.57220E+000	9	...........
	70	0.946667	3.53986E-001	-8.88061E-005	0.00000E+000	-3.14361E-005	-5.39641E-002	3.54034E-001	3.57220E+000	9	...........
	71	0.96	3.49048E-001	-8.86717E-005	0.00000E+000	-3.09507E-005	-5.39641E-002	3.49091E-001	3.57220E+000	9	...........
	72	0.97333	3.44130E-001	-8.86603E-005	0.00000E+000	-3.05106E-005	-5.39641E-002	3.44177E-001	3.57223E+000	9	...........
	73	0.98667	3.39214E-001	-8.87478E-005	0.00000E+000	-3.01045E-005	-5.39641E-002	3.39257E-001	3.57230E+000	9	...........
	74	1	3.34311E-001	-8.85207E-005	0.00000E+000	-2.95934E-005	-5.39641E-002	3.34355E-001	3.57230E+000	9	...........
	75	1.01333	3.29436E-001	-8.87895E-005	0.00000E+000	-2.92504E-005	-5.39641E-002	3.29480E-001	3.57230E+000	9	...........
	76	1.02667	3.24592E-001	-8.86790E-005	0.00000E+000	-2.87845E-005	-5.39641E-002	3.24634E-001	3.57230E+000	9	...........
	77	1.04	3.19761E-001	-8.89343E-005	0.00000E+000	-2.84377E-005	-5.39641E-002	3.19798E-001	3.57230E+000	9	...........
	78	1.05333	3.14938E-001	-8.85186E-005	0.00000E+000	-2.78779E-005	-5.39641E-002	3.14979E-001	3.57230E+000	9	...........
	79	1.06667	3.10135E-001	-8.88801E-005	0.00000E+000	-2.75648E-005	-5.39641E-002	3.10176E-001	3.57230E+000	9	...........
	80	1.08	3.05342E-001	-8.86488E-005	0.00000E+000	-2.70682E-005	-5.39641E-002	3.05382E-001	3.57230E+000	9	...........
	81	1.09333	3.00588E-001	-8.84227E-005	0.00000E+000	-2.65788E-005	-5.39641E-002	3.00628E-001	3.57230E+000	9	...........
	82	1.10667	2.95871E-001	-8.88291E-005	0.00000E+000	-2.62819E-005	-5.39641E-002	2.95908E-001	3.57230E+000	9	...........
	83	1.12	2.91160E-001	-8.84113E-005	0.00000E+000	-2.57418E-005	-5.39641E-002	2.91198E-001	3.57230E+000	9	...........
	84	1.13333	2.86449E-001	-8.84894E-005	0.00000E+000	-2.53477E-005	-5.39641E-002	2.86488E-001	3.57230E+000	9	...........
	85	1.14667	2.81749E-001	-8.88238E-005	0.00000E+000	-2.50260E-005	-5.39641E-002	2.81781E-001	3.57230E+000	9	...........
	86	1.16	2.77073E-001	-8.87030E-005	0.00000E+000	-2.45772E-005	-5.39641E-002	2.77107E-001	3.57230E+000	9	...........
	87	1.17333	2.72431E-001	-8.87176E-005	0.00000E+000	-2.41694E-005	-5.39641E-002	2.72469E-001	3.57230E+000	9	...........
	88	1.18667	2.67803E-001	-8.88780E-005	0.00000E+000	-2.38018E-005	-5.39641E-002	2.67840E-001	3.57230E+000	9	...........
	89	1.2	2.63198E-001	-8.86332E-005	0.00000E+000	-2.33281E-005	-5.39641E-002	2.63240E-001	3.57230E+000	9	...........
	90	1.21333	2.58631E-001	-8.86790E-005	0.00000E+000	-2.29352E-005	-5.39641E-002	2.58667E-001	3.57230E+000	9	...........
	91	1.22667	2.54082E-001	-8.88655E-005	0.00000E+000	-2.25792E-005	-5.39641E-002	2.54115E-001	3.57230E+000	9	...........
	92	1.24	2.49548E-001	-8.86676E-005	0.00000E+000	-2.21268E-005	-5.39641E-002	2.49581E-001	3.57230E+000	9	...........
	93	1.25333	2.45029E-001	-8.86728E-005	0.00000E+000	-2.17274E-005	-5.39641E-002	2.45059E-001	3.57230E+000	9	...........
	94	1.26667	2.40553E-001	-8.86373E-005	0.00000E+000	-2.13219E-005	-5.39641E-002	2.40583E-001	3.57230E+000	9	...........
	95	1.28	2.36100E-001	-8.87832E-005	0.00000E+000	-2.09617E-005	-5.39641E-002	2.36123E-001	3.57230E+000	9	...........
	96	1.29333	2.31649E-001	-8.86707E-005	0.00000E+000	-2.05404E-005	-5.39641E-002	2.31671E-001	3.57230E+000	9	...........
	97	1.30667	2.27203E-001	-8.85780E-005	0.00000E+000	-2.01252E-005	-5.39641E-002	2.27233E-001	3.57230E+000	9	...........
	98	1.32	2.22797E-001	-8.88020E-005	0.00000E+000	-1.97848E-005	-5.39641E-002	2.22821E-001	3.57230E+000	9	...........
	99	1.33333	2.18392E-001	-8.86686E-005	0.00000E+000	-1.93645E-005	-5.39641E-002	2.18419E-001	3.57230E+000	9	...........
	100	1.34667	2.14022E-001	-8.87280E-005	0.00000E+000	-1.89897E-005	-5.39641E-002	2.14048E-001	3.57230E+000	9	...........
	101	1.36	2.09678E-001	-8.87968E-005	0.00000E+000	-1.86187E-005	-5.39641E-002	2.09696E-001	3.57230E+000	9	...........
	102	1.37333	2.05342E-001	-8.85998E-005	0.00000E+000	-1.81933E-005	-5.39641E-002	2.05369E-001	3.57230E+000	9	...........
	103	1.38667	2.01029E-001	-8.89103E-005	0.00000E+000	-1.78735E-005	-5.39641E-002	2.01059E-001	3.57230E+000	9	...........
	104	1.4	1.96736E-001	-8.87363E-005	0.00000E+000	-1.74576E-005	-5.39641E-002	1.96761E-001	3.57230E+000	9	...........
	105	1.41333	1.92453E-001	-8.86384E-005	0.00000E+000	-1.70587E-005	-5.39641E-002	1.92480E-001	3.57230E+000	9	...........
	106	1.42667	1.88195E-001	-8.86155E-005	0.00000E+000	-1.66769E-005	-5.39641E-002	1.88219E-001	3.57230E+000	9	...........
	107	1.44	1.83946E-001	-8.87405E-005	0.00000E+000	-1.63234E-005	-5.39641E-002	1.83967E-001	3.57230E+000	9	...........
	108	1.45333	1.79721E-001	-8.87290E-005	0.00000E+000	-1.59465E-005	-5.39641E-002	1.79745E-001	3.57230E+000	9	...........
	109	1.46667	1.75519E-001	-8.87207E-005	0.00000E+000	-1.55722E-005	-5.39641E-002	1.75543E-001	3.57230E+000	9	...........
	110	1.48	1.71342E-001	-8.87613E-005	0.00000E+000	-1.52085E-005	-5.39641E-002	1.71363E-001	3.57230E+000	9	...........
	111	1.49333	1.67193E-001	-8.89760E-005	0.00000E+000	-1.48761E-005	-5.39641E-002	1.67215E-001	3.57230E+000	9	...........
	112	1.50667	1.63061E-001	-8.88624E-005	0.00000E+000	-1.44900E-005	-5.39641E-002	1.63080E-001	3.57230E+000	9	...........
	113	1.52	1.58946E-001	-8.87426E-005	0.00000E+000	-1.41053E-005	-5.39641E-002	1.58962E-001	3.57230E+000	9	...........
	114	1.53333	1.54850E-001	-8.87624E-005	0.00000E+000	-1.37449E-005	-5.39641E-002	1.54863E-001	3.57230E+000	9	...........
	115	1.54667	1.50781E-001	-8.89541E-005	0.00000E+000	-1.34126E-005	-5.39641E-002	1.50796E-001	3.57230E+000	9	...........
	116	1.56	1.46725E-001	-8.84936E-005	0.00000E+000	-1.29842E-005	-5.39641E-002	1.46743E-001	3.57230E+000	9	...........
	117	1.57333	1.42692E-001	-8.88311E-005	0.00000E+000	-1.26755E-005	-5.39641E-002	1.42705E-001	3.57230E+000	9	...........
	118	1.58667	1.38664E-001	-8.89937E-005	0.00000E+000	-1.23403E-005	-5.39641E-002	1.38674E-001	3.57230E+000	9	...........
	119	1.6	1.34675E-001	-8.88145E-005	0.00000E+000	-1.19611E-005	-5.39641E-002	1.34684E-001	3.57230E+000	9	...........
	120	1.61333	1.30711E-001	-8.86790E-005	0.00000E+000	-1.15913E-005	-5.39641E-002	1.30723E-001	3.57230E+000	9	...........
	121	1.62667	1.26764E-001	-8.89020E-005	0.00000E+000	-1.12696E-005	-5.39641E-002	1.26770E-001	3.57230E+000	9	...........
	122	1.64	1.22829E-001	-8.87405E-005	0.00000E+000	-1.08999E-005	-5.39641E-002	1.22842E-001	3.57230E+000	9	...........
	123	1.65333	1.18915E-001	-8.86707E-005	0.00000E+000	-1.05443E-005	-5.39641E-002	1.18927E-001	3.57230E+000	9	...........
	124	1.66667	1.15015E-001	-8.86342E-005	0.00000E+000	-1.01943E-005	-5.39641E-002	1.15020E-001	3.57230E+000	9	...........
	125	1.68	1.11114E-001	-8.86686E-005	0.00000E+000	-9.85235E-006	-5.39641E-002	1.11131E-001	3.57230E+000	9	...........
	126	1.69333	1.07232E-001	-8.88999E-005	0.00000E+000	-9.53290E-006	-5.39641E-002	1.07246E-001	3.57230E+000	9	...........
	127	1.70667	1.03365E-001	-8.87665E-005	0.00000E+000	-9.17533E-006	-5.39641E-002	1.03375E-001	3.57230E+000	9	...........
	128	1.72	9.95101E-002	-8.88541E-005	0.00000E+000	-8.84188E-006	-5.39641E-002	9.95266E-002	3.57230E+000	9	...........
	129	1.73333	9.56783E-002	-8.87665E-005	0.00000E+000	-8.49303E-006	-5.39641E-002	9.56862E-002	3.57230E+000	9	...........
	130	1.74667	9.18670E-002	-8.89385E-005	0.00000E+000	-8.17051E-006	-5.39641E-002	9.18781E-002	3.57230E+000	9	...........
	131	1.76	8.80729E-002	-8.86478E-005	0.00000E+000	-7.80747E-006	-5.39641E-002	8.80845E-002	3.57230E+000	9	...........
	132	1.77333	8.42781E-002	-8.86509E-005	0.00000E+000	-7.47133E-006	-5.39641E-002	8.42858E-002	3.57230E+000	9	...........
	133	1.78667	8.05132E-002	-8.87280E-005	0.00000E+000	-7.14378E-006	-5.39641E-002	8.05164E-002	3.57230E+000	9	...........
	134	1.8	7.67526E-002	-8.85405E-005	0.00000E+000	-6.79571E-006	-5.39641E-002	7.67556E-002	3.57230E+000	9	...........
	135	1.81333	7.29933E-002	-8.85613E-005	0.00000E+000	-6.46438E-006	-5.39641E-002	7.29985E-002	3.57230E+000	9	...........
	136	1.82667	6.92401E-002	-8.85436E-005	0.00000E+000	-6.13077E-006	-5.39641E-002	6.92440E-002	3.57230E+000	9	...........
	137	1.84	6.55241E-002	-8.86571E-005	0.00000E+000	-5.80918E-006	-5.39641E-002	6.55265E-002	3.57230E+000	9	...........
	138	1.85333	6.18040E-002	-8.87780E-005	0.00000E+000	-5.48683E-006	-5.39641E-002	6.18074E-002	3.57230E+000	9	...........
	139	1.86667	5.81081E-002	-8.88749E-005	0.00000E+000	-5.16435E-006	-5.39641E-002	5.81134E-002	3.57230E+000	9	...........
	140	1.88	5.44270E-002	-8.87697E-005	0.00000E+000	-4.83147E-006	-5.39641E-002	5.44276E-002	3.57230E+000	9	...........
	141	1.89333	5.07289E-002	-8.87436E-005	0.00000E+000	-4.50187E-006	-5.39641E-002	5.07270E-002	3.57230E+000	9	...........
	142	1.90667	4.70596E-002	-8.87936E-005	0.00000E+000	-4.17859E-006	-5.39641E-002	4.70651E-002	3.57230E+000	9	...........
	143	1.92	4.34054E-002	-8.89301E-005	0.00000E+000	-3.86004E-006	-5.39641E-002	4.34160E-002	3.57230E+000	9	...........
	144	1.93333	3.97756E-002	-8.89176E-005	0.00000E+000	-3.53675E-006	-5.39641E-002	3.97824E-002	3.57230E+000	9	...........
	145	1.94667	3.61688E-002	-8.88322E-005	0.00000E+000	-3.21295E-006	-5.39641E-002	3.61765E-002	3.57230E+000	9	...........
	146	1.96	3.25716E-002	-8.87947E-005	0.00000E+000	-2.89219E-006	-5.39641E-002	3.25733E-002	3.57230E+000	9	...........
	147	1.97333	2.89824E-002	-8.89593E-005	0.00000E+000	-2.57825E-006	-5.39641E-002	2.89843E-002	3.57255E+000	9	...........
	148	1.98667	2.54235E-002	-8.86926E-005	0.00000E+000	-2.25488E-006	-5.39641E-002	2.54247E-002	3.57330E+000	9	...........
	149	2	2.18802E-002	-8.86134E-005	0.00000E+000	-1.93888E-006	-5.39641E-002	2.18779E-002	3.57330E+000	9	...........
	150	2.01333	1.83602E-002	-8.89062E-005	0.00000E+000	-1.63233E-006	-5.39641E-002	1.83563E-002	3.57330E+000	9	...........
	151	2.02667	1.48430E-002	-8.86342E-005	0.00000E+000	-1.31560E-006	-5.39641E-002	1.48375E-002	3.57330E+000	9	...........
	152	2.04	1.13448E-002	-8.86603E-005	0.00000E+000	-1.00583E-006	-5.39641E-002	1.13381E-002	3.57330E+000	9	...........
	153	2.05333	7.85336E-003	-8.89134E-005	0.00000E+000	-6.98269E-007	-5.39641E-002	7.84272E-003	3.57330E+000	9	...........
	154	2.06667	4.38982E-003	-8.86801E-005	0.00000E+000	-3.89289E-007	-5.39641E-002	4.37658E-003	3.57330E+000	9	...........
	155	2.07833	1.15332E-003	-8.87927E-005	0.00000E+000	-1.02407E-007	-5.39641E-002	1.14309E-003	3.57330E+000	9	...........
STARTTIMEOFFSET	QUANT	1404.691	Start Time Offset (s)
