EXPLAIN
TAG	PWR800_DISCHARGE
TITLE	LABEL	PWR Cyclic Charge Discharge (Cell) - Discharge Step	Test &Identifier
DATE	LABEL	10-7-2017	Date
TIME	LABEL	15:13:02	Time
NOTES	NOTES	3	&Notes...
	supercap test cell
	0.9mg
	6M KOH
PSTAT	PSTAT	IFC5000-01520	Potentiostat
CAPACITY	QUANT	1.00000E-003	Capacity (A-hr)
CELLTYPE	SELECTOR	1	&Cell Type
WORKINGCONNECTION	SELECTOR	0	&Working Lead
MAXDISCHARGETIME	VARIABLEANDUNITS	1.00000E+002	s	1.00000E+002	second(s)	Max &Discharge Time
DISCHARGEMODE	MULTIPARAM	0	9.00000E-005	&Discharge Mode	Constant Current	Amp(s)
SAMPLETIME	QUANT	1.00000E-002	Sa&mple Period (s)
DISCHARGESTOPAT1	MULTIPARAM	3	0.00000E+000	Discharge Stop At &1	Voltage < Limit	V
DISCHARGESTOPAT2	MULTIPARAM	0	0.00000E+000	Discharge Stop At &2	None	N/A
AESBHCSELECTOR	TOGGLE	F	Save Both Half Cells
IRCOMP	TOGGLE	F	IR &Measure
EOC	QUANT	0	Open Circuit (V)
SEQUENCER	TOGGLE	TRUE	Run as Sequence
PSTATMODEL	IQUANT	53	Pstat Model
PSTATSECTION	LABEL	IFC5000-01520	Pstat Section
PSTATSERIALNO	LABEL	01520	Pstat Serial Number
CTRLMODE	IQUANT	0	Control Mode
ELECTROMETER	IQUANT	1	RE=0 or CS=1
IESTAB	IQUANT	0	I/E Stability
CASPEED	IQUANT	4	Control Amp Speed
CONVENTION	IQUANT	1	Current Convention
ICHRANGE	IQUANT	2	Ich Range
ICHRANGEMODE	TOGGLE	T	Ich Auto Range
ICHOFFSETENABLE	TOGGLE	F	Ich Offset Enable
ICHOFFSET	QUANT	0	Ich Offset (V)
ICHFILTER	IQUANT	1	Ich Filter
VCHRANGE	IQUANT	2	Vch Range
VCHRANGEMODE	TOGGLE	T	Vch Auto Range
VCHOFFSETENABLE	TOGGLE	F	Vch Offset Enable
VCHOFFSET	QUANT	0	Vch Offset (V)
VCHFILTER	IQUANT	1	Vch Filter
IERANGELOWERLIMIT	IQUANT	9	I/E Range Lower Limit
IERANGEMODE	TOGGLE	F	I/E AutoRange
IERANGE	IQUANT	9	I/E Range
ACHSELECT	IQUANT	1	Ach Select
ACHRANGE	IQUANT	2	Ach Range
ACHOFFSETENABLE	TOGGLE	F	Ach Offset Enable
ACHOFFSET	QUANT	0	Ach Offset (V)
ACHFILTER	IQUANT	1	Ach Filter
CABLEID	IQUANT	14	Cable ID
DCCALDATE	LABEL	5-7-2017	DC Calibration Date
ACCALDATE	LABEL	12/3/2015	AC Calibration Date
FRAMEWORKVERSION	QUANT	7.01	Framework Version
INSTRUMENTVERSION	LABEL	4.00	Instrument Version
CURVE	TABLE	162
	Pt	T	Vf	Im	Vu	Pwr	Sig	Ach	Temp	IERange	Over
	#	s	V	A	V	W	V	V	deg C	#	bits
	0	0.013333	8.29946E-001	-8.85519E-005	0.00000E+000	-7.34933E-005	-5.39641E-002	8.30093E-001	3.57170E+000	9	...........
	1	0.026667	8.17822E-001	-8.85394E-005	0.00000E+000	-7.24095E-005	-5.39641E-002	8.17947E-001	3.57170E+000	9	...........
	2	0.04	8.06384E-001	-8.86842E-005	0.00000E+000	-7.15136E-005	-5.39641E-002	8.06501E-001	3.57170E+000	9	...........
	3	0.053333	7.95554E-001	-8.86467E-005	0.00000E+000	-7.05233E-005	-5.39641E-002	7.95656E-001	3.57170E+000	9	...........
	4	0.066667	7.85140E-001	-8.87394E-005	0.00000E+000	-6.96729E-005	-5.39641E-002	7.85251E-001	3.57170E+000	9	...........
	5	0.08	7.75130E-001	-8.86801E-005	0.00000E+000	-6.87386E-005	-5.39641E-002	7.75270E-001	3.57170E+000	9	...........
	6	0.093333	7.65467E-001	-8.85602E-005	0.00000E+000	-6.77899E-005	-5.39641E-002	7.65580E-001	3.57170E+000	9	...........
	7	0.106667	7.56141E-001	-8.89134E-005	0.00000E+000	-6.72311E-005	-5.39641E-002	7.56255E-001	3.57170E+000	9	...........
	8	0.12	7.47050E-001	-8.85748E-005	0.00000E+000	-6.61698E-005	-5.39641E-002	7.47173E-001	3.57170E+000	9	...........
	9	0.133333	7.38212E-001	-8.88936E-005	0.00000E+000	-6.56223E-005	-5.39641E-002	7.38324E-001	3.57170E+000	9	...........
	10	0.146667	7.29622E-001	-8.88739E-005	0.00000E+000	-6.48443E-005	-5.39641E-002	7.29728E-001	3.57170E+000	9	...........
	11	0.16	7.21249E-001	-8.86228E-005	0.00000E+000	-6.39191E-005	-5.39641E-002	7.21353E-001	3.57170E+000	9	...........
	12	0.173333	7.13006E-001	-8.85800E-005	0.00000E+000	-6.31581E-005	-5.39641E-002	7.13119E-001	3.57170E+000	9	...........
	13	0.186667	7.04997E-001	-8.86822E-005	0.00000E+000	-6.25207E-005	-5.39641E-002	7.05105E-001	3.57170E+000	9	...........
	14	0.2	6.97164E-001	-8.85582E-005	0.00000E+000	-6.17396E-005	-5.39641E-002	6.97279E-001	3.57170E+000	9	...........
	15	0.213333	6.89484E-001	-8.85592E-005	0.00000E+000	-6.10601E-005	-5.39641E-002	6.89595E-001	3.57170E+000	9	...........
	16	0.226667	6.81941E-001	-8.87530E-005	0.00000E+000	-6.05243E-005	-5.39641E-002	6.82040E-001	3.57170E+000	9	...........
	17	0.24	6.74533E-001	-8.88436E-005	0.00000E+000	-5.99280E-005	-5.39641E-002	6.74624E-001	3.57170E+000	9	...........
	18	0.253333	6.67268E-001	-8.87228E-005	0.00000E+000	-5.92019E-005	-5.39641E-002	6.67353E-001	3.57170E+000	9	...........
	19	0.266667	6.60080E-001	-8.87217E-005	0.00000E+000	-5.85635E-005	-5.39641E-002	6.60149E-001	3.57170E+000	9	...........
	20	0.28	6.53053E-001	-8.85040E-005	0.00000E+000	-5.77978E-005	-5.39641E-002	6.53147E-001	3.57170E+000	9	...........
	21	0.293333	6.46109E-001	-8.84321E-005	0.00000E+000	-5.71368E-005	-5.39641E-002	6.46216E-001	3.57170E+000	9	...........
	22	0.306667	6.39276E-001	-8.85436E-005	0.00000E+000	-5.66038E-005	-5.39641E-002	6.39367E-001	3.57170E+000	9	...........
	23	0.32	6.32539E-001	-8.84144E-005	0.00000E+000	-5.59255E-005	-5.39641E-002	6.32626E-001	3.57170E+000	9	...........
	24	0.333333	6.25930E-001	-8.84186E-005	0.00000E+000	-5.53438E-005	-5.39641E-002	6.26008E-001	3.57170E+000	9	...........
	25	0.346667	6.19384E-001	-8.85113E-005	0.00000E+000	-5.48225E-005	-5.39641E-002	6.19462E-001	3.57170E+000	9	...........
	26	0.36	6.12882E-001	-8.88009E-005	0.00000E+000	-5.44245E-005	-5.39641E-002	6.12983E-001	3.57170E+000	9	...........
	27	0.373333	6.06498E-001	-8.86822E-005	0.00000E+000	-5.37856E-005	-5.39641E-002	6.06602E-001	3.57170E+000	9	...........
	28	0.386667	6.00185E-001	-8.86540E-005	0.00000E+000	-5.32088E-005	-5.39641E-002	6.00300E-001	3.57170E+000	9	...........
	29	0.4	5.93953E-001	-8.87947E-005	0.00000E+000	-5.27399E-005	-5.39641E-002	5.94052E-001	3.57170E+000	9	...........
	30	0.413333	5.87756E-001	-8.86196E-005	0.00000E+000	-5.20867E-005	-5.39641E-002	5.87856E-001	3.57170E+000	9	...........
	31	0.426667	5.81628E-001	-8.85665E-005	0.00000E+000	-5.15127E-005	-5.39641E-002	5.81716E-001	3.57170E+000	9	...........
	32	0.44	5.75569E-001	-8.89260E-005	0.00000E+000	-5.11830E-005	-5.39641E-002	5.75688E-001	3.57170E+000	9	...........
	33	0.453333	5.69596E-001	-8.89082E-005	0.00000E+000	-5.06417E-005	-5.39641E-002	5.69683E-001	3.57170E+000	9	...........
	34	0.466667	5.63601E-001	-8.85800E-005	0.00000E+000	-4.99238E-005	-5.39641E-002	5.63724E-001	3.57170E+000	9	...........
	35	0.48	5.57684E-001	-8.85196E-005	0.00000E+000	-4.93659E-005	-5.39641E-002	5.57815E-001	3.57170E+000	9	...........
	36	0.493333	5.51854E-001	-8.85405E-005	0.00000E+000	-4.88614E-005	-5.39641E-002	5.51977E-001	3.57170E+000	9	...........
	37	0.506667	5.46057E-001	-8.89332E-005	0.00000E+000	-4.85626E-005	-5.39641E-002	5.46196E-001	3.57170E+000	9	...........
	38	0.52	5.40329E-001	-8.86092E-005	0.00000E+000	-4.78781E-005	-5.39641E-002	5.40417E-001	3.57170E+000	9	...........
	39	0.533333	5.34565E-001	-8.88395E-005	0.00000E+000	-4.74905E-005	-5.39641E-002	5.34629E-001	3.57170E+000	9	...........
	40	0.546667	5.28864E-001	-8.87322E-005	0.00000E+000	-4.69273E-005	-5.39641E-002	5.28951E-001	3.57170E+000	9	...........
	41	0.56	5.23210E-001	-8.86749E-005	0.00000E+000	-4.63955E-005	-5.39641E-002	5.23290E-001	3.57170E+000	9	...........
	42	0.573333	5.17564E-001	-8.85988E-005	0.00000E+000	-4.58555E-005	-5.39641E-002	5.17642E-001	3.57170E+000	9	...........
	43	0.586667	5.11977E-001	-8.84967E-005	0.00000E+000	-4.53083E-005	-5.39641E-002	5.12070E-001	3.57170E+000	9	...........
	44	0.6	5.06371E-001	-8.86050E-005	0.00000E+000	-4.48670E-005	-5.39641E-002	5.06503E-001	3.57170E+000	9	...........
	45	0.613333	5.00859E-001	-8.84957E-005	0.00000E+000	-4.43238E-005	-5.39641E-002	5.00963E-001	3.57170E+000	9	...........
	46	0.626667	4.95375E-001	-8.86780E-005	0.00000E+000	-4.39288E-005	-5.39641E-002	4.95475E-001	3.57170E+000	9	...........
	47	0.64	4.89926E-001	-8.88749E-005	0.00000E+000	-4.35421E-005	-5.39641E-002	4.89993E-001	3.57170E+000	9	...........
	48	0.653333	4.84534E-001	-8.88009E-005	0.00000E+000	-4.30270E-005	-5.39641E-002	4.84614E-001	3.57170E+000	9	...........
	49	0.666667	4.79170E-001	-8.86915E-005	0.00000E+000	-4.24983E-005	-5.39641E-002	4.79225E-001	3.57170E+000	9	...........
	50	0.68	4.73788E-001	-8.88384E-005	0.00000E+000	-4.20906E-005	-5.39641E-002	4.73837E-001	3.57170E+000	9	...........
	51	0.693333	4.68425E-001	-8.87551E-005	0.00000E+000	-4.15751E-005	-5.39641E-002	4.68481E-001	3.57170E+000	9	...........
	52	0.706667	4.63085E-001	-8.87790E-005	0.00000E+000	-4.11122E-005	-5.39641E-002	4.63138E-001	3.57170E+000	9	...........
	53	0.72	4.57767E-001	-8.85175E-005	0.00000E+000	-4.05204E-005	-5.39641E-002	4.57812E-001	3.57170E+000	9	...........
	54	0.733333	4.52470E-001	-8.85957E-005	0.00000E+000	-4.00869E-005	-5.39641E-002	4.52514E-001	3.57170E+000	9	...........
	55	0.746667	4.47192E-001	-8.89437E-005	0.00000E+000	-3.97749E-005	-5.39641E-002	4.47240E-001	3.57170E+000	9	...........
	56	0.76	4.41933E-001	-8.85665E-005	0.00000E+000	-3.91405E-005	-5.39641E-002	4.41983E-001	3.57170E+000	9	...........
	57	0.773333	4.36703E-001	-8.87717E-005	0.00000E+000	-3.87669E-005	-5.39641E-002	4.36753E-001	3.57170E+000	9	...........
	58	0.786667	4.31498E-001	-8.87874E-005	0.00000E+000	-3.83115E-005	-5.39641E-002	4.31544E-001	3.57170E+000	9	...........
	59	0.8	4.26297E-001	-8.87488E-005	0.00000E+000	-3.78334E-005	-5.39641E-002	4.26345E-001	3.57170E+000	9	...........
	60	0.813333	4.21125E-001	-8.84561E-005	0.00000E+000	-3.72510E-005	-5.39641E-002	4.21177E-001	3.57170E+000	9	...........
	61	0.826667	4.15971E-001	-8.87113E-005	0.00000E+000	-3.69013E-005	-5.39641E-002	4.16019E-001	3.57170E+000	9	...........
	62	0.84	4.10820E-001	-8.86853E-005	0.00000E+000	-3.64337E-005	-5.39641E-002	4.10870E-001	3.57170E+000	9	...........
	63	0.853333	4.05699E-001	-8.85290E-005	0.00000E+000	-3.59161E-005	-5.39641E-002	4.05747E-001	3.57170E+000	9	...........
	64	0.866667	4.00588E-001	-8.87457E-005	0.00000E+000	-3.55504E-005	-5.39641E-002	4.00628E-001	3.57170E+000	9	...........
	65	0.88	3.95499E-001	-8.87822E-005	0.00000E+000	-3.51133E-005	-5.39641E-002	3.95538E-001	3.57170E+000	9	...........
	66	0.893333	3.90452E-001	-8.88936E-005	0.00000E+000	-3.47087E-005	-5.39641E-002	3.90488E-001	3.57170E+000	9	...........
	67	0.906667	3.85415E-001	-8.85530E-005	0.00000E+000	-3.41296E-005	-5.39641E-002	3.85451E-001	3.57170E+000	9	...........
	68	0.92	3.80409E-001	-8.89416E-005	0.00000E+000	-3.38342E-005	-5.39641E-002	3.80449E-001	3.57170E+000	9	...........
	69	0.933333	3.75433E-001	-8.85144E-005	0.00000E+000	-3.32312E-005	-5.39641E-002	3.75469E-001	3.57170E+000	9	...........
	70	0.946667	3.70471E-001	-8.86790E-005	0.00000E+000	-3.28530E-005	-5.39641E-002	3.70512E-001	3.57170E+000	9	...........
	71	0.96	3.65533E-001	-8.84415E-005	0.00000E+000	-3.23283E-005	-5.39641E-002	3.65572E-001	3.57170E+000	9	...........
	72	0.97333	3.60597E-001	-8.86530E-005	0.00000E+000	-3.19680E-005	-5.39641E-002	3.60639E-001	3.57170E+000	9	...........
	73	0.98667	3.55685E-001	-8.87509E-005	0.00000E+000	-3.15674E-005	-5.39641E-002	3.55721E-001	3.57170E+000	9	...........
	74	1	3.50788E-001	-8.87311E-005	0.00000E+000	-3.11258E-005	-5.39641E-002	3.50824E-001	3.57170E+000	9	...........
	75	1.01333	3.45926E-001	-8.86749E-005	0.00000E+000	-3.06750E-005	-5.39641E-002	3.45963E-001	3.57170E+000	9	...........
	76	1.02667	3.41078E-001	-8.87363E-005	0.00000E+000	-3.02660E-005	-5.39641E-002	3.41119E-001	3.57170E+000	9	...........
	77	1.04	3.36279E-001	-8.85488E-005	0.00000E+000	-2.97771E-005	-5.39641E-002	3.36317E-001	3.57170E+000	9	...........
	78	1.05333	3.31493E-001	-8.85707E-005	0.00000E+000	-2.93606E-005	-5.39641E-002	3.31529E-001	3.57170E+000	9	...........
	79	1.06667	3.26711E-001	-8.85040E-005	0.00000E+000	-2.89152E-005	-5.39641E-002	3.26743E-001	3.57170E+000	9	...........
	80	1.08	3.21961E-001	-8.87655E-005	0.00000E+000	-2.85790E-005	-5.39641E-002	3.21991E-001	3.57170E+000	9	...........
	81	1.09333	3.17214E-001	-8.88395E-005	0.00000E+000	-2.81811E-005	-5.39641E-002	3.17253E-001	3.57170E+000	9	...........
	82	1.10667	3.12485E-001	-8.86269E-005	0.00000E+000	-2.76946E-005	-5.39641E-002	3.12519E-001	3.57170E+000	9	...........
	83	1.12	3.07768E-001	-8.85696E-005	0.00000E+000	-2.72589E-005	-5.39641E-002	3.07801E-001	3.57170E+000	9	...........
	84	1.13333	3.03073E-001	-8.87572E-005	0.00000E+000	-2.68999E-005	-5.39641E-002	3.03104E-001	3.57170E+000	9	...........
	85	1.14667	2.98390E-001	-8.85332E-005	0.00000E+000	-2.64174E-005	-5.39641E-002	2.98421E-001	3.57170E+000	9	...........
	86	1.16	2.93747E-001	-8.86259E-005	0.00000E+000	-2.60336E-005	-5.39641E-002	2.93780E-001	3.57170E+000	9	...........
	87	1.17333	2.89121E-001	-8.87499E-005	0.00000E+000	-2.56594E-005	-5.39641E-002	2.89149E-001	3.57170E+000	9	...........
	88	1.18667	2.84518E-001	-8.86144E-005	0.00000E+000	-2.52124E-005	-5.39641E-002	2.84547E-001	3.57170E+000	9	...........
	89	1.2	2.79938E-001	-8.87759E-005	0.00000E+000	-2.48517E-005	-5.39641E-002	2.79965E-001	3.57170E+000	9	...........
	90	1.21333	2.75383E-001	-8.86957E-005	0.00000E+000	-2.44253E-005	-5.39641E-002	2.75413E-001	3.57170E+000	9	...........
	91	1.22667	2.70846E-001	-8.87947E-005	0.00000E+000	-2.40496E-005	-5.39641E-002	2.70874E-001	3.57170E+000	9	...........
	92	1.24	2.66344E-001	-8.88020E-005	0.00000E+000	-2.36519E-005	-5.39641E-002	2.66372E-001	3.57170E+000	9	...........
	93	1.25333	2.61868E-001	-8.87467E-005	0.00000E+000	-2.32400E-005	-5.39641E-002	2.61896E-001	3.57170E+000	9	...........
	94	1.26667	2.57387E-001	-8.84602E-005	0.00000E+000	-2.27685E-005	-5.39641E-002	2.57413E-001	3.57170E+000	9	...........
	95	1.28	2.52935E-001	-8.86019E-005	0.00000E+000	-2.24106E-005	-5.39641E-002	2.52963E-001	3.57170E+000	9	...........
	96	1.29333	2.48545E-001	-8.88666E-005	0.00000E+000	-2.20873E-005	-5.39641E-002	2.48565E-001	3.57170E+000	9	...........
	97	1.30667	2.44173E-001	-8.85321E-005	0.00000E+000	-2.16172E-005	-5.39641E-002	2.44191E-001	3.57170E+000	9	...........
	98	1.32	2.39803E-001	-8.86624E-005	0.00000E+000	-2.12615E-005	-5.39641E-002	2.39826E-001	3.57170E+000	9	...........
	99	1.33333	2.35447E-001	-8.85134E-005	0.00000E+000	-2.08402E-005	-5.39641E-002	2.35469E-001	3.57170E+000	9	...........
	100	1.34667	2.31116E-001	-8.85894E-005	0.00000E+000	-2.04744E-005	-5.39641E-002	2.31136E-001	3.57170E+000	9	...........
	101	1.36	2.26793E-001	-8.86582E-005	0.00000E+000	-2.01070E-005	-5.39641E-002	2.26811E-001	3.57170E+000	9	...........
	102	1.37333	2.22499E-001	-8.88968E-005	0.00000E+000	-1.97794E-005	-5.39641E-002	2.22525E-001	3.57170E+000	9	...........
	103	1.38667	2.18232E-001	-8.87405E-005	0.00000E+000	-1.93660E-005	-5.39641E-002	2.18255E-001	3.57170E+000	9	...........
	104	1.4	2.13979E-001	-8.87822E-005	0.00000E+000	-1.89975E-005	-5.39641E-002	2.13994E-001	3.57170E+000	9	...........
	105	1.41333	2.09751E-001	-8.88207E-005	0.00000E+000	-1.86303E-005	-5.39641E-002	2.09767E-001	3.57170E+000	9	...........
	106	1.42667	2.05549E-001	-8.87895E-005	0.00000E+000	-1.82506E-005	-5.39641E-002	2.05565E-001	3.57170E+000	9	...........
	107	1.44	2.01375E-001	-8.87082E-005	0.00000E+000	-1.78636E-005	-5.39641E-002	2.01389E-001	3.57170E+000	9	...........
	108	1.45333	1.97206E-001	-8.86738E-005	0.00000E+000	-1.74870E-005	-5.39641E-002	1.97224E-001	3.57170E+000	9	...........
	109	1.46667	1.93042E-001	-8.87822E-005	0.00000E+000	-1.71387E-005	-5.39641E-002	1.93060E-001	3.57170E+000	9	...........
	110	1.48	1.88899E-001	-8.86790E-005	0.00000E+000	-1.67514E-005	-5.39641E-002	1.88922E-001	3.57170E+000	9	...........
	111	1.49333	1.84768E-001	-8.87811E-005	0.00000E+000	-1.64039E-005	-5.39641E-002	1.84788E-001	3.57170E+000	9	...........
	112	1.50667	1.80651E-001	-8.89739E-005	0.00000E+000	-1.60732E-005	-5.39641E-002	1.80671E-001	3.57170E+000	9	...........
	113	1.52	1.76551E-001	-8.86957E-005	0.00000E+000	-1.56593E-005	-5.39641E-002	1.76568E-001	3.57170E+000	9	...........
	114	1.53333	1.72475E-001	-8.90072E-005	0.00000E+000	-1.53515E-005	-5.39641E-002	1.72492E-001	3.57170E+000	9	...........
	115	1.54667	1.68428E-001	-8.86540E-005	0.00000E+000	-1.49318E-005	-5.39641E-002	1.68447E-001	3.57170E+000	9	...........
	116	1.56	1.64397E-001	-8.89260E-005	0.00000E+000	-1.46192E-005	-5.39641E-002	1.64409E-001	3.57170E+000	9	...........
	117	1.57333	1.60388E-001	-8.84904E-005	0.00000E+000	-1.41928E-005	-5.39641E-002	1.60406E-001	3.57170E+000	9	...........
	118	1.58667	1.56383E-001	-8.85905E-005	0.00000E+000	-1.38541E-005	-5.39641E-002	1.56399E-001	3.57170E+000	9	...........
	119	1.6	1.52388E-001	-8.85207E-005	0.00000E+000	-1.34895E-005	-5.39641E-002	1.52397E-001	3.57170E+000	9	...........
	120	1.61333	1.48405E-001	-8.88634E-005	0.00000E+000	-1.31878E-005	-5.39641E-002	1.48419E-001	3.57170E+000	9	...........
	121	1.62667	1.44441E-001	-8.88238E-005	0.00000E+000	-1.28298E-005	-5.39641E-002	1.44450E-001	3.57170E+000	9	...........
	122	1.64	1.40509E-001	-8.88124E-005	0.00000E+000	-1.24789E-005	-5.39641E-002	1.40515E-001	3.57170E+000	9	...........
	123	1.65333	1.36593E-001	-8.86426E-005	0.00000E+000	-1.21079E-005	-5.39641E-002	1.36598E-001	3.57170E+000	9	...........
	124	1.66667	1.32699E-001	-8.87499E-005	0.00000E+000	-1.17770E-005	-5.39641E-002	1.32711E-001	3.57170E+000	9	...........
	125	1.68	1.28803E-001	-8.89072E-005	0.00000E+000	-1.14515E-005	-5.39641E-002	1.28810E-001	3.57170E+000	9	...........
	126	1.69333	1.24902E-001	-8.83873E-005	0.00000E+000	-1.10397E-005	-5.39641E-002	1.24911E-001	3.57170E+000	9	...........
	127	1.70667	1.21008E-001	-8.88916E-005	0.00000E+000	-1.07565E-005	-5.39641E-002	1.21020E-001	3.57170E+000	9	...........
	128	1.72	1.17152E-001	-8.86342E-005	0.00000E+000	-1.03837E-005	-5.39641E-002	1.17168E-001	3.57170E+000	9	...........
	129	1.73333	1.13320E-001	-8.88124E-005	0.00000E+000	-1.00642E-005	-5.39641E-002	1.13329E-001	3.57170E+000	9	...........
	130	1.74667	1.09490E-001	-8.90135E-005	0.00000E+000	-9.74607E-006	-5.39641E-002	1.09496E-001	3.57170E+000	9	...........
	131	1.76	1.05662E-001	-8.86509E-005	0.00000E+000	-9.36702E-006	-5.39641E-002	1.05672E-001	3.57170E+000	9	...........
	132	1.77333	1.01857E-001	-8.86353E-005	0.00000E+000	-9.02815E-006	-5.39641E-002	1.01867E-001	3.57170E+000	9	...........
	133	1.78667	9.80773E-002	-8.88864E-005	0.00000E+000	-8.71773E-006	-5.39641E-002	9.80884E-002	3.57170E+000	9	...........
	134	1.8	9.43009E-002	-8.87353E-005	0.00000E+000	-8.36782E-006	-5.39641E-002	9.43050E-002	3.57170E+000	9	...........
	135	1.81333	9.05356E-002	-8.87676E-005	0.00000E+000	-8.03663E-006	-5.39641E-002	9.05394E-002	3.57170E+000	9	...........
	136	1.82667	8.67934E-002	-8.89364E-005	0.00000E+000	-7.71909E-006	-5.39641E-002	8.67997E-002	3.57170E+000	9	...........
	137	1.84	8.30595E-002	-8.86926E-005	0.00000E+000	-7.36676E-006	-5.39641E-002	8.30689E-002	3.57170E+000	9	...........
	138	1.85333	7.93543E-002	-8.87572E-005	0.00000E+000	-7.04326E-006	-5.39641E-002	7.93525E-002	3.57170E+000	9	...........
	139	1.86667	7.56516E-002	-8.87509E-005	0.00000E+000	-6.71415E-006	-5.39641E-002	7.56532E-002	3.57170E+000	9	...........
	140	1.88	7.19898E-002	-8.86738E-005	0.00000E+000	-6.38361E-006	-5.39641E-002	7.19909E-002	3.57170E+000	9	...........
	141	1.89333	6.83269E-002	-8.85696E-005	0.00000E+000	-6.05169E-006	-5.39641E-002	6.83282E-002	3.57170E+000	9	...........
	142	1.90667	6.46758E-002	-8.88103E-005	0.00000E+000	-5.74388E-006	-5.39641E-002	6.46784E-002	3.57170E+000	9	...........
	143	1.92	6.10395E-002	-8.85415E-005	0.00000E+000	-5.40452E-006	-5.39641E-002	6.10428E-002	3.57170E+000	9	...........
	144	1.93333	5.74290E-002	-8.87228E-005	0.00000E+000	-5.09526E-006	-5.39641E-002	5.74260E-002	3.57170E+000	9	...........
	145	1.94667	5.38266E-002	-8.87780E-005	0.00000E+000	-4.77862E-006	-5.39641E-002	5.38271E-002	3.57170E+000	9	...........
	146	1.96	5.02352E-002	-8.89291E-005	0.00000E+000	-4.46737E-006	-5.39641E-002	5.02316E-002	3.57170E+000	9	...........
	147	1.97333	4.66724E-002	-8.82987E-005	0.00000E+000	-4.12112E-006	-5.39641E-002	4.66704E-002	3.57170E+000	9	...........
	148	1.98667	4.30972E-002	-8.86832E-005	0.00000E+000	-3.82200E-006	-5.39641E-002	4.31070E-002	3.57170E+000	9	...........
	149	2	3.95482E-002	-8.86915E-005	0.00000E+000	-3.50759E-006	-5.39641E-002	3.95509E-002	3.57170E+000	9	...........
	150	2.01333	3.60155E-002	-8.85863E-005	0.00000E+000	-3.19048E-006	-5.39641E-002	3.60153E-002	3.57170E+000	9	...........
	151	2.02667	3.24943E-002	-8.86446E-005	0.00000E+000	-2.88044E-006	-5.39641E-002	3.24982E-002	3.57170E+000	9	...........
	152	2.04	2.89974E-002	-8.90676E-005	0.00000E+000	-2.58273E-006	-5.39641E-002	2.90006E-002	3.57170E+000	9	...........
	153	2.05333	2.55218E-002	-8.85800E-005	0.00000E+000	-2.26072E-006	-5.39641E-002	2.55212E-002	3.57170E+000	9	...........
	154	2.06667	2.20545E-002	-8.88436E-005	0.00000E+000	-1.95940E-006	-5.39641E-002	2.20515E-002	3.57170E+000	9	...........
	155	2.08	1.86069E-002	-8.87832E-005	0.00000E+000	-1.65198E-006	-5.39641E-002	1.86078E-002	3.57170E+000	9	...........
	156	2.09333	1.51933E-002	-8.87249E-005	0.00000E+000	-1.34802E-006	-5.39641E-002	1.51875E-002	3.57170E+000	9	...........
	157	2.10667	1.17875E-002	-8.86957E-005	0.00000E+000	-1.04550E-006	-5.39641E-002	1.17799E-002	3.57170E+000	9	...........
	158	2.12	8.39329E-003	-8.85217E-005	0.00000E+000	-7.42988E-007	-5.39641E-002	8.38265E-003	3.57170E+000	9	...........
	159	2.13333	5.02768E-003	-8.85853E-005	0.00000E+000	-4.45378E-007	-5.39641E-002	5.01275E-003	3.57170E+000	9	...........
	160	2.14667	1.68824E-003	-8.88968E-005	0.00000E+000	-1.50079E-007	-5.39641E-002	1.67518E-003	3.57170E+000	9	...........
	161	2.14833	-1.87641E-004	-8.86915E-005	0.00000E+000	1.66422E-008	-5.39641E-002	-2.05920E-004	3.57170E+000	9	...........
STARTTIMEOFFSET	QUANT	700.27	Start Time Offset (s)
