EXPLAIN
TAG	PWR800_DISCHARGE
TITLE	LABEL	PWR Cyclic Charge Discharge (Cell) - Discharge Step	Test &Identifier
DATE	LABEL	10-7-2017	Date
TIME	LABEL	15:28:06	Time
NOTES	NOTES	3	&Notes...
	supercap test cell
	0.9mg
	6M KOH
PSTAT	PSTAT	IFC5000-01520	Potentiostat
CAPACITY	QUANT	1.00000E-003	Capacity (A-hr)
CELLTYPE	SELECTOR	1	&Cell Type
WORKINGCONNECTION	SELECTOR	0	&Working Lead
MAXDISCHARGETIME	VARIABLEANDUNITS	1.00000E+002	s	1.00000E+002	second(s)	Max &Discharge Time
DISCHARGEMODE	MULTIPARAM	0	9.00000E-005	&Discharge Mode	Constant Current	Amp(s)
SAMPLETIME	QUANT	1.00000E-002	Sa&mple Period (s)
DISCHARGESTOPAT1	MULTIPARAM	3	0.00000E+000	Discharge Stop At &1	Voltage < Limit	V
DISCHARGESTOPAT2	MULTIPARAM	0	0.00000E+000	Discharge Stop At &2	None	N/A
AESBHCSELECTOR	TOGGLE	F	Save Both Half Cells
IRCOMP	TOGGLE	F	IR &Measure
EOC	QUANT	0	Open Circuit (V)
SEQUENCER	TOGGLE	TRUE	Run as Sequence
PSTATMODEL	IQUANT	53	Pstat Model
PSTATSECTION	LABEL	IFC5000-01520	Pstat Section
PSTATSERIALNO	LABEL	01520	Pstat Serial Number
CTRLMODE	IQUANT	0	Control Mode
ELECTROMETER	IQUANT	1	RE=0 or CS=1
IESTAB	IQUANT	0	I/E Stability
CASPEED	IQUANT	4	Control Amp Speed
CONVENTION	IQUANT	1	Current Convention
ICHRANGE	IQUANT	2	Ich Range
ICHRANGEMODE	TOGGLE	T	Ich Auto Range
ICHOFFSETENABLE	TOGGLE	F	Ich Offset Enable
ICHOFFSET	QUANT	0	Ich Offset (V)
ICHFILTER	IQUANT	1	Ich Filter
VCHRANGE	IQUANT	2	Vch Range
VCHRANGEMODE	TOGGLE	T	Vch Auto Range
VCHOFFSETENABLE	TOGGLE	F	Vch Offset Enable
VCHOFFSET	QUANT	0	Vch Offset (V)
VCHFILTER	IQUANT	1	Vch Filter
IERANGELOWERLIMIT	IQUANT	9	I/E Range Lower Limit
IERANGEMODE	TOGGLE	F	I/E AutoRange
IERANGE	IQUANT	9	I/E Range
ACHSELECT	IQUANT	1	Ach Select
ACHRANGE	IQUANT	2	Ach Range
ACHOFFSETENABLE	TOGGLE	F	Ach Offset Enable
ACHOFFSET	QUANT	0	Ach Offset (V)
ACHFILTER	IQUANT	1	Ach Filter
CABLEID	IQUANT	14	Cable ID
DCCALDATE	LABEL	5-7-2017	DC Calibration Date
ACCALDATE	LABEL	12/3/2015	AC Calibration Date
FRAMEWORKVERSION	QUANT	7.01	Framework Version
INSTRUMENTVERSION	LABEL	4.00	Instrument Version
CURVE	TABLE	157
	Pt	T	Vf	Im	Vu	Pwr	Sig	Ach	Temp	IERange	Over
	#	s	V	A	V	W	V	V	deg C	#	bits
	0	0.013333	8.17821E-001	-8.88218E-005	0.00000E+000	-7.26403E-005	-5.39641E-002	8.18005E-001	3.57310E+000	9	...........
	1	0.026667	8.04843E-001	-8.87478E-005	0.00000E+000	-7.14280E-005	-5.39641E-002	8.04980E-001	3.57310E+000	9	...........
	2	0.04	7.92676E-001	-8.83300E-005	0.00000E+000	-7.00170E-005	-5.39641E-002	7.92811E-001	3.57310E+000	9	...........
	3	0.053333	7.81125E-001	-8.89093E-005	0.00000E+000	-6.94493E-005	-5.39641E-002	7.81272E-001	3.57310E+000	9	...........
	4	0.066667	7.70169E-001	-8.87040E-005	0.00000E+000	-6.83171E-005	-5.39641E-002	7.70301E-001	3.57310E+000	9	...........
	5	0.08	7.59641E-001	-8.86561E-005	0.00000E+000	-6.73468E-005	-5.39641E-002	7.59765E-001	3.57310E+000	9	...........
	6	0.093333	7.49510E-001	-8.86728E-005	0.00000E+000	-6.64611E-005	-5.39641E-002	7.49645E-001	3.57310E+000	9	...........
	7	0.106667	7.39759E-001	-8.87801E-005	0.00000E+000	-6.56758E-005	-5.39641E-002	7.39863E-001	3.57310E+000	9	...........
	8	0.12	7.30316E-001	-8.89207E-005	0.00000E+000	-6.49403E-005	-5.39641E-002	7.30423E-001	3.57310E+000	9	...........
	9	0.133333	7.21189E-001	-8.88207E-005	0.00000E+000	-6.40565E-005	-5.39641E-002	7.21283E-001	3.57310E+000	9	...........
	10	0.146667	7.12252E-001	-8.87061E-005	0.00000E+000	-6.31811E-005	-5.39641E-002	7.12371E-001	3.57310E+000	9	...........
	11	0.16	7.03623E-001	-8.86321E-005	0.00000E+000	-6.23636E-005	-5.39641E-002	7.03701E-001	3.57310E+000	9	...........
	12	0.173333	6.95211E-001	-8.85592E-005	0.00000E+000	-6.15673E-005	-5.39641E-002	6.95304E-001	3.57310E+000	9	...........
	13	0.186667	6.86968E-001	-8.87530E-005	0.00000E+000	-6.09705E-005	-5.39641E-002	6.87047E-001	3.57310E+000	9	...........
	14	0.2	6.78945E-001	-8.86842E-005	0.00000E+000	-6.02117E-005	-5.39641E-002	6.79025E-001	3.57310E+000	9	...........
	15	0.213333	6.71098E-001	-8.86957E-005	0.00000E+000	-5.95235E-005	-5.39641E-002	6.71180E-001	3.57310E+000	9	...........
	16	0.226667	6.63403E-001	-8.89343E-005	0.00000E+000	-5.89993E-005	-5.39641E-002	6.63479E-001	3.57310E+000	9	...........
	17	0.24	6.55891E-001	-8.89114E-005	0.00000E+000	-5.83162E-005	-5.39641E-002	6.55984E-001	3.57310E+000	9	...........
	18	0.253333	6.48517E-001	-8.87322E-005	0.00000E+000	-5.75443E-005	-5.39641E-002	6.48636E-001	3.57310E+000	9	...........
	19	0.266667	6.41282E-001	-8.87457E-005	0.00000E+000	-5.69110E-005	-5.39641E-002	6.41413E-001	3.57310E+000	9	...........
	20	0.28	6.34167E-001	-8.87509E-005	0.00000E+000	-5.62829E-005	-5.39641E-002	6.34278E-001	3.57310E+000	9	...........
	21	0.293333	6.27192E-001	-8.87811E-005	0.00000E+000	-5.56828E-005	-5.39641E-002	6.27303E-001	3.57310E+000	9	...........
	22	0.306667	6.20324E-001	-8.87915E-005	0.00000E+000	-5.50796E-005	-5.39641E-002	6.20424E-001	3.57310E+000	9	...........
	23	0.32	6.13517E-001	-8.88082E-005	0.00000E+000	-5.44853E-005	-5.39641E-002	6.13647E-001	3.57310E+000	9	...........
	24	0.333333	6.06811E-001	-8.87144E-005	0.00000E+000	-5.38329E-005	-5.39641E-002	6.06957E-001	3.57310E+000	9	...........
	25	0.346667	6.00257E-001	-8.86842E-005	0.00000E+000	-5.32333E-005	-5.39641E-002	6.00371E-001	3.57310E+000	9	...........
	26	0.36	5.93802E-001	-8.85425E-005	0.00000E+000	-5.25768E-005	-5.39641E-002	5.93918E-001	3.57310E+000	9	...........
	27	0.373333	5.87414E-001	-8.86571E-005	0.00000E+000	-5.20784E-005	-5.39641E-002	5.87498E-001	3.57310E+000	9	...........
	28	0.386667	5.81075E-001	-8.86530E-005	0.00000E+000	-5.15140E-005	-5.39641E-002	5.81173E-001	3.57310E+000	9	...........
	29	0.4	5.74870E-001	-8.86103E-005	0.00000E+000	-5.09394E-005	-5.39641E-002	5.74967E-001	3.57310E+000	9	...........
	30	0.413333	5.68695E-001	-8.89280E-005	0.00000E+000	-5.05730E-005	-5.39641E-002	5.68806E-001	3.57310E+000	9	...........
	31	0.426667	5.62567E-001	-8.90197E-005	0.00000E+000	-5.00795E-005	-5.39641E-002	5.62692E-001	3.57310E+000	9	...........
	32	0.44	5.56517E-001	-8.84717E-005	0.00000E+000	-4.92360E-005	-5.39641E-002	5.56630E-001	3.57310E+000	9	...........
	33	0.453333	5.50566E-001	-8.87197E-005	0.00000E+000	-4.88460E-005	-5.39641E-002	5.50687E-001	3.57310E+000	9	...........
	34	0.466667	5.44693E-001	-8.87957E-005	0.00000E+000	-4.83664E-005	-5.39641E-002	5.44800E-001	3.57310E+000	9	...........
	35	0.48	5.38858E-001	-8.87186E-005	0.00000E+000	-4.78067E-005	-5.39641E-002	5.38966E-001	3.57310E+000	9	...........
	36	0.493333	5.33053E-001	-8.87822E-005	0.00000E+000	-4.73256E-005	-5.39641E-002	5.33164E-001	3.57310E+000	9	...........
	37	0.506667	5.27316E-001	-8.88614E-005	0.00000E+000	-4.68580E-005	-5.39641E-002	5.27410E-001	3.57310E+000	9	...........
	38	0.52	5.21598E-001	-8.88926E-005	0.00000E+000	-4.63662E-005	-5.39641E-002	5.21674E-001	3.57310E+000	9	...........
	39	0.533333	5.15967E-001	-8.86915E-005	0.00000E+000	-4.57619E-005	-5.39641E-002	5.16024E-001	3.57310E+000	9	...........
	40	0.546667	5.10336E-001	-8.87165E-005	0.00000E+000	-4.52753E-005	-5.39641E-002	5.10413E-001	3.57310E+000	9	...........
	41	0.56	5.04715E-001	-8.86926E-005	0.00000E+000	-4.47645E-005	-5.39641E-002	5.04823E-001	3.57310E+000	9	...........
	42	0.573333	4.99188E-001	-8.86290E-005	0.00000E+000	-4.42426E-005	-5.39641E-002	4.99278E-001	3.57310E+000	9	...........
	43	0.586667	4.93725E-001	-8.86342E-005	0.00000E+000	-4.37609E-005	-5.39641E-002	4.93811E-001	3.57310E+000	9	...........
	44	0.6	4.88276E-001	-8.85582E-005	0.00000E+000	-4.32408E-005	-5.39641E-002	4.88361E-001	3.57310E+000	9	...........
	45	0.613333	4.82904E-001	-8.88520E-005	0.00000E+000	-4.29070E-005	-5.39641E-002	4.82968E-001	3.57310E+000	9	...........
	46	0.626667	4.77516E-001	-8.88270E-005	0.00000E+000	-4.24163E-005	-5.39641E-002	4.77577E-001	3.57310E+000	9	...........
	47	0.64	4.72155E-001	-8.90156E-005	0.00000E+000	-4.20291E-005	-5.39641E-002	4.72215E-001	3.57310E+000	9	...........
	48	0.653333	4.66801E-001	-8.86957E-005	0.00000E+000	-4.14033E-005	-5.39641E-002	4.66862E-001	3.57310E+000	9	...........
	49	0.666667	4.61472E-001	-8.86415E-005	0.00000E+000	-4.09056E-005	-5.39641E-002	4.61533E-001	3.57310E+000	9	...........
	50	0.68	4.56209E-001	-8.86519E-005	0.00000E+000	-4.04438E-005	-5.39641E-002	4.56265E-001	3.57310E+000	9	...........
	51	0.693333	4.50963E-001	-8.89624E-005	0.00000E+000	-4.01188E-005	-5.39641E-002	4.51020E-001	3.57310E+000	9	...........
	52	0.706667	4.45770E-001	-8.87530E-005	0.00000E+000	-3.95634E-005	-5.39641E-002	4.45826E-001	3.57310E+000	9	...........
	53	0.72	4.40566E-001	-8.85769E-005	0.00000E+000	-3.90239E-005	-5.39641E-002	4.40620E-001	3.57310E+000	9	...........
	54	0.733333	4.35397E-001	-8.87061E-005	0.00000E+000	-3.86224E-005	-5.39641E-002	4.35450E-001	3.57310E+000	9	...........
	55	0.746667	4.30237E-001	-8.86290E-005	0.00000E+000	-3.81315E-005	-5.39641E-002	4.30289E-001	3.57310E+000	9	...........
	56	0.76	4.25077E-001	-8.87884E-005	0.00000E+000	-3.77419E-005	-5.39641E-002	4.25128E-001	3.57310E+000	9	...........
	57	0.773333	4.19948E-001	-8.85894E-005	0.00000E+000	-3.72029E-005	-5.39641E-002	4.20003E-001	3.57310E+000	9	...........
	58	0.786667	4.14846E-001	-8.88259E-005	0.00000E+000	-3.68491E-005	-5.39641E-002	4.14902E-001	3.57310E+000	9	...........
	59	0.8	4.09765E-001	-8.88530E-005	0.00000E+000	-3.64088E-005	-5.39641E-002	4.09817E-001	3.57310E+000	9	...........
	60	0.813333	4.04698E-001	-8.88416E-005	0.00000E+000	-3.59540E-005	-5.39641E-002	4.04749E-001	3.57310E+000	9	...........
	61	0.826667	3.99617E-001	-8.88332E-005	0.00000E+000	-3.54993E-005	-5.39641E-002	3.99665E-001	3.57310E+000	9	...........
	62	0.84	3.94560E-001	-8.87936E-005	0.00000E+000	-3.50344E-005	-5.39641E-002	3.94604E-001	3.57310E+000	9	...........
	63	0.853333	3.89508E-001	-8.87957E-005	0.00000E+000	-3.45866E-005	-5.39641E-002	3.89556E-001	3.57310E+000	9	...........
	64	0.866667	3.84492E-001	-8.88676E-005	0.00000E+000	-3.41689E-005	-5.39641E-002	3.84536E-001	3.57310E+000	9	...........
	65	0.88	3.79498E-001	-8.87540E-005	0.00000E+000	-3.36820E-005	-5.39641E-002	3.79543E-001	3.57341E+000	9	...........
	66	0.893333	3.74529E-001	-8.88686E-005	0.00000E+000	-3.32839E-005	-5.39641E-002	3.74567E-001	3.57360E+000	9	...........
	67	0.906667	3.69577E-001	-8.86894E-005	0.00000E+000	-3.27776E-005	-5.39641E-002	3.69618E-001	3.57360E+000	9	...........
	68	0.92	3.64623E-001	-8.88176E-005	0.00000E+000	-3.23850E-005	-5.39641E-002	3.64662E-001	3.57360E+000	9	...........
	69	0.933333	3.59661E-001	-8.87738E-005	0.00000E+000	-3.19285E-005	-5.39641E-002	3.59701E-001	3.57360E+000	9	...........
	70	0.946667	3.54746E-001	-8.86176E-005	0.00000E+000	-3.14367E-005	-5.39641E-002	3.54785E-001	3.57360E+000	9	...........
	71	0.96	3.49860E-001	-8.87592E-005	0.00000E+000	-3.10533E-005	-5.39641E-002	3.49903E-001	3.57360E+000	9	...........
	72	0.97333	3.44985E-001	-8.87947E-005	0.00000E+000	-3.06328E-005	-5.39641E-002	3.45026E-001	3.57360E+000	9	...........
	73	0.98667	3.40152E-001	-8.87613E-005	0.00000E+000	-3.01923E-005	-5.39641E-002	3.40192E-001	3.57360E+000	9	...........
	74	1	3.35368E-001	-8.87520E-005	0.00000E+000	-2.97646E-005	-5.39641E-002	3.35402E-001	3.57360E+000	9	...........
	75	1.01333	3.30591E-001	-8.88166E-005	0.00000E+000	-2.93619E-005	-5.39641E-002	3.30623E-001	3.57360E+000	9	...........
	76	1.02667	3.25818E-001	-8.87124E-005	0.00000E+000	-2.89041E-005	-5.39641E-002	3.25857E-001	3.57360E+000	9	...........
	77	1.04	3.21038E-001	-8.88426E-005	0.00000E+000	-2.85218E-005	-5.39641E-002	3.21073E-001	3.57360E+000	9	...........
	78	1.05333	3.16264E-001	-8.86405E-005	0.00000E+000	-2.80338E-005	-5.39641E-002	3.16298E-001	3.57360E+000	9	...........
	79	1.06667	3.11515E-001	-8.87207E-005	0.00000E+000	-2.76378E-005	-5.39641E-002	3.11554E-001	3.57360E+000	9	...........
	80	1.08	3.06819E-001	-8.89197E-005	0.00000E+000	-2.72823E-005	-5.39641E-002	3.06854E-001	3.57360E+000	9	...........
	81	1.09333	3.02138E-001	-8.85144E-005	0.00000E+000	-2.67435E-005	-5.39641E-002	3.02172E-001	3.57360E+000	9	...........
	82	1.10667	2.97454E-001	-8.87582E-005	0.00000E+000	-2.64015E-005	-5.39641E-002	2.97487E-001	3.57360E+000	9	...........
	83	1.12	2.92763E-001	-8.89457E-005	0.00000E+000	-2.60400E-005	-5.39641E-002	2.92795E-001	3.57360E+000	9	...........
	84	1.13333	2.88089E-001	-8.86769E-005	0.00000E+000	-2.55469E-005	-5.39641E-002	2.88120E-001	3.57360E+000	9	...........
	85	1.14667	2.83462E-001	-8.89520E-005	0.00000E+000	-2.52145E-005	-5.39641E-002	2.83502E-001	3.57360E+000	9	...........
	86	1.16	2.78826E-001	-8.86634E-005	0.00000E+000	-2.47216E-005	-5.39641E-002	2.78863E-001	3.57360E+000	9	...........
	87	1.17333	2.74234E-001	-8.86467E-005	0.00000E+000	-2.43099E-005	-5.39641E-002	2.74271E-001	3.57360E+000	9	...........
	88	1.18667	2.69658E-001	-8.87207E-005	0.00000E+000	-2.39242E-005	-5.39641E-002	2.69692E-001	3.57360E+000	9	...........
	89	1.2	2.65110E-001	-8.89187E-005	0.00000E+000	-2.35732E-005	-5.39641E-002	2.65144E-001	3.57360E+000	9	...........
	90	1.21333	2.60595E-001	-8.86926E-005	0.00000E+000	-2.31129E-005	-5.39641E-002	2.60627E-001	3.57360E+000	9	...........
	91	1.22667	2.56090E-001	-8.89051E-005	0.00000E+000	-2.27677E-005	-5.39641E-002	2.56119E-001	3.57360E+000	9	...........
	92	1.24	2.51607E-001	-8.85300E-005	0.00000E+000	-2.22747E-005	-5.39641E-002	2.51635E-001	3.57360E+000	9	...........
	93	1.25333	2.47110E-001	-8.86280E-005	0.00000E+000	-2.19008E-005	-5.39641E-002	2.47134E-001	3.57360E+000	9	...........
	94	1.26667	2.42630E-001	-8.90197E-005	0.00000E+000	-2.15989E-005	-5.39641E-002	2.42653E-001	3.57360E+000	9	...........
	95	1.28	2.38167E-001	-8.88072E-005	0.00000E+000	-2.11509E-005	-5.39641E-002	2.38195E-001	3.57360E+000	9	...........
	96	1.29333	2.33736E-001	-8.88541E-005	0.00000E+000	-2.07684E-005	-5.39641E-002	2.33758E-001	3.57360E+000	9	...........
	97	1.30667	2.29311E-001	-8.85644E-005	0.00000E+000	-2.03088E-005	-5.39641E-002	2.29338E-001	3.57360E+000	9	...........
	98	1.32	2.24932E-001	-8.87592E-005	0.00000E+000	-1.99648E-005	-5.39641E-002	2.24955E-001	3.57360E+000	9	...........
	99	1.33333	2.20580E-001	-8.89061E-005	0.00000E+000	-1.96109E-005	-5.39641E-002	2.20605E-001	3.57360E+000	9	...........
	100	1.34667	2.16236E-001	-8.87030E-005	0.00000E+000	-1.91808E-005	-5.39641E-002	2.16260E-001	3.57360E+000	9	...........
	101	1.36	2.11939E-001	-8.90124E-005	0.00000E+000	-1.88652E-005	-5.39641E-002	2.11966E-001	3.57360E+000	9	...........
	102	1.37333	2.07671E-001	-8.86863E-005	0.00000E+000	-1.84176E-005	-5.39641E-002	2.07692E-001	3.57360E+000	9	...........
	103	1.38667	2.03402E-001	-8.87155E-005	0.00000E+000	-1.80449E-005	-5.39641E-002	2.03429E-001	3.57360E+000	9	...........
	104	1.4	1.99156E-001	-8.86113E-005	0.00000E+000	-1.76474E-005	-5.39641E-002	1.99183E-001	3.57360E+000	9	...........
	105	1.41333	1.94929E-001	-8.87290E-005	0.00000E+000	-1.72958E-005	-5.39641E-002	1.94952E-001	3.57360E+000	9	...........
	106	1.42667	1.90699E-001	-8.87478E-005	0.00000E+000	-1.69241E-005	-5.39641E-002	1.90720E-001	3.57360E+000	9	...........
	107	1.44	1.86504E-001	-8.88957E-005	0.00000E+000	-1.65794E-005	-5.39641E-002	1.86526E-001	3.57360E+000	9	...........
	108	1.45333	1.82310E-001	-8.83665E-005	0.00000E+000	-1.61101E-005	-5.39641E-002	1.82333E-001	3.57360E+000	9	...........
	109	1.46667	1.78136E-001	-8.86874E-005	0.00000E+000	-1.57984E-005	-5.39641E-002	1.78158E-001	3.57360E+000	9	...........
	110	1.48	1.73992E-001	-8.88051E-005	0.00000E+000	-1.54514E-005	-5.39641E-002	1.74018E-001	3.57360E+000	9	...........
	111	1.49333	1.69863E-001	-8.86624E-005	0.00000E+000	-1.50605E-005	-5.39641E-002	1.69885E-001	3.57360E+000	9	...........
	112	1.50667	1.65756E-001	-8.87645E-005	0.00000E+000	-1.47133E-005	-5.39641E-002	1.65767E-001	3.57360E+000	9	...........
	113	1.52	1.61680E-001	-8.87520E-005	0.00000E+000	-1.43495E-005	-5.39641E-002	1.61693E-001	3.57360E+000	9	...........
	114	1.53333	1.57611E-001	-8.84133E-005	0.00000E+000	-1.39349E-005	-5.39641E-002	1.57624E-001	3.57360E+000	9	...........
	115	1.54667	1.53539E-001	-8.85467E-005	0.00000E+000	-1.35954E-005	-5.39641E-002	1.53554E-001	3.57360E+000	9	...........
	116	1.56	1.49487E-001	-8.87957E-005	0.00000E+000	-1.32738E-005	-5.39641E-002	1.49501E-001	3.57360E+000	9	...........
	117	1.57333	1.45452E-001	-8.87405E-005	0.00000E+000	-1.29075E-005	-5.39641E-002	1.45461E-001	3.57360E+000	9	...........
	118	1.58667	1.41432E-001	-8.84227E-005	0.00000E+000	-1.25058E-005	-5.39641E-002	1.41448E-001	3.57360E+000	9	...........
	119	1.6	1.37433E-001	-8.88457E-005	0.00000E+000	-1.22104E-005	-5.39641E-002	1.37443E-001	3.57360E+000	9	...........
	120	1.61333	1.33449E-001	-8.89583E-005	0.00000E+000	-1.18714E-005	-5.39641E-002	1.33455E-001	3.57360E+000	9	...........
	121	1.62667	1.29481E-001	-8.86384E-005	0.00000E+000	-1.14770E-005	-5.39641E-002	1.29492E-001	3.57360E+000	9	...........
	122	1.64	1.25532E-001	-8.87655E-005	0.00000E+000	-1.11429E-005	-5.39641E-002	1.25543E-001	3.57360E+000	9	...........
	123	1.65333	1.21597E-001	-8.85155E-005	0.00000E+000	-1.07632E-005	-5.39641E-002	1.21610E-001	3.57360E+000	9	...........
	124	1.66667	1.17675E-001	-8.88520E-005	0.00000E+000	-1.04557E-005	-5.39641E-002	1.17685E-001	3.57360E+000	9	...........
	125	1.68	1.13773E-001	-8.85571E-005	0.00000E+000	-1.00754E-005	-5.39641E-002	1.13781E-001	3.57360E+000	9	...........
	126	1.69333	1.09890E-001	-8.89166E-005	0.00000E+000	-9.77105E-006	-5.39641E-002	1.09899E-001	3.57360E+000	9	...........
	127	1.70667	1.06025E-001	-8.87436E-005	0.00000E+000	-9.40903E-006	-5.39641E-002	1.06032E-001	3.57360E+000	9	...........
	128	1.72	1.02176E-001	-8.88530E-005	0.00000E+000	-9.07865E-006	-5.39641E-002	1.02186E-001	3.57360E+000	9	...........
	129	1.73333	9.83373E-002	-8.87707E-005	0.00000E+000	-8.72948E-006	-5.39641E-002	9.83496E-002	3.57360E+000	9	...........
	130	1.74667	9.45103E-002	-8.88634E-005	0.00000E+000	-8.39851E-006	-5.39641E-002	9.45207E-002	3.57360E+000	9	...........
	131	1.76	9.06983E-002	-8.87165E-005	0.00000E+000	-8.04644E-006	-5.39641E-002	9.07103E-002	3.57360E+000	9	...........
	132	1.77333	8.69119E-002	-8.88426E-005	0.00000E+000	-7.72148E-006	-5.39641E-002	8.69176E-002	3.57360E+000	9	...........
	133	1.78667	8.31441E-002	-8.87780E-005	0.00000E+000	-7.38137E-006	-5.39641E-002	8.31528E-002	3.57360E+000	9	...........
	134	1.8	7.93928E-002	-8.90489E-005	0.00000E+000	-7.06984E-006	-5.39641E-002	7.93945E-002	3.57360E+000	9	...........
	135	1.81333	7.56498E-002	-8.88561E-005	0.00000E+000	-6.72195E-006	-5.39641E-002	7.56552E-002	3.57360E+000	9	...........
	136	1.82667	7.19149E-002	-8.89916E-005	0.00000E+000	-6.39982E-006	-5.39641E-002	7.19204E-002	3.57360E+000	9	...........
	137	1.84	6.81950E-002	-8.87957E-005	0.00000E+000	-6.05543E-006	-5.39641E-002	6.82014E-002	3.57360E+000	9	...........
	138	1.85333	6.44796E-002	-8.88353E-005	0.00000E+000	-5.72807E-006	-5.39641E-002	6.44816E-002	3.57360E+000	9	...........
	139	1.86667	6.07815E-002	-8.89697E-005	0.00000E+000	-5.40772E-006	-5.39641E-002	6.07857E-002	3.57360E+000	9	...........
	140	1.88	5.70969E-002	-8.88364E-005	0.00000E+000	-5.07228E-006	-5.39641E-002	5.70972E-002	3.57310E+000	9	...........
	141	1.89333	5.34375E-002	-8.87363E-005	0.00000E+000	-4.74184E-006	-5.39641E-002	5.34359E-002	3.57280E+000	9	...........
	142	1.90667	4.97934E-002	-8.86936E-005	0.00000E+000	-4.41636E-006	-5.39641E-002	4.97872E-002	3.57280E+000	9	...........
	143	1.92	4.61578E-002	-8.88832E-005	0.00000E+000	-4.10265E-006	-5.39641E-002	4.61655E-002	3.57280E+000	9	...........
	144	1.93333	4.25478E-002	-8.86384E-005	0.00000E+000	-3.77137E-006	-5.39641E-002	4.25542E-002	3.57280E+000	9	...........
	145	1.94667	3.89490E-002	-8.87749E-005	0.00000E+000	-3.45770E-006	-5.39641E-002	3.89552E-002	3.57280E+000	9	...........
	146	1.96	3.53639E-002	-8.88999E-005	0.00000E+000	-3.14385E-006	-5.39641E-002	3.53678E-002	3.57280E+000	9	...........
	147	1.97333	3.17923E-002	-8.87832E-005	0.00000E+000	-2.82262E-006	-5.39641E-002	3.17937E-002	3.57280E+000	9	...........
	148	1.98667	2.82453E-002	-8.87645E-005	0.00000E+000	-2.50718E-006	-5.39641E-002	2.82460E-002	3.57280E+000	9	...........
	149	2	2.47170E-002	-8.86363E-005	0.00000E+000	-2.19082E-006	-5.39641E-002	2.47148E-002	3.57280E+000	9	...........
	150	2.01333	2.12099E-002	-8.88405E-005	0.00000E+000	-1.88430E-006	-5.39641E-002	2.12049E-002	3.57280E+000	9	...........
	151	2.02667	1.77039E-002	-8.88301E-005	0.00000E+000	-1.57264E-006	-5.39641E-002	1.77009E-002	3.57280E+000	9	...........
	152	2.04	1.42277E-002	-8.88457E-005	0.00000E+000	-1.26407E-006	-5.39641E-002	1.42158E-002	3.57280E+000	9	...........
	153	2.05333	1.07743E-002	-8.87103E-005	0.00000E+000	-9.55789E-007	-5.39641E-002	1.07580E-002	3.57280E+000	9	...........
	154	2.06667	7.36015E-003	-8.87030E-005	0.00000E+000	-6.52867E-007	-5.39641E-002	7.34948E-003	3.57280E+000	9	...........
	155	2.08	3.94327E-003	-8.88197E-005	0.00000E+000	-3.50240E-007	-5.39641E-002	3.93210E-003	3.57280E+000	9	...........
	156	2.09	9.82982E-004	-8.86429E-005	0.00000E+000	-8.71344E-008	-5.39641E-002	9.68284E-004	3.57280E+000	9	...........
STARTTIMEOFFSET	QUANT	1462.124	Start Time Offset (s)
