EXPLAIN
TAG	PWR800_DISCHARGE
TITLE	LABEL	PWR Cyclic Charge Discharge (Cell) - Discharge Step	Test &Identifier
DATE	LABEL	10-7-2017	Date
TIME	LABEL	15:08:40	Time
NOTES	NOTES	3	&Notes...
	supercap test cell
	0.9mg
	6M KOH
PSTAT	PSTAT	IFC5000-01520	Potentiostat
CAPACITY	QUANT	1.00000E-003	Capacity (A-hr)
CELLTYPE	SELECTOR	1	&Cell Type
WORKINGCONNECTION	SELECTOR	0	&Working Lead
MAXDISCHARGETIME	VARIABLEANDUNITS	1.00000E+002	s	1.00000E+002	second(s)	Max &Discharge Time
DISCHARGEMODE	MULTIPARAM	0	9.00000E-005	&Discharge Mode	Constant Current	Amp(s)
SAMPLETIME	QUANT	1.00000E-002	Sa&mple Period (s)
DISCHARGESTOPAT1	MULTIPARAM	3	0.00000E+000	Discharge Stop At &1	Voltage < Limit	V
DISCHARGESTOPAT2	MULTIPARAM	0	0.00000E+000	Discharge Stop At &2	None	N/A
AESBHCSELECTOR	TOGGLE	F	Save Both Half Cells
IRCOMP	TOGGLE	F	IR &Measure
EOC	QUANT	0	Open Circuit (V)
SEQUENCER	TOGGLE	TRUE	Run as Sequence
PSTATMODEL	IQUANT	53	Pstat Model
PSTATSECTION	LABEL	IFC5000-01520	Pstat Section
PSTATSERIALNO	LABEL	01520	Pstat Serial Number
CTRLMODE	IQUANT	0	Control Mode
ELECTROMETER	IQUANT	1	RE=0 or CS=1
IESTAB	IQUANT	0	I/E Stability
CASPEED	IQUANT	4	Control Amp Speed
CONVENTION	IQUANT	1	Current Convention
ICHRANGE	IQUANT	2	Ich Range
ICHRANGEMODE	TOGGLE	T	Ich Auto Range
ICHOFFSETENABLE	TOGGLE	F	Ich Offset Enable
ICHOFFSET	QUANT	0	Ich Offset (V)
ICHFILTER	IQUANT	1	Ich Filter
VCHRANGE	IQUANT	2	Vch Range
VCHRANGEMODE	TOGGLE	T	Vch Auto Range
VCHOFFSETENABLE	TOGGLE	F	Vch Offset Enable
VCHOFFSET	QUANT	0	Vch Offset (V)
VCHFILTER	IQUANT	1	Vch Filter
IERANGELOWERLIMIT	IQUANT	9	I/E Range Lower Limit
IERANGEMODE	TOGGLE	F	I/E AutoRange
IERANGE	IQUANT	9	I/E Range
ACHSELECT	IQUANT	1	Ach Select
ACHRANGE	IQUANT	2	Ach Range
ACHOFFSETENABLE	TOGGLE	F	Ach Offset Enable
ACHOFFSET	QUANT	0	Ach Offset (V)
ACHFILTER	IQUANT	1	Ach Filter
CABLEID	IQUANT	14	Cable ID
DCCALDATE	LABEL	5-7-2017	DC Calibration Date
ACCALDATE	LABEL	12/3/2015	AC Calibration Date
FRAMEWORKVERSION	QUANT	7.01	Framework Version
INSTRUMENTVERSION	LABEL	4.00	Instrument Version
CURVE	TABLE	165
	Pt	T	Vf	Im	Vu	Pwr	Sig	Ach	Temp	IERange	Over
	#	s	V	A	V	W	V	V	deg C	#	bits
	0	0.013333	8.36481E-001	-8.86582E-005	0.00000E+000	-7.41608E-005	-5.39641E-002	8.36653E-001	3.57240E+000	9	...........
	1	0.026667	8.24798E-001	-8.86290E-005	0.00000E+000	-7.31010E-005	-5.39641E-002	8.24925E-001	3.57161E+000	9	...........
	2	0.04	8.13723E-001	-8.85967E-005	0.00000E+000	-7.20932E-005	-5.39641E-002	8.13852E-001	3.57140E+000	9	...........
	3	0.053333	8.03208E-001	-8.84988E-005	0.00000E+000	-7.10830E-005	-5.39641E-002	8.03306E-001	3.57140E+000	9	...........
	4	0.066667	7.93098E-001	-8.85394E-005	0.00000E+000	-7.02205E-005	-5.39641E-002	7.93171E-001	3.57140E+000	9	...........
	5	0.08	7.83345E-001	-8.86863E-005	0.00000E+000	-6.94719E-005	-5.39641E-002	7.83426E-001	3.57140E+000	9	...........
	6	0.093333	7.73927E-001	-8.87082E-005	0.00000E+000	-6.86537E-005	-5.39641E-002	7.74005E-001	3.57140E+000	9	...........
	7	0.106667	7.64778E-001	-8.84404E-005	0.00000E+000	-6.76373E-005	-5.39641E-002	7.64872E-001	3.57140E+000	9	...........
	8	0.12	7.55898E-001	-8.86342E-005	0.00000E+000	-6.69985E-005	-5.39641E-002	7.55990E-001	3.57140E+000	9	...........
	9	0.133333	7.47268E-001	-8.87311E-005	0.00000E+000	-6.63059E-005	-5.39641E-002	7.47314E-001	3.57140E+000	9	...........
	10	0.146667	7.38788E-001	-8.86530E-005	0.00000E+000	-6.54958E-005	-5.39641E-002	7.38861E-001	3.57140E+000	9	...........
	11	0.16	7.30581E-001	-8.88332E-005	0.00000E+000	-6.48999E-005	-5.39641E-002	7.30623E-001	3.57140E+000	9	...........
	12	0.173333	7.22513E-001	-8.88207E-005	0.00000E+000	-6.41742E-005	-5.39641E-002	7.22578E-001	3.57140E+000	9	...........
	13	0.186667	7.14573E-001	-8.88343E-005	0.00000E+000	-6.34786E-005	-5.39641E-002	7.14671E-001	3.57140E+000	9	...........
	14	0.2	7.06828E-001	-8.83342E-005	0.00000E+000	-6.24370E-005	-5.39641E-002	7.06959E-001	3.57140E+000	9	...........
	15	0.213333	6.99279E-001	-8.85957E-005	0.00000E+000	-6.19531E-005	-5.39641E-002	6.99373E-001	3.57140E+000	9	...........
	16	0.226667	6.91825E-001	-8.86967E-005	0.00000E+000	-6.13626E-005	-5.39641E-002	6.91909E-001	3.57140E+000	9	...........
	17	0.24	6.84489E-001	-8.85915E-005	0.00000E+000	-6.06400E-005	-5.39641E-002	6.84600E-001	3.57140E+000	9	...........
	18	0.253333	6.77325E-001	-8.87249E-005	0.00000E+000	-6.00956E-005	-5.39641E-002	6.77440E-001	3.57140E+000	9	...........
	19	0.266667	6.70243E-001	-8.86363E-005	0.00000E+000	-5.94079E-005	-5.39641E-002	6.70373E-001	3.57140E+000	9	...........
	20	0.28	6.63259E-001	-8.85332E-005	0.00000E+000	-5.87204E-005	-5.39641E-002	6.63385E-001	3.57140E+000	9	...........
	21	0.293333	6.56383E-001	-8.86592E-005	0.00000E+000	-5.81944E-005	-5.39641E-002	6.56497E-001	3.57140E+000	9	...........
	22	0.306667	6.49619E-001	-8.86978E-005	0.00000E+000	-5.76198E-005	-5.39641E-002	6.49733E-001	3.57140E+000	9	...........
	23	0.32	6.42943E-001	-8.87968E-005	0.00000E+000	-5.70912E-005	-5.39641E-002	6.43022E-001	3.57140E+000	9	...........
	24	0.333333	6.36305E-001	-8.84227E-005	0.00000E+000	-5.62638E-005	-5.39641E-002	6.36409E-001	3.57140E+000	9	...........
	25	0.346667	6.29808E-001	-8.89791E-005	0.00000E+000	-5.60397E-005	-5.39641E-002	6.29927E-001	3.57140E+000	9	...........
	26	0.36	6.23393E-001	-8.85009E-005	0.00000E+000	-5.51708E-005	-5.39641E-002	6.23467E-001	3.57140E+000	9	...........
	27	0.373333	6.17052E-001	-8.85738E-005	0.00000E+000	-5.46546E-005	-5.39641E-002	6.17117E-001	3.57140E+000	9	...........
	28	0.386667	6.10706E-001	-8.84394E-005	0.00000E+000	-5.40105E-005	-5.39641E-002	6.10802E-001	3.57140E+000	9	...........
	29	0.4	6.04484E-001	-8.85571E-005	0.00000E+000	-5.35313E-005	-5.39641E-002	6.04556E-001	3.57140E+000	9	...........
	30	0.413333	5.98343E-001	-8.85332E-005	0.00000E+000	-5.29732E-005	-5.39641E-002	5.98401E-001	3.57140E+000	9	...........
	31	0.426667	5.92252E-001	-8.88093E-005	0.00000E+000	-5.25974E-005	-5.39641E-002	5.92317E-001	3.57140E+000	9	...........
	32	0.44	5.86174E-001	-8.87988E-005	0.00000E+000	-5.20516E-005	-5.39641E-002	5.86248E-001	3.57140E+000	9	...........
	33	0.453333	5.80185E-001	-8.84415E-005	0.00000E+000	-5.13124E-005	-5.39641E-002	5.80240E-001	3.57140E+000	9	...........
	34	0.466667	5.74249E-001	-8.84321E-005	0.00000E+000	-5.07820E-005	-5.39641E-002	5.74315E-001	3.57140E+000	9	...........
	35	0.48	5.68376E-001	-8.86353E-005	0.00000E+000	-5.03782E-005	-5.39641E-002	5.68429E-001	3.57140E+000	9	...........
	36	0.493333	5.62458E-001	-8.85925E-005	0.00000E+000	-4.98296E-005	-5.39641E-002	5.62552E-001	3.57140E+000	9	...........
	37	0.506667	5.56637E-001	-8.85675E-005	0.00000E+000	-4.93000E-005	-5.39641E-002	5.56712E-001	3.57140E+000	9	...........
	38	0.52	5.50884E-001	-8.86196E-005	0.00000E+000	-4.88191E-005	-5.39641E-002	5.50941E-001	3.57140E+000	9	...........
	39	0.533333	5.45150E-001	-8.87040E-005	0.00000E+000	-4.83570E-005	-5.39641E-002	5.45224E-001	3.57140E+000	9	...........
	40	0.546667	5.39472E-001	-8.85988E-005	0.00000E+000	-4.77966E-005	-5.39641E-002	5.39566E-001	3.57140E+000	9	...........
	41	0.56	5.33801E-001	-8.87936E-005	0.00000E+000	-4.73981E-005	-5.39641E-002	5.33885E-001	3.57140E+000	9	...........
	42	0.573333	5.28202E-001	-8.83779E-005	0.00000E+000	-4.66814E-005	-5.39641E-002	5.28276E-001	3.57140E+000	9	...........
	43	0.586667	5.22605E-001	-8.87103E-005	0.00000E+000	-4.63604E-005	-5.39641E-002	5.22682E-001	3.57140E+000	9	...........
	44	0.6	5.17055E-001	-8.82727E-005	0.00000E+000	-4.56418E-005	-5.39641E-002	5.17134E-001	3.57140E+000	9	...........
	45	0.613333	5.11500E-001	-8.87936E-005	0.00000E+000	-4.54180E-005	-5.39641E-002	5.11585E-001	3.57140E+000	9	...........
	46	0.626667	5.05953E-001	-8.85009E-005	0.00000E+000	-4.47773E-005	-5.39641E-002	5.06070E-001	3.57140E+000	9	...........
	47	0.64	5.00478E-001	-8.88207E-005	0.00000E+000	-4.44528E-005	-5.39641E-002	5.00585E-001	3.57140E+000	9	...........
	48	0.653333	4.95033E-001	-8.87249E-005	0.00000E+000	-4.39218E-005	-5.39641E-002	4.95130E-001	3.57140E+000	9	...........
	49	0.666667	4.89612E-001	-8.86644E-005	0.00000E+000	-4.34112E-005	-5.39641E-002	4.89715E-001	3.57140E+000	9	...........
	50	0.68	4.84240E-001	-8.88280E-005	0.00000E+000	-4.30141E-005	-5.39641E-002	4.84323E-001	3.57140E+000	9	...........
	51	0.693333	4.78893E-001	-8.83644E-005	0.00000E+000	-4.23171E-005	-5.39641E-002	4.78949E-001	3.57140E+000	9	...........
	52	0.706667	4.73556E-001	-8.86530E-005	0.00000E+000	-4.19822E-005	-5.39641E-002	4.73604E-001	3.57140E+000	9	...........
	53	0.72	4.68229E-001	-8.88228E-005	0.00000E+000	-4.15894E-005	-5.39641E-002	4.68284E-001	3.57140E+000	9	...........
	54	0.733333	4.62918E-001	-8.89728E-005	0.00000E+000	-4.11872E-005	-5.39641E-002	4.62966E-001	3.57140E+000	9	...........
	55	0.746667	4.57619E-001	-8.85509E-005	0.00000E+000	-4.05225E-005	-5.39641E-002	4.57666E-001	3.57140E+000	9	...........
	56	0.76	4.52357E-001	-8.86676E-005	0.00000E+000	-4.01094E-005	-5.39641E-002	4.52403E-001	3.57140E+000	9	...........
	57	0.773333	4.47106E-001	-8.87322E-005	0.00000E+000	-3.96727E-005	-5.39641E-002	4.47157E-001	3.57140E+000	9	...........
	58	0.786667	4.41874E-001	-8.86644E-005	0.00000E+000	-3.91785E-005	-5.39641E-002	4.41917E-001	3.57140E+000	9	...........
	59	0.8	4.36650E-001	-8.85915E-005	0.00000E+000	-3.86834E-005	-5.39641E-002	4.36692E-001	3.57140E+000	9	...........
	60	0.813333	4.31461E-001	-8.83279E-005	0.00000E+000	-3.81100E-005	-5.39641E-002	4.31506E-001	3.57140E+000	9	...........
	61	0.826667	4.26288E-001	-8.87353E-005	0.00000E+000	-3.78268E-005	-5.39641E-002	4.26337E-001	3.57140E+000	9	...........
	62	0.84	4.21131E-001	-8.87759E-005	0.00000E+000	-3.73863E-005	-5.39641E-002	4.21176E-001	3.57140E+000	9	...........
	63	0.853333	4.16001E-001	-8.84738E-005	0.00000E+000	-3.68051E-005	-5.39641E-002	4.16044E-001	3.57140E+000	9	...........
	64	0.866667	4.10895E-001	-8.87103E-005	0.00000E+000	-3.64506E-005	-5.39641E-002	4.10939E-001	3.57140E+000	9	...........
	65	0.88	4.05795E-001	-8.89103E-005	0.00000E+000	-3.60793E-005	-5.39641E-002	4.05834E-001	3.57140E+000	9	...........
	66	0.893333	4.00715E-001	-8.86446E-005	0.00000E+000	-3.55212E-005	-5.39641E-002	4.00754E-001	3.57140E+000	9	...........
	67	0.906667	3.95667E-001	-8.87103E-005	0.00000E+000	-3.50997E-005	-5.39641E-002	3.95704E-001	3.57140E+000	9	...........
	68	0.92	3.90645E-001	-8.86384E-005	0.00000E+000	-3.46262E-005	-5.39641E-002	3.90684E-001	3.57140E+000	9	...........
	69	0.933333	3.85633E-001	-8.85853E-005	0.00000E+000	-3.41614E-005	-5.39641E-002	3.85674E-001	3.57140E+000	9	...........
	70	0.946667	3.80655E-001	-8.85519E-005	0.00000E+000	-3.37077E-005	-5.39641E-002	3.80683E-001	3.57140E+000	9	...........
	71	0.96	3.75689E-001	-8.82956E-005	0.00000E+000	-3.31717E-005	-5.39641E-002	3.75726E-001	3.57140E+000	9	...........
	72	0.97333	3.70758E-001	-8.86499E-005	0.00000E+000	-3.28676E-005	-5.39641E-002	3.70791E-001	3.57140E+000	9	...........
	73	0.98667	3.65840E-001	-8.87770E-005	0.00000E+000	-3.24781E-005	-5.39641E-002	3.65875E-001	3.57140E+000	9	...........
	74	1	3.60948E-001	-8.88686E-005	0.00000E+000	-3.20770E-005	-5.39641E-002	3.60982E-001	3.57140E+000	9	...........
	75	1.01333	3.56077E-001	-8.89228E-005	0.00000E+000	-3.16634E-005	-5.39641E-002	3.56107E-001	3.57140E+000	9	...........
	76	1.02667	3.51208E-001	-8.86686E-005	0.00000E+000	-3.11411E-005	-5.39641E-002	3.51245E-001	3.57164E+000	9	...........
	77	1.04	3.46383E-001	-8.85884E-005	0.00000E+000	-3.06855E-005	-5.39641E-002	3.46418E-001	3.57170E+000	9	...........
	78	1.05333	3.41581E-001	-8.89635E-005	0.00000E+000	-3.03883E-005	-5.39641E-002	3.41615E-001	3.57170E+000	9	...........
	79	1.06667	3.36806E-001	-8.87384E-005	0.00000E+000	-2.98876E-005	-5.39641E-002	3.36839E-001	3.57170E+000	9	...........
	80	1.08	3.32060E-001	-8.85905E-005	0.00000E+000	-2.94173E-005	-5.39641E-002	3.32091E-001	3.57170E+000	9	...........
	81	1.09333	3.27341E-001	-8.88926E-005	0.00000E+000	-2.90982E-005	-5.39641E-002	3.27372E-001	3.57170E+000	9	...........
	82	1.10667	3.22621E-001	-8.86092E-005	0.00000E+000	-2.85872E-005	-5.39641E-002	3.22651E-001	3.57170E+000	9	...........
	83	1.12	3.17925E-001	-8.84904E-005	0.00000E+000	-2.81333E-005	-5.39641E-002	3.17957E-001	3.57170E+000	9	...........
	84	1.13333	3.13266E-001	-8.87822E-005	0.00000E+000	-2.78124E-005	-5.39641E-002	3.13291E-001	3.57170E+000	9	...........
	85	1.14667	3.08625E-001	-8.86457E-005	0.00000E+000	-2.73583E-005	-5.39641E-002	3.08655E-001	3.57170E+000	9	...........
	86	1.16	3.04025E-001	-8.87165E-005	0.00000E+000	-2.69720E-005	-5.39641E-002	3.04055E-001	3.57170E+000	9	...........
	87	1.17333	2.99446E-001	-8.90478E-005	0.00000E+000	-2.66650E-005	-5.39641E-002	2.99471E-001	3.57170E+000	9	...........
	88	1.18667	2.94878E-001	-8.85675E-005	0.00000E+000	-2.61166E-005	-5.39641E-002	2.94910E-001	3.57170E+000	9	...........
	89	1.2	2.90322E-001	-8.88468E-005	0.00000E+000	-2.57942E-005	-5.39641E-002	2.90348E-001	3.57170E+000	9	...........
	90	1.21333	2.85791E-001	-8.86926E-005	0.00000E+000	-2.53475E-005	-5.39641E-002	2.85819E-001	3.57170E+000	9	...........
	91	1.22667	2.81290E-001	-8.85957E-005	0.00000E+000	-2.49211E-005	-5.39641E-002	2.81321E-001	3.57170E+000	9	...........
	92	1.24	2.76807E-001	-8.87030E-005	0.00000E+000	-2.45536E-005	-5.39641E-002	2.76833E-001	3.57170E+000	9	...........
	93	1.25333	2.72336E-001	-8.84884E-005	0.00000E+000	-2.40986E-005	-5.39641E-002	2.72362E-001	3.57170E+000	9	...........
	94	1.26667	2.67884E-001	-8.85821E-005	0.00000E+000	-2.37298E-005	-5.39641E-002	2.67910E-001	3.57170E+000	9	...........
	95	1.28	2.63447E-001	-8.88020E-005	0.00000E+000	-2.33946E-005	-5.39641E-002	2.63474E-001	3.57170E+000	9	...........
	96	1.29333	2.59038E-001	-8.87186E-005	0.00000E+000	-2.29815E-005	-5.39641E-002	2.59068E-001	3.57170E+000	9	...........
	97	1.30667	2.54646E-001	-8.86311E-005	0.00000E+000	-2.25696E-005	-5.39641E-002	2.54670E-001	3.57170E+000	9	...........
	98	1.32	2.50287E-001	-8.87874E-005	0.00000E+000	-2.22223E-005	-5.39641E-002	2.50309E-001	3.57170E+000	9	...........
	99	1.33333	2.45956E-001	-8.87561E-005	0.00000E+000	-2.18301E-005	-5.39641E-002	2.45980E-001	3.57170E+000	9	...........
	100	1.34667	2.41637E-001	-8.84675E-005	0.00000E+000	-2.13770E-005	-5.39641E-002	2.41654E-001	3.57170E+000	9	...........
	101	1.36	2.37330E-001	-8.87405E-005	0.00000E+000	-2.10608E-005	-5.39641E-002	2.37349E-001	3.57170E+000	9	...........
	102	1.37333	2.33029E-001	-8.86092E-005	0.00000E+000	-2.06485E-005	-5.39641E-002	2.33056E-001	3.57170E+000	9	...........
	103	1.38667	2.28753E-001	-8.88291E-005	0.00000E+000	-2.03199E-005	-5.39641E-002	2.28773E-001	3.57170E+000	9	...........
	104	1.4	2.24505E-001	-8.87915E-005	0.00000E+000	-1.99341E-005	-5.39641E-002	2.24525E-001	3.57170E+000	9	...........
	105	1.41333	2.20262E-001	-8.84352E-005	0.00000E+000	-1.94789E-005	-5.39641E-002	2.20282E-001	3.57170E+000	9	...........
	106	1.42667	2.16054E-001	-8.88874E-005	0.00000E+000	-1.92045E-005	-5.39641E-002	2.16069E-001	3.57170E+000	9	...........
	107	1.44	2.11882E-001	-8.87030E-005	0.00000E+000	-1.87946E-005	-5.39641E-002	2.11898E-001	3.57170E+000	9	...........
	108	1.45333	2.07729E-001	-8.87811E-005	0.00000E+000	-1.84424E-005	-5.39641E-002	2.07742E-001	3.57170E+000	9	...........
	109	1.46667	2.03593E-001	-8.86259E-005	0.00000E+000	-1.80436E-005	-5.39641E-002	2.03609E-001	3.57170E+000	9	...........
	110	1.48	1.99465E-001	-8.87113E-005	0.00000E+000	-1.76948E-005	-5.39641E-002	1.99477E-001	3.57170E+000	9	...........
	111	1.49333	1.95339E-001	-8.88624E-005	0.00000E+000	-1.73583E-005	-5.39641E-002	1.95353E-001	3.57170E+000	9	...........
	112	1.50667	1.91233E-001	-8.88353E-005	0.00000E+000	-1.69882E-005	-5.39641E-002	1.91245E-001	3.57170E+000	9	...........
	113	1.52	1.87152E-001	-8.88051E-005	0.00000E+000	-1.66200E-005	-5.39641E-002	1.87166E-001	3.57170E+000	9	...........
	114	1.53333	1.83085E-001	-8.86624E-005	0.00000E+000	-1.62327E-005	-5.39641E-002	1.83102E-001	3.57170E+000	9	...........
	115	1.54667	1.79033E-001	-8.86780E-005	0.00000E+000	-1.58763E-005	-5.39641E-002	1.79045E-001	3.57170E+000	9	...........
	116	1.56	1.74998E-001	-8.86301E-005	0.00000E+000	-1.55101E-005	-5.39641E-002	1.75014E-001	3.57170E+000	9	...........
	117	1.57333	1.70992E-001	-8.87978E-005	0.00000E+000	-1.51837E-005	-5.39641E-002	1.70998E-001	3.57170E+000	9	...........
	118	1.58667	1.66982E-001	-8.87645E-005	0.00000E+000	-1.48220E-005	-5.39641E-002	1.66990E-001	3.57170E+000	9	...........
	119	1.6	1.62998E-001	-8.84925E-005	0.00000E+000	-1.44241E-005	-5.39641E-002	1.63004E-001	3.57170E+000	9	...........
	120	1.61333	1.59013E-001	-8.85925E-005	0.00000E+000	-1.40874E-005	-5.39641E-002	1.59023E-001	3.57170E+000	9	...........
	121	1.62667	1.55062E-001	-8.84456E-005	0.00000E+000	-1.37145E-005	-5.39641E-002	1.55065E-001	3.57170E+000	9	...........
	122	1.64	1.51128E-001	-8.85915E-005	0.00000E+000	-1.33887E-005	-5.39641E-002	1.51135E-001	3.57170E+000	9	...........
	123	1.65333	1.47216E-001	-8.86332E-005	0.00000E+000	-1.30482E-005	-5.39641E-002	1.47224E-001	3.57170E+000	9	...........
	124	1.66667	1.43297E-001	-8.85842E-005	0.00000E+000	-1.26938E-005	-5.39641E-002	1.43310E-001	3.57170E+000	9	...........
	125	1.68	1.39385E-001	-8.87124E-005	0.00000E+000	-1.23652E-005	-5.39641E-002	1.39394E-001	3.57170E+000	9	...........
	126	1.69333	1.35509E-001	-8.86967E-005	0.00000E+000	-1.20192E-005	-5.39641E-002	1.35516E-001	3.57170E+000	9	...........
	127	1.70667	1.31653E-001	-8.88832E-005	0.00000E+000	-1.17018E-005	-5.39641E-002	1.31664E-001	3.57170E+000	9	...........
	128	1.72	1.27830E-001	-8.87134E-005	0.00000E+000	-1.13402E-005	-5.39641E-002	1.27833E-001	3.57170E+000	9	...........
	129	1.73333	1.24001E-001	-8.87957E-005	0.00000E+000	-1.10108E-005	-5.39641E-002	1.24006E-001	3.57170E+000	9	...........
	130	1.74667	1.20178E-001	-8.85498E-005	0.00000E+000	-1.06418E-005	-5.39641E-002	1.20183E-001	3.57170E+000	9	...........
	131	1.76	1.16357E-001	-8.87040E-005	0.00000E+000	-1.03213E-005	-5.39641E-002	1.16364E-001	3.57170E+000	9	...........
	132	1.77333	1.12547E-001	-8.84675E-005	0.00000E+000	-9.95671E-006	-5.39641E-002	1.12558E-001	3.57170E+000	9	...........
	133	1.78667	1.08768E-001	-8.84446E-005	0.00000E+000	-9.61992E-006	-5.39641E-002	1.08777E-001	3.57170E+000	9	...........
	134	1.8	1.04997E-001	-8.85029E-005	0.00000E+000	-9.29255E-006	-5.39641E-002	1.05004E-001	3.57170E+000	9	...........
	135	1.81333	1.01235E-001	-8.86603E-005	0.00000E+000	-8.97554E-006	-5.39641E-002	1.01244E-001	3.57170E+000	9	...........
	136	1.82667	9.75118E-002	-8.84404E-005	0.00000E+000	-8.62398E-006	-5.39641E-002	9.75157E-002	3.57170E+000	9	...........
	137	1.84	9.37937E-002	-8.86394E-005	0.00000E+000	-8.31382E-006	-5.39641E-002	9.37964E-002	3.57170E+000	9	...........
	138	1.85333	9.00942E-002	-8.85613E-005	0.00000E+000	-7.97886E-006	-5.39641E-002	9.01034E-002	3.57170E+000	9	...........
	139	1.86667	8.64062E-002	-8.87019E-005	0.00000E+000	-7.66440E-006	-5.39641E-002	8.64118E-002	3.57170E+000	9	...........
	140	1.88	8.27367E-002	-8.86176E-005	0.00000E+000	-7.33192E-006	-5.39641E-002	8.27373E-002	3.57170E+000	9	...........
	141	1.89333	7.90725E-002	-8.85457E-005	0.00000E+000	-7.00153E-006	-5.39641E-002	7.90707E-002	3.57170E+000	9	...........
	142	1.90667	7.54295E-002	-8.86082E-005	0.00000E+000	-6.68367E-006	-5.39641E-002	7.54315E-002	3.57170E+000	9	...........
	143	1.92	7.18070E-002	-8.85519E-005	0.00000E+000	-6.35864E-006	-5.39641E-002	7.18048E-002	3.57170E+000	9	...........
	144	1.93333	6.81878E-002	-8.84811E-005	0.00000E+000	-6.03333E-006	-5.39641E-002	6.81866E-002	3.57170E+000	9	...........
	145	1.94667	6.45882E-002	-8.88978E-005	0.00000E+000	-5.74175E-006	-5.39641E-002	6.45865E-002	3.57170E+000	9	...........
	146	1.96	6.10047E-002	-8.86894E-005	0.00000E+000	-5.41047E-006	-5.39641E-002	6.10023E-002	3.57170E+000	9	...........
	147	1.97333	5.74194E-002	-8.86311E-005	0.00000E+000	-5.08914E-006	-5.39641E-002	5.74194E-002	3.57170E+000	9	...........
	148	1.98667	5.38617E-002	-8.86238E-005	0.00000E+000	-4.77343E-006	-5.39641E-002	5.38576E-002	3.57170E+000	9	...........
	149	2	5.03309E-002	-8.88822E-005	0.00000E+000	-4.47352E-006	-5.39641E-002	5.03341E-002	3.57170E+000	9	...........
	150	2.01333	4.68214E-002	-8.86488E-005	0.00000E+000	-4.15066E-006	-5.39641E-002	4.68279E-002	3.57170E+000	9	...........
	151	2.02667	4.33001E-002	-8.87436E-005	0.00000E+000	-3.84261E-006	-5.39641E-002	4.33061E-002	3.57178E+000	9	...........
	152	2.04	3.97954E-002	-8.86780E-005	0.00000E+000	-3.52897E-006	-5.39641E-002	3.98018E-002	3.57180E+000	9	...........
	153	2.05333	3.63239E-002	-8.86478E-005	0.00000E+000	-3.22003E-006	-5.39641E-002	3.63277E-002	3.57180E+000	9	...........
	154	2.06667	3.28676E-002	-8.84884E-005	0.00000E+000	-2.90840E-006	-5.39641E-002	3.28686E-002	3.57180E+000	9	...........
	155	2.08	2.94231E-002	-8.85175E-005	0.00000E+000	-2.60446E-006	-5.39641E-002	2.94253E-002	3.57180E+000	9	...........
	156	2.09333	2.60058E-002	-8.88791E-005	0.00000E+000	-2.31137E-006	-5.39641E-002	2.60013E-002	3.57180E+000	9	...........
	157	2.10667	2.26089E-002	-8.86353E-005	0.00000E+000	-2.00395E-006	-5.39641E-002	2.26029E-002	3.57180E+000	9	...........
	158	2.12	1.92132E-002	-8.86113E-005	0.00000E+000	-1.70251E-006	-5.39641E-002	1.92090E-002	3.57180E+000	9	...........
	159	2.13333	1.58410E-002	-8.88916E-005	0.00000E+000	-1.40813E-006	-5.39641E-002	1.58321E-002	3.57180E+000	9	...........
	160	2.14667	1.24839E-002	-8.87655E-005	0.00000E+000	-1.10814E-006	-5.39641E-002	1.24714E-002	3.57180E+000	9	...........
	161	2.16	9.12290E-003	-8.87801E-005	0.00000E+000	-8.09931E-007	-5.39641E-002	9.11242E-003	3.57180E+000	9	...........
	162	2.17333	5.79664E-003	-8.88009E-005	0.00000E+000	-5.14747E-007	-5.39641E-002	5.78203E-003	3.57180E+000	9	...........
	163	2.18667	2.49560E-003	-8.87405E-005	0.00000E+000	-2.21461E-007	-5.39641E-002	2.48149E-003	3.57180E+000	9	...........
	164	2.19167	2.49274E-004	-8.87360E-005	0.00000E+000	-2.21195E-008	-5.39641E-002	2.29524E-004	3.57180E+000	9	...........
STARTTIMEOFFSET	QUANT	478.1001	Start Time Offset (s)
