EXPLAIN
TAG	PWR800_DISCHARGE
TITLE	LABEL	PWR Cyclic Charge Discharge (Cell) - Discharge Step	Test &Identifier
DATE	LABEL	10-7-2017	Date
TIME	LABEL	15:48:09	Time
NOTES	NOTES	3	&Notes...
	supercap test cell
	0.9mg
	6M KOH
PSTAT	PSTAT	IFC5000-01520	Potentiostat
CAPACITY	QUANT	1.00000E-003	Capacity (A-hr)
CELLTYPE	SELECTOR	1	&Cell Type
WORKINGCONNECTION	SELECTOR	0	&Working Lead
MAXDISCHARGETIME	VARIABLEANDUNITS	1.00000E+002	s	1.00000E+002	second(s)	Max &Discharge Time
DISCHARGEMODE	MULTIPARAM	0	9.00000E-005	&Discharge Mode	Constant Current	Amp(s)
SAMPLETIME	QUANT	1.00000E-002	Sa&mple Period (s)
DISCHARGESTOPAT1	MULTIPARAM	3	0.00000E+000	Discharge Stop At &1	Voltage < Limit	V
DISCHARGESTOPAT2	MULTIPARAM	0	0.00000E+000	Discharge Stop At &2	None	N/A
AESBHCSELECTOR	TOGGLE	F	Save Both Half Cells
IRCOMP	TOGGLE	F	IR &Measure
EOC	QUANT	0	Open Circuit (V)
SEQUENCER	TOGGLE	TRUE	Run as Sequence
PSTATMODEL	IQUANT	53	Pstat Model
PSTATSECTION	LABEL	IFC5000-01520	Pstat Section
PSTATSERIALNO	LABEL	01520	Pstat Serial Number
CTRLMODE	IQUANT	0	Control Mode
ELECTROMETER	IQUANT	1	RE=0 or CS=1
IESTAB	IQUANT	0	I/E Stability
CASPEED	IQUANT	4	Control Amp Speed
CONVENTION	IQUANT	1	Current Convention
ICHRANGE	IQUANT	2	Ich Range
ICHRANGEMODE	TOGGLE	T	Ich Auto Range
ICHOFFSETENABLE	TOGGLE	F	Ich Offset Enable
ICHOFFSET	QUANT	0	Ich Offset (V)
ICHFILTER	IQUANT	1	Ich Filter
VCHRANGE	IQUANT	2	Vch Range
VCHRANGEMODE	TOGGLE	T	Vch Auto Range
VCHOFFSETENABLE	TOGGLE	F	Vch Offset Enable
VCHOFFSET	QUANT	0	Vch Offset (V)
VCHFILTER	IQUANT	1	Vch Filter
IERANGELOWERLIMIT	IQUANT	9	I/E Range Lower Limit
IERANGEMODE	TOGGLE	F	I/E AutoRange
IERANGE	IQUANT	9	I/E Range
ACHSELECT	IQUANT	1	Ach Select
ACHRANGE	IQUANT	2	Ach Range
ACHOFFSETENABLE	TOGGLE	F	Ach Offset Enable
ACHOFFSET	QUANT	0	Ach Offset (V)
ACHFILTER	IQUANT	1	Ach Filter
CABLEID	IQUANT	14	Cable ID
DCCALDATE	LABEL	5-7-2017	DC Calibration Date
ACCALDATE	LABEL	12/3/2015	AC Calibration Date
FRAMEWORKVERSION	QUANT	7.01	Framework Version
INSTRUMENTVERSION	LABEL	4.00	Instrument Version
CURVE	TABLE	151
	Pt	T	Vf	Im	Vu	Pwr	Sig	Ach	Temp	IERange	Over
	#	s	V	A	V	W	V	V	deg C	#	bits
	0	0.013333	8.08815E-001	-8.89583E-005	0.00000E+000	-7.19508E-005	-5.39641E-002	8.08953E-001	3.57290E+000	9	...........
	1	0.026667	7.95127E-001	-8.88551E-005	0.00000E+000	-7.06510E-005	-5.39641E-002	7.95269E-001	3.57290E+000	9	...........
	2	0.04	7.82344E-001	-8.86019E-005	0.00000E+000	-6.93172E-005	-5.39641E-002	7.82465E-001	3.57290E+000	9	...........
	3	0.053333	7.70255E-001	-8.87551E-005	0.00000E+000	-6.83640E-005	-5.39641E-002	7.70406E-001	3.57290E+000	9	...........
	4	0.066667	7.58808E-001	-8.87801E-005	0.00000E+000	-6.73671E-005	-5.39641E-002	7.58939E-001	3.57290E+000	9	...........
	5	0.08	7.47870E-001	-8.87353E-005	0.00000E+000	-6.63625E-005	-5.39641E-002	7.47991E-001	3.57290E+000	9	...........
	6	0.093333	7.37339E-001	-8.88020E-005	0.00000E+000	-6.54772E-005	-5.39641E-002	7.37480E-001	3.57290E+000	9	...........
	7	0.106667	7.27245E-001	-8.88520E-005	0.00000E+000	-6.46172E-005	-5.39641E-002	7.27373E-001	3.57290E+000	9	...........
	8	0.12	7.17482E-001	-8.84008E-005	0.00000E+000	-6.34260E-005	-5.39641E-002	7.17610E-001	3.57290E+000	9	...........
	9	0.133333	7.08007E-001	-8.86749E-005	0.00000E+000	-6.27824E-005	-5.39641E-002	7.08159E-001	3.57290E+000	9	...........
	10	0.146667	6.98860E-001	-8.88197E-005	0.00000E+000	-6.20725E-005	-5.39641E-002	6.99004E-001	3.57290E+000	9	...........
	11	0.16	6.89965E-001	-8.87572E-005	0.00000E+000	-6.12394E-005	-5.39641E-002	6.90104E-001	3.57290E+000	9	...........
	12	0.173333	6.81306E-001	-8.88426E-005	0.00000E+000	-6.05290E-005	-5.39641E-002	6.81470E-001	3.57290E+000	9	...........
	13	0.186667	6.72925E-001	-8.88249E-005	0.00000E+000	-5.97725E-005	-5.39641E-002	6.73050E-001	3.57290E+000	9	...........
	14	0.2	6.64672E-001	-8.89301E-005	0.00000E+000	-5.91094E-005	-5.39641E-002	6.64832E-001	3.57290E+000	9	...........
	15	0.213333	6.56629E-001	-8.89843E-005	0.00000E+000	-5.84297E-005	-5.39641E-002	6.56771E-001	3.57290E+000	9	...........
	16	0.226667	6.48784E-001	-8.87363E-005	0.00000E+000	-5.75707E-005	-5.39641E-002	6.48927E-001	3.57290E+000	9	...........
	17	0.24	6.41123E-001	-8.87530E-005	0.00000E+000	-5.69016E-005	-5.39641E-002	6.41279E-001	3.57290E+000	9	...........
	18	0.253333	6.33604E-001	-8.86801E-005	0.00000E+000	-5.61881E-005	-5.39641E-002	6.33752E-001	3.57290E+000	9	...........
	19	0.266667	6.26245E-001	-8.87645E-005	0.00000E+000	-5.55883E-005	-5.39641E-002	6.26383E-001	3.57290E+000	9	...........
	20	0.28	6.19045E-001	-8.87467E-005	0.00000E+000	-5.49382E-005	-5.39641E-002	6.19156E-001	3.57290E+000	9	...........
	21	0.293333	6.11905E-001	-8.86780E-005	0.00000E+000	-5.42625E-005	-5.39641E-002	6.12063E-001	3.57290E+000	9	...........
	22	0.306667	6.04919E-001	-8.89437E-005	0.00000E+000	-5.38037E-005	-5.39641E-002	6.05072E-001	3.57290E+000	9	...........
	23	0.32	5.98101E-001	-8.88884E-005	0.00000E+000	-5.31643E-005	-5.39641E-002	5.98220E-001	3.57290E+000	9	...........
	24	0.333333	5.91370E-001	-8.88145E-005	0.00000E+000	-5.25222E-005	-5.39641E-002	5.91493E-001	3.57290E+000	9	...........
	25	0.346667	5.84685E-001	-8.88582E-005	0.00000E+000	-5.19541E-005	-5.39641E-002	5.84826E-001	3.57290E+000	9	...........
	26	0.36	5.78159E-001	-8.87363E-005	0.00000E+000	-5.13037E-005	-5.39641E-002	5.78296E-001	3.57290E+000	9	...........
	27	0.373333	5.71715E-001	-8.85342E-005	0.00000E+000	-5.06164E-005	-5.39641E-002	5.71827E-001	3.57290E+000	9	...........
	28	0.386667	5.65350E-001	-8.90812E-005	0.00000E+000	-5.03621E-005	-5.39641E-002	5.65449E-001	3.57290E+000	9	...........
	29	0.4	5.59017E-001	-8.88207E-005	0.00000E+000	-4.96523E-005	-5.39641E-002	5.59135E-001	3.57290E+000	9	...........
	30	0.413333	5.52817E-001	-8.90041E-005	0.00000E+000	-4.92030E-005	-5.39641E-002	5.52937E-001	3.57290E+000	9	...........
	31	0.426667	5.46712E-001	-8.88666E-005	0.00000E+000	-4.85844E-005	-5.39641E-002	5.46789E-001	3.57290E+000	9	...........
	32	0.44	5.40653E-001	-8.88926E-005	0.00000E+000	-4.80600E-005	-5.39641E-002	5.40746E-001	3.57290E+000	9	...........
	33	0.453333	5.34640E-001	-8.88718E-005	0.00000E+000	-4.75144E-005	-5.39641E-002	5.34757E-001	3.57290E+000	9	...........
	34	0.466667	5.28732E-001	-8.89332E-005	0.00000E+000	-4.70218E-005	-5.39641E-002	5.28829E-001	3.57290E+000	9	...........
	35	0.48	5.22866E-001	-8.88176E-005	0.00000E+000	-4.64397E-005	-5.39641E-002	5.22987E-001	3.57290E+000	9	...........
	36	0.493333	5.17081E-001	-8.87707E-005	0.00000E+000	-4.59017E-005	-5.39641E-002	5.17211E-001	3.57290E+000	9	...........
	37	0.506667	5.11304E-001	-8.87988E-005	0.00000E+000	-4.54032E-005	-5.39641E-002	5.11420E-001	3.57290E+000	9	...........
	38	0.52	5.05570E-001	-8.85717E-005	0.00000E+000	-4.47792E-005	-5.39641E-002	5.05724E-001	3.57290E+000	9	...........
	39	0.533333	4.99916E-001	-8.89780E-005	0.00000E+000	-4.44816E-005	-5.39641E-002	5.00046E-001	3.57290E+000	9	...........
	40	0.546667	4.94313E-001	-8.87342E-005	0.00000E+000	-4.38625E-005	-5.39641E-002	4.94448E-001	3.57290E+000	9	...........
	41	0.56	4.88762E-001	-8.89530E-005	0.00000E+000	-4.34769E-005	-5.39641E-002	4.88848E-001	3.57290E+000	9	...........
	42	0.573333	4.83331E-001	-8.87759E-005	0.00000E+000	-4.29081E-005	-5.39641E-002	4.83413E-001	3.57290E+000	9	...........
	43	0.586667	4.77896E-001	-8.87905E-005	0.00000E+000	-4.24327E-005	-5.39641E-002	4.77970E-001	3.57290E+000	9	...........
	44	0.6	4.72467E-001	-8.88697E-005	0.00000E+000	-4.19880E-005	-5.39641E-002	4.72538E-001	3.57290E+000	9	...........
	45	0.613333	4.67078E-001	-8.92073E-005	0.00000E+000	-4.16668E-005	-5.39641E-002	4.67146E-001	3.57290E+000	9	...........
	46	0.626667	4.61724E-001	-8.88186E-005	0.00000E+000	-4.10097E-005	-5.39641E-002	4.61788E-001	3.57290E+000	9	...........
	47	0.64	4.56395E-001	-8.88249E-005	0.00000E+000	-4.05392E-005	-5.39641E-002	4.56459E-001	3.57290E+000	9	...........
	48	0.653333	4.51088E-001	-8.88530E-005	0.00000E+000	-4.00806E-005	-5.39641E-002	4.51155E-001	3.57290E+000	9	...........
	49	0.666667	4.45827E-001	-8.86717E-005	0.00000E+000	-3.95322E-005	-5.39641E-002	4.45886E-001	3.57290E+000	9	...........
	50	0.68	4.40568E-001	-8.88353E-005	0.00000E+000	-3.91380E-005	-5.39641E-002	4.40627E-001	3.57290E+000	9	...........
	51	0.693333	4.35330E-001	-8.89270E-005	0.00000E+000	-3.87126E-005	-5.39641E-002	4.35394E-001	3.57290E+000	9	...........
	52	0.706667	4.30126E-001	-8.88624E-005	0.00000E+000	-3.82220E-005	-5.39641E-002	4.30185E-001	3.57290E+000	9	...........
	53	0.72	4.24931E-001	-8.87863E-005	0.00000E+000	-3.77281E-005	-5.39641E-002	4.24991E-001	3.57290E+000	9	...........
	54	0.733333	4.19767E-001	-8.88572E-005	0.00000E+000	-3.72993E-005	-5.39641E-002	4.19824E-001	3.57290E+000	9	...........
	55	0.746667	4.14631E-001	-8.88489E-005	0.00000E+000	-3.68394E-005	-5.39641E-002	4.14691E-001	3.57290E+000	9	...........
	56	0.76	4.09525E-001	-8.87009E-005	0.00000E+000	-3.63252E-005	-5.39641E-002	4.09579E-001	3.57290E+000	9	...........
	57	0.773333	4.04425E-001	-8.88384E-005	0.00000E+000	-3.59285E-005	-5.39641E-002	4.04471E-001	3.57290E+000	9	...........
	58	0.786667	3.99339E-001	-8.86707E-005	0.00000E+000	-3.54096E-005	-5.39641E-002	3.99387E-001	3.57290E+000	9	...........
	59	0.8	3.94264E-001	-8.88666E-005	0.00000E+000	-3.50369E-005	-5.39641E-002	3.94314E-001	3.57290E+000	9	...........
	60	0.813333	3.89204E-001	-8.88291E-005	0.00000E+000	-3.45726E-005	-5.39641E-002	3.89256E-001	3.57290E+000	9	...........
	61	0.826667	3.84170E-001	-8.88801E-005	0.00000E+000	-3.41451E-005	-5.39641E-002	3.84219E-001	3.57290E+000	9	...........
	62	0.84	3.79168E-001	-8.86446E-005	0.00000E+000	-3.36112E-005	-5.39641E-002	3.79212E-001	3.57290E+000	9	...........
	63	0.853333	3.74177E-001	-8.87655E-005	0.00000E+000	-3.32140E-005	-5.39641E-002	3.74219E-001	3.57290E+000	9	...........
	64	0.866667	3.69182E-001	-8.88936E-005	0.00000E+000	-3.28180E-005	-5.39641E-002	3.69227E-001	3.57290E+000	9	...........
	65	0.88	3.64208E-001	-8.86655E-005	0.00000E+000	-3.22926E-005	-5.39641E-002	3.64260E-001	3.57290E+000	9	...........
	66	0.893333	3.59229E-001	-8.85623E-005	0.00000E+000	-3.18141E-005	-5.39641E-002	3.59271E-001	3.57290E+000	9	...........
	67	0.906667	3.54269E-001	-8.88134E-005	0.00000E+000	-3.14638E-005	-5.39641E-002	3.54309E-001	3.57290E+000	9	...........
	68	0.92	3.49317E-001	-8.86155E-005	0.00000E+000	-3.09549E-005	-5.39641E-002	3.49363E-001	3.57290E+000	9	...........
	69	0.933333	3.44391E-001	-8.87759E-005	0.00000E+000	-3.05736E-005	-5.39641E-002	3.44439E-001	3.57290E+000	9	...........
	70	0.946667	3.39458E-001	-8.89270E-005	0.00000E+000	-3.01870E-005	-5.39641E-002	3.39502E-001	3.57331E+000	9	...........
	71	0.96	3.34540E-001	-8.89197E-005	0.00000E+000	-2.97472E-005	-5.39641E-002	3.34578E-001	3.57400E+000	9	...........
	72	0.97333	3.29652E-001	-8.85811E-005	0.00000E+000	-2.92009E-005	-5.39641E-002	3.29696E-001	3.57400E+000	9	...........
	73	0.98667	3.24781E-001	-8.87884E-005	0.00000E+000	-2.88368E-005	-5.39641E-002	3.24822E-001	3.57400E+000	9	...........
	74	1	3.19924E-001	-8.87676E-005	0.00000E+000	-2.83988E-005	-5.39641E-002	3.19967E-001	3.57400E+000	9	...........
	75	1.01333	3.15088E-001	-8.86676E-005	0.00000E+000	-2.79381E-005	-5.39641E-002	3.15131E-001	3.57400E+000	9	...........
	76	1.02667	3.10262E-001	-8.89676E-005	0.00000E+000	-2.76033E-005	-5.39641E-002	3.10304E-001	3.57400E+000	9	...........
	77	1.04	3.05452E-001	-8.89385E-005	0.00000E+000	-2.71664E-005	-5.39641E-002	3.05496E-001	3.57400E+000	9	...........
	78	1.05333	3.00662E-001	-8.90812E-005	0.00000E+000	-2.67833E-005	-5.39641E-002	3.00700E-001	3.57400E+000	9	...........
	79	1.06667	2.95875E-001	-8.86561E-005	0.00000E+000	-2.62311E-005	-5.39641E-002	2.95913E-001	3.57400E+000	9	...........
	80	1.08	2.91101E-001	-8.88155E-005	0.00000E+000	-2.58543E-005	-5.39641E-002	2.91141E-001	3.57400E+000	9	...........
	81	1.09333	2.86345E-001	-8.89916E-005	0.00000E+000	-2.54823E-005	-5.39641E-002	2.86381E-001	3.57400E+000	9	...........
	82	1.10667	2.81587E-001	-8.87405E-005	0.00000E+000	-2.49882E-005	-5.39641E-002	2.81624E-001	3.57400E+000	9	...........
	83	1.12	2.76842E-001	-8.87259E-005	0.00000E+000	-2.45630E-005	-5.39641E-002	2.76877E-001	3.57400E+000	9	...........
	84	1.13333	2.72122E-001	-8.86301E-005	0.00000E+000	-2.41182E-005	-5.39641E-002	2.72155E-001	3.57400E+000	9	...........
	85	1.14667	2.67412E-001	-8.88811E-005	0.00000E+000	-2.37679E-005	-5.39641E-002	2.67452E-001	3.57400E+000	9	...........
	86	1.16	2.62736E-001	-8.90124E-005	0.00000E+000	-2.33867E-005	-5.39641E-002	2.62773E-001	3.57400E+000	9	...........
	87	1.17333	2.58084E-001	-8.88822E-005	0.00000E+000	-2.29390E-005	-5.39641E-002	2.58116E-001	3.57400E+000	9	...........
	88	1.18667	2.53447E-001	-8.86603E-005	0.00000E+000	-2.24707E-005	-5.39641E-002	2.53478E-001	3.57400E+000	9	...........
	89	1.2	2.48824E-001	-8.90093E-005	0.00000E+000	-2.21477E-005	-5.39641E-002	2.48857E-001	3.57400E+000	9	...........
	90	1.21333	2.44227E-001	-8.86571E-005	0.00000E+000	-2.16525E-005	-5.39641E-002	2.44258E-001	3.57400E+000	9	...........
	91	1.22667	2.39640E-001	-8.88291E-005	0.00000E+000	-2.12870E-005	-5.39641E-002	2.39667E-001	3.57400E+000	9	...........
	92	1.24	2.35081E-001	-8.88374E-005	0.00000E+000	-2.08839E-005	-5.39641E-002	2.35110E-001	3.57400E+000	9	...........
	93	1.25333	2.30545E-001	-8.86113E-005	0.00000E+000	-2.04289E-005	-5.39641E-002	2.30570E-001	3.57400E+000	9	...........
	94	1.26667	2.26027E-001	-8.88926E-005	0.00000E+000	-2.00921E-005	-5.39641E-002	2.26050E-001	3.57400E+000	9	...........
	95	1.28	2.21537E-001	-8.86811E-005	0.00000E+000	-1.96462E-005	-5.39641E-002	2.21562E-001	3.57400E+000	9	...........
	96	1.29333	2.17057E-001	-8.88259E-005	0.00000E+000	-1.92803E-005	-5.39641E-002	2.17085E-001	3.57400E+000	9	...........
	97	1.30667	2.12592E-001	-8.88572E-005	0.00000E+000	-1.88903E-005	-5.39641E-002	2.12615E-001	3.57400E+000	9	...........
	98	1.32	2.08149E-001	-8.87009E-005	0.00000E+000	-1.84630E-005	-5.39641E-002	2.08170E-001	3.57400E+000	9	...........
	99	1.33333	2.03715E-001	-8.87561E-005	0.00000E+000	-1.80810E-005	-5.39641E-002	2.03738E-001	3.57400E+000	9	...........
	100	1.34667	1.99302E-001	-8.90406E-005	0.00000E+000	-1.77460E-005	-5.39641E-002	1.99328E-001	3.57400E+000	9	...........
	101	1.36	1.94912E-001	-8.87040E-005	0.00000E+000	-1.72895E-005	-5.39641E-002	1.94935E-001	3.57400E+000	9	...........
	102	1.37333	1.90539E-001	-8.86790E-005	0.00000E+000	-1.68969E-005	-5.39641E-002	1.90564E-001	3.57400E+000	9	...........
	103	1.38667	1.86185E-001	-8.88041E-005	0.00000E+000	-1.65340E-005	-5.39641E-002	1.86203E-001	3.57400E+000	9	...........
	104	1.4	1.81845E-001	-8.88530E-005	0.00000E+000	-1.61575E-005	-5.39641E-002	1.81861E-001	3.57400E+000	9	...........
	105	1.41333	1.77528E-001	-8.85665E-005	0.00000E+000	-1.57230E-005	-5.39641E-002	1.77544E-001	3.57400E+000	9	...........
	106	1.42667	1.73214E-001	-8.87999E-005	0.00000E+000	-1.53814E-005	-5.39641E-002	1.73234E-001	3.57400E+000	9	...........
	107	1.44	1.68938E-001	-8.88186E-005	0.00000E+000	-1.50049E-005	-5.39641E-002	1.68954E-001	3.57400E+000	9	...........
	108	1.45333	1.64669E-001	-8.88249E-005	0.00000E+000	-1.46267E-005	-5.39641E-002	1.64687E-001	3.57400E+000	9	...........
	109	1.46667	1.60424E-001	-8.88113E-005	0.00000E+000	-1.42475E-005	-5.39641E-002	1.60440E-001	3.57400E+000	9	...........
	110	1.48	1.56212E-001	-8.89749E-005	0.00000E+000	-1.38989E-005	-5.39641E-002	1.56226E-001	3.57400E+000	9	...........
	111	1.49333	1.52014E-001	-8.87978E-005	0.00000E+000	-1.34985E-005	-5.39641E-002	1.52031E-001	3.57400E+000	9	...........
	112	1.50667	1.47778E-001	-8.87843E-005	0.00000E+000	-1.31204E-005	-5.39641E-002	1.47793E-001	3.57400E+000	9	...........
	113	1.52	1.43575E-001	-8.89155E-005	0.00000E+000	-1.27660E-005	-5.39641E-002	1.43586E-001	3.57400E+000	9	...........
	114	1.53333	1.39397E-001	-8.89259E-005	0.00000E+000	-1.23960E-005	-5.39641E-002	1.39406E-001	3.57400E+000	9	...........
	115	1.54667	1.35232E-001	-8.87770E-005	0.00000E+000	-1.20055E-005	-5.39641E-002	1.35246E-001	3.57400E+000	9	...........
	116	1.56	1.31095E-001	-8.87426E-005	0.00000E+000	-1.16337E-005	-5.39641E-002	1.31107E-001	3.57400E+000	9	...........
	117	1.57333	1.26983E-001	-8.84748E-005	0.00000E+000	-1.12348E-005	-5.39641E-002	1.26991E-001	3.57400E+000	9	...........
	118	1.58667	1.22891E-001	-8.89447E-005	0.00000E+000	-1.09305E-005	-5.39641E-002	1.22902E-001	3.57400E+000	9	...........
	119	1.6	1.18816E-001	-8.89760E-005	0.00000E+000	-1.05718E-005	-5.39641E-002	1.18824E-001	3.57400E+000	9	...........
	120	1.61333	1.14751E-001	-8.89780E-005	0.00000E+000	-1.02103E-005	-5.39641E-002	1.14762E-001	3.57400E+000	9	...........
	121	1.62667	1.10717E-001	-8.84946E-005	0.00000E+000	-9.79785E-006	-5.39641E-002	1.10731E-001	3.57400E+000	9	...........
	122	1.64	1.06710E-001	-8.86280E-005	0.00000E+000	-9.45754E-006	-5.39641E-002	1.06722E-001	3.57400E+000	9	...........
	123	1.65333	1.02713E-001	-8.88916E-005	0.00000E+000	-9.13030E-006	-5.39641E-002	1.02721E-001	3.57400E+000	9	...........
	124	1.66667	9.87287E-002	-8.86311E-005	0.00000E+000	-8.75044E-006	-5.39641E-002	9.87433E-002	3.57400E+000	9	...........
	125	1.68	9.47696E-002	-8.88739E-005	0.00000E+000	-8.42254E-006	-5.39641E-002	9.47845E-002	3.57400E+000	9	...........
	126	1.69333	9.08237E-002	-8.86478E-005	0.00000E+000	-8.05131E-006	-5.39641E-002	9.08340E-002	3.57400E+000	9	...........
	127	1.70667	8.68885E-002	-8.89374E-005	0.00000E+000	-7.72764E-006	-5.39641E-002	8.69014E-002	3.57400E+000	9	...........
	128	1.72	8.29742E-002	-8.87551E-005	0.00000E+000	-7.36439E-006	-5.39641E-002	8.29807E-002	3.57400E+000	9	...........
	129	1.73333	7.90856E-002	-8.90218E-005	0.00000E+000	-7.04034E-006	-5.39641E-002	7.90910E-002	3.57400E+000	9	...........
	130	1.74667	7.52213E-002	-8.87738E-005	0.00000E+000	-6.67768E-006	-5.39641E-002	7.52249E-002	3.57400E+000	9	...........
	131	1.76	7.13823E-002	-8.88770E-005	0.00000E+000	-6.34424E-006	-5.39641E-002	7.13783E-002	3.57400E+000	9	...........
	132	1.77333	6.75488E-002	-8.87290E-005	0.00000E+000	-5.99354E-006	-5.39641E-002	6.75473E-002	3.57400E+000	9	...........
	133	1.78667	6.37274E-002	-8.88676E-005	0.00000E+000	-5.66330E-006	-5.39641E-002	6.37214E-002	3.57400E+000	9	...........
	134	1.8	5.99295E-002	-8.87603E-005	0.00000E+000	-5.31936E-006	-5.39641E-002	5.99293E-002	3.57400E+000	9	...........
	135	1.81333	5.61427E-002	-8.88853E-005	0.00000E+000	-4.99026E-006	-5.39641E-002	5.61404E-002	3.57400E+000	9	...........
	136	1.82667	5.23626E-002	-8.86467E-005	0.00000E+000	-4.64177E-006	-5.39641E-002	5.23611E-002	3.57400E+000	9	...........
	137	1.84	4.86202E-002	-8.87936E-005	0.00000E+000	-4.31717E-006	-5.39641E-002	4.86187E-002	3.57400E+000	9	...........
	138	1.85333	4.49057E-002	-8.86030E-005	0.00000E+000	-3.97878E-006	-5.39641E-002	4.49128E-002	3.57400E+000	9	...........
	139	1.86667	4.11770E-002	-8.87363E-005	0.00000E+000	-3.65390E-006	-5.39641E-002	4.11875E-002	3.57400E+000	9	...........
	140	1.88	3.74685E-002	-8.88947E-005	0.00000E+000	-3.33075E-006	-5.39641E-002	3.74714E-002	3.57400E+000	9	...........
	141	1.89333	3.37618E-002	-8.87384E-005	0.00000E+000	-2.99597E-006	-5.39641E-002	3.37689E-002	3.57400E+000	9	...........
	142	1.90667	3.00810E-002	-8.89624E-005	0.00000E+000	-2.67608E-006	-5.39641E-002	3.00822E-002	3.57400E+000	9	...........
	143	1.92	2.64230E-002	-8.87040E-005	0.00000E+000	-2.34382E-006	-5.39641E-002	2.64224E-002	3.57400E+000	9	...........
	144	1.93333	2.27821E-002	-8.90447E-005	0.00000E+000	-2.02862E-006	-5.39641E-002	2.27781E-002	3.57400E+000	9	...........
	145	1.94667	1.91569E-002	-8.89937E-005	0.00000E+000	-1.70484E-006	-5.39641E-002	1.91511E-002	3.57385E+000	9	...........
	146	1.96	1.55642E-002	-8.90260E-005	0.00000E+000	-1.38562E-006	-5.39641E-002	1.55553E-002	3.57360E+000	9	...........
	147	1.97333	1.19801E-002	-8.87436E-005	0.00000E+000	-1.06316E-006	-5.39641E-002	1.19783E-002	3.57360E+000	9	...........
	148	1.98667	8.41570E-003	-8.86842E-005	0.00000E+000	-7.46340E-007	-5.39641E-002	8.41095E-003	3.57360E+000	9	...........
	149	2	4.86715E-003	-8.85509E-005	0.00000E+000	-4.30991E-007	-5.39641E-002	4.86145E-003	3.57360E+000	9	...........
	150	2.01333	1.33900E-003	-8.88509E-005	0.00000E+000	-1.18972E-007	-5.39641E-002	1.32590E-003	3.57360E+000	9	...........
STARTTIMEOFFSET	QUANT	2471.016	Start Time Offset (s)
