EXPLAIN
TAG	PWR800_DISCHARGE
TITLE	LABEL	PWR Cyclic Charge Discharge (Cell) - Discharge Step	Test &Identifier
DATE	LABEL	10-7-2017	Date
TIME	LABEL	15:14:07	Time
NOTES	NOTES	3	&Notes...
	supercap test cell
	0.9mg
	6M KOH
PSTAT	PSTAT	IFC5000-01520	Potentiostat
CAPACITY	QUANT	1.00000E-003	Capacity (A-hr)
CELLTYPE	SELECTOR	1	&Cell Type
WORKINGCONNECTION	SELECTOR	0	&Working Lead
MAXDISCHARGETIME	VARIABLEANDUNITS	1.00000E+002	s	1.00000E+002	second(s)	Max &Discharge Time
DISCHARGEMODE	MULTIPARAM	0	9.00000E-005	&Discharge Mode	Constant Current	Amp(s)
SAMPLETIME	QUANT	1.00000E-002	Sa&mple Period (s)
DISCHARGESTOPAT1	MULTIPARAM	3	0.00000E+000	Discharge Stop At &1	Voltage < Limit	V
DISCHARGESTOPAT2	MULTIPARAM	0	0.00000E+000	Discharge Stop At &2	None	N/A
AESBHCSELECTOR	TOGGLE	F	Save Both Half Cells
IRCOMP	TOGGLE	F	IR &Measure
EOC	QUANT	0	Open Circuit (V)
SEQUENCER	TOGGLE	TRUE	Run as Sequence
PSTATMODEL	IQUANT	53	Pstat Model
PSTATSECTION	LABEL	IFC5000-01520	Pstat Section
PSTATSERIALNO	LABEL	01520	Pstat Serial Number
CTRLMODE	IQUANT	0	Control Mode
ELECTROMETER	IQUANT	1	RE=0 or CS=1
IESTAB	IQUANT	0	I/E Stability
CASPEED	IQUANT	4	Control Amp Speed
CONVENTION	IQUANT	1	Current Convention
ICHRANGE	IQUANT	2	Ich Range
ICHRANGEMODE	TOGGLE	T	Ich Auto Range
ICHOFFSETENABLE	TOGGLE	F	Ich Offset Enable
ICHOFFSET	QUANT	0	Ich Offset (V)
ICHFILTER	IQUANT	1	Ich Filter
VCHRANGE	IQUANT	2	Vch Range
VCHRANGEMODE	TOGGLE	T	Vch Auto Range
VCHOFFSETENABLE	TOGGLE	F	Vch Offset Enable
VCHOFFSET	QUANT	0	Vch Offset (V)
VCHFILTER	IQUANT	1	Vch Filter
IERANGELOWERLIMIT	IQUANT	9	I/E Range Lower Limit
IERANGEMODE	TOGGLE	F	I/E AutoRange
IERANGE	IQUANT	9	I/E Range
ACHSELECT	IQUANT	1	Ach Select
ACHRANGE	IQUANT	2	Ach Range
ACHOFFSETENABLE	TOGGLE	F	Ach Offset Enable
ACHOFFSET	QUANT	0	Ach Offset (V)
ACHFILTER	IQUANT	1	Ach Filter
CABLEID	IQUANT	14	Cable ID
DCCALDATE	LABEL	5-7-2017	DC Calibration Date
ACCALDATE	LABEL	12/3/2015	AC Calibration Date
FRAMEWORKVERSION	QUANT	7.01	Framework Version
INSTRUMENTVERSION	LABEL	4.00	Instrument Version
CURVE	TABLE	162
	Pt	T	Vf	Im	Vu	Pwr	Sig	Ach	Temp	IERange	Over
	#	s	V	A	V	W	V	V	deg C	#	bits
	0	0.013333	8.30260E-001	-8.84540E-005	0.00000E+000	-7.34398E-005	-5.39641E-002	8.30421E-001	3.57180E+000	9	...........
	1	0.026667	8.18036E-001	-8.87749E-005	0.00000E+000	-7.26211E-005	-5.39641E-002	8.18191E-001	3.57180E+000	9	...........
	2	0.04	8.06532E-001	-8.87332E-005	0.00000E+000	-7.15662E-005	-5.39641E-002	8.06683E-001	3.57180E+000	9	...........
	3	0.053333	7.95621E-001	-8.87332E-005	0.00000E+000	-7.05980E-005	-5.39641E-002	7.95750E-001	3.57180E+000	9	...........
	4	0.066667	7.85160E-001	-8.87342E-005	0.00000E+000	-6.96706E-005	-5.39641E-002	7.85282E-001	3.57180E+000	9	...........
	5	0.08	7.75095E-001	-8.88593E-005	0.00000E+000	-6.88744E-005	-5.39641E-002	7.75217E-001	3.57180E+000	9	...........
	6	0.093333	7.65383E-001	-8.88978E-005	0.00000E+000	-6.80409E-005	-5.39641E-002	7.65511E-001	3.57180E+000	9	...........
	7	0.106667	7.56031E-001	-8.86186E-005	0.00000E+000	-6.69984E-005	-5.39641E-002	7.56114E-001	3.57180E+000	9	...........
	8	0.12	7.46917E-001	-8.85446E-005	0.00000E+000	-6.61355E-005	-5.39641E-002	7.47025E-001	3.57180E+000	9	...........
	9	0.133333	7.38044E-001	-8.86759E-005	0.00000E+000	-6.54467E-005	-5.39641E-002	7.38141E-001	3.57180E+000	9	...........
	10	0.146667	7.29444E-001	-8.89530E-005	0.00000E+000	-6.48862E-005	-5.39641E-002	7.29528E-001	3.57180E+000	9	...........
	11	0.16	7.21060E-001	-8.87374E-005	0.00000E+000	-6.39850E-005	-5.39641E-002	7.21125E-001	3.57180E+000	9	...........
	12	0.173333	7.12809E-001	-8.87092E-005	0.00000E+000	-6.32327E-005	-5.39641E-002	7.12910E-001	3.57180E+000	9	...........
	13	0.186667	7.04806E-001	-8.87186E-005	0.00000E+000	-6.25294E-005	-5.39641E-002	7.04890E-001	3.57180E+000	9	...........
	14	0.2	6.96960E-001	-8.88864E-005	0.00000E+000	-6.19503E-005	-5.39641E-002	6.97039E-001	3.57180E+000	9	...........
	15	0.213333	6.89265E-001	-8.85759E-005	0.00000E+000	-6.10522E-005	-5.39641E-002	6.89349E-001	3.57180E+000	9	...........
	16	0.226667	6.81725E-001	-8.86863E-005	0.00000E+000	-6.04596E-005	-5.39641E-002	6.81807E-001	3.57180E+000	9	...........
	17	0.24	6.74329E-001	-8.85592E-005	0.00000E+000	-5.97181E-005	-5.39641E-002	6.74402E-001	3.57180E+000	9	...........
	18	0.253333	6.67084E-001	-8.86103E-005	0.00000E+000	-5.91105E-005	-5.39641E-002	6.67180E-001	3.57180E+000	9	...........
	19	0.266667	6.59935E-001	-8.92166E-005	0.00000E+000	-5.88772E-005	-5.39641E-002	6.60014E-001	3.57180E+000	9	...........
	20	0.28	6.52935E-001	-8.85582E-005	0.00000E+000	-5.78228E-005	-5.39641E-002	6.53012E-001	3.57180E+000	9	...........
	21	0.293333	6.46006E-001	-8.85113E-005	0.00000E+000	-5.71789E-005	-5.39641E-002	6.46103E-001	3.57180E+000	9	...........
	22	0.306667	6.39213E-001	-8.85207E-005	0.00000E+000	-5.65835E-005	-5.39641E-002	6.39306E-001	3.57180E+000	9	...........
	23	0.32	6.32494E-001	-8.86738E-005	0.00000E+000	-5.60856E-005	-5.39641E-002	6.32574E-001	3.57180E+000	9	...........
	24	0.333333	6.25879E-001	-8.87790E-005	0.00000E+000	-5.55649E-005	-5.39641E-002	6.25974E-001	3.57180E+000	9	...........
	25	0.346667	6.19383E-001	-8.86822E-005	0.00000E+000	-5.49282E-005	-5.39641E-002	6.19454E-001	3.57180E+000	9	...........
	26	0.36	6.12914E-001	-8.85248E-005	0.00000E+000	-5.42581E-005	-5.39641E-002	6.13033E-001	3.57180E+000	9	...........
	27	0.373333	6.06519E-001	-8.87676E-005	0.00000E+000	-5.38393E-005	-5.39641E-002	6.06671E-001	3.57180E+000	9	...........
	28	0.386667	6.00288E-001	-8.86780E-005	0.00000E+000	-5.32324E-005	-5.39641E-002	6.00388E-001	3.57180E+000	9	...........
	29	0.4	5.94075E-001	-8.86749E-005	0.00000E+000	-5.26795E-005	-5.39641E-002	5.94181E-001	3.57180E+000	9	...........
	30	0.413333	5.87942E-001	-8.87811E-005	0.00000E+000	-5.21982E-005	-5.39641E-002	5.88042E-001	3.57180E+000	9	...........
	31	0.426667	5.81850E-001	-8.88874E-005	0.00000E+000	-5.17192E-005	-5.39641E-002	5.81942E-001	3.57180E+000	9	...........
	32	0.44	5.75842E-001	-8.84508E-005	0.00000E+000	-5.09337E-005	-5.39641E-002	5.75916E-001	3.57180E+000	9	...........
	33	0.453333	5.69886E-001	-8.86061E-005	0.00000E+000	-5.04954E-005	-5.39641E-002	5.69946E-001	3.57180E+000	9	...........
	34	0.466667	5.63922E-001	-8.85623E-005	0.00000E+000	-4.99423E-005	-5.39641E-002	5.64000E-001	3.57180E+000	9	...........
	35	0.48	5.58009E-001	-8.86519E-005	0.00000E+000	-4.94686E-005	-5.39641E-002	5.58110E-001	3.57180E+000	9	...........
	36	0.493333	5.52190E-001	-8.87197E-005	0.00000E+000	-4.89902E-005	-5.39641E-002	5.52295E-001	3.57180E+000	9	...........
	37	0.506667	5.46422E-001	-8.86019E-005	0.00000E+000	-4.84141E-005	-5.39641E-002	5.46524E-001	3.57180E+000	9	...........
	38	0.52	5.40717E-001	-8.87280E-005	0.00000E+000	-4.79768E-005	-5.39641E-002	5.40802E-001	3.57180E+000	9	...........
	39	0.533333	5.35013E-001	-8.85509E-005	0.00000E+000	-4.73759E-005	-5.39641E-002	5.35109E-001	3.57180E+000	9	...........
	40	0.546667	5.29410E-001	-8.87999E-005	0.00000E+000	-4.70115E-005	-5.39641E-002	5.29505E-001	3.57180E+000	9	...........
	41	0.56	5.23809E-001	-8.86717E-005	0.00000E+000	-4.64470E-005	-5.39641E-002	5.23882E-001	3.57180E+000	9	...........
	42	0.573333	5.18239E-001	-8.87436E-005	0.00000E+000	-4.59904E-005	-5.39641E-002	5.18339E-001	3.57180E+000	9	...........
	43	0.586667	5.12732E-001	-8.89572E-005	0.00000E+000	-4.56112E-005	-5.39641E-002	5.12795E-001	3.57180E+000	9	...........
	44	0.6	5.07168E-001	-8.86571E-005	0.00000E+000	-4.49640E-005	-5.39641E-002	5.07288E-001	3.57180E+000	9	...........
	45	0.613333	5.01698E-001	-8.88770E-005	0.00000E+000	-4.45894E-005	-5.39641E-002	5.01811E-001	3.57180E+000	9	...........
	46	0.626667	4.96235E-001	-8.85207E-005	0.00000E+000	-4.39270E-005	-5.39641E-002	4.96348E-001	3.57180E+000	9	...........
	47	0.64	4.90812E-001	-8.85623E-005	0.00000E+000	-4.34674E-005	-5.39641E-002	4.90918E-001	3.57180E+000	9	...........
	48	0.653333	4.85446E-001	-8.87082E-005	0.00000E+000	-4.30630E-005	-5.39641E-002	4.85533E-001	3.57180E+000	9	...........
	49	0.666667	4.80121E-001	-8.86103E-005	0.00000E+000	-4.25436E-005	-5.39641E-002	4.80181E-001	3.57180E+000	9	...........
	50	0.68	4.74775E-001	-8.89614E-005	0.00000E+000	-4.22367E-005	-5.39641E-002	4.74831E-001	3.57180E+000	9	...........
	51	0.693333	4.69447E-001	-8.86488E-005	0.00000E+000	-4.16159E-005	-5.39641E-002	4.69503E-001	3.57180E+000	9	...........
	52	0.706667	4.64148E-001	-8.85311E-005	0.00000E+000	-4.10915E-005	-5.39641E-002	4.64199E-001	3.57180E+000	9	...........
	53	0.72	4.58876E-001	-8.87280E-005	0.00000E+000	-4.07152E-005	-5.39641E-002	4.58932E-001	3.57180E+000	9	...........
	54	0.733333	4.53627E-001	-8.86415E-005	0.00000E+000	-4.02102E-005	-5.39641E-002	4.53685E-001	3.57180E+000	9	...........
	55	0.746667	4.48399E-001	-8.87072E-005	0.00000E+000	-3.97762E-005	-5.39641E-002	4.48445E-001	3.57180E+000	9	...........
	56	0.76	4.43201E-001	-8.85102E-005	0.00000E+000	-3.92278E-005	-5.39641E-002	4.43252E-001	3.57180E+000	9	...........
	57	0.773333	4.38003E-001	-8.84613E-005	0.00000E+000	-3.87463E-005	-5.39641E-002	4.38051E-001	3.57180E+000	9	...........
	58	0.786667	4.32831E-001	-8.87103E-005	0.00000E+000	-3.83966E-005	-5.39641E-002	4.32879E-001	3.57180E+000	9	...........
	59	0.8	4.27674E-001	-8.90030E-005	0.00000E+000	-3.80643E-005	-5.39641E-002	4.27728E-001	3.57180E+000	9	...........
	60	0.813333	4.22550E-001	-8.87957E-005	0.00000E+000	-3.75207E-005	-5.39641E-002	4.22599E-001	3.57180E+000	9	...........
	61	0.826667	4.17436E-001	-8.86874E-005	0.00000E+000	-3.70213E-005	-5.39641E-002	4.17482E-001	3.57180E+000	9	...........
	62	0.84	4.12341E-001	-8.85436E-005	0.00000E+000	-3.65102E-005	-5.39641E-002	4.12390E-001	3.57180E+000	9	...........
	63	0.853333	4.07261E-001	-8.87811E-005	0.00000E+000	-3.61571E-005	-5.39641E-002	4.07300E-001	3.57180E+000	9	...........
	64	0.866667	4.02218E-001	-8.87186E-005	0.00000E+000	-3.56842E-005	-5.39641E-002	4.02251E-001	3.57180E+000	9	...........
	65	0.88	3.97196E-001	-8.86603E-005	0.00000E+000	-3.52155E-005	-5.39641E-002	3.97231E-001	3.57180E+000	9	...........
	66	0.893333	3.92197E-001	-8.86519E-005	0.00000E+000	-3.47690E-005	-5.39641E-002	3.92232E-001	3.57180E+000	9	...........
	67	0.906667	3.87211E-001	-8.85029E-005	0.00000E+000	-3.42693E-005	-5.39641E-002	3.87254E-001	3.57180E+000	9	...........
	68	0.92	3.82252E-001	-8.86394E-005	0.00000E+000	-3.38826E-005	-5.39641E-002	3.82293E-001	3.57180E+000	9	...........
	69	0.933333	3.77304E-001	-8.87051E-005	0.00000E+000	-3.34688E-005	-5.39641E-002	3.77345E-001	3.57180E+000	9	...........
	70	0.946667	3.72378E-001	-8.89176E-005	0.00000E+000	-3.31110E-005	-5.39641E-002	3.72421E-001	3.57180E+000	9	...........
	71	0.96	3.67497E-001	-8.87968E-005	0.00000E+000	-3.26325E-005	-5.39641E-002	3.67534E-001	3.57180E+000	9	...........
	72	0.97333	3.62618E-001	-8.86728E-005	0.00000E+000	-3.21543E-005	-5.39641E-002	3.62654E-001	3.57180E+000	9	...........
	73	0.98667	3.57747E-001	-8.85665E-005	0.00000E+000	-3.16844E-005	-5.39641E-002	3.57780E-001	3.57180E+000	9	...........
	74	1	3.52885E-001	-8.87280E-005	0.00000E+000	-3.13108E-005	-5.39641E-002	3.52923E-001	3.57180E+000	9	...........
	75	1.01333	3.48038E-001	-8.88020E-005	0.00000E+000	-3.09065E-005	-5.39641E-002	3.48072E-001	3.57180E+000	9	...........
	76	1.02667	3.43190E-001	-8.85936E-005	0.00000E+000	-3.04044E-005	-5.39641E-002	3.43227E-001	3.57180E+000	9	...........
	77	1.04	3.38368E-001	-8.86040E-005	0.00000E+000	-2.99808E-005	-5.39641E-002	3.38405E-001	3.57180E+000	9	...........
	78	1.05333	3.33568E-001	-8.86749E-005	0.00000E+000	-2.95791E-005	-5.39641E-002	3.33601E-001	3.57180E+000	9	...........
	79	1.06667	3.28772E-001	-8.84686E-005	0.00000E+000	-2.90860E-005	-5.39641E-002	3.28815E-001	3.57180E+000	9	...........
	80	1.08	3.24006E-001	-8.84894E-005	0.00000E+000	-2.86711E-005	-5.39641E-002	3.24041E-001	3.57180E+000	9	...........
	81	1.09333	3.19269E-001	-8.87113E-005	0.00000E+000	-2.83228E-005	-5.39641E-002	3.19306E-001	3.57180E+000	9	...........
	82	1.10667	3.14577E-001	-8.87530E-005	0.00000E+000	-2.79197E-005	-5.39641E-002	3.14610E-001	3.57180E+000	9	...........
	83	1.12	3.09899E-001	-8.84863E-005	0.00000E+000	-2.74218E-005	-5.39641E-002	3.09929E-001	3.57180E+000	9	...........
	84	1.13333	3.05243E-001	-8.89020E-005	0.00000E+000	-2.71367E-005	-5.39641E-002	3.05281E-001	3.57180E+000	9	...........
	85	1.14667	3.00604E-001	-8.86228E-005	0.00000E+000	-2.66403E-005	-5.39641E-002	3.00639E-001	3.57180E+000	9	...........
	86	1.16	2.95988E-001	-8.86790E-005	0.00000E+000	-2.62480E-005	-5.39641E-002	2.96025E-001	3.57180E+000	9	...........
	87	1.17333	2.91389E-001	-8.88405E-005	0.00000E+000	-2.58872E-005	-5.39641E-002	2.91418E-001	3.57180E+000	9	...........
	88	1.18667	2.86801E-001	-8.87072E-005	0.00000E+000	-2.54413E-005	-5.39641E-002	2.86829E-001	3.57180E+000	9	...........
	89	1.2	2.82260E-001	-8.85696E-005	0.00000E+000	-2.49997E-005	-5.39641E-002	2.82291E-001	3.57180E+000	9	...........
	90	1.21333	2.77743E-001	-8.85842E-005	0.00000E+000	-2.46036E-005	-5.39641E-002	2.77770E-001	3.57180E+000	9	...........
	91	1.22667	2.73233E-001	-8.85727E-005	0.00000E+000	-2.42010E-005	-5.39641E-002	2.73262E-001	3.57180E+000	9	...........
	92	1.24	2.68755E-001	-8.85686E-005	0.00000E+000	-2.38033E-005	-5.39641E-002	2.68782E-001	3.57180E+000	9	...........
	93	1.25333	2.64278E-001	-8.86780E-005	0.00000E+000	-2.34356E-005	-5.39641E-002	2.64309E-001	3.57180E+000	9	...........
	94	1.26667	2.59846E-001	-8.85134E-005	0.00000E+000	-2.29998E-005	-5.39641E-002	2.59877E-001	3.57180E+000	9	...........
	95	1.28	2.55435E-001	-8.88343E-005	0.00000E+000	-2.26914E-005	-5.39641E-002	2.55464E-001	3.57180E+000	9	...........
	96	1.29333	2.51046E-001	-8.85425E-005	0.00000E+000	-2.22282E-005	-5.39641E-002	2.51078E-001	3.57180E+000	9	...........
	97	1.30667	2.46684E-001	-8.83633E-005	0.00000E+000	-2.17978E-005	-5.39641E-002	2.46708E-001	3.57180E+000	9	...........
	98	1.32	2.42337E-001	-8.86686E-005	0.00000E+000	-2.14877E-005	-5.39641E-002	2.42365E-001	3.57180E+000	9	...........
	99	1.33333	2.37999E-001	-8.86842E-005	0.00000E+000	-2.11067E-005	-5.39641E-002	2.38028E-001	3.57180E+000	9	...........
	100	1.34667	2.33697E-001	-8.88134E-005	0.00000E+000	-2.07555E-005	-5.39641E-002	2.33722E-001	3.57180E+000	9	...........
	101	1.36	2.29403E-001	-8.87728E-005	0.00000E+000	-2.03648E-005	-5.39641E-002	2.29423E-001	3.57180E+000	9	...........
	102	1.37333	2.25117E-001	-8.86947E-005	0.00000E+000	-1.99667E-005	-5.39641E-002	2.25140E-001	3.57180E+000	9	...........
	103	1.38667	2.20851E-001	-8.86759E-005	0.00000E+000	-1.95842E-005	-5.39641E-002	2.20874E-001	3.57180E+000	9	...........
	104	1.4	2.16612E-001	-8.90426E-005	0.00000E+000	-1.92877E-005	-5.39641E-002	2.16627E-001	3.57180E+000	9	...........
	105	1.41333	2.12396E-001	-8.87155E-005	0.00000E+000	-1.88428E-005	-5.39641E-002	2.12418E-001	3.57180E+000	9	...........
	106	1.42667	2.08203E-001	-8.85936E-005	0.00000E+000	-1.84455E-005	-5.39641E-002	2.08223E-001	3.57180E+000	9	...........
	107	1.44	2.04035E-001	-8.87019E-005	0.00000E+000	-1.80983E-005	-5.39641E-002	2.04052E-001	3.57180E+000	9	...........
	108	1.45333	1.99882E-001	-8.89853E-005	0.00000E+000	-1.77866E-005	-5.39641E-002	1.99904E-001	3.57180E+000	9	...........
	109	1.46667	1.95738E-001	-8.86415E-005	0.00000E+000	-1.73505E-005	-5.39641E-002	1.95757E-001	3.57180E+000	9	...........
	110	1.48	1.91601E-001	-8.87228E-005	0.00000E+000	-1.69994E-005	-5.39641E-002	1.91624E-001	3.57180E+000	9	...........
	111	1.49333	1.87508E-001	-8.88332E-005	0.00000E+000	-1.66569E-005	-5.39641E-002	1.87522E-001	3.57180E+000	9	...........
	112	1.50667	1.83411E-001	-8.87186E-005	0.00000E+000	-1.62719E-005	-5.39641E-002	1.83427E-001	3.57180E+000	9	...........
	113	1.52	1.79331E-001	-8.84946E-005	0.00000E+000	-1.58699E-005	-5.39641E-002	1.79355E-001	3.57180E+000	9	...........
	114	1.53333	1.75271E-001	-8.86134E-005	0.00000E+000	-1.55313E-005	-5.39641E-002	1.75294E-001	3.57180E+000	9	...........
	115	1.54667	1.71234E-001	-8.85623E-005	0.00000E+000	-1.51649E-005	-5.39641E-002	1.71253E-001	3.57180E+000	9	...........
	116	1.56	1.67213E-001	-8.87686E-005	0.00000E+000	-1.48432E-005	-5.39641E-002	1.67233E-001	3.57180E+000	9	...........
	117	1.57333	1.63219E-001	-8.88832E-005	0.00000E+000	-1.45074E-005	-5.39641E-002	1.63236E-001	3.57180E+000	9	...........
	118	1.58667	1.59228E-001	-8.88082E-005	0.00000E+000	-1.41408E-005	-5.39641E-002	1.59245E-001	3.57180E+000	9	...........
	119	1.6	1.55242E-001	-8.88770E-005	0.00000E+000	-1.37974E-005	-5.39641E-002	1.55255E-001	3.57180E+000	9	...........
	120	1.61333	1.51274E-001	-8.86155E-005	0.00000E+000	-1.34052E-005	-5.39641E-002	1.51282E-001	3.57180E+000	9	...........
	121	1.62667	1.47330E-001	-8.88124E-005	0.00000E+000	-1.30847E-005	-5.39641E-002	1.47336E-001	3.57180E+000	9	...........
	122	1.64	1.43400E-001	-8.86988E-005	0.00000E+000	-1.27194E-005	-5.39641E-002	1.43415E-001	3.57180E+000	9	...........
	123	1.65333	1.39497E-001	-8.86363E-005	0.00000E+000	-1.23645E-005	-5.39641E-002	1.39509E-001	3.57180E+000	9	...........
	124	1.66667	1.35586E-001	-8.84581E-005	0.00000E+000	-1.19937E-005	-5.39641E-002	1.35597E-001	3.57180E+000	9	...........
	125	1.68	1.31712E-001	-8.86071E-005	0.00000E+000	-1.16706E-005	-5.39641E-002	1.31721E-001	3.57180E+000	9	...........
	126	1.69333	1.27838E-001	-8.89353E-005	0.00000E+000	-1.13693E-005	-5.39641E-002	1.27841E-001	3.57180E+000	9	...........
	127	1.70667	1.23958E-001	-8.87217E-005	0.00000E+000	-1.09977E-005	-5.39641E-002	1.23970E-001	3.57180E+000	9	...........
	128	1.72	1.20118E-001	-8.87165E-005	0.00000E+000	-1.06565E-005	-5.39641E-002	1.20131E-001	3.57180E+000	9	...........
	129	1.73333	1.16311E-001	-8.84040E-005	0.00000E+000	-1.02824E-005	-5.39641E-002	1.16319E-001	3.57180E+000	9	...........
	130	1.74667	1.12491E-001	-8.88103E-005	0.00000E+000	-9.99033E-006	-5.39641E-002	1.12495E-001	3.57180E+000	9	...........
	131	1.76	1.08662E-001	-8.86394E-005	0.00000E+000	-9.63173E-006	-5.39641E-002	1.08669E-001	3.57180E+000	9	...........
	132	1.77333	1.04855E-001	-8.86832E-005	0.00000E+000	-9.29885E-006	-5.39641E-002	1.04857E-001	3.57180E+000	9	...........
	133	1.78667	1.01057E-001	-8.89499E-005	0.00000E+000	-8.98905E-006	-5.39641E-002	1.01063E-001	3.57180E+000	9	...........
	134	1.8	9.72864E-002	-8.88634E-005	0.00000E+000	-8.64520E-006	-5.39641E-002	9.72929E-002	3.57180E+000	9	...........
	135	1.81333	9.35262E-002	-8.84748E-005	0.00000E+000	-8.27472E-006	-5.39641E-002	9.35323E-002	3.57180E+000	9	...........
	136	1.82667	8.97842E-002	-8.86509E-005	0.00000E+000	-7.95945E-006	-5.39641E-002	8.97910E-002	3.57180E+000	9	...........
	137	1.84	8.60665E-002	-8.85332E-005	0.00000E+000	-7.61974E-006	-5.39641E-002	8.60697E-002	3.57180E+000	9	...........
	138	1.85333	8.23472E-002	-8.88311E-005	0.00000E+000	-7.31499E-006	-5.39641E-002	8.23530E-002	3.57180E+000	9	...........
	139	1.86667	7.86055E-002	-8.85925E-005	0.00000E+000	-6.96387E-006	-5.39641E-002	7.86036E-002	3.57180E+000	9	...........
	140	1.88	7.48892E-002	-8.86196E-005	0.00000E+000	-6.63665E-006	-5.39641E-002	7.48910E-002	3.57180E+000	9	...........
	141	1.89333	7.12009E-002	-8.88436E-005	0.00000E+000	-6.32575E-006	-5.39641E-002	7.11965E-002	3.57180E+000	9	...........
	142	1.90667	6.75383E-002	-8.86707E-005	0.00000E+000	-5.98867E-006	-5.39641E-002	6.75346E-002	3.57180E+000	9	...........
	143	1.92	6.38866E-002	-8.85248E-005	0.00000E+000	-5.65555E-006	-5.39641E-002	6.38835E-002	3.57180E+000	9	...........
	144	1.93333	6.02414E-002	-8.87884E-005	0.00000E+000	-5.34874E-006	-5.39641E-002	6.02408E-002	3.57180E+000	9	...........
	145	1.94667	5.66292E-002	-8.87520E-005	0.00000E+000	-5.02596E-006	-5.39641E-002	5.66316E-002	3.57180E+000	9	...........
	146	1.96	5.30364E-002	-8.90645E-005	0.00000E+000	-4.72366E-006	-5.39641E-002	5.30338E-002	3.57180E+000	9	...........
	147	1.97333	4.94472E-002	-8.88520E-005	0.00000E+000	-4.39348E-006	-5.39641E-002	4.94402E-002	3.57180E+000	9	...........
	148	1.98667	4.58747E-002	-8.86405E-005	0.00000E+000	-4.06636E-006	-5.39641E-002	4.58848E-002	3.57180E+000	9	...........
	149	2	4.23100E-002	-8.86123E-005	0.00000E+000	-3.74919E-006	-5.39641E-002	4.23169E-002	3.57180E+000	9	...........
	150	2.01333	3.87872E-002	-8.89499E-005	0.00000E+000	-3.45012E-006	-5.39641E-002	3.87872E-002	3.57180E+000	9	...........
	151	2.02667	3.53028E-002	-8.89905E-005	0.00000E+000	-3.14162E-006	-5.39641E-002	3.53050E-002	3.57180E+000	9	...........
	152	2.04	3.18370E-002	-8.87103E-005	0.00000E+000	-2.82427E-006	-5.39641E-002	3.18382E-002	3.57180E+000	9	...........
	153	2.05333	2.83774E-002	-8.89968E-005	0.00000E+000	-2.52550E-006	-5.39641E-002	2.83766E-002	3.57180E+000	9	...........
	154	2.06667	2.49240E-002	-8.87134E-005	0.00000E+000	-2.21109E-006	-5.39641E-002	2.49229E-002	3.57180E+000	9	...........
	155	2.08	2.14793E-002	-8.87572E-005	0.00000E+000	-1.90645E-006	-5.39641E-002	2.14767E-002	3.57180E+000	9	...........
	156	2.09333	1.80956E-002	-8.88166E-005	0.00000E+000	-1.60719E-006	-5.39641E-002	1.80904E-002	3.57180E+000	9	...........
	157	2.10667	1.47296E-002	-8.86488E-005	0.00000E+000	-1.30576E-006	-5.39641E-002	1.47225E-002	3.57180E+000	9	...........
	158	2.12	1.13393E-002	-8.87082E-005	0.00000E+000	-1.00589E-006	-5.39641E-002	1.13305E-002	3.57180E+000	9	...........
	159	2.13333	7.97764E-003	-8.88332E-005	0.00000E+000	-7.08680E-007	-5.39641E-002	7.96554E-003	3.57180E+000	9	...........
	160	2.14667	4.64129E-003	-8.87520E-005	0.00000E+000	-4.11924E-007	-5.39641E-002	4.63181E-003	3.57180E+000	9	...........
	161	2.16	1.32061E-003	-8.84904E-005	0.00000E+000	-1.16861E-007	-5.39641E-002	1.30907E-003	3.57180E+000	9	...........
STARTTIMEOFFSET	QUANT	755.3248	Start Time Offset (s)
