EXPLAIN
TAG	PWR800_DISCHARGE
TITLE	LABEL	PWR Cyclic Charge Discharge (Cell) - Discharge Step	Test &Identifier
DATE	LABEL	10-7-2017	Date
TIME	LABEL	15:31:29	Time
NOTES	NOTES	3	&Notes...
	supercap test cell
	0.9mg
	6M KOH
PSTAT	PSTAT	IFC5000-01520	Potentiostat
CAPACITY	QUANT	1.00000E-003	Capacity (A-hr)
CELLTYPE	SELECTOR	1	&Cell Type
WORKINGCONNECTION	SELECTOR	0	&Working Lead
MAXDISCHARGETIME	VARIABLEANDUNITS	1.00000E+002	s	1.00000E+002	second(s)	Max &Discharge Time
DISCHARGEMODE	MULTIPARAM	0	9.00000E-005	&Discharge Mode	Constant Current	Amp(s)
SAMPLETIME	QUANT	1.00000E-002	Sa&mple Period (s)
DISCHARGESTOPAT1	MULTIPARAM	3	0.00000E+000	Discharge Stop At &1	Voltage < Limit	V
DISCHARGESTOPAT2	MULTIPARAM	0	0.00000E+000	Discharge Stop At &2	None	N/A
AESBHCSELECTOR	TOGGLE	F	Save Both Half Cells
IRCOMP	TOGGLE	F	IR &Measure
EOC	QUANT	0	Open Circuit (V)
SEQUENCER	TOGGLE	TRUE	Run as Sequence
PSTATMODEL	IQUANT	53	Pstat Model
PSTATSECTION	LABEL	IFC5000-01520	Pstat Section
PSTATSERIALNO	LABEL	01520	Pstat Serial Number
CTRLMODE	IQUANT	0	Control Mode
ELECTROMETER	IQUANT	1	RE=0 or CS=1
IESTAB	IQUANT	0	I/E Stability
CASPEED	IQUANT	4	Control Amp Speed
CONVENTION	IQUANT	1	Current Convention
ICHRANGE	IQUANT	2	Ich Range
ICHRANGEMODE	TOGGLE	T	Ich Auto Range
ICHOFFSETENABLE	TOGGLE	F	Ich Offset Enable
ICHOFFSET	QUANT	0	Ich Offset (V)
ICHFILTER	IQUANT	1	Ich Filter
VCHRANGE	IQUANT	2	Vch Range
VCHRANGEMODE	TOGGLE	T	Vch Auto Range
VCHOFFSETENABLE	TOGGLE	F	Vch Offset Enable
VCHOFFSET	QUANT	0	Vch Offset (V)
VCHFILTER	IQUANT	1	Vch Filter
IERANGELOWERLIMIT	IQUANT	9	I/E Range Lower Limit
IERANGEMODE	TOGGLE	F	I/E AutoRange
IERANGE	IQUANT	9	I/E Range
ACHSELECT	IQUANT	1	Ach Select
ACHRANGE	IQUANT	2	Ach Range
ACHOFFSETENABLE	TOGGLE	F	Ach Offset Enable
ACHOFFSET	QUANT	0	Ach Offset (V)
ACHFILTER	IQUANT	1	Ach Filter
CABLEID	IQUANT	14	Cable ID
DCCALDATE	LABEL	5-7-2017	DC Calibration Date
ACCALDATE	LABEL	12/3/2015	AC Calibration Date
FRAMEWORKVERSION	QUANT	7.01	Framework Version
INSTRUMENTVERSION	LABEL	4.00	Instrument Version
CURVE	TABLE	155
	Pt	T	Vf	Im	Vu	Pwr	Sig	Ach	Temp	IERange	Over
	#	s	V	A	V	W	V	V	deg C	#	bits
	0	0.013333	8.13487E-001	-8.85978E-005	0.00000E+000	-7.20731E-005	-5.39641E-002	8.13642E-001	3.57290E+000	9	...........
	1	0.026667	8.00407E-001	-8.85321E-005	0.00000E+000	-7.08618E-005	-5.39641E-002	8.00536E-001	3.57290E+000	9	...........
	2	0.04	7.88145E-001	-8.86957E-005	0.00000E+000	-6.99051E-005	-5.39641E-002	7.88286E-001	3.57290E+000	9	...........
	3	0.053333	7.76555E-001	-8.88072E-005	0.00000E+000	-6.89636E-005	-5.39641E-002	7.76682E-001	3.57290E+000	9	...........
	4	0.066667	7.65503E-001	-8.86186E-005	0.00000E+000	-6.78378E-005	-5.39641E-002	7.65632E-001	3.57290E+000	9	...........
	5	0.08	7.54968E-001	-8.89082E-005	0.00000E+000	-6.71229E-005	-5.39641E-002	7.55051E-001	3.57290E+000	9	...........
	6	0.093333	7.44851E-001	-8.87405E-005	0.00000E+000	-6.60984E-005	-5.39641E-002	7.44919E-001	3.57290E+000	9	...........
	7	0.106667	7.35053E-001	-8.88395E-005	0.00000E+000	-6.53017E-005	-5.39641E-002	7.35100E-001	3.57290E+000	9	...........
	8	0.12	7.25611E-001	-8.89207E-005	0.00000E+000	-6.45219E-005	-5.39641E-002	7.25635E-001	3.57290E+000	9	...........
	9	0.133333	7.16401E-001	-8.90572E-005	0.00000E+000	-6.38007E-005	-5.39641E-002	7.16460E-001	3.57290E+000	9	...........
	10	0.146667	7.07489E-001	-8.89270E-005	0.00000E+000	-6.29149E-005	-5.39641E-002	7.07555E-001	3.57290E+000	9	...........
	11	0.16	6.98831E-001	-8.88332E-005	0.00000E+000	-6.20794E-005	-5.39641E-002	6.98903E-001	3.57290E+000	9	...........
	12	0.173333	6.90408E-001	-8.88770E-005	0.00000E+000	-6.13614E-005	-5.39641E-002	6.90480E-001	3.57290E+000	9	...........
	13	0.186667	6.82185E-001	-8.87176E-005	0.00000E+000	-6.05218E-005	-5.39641E-002	6.82273E-001	3.57290E+000	9	...........
	14	0.2	6.74157E-001	-8.86717E-005	0.00000E+000	-5.97787E-005	-5.39641E-002	6.74272E-001	3.57290E+000	9	...........
	15	0.213333	6.66330E-001	-8.86676E-005	0.00000E+000	-5.90819E-005	-5.39641E-002	6.66434E-001	3.57290E+000	9	...........
	16	0.226667	6.58624E-001	-8.86749E-005	0.00000E+000	-5.84033E-005	-5.39641E-002	6.58695E-001	3.57290E+000	9	...........
	17	0.24	6.51120E-001	-8.85561E-005	0.00000E+000	-5.76606E-005	-5.39641E-002	6.51189E-001	3.57290E+000	9	...........
	18	0.253333	6.43747E-001	-8.87040E-005	0.00000E+000	-5.71029E-005	-5.39641E-002	6.43781E-001	3.57290E+000	9	...........
	19	0.266667	6.36473E-001	-8.86436E-005	0.00000E+000	-5.64193E-005	-5.39641E-002	6.36533E-001	3.57290E+000	9	...........
	20	0.28	6.29380E-001	-8.87332E-005	0.00000E+000	-5.58469E-005	-5.39641E-002	6.29443E-001	3.57290E+000	9	...........
	21	0.293333	6.22409E-001	-8.89405E-005	0.00000E+000	-5.53574E-005	-5.39641E-002	6.22474E-001	3.57290E+000	9	...........
	22	0.306667	6.15503E-001	-8.87363E-005	0.00000E+000	-5.46174E-005	-5.39641E-002	6.15592E-001	3.57290E+000	9	...........
	23	0.32	6.08688E-001	-8.88499E-005	0.00000E+000	-5.40818E-005	-5.39641E-002	6.08800E-001	3.57290E+000	9	...........
	24	0.333333	6.02059E-001	-8.87540E-005	0.00000E+000	-5.34352E-005	-5.39641E-002	6.02178E-001	3.57237E+000	9	...........
	25	0.346667	5.95497E-001	-8.89082E-005	0.00000E+000	-5.29445E-005	-5.39641E-002	5.95587E-001	3.57230E+000	9	...........
	26	0.36	5.89027E-001	-8.85738E-005	0.00000E+000	-5.21723E-005	-5.39641E-002	5.89140E-001	3.57230E+000	9	...........
	27	0.373333	5.82607E-001	-8.86103E-005	0.00000E+000	-5.16249E-005	-5.39641E-002	5.82746E-001	3.57230E+000	9	...........
	28	0.386667	5.76339E-001	-8.85998E-005	0.00000E+000	-5.10636E-005	-5.39641E-002	5.76443E-001	3.57230E+000	9	...........
	29	0.4	5.70082E-001	-8.88614E-005	0.00000E+000	-5.06583E-005	-5.39641E-002	5.70181E-001	3.57230E+000	9	...........
	30	0.413333	5.63906E-001	-8.88343E-005	0.00000E+000	-5.00942E-005	-5.39641E-002	5.64023E-001	3.57230E+000	9	...........
	31	0.426667	5.57785E-001	-8.88239E-005	0.00000E+000	-4.95446E-005	-5.39641E-002	5.57905E-001	3.57230E+000	9	...........
	32	0.44	5.51783E-001	-8.85082E-005	0.00000E+000	-4.88373E-005	-5.39641E-002	5.51882E-001	3.57230E+000	9	...........
	33	0.453333	5.45832E-001	-8.89114E-005	0.00000E+000	-4.85307E-005	-5.39641E-002	5.45906E-001	3.57230E+000	9	...........
	34	0.466667	5.39935E-001	-8.86155E-005	0.00000E+000	-4.78466E-005	-5.39641E-002	5.40045E-001	3.57230E+000	9	...........
	35	0.48	5.34054E-001	-8.87790E-005	0.00000E+000	-4.74128E-005	-5.39641E-002	5.34151E-001	3.57230E+000	9	...........
	36	0.493333	5.28273E-001	-8.85853E-005	0.00000E+000	-4.67972E-005	-5.39641E-002	5.28364E-001	3.57230E+000	9	...........
	37	0.506667	5.22545E-001	-8.88020E-005	0.00000E+000	-4.64030E-005	-5.39641E-002	5.22615E-001	3.57230E+000	9	...........
	38	0.52	5.16829E-001	-8.88416E-005	0.00000E+000	-4.59159E-005	-5.39641E-002	5.16896E-001	3.57230E+000	9	...........
	39	0.533333	5.11133E-001	-8.88686E-005	0.00000E+000	-4.54237E-005	-5.39641E-002	5.11224E-001	3.57230E+000	9	...........
	40	0.546667	5.05482E-001	-8.88426E-005	0.00000E+000	-4.49083E-005	-5.39641E-002	5.05601E-001	3.57230E+000	9	...........
	41	0.56	4.99909E-001	-8.87634E-005	0.00000E+000	-4.43736E-005	-5.39641E-002	5.00058E-001	3.57230E+000	9	...........
	42	0.573333	4.94412E-001	-8.87905E-005	0.00000E+000	-4.38991E-005	-5.39641E-002	4.94548E-001	3.57230E+000	9	...........
	43	0.586667	4.88900E-001	-8.87019E-005	0.00000E+000	-4.33663E-005	-5.39641E-002	4.89035E-001	3.57230E+000	9	...........
	44	0.6	4.83512E-001	-8.88489E-005	0.00000E+000	-4.29595E-005	-5.39641E-002	4.83598E-001	3.57230E+000	9	...........
	45	0.613333	4.78111E-001	-8.85280E-005	0.00000E+000	-4.23261E-005	-5.39641E-002	4.78168E-001	3.57230E+000	9	...........
	46	0.626667	4.72698E-001	-8.86373E-005	0.00000E+000	-4.18987E-005	-5.39641E-002	4.72758E-001	3.57230E+000	9	...........
	47	0.64	4.67324E-001	-8.89978E-005	0.00000E+000	-4.15909E-005	-5.39641E-002	4.67382E-001	3.57230E+000	9	...........
	48	0.653333	4.61986E-001	-8.86686E-005	0.00000E+000	-4.09636E-005	-5.39641E-002	4.62043E-001	3.57230E+000	9	...........
	49	0.666667	4.56695E-001	-8.87738E-005	0.00000E+000	-4.05426E-005	-5.39641E-002	4.56753E-001	3.57230E+000	9	...........
	50	0.68	4.51436E-001	-8.89187E-005	0.00000E+000	-4.01410E-005	-5.39641E-002	4.51495E-001	3.57230E+000	9	...........
	51	0.693333	4.46178E-001	-8.85978E-005	0.00000E+000	-3.95304E-005	-5.39641E-002	4.46240E-001	3.57230E+000	9	...........
	52	0.706667	4.40934E-001	-8.86884E-005	0.00000E+000	-3.91057E-005	-5.39641E-002	4.40995E-001	3.57230E+000	9	...........
	53	0.72	4.35708E-001	-8.84957E-005	0.00000E+000	-3.85583E-005	-5.39641E-002	4.35765E-001	3.57230E+000	9	...........
	54	0.733333	4.30518E-001	-8.86624E-005	0.00000E+000	-3.81708E-005	-5.39641E-002	4.30570E-001	3.57230E+000	9	...........
	55	0.746667	4.25359E-001	-8.86134E-005	0.00000E+000	-3.76925E-005	-5.39641E-002	4.25406E-001	3.57230E+000	9	...........
	56	0.76	4.20212E-001	-8.86790E-005	0.00000E+000	-3.72640E-005	-5.39641E-002	4.20266E-001	3.57230E+000	9	...........
	57	0.773333	4.15070E-001	-8.86769E-005	0.00000E+000	-3.68071E-005	-5.39641E-002	4.15123E-001	3.57230E+000	9	...........
	58	0.786667	4.09956E-001	-8.87509E-005	0.00000E+000	-3.63840E-005	-5.39641E-002	4.10004E-001	3.57230E+000	9	...........
	59	0.8	4.04842E-001	-8.88395E-005	0.00000E+000	-3.59660E-005	-5.39641E-002	4.04894E-001	3.57230E+000	9	...........
	60	0.813333	3.99753E-001	-8.88947E-005	0.00000E+000	-3.55359E-005	-5.39641E-002	3.99798E-001	3.57230E+000	9	...........
	61	0.826667	3.94686E-001	-8.85634E-005	0.00000E+000	-3.49547E-005	-5.39641E-002	3.94728E-001	3.57230E+000	9	...........
	62	0.84	3.89628E-001	-8.85978E-005	0.00000E+000	-3.45201E-005	-5.39641E-002	3.89665E-001	3.57230E+000	9	...........
	63	0.853333	3.84567E-001	-8.89853E-005	0.00000E+000	-3.42208E-005	-5.39641E-002	3.84610E-001	3.57230E+000	9	...........
	64	0.866667	3.79548E-001	-8.85530E-005	0.00000E+000	-3.36101E-005	-5.39641E-002	3.79592E-001	3.57230E+000	9	...........
	65	0.88	3.74552E-001	-8.86426E-005	0.00000E+000	-3.32013E-005	-5.39641E-002	3.74595E-001	3.57230E+000	9	...........
	66	0.893333	3.69568E-001	-8.85092E-005	0.00000E+000	-3.27102E-005	-5.39641E-002	3.69608E-001	3.57230E+000	9	...........
	67	0.906667	3.64587E-001	-8.87436E-005	0.00000E+000	-3.23548E-005	-5.39641E-002	3.64631E-001	3.57230E+000	9	...........
	68	0.92	3.59624E-001	-8.88645E-005	0.00000E+000	-3.19578E-005	-5.39641E-002	3.59669E-001	3.57230E+000	9	...........
	69	0.933333	3.54674E-001	-8.89635E-005	0.00000E+000	-3.15530E-005	-5.39641E-002	3.54715E-001	3.57230E+000	9	...........
	70	0.946667	3.49742E-001	-8.88041E-005	0.00000E+000	-3.10585E-005	-5.39641E-002	3.49781E-001	3.57230E+000	9	...........
	71	0.96	3.44814E-001	-8.87905E-005	0.00000E+000	-3.06162E-005	-5.39641E-002	3.44862E-001	3.57230E+000	9	...........
	72	0.97333	3.39930E-001	-8.89103E-005	0.00000E+000	-3.02233E-005	-5.39641E-002	3.39966E-001	3.57230E+000	9	...........
	73	0.98667	3.35051E-001	-8.87197E-005	0.00000E+000	-2.97256E-005	-5.39641E-002	3.35086E-001	3.57230E+000	9	...........
	74	1	3.30202E-001	-8.86061E-005	0.00000E+000	-2.92579E-005	-5.39641E-002	3.30245E-001	3.57230E+000	9	...........
	75	1.01333	3.25363E-001	-8.88155E-005	0.00000E+000	-2.88973E-005	-5.39641E-002	3.25395E-001	3.57230E+000	9	...........
	76	1.02667	3.20534E-001	-8.87718E-005	0.00000E+000	-2.84543E-005	-5.39641E-002	3.20571E-001	3.57230E+000	9	...........
	77	1.04	3.15718E-001	-8.87551E-005	0.00000E+000	-2.80216E-005	-5.39641E-002	3.15758E-001	3.57230E+000	9	...........
	78	1.05333	3.10918E-001	-8.88582E-005	0.00000E+000	-2.76276E-005	-5.39641E-002	3.10953E-001	3.57230E+000	9	...........
	79	1.06667	3.06127E-001	-8.88999E-005	0.00000E+000	-2.72147E-005	-5.39641E-002	3.06165E-001	3.57230E+000	9	...........
	80	1.08	3.01364E-001	-8.85727E-005	0.00000E+000	-2.66926E-005	-5.39641E-002	3.01401E-001	3.57230E+000	9	...........
	81	1.09333	2.96613E-001	-8.85519E-005	0.00000E+000	-2.62657E-005	-5.39641E-002	2.96651E-001	3.57230E+000	9	...........
	82	1.10667	2.91875E-001	-8.87530E-005	0.00000E+000	-2.59047E-005	-5.39641E-002	2.91910E-001	3.57230E+000	9	...........
	83	1.12	2.87151E-001	-8.88322E-005	0.00000E+000	-2.55082E-005	-5.39641E-002	2.87188E-001	3.57230E+000	9	...........
	84	1.13333	2.82461E-001	-8.85217E-005	0.00000E+000	-2.50039E-005	-5.39641E-002	2.82498E-001	3.57230E+000	9	...........
	85	1.14667	2.77780E-001	-8.87603E-005	0.00000E+000	-2.46558E-005	-5.39641E-002	2.77812E-001	3.57230E+000	9	...........
	86	1.16	2.73115E-001	-8.86280E-005	0.00000E+000	-2.42056E-005	-5.39641E-002	2.73147E-001	3.57230E+000	9	...........
	87	1.17333	2.68466E-001	-8.84311E-005	0.00000E+000	-2.37407E-005	-5.39641E-002	2.68496E-001	3.57230E+000	9	...........
	88	1.18667	2.63826E-001	-8.89416E-005	0.00000E+000	-2.34651E-005	-5.39641E-002	2.63863E-001	3.57230E+000	9	...........
	89	1.2	2.59221E-001	-8.83998E-005	0.00000E+000	-2.29151E-005	-5.39641E-002	2.59258E-001	3.57230E+000	9	...........
	90	1.21333	2.54643E-001	-8.89134E-005	0.00000E+000	-2.26412E-005	-5.39641E-002	2.54676E-001	3.57230E+000	9	...........
	91	1.22667	2.50094E-001	-8.85175E-005	0.00000E+000	-2.21377E-005	-5.39641E-002	2.50125E-001	3.57230E+000	9	...........
	92	1.24	2.45559E-001	-8.88822E-005	0.00000E+000	-2.18258E-005	-5.39641E-002	2.45589E-001	3.57230E+000	9	...........
	93	1.25333	2.41040E-001	-8.86207E-005	0.00000E+000	-2.13611E-005	-5.39641E-002	2.41064E-001	3.57230E+000	9	...........
	94	1.26667	2.36533E-001	-8.89009E-005	0.00000E+000	-2.10280E-005	-5.39641E-002	2.36559E-001	3.57230E+000	9	...........
	95	1.28	2.32053E-001	-8.86551E-005	0.00000E+000	-2.05727E-005	-5.39641E-002	2.32081E-001	3.57230E+000	9	...........
	96	1.29333	2.27594E-001	-8.89655E-005	0.00000E+000	-2.02480E-005	-5.39641E-002	2.27624E-001	3.57230E+000	9	...........
	97	1.30667	2.23154E-001	-8.87447E-005	0.00000E+000	-1.98037E-005	-5.39641E-002	2.23187E-001	3.57230E+000	9	...........
	98	1.32	2.18745E-001	-8.85832E-005	0.00000E+000	-1.93772E-005	-5.39641E-002	2.18770E-001	3.57230E+000	9	...........
	99	1.33333	2.14344E-001	-8.86332E-005	0.00000E+000	-1.89980E-005	-5.39641E-002	2.14368E-001	3.57239E+000	9	...........
	100	1.34667	2.09974E-001	-8.88374E-005	0.00000E+000	-1.86535E-005	-5.39641E-002	2.09998E-001	3.57240E+000	9	...........
	101	1.36	2.05635E-001	-8.89259E-005	0.00000E+000	-1.82863E-005	-5.39641E-002	2.05658E-001	3.57240E+000	9	...........
	102	1.37333	2.01325E-001	-8.88426E-005	0.00000E+000	-1.78862E-005	-5.39641E-002	2.01347E-001	3.57240E+000	9	...........
	103	1.38667	1.97044E-001	-8.88489E-005	0.00000E+000	-1.75071E-005	-5.39641E-002	1.97069E-001	3.57240E+000	9	...........
	104	1.4	1.92750E-001	-8.86259E-005	0.00000E+000	-1.70826E-005	-5.39641E-002	1.92777E-001	3.57240E+000	9	...........
	105	1.41333	1.88478E-001	-8.89583E-005	0.00000E+000	-1.67667E-005	-5.39641E-002	1.88501E-001	3.57240E+000	9	...........
	106	1.42667	1.84219E-001	-8.88405E-005	0.00000E+000	-1.63661E-005	-5.39641E-002	1.84240E-001	3.57240E+000	9	...........
	107	1.44	1.79984E-001	-8.85727E-005	0.00000E+000	-1.59417E-005	-5.39641E-002	1.80008E-001	3.57240E+000	9	...........
	108	1.45333	1.75768E-001	-8.88426E-005	0.00000E+000	-1.56157E-005	-5.39641E-002	1.75787E-001	3.57240E+000	9	...........
	109	1.46667	1.71552E-001	-8.87707E-005	0.00000E+000	-1.52288E-005	-5.39641E-002	1.71571E-001	3.57240E+000	9	...........
	110	1.48	1.67358E-001	-8.89332E-005	0.00000E+000	-1.48837E-005	-5.39641E-002	1.67373E-001	3.57240E+000	9	...........
	111	1.49333	1.63197E-001	-8.84779E-005	0.00000E+000	-1.44393E-005	-5.39641E-002	1.63206E-001	3.57240E+000	9	...........
	112	1.50667	1.59032E-001	-8.89749E-005	0.00000E+000	-1.41499E-005	-5.39641E-002	1.59044E-001	3.57240E+000	9	...........
	113	1.52	1.54912E-001	-8.87582E-005	0.00000E+000	-1.37497E-005	-5.39641E-002	1.54919E-001	3.57240E+000	9	...........
	114	1.53333	1.50799E-001	-8.86478E-005	0.00000E+000	-1.33680E-005	-5.39641E-002	1.50814E-001	3.57240E+000	9	...........
	115	1.54667	1.46714E-001	-8.88957E-005	0.00000E+000	-1.30423E-005	-5.39641E-002	1.46730E-001	3.57240E+000	9	...........
	116	1.56	1.42656E-001	-8.89197E-005	0.00000E+000	-1.26849E-005	-5.39641E-002	1.42668E-001	3.57240E+000	9	...........
	117	1.57333	1.38603E-001	-8.88843E-005	0.00000E+000	-1.23196E-005	-5.39641E-002	1.38617E-001	3.57240E+000	9	...........
	118	1.58667	1.34570E-001	-8.88134E-005	0.00000E+000	-1.19516E-005	-5.39641E-002	1.34582E-001	3.57240E+000	9	...........
	119	1.6	1.30543E-001	-8.86780E-005	0.00000E+000	-1.15763E-005	-5.39641E-002	1.30554E-001	3.57240E+000	9	...........
	120	1.61333	1.26529E-001	-8.85227E-005	0.00000E+000	-1.12007E-005	-5.39641E-002	1.26545E-001	3.57240E+000	9	...........
	121	1.62667	1.22549E-001	-8.89176E-005	0.00000E+000	-1.08967E-005	-5.39641E-002	1.22558E-001	3.57240E+000	9	...........
	122	1.64	1.18572E-001	-8.86999E-005	0.00000E+000	-1.05174E-005	-5.39641E-002	1.18587E-001	3.57240E+000	9	...........
	123	1.65333	1.14619E-001	-8.85363E-005	0.00000E+000	-1.01480E-005	-5.39641E-002	1.14634E-001	3.57240E+000	9	...........
	124	1.66667	1.10668E-001	-8.90103E-005	0.00000E+000	-9.85061E-006	-5.39641E-002	1.10679E-001	3.57240E+000	9	...........
	125	1.68	1.06731E-001	-8.89082E-005	0.00000E+000	-9.48925E-006	-5.39641E-002	1.06739E-001	3.57240E+000	9	...........
	126	1.69333	1.02824E-001	-8.88238E-005	0.00000E+000	-9.13321E-006	-5.39641E-002	1.02836E-001	3.57240E+000	9	...........
	127	1.70667	9.89224E-002	-8.90083E-005	0.00000E+000	-8.80491E-006	-5.39641E-002	9.89312E-002	3.57240E+000	9	...........
	128	1.72	9.50480E-002	-8.87780E-005	0.00000E+000	-8.43817E-006	-5.39641E-002	9.50559E-002	3.57240E+000	9	...........
	129	1.73333	9.11865E-002	-8.86571E-005	0.00000E+000	-8.08434E-006	-5.39641E-002	9.11919E-002	3.57240E+000	9	...........
	130	1.74667	8.73312E-002	-8.84581E-005	0.00000E+000	-7.72515E-006	-5.39641E-002	8.73412E-002	3.57240E+000	9	...........
	131	1.76	8.34978E-002	-8.87186E-005	0.00000E+000	-7.40781E-006	-5.39641E-002	8.35066E-002	3.57240E+000	9	...........
	132	1.77333	7.96942E-002	-8.87301E-005	0.00000E+000	-7.07127E-006	-5.39641E-002	7.96955E-002	3.57240E+000	9	...........
	133	1.78667	7.59012E-002	-8.84790E-005	0.00000E+000	-6.71566E-006	-5.39641E-002	7.59061E-002	3.57240E+000	9	...........
	134	1.8	7.21244E-002	-8.86655E-005	0.00000E+000	-6.39495E-006	-5.39641E-002	7.21232E-002	3.57240E+000	9	...........
	135	1.81333	6.83644E-002	-8.88280E-005	0.00000E+000	-6.07267E-006	-5.39641E-002	6.83646E-002	3.57240E+000	9	...........
	136	1.82667	6.46136E-002	-8.88155E-005	0.00000E+000	-5.73869E-006	-5.39641E-002	6.46137E-002	3.57240E+000	9	...........
	137	1.84	6.08842E-002	-8.88457E-005	0.00000E+000	-5.40930E-006	-5.39641E-002	6.08875E-002	3.57240E+000	9	...........
	138	1.85333	5.71606E-002	-8.88040E-005	0.00000E+000	-5.07609E-006	-5.39641E-002	5.71613E-002	3.57240E+000	9	...........
	139	1.86667	5.34476E-002	-8.89280E-005	0.00000E+000	-4.75299E-006	-5.39641E-002	5.34464E-002	3.57240E+000	9	...........
	140	1.88	4.97641E-002	-8.87384E-005	0.00000E+000	-4.41599E-006	-5.39641E-002	4.97636E-002	3.57240E+000	9	...........
	141	1.89333	4.61049E-002	-8.87197E-005	0.00000E+000	-4.09041E-006	-5.39641E-002	4.61121E-002	3.57240E+000	9	...........
	142	1.90667	4.24448E-002	-8.87499E-005	0.00000E+000	-3.76697E-006	-5.39641E-002	4.24521E-002	3.57240E+000	9	...........
	143	1.92	3.87930E-002	-8.88499E-005	0.00000E+000	-3.44676E-006	-5.39641E-002	3.87991E-002	3.57240E+000	9	...........
	144	1.93333	3.51689E-002	-8.87717E-005	0.00000E+000	-3.12201E-006	-5.39641E-002	3.51675E-002	3.57240E+000	9	...........
	145	1.94667	3.15793E-002	-8.88614E-005	0.00000E+000	-2.80618E-006	-5.39641E-002	3.15737E-002	3.57240E+000	9	...........
	146	1.96	2.79946E-002	-8.88384E-005	0.00000E+000	-2.48700E-006	-5.39641E-002	2.79944E-002	3.57240E+000	9	...........
	147	1.97333	2.44183E-002	-8.85311E-005	0.00000E+000	-2.16177E-006	-5.39641E-002	2.44163E-002	3.57240E+000	9	...........
	148	1.98667	2.08613E-002	-8.88655E-005	0.00000E+000	-1.85385E-006	-5.39641E-002	2.08586E-002	3.57240E+000	9	...........
	149	2	1.73279E-002	-8.88457E-005	0.00000E+000	-1.53951E-006	-5.39641E-002	1.73206E-002	3.57240E+000	9	...........
	150	2.01333	1.37939E-002	-8.88030E-005	0.00000E+000	-1.22494E-006	-5.39641E-002	1.37857E-002	3.57240E+000	9	...........
	151	2.02667	1.02777E-002	-8.88061E-005	0.00000E+000	-9.12723E-007	-5.39641E-002	1.02640E-002	3.57240E+000	9	...........
	152	2.04	6.79160E-003	-8.88239E-005	0.00000E+000	-6.03256E-007	-5.39641E-002	6.78096E-003	3.57240E+000	9	...........
	153	2.05333	3.30866E-003	-8.88280E-005	0.00000E+000	-2.93902E-007	-5.39641E-002	3.30110E-003	3.57240E+000	9	...........
	154	2.06167	5.06103E-004	-8.87765E-005	0.00000E+000	-4.49301E-008	-5.39641E-002	4.95009E-004	3.57240E+000	9	...........
STARTTIMEOFFSET	QUANT	1633.596	Start Time Offset (s)
