EXPLAIN
TAG	PWR800_DISCHARGE
TITLE	LABEL	PWR Cyclic Charge Discharge (Cell) - Discharge Step	Test &Identifier
DATE	LABEL	10-7-2017	Date
TIME	LABEL	15:16:12	Time
NOTES	NOTES	3	&Notes...
	supercap test cell
	0.9mg
	6M KOH
PSTAT	PSTAT	IFC5000-01520	Potentiostat
CAPACITY	QUANT	1.00000E-003	Capacity (A-hr)
CELLTYPE	SELECTOR	1	&Cell Type
WORKINGCONNECTION	SELECTOR	0	&Working Lead
MAXDISCHARGETIME	VARIABLEANDUNITS	1.00000E+002	s	1.00000E+002	second(s)	Max &Discharge Time
DISCHARGEMODE	MULTIPARAM	0	9.00000E-005	&Discharge Mode	Constant Current	Amp(s)
SAMPLETIME	QUANT	1.00000E-002	Sa&mple Period (s)
DISCHARGESTOPAT1	MULTIPARAM	3	0.00000E+000	Discharge Stop At &1	Voltage < Limit	V
DISCHARGESTOPAT2	MULTIPARAM	0	0.00000E+000	Discharge Stop At &2	None	N/A
AESBHCSELECTOR	TOGGLE	F	Save Both Half Cells
IRCOMP	TOGGLE	F	IR &Measure
EOC	QUANT	0	Open Circuit (V)
SEQUENCER	TOGGLE	TRUE	Run as Sequence
PSTATMODEL	IQUANT	53	Pstat Model
PSTATSECTION	LABEL	IFC5000-01520	Pstat Section
PSTATSERIALNO	LABEL	01520	Pstat Serial Number
CTRLMODE	IQUANT	0	Control Mode
ELECTROMETER	IQUANT	1	RE=0 or CS=1
IESTAB	IQUANT	0	I/E Stability
CASPEED	IQUANT	4	Control Amp Speed
CONVENTION	IQUANT	1	Current Convention
ICHRANGE	IQUANT	2	Ich Range
ICHRANGEMODE	TOGGLE	T	Ich Auto Range
ICHOFFSETENABLE	TOGGLE	F	Ich Offset Enable
ICHOFFSET	QUANT	0	Ich Offset (V)
ICHFILTER	IQUANT	1	Ich Filter
VCHRANGE	IQUANT	2	Vch Range
VCHRANGEMODE	TOGGLE	T	Vch Auto Range
VCHOFFSETENABLE	TOGGLE	F	Vch Offset Enable
VCHOFFSET	QUANT	0	Vch Offset (V)
VCHFILTER	IQUANT	1	Vch Filter
IERANGELOWERLIMIT	IQUANT	9	I/E Range Lower Limit
IERANGEMODE	TOGGLE	F	I/E AutoRange
IERANGE	IQUANT	9	I/E Range
ACHSELECT	IQUANT	1	Ach Select
ACHRANGE	IQUANT	2	Ach Range
ACHOFFSETENABLE	TOGGLE	F	Ach Offset Enable
ACHOFFSET	QUANT	0	Ach Offset (V)
ACHFILTER	IQUANT	1	Ach Filter
CABLEID	IQUANT	14	Cable ID
DCCALDATE	LABEL	5-7-2017	DC Calibration Date
ACCALDATE	LABEL	12/3/2015	AC Calibration Date
FRAMEWORKVERSION	QUANT	7.01	Framework Version
INSTRUMENTVERSION	LABEL	4.00	Instrument Version
CURVE	TABLE	161
	Pt	T	Vf	Im	Vu	Pwr	Sig	Ach	Temp	IERange	Over
	#	s	V	A	V	W	V	V	deg C	#	bits
	0	0.013333	8.26967E-001	-8.87165E-005	0.00000E+000	-7.33656E-005	-5.39641E-002	8.27151E-001	3.57180E+000	9	...........
	1	0.026667	8.14587E-001	-8.86238E-005	0.00000E+000	-7.21918E-005	-5.39641E-002	8.14718E-001	3.57180E+000	9	...........
	2	0.04	8.02966E-001	-8.85946E-005	0.00000E+000	-7.11384E-005	-5.39641E-002	8.03096E-001	3.57180E+000	9	...........
	3	0.053333	7.91937E-001	-8.85852E-005	0.00000E+000	-7.01539E-005	-5.39641E-002	7.92060E-001	3.57180E+000	9	...........
	4	0.066667	7.81378E-001	-8.87374E-005	0.00000E+000	-6.93374E-005	-5.39641E-002	7.81500E-001	3.57180E+000	9	...........
	5	0.08	7.71239E-001	-8.87342E-005	0.00000E+000	-6.84353E-005	-5.39641E-002	7.71347E-001	3.57180E+000	9	...........
	6	0.093333	7.61480E-001	-8.86561E-005	0.00000E+000	-6.75099E-005	-5.39641E-002	7.61554E-001	3.57180E+000	9	...........
	7	0.106667	7.52039E-001	-8.87030E-005	0.00000E+000	-6.67081E-005	-5.39641E-002	7.52156E-001	3.57180E+000	9	...........
	8	0.12	7.42867E-001	-8.88509E-005	0.00000E+000	-6.60045E-005	-5.39641E-002	7.42976E-001	3.57180E+000	9	...........
	9	0.133333	7.33970E-001	-8.87134E-005	0.00000E+000	-6.51130E-005	-5.39641E-002	7.34068E-001	3.57180E+000	9	...........
	10	0.146667	7.25317E-001	-8.88832E-005	0.00000E+000	-6.44685E-005	-5.39641E-002	7.25393E-001	3.57180E+000	9	...........
	11	0.16	7.16836E-001	-8.87457E-005	0.00000E+000	-6.36161E-005	-5.39641E-002	7.16966E-001	3.57180E+000	9	...........
	12	0.173333	7.08601E-001	-8.86551E-005	0.00000E+000	-6.28210E-005	-5.39641E-002	7.08719E-001	3.57180E+000	9	...........
	13	0.186667	7.00559E-001	-8.87290E-005	0.00000E+000	-6.21599E-005	-5.39641E-002	7.00643E-001	3.57180E+000	9	...........
	14	0.2	6.92704E-001	-8.87509E-005	0.00000E+000	-6.14781E-005	-5.39641E-002	6.92784E-001	3.57180E+000	9	...........
	15	0.213333	6.85001E-001	-8.84415E-005	0.00000E+000	-6.05825E-005	-5.39641E-002	6.85059E-001	3.57180E+000	9	...........
	16	0.226667	6.77487E-001	-8.84477E-005	0.00000E+000	-5.99222E-005	-5.39641E-002	6.77534E-001	3.57180E+000	9	...........
	17	0.24	6.70080E-001	-8.87082E-005	0.00000E+000	-5.94416E-005	-5.39641E-002	6.70143E-001	3.57180E+000	9	...........
	18	0.253333	6.62799E-001	-8.85040E-005	0.00000E+000	-5.86603E-005	-5.39641E-002	6.62850E-001	3.57180E+000	9	...........
	19	0.266667	6.55616E-001	-8.87405E-005	0.00000E+000	-5.81797E-005	-5.39641E-002	6.55698E-001	3.57180E+000	9	...........
	20	0.28	6.48587E-001	-8.84779E-005	0.00000E+000	-5.73857E-005	-5.39641E-002	6.48667E-001	3.57180E+000	9	...........
	21	0.293333	6.41666E-001	-8.86967E-005	0.00000E+000	-5.69137E-005	-5.39641E-002	6.41737E-001	3.57180E+000	9	...........
	22	0.306667	6.34820E-001	-8.85623E-005	0.00000E+000	-5.62211E-005	-5.39641E-002	6.34896E-001	3.57180E+000	9	...........
	23	0.32	6.28131E-001	-8.86665E-005	0.00000E+000	-5.56942E-005	-5.39641E-002	6.28199E-001	3.57180E+000	9	...........
	24	0.333333	6.21509E-001	-8.87228E-005	0.00000E+000	-5.51420E-005	-5.39641E-002	6.21599E-001	3.57180E+000	9	...........
	25	0.346667	6.14986E-001	-8.86050E-005	0.00000E+000	-5.44909E-005	-5.39641E-002	6.15077E-001	3.57180E+000	9	...........
	26	0.36	6.08488E-001	-8.87905E-005	0.00000E+000	-5.40279E-005	-5.39641E-002	6.08620E-001	3.57180E+000	9	...........
	27	0.373333	6.02130E-001	-8.87103E-005	0.00000E+000	-5.34151E-005	-5.39641E-002	6.02292E-001	3.57180E+000	9	...........
	28	0.386667	5.95864E-001	-8.87342E-005	0.00000E+000	-5.28736E-005	-5.39641E-002	5.95996E-001	3.57180E+000	9	...........
	29	0.4	5.89651E-001	-8.87051E-005	0.00000E+000	-5.23050E-005	-5.39641E-002	5.89790E-001	3.57180E+000	9	...........
	30	0.413333	5.83487E-001	-8.88061E-005	0.00000E+000	-5.18172E-005	-5.39641E-002	5.83628E-001	3.57180E+000	9	...........
	31	0.426667	5.77394E-001	-8.90145E-005	0.00000E+000	-5.13964E-005	-5.39641E-002	5.77532E-001	3.57180E+000	9	...........
	32	0.44	5.71383E-001	-8.88186E-005	0.00000E+000	-5.07494E-005	-5.39641E-002	5.71487E-001	3.57180E+000	9	...........
	33	0.453333	5.65447E-001	-8.83779E-005	0.00000E+000	-4.99730E-005	-5.39641E-002	5.65546E-001	3.57180E+000	9	...........
	34	0.466667	5.59477E-001	-8.85748E-005	0.00000E+000	-4.95556E-005	-5.39641E-002	5.59611E-001	3.57180E+000	9	...........
	35	0.48	5.53620E-001	-8.88864E-005	0.00000E+000	-4.92092E-005	-5.39641E-002	5.53746E-001	3.57180E+000	9	...........
	36	0.493333	5.47820E-001	-8.86176E-005	0.00000E+000	-4.85465E-005	-5.39641E-002	5.47961E-001	3.57180E+000	9	...........
	37	0.506667	5.42086E-001	-8.86061E-005	0.00000E+000	-4.80321E-005	-5.39641E-002	5.42202E-001	3.57180E+000	9	...........
	38	0.52	5.36371E-001	-8.86426E-005	0.00000E+000	-4.75453E-005	-5.39641E-002	5.36485E-001	3.57180E+000	9	...........
	39	0.533333	5.30703E-001	-8.86832E-005	0.00000E+000	-4.70644E-005	-5.39641E-002	5.30810E-001	3.57180E+000	9	...........
	40	0.546667	5.25075E-001	-8.87947E-005	0.00000E+000	-4.66239E-005	-5.39641E-002	5.25199E-001	3.57180E+000	9	...........
	41	0.56	5.19492E-001	-8.87269E-005	0.00000E+000	-4.60930E-005	-5.39641E-002	5.19596E-001	3.57180E+000	9	...........
	42	0.573333	5.13966E-001	-8.87051E-005	0.00000E+000	-4.55914E-005	-5.39641E-002	5.14055E-001	3.57180E+000	9	...........
	43	0.586667	5.08383E-001	-8.87280E-005	0.00000E+000	-4.51078E-005	-5.39641E-002	5.08508E-001	3.57180E+000	9	...........
	44	0.6	5.02906E-001	-8.88113E-005	0.00000E+000	-4.46638E-005	-5.39641E-002	5.03040E-001	3.57180E+000	9	...........
	45	0.613333	4.97489E-001	-8.85925E-005	0.00000E+000	-4.40738E-005	-5.39641E-002	4.97600E-001	3.57180E+000	9	...........
	46	0.626667	4.92082E-001	-8.86905E-005	0.00000E+000	-4.36430E-005	-5.39641E-002	4.92165E-001	3.57180E+000	9	...........
	47	0.64	4.86681E-001	-8.88499E-005	0.00000E+000	-4.32416E-005	-5.39641E-002	4.86758E-001	3.57180E+000	9	...........
	48	0.653333	4.81357E-001	-8.85623E-005	0.00000E+000	-4.26301E-005	-5.39641E-002	4.81412E-001	3.57180E+000	9	...........
	49	0.666667	4.76002E-001	-8.86499E-005	0.00000E+000	-4.21975E-005	-5.39641E-002	4.76058E-001	3.57180E+000	9	...........
	50	0.68	4.70684E-001	-8.87269E-005	0.00000E+000	-4.17623E-005	-5.39641E-002	4.70735E-001	3.57180E+000	9	...........
	51	0.693333	4.65386E-001	-8.88259E-005	0.00000E+000	-4.13384E-005	-5.39641E-002	4.65438E-001	3.57180E+000	9	...........
	52	0.706667	4.60101E-001	-8.88280E-005	0.00000E+000	-4.08699E-005	-5.39641E-002	4.60152E-001	3.57180E+000	9	...........
	53	0.72	4.54843E-001	-8.88176E-005	0.00000E+000	-4.03981E-005	-5.39641E-002	4.54895E-001	3.57180E+000	9	...........
	54	0.733333	4.49603E-001	-8.85436E-005	0.00000E+000	-3.98094E-005	-5.39641E-002	4.49654E-001	3.57180E+000	9	...........
	55	0.746667	4.44386E-001	-8.84936E-005	0.00000E+000	-3.93253E-005	-5.39641E-002	4.44430E-001	3.57180E+000	9	...........
	56	0.76	4.39186E-001	-8.89593E-005	0.00000E+000	-3.90697E-005	-5.39641E-002	4.39237E-001	3.57180E+000	9	...........
	57	0.773333	4.34002E-001	-8.85884E-005	0.00000E+000	-3.84475E-005	-5.39641E-002	4.34055E-001	3.57180E+000	9	...........
	58	0.786667	4.28829E-001	-8.88322E-005	0.00000E+000	-3.80938E-005	-5.39641E-002	4.28880E-001	3.57180E+000	9	...........
	59	0.8	4.23685E-001	-8.88947E-005	0.00000E+000	-3.76633E-005	-5.39641E-002	4.23731E-001	3.57180E+000	9	...........
	60	0.813333	4.18583E-001	-8.86967E-005	0.00000E+000	-3.71270E-005	-5.39641E-002	4.18628E-001	3.57180E+000	9	...........
	61	0.826667	4.13489E-001	-8.88134E-005	0.00000E+000	-3.67233E-005	-5.39641E-002	4.13540E-001	3.57180E+000	9	...........
	62	0.84	4.08424E-001	-8.87593E-005	0.00000E+000	-3.62514E-005	-5.39641E-002	4.08468E-001	3.57180E+000	9	...........
	63	0.853333	4.03355E-001	-8.86092E-005	0.00000E+000	-3.57410E-005	-5.39641E-002	4.03402E-001	3.57180E+000	9	...........
	64	0.866667	3.98313E-001	-8.86530E-005	0.00000E+000	-3.53116E-005	-5.39641E-002	3.98360E-001	3.57180E+000	9	...........
	65	0.88	3.93305E-001	-8.88697E-005	0.00000E+000	-3.49529E-005	-5.39641E-002	3.93347E-001	3.57180E+000	9	...........
	66	0.893333	3.88309E-001	-8.87832E-005	0.00000E+000	-3.44753E-005	-5.39641E-002	3.88352E-001	3.57180E+000	9	...........
	67	0.906667	3.83316E-001	-8.85394E-005	0.00000E+000	-3.39386E-005	-5.39641E-002	3.83359E-001	3.57180E+000	9	...........
	68	0.92	3.78321E-001	-8.85280E-005	0.00000E+000	-3.34920E-005	-5.39641E-002	3.78365E-001	3.57180E+000	9	...........
	69	0.933333	3.73360E-001	-8.88718E-005	0.00000E+000	-3.31812E-005	-5.39641E-002	3.73400E-001	3.57180E+000	9	...........
	70	0.946667	3.68425E-001	-8.84738E-005	0.00000E+000	-3.25959E-005	-5.39641E-002	3.68460E-001	3.57180E+000	9	...........
	71	0.96	3.63504E-001	-8.87134E-005	0.00000E+000	-3.22476E-005	-5.39641E-002	3.63544E-001	3.57180E+000	9	...........
	72	0.97333	3.58589E-001	-8.87561E-005	0.00000E+000	-3.18270E-005	-5.39641E-002	3.58627E-001	3.57180E+000	9	...........
	73	0.98667	3.53711E-001	-8.87197E-005	0.00000E+000	-3.13812E-005	-5.39641E-002	3.53748E-001	3.57180E+000	9	...........
	74	1	3.48833E-001	-8.87634E-005	0.00000E+000	-3.09636E-005	-5.39641E-002	3.48870E-001	3.57180E+000	9	...........
	75	1.01333	3.43982E-001	-8.86644E-005	0.00000E+000	-3.04990E-005	-5.39641E-002	3.44019E-001	3.57180E+000	9	...........
	76	1.02667	3.39193E-001	-8.87634E-005	0.00000E+000	-3.01079E-005	-5.39641E-002	3.39225E-001	3.57180E+000	9	...........
	77	1.04	3.34426E-001	-8.85613E-005	0.00000E+000	-2.96172E-005	-5.39641E-002	3.34462E-001	3.57180E+000	9	...........
	78	1.05333	3.29671E-001	-8.86332E-005	0.00000E+000	-2.92198E-005	-5.39641E-002	3.29701E-001	3.57180E+000	9	...........
	79	1.06667	3.24916E-001	-8.84675E-005	0.00000E+000	-2.87445E-005	-5.39641E-002	3.24953E-001	3.57180E+000	9	...........
	80	1.08	3.20181E-001	-8.86874E-005	0.00000E+000	-2.83960E-005	-5.39641E-002	3.20220E-001	3.57180E+000	9	...........
	81	1.09333	3.15445E-001	-8.87457E-005	0.00000E+000	-2.79944E-005	-5.39641E-002	3.15479E-001	3.57180E+000	9	...........
	82	1.10667	3.10743E-001	-8.84311E-005	0.00000E+000	-2.74794E-005	-5.39641E-002	3.10785E-001	3.57180E+000	9	...........
	83	1.12	3.06030E-001	-8.89895E-005	0.00000E+000	-2.72335E-005	-5.39641E-002	3.06073E-001	3.57180E+000	9	...........
	84	1.13333	3.01356E-001	-8.88489E-005	0.00000E+000	-2.67751E-005	-5.39641E-002	3.01390E-001	3.57180E+000	9	...........
	85	1.14667	2.96711E-001	-8.90208E-005	0.00000E+000	-2.64134E-005	-5.39641E-002	2.96748E-001	3.57180E+000	9	...........
	86	1.16	2.92124E-001	-8.85738E-005	0.00000E+000	-2.58746E-005	-5.39641E-002	2.92157E-001	3.57180E+000	9	...........
	87	1.17333	2.87543E-001	-8.85029E-005	0.00000E+000	-2.54484E-005	-5.39641E-002	2.87581E-001	3.57180E+000	9	...........
	88	1.18667	2.82986E-001	-8.86957E-005	0.00000E+000	-2.50997E-005	-5.39641E-002	2.83021E-001	3.57180E+000	9	...........
	89	1.2	2.78454E-001	-8.87353E-005	0.00000E+000	-2.47087E-005	-5.39641E-002	2.78488E-001	3.57180E+000	9	...........
	90	1.21333	2.73931E-001	-8.85863E-005	0.00000E+000	-2.42665E-005	-5.39641E-002	2.73957E-001	3.57180E+000	9	...........
	91	1.22667	2.69426E-001	-8.87092E-005	0.00000E+000	-2.39006E-005	-5.39641E-002	2.69459E-001	3.57180E+000	9	...........
	92	1.24	2.64943E-001	-8.87592E-005	0.00000E+000	-2.35162E-005	-5.39641E-002	2.64980E-001	3.57180E+000	9	...........
	93	1.25333	2.60492E-001	-8.87676E-005	0.00000E+000	-2.31232E-005	-5.39641E-002	2.60522E-001	3.57190E+000	9	...........
	94	1.26667	2.56051E-001	-8.88624E-005	0.00000E+000	-2.27533E-005	-5.39641E-002	2.56081E-001	3.57190E+000	9	...........
	95	1.28	2.51637E-001	-8.85988E-005	0.00000E+000	-2.22947E-005	-5.39641E-002	2.51666E-001	3.57190E+000	9	...........
	96	1.29333	2.47235E-001	-8.87915E-005	0.00000E+000	-2.19524E-005	-5.39641E-002	2.47262E-001	3.57190E+000	9	...........
	97	1.30667	2.42859E-001	-8.85540E-005	0.00000E+000	-2.15061E-005	-5.39641E-002	2.42886E-001	3.57190E+000	9	...........
	98	1.32	2.38541E-001	-8.89134E-005	0.00000E+000	-2.12095E-005	-5.39641E-002	2.38558E-001	3.57190E+000	9	...........
	99	1.33333	2.34215E-001	-8.86571E-005	0.00000E+000	-2.07648E-005	-5.39641E-002	2.34234E-001	3.57190E+000	9	...........
	100	1.34667	2.29911E-001	-8.86874E-005	0.00000E+000	-2.03902E-005	-5.39641E-002	2.29932E-001	3.57190E+000	9	...........
	101	1.36	2.25624E-001	-8.89062E-005	0.00000E+000	-2.00593E-005	-5.39641E-002	2.25647E-001	3.57190E+000	9	...........
	102	1.37333	2.21355E-001	-8.87728E-005	0.00000E+000	-1.96503E-005	-5.39641E-002	2.21380E-001	3.57190E+000	9	...........
	103	1.38667	2.17091E-001	-8.87134E-005	0.00000E+000	-1.92589E-005	-5.39641E-002	2.17114E-001	3.57190E+000	9	...........
	104	1.4	2.12839E-001	-8.86592E-005	0.00000E+000	-1.88701E-005	-5.39641E-002	2.12858E-001	3.57190E+000	9	...........
	105	1.41333	2.08608E-001	-8.85696E-005	0.00000E+000	-1.84764E-005	-5.39641E-002	2.08631E-001	3.57190E+000	9	...........
	106	1.42667	2.04398E-001	-8.88811E-005	0.00000E+000	-1.81671E-005	-5.39641E-002	2.04415E-001	3.57190E+000	9	...........
	107	1.44	2.00206E-001	-8.85623E-005	0.00000E+000	-1.77307E-005	-5.39641E-002	2.00227E-001	3.57190E+000	9	...........
	108	1.45333	1.96043E-001	-8.88093E-005	0.00000E+000	-1.74105E-005	-5.39641E-002	1.96062E-001	3.57190E+000	9	...........
	109	1.46667	1.91904E-001	-8.87342E-005	0.00000E+000	-1.70285E-005	-5.39641E-002	1.91923E-001	3.57190E+000	9	...........
	110	1.48	1.87781E-001	-8.85352E-005	0.00000E+000	-1.66252E-005	-5.39641E-002	1.87796E-001	3.57190E+000	9	...........
	111	1.49333	1.83671E-001	-8.87686E-005	0.00000E+000	-1.63043E-005	-5.39641E-002	1.83687E-001	3.57190E+000	9	...........
	112	1.50667	1.79576E-001	-8.91583E-005	0.00000E+000	-1.60107E-005	-5.39641E-002	1.79587E-001	3.57190E+000	9	...........
	113	1.52	1.75494E-001	-8.88239E-005	0.00000E+000	-1.55881E-005	-5.39641E-002	1.75510E-001	3.57190E+000	9	...........
	114	1.53333	1.71431E-001	-8.88009E-005	0.00000E+000	-1.52232E-005	-5.39641E-002	1.71444E-001	3.57190E+000	9	...........
	115	1.54667	1.67382E-001	-8.87749E-005	0.00000E+000	-1.48593E-005	-5.39641E-002	1.67397E-001	3.57190E+000	9	...........
	116	1.56	1.63343E-001	-8.87530E-005	0.00000E+000	-1.44972E-005	-5.39641E-002	1.63353E-001	3.57190E+000	9	...........
	117	1.57333	1.59305E-001	-8.89583E-005	0.00000E+000	-1.41715E-005	-5.39641E-002	1.59324E-001	3.57190E+000	9	...........
	118	1.58667	1.55305E-001	-8.87103E-005	0.00000E+000	-1.37771E-005	-5.39641E-002	1.55314E-001	3.57190E+000	9	...........
	119	1.6	1.51317E-001	-8.87426E-005	0.00000E+000	-1.34283E-005	-5.39641E-002	1.51329E-001	3.57190E+000	9	...........
	120	1.61333	1.47347E-001	-8.85436E-005	0.00000E+000	-1.30467E-005	-5.39641E-002	1.47358E-001	3.57190E+000	9	...........
	121	1.62667	1.43388E-001	-8.88343E-005	0.00000E+000	-1.27377E-005	-5.39641E-002	1.43396E-001	3.57190E+000	9	...........
	122	1.64	1.39453E-001	-8.86686E-005	0.00000E+000	-1.23651E-005	-5.39641E-002	1.39464E-001	3.57190E+000	9	...........
	123	1.65333	1.35549E-001	-8.86561E-005	0.00000E+000	-1.20172E-005	-5.39641E-002	1.35555E-001	3.57190E+000	9	...........
	124	1.66667	1.31644E-001	-8.90145E-005	0.00000E+000	-1.17182E-005	-5.39641E-002	1.31652E-001	3.57190E+000	9	...........
	125	1.68	1.27750E-001	-8.85884E-005	0.00000E+000	-1.13171E-005	-5.39641E-002	1.27760E-001	3.57190E+000	9	...........
	126	1.69333	1.23864E-001	-8.89978E-005	0.00000E+000	-1.10237E-005	-5.39641E-002	1.23872E-001	3.57190E+000	9	...........
	127	1.70667	1.20012E-001	-8.88916E-005	0.00000E+000	-1.06681E-005	-5.39641E-002	1.20021E-001	3.57190E+000	9	...........
	128	1.72	1.16158E-001	-8.87811E-005	0.00000E+000	-1.03127E-005	-5.39641E-002	1.16163E-001	3.57190E+000	9	...........
	129	1.73333	1.12326E-001	-8.86613E-005	0.00000E+000	-9.95898E-006	-5.39641E-002	1.12329E-001	3.57190E+000	9	...........
	130	1.74667	1.08523E-001	-8.86228E-005	0.00000E+000	-9.61764E-006	-5.39641E-002	1.08536E-001	3.57190E+000	9	...........
	131	1.76	1.04750E-001	-8.88468E-005	0.00000E+000	-9.30674E-006	-5.39641E-002	1.04757E-001	3.57190E+000	9	...........
	132	1.77333	1.00979E-001	-8.86415E-005	0.00000E+000	-8.95093E-006	-5.39641E-002	1.00988E-001	3.57190E+000	9	...........
	133	1.78667	9.72263E-002	-8.87405E-005	0.00000E+000	-8.62791E-006	-5.39641E-002	9.72476E-002	3.57190E+000	9	...........
	134	1.8	9.34937E-002	-8.87342E-005	0.00000E+000	-8.29609E-006	-5.39641E-002	9.34991E-002	3.57190E+000	9	...........
	135	1.81333	8.97591E-002	-8.86530E-005	0.00000E+000	-7.95741E-006	-5.39641E-002	8.97716E-002	3.57190E+000	9	...........
	136	1.82667	8.60397E-002	-8.88166E-005	0.00000E+000	-7.64175E-006	-5.39641E-002	8.60474E-002	3.57190E+000	9	...........
	137	1.84	8.23331E-002	-8.87509E-005	0.00000E+000	-7.30713E-006	-5.39641E-002	8.23380E-002	3.57190E+000	9	...........
	138	1.85333	7.86527E-002	-8.86332E-005	0.00000E+000	-6.97124E-006	-5.39641E-002	7.86517E-002	3.57190E+000	9	...........
	139	1.86667	7.49729E-002	-8.85727E-005	0.00000E+000	-6.64055E-006	-5.39641E-002	7.49718E-002	3.57190E+000	9	...........
	140	1.88	7.13124E-002	-8.86728E-005	0.00000E+000	-6.32347E-006	-5.39641E-002	7.13118E-002	3.57190E+000	9	...........
	141	1.89333	6.76687E-002	-8.87072E-005	0.00000E+000	-6.00270E-006	-5.39641E-002	6.76669E-002	3.57190E+000	9	...........
	142	1.90667	6.40447E-002	-8.88395E-005	0.00000E+000	-5.68970E-006	-5.39641E-002	6.40456E-002	3.57190E+000	9	...........
	143	1.92	6.04172E-002	-8.88040E-005	0.00000E+000	-5.36529E-006	-5.39641E-002	6.04182E-002	3.57190E+000	9	...........
	144	1.93333	5.67893E-002	-8.88124E-005	0.00000E+000	-5.04360E-006	-5.39641E-002	5.67868E-002	3.57190E+000	9	...........
	145	1.94667	5.31708E-002	-8.87728E-005	0.00000E+000	-4.72012E-006	-5.39641E-002	5.31718E-002	3.57190E+000	9	...........
	146	1.96	4.95837E-002	-8.86092E-005	0.00000E+000	-4.39357E-006	-5.39641E-002	4.95853E-002	3.57190E+000	9	...........
	147	1.97333	4.60144E-002	-8.87978E-005	0.00000E+000	-4.08598E-006	-5.39641E-002	4.60268E-002	3.57190E+000	9	...........
	148	1.98667	4.24661E-002	-8.86717E-005	0.00000E+000	-3.76554E-006	-5.39641E-002	4.24740E-002	3.57190E+000	9	...........
	149	2	3.89403E-002	-8.87144E-005	0.00000E+000	-3.45457E-006	-5.39641E-002	3.89400E-002	3.57190E+000	9	...........
	150	2.01333	3.54256E-002	-8.87551E-005	0.00000E+000	-3.14420E-006	-5.39641E-002	3.54294E-002	3.57190E+000	9	...........
	151	2.02667	3.19200E-002	-8.86415E-005	0.00000E+000	-2.82943E-006	-5.39641E-002	3.19212E-002	3.57190E+000	9	...........
	152	2.04	2.84327E-002	-8.87874E-005	0.00000E+000	-2.52446E-006	-5.39641E-002	2.84328E-002	3.57190E+000	9	...........
	153	2.05333	2.49641E-002	-8.85769E-005	0.00000E+000	-2.21124E-006	-5.39641E-002	2.49641E-002	3.57190E+000	9	...........
	154	2.06667	2.14997E-002	-8.88072E-005	0.00000E+000	-1.90933E-006	-5.39641E-002	2.14997E-002	3.57190E+000	9	...........
	155	2.08	1.80721E-002	-8.86624E-005	0.00000E+000	-1.60231E-006	-5.39641E-002	1.80684E-002	3.57190E+000	9	...........
	156	2.09333	1.46461E-002	-8.86405E-005	0.00000E+000	-1.29823E-006	-5.39641E-002	1.46386E-002	3.57190E+000	9	...........
	157	2.10667	1.12484E-002	-8.88759E-005	0.00000E+000	-9.99711E-007	-5.39641E-002	1.12388E-002	3.57190E+000	9	...........
	158	2.12	7.84994E-003	-8.89176E-005	0.00000E+000	-6.97998E-007	-5.39641E-002	7.84363E-003	3.57190E+000	9	...........
	159	2.13333	4.45815E-003	-8.86051E-005	0.00000E+000	-3.95015E-007	-5.39641E-002	4.44673E-003	3.57190E+000	9	...........
	160	2.14667	1.09040E-003	-8.88249E-005	0.00000E+000	-9.68551E-008	-5.39641E-002	1.07510E-003	3.57190E+000	9	...........
STARTTIMEOFFSET	QUANT	860.4714	Start Time Offset (s)
