EXPLAIN
TAG	PWR800_DISCHARGE
TITLE	LABEL	PWR Cyclic Charge Discharge (Cell) - Discharge Step	Test &Identifier
DATE	LABEL	10-7-2017	Date
TIME	LABEL	15:34:31	Time
NOTES	NOTES	3	&Notes...
	supercap test cell
	0.9mg
	6M KOH
PSTAT	PSTAT	IFC5000-01520	Potentiostat
CAPACITY	QUANT	1.00000E-003	Capacity (A-hr)
CELLTYPE	SELECTOR	1	&Cell Type
WORKINGCONNECTION	SELECTOR	0	&Working Lead
MAXDISCHARGETIME	VARIABLEANDUNITS	1.00000E+002	s	1.00000E+002	second(s)	Max &Discharge Time
DISCHARGEMODE	MULTIPARAM	0	9.00000E-005	&Discharge Mode	Constant Current	Amp(s)
SAMPLETIME	QUANT	1.00000E-002	Sa&mple Period (s)
DISCHARGESTOPAT1	MULTIPARAM	3	0.00000E+000	Discharge Stop At &1	Voltage < Limit	V
DISCHARGESTOPAT2	MULTIPARAM	0	0.00000E+000	Discharge Stop At &2	None	N/A
AESBHCSELECTOR	TOGGLE	F	Save Both Half Cells
IRCOMP	TOGGLE	F	IR &Measure
EOC	QUANT	0	Open Circuit (V)
SEQUENCER	TOGGLE	TRUE	Run as Sequence
PSTATMODEL	IQUANT	53	Pstat Model
PSTATSECTION	LABEL	IFC5000-01520	Pstat Section
PSTATSERIALNO	LABEL	01520	Pstat Serial Number
CTRLMODE	IQUANT	0	Control Mode
ELECTROMETER	IQUANT	1	RE=0 or CS=1
IESTAB	IQUANT	0	I/E Stability
CASPEED	IQUANT	4	Control Amp Speed
CONVENTION	IQUANT	1	Current Convention
ICHRANGE	IQUANT	2	Ich Range
ICHRANGEMODE	TOGGLE	T	Ich Auto Range
ICHOFFSETENABLE	TOGGLE	F	Ich Offset Enable
ICHOFFSET	QUANT	0	Ich Offset (V)
ICHFILTER	IQUANT	1	Ich Filter
VCHRANGE	IQUANT	2	Vch Range
VCHRANGEMODE	TOGGLE	T	Vch Auto Range
VCHOFFSETENABLE	TOGGLE	F	Vch Offset Enable
VCHOFFSET	QUANT	0	Vch Offset (V)
VCHFILTER	IQUANT	1	Vch Filter
IERANGELOWERLIMIT	IQUANT	9	I/E Range Lower Limit
IERANGEMODE	TOGGLE	F	I/E AutoRange
IERANGE	IQUANT	9	I/E Range
ACHSELECT	IQUANT	1	Ach Select
ACHRANGE	IQUANT	2	Ach Range
ACHOFFSETENABLE	TOGGLE	F	Ach Offset Enable
ACHOFFSET	QUANT	0	Ach Offset (V)
ACHFILTER	IQUANT	1	Ach Filter
CABLEID	IQUANT	14	Cable ID
DCCALDATE	LABEL	5-7-2017	DC Calibration Date
ACCALDATE	LABEL	12/3/2015	AC Calibration Date
FRAMEWORKVERSION	QUANT	7.01	Framework Version
INSTRUMENTVERSION	LABEL	4.00	Instrument Version
CURVE	TABLE	154
	Pt	T	Vf	Im	Vu	Pwr	Sig	Ach	Temp	IERange	Over
	#	s	V	A	V	W	V	V	deg C	#	bits
	0	0.013333	8.14823E-001	-8.84331E-005	0.00000E+000	-7.20573E-005	-5.39641E-002	8.15020E-001	3.57240E+000	9	...........
	1	0.026667	8.01571E-001	-8.85144E-005	0.00000E+000	-7.09506E-005	-5.39641E-002	8.01737E-001	3.57240E+000	9	...........
	2	0.04	7.89148E-001	-8.88489E-005	0.00000E+000	-7.01149E-005	-5.39641E-002	7.89297E-001	3.57240E+000	9	...........
	3	0.053333	7.77377E-001	-8.87238E-005	0.00000E+000	-6.89719E-005	-5.39641E-002	7.77551E-001	3.57240E+000	9	...........
	4	0.066667	7.66198E-001	-8.86624E-005	0.00000E+000	-6.79329E-005	-5.39641E-002	7.66354E-001	3.57240E+000	9	...........
	5	0.08	7.55481E-001	-8.86301E-005	0.00000E+000	-6.69583E-005	-5.39641E-002	7.55607E-001	3.57240E+000	9	...........
	6	0.093333	7.45191E-001	-8.89624E-005	0.00000E+000	-6.62939E-005	-5.39641E-002	7.45323E-001	3.57240E+000	9	...........
	7	0.106667	7.35234E-001	-8.87895E-005	0.00000E+000	-6.52811E-005	-5.39641E-002	7.35354E-001	3.57240E+000	9	...........
	8	0.12	7.25666E-001	-8.86947E-005	0.00000E+000	-6.43627E-005	-5.39641E-002	7.25789E-001	3.57240E+000	9	...........
	9	0.133333	7.16322E-001	-8.86874E-005	0.00000E+000	-6.35287E-005	-5.39641E-002	7.16469E-001	3.57240E+000	9	...........
	10	0.146667	7.07302E-001	-8.88113E-005	0.00000E+000	-6.28164E-005	-5.39641E-002	7.07463E-001	3.57240E+000	9	...........
	11	0.16	6.98556E-001	-8.87228E-005	0.00000E+000	-6.19778E-005	-5.39641E-002	6.98675E-001	3.57240E+000	9	...........
	12	0.173333	6.90020E-001	-8.87655E-005	0.00000E+000	-6.12500E-005	-5.39641E-002	6.90122E-001	3.57240E+000	9	...........
	13	0.186667	6.81678E-001	-8.88728E-005	0.00000E+000	-6.05827E-005	-5.39641E-002	6.81794E-001	3.57240E+000	9	...........
	14	0.2	6.73532E-001	-8.86947E-005	0.00000E+000	-5.97386E-005	-5.39641E-002	6.73630E-001	3.57240E+000	9	...........
	15	0.213333	6.65577E-001	-8.88676E-005	0.00000E+000	-5.91483E-005	-5.39641E-002	6.65679E-001	3.57240E+000	9	...........
	16	0.226667	6.57771E-001	-8.87905E-005	0.00000E+000	-5.84038E-005	-5.39641E-002	6.57885E-001	3.57240E+000	9	...........
	17	0.24	6.50132E-001	-8.86405E-005	0.00000E+000	-5.76280E-005	-5.39641E-002	6.50249E-001	3.57240E+000	9	...........
	18	0.253333	6.42693E-001	-8.87447E-005	0.00000E+000	-5.70355E-005	-5.39641E-002	6.42797E-001	3.57240E+000	9	...........
	19	0.266667	6.35305E-001	-8.88009E-005	0.00000E+000	-5.64157E-005	-5.39641E-002	6.35426E-001	3.57245E+000	9	...........
	20	0.28	6.28160E-001	-8.90041E-005	0.00000E+000	-5.59088E-005	-5.39641E-002	6.28258E-001	3.57250E+000	9	...........
	21	0.293333	6.21118E-001	-8.88103E-005	0.00000E+000	-5.51617E-005	-5.39641E-002	6.21184E-001	3.57250E+000	9	...........
	22	0.306667	6.14138E-001	-8.87540E-005	0.00000E+000	-5.45073E-005	-5.39641E-002	6.14246E-001	3.57250E+000	9	...........
	23	0.32	6.07251E-001	-8.86238E-005	0.00000E+000	-5.38169E-005	-5.39641E-002	6.07370E-001	3.57250E+000	9	...........
	24	0.333333	6.00561E-001	-8.91322E-005	0.00000E+000	-5.35293E-005	-5.39641E-002	6.00655E-001	3.57250E+000	9	...........
	25	0.346667	5.93936E-001	-8.86311E-005	0.00000E+000	-5.26412E-005	-5.39641E-002	5.94033E-001	3.57250E+000	9	...........
	26	0.36	5.87412E-001	-8.89551E-005	0.00000E+000	-5.22533E-005	-5.39641E-002	5.87510E-001	3.57250E+000	9	...........
	27	0.373333	5.80955E-001	-8.87311E-005	0.00000E+000	-5.15488E-005	-5.39641E-002	5.81051E-001	3.57250E+000	9	...........
	28	0.386667	5.74609E-001	-8.86571E-005	0.00000E+000	-5.09432E-005	-5.39641E-002	5.74705E-001	3.57250E+000	9	...........
	29	0.4	5.68363E-001	-8.87895E-005	0.00000E+000	-5.04646E-005	-5.39641E-002	5.68429E-001	3.57250E+000	9	...........
	30	0.413333	5.62137E-001	-8.87749E-005	0.00000E+000	-4.99036E-005	-5.39641E-002	5.62227E-001	3.57250E+000	9	...........
	31	0.426667	5.56033E-001	-8.87405E-005	0.00000E+000	-4.93427E-005	-5.39641E-002	5.56094E-001	3.57250E+000	9	...........
	32	0.44	5.49973E-001	-8.85696E-005	0.00000E+000	-4.87109E-005	-5.39641E-002	5.50039E-001	3.57250E+000	9	...........
	33	0.453333	5.43987E-001	-8.88322E-005	0.00000E+000	-4.83236E-005	-5.39641E-002	5.44042E-001	3.57250E+000	9	...........
	34	0.466667	5.38044E-001	-8.86853E-005	0.00000E+000	-4.77166E-005	-5.39641E-002	5.38125E-001	3.57250E+000	9	...........
	35	0.48	5.32127E-001	-8.87092E-005	0.00000E+000	-4.72046E-005	-5.39641E-002	5.32224E-001	3.57250E+000	9	...........
	36	0.493333	5.26303E-001	-8.88374E-005	0.00000E+000	-4.67554E-005	-5.39641E-002	5.26397E-001	3.57250E+000	9	...........
	37	0.506667	5.20489E-001	-8.87676E-005	0.00000E+000	-4.62025E-005	-5.39641E-002	5.20601E-001	3.57250E+000	9	...........
	38	0.52	5.14808E-001	-8.87488E-005	0.00000E+000	-4.56886E-005	-5.39641E-002	5.14872E-001	3.57250E+000	9	...........
	39	0.533333	5.09042E-001	-8.88936E-005	0.00000E+000	-4.52506E-005	-5.39641E-002	5.09181E-001	3.57250E+000	9	...........
	40	0.546667	5.03436E-001	-8.85467E-005	0.00000E+000	-4.45776E-005	-5.39641E-002	5.03555E-001	3.57250E+000	9	...........
	41	0.56	4.97868E-001	-8.88499E-005	0.00000E+000	-4.42355E-005	-5.39641E-002	4.97970E-001	3.57250E+000	9	...........
	42	0.573333	4.92337E-001	-8.87113E-005	0.00000E+000	-4.36759E-005	-5.39641E-002	4.92440E-001	3.57250E+000	9	...........
	43	0.586667	4.86835E-001	-8.85644E-005	0.00000E+000	-4.31162E-005	-5.39641E-002	4.86944E-001	3.57250E+000	9	...........
	44	0.6	4.81447E-001	-8.88134E-005	0.00000E+000	-4.27590E-005	-5.39641E-002	4.81517E-001	3.57250E+000	9	...........
	45	0.613333	4.76017E-001	-8.88739E-005	0.00000E+000	-4.23055E-005	-5.39641E-002	4.76083E-001	3.57250E+000	9	...........
	46	0.626667	4.70613E-001	-8.87134E-005	0.00000E+000	-4.17497E-005	-5.39641E-002	4.70679E-001	3.57250E+000	9	...........
	47	0.64	4.65241E-001	-8.90437E-005	0.00000E+000	-4.14268E-005	-5.39641E-002	4.65303E-001	3.57250E+000	9	...........
	48	0.653333	4.59893E-001	-8.89666E-005	0.00000E+000	-4.09151E-005	-5.39641E-002	4.59954E-001	3.57250E+000	9	...........
	49	0.666667	4.54574E-001	-8.89051E-005	0.00000E+000	-4.04139E-005	-5.39641E-002	4.54635E-001	3.57250E+000	9	...........
	50	0.68	4.49282E-001	-8.83529E-005	0.00000E+000	-3.96953E-005	-5.39641E-002	4.49346E-001	3.57250E+000	9	...........
	51	0.693333	4.44001E-001	-8.88551E-005	0.00000E+000	-3.94517E-005	-5.39641E-002	4.44064E-001	3.57250E+000	9	...........
	52	0.706667	4.38750E-001	-8.89437E-005	0.00000E+000	-3.90240E-005	-5.39641E-002	4.38807E-001	3.57250E+000	9	...........
	53	0.72	4.33523E-001	-8.90010E-005	0.00000E+000	-3.85840E-005	-5.39641E-002	4.33580E-001	3.57250E+000	9	...........
	54	0.733333	4.28304E-001	-8.86947E-005	0.00000E+000	-3.79882E-005	-5.39641E-002	4.28362E-001	3.57250E+000	9	...........
	55	0.746667	4.23106E-001	-8.86176E-005	0.00000E+000	-3.74946E-005	-5.39641E-002	4.23161E-001	3.57250E+000	9	...........
	56	0.76	4.17923E-001	-8.87249E-005	0.00000E+000	-3.70801E-005	-5.39641E-002	4.17981E-001	3.57250E+000	9	...........
	57	0.773333	4.12761E-001	-8.89239E-005	0.00000E+000	-3.67043E-005	-5.39641E-002	4.12813E-001	3.57250E+000	9	...........
	58	0.786667	4.07620E-001	-8.87207E-005	0.00000E+000	-3.61643E-005	-5.39641E-002	4.07673E-001	3.57250E+000	9	...........
	59	0.8	4.02495E-001	-8.86655E-005	0.00000E+000	-3.56874E-005	-5.39641E-002	4.02544E-001	3.57250E+000	9	...........
	60	0.813333	3.97389E-001	-8.86290E-005	0.00000E+000	-3.52202E-005	-5.39641E-002	3.97432E-001	3.57250E+000	9	...........
	61	0.826667	3.92300E-001	-8.88770E-005	0.00000E+000	-3.48664E-005	-5.39641E-002	3.92348E-001	3.57250E+000	9	...........
	62	0.84	3.87227E-001	-8.85415E-005	0.00000E+000	-3.42857E-005	-5.39641E-002	3.87274E-001	3.57250E+000	9	...........
	63	0.853333	3.82169E-001	-8.87061E-005	0.00000E+000	-3.39007E-005	-5.39641E-002	3.82210E-001	3.57250E+000	9	...........
	64	0.866667	3.77116E-001	-8.88989E-005	0.00000E+000	-3.35252E-005	-5.39641E-002	3.77165E-001	3.57250E+000	9	...........
	65	0.88	3.72082E-001	-8.88520E-005	0.00000E+000	-3.30602E-005	-5.39641E-002	3.72125E-001	3.57250E+000	9	...........
	66	0.893333	3.67065E-001	-8.87592E-005	0.00000E+000	-3.25804E-005	-5.39641E-002	3.67117E-001	3.57250E+000	9	...........
	67	0.906667	3.62067E-001	-8.85457E-005	0.00000E+000	-3.20594E-005	-5.39641E-002	3.62112E-001	3.57250E+000	9	...........
	68	0.92	3.57080E-001	-8.87197E-005	0.00000E+000	-3.16800E-005	-5.39641E-002	3.57131E-001	3.57250E+000	9	...........
	69	0.933333	3.52117E-001	-8.86644E-005	0.00000E+000	-3.12202E-005	-5.39641E-002	3.52160E-001	3.57250E+000	9	...........
	70	0.946667	3.47164E-001	-8.87363E-005	0.00000E+000	-3.08061E-005	-5.39641E-002	3.47207E-001	3.57250E+000	9	...........
	71	0.96	3.42229E-001	-8.86999E-005	0.00000E+000	-3.03557E-005	-5.39641E-002	3.42272E-001	3.57250E+000	9	...........
	72	0.97333	3.37315E-001	-8.87936E-005	0.00000E+000	-2.99514E-005	-5.39641E-002	3.37359E-001	3.57250E+000	9	...........
	73	0.98667	3.32419E-001	-8.86613E-005	0.00000E+000	-2.94727E-005	-5.39641E-002	3.32458E-001	3.57250E+000	9	...........
	74	1	3.27533E-001	-8.87884E-005	0.00000E+000	-2.90812E-005	-5.39641E-002	3.27579E-001	3.57250E+000	9	...........
	75	1.01333	3.22675E-001	-8.88384E-005	0.00000E+000	-2.86659E-005	-5.39641E-002	3.22713E-001	3.57250E+000	9	...........
	76	1.02667	3.17827E-001	-8.87395E-005	0.00000E+000	-2.82038E-005	-5.39641E-002	3.17870E-001	3.57250E+000	9	...........
	77	1.04	3.12993E-001	-8.86488E-005	0.00000E+000	-2.77464E-005	-5.39641E-002	3.13036E-001	3.57250E+000	9	...........
	78	1.05333	3.08173E-001	-8.87634E-005	0.00000E+000	-2.73544E-005	-5.39641E-002	3.08222E-001	3.57250E+000	9	...........
	79	1.06667	3.03385E-001	-8.87665E-005	0.00000E+000	-2.69305E-005	-5.39641E-002	3.03423E-001	3.57250E+000	9	...........
	80	1.08	2.98606E-001	-8.88666E-005	0.00000E+000	-2.65361E-005	-5.39641E-002	2.98644E-001	3.57250E+000	9	...........
	81	1.09333	2.93833E-001	-8.89020E-005	0.00000E+000	-2.61224E-005	-5.39641E-002	2.93872E-001	3.57250E+000	9	...........
	82	1.10667	2.89092E-001	-8.87019E-005	0.00000E+000	-2.56430E-005	-5.39641E-002	2.89130E-001	3.57250E+000	9	...........
	83	1.12	2.84363E-001	-8.88113E-005	0.00000E+000	-2.52547E-005	-5.39641E-002	2.84399E-001	3.57250E+000	9	...........
	84	1.13333	2.79641E-001	-8.87384E-005	0.00000E+000	-2.48149E-005	-5.39641E-002	2.79678E-001	3.57250E+000	9	...........
	85	1.14667	2.74936E-001	-8.88968E-005	0.00000E+000	-2.44409E-005	-5.39641E-002	2.74973E-001	3.57250E+000	9	...........
	86	1.16	2.70264E-001	-8.88082E-005	0.00000E+000	-2.40016E-005	-5.39641E-002	2.70299E-001	3.57250E+000	9	...........
	87	1.17333	2.65617E-001	-8.88113E-005	0.00000E+000	-2.35898E-005	-5.39641E-002	2.65650E-001	3.57250E+000	9	...........
	88	1.18667	2.60993E-001	-8.88697E-005	0.00000E+000	-2.31944E-005	-5.39641E-002	2.61023E-001	3.57250E+000	9	...........
	89	1.2	2.56389E-001	-8.85373E-005	0.00000E+000	-2.27000E-005	-5.39641E-002	2.56417E-001	3.57250E+000	9	...........
	90	1.21333	2.51780E-001	-8.87770E-005	0.00000E+000	-2.23523E-005	-5.39641E-002	2.51812E-001	3.57250E+000	9	...........
	91	1.22667	2.47194E-001	-8.84509E-005	0.00000E+000	-2.18645E-005	-5.39641E-002	2.47219E-001	3.57250E+000	9	...........
	92	1.24	2.42628E-001	-8.89270E-005	0.00000E+000	-2.15762E-005	-5.39641E-002	2.42651E-001	3.57250E+000	9	...........
	93	1.25333	2.38088E-001	-8.87405E-005	0.00000E+000	-2.11280E-005	-5.39641E-002	2.38114E-001	3.57250E+000	9	...........
	94	1.26667	2.33573E-001	-8.85769E-005	0.00000E+000	-2.06892E-005	-5.39641E-002	2.33596E-001	3.57285E+000	9	...........
	95	1.28	2.29066E-001	-8.87697E-005	0.00000E+000	-2.03341E-005	-5.39641E-002	2.29083E-001	3.57320E+000	9	...........
	96	1.29333	2.24573E-001	-8.85582E-005	0.00000E+000	-1.98877E-005	-5.39641E-002	2.24596E-001	3.57320E+000	9	...........
	97	1.30667	2.20103E-001	-8.87957E-005	0.00000E+000	-1.95442E-005	-5.39641E-002	2.20128E-001	3.57320E+000	9	...........
	98	1.32	2.15664E-001	-8.86446E-005	0.00000E+000	-1.91175E-005	-5.39641E-002	2.15687E-001	3.57320E+000	9	...........
	99	1.33333	2.11246E-001	-8.88947E-005	0.00000E+000	-1.87786E-005	-5.39641E-002	2.11267E-001	3.57320E+000	9	...........
	100	1.34667	2.06852E-001	-8.88739E-005	0.00000E+000	-1.83838E-005	-5.39641E-002	2.06872E-001	3.57320E+000	9	...........
	101	1.36	2.02478E-001	-8.87509E-005	0.00000E+000	-1.79701E-005	-5.39641E-002	2.02494E-001	3.57320E+000	9	...........
	102	1.37333	1.98116E-001	-8.86582E-005	0.00000E+000	-1.75646E-005	-5.39641E-002	1.98137E-001	3.57320E+000	9	...........
	103	1.38667	1.93763E-001	-8.87092E-005	0.00000E+000	-1.71886E-005	-5.39641E-002	1.93787E-001	3.57320E+000	9	...........
	104	1.4	1.89439E-001	-8.86790E-005	0.00000E+000	-1.67993E-005	-5.39641E-002	1.89456E-001	3.57320E+000	9	...........
	105	1.41333	1.85125E-001	-8.87363E-005	0.00000E+000	-1.64273E-005	-5.39641E-002	1.85141E-001	3.57320E+000	9	...........
	106	1.42667	1.80830E-001	-8.86050E-005	0.00000E+000	-1.60224E-005	-5.39641E-002	1.80849E-001	3.57320E+000	9	...........
	107	1.44	1.76555E-001	-8.87197E-005	0.00000E+000	-1.56639E-005	-5.39641E-002	1.76577E-001	3.57320E+000	9	...........
	108	1.45333	1.72296E-001	-8.88541E-005	0.00000E+000	-1.53092E-005	-5.39641E-002	1.72321E-001	3.57320E+000	9	...........
	109	1.46667	1.68055E-001	-8.86957E-005	0.00000E+000	-1.49057E-005	-5.39641E-002	1.68076E-001	3.57320E+000	9	...........
	110	1.48	1.63849E-001	-8.86071E-005	0.00000E+000	-1.45182E-005	-5.39641E-002	1.63866E-001	3.57320E+000	9	...........
	111	1.49333	1.59661E-001	-8.87019E-005	0.00000E+000	-1.41622E-005	-5.39641E-002	1.59678E-001	3.57320E+000	9	...........
	112	1.50667	1.55482E-001	-8.88051E-005	0.00000E+000	-1.38076E-005	-5.39641E-002	1.55495E-001	3.57320E+000	9	...........
	113	1.52	1.51335E-001	-8.89541E-005	0.00000E+000	-1.34618E-005	-5.39641E-002	1.51348E-001	3.57320E+000	9	...........
	114	1.53333	1.47197E-001	-8.87426E-005	0.00000E+000	-1.30627E-005	-5.39641E-002	1.47213E-001	3.57320E+000	9	...........
	115	1.54667	1.43079E-001	-8.86082E-005	0.00000E+000	-1.26780E-005	-5.39641E-002	1.43095E-001	3.57320E+000	9	...........
	116	1.56	1.38987E-001	-8.89937E-005	0.00000E+000	-1.23689E-005	-5.39641E-002	1.39005E-001	3.57320E+000	9	...........
	117	1.57333	1.34907E-001	-8.85644E-005	0.00000E+000	-1.19479E-005	-5.39641E-002	1.34921E-001	3.57320E+000	9	...........
	118	1.58667	1.30839E-001	-8.87197E-005	0.00000E+000	-1.16080E-005	-5.39641E-002	1.30852E-001	3.57320E+000	9	...........
	119	1.6	1.26796E-001	-8.87582E-005	0.00000E+000	-1.12542E-005	-5.39641E-002	1.26810E-001	3.57320E+000	9	...........
	120	1.61333	1.22764E-001	-8.86571E-005	0.00000E+000	-1.08839E-005	-5.39641E-002	1.22781E-001	3.57320E+000	9	...........
	121	1.62667	1.18756E-001	-8.88801E-005	0.00000E+000	-1.05551E-005	-5.39641E-002	1.18771E-001	3.57320E+000	9	...........
	122	1.64	1.14762E-001	-8.87572E-005	0.00000E+000	-1.01859E-005	-5.39641E-002	1.14776E-001	3.57320E+000	9	...........
	123	1.65333	1.10794E-001	-8.86634E-005	0.00000E+000	-9.82342E-006	-5.39641E-002	1.10806E-001	3.57320E+000	9	...........
	124	1.66667	1.06846E-001	-8.87874E-005	0.00000E+000	-9.48661E-006	-5.39641E-002	1.06855E-001	3.57320E+000	9	...........
	125	1.68	1.02912E-001	-8.89833E-005	0.00000E+000	-9.15744E-006	-5.39641E-002	1.02920E-001	3.57320E+000	9	...........
	126	1.69333	9.89840E-002	-8.86499E-005	0.00000E+000	-8.77492E-006	-5.39641E-002	9.90014E-002	3.57320E+000	9	...........
	127	1.70667	9.50902E-002	-8.87061E-005	0.00000E+000	-8.43508E-006	-5.39641E-002	9.51011E-002	3.57320E+000	9	...........
	128	1.72	9.11913E-002	-8.88207E-005	0.00000E+000	-8.09968E-006	-5.39641E-002	9.12019E-002	3.57320E+000	9	...........
	129	1.73333	8.73082E-002	-8.87926E-005	0.00000E+000	-7.75232E-006	-5.39641E-002	8.73189E-002	3.57320E+000	9	...........
	130	1.74667	8.34383E-002	-8.87728E-005	0.00000E+000	-7.40705E-006	-5.39641E-002	8.34470E-002	3.57320E+000	9	...........
	131	1.76	7.95907E-002	-8.86915E-005	0.00000E+000	-7.05902E-006	-5.39641E-002	7.95937E-002	3.57320E+000	9	...........
	132	1.77333	7.57618E-002	-8.88551E-005	0.00000E+000	-6.73182E-006	-5.39641E-002	7.57675E-002	3.57320E+000	9	...........
	133	1.78667	7.19509E-002	-8.85332E-005	0.00000E+000	-6.37004E-006	-5.39641E-002	7.19576E-002	3.57320E+000	9	...........
	134	1.8	6.81721E-002	-8.89218E-005	0.00000E+000	-6.06199E-006	-5.39641E-002	6.81773E-002	3.57320E+000	9	...........
	135	1.81333	6.43941E-002	-8.88509E-005	0.00000E+000	-5.72148E-006	-5.39641E-002	6.43987E-002	3.57320E+000	9	...........
	136	1.82667	6.06308E-002	-8.89489E-005	0.00000E+000	-5.39304E-006	-5.39641E-002	6.06305E-002	3.57320E+000	9	...........
	137	1.84	5.68752E-002	-8.86676E-005	0.00000E+000	-5.04298E-006	-5.39641E-002	5.68741E-002	3.57320E+000	9	...........
	138	1.85333	5.31481E-002	-8.86280E-005	0.00000E+000	-4.71041E-006	-5.39641E-002	5.31458E-002	3.57320E+000	9	...........
	139	1.86667	4.94336E-002	-8.87415E-005	0.00000E+000	-4.38682E-006	-5.39641E-002	4.94373E-002	3.57320E+000	9	...........
	140	1.88	4.57414E-002	-8.88520E-005	0.00000E+000	-4.06421E-006	-5.39641E-002	4.57555E-002	3.57320E+000	9	...........
	141	1.89333	4.20542E-002	-8.88603E-005	0.00000E+000	-3.73695E-006	-5.39641E-002	4.20642E-002	3.57320E+000	9	...........
	142	1.90667	3.83854E-002	-8.88249E-005	0.00000E+000	-3.40958E-006	-5.39641E-002	3.83940E-002	3.57320E+000	9	...........
	143	1.92	3.47467E-002	-8.88686E-005	0.00000E+000	-3.08789E-006	-5.39641E-002	3.47512E-002	3.57320E+000	9	...........
	144	1.93333	3.11205E-002	-8.84436E-005	0.00000E+000	-2.75240E-006	-5.39641E-002	3.11206E-002	3.57320E+000	9	...........
	145	1.94667	2.75218E-002	-8.87790E-005	0.00000E+000	-2.44336E-006	-5.39641E-002	2.75197E-002	3.57320E+000	9	...........
	146	1.96	2.39386E-002	-8.87520E-005	0.00000E+000	-2.12460E-006	-5.39641E-002	2.39364E-002	3.57320E+000	9	...........
	147	1.97333	2.03623E-002	-8.85811E-005	0.00000E+000	-1.80372E-006	-5.39641E-002	2.03616E-002	3.57320E+000	9	...........
	148	1.98667	1.68242E-002	-8.87843E-005	0.00000E+000	-1.49373E-006	-5.39641E-002	1.68205E-002	3.57320E+000	9	...........
	149	2	1.33059E-002	-8.88718E-005	0.00000E+000	-1.18252E-006	-5.39641E-002	1.33015E-002	3.57320E+000	9	...........
	150	2.01333	9.78952E-003	-8.85957E-005	0.00000E+000	-8.67309E-007	-5.39641E-002	9.77948E-003	3.57320E+000	9	...........
	151	2.02667	6.28722E-003	-8.88676E-005	0.00000E+000	-5.58730E-007	-5.39641E-002	6.27858E-003	3.57320E+000	9	...........
	152	2.04	2.79460E-003	-8.88040E-005	0.00000E+000	-2.48171E-007	-5.39641E-002	2.78261E-003	3.57320E+000	9	...........
	153	2.045	3.97404E-004	-8.86026E-005	0.00000E+000	-3.52110E-008	-5.39641E-002	3.84594E-004	3.57320E+000	9	...........
STARTTIMEOFFSET	QUANT	1785.768	Start Time Offset (s)
