EXPLAIN
TAG	PWR800_DISCHARGE
TITLE	LABEL	PWR Cyclic Charge Discharge (Cell) - Discharge Step	Test &Identifier
DATE	LABEL	10-7-2017	Date
TIME	LABEL	16:17:28	Time
NOTES	NOTES	3	&Notes...
	supercap test cell
	0.9mg
	6M KOH
PSTAT	PSTAT	IFC5000-01520	Potentiostat
CAPACITY	QUANT	1.00000E-003	Capacity (A-hr)
CELLTYPE	SELECTOR	1	&Cell Type
WORKINGCONNECTION	SELECTOR	0	&Working Lead
MAXDISCHARGETIME	VARIABLEANDUNITS	1.00000E+002	s	1.00000E+002	second(s)	Max &Discharge Time
DISCHARGEMODE	MULTIPARAM	0	9.00000E-005	&Discharge Mode	Constant Current	Amp(s)
SAMPLETIME	QUANT	1.00000E-002	Sa&mple Period (s)
DISCHARGESTOPAT1	MULTIPARAM	3	0.00000E+000	Discharge Stop At &1	Voltage < Limit	V
DISCHARGESTOPAT2	MULTIPARAM	0	0.00000E+000	Discharge Stop At &2	None	N/A
AESBHCSELECTOR	TOGGLE	F	Save Both Half Cells
IRCOMP	TOGGLE	F	IR &Measure
EOC	QUANT	0	Open Circuit (V)
SEQUENCER	TOGGLE	TRUE	Run as Sequence
PSTATMODEL	IQUANT	53	Pstat Model
PSTATSECTION	LABEL	IFC5000-01520	Pstat Section
PSTATSERIALNO	LABEL	01520	Pstat Serial Number
CTRLMODE	IQUANT	0	Control Mode
ELECTROMETER	IQUANT	1	RE=0 or CS=1
IESTAB	IQUANT	0	I/E Stability
CASPEED	IQUANT	4	Control Amp Speed
CONVENTION	IQUANT	1	Current Convention
ICHRANGE	IQUANT	2	Ich Range
ICHRANGEMODE	TOGGLE	T	Ich Auto Range
ICHOFFSETENABLE	TOGGLE	F	Ich Offset Enable
ICHOFFSET	QUANT	0	Ich Offset (V)
ICHFILTER	IQUANT	1	Ich Filter
VCHRANGE	IQUANT	2	Vch Range
VCHRANGEMODE	TOGGLE	T	Vch Auto Range
VCHOFFSETENABLE	TOGGLE	F	Vch Offset Enable
VCHOFFSET	QUANT	0	Vch Offset (V)
VCHFILTER	IQUANT	1	Vch Filter
IERANGELOWERLIMIT	IQUANT	9	I/E Range Lower Limit
IERANGEMODE	TOGGLE	F	I/E AutoRange
IERANGE	IQUANT	9	I/E Range
ACHSELECT	IQUANT	1	Ach Select
ACHRANGE	IQUANT	2	Ach Range
ACHOFFSETENABLE	TOGGLE	F	Ach Offset Enable
ACHOFFSET	QUANT	0	Ach Offset (V)
ACHFILTER	IQUANT	1	Ach Filter
CABLEID	IQUANT	14	Cable ID
DCCALDATE	LABEL	5-7-2017	DC Calibration Date
ACCALDATE	LABEL	12/3/2015	AC Calibration Date
FRAMEWORKVERSION	QUANT	7.01	Framework Version
INSTRUMENTVERSION	LABEL	4.00	Instrument Version
CURVE	TABLE	147
	Pt	T	Vf	Im	Vu	Pwr	Sig	Ach	Temp	IERange	Over
	#	s	V	A	V	W	V	V	deg C	#	bits
	0	0.013333	8.03513E-001	-8.86842E-005	0.00000E+000	-7.12590E-005	-5.39641E-002	8.03653E-001	3.57320E+000	9	...........
	1	0.026667	7.89138E-001	-8.86717E-005	0.00000E+000	-6.99742E-005	-5.39641E-002	7.89264E-001	3.57320E+000	9	...........
	2	0.04	7.75721E-001	-8.84686E-005	0.00000E+000	-6.86269E-005	-5.39641E-002	7.75867E-001	3.57320E+000	9	...........
	3	0.053333	7.63103E-001	-8.84863E-005	0.00000E+000	-6.75242E-005	-5.39641E-002	7.63221E-001	3.57305E+000	9	...........
	4	0.066667	7.51115E-001	-8.89051E-005	0.00000E+000	-6.67780E-005	-5.39641E-002	7.51243E-001	3.57280E+000	9	...........
	5	0.08	7.39679E-001	-8.87624E-005	0.00000E+000	-6.56556E-005	-5.39641E-002	7.39831E-001	3.57280E+000	9	...........
	6	0.093333	7.28766E-001	-8.89770E-005	0.00000E+000	-6.48434E-005	-5.39641E-002	7.28875E-001	3.57280E+000	9	...........
	7	0.106667	7.18253E-001	-8.88645E-005	0.00000E+000	-6.38272E-005	-5.39641E-002	7.18369E-001	3.57280E+000	9	...........
	8	0.12	7.08093E-001	-8.89489E-005	0.00000E+000	-6.29841E-005	-5.39641E-002	7.08223E-001	3.57280E+000	9	...........
	9	0.133333	6.98280E-001	-8.88791E-005	0.00000E+000	-6.20624E-005	-5.39641E-002	6.98423E-001	3.57280E+000	9	...........
	10	0.146667	6.88800E-001	-8.89166E-005	0.00000E+000	-6.12457E-005	-5.39641E-002	6.88915E-001	3.57280E+000	9	...........
	11	0.16	6.79598E-001	-8.87582E-005	0.00000E+000	-6.03199E-005	-5.39641E-002	6.79734E-001	3.57280E+000	9	...........
	12	0.173333	6.70672E-001	-8.88707E-005	0.00000E+000	-5.96031E-005	-5.39641E-002	6.70773E-001	3.57280E+000	9	...........
	13	0.186667	6.61936E-001	-8.88561E-005	0.00000E+000	-5.88171E-005	-5.39641E-002	6.62044E-001	3.57280E+000	9	...........
	14	0.2	6.53444E-001	-8.85342E-005	0.00000E+000	-5.78522E-005	-5.39641E-002	6.53556E-001	3.57280E+000	9	...........
	15	0.213333	6.45151E-001	-8.86196E-005	0.00000E+000	-5.71731E-005	-5.39641E-002	6.45278E-001	3.57280E+000	9	...........
	16	0.226667	6.37073E-001	-8.86259E-005	0.00000E+000	-5.64612E-005	-5.39641E-002	6.37203E-001	3.57280E+000	9	...........
	17	0.24	6.29213E-001	-8.86822E-005	0.00000E+000	-5.57999E-005	-5.39641E-002	6.29312E-001	3.57280E+000	9	...........
	18	0.253333	6.21487E-001	-8.88124E-005	0.00000E+000	-5.51958E-005	-5.39641E-002	6.21576E-001	3.57280E+000	9	...........
	19	0.266667	6.13886E-001	-8.87395E-005	0.00000E+000	-5.44759E-005	-5.39641E-002	6.14039E-001	3.57280E+000	9	...........
	20	0.28	6.06454E-001	-8.88551E-005	0.00000E+000	-5.38866E-005	-5.39641E-002	6.06613E-001	3.57280E+000	9	...........
	21	0.293333	5.99193E-001	-8.86947E-005	0.00000E+000	-5.31452E-005	-5.39641E-002	5.99320E-001	3.57280E+000	9	...........
	22	0.306667	5.92099E-001	-8.87936E-005	0.00000E+000	-5.25746E-005	-5.39641E-002	5.92233E-001	3.57280E+000	9	...........
	23	0.32	5.85090E-001	-8.88957E-005	0.00000E+000	-5.20120E-005	-5.39641E-002	5.85228E-001	3.57280E+000	9	...........
	24	0.333333	5.78229E-001	-8.87478E-005	0.00000E+000	-5.13165E-005	-5.39641E-002	5.78381E-001	3.57280E+000	9	...........
	25	0.346667	5.71511E-001	-8.86426E-005	0.00000E+000	-5.06602E-005	-5.39641E-002	5.71611E-001	3.57280E+000	9	...........
	26	0.36	5.64863E-001	-8.86957E-005	0.00000E+000	-5.01009E-005	-5.39641E-002	5.64988E-001	3.57280E+000	9	...........
	27	0.373333	5.58280E-001	-8.87103E-005	0.00000E+000	-4.95252E-005	-5.39641E-002	5.58419E-001	3.57280E+000	9	...........
	28	0.386667	5.51829E-001	-8.90166E-005	0.00000E+000	-4.91219E-005	-5.39641E-002	5.51969E-001	3.57280E+000	9	...........
	29	0.4	5.45482E-001	-8.88343E-005	0.00000E+000	-4.84575E-005	-5.39641E-002	5.45596E-001	3.57280E+000	9	...........
	30	0.413333	5.39216E-001	-8.86436E-005	0.00000E+000	-4.77980E-005	-5.39641E-002	5.39357E-001	3.57280E+000	9	...........
	31	0.426667	5.32993E-001	-8.86769E-005	0.00000E+000	-4.72642E-005	-5.39641E-002	5.33126E-001	3.57280E+000	9	...........
	32	0.44	5.26914E-001	-8.86290E-005	0.00000E+000	-4.66998E-005	-5.39641E-002	5.27039E-001	3.57280E+000	9	...........
	33	0.453333	5.20860E-001	-8.89593E-005	0.00000E+000	-4.63354E-005	-5.39641E-002	5.20967E-001	3.57280E+000	9	...........
	34	0.466667	5.14903E-001	-8.87072E-005	0.00000E+000	-4.56756E-005	-5.39641E-002	5.15011E-001	3.57280E+000	9	...........
	35	0.48	5.08936E-001	-8.84529E-005	0.00000E+000	-4.50169E-005	-5.39641E-002	5.09090E-001	3.57280E+000	9	...........
	36	0.493333	5.03091E-001	-8.88832E-005	0.00000E+000	-4.47164E-005	-5.39641E-002	5.03224E-001	3.57280E+000	9	...........
	37	0.506667	4.97314E-001	-8.87634E-005	0.00000E+000	-4.41433E-005	-5.39641E-002	4.97454E-001	3.57280E+000	9	...........
	38	0.52	4.91609E-001	-8.86863E-005	0.00000E+000	-4.35990E-005	-5.39641E-002	4.91718E-001	3.57280E+000	9	...........
	39	0.533333	4.85964E-001	-8.89332E-005	0.00000E+000	-4.32184E-005	-5.39641E-002	4.86070E-001	3.57280E+000	9	...........
	40	0.546667	4.80402E-001	-8.88207E-005	0.00000E+000	-4.26696E-005	-5.39641E-002	4.80471E-001	3.57280E+000	9	...........
	41	0.56	4.74808E-001	-8.87426E-005	0.00000E+000	-4.21357E-005	-5.39641E-002	4.74877E-001	3.57280E+000	9	...........
	42	0.573333	4.69266E-001	-8.87269E-005	0.00000E+000	-4.16365E-005	-5.39641E-002	4.69335E-001	3.57280E+000	9	...........
	43	0.586667	4.63789E-001	-8.88343E-005	0.00000E+000	-4.12004E-005	-5.39641E-002	4.63856E-001	3.57280E+000	9	...........
	44	0.6	4.58337E-001	-8.88624E-005	0.00000E+000	-4.07289E-005	-5.39641E-002	4.58400E-001	3.57280E+000	9	...........
	45	0.613333	4.52940E-001	-8.90239E-005	0.00000E+000	-4.03225E-005	-5.39641E-002	4.53004E-001	3.57280E+000	9	...........
	46	0.626667	4.47571E-001	-8.87634E-005	0.00000E+000	-3.97280E-005	-5.39641E-002	4.47639E-001	3.57280E+000	9	...........
	47	0.64	4.42238E-001	-8.89176E-005	0.00000E+000	-3.93228E-005	-5.39641E-002	4.42302E-001	3.57280E+000	9	...........
	48	0.653333	4.36945E-001	-8.86592E-005	0.00000E+000	-3.87392E-005	-5.39641E-002	4.37008E-001	3.57280E+000	9	...........
	49	0.666667	4.31672E-001	-8.88749E-005	0.00000E+000	-3.83648E-005	-5.39641E-002	4.31732E-001	3.57280E+000	9	...........
	50	0.68	4.26422E-001	-8.89343E-005	0.00000E+000	-3.79236E-005	-5.39641E-002	4.26478E-001	3.57280E+000	9	...........
	51	0.693333	4.21189E-001	-8.88207E-005	0.00000E+000	-3.74103E-005	-5.39641E-002	4.21252E-001	3.57280E+000	9	...........
	52	0.706667	4.15991E-001	-8.87124E-005	0.00000E+000	-3.69035E-005	-5.39641E-002	4.16051E-001	3.57280E+000	9	...........
	53	0.72	4.10818E-001	-8.89843E-005	0.00000E+000	-3.65564E-005	-5.39641E-002	4.10881E-001	3.57280E+000	9	...........
	54	0.733333	4.05668E-001	-8.85780E-005	0.00000E+000	-3.59333E-005	-5.39641E-002	4.05719E-001	3.57280E+000	9	...........
	55	0.746667	4.00539E-001	-8.88947E-005	0.00000E+000	-3.56057E-005	-5.39641E-002	4.00594E-001	3.57280E+000	9	...........
	56	0.76	3.95435E-001	-8.88561E-005	0.00000E+000	-3.51368E-005	-5.39641E-002	3.95488E-001	3.57280E+000	9	...........
	57	0.773333	3.90354E-001	-8.86415E-005	0.00000E+000	-3.46016E-005	-5.39641E-002	3.90407E-001	3.57280E+000	9	...........
	58	0.786667	3.85296E-001	-8.88020E-005	0.00000E+000	-3.42150E-005	-5.39641E-002	3.85353E-001	3.57280E+000	9	...........
	59	0.8	3.80265E-001	-8.87561E-005	0.00000E+000	-3.37508E-005	-5.39641E-002	3.80315E-001	3.57280E+000	9	...........
	60	0.813333	3.75249E-001	-8.88551E-005	0.00000E+000	-3.33428E-005	-5.39641E-002	3.75293E-001	3.57280E+000	9	...........
	61	0.826667	3.70236E-001	-8.89801E-005	0.00000E+000	-3.29437E-005	-5.39641E-002	3.70287E-001	3.57280E+000	9	...........
	62	0.84	3.65252E-001	-8.86301E-005	0.00000E+000	-3.23723E-005	-5.39641E-002	3.65306E-001	3.57280E+000	9	...........
	63	0.853333	3.60280E-001	-8.86905E-005	0.00000E+000	-3.19534E-005	-5.39641E-002	3.60327E-001	3.57280E+000	9	...........
	64	0.866667	3.55311E-001	-8.88416E-005	0.00000E+000	-3.15664E-005	-5.39641E-002	3.55357E-001	3.57280E+000	9	...........
	65	0.88	3.50360E-001	-8.88218E-005	0.00000E+000	-3.11196E-005	-5.39641E-002	3.50403E-001	3.57280E+000	9	...........
	66	0.893333	3.45428E-001	-8.87228E-005	0.00000E+000	-3.06473E-005	-5.39641E-002	3.45471E-001	3.57280E+000	9	...........
	67	0.906667	3.40507E-001	-8.88103E-005	0.00000E+000	-3.02405E-005	-5.39641E-002	3.40549E-001	3.57280E+000	9	...........
	68	0.92	3.35588E-001	-8.86769E-005	0.00000E+000	-2.97589E-005	-5.39641E-002	3.35638E-001	3.57280E+000	9	...........
	69	0.933333	3.30678E-001	-8.88478E-005	0.00000E+000	-2.93801E-005	-5.39641E-002	3.30719E-001	3.57280E+000	9	...........
	70	0.946667	3.25782E-001	-8.87238E-005	0.00000E+000	-2.89046E-005	-5.39641E-002	3.25828E-001	3.57280E+000	9	...........
	71	0.96	3.20904E-001	-8.90551E-005	0.00000E+000	-2.85782E-005	-5.39641E-002	3.20941E-001	3.57280E+000	9	...........
	72	0.97333	3.16035E-001	-8.90562E-005	0.00000E+000	-2.81449E-005	-5.39641E-002	3.16080E-001	3.57280E+000	9	...........
	73	0.98667	3.11189E-001	-8.88186E-005	0.00000E+000	-2.76394E-005	-5.39641E-002	3.11228E-001	3.57280E+000	9	...........
	74	1	3.06356E-001	-8.85686E-005	0.00000E+000	-2.71335E-005	-5.39641E-002	3.06397E-001	3.57280E+000	9	...........
	75	1.01333	3.01528E-001	-8.89499E-005	0.00000E+000	-2.68209E-005	-5.39641E-002	3.01570E-001	3.57280E+000	9	...........
	76	1.02667	2.96730E-001	-8.87363E-005	0.00000E+000	-2.63307E-005	-5.39641E-002	2.96769E-001	3.57280E+000	9	...........
	77	1.04	2.91948E-001	-8.85634E-005	0.00000E+000	-2.58559E-005	-5.39641E-002	2.91986E-001	3.57280E+000	9	...........
	78	1.05333	2.87172E-001	-8.87780E-005	0.00000E+000	-2.54945E-005	-5.39641E-002	2.87212E-001	3.57284E+000	9	...........
	79	1.06667	2.82388E-001	-8.89478E-005	0.00000E+000	-2.51178E-005	-5.39641E-002	2.82431E-001	3.57290E+000	9	...........
	80	1.08	2.77623E-001	-8.89239E-005	0.00000E+000	-2.46873E-005	-5.39641E-002	2.77662E-001	3.57290E+000	9	...........
	81	1.09333	2.72872E-001	-8.87905E-005	0.00000E+000	-2.42285E-005	-5.39641E-002	2.72909E-001	3.57290E+000	9	...........
	82	1.10667	2.68122E-001	-8.86144E-005	0.00000E+000	-2.37594E-005	-5.39641E-002	2.68161E-001	3.57290E+000	9	...........
	83	1.12	2.63406E-001	-8.88416E-005	0.00000E+000	-2.34014E-005	-5.39641E-002	2.63443E-001	3.57290E+000	9	...........
	84	1.13333	2.58696E-001	-8.87176E-005	0.00000E+000	-2.29509E-005	-5.39641E-002	2.58734E-001	3.57290E+000	9	...........
	85	1.14667	2.54000E-001	-8.88707E-005	0.00000E+000	-2.25732E-005	-5.39641E-002	2.54035E-001	3.57290E+000	9	...........
	86	1.16	2.49318E-001	-8.90010E-005	0.00000E+000	-2.21895E-005	-5.39641E-002	2.49355E-001	3.57290E+000	9	...........
	87	1.17333	2.44665E-001	-8.87457E-005	0.00000E+000	-2.17130E-005	-5.39641E-002	2.44696E-001	3.57290E+000	9	...........
	88	1.18667	2.40020E-001	-8.89499E-005	0.00000E+000	-2.13498E-005	-5.39641E-002	2.40046E-001	3.57290E+000	9	...........
	89	1.2	2.35379E-001	-8.89166E-005	0.00000E+000	-2.09291E-005	-5.39641E-002	2.35407E-001	3.57290E+000	9	...........
	90	1.21333	2.30746E-001	-8.90281E-005	0.00000E+000	-2.05429E-005	-5.39641E-002	2.30776E-001	3.57290E+000	9	...........
	91	1.22667	2.26147E-001	-8.87686E-005	0.00000E+000	-2.00747E-005	-5.39641E-002	2.26183E-001	3.57290E+000	9	...........
	92	1.24	2.21570E-001	-8.88155E-005	0.00000E+000	-1.96788E-005	-5.39641E-002	2.21596E-001	3.57290E+000	9	...........
	93	1.25333	2.16991E-001	-8.89541E-005	0.00000E+000	-1.93022E-005	-5.39641E-002	2.17018E-001	3.57290E+000	9	...........
	94	1.26667	2.12426E-001	-8.89510E-005	0.00000E+000	-1.88955E-005	-5.39641E-002	2.12453E-001	3.57290E+000	9	...........
	95	1.28	2.07883E-001	-8.87655E-005	0.00000E+000	-1.84528E-005	-5.39641E-002	2.07913E-001	3.57290E+000	9	...........
	96	1.29333	2.03359E-001	-8.90333E-005	0.00000E+000	-1.81057E-005	-5.39641E-002	2.03391E-001	3.57290E+000	9	...........
	97	1.30667	1.98854E-001	-8.85040E-005	0.00000E+000	-1.75994E-005	-5.39641E-002	1.98878E-001	3.57290E+000	9	...........
	98	1.32	1.94360E-001	-8.88322E-005	0.00000E+000	-1.72654E-005	-5.39641E-002	1.94382E-001	3.57290E+000	9	...........
	99	1.33333	1.89879E-001	-8.85873E-005	0.00000E+000	-1.68209E-005	-5.39641E-002	1.89908E-001	3.57290E+000	9	...........
	100	1.34667	1.85423E-001	-8.91572E-005	0.00000E+000	-1.65318E-005	-5.39641E-002	1.85448E-001	3.57290E+000	9	...........
	101	1.36	1.80986E-001	-8.89833E-005	0.00000E+000	-1.61047E-005	-5.39641E-002	1.81007E-001	3.57290E+000	9	...........
	102	1.37333	1.76581E-001	-8.84988E-005	0.00000E+000	-1.56272E-005	-5.39641E-002	1.76603E-001	3.57290E+000	9	...........
	103	1.38667	1.72197E-001	-8.85852E-005	0.00000E+000	-1.52541E-005	-5.39641E-002	1.72219E-001	3.57290E+000	9	...........
	104	1.4	1.67820E-001	-8.88009E-005	0.00000E+000	-1.49025E-005	-5.39641E-002	1.67839E-001	3.57290E+000	9	...........
	105	1.41333	1.63457E-001	-8.87488E-005	0.00000E+000	-1.45066E-005	-5.39641E-002	1.63477E-001	3.57290E+000	9	...........
	106	1.42667	1.59111E-001	-8.90781E-005	0.00000E+000	-1.41733E-005	-5.39641E-002	1.59127E-001	3.57290E+000	9	...........
	107	1.44	1.54779E-001	-8.89155E-005	0.00000E+000	-1.37623E-005	-5.39641E-002	1.54796E-001	3.57290E+000	9	...........
	108	1.45333	1.50485E-001	-8.86561E-005	0.00000E+000	-1.33414E-005	-5.39641E-002	1.50497E-001	3.57290E+000	9	...........
	109	1.46667	1.46209E-001	-8.88301E-005	0.00000E+000	-1.29877E-005	-5.39641E-002	1.46216E-001	3.57290E+000	9	...........
	110	1.48	1.41928E-001	-8.91302E-005	0.00000E+000	-1.26501E-005	-5.39641E-002	1.41938E-001	3.57290E+000	9	...........
	111	1.49333	1.37680E-001	-8.89385E-005	0.00000E+000	-1.22451E-005	-5.39641E-002	1.37692E-001	3.57290E+000	9	...........
	112	1.50667	1.33448E-001	-8.90083E-005	0.00000E+000	-1.18779E-005	-5.39641E-002	1.33455E-001	3.57290E+000	9	...........
	113	1.52	1.29234E-001	-8.89114E-005	0.00000E+000	-1.14903E-005	-5.39641E-002	1.29247E-001	3.57290E+000	9	...........
	114	1.53333	1.25017E-001	-8.90447E-005	0.00000E+000	-1.11321E-005	-5.39641E-002	1.25028E-001	3.57290E+000	9	...........
	115	1.54667	1.20823E-001	-8.88030E-005	0.00000E+000	-1.07294E-005	-5.39641E-002	1.20831E-001	3.57290E+000	9	...........
	116	1.56	1.16636E-001	-8.87978E-005	0.00000E+000	-1.03571E-005	-5.39641E-002	1.16652E-001	3.57290E+000	9	...........
	117	1.57333	1.12487E-001	-8.89978E-005	0.00000E+000	-1.00111E-005	-5.39641E-002	1.12498E-001	3.57290E+000	9	...........
	118	1.58667	1.08350E-001	-8.89718E-005	0.00000E+000	-9.64011E-006	-5.39641E-002	1.08357E-001	3.57290E+000	9	...........
	119	1.6	1.04233E-001	-8.87822E-005	0.00000E+000	-9.25400E-006	-5.39641E-002	1.04241E-001	3.57290E+000	9	...........
	120	1.61333	1.00140E-001	-8.89041E-005	0.00000E+000	-8.90281E-006	-5.39641E-002	1.00148E-001	3.57290E+000	9	...........
	121	1.62667	9.60784E-002	-8.88718E-005	0.00000E+000	-8.53866E-006	-5.39641E-002	9.60891E-002	3.57290E+000	9	...........
	122	1.64	9.20351E-002	-8.90228E-005	0.00000E+000	-8.19323E-006	-5.39641E-002	9.20399E-002	3.57290E+000	9	...........
	123	1.65333	8.79980E-002	-8.89833E-005	0.00000E+000	-7.83035E-006	-5.39641E-002	8.80094E-002	3.57290E+000	9	...........
	124	1.66667	8.39862E-002	-8.87322E-005	0.00000E+000	-7.45227E-006	-5.39641E-002	8.39897E-002	3.57290E+000	9	...........
	125	1.68	7.99940E-002	-8.87165E-005	0.00000E+000	-7.09679E-006	-5.39641E-002	7.99998E-002	3.57290E+000	9	...........
	126	1.69333	7.60286E-002	-8.87499E-005	0.00000E+000	-6.74753E-006	-5.39641E-002	7.60269E-002	3.57290E+000	9	...........
	127	1.70667	7.20716E-002	-8.87134E-005	0.00000E+000	-6.39372E-006	-5.39641E-002	7.20702E-002	3.57290E+000	9	...........
	128	1.72	6.81374E-002	-8.88718E-005	0.00000E+000	-6.05549E-006	-5.39641E-002	6.81329E-002	3.57290E+000	9	...........
	129	1.73333	6.42196E-002	-8.91104E-005	0.00000E+000	-5.72263E-006	-5.39641E-002	6.42159E-002	3.57290E+000	9	...........
	130	1.74667	6.03362E-002	-8.87499E-005	0.00000E+000	-5.35483E-006	-5.39641E-002	6.03350E-002	3.57290E+000	9	...........
	131	1.76	5.64595E-002	-8.87426E-005	0.00000E+000	-5.01036E-006	-5.39641E-002	5.64597E-002	3.57290E+000	9	...........
	132	1.77333	5.25873E-002	-8.89353E-005	0.00000E+000	-4.67687E-006	-5.39641E-002	5.25762E-002	3.57290E+000	9	...........
	133	1.78667	4.87247E-002	-8.83946E-005	0.00000E+000	-4.30700E-006	-5.39641E-002	4.87280E-002	3.57290E+000	9	...........
	134	1.8	4.49033E-002	-8.88374E-005	0.00000E+000	-3.98909E-006	-5.39641E-002	4.49088E-002	3.57290E+000	9	...........
	135	1.81333	4.10929E-002	-8.88103E-005	0.00000E+000	-3.64947E-006	-5.39641E-002	4.10981E-002	3.57290E+000	9	...........
	136	1.82667	3.73073E-002	-8.90312E-005	0.00000E+000	-3.32151E-006	-5.39641E-002	3.73152E-002	3.57290E+000	9	...........
	137	1.84	3.35445E-002	-8.89947E-005	0.00000E+000	-2.98528E-006	-5.39641E-002	3.35448E-002	3.57290E+000	9	...........
	138	1.85333	2.97925E-002	-8.89093E-005	0.00000E+000	-2.64883E-006	-5.39641E-002	2.97926E-002	3.57290E+000	9	...........
	139	1.86667	2.60519E-002	-8.87197E-005	0.00000E+000	-2.31132E-006	-5.39641E-002	2.60506E-002	3.57290E+000	9	...........
	140	1.88	2.23333E-002	-8.91010E-005	0.00000E+000	-1.98992E-006	-5.39641E-002	2.23335E-002	3.57290E+000	9	...........
	141	1.89333	1.86412E-002	-8.85759E-005	0.00000E+000	-1.65116E-006	-5.39641E-002	1.86446E-002	3.57290E+000	9	...........
	142	1.90667	1.49585E-002	-8.87592E-005	0.00000E+000	-1.32770E-006	-5.39641E-002	1.49509E-002	3.57290E+000	9	...........
	143	1.92	1.12876E-002	-8.88103E-005	0.00000E+000	-1.00245E-006	-5.39641E-002	1.12753E-002	3.57290E+000	9	...........
	144	1.93333	7.63444E-003	-8.87728E-005	0.00000E+000	-6.77731E-007	-5.39641E-002	7.62048E-003	3.57290E+000	9	...........
	145	1.94667	3.99753E-003	-8.86853E-005	0.00000E+000	-3.54522E-007	-5.39641E-002	3.98385E-003	3.57290E+000	9	...........
	146	1.95667	8.21921E-004	-8.86929E-005	0.00000E+000	-7.28986E-008	-5.39641E-002	8.11462E-004	3.57290E+000	9	...........
STARTTIMEOFFSET	QUANT	3934.607	Start Time Offset (s)
