EXPLAIN
TAG	PWR800_DISCHARGE
TITLE	LABEL	PWR Cyclic Charge Discharge (Cell) - Discharge Step	Test &Identifier
DATE	LABEL	10-7-2017	Date
TIME	LABEL	15:48:14	Time
NOTES	NOTES	3	&Notes...
	supercap test cell
	0.9mg
	6M KOH
PSTAT	PSTAT	IFC5000-01520	Potentiostat
CAPACITY	QUANT	1.00000E-003	Capacity (A-hr)
CELLTYPE	SELECTOR	1	&Cell Type
WORKINGCONNECTION	SELECTOR	0	&Working Lead
MAXDISCHARGETIME	VARIABLEANDUNITS	1.00000E+002	s	1.00000E+002	second(s)	Max &Discharge Time
DISCHARGEMODE	MULTIPARAM	0	9.00000E-005	&Discharge Mode	Constant Current	Amp(s)
SAMPLETIME	QUANT	1.00000E-002	Sa&mple Period (s)
DISCHARGESTOPAT1	MULTIPARAM	3	0.00000E+000	Discharge Stop At &1	Voltage < Limit	V
DISCHARGESTOPAT2	MULTIPARAM	0	0.00000E+000	Discharge Stop At &2	None	N/A
AESBHCSELECTOR	TOGGLE	F	Save Both Half Cells
IRCOMP	TOGGLE	F	IR &Measure
EOC	QUANT	0	Open Circuit (V)
SEQUENCER	TOGGLE	TRUE	Run as Sequence
PSTATMODEL	IQUANT	53	Pstat Model
PSTATSECTION	LABEL	IFC5000-01520	Pstat Section
PSTATSERIALNO	LABEL	01520	Pstat Serial Number
CTRLMODE	IQUANT	0	Control Mode
ELECTROMETER	IQUANT	1	RE=0 or CS=1
IESTAB	IQUANT	0	I/E Stability
CASPEED	IQUANT	4	Control Amp Speed
CONVENTION	IQUANT	1	Current Convention
ICHRANGE	IQUANT	2	Ich Range
ICHRANGEMODE	TOGGLE	T	Ich Auto Range
ICHOFFSETENABLE	TOGGLE	F	Ich Offset Enable
ICHOFFSET	QUANT	0	Ich Offset (V)
ICHFILTER	IQUANT	1	Ich Filter
VCHRANGE	IQUANT	2	Vch Range
VCHRANGEMODE	TOGGLE	T	Vch Auto Range
VCHOFFSETENABLE	TOGGLE	F	Vch Offset Enable
VCHOFFSET	QUANT	0	Vch Offset (V)
VCHFILTER	IQUANT	1	Vch Filter
IERANGELOWERLIMIT	IQUANT	9	I/E Range Lower Limit
IERANGEMODE	TOGGLE	F	I/E AutoRange
IERANGE	IQUANT	9	I/E Range
ACHSELECT	IQUANT	1	Ach Select
ACHRANGE	IQUANT	2	Ach Range
ACHOFFSETENABLE	TOGGLE	F	Ach Offset Enable
ACHOFFSET	QUANT	0	Ach Offset (V)
ACHFILTER	IQUANT	1	Ach Filter
CABLEID	IQUANT	14	Cable ID
DCCALDATE	LABEL	5-7-2017	DC Calibration Date
ACCALDATE	LABEL	12/3/2015	AC Calibration Date
FRAMEWORKVERSION	QUANT	7.01	Framework Version
INSTRUMENTVERSION	LABEL	4.00	Instrument Version
CURVE	TABLE	151
	Pt	T	Vf	Im	Vu	Pwr	Sig	Ach	Temp	IERange	Over
	#	s	V	A	V	W	V	V	deg C	#	bits
	0	0.013333	8.10042E-001	-8.88103E-005	0.00000E+000	-7.19401E-005	-5.39641E-002	8.10191E-001	3.57260E+000	9	...........
	1	0.026667	7.96345E-001	-8.87884E-005	0.00000E+000	-7.07062E-005	-5.39641E-002	7.96512E-001	3.57260E+000	9	...........
	2	0.04	7.83551E-001	-8.86624E-005	0.00000E+000	-6.94715E-005	-5.39641E-002	7.83696E-001	3.57260E+000	9	...........
	3	0.053333	7.71479E-001	-8.89395E-005	0.00000E+000	-6.86150E-005	-5.39641E-002	7.71630E-001	3.57260E+000	9	...........
	4	0.066667	7.60019E-001	-8.87551E-005	0.00000E+000	-6.74555E-005	-5.39641E-002	7.60152E-001	3.57260E+000	9	...........
	5	0.08	7.49057E-001	-8.85207E-005	0.00000E+000	-6.63070E-005	-5.39641E-002	7.49187E-001	3.57260E+000	9	...........
	6	0.093333	7.38509E-001	-8.88082E-005	0.00000E+000	-6.55857E-005	-5.39641E-002	7.38648E-001	3.57260E+000	9	...........
	7	0.106667	7.28406E-001	-8.87342E-005	0.00000E+000	-6.46345E-005	-5.39641E-002	7.28535E-001	3.57260E+000	9	...........
	8	0.12	7.18607E-001	-8.87988E-005	0.00000E+000	-6.38115E-005	-5.39641E-002	7.18725E-001	3.57260E+000	9	...........
	9	0.133333	7.09101E-001	-8.87447E-005	0.00000E+000	-6.29289E-005	-5.39641E-002	7.09254E-001	3.57260E+000	9	...........
	10	0.146667	6.99970E-001	-8.87926E-005	0.00000E+000	-6.21522E-005	-5.39641E-002	7.00068E-001	3.57260E+000	9	...........
	11	0.16	6.91027E-001	-8.85259E-005	0.00000E+000	-6.11737E-005	-5.39641E-002	6.91150E-001	3.57260E+000	9	...........
	12	0.173333	6.82336E-001	-8.87728E-005	0.00000E+000	-6.05729E-005	-5.39641E-002	6.82452E-001	3.57260E+000	9	...........
	13	0.186667	6.73897E-001	-8.87770E-005	0.00000E+000	-5.98265E-005	-5.39641E-002	6.74015E-001	3.57260E+000	9	...........
	14	0.2	6.65649E-001	-8.87936E-005	0.00000E+000	-5.91054E-005	-5.39641E-002	6.65765E-001	3.57260E+000	9	...........
	15	0.213333	6.57616E-001	-8.89270E-005	0.00000E+000	-5.84798E-005	-5.39641E-002	6.57700E-001	3.57260E+000	9	...........
	16	0.226667	6.49712E-001	-8.89301E-005	0.00000E+000	-5.77789E-005	-5.39641E-002	6.49819E-001	3.57260E+000	9	...........
	17	0.24	6.42005E-001	-8.87394E-005	0.00000E+000	-5.69712E-005	-5.39641E-002	6.42089E-001	3.57260E+000	9	...........
	18	0.253333	6.34435E-001	-8.85436E-005	0.00000E+000	-5.61751E-005	-5.39641E-002	6.34526E-001	3.57260E+000	9	...........
	19	0.266667	6.27063E-001	-8.87947E-005	0.00000E+000	-5.56799E-005	-5.39641E-002	6.27131E-001	3.57260E+000	9	...........
	20	0.28	6.19832E-001	-8.86176E-005	0.00000E+000	-5.49280E-005	-5.39641E-002	6.19874E-001	3.57260E+000	9	...........
	21	0.293333	6.12667E-001	-8.88978E-005	0.00000E+000	-5.44647E-005	-5.39641E-002	6.12747E-001	3.57260E+000	9	...........
	22	0.306667	6.05645E-001	-8.88728E-005	0.00000E+000	-5.38254E-005	-5.39641E-002	6.05753E-001	3.57260E+000	9	...........
	23	0.32	5.98766E-001	-8.86988E-005	0.00000E+000	-5.31099E-005	-5.39641E-002	5.98887E-001	3.57260E+000	9	...........
	24	0.333333	5.92018E-001	-8.86540E-005	0.00000E+000	-5.24848E-005	-5.39641E-002	5.92118E-001	3.57260E+000	9	...........
	25	0.346667	5.85345E-001	-8.90562E-005	0.00000E+000	-5.21286E-005	-5.39641E-002	5.85447E-001	3.57260E+000	9	...........
	26	0.36	5.78785E-001	-8.88801E-005	0.00000E+000	-5.14425E-005	-5.39641E-002	5.78905E-001	3.57260E+000	9	...........
	27	0.373333	5.72312E-001	-8.85123E-005	0.00000E+000	-5.06566E-005	-5.39641E-002	5.72418E-001	3.57260E+000	9	...........
	28	0.386667	5.65934E-001	-8.86217E-005	0.00000E+000	-5.01541E-005	-5.39641E-002	5.66072E-001	3.57260E+000	9	...........
	29	0.4	5.59581E-001	-8.87832E-005	0.00000E+000	-4.96814E-005	-5.39641E-002	5.59755E-001	3.57260E+000	9	...........
	30	0.413333	5.53388E-001	-8.84269E-005	0.00000E+000	-4.89344E-005	-5.39641E-002	5.53527E-001	3.57260E+000	9	...........
	31	0.426667	5.47242E-001	-8.85519E-005	0.00000E+000	-4.84594E-005	-5.39641E-002	5.47385E-001	3.57260E+000	9	...........
	32	0.44	5.41164E-001	-8.87353E-005	0.00000E+000	-4.80203E-005	-5.39641E-002	5.41307E-001	3.57260E+000	9	...........
	33	0.453333	5.35143E-001	-8.86926E-005	0.00000E+000	-4.74632E-005	-5.39641E-002	5.35269E-001	3.57260E+000	9	...........
	34	0.466667	5.29225E-001	-8.87103E-005	0.00000E+000	-4.69477E-005	-5.39641E-002	5.29339E-001	3.57260E+000	9	...........
	35	0.48	5.23340E-001	-8.87780E-005	0.00000E+000	-4.64611E-005	-5.39641E-002	5.23448E-001	3.57260E+000	9	...........
	36	0.493333	5.17539E-001	-8.86665E-005	0.00000E+000	-4.58884E-005	-5.39641E-002	5.17650E-001	3.57260E+000	9	...........
	37	0.506667	5.11768E-001	-8.89343E-005	0.00000E+000	-4.55137E-005	-5.39641E-002	5.11883E-001	3.57260E+000	9	...........
	38	0.52	5.06017E-001	-8.88426E-005	0.00000E+000	-4.49559E-005	-5.39641E-002	5.06174E-001	3.57260E+000	9	...........
	39	0.533333	5.00358E-001	-8.90291E-005	0.00000E+000	-4.45464E-005	-5.39641E-002	5.00478E-001	3.57260E+000	9	...........
	40	0.546667	4.94719E-001	-8.87780E-005	0.00000E+000	-4.39202E-005	-5.39641E-002	4.94848E-001	3.57260E+000	9	...........
	41	0.56	4.89140E-001	-8.88968E-005	0.00000E+000	-4.34829E-005	-5.39641E-002	4.89231E-001	3.57260E+000	9	...........
	42	0.573333	4.83653E-001	-8.86853E-005	0.00000E+000	-4.28929E-005	-5.39641E-002	4.83724E-001	3.57260E+000	9	...........
	43	0.586667	4.78189E-001	-8.89687E-005	0.00000E+000	-4.25439E-005	-5.39641E-002	4.78254E-001	3.57260E+000	9	...........
	44	0.6	4.72740E-001	-8.90083E-005	0.00000E+000	-4.20777E-005	-5.39641E-002	4.72804E-001	3.57260E+000	9	...........
	45	0.613333	4.67311E-001	-8.86644E-005	0.00000E+000	-4.14339E-005	-5.39641E-002	4.67373E-001	3.57260E+000	9	...........
	46	0.626667	4.61906E-001	-8.87082E-005	0.00000E+000	-4.09748E-005	-5.39641E-002	4.61970E-001	3.57260E+000	9	...........
	47	0.64	4.56535E-001	-8.89072E-005	0.00000E+000	-4.05893E-005	-5.39641E-002	4.56596E-001	3.57260E+000	9	...........
	48	0.653333	4.51196E-001	-8.90249E-005	0.00000E+000	-4.01677E-005	-5.39641E-002	4.51256E-001	3.57260E+000	9	...........
	49	0.666667	4.45883E-001	-8.90510E-005	0.00000E+000	-3.97063E-005	-5.39641E-002	4.45949E-001	3.57260E+000	9	...........
	50	0.68	4.40593E-001	-8.86676E-005	0.00000E+000	-3.90663E-005	-5.39641E-002	4.40654E-001	3.57260E+000	9	...........
	51	0.693333	4.35325E-001	-8.86050E-005	0.00000E+000	-3.85720E-005	-5.39641E-002	4.35384E-001	3.57260E+000	9	...........
	52	0.706667	4.30081E-001	-8.89562E-005	0.00000E+000	-3.82584E-005	-5.39641E-002	4.30142E-001	3.57260E+000	9	...........
	53	0.72	4.24867E-001	-8.87947E-005	0.00000E+000	-3.77259E-005	-5.39641E-002	4.24925E-001	3.57260E+000	9	...........
	54	0.733333	4.19671E-001	-8.85905E-005	0.00000E+000	-3.71789E-005	-5.39641E-002	4.19729E-001	3.57260E+000	9	...........
	55	0.746667	4.14512E-001	-8.87332E-005	0.00000E+000	-3.67810E-005	-5.39641E-002	4.14562E-001	3.57260E+000	9	...........
	56	0.76	4.09356E-001	-8.87207E-005	0.00000E+000	-3.63183E-005	-5.39641E-002	4.09407E-001	3.57260E+000	9	...........
	57	0.773333	4.04212E-001	-8.88166E-005	0.00000E+000	-3.59007E-005	-5.39641E-002	4.04261E-001	3.57260E+000	9	...........
	58	0.786667	3.99092E-001	-8.85217E-005	0.00000E+000	-3.53283E-005	-5.39641E-002	3.99139E-001	3.57260E+000	9	...........
	59	0.8	3.93996E-001	-8.86759E-005	0.00000E+000	-3.49380E-005	-5.39641E-002	3.94044E-001	3.57260E+000	9	...........
	60	0.813333	3.88916E-001	-8.85894E-005	0.00000E+000	-3.44538E-005	-5.39641E-002	3.88964E-001	3.57260E+000	9	...........
	61	0.826667	3.83850E-001	-8.88978E-005	0.00000E+000	-3.41235E-005	-5.39641E-002	3.83892E-001	3.57260E+000	9	...........
	62	0.84	3.78802E-001	-8.87738E-005	0.00000E+000	-3.36277E-005	-5.39641E-002	3.78849E-001	3.57260E+000	9	...........
	63	0.853333	3.73761E-001	-8.86967E-005	0.00000E+000	-3.31514E-005	-5.39641E-002	3.73814E-001	3.57365E+000	9	...........
	64	0.866667	3.68739E-001	-8.89843E-005	0.00000E+000	-3.28120E-005	-5.39641E-002	3.68783E-001	3.57400E+000	9	...........
	65	0.88	3.63742E-001	-8.90385E-005	0.00000E+000	-3.23871E-005	-5.39641E-002	3.63782E-001	3.57400E+000	9	...........
	66	0.893333	3.58751E-001	-8.88614E-005	0.00000E+000	-3.18791E-005	-5.39641E-002	3.58803E-001	3.57400E+000	9	...........
	67	0.906667	3.53782E-001	-8.89176E-005	0.00000E+000	-3.14575E-005	-5.39641E-002	3.53827E-001	3.57400E+000	9	...........
	68	0.92	3.48827E-001	-8.87447E-005	0.00000E+000	-3.09566E-005	-5.39641E-002	3.48873E-001	3.57400E+000	9	...........
	69	0.933333	3.43881E-001	-8.87040E-005	0.00000E+000	-3.05036E-005	-5.39641E-002	3.43916E-001	3.57400E+000	9	...........
	70	0.946667	3.38921E-001	-8.89562E-005	0.00000E+000	-3.01491E-005	-5.39641E-002	3.38956E-001	3.57400E+000	9	...........
	71	0.96	3.33989E-001	-8.88228E-005	0.00000E+000	-2.96658E-005	-5.39641E-002	3.34028E-001	3.57400E+000	9	...........
	72	0.97333	3.29074E-001	-8.90729E-005	0.00000E+000	-2.93116E-005	-5.39641E-002	3.29117E-001	3.57400E+000	9	...........
	73	0.98667	3.24187E-001	-8.88103E-005	0.00000E+000	-2.87911E-005	-5.39641E-002	3.24230E-001	3.57400E+000	9	...........
	74	1	3.19317E-001	-8.89072E-005	0.00000E+000	-2.83895E-005	-5.39641E-002	3.19356E-001	3.57400E+000	9	...........
	75	1.01333	3.14467E-001	-8.87749E-005	0.00000E+000	-2.79167E-005	-5.39641E-002	3.14511E-001	3.57400E+000	9	...........
	76	1.02667	3.09639E-001	-8.87968E-005	0.00000E+000	-2.74949E-005	-5.39641E-002	3.09685E-001	3.57400E+000	9	...........
	77	1.04	3.04830E-001	-8.85769E-005	0.00000E+000	-2.70009E-005	-5.39641E-002	3.04866E-001	3.57400E+000	9	...........
	78	1.05333	3.00015E-001	-8.85498E-005	0.00000E+000	-2.65663E-005	-5.39641E-002	3.00048E-001	3.57400E+000	9	...........
	79	1.06667	2.95220E-001	-8.89072E-005	0.00000E+000	-2.62471E-005	-5.39641E-002	2.95252E-001	3.57400E+000	9	...........
	80	1.08	2.90434E-001	-8.88884E-005	0.00000E+000	-2.58162E-005	-5.39641E-002	2.90467E-001	3.57400E+000	9	...........
	81	1.09333	2.85660E-001	-8.88332E-005	0.00000E+000	-2.53761E-005	-5.39641E-002	2.85701E-001	3.57400E+000	9	...........
	82	1.10667	2.80913E-001	-8.89478E-005	0.00000E+000	-2.49866E-005	-5.39641E-002	2.80945E-001	3.57400E+000	9	...........
	83	1.12	2.76168E-001	-8.88343E-005	0.00000E+000	-2.45332E-005	-5.39641E-002	2.76206E-001	3.57400E+000	9	...........
	84	1.13333	2.71448E-001	-8.87436E-005	0.00000E+000	-2.40892E-005	-5.39641E-002	2.71482E-001	3.57400E+000	9	...........
	85	1.14667	2.66728E-001	-8.85373E-005	0.00000E+000	-2.36154E-005	-5.39641E-002	2.66763E-001	3.57400E+000	9	...........
	86	1.16	2.62023E-001	-8.85509E-005	0.00000E+000	-2.32024E-005	-5.39641E-002	2.62060E-001	3.57400E+000	9	...........
	87	1.17333	2.57344E-001	-8.88645E-005	0.00000E+000	-2.28688E-005	-5.39641E-002	2.57380E-001	3.57400E+000	9	...........
	88	1.18667	2.52697E-001	-8.85050E-005	0.00000E+000	-2.23650E-005	-5.39641E-002	2.52736E-001	3.57400E+000	9	...........
	89	1.2	2.48067E-001	-8.87853E-005	0.00000E+000	-2.20247E-005	-5.39641E-002	2.48096E-001	3.57400E+000	9	...........
	90	1.21333	2.43457E-001	-8.88968E-005	0.00000E+000	-2.16426E-005	-5.39641E-002	2.43478E-001	3.57400E+000	9	...........
	91	1.22667	2.38859E-001	-8.88530E-005	0.00000E+000	-2.12233E-005	-5.39641E-002	2.38886E-001	3.57400E+000	9	...........
	92	1.24	2.34282E-001	-8.86176E-005	0.00000E+000	-2.07615E-005	-5.39641E-002	2.34305E-001	3.57400E+000	9	...........
	93	1.25333	2.29722E-001	-8.88113E-005	0.00000E+000	-2.04020E-005	-5.39641E-002	2.29745E-001	3.57400E+000	9	...........
	94	1.26667	2.25181E-001	-8.88603E-005	0.00000E+000	-2.00096E-005	-5.39641E-002	2.25208E-001	3.57400E+000	9	...........
	95	1.28	2.20646E-001	-8.86822E-005	0.00000E+000	-1.95673E-005	-5.39641E-002	2.20674E-001	3.57400E+000	9	...........
	96	1.29333	2.16130E-001	-8.87947E-005	0.00000E+000	-1.91912E-005	-5.39641E-002	2.16157E-001	3.57400E+000	9	...........
	97	1.30667	2.11653E-001	-8.87686E-005	0.00000E+000	-1.87881E-005	-5.39641E-002	2.11677E-001	3.57400E+000	9	...........
	98	1.32	2.07190E-001	-8.89114E-005	0.00000E+000	-1.84215E-005	-5.39641E-002	2.07211E-001	3.57400E+000	9	...........
	99	1.33333	2.02735E-001	-8.87832E-005	0.00000E+000	-1.79995E-005	-5.39641E-002	2.02758E-001	3.57400E+000	9	...........
	100	1.34667	1.98308E-001	-8.86957E-005	0.00000E+000	-1.75890E-005	-5.39641E-002	1.98331E-001	3.57400E+000	9	...........
	101	1.36	1.93898E-001	-8.87280E-005	0.00000E+000	-1.72041E-005	-5.39641E-002	1.93914E-001	3.57400E+000	9	...........
	102	1.37333	1.89505E-001	-8.87926E-005	0.00000E+000	-1.68266E-005	-5.39641E-002	1.89525E-001	3.57400E+000	9	...........
	103	1.38667	1.85134E-001	-8.86165E-005	0.00000E+000	-1.64060E-005	-5.39641E-002	1.85157E-001	3.57400E+000	9	...........
	104	1.4	1.80796E-001	-8.87467E-005	0.00000E+000	-1.60451E-005	-5.39641E-002	1.80823E-001	3.57400E+000	9	...........
	105	1.41333	1.76482E-001	-8.89437E-005	0.00000E+000	-1.56969E-005	-5.39641E-002	1.76500E-001	3.57400E+000	9	...........
	106	1.42667	1.72183E-001	-8.87655E-005	0.00000E+000	-1.52839E-005	-5.39641E-002	1.72204E-001	3.57400E+000	9	...........
	107	1.44	1.67908E-001	-8.87363E-005	0.00000E+000	-1.48995E-005	-5.39641E-002	1.67927E-001	3.57400E+000	9	...........
	108	1.45333	1.63646E-001	-8.86957E-005	0.00000E+000	-1.45147E-005	-5.39641E-002	1.63662E-001	3.57400E+000	9	...........
	109	1.46667	1.59400E-001	-8.90093E-005	0.00000E+000	-1.41880E-005	-5.39641E-002	1.59413E-001	3.57400E+000	9	...........
	110	1.48	1.55164E-001	-8.89062E-005	0.00000E+000	-1.37950E-005	-5.39641E-002	1.55178E-001	3.57400E+000	9	...........
	111	1.49333	1.50952E-001	-8.87061E-005	0.00000E+000	-1.33904E-005	-5.39641E-002	1.50964E-001	3.57400E+000	9	...........
	112	1.50667	1.46759E-001	-8.88968E-005	0.00000E+000	-1.30464E-005	-5.39641E-002	1.46766E-001	3.57400E+000	9	...........
	113	1.52	1.42586E-001	-8.87770E-005	0.00000E+000	-1.26583E-005	-5.39641E-002	1.42603E-001	3.57400E+000	9	...........
	114	1.53333	1.38429E-001	-8.88259E-005	0.00000E+000	-1.22961E-005	-5.39641E-002	1.38446E-001	3.57400E+000	9	...........
	115	1.54667	1.34298E-001	-8.89374E-005	0.00000E+000	-1.19441E-005	-5.39641E-002	1.34311E-001	3.57400E+000	9	...........
	116	1.56	1.30178E-001	-8.89718E-005	0.00000E+000	-1.15822E-005	-5.39641E-002	1.30185E-001	3.57400E+000	9	...........
	117	1.57333	1.26067E-001	-8.90083E-005	0.00000E+000	-1.12210E-005	-5.39641E-002	1.26078E-001	3.57400E+000	9	...........
	118	1.58667	1.21993E-001	-8.87103E-005	0.00000E+000	-1.08221E-005	-5.39641E-002	1.22008E-001	3.57400E+000	9	...........
	119	1.6	1.17943E-001	-8.87030E-005	0.00000E+000	-1.04619E-005	-5.39641E-002	1.17951E-001	3.57400E+000	9	...........
	120	1.61333	1.13902E-001	-8.89541E-005	0.00000E+000	-1.01321E-005	-5.39641E-002	1.13911E-001	3.57400E+000	9	...........
	121	1.62667	1.09883E-001	-8.88874E-005	0.00000E+000	-9.76722E-006	-5.39641E-002	1.09889E-001	3.57400E+000	9	...........
	122	1.64	1.05885E-001	-8.87822E-005	0.00000E+000	-9.40073E-006	-5.39641E-002	1.05896E-001	3.57400E+000	9	...........
	123	1.65333	1.01903E-001	-8.88686E-005	0.00000E+000	-9.05595E-006	-5.39641E-002	1.01913E-001	3.57400E+000	9	...........
	124	1.66667	9.79346E-002	-8.88916E-005	0.00000E+000	-8.70556E-006	-5.39641E-002	9.79429E-002	3.57400E+000	9	...........
	125	1.68	9.39949E-002	-8.87426E-005	0.00000E+000	-8.34135E-006	-5.39641E-002	9.40037E-002	3.57400E+000	9	...........
	126	1.69333	9.00609E-002	-8.86248E-005	0.00000E+000	-7.98163E-006	-5.39641E-002	9.00692E-002	3.57400E+000	9	...........
	127	1.70667	8.61501E-002	-8.88186E-005	0.00000E+000	-7.65174E-006	-5.39641E-002	8.61581E-002	3.57400E+000	9	...........
	128	1.72	8.22635E-002	-8.87832E-005	0.00000E+000	-7.30362E-006	-5.39641E-002	8.22660E-002	3.57400E+000	9	...........
	129	1.73333	7.83769E-002	-8.86853E-005	0.00000E+000	-6.95088E-006	-5.39641E-002	7.83813E-002	3.57400E+000	9	...........
	130	1.74667	7.45069E-002	-8.88520E-005	0.00000E+000	-6.62009E-006	-5.39641E-002	7.45103E-002	3.57400E+000	9	...........
	131	1.76	7.06594E-002	-8.88145E-005	0.00000E+000	-6.27558E-006	-5.39641E-002	7.06552E-002	3.57400E+000	9	...........
	132	1.77333	6.68405E-002	-8.89124E-005	0.00000E+000	-5.94295E-006	-5.39641E-002	6.68396E-002	3.57400E+000	9	...........
	133	1.78667	6.30317E-002	-8.88270E-005	0.00000E+000	-5.59891E-006	-5.39641E-002	6.30311E-002	3.57400E+000	9	...........
	134	1.8	5.92266E-002	-8.87936E-005	0.00000E+000	-5.25895E-006	-5.39641E-002	5.92268E-002	3.57400E+000	9	...........
	135	1.81333	5.54433E-002	-8.87457E-005	0.00000E+000	-4.92036E-006	-5.39641E-002	5.54403E-002	3.57400E+000	9	...........
	136	1.82667	5.16795E-002	-8.89114E-005	0.00000E+000	-4.59490E-006	-5.39641E-002	5.16779E-002	3.57400E+000	9	...........
	137	1.84	4.79402E-002	-8.88478E-005	0.00000E+000	-4.25938E-006	-5.39641E-002	4.79471E-002	3.57400E+000	9	...........
	138	1.85333	4.42214E-002	-8.89541E-005	0.00000E+000	-3.93367E-006	-5.39641E-002	4.42226E-002	3.57325E+000	9	...........
	139	1.86667	4.04994E-002	-8.87405E-005	0.00000E+000	-3.59394E-006	-5.39641E-002	4.05068E-002	3.57300E+000	9	...........
	140	1.88	3.67954E-002	-8.85915E-005	0.00000E+000	-3.25976E-006	-5.39641E-002	3.67980E-002	3.57300E+000	9	...........
	141	1.89333	3.31086E-002	-8.87634E-005	0.00000E+000	-2.93883E-006	-5.39641E-002	3.31154E-002	3.57300E+000	9	...........
	142	1.90667	2.94354E-002	-8.87061E-005	0.00000E+000	-2.61110E-006	-5.39641E-002	2.94403E-002	3.57300E+000	9	...........
	143	1.92	2.57826E-002	-8.89749E-005	0.00000E+000	-2.29401E-006	-5.39641E-002	2.57800E-002	3.57300E+000	9	...........
	144	1.93333	2.21364E-002	-8.88124E-005	0.00000E+000	-1.96599E-006	-5.39641E-002	2.21287E-002	3.57300E+000	9	...........
	145	1.94667	1.85123E-002	-8.85196E-005	0.00000E+000	-1.63870E-006	-5.39641E-002	1.85107E-002	3.57300E+000	9	...........
	146	1.96	1.49024E-002	-8.88916E-005	0.00000E+000	-1.32470E-006	-5.39641E-002	1.48955E-002	3.57300E+000	9	...........
	147	1.97333	1.13012E-002	-8.88113E-005	0.00000E+000	-1.00367E-006	-5.39641E-002	1.12923E-002	3.57300E+000	9	...........
	148	1.98667	7.72895E-003	-8.88447E-005	0.00000E+000	-6.86676E-007	-5.39641E-002	7.71569E-003	3.57300E+000	9	...........
	149	2	4.16659E-003	-8.89395E-005	0.00000E+000	-3.70575E-007	-5.39641E-002	4.15591E-003	3.57300E+000	9	...........
	150	2.01	1.07608E-003	-8.90847E-005	0.00000E+000	-9.58627E-008	-5.39641E-002	1.06567E-003	3.57300E+000	9	...........
STARTTIMEOFFSET	QUANT	2475.253	Start Time Offset (s)
