EXPLAIN
TAG	PWR800_DISCHARGE
TITLE	LABEL	PWR Cyclic Charge Discharge (Cell) - Discharge Step	Test &Identifier
DATE	LABEL	10-7-2017	Date
TIME	LABEL	15:09:46	Time
NOTES	NOTES	3	&Notes...
	supercap test cell
	0.9mg
	6M KOH
PSTAT	PSTAT	IFC5000-01520	Potentiostat
CAPACITY	QUANT	1.00000E-003	Capacity (A-hr)
CELLTYPE	SELECTOR	1	&Cell Type
WORKINGCONNECTION	SELECTOR	0	&Working Lead
MAXDISCHARGETIME	VARIABLEANDUNITS	1.00000E+002	s	1.00000E+002	second(s)	Max &Discharge Time
DISCHARGEMODE	MULTIPARAM	0	9.00000E-005	&Discharge Mode	Constant Current	Amp(s)
SAMPLETIME	QUANT	1.00000E-002	Sa&mple Period (s)
DISCHARGESTOPAT1	MULTIPARAM	3	0.00000E+000	Discharge Stop At &1	Voltage < Limit	V
DISCHARGESTOPAT2	MULTIPARAM	0	0.00000E+000	Discharge Stop At &2	None	N/A
AESBHCSELECTOR	TOGGLE	F	Save Both Half Cells
IRCOMP	TOGGLE	F	IR &Measure
EOC	QUANT	0	Open Circuit (V)
SEQUENCER	TOGGLE	TRUE	Run as Sequence
PSTATMODEL	IQUANT	53	Pstat Model
PSTATSECTION	LABEL	IFC5000-01520	Pstat Section
PSTATSERIALNO	LABEL	01520	Pstat Serial Number
CTRLMODE	IQUANT	0	Control Mode
ELECTROMETER	IQUANT	1	RE=0 or CS=1
IESTAB	IQUANT	0	I/E Stability
CASPEED	IQUANT	4	Control Amp Speed
CONVENTION	IQUANT	1	Current Convention
ICHRANGE	IQUANT	2	Ich Range
ICHRANGEMODE	TOGGLE	T	Ich Auto Range
ICHOFFSETENABLE	TOGGLE	F	Ich Offset Enable
ICHOFFSET	QUANT	0	Ich Offset (V)
ICHFILTER	IQUANT	1	Ich Filter
VCHRANGE	IQUANT	2	Vch Range
VCHRANGEMODE	TOGGLE	T	Vch Auto Range
VCHOFFSETENABLE	TOGGLE	F	Vch Offset Enable
VCHOFFSET	QUANT	0	Vch Offset (V)
VCHFILTER	IQUANT	1	Vch Filter
IERANGELOWERLIMIT	IQUANT	9	I/E Range Lower Limit
IERANGEMODE	TOGGLE	F	I/E AutoRange
IERANGE	IQUANT	9	I/E Range
ACHSELECT	IQUANT	1	Ach Select
ACHRANGE	IQUANT	2	Ach Range
ACHOFFSETENABLE	TOGGLE	F	Ach Offset Enable
ACHOFFSET	QUANT	0	Ach Offset (V)
ACHFILTER	IQUANT	1	Ach Filter
CABLEID	IQUANT	14	Cable ID
DCCALDATE	LABEL	5-7-2017	DC Calibration Date
ACCALDATE	LABEL	12/3/2015	AC Calibration Date
FRAMEWORKVERSION	QUANT	7.01	Framework Version
INSTRUMENTVERSION	LABEL	4.00	Instrument Version
CURVE	TABLE	164
	Pt	T	Vf	Im	Vu	Pwr	Sig	Ach	Temp	IERange	Over
	#	s	V	A	V	W	V	V	deg C	#	bits
	0	0.013333	8.33512E-001	-8.86332E-005	0.00000E+000	-7.38768E-005	-5.39641E-002	8.33661E-001	3.57160E+000	9	...........
	1	0.026667	8.21701E-001	-8.88499E-005	0.00000E+000	-7.30081E-005	-5.39641E-002	8.21852E-001	3.57160E+000	9	...........
	2	0.04	8.10557E-001	-8.84967E-005	0.00000E+000	-7.17316E-005	-5.39641E-002	8.10697E-001	3.57160E+000	9	...........
	3	0.053333	7.99980E-001	-8.85655E-005	0.00000E+000	-7.08506E-005	-5.39641E-002	8.00090E-001	3.57160E+000	9	...........
	4	0.066667	7.89810E-001	-8.85915E-005	0.00000E+000	-6.99704E-005	-5.39641E-002	7.89910E-001	3.57160E+000	9	...........
	5	0.08	7.80002E-001	-8.85873E-005	0.00000E+000	-6.90983E-005	-5.39641E-002	7.80136E-001	3.57160E+000	9	...........
	6	0.093333	7.70531E-001	-8.85488E-005	0.00000E+000	-6.82296E-005	-5.39641E-002	7.70669E-001	3.57160E+000	9	...........
	7	0.106667	7.61357E-001	-8.84811E-005	0.00000E+000	-6.73656E-005	-5.39641E-002	7.61461E-001	3.57160E+000	9	...........
	8	0.12	7.52455E-001	-8.88124E-005	0.00000E+000	-6.68273E-005	-5.39641E-002	7.52567E-001	3.57160E+000	9	...........
	9	0.133333	7.43763E-001	-8.86592E-005	0.00000E+000	-6.59414E-005	-5.39641E-002	7.43873E-001	3.57160E+000	9	...........
	10	0.146667	7.35279E-001	-8.86801E-005	0.00000E+000	-6.52046E-005	-5.39641E-002	7.35365E-001	3.57160E+000	9	...........
	11	0.16	7.27054E-001	-8.88228E-005	0.00000E+000	-6.45790E-005	-5.39641E-002	7.27109E-001	3.57160E+000	9	...........
	12	0.173333	7.18976E-001	-8.87665E-005	0.00000E+000	-6.38210E-005	-5.39641E-002	7.19053E-001	3.57160E+000	9	...........
	13	0.186667	7.11046E-001	-8.88311E-005	0.00000E+000	-6.31630E-005	-5.39641E-002	7.11136E-001	3.57160E+000	9	...........
	14	0.2	7.03329E-001	-8.86426E-005	0.00000E+000	-6.23449E-005	-5.39641E-002	7.03410E-001	3.57160E+000	9	...........
	15	0.213333	6.95732E-001	-8.84300E-005	0.00000E+000	-6.15236E-005	-5.39641E-002	6.95820E-001	3.57160E+000	9	...........
	16	0.226667	6.88282E-001	-8.85780E-005	0.00000E+000	-6.09666E-005	-5.39641E-002	6.88369E-001	3.57160E+000	9	...........
	17	0.24	6.80962E-001	-8.87780E-005	0.00000E+000	-6.04544E-005	-5.39641E-002	6.81060E-001	3.57160E+000	9	...........
	18	0.253333	6.73769E-001	-8.87280E-005	0.00000E+000	-5.97822E-005	-5.39641E-002	6.73847E-001	3.57160E+000	9	...........
	19	0.266667	6.66684E-001	-8.86217E-005	0.00000E+000	-5.90827E-005	-5.39641E-002	6.66798E-001	3.57160E+000	9	...........
	20	0.28	6.59679E-001	-8.86321E-005	0.00000E+000	-5.84688E-005	-5.39641E-002	6.59784E-001	3.57160E+000	9	...........
	21	0.293333	6.52820E-001	-8.85498E-005	0.00000E+000	-5.78071E-005	-5.39641E-002	6.52920E-001	3.57160E+000	9	...........
	22	0.306667	6.46069E-001	-8.85269E-005	0.00000E+000	-5.71945E-005	-5.39641E-002	6.46168E-001	3.57160E+000	9	...........
	23	0.32	6.39379E-001	-8.85457E-005	0.00000E+000	-5.66142E-005	-5.39641E-002	6.39501E-001	3.57160E+000	9	...........
	24	0.333333	6.32787E-001	-8.85050E-005	0.00000E+000	-5.60048E-005	-5.39641E-002	6.32878E-001	3.57160E+000	9	...........
	25	0.346667	6.26302E-001	-8.87092E-005	0.00000E+000	-5.55587E-005	-5.39641E-002	6.26382E-001	3.57160E+000	9	...........
	26	0.36	6.19888E-001	-8.84842E-005	0.00000E+000	-5.48503E-005	-5.39641E-002	6.19963E-001	3.57160E+000	9	...........
	27	0.373333	6.13494E-001	-8.86050E-005	0.00000E+000	-5.43587E-005	-5.39641E-002	6.13602E-001	3.57160E+000	9	...........
	28	0.386667	6.07191E-001	-8.86717E-005	0.00000E+000	-5.38407E-005	-5.39641E-002	6.07292E-001	3.57160E+000	9	...........
	29	0.4	6.00991E-001	-8.87790E-005	0.00000E+000	-5.33554E-005	-5.39641E-002	6.01082E-001	3.57160E+000	9	...........
	30	0.413333	5.94816E-001	-8.87655E-005	0.00000E+000	-5.27992E-005	-5.39641E-002	5.94902E-001	3.57160E+000	9	...........
	31	0.426667	5.88729E-001	-8.86801E-005	0.00000E+000	-5.22085E-005	-5.39641E-002	5.88822E-001	3.57160E+000	9	...........
	32	0.44	5.82668E-001	-8.87238E-005	0.00000E+000	-5.16965E-005	-5.39641E-002	5.82752E-001	3.57160E+000	9	...........
	33	0.453333	5.76702E-001	-8.86613E-005	0.00000E+000	-5.11312E-005	-5.39641E-002	5.76783E-001	3.57160E+000	9	...........
	34	0.466667	5.70790E-001	-8.87790E-005	0.00000E+000	-5.06742E-005	-5.39641E-002	5.70853E-001	3.57160E+000	9	...........
	35	0.48	5.64883E-001	-8.87467E-005	0.00000E+000	-5.01315E-005	-5.39641E-002	5.64971E-001	3.57160E+000	9	...........
	36	0.493333	5.59002E-001	-8.87290E-005	0.00000E+000	-4.95997E-005	-5.39641E-002	5.59106E-001	3.57160E+000	9	...........
	37	0.506667	5.53205E-001	-8.86092E-005	0.00000E+000	-4.90190E-005	-5.39641E-002	5.53330E-001	3.57160E+000	9	...........
	38	0.52	5.47451E-001	-8.83665E-005	0.00000E+000	-4.83763E-005	-5.39641E-002	5.47549E-001	3.57160E+000	9	...........
	39	0.533333	5.41757E-001	-8.87311E-005	0.00000E+000	-4.80707E-005	-5.39641E-002	5.41849E-001	3.57160E+000	9	...........
	40	0.546667	5.36067E-001	-8.86311E-005	0.00000E+000	-4.75122E-005	-5.39641E-002	5.36174E-001	3.57160E+000	9	...........
	41	0.56	5.30405E-001	-8.89134E-005	0.00000E+000	-4.71601E-005	-5.39641E-002	5.30524E-001	3.57160E+000	9	...........
	42	0.573333	5.24785E-001	-8.86759E-005	0.00000E+000	-4.65358E-005	-5.39641E-002	5.24900E-001	3.57160E+000	9	...........
	43	0.586667	5.19203E-001	-8.85509E-005	0.00000E+000	-4.59759E-005	-5.39641E-002	5.19296E-001	3.57160E+000	9	...........
	44	0.6	5.13660E-001	-8.87697E-005	0.00000E+000	-4.55974E-005	-5.39641E-002	5.13740E-001	3.57160E+000	9	...........
	45	0.613333	5.08065E-001	-8.89134E-005	0.00000E+000	-4.51739E-005	-5.39641E-002	5.08179E-001	3.57160E+000	9	...........
	46	0.626667	5.02593E-001	-8.84217E-005	0.00000E+000	-4.44402E-005	-5.39641E-002	5.02695E-001	3.57160E+000	9	...........
	47	0.64	4.97126E-001	-8.87905E-005	0.00000E+000	-4.41401E-005	-5.39641E-002	4.97195E-001	3.57160E+000	9	...........
	48	0.653333	4.91692E-001	-8.86884E-005	0.00000E+000	-4.36074E-005	-5.39641E-002	4.91759E-001	3.57160E+000	9	...........
	49	0.666667	4.86274E-001	-8.85634E-005	0.00000E+000	-4.30660E-005	-5.39641E-002	4.86339E-001	3.57160E+000	9	...........
	50	0.68	4.80910E-001	-8.87082E-005	0.00000E+000	-4.26606E-005	-5.39641E-002	4.80962E-001	3.57160E+000	9	...........
	51	0.693333	4.75534E-001	-8.87915E-005	0.00000E+000	-4.22234E-005	-5.39641E-002	4.75585E-001	3.57160E+000	9	...........
	52	0.706667	4.70175E-001	-8.85040E-005	0.00000E+000	-4.16123E-005	-5.39641E-002	4.70226E-001	3.57160E+000	9	...........
	53	0.72	4.64849E-001	-8.88759E-005	0.00000E+000	-4.13139E-005	-5.39641E-002	4.64896E-001	3.57160E+000	9	...........
	54	0.733333	4.59532E-001	-8.84477E-005	0.00000E+000	-4.06446E-005	-5.39641E-002	4.59580E-001	3.57160E+000	9	...........
	55	0.746667	4.54241E-001	-8.86009E-005	0.00000E+000	-4.02461E-005	-5.39641E-002	4.54284E-001	3.57160E+000	9	...........
	56	0.76	4.48972E-001	-8.85727E-005	0.00000E+000	-3.97667E-005	-5.39641E-002	4.49020E-001	3.57160E+000	9	...........
	57	0.773333	4.43717E-001	-8.86624E-005	0.00000E+000	-3.93410E-005	-5.39641E-002	4.43765E-001	3.57160E+000	9	...........
	58	0.786667	4.38478E-001	-8.88655E-005	0.00000E+000	-3.89656E-005	-5.39641E-002	4.38529E-001	3.57160E+000	9	...........
	59	0.8	4.33263E-001	-8.83039E-005	0.00000E+000	-3.82588E-005	-5.39641E-002	4.33306E-001	3.57160E+000	9	...........
	60	0.813333	4.28076E-001	-8.85644E-005	0.00000E+000	-3.79123E-005	-5.39641E-002	4.28125E-001	3.57160E+000	9	...........
	61	0.826667	4.22923E-001	-8.87051E-005	0.00000E+000	-3.75154E-005	-5.39641E-002	4.22963E-001	3.57160E+000	9	...........
	62	0.84	4.17783E-001	-8.88041E-005	0.00000E+000	-3.71008E-005	-5.39641E-002	4.17829E-001	3.57160E+000	9	...........
	63	0.853333	4.12672E-001	-8.86967E-005	0.00000E+000	-3.66027E-005	-5.39641E-002	4.12715E-001	3.57160E+000	9	...........
	64	0.866667	4.07592E-001	-8.84957E-005	0.00000E+000	-3.60701E-005	-5.39641E-002	4.07639E-001	3.57160E+000	9	...........
	65	0.88	4.02537E-001	-8.87728E-005	0.00000E+000	-3.57344E-005	-5.39641E-002	4.02579E-001	3.57160E+000	9	...........
	66	0.893333	3.97490E-001	-8.86655E-005	0.00000E+000	-3.52436E-005	-5.39641E-002	3.97530E-001	3.57160E+000	9	...........
	67	0.906667	3.92438E-001	-8.86936E-005	0.00000E+000	-3.48067E-005	-5.39641E-002	3.92477E-001	3.57160E+000	9	...........
	68	0.92	3.87398E-001	-8.85696E-005	0.00000E+000	-3.43117E-005	-5.39641E-002	3.87438E-001	3.57160E+000	9	...........
	69	0.933333	3.82379E-001	-8.84300E-005	0.00000E+000	-3.38138E-005	-5.39641E-002	3.82417E-001	3.57160E+000	9	...........
	70	0.946667	3.77399E-001	-8.88697E-005	0.00000E+000	-3.35394E-005	-5.39641E-002	3.77433E-001	3.57160E+000	9	...........
	71	0.96	3.72428E-001	-8.86926E-005	0.00000E+000	-3.30316E-005	-5.39641E-002	3.72461E-001	3.57160E+000	9	...........
	72	0.97333	3.67501E-001	-8.86842E-005	0.00000E+000	-3.25916E-005	-5.39641E-002	3.67539E-001	3.57160E+000	9	...........
	73	0.98667	3.62609E-001	-8.87561E-005	0.00000E+000	-3.21838E-005	-5.39641E-002	3.62647E-001	3.57160E+000	9	...........
	74	1	3.57737E-001	-8.86384E-005	0.00000E+000	-3.17092E-005	-5.39641E-002	3.57773E-001	3.57160E+000	9	...........
	75	1.01333	3.52890E-001	-8.85613E-005	0.00000E+000	-3.12524E-005	-5.39641E-002	3.52927E-001	3.57160E+000	9	...........
	76	1.02667	3.48071E-001	-8.87603E-005	0.00000E+000	-3.08948E-005	-5.39641E-002	3.48099E-001	3.57160E+000	9	...........
	77	1.04	3.43261E-001	-8.85352E-005	0.00000E+000	-3.03907E-005	-5.39641E-002	3.43291E-001	3.57160E+000	9	...........
	78	1.05333	3.38465E-001	-8.88936E-005	0.00000E+000	-3.00874E-005	-5.39641E-002	3.38497E-001	3.57160E+000	9	...........
	79	1.06667	3.33680E-001	-8.87405E-005	0.00000E+000	-2.96109E-005	-5.39641E-002	3.33707E-001	3.57160E+000	9	...........
	80	1.08	3.28921E-001	-8.88332E-005	0.00000E+000	-2.92191E-005	-5.39641E-002	3.28961E-001	3.57160E+000	9	...........
	81	1.09333	3.24215E-001	-8.86613E-005	0.00000E+000	-2.87454E-005	-5.39641E-002	3.24243E-001	3.57160E+000	9	...........
	82	1.10667	3.19509E-001	-8.87353E-005	0.00000E+000	-2.83517E-005	-5.39641E-002	3.19536E-001	3.57160E+000	9	...........
	83	1.12	3.14830E-001	-8.86332E-005	0.00000E+000	-2.79044E-005	-5.39641E-002	3.14863E-001	3.57160E+000	9	...........
	84	1.13333	3.10183E-001	-8.85019E-005	0.00000E+000	-2.74518E-005	-5.39641E-002	3.10210E-001	3.57160E+000	9	...........
	85	1.14667	3.05555E-001	-8.85113E-005	0.00000E+000	-2.70451E-005	-5.39641E-002	3.05590E-001	3.57160E+000	9	...........
	86	1.16	3.00957E-001	-8.84654E-005	0.00000E+000	-2.66243E-005	-5.39641E-002	3.00987E-001	3.57160E+000	9	...........
	87	1.17333	2.96373E-001	-8.87811E-005	0.00000E+000	-2.63123E-005	-5.39641E-002	2.96403E-001	3.57160E+000	9	...........
	88	1.18667	2.91829E-001	-8.86103E-005	0.00000E+000	-2.58591E-005	-5.39641E-002	2.91850E-001	3.57160E+000	9	...........
	89	1.2	2.87293E-001	-8.85727E-005	0.00000E+000	-2.54463E-005	-5.39641E-002	2.87319E-001	3.57160E+000	9	...........
	90	1.21333	2.82774E-001	-8.87770E-005	0.00000E+000	-2.51038E-005	-5.39641E-002	2.82806E-001	3.57160E+000	9	...........
	91	1.22667	2.78275E-001	-8.85811E-005	0.00000E+000	-2.46499E-005	-5.39641E-002	2.78306E-001	3.57160E+000	9	...........
	92	1.24	2.73793E-001	-8.87572E-005	0.00000E+000	-2.43011E-005	-5.39641E-002	2.73821E-001	3.57160E+000	9	...........
	93	1.25333	2.69329E-001	-8.86759E-005	0.00000E+000	-2.38830E-005	-5.39641E-002	2.69359E-001	3.57160E+000	9	...........
	94	1.26667	2.64866E-001	-8.87770E-005	0.00000E+000	-2.35140E-005	-5.39641E-002	2.64902E-001	3.57160E+000	9	...........
	95	1.28	2.60451E-001	-8.84331E-005	0.00000E+000	-2.30325E-005	-5.39641E-002	2.60479E-001	3.57160E+000	9	...........
	96	1.29333	2.56035E-001	-8.85821E-005	0.00000E+000	-2.26801E-005	-5.39641E-002	2.56065E-001	3.57160E+000	9	...........
	97	1.30667	2.51654E-001	-8.86259E-005	0.00000E+000	-2.23030E-005	-5.39641E-002	2.51682E-001	3.57160E+000	9	...........
	98	1.32	2.47290E-001	-8.89676E-005	0.00000E+000	-2.20008E-005	-5.39641E-002	2.47314E-001	3.57160E+000	9	...........
	99	1.33333	2.42930E-001	-8.86103E-005	0.00000E+000	-2.15261E-005	-5.39641E-002	2.42950E-001	3.57160E+000	9	...........
	100	1.34667	2.38599E-001	-8.86363E-005	0.00000E+000	-2.11485E-005	-5.39641E-002	2.38617E-001	3.57160E+000	9	...........
	101	1.36	2.34292E-001	-8.88238E-005	0.00000E+000	-2.08107E-005	-5.39641E-002	2.34313E-001	3.57160E+000	9	...........
	102	1.37333	2.29999E-001	-8.85509E-005	0.00000E+000	-2.03666E-005	-5.39641E-002	2.30018E-001	3.57160E+000	9	...........
	103	1.38667	2.25732E-001	-8.86644E-005	0.00000E+000	-2.00144E-005	-5.39641E-002	2.25757E-001	3.57160E+000	9	...........
	104	1.4	2.21500E-001	-8.85415E-005	0.00000E+000	-1.96120E-005	-5.39641E-002	2.21522E-001	3.57160E+000	9	...........
	105	1.41333	2.17308E-001	-8.86082E-005	0.00000E+000	-1.92553E-005	-5.39641E-002	2.17326E-001	3.57160E+000	9	...........
	106	1.42667	2.13119E-001	-8.89791E-005	0.00000E+000	-1.89632E-005	-5.39641E-002	2.13139E-001	3.57160E+000	9	...........
	107	1.44	2.08946E-001	-8.86301E-005	0.00000E+000	-1.85189E-005	-5.39641E-002	2.08961E-001	3.57160E+000	9	...........
	108	1.45333	2.04783E-001	-8.85998E-005	0.00000E+000	-1.81437E-005	-5.39641E-002	2.04797E-001	3.57160E+000	9	...........
	109	1.46667	2.00643E-001	-8.86999E-005	0.00000E+000	-1.77970E-005	-5.39641E-002	2.00659E-001	3.57160E+000	9	...........
	110	1.48	1.96516E-001	-8.86123E-005	0.00000E+000	-1.74137E-005	-5.39641E-002	1.96529E-001	3.57160E+000	9	...........
	111	1.49333	1.92385E-001	-8.88249E-005	0.00000E+000	-1.70886E-005	-5.39641E-002	1.92397E-001	3.57160E+000	9	...........
	112	1.50667	1.88275E-001	-8.86196E-005	0.00000E+000	-1.66849E-005	-5.39641E-002	1.88291E-001	3.57160E+000	9	...........
	113	1.52	1.84202E-001	-8.86384E-005	0.00000E+000	-1.63274E-005	-5.39641E-002	1.84214E-001	3.57160E+000	9	...........
	114	1.53333	1.80130E-001	-8.88020E-005	0.00000E+000	-1.59959E-005	-5.39641E-002	1.80152E-001	3.57160E+000	9	...........
	115	1.54667	1.76076E-001	-8.87322E-005	0.00000E+000	-1.56236E-005	-5.39641E-002	1.76095E-001	3.57160E+000	9	...........
	116	1.56	1.72019E-001	-8.85905E-005	0.00000E+000	-1.52392E-005	-5.39641E-002	1.72035E-001	3.57160E+000	9	...........
	117	1.57333	1.67977E-001	-8.88811E-005	0.00000E+000	-1.49300E-005	-5.39641E-002	1.67997E-001	3.57160E+000	9	...........
	118	1.58667	1.63969E-001	-8.87634E-005	0.00000E+000	-1.45544E-005	-5.39641E-002	1.63983E-001	3.57160E+000	9	...........
	119	1.6	1.59990E-001	-8.85821E-005	0.00000E+000	-1.41723E-005	-5.39641E-002	1.60003E-001	3.57160E+000	9	...........
	120	1.61333	1.56038E-001	-8.85686E-005	0.00000E+000	-1.38201E-005	-5.39641E-002	1.56048E-001	3.57160E+000	9	...........
	121	1.62667	1.52103E-001	-8.87217E-005	0.00000E+000	-1.34948E-005	-5.39641E-002	1.52116E-001	3.57160E+000	9	...........
	122	1.64	1.48186E-001	-8.86301E-005	0.00000E+000	-1.31337E-005	-5.39641E-002	1.48193E-001	3.57160E+000	9	...........
	123	1.65333	1.44265E-001	-8.85394E-005	0.00000E+000	-1.27731E-005	-5.39641E-002	1.44272E-001	3.57160E+000	9	...........
	124	1.66667	1.40366E-001	-8.85436E-005	0.00000E+000	-1.24285E-005	-5.39641E-002	1.40379E-001	3.57160E+000	9	...........
	125	1.68	1.36483E-001	-8.87176E-005	0.00000E+000	-1.21085E-005	-5.39641E-002	1.36490E-001	3.57160E+000	9	...........
	126	1.69333	1.32604E-001	-8.88416E-005	0.00000E+000	-1.17807E-005	-5.39641E-002	1.32613E-001	3.57160E+000	9	...........
	127	1.70667	1.28745E-001	-8.88301E-005	0.00000E+000	-1.14364E-005	-5.39641E-002	1.28756E-001	3.57160E+000	9	...........
	128	1.72	1.24892E-001	-8.84415E-005	0.00000E+000	-1.10456E-005	-5.39641E-002	1.24901E-001	3.57160E+000	9	...........
	129	1.73333	1.21048E-001	-8.85936E-005	0.00000E+000	-1.07240E-005	-5.39641E-002	1.21054E-001	3.57160E+000	9	...........
	130	1.74667	1.17237E-001	-8.87290E-005	0.00000E+000	-1.04023E-005	-5.39641E-002	1.17248E-001	3.57160E+000	9	...........
	131	1.76	1.13437E-001	-8.87217E-005	0.00000E+000	-1.00643E-005	-5.39641E-002	1.13441E-001	3.57160E+000	9	...........
	132	1.77333	1.09659E-001	-8.85467E-005	0.00000E+000	-9.70994E-006	-5.39641E-002	1.09667E-001	3.57160E+000	9	...........
	133	1.78667	1.05912E-001	-8.86248E-005	0.00000E+000	-9.38642E-006	-5.39641E-002	1.05913E-001	3.57160E+000	9	...........
	134	1.8	1.02156E-001	-8.87217E-005	0.00000E+000	-9.06350E-006	-5.39641E-002	1.02162E-001	3.57160E+000	9	...........
	135	1.81333	9.84169E-002	-8.84696E-005	0.00000E+000	-8.70690E-006	-5.39641E-002	9.84167E-002	3.57160E+000	9	...........
	136	1.82667	9.46896E-002	-8.84123E-005	0.00000E+000	-8.37173E-006	-5.39641E-002	9.46909E-002	3.57160E+000	9	...........
	137	1.84	9.09778E-002	-8.86040E-005	0.00000E+000	-8.06099E-006	-5.39641E-002	9.09847E-002	3.57160E+000	9	...........
	138	1.85333	8.72980E-002	-8.86321E-005	0.00000E+000	-7.73741E-006	-5.39641E-002	8.72959E-002	3.57160E+000	9	...........
	139	1.86667	8.36158E-002	-8.90739E-005	0.00000E+000	-7.44799E-006	-5.39641E-002	8.36176E-002	3.57160E+000	9	...........
	140	1.88	7.99600E-002	-8.85800E-005	0.00000E+000	-7.08286E-006	-5.39641E-002	7.99597E-002	3.57160E+000	9	...........
	141	1.89333	7.63243E-002	-8.87957E-005	0.00000E+000	-6.77727E-006	-5.39641E-002	7.63240E-002	3.57160E+000	9	...........
	142	1.90667	7.26883E-002	-8.87884E-005	0.00000E+000	-6.45388E-006	-5.39641E-002	7.26831E-002	3.57160E+000	9	...........
	143	1.92	6.90645E-002	-8.87853E-005	0.00000E+000	-6.13191E-006	-5.39641E-002	6.90597E-002	3.57160E+000	9	...........
	144	1.93333	6.54622E-002	-8.88551E-005	0.00000E+000	-5.81665E-006	-5.39641E-002	6.54616E-002	3.57160E+000	9	...........
	145	1.94667	6.18810E-002	-8.87478E-005	0.00000E+000	-5.49180E-006	-5.39641E-002	6.18803E-002	3.57160E+000	9	...........
	146	1.96	5.83000E-002	-8.89041E-005	0.00000E+000	-5.18311E-006	-5.39641E-002	5.82951E-002	3.57160E+000	9	...........
	147	1.97333	5.47363E-002	-8.85196E-005	0.00000E+000	-4.84524E-006	-5.39641E-002	5.47316E-002	3.57160E+000	9	...........
	148	1.98667	5.11884E-002	-8.86488E-005	0.00000E+000	-4.53779E-006	-5.39641E-002	5.11826E-002	3.57160E+000	9	...........
	149	2	4.76597E-002	-8.86342E-005	0.00000E+000	-4.22428E-006	-5.39641E-002	4.76642E-002	3.57160E+000	9	...........
	150	2.01333	4.41527E-002	-8.87530E-005	0.00000E+000	-3.91868E-006	-5.39641E-002	4.41623E-002	3.57160E+000	9	...........
	151	2.02667	4.06467E-002	-8.86186E-005	0.00000E+000	-3.60205E-006	-5.39641E-002	4.06509E-002	3.57160E+000	9	...........
	152	2.04	3.71480E-002	-8.88239E-005	0.00000E+000	-3.29963E-006	-5.39641E-002	3.71526E-002	3.57160E+000	9	...........
	153	2.05333	3.36628E-002	-8.87217E-005	0.00000E+000	-2.98662E-006	-5.39641E-002	3.36629E-002	3.57160E+000	9	...........
	154	2.06667	3.01699E-002	-8.86905E-005	0.00000E+000	-2.67579E-006	-5.39641E-002	3.01718E-002	3.57175E+000	9	...........
	155	2.08	2.67074E-002	-8.86040E-005	0.00000E+000	-2.36638E-006	-5.39641E-002	2.67040E-002	3.57190E+000	9	...........
	156	2.09333	2.32536E-002	-8.88343E-005	0.00000E+000	-2.06572E-006	-5.39641E-002	2.32469E-002	3.57190E+000	9	...........
	157	2.10667	1.98219E-002	-8.88874E-005	0.00000E+000	-1.76191E-006	-5.39641E-002	1.98213E-002	3.57190E+000	9	...........
	158	2.12	1.64334E-002	-8.84613E-005	0.00000E+000	-1.45372E-006	-5.39641E-002	1.64298E-002	3.57190E+000	9	...........
	159	2.13333	1.30617E-002	-8.88176E-005	0.00000E+000	-1.16011E-006	-5.39641E-002	1.30549E-002	3.57190E+000	9	...........
	160	2.14667	9.69072E-003	-8.83269E-005	0.00000E+000	-8.55951E-007	-5.39641E-002	9.68022E-003	3.57190E+000	9	...........
	161	2.16	6.33476E-003	-8.83300E-005	0.00000E+000	-5.59549E-007	-5.39641E-002	6.32078E-003	3.57190E+000	9	...........
	162	2.17333	3.00230E-003	-8.84061E-005	0.00000E+000	-2.65421E-007	-5.39641E-002	2.98996E-003	3.57190E+000	9	...........
	163	2.18	5.20014E-004	-8.87228E-005	0.00000E+000	-4.61371E-008	-5.39641E-002	5.04484E-004	3.57190E+000	9	...........
STARTTIMEOFFSET	QUANT	534.1517	Start Time Offset (s)
