EXPLAIN
TAG	PWR800_DISCHARGE
TITLE	LABEL	PWR Cyclic Charge Discharge (Cell) - Discharge Step	Test &Identifier
DATE	LABEL	10-7-2017	Date
TIME	LABEL	16:18:41	Time
NOTES	NOTES	3	&Notes...
	supercap test cell
	0.9mg
	6M KOH
PSTAT	PSTAT	IFC5000-01520	Potentiostat
CAPACITY	QUANT	1.00000E-003	Capacity (A-hr)
CELLTYPE	SELECTOR	1	&Cell Type
WORKINGCONNECTION	SELECTOR	0	&Working Lead
MAXDISCHARGETIME	VARIABLEANDUNITS	1.00000E+002	s	1.00000E+002	second(s)	Max &Discharge Time
DISCHARGEMODE	MULTIPARAM	0	9.00000E-005	&Discharge Mode	Constant Current	Amp(s)
SAMPLETIME	QUANT	1.00000E-002	Sa&mple Period (s)
DISCHARGESTOPAT1	MULTIPARAM	3	0.00000E+000	Discharge Stop At &1	Voltage < Limit	V
DISCHARGESTOPAT2	MULTIPARAM	0	0.00000E+000	Discharge Stop At &2	None	N/A
AESBHCSELECTOR	TOGGLE	F	Save Both Half Cells
IRCOMP	TOGGLE	F	IR &Measure
EOC	QUANT	0	Open Circuit (V)
SEQUENCER	TOGGLE	TRUE	Run as Sequence
PSTATMODEL	IQUANT	53	Pstat Model
PSTATSECTION	LABEL	IFC5000-01520	Pstat Section
PSTATSERIALNO	LABEL	01520	Pstat Serial Number
CTRLMODE	IQUANT	0	Control Mode
ELECTROMETER	IQUANT	1	RE=0 or CS=1
IESTAB	IQUANT	0	I/E Stability
CASPEED	IQUANT	4	Control Amp Speed
CONVENTION	IQUANT	1	Current Convention
ICHRANGE	IQUANT	2	Ich Range
ICHRANGEMODE	TOGGLE	T	Ich Auto Range
ICHOFFSETENABLE	TOGGLE	F	Ich Offset Enable
ICHOFFSET	QUANT	0	Ich Offset (V)
ICHFILTER	IQUANT	1	Ich Filter
VCHRANGE	IQUANT	2	Vch Range
VCHRANGEMODE	TOGGLE	T	Vch Auto Range
VCHOFFSETENABLE	TOGGLE	F	Vch Offset Enable
VCHOFFSET	QUANT	0	Vch Offset (V)
VCHFILTER	IQUANT	1	Vch Filter
IERANGELOWERLIMIT	IQUANT	9	I/E Range Lower Limit
IERANGEMODE	TOGGLE	F	I/E AutoRange
IERANGE	IQUANT	9	I/E Range
ACHSELECT	IQUANT	1	Ach Select
ACHRANGE	IQUANT	2	Ach Range
ACHOFFSETENABLE	TOGGLE	F	Ach Offset Enable
ACHOFFSET	QUANT	0	Ach Offset (V)
ACHFILTER	IQUANT	1	Ach Filter
CABLEID	IQUANT	14	Cable ID
DCCALDATE	LABEL	5-7-2017	DC Calibration Date
ACCALDATE	LABEL	12/3/2015	AC Calibration Date
FRAMEWORKVERSION	QUANT	7.01	Framework Version
INSTRUMENTVERSION	LABEL	4.00	Instrument Version
CURVE	TABLE	147
	Pt	T	Vf	Im	Vu	Pwr	Sig	Ach	Temp	IERange	Over
	#	s	V	A	V	W	V	V	deg C	#	bits
	0	0.013333	8.03805E-001	-8.84029E-005	0.00000E+000	-7.10587E-005	-5.39641E-002	8.03952E-001	3.57320E+000	9	...........
	1	0.026667	7.89367E-001	-8.88061E-005	0.00000E+000	-7.01006E-005	-5.39641E-002	7.89517E-001	3.57320E+000	9	...........
	2	0.04	7.75899E-001	-8.85998E-005	0.00000E+000	-6.87446E-005	-5.39641E-002	7.76075E-001	3.57320E+000	9	...........
	3	0.053333	7.63216E-001	-8.86957E-005	0.00000E+000	-6.76940E-005	-5.39641E-002	7.63362E-001	3.57320E+000	9	...........
	4	0.066667	7.51208E-001	-8.86707E-005	0.00000E+000	-6.66101E-005	-5.39641E-002	7.51319E-001	3.57320E+000	9	...........
	5	0.08	7.39726E-001	-8.88384E-005	0.00000E+000	-6.57161E-005	-5.39641E-002	7.39846E-001	3.57320E+000	9	...........
	6	0.093333	7.28756E-001	-8.86269E-005	0.00000E+000	-6.45874E-005	-5.39641E-002	7.28845E-001	3.57320E+000	9	...........
	7	0.106667	7.18206E-001	-8.88457E-005	0.00000E+000	-6.38095E-005	-5.39641E-002	7.18301E-001	3.57320E+000	9	...........
	8	0.12	7.08017E-001	-8.89708E-005	0.00000E+000	-6.29928E-005	-5.39641E-002	7.08130E-001	3.57320E+000	9	...........
	9	0.133333	6.98207E-001	-8.87634E-005	0.00000E+000	-6.19752E-005	-5.39641E-002	6.98318E-001	3.57320E+000	9	...........
	10	0.146667	6.88680E-001	-8.88864E-005	0.00000E+000	-6.12142E-005	-5.39641E-002	6.88788E-001	3.57320E+000	9	...........
	11	0.16	6.79456E-001	-8.87384E-005	0.00000E+000	-6.02939E-005	-5.39641E-002	6.79575E-001	3.57320E+000	9	...........
	12	0.173333	6.70494E-001	-8.86613E-005	0.00000E+000	-5.94469E-005	-5.39641E-002	6.70627E-001	3.57320E+000	9	...........
	13	0.186667	6.61736E-001	-8.87311E-005	0.00000E+000	-5.87166E-005	-5.39641E-002	6.61864E-001	3.57320E+000	9	...........
	14	0.2	6.53253E-001	-8.86405E-005	0.00000E+000	-5.79046E-005	-5.39641E-002	6.53372E-001	3.57320E+000	9	...........
	15	0.213333	6.44984E-001	-8.87843E-005	0.00000E+000	-5.72644E-005	-5.39641E-002	6.45103E-001	3.57320E+000	9	...........
	16	0.226667	6.36877E-001	-8.87978E-005	0.00000E+000	-5.65533E-005	-5.39641E-002	6.37002E-001	3.57320E+000	9	...........
	17	0.24	6.28974E-001	-8.87572E-005	0.00000E+000	-5.58259E-005	-5.39641E-002	6.29107E-001	3.57320E+000	9	...........
	18	0.253333	6.21237E-001	-8.88468E-005	0.00000E+000	-5.51949E-005	-5.39641E-002	6.21362E-001	3.57320E+000	9	...........
	19	0.266667	6.13639E-001	-8.85675E-005	0.00000E+000	-5.43485E-005	-5.39641E-002	6.13783E-001	3.57320E+000	9	...........
	20	0.28	6.06195E-001	-8.85998E-005	0.00000E+000	-5.37088E-005	-5.39641E-002	6.06348E-001	3.57320E+000	9	...........
	21	0.293333	5.98913E-001	-8.87207E-005	0.00000E+000	-5.31360E-005	-5.39641E-002	5.99068E-001	3.57320E+000	9	...........
	22	0.306667	5.91795E-001	-8.86009E-005	0.00000E+000	-5.24336E-005	-5.39641E-002	5.91951E-001	3.57320E+000	9	...........
	23	0.32	5.84754E-001	-8.89093E-005	0.00000E+000	-5.19900E-005	-5.39641E-002	5.84905E-001	3.57320E+000	9	...........
	24	0.333333	5.77892E-001	-8.87436E-005	0.00000E+000	-5.12843E-005	-5.39641E-002	5.78027E-001	3.57320E+000	9	...........
	25	0.346667	5.71118E-001	-8.86123E-005	0.00000E+000	-5.06081E-005	-5.39641E-002	5.71266E-001	3.57320E+000	9	...........
	26	0.36	5.64450E-001	-8.86123E-005	0.00000E+000	-5.00172E-005	-5.39641E-002	5.64586E-001	3.57320E+000	9	...........
	27	0.373333	5.57884E-001	-8.88686E-005	0.00000E+000	-4.95784E-005	-5.39641E-002	5.58019E-001	3.57320E+000	9	...........
	28	0.386667	5.51429E-001	-8.90010E-005	0.00000E+000	-4.90777E-005	-5.39641E-002	5.51552E-001	3.57320E+000	9	...........
	29	0.4	5.45042E-001	-8.89770E-005	0.00000E+000	-4.84962E-005	-5.39641E-002	5.45175E-001	3.57320E+000	9	...........
	30	0.413333	5.38772E-001	-8.89812E-005	0.00000E+000	-4.79405E-005	-5.39641E-002	5.38907E-001	3.57320E+000	9	...........
	31	0.426667	5.32542E-001	-8.87301E-005	0.00000E+000	-4.72525E-005	-5.39641E-002	5.32715E-001	3.57320E+000	9	...........
	32	0.44	5.26472E-001	-8.86186E-005	0.00000E+000	-4.66552E-005	-5.39641E-002	5.26609E-001	3.57320E+000	9	...........
	33	0.453333	5.20434E-001	-8.88666E-005	0.00000E+000	-4.62492E-005	-5.39641E-002	5.20567E-001	3.57320E+000	9	...........
	34	0.466667	5.14473E-001	-8.88968E-005	0.00000E+000	-4.57350E-005	-5.39641E-002	5.14606E-001	3.57320E+000	9	...........
	35	0.48	5.08518E-001	-8.86728E-005	0.00000E+000	-4.50917E-005	-5.39641E-002	5.08669E-001	3.57320E+000	9	...........
	36	0.493333	5.02686E-001	-8.85352E-005	0.00000E+000	-4.45054E-005	-5.39641E-002	5.02834E-001	3.57349E+000	9	...........
	37	0.506667	4.96920E-001	-8.87738E-005	0.00000E+000	-4.41135E-005	-5.39641E-002	4.97054E-001	3.57370E+000	9	...........
	38	0.52	4.91204E-001	-8.87353E-005	0.00000E+000	-4.35871E-005	-5.39641E-002	4.91280E-001	3.57370E+000	9	...........
	39	0.533333	4.85589E-001	-8.86155E-005	0.00000E+000	-4.30307E-005	-5.39641E-002	4.85645E-001	3.57370E+000	9	...........
	40	0.546667	4.80037E-001	-8.88155E-005	0.00000E+000	-4.26348E-005	-5.39641E-002	4.80103E-001	3.57370E+000	9	...........
	41	0.56	4.74452E-001	-8.88072E-005	0.00000E+000	-4.21347E-005	-5.39641E-002	4.74518E-001	3.57370E+000	9	...........
	42	0.573333	4.68909E-001	-8.86769E-005	0.00000E+000	-4.15814E-005	-5.39641E-002	4.68976E-001	3.57370E+000	9	...........
	43	0.586667	4.63418E-001	-8.87082E-005	0.00000E+000	-4.11090E-005	-5.39641E-002	4.63477E-001	3.57370E+000	9	...........
	44	0.6	4.57974E-001	-8.87280E-005	0.00000E+000	-4.06351E-005	-5.39641E-002	4.58039E-001	3.57370E+000	9	...........
	45	0.613333	4.52570E-001	-8.88551E-005	0.00000E+000	-4.02132E-005	-5.39641E-002	4.52633E-001	3.57370E+000	9	...........
	46	0.626667	4.47213E-001	-8.87176E-005	0.00000E+000	-3.96756E-005	-5.39641E-002	4.47277E-001	3.57370E+000	9	...........
	47	0.64	4.41884E-001	-8.88989E-005	0.00000E+000	-3.92830E-005	-5.39641E-002	4.41944E-001	3.57370E+000	9	...........
	48	0.653333	4.36575E-001	-8.88666E-005	0.00000E+000	-3.87969E-005	-5.39641E-002	4.36637E-001	3.57370E+000	9	...........
	49	0.666667	4.31309E-001	-8.87624E-005	0.00000E+000	-3.82840E-005	-5.39641E-002	4.31374E-001	3.57370E+000	9	...........
	50	0.68	4.26075E-001	-8.87238E-005	0.00000E+000	-3.78030E-005	-5.39641E-002	4.26141E-001	3.57370E+000	9	...........
	51	0.693333	4.20861E-001	-8.86707E-005	0.00000E+000	-3.73181E-005	-5.39641E-002	4.20927E-001	3.57370E+000	9	...........
	52	0.706667	4.15668E-001	-8.86446E-005	0.00000E+000	-3.68468E-005	-5.39641E-002	4.15731E-001	3.57370E+000	9	...........
	53	0.72	4.10507E-001	-8.85686E-005	0.00000E+000	-3.63580E-005	-5.39641E-002	4.10565E-001	3.57370E+000	9	...........
	54	0.733333	4.05370E-001	-8.88228E-005	0.00000E+000	-3.60061E-005	-5.39641E-002	4.05424E-001	3.57370E+000	9	...........
	55	0.746667	4.00253E-001	-8.85967E-005	0.00000E+000	-3.54611E-005	-5.39641E-002	4.00303E-001	3.57370E+000	9	...........
	56	0.76	3.95171E-001	-8.88416E-005	0.00000E+000	-3.51076E-005	-5.39641E-002	3.95220E-001	3.57370E+000	9	...........
	57	0.773333	3.90096E-001	-8.87926E-005	0.00000E+000	-3.46376E-005	-5.39641E-002	3.90141E-001	3.57370E+000	9	...........
	58	0.786667	3.85041E-001	-8.88259E-005	0.00000E+000	-3.42016E-005	-5.39641E-002	3.85091E-001	3.57370E+000	9	...........
	59	0.8	3.80007E-001	-8.84748E-005	0.00000E+000	-3.36210E-005	-5.39641E-002	3.80050E-001	3.57370E+000	9	...........
	60	0.813333	3.74978E-001	-8.88770E-005	0.00000E+000	-3.33269E-005	-5.39641E-002	3.75017E-001	3.57370E+000	9	...........
	61	0.826667	3.69961E-001	-8.87728E-005	0.00000E+000	-3.28425E-005	-5.39641E-002	3.70005E-001	3.57370E+000	9	...........
	62	0.84	3.64976E-001	-8.87301E-005	0.00000E+000	-3.23844E-005	-5.39641E-002	3.65020E-001	3.57370E+000	9	...........
	63	0.853333	3.60006E-001	-8.86592E-005	0.00000E+000	-3.19179E-005	-5.39641E-002	3.60052E-001	3.57370E+000	9	...........
	64	0.866667	3.55052E-001	-8.88259E-005	0.00000E+000	-3.15379E-005	-5.39641E-002	3.55094E-001	3.57370E+000	9	...........
	65	0.88	3.50099E-001	-8.88707E-005	0.00000E+000	-3.11136E-005	-5.39641E-002	3.50137E-001	3.57370E+000	9	...........
	66	0.893333	3.45146E-001	-8.87395E-005	0.00000E+000	-3.06281E-005	-5.39641E-002	3.45191E-001	3.57370E+000	9	...........
	67	0.906667	3.40218E-001	-8.86561E-005	0.00000E+000	-3.01624E-005	-5.39641E-002	3.40258E-001	3.57370E+000	9	...........
	68	0.92	3.35305E-001	-8.86019E-005	0.00000E+000	-2.97087E-005	-5.39641E-002	3.35353E-001	3.57370E+000	9	...........
	69	0.933333	3.30421E-001	-8.86144E-005	0.00000E+000	-2.92801E-005	-5.39641E-002	3.30458E-001	3.57370E+000	9	...........
	70	0.946667	3.25529E-001	-8.88645E-005	0.00000E+000	-2.89279E-005	-5.39641E-002	3.25572E-001	3.57370E+000	9	...........
	71	0.96	3.20652E-001	-8.87947E-005	0.00000E+000	-2.84722E-005	-5.39641E-002	3.20695E-001	3.57370E+000	9	...........
	72	0.97333	3.15785E-001	-8.87676E-005	0.00000E+000	-2.80315E-005	-5.39641E-002	3.15823E-001	3.57370E+000	9	...........
	73	0.98667	3.10926E-001	-8.87551E-005	0.00000E+000	-2.75963E-005	-5.39641E-002	3.10967E-001	3.57370E+000	9	...........
	74	1	3.06070E-001	-8.89082E-005	0.00000E+000	-2.72122E-005	-5.39641E-002	3.06113E-001	3.57370E+000	9	...........
	75	1.01333	3.01243E-001	-8.87363E-005	0.00000E+000	-2.67312E-005	-5.39641E-002	3.01282E-001	3.57370E+000	9	...........
	76	1.02667	2.96417E-001	-8.87478E-005	0.00000E+000	-2.63064E-005	-5.39641E-002	2.96456E-001	3.57370E+000	9	...........
	77	1.04	2.91616E-001	-8.90083E-005	0.00000E+000	-2.59562E-005	-5.39641E-002	2.91655E-001	3.57370E+000	9	...........
	78	1.05333	2.86831E-001	-8.88895E-005	0.00000E+000	-2.54963E-005	-5.39641E-002	2.86863E-001	3.57370E+000	9	...........
	79	1.06667	2.82059E-001	-8.87478E-005	0.00000E+000	-2.50321E-005	-5.39641E-002	2.82101E-001	3.57370E+000	9	...........
	80	1.08	2.77294E-001	-8.89822E-005	0.00000E+000	-2.46742E-005	-5.39641E-002	2.77334E-001	3.57370E+000	9	...........
	81	1.09333	2.72539E-001	-8.89603E-005	0.00000E+000	-2.42451E-005	-5.39641E-002	2.72580E-001	3.57370E+000	9	...........
	82	1.10667	2.67799E-001	-8.87447E-005	0.00000E+000	-2.37657E-005	-5.39641E-002	2.67833E-001	3.57370E+000	9	...........
	83	1.12	2.63060E-001	-8.87019E-005	0.00000E+000	-2.33339E-005	-5.39641E-002	2.63100E-001	3.57370E+000	9	...........
	84	1.13333	2.58336E-001	-8.88374E-005	0.00000E+000	-2.29499E-005	-5.39641E-002	2.58377E-001	3.57370E+000	9	...........
	85	1.14667	2.53635E-001	-8.87405E-005	0.00000E+000	-2.25077E-005	-5.39641E-002	2.53674E-001	3.57370E+000	9	...........
	86	1.16	2.48960E-001	-8.87884E-005	0.00000E+000	-2.21048E-005	-5.39641E-002	2.48992E-001	3.57370E+000	9	...........
	87	1.17333	2.44289E-001	-8.86759E-005	0.00000E+000	-2.16626E-005	-5.39641E-002	2.44318E-001	3.57370E+000	9	...........
	88	1.18667	2.39633E-001	-8.87353E-005	0.00000E+000	-2.12639E-005	-5.39641E-002	2.39662E-001	3.57370E+000	9	...........
	89	1.2	2.34993E-001	-8.86905E-005	0.00000E+000	-2.08416E-005	-5.39641E-002	2.35020E-001	3.57370E+000	9	...........
	90	1.21333	2.30357E-001	-8.86697E-005	0.00000E+000	-2.04257E-005	-5.39641E-002	2.30385E-001	3.57370E+000	9	...........
	91	1.22667	2.25742E-001	-8.88864E-005	0.00000E+000	-2.00654E-005	-5.39641E-002	2.25773E-001	3.57370E+000	9	...........
	92	1.24	2.21157E-001	-8.87124E-005	0.00000E+000	-1.96194E-005	-5.39641E-002	2.21186E-001	3.57370E+000	9	...........
	93	1.25333	2.16576E-001	-8.88030E-005	0.00000E+000	-1.92326E-005	-5.39641E-002	2.16598E-001	3.57370E+000	9	...........
	94	1.26667	2.12008E-001	-8.89718E-005	0.00000E+000	-1.88628E-005	-5.39641E-002	2.12035E-001	3.57370E+000	9	...........
	95	1.28	2.07464E-001	-8.87863E-005	0.00000E+000	-1.84200E-005	-5.39641E-002	2.07484E-001	3.57370E+000	9	...........
	96	1.29333	2.02936E-001	-8.86603E-005	0.00000E+000	-1.79924E-005	-5.39641E-002	2.02963E-001	3.57370E+000	9	...........
	97	1.30667	1.98429E-001	-8.85832E-005	0.00000E+000	-1.75774E-005	-5.39641E-002	1.98452E-001	3.57370E+000	9	...........
	98	1.32	1.93927E-001	-8.89437E-005	0.00000E+000	-1.72486E-005	-5.39641E-002	1.93953E-001	3.57370E+000	9	...........
	99	1.33333	1.89448E-001	-8.86790E-005	0.00000E+000	-1.68001E-005	-5.39641E-002	1.89473E-001	3.57370E+000	9	...........
	100	1.34667	1.84996E-001	-8.87561E-005	0.00000E+000	-1.64195E-005	-5.39641E-002	1.85020E-001	3.57370E+000	9	...........
	101	1.36	1.80541E-001	-8.87030E-005	0.00000E+000	-1.60145E-005	-5.39641E-002	1.80564E-001	3.57370E+000	9	...........
	102	1.37333	1.76098E-001	-8.90062E-005	0.00000E+000	-1.56738E-005	-5.39641E-002	1.76117E-001	3.57370E+000	9	...........
	103	1.38667	1.71672E-001	-8.85853E-005	0.00000E+000	-1.52076E-005	-5.39641E-002	1.71690E-001	3.57370E+000	9	...........
	104	1.4	1.67273E-001	-8.87332E-005	0.00000E+000	-1.48427E-005	-5.39641E-002	1.67296E-001	3.57370E+000	9	...........
	105	1.41333	1.62899E-001	-8.89718E-005	0.00000E+000	-1.44935E-005	-5.39641E-002	1.62913E-001	3.57370E+000	9	...........
	106	1.42667	1.58533E-001	-8.88124E-005	0.00000E+000	-1.40797E-005	-5.39641E-002	1.58552E-001	3.57370E+000	9	...........
	107	1.44	1.54176E-001	-8.85842E-005	0.00000E+000	-1.36576E-005	-5.39641E-002	1.54191E-001	3.57370E+000	9	...........
	108	1.45333	1.49856E-001	-8.89051E-005	0.00000E+000	-1.33229E-005	-5.39641E-002	1.49875E-001	3.57370E+000	9	...........
	109	1.46667	1.45559E-001	-8.89218E-005	0.00000E+000	-1.29434E-005	-5.39641E-002	1.45575E-001	3.57370E+000	9	...........
	110	1.48	1.41286E-001	-8.88749E-005	0.00000E+000	-1.25568E-005	-5.39641E-002	1.41304E-001	3.57370E+000	9	...........
	111	1.49333	1.37023E-001	-8.86947E-005	0.00000E+000	-1.21532E-005	-5.39641E-002	1.37036E-001	3.57346E+000	9	...........
	112	1.50667	1.32775E-001	-8.88707E-005	0.00000E+000	-1.17998E-005	-5.39641E-002	1.32788E-001	3.57330E+000	9	...........
	113	1.52	1.28553E-001	-8.87947E-005	0.00000E+000	-1.14148E-005	-5.39641E-002	1.28561E-001	3.57330E+000	9	...........
	114	1.53333	1.24354E-001	-8.87718E-005	0.00000E+000	-1.10391E-005	-5.39641E-002	1.24368E-001	3.57330E+000	9	...........
	115	1.54667	1.20165E-001	-8.87290E-005	0.00000E+000	-1.06621E-005	-5.39641E-002	1.20183E-001	3.57330E+000	9	...........
	116	1.56	1.16003E-001	-8.90291E-005	0.00000E+000	-1.03276E-005	-5.39641E-002	1.16015E-001	3.57330E+000	9	...........
	117	1.57333	1.11844E-001	-8.86217E-005	0.00000E+000	-9.91180E-006	-5.39641E-002	1.11860E-001	3.57330E+000	9	...........
	118	1.58667	1.07718E-001	-8.88061E-005	0.00000E+000	-9.56606E-006	-5.39641E-002	1.07731E-001	3.57330E+000	9	...........
	119	1.6	1.03606E-001	-8.87572E-005	0.00000E+000	-9.19577E-006	-5.39641E-002	1.03615E-001	3.57330E+000	9	...........
	120	1.61333	9.95038E-002	-8.85936E-005	0.00000E+000	-8.81539E-006	-5.39641E-002	9.95138E-002	3.57330E+000	9	...........
	121	1.62667	9.54319E-002	-8.88457E-005	0.00000E+000	-8.47872E-006	-5.39641E-002	9.54365E-002	3.57330E+000	9	...........
	122	1.64	9.13695E-002	-8.87613E-005	0.00000E+000	-8.11008E-006	-5.39641E-002	9.13788E-002	3.57330E+000	9	...........
	123	1.65333	8.73254E-002	-8.89562E-005	0.00000E+000	-7.76813E-006	-5.39641E-002	8.73355E-002	3.57330E+000	9	...........
	124	1.66667	8.33068E-002	-8.87384E-005	0.00000E+000	-7.39252E-006	-5.39641E-002	8.33157E-002	3.57330E+000	9	...........
	125	1.68	7.93036E-002	-8.85686E-005	0.00000E+000	-7.02381E-006	-5.39641E-002	7.93042E-002	3.57330E+000	9	...........
	126	1.69333	7.53111E-002	-8.88530E-005	0.00000E+000	-6.69162E-006	-5.39641E-002	7.53112E-002	3.57330E+000	9	...........
	127	1.70667	7.13393E-002	-8.88770E-005	0.00000E+000	-6.34042E-006	-5.39641E-002	7.13374E-002	3.57330E+000	9	...........
	128	1.72	6.73730E-002	-8.87874E-005	0.00000E+000	-5.98187E-006	-5.39641E-002	6.73805E-002	3.57330E+000	9	...........
	129	1.73333	6.34268E-002	-8.85800E-005	0.00000E+000	-5.61835E-006	-5.39641E-002	6.34315E-002	3.57330E+000	9	...........
	130	1.74667	5.94960E-002	-8.90666E-005	0.00000E+000	-5.29911E-006	-5.39641E-002	5.94967E-002	3.57330E+000	9	...........
	131	1.76	5.55905E-002	-8.87936E-005	0.00000E+000	-4.93609E-006	-5.39641E-002	5.55941E-002	3.57330E+000	9	...........
	132	1.77333	5.17171E-002	-8.88561E-005	0.00000E+000	-4.59538E-006	-5.39641E-002	5.17159E-002	3.57330E+000	9	...........
	133	1.78667	4.78668E-002	-8.87874E-005	0.00000E+000	-4.24997E-006	-5.39641E-002	4.78722E-002	3.57330E+000	9	...........
	134	1.8	4.40318E-002	-8.86061E-005	0.00000E+000	-3.90148E-006	-5.39641E-002	4.40425E-002	3.57330E+000	9	...........
	135	1.81333	4.02039E-002	-8.92000E-005	0.00000E+000	-3.58619E-006	-5.39641E-002	4.02072E-002	3.57330E+000	9	...........
	136	1.82667	3.63985E-002	-8.85967E-005	0.00000E+000	-3.22478E-006	-5.39641E-002	3.64074E-002	3.57330E+000	9	...........
	137	1.84	3.26122E-002	-8.87113E-005	0.00000E+000	-2.89307E-006	-5.39641E-002	3.26136E-002	3.57330E+000	9	...........
	138	1.85333	2.88405E-002	-8.88520E-005	0.00000E+000	-2.56253E-006	-5.39641E-002	2.88413E-002	3.57330E+000	9	...........
	139	1.86667	2.50747E-002	-8.86342E-005	0.00000E+000	-2.22248E-006	-5.39641E-002	2.50695E-002	3.57330E+000	9	...........
	140	1.88	2.13412E-002	-8.87561E-005	0.00000E+000	-1.89417E-006	-5.39641E-002	2.13381E-002	3.57330E+000	9	...........
	141	1.89333	1.76209E-002	-8.90541E-005	0.00000E+000	-1.56921E-006	-5.39641E-002	1.76143E-002	3.57330E+000	9	...........
	142	1.90667	1.39204E-002	-8.89176E-005	0.00000E+000	-1.23777E-006	-5.39641E-002	1.39136E-002	3.57330E+000	9	...........
	143	1.92	1.02495E-002	-8.87811E-005	0.00000E+000	-9.09960E-007	-5.39641E-002	1.02392E-002	3.57330E+000	9	...........
	144	1.93333	6.58422E-003	-8.86967E-005	0.00000E+000	-5.83999E-007	-5.39641E-002	6.56841E-003	3.57330E+000	9	...........
	145	1.94667	2.93544E-003	-8.88707E-005	0.00000E+000	-2.60875E-007	-5.39641E-002	2.92026E-003	3.57330E+000	9	...........
	146	1.95167	4.33844E-004	-8.86749E-005	0.00000E+000	-3.84710E-008	-5.39641E-002	4.23871E-004	3.57330E+000	9	...........
STARTTIMEOFFSET	QUANT	3996.216	Start Time Offset (s)
