EXPLAIN
TAG	PWR800_DISCHARGE
TITLE	LABEL	PWR Cyclic Charge Discharge (Cell) - Discharge Step	Test &Identifier
DATE	LABEL	10-7-2017	Date
TIME	LABEL	15:25:55	Time
NOTES	NOTES	3	&Notes...
	supercap test cell
	0.9mg
	6M KOH
PSTAT	PSTAT	IFC5000-01520	Potentiostat
CAPACITY	QUANT	1.00000E-003	Capacity (A-hr)
CELLTYPE	SELECTOR	1	&Cell Type
WORKINGCONNECTION	SELECTOR	0	&Working Lead
MAXDISCHARGETIME	VARIABLEANDUNITS	1.00000E+002	s	1.00000E+002	second(s)	Max &Discharge Time
DISCHARGEMODE	MULTIPARAM	0	9.00000E-005	&Discharge Mode	Constant Current	Amp(s)
SAMPLETIME	QUANT	1.00000E-002	Sa&mple Period (s)
DISCHARGESTOPAT1	MULTIPARAM	3	0.00000E+000	Discharge Stop At &1	Voltage < Limit	V
DISCHARGESTOPAT2	MULTIPARAM	0	0.00000E+000	Discharge Stop At &2	None	N/A
AESBHCSELECTOR	TOGGLE	F	Save Both Half Cells
IRCOMP	TOGGLE	F	IR &Measure
EOC	QUANT	0	Open Circuit (V)
SEQUENCER	TOGGLE	TRUE	Run as Sequence
PSTATMODEL	IQUANT	53	Pstat Model
PSTATSECTION	LABEL	IFC5000-01520	Pstat Section
PSTATSERIALNO	LABEL	01520	Pstat Serial Number
CTRLMODE	IQUANT	0	Control Mode
ELECTROMETER	IQUANT	1	RE=0 or CS=1
IESTAB	IQUANT	0	I/E Stability
CASPEED	IQUANT	4	Control Amp Speed
CONVENTION	IQUANT	1	Current Convention
ICHRANGE	IQUANT	2	Ich Range
ICHRANGEMODE	TOGGLE	T	Ich Auto Range
ICHOFFSETENABLE	TOGGLE	F	Ich Offset Enable
ICHOFFSET	QUANT	0	Ich Offset (V)
ICHFILTER	IQUANT	1	Ich Filter
VCHRANGE	IQUANT	2	Vch Range
VCHRANGEMODE	TOGGLE	T	Vch Auto Range
VCHOFFSETENABLE	TOGGLE	F	Vch Offset Enable
VCHOFFSET	QUANT	0	Vch Offset (V)
VCHFILTER	IQUANT	1	Vch Filter
IERANGELOWERLIMIT	IQUANT	9	I/E Range Lower Limit
IERANGEMODE	TOGGLE	F	I/E AutoRange
IERANGE	IQUANT	9	I/E Range
ACHSELECT	IQUANT	1	Ach Select
ACHRANGE	IQUANT	2	Ach Range
ACHOFFSETENABLE	TOGGLE	F	Ach Offset Enable
ACHOFFSET	QUANT	0	Ach Offset (V)
ACHFILTER	IQUANT	1	Ach Filter
CABLEID	IQUANT	14	Cable ID
DCCALDATE	LABEL	5-7-2017	DC Calibration Date
ACCALDATE	LABEL	12/3/2015	AC Calibration Date
FRAMEWORKVERSION	QUANT	7.01	Framework Version
INSTRUMENTVERSION	LABEL	4.00	Instrument Version
CURVE	TABLE	156
	Pt	T	Vf	Im	Vu	Pwr	Sig	Ach	Temp	IERange	Over
	#	s	V	A	V	W	V	V	deg C	#	bits
	0	0.013333	8.18241E-001	-8.87186E-005	0.00000E+000	-7.25932E-005	-5.39641E-002	8.18343E-001	3.57220E+000	9	...........
	1	0.026667	8.05327E-001	-8.88697E-005	0.00000E+000	-7.15691E-005	-5.39641E-002	8.05433E-001	3.57220E+000	9	...........
	2	0.04	7.93225E-001	-8.89364E-005	0.00000E+000	-7.05465E-005	-5.39641E-002	7.93357E-001	3.57220E+000	9	...........
	3	0.053333	7.81788E-001	-8.87072E-005	0.00000E+000	-6.93502E-005	-5.39641E-002	7.81879E-001	3.57220E+000	9	...........
	4	0.066667	7.70858E-001	-8.88520E-005	0.00000E+000	-6.84922E-005	-5.39641E-002	7.70974E-001	3.57220E+000	9	...........
	5	0.08	7.60384E-001	-8.86957E-005	0.00000E+000	-6.74428E-005	-5.39641E-002	7.60489E-001	3.57220E+000	9	...........
	6	0.093333	7.50305E-001	-8.86165E-005	0.00000E+000	-6.64894E-005	-5.39641E-002	7.50424E-001	3.57220E+000	9	...........
	7	0.106667	7.40593E-001	-8.87624E-005	0.00000E+000	-6.57368E-005	-5.39641E-002	7.40691E-001	3.57220E+000	9	...........
	8	0.12	7.31190E-001	-8.87822E-005	0.00000E+000	-6.49167E-005	-5.39641E-002	7.31309E-001	3.57220E+000	9	...........
	9	0.133333	7.22095E-001	-8.89082E-005	0.00000E+000	-6.42002E-005	-5.39641E-002	7.22179E-001	3.57220E+000	9	...........
	10	0.146667	7.13165E-001	-8.87603E-005	0.00000E+000	-6.33007E-005	-5.39641E-002	7.13310E-001	3.57220E+000	9	...........
	11	0.16	7.04557E-001	-8.87999E-005	0.00000E+000	-6.25646E-005	-5.39641E-002	7.04674E-001	3.57220E+000	9	...........
	12	0.173333	6.96171E-001	-8.86426E-005	0.00000E+000	-6.17104E-005	-5.39641E-002	6.96239E-001	3.57220E+000	9	...........
	13	0.186667	6.87926E-001	-8.88864E-005	0.00000E+000	-6.11472E-005	-5.39641E-002	6.88024E-001	3.57220E+000	9	...........
	14	0.2	6.79939E-001	-8.87228E-005	0.00000E+000	-6.03261E-005	-5.39641E-002	6.80003E-001	3.57220E+000	9	...........
	15	0.213333	6.72111E-001	-8.87207E-005	0.00000E+000	-5.96302E-005	-5.39641E-002	6.72169E-001	3.57220E+000	9	...........
	16	0.226667	6.64408E-001	-8.86686E-005	0.00000E+000	-5.89121E-005	-5.39641E-002	6.64510E-001	3.57220E+000	9	...........
	17	0.24	6.56895E-001	-8.86321E-005	0.00000E+000	-5.82220E-005	-5.39641E-002	6.56971E-001	3.57220E+000	9	...........
	18	0.253333	6.49513E-001	-8.85321E-005	0.00000E+000	-5.75027E-005	-5.39641E-002	6.49588E-001	3.57220E+000	9	...........
	19	0.266667	6.42276E-001	-8.86019E-005	0.00000E+000	-5.69069E-005	-5.39641E-002	6.42367E-001	3.57220E+000	9	...........
	20	0.28	6.35136E-001	-8.87884E-005	0.00000E+000	-5.63927E-005	-5.39641E-002	6.35224E-001	3.57220E+000	9	...........
	21	0.293333	6.28144E-001	-8.87572E-005	0.00000E+000	-5.57522E-005	-5.39641E-002	6.28247E-001	3.57220E+000	9	...........
	22	0.306667	6.21255E-001	-8.85707E-005	0.00000E+000	-5.50250E-005	-5.39641E-002	6.21342E-001	3.57220E+000	9	...........
	23	0.32	6.14456E-001	-8.87290E-005	0.00000E+000	-5.45201E-005	-5.39641E-002	6.14574E-001	3.57220E+000	9	...........
	24	0.333333	6.07745E-001	-8.87697E-005	0.00000E+000	-5.39493E-005	-5.39641E-002	6.07881E-001	3.57220E+000	9	...........
	25	0.346667	6.01176E-001	-8.86780E-005	0.00000E+000	-5.33111E-005	-5.39641E-002	6.01301E-001	3.57220E+000	9	...........
	26	0.36	5.94709E-001	-8.87665E-005	0.00000E+000	-5.27902E-005	-5.39641E-002	5.94777E-001	3.57220E+000	9	...........
	27	0.373333	5.88291E-001	-8.87467E-005	0.00000E+000	-5.22089E-005	-5.39641E-002	5.88403E-001	3.57220E+000	9	...........
	28	0.386667	5.81935E-001	-8.86040E-005	0.00000E+000	-5.15618E-005	-5.39641E-002	5.82056E-001	3.57220E+000	9	...........
	29	0.4	5.75693E-001	-8.88645E-005	0.00000E+000	-5.11587E-005	-5.39641E-002	5.75801E-001	3.57220E+000	9	...........
	30	0.413333	5.69518E-001	-8.87238E-005	0.00000E+000	-5.05298E-005	-5.39641E-002	5.69617E-001	3.57220E+000	9	...........
	31	0.426667	5.63366E-001	-8.87561E-005	0.00000E+000	-5.00022E-005	-5.39641E-002	5.63472E-001	3.57220E+000	9	...........
	32	0.44	5.57315E-001	-8.89082E-005	0.00000E+000	-4.95499E-005	-5.39641E-002	5.57422E-001	3.57220E+000	9	...........
	33	0.453333	5.51338E-001	-8.87280E-005	0.00000E+000	-4.89191E-005	-5.39641E-002	5.51454E-001	3.57220E+000	9	...........
	34	0.466667	5.45402E-001	-8.86853E-005	0.00000E+000	-4.83691E-005	-5.39641E-002	5.45532E-001	3.57220E+000	9	...........
	35	0.48	5.39530E-001	-8.86498E-005	0.00000E+000	-4.78292E-005	-5.39641E-002	5.39654E-001	3.57220E+000	9	...........
	36	0.493333	5.33676E-001	-8.87863E-005	0.00000E+000	-4.73831E-005	-5.39641E-002	5.33795E-001	3.57220E+000	9	...........
	37	0.506667	5.27932E-001	-8.86123E-005	0.00000E+000	-4.67812E-005	-5.39641E-002	5.28039E-001	3.57220E+000	9	...........
	38	0.52	5.22259E-001	-8.87384E-005	0.00000E+000	-4.63445E-005	-5.39641E-002	5.22320E-001	3.57220E+000	9	...........
	39	0.533333	5.16580E-001	-8.85123E-005	0.00000E+000	-4.57237E-005	-5.39641E-002	5.16656E-001	3.57220E+000	9	...........
	40	0.546667	5.10906E-001	-8.86707E-005	0.00000E+000	-4.53024E-005	-5.39641E-002	5.11004E-001	3.57220E+000	9	...........
	41	0.56	5.05261E-001	-8.88749E-005	0.00000E+000	-4.49050E-005	-5.39641E-002	5.05400E-001	3.57220E+000	9	...........
	42	0.573333	4.99699E-001	-8.87624E-005	0.00000E+000	-4.43544E-005	-5.39641E-002	4.99821E-001	3.57220E+000	9	...........
	43	0.586667	4.94139E-001	-8.86947E-005	0.00000E+000	-4.38275E-005	-5.39641E-002	4.94279E-001	3.57220E+000	9	...........
	44	0.6	4.88637E-001	-8.86842E-005	0.00000E+000	-4.33344E-005	-5.39641E-002	4.88768E-001	3.57220E+000	9	...........
	45	0.613333	4.83249E-001	-8.86519E-005	0.00000E+000	-4.28410E-005	-5.39641E-002	4.83321E-001	3.57220E+000	9	...........
	46	0.626667	4.77841E-001	-8.86957E-005	0.00000E+000	-4.23825E-005	-5.39641E-002	4.77911E-001	3.57220E+000	9	...........
	47	0.64	4.72442E-001	-8.88561E-005	0.00000E+000	-4.19794E-005	-5.39641E-002	4.72506E-001	3.57220E+000	9	...........
	48	0.653333	4.67076E-001	-8.87030E-005	0.00000E+000	-4.14310E-005	-5.39641E-002	4.67137E-001	3.57220E+000	9	...........
	49	0.666667	4.61726E-001	-8.89239E-005	0.00000E+000	-4.10585E-005	-5.39641E-002	4.61788E-001	3.57220E+000	9	...........
	50	0.68	4.56393E-001	-8.86978E-005	0.00000E+000	-4.04810E-005	-5.39641E-002	4.56454E-001	3.57220E+000	9	...........
	51	0.693333	4.51094E-001	-8.89905E-005	0.00000E+000	-4.01431E-005	-5.39641E-002	4.51155E-001	3.57220E+000	9	...........
	52	0.706667	4.45819E-001	-8.87238E-005	0.00000E+000	-3.95548E-005	-5.39641E-002	4.45877E-001	3.57220E+000	9	...........
	53	0.72	4.40571E-001	-8.86488E-005	0.00000E+000	-3.90561E-005	-5.39641E-002	4.40629E-001	3.57220E+000	9	...........
	54	0.733333	4.35326E-001	-8.88051E-005	0.00000E+000	-3.86591E-005	-5.39641E-002	4.35386E-001	3.57220E+000	9	...........
	55	0.746667	4.30103E-001	-8.89416E-005	0.00000E+000	-3.82540E-005	-5.39641E-002	4.30160E-001	3.57273E+000	9	...........
	56	0.76	4.24910E-001	-8.88020E-005	0.00000E+000	-3.77328E-005	-5.39641E-002	4.24971E-001	3.57360E+000	9	...........
	57	0.773333	4.19736E-001	-8.87832E-005	0.00000E+000	-3.72656E-005	-5.39641E-002	4.19796E-001	3.57360E+000	9	...........
	58	0.786667	4.14563E-001	-8.85623E-005	0.00000E+000	-3.67147E-005	-5.39641E-002	4.14625E-001	3.57360E+000	9	...........
	59	0.8	4.09412E-001	-8.88009E-005	0.00000E+000	-3.63562E-005	-5.39641E-002	4.09465E-001	3.57360E+000	9	...........
	60	0.813333	4.04292E-001	-8.87249E-005	0.00000E+000	-3.58707E-005	-5.39641E-002	4.04341E-001	3.57360E+000	9	...........
	61	0.826667	3.99190E-001	-8.89103E-005	0.00000E+000	-3.54921E-005	-5.39641E-002	3.99235E-001	3.57360E+000	9	...........
	62	0.84	3.94106E-001	-8.87415E-005	0.00000E+000	-3.49735E-005	-5.39641E-002	3.94155E-001	3.57360E+000	9	...........
	63	0.853333	3.89046E-001	-8.87488E-005	0.00000E+000	-3.45274E-005	-5.39641E-002	3.89088E-001	3.57360E+000	9	...........
	64	0.866667	3.84022E-001	-8.87124E-005	0.00000E+000	-3.40675E-005	-5.39641E-002	3.84066E-001	3.57360E+000	9	...........
	65	0.88	3.79021E-001	-8.87488E-005	0.00000E+000	-3.36376E-005	-5.39641E-002	3.79064E-001	3.57360E+000	9	...........
	66	0.893333	3.74033E-001	-8.85613E-005	0.00000E+000	-3.31248E-005	-5.39641E-002	3.74074E-001	3.57360E+000	9	...........
	67	0.906667	3.69035E-001	-8.90333E-005	0.00000E+000	-3.28564E-005	-5.39641E-002	3.69081E-001	3.57360E+000	9	...........
	68	0.92	3.64048E-001	-8.87843E-005	0.00000E+000	-3.23218E-005	-5.39641E-002	3.64098E-001	3.57360E+000	9	...........
	69	0.933333	3.59085E-001	-8.86863E-005	0.00000E+000	-3.18460E-005	-5.39641E-002	3.59128E-001	3.57360E+000	9	...........
	70	0.946667	3.54154E-001	-8.86259E-005	0.00000E+000	-3.13872E-005	-5.39641E-002	3.54190E-001	3.57360E+000	9	...........
	71	0.96	3.49233E-001	-8.85863E-005	0.00000E+000	-3.09372E-005	-5.39641E-002	3.49275E-001	3.57360E+000	9	...........
	72	0.97333	3.44335E-001	-8.87759E-005	0.00000E+000	-3.05687E-005	-5.39641E-002	3.44377E-001	3.57360E+000	9	...........
	73	0.98667	3.39464E-001	-8.86822E-005	0.00000E+000	-3.01044E-005	-5.39641E-002	3.39504E-001	3.57360E+000	9	...........
	74	1	3.34604E-001	-8.86738E-005	0.00000E+000	-2.96706E-005	-5.39641E-002	3.34642E-001	3.57360E+000	9	...........
	75	1.01333	3.29752E-001	-8.83967E-005	0.00000E+000	-2.91490E-005	-5.39641E-002	3.29787E-001	3.57360E+000	9	...........
	76	1.02667	3.24936E-001	-8.87384E-005	0.00000E+000	-2.88343E-005	-5.39641E-002	3.24975E-001	3.57360E+000	9	...........
	77	1.04	3.20118E-001	-8.90062E-005	0.00000E+000	-2.84925E-005	-5.39641E-002	3.20154E-001	3.57360E+000	9	...........
	78	1.05333	3.15318E-001	-8.83456E-005	0.00000E+000	-2.78570E-005	-5.39641E-002	3.15352E-001	3.57360E+000	9	...........
	79	1.06667	3.10548E-001	-8.84394E-005	0.00000E+000	-2.74646E-005	-5.39641E-002	3.10584E-001	3.57360E+000	9	...........
	80	1.08	3.05790E-001	-8.86113E-005	0.00000E+000	-2.70964E-005	-5.39641E-002	3.05830E-001	3.57360E+000	9	...........
	81	1.09333	3.01024E-001	-8.87697E-005	0.00000E+000	-2.67218E-005	-5.39641E-002	3.01062E-001	3.57360E+000	9	...........
	82	1.10667	2.96273E-001	-8.87968E-005	0.00000E+000	-2.63081E-005	-5.39641E-002	2.96313E-001	3.57360E+000	9	...........
	83	1.12	2.91568E-001	-8.86321E-005	0.00000E+000	-2.58423E-005	-5.39641E-002	2.91599E-001	3.57360E+000	9	...........
	84	1.13333	2.86885E-001	-8.87686E-005	0.00000E+000	-2.54664E-005	-5.39641E-002	2.86922E-001	3.57360E+000	9	...........
	85	1.14667	2.82231E-001	-8.89447E-005	0.00000E+000	-2.51029E-005	-5.39641E-002	2.82265E-001	3.57360E+000	9	...........
	86	1.16	2.77583E-001	-8.88093E-005	0.00000E+000	-2.46519E-005	-5.39641E-002	2.77609E-001	3.57360E+000	9	...........
	87	1.17333	2.72945E-001	-8.84967E-005	0.00000E+000	-2.41548E-005	-5.39641E-002	2.72974E-001	3.57360E+000	9	...........
	88	1.18667	2.68333E-001	-8.88968E-005	0.00000E+000	-2.38540E-005	-5.39641E-002	2.68362E-001	3.57360E+000	9	...........
	89	1.2	2.63748E-001	-8.88468E-005	0.00000E+000	-2.34331E-005	-5.39641E-002	2.63778E-001	3.57360E+000	9	...........
	90	1.21333	2.59175E-001	-8.88072E-005	0.00000E+000	-2.30166E-005	-5.39641E-002	2.59207E-001	3.57360E+000	9	...........
	91	1.22667	2.54621E-001	-8.89999E-005	0.00000E+000	-2.26612E-005	-5.39641E-002	2.54652E-001	3.57360E+000	9	...........
	92	1.24	2.50092E-001	-8.88791E-005	0.00000E+000	-2.22279E-005	-5.39641E-002	2.50123E-001	3.57360E+000	9	...........
	93	1.25333	2.45591E-001	-8.84654E-005	0.00000E+000	-2.17263E-005	-5.39641E-002	2.45611E-001	3.57360E+000	9	...........
	94	1.26667	2.41091E-001	-8.86936E-005	0.00000E+000	-2.13833E-005	-5.39641E-002	2.41122E-001	3.57360E+000	9	...........
	95	1.28	2.36640E-001	-8.89885E-005	0.00000E+000	-2.10583E-005	-5.39641E-002	2.36666E-001	3.57360E+000	9	...........
	96	1.29333	2.32191E-001	-8.84071E-005	0.00000E+000	-2.05273E-005	-5.39641E-002	2.32218E-001	3.57360E+000	9	...........
	97	1.30667	2.27772E-001	-8.88291E-005	0.00000E+000	-2.02328E-005	-5.39641E-002	2.27797E-001	3.57360E+000	9	...........
	98	1.32	2.23387E-001	-8.86947E-005	0.00000E+000	-1.98132E-005	-5.39641E-002	2.23411E-001	3.57360E+000	9	...........
	99	1.33333	2.19010E-001	-8.86561E-005	0.00000E+000	-1.94166E-005	-5.39641E-002	2.19036E-001	3.57360E+000	9	...........
	100	1.34667	2.14651E-001	-8.86186E-005	0.00000E+000	-1.90221E-005	-5.39641E-002	2.14669E-001	3.57360E+000	9	...........
	101	1.36	2.10296E-001	-8.89843E-005	0.00000E+000	-1.87131E-005	-5.39641E-002	2.10321E-001	3.57360E+000	9	...........
	102	1.37333	2.05965E-001	-8.89905E-005	0.00000E+000	-1.83289E-005	-5.39641E-002	2.05988E-001	3.57360E+000	9	...........
	103	1.38667	2.01669E-001	-8.88832E-005	0.00000E+000	-1.79250E-005	-5.39641E-002	2.01695E-001	3.57360E+000	9	...........
	104	1.4	1.97388E-001	-8.85227E-005	0.00000E+000	-1.74734E-005	-5.39641E-002	1.97412E-001	3.57360E+000	9	...........
	105	1.41333	1.93129E-001	-8.86697E-005	0.00000E+000	-1.71247E-005	-5.39641E-002	1.93152E-001	3.57360E+000	9	...........
	106	1.42667	1.88886E-001	-8.91156E-005	0.00000E+000	-1.68327E-005	-5.39641E-002	1.88912E-001	3.57360E+000	9	...........
	107	1.44	1.84659E-001	-8.88936E-005	0.00000E+000	-1.64150E-005	-5.39641E-002	1.84677E-001	3.57360E+000	9	...........
	108	1.45333	1.80451E-001	-8.88124E-005	0.00000E+000	-1.60262E-005	-5.39641E-002	1.80473E-001	3.57360E+000	9	...........
	109	1.46667	1.76273E-001	-8.90218E-005	0.00000E+000	-1.56921E-005	-5.39641E-002	1.76294E-001	3.57360E+000	9	...........
	110	1.48	1.72091E-001	-8.87551E-005	0.00000E+000	-1.52739E-005	-5.39641E-002	1.72110E-001	3.57360E+000	9	...........
	111	1.49333	1.67930E-001	-8.84779E-005	0.00000E+000	-1.48581E-005	-5.39641E-002	1.67950E-001	3.57360E+000	9	...........
	112	1.50667	1.63796E-001	-8.88197E-005	0.00000E+000	-1.45483E-005	-5.39641E-002	1.63809E-001	3.57360E+000	9	...........
	113	1.52	1.59689E-001	-8.85498E-005	0.00000E+000	-1.41404E-005	-5.39641E-002	1.59704E-001	3.57360E+000	9	...........
	114	1.53333	1.55604E-001	-8.84571E-005	0.00000E+000	-1.37643E-005	-5.39641E-002	1.55617E-001	3.57360E+000	9	...........
	115	1.54667	1.51520E-001	-8.88353E-005	0.00000E+000	-1.34604E-005	-5.39641E-002	1.51531E-001	3.57360E+000	9	...........
	116	1.56	1.47457E-001	-8.87655E-005	0.00000E+000	-1.30891E-005	-5.39641E-002	1.47471E-001	3.57360E+000	9	...........
	117	1.57333	1.43409E-001	-8.88176E-005	0.00000E+000	-1.27372E-005	-5.39641E-002	1.43423E-001	3.57360E+000	9	...........
	118	1.58667	1.39380E-001	-8.85102E-005	0.00000E+000	-1.23365E-005	-5.39641E-002	1.39402E-001	3.57360E+000	9	...........
	119	1.6	1.35354E-001	-8.86822E-005	0.00000E+000	-1.20035E-005	-5.39641E-002	1.35362E-001	3.57360E+000	9	...........
	120	1.61333	1.31336E-001	-8.87144E-005	0.00000E+000	-1.16514E-005	-5.39641E-002	1.31348E-001	3.57360E+000	9	...........
	121	1.62667	1.27338E-001	-8.84644E-005	0.00000E+000	-1.12648E-005	-5.39641E-002	1.27348E-001	3.57360E+000	9	...........
	122	1.64	1.23343E-001	-8.87259E-005	0.00000E+000	-1.09437E-005	-5.39641E-002	1.23361E-001	3.57360E+000	9	...........
	123	1.65333	1.19378E-001	-8.86186E-005	0.00000E+000	-1.05791E-005	-5.39641E-002	1.19391E-001	3.57360E+000	9	...........
	124	1.66667	1.15433E-001	-8.86613E-005	0.00000E+000	-1.02345E-005	-5.39641E-002	1.15446E-001	3.57360E+000	9	...........
	125	1.68	1.11505E-001	-8.87843E-005	0.00000E+000	-9.89989E-006	-5.39641E-002	1.11520E-001	3.57360E+000	9	...........
	126	1.69333	1.07618E-001	-8.88009E-005	0.00000E+000	-9.55659E-006	-5.39641E-002	1.07635E-001	3.57360E+000	9	...........
	127	1.70667	1.03754E-001	-8.88364E-005	0.00000E+000	-9.21711E-006	-5.39641E-002	1.03762E-001	3.57360E+000	9	...........
	128	1.72	9.98729E-002	-8.87134E-005	0.00000E+000	-8.86006E-006	-5.39641E-002	9.98847E-002	3.57360E+000	9	...........
	129	1.73333	9.60009E-002	-8.88697E-005	0.00000E+000	-8.53157E-006	-5.39641E-002	9.60143E-002	3.57360E+000	9	...........
	130	1.74667	9.21562E-002	-8.87957E-005	0.00000E+000	-8.18307E-006	-5.39641E-002	9.21676E-002	3.57322E+000	9	...........
	131	1.76	8.83256E-002	-8.89457E-005	0.00000E+000	-7.85619E-006	-5.39641E-002	8.83319E-002	3.57260E+000	9	...........
	132	1.77333	8.45220E-002	-8.86457E-005	0.00000E+000	-7.49251E-006	-5.39641E-002	8.45280E-002	3.57260E+000	9	...........
	133	1.78667	8.07270E-002	-8.87478E-005	0.00000E+000	-7.16434E-006	-5.39641E-002	8.07291E-002	3.57260E+000	9	...........
	134	1.8	7.69562E-002	-8.87686E-005	0.00000E+000	-6.83129E-006	-5.39641E-002	7.69546E-002	3.57260E+000	9	...........
	135	1.81333	7.32052E-002	-8.87738E-005	0.00000E+000	-6.49870E-006	-5.39641E-002	7.32108E-002	3.57260E+000	9	...........
	136	1.82667	6.94776E-002	-8.88374E-005	0.00000E+000	-6.17221E-006	-5.39641E-002	6.94795E-002	3.57260E+000	9	...........
	137	1.84	6.57548E-002	-8.87301E-005	0.00000E+000	-5.83443E-006	-5.39641E-002	6.57611E-002	3.57260E+000	9	...........
	138	1.85333	6.20401E-002	-8.90114E-005	0.00000E+000	-5.52228E-006	-5.39641E-002	6.20439E-002	3.57260E+000	9	...........
	139	1.86667	5.83366E-002	-8.86030E-005	0.00000E+000	-5.16880E-006	-5.39641E-002	5.83383E-002	3.57260E+000	9	...........
	140	1.88	5.46567E-002	-8.86967E-005	0.00000E+000	-4.84787E-006	-5.39641E-002	5.46575E-002	3.57260E+000	9	...........
	141	1.89333	5.10006E-002	-8.86176E-005	0.00000E+000	-4.51955E-006	-5.39641E-002	5.10040E-002	3.57260E+000	9	...........
	142	1.90667	4.73736E-002	-8.90749E-005	0.00000E+000	-4.21980E-006	-5.39641E-002	4.73824E-002	3.57260E+000	9	...........
	143	1.92	4.37637E-002	-8.89541E-005	0.00000E+000	-3.89296E-006	-5.39641E-002	4.37687E-002	3.57260E+000	9	...........
	144	1.93333	4.01630E-002	-8.89478E-005	0.00000E+000	-3.57241E-006	-5.39641E-002	4.01699E-002	3.57260E+000	9	...........
	145	1.94667	3.65842E-002	-8.86540E-005	0.00000E+000	-3.24333E-006	-5.39641E-002	3.65910E-002	3.57260E+000	9	...........
	146	1.96	3.29915E-002	-8.88655E-005	0.00000E+000	-2.93181E-006	-5.39641E-002	3.29983E-002	3.57260E+000	9	...........
	147	1.97333	2.94219E-002	-8.87363E-005	0.00000E+000	-2.61079E-006	-5.39641E-002	2.94266E-002	3.57260E+000	9	...........
	148	1.98667	2.58547E-002	-8.86196E-005	0.00000E+000	-2.29124E-006	-5.39641E-002	2.58549E-002	3.57260E+000	9	...........
	149	2	2.23047E-002	-8.87415E-005	0.00000E+000	-1.97936E-006	-5.39641E-002	2.23026E-002	3.57260E+000	9	...........
	150	2.01333	1.87770E-002	-8.85050E-005	0.00000E+000	-1.66186E-006	-5.39641E-002	1.87707E-002	3.57260E+000	9	...........
	151	2.02667	1.52426E-002	-8.87999E-005	0.00000E+000	-1.35354E-006	-5.39641E-002	1.52390E-002	3.57260E+000	9	...........
	152	2.04	1.17530E-002	-8.85092E-005	0.00000E+000	-1.04025E-006	-5.39641E-002	1.17482E-002	3.57260E+000	9	...........
	153	2.05333	8.27686E-003	-8.87770E-005	0.00000E+000	-7.34795E-007	-5.39641E-002	8.26907E-003	3.57260E+000	9	...........
	154	2.06667	4.83143E-003	-8.87249E-005	0.00000E+000	-4.28668E-007	-5.39641E-002	4.81681E-003	3.57260E+000	9	...........
	155	2.08	1.41095E-003	-8.87520E-005	0.00000E+000	-1.25224E-007	-5.39641E-002	1.39497E-003	3.57260E+000	9	...........
STARTTIMEOFFSET	QUANT	1351.883	Start Time Offset (s)
