EXPLAIN
TAG	PWR800_DISCHARGE
TITLE	LABEL	PWR Cyclic Charge Discharge (Cell) - Discharge Step	Test &Identifier
DATE	LABEL	10-7-2017	Date
TIME	LABEL	15:54:52	Time
NOTES	NOTES	3	&Notes...
	supercap test cell
	0.9mg
	6M KOH
PSTAT	PSTAT	IFC5000-01520	Potentiostat
CAPACITY	QUANT	1.00000E-003	Capacity (A-hr)
CELLTYPE	SELECTOR	1	&Cell Type
WORKINGCONNECTION	SELECTOR	0	&Working Lead
MAXDISCHARGETIME	VARIABLEANDUNITS	1.00000E+002	s	1.00000E+002	second(s)	Max &Discharge Time
DISCHARGEMODE	MULTIPARAM	0	9.00000E-005	&Discharge Mode	Constant Current	Amp(s)
SAMPLETIME	QUANT	1.00000E-002	Sa&mple Period (s)
DISCHARGESTOPAT1	MULTIPARAM	3	0.00000E+000	Discharge Stop At &1	Voltage < Limit	V
DISCHARGESTOPAT2	MULTIPARAM	0	0.00000E+000	Discharge Stop At &2	None	N/A
AESBHCSELECTOR	TOGGLE	F	Save Both Half Cells
IRCOMP	TOGGLE	F	IR &Measure
EOC	QUANT	0	Open Circuit (V)
SEQUENCER	TOGGLE	TRUE	Run as Sequence
PSTATMODEL	IQUANT	53	Pstat Model
PSTATSECTION	LABEL	IFC5000-01520	Pstat Section
PSTATSERIALNO	LABEL	01520	Pstat Serial Number
CTRLMODE	IQUANT	0	Control Mode
ELECTROMETER	IQUANT	1	RE=0 or CS=1
IESTAB	IQUANT	0	I/E Stability
CASPEED	IQUANT	4	Control Amp Speed
CONVENTION	IQUANT	1	Current Convention
ICHRANGE	IQUANT	2	Ich Range
ICHRANGEMODE	TOGGLE	T	Ich Auto Range
ICHOFFSETENABLE	TOGGLE	F	Ich Offset Enable
ICHOFFSET	QUANT	0	Ich Offset (V)
ICHFILTER	IQUANT	1	Ich Filter
VCHRANGE	IQUANT	2	Vch Range
VCHRANGEMODE	TOGGLE	T	Vch Auto Range
VCHOFFSETENABLE	TOGGLE	F	Vch Offset Enable
VCHOFFSET	QUANT	0	Vch Offset (V)
VCHFILTER	IQUANT	1	Vch Filter
IERANGELOWERLIMIT	IQUANT	9	I/E Range Lower Limit
IERANGEMODE	TOGGLE	F	I/E AutoRange
IERANGE	IQUANT	9	I/E Range
ACHSELECT	IQUANT	1	Ach Select
ACHRANGE	IQUANT	2	Ach Range
ACHOFFSETENABLE	TOGGLE	F	Ach Offset Enable
ACHOFFSET	QUANT	0	Ach Offset (V)
ACHFILTER	IQUANT	1	Ach Filter
CABLEID	IQUANT	14	Cable ID
DCCALDATE	LABEL	5-7-2017	DC Calibration Date
ACCALDATE	LABEL	12/3/2015	AC Calibration Date
FRAMEWORKVERSION	QUANT	7.01	Framework Version
INSTRUMENTVERSION	LABEL	4.00	Instrument Version
CURVE	TABLE	150
	Pt	T	Vf	Im	Vu	Pwr	Sig	Ach	Temp	IERange	Over
	#	s	V	A	V	W	V	V	deg C	#	bits
	0	0.013333	8.10151E-001	-8.89541E-005	0.00000E+000	-7.20662E-005	-5.39641E-002	8.10326E-001	3.57340E+000	9	...........
	1	0.026667	7.96219E-001	-8.85384E-005	0.00000E+000	-7.04960E-005	-5.39641E-002	7.96377E-001	3.57340E+000	9	...........
	2	0.04	7.83211E-001	-8.87738E-005	0.00000E+000	-6.95286E-005	-5.39641E-002	7.83351E-001	3.57340E+000	9	...........
	3	0.053333	7.70935E-001	-8.87040E-005	0.00000E+000	-6.83851E-005	-5.39641E-002	7.71076E-001	3.57340E+000	9	...........
	4	0.066667	7.59283E-001	-8.87686E-005	0.00000E+000	-6.74005E-005	-5.39641E-002	7.59397E-001	3.57340E+000	9	...........
	5	0.08	7.48153E-001	-8.88499E-005	0.00000E+000	-6.64733E-005	-5.39641E-002	7.48244E-001	3.57340E+000	9	...........
	6	0.093333	7.37460E-001	-8.87092E-005	0.00000E+000	-6.54195E-005	-5.39641E-002	7.37536E-001	3.57340E+000	9	...........
	7	0.106667	7.27201E-001	-8.88343E-005	0.00000E+000	-6.46004E-005	-5.39641E-002	7.27293E-001	3.57340E+000	9	...........
	8	0.12	7.17273E-001	-8.88707E-005	0.00000E+000	-6.37446E-005	-5.39641E-002	7.17383E-001	3.57340E+000	9	...........
	9	0.133333	7.07663E-001	-8.85852E-005	0.00000E+000	-6.26885E-005	-5.39641E-002	7.07785E-001	3.57340E+000	9	...........
	10	0.146667	6.98363E-001	-8.85936E-005	0.00000E+000	-6.18705E-005	-5.39641E-002	6.98460E-001	3.57340E+000	9	...........
	11	0.16	6.89315E-001	-8.86342E-005	0.00000E+000	-6.10969E-005	-5.39641E-002	6.89434E-001	3.57340E+000	9	...........
	12	0.173333	6.80532E-001	-8.87916E-005	0.00000E+000	-6.04255E-005	-5.39641E-002	6.80667E-001	3.57340E+000	9	...........
	13	0.186667	6.72025E-001	-8.87759E-005	0.00000E+000	-5.96596E-005	-5.39641E-002	6.72107E-001	3.57340E+000	9	...........
	14	0.2	6.63654E-001	-8.88374E-005	0.00000E+000	-5.89573E-005	-5.39641E-002	6.63774E-001	3.57340E+000	9	...........
	15	0.213333	6.55480E-001	-8.87801E-005	0.00000E+000	-5.81936E-005	-5.39641E-002	6.55603E-001	3.57340E+000	9	...........
	16	0.226667	6.47523E-001	-8.89458E-005	0.00000E+000	-5.75944E-005	-5.39641E-002	6.47642E-001	3.57340E+000	9	...........
	17	0.24	6.39757E-001	-8.87467E-005	0.00000E+000	-5.67763E-005	-5.39641E-002	6.39873E-001	3.57340E+000	9	...........
	18	0.253333	6.32130E-001	-8.87780E-005	0.00000E+000	-5.61192E-005	-5.39641E-002	6.32234E-001	3.57340E+000	9	...........
	19	0.266667	6.24672E-001	-8.88968E-005	0.00000E+000	-5.55314E-005	-5.39641E-002	6.24766E-001	3.57340E+000	9	...........
	20	0.28	6.17376E-001	-8.89353E-005	0.00000E+000	-5.49065E-005	-5.39641E-002	6.17439E-001	3.57340E+000	9	...........
	21	0.293333	6.10096E-001	-8.87322E-005	0.00000E+000	-5.41351E-005	-5.39641E-002	6.10212E-001	3.57340E+000	9	...........
	22	0.306667	6.03062E-001	-8.88155E-005	0.00000E+000	-5.35612E-005	-5.39641E-002	6.03187E-001	3.57340E+000	9	...........
	23	0.32	5.96133E-001	-8.87478E-005	0.00000E+000	-5.29055E-005	-5.39641E-002	5.96251E-001	3.57340E+000	9	...........
	24	0.333333	5.89332E-001	-8.87822E-005	0.00000E+000	-5.23222E-005	-5.39641E-002	5.89438E-001	3.57340E+000	9	...........
	25	0.346667	5.82584E-001	-8.87811E-005	0.00000E+000	-5.17225E-005	-5.39641E-002	5.82718E-001	3.57340E+000	9	...........
	26	0.36	5.75993E-001	-8.86697E-005	0.00000E+000	-5.10731E-005	-5.39641E-002	5.76098E-001	3.57340E+000	9	...........
	27	0.373333	5.69494E-001	-8.87176E-005	0.00000E+000	-5.05242E-005	-5.39641E-002	5.69605E-001	3.57340E+000	9	...........
	28	0.386667	5.63060E-001	-8.86488E-005	0.00000E+000	-4.99146E-005	-5.39641E-002	5.63186E-001	3.57340E+000	9	...........
	29	0.4	5.56708E-001	-8.87645E-005	0.00000E+000	-4.94159E-005	-5.39641E-002	5.56824E-001	3.57340E+000	9	...........
	30	0.413333	5.50445E-001	-8.86592E-005	0.00000E+000	-4.88020E-005	-5.39641E-002	5.50571E-001	3.57340E+000	9	...........
	31	0.426667	5.44273E-001	-8.87718E-005	0.00000E+000	-4.83160E-005	-5.39641E-002	5.44381E-001	3.57340E+000	9	...........
	32	0.44	5.38190E-001	-8.87353E-005	0.00000E+000	-4.77565E-005	-5.39641E-002	5.38304E-001	3.57340E+000	9	...........
	33	0.453333	5.32117E-001	-8.86999E-005	0.00000E+000	-4.71987E-005	-5.39641E-002	5.32232E-001	3.57340E+000	9	...........
	34	0.466667	5.26141E-001	-8.89718E-005	0.00000E+000	-4.68117E-005	-5.39641E-002	5.26269E-001	3.57340E+000	9	...........
	35	0.48	5.20242E-001	-8.89176E-005	0.00000E+000	-4.62587E-005	-5.39641E-002	5.20341E-001	3.57340E+000	9	...........
	36	0.493333	5.14420E-001	-8.86738E-005	0.00000E+000	-4.56156E-005	-5.39641E-002	5.14503E-001	3.57340E+000	9	...........
	37	0.506667	5.08541E-001	-8.87561E-005	0.00000E+000	-4.51361E-005	-5.39641E-002	5.08690E-001	3.57340E+000	9	...........
	38	0.52	5.02798E-001	-8.88572E-005	0.00000E+000	-4.46773E-005	-5.39641E-002	5.02939E-001	3.57340E+000	9	...........
	39	0.533333	4.97135E-001	-8.88301E-005	0.00000E+000	-4.41606E-005	-5.39641E-002	4.97268E-001	3.57340E+000	9	...........
	40	0.546667	4.91534E-001	-8.88113E-005	0.00000E+000	-4.36538E-005	-5.39641E-002	4.91653E-001	3.57340E+000	9	...........
	41	0.56	4.85981E-001	-8.86551E-005	0.00000E+000	-4.30847E-005	-5.39641E-002	4.86087E-001	3.57340E+000	9	...........
	42	0.573333	4.80497E-001	-8.87228E-005	0.00000E+000	-4.26310E-005	-5.39641E-002	4.80570E-001	3.57340E+000	9	...........
	43	0.586667	4.74994E-001	-8.85613E-005	0.00000E+000	-4.20661E-005	-5.39641E-002	4.75059E-001	3.57340E+000	9	...........
	44	0.6	4.69523E-001	-8.87874E-005	0.00000E+000	-4.16877E-005	-5.39641E-002	4.69583E-001	3.57340E+000	9	...........
	45	0.613333	4.64079E-001	-8.87676E-005	0.00000E+000	-4.11952E-005	-5.39641E-002	4.64141E-001	3.57340E+000	9	...........
	46	0.626667	4.58662E-001	-8.86478E-005	0.00000E+000	-4.06594E-005	-5.39641E-002	4.58729E-001	3.57340E+000	9	...........
	47	0.64	4.53272E-001	-8.87718E-005	0.00000E+000	-4.02377E-005	-5.39641E-002	4.53332E-001	3.57340E+000	9	...........
	48	0.653333	4.47934E-001	-8.90010E-005	0.00000E+000	-3.98665E-005	-5.39641E-002	4.47998E-001	3.57340E+000	9	...........
	49	0.666667	4.42635E-001	-8.88593E-005	0.00000E+000	-3.93322E-005	-5.39641E-002	4.42696E-001	3.57340E+000	9	...........
	50	0.68	4.37357E-001	-8.85832E-005	0.00000E+000	-3.87425E-005	-5.39641E-002	4.37411E-001	3.57340E+000	9	...........
	51	0.693333	4.32095E-001	-8.86363E-005	0.00000E+000	-3.82993E-005	-5.39641E-002	4.32149E-001	3.57340E+000	9	...........
	52	0.706667	4.26851E-001	-8.87436E-005	0.00000E+000	-3.78803E-005	-5.39641E-002	4.26906E-001	3.57340E+000	9	...........
	53	0.72	4.21643E-001	-8.89749E-005	0.00000E+000	-3.75156E-005	-5.39641E-002	4.21699E-001	3.57340E+000	9	...........
	54	0.733333	4.16453E-001	-8.89697E-005	0.00000E+000	-3.70517E-005	-5.39641E-002	4.16510E-001	3.57340E+000	9	...........
	55	0.746667	4.11288E-001	-8.85665E-005	0.00000E+000	-3.64264E-005	-5.39641E-002	4.11340E-001	3.57340E+000	9	...........
	56	0.76	4.06142E-001	-8.87957E-005	0.00000E+000	-3.60636E-005	-5.39641E-002	4.06194E-001	3.57340E+000	9	...........
	57	0.773333	4.01021E-001	-8.88103E-005	0.00000E+000	-3.56148E-005	-5.39641E-002	4.01070E-001	3.57340E+000	9	...........
	58	0.786667	3.95911E-001	-8.87832E-005	0.00000E+000	-3.51502E-005	-5.39641E-002	3.95958E-001	3.57340E+000	9	...........
	59	0.8	3.90819E-001	-8.87363E-005	0.00000E+000	-3.46799E-005	-5.39641E-002	3.90869E-001	3.57340E+000	9	...........
	60	0.813333	3.85733E-001	-8.87540E-005	0.00000E+000	-3.42353E-005	-5.39641E-002	3.85785E-001	3.57340E+000	9	...........
	61	0.826667	3.80671E-001	-8.86947E-005	0.00000E+000	-3.37635E-005	-5.39641E-002	3.80721E-001	3.57340E+000	9	...........
	62	0.84	3.75620E-001	-8.87645E-005	0.00000E+000	-3.33417E-005	-5.39641E-002	3.75671E-001	3.57340E+000	9	...........
	63	0.853333	3.70579E-001	-8.88791E-005	0.00000E+000	-3.29367E-005	-5.39641E-002	3.70630E-001	3.57340E+000	9	...........
	64	0.866667	3.65569E-001	-8.86999E-005	0.00000E+000	-3.24259E-005	-5.39641E-002	3.65619E-001	3.57340E+000	9	...........
	65	0.88	3.60559E-001	-8.86769E-005	0.00000E+000	-3.19733E-005	-5.39641E-002	3.60616E-001	3.57340E+000	9	...........
	66	0.893333	3.55582E-001	-8.87395E-005	0.00000E+000	-3.15542E-005	-5.39641E-002	3.55626E-001	3.57348E+000	9	...........
	67	0.906667	3.50603E-001	-8.87207E-005	0.00000E+000	-3.11058E-005	-5.39641E-002	3.50649E-001	3.57400E+000	9	...........
	68	0.92	3.45640E-001	-8.87290E-005	0.00000E+000	-3.06683E-005	-5.39641E-002	3.45681E-001	3.57400E+000	9	...........
	69	0.933333	3.40702E-001	-8.86780E-005	0.00000E+000	-3.02128E-005	-5.39641E-002	3.40745E-001	3.57400E+000	9	...........
	70	0.946667	3.35762E-001	-8.89155E-005	0.00000E+000	-2.98545E-005	-5.39641E-002	3.35806E-001	3.57400E+000	9	...........
	71	0.96	3.30838E-001	-8.86655E-005	0.00000E+000	-2.93339E-005	-5.39641E-002	3.30879E-001	3.57400E+000	9	...........
	72	0.97333	3.25941E-001	-8.87509E-005	0.00000E+000	-2.89276E-005	-5.39641E-002	3.25978E-001	3.57400E+000	9	...........
	73	0.98667	3.21048E-001	-8.87759E-005	0.00000E+000	-2.85014E-005	-5.39641E-002	3.21086E-001	3.57400E+000	9	...........
	74	1	3.16166E-001	-8.87499E-005	0.00000E+000	-2.80597E-005	-5.39641E-002	3.16204E-001	3.57400E+000	9	...........
	75	1.01333	3.11297E-001	-8.84498E-005	0.00000E+000	-2.75341E-005	-5.39641E-002	3.11337E-001	3.57400E+000	9	...........
	76	1.02667	3.06452E-001	-8.87144E-005	0.00000E+000	-2.71868E-005	-5.39641E-002	3.06491E-001	3.57400E+000	9	...........
	77	1.04	3.01629E-001	-8.86780E-005	0.00000E+000	-2.67479E-005	-5.39641E-002	3.01669E-001	3.57400E+000	9	...........
	78	1.05333	2.96814E-001	-8.89270E-005	0.00000E+000	-2.63948E-005	-5.39641E-002	2.96851E-001	3.57400E+000	9	...........
	79	1.06667	2.92002E-001	-8.86947E-005	0.00000E+000	-2.58991E-005	-5.39641E-002	2.92036E-001	3.57400E+000	9	...........
	80	1.08	2.87201E-001	-8.86561E-005	0.00000E+000	-2.54621E-005	-5.39641E-002	2.87240E-001	3.57400E+000	9	...........
	81	1.09333	2.82426E-001	-8.85644E-005	0.00000E+000	-2.50129E-005	-5.39641E-002	2.82466E-001	3.57400E+000	9	...........
	82	1.10667	2.77667E-001	-8.88176E-005	0.00000E+000	-2.46617E-005	-5.39641E-002	2.77701E-001	3.57400E+000	9	...........
	83	1.12	2.72924E-001	-8.90572E-005	0.00000E+000	-2.43058E-005	-5.39641E-002	2.72962E-001	3.57400E+000	9	...........
	84	1.13333	2.68206E-001	-8.87478E-005	0.00000E+000	-2.38027E-005	-5.39641E-002	2.68241E-001	3.57400E+000	9	...........
	85	1.14667	2.63504E-001	-8.89437E-005	0.00000E+000	-2.34370E-005	-5.39641E-002	2.63539E-001	3.57400E+000	9	...........
	86	1.16	2.58806E-001	-8.86978E-005	0.00000E+000	-2.29555E-005	-5.39641E-002	2.58839E-001	3.57400E+000	9	...........
	87	1.17333	2.54131E-001	-8.87259E-005	0.00000E+000	-2.25480E-005	-5.39641E-002	2.54162E-001	3.57400E+000	9	...........
	88	1.18667	2.49483E-001	-8.85978E-005	0.00000E+000	-2.21036E-005	-5.39641E-002	2.49518E-001	3.57400E+000	9	...........
	89	1.2	2.44862E-001	-8.89395E-005	0.00000E+000	-2.17779E-005	-5.39641E-002	2.44889E-001	3.57400E+000	9	...........
	90	1.21333	2.40246E-001	-8.88957E-005	0.00000E+000	-2.13568E-005	-5.39641E-002	2.40271E-001	3.57400E+000	9	...........
	91	1.22667	2.35644E-001	-8.88259E-005	0.00000E+000	-2.09313E-005	-5.39641E-002	2.35667E-001	3.57400E+000	9	...........
	92	1.24	2.31049E-001	-8.88395E-005	0.00000E+000	-2.05263E-005	-5.39641E-002	2.31076E-001	3.57400E+000	9	...........
	93	1.25333	2.26475E-001	-8.88280E-005	0.00000E+000	-2.01173E-005	-5.39641E-002	2.26502E-001	3.57400E+000	9	...........
	94	1.26667	2.21911E-001	-8.87832E-005	0.00000E+000	-1.97020E-005	-5.39641E-002	2.21935E-001	3.57400E+000	9	...........
	95	1.28	2.17377E-001	-8.88666E-005	0.00000E+000	-1.93176E-005	-5.39641E-002	2.17399E-001	3.57400E+000	9	...........
	96	1.29333	2.12871E-001	-8.88166E-005	0.00000E+000	-1.89065E-005	-5.39641E-002	2.12891E-001	3.57400E+000	9	...........
	97	1.30667	2.08375E-001	-8.86290E-005	0.00000E+000	-1.84680E-005	-5.39641E-002	2.08395E-001	3.57400E+000	9	...........
	98	1.32	2.03891E-001	-8.88614E-005	0.00000E+000	-1.81181E-005	-5.39641E-002	2.03915E-001	3.57400E+000	9	...........
	99	1.33333	1.99432E-001	-8.88395E-005	0.00000E+000	-1.77174E-005	-5.39641E-002	1.99454E-001	3.57400E+000	9	...........
	100	1.34667	1.95002E-001	-8.87061E-005	0.00000E+000	-1.72979E-005	-5.39641E-002	1.95022E-001	3.57400E+000	9	...........
	101	1.36	1.90596E-001	-8.87478E-005	0.00000E+000	-1.69150E-005	-5.39641E-002	1.90617E-001	3.57400E+000	9	...........
	102	1.37333	1.86218E-001	-8.88718E-005	0.00000E+000	-1.65495E-005	-5.39641E-002	1.86233E-001	3.57400E+000	9	...........
	103	1.38667	1.81823E-001	-8.87947E-005	0.00000E+000	-1.61449E-005	-5.39641E-002	1.81842E-001	3.57400E+000	9	...........
	104	1.4	1.77468E-001	-8.88353E-005	0.00000E+000	-1.57655E-005	-5.39641E-002	1.77482E-001	3.57400E+000	9	...........
	105	1.41333	1.73129E-001	-8.90958E-005	0.00000E+000	-1.54251E-005	-5.39641E-002	1.73143E-001	3.57400E+000	9	...........
	106	1.42667	1.68810E-001	-8.88311E-005	0.00000E+000	-1.49956E-005	-5.39641E-002	1.68826E-001	3.57400E+000	9	...........
	107	1.44	1.64513E-001	-8.86790E-005	0.00000E+000	-1.45889E-005	-5.39641E-002	1.64529E-001	3.57400E+000	9	...........
	108	1.45333	1.60231E-001	-8.88301E-005	0.00000E+000	-1.42333E-005	-5.39641E-002	1.60242E-001	3.57400E+000	9	...........
	109	1.46667	1.55978E-001	-8.86384E-005	0.00000E+000	-1.38256E-005	-5.39641E-002	1.55987E-001	3.57400E+000	9	...........
	110	1.48	1.51749E-001	-8.90020E-005	0.00000E+000	-1.35060E-005	-5.39641E-002	1.51762E-001	3.57400E+000	9	...........
	111	1.49333	1.47528E-001	-8.89530E-005	0.00000E+000	-1.31230E-005	-5.39641E-002	1.47543E-001	3.57400E+000	9	...........
	112	1.50667	1.43322E-001	-8.87634E-005	0.00000E+000	-1.27217E-005	-5.39641E-002	1.43336E-001	3.57400E+000	9	...........
	113	1.52	1.39130E-001	-8.88093E-005	0.00000E+000	-1.23560E-005	-5.39641E-002	1.39144E-001	3.57400E+000	9	...........
	114	1.53333	1.34966E-001	-8.84373E-005	0.00000E+000	-1.19360E-005	-5.39641E-002	1.34976E-001	3.57400E+000	9	...........
	115	1.54667	1.30804E-001	-8.87572E-005	0.00000E+000	-1.16098E-005	-5.39641E-002	1.30816E-001	3.57400E+000	9	...........
	116	1.56	1.26665E-001	-8.86738E-005	0.00000E+000	-1.12319E-005	-5.39641E-002	1.26679E-001	3.57400E+000	9	...........
	117	1.57333	1.22554E-001	-8.87353E-005	0.00000E+000	-1.08748E-005	-5.39641E-002	1.22567E-001	3.57400E+000	9	...........
	118	1.58667	1.18455E-001	-8.89468E-005	0.00000E+000	-1.05362E-005	-5.39641E-002	1.18471E-001	3.57400E+000	9	...........
	119	1.6	1.14371E-001	-8.88426E-005	0.00000E+000	-1.01610E-005	-5.39641E-002	1.14384E-001	3.57400E+000	9	...........
	120	1.61333	1.10316E-001	-8.86478E-005	0.00000E+000	-9.77925E-006	-5.39641E-002	1.10330E-001	3.57400E+000	9	...........
	121	1.62667	1.06271E-001	-8.88749E-005	0.00000E+000	-9.44481E-006	-5.39641E-002	1.06284E-001	3.57400E+000	9	...........
	122	1.64	1.02234E-001	-8.86488E-005	0.00000E+000	-9.06293E-006	-5.39641E-002	1.02248E-001	3.57400E+000	9	...........
	123	1.65333	9.82191E-002	-8.87853E-005	0.00000E+000	-8.72042E-006	-5.39641E-002	9.82260E-002	3.57400E+000	9	...........
	124	1.66667	9.42132E-002	-8.85082E-005	0.00000E+000	-8.33863E-006	-5.39641E-002	9.42199E-002	3.57400E+000	9	...........
	125	1.68	9.02338E-002	-8.87092E-005	0.00000E+000	-8.00457E-006	-5.39641E-002	9.02397E-002	3.57400E+000	9	...........
	126	1.69333	8.62731E-002	-8.83863E-005	0.00000E+000	-7.62536E-006	-5.39641E-002	8.62824E-002	3.57400E+000	9	...........
	127	1.70667	8.23423E-002	-8.84748E-005	0.00000E+000	-7.28522E-006	-5.39641E-002	8.23494E-002	3.57400E+000	9	...........
	128	1.72	7.84203E-002	-8.85186E-005	0.00000E+000	-6.94165E-006	-5.39641E-002	7.84231E-002	3.57400E+000	9	...........
	129	1.73333	7.45042E-002	-8.87030E-005	0.00000E+000	-6.60874E-006	-5.39641E-002	7.45050E-002	3.57400E+000	9	...........
	130	1.74667	7.06082E-002	-8.89082E-005	0.00000E+000	-6.27765E-006	-5.39641E-002	7.06088E-002	3.57400E+000	9	...........
	131	1.76	6.67210E-002	-8.87103E-005	0.00000E+000	-5.91884E-006	-5.39641E-002	6.67203E-002	3.57400E+000	9	...........
	132	1.77333	6.28569E-002	-8.87165E-005	0.00000E+000	-5.57645E-006	-5.39641E-002	6.28555E-002	3.57400E+000	9	...........
	133	1.78667	5.90167E-002	-8.87290E-005	0.00000E+000	-5.23650E-006	-5.39641E-002	5.90196E-002	3.57400E+000	9	...........
	134	1.8	5.52034E-002	-8.89739E-005	0.00000E+000	-4.91166E-006	-5.39641E-002	5.52001E-002	3.57400E+000	9	...........
	135	1.81333	5.14001E-002	-8.86353E-005	0.00000E+000	-4.55586E-006	-5.39641E-002	5.13965E-002	3.57400E+000	9	...........
	136	1.82667	4.76245E-002	-8.87759E-005	0.00000E+000	-4.22790E-006	-5.39641E-002	4.76338E-002	3.57400E+000	9	...........
	137	1.84	4.38668E-002	-8.88634E-005	0.00000E+000	-3.89815E-006	-5.39641E-002	4.38774E-002	3.57400E+000	9	...........
	138	1.85333	4.01162E-002	-8.87759E-005	0.00000E+000	-3.56135E-006	-5.39641E-002	4.01188E-002	3.57400E+000	9	...........
	139	1.86667	3.63758E-002	-8.86540E-005	0.00000E+000	-3.22486E-006	-5.39641E-002	3.63828E-002	3.57400E+000	9	...........
	140	1.88	3.26767E-002	-8.87499E-005	0.00000E+000	-2.90005E-006	-5.39641E-002	3.26777E-002	3.57400E+000	9	...........
	141	1.89333	2.89841E-002	-8.88884E-005	0.00000E+000	-2.57635E-006	-5.39641E-002	2.89850E-002	3.57392E+000	9	...........
	142	1.90667	2.53167E-002	-8.86967E-005	0.00000E+000	-2.24551E-006	-5.39641E-002	2.53166E-002	3.57340E+000	9	...........
	143	1.92	2.16623E-002	-8.86259E-005	0.00000E+000	-1.91984E-006	-5.39641E-002	2.16584E-002	3.57340E+000	9	...........
	144	1.93333	1.80303E-002	-8.85227E-005	0.00000E+000	-1.59609E-006	-5.39641E-002	1.80301E-002	3.57340E+000	9	...........
	145	1.94667	1.44207E-002	-8.86842E-005	0.00000E+000	-1.27889E-006	-5.39641E-002	1.44107E-002	3.57340E+000	9	...........
	146	1.96	1.08168E-002	-8.85363E-005	0.00000E+000	-9.57680E-007	-5.39641E-002	1.08025E-002	3.57340E+000	9	...........
	147	1.97333	7.21099E-003	-8.86978E-005	0.00000E+000	-6.39599E-007	-5.39641E-002	7.20012E-003	3.57340E+000	9	...........
	148	1.98667	3.63274E-003	-8.88426E-005	0.00000E+000	-3.22742E-007	-5.39641E-002	3.61902E-003	3.57340E+000	9	...........
	149	1.995	7.42864E-004	-8.93267E-005	0.00000E+000	-6.63576E-008	-5.39641E-002	7.28645E-004	3.57340E+000	9	...........
STARTTIMEOFFSET	QUANT	2808.501	Start Time Offset (s)
