EXPLAIN
TAG	PWR800_DISCHARGE
TITLE	LABEL	PWR Cyclic Charge Discharge (Cell) - Discharge Step	Test &Identifier
DATE	LABEL	10-7-2017	Date
TIME	LABEL	15:21:48	Time
NOTES	NOTES	3	&Notes...
	supercap test cell
	0.9mg
	6M KOH
PSTAT	PSTAT	IFC5000-01520	Potentiostat
CAPACITY	QUANT	1.00000E-003	Capacity (A-hr)
CELLTYPE	SELECTOR	1	&Cell Type
WORKINGCONNECTION	SELECTOR	0	&Working Lead
MAXDISCHARGETIME	VARIABLEANDUNITS	1.00000E+002	s	1.00000E+002	second(s)	Max &Discharge Time
DISCHARGEMODE	MULTIPARAM	0	9.00000E-005	&Discharge Mode	Constant Current	Amp(s)
SAMPLETIME	QUANT	1.00000E-002	Sa&mple Period (s)
DISCHARGESTOPAT1	MULTIPARAM	3	0.00000E+000	Discharge Stop At &1	Voltage < Limit	V
DISCHARGESTOPAT2	MULTIPARAM	0	0.00000E+000	Discharge Stop At &2	None	N/A
AESBHCSELECTOR	TOGGLE	F	Save Both Half Cells
IRCOMP	TOGGLE	F	IR &Measure
EOC	QUANT	0	Open Circuit (V)
SEQUENCER	TOGGLE	TRUE	Run as Sequence
PSTATMODEL	IQUANT	53	Pstat Model
PSTATSECTION	LABEL	IFC5000-01520	Pstat Section
PSTATSERIALNO	LABEL	01520	Pstat Serial Number
CTRLMODE	IQUANT	0	Control Mode
ELECTROMETER	IQUANT	1	RE=0 or CS=1
IESTAB	IQUANT	0	I/E Stability
CASPEED	IQUANT	4	Control Amp Speed
CONVENTION	IQUANT	1	Current Convention
ICHRANGE	IQUANT	2	Ich Range
ICHRANGEMODE	TOGGLE	T	Ich Auto Range
ICHOFFSETENABLE	TOGGLE	F	Ich Offset Enable
ICHOFFSET	QUANT	0	Ich Offset (V)
ICHFILTER	IQUANT	1	Ich Filter
VCHRANGE	IQUANT	2	Vch Range
VCHRANGEMODE	TOGGLE	T	Vch Auto Range
VCHOFFSETENABLE	TOGGLE	F	Vch Offset Enable
VCHOFFSET	QUANT	0	Vch Offset (V)
VCHFILTER	IQUANT	1	Vch Filter
IERANGELOWERLIMIT	IQUANT	9	I/E Range Lower Limit
IERANGEMODE	TOGGLE	F	I/E AutoRange
IERANGE	IQUANT	9	I/E Range
ACHSELECT	IQUANT	1	Ach Select
ACHRANGE	IQUANT	2	Ach Range
ACHOFFSETENABLE	TOGGLE	F	Ach Offset Enable
ACHOFFSET	QUANT	0	Ach Offset (V)
ACHFILTER	IQUANT	1	Ach Filter
CABLEID	IQUANT	14	Cable ID
DCCALDATE	LABEL	5-7-2017	DC Calibration Date
ACCALDATE	LABEL	12/3/2015	AC Calibration Date
FRAMEWORKVERSION	QUANT	7.01	Framework Version
INSTRUMENTVERSION	LABEL	4.00	Instrument Version
CURVE	TABLE	158
	Pt	T	Vf	Im	Vu	Pwr	Sig	Ach	Temp	IERange	Over
	#	s	V	A	V	W	V	V	deg C	#	bits
	0	0.013333	8.22585E-001	-8.84467E-005	0.00000E+000	-7.27550E-005	-5.39641E-002	8.22718E-001	3.57240E+000	9	...........
	1	0.026667	8.09842E-001	-8.85852E-005	0.00000E+000	-7.17401E-005	-5.39641E-002	8.09988E-001	3.57240E+000	9	...........
	2	0.04	7.97926E-001	-8.87134E-005	0.00000E+000	-7.07868E-005	-5.39641E-002	7.98062E-001	3.57240E+000	9	...........
	3	0.053333	7.86583E-001	-8.89478E-005	0.00000E+000	-6.99649E-005	-5.39641E-002	7.86717E-001	3.57240E+000	9	...........
	4	0.066667	7.75766E-001	-8.86915E-005	0.00000E+000	-6.88038E-005	-5.39641E-002	7.75925E-001	3.57240E+000	9	...........
	5	0.08	7.65394E-001	-8.85540E-005	0.00000E+000	-6.77787E-005	-5.39641E-002	7.65562E-001	3.57240E+000	9	...........
	6	0.093333	7.55412E-001	-8.87697E-005	0.00000E+000	-6.70577E-005	-5.39641E-002	7.55552E-001	3.57240E+000	9	...........
	7	0.106667	7.45772E-001	-8.87259E-005	0.00000E+000	-6.61693E-005	-5.39641E-002	7.45928E-001	3.57240E+000	9	...........
	8	0.12	7.36412E-001	-8.85498E-005	0.00000E+000	-6.52092E-005	-5.39641E-002	7.36544E-001	3.57240E+000	9	...........
	9	0.133333	7.27372E-001	-8.88124E-005	0.00000E+000	-6.45996E-005	-5.39641E-002	7.27498E-001	3.57240E+000	9	...........
	10	0.146667	7.18557E-001	-8.89843E-005	0.00000E+000	-6.39403E-005	-5.39641E-002	7.18681E-001	3.57240E+000	9	...........
	11	0.16	7.09943E-001	-8.89864E-005	0.00000E+000	-6.31752E-005	-5.39641E-002	7.10056E-001	3.57240E+000	9	...........
	12	0.173333	7.01593E-001	-8.87363E-005	0.00000E+000	-6.22568E-005	-5.39641E-002	7.01697E-001	3.57240E+000	9	...........
	13	0.186667	6.93401E-001	-8.87561E-005	0.00000E+000	-6.15436E-005	-5.39641E-002	6.93509E-001	3.57240E+000	9	...........
	14	0.2	6.85403E-001	-8.88655E-005	0.00000E+000	-6.09087E-005	-5.39641E-002	6.85492E-001	3.57240E+000	9	...........
	15	0.213333	6.77602E-001	-8.86863E-005	0.00000E+000	-6.00940E-005	-5.39641E-002	6.77689E-001	3.57240E+000	9	...........
	16	0.226667	6.69933E-001	-8.84540E-005	0.00000E+000	-5.92582E-005	-5.39641E-002	6.70020E-001	3.57240E+000	9	...........
	17	0.24	6.62403E-001	-8.87478E-005	0.00000E+000	-5.87868E-005	-5.39641E-002	6.62475E-001	3.57240E+000	9	...........
	18	0.253333	6.55014E-001	-8.87384E-005	0.00000E+000	-5.81249E-005	-5.39641E-002	6.55094E-001	3.57240E+000	9	...........
	19	0.266667	6.47770E-001	-8.87801E-005	0.00000E+000	-5.75090E-005	-5.39641E-002	6.47819E-001	3.57240E+000	9	...........
	20	0.28	6.40663E-001	-8.88186E-005	0.00000E+000	-5.69028E-005	-5.39641E-002	6.40734E-001	3.57240E+000	9	...........
	21	0.293333	6.33659E-001	-8.89062E-005	0.00000E+000	-5.63362E-005	-5.39641E-002	6.33701E-001	3.57240E+000	9	...........
	22	0.306667	6.26766E-001	-8.86217E-005	0.00000E+000	-5.55450E-005	-5.39641E-002	6.26833E-001	3.57240E+000	9	...........
	23	0.32	6.20017E-001	-8.86624E-005	0.00000E+000	-5.49721E-005	-5.39641E-002	6.20063E-001	3.57240E+000	9	...........
	24	0.333333	6.13288E-001	-8.88905E-005	0.00000E+000	-5.45155E-005	-5.39641E-002	6.13370E-001	3.57240E+000	9	...........
	25	0.346667	6.06681E-001	-8.87019E-005	0.00000E+000	-5.38138E-005	-5.39641E-002	6.06796E-001	3.57240E+000	9	...........
	26	0.36	6.00208E-001	-8.89332E-005	0.00000E+000	-5.33785E-005	-5.39641E-002	6.00325E-001	3.57240E+000	9	...........
	27	0.373333	5.93811E-001	-8.88343E-005	0.00000E+000	-5.27508E-005	-5.39641E-002	5.93903E-001	3.57240E+000	9	...........
	28	0.386667	5.87482E-001	-8.86790E-005	0.00000E+000	-5.20974E-005	-5.39641E-002	5.87586E-001	3.57240E+000	9	...........
	29	0.4	5.81215E-001	-8.90447E-005	0.00000E+000	-5.17541E-005	-5.39641E-002	5.81338E-001	3.57240E+000	9	...........
	30	0.413333	5.75050E-001	-8.87592E-005	0.00000E+000	-5.10410E-005	-5.39641E-002	5.75143E-001	3.57240E+000	9	...........
	31	0.426667	5.68958E-001	-8.86811E-005	0.00000E+000	-5.04558E-005	-5.39641E-002	5.69015E-001	3.57240E+000	9	...........
	32	0.44	5.62836E-001	-8.85748E-005	0.00000E+000	-4.98531E-005	-5.39641E-002	5.62948E-001	3.57240E+000	9	...........
	33	0.453333	5.56825E-001	-8.86936E-005	0.00000E+000	-4.93868E-005	-5.39641E-002	5.56905E-001	3.57240E+000	9	...........
	34	0.466667	5.50898E-001	-8.84071E-005	0.00000E+000	-4.87032E-005	-5.39641E-002	5.50980E-001	3.57240E+000	9	...........
	35	0.48	5.45033E-001	-8.84186E-005	0.00000E+000	-4.81910E-005	-5.39641E-002	5.45089E-001	3.57240E+000	9	...........
	36	0.493333	5.39212E-001	-8.89082E-005	0.00000E+000	-4.79404E-005	-5.39641E-002	5.39276E-001	3.57240E+000	9	...........
	37	0.506667	5.33370E-001	-8.88582E-005	0.00000E+000	-4.73943E-005	-5.39641E-002	5.33459E-001	3.57240E+000	9	...........
	38	0.52	5.27613E-001	-8.87697E-005	0.00000E+000	-4.68360E-005	-5.39641E-002	5.27702E-001	3.57240E+000	9	...........
	39	0.533333	5.21913E-001	-8.89551E-005	0.00000E+000	-4.64268E-005	-5.39641E-002	5.21989E-001	3.57240E+000	9	...........
	40	0.546667	5.16292E-001	-8.86280E-005	0.00000E+000	-4.57579E-005	-5.39641E-002	5.16360E-001	3.57240E+000	9	...........
	41	0.56	5.10649E-001	-8.86259E-005	0.00000E+000	-4.52567E-005	-5.39641E-002	5.10738E-001	3.57240E+000	9	...........
	42	0.573333	5.05031E-001	-8.86644E-005	0.00000E+000	-4.47783E-005	-5.39641E-002	5.05144E-001	3.57240E+000	9	...........
	43	0.586667	4.99502E-001	-8.88103E-005	0.00000E+000	-4.43609E-005	-5.39641E-002	4.99610E-001	3.57240E+000	9	...........
	44	0.6	4.93983E-001	-8.87499E-005	0.00000E+000	-4.38409E-005	-5.39641E-002	4.94124E-001	3.57240E+000	9	...........
	45	0.613333	4.88542E-001	-8.87134E-005	0.00000E+000	-4.33402E-005	-5.39641E-002	4.88616E-001	3.57240E+000	9	...........
	46	0.626667	4.83139E-001	-8.89822E-005	0.00000E+000	-4.29908E-005	-5.39641E-002	4.83197E-001	3.57240E+000	9	...........
	47	0.64	4.77730E-001	-8.87092E-005	0.00000E+000	-4.23791E-005	-5.39641E-002	4.77788E-001	3.57240E+000	9	...........
	48	0.653333	4.72339E-001	-8.86676E-005	0.00000E+000	-4.18811E-005	-5.39641E-002	4.72398E-001	3.57240E+000	9	...........
	49	0.666667	4.66959E-001	-8.88186E-005	0.00000E+000	-4.14746E-005	-5.39641E-002	4.67019E-001	3.57240E+000	9	...........
	50	0.68	4.61607E-001	-8.88416E-005	0.00000E+000	-4.10099E-005	-5.39641E-002	4.61665E-001	3.57240E+000	9	...........
	51	0.693333	4.56287E-001	-8.85759E-005	0.00000E+000	-4.04161E-005	-5.39641E-002	4.56346E-001	3.57240E+000	9	...........
	52	0.706667	4.50996E-001	-8.84238E-005	0.00000E+000	-3.98787E-005	-5.39641E-002	4.51056E-001	3.57240E+000	9	...........
	53	0.72	4.45713E-001	-8.86624E-005	0.00000E+000	-3.95180E-005	-5.39641E-002	4.45771E-001	3.57240E+000	9	...........
	54	0.733333	4.40463E-001	-8.84998E-005	0.00000E+000	-3.89809E-005	-5.39641E-002	4.40516E-001	3.57240E+000	9	...........
	55	0.746667	4.35224E-001	-8.86780E-005	0.00000E+000	-3.85948E-005	-5.39641E-002	4.35273E-001	3.57240E+000	9	...........
	56	0.76	4.30012E-001	-8.88405E-005	0.00000E+000	-3.82025E-005	-5.39641E-002	4.30059E-001	3.57240E+000	9	...........
	57	0.773333	4.24814E-001	-8.86384E-005	0.00000E+000	-3.76548E-005	-5.39641E-002	4.24865E-001	3.57240E+000	9	...........
	58	0.786667	4.19630E-001	-8.86603E-005	0.00000E+000	-3.72046E-005	-5.39641E-002	4.19683E-001	3.57240E+000	9	...........
	59	0.8	4.14470E-001	-8.86832E-005	0.00000E+000	-3.67566E-005	-5.39641E-002	4.14524E-001	3.57316E+000	9	...........
	60	0.813333	4.09333E-001	-8.88176E-005	0.00000E+000	-3.63560E-005	-5.39641E-002	4.09385E-001	3.57350E+000	9	...........
	61	0.826667	4.04208E-001	-8.84029E-005	0.00000E+000	-3.57331E-005	-5.39641E-002	4.04257E-001	3.57350E+000	9	...........
	62	0.84	3.99102E-001	-8.87249E-005	0.00000E+000	-3.54102E-005	-5.39641E-002	3.99148E-001	3.57350E+000	9	...........
	63	0.853333	3.94014E-001	-8.87311E-005	0.00000E+000	-3.49613E-005	-5.39641E-002	3.94057E-001	3.57350E+000	9	...........
	64	0.866667	3.88931E-001	-8.85227E-005	0.00000E+000	-3.44293E-005	-5.39641E-002	3.88978E-001	3.57350E+000	9	...........
	65	0.88	3.83857E-001	-8.85238E-005	0.00000E+000	-3.39805E-005	-5.39641E-002	3.83902E-001	3.57350E+000	9	...........
	66	0.893333	3.78800E-001	-8.89020E-005	0.00000E+000	-3.36761E-005	-5.39641E-002	3.78841E-001	3.57350E+000	9	...........
	67	0.906667	3.73764E-001	-8.87968E-005	0.00000E+000	-3.31890E-005	-5.39641E-002	3.73811E-001	3.57350E+000	9	...........
	68	0.92	3.68749E-001	-8.88614E-005	0.00000E+000	-3.27675E-005	-5.39641E-002	3.68795E-001	3.57350E+000	9	...........
	69	0.933333	3.63748E-001	-8.88051E-005	0.00000E+000	-3.23027E-005	-5.39641E-002	3.63792E-001	3.57350E+000	9	...........
	70	0.946667	3.58764E-001	-8.86926E-005	0.00000E+000	-3.18197E-005	-5.39641E-002	3.58805E-001	3.57350E+000	9	...........
	71	0.96	3.53811E-001	-8.88301E-005	0.00000E+000	-3.14291E-005	-5.39641E-002	3.53852E-001	3.57350E+000	9	...........
	72	0.97333	3.48883E-001	-8.87947E-005	0.00000E+000	-3.09790E-005	-5.39641E-002	3.48923E-001	3.57350E+000	9	...........
	73	0.98667	3.43961E-001	-8.85332E-005	0.00000E+000	-3.04520E-005	-5.39641E-002	3.44001E-001	3.57350E+000	9	...........
	74	1	3.39048E-001	-8.88113E-005	0.00000E+000	-3.01113E-005	-5.39641E-002	3.39087E-001	3.57350E+000	9	...........
	75	1.01333	3.34167E-001	-8.87509E-005	0.00000E+000	-2.96576E-005	-5.39641E-002	3.34208E-001	3.57350E+000	9	...........
	76	1.02667	3.29307E-001	-8.85405E-005	0.00000E+000	-2.91570E-005	-5.39641E-002	3.29341E-001	3.57350E+000	9	...........
	77	1.04	3.24480E-001	-8.87092E-005	0.00000E+000	-2.87844E-005	-5.39641E-002	3.24517E-001	3.57350E+000	9	...........
	78	1.05333	3.19660E-001	-8.87613E-005	0.00000E+000	-2.83734E-005	-5.39641E-002	3.19693E-001	3.57350E+000	9	...........
	79	1.06667	3.14850E-001	-8.87103E-005	0.00000E+000	-2.79305E-005	-5.39641E-002	3.14883E-001	3.57350E+000	9	...........
	80	1.08	3.10056E-001	-8.90343E-005	0.00000E+000	-2.76056E-005	-5.39641E-002	3.10091E-001	3.57350E+000	9	...........
	81	1.09333	3.05289E-001	-8.88197E-005	0.00000E+000	-2.71156E-005	-5.39641E-002	3.05322E-001	3.57350E+000	9	...........
	82	1.10667	3.00553E-001	-8.88718E-005	0.00000E+000	-2.67106E-005	-5.39641E-002	3.00583E-001	3.57350E+000	9	...........
	83	1.12	2.95829E-001	-8.86728E-005	0.00000E+000	-2.62320E-005	-5.39641E-002	2.95860E-001	3.57350E+000	9	...........
	84	1.13333	2.91122E-001	-8.85488E-005	0.00000E+000	-2.57785E-005	-5.39641E-002	2.91152E-001	3.57350E+000	9	...........
	85	1.14667	2.86447E-001	-8.87124E-005	0.00000E+000	-2.54114E-005	-5.39641E-002	2.86478E-001	3.57350E+000	9	...........
	86	1.16	2.81792E-001	-8.90218E-005	0.00000E+000	-2.50857E-005	-5.39641E-002	2.81826E-001	3.57350E+000	9	...........
	87	1.17333	2.77176E-001	-8.86936E-005	0.00000E+000	-2.45837E-005	-5.39641E-002	2.77203E-001	3.57350E+000	9	...........
	88	1.18667	2.72563E-001	-8.88176E-005	0.00000E+000	-2.42084E-005	-5.39641E-002	2.72599E-001	3.57350E+000	9	...........
	89	1.2	2.67973E-001	-8.88072E-005	0.00000E+000	-2.37980E-005	-5.39641E-002	2.68003E-001	3.57350E+000	9	...........
	90	1.21333	2.63398E-001	-8.85738E-005	0.00000E+000	-2.33301E-005	-5.39641E-002	2.63429E-001	3.57350E+000	9	...........
	91	1.22667	2.58841E-001	-8.88436E-005	0.00000E+000	-2.29963E-005	-5.39641E-002	2.58870E-001	3.57350E+000	9	...........
	92	1.24	2.54323E-001	-8.87874E-005	0.00000E+000	-2.25807E-005	-5.39641E-002	2.54359E-001	3.57350E+000	9	...........
	93	1.25333	2.49819E-001	-8.89249E-005	0.00000E+000	-2.22151E-005	-5.39641E-002	2.49845E-001	3.57350E+000	9	...........
	94	1.26667	2.45323E-001	-8.88530E-005	0.00000E+000	-2.17977E-005	-5.39641E-002	2.45352E-001	3.57350E+000	9	...........
	95	1.28	2.40844E-001	-8.87572E-005	0.00000E+000	-2.13766E-005	-5.39641E-002	2.40872E-001	3.57350E+000	9	...........
	96	1.29333	2.36408E-001	-8.87822E-005	0.00000E+000	-2.09888E-005	-5.39641E-002	2.36434E-001	3.57350E+000	9	...........
	97	1.30667	2.31988E-001	-8.87363E-005	0.00000E+000	-2.05857E-005	-5.39641E-002	2.32006E-001	3.57350E+000	9	...........
	98	1.32	2.27546E-001	-8.88353E-005	0.00000E+000	-2.02141E-005	-5.39641E-002	2.27571E-001	3.57350E+000	9	...........
	99	1.33333	2.23137E-001	-8.85446E-005	0.00000E+000	-1.97576E-005	-5.39641E-002	2.23158E-001	3.57350E+000	9	...........
	100	1.34667	2.18764E-001	-8.86957E-005	0.00000E+000	-1.94034E-005	-5.39641E-002	2.18786E-001	3.57350E+000	9	...........
	101	1.36	2.14410E-001	-8.85655E-005	0.00000E+000	-1.89893E-005	-5.39641E-002	2.14431E-001	3.57350E+000	9	...........
	102	1.37333	2.10079E-001	-8.88874E-005	0.00000E+000	-1.86733E-005	-5.39641E-002	2.10100E-001	3.57350E+000	9	...........
	103	1.38667	2.05759E-001	-8.87051E-005	0.00000E+000	-1.82519E-005	-5.39641E-002	2.05786E-001	3.57350E+000	9	...........
	104	1.4	2.01477E-001	-8.90364E-005	0.00000E+000	-1.79388E-005	-5.39641E-002	2.01497E-001	3.57350E+000	9	...........
	105	1.41333	1.97226E-001	-8.87884E-005	0.00000E+000	-1.75114E-005	-5.39641E-002	1.97245E-001	3.57350E+000	9	...........
	106	1.42667	1.92976E-001	-8.88905E-005	0.00000E+000	-1.71538E-005	-5.39641E-002	1.92995E-001	3.57350E+000	9	...........
	107	1.44	1.88748E-001	-8.88541E-005	0.00000E+000	-1.67710E-005	-5.39641E-002	1.88766E-001	3.57350E+000	9	...........
	108	1.45333	1.84554E-001	-8.87134E-005	0.00000E+000	-1.63725E-005	-5.39641E-002	1.84573E-001	3.57350E+000	9	...........
	109	1.46667	1.80358E-001	-8.85457E-005	0.00000E+000	-1.59699E-005	-5.39641E-002	1.80380E-001	3.57350E+000	9	...........
	110	1.48	1.76176E-001	-8.86686E-005	0.00000E+000	-1.56213E-005	-5.39641E-002	1.76195E-001	3.57350E+000	9	...........
	111	1.49333	1.72016E-001	-8.85842E-005	0.00000E+000	-1.52379E-005	-5.39641E-002	1.72034E-001	3.57350E+000	9	...........
	112	1.50667	1.67873E-001	-8.87947E-005	0.00000E+000	-1.49062E-005	-5.39641E-002	1.67890E-001	3.57350E+000	9	...........
	113	1.52	1.63750E-001	-8.89530E-005	0.00000E+000	-1.45661E-005	-5.39641E-002	1.63764E-001	3.57350E+000	9	...........
	114	1.53333	1.59664E-001	-8.88426E-005	0.00000E+000	-1.41849E-005	-5.39641E-002	1.59675E-001	3.57350E+000	9	...........
	115	1.54667	1.55586E-001	-8.88697E-005	0.00000E+000	-1.38269E-005	-5.39641E-002	1.55602E-001	3.57350E+000	9	...........
	116	1.56	1.51527E-001	-8.88572E-005	0.00000E+000	-1.34643E-005	-5.39641E-002	1.51540E-001	3.57350E+000	9	...........
	117	1.57333	1.47483E-001	-8.86301E-005	0.00000E+000	-1.30714E-005	-5.39641E-002	1.47495E-001	3.57350E+000	9	...........
	118	1.58667	1.43461E-001	-8.86853E-005	0.00000E+000	-1.27228E-005	-5.39641E-002	1.43472E-001	3.57350E+000	9	...........
	119	1.6	1.39445E-001	-8.87530E-005	0.00000E+000	-1.23761E-005	-5.39641E-002	1.39457E-001	3.57350E+000	9	...........
	120	1.61333	1.35459E-001	-8.86280E-005	0.00000E+000	-1.20055E-005	-5.39641E-002	1.35470E-001	3.57350E+000	9	...........
	121	1.62667	1.31486E-001	-8.86321E-005	0.00000E+000	-1.16539E-005	-5.39641E-002	1.31497E-001	3.57350E+000	9	...........
	122	1.64	1.27537E-001	-8.88707E-005	0.00000E+000	-1.13343E-005	-5.39641E-002	1.27546E-001	3.57350E+000	9	...........
	123	1.65333	1.23600E-001	-8.87155E-005	0.00000E+000	-1.09652E-005	-5.39641E-002	1.23610E-001	3.57350E+000	9	...........
	124	1.66667	1.19654E-001	-8.86624E-005	0.00000E+000	-1.06088E-005	-5.39641E-002	1.19666E-001	3.57350E+000	9	...........
	125	1.68	1.15726E-001	-8.87436E-005	0.00000E+000	-1.02699E-005	-5.39641E-002	1.15734E-001	3.57350E+000	9	...........
	126	1.69333	1.11836E-001	-8.88551E-005	0.00000E+000	-9.93724E-006	-5.39641E-002	1.11844E-001	3.57350E+000	9	...........
	127	1.70667	1.07975E-001	-8.88791E-005	0.00000E+000	-9.59674E-006	-5.39641E-002	1.07992E-001	3.57350E+000	9	...........
	128	1.72	1.04112E-001	-8.85248E-005	0.00000E+000	-9.21651E-006	-5.39641E-002	1.04124E-001	3.57350E+000	9	...........
	129	1.73333	1.00266E-001	-8.87426E-005	0.00000E+000	-8.89788E-006	-5.39641E-002	1.00277E-001	3.57350E+000	9	...........
	130	1.74667	9.64537E-002	-8.87457E-005	0.00000E+000	-8.55985E-006	-5.39641E-002	9.64632E-002	3.57350E+000	9	...........
	131	1.76	9.26306E-002	-8.89020E-005	0.00000E+000	-8.23505E-006	-5.39641E-002	9.26418E-002	3.57350E+000	9	...........
	132	1.77333	8.88174E-002	-8.90426E-005	0.00000E+000	-7.90854E-006	-5.39641E-002	8.88313E-002	3.57350E+000	9	...........
	133	1.78667	8.50330E-002	-8.90270E-005	0.00000E+000	-7.57024E-006	-5.39641E-002	8.50387E-002	3.57350E+000	9	...........
	134	1.8	8.12670E-002	-8.85415E-005	0.00000E+000	-7.19550E-006	-5.39641E-002	8.12716E-002	3.57288E+000	9	...........
	135	1.81333	7.75056E-002	-8.88145E-005	0.00000E+000	-6.88362E-006	-5.39641E-002	7.75104E-002	3.57260E+000	9	...........
	136	1.82667	7.37609E-002	-8.87259E-005	0.00000E+000	-6.54450E-006	-5.39641E-002	7.37668E-002	3.57260E+000	9	...........
	137	1.84	7.00364E-002	-8.89322E-005	0.00000E+000	-6.22849E-006	-5.39641E-002	7.00339E-002	3.57260E+000	9	...........
	138	1.85333	6.63131E-002	-8.87603E-005	0.00000E+000	-5.88597E-006	-5.39641E-002	6.63128E-002	3.57260E+000	9	...........
	139	1.86667	6.26085E-002	-8.85967E-005	0.00000E+000	-5.54691E-006	-5.39641E-002	6.26090E-002	3.57260E+000	9	...........
	140	1.88	5.89312E-002	-8.85040E-005	0.00000E+000	-5.21564E-006	-5.39641E-002	5.89259E-002	3.57260E+000	9	...........
	141	1.89333	5.52663E-002	-8.86248E-005	0.00000E+000	-4.89797E-006	-5.39641E-002	5.52699E-002	3.57260E+000	9	...........
	142	1.90667	5.16152E-002	-8.86061E-005	0.00000E+000	-4.57342E-006	-5.39641E-002	5.16137E-002	3.57260E+000	9	...........
	143	1.92	4.79902E-002	-8.88426E-005	0.00000E+000	-4.26357E-006	-5.39641E-002	4.79956E-002	3.57260E+000	9	...........
	144	1.93333	4.43829E-002	-8.87603E-005	0.00000E+000	-3.93944E-006	-5.39641E-002	4.43916E-002	3.57260E+000	9	...........
	145	1.94667	4.07818E-002	-8.89228E-005	0.00000E+000	-3.62643E-006	-5.39641E-002	4.07875E-002	3.57260E+000	9	...........
	146	1.96	3.72017E-002	-8.88030E-005	0.00000E+000	-3.30362E-006	-5.39641E-002	3.72009E-002	3.57260E+000	9	...........
	147	1.97333	3.36378E-002	-8.87707E-005	0.00000E+000	-2.98605E-006	-5.39641E-002	3.36405E-002	3.57260E+000	9	...........
	148	1.98667	3.01042E-002	-8.89239E-005	0.00000E+000	-2.67698E-006	-5.39641E-002	3.01014E-002	3.57260E+000	9	...........
	149	2	2.65703E-002	-8.86957E-005	0.00000E+000	-2.35668E-006	-5.39641E-002	2.65690E-002	3.57260E+000	9	...........
	150	2.01333	2.30470E-002	-8.86603E-005	0.00000E+000	-2.04335E-006	-5.39641E-002	2.30427E-002	3.57260E+000	9	...........
	151	2.02667	1.95525E-002	-8.87342E-005	0.00000E+000	-1.73498E-006	-5.39641E-002	1.95470E-002	3.57260E+000	9	...........
	152	2.04	1.60648E-002	-8.85457E-005	0.00000E+000	-1.42247E-006	-5.39641E-002	1.60618E-002	3.57260E+000	9	...........
	153	2.05333	1.26056E-002	-8.86769E-005	0.00000E+000	-1.11783E-006	-5.39641E-002	1.25949E-002	3.57260E+000	9	...........
	154	2.06667	9.17501E-003	-8.87426E-005	0.00000E+000	-8.14214E-007	-5.39641E-002	9.16291E-003	3.57260E+000	9	...........
	155	2.08	5.76386E-003	-8.84863E-005	0.00000E+000	-5.10022E-007	-5.39641E-002	5.75210E-003	3.57260E+000	9	...........
	156	2.09333	2.36818E-003	-8.87780E-005	0.00000E+000	-2.10242E-007	-5.39641E-002	2.35434E-003	3.57260E+000	9	...........
	157	2.09833	2.31244E-005	-8.87693E-005	0.00000E+000	-2.05274E-009	-5.39641E-002	1.23861E-005	3.57260E+000	9	...........
STARTTIMEOFFSET	QUANT	1143.892	Start Time Offset (s)
