EXPLAIN
TAG	PWR800_DISCHARGE
TITLE	LABEL	PWR Cyclic Charge Discharge (Cell) - Discharge Step	Test &Identifier
DATE	LABEL	10-7-2017	Date
TIME	LABEL	15:16:22	Time
NOTES	NOTES	3	&Notes...
	supercap test cell
	0.9mg
	6M KOH
PSTAT	PSTAT	IFC5000-01520	Potentiostat
CAPACITY	QUANT	1.00000E-003	Capacity (A-hr)
CELLTYPE	SELECTOR	1	&Cell Type
WORKINGCONNECTION	SELECTOR	0	&Working Lead
MAXDISCHARGETIME	VARIABLEANDUNITS	1.00000E+002	s	1.00000E+002	second(s)	Max &Discharge Time
DISCHARGEMODE	MULTIPARAM	0	9.00000E-005	&Discharge Mode	Constant Current	Amp(s)
SAMPLETIME	QUANT	1.00000E-002	Sa&mple Period (s)
DISCHARGESTOPAT1	MULTIPARAM	3	0.00000E+000	Discharge Stop At &1	Voltage < Limit	V
DISCHARGESTOPAT2	MULTIPARAM	0	0.00000E+000	Discharge Stop At &2	None	N/A
AESBHCSELECTOR	TOGGLE	F	Save Both Half Cells
IRCOMP	TOGGLE	F	IR &Measure
EOC	QUANT	0	Open Circuit (V)
SEQUENCER	TOGGLE	TRUE	Run as Sequence
PSTATMODEL	IQUANT	53	Pstat Model
PSTATSECTION	LABEL	IFC5000-01520	Pstat Section
PSTATSERIALNO	LABEL	01520	Pstat Serial Number
CTRLMODE	IQUANT	0	Control Mode
ELECTROMETER	IQUANT	1	RE=0 or CS=1
IESTAB	IQUANT	0	I/E Stability
CASPEED	IQUANT	4	Control Amp Speed
CONVENTION	IQUANT	1	Current Convention
ICHRANGE	IQUANT	2	Ich Range
ICHRANGEMODE	TOGGLE	T	Ich Auto Range
ICHOFFSETENABLE	TOGGLE	F	Ich Offset Enable
ICHOFFSET	QUANT	0	Ich Offset (V)
ICHFILTER	IQUANT	1	Ich Filter
VCHRANGE	IQUANT	2	Vch Range
VCHRANGEMODE	TOGGLE	T	Vch Auto Range
VCHOFFSETENABLE	TOGGLE	F	Vch Offset Enable
VCHOFFSET	QUANT	0	Vch Offset (V)
VCHFILTER	IQUANT	1	Vch Filter
IERANGELOWERLIMIT	IQUANT	9	I/E Range Lower Limit
IERANGEMODE	TOGGLE	F	I/E AutoRange
IERANGE	IQUANT	9	I/E Range
ACHSELECT	IQUANT	1	Ach Select
ACHRANGE	IQUANT	2	Ach Range
ACHOFFSETENABLE	TOGGLE	F	Ach Offset Enable
ACHOFFSET	QUANT	0	Ach Offset (V)
ACHFILTER	IQUANT	1	Ach Filter
CABLEID	IQUANT	14	Cable ID
DCCALDATE	LABEL	5-7-2017	DC Calibration Date
ACCALDATE	LABEL	12/3/2015	AC Calibration Date
FRAMEWORKVERSION	QUANT	7.01	Framework Version
INSTRUMENTVERSION	LABEL	4.00	Instrument Version
CURVE	TABLE	161
	Pt	T	Vf	Im	Vu	Pwr	Sig	Ach	Temp	IERange	Over
	#	s	V	A	V	W	V	V	deg C	#	bits
	0	0.013333	8.27403E-001	-8.86238E-005	0.00000E+000	-7.33276E-005	-5.39641E-002	8.27517E-001	3.57180E+000	9	...........
	1	0.026667	8.15010E-001	-8.88530E-005	0.00000E+000	-7.24161E-005	-5.39641E-002	8.15116E-001	3.57180E+000	9	...........
	2	0.04	8.03362E-001	-8.89478E-005	0.00000E+000	-7.14573E-005	-5.39641E-002	8.03475E-001	3.57180E+000	9	...........
	3	0.053333	7.92315E-001	-8.87624E-005	0.00000E+000	-7.03278E-005	-5.39641E-002	7.92414E-001	3.57180E+000	9	...........
	4	0.066667	7.81725E-001	-8.86280E-005	0.00000E+000	-6.92827E-005	-5.39641E-002	7.81842E-001	3.57180E+000	9	...........
	5	0.08	7.71584E-001	-8.87155E-005	0.00000E+000	-6.84515E-005	-5.39641E-002	7.71690E-001	3.57180E+000	9	...........
	6	0.093333	7.61783E-001	-8.86999E-005	0.00000E+000	-6.75700E-005	-5.39641E-002	7.61870E-001	3.57180E+000	9	...........
	7	0.106667	7.52311E-001	-8.87144E-005	0.00000E+000	-6.67408E-005	-5.39641E-002	7.52419E-001	3.57180E+000	9	...........
	8	0.12	7.43126E-001	-8.85550E-005	0.00000E+000	-6.58076E-005	-5.39641E-002	7.43253E-001	3.57180E+000	9	...........
	9	0.133333	7.34225E-001	-8.86082E-005	0.00000E+000	-6.50584E-005	-5.39641E-002	7.34326E-001	3.57180E+000	9	...........
	10	0.146667	7.25558E-001	-8.87290E-005	0.00000E+000	-6.43781E-005	-5.39641E-002	7.25649E-001	3.57180E+000	9	...........
	11	0.16	7.17099E-001	-8.87072E-005	0.00000E+000	-6.36118E-005	-5.39641E-002	7.17208E-001	3.57180E+000	9	...........
	12	0.173333	7.08827E-001	-8.86332E-005	0.00000E+000	-6.28256E-005	-5.39641E-002	7.08951E-001	3.57180E+000	9	...........
	13	0.186667	7.00782E-001	-8.88770E-005	0.00000E+000	-6.22834E-005	-5.39641E-002	7.00878E-001	3.57180E+000	9	...........
	14	0.2	6.92921E-001	-8.84186E-005	0.00000E+000	-6.12671E-005	-5.39641E-002	6.93023E-001	3.57180E+000	9	...........
	15	0.213333	6.85193E-001	-8.85321E-005	0.00000E+000	-6.06616E-005	-5.39641E-002	6.85302E-001	3.57180E+000	9	...........
	16	0.226667	6.77663E-001	-8.85446E-005	0.00000E+000	-6.00034E-005	-5.39641E-002	6.77752E-001	3.57180E+000	9	...........
	17	0.24	6.70238E-001	-8.87447E-005	0.00000E+000	-5.94800E-005	-5.39641E-002	6.70304E-001	3.57180E+000	9	...........
	18	0.253333	6.62931E-001	-8.88457E-005	0.00000E+000	-5.88986E-005	-5.39641E-002	6.63020E-001	3.57180E+000	9	...........
	19	0.266667	6.55784E-001	-8.87717E-005	0.00000E+000	-5.82151E-005	-5.39641E-002	6.55861E-001	3.57180E+000	9	...........
	20	0.28	6.48732E-001	-8.88238E-005	0.00000E+000	-5.76229E-005	-5.39641E-002	6.48823E-001	3.57180E+000	9	...........
	21	0.293333	6.41829E-001	-8.84352E-005	0.00000E+000	-5.67603E-005	-5.39641E-002	6.41892E-001	3.57180E+000	9	...........
	22	0.306667	6.34979E-001	-8.86561E-005	0.00000E+000	-5.62947E-005	-5.39641E-002	6.35058E-001	3.57180E+000	9	...........
	23	0.32	6.28255E-001	-8.88447E-005	0.00000E+000	-5.58171E-005	-5.39641E-002	6.28369E-001	3.57180E+000	9	...........
	24	0.333333	6.21652E-001	-8.83592E-005	0.00000E+000	-5.49287E-005	-5.39641E-002	6.21734E-001	3.57180E+000	9	...........
	25	0.346667	6.15105E-001	-8.85748E-005	0.00000E+000	-5.44828E-005	-5.39641E-002	6.15214E-001	3.57180E+000	9	...........
	26	0.36	6.08599E-001	-8.89124E-005	0.00000E+000	-5.41120E-005	-5.39641E-002	6.08715E-001	3.57180E+000	9	...........
	27	0.373333	6.02221E-001	-8.88040E-005	0.00000E+000	-5.34797E-005	-5.39641E-002	6.02361E-001	3.57180E+000	9	...........
	28	0.386667	5.95944E-001	-8.87134E-005	0.00000E+000	-5.28682E-005	-5.39641E-002	5.96042E-001	3.57180E+000	9	...........
	29	0.4	5.89707E-001	-8.86936E-005	0.00000E+000	-5.23032E-005	-5.39641E-002	5.89808E-001	3.57180E+000	9	...........
	30	0.413333	5.83500E-001	-8.83831E-005	0.00000E+000	-5.15715E-005	-5.39641E-002	5.83603E-001	3.57180E+000	9	...........
	31	0.426667	5.77411E-001	-8.87530E-005	0.00000E+000	-5.12470E-005	-5.39641E-002	5.77508E-001	3.57180E+000	9	...........
	32	0.44	5.71414E-001	-8.88384E-005	0.00000E+000	-5.07635E-005	-5.39641E-002	5.71462E-001	3.57180E+000	9	...........
	33	0.453333	5.65463E-001	-8.87738E-005	0.00000E+000	-5.01983E-005	-5.39641E-002	5.65526E-001	3.57180E+000	9	...........
	34	0.466667	5.59518E-001	-8.86269E-005	0.00000E+000	-4.95884E-005	-5.39641E-002	5.59587E-001	3.57205E+000	9	...........
	35	0.48	5.53695E-001	-8.88197E-005	0.00000E+000	-4.91790E-005	-5.39641E-002	5.53770E-001	3.57230E+000	9	...........
	36	0.493333	5.47918E-001	-8.88041E-005	0.00000E+000	-4.86573E-005	-5.39641E-002	5.47970E-001	3.57230E+000	9	...........
	37	0.506667	5.42144E-001	-8.86332E-005	0.00000E+000	-4.80520E-005	-5.39641E-002	5.42241E-001	3.57230E+000	9	...........
	38	0.52	5.36438E-001	-8.87280E-005	0.00000E+000	-4.75971E-005	-5.39641E-002	5.36516E-001	3.57230E+000	9	...........
	39	0.533333	5.30754E-001	-8.86707E-005	0.00000E+000	-4.70623E-005	-5.39641E-002	5.30850E-001	3.57230E+000	9	...........
	40	0.546667	5.25141E-001	-8.87124E-005	0.00000E+000	-4.65865E-005	-5.39641E-002	5.25222E-001	3.57230E+000	9	...........
	41	0.56	5.19550E-001	-8.86155E-005	0.00000E+000	-4.60401E-005	-5.39641E-002	5.19602E-001	3.57230E+000	9	...........
	42	0.573333	5.13996E-001	-8.86113E-005	0.00000E+000	-4.55459E-005	-5.39641E-002	5.14025E-001	3.57230E+000	9	...........
	43	0.586667	5.08408E-001	-8.88937E-005	0.00000E+000	-4.51943E-005	-5.39641E-002	5.08489E-001	3.57230E+000	9	...........
	44	0.6	5.02925E-001	-8.88051E-005	0.00000E+000	-4.46623E-005	-5.39641E-002	5.02965E-001	3.57230E+000	9	...........
	45	0.613333	4.97469E-001	-8.84738E-005	0.00000E+000	-4.40130E-005	-5.39641E-002	4.97523E-001	3.57230E+000	9	...........
	46	0.626667	4.92057E-001	-8.86603E-005	0.00000E+000	-4.36259E-005	-5.39641E-002	4.92120E-001	3.57230E+000	9	...........
	47	0.64	4.86692E-001	-8.85925E-005	0.00000E+000	-4.31173E-005	-5.39641E-002	4.86751E-001	3.57230E+000	9	...........
	48	0.653333	4.81376E-001	-8.86936E-005	0.00000E+000	-4.26950E-005	-5.39641E-002	4.81431E-001	3.57230E+000	9	...........
	49	0.666667	4.76035E-001	-8.85925E-005	0.00000E+000	-4.21732E-005	-5.39641E-002	4.76087E-001	3.57230E+000	9	...........
	50	0.68	4.70714E-001	-8.86967E-005	0.00000E+000	-4.17508E-005	-5.39641E-002	4.70762E-001	3.57230E+000	9	...........
	51	0.693333	4.65414E-001	-8.88020E-005	0.00000E+000	-4.13297E-005	-5.39641E-002	4.65464E-001	3.57230E+000	9	...........
	52	0.706667	4.60141E-001	-8.89134E-005	0.00000E+000	-4.09127E-005	-5.39641E-002	4.60186E-001	3.57230E+000	9	...........
	53	0.72	4.54883E-001	-8.85477E-005	0.00000E+000	-4.02789E-005	-5.39641E-002	4.54934E-001	3.57230E+000	9	...........
	54	0.733333	4.49644E-001	-8.88624E-005	0.00000E+000	-3.99565E-005	-5.39641E-002	4.49694E-001	3.57230E+000	9	...........
	55	0.746667	4.44427E-001	-8.84092E-005	0.00000E+000	-3.92914E-005	-5.39641E-002	4.44474E-001	3.57230E+000	9	...........
	56	0.76	4.39231E-001	-8.85988E-005	0.00000E+000	-3.89153E-005	-5.39641E-002	4.39285E-001	3.57230E+000	9	...........
	57	0.773333	4.34042E-001	-8.86207E-005	0.00000E+000	-3.84651E-005	-5.39641E-002	4.34091E-001	3.57230E+000	9	...........
	58	0.786667	4.28875E-001	-8.86832E-005	0.00000E+000	-3.80340E-005	-5.39641E-002	4.28924E-001	3.57230E+000	9	...........
	59	0.8	4.23717E-001	-8.88041E-005	0.00000E+000	-3.76277E-005	-5.39641E-002	4.23765E-001	3.57230E+000	9	...........
	60	0.813333	4.18576E-001	-8.85290E-005	0.00000E+000	-3.70561E-005	-5.39641E-002	4.18631E-001	3.57230E+000	9	...........
	61	0.826667	4.13442E-001	-8.86947E-005	0.00000E+000	-3.66701E-005	-5.39641E-002	4.13490E-001	3.57230E+000	9	...........
	62	0.84	4.08342E-001	-8.86269E-005	0.00000E+000	-3.61901E-005	-5.39641E-002	4.08385E-001	3.57230E+000	9	...........
	63	0.853333	4.03264E-001	-8.85592E-005	0.00000E+000	-3.57127E-005	-5.39641E-002	4.03310E-001	3.57230E+000	9	...........
	64	0.866667	3.98197E-001	-8.85665E-005	0.00000E+000	-3.52669E-005	-5.39641E-002	3.98237E-001	3.57230E+000	9	...........
	65	0.88	3.93135E-001	-8.87040E-005	0.00000E+000	-3.48726E-005	-5.39641E-002	3.93178E-001	3.57230E+000	9	...........
	66	0.893333	3.88109E-001	-8.86780E-005	0.00000E+000	-3.44167E-005	-5.39641E-002	3.88152E-001	3.57230E+000	9	...........
	67	0.906667	3.83100E-001	-8.85832E-005	0.00000E+000	-3.39362E-005	-5.39641E-002	3.83143E-001	3.57230E+000	9	...........
	68	0.92	3.78116E-001	-8.89197E-005	0.00000E+000	-3.36220E-005	-5.39641E-002	3.78158E-001	3.57230E+000	9	...........
	69	0.933333	3.73161E-001	-8.86884E-005	0.00000E+000	-3.30950E-005	-5.39641E-002	3.73198E-001	3.57230E+000	9	...........
	70	0.946667	3.68206E-001	-8.87759E-005	0.00000E+000	-3.26879E-005	-5.39641E-002	3.68252E-001	3.57230E+000	9	...........
	71	0.96	3.63262E-001	-8.87530E-005	0.00000E+000	-3.22406E-005	-5.39641E-002	3.63305E-001	3.57230E+000	9	...........
	72	0.97333	3.58352E-001	-8.84488E-005	0.00000E+000	-3.16958E-005	-5.39641E-002	3.58394E-001	3.57230E+000	9	...........
	73	0.98667	3.53466E-001	-8.88291E-005	0.00000E+000	-3.13980E-005	-5.39641E-002	3.53504E-001	3.57230E+000	9	...........
	74	1	3.48595E-001	-8.88332E-005	0.00000E+000	-3.09668E-005	-5.39641E-002	3.48636E-001	3.57230E+000	9	...........
	75	1.01333	3.43739E-001	-8.86050E-005	0.00000E+000	-3.04570E-005	-5.39641E-002	3.43779E-001	3.57230E+000	9	...........
	76	1.02667	3.38898E-001	-8.86030E-005	0.00000E+000	-3.00274E-005	-5.39641E-002	3.38933E-001	3.57230E+000	9	...........
	77	1.04	3.34093E-001	-8.87801E-005	0.00000E+000	-2.96608E-005	-5.39641E-002	3.34128E-001	3.57230E+000	9	...........
	78	1.05333	3.29311E-001	-8.86894E-005	0.00000E+000	-2.92064E-005	-5.39641E-002	3.29347E-001	3.57230E+000	9	...........
	79	1.06667	3.24561E-001	-8.86405E-005	0.00000E+000	-2.87692E-005	-5.39641E-002	3.24604E-001	3.57230E+000	9	...........
	80	1.08	3.19825E-001	-8.84092E-005	0.00000E+000	-2.82755E-005	-5.39641E-002	3.19856E-001	3.57230E+000	9	...........
	81	1.09333	3.15100E-001	-8.86415E-005	0.00000E+000	-2.79309E-005	-5.39641E-002	3.15132E-001	3.57230E+000	9	...........
	82	1.10667	3.10390E-001	-8.86373E-005	0.00000E+000	-2.75122E-005	-5.39641E-002	3.10426E-001	3.57230E+000	9	...........
	83	1.12	3.05700E-001	-8.83758E-005	0.00000E+000	-2.70165E-005	-5.39641E-002	3.05736E-001	3.57230E+000	9	...........
	84	1.13333	3.01033E-001	-8.86769E-005	0.00000E+000	-2.66947E-005	-5.39641E-002	3.01065E-001	3.57230E+000	9	...........
	85	1.14667	2.96406E-001	-8.86238E-005	0.00000E+000	-2.62687E-005	-5.39641E-002	2.96434E-001	3.57230E+000	9	...........
	86	1.16	2.91793E-001	-8.86373E-005	0.00000E+000	-2.58638E-005	-5.39641E-002	2.91818E-001	3.57230E+000	9	...........
	87	1.17333	2.87199E-001	-8.86092E-005	0.00000E+000	-2.54485E-005	-5.39641E-002	2.87233E-001	3.57230E+000	9	...........
	88	1.18667	2.82631E-001	-8.88697E-005	0.00000E+000	-2.51173E-005	-5.39641E-002	2.82666E-001	3.57230E+000	9	...........
	89	1.2	2.78078E-001	-8.86238E-005	0.00000E+000	-2.46443E-005	-5.39641E-002	2.78104E-001	3.57230E+000	9	...........
	90	1.21333	2.73527E-001	-8.86707E-005	0.00000E+000	-2.42538E-005	-5.39641E-002	2.73556E-001	3.57230E+000	9	...........
	91	1.22667	2.69016E-001	-8.86686E-005	0.00000E+000	-2.38533E-005	-5.39641E-002	2.69047E-001	3.57230E+000	9	...........
	92	1.24	2.64514E-001	-8.87165E-005	0.00000E+000	-2.34667E-005	-5.39641E-002	2.64550E-001	3.57230E+000	9	...........
	93	1.25333	2.60047E-001	-8.85634E-005	0.00000E+000	-2.30306E-005	-5.39641E-002	2.60075E-001	3.57230E+000	9	...........
	94	1.26667	2.55596E-001	-8.85102E-005	0.00000E+000	-2.26229E-005	-5.39641E-002	2.55626E-001	3.57230E+000	9	...........
	95	1.28	2.51165E-001	-8.86530E-005	0.00000E+000	-2.22666E-005	-5.39641E-002	2.51190E-001	3.57230E+000	9	...........
	96	1.29333	2.46763E-001	-8.86123E-005	0.00000E+000	-2.18662E-005	-5.39641E-002	2.46789E-001	3.57230E+000	9	...........
	97	1.30667	2.42379E-001	-8.87811E-005	0.00000E+000	-2.15187E-005	-5.39641E-002	2.42403E-001	3.57230E+000	9	...........
	98	1.32	2.38004E-001	-8.88728E-005	0.00000E+000	-2.11521E-005	-5.39641E-002	2.38025E-001	3.57230E+000	9	...........
	99	1.33333	2.33656E-001	-8.90353E-005	0.00000E+000	-2.08036E-005	-5.39641E-002	2.33680E-001	3.57230E+000	9	...........
	100	1.34667	2.29328E-001	-8.87092E-005	0.00000E+000	-2.03435E-005	-5.39641E-002	2.29354E-001	3.57230E+000	9	...........
	101	1.36	2.25026E-001	-8.86644E-005	0.00000E+000	-1.99518E-005	-5.39641E-002	2.25041E-001	3.57230E+000	9	...........
	102	1.37333	2.20743E-001	-8.87134E-005	0.00000E+000	-1.95829E-005	-5.39641E-002	2.20763E-001	3.57230E+000	9	...........
	103	1.38667	2.16476E-001	-8.86842E-005	0.00000E+000	-1.91980E-005	-5.39641E-002	2.16496E-001	3.57230E+000	9	...........
	104	1.4	2.12245E-001	-8.90489E-005	0.00000E+000	-1.89002E-005	-5.39641E-002	2.12263E-001	3.57230E+000	9	...........
	105	1.41333	2.08019E-001	-8.86051E-005	0.00000E+000	-1.84315E-005	-5.39641E-002	2.08038E-001	3.57230E+000	9	...........
	106	1.42667	2.03812E-001	-8.86967E-005	0.00000E+000	-1.80775E-005	-5.39641E-002	2.03830E-001	3.57230E+000	9	...........
	107	1.44	1.99625E-001	-8.86842E-005	0.00000E+000	-1.77036E-005	-5.39641E-002	1.99641E-001	3.57230E+000	9	...........
	108	1.45333	1.95455E-001	-8.84915E-005	0.00000E+000	-1.72961E-005	-5.39641E-002	1.95480E-001	3.57230E+000	9	...........
	109	1.46667	1.91304E-001	-8.85477E-005	0.00000E+000	-1.69396E-005	-5.39641E-002	1.91325E-001	3.57215E+000	9	...........
	110	1.48	1.87172E-001	-8.88311E-005	0.00000E+000	-1.66267E-005	-5.39641E-002	1.87186E-001	3.57200E+000	9	...........
	111	1.49333	1.83055E-001	-8.87113E-005	0.00000E+000	-1.62390E-005	-5.39641E-002	1.83070E-001	3.57200E+000	9	...........
	112	1.50667	1.78968E-001	-8.87426E-005	0.00000E+000	-1.58821E-005	-5.39641E-002	1.78985E-001	3.57200E+000	9	...........
	113	1.52	1.74916E-001	-8.88843E-005	0.00000E+000	-1.55473E-005	-5.39641E-002	1.74928E-001	3.57200E+000	9	...........
	114	1.53333	1.70862E-001	-8.87144E-005	0.00000E+000	-1.51579E-005	-5.39641E-002	1.70874E-001	3.57200E+000	9	...........
	115	1.54667	1.66806E-001	-8.88947E-005	0.00000E+000	-1.48282E-005	-5.39641E-002	1.66818E-001	3.57200E+000	9	...........
	116	1.56	1.62773E-001	-8.86780E-005	0.00000E+000	-1.44344E-005	-5.39641E-002	1.62779E-001	3.57200E+000	9	...........
	117	1.57333	1.58752E-001	-8.89145E-005	0.00000E+000	-1.41154E-005	-5.39641E-002	1.58759E-001	3.57200E+000	9	...........
	118	1.58667	1.54747E-001	-8.85165E-005	0.00000E+000	-1.36976E-005	-5.39641E-002	1.54757E-001	3.57200E+000	9	...........
	119	1.6	1.50766E-001	-8.87009E-005	0.00000E+000	-1.33731E-005	-5.39641E-002	1.50775E-001	3.57200E+000	9	...........
	120	1.61333	1.46779E-001	-8.86530E-005	0.00000E+000	-1.30124E-005	-5.39641E-002	1.46789E-001	3.57200E+000	9	...........
	121	1.62667	1.42794E-001	-8.86655E-005	0.00000E+000	-1.26609E-005	-5.39641E-002	1.42806E-001	3.57200E+000	9	...........
	122	1.64	1.38857E-001	-8.85519E-005	0.00000E+000	-1.22961E-005	-5.39641E-002	1.38865E-001	3.57200E+000	9	...........
	123	1.65333	1.34945E-001	-8.89666E-005	0.00000E+000	-1.20056E-005	-5.39641E-002	1.34955E-001	3.57200E+000	9	...........
	124	1.66667	1.31066E-001	-8.86707E-005	0.00000E+000	-1.16217E-005	-5.39641E-002	1.31075E-001	3.57200E+000	9	...........
	125	1.68	1.27189E-001	-8.88020E-005	0.00000E+000	-1.12946E-005	-5.39641E-002	1.27200E-001	3.57200E+000	9	...........
	126	1.69333	1.23314E-001	-8.86342E-005	0.00000E+000	-1.09299E-005	-5.39641E-002	1.23327E-001	3.57200E+000	9	...........
	127	1.70667	1.19457E-001	-8.85707E-005	0.00000E+000	-1.05804E-005	-5.39641E-002	1.19471E-001	3.57200E+000	9	...........
	128	1.72	1.15606E-001	-8.86561E-005	0.00000E+000	-1.02492E-005	-5.39641E-002	1.15613E-001	3.57200E+000	9	...........
	129	1.73333	1.11787E-001	-8.87280E-005	0.00000E+000	-9.91862E-006	-5.39641E-002	1.11798E-001	3.57200E+000	9	...........
	130	1.74667	1.07988E-001	-8.85092E-005	0.00000E+000	-9.55795E-006	-5.39641E-002	1.07994E-001	3.57200E+000	9	...........
	131	1.76	1.04183E-001	-8.87728E-005	0.00000E+000	-9.24864E-006	-5.39641E-002	1.04189E-001	3.57200E+000	9	...........
	132	1.77333	1.00411E-001	-8.87551E-005	0.00000E+000	-8.91198E-006	-5.39641E-002	1.00417E-001	3.57200E+000	9	...........
	133	1.78667	9.66356E-002	-8.88666E-005	0.00000E+000	-8.58767E-006	-5.39641E-002	9.66382E-002	3.57200E+000	9	...........
	134	1.8	9.28768E-002	-8.88905E-005	0.00000E+000	-8.25587E-006	-5.39641E-002	9.28831E-002	3.57200E+000	9	...........
	135	1.81333	8.91346E-002	-8.88051E-005	0.00000E+000	-7.91561E-006	-5.39641E-002	8.91379E-002	3.57200E+000	9	...........
	136	1.82667	8.54039E-002	-8.89270E-005	0.00000E+000	-7.59471E-006	-5.39641E-002	8.54110E-002	3.57200E+000	9	...........
	137	1.84	8.16900E-002	-8.89374E-005	0.00000E+000	-7.26530E-006	-5.39641E-002	8.16897E-002	3.57200E+000	9	...........
	138	1.85333	7.79835E-002	-8.88301E-005	0.00000E+000	-6.92728E-006	-5.39641E-002	7.79821E-002	3.57200E+000	9	...........
	139	1.86667	7.43073E-002	-8.88728E-005	0.00000E+000	-6.60390E-006	-5.39641E-002	7.43088E-002	3.57200E+000	9	...........
	140	1.88	7.06351E-002	-8.87895E-005	0.00000E+000	-6.27165E-006	-5.39641E-002	7.06352E-002	3.57200E+000	9	...........
	141	1.89333	6.69777E-002	-8.87843E-005	0.00000E+000	-5.94657E-006	-5.39641E-002	6.69801E-002	3.57200E+000	9	...........
	142	1.90667	6.33543E-002	-8.87624E-005	0.00000E+000	-5.62348E-006	-5.39641E-002	6.33575E-002	3.57200E+000	9	...........
	143	1.92	5.97320E-002	-8.89301E-005	0.00000E+000	-5.31197E-006	-5.39641E-002	5.97373E-002	3.57200E+000	9	...........
	144	1.93333	5.61211E-002	-8.85905E-005	0.00000E+000	-4.97180E-006	-5.39641E-002	5.61186E-002	3.57200E+000	9	...........
	145	1.94667	5.25147E-002	-8.88811E-005	0.00000E+000	-4.66757E-006	-5.39641E-002	5.25148E-002	3.57200E+000	9	...........
	146	1.96	4.89259E-002	-8.86426E-005	0.00000E+000	-4.33692E-006	-5.39641E-002	4.89256E-002	3.57200E+000	9	...........
	147	1.97333	4.53519E-002	-8.90927E-005	0.00000E+000	-4.04052E-006	-5.39641E-002	4.53633E-002	3.57200E+000	9	...........
	148	1.98667	4.17970E-002	-8.87665E-005	0.00000E+000	-3.71017E-006	-5.39641E-002	4.18013E-002	3.57200E+000	9	...........
	149	2	3.82629E-002	-8.86248E-005	0.00000E+000	-3.39104E-006	-5.39641E-002	3.82657E-002	3.57200E+000	9	...........
	150	2.01333	3.47359E-002	-8.88447E-005	0.00000E+000	-3.08610E-006	-5.39641E-002	3.47407E-002	3.57200E+000	9	...........
	151	2.02667	3.12321E-002	-8.90187E-005	0.00000E+000	-2.78024E-006	-5.39641E-002	3.12341E-002	3.57200E+000	9	...........
	152	2.04	2.77540E-002	-8.88280E-005	0.00000E+000	-2.46534E-006	-5.39641E-002	2.77562E-002	3.57200E+000	9	...........
	153	2.05333	2.42872E-002	-8.89249E-005	0.00000E+000	-2.15974E-006	-5.39641E-002	2.42837E-002	3.57200E+000	9	...........
	154	2.06667	2.08368E-002	-8.86947E-005	0.00000E+000	-1.84811E-006	-5.39641E-002	2.08359E-002	3.57200E+000	9	...........
	155	2.08	1.73960E-002	-8.85644E-005	0.00000E+000	-1.54067E-006	-5.39641E-002	1.73908E-002	3.57200E+000	9	...........
	156	2.09333	1.39739E-002	-8.87530E-005	0.00000E+000	-1.24022E-006	-5.39641E-002	1.39654E-002	3.57200E+000	9	...........
	157	2.10667	1.05655E-002	-8.87207E-005	0.00000E+000	-9.37377E-007	-5.39641E-002	1.05549E-002	3.57200E+000	9	...........
	158	2.12	7.18318E-003	-8.86113E-005	0.00000E+000	-6.36511E-007	-5.39641E-002	7.17176E-003	3.57200E+000	9	...........
	159	2.13333	3.83114E-003	-8.88468E-005	0.00000E+000	-3.40384E-007	-5.39641E-002	3.82132E-003	3.57200E+000	9	...........
	160	2.14333	8.96604E-004	-8.89874E-005	0.00000E+000	-7.97865E-008	-5.39641E-002	8.86327E-004	3.57200E+000	9	...........
STARTTIMEOFFSET	QUANT	869.5781	Start Time Offset (s)
