EXPLAIN
TAG	PWR800_DISCHARGE
TITLE	LABEL	PWR Cyclic Charge Discharge (Cell) - Discharge Step	Test &Identifier
DATE	LABEL	10-7-2017	Date
TIME	LABEL	15:47:44	Time
NOTES	NOTES	3	&Notes...
	supercap test cell
	0.9mg
	6M KOH
PSTAT	PSTAT	IFC5000-01520	Potentiostat
CAPACITY	QUANT	1.00000E-003	Capacity (A-hr)
CELLTYPE	SELECTOR	1	&Cell Type
WORKINGCONNECTION	SELECTOR	0	&Working Lead
MAXDISCHARGETIME	VARIABLEANDUNITS	1.00000E+002	s	1.00000E+002	second(s)	Max &Discharge Time
DISCHARGEMODE	MULTIPARAM	0	9.00000E-005	&Discharge Mode	Constant Current	Amp(s)
SAMPLETIME	QUANT	1.00000E-002	Sa&mple Period (s)
DISCHARGESTOPAT1	MULTIPARAM	3	0.00000E+000	Discharge Stop At &1	Voltage < Limit	V
DISCHARGESTOPAT2	MULTIPARAM	0	0.00000E+000	Discharge Stop At &2	None	N/A
AESBHCSELECTOR	TOGGLE	F	Save Both Half Cells
IRCOMP	TOGGLE	F	IR &Measure
EOC	QUANT	0	Open Circuit (V)
SEQUENCER	TOGGLE	TRUE	Run as Sequence
PSTATMODEL	IQUANT	53	Pstat Model
PSTATSECTION	LABEL	IFC5000-01520	Pstat Section
PSTATSERIALNO	LABEL	01520	Pstat Serial Number
CTRLMODE	IQUANT	0	Control Mode
ELECTROMETER	IQUANT	1	RE=0 or CS=1
IESTAB	IQUANT	0	I/E Stability
CASPEED	IQUANT	4	Control Amp Speed
CONVENTION	IQUANT	1	Current Convention
ICHRANGE	IQUANT	2	Ich Range
ICHRANGEMODE	TOGGLE	T	Ich Auto Range
ICHOFFSETENABLE	TOGGLE	F	Ich Offset Enable
ICHOFFSET	QUANT	0	Ich Offset (V)
ICHFILTER	IQUANT	1	Ich Filter
VCHRANGE	IQUANT	2	Vch Range
VCHRANGEMODE	TOGGLE	T	Vch Auto Range
VCHOFFSETENABLE	TOGGLE	F	Vch Offset Enable
VCHOFFSET	QUANT	0	Vch Offset (V)
VCHFILTER	IQUANT	1	Vch Filter
IERANGELOWERLIMIT	IQUANT	9	I/E Range Lower Limit
IERANGEMODE	TOGGLE	F	I/E AutoRange
IERANGE	IQUANT	9	I/E Range
ACHSELECT	IQUANT	1	Ach Select
ACHRANGE	IQUANT	2	Ach Range
ACHOFFSETENABLE	TOGGLE	F	Ach Offset Enable
ACHOFFSET	QUANT	0	Ach Offset (V)
ACHFILTER	IQUANT	1	Ach Filter
CABLEID	IQUANT	14	Cable ID
DCCALDATE	LABEL	5-7-2017	DC Calibration Date
ACCALDATE	LABEL	12/3/2015	AC Calibration Date
FRAMEWORKVERSION	QUANT	7.01	Framework Version
INSTRUMENTVERSION	LABEL	4.00	Instrument Version
CURVE	TABLE	151
	Pt	T	Vf	Im	Vu	Pwr	Sig	Ach	Temp	IERange	Over
	#	s	V	A	V	W	V	V	deg C	#	bits
	0	0.013333	8.11528E-001	-8.88061E-005	0.00000E+000	-7.20686E-005	-5.39641E-002	8.11675E-001	3.57260E+000	9	...........
	1	0.026667	7.97880E-001	-8.88707E-005	0.00000E+000	-7.09082E-005	-5.39641E-002	7.97969E-001	3.57260E+000	9	...........
	2	0.04	7.85072E-001	-8.89155E-005	0.00000E+000	-6.98050E-005	-5.39641E-002	7.85186E-001	3.57260E+000	9	...........
	3	0.053333	7.73027E-001	-8.87551E-005	0.00000E+000	-6.86101E-005	-5.39641E-002	7.73156E-001	3.57260E+000	9	...........
	4	0.066667	7.61527E-001	-8.86290E-005	0.00000E+000	-6.74934E-005	-5.39641E-002	7.61645E-001	3.57260E+000	9	...........
	5	0.08	7.50556E-001	-8.88624E-005	0.00000E+000	-6.66962E-005	-5.39641E-002	7.50659E-001	3.57260E+000	9	...........
	6	0.093333	7.39984E-001	-8.88124E-005	0.00000E+000	-6.57197E-005	-5.39641E-002	7.40126E-001	3.57260E+000	9	...........
	7	0.106667	7.29812E-001	-8.89207E-005	0.00000E+000	-6.48955E-005	-5.39641E-002	7.29961E-001	3.57260E+000	9	...........
	8	0.12	7.20004E-001	-8.89968E-005	0.00000E+000	-6.40780E-005	-5.39641E-002	7.20141E-001	3.57260E+000	9	...........
	9	0.133333	7.10494E-001	-8.88666E-005	0.00000E+000	-6.31392E-005	-5.39641E-002	7.10623E-001	3.57260E+000	9	...........
	10	0.146667	7.01282E-001	-8.86405E-005	0.00000E+000	-6.21620E-005	-5.39641E-002	7.01432E-001	3.57260E+000	9	...........
	11	0.16	6.92379E-001	-8.89103E-005	0.00000E+000	-6.15596E-005	-5.39641E-002	6.92463E-001	3.57260E+000	9	...........
	12	0.173333	6.83682E-001	-8.88864E-005	0.00000E+000	-6.07700E-005	-5.39641E-002	6.83788E-001	3.57260E+000	9	...........
	13	0.186667	6.75197E-001	-8.88291E-005	0.00000E+000	-5.99771E-005	-5.39641E-002	6.75323E-001	3.57260E+000	9	...........
	14	0.2	6.66918E-001	-8.86384E-005	0.00000E+000	-5.91145E-005	-5.39641E-002	6.67044E-001	3.57260E+000	9	...........
	15	0.213333	6.58812E-001	-8.88134E-005	0.00000E+000	-5.85114E-005	-5.39641E-002	6.58925E-001	3.57260E+000	9	...........
	16	0.226667	6.50903E-001	-8.89426E-005	0.00000E+000	-5.78930E-005	-5.39641E-002	6.51003E-001	3.57260E+000	9	...........
	17	0.24	6.43170E-001	-8.86801E-005	0.00000E+000	-5.70364E-005	-5.39641E-002	6.43291E-001	3.57260E+000	9	...........
	18	0.253333	6.35560E-001	-8.88051E-005	0.00000E+000	-5.64410E-005	-5.39641E-002	6.35673E-001	3.57260E+000	9	...........
	19	0.266667	6.28137E-001	-8.86436E-005	0.00000E+000	-5.56804E-005	-5.39641E-002	6.28257E-001	3.57260E+000	9	...........
	20	0.28	6.20872E-001	-8.87582E-005	0.00000E+000	-5.51075E-005	-5.39641E-002	6.20971E-001	3.57260E+000	9	...........
	21	0.293333	6.13720E-001	-8.87676E-005	0.00000E+000	-5.44784E-005	-5.39641E-002	6.13848E-001	3.57260E+000	9	...........
	22	0.306667	6.06659E-001	-8.88280E-005	0.00000E+000	-5.38883E-005	-5.39641E-002	6.06811E-001	3.57260E+000	9	...........
	23	0.32	5.99766E-001	-8.87655E-005	0.00000E+000	-5.32385E-005	-5.39641E-002	5.99883E-001	3.57260E+000	9	...........
	24	0.333333	5.93012E-001	-8.89582E-005	0.00000E+000	-5.27533E-005	-5.39641E-002	5.93121E-001	3.57260E+000	9	...........
	25	0.346667	5.86318E-001	-8.87665E-005	0.00000E+000	-5.20454E-005	-5.39641E-002	5.86425E-001	3.57260E+000	9	...........
	26	0.36	5.79746E-001	-8.87228E-005	0.00000E+000	-5.14367E-005	-5.39641E-002	5.79858E-001	3.57260E+000	9	...........
	27	0.373333	5.73270E-001	-8.92062E-005	0.00000E+000	-5.11392E-005	-5.39641E-002	5.73357E-001	3.57260E+000	9	...........
	28	0.386667	5.66882E-001	-8.88176E-005	0.00000E+000	-5.03491E-005	-5.39641E-002	5.66976E-001	3.57260E+000	9	...........
	29	0.4	5.60525E-001	-8.87374E-005	0.00000E+000	-4.97395E-005	-5.39641E-002	5.60640E-001	3.57260E+000	9	...........
	30	0.413333	5.54303E-001	-8.87780E-005	0.00000E+000	-4.92099E-005	-5.39641E-002	5.54417E-001	3.57260E+000	9	...........
	31	0.426667	5.48146E-001	-8.89301E-005	0.00000E+000	-4.87467E-005	-5.39641E-002	5.48247E-001	3.57260E+000	9	...........
	32	0.44	5.42060E-001	-8.88697E-005	0.00000E+000	-4.81727E-005	-5.39641E-002	5.42182E-001	3.57260E+000	9	...........
	33	0.453333	5.36010E-001	-8.86926E-005	0.00000E+000	-4.75401E-005	-5.39641E-002	5.36107E-001	3.57260E+000	9	...........
	34	0.466667	5.30040E-001	-8.86321E-005	0.00000E+000	-4.69786E-005	-5.39641E-002	5.30136E-001	3.57260E+000	9	...........
	35	0.48	5.24134E-001	-8.88124E-005	0.00000E+000	-4.65496E-005	-5.39641E-002	5.24219E-001	3.57260E+000	9	...........
	36	0.493333	5.18284E-001	-8.90885E-005	0.00000E+000	-4.61732E-005	-5.39641E-002	5.18372E-001	3.57260E+000	9	...........
	37	0.506667	5.12505E-001	-8.87603E-005	0.00000E+000	-4.54901E-005	-5.39641E-002	5.12570E-001	3.57260E+000	9	...........
	38	0.52	5.06691E-001	-8.88082E-005	0.00000E+000	-4.49983E-005	-5.39641E-002	5.06826E-001	3.57260E+000	9	...........
	39	0.533333	5.01022E-001	-8.86686E-005	0.00000E+000	-4.44249E-005	-5.39641E-002	5.01135E-001	3.57260E+000	9	...........
	40	0.546667	4.95401E-001	-8.87176E-005	0.00000E+000	-4.39508E-005	-5.39641E-002	4.95513E-001	3.57260E+000	9	...........
	41	0.56	4.89782E-001	-8.89885E-005	0.00000E+000	-4.35850E-005	-5.39641E-002	4.89891E-001	3.57260E+000	9	...........
	42	0.573333	4.84281E-001	-8.86822E-005	0.00000E+000	-4.29471E-005	-5.39641E-002	4.84371E-001	3.57260E+000	9	...........
	43	0.586667	4.78798E-001	-8.87613E-005	0.00000E+000	-4.24987E-005	-5.39641E-002	4.78865E-001	3.57260E+000	9	...........
	44	0.6	4.73319E-001	-8.87676E-005	0.00000E+000	-4.20154E-005	-5.39641E-002	4.73381E-001	3.57260E+000	9	...........
	45	0.613333	4.67864E-001	-8.90551E-005	0.00000E+000	-4.16657E-005	-5.39641E-002	4.67935E-001	3.57260E+000	9	...........
	46	0.626667	4.62447E-001	-8.87738E-005	0.00000E+000	-4.10532E-005	-5.39641E-002	4.62514E-001	3.57260E+000	9	...........
	47	0.64	4.57060E-001	-8.87207E-005	0.00000E+000	-4.05507E-005	-5.39641E-002	4.57121E-001	3.57260E+000	9	...........
	48	0.653333	4.51708E-001	-8.87363E-005	0.00000E+000	-4.00829E-005	-5.39641E-002	4.51770E-001	3.57260E+000	9	...........
	49	0.666667	4.46386E-001	-8.86686E-005	0.00000E+000	-3.95804E-005	-5.39641E-002	4.46446E-001	3.57260E+000	9	...........
	50	0.68	4.41098E-001	-8.88728E-005	0.00000E+000	-3.92016E-005	-5.39641E-002	4.41165E-001	3.57260E+000	9	...........
	51	0.693333	4.35839E-001	-8.87040E-005	0.00000E+000	-3.86606E-005	-5.39641E-002	4.35899E-001	3.57260E+000	9	...........
	52	0.706667	4.30593E-001	-8.88655E-005	0.00000E+000	-3.82648E-005	-5.39641E-002	4.30647E-001	3.57260E+000	9	...........
	53	0.72	4.25372E-001	-8.88228E-005	0.00000E+000	-3.77827E-005	-5.39641E-002	4.25430E-001	3.57260E+000	9	...........
	54	0.733333	4.20171E-001	-8.87582E-005	0.00000E+000	-3.72936E-005	-5.39641E-002	4.20227E-001	3.57260E+000	9	...........
	55	0.746667	4.15000E-001	-8.88926E-005	0.00000E+000	-3.68905E-005	-5.39641E-002	4.15060E-001	3.57260E+000	9	...........
	56	0.76	4.09852E-001	-8.89603E-005	0.00000E+000	-3.64606E-005	-5.39641E-002	4.09898E-001	3.57260E+000	9	...........
	57	0.773333	4.04711E-001	-8.89989E-005	0.00000E+000	-3.60188E-005	-5.39641E-002	4.04752E-001	3.57260E+000	9	...........
	58	0.786667	3.99585E-001	-8.87197E-005	0.00000E+000	-3.54510E-005	-5.39641E-002	3.99632E-001	3.57260E+000	9	...........
	59	0.8	3.94489E-001	-8.88884E-005	0.00000E+000	-3.50656E-005	-5.39641E-002	3.94537E-001	3.57260E+000	9	...........
	60	0.813333	3.89402E-001	-8.88020E-005	0.00000E+000	-3.45797E-005	-5.39641E-002	3.89446E-001	3.57260E+000	9	...........
	61	0.826667	3.84343E-001	-8.87551E-005	0.00000E+000	-3.41124E-005	-5.39641E-002	3.84387E-001	3.57260E+000	9	...........
	62	0.84	3.79295E-001	-8.88822E-005	0.00000E+000	-3.37126E-005	-5.39641E-002	3.79338E-001	3.57260E+000	9	...........
	63	0.853333	3.74276E-001	-8.87040E-005	0.00000E+000	-3.31998E-005	-5.39641E-002	3.74320E-001	3.57260E+000	9	...........
	64	0.866667	3.69279E-001	-8.89739E-005	0.00000E+000	-3.28562E-005	-5.39641E-002	3.69321E-001	3.57260E+000	9	...........
	65	0.88	3.64284E-001	-8.87624E-005	0.00000E+000	-3.23347E-005	-5.39641E-002	3.64324E-001	3.57260E+000	9	...........
	66	0.893333	3.59303E-001	-8.86269E-005	0.00000E+000	-3.18439E-005	-5.39641E-002	3.59347E-001	3.57260E+000	9	...........
	67	0.906667	3.54336E-001	-8.86082E-005	0.00000E+000	-3.13971E-005	-5.39641E-002	3.54378E-001	3.57260E+000	9	...........
	68	0.92	3.49378E-001	-8.89874E-005	0.00000E+000	-3.10902E-005	-5.39641E-002	3.49423E-001	3.57260E+000	9	...........
	69	0.933333	3.44431E-001	-8.89499E-005	0.00000E+000	-3.06371E-005	-5.39641E-002	3.44474E-001	3.57260E+000	9	...........
	70	0.946667	3.39507E-001	-8.88176E-005	0.00000E+000	-3.01542E-005	-5.39641E-002	3.39550E-001	3.57260E+000	9	...........
	71	0.96	3.34598E-001	-8.87686E-005	0.00000E+000	-2.97018E-005	-5.39641E-002	3.34646E-001	3.57260E+000	9	...........
	72	0.97333	3.29715E-001	-8.88332E-005	0.00000E+000	-2.92896E-005	-5.39641E-002	3.29760E-001	3.57260E+000	9	...........
	73	0.98667	3.24831E-001	-8.87290E-005	0.00000E+000	-2.88219E-005	-5.39641E-002	3.24874E-001	3.57260E+000	9	...........
	74	1	3.19954E-001	-8.88457E-005	0.00000E+000	-2.84266E-005	-5.39641E-002	3.19998E-001	3.57260E+000	9	...........
	75	1.01333	3.15099E-001	-8.89655E-005	0.00000E+000	-2.80330E-005	-5.39641E-002	3.15142E-001	3.57260E+000	9	...........
	76	1.02667	3.10257E-001	-8.87082E-005	0.00000E+000	-2.75223E-005	-5.39641E-002	3.10302E-001	3.57260E+000	9	...........
	77	1.04	3.05429E-001	-8.88072E-005	0.00000E+000	-2.71242E-005	-5.39641E-002	3.05468E-001	3.57260E+000	9	...........
	78	1.05333	3.00614E-001	-8.87936E-005	0.00000E+000	-2.66926E-005	-5.39641E-002	3.00647E-001	3.57260E+000	9	...........
	79	1.06667	2.95802E-001	-8.88405E-005	0.00000E+000	-2.62792E-005	-5.39641E-002	2.95841E-001	3.57260E+000	9	...........
	80	1.08	2.91012E-001	-8.88530E-005	0.00000E+000	-2.58573E-005	-5.39641E-002	2.91052E-001	3.57260E+000	9	...........
	81	1.09333	2.86240E-001	-8.87697E-005	0.00000E+000	-2.54095E-005	-5.39641E-002	2.86283E-001	3.57260E+000	9	...........
	82	1.10667	2.81491E-001	-8.87436E-005	0.00000E+000	-2.49805E-005	-5.39641E-002	2.81534E-001	3.57260E+000	9	...........
	83	1.12	2.76763E-001	-8.88530E-005	0.00000E+000	-2.45912E-005	-5.39641E-002	2.76797E-001	3.57260E+000	9	...........
	84	1.13333	2.72058E-001	-8.88603E-005	0.00000E+000	-2.41752E-005	-5.39641E-002	2.72099E-001	3.57260E+000	9	...........
	85	1.14667	2.67368E-001	-8.90145E-005	0.00000E+000	-2.37996E-005	-5.39641E-002	2.67406E-001	3.57260E+000	9	...........
	86	1.16	2.62688E-001	-8.87915E-005	0.00000E+000	-2.33244E-005	-5.39641E-002	2.62726E-001	3.57260E+000	9	...........
	87	1.17333	2.58004E-001	-8.88426E-005	0.00000E+000	-2.29218E-005	-5.39641E-002	2.58045E-001	3.57260E+000	9	...........
	88	1.18667	2.53350E-001	-8.88051E-005	0.00000E+000	-2.24988E-005	-5.39641E-002	2.53388E-001	3.57260E+000	9	...........
	89	1.2	2.48726E-001	-8.85102E-005	0.00000E+000	-2.20148E-005	-5.39641E-002	2.48759E-001	3.57260E+000	9	...........
	90	1.21333	2.44119E-001	-8.85436E-005	0.00000E+000	-2.16152E-005	-5.39641E-002	2.44149E-001	3.57260E+000	9	...........
	91	1.22667	2.39532E-001	-8.86655E-005	0.00000E+000	-2.12382E-005	-5.39641E-002	2.39564E-001	3.57260E+000	9	...........
	92	1.24	2.34956E-001	-8.85592E-005	0.00000E+000	-2.08075E-005	-5.39641E-002	2.34974E-001	3.57260E+000	9	...........
	93	1.25333	2.30386E-001	-8.86801E-005	0.00000E+000	-2.04306E-005	-5.39641E-002	2.30413E-001	3.57260E+000	9	...........
	94	1.26667	2.25824E-001	-8.88363E-005	0.00000E+000	-2.00614E-005	-5.39641E-002	2.25849E-001	3.57260E+000	9	...........
	95	1.28	2.21298E-001	-8.90895E-005	0.00000E+000	-1.97153E-005	-5.39641E-002	2.21324E-001	3.57260E+000	9	...........
	96	1.29333	2.16784E-001	-8.89280E-005	0.00000E+000	-1.92782E-005	-5.39641E-002	2.16806E-001	3.57260E+000	9	...........
	97	1.30667	2.12285E-001	-8.88457E-005	0.00000E+000	-1.88606E-005	-5.39641E-002	2.12309E-001	3.57260E+000	9	...........
	98	1.32	2.07827E-001	-8.89426E-005	0.00000E+000	-1.84847E-005	-5.39641E-002	2.07852E-001	3.57260E+000	9	...........
	99	1.33333	2.03384E-001	-8.88561E-005	0.00000E+000	-1.80719E-005	-5.39641E-002	2.03407E-001	3.57260E+000	9	...........
	100	1.34667	1.98948E-001	-8.88780E-005	0.00000E+000	-1.76821E-005	-5.39641E-002	1.98980E-001	3.57260E+000	9	...........
	101	1.36	1.94543E-001	-8.87884E-005	0.00000E+000	-1.72731E-005	-5.39641E-002	1.94568E-001	3.57260E+000	9	...........
	102	1.37333	1.90149E-001	-8.90416E-005	0.00000E+000	-1.69312E-005	-5.39641E-002	1.90171E-001	3.57260E+000	9	...........
	103	1.38667	1.85766E-001	-8.89801E-005	0.00000E+000	-1.65295E-005	-5.39641E-002	1.85787E-001	3.57260E+000	9	...........
	104	1.4	1.81411E-001	-8.89114E-005	0.00000E+000	-1.61295E-005	-5.39641E-002	1.81432E-001	3.57260E+000	9	...........
	105	1.41333	1.77074E-001	-8.89958E-005	0.00000E+000	-1.57588E-005	-5.39641E-002	1.77098E-001	3.57260E+000	9	...........
	106	1.42667	1.72751E-001	-8.89572E-005	0.00000E+000	-1.53675E-005	-5.39641E-002	1.72778E-001	3.57260E+000	9	...........
	107	1.44	1.68458E-001	-8.89072E-005	0.00000E+000	-1.49771E-005	-5.39641E-002	1.68479E-001	3.57260E+000	9	...........
	108	1.45333	1.64192E-001	-8.86248E-005	0.00000E+000	-1.45515E-005	-5.39641E-002	1.64206E-001	3.57260E+000	9	...........
	109	1.46667	1.59936E-001	-8.87780E-005	0.00000E+000	-1.41988E-005	-5.39641E-002	1.59951E-001	3.57260E+000	9	...........
	110	1.48	1.55701E-001	-8.86655E-005	0.00000E+000	-1.38053E-005	-5.39641E-002	1.55715E-001	3.57260E+000	9	...........
	111	1.49333	1.51480E-001	-8.86082E-005	0.00000E+000	-1.34224E-005	-5.39641E-002	1.51496E-001	3.57260E+000	9	...........
	112	1.50667	1.47275E-001	-8.87363E-005	0.00000E+000	-1.30687E-005	-5.39641E-002	1.47289E-001	3.57260E+000	9	...........
	113	1.52	1.43097E-001	-8.88645E-005	0.00000E+000	-1.27162E-005	-5.39641E-002	1.43114E-001	3.57260E+000	9	...........
	114	1.53333	1.38938E-001	-8.90228E-005	0.00000E+000	-1.23686E-005	-5.39641E-002	1.38950E-001	3.57260E+000	9	...........
	115	1.54667	1.34786E-001	-8.85352E-005	0.00000E+000	-1.19333E-005	-5.39641E-002	1.34800E-001	3.57260E+000	9	...........
	116	1.56	1.30655E-001	-8.85675E-005	0.00000E+000	-1.15718E-005	-5.39641E-002	1.30670E-001	3.57260E+000	9	...........
	117	1.57333	1.26540E-001	-8.88416E-005	0.00000E+000	-1.12420E-005	-5.39641E-002	1.26548E-001	3.57260E+000	9	...........
	118	1.58667	1.22460E-001	-8.89905E-005	0.00000E+000	-1.08978E-005	-5.39641E-002	1.22471E-001	3.57260E+000	9	...........
	119	1.6	1.18403E-001	-8.87540E-005	0.00000E+000	-1.05087E-005	-5.39641E-002	1.18411E-001	3.57260E+000	9	...........
	120	1.61333	1.14373E-001	-8.87603E-005	0.00000E+000	-1.01518E-005	-5.39641E-002	1.14382E-001	3.57260E+000	9	...........
	121	1.62667	1.10375E-001	-8.85853E-005	0.00000E+000	-9.77762E-006	-5.39641E-002	1.10378E-001	3.57260E+000	9	...........
	122	1.64	1.06377E-001	-8.85894E-005	0.00000E+000	-9.42387E-006	-5.39641E-002	1.06387E-001	3.57260E+000	9	...........
	123	1.65333	1.02388E-001	-8.87144E-005	0.00000E+000	-9.08332E-006	-5.39641E-002	1.02398E-001	3.57260E+000	9	...........
	124	1.66667	9.84125E-002	-8.88572E-005	0.00000E+000	-8.74466E-006	-5.39641E-002	9.84266E-002	3.57260E+000	9	...........
	125	1.68	9.44557E-002	-8.87186E-005	0.00000E+000	-8.37998E-006	-5.39641E-002	9.44607E-002	3.57260E+000	9	...........
	126	1.69333	9.05076E-002	-8.85915E-005	0.00000E+000	-8.01820E-006	-5.39641E-002	9.05175E-002	3.57260E+000	9	...........
	127	1.70667	8.65758E-002	-8.86936E-005	0.00000E+000	-7.67872E-006	-5.39641E-002	8.65861E-002	3.57260E+000	9	...........
	128	1.72	8.26760E-002	-8.89009E-005	0.00000E+000	-7.34998E-006	-5.39641E-002	8.26756E-002	3.57260E+000	9	...........
	129	1.73333	7.87961E-002	-8.88530E-005	0.00000E+000	-7.00127E-006	-5.39641E-002	7.87966E-002	3.57260E+000	9	...........
	130	1.74667	7.49343E-002	-8.88853E-005	0.00000E+000	-6.66056E-006	-5.39641E-002	7.49267E-002	3.57260E+000	9	...........
	131	1.76	7.10742E-002	-8.89114E-005	0.00000E+000	-6.31931E-006	-5.39641E-002	7.10737E-002	3.57260E+000	9	...........
	132	1.77333	6.72264E-002	-8.88791E-005	0.00000E+000	-5.97502E-006	-5.39641E-002	6.72261E-002	3.57260E+000	9	...........
	133	1.78667	6.34017E-002	-8.86467E-005	0.00000E+000	-5.62035E-006	-5.39641E-002	6.33961E-002	3.57260E+000	9	...........
	134	1.8	5.95841E-002	-8.87228E-005	0.00000E+000	-5.28647E-006	-5.39641E-002	5.95865E-002	3.57260E+000	9	...........
	135	1.81333	5.57958E-002	-8.88968E-005	0.00000E+000	-4.96007E-006	-5.39641E-002	5.57909E-002	3.57260E+000	9	...........
	136	1.82667	5.20189E-002	-8.88113E-005	0.00000E+000	-4.61987E-006	-5.39641E-002	5.20195E-002	3.57260E+000	9	...........
	137	1.84	4.82772E-002	-8.88905E-005	0.00000E+000	-4.29138E-006	-5.39641E-002	4.82857E-002	3.57260E+000	9	...........
	138	1.85333	4.45597E-002	-8.89780E-005	0.00000E+000	-3.96483E-006	-5.39641E-002	4.45675E-002	3.57260E+000	9	...........
	139	1.86667	4.08463E-002	-8.89249E-005	0.00000E+000	-3.63226E-006	-5.39641E-002	4.08552E-002	3.57260E+000	9	...........
	140	1.88	3.71558E-002	-8.87395E-005	0.00000E+000	-3.29719E-006	-5.39641E-002	3.71633E-002	3.57260E+000	9	...........
	141	1.89333	3.34859E-002	-8.88561E-005	0.00000E+000	-2.97543E-006	-5.39641E-002	3.34901E-002	3.57260E+000	9	...........
	142	1.90667	2.98311E-002	-8.87676E-005	0.00000E+000	-2.64803E-006	-5.39641E-002	2.98361E-002	3.57260E+000	9	...........
	143	1.92	2.61885E-002	-8.86801E-005	0.00000E+000	-2.32240E-006	-5.39641E-002	2.61882E-002	3.57260E+000	9	...........
	144	1.93333	2.25525E-002	-8.88457E-005	0.00000E+000	-2.00369E-006	-5.39641E-002	2.25542E-002	3.57260E+000	9	...........
	145	1.94667	1.89367E-002	-8.89207E-005	0.00000E+000	-1.68386E-006	-5.39641E-002	1.89350E-002	3.57260E+000	9	...........
	146	1.96	1.53407E-002	-8.89260E-005	0.00000E+000	-1.36419E-006	-5.39641E-002	1.53372E-002	3.57260E+000	9	...........
	147	1.97333	1.17700E-002	-8.88801E-005	0.00000E+000	-1.04612E-006	-5.39641E-002	1.17589E-002	3.57260E+000	9	...........
	148	1.98667	8.21565E-003	-8.86676E-005	0.00000E+000	-7.28461E-007	-5.39641E-002	8.20548E-003	3.57260E+000	9	...........
	149	2	4.67762E-003	-8.87999E-005	0.00000E+000	-4.15372E-007	-5.39641E-002	4.66548E-003	3.57260E+000	9	...........
	150	2.01333	1.15672E-003	-8.89614E-005	0.00000E+000	-1.02903E-007	-5.39641E-002	1.13863E-003	3.57260E+000	9	...........
STARTTIMEOFFSET	QUANT	2449.804	Start Time Offset (s)
