EXPLAIN
TAG	PWR800_DISCHARGE
TITLE	LABEL	PWR Cyclic Charge Discharge (Cell) - Discharge Step	Test &Identifier
DATE	LABEL	10-7-2017	Date
TIME	LABEL	16:17:18	Time
NOTES	NOTES	3	&Notes...
	supercap test cell
	0.9mg
	6M KOH
PSTAT	PSTAT	IFC5000-01520	Potentiostat
CAPACITY	QUANT	1.00000E-003	Capacity (A-hr)
CELLTYPE	SELECTOR	1	&Cell Type
WORKINGCONNECTION	SELECTOR	0	&Working Lead
MAXDISCHARGETIME	VARIABLEANDUNITS	1.00000E+002	s	1.00000E+002	second(s)	Max &Discharge Time
DISCHARGEMODE	MULTIPARAM	0	9.00000E-005	&Discharge Mode	Constant Current	Amp(s)
SAMPLETIME	QUANT	1.00000E-002	Sa&mple Period (s)
DISCHARGESTOPAT1	MULTIPARAM	3	0.00000E+000	Discharge Stop At &1	Voltage < Limit	V
DISCHARGESTOPAT2	MULTIPARAM	0	0.00000E+000	Discharge Stop At &2	None	N/A
AESBHCSELECTOR	TOGGLE	F	Save Both Half Cells
IRCOMP	TOGGLE	F	IR &Measure
EOC	QUANT	0	Open Circuit (V)
SEQUENCER	TOGGLE	TRUE	Run as Sequence
PSTATMODEL	IQUANT	53	Pstat Model
PSTATSECTION	LABEL	IFC5000-01520	Pstat Section
PSTATSERIALNO	LABEL	01520	Pstat Serial Number
CTRLMODE	IQUANT	0	Control Mode
ELECTROMETER	IQUANT	1	RE=0 or CS=1
IESTAB	IQUANT	0	I/E Stability
CASPEED	IQUANT	4	Control Amp Speed
CONVENTION	IQUANT	1	Current Convention
ICHRANGE	IQUANT	2	Ich Range
ICHRANGEMODE	TOGGLE	T	Ich Auto Range
ICHOFFSETENABLE	TOGGLE	F	Ich Offset Enable
ICHOFFSET	QUANT	0	Ich Offset (V)
ICHFILTER	IQUANT	1	Ich Filter
VCHRANGE	IQUANT	2	Vch Range
VCHRANGEMODE	TOGGLE	T	Vch Auto Range
VCHOFFSETENABLE	TOGGLE	F	Vch Offset Enable
VCHOFFSET	QUANT	0	Vch Offset (V)
VCHFILTER	IQUANT	1	Vch Filter
IERANGELOWERLIMIT	IQUANT	9	I/E Range Lower Limit
IERANGEMODE	TOGGLE	F	I/E AutoRange
IERANGE	IQUANT	9	I/E Range
ACHSELECT	IQUANT	1	Ach Select
ACHRANGE	IQUANT	2	Ach Range
ACHOFFSETENABLE	TOGGLE	F	Ach Offset Enable
ACHOFFSET	QUANT	0	Ach Offset (V)
ACHFILTER	IQUANT	1	Ach Filter
CABLEID	IQUANT	14	Cable ID
DCCALDATE	LABEL	5-7-2017	DC Calibration Date
ACCALDATE	LABEL	12/3/2015	AC Calibration Date
FRAMEWORKVERSION	QUANT	7.01	Framework Version
INSTRUMENTVERSION	LABEL	4.00	Instrument Version
CURVE	TABLE	147
	Pt	T	Vf	Im	Vu	Pwr	Sig	Ach	Temp	IERange	Over
	#	s	V	A	V	W	V	V	deg C	#	bits
	0	0.013333	8.03597E-001	-8.86488E-005	0.00000E+000	-7.12379E-005	-5.39641E-002	8.03730E-001	3.57330E+000	9	...........
	1	0.026667	7.89192E-001	-8.88593E-005	0.00000E+000	-7.01270E-005	-5.39641E-002	7.89324E-001	3.57330E+000	9	...........
	2	0.04	7.75782E-001	-8.87582E-005	0.00000E+000	-6.88570E-005	-5.39641E-002	7.75957E-001	3.57330E+000	9	...........
	3	0.053333	7.63160E-001	-8.86853E-005	0.00000E+000	-6.76810E-005	-5.39641E-002	7.63302E-001	3.57330E+000	9	...........
	4	0.066667	7.51208E-001	-8.84425E-005	0.00000E+000	-6.64387E-005	-5.39641E-002	7.51328E-001	3.57330E+000	9	...........
	5	0.08	7.39745E-001	-8.86353E-005	0.00000E+000	-6.55675E-005	-5.39641E-002	7.39884E-001	3.57330E+000	9	...........
	6	0.093333	7.28800E-001	-8.87426E-005	0.00000E+000	-6.46756E-005	-5.39641E-002	7.28943E-001	3.57330E+000	9	...........
	7	0.106667	7.18276E-001	-8.87384E-005	0.00000E+000	-6.37386E-005	-5.39641E-002	7.18404E-001	3.57330E+000	9	...........
	8	0.12	7.08121E-001	-8.85519E-005	0.00000E+000	-6.27054E-005	-5.39641E-002	7.08249E-001	3.57330E+000	9	...........
	9	0.133333	6.98345E-001	-8.86238E-005	0.00000E+000	-6.18900E-005	-5.39641E-002	6.98463E-001	3.57330E+000	9	...........
	10	0.146667	6.88834E-001	-8.86790E-005	0.00000E+000	-6.10851E-005	-5.39641E-002	6.88960E-001	3.57330E+000	9	...........
	11	0.16	6.79609E-001	-8.88968E-005	0.00000E+000	-6.04150E-005	-5.39641E-002	6.79738E-001	3.57330E+000	9	...........
	12	0.173333	6.70651E-001	-8.88197E-005	0.00000E+000	-5.95670E-005	-5.39641E-002	6.70767E-001	3.57330E+000	9	...........
	13	0.186667	6.61929E-001	-8.89426E-005	0.00000E+000	-5.88737E-005	-5.39641E-002	6.62045E-001	3.57330E+000	9	...........
	14	0.2	6.53454E-001	-8.86644E-005	0.00000E+000	-5.79381E-005	-5.39641E-002	6.53586E-001	3.57330E+000	9	...........
	15	0.213333	6.45191E-001	-8.86176E-005	0.00000E+000	-5.71753E-005	-5.39641E-002	6.45303E-001	3.57330E+000	9	...........
	16	0.226667	6.37098E-001	-8.87634E-005	0.00000E+000	-5.65510E-005	-5.39641E-002	6.37202E-001	3.57330E+000	9	...........
	17	0.24	6.29191E-001	-8.88238E-005	0.00000E+000	-5.58872E-005	-5.39641E-002	6.29327E-001	3.57330E+000	9	...........
	18	0.253333	6.21504E-001	-8.85582E-005	0.00000E+000	-5.50392E-005	-5.39641E-002	6.21612E-001	3.57330E+000	9	...........
	19	0.266667	6.13910E-001	-8.86342E-005	0.00000E+000	-5.44134E-005	-5.39641E-002	6.14046E-001	3.57330E+000	9	...........
	20	0.28	6.06496E-001	-8.86561E-005	0.00000E+000	-5.37695E-005	-5.39641E-002	6.06641E-001	3.57330E+000	9	...........
	21	0.293333	5.99248E-001	-8.87290E-005	0.00000E+000	-5.31707E-005	-5.39641E-002	5.99397E-001	3.57330E+000	9	...........
	22	0.306667	5.92152E-001	-8.87790E-005	0.00000E+000	-5.25706E-005	-5.39641E-002	5.92280E-001	3.57330E+000	9	...........
	23	0.32	5.85139E-001	-8.89322E-005	0.00000E+000	-5.20377E-005	-5.39641E-002	5.85265E-001	3.57330E+000	9	...........
	24	0.333333	5.78251E-001	-8.87551E-005	0.00000E+000	-5.13227E-005	-5.39641E-002	5.78380E-001	3.57330E+000	9	...........
	25	0.346667	5.71490E-001	-8.85405E-005	0.00000E+000	-5.06000E-005	-5.39641E-002	5.71598E-001	3.57330E+000	9	...........
	26	0.36	5.64818E-001	-8.89134E-005	0.00000E+000	-5.02199E-005	-5.39641E-002	5.64932E-001	3.57330E+000	9	...........
	27	0.373333	5.58239E-001	-8.88416E-005	0.00000E+000	-4.95948E-005	-5.39641E-002	5.58340E-001	3.57330E+000	9	...........
	28	0.386667	5.51795E-001	-8.87624E-005	0.00000E+000	-4.89787E-005	-5.39641E-002	5.51901E-001	3.57330E+000	9	...........
	29	0.4	5.45434E-001	-8.85498E-005	0.00000E+000	-4.82981E-005	-5.39641E-002	5.45535E-001	3.57330E+000	9	...........
	30	0.413333	5.39163E-001	-8.90864E-005	0.00000E+000	-4.80321E-005	-5.39641E-002	5.39256E-001	3.57330E+000	9	...........
	31	0.426667	5.32948E-001	-8.90281E-005	0.00000E+000	-4.74474E-005	-5.39641E-002	5.33032E-001	3.57330E+000	9	...........
	32	0.44	5.26830E-001	-8.87770E-005	0.00000E+000	-4.67704E-005	-5.39641E-002	5.26924E-001	3.57330E+000	9	...........
	33	0.453333	5.20799E-001	-8.88801E-005	0.00000E+000	-4.62887E-005	-5.39641E-002	5.20881E-001	3.57330E+000	9	...........
	34	0.466667	5.14845E-001	-8.90249E-005	0.00000E+000	-4.58341E-005	-5.39641E-002	5.14893E-001	3.57330E+000	9	...........
	35	0.48	5.08892E-001	-8.87665E-005	0.00000E+000	-4.51726E-005	-5.39641E-002	5.09011E-001	3.57330E+000	9	...........
	36	0.493333	5.03067E-001	-8.86436E-005	0.00000E+000	-4.45937E-005	-5.39641E-002	5.03175E-001	3.57330E+000	9	...........
	37	0.506667	4.97288E-001	-8.85113E-005	0.00000E+000	-4.40156E-005	-5.39641E-002	4.97424E-001	3.57330E+000	9	...........
	38	0.52	4.91577E-001	-8.87395E-005	0.00000E+000	-4.36223E-005	-5.39641E-002	4.91693E-001	3.57330E+000	9	...........
	39	0.533333	4.85941E-001	-8.89385E-005	0.00000E+000	-4.32188E-005	-5.39641E-002	4.86056E-001	3.57330E+000	9	...........
	40	0.546667	4.80402E-001	-8.88145E-005	0.00000E+000	-4.26666E-005	-5.39641E-002	4.80469E-001	3.57330E+000	9	...........
	41	0.56	4.74837E-001	-8.88041E-005	0.00000E+000	-4.21675E-005	-5.39641E-002	4.74904E-001	3.57330E+000	9	...........
	42	0.573333	4.69312E-001	-8.86478E-005	0.00000E+000	-4.16035E-005	-5.39641E-002	4.69377E-001	3.57330E+000	9	...........
	43	0.586667	4.63829E-001	-8.86071E-005	0.00000E+000	-4.10986E-005	-5.39641E-002	4.63890E-001	3.57330E+000	9	...........
	44	0.6	4.58380E-001	-8.90030E-005	0.00000E+000	-4.07972E-005	-5.39641E-002	4.58436E-001	3.57330E+000	9	...........
	45	0.613333	4.52974E-001	-8.88103E-005	0.00000E+000	-4.02288E-005	-5.39641E-002	4.53035E-001	3.57330E+000	9	...........
	46	0.626667	4.47586E-001	-8.86311E-005	0.00000E+000	-3.96700E-005	-5.39641E-002	4.47648E-001	3.57330E+000	9	...........
	47	0.64	4.42250E-001	-8.88530E-005	0.00000E+000	-3.92952E-005	-5.39641E-002	4.42316E-001	3.57330E+000	9	...........
	48	0.653333	4.36960E-001	-8.87936E-005	0.00000E+000	-3.87992E-005	-5.39641E-002	4.37018E-001	3.57330E+000	9	...........
	49	0.666667	4.31686E-001	-8.87582E-005	0.00000E+000	-3.83157E-005	-5.39641E-002	4.31751E-001	3.57330E+000	9	...........
	50	0.68	4.26453E-001	-8.88822E-005	0.00000E+000	-3.79041E-005	-5.39641E-002	4.26511E-001	3.57330E+000	9	...........
	51	0.693333	4.21246E-001	-8.88926E-005	0.00000E+000	-3.74456E-005	-5.39641E-002	4.21306E-001	3.57330E+000	9	...........
	52	0.706667	4.16070E-001	-8.87978E-005	0.00000E+000	-3.69461E-005	-5.39641E-002	4.16128E-001	3.57330E+000	9	...........
	53	0.72	4.10914E-001	-8.89385E-005	0.00000E+000	-3.65460E-005	-5.39641E-002	4.10975E-001	3.57330E+000	9	...........
	54	0.733333	4.05798E-001	-8.90291E-005	0.00000E+000	-3.61278E-005	-5.39641E-002	4.05853E-001	3.57330E+000	9	...........
	55	0.746667	4.00683E-001	-8.87697E-005	0.00000E+000	-3.55685E-005	-5.39641E-002	4.00739E-001	3.57330E+000	9	...........
	56	0.76	3.95598E-001	-8.88864E-005	0.00000E+000	-3.51633E-005	-5.39641E-002	3.95649E-001	3.57330E+000	9	...........
	57	0.773333	3.90519E-001	-8.90510E-005	0.00000E+000	-3.47761E-005	-5.39641E-002	3.90571E-001	3.57330E+000	9	...........
	58	0.786667	3.85470E-001	-8.87259E-005	0.00000E+000	-3.42011E-005	-5.39641E-002	3.85515E-001	3.57330E+000	9	...........
	59	0.8	3.80443E-001	-8.87113E-005	0.00000E+000	-3.37496E-005	-5.39641E-002	3.80488E-001	3.57330E+000	9	...........
	60	0.813333	3.75423E-001	-8.90051E-005	0.00000E+000	-3.34146E-005	-5.39641E-002	3.75471E-001	3.57330E+000	9	...........
	61	0.826667	3.70412E-001	-8.89239E-005	0.00000E+000	-3.29385E-005	-5.39641E-002	3.70457E-001	3.57330E+000	9	...........
	62	0.84	3.65418E-001	-8.87905E-005	0.00000E+000	-3.24457E-005	-5.39641E-002	3.65469E-001	3.57330E+000	9	...........
	63	0.853333	3.60440E-001	-8.90051E-005	0.00000E+000	-3.20810E-005	-5.39641E-002	3.60490E-001	3.57330E+000	9	...........
	64	0.866667	3.55476E-001	-8.88728E-005	0.00000E+000	-3.15921E-005	-5.39641E-002	3.55522E-001	3.57397E+000	9	...........
	65	0.88	3.50518E-001	-8.86811E-005	0.00000E+000	-3.10843E-005	-5.39641E-002	3.50563E-001	3.57420E+000	9	...........
	66	0.893333	3.45567E-001	-8.86686E-005	0.00000E+000	-3.06409E-005	-5.39641E-002	3.45608E-001	3.57420E+000	9	...........
	67	0.906667	3.40641E-001	-8.88405E-005	0.00000E+000	-3.02627E-005	-5.39641E-002	3.40685E-001	3.57420E+000	9	...........
	68	0.92	3.35735E-001	-8.93000E-005	0.00000E+000	-2.99811E-005	-5.39641E-002	3.35780E-001	3.57420E+000	9	...........
	69	0.933333	3.30853E-001	-8.87676E-005	0.00000E+000	-2.93690E-005	-5.39641E-002	3.30889E-001	3.57420E+000	9	...........
	70	0.946667	3.25970E-001	-8.89020E-005	0.00000E+000	-2.89793E-005	-5.39641E-002	3.26015E-001	3.57420E+000	9	...........
	71	0.96	3.21087E-001	-8.86415E-005	0.00000E+000	-2.84616E-005	-5.39641E-002	3.21128E-001	3.57420E+000	9	...........
	72	0.97333	3.16217E-001	-8.87009E-005	0.00000E+000	-2.80488E-005	-5.39641E-002	3.16258E-001	3.57420E+000	9	...........
	73	0.98667	3.11356E-001	-8.88186E-005	0.00000E+000	-2.76542E-005	-5.39641E-002	3.11403E-001	3.57420E+000	9	...........
	74	1	3.06518E-001	-8.89572E-005	0.00000E+000	-2.72670E-005	-5.39641E-002	3.06556E-001	3.57420E+000	9	...........
	75	1.01333	3.01680E-001	-8.88874E-005	0.00000E+000	-2.68155E-005	-5.39641E-002	3.01721E-001	3.57420E+000	9	...........
	76	1.02667	2.96863E-001	-8.88634E-005	0.00000E+000	-2.63802E-005	-5.39641E-002	2.96902E-001	3.57420E+000	9	...........
	77	1.04	2.92063E-001	-8.88707E-005	0.00000E+000	-2.59558E-005	-5.39641E-002	2.92096E-001	3.57420E+000	9	...........
	78	1.05333	2.87280E-001	-8.85050E-005	0.00000E+000	-2.54258E-005	-5.39641E-002	2.87320E-001	3.57420E+000	9	...........
	79	1.06667	2.82507E-001	-8.87551E-005	0.00000E+000	-2.50739E-005	-5.39641E-002	2.82544E-001	3.57420E+000	9	...........
	80	1.08	2.77735E-001	-8.92604E-005	0.00000E+000	-2.47907E-005	-5.39641E-002	2.77772E-001	3.57420E+000	9	...........
	81	1.09333	2.72987E-001	-8.90916E-005	0.00000E+000	-2.43209E-005	-5.39641E-002	2.73025E-001	3.57420E+000	9	...........
	82	1.10667	2.68253E-001	-8.88905E-005	0.00000E+000	-2.38452E-005	-5.39641E-002	2.68289E-001	3.57420E+000	9	...........
	83	1.12	2.63532E-001	-8.87342E-005	0.00000E+000	-2.33843E-005	-5.39641E-002	2.63564E-001	3.57420E+000	9	...........
	84	1.13333	2.58833E-001	-8.87051E-005	0.00000E+000	-2.29598E-005	-5.39641E-002	2.58863E-001	3.57420E+000	9	...........
	85	1.14667	2.54130E-001	-8.87426E-005	0.00000E+000	-2.25521E-005	-5.39641E-002	2.54161E-001	3.57420E+000	9	...........
	86	1.16	2.49440E-001	-8.89103E-005	0.00000E+000	-2.21778E-005	-5.39641E-002	2.49469E-001	3.57420E+000	9	...........
	87	1.17333	2.44758E-001	-8.89103E-005	0.00000E+000	-2.17615E-005	-5.39641E-002	2.44787E-001	3.57420E+000	9	...........
	88	1.18667	2.40093E-001	-8.87030E-005	0.00000E+000	-2.12969E-005	-5.39641E-002	2.40116E-001	3.57420E+000	9	...........
	89	1.2	2.35442E-001	-8.86509E-005	0.00000E+000	-2.08721E-005	-5.39641E-002	2.35469E-001	3.57420E+000	9	...........
	90	1.21333	2.30809E-001	-8.87520E-005	0.00000E+000	-2.04848E-005	-5.39641E-002	2.30832E-001	3.57420E+000	9	...........
	91	1.22667	2.26190E-001	-8.93000E-005	0.00000E+000	-2.01988E-005	-5.39641E-002	2.26217E-001	3.57420E+000	9	...........
	92	1.24	2.21595E-001	-8.87988E-005	0.00000E+000	-1.96774E-005	-5.39641E-002	2.21617E-001	3.57420E+000	9	...........
	93	1.25333	2.17011E-001	-8.90208E-005	0.00000E+000	-1.93185E-005	-5.39641E-002	2.17039E-001	3.57420E+000	9	...........
	94	1.26667	2.12460E-001	-8.86134E-005	0.00000E+000	-1.88268E-005	-5.39641E-002	2.12483E-001	3.57420E+000	9	...........
	95	1.28	2.07912E-001	-8.87072E-005	0.00000E+000	-1.84433E-005	-5.39641E-002	2.07937E-001	3.57420E+000	9	...........
	96	1.29333	2.03385E-001	-8.87874E-005	0.00000E+000	-1.80580E-005	-5.39641E-002	2.03411E-001	3.57420E+000	9	...........
	97	1.30667	1.98872E-001	-8.90729E-005	0.00000E+000	-1.77141E-005	-5.39641E-002	1.98900E-001	3.57420E+000	9	...........
	98	1.32	1.94377E-001	-8.88666E-005	0.00000E+000	-1.72736E-005	-5.39641E-002	1.94404E-001	3.57420E+000	9	...........
	99	1.33333	1.89906E-001	-8.84779E-005	0.00000E+000	-1.68025E-005	-5.39641E-002	1.89926E-001	3.57420E+000	9	...........
	100	1.34667	1.85460E-001	-8.89822E-005	0.00000E+000	-1.65026E-005	-5.39641E-002	1.85477E-001	3.57420E+000	9	...........
	101	1.36	1.81032E-001	-8.87363E-005	0.00000E+000	-1.60641E-005	-5.39641E-002	1.81055E-001	3.57420E+000	9	...........
	102	1.37333	1.76611E-001	-8.87749E-005	0.00000E+000	-1.56786E-005	-5.39641E-002	1.76631E-001	3.57420E+000	9	...........
	103	1.38667	1.72201E-001	-8.86801E-005	0.00000E+000	-1.52708E-005	-5.39641E-002	1.72222E-001	3.57420E+000	9	...........
	104	1.4	1.67805E-001	-8.87301E-005	0.00000E+000	-1.48893E-005	-5.39641E-002	1.67826E-001	3.57420E+000	9	...........
	105	1.41333	1.63446E-001	-8.86801E-005	0.00000E+000	-1.44944E-005	-5.39641E-002	1.63465E-001	3.57420E+000	9	...........
	106	1.42667	1.59094E-001	-8.86769E-005	0.00000E+000	-1.41080E-005	-5.39641E-002	1.59115E-001	3.57420E+000	9	...........
	107	1.44	1.54762E-001	-8.88280E-005	0.00000E+000	-1.37472E-005	-5.39641E-002	1.54776E-001	3.57420E+000	9	...........
	108	1.45333	1.50453E-001	-8.87395E-005	0.00000E+000	-1.33511E-005	-5.39641E-002	1.50460E-001	3.57420E+000	9	...........
	109	1.46667	1.46147E-001	-8.89093E-005	0.00000E+000	-1.29938E-005	-5.39641E-002	1.46166E-001	3.57420E+000	9	...........
	110	1.48	1.41871E-001	-8.85665E-005	0.00000E+000	-1.25650E-005	-5.39641E-002	1.41891E-001	3.57420E+000	9	...........
	111	1.49333	1.37625E-001	-8.85925E-005	0.00000E+000	-1.21926E-005	-5.39641E-002	1.37640E-001	3.57420E+000	9	...........
	112	1.50667	1.33393E-001	-8.86780E-005	0.00000E+000	-1.18290E-005	-5.39641E-002	1.33404E-001	3.57420E+000	9	...........
	113	1.52	1.29174E-001	-8.88999E-005	0.00000E+000	-1.14836E-005	-5.39641E-002	1.29189E-001	3.57420E+000	9	...........
	114	1.53333	1.24966E-001	-8.87572E-005	0.00000E+000	-1.10916E-005	-5.39641E-002	1.24978E-001	3.57420E+000	9	...........
	115	1.54667	1.20772E-001	-8.87999E-005	0.00000E+000	-1.07245E-005	-5.39641E-002	1.20784E-001	3.57420E+000	9	...........
	116	1.56	1.16597E-001	-8.88416E-005	0.00000E+000	-1.03586E-005	-5.39641E-002	1.16609E-001	3.57420E+000	9	...........
	117	1.57333	1.12439E-001	-8.88072E-005	0.00000E+000	-9.98537E-006	-5.39641E-002	1.12454E-001	3.57420E+000	9	...........
	118	1.58667	1.08317E-001	-8.86790E-005	0.00000E+000	-9.60549E-006	-5.39641E-002	1.08327E-001	3.57420E+000	9	...........
	119	1.6	1.04201E-001	-8.89937E-005	0.00000E+000	-9.27320E-006	-5.39641E-002	1.04213E-001	3.57420E+000	9	...........
	120	1.61333	1.00101E-001	-8.88478E-005	0.00000E+000	-8.89377E-006	-5.39641E-002	1.00114E-001	3.57420E+000	9	...........
	121	1.62667	9.60184E-002	-8.87613E-005	0.00000E+000	-8.52272E-006	-5.39641E-002	9.60321E-002	3.57420E+000	9	...........
	122	1.64	9.19557E-002	-8.86759E-005	0.00000E+000	-8.15425E-006	-5.39641E-002	9.19662E-002	3.57420E+000	9	...........
	123	1.65333	8.78987E-002	-8.90333E-005	0.00000E+000	-7.82591E-006	-5.39641E-002	8.79048E-002	3.57420E+000	9	...........
	124	1.66667	8.38603E-002	-8.90395E-005	0.00000E+000	-7.46688E-006	-5.39641E-002	8.38686E-002	3.57420E+000	9	...........
	125	1.68	7.98444E-002	-8.89176E-005	0.00000E+000	-7.09957E-006	-5.39641E-002	7.98509E-002	3.57420E+000	9	...........
	126	1.69333	7.58523E-002	-8.87874E-005	0.00000E+000	-6.73473E-006	-5.39641E-002	7.58552E-002	3.57420E+000	9	...........
	127	1.70667	7.18718E-002	-8.88634E-005	0.00000E+000	-6.38677E-006	-5.39641E-002	7.18736E-002	3.57420E+000	9	...........
	128	1.72	6.79173E-002	-8.87009E-005	0.00000E+000	-6.02433E-006	-5.39641E-002	6.79186E-002	3.57420E+000	9	...........
	129	1.73333	6.39883E-002	-8.85634E-005	0.00000E+000	-5.66702E-006	-5.39641E-002	6.39844E-002	3.57420E+000	9	...........
	130	1.74667	6.00633E-002	-8.91572E-005	0.00000E+000	-5.35508E-006	-5.39641E-002	6.00639E-002	3.57420E+000	9	...........
	131	1.76	5.61683E-002	-8.89770E-005	0.00000E+000	-4.99769E-006	-5.39641E-002	5.61624E-002	3.57420E+000	9	...........
	132	1.77333	5.22884E-002	-8.88968E-005	0.00000E+000	-4.64827E-006	-5.39641E-002	5.22850E-002	3.57420E+000	9	...........
	133	1.78667	4.84422E-002	-8.85998E-005	0.00000E+000	-4.29197E-006	-5.39641E-002	4.84371E-002	3.57420E+000	9	...........
	134	1.8	4.46078E-002	-8.86936E-005	0.00000E+000	-3.95642E-006	-5.39641E-002	4.46205E-002	3.57420E+000	9	...........
	135	1.81333	4.07838E-002	-8.88666E-005	0.00000E+000	-3.62432E-006	-5.39641E-002	4.07959E-002	3.57420E+000	9	...........
	136	1.82667	3.69751E-002	-8.87905E-005	0.00000E+000	-3.28304E-006	-5.39641E-002	3.69818E-002	3.57420E+000	9	...........
	137	1.84	3.31744E-002	-8.88666E-005	0.00000E+000	-2.94809E-006	-5.39641E-002	3.31790E-002	3.57420E+000	9	...........
	138	1.85333	2.93978E-002	-8.88749E-005	0.00000E+000	-2.61273E-006	-5.39641E-002	2.94026E-002	3.57420E+000	9	...........
	139	1.86667	2.56394E-002	-8.88791E-005	0.00000E+000	-2.27881E-006	-5.39641E-002	2.56398E-002	3.57352E+000	9	...........
	140	1.88	2.19033E-002	-8.87051E-005	0.00000E+000	-1.94293E-006	-5.39641E-002	2.19011E-002	3.57330E+000	9	...........
	141	1.89333	1.81883E-002	-8.87749E-005	0.00000E+000	-1.61466E-006	-5.39641E-002	1.81829E-002	3.57330E+000	9	...........
	142	1.90667	1.44878E-002	-8.88884E-005	0.00000E+000	-1.28780E-006	-5.39641E-002	1.44822E-002	3.57330E+000	9	...........
	143	1.92	1.08065E-002	-8.88093E-005	0.00000E+000	-9.59715E-007	-5.39641E-002	1.07987E-002	3.57330E+000	9	...........
	144	1.93333	7.13444E-003	-8.88166E-005	0.00000E+000	-6.33656E-007	-5.39641E-002	7.12229E-003	3.57330E+000	9	...........
	145	1.94667	3.50191E-003	-8.90802E-005	0.00000E+000	-3.11951E-007	-5.39641E-002	3.49047E-003	3.57330E+000	9	...........
	146	1.955	5.65249E-004	-8.84865E-005	0.00000E+000	-5.00169E-008	-5.39641E-002	5.52171E-004	3.57330E+000	9	...........
STARTTIMEOFFSET	QUANT	3926.381	Start Time Offset (s)
