EXPLAIN
TAG	PWR800_DISCHARGE
TITLE	LABEL	PWR Cyclic Charge Discharge (Cell) - Discharge Step	Test &Identifier
DATE	LABEL	10-7-2017	Date
TIME	LABEL	16:01:17	Time
NOTES	NOTES	3	&Notes...
	supercap test cell
	0.9mg
	6M KOH
PSTAT	PSTAT	IFC5000-01520	Potentiostat
CAPACITY	QUANT	1.00000E-003	Capacity (A-hr)
CELLTYPE	SELECTOR	1	&Cell Type
WORKINGCONNECTION	SELECTOR	0	&Working Lead
MAXDISCHARGETIME	VARIABLEANDUNITS	1.00000E+002	s	1.00000E+002	second(s)	Max &Discharge Time
DISCHARGEMODE	MULTIPARAM	0	9.00000E-005	&Discharge Mode	Constant Current	Amp(s)
SAMPLETIME	QUANT	1.00000E-002	Sa&mple Period (s)
DISCHARGESTOPAT1	MULTIPARAM	3	0.00000E+000	Discharge Stop At &1	Voltage < Limit	V
DISCHARGESTOPAT2	MULTIPARAM	0	0.00000E+000	Discharge Stop At &2	None	N/A
AESBHCSELECTOR	TOGGLE	F	Save Both Half Cells
IRCOMP	TOGGLE	F	IR &Measure
EOC	QUANT	0	Open Circuit (V)
SEQUENCER	TOGGLE	TRUE	Run as Sequence
PSTATMODEL	IQUANT	53	Pstat Model
PSTATSECTION	LABEL	IFC5000-01520	Pstat Section
PSTATSERIALNO	LABEL	01520	Pstat Serial Number
CTRLMODE	IQUANT	0	Control Mode
ELECTROMETER	IQUANT	1	RE=0 or CS=1
IESTAB	IQUANT	0	I/E Stability
CASPEED	IQUANT	4	Control Amp Speed
CONVENTION	IQUANT	1	Current Convention
ICHRANGE	IQUANT	2	Ich Range
ICHRANGEMODE	TOGGLE	T	Ich Auto Range
ICHOFFSETENABLE	TOGGLE	F	Ich Offset Enable
ICHOFFSET	QUANT	0	Ich Offset (V)
ICHFILTER	IQUANT	1	Ich Filter
VCHRANGE	IQUANT	2	Vch Range
VCHRANGEMODE	TOGGLE	T	Vch Auto Range
VCHOFFSETENABLE	TOGGLE	F	Vch Offset Enable
VCHOFFSET	QUANT	0	Vch Offset (V)
VCHFILTER	IQUANT	1	Vch Filter
IERANGELOWERLIMIT	IQUANT	9	I/E Range Lower Limit
IERANGEMODE	TOGGLE	F	I/E AutoRange
IERANGE	IQUANT	9	I/E Range
ACHSELECT	IQUANT	1	Ach Select
ACHRANGE	IQUANT	2	Ach Range
ACHOFFSETENABLE	TOGGLE	F	Ach Offset Enable
ACHOFFSET	QUANT	0	Ach Offset (V)
ACHFILTER	IQUANT	1	Ach Filter
CABLEID	IQUANT	14	Cable ID
DCCALDATE	LABEL	5-7-2017	DC Calibration Date
ACCALDATE	LABEL	12/3/2015	AC Calibration Date
FRAMEWORKVERSION	QUANT	7.01	Framework Version
INSTRUMENTVERSION	LABEL	4.00	Instrument Version
CURVE	TABLE	142
	Pt	T	Vf	Im	Vu	Pwr	Sig	Ach	Temp	IERange	Over
	#	s	V	A	V	W	V	V	deg C	#	bits
	0	0.013333	7.33996E-001	-8.84008E-005	0.00000E+000	-6.48859E-005	-5.39641E-002	7.34111E-001	3.57260E+000	9	...........
	1	0.026667	7.20628E-001	-8.89437E-005	0.00000E+000	-6.40953E-005	-5.39641E-002	7.20723E-001	3.57260E+000	9	...........
	2	0.04	7.08229E-001	-8.89426E-005	0.00000E+000	-6.29918E-005	-5.39641E-002	7.08355E-001	3.57260E+000	9	...........
	3	0.053333	6.96698E-001	-8.86790E-005	0.00000E+000	-6.17825E-005	-5.39641E-002	6.96800E-001	3.57260E+000	9	...........
	4	0.066667	6.85814E-001	-8.85394E-005	0.00000E+000	-6.07215E-005	-5.39641E-002	6.85924E-001	3.57260E+000	9	...........
	5	0.08	6.75474E-001	-8.87592E-005	0.00000E+000	-5.99545E-005	-5.39641E-002	6.75585E-001	3.57260E+000	9	...........
	6	0.093333	6.65614E-001	-8.85373E-005	0.00000E+000	-5.89317E-005	-5.39641E-002	6.65747E-001	3.57260E+000	9	...........
	7	0.106667	6.56178E-001	-8.88957E-005	0.00000E+000	-5.83314E-005	-5.39641E-002	6.56291E-001	3.57260E+000	9	...........
	8	0.12	6.47064E-001	-8.86853E-005	0.00000E+000	-5.73851E-005	-5.39641E-002	6.47186E-001	3.57260E+000	9	...........
	9	0.133333	6.38286E-001	-8.87603E-005	0.00000E+000	-5.66545E-005	-5.39641E-002	6.38414E-001	3.57260E+000	9	...........
	10	0.146667	6.29804E-001	-8.89062E-005	0.00000E+000	-5.59935E-005	-5.39641E-002	6.29909E-001	3.57260E+000	9	...........
	11	0.16	6.21601E-001	-8.88020E-005	0.00000E+000	-5.51994E-005	-5.39641E-002	6.21664E-001	3.57260E+000	9	...........
	12	0.173333	6.13582E-001	-8.87749E-005	0.00000E+000	-5.44707E-005	-5.39641E-002	6.13679E-001	3.57260E+000	9	...........
	13	0.186667	6.05784E-001	-8.87238E-005	0.00000E+000	-5.37475E-005	-5.39641E-002	6.05912E-001	3.57260E+000	9	...........
	14	0.2	5.98228E-001	-8.89593E-005	0.00000E+000	-5.32179E-005	-5.39641E-002	5.98346E-001	3.57260E+000	9	...........
	15	0.213333	5.90852E-001	-8.86957E-005	0.00000E+000	-5.24061E-005	-5.39641E-002	5.90993E-001	3.57260E+000	9	...........
	16	0.226667	5.83608E-001	-8.87457E-005	0.00000E+000	-5.17927E-005	-5.39641E-002	5.83726E-001	3.57260E+000	9	...........
	17	0.24	5.76569E-001	-8.88530E-005	0.00000E+000	-5.12299E-005	-5.39641E-002	5.76662E-001	3.57260E+000	9	...........
	18	0.253333	5.69641E-001	-8.88791E-005	0.00000E+000	-5.06291E-005	-5.39641E-002	5.69735E-001	3.57260E+000	9	...........
	19	0.266667	5.62824E-001	-8.88228E-005	0.00000E+000	-4.99916E-005	-5.39641E-002	5.62940E-001	3.57260E+000	9	...........
	20	0.28	5.56132E-001	-8.88759E-005	0.00000E+000	-4.94268E-005	-5.39641E-002	5.56232E-001	3.57260E+000	9	...........
	21	0.293333	5.49582E-001	-8.87540E-005	0.00000E+000	-4.87776E-005	-5.39641E-002	5.49705E-001	3.57260E+000	9	...........
	22	0.306667	5.43153E-001	-8.86123E-005	0.00000E+000	-4.81301E-005	-5.39641E-002	5.43251E-001	3.57260E+000	9	...........
	23	0.32	5.36801E-001	-8.87363E-005	0.00000E+000	-4.76338E-005	-5.39641E-002	5.36915E-001	3.57260E+000	9	...........
	24	0.333333	5.30535E-001	-8.88405E-005	0.00000E+000	-4.71330E-005	-5.39641E-002	5.30644E-001	3.57260E+000	9	...........
	25	0.346667	5.24358E-001	-8.89718E-005	0.00000E+000	-4.66530E-005	-5.39641E-002	5.24474E-001	3.57260E+000	9	...........
	26	0.36	5.18297E-001	-8.86405E-005	0.00000E+000	-4.59421E-005	-5.39641E-002	5.18399E-001	3.57260E+000	9	...........
	27	0.373333	5.12291E-001	-8.88999E-005	0.00000E+000	-4.55426E-005	-5.39641E-002	5.12390E-001	3.57260E+000	9	...........
	28	0.386667	5.06335E-001	-8.86697E-005	0.00000E+000	-4.48965E-005	-5.39641E-002	5.06488E-001	3.57260E+000	9	...........
	29	0.4	5.00499E-001	-8.88093E-005	0.00000E+000	-4.44489E-005	-5.39641E-002	5.00624E-001	3.57260E+000	9	...........
	30	0.413333	4.94733E-001	-8.86342E-005	0.00000E+000	-4.38503E-005	-5.39641E-002	4.94856E-001	3.57260E+000	9	...........
	31	0.426667	4.89020E-001	-8.85498E-005	0.00000E+000	-4.33026E-005	-5.39641E-002	4.89143E-001	3.57260E+000	9	...........
	32	0.44	4.83438E-001	-8.91520E-005	0.00000E+000	-4.30995E-005	-5.39641E-002	4.83526E-001	3.57260E+000	9	...........
	33	0.453333	4.77875E-001	-8.88864E-005	0.00000E+000	-4.24765E-005	-5.39641E-002	4.77943E-001	3.57260E+000	9	...........
	34	0.466667	4.72330E-001	-8.88301E-005	0.00000E+000	-4.19571E-005	-5.39641E-002	4.72395E-001	3.57260E+000	9	...........
	35	0.48	4.66853E-001	-8.86988E-005	0.00000E+000	-4.14093E-005	-5.39641E-002	4.66918E-001	3.57260E+000	9	...........
	36	0.493333	4.61421E-001	-8.88624E-005	0.00000E+000	-4.10029E-005	-5.39641E-002	4.61485E-001	3.57260E+000	9	...........
	37	0.506667	4.56030E-001	-8.88645E-005	0.00000E+000	-4.05249E-005	-5.39641E-002	4.56088E-001	3.57260E+000	9	...........
	38	0.52	4.50671E-001	-8.88895E-005	0.00000E+000	-4.00599E-005	-5.39641E-002	4.50733E-001	3.57260E+000	9	...........
	39	0.533333	4.45350E-001	-8.87436E-005	0.00000E+000	-3.95220E-005	-5.39641E-002	4.45418E-001	3.57260E+000	9	...........
	40	0.546667	4.40064E-001	-8.87686E-005	0.00000E+000	-3.90639E-005	-5.39641E-002	4.40127E-001	3.57260E+000	9	...........
	41	0.56	4.34817E-001	-8.87655E-005	0.00000E+000	-3.85967E-005	-5.39641E-002	4.34873E-001	3.57260E+000	9	...........
	42	0.573333	4.29591E-001	-8.87592E-005	0.00000E+000	-3.81302E-005	-5.39641E-002	4.29648E-001	3.57260E+000	9	...........
	43	0.586667	4.24379E-001	-8.88895E-005	0.00000E+000	-3.77228E-005	-5.39641E-002	4.24434E-001	3.57260E+000	9	...........
	44	0.6	4.19210E-001	-8.88457E-005	0.00000E+000	-3.72451E-005	-5.39641E-002	4.19264E-001	3.57260E+000	9	...........
	45	0.613333	4.14074E-001	-8.88197E-005	0.00000E+000	-3.67779E-005	-5.39641E-002	4.14129E-001	3.57260E+000	9	...........
	46	0.626667	4.08954E-001	-8.88707E-005	0.00000E+000	-3.63441E-005	-5.39641E-002	4.09004E-001	3.57260E+000	9	...........
	47	0.64	4.03867E-001	-8.87082E-005	0.00000E+000	-3.58263E-005	-5.39641E-002	4.03913E-001	3.57260E+000	9	...........
	48	0.653333	3.98800E-001	-8.87780E-005	0.00000E+000	-3.54046E-005	-5.39641E-002	3.98847E-001	3.57260E+000	9	...........
	49	0.666667	3.93741E-001	-8.87613E-005	0.00000E+000	-3.49490E-005	-5.39641E-002	3.93784E-001	3.57260E+000	9	...........
	50	0.68	3.88689E-001	-8.87947E-005	0.00000E+000	-3.45135E-005	-5.39641E-002	3.88733E-001	3.57260E+000	9	...........
	51	0.693333	3.83657E-001	-8.87592E-005	0.00000E+000	-3.40531E-005	-5.39641E-002	3.83708E-001	3.57260E+000	9	...........
	52	0.706667	3.78653E-001	-8.84331E-005	0.00000E+000	-3.34854E-005	-5.39641E-002	3.78707E-001	3.57260E+000	9	...........
	53	0.72	3.73688E-001	-8.88499E-005	0.00000E+000	-3.32022E-005	-5.39641E-002	3.73732E-001	3.57260E+000	9	...........
	54	0.733333	3.68738E-001	-8.84977E-005	0.00000E+000	-3.26325E-005	-5.39641E-002	3.68783E-001	3.57260E+000	9	...........
	55	0.746667	3.63794E-001	-8.88082E-005	0.00000E+000	-3.23079E-005	-5.39641E-002	3.63835E-001	3.57260E+000	9	...........
	56	0.76	3.58862E-001	-8.86967E-005	0.00000E+000	-3.18299E-005	-5.39641E-002	3.58910E-001	3.57260E+000	9	...........
	57	0.773333	3.53938E-001	-8.85561E-005	0.00000E+000	-3.13434E-005	-5.39641E-002	3.53979E-001	3.57260E+000	9	...........
	58	0.786667	3.49034E-001	-8.87113E-005	0.00000E+000	-3.09632E-005	-5.39641E-002	3.49076E-001	3.57260E+000	9	...........
	59	0.8	3.44138E-001	-8.85154E-005	0.00000E+000	-3.04616E-005	-5.39641E-002	3.44179E-001	3.57260E+000	9	...........
	60	0.813333	3.39271E-001	-8.89937E-005	0.00000E+000	-3.01930E-005	-5.39641E-002	3.39316E-001	3.57260E+000	9	...........
	61	0.826667	3.34423E-001	-8.86884E-005	0.00000E+000	-2.96594E-005	-5.39641E-002	3.34458E-001	3.57260E+000	9	...........
	62	0.84	3.29583E-001	-8.87082E-005	0.00000E+000	-2.92367E-005	-5.39641E-002	3.29617E-001	3.57260E+000	9	...........
	63	0.853333	3.24756E-001	-8.87363E-005	0.00000E+000	-2.88177E-005	-5.39641E-002	3.24788E-001	3.57260E+000	9	...........
	64	0.866667	3.19948E-001	-8.86613E-005	0.00000E+000	-2.83670E-005	-5.39641E-002	3.19982E-001	3.57260E+000	9	...........
	65	0.88	3.15150E-001	-8.87957E-005	0.00000E+000	-2.79840E-005	-5.39641E-002	3.15185E-001	3.57260E+000	9	...........
	66	0.893333	3.10371E-001	-8.89457E-005	0.00000E+000	-2.76062E-005	-5.39641E-002	3.10410E-001	3.57260E+000	9	...........
	67	0.906667	3.05602E-001	-8.88884E-005	0.00000E+000	-2.71645E-005	-5.39641E-002	3.05638E-001	3.57260E+000	9	...........
	68	0.92	3.00845E-001	-8.88936E-005	0.00000E+000	-2.67432E-005	-5.39641E-002	3.00882E-001	3.57260E+000	9	...........
	69	0.933333	2.96108E-001	-8.89645E-005	0.00000E+000	-2.63431E-005	-5.39641E-002	2.96147E-001	3.57260E+000	9	...........
	70	0.946667	2.91390E-001	-8.86967E-005	0.00000E+000	-2.58454E-005	-5.39641E-002	2.91420E-001	3.57373E+000	9	...........
	71	0.96	2.86678E-001	-8.86592E-005	0.00000E+000	-2.54166E-005	-5.39641E-002	2.86717E-001	3.57410E+000	9	...........
	72	0.97333	2.81997E-001	-8.87655E-005	0.00000E+000	-2.50316E-005	-5.39641E-002	2.82036E-001	3.57410E+000	9	...........
	73	0.98667	2.77315E-001	-8.88624E-005	0.00000E+000	-2.46429E-005	-5.39641E-002	2.77350E-001	3.57410E+000	9	...........
	74	1	2.72634E-001	-8.89114E-005	0.00000E+000	-2.42402E-005	-5.39641E-002	2.72672E-001	3.57410E+000	9	...........
	75	1.01333	2.67978E-001	-8.86624E-005	0.00000E+000	-2.37596E-005	-5.39641E-002	2.68011E-001	3.57410E+000	9	...........
	76	1.02667	2.63350E-001	-8.87947E-005	0.00000E+000	-2.33841E-005	-5.39641E-002	2.63385E-001	3.57410E+000	9	...........
	77	1.04	2.58744E-001	-8.84581E-005	0.00000E+000	-2.28880E-005	-5.39641E-002	2.58777E-001	3.57410E+000	9	...........
	78	1.05333	2.54158E-001	-8.88207E-005	0.00000E+000	-2.25745E-005	-5.39641E-002	2.54194E-001	3.57410E+000	9	...........
	79	1.06667	2.49596E-001	-8.90041E-005	0.00000E+000	-2.22151E-005	-5.39641E-002	2.49629E-001	3.57410E+000	9	...........
	80	1.08	2.45046E-001	-8.88447E-005	0.00000E+000	-2.17711E-005	-5.39641E-002	2.45079E-001	3.57410E+000	9	...........
	81	1.09333	2.40503E-001	-8.86790E-005	0.00000E+000	-2.13276E-005	-5.39641E-002	2.40528E-001	3.57410E+000	9	...........
	82	1.10667	2.35973E-001	-8.87895E-005	0.00000E+000	-2.09519E-005	-5.39641E-002	2.35997E-001	3.57410E+000	9	...........
	83	1.12	2.31465E-001	-8.87676E-005	0.00000E+000	-2.05466E-005	-5.39641E-002	2.31487E-001	3.57410E+000	9	...........
	84	1.13333	2.26982E-001	-8.88520E-005	0.00000E+000	-2.01678E-005	-5.39641E-002	2.27004E-001	3.57410E+000	9	...........
	85	1.14667	2.22523E-001	-8.88030E-005	0.00000E+000	-1.97607E-005	-5.39641E-002	2.22541E-001	3.57410E+000	9	...........
	86	1.16	2.18079E-001	-8.87238E-005	0.00000E+000	-1.93488E-005	-5.39641E-002	2.18098E-001	3.57410E+000	9	...........
	87	1.17333	2.13637E-001	-8.89666E-005	0.00000E+000	-1.90065E-005	-5.39641E-002	2.13658E-001	3.57410E+000	9	...........
	88	1.18667	2.09208E-001	-8.90364E-005	0.00000E+000	-1.86272E-005	-5.39641E-002	2.09232E-001	3.57410E+000	9	...........
	89	1.2	2.04807E-001	-8.88509E-005	0.00000E+000	-1.81973E-005	-5.39641E-002	2.04826E-001	3.57410E+000	9	...........
	90	1.21333	2.00407E-001	-8.87488E-005	0.00000E+000	-1.77859E-005	-5.39641E-002	2.00433E-001	3.57410E+000	9	...........
	91	1.22667	1.96026E-001	-8.89332E-005	0.00000E+000	-1.74332E-005	-5.39641E-002	1.96047E-001	3.57410E+000	9	...........
	92	1.24	1.91671E-001	-8.87499E-005	0.00000E+000	-1.70108E-005	-5.39641E-002	1.91697E-001	3.57410E+000	9	...........
	93	1.25333	1.87332E-001	-8.87978E-005	0.00000E+000	-1.66347E-005	-5.39641E-002	1.87351E-001	3.57410E+000	9	...........
	94	1.26667	1.83017E-001	-8.86571E-005	0.00000E+000	-1.62258E-005	-5.39641E-002	1.83037E-001	3.57410E+000	9	...........
	95	1.28	1.78730E-001	-8.89885E-005	0.00000E+000	-1.59049E-005	-5.39641E-002	1.78748E-001	3.57410E+000	9	...........
	96	1.29333	1.74467E-001	-8.87144E-005	0.00000E+000	-1.54778E-005	-5.39641E-002	1.74485E-001	3.57410E+000	9	...........
	97	1.30667	1.70205E-001	-8.87207E-005	0.00000E+000	-1.51007E-005	-5.39641E-002	1.70220E-001	3.57410E+000	9	...........
	98	1.32	1.65970E-001	-8.87082E-005	0.00000E+000	-1.47229E-005	-5.39641E-002	1.65976E-001	3.57410E+000	9	...........
	99	1.33333	1.61741E-001	-8.88801E-005	0.00000E+000	-1.43756E-005	-5.39641E-002	1.61752E-001	3.57410E+000	9	...........
	100	1.34667	1.57535E-001	-8.87978E-005	0.00000E+000	-1.39887E-005	-5.39641E-002	1.57544E-001	3.57410E+000	9	...........
	101	1.36	1.53356E-001	-8.89916E-005	0.00000E+000	-1.36474E-005	-5.39641E-002	1.53360E-001	3.57410E+000	9	...........
	102	1.37333	1.49191E-001	-8.89197E-005	0.00000E+000	-1.32660E-005	-5.39641E-002	1.49205E-001	3.57410E+000	9	...........
	103	1.38667	1.45055E-001	-8.87311E-005	0.00000E+000	-1.28709E-005	-5.39641E-002	1.45068E-001	3.57410E+000	9	...........
	104	1.4	1.40937E-001	-8.88520E-005	0.00000E+000	-1.25226E-005	-5.39641E-002	1.40950E-001	3.57410E+000	9	...........
	105	1.41333	1.36828E-001	-8.87926E-005	0.00000E+000	-1.21493E-005	-5.39641E-002	1.36835E-001	3.57410E+000	9	...........
	106	1.42667	1.32725E-001	-8.90301E-005	0.00000E+000	-1.18165E-005	-5.39641E-002	1.32732E-001	3.57410E+000	9	...........
	107	1.44	1.28640E-001	-8.88968E-005	0.00000E+000	-1.14356E-005	-5.39641E-002	1.28646E-001	3.57410E+000	9	...........
	108	1.45333	1.24576E-001	-8.87374E-005	0.00000E+000	-1.10546E-005	-5.39641E-002	1.24589E-001	3.57410E+000	9	...........
	109	1.46667	1.20536E-001	-8.85394E-005	0.00000E+000	-1.06722E-005	-5.39641E-002	1.20549E-001	3.57410E+000	9	...........
	110	1.48	1.16515E-001	-8.87395E-005	0.00000E+000	-1.03395E-005	-5.39641E-002	1.16523E-001	3.57410E+000	9	...........
	111	1.49333	1.12501E-001	-8.88676E-005	0.00000E+000	-9.99765E-006	-5.39641E-002	1.12515E-001	3.57410E+000	9	...........
	112	1.50667	1.08497E-001	-8.87405E-005	0.00000E+000	-9.62804E-006	-5.39641E-002	1.08507E-001	3.57410E+000	9	...........
	113	1.52	1.04519E-001	-8.86498E-005	0.00000E+000	-9.26562E-006	-5.39641E-002	1.04523E-001	3.57410E+000	9	...........
	114	1.53333	1.00560E-001	-8.89364E-005	0.00000E+000	-8.94345E-006	-5.39641E-002	1.00566E-001	3.57410E+000	9	...........
	115	1.54667	9.66169E-002	-8.90822E-005	0.00000E+000	-8.60685E-006	-5.39641E-002	9.66223E-002	3.57410E+000	9	...........
	116	1.56	9.26980E-002	-8.87863E-005	0.00000E+000	-8.23032E-006	-5.39641E-002	9.26972E-002	3.57410E+000	9	...........
	117	1.57333	8.87929E-002	-8.88968E-005	0.00000E+000	-7.89340E-006	-5.39641E-002	8.87975E-002	3.57410E+000	9	...........
	118	1.58667	8.49078E-002	-8.88197E-005	0.00000E+000	-7.54148E-006	-5.39641E-002	8.49130E-002	3.57410E+000	9	...........
	119	1.6	8.10389E-002	-8.87259E-005	0.00000E+000	-7.19025E-006	-5.39641E-002	8.10416E-002	3.57410E+000	9	...........
	120	1.61333	7.71782E-002	-8.88791E-005	0.00000E+000	-6.85953E-006	-5.39641E-002	7.71787E-002	3.57410E+000	9	...........
	121	1.62667	7.33389E-002	-8.89166E-005	0.00000E+000	-6.52104E-006	-5.39641E-002	7.33384E-002	3.57410E+000	9	...........
	122	1.64	6.95119E-002	-8.85675E-005	0.00000E+000	-6.15650E-006	-5.39641E-002	6.95055E-002	3.57410E+000	9	...........
	123	1.65333	6.57065E-002	-8.87915E-005	0.00000E+000	-5.83418E-006	-5.39641E-002	6.57074E-002	3.57410E+000	9	...........
	124	1.66667	6.19174E-002	-8.87238E-005	0.00000E+000	-5.49355E-006	-5.39641E-002	6.19158E-002	3.57410E+000	9	...........
	125	1.68	5.81393E-002	-8.88968E-005	0.00000E+000	-5.16839E-006	-5.39641E-002	5.81426E-002	3.57410E+000	9	...........
	126	1.69333	5.43715E-002	-8.88686E-005	0.00000E+000	-4.83192E-006	-5.39641E-002	5.43678E-002	3.57410E+000	9	...........
	127	1.70667	5.06113E-002	-8.87165E-005	0.00000E+000	-4.49006E-006	-5.39641E-002	5.06126E-002	3.57410E+000	9	...........
	128	1.72	4.69016E-002	-8.88405E-005	0.00000E+000	-4.16676E-006	-5.39641E-002	4.69093E-002	3.57410E+000	9	...........
	129	1.73333	4.31834E-002	-8.88072E-005	0.00000E+000	-3.83500E-006	-5.39641E-002	4.31892E-002	3.57410E+000	9	...........
	130	1.74667	3.94709E-002	-8.86978E-005	0.00000E+000	-3.50098E-006	-5.39641E-002	3.94757E-002	3.57410E+000	9	...........
	131	1.76	3.57732E-002	-8.89885E-005	0.00000E+000	-3.18341E-006	-5.39641E-002	3.57760E-002	3.57410E+000	9	...........
	132	1.77333	3.20843E-002	-8.85550E-005	0.00000E+000	-2.84122E-006	-5.39641E-002	3.20899E-002	3.57410E+000	9	...........
	133	1.78667	2.84246E-002	-8.88947E-005	0.00000E+000	-2.52680E-006	-5.39641E-002	2.84220E-002	3.57410E+000	9	...........
	134	1.8	2.47790E-002	-8.89833E-005	0.00000E+000	-2.20491E-006	-5.39641E-002	2.47812E-002	3.57410E+000	9	...........
	135	1.81333	2.11571E-002	-8.88801E-005	0.00000E+000	-1.88045E-006	-5.39641E-002	2.11564E-002	3.57410E+000	9	...........
	136	1.82667	1.75649E-002	-8.86499E-005	0.00000E+000	-1.55713E-006	-5.39641E-002	1.75555E-002	3.57410E+000	9	...........
	137	1.84	1.39824E-002	-8.87738E-005	0.00000E+000	-1.24127E-006	-5.39641E-002	1.39758E-002	3.57410E+000	9	...........
	138	1.85333	1.04332E-002	-8.86644E-005	0.00000E+000	-9.25056E-007	-5.39641E-002	1.04222E-002	3.57410E+000	9	...........
	139	1.86667	6.90351E-003	-8.90030E-005	0.00000E+000	-6.14434E-007	-5.39641E-002	6.89403E-003	3.57410E+000	9	...........
	140	1.88	3.39127E-003	-8.86446E-005	0.00000E+000	-3.00618E-007	-5.39641E-002	3.37617E-003	3.57410E+000	9	...........
	141	1.88833	5.46308E-004	-8.86815E-005	0.00000E+000	-4.84474E-008	-5.39641E-002	5.35293E-004	3.57410E+000	9	...........
STARTTIMEOFFSET	QUANT	3129.974	Start Time Offset (s)
