EXPLAIN
TAG	PWR800_DISCHARGE
TITLE	LABEL	PWR Cyclic Charge Discharge (Cell) - Discharge Step	Test &Identifier
DATE	LABEL	10-7-2017	Date
TIME	LABEL	15:47:28	Time
NOTES	NOTES	3	&Notes...
	supercap test cell
	0.9mg
	6M KOH
PSTAT	PSTAT	IFC5000-01520	Potentiostat
CAPACITY	QUANT	1.00000E-003	Capacity (A-hr)
CELLTYPE	SELECTOR	1	&Cell Type
WORKINGCONNECTION	SELECTOR	0	&Working Lead
MAXDISCHARGETIME	VARIABLEANDUNITS	1.00000E+002	s	1.00000E+002	second(s)	Max &Discharge Time
DISCHARGEMODE	MULTIPARAM	0	9.00000E-005	&Discharge Mode	Constant Current	Amp(s)
SAMPLETIME	QUANT	1.00000E-002	Sa&mple Period (s)
DISCHARGESTOPAT1	MULTIPARAM	3	0.00000E+000	Discharge Stop At &1	Voltage < Limit	V
DISCHARGESTOPAT2	MULTIPARAM	0	0.00000E+000	Discharge Stop At &2	None	N/A
AESBHCSELECTOR	TOGGLE	F	Save Both Half Cells
IRCOMP	TOGGLE	F	IR &Measure
EOC	QUANT	0	Open Circuit (V)
SEQUENCER	TOGGLE	TRUE	Run as Sequence
PSTATMODEL	IQUANT	53	Pstat Model
PSTATSECTION	LABEL	IFC5000-01520	Pstat Section
PSTATSERIALNO	LABEL	01520	Pstat Serial Number
CTRLMODE	IQUANT	0	Control Mode
ELECTROMETER	IQUANT	1	RE=0 or CS=1
IESTAB	IQUANT	0	I/E Stability
CASPEED	IQUANT	4	Control Amp Speed
CONVENTION	IQUANT	1	Current Convention
ICHRANGE	IQUANT	2	Ich Range
ICHRANGEMODE	TOGGLE	T	Ich Auto Range
ICHOFFSETENABLE	TOGGLE	F	Ich Offset Enable
ICHOFFSET	QUANT	0	Ich Offset (V)
ICHFILTER	IQUANT	1	Ich Filter
VCHRANGE	IQUANT	2	Vch Range
VCHRANGEMODE	TOGGLE	T	Vch Auto Range
VCHOFFSETENABLE	TOGGLE	F	Vch Offset Enable
VCHOFFSET	QUANT	0	Vch Offset (V)
VCHFILTER	IQUANT	1	Vch Filter
IERANGELOWERLIMIT	IQUANT	9	I/E Range Lower Limit
IERANGEMODE	TOGGLE	F	I/E AutoRange
IERANGE	IQUANT	9	I/E Range
ACHSELECT	IQUANT	1	Ach Select
ACHRANGE	IQUANT	2	Ach Range
ACHOFFSETENABLE	TOGGLE	F	Ach Offset Enable
ACHOFFSET	QUANT	0	Ach Offset (V)
ACHFILTER	IQUANT	1	Ach Filter
CABLEID	IQUANT	14	Cable ID
DCCALDATE	LABEL	5-7-2017	DC Calibration Date
ACCALDATE	LABEL	12/3/2015	AC Calibration Date
FRAMEWORKVERSION	QUANT	7.01	Framework Version
INSTRUMENTVERSION	LABEL	4.00	Instrument Version
CURVE	TABLE	151
	Pt	T	Vf	Im	Vu	Pwr	Sig	Ach	Temp	IERange	Over
	#	s	V	A	V	W	V	V	deg C	#	bits
	0	0.013333	8.08433E-001	-8.87249E-005	0.00000E+000	-7.17281E-005	-5.39641E-002	8.08590E-001	3.57260E+000	9	...........
	1	0.026667	7.94794E-001	-8.86894E-005	0.00000E+000	-7.04898E-005	-5.39641E-002	7.94951E-001	3.57260E+000	9	...........
	2	0.04	7.82074E-001	-8.86915E-005	0.00000E+000	-6.93634E-005	-5.39641E-002	7.82215E-001	3.57260E+000	9	...........
	3	0.053333	7.70069E-001	-8.90614E-005	0.00000E+000	-6.85834E-005	-5.39641E-002	7.70204E-001	3.57260E+000	9	...........
	4	0.066667	7.58651E-001	-8.86884E-005	0.00000E+000	-6.72835E-005	-5.39641E-002	7.58740E-001	3.57260E+000	9	...........
	5	0.08	7.47735E-001	-8.87144E-005	0.00000E+000	-6.63349E-005	-5.39641E-002	7.47826E-001	3.57260E+000	9	...........
	6	0.093333	7.37246E-001	-8.88155E-005	0.00000E+000	-6.54789E-005	-5.39641E-002	7.37359E-001	3.57260E+000	9	...........
	7	0.106667	7.27190E-001	-8.88968E-005	0.00000E+000	-6.46449E-005	-5.39641E-002	7.27279E-001	3.57260E+000	9	...........
	8	0.12	7.17432E-001	-8.83821E-005	0.00000E+000	-6.34081E-005	-5.39641E-002	7.17536E-001	3.57260E+000	9	...........
	9	0.133333	7.07994E-001	-8.86217E-005	0.00000E+000	-6.27437E-005	-5.39641E-002	7.08091E-001	3.57260E+000	9	...........
	10	0.146667	6.98858E-001	-8.87915E-005	0.00000E+000	-6.20527E-005	-5.39641E-002	6.98947E-001	3.57260E+000	9	...........
	11	0.16	6.89958E-001	-8.86373E-005	0.00000E+000	-6.11560E-005	-5.39641E-002	6.90069E-001	3.57260E+000	9	...........
	12	0.173333	6.81321E-001	-8.86999E-005	0.00000E+000	-6.04331E-005	-5.39641E-002	6.81439E-001	3.57260E+000	9	...........
	13	0.186667	6.72886E-001	-8.88166E-005	0.00000E+000	-5.97634E-005	-5.39641E-002	6.72994E-001	3.57260E+000	9	...........
	14	0.2	6.64640E-001	-8.87436E-005	0.00000E+000	-5.89825E-005	-5.39641E-002	6.64780E-001	3.57260E+000	9	...........
	15	0.213333	6.56613E-001	-8.88082E-005	0.00000E+000	-5.83126E-005	-5.39641E-002	6.56731E-001	3.57260E+000	9	...........
	16	0.226667	6.48755E-001	-8.88040E-005	0.00000E+000	-5.76121E-005	-5.39641E-002	6.48868E-001	3.57260E+000	9	...........
	17	0.24	6.41072E-001	-8.90916E-005	0.00000E+000	-5.71141E-005	-5.39641E-002	6.41158E-001	3.57260E+000	9	...........
	18	0.253333	6.33534E-001	-8.88113E-005	0.00000E+000	-5.62650E-005	-5.39641E-002	6.33636E-001	3.57260E+000	9	...........
	19	0.266667	6.26169E-001	-8.85571E-005	0.00000E+000	-5.54517E-005	-5.39641E-002	6.26278E-001	3.57260E+000	9	...........
	20	0.28	6.18949E-001	-8.88582E-005	0.00000E+000	-5.49987E-005	-5.39641E-002	6.19052E-001	3.57260E+000	9	...........
	21	0.293333	6.11813E-001	-8.86436E-005	0.00000E+000	-5.42333E-005	-5.39641E-002	6.11946E-001	3.57260E+000	9	...........
	22	0.306667	6.04824E-001	-8.86738E-005	0.00000E+000	-5.36320E-005	-5.39641E-002	6.04978E-001	3.57260E+000	9	...........
	23	0.32	5.97995E-001	-8.86144E-005	0.00000E+000	-5.29910E-005	-5.39641E-002	5.98110E-001	3.57260E+000	9	...........
	24	0.333333	5.91247E-001	-8.86540E-005	0.00000E+000	-5.24165E-005	-5.39641E-002	5.91397E-001	3.57260E+000	9	...........
	25	0.346667	5.84571E-001	-8.87655E-005	0.00000E+000	-5.18898E-005	-5.39641E-002	5.84738E-001	3.57260E+000	9	...........
	26	0.36	5.78053E-001	-8.86717E-005	0.00000E+000	-5.12569E-005	-5.39641E-002	5.78172E-001	3.57260E+000	9	...........
	27	0.373333	5.71613E-001	-8.87624E-005	0.00000E+000	-5.07377E-005	-5.39641E-002	5.71717E-001	3.57260E+000	9	...........
	28	0.386667	5.65243E-001	-8.89249E-005	0.00000E+000	-5.02642E-005	-5.39641E-002	5.65356E-001	3.57260E+000	9	...........
	29	0.4	5.58918E-001	-8.87874E-005	0.00000E+000	-4.96249E-005	-5.39641E-002	5.59010E-001	3.57260E+000	9	...........
	30	0.413333	5.52719E-001	-8.86749E-005	0.00000E+000	-4.90123E-005	-5.39641E-002	5.52806E-001	3.57260E+000	9	...........
	31	0.426667	5.46597E-001	-8.88811E-005	0.00000E+000	-4.85822E-005	-5.39641E-002	5.46670E-001	3.57260E+000	9	...........
	32	0.44	5.40539E-001	-8.83769E-005	0.00000E+000	-4.77711E-005	-5.39641E-002	5.40624E-001	3.57260E+000	9	...........
	33	0.453333	5.34504E-001	-8.89801E-005	0.00000E+000	-4.75602E-005	-5.39641E-002	5.34594E-001	3.57260E+000	9	...........
	34	0.466667	5.28576E-001	-8.88332E-005	0.00000E+000	-4.69551E-005	-5.39641E-002	5.28659E-001	3.57260E+000	9	...........
	35	0.48	5.22690E-001	-8.88853E-005	0.00000E+000	-4.64594E-005	-5.39641E-002	5.22776E-001	3.57260E+000	9	...........
	36	0.493333	5.16899E-001	-8.91177E-005	0.00000E+000	-4.60648E-005	-5.39641E-002	5.16996E-001	3.57260E+000	9	...........
	37	0.506667	5.11132E-001	-8.87905E-005	0.00000E+000	-4.53836E-005	-5.39641E-002	5.11251E-001	3.57260E+000	9	...........
	38	0.52	5.05404E-001	-8.86936E-005	0.00000E+000	-4.48261E-005	-5.39641E-002	5.05529E-001	3.57312E+000	9	...........
	39	0.533333	4.99751E-001	-8.84540E-005	0.00000E+000	-4.42050E-005	-5.39641E-002	4.99846E-001	3.57330E+000	9	...........
	40	0.546667	4.94122E-001	-8.84967E-005	0.00000E+000	-4.37281E-005	-5.39641E-002	4.94239E-001	3.57330E+000	9	...........
	41	0.56	4.88561E-001	-8.86238E-005	0.00000E+000	-4.32981E-005	-5.39641E-002	4.88676E-001	3.57330E+000	9	...........
	42	0.573333	4.83096E-001	-8.87884E-005	0.00000E+000	-4.28934E-005	-5.39641E-002	4.83162E-001	3.57330E+000	9	...........
	43	0.586667	4.77611E-001	-8.86842E-005	0.00000E+000	-4.23566E-005	-5.39641E-002	4.77677E-001	3.57330E+000	9	...........
	44	0.6	4.72150E-001	-8.87165E-005	0.00000E+000	-4.18875E-005	-5.39641E-002	4.72212E-001	3.57330E+000	9	...........
	45	0.613333	4.66730E-001	-8.90333E-005	0.00000E+000	-4.15545E-005	-5.39641E-002	4.66799E-001	3.57330E+000	9	...........
	46	0.626667	4.61343E-001	-8.87488E-005	0.00000E+000	-4.09437E-005	-5.39641E-002	4.61408E-001	3.57330E+000	9	...........
	47	0.64	4.55985E-001	-8.87895E-005	0.00000E+000	-4.04867E-005	-5.39641E-002	4.56048E-001	3.57330E+000	9	...........
	48	0.653333	4.50643E-001	-8.87822E-005	0.00000E+000	-4.00091E-005	-5.39641E-002	4.50712E-001	3.57330E+000	9	...........
	49	0.666667	4.45334E-001	-8.88905E-005	0.00000E+000	-3.95859E-005	-5.39641E-002	4.45396E-001	3.57330E+000	9	...........
	50	0.68	4.40049E-001	-8.87947E-005	0.00000E+000	-3.90740E-005	-5.39641E-002	4.40114E-001	3.57330E+000	9	...........
	51	0.693333	4.34779E-001	-8.91197E-005	0.00000E+000	-3.87474E-005	-5.39641E-002	4.34846E-001	3.57330E+000	9	...........
	52	0.706667	4.29541E-001	-8.87415E-005	0.00000E+000	-3.81182E-005	-5.39641E-002	4.29605E-001	3.57330E+000	9	...........
	53	0.72	4.24345E-001	-8.86332E-005	0.00000E+000	-3.76111E-005	-5.39641E-002	4.24405E-001	3.57330E+000	9	...........
	54	0.733333	4.19170E-001	-8.88541E-005	0.00000E+000	-3.72449E-005	-5.39641E-002	4.19232E-001	3.57330E+000	9	...........
	55	0.746667	4.13995E-001	-8.87228E-005	0.00000E+000	-3.67308E-005	-5.39641E-002	4.14052E-001	3.57330E+000	9	...........
	56	0.76	4.08833E-001	-8.89385E-005	0.00000E+000	-3.63610E-005	-5.39641E-002	4.08889E-001	3.57330E+000	9	...........
	57	0.773333	4.03699E-001	-8.89322E-005	0.00000E+000	-3.59018E-005	-5.39641E-002	4.03748E-001	3.57330E+000	9	...........
	58	0.786667	3.98585E-001	-8.88499E-005	0.00000E+000	-3.54142E-005	-5.39641E-002	3.98638E-001	3.57330E+000	9	...........
	59	0.8	3.93506E-001	-8.87832E-005	0.00000E+000	-3.49367E-005	-5.39641E-002	3.93553E-001	3.57330E+000	9	...........
	60	0.813333	3.88449E-001	-8.89489E-005	0.00000E+000	-3.45521E-005	-5.39641E-002	3.88492E-001	3.57330E+000	9	...........
	61	0.826667	3.83387E-001	-8.87165E-005	0.00000E+000	-3.40128E-005	-5.39641E-002	3.83435E-001	3.57330E+000	9	...........
	62	0.84	3.78343E-001	-8.88614E-005	0.00000E+000	-3.36201E-005	-5.39641E-002	3.78389E-001	3.57330E+000	9	...........
	63	0.853333	3.73323E-001	-8.88478E-005	0.00000E+000	-3.31689E-005	-5.39641E-002	3.73363E-001	3.57330E+000	9	...........
	64	0.866667	3.68310E-001	-8.87322E-005	0.00000E+000	-3.26809E-005	-5.39641E-002	3.68350E-001	3.57330E+000	9	...........
	65	0.88	3.63318E-001	-8.89114E-005	0.00000E+000	-3.23031E-005	-5.39641E-002	3.63364E-001	3.57330E+000	9	...........
	66	0.893333	3.58336E-001	-8.88874E-005	0.00000E+000	-3.18516E-005	-5.39641E-002	3.58381E-001	3.57330E+000	9	...........
	67	0.906667	3.53356E-001	-8.85155E-005	0.00000E+000	-3.12774E-005	-5.39641E-002	3.53398E-001	3.57330E+000	9	...........
	68	0.92	3.48395E-001	-8.88020E-005	0.00000E+000	-3.09381E-005	-5.39641E-002	3.48442E-001	3.57330E+000	9	...........
	69	0.933333	3.43457E-001	-8.88676E-005	0.00000E+000	-3.05222E-005	-5.39641E-002	3.43498E-001	3.57330E+000	9	...........
	70	0.946667	3.38523E-001	-8.88509E-005	0.00000E+000	-3.00781E-005	-5.39641E-002	3.38563E-001	3.57330E+000	9	...........
	71	0.96	3.33607E-001	-8.87655E-005	0.00000E+000	-2.96128E-005	-5.39641E-002	3.33649E-001	3.57330E+000	9	...........
	72	0.97333	3.28711E-001	-8.89280E-005	0.00000E+000	-2.92316E-005	-5.39641E-002	3.28752E-001	3.57330E+000	9	...........
	73	0.98667	3.23816E-001	-8.87759E-005	0.00000E+000	-2.87471E-005	-5.39641E-002	3.23861E-001	3.57330E+000	9	...........
	74	1	3.18944E-001	-8.88832E-005	0.00000E+000	-2.83487E-005	-5.39641E-002	3.18984E-001	3.57330E+000	9	...........
	75	1.01333	3.14089E-001	-8.86467E-005	0.00000E+000	-2.78430E-005	-5.39641E-002	3.14136E-001	3.57330E+000	9	...........
	76	1.02667	3.09248E-001	-8.87186E-005	0.00000E+000	-2.74361E-005	-5.39641E-002	3.09290E-001	3.57330E+000	9	...........
	77	1.04	3.04423E-001	-8.86894E-005	0.00000E+000	-2.69991E-005	-5.39641E-002	3.04461E-001	3.57330E+000	9	...........
	78	1.05333	2.99614E-001	-8.88218E-005	0.00000E+000	-2.66122E-005	-5.39641E-002	2.99650E-001	3.57330E+000	9	...........
	79	1.06667	2.94816E-001	-8.89926E-005	0.00000E+000	-2.62365E-005	-5.39641E-002	2.94855E-001	3.57330E+000	9	...........
	80	1.08	2.90049E-001	-8.87322E-005	0.00000E+000	-2.57367E-005	-5.39641E-002	2.90078E-001	3.57330E+000	9	...........
	81	1.09333	2.85290E-001	-8.86353E-005	0.00000E+000	-2.52868E-005	-5.39641E-002	2.85327E-001	3.57330E+000	9	...........
	82	1.10667	2.80528E-001	-8.88697E-005	0.00000E+000	-2.49304E-005	-5.39641E-002	2.80565E-001	3.57330E+000	9	...........
	83	1.12	2.75795E-001	-8.88072E-005	0.00000E+000	-2.44926E-005	-5.39641E-002	2.75834E-001	3.57330E+000	9	...........
	84	1.13333	2.71068E-001	-8.87009E-005	0.00000E+000	-2.40440E-005	-5.39641E-002	2.71108E-001	3.57330E+000	9	...........
	85	1.14667	2.66357E-001	-8.87665E-005	0.00000E+000	-2.36436E-005	-5.39641E-002	2.66393E-001	3.57330E+000	9	...........
	86	1.16	2.61676E-001	-8.86801E-005	0.00000E+000	-2.32055E-005	-5.39641E-002	2.61717E-001	3.57330E+000	9	...........
	87	1.17333	2.57018E-001	-8.88645E-005	0.00000E+000	-2.28398E-005	-5.39641E-002	2.57051E-001	3.57330E+000	9	...........
	88	1.18667	2.52365E-001	-8.86988E-005	0.00000E+000	-2.23845E-005	-5.39641E-002	2.52405E-001	3.57330E+000	9	...........
	89	1.2	2.47746E-001	-8.87280E-005	0.00000E+000	-2.19820E-005	-5.39641E-002	2.47783E-001	3.57330E+000	9	...........
	90	1.21333	2.43135E-001	-8.86540E-005	0.00000E+000	-2.15549E-005	-5.39641E-002	2.43167E-001	3.57330E+000	9	...........
	91	1.22667	2.38533E-001	-8.87728E-005	0.00000E+000	-2.11752E-005	-5.39641E-002	2.38564E-001	3.57330E+000	9	...........
	92	1.24	2.33954E-001	-8.85488E-005	0.00000E+000	-2.07163E-005	-5.39641E-002	2.33983E-001	3.57330E+000	9	...........
	93	1.25333	2.29401E-001	-8.88416E-005	0.00000E+000	-2.03803E-005	-5.39641E-002	2.29424E-001	3.57330E+000	9	...........
	94	1.26667	2.24850E-001	-8.86874E-005	0.00000E+000	-1.99414E-005	-5.39641E-002	2.24875E-001	3.57330E+000	9	...........
	95	1.28	2.20327E-001	-8.86936E-005	0.00000E+000	-1.95416E-005	-5.39641E-002	2.20352E-001	3.57330E+000	9	...........
	96	1.29333	2.15834E-001	-8.88561E-005	0.00000E+000	-1.91782E-005	-5.39641E-002	2.15857E-001	3.57330E+000	9	...........
	97	1.30667	2.11358E-001	-8.83331E-005	0.00000E+000	-1.86699E-005	-5.39641E-002	2.11381E-001	3.57330E+000	9	...........
	98	1.32	2.06903E-001	-8.87988E-005	0.00000E+000	-1.83727E-005	-5.39641E-002	2.06930E-001	3.57330E+000	9	...........
	99	1.33333	2.02467E-001	-8.87603E-005	0.00000E+000	-1.79710E-005	-5.39641E-002	2.02494E-001	3.57330E+000	9	...........
	100	1.34667	1.98048E-001	-8.86936E-005	0.00000E+000	-1.75656E-005	-5.39641E-002	1.98069E-001	3.57330E+000	9	...........
	101	1.36	1.93638E-001	-8.89791E-005	0.00000E+000	-1.72297E-005	-5.39641E-002	1.93666E-001	3.57330E+000	9	...........
	102	1.37333	1.89254E-001	-8.85373E-005	0.00000E+000	-1.67561E-005	-5.39641E-002	1.89277E-001	3.57330E+000	9	...........
	103	1.38667	1.84891E-001	-8.88145E-005	0.00000E+000	-1.64210E-005	-5.39641E-002	1.84915E-001	3.57330E+000	9	...........
	104	1.4	1.80551E-001	-8.88759E-005	0.00000E+000	-1.60467E-005	-5.39641E-002	1.80576E-001	3.57330E+000	9	...........
	105	1.41333	1.76216E-001	-8.90520E-005	0.00000E+000	-1.56924E-005	-5.39641E-002	1.76238E-001	3.57330E+000	9	...........
	106	1.42667	1.71900E-001	-8.87499E-005	0.00000E+000	-1.52561E-005	-5.39641E-002	1.71919E-001	3.57330E+000	9	...........
	107	1.44	1.67612E-001	-8.87030E-005	0.00000E+000	-1.48677E-005	-5.39641E-002	1.67628E-001	3.57330E+000	9	...........
	108	1.45333	1.63346E-001	-8.87280E-005	0.00000E+000	-1.44933E-005	-5.39641E-002	1.63364E-001	3.57330E+000	9	...........
	109	1.46667	1.59104E-001	-8.87603E-005	0.00000E+000	-1.41221E-005	-5.39641E-002	1.59123E-001	3.57330E+000	9	...........
	110	1.48	1.54894E-001	-8.88770E-005	0.00000E+000	-1.37665E-005	-5.39641E-002	1.54908E-001	3.57330E+000	9	...........
	111	1.49333	1.50692E-001	-8.89280E-005	0.00000E+000	-1.34007E-005	-5.39641E-002	1.50704E-001	3.57330E+000	9	...........
	112	1.50667	1.46520E-001	-8.87551E-005	0.00000E+000	-1.30044E-005	-5.39641E-002	1.46526E-001	3.57330E+000	9	...........
	113	1.52	1.42347E-001	-8.88322E-005	0.00000E+000	-1.26450E-005	-5.39641E-002	1.42360E-001	3.57277E+000	9	...........
	114	1.53333	1.38207E-001	-8.89364E-005	0.00000E+000	-1.22917E-005	-5.39641E-002	1.38216E-001	3.57260E+000	9	...........
	115	1.54667	1.34077E-001	-8.88520E-005	0.00000E+000	-1.19130E-005	-5.39641E-002	1.34088E-001	3.57260E+000	9	...........
	116	1.56	1.29961E-001	-8.90676E-005	0.00000E+000	-1.15754E-005	-5.39641E-002	1.29973E-001	3.57260E+000	9	...........
	117	1.57333	1.25862E-001	-8.87520E-005	0.00000E+000	-1.11705E-005	-5.39641E-002	1.25869E-001	3.57260E+000	9	...........
	118	1.58667	1.21775E-001	-8.87759E-005	0.00000E+000	-1.08106E-005	-5.39641E-002	1.21786E-001	3.57260E+000	9	...........
	119	1.6	1.17715E-001	-8.89124E-005	0.00000E+000	-1.04663E-005	-5.39641E-002	1.17725E-001	3.57260E+000	9	...........
	120	1.61333	1.13679E-001	-8.87822E-005	0.00000E+000	-1.00927E-005	-5.39641E-002	1.13687E-001	3.57260E+000	9	...........
	121	1.62667	1.09662E-001	-8.86978E-005	0.00000E+000	-9.72681E-006	-5.39641E-002	1.09669E-001	3.57260E+000	9	...........
	122	1.64	1.05658E-001	-8.89718E-005	0.00000E+000	-9.40061E-006	-5.39641E-002	1.05668E-001	3.57260E+000	9	...........
	123	1.65333	1.01677E-001	-8.86488E-005	0.00000E+000	-9.01351E-006	-5.39641E-002	1.01689E-001	3.57260E+000	9	...........
	124	1.66667	9.77089E-002	-8.89937E-005	0.00000E+000	-8.69548E-006	-5.39641E-002	9.77177E-002	3.57260E+000	9	...........
	125	1.68	9.37561E-002	-8.87353E-005	0.00000E+000	-8.31948E-006	-5.39641E-002	9.37599E-002	3.57260E+000	9	...........
	126	1.69333	8.98142E-002	-8.86947E-005	0.00000E+000	-7.96604E-006	-5.39641E-002	8.98201E-002	3.57260E+000	9	...........
	127	1.70667	8.58803E-002	-8.86676E-005	0.00000E+000	-7.61480E-006	-5.39641E-002	8.58839E-002	3.57260E+000	9	...........
	128	1.72	8.19643E-002	-8.88405E-005	0.00000E+000	-7.28175E-006	-5.39641E-002	8.19640E-002	3.57260E+000	9	...........
	129	1.73333	7.80612E-002	-8.86540E-005	0.00000E+000	-6.92044E-006	-5.39641E-002	7.80630E-002	3.57260E+000	9	...........
	130	1.74667	7.41818E-002	-8.87092E-005	0.00000E+000	-6.58061E-006	-5.39641E-002	7.41822E-002	3.57260E+000	9	...........
	131	1.76	7.03216E-002	-8.88041E-005	0.00000E+000	-6.24484E-006	-5.39641E-002	7.03262E-002	3.57260E+000	9	...........
	132	1.77333	6.64970E-002	-8.85550E-005	0.00000E+000	-5.88865E-006	-5.39641E-002	6.65001E-002	3.57260E+000	9	...........
	133	1.78667	6.26767E-002	-8.89197E-005	0.00000E+000	-5.57319E-006	-5.39641E-002	6.26769E-002	3.57260E+000	9	...........
	134	1.8	5.88671E-002	-8.87520E-005	0.00000E+000	-5.22457E-006	-5.39641E-002	5.88674E-002	3.57260E+000	9	...........
	135	1.81333	5.50791E-002	-8.89030E-005	0.00000E+000	-4.89670E-006	-5.39641E-002	5.50754E-002	3.57260E+000	9	...........
	136	1.82667	5.13018E-002	-8.89364E-005	0.00000E+000	-4.56259E-006	-5.39641E-002	5.13016E-002	3.57260E+000	9	...........
	137	1.84	4.75585E-002	-8.84581E-005	0.00000E+000	-4.20694E-006	-5.39641E-002	4.75640E-002	3.57260E+000	9	...........
	138	1.85333	4.38174E-002	-8.87436E-005	0.00000E+000	-3.88852E-006	-5.39641E-002	4.38241E-002	3.57260E+000	9	...........
	139	1.86667	4.00871E-002	-8.87676E-005	0.00000E+000	-3.55843E-006	-5.39641E-002	4.00965E-002	3.57260E+000	9	...........
	140	1.88	3.63932E-002	-8.86655E-005	0.00000E+000	-3.22682E-006	-5.39641E-002	3.63981E-002	3.57260E+000	9	...........
	141	1.89333	3.27125E-002	-8.84571E-005	0.00000E+000	-2.89365E-006	-5.39641E-002	3.27190E-002	3.57260E+000	9	...........
	142	1.90667	2.90457E-002	-8.88280E-005	0.00000E+000	-2.58007E-006	-5.39641E-002	2.90483E-002	3.57260E+000	9	...........
	143	1.92	2.54066E-002	-8.86353E-005	0.00000E+000	-2.25192E-006	-5.39641E-002	2.54084E-002	3.57260E+000	9	...........
	144	1.93333	2.17848E-002	-8.88520E-005	0.00000E+000	-1.93562E-006	-5.39641E-002	2.17839E-002	3.57260E+000	9	...........
	145	1.94667	1.81699E-002	-8.88416E-005	0.00000E+000	-1.61424E-006	-5.39641E-002	1.81601E-002	3.57260E+000	9	...........
	146	1.96	1.45844E-002	-8.86207E-005	0.00000E+000	-1.29248E-006	-5.39641E-002	1.45809E-002	3.57260E+000	9	...........
	147	1.97333	1.10166E-002	-8.87353E-005	0.00000E+000	-9.77563E-007	-5.39641E-002	1.10132E-002	3.57260E+000	9	...........
	148	1.98667	7.46576E-003	-8.86384E-005	0.00000E+000	-6.61753E-007	-5.39641E-002	7.45298E-003	3.57260E+000	9	...........
	149	2	3.92992E-003	-8.86592E-005	0.00000E+000	-3.48424E-007	-5.39641E-002	3.92028E-003	3.57260E+000	9	...........
	150	2.01	8.61398E-004	-8.88318E-005	0.00000E+000	-7.65196E-008	-5.39641E-002	8.46234E-004	3.57260E+000	9	...........
STARTTIMEOFFSET	QUANT	2437.083	Start Time Offset (s)
