EXPLAIN
TAG	PWR800_DISCHARGE
TITLE	LABEL	PWR Cyclic Charge Discharge (Cell) - Discharge Step	Test &Identifier
DATE	LABEL	10-7-2017	Date
TIME	LABEL	15:55:52	Time
NOTES	NOTES	3	&Notes...
	supercap test cell
	0.9mg
	6M KOH
PSTAT	PSTAT	IFC5000-01520	Potentiostat
CAPACITY	QUANT	1.00000E-003	Capacity (A-hr)
CELLTYPE	SELECTOR	1	&Cell Type
WORKINGCONNECTION	SELECTOR	0	&Working Lead
MAXDISCHARGETIME	VARIABLEANDUNITS	1.00000E+002	s	1.00000E+002	second(s)	Max &Discharge Time
DISCHARGEMODE	MULTIPARAM	0	9.00000E-005	&Discharge Mode	Constant Current	Amp(s)
SAMPLETIME	QUANT	1.00000E-002	Sa&mple Period (s)
DISCHARGESTOPAT1	MULTIPARAM	3	0.00000E+000	Discharge Stop At &1	Voltage < Limit	V
DISCHARGESTOPAT2	MULTIPARAM	0	0.00000E+000	Discharge Stop At &2	None	N/A
AESBHCSELECTOR	TOGGLE	F	Save Both Half Cells
IRCOMP	TOGGLE	F	IR &Measure
EOC	QUANT	0	Open Circuit (V)
SEQUENCER	TOGGLE	TRUE	Run as Sequence
PSTATMODEL	IQUANT	53	Pstat Model
PSTATSECTION	LABEL	IFC5000-01520	Pstat Section
PSTATSERIALNO	LABEL	01520	Pstat Serial Number
CTRLMODE	IQUANT	0	Control Mode
ELECTROMETER	IQUANT	1	RE=0 or CS=1
IESTAB	IQUANT	0	I/E Stability
CASPEED	IQUANT	4	Control Amp Speed
CONVENTION	IQUANT	1	Current Convention
ICHRANGE	IQUANT	2	Ich Range
ICHRANGEMODE	TOGGLE	T	Ich Auto Range
ICHOFFSETENABLE	TOGGLE	F	Ich Offset Enable
ICHOFFSET	QUANT	0	Ich Offset (V)
ICHFILTER	IQUANT	1	Ich Filter
VCHRANGE	IQUANT	2	Vch Range
VCHRANGEMODE	TOGGLE	T	Vch Auto Range
VCHOFFSETENABLE	TOGGLE	F	Vch Offset Enable
VCHOFFSET	QUANT	0	Vch Offset (V)
VCHFILTER	IQUANT	1	Vch Filter
IERANGELOWERLIMIT	IQUANT	9	I/E Range Lower Limit
IERANGEMODE	TOGGLE	F	I/E AutoRange
IERANGE	IQUANT	9	I/E Range
ACHSELECT	IQUANT	1	Ach Select
ACHRANGE	IQUANT	2	Ach Range
ACHOFFSETENABLE	TOGGLE	F	Ach Offset Enable
ACHOFFSET	QUANT	0	Ach Offset (V)
ACHFILTER	IQUANT	1	Ach Filter
CABLEID	IQUANT	14	Cable ID
DCCALDATE	LABEL	5-7-2017	DC Calibration Date
ACCALDATE	LABEL	12/3/2015	AC Calibration Date
FRAMEWORKVERSION	QUANT	7.01	Framework Version
INSTRUMENTVERSION	LABEL	4.00	Instrument Version
CURVE	TABLE	150
	Pt	T	Vf	Im	Vu	Pwr	Sig	Ach	Temp	IERange	Over
	#	s	V	A	V	W	V	V	deg C	#	bits
	0	0.013333	8.10992E-001	-8.87395E-005	0.00000E+000	-7.19670E-005	-5.39641E-002	8.11133E-001	3.57300E+000	9	...........
	1	0.026667	7.97027E-001	-8.85363E-005	0.00000E+000	-7.05658E-005	-5.39641E-002	7.97160E-001	3.57300E+000	9	...........
	2	0.04	7.83969E-001	-8.87988E-005	0.00000E+000	-6.96155E-005	-5.39641E-002	7.84110E-001	3.57300E+000	9	...........
	3	0.053333	7.71658E-001	-8.85957E-005	0.00000E+000	-6.83655E-005	-5.39641E-002	7.71806E-001	3.57300E+000	9	...........
	4	0.066667	7.59986E-001	-8.87926E-005	0.00000E+000	-6.74811E-005	-5.39641E-002	7.60095E-001	3.57300E+000	9	...........
	5	0.08	7.48802E-001	-8.86582E-005	0.00000E+000	-6.63874E-005	-5.39641E-002	7.48925E-001	3.57300E+000	9	...........
	6	0.093333	7.38052E-001	-8.86967E-005	0.00000E+000	-6.54628E-005	-5.39641E-002	7.38194E-001	3.57300E+000	9	...........
	7	0.106667	7.27759E-001	-8.86248E-005	0.00000E+000	-6.44975E-005	-5.39641E-002	7.27859E-001	3.57300E+000	9	...........
	8	0.12	7.17797E-001	-8.86811E-005	0.00000E+000	-6.36550E-005	-5.39641E-002	7.17894E-001	3.57300E+000	9	...........
	9	0.133333	7.08164E-001	-8.87405E-005	0.00000E+000	-6.28429E-005	-5.39641E-002	7.08261E-001	3.57300E+000	9	...........
	10	0.146667	6.98815E-001	-8.87728E-005	0.00000E+000	-6.20357E-005	-5.39641E-002	6.98924E-001	3.57300E+000	9	...........
	11	0.16	6.89774E-001	-8.86228E-005	0.00000E+000	-6.11297E-005	-5.39641E-002	6.89867E-001	3.57300E+000	9	...........
	12	0.173333	6.80959E-001	-8.89708E-005	0.00000E+000	-6.05855E-005	-5.39641E-002	6.81028E-001	3.57300E+000	9	...........
	13	0.186667	6.72365E-001	-8.86717E-005	0.00000E+000	-5.96198E-005	-5.39641E-002	6.72449E-001	3.57300E+000	9	...........
	14	0.2	6.63977E-001	-8.85082E-005	0.00000E+000	-5.87674E-005	-5.39641E-002	6.64069E-001	3.57300E+000	9	...........
	15	0.213333	6.55801E-001	-8.87717E-005	0.00000E+000	-5.82166E-005	-5.39641E-002	6.55857E-001	3.57300E+000	9	...........
	16	0.226667	6.47785E-001	-8.85509E-005	0.00000E+000	-5.73619E-005	-5.39641E-002	6.47864E-001	3.57300E+000	9	...........
	17	0.24	6.39967E-001	-8.89635E-005	0.00000E+000	-5.69337E-005	-5.39641E-002	6.40052E-001	3.57300E+000	9	...........
	18	0.253333	6.32289E-001	-8.88718E-005	0.00000E+000	-5.61926E-005	-5.39641E-002	6.32381E-001	3.57300E+000	9	...........
	19	0.266667	6.24800E-001	-8.87374E-005	0.00000E+000	-5.54431E-005	-5.39641E-002	6.24881E-001	3.57300E+000	9	...........
	20	0.28	6.17480E-001	-8.85644E-005	0.00000E+000	-5.46867E-005	-5.39641E-002	6.17549E-001	3.57300E+000	9	...........
	21	0.293333	6.10161E-001	-8.88509E-005	0.00000E+000	-5.42133E-005	-5.39641E-002	6.10311E-001	3.57300E+000	9	...........
	22	0.306667	6.03073E-001	-8.87353E-005	0.00000E+000	-5.35139E-005	-5.39641E-002	6.03217E-001	3.57300E+000	9	...........
	23	0.32	5.96110E-001	-8.87540E-005	0.00000E+000	-5.29072E-005	-5.39641E-002	5.96243E-001	3.57300E+000	9	...........
	24	0.333333	5.89252E-001	-8.87749E-005	0.00000E+000	-5.23107E-005	-5.39641E-002	5.89387E-001	3.57300E+000	9	...........
	25	0.346667	5.82479E-001	-8.84957E-005	0.00000E+000	-5.15469E-005	-5.39641E-002	5.82605E-001	3.57300E+000	9	...........
	26	0.36	5.75839E-001	-8.85509E-005	0.00000E+000	-5.09911E-005	-5.39641E-002	5.75946E-001	3.57300E+000	9	...........
	27	0.373333	5.69306E-001	-8.88634E-005	0.00000E+000	-5.05905E-005	-5.39641E-002	5.69391E-001	3.57300E+000	9	...........
	28	0.386667	5.62811E-001	-8.87738E-005	0.00000E+000	-4.99629E-005	-5.39641E-002	5.62935E-001	3.57300E+000	9	...........
	29	0.4	5.56411E-001	-8.87186E-005	0.00000E+000	-4.93640E-005	-5.39641E-002	5.56552E-001	3.57300E+000	9	...........
	30	0.413333	5.50115E-001	-8.89322E-005	0.00000E+000	-4.89229E-005	-5.39641E-002	5.50255E-001	3.57300E+000	9	...........
	31	0.426667	5.43889E-001	-8.88176E-005	0.00000E+000	-4.83069E-005	-5.39641E-002	5.44015E-001	3.57300E+000	9	...........
	32	0.44	5.37759E-001	-8.87415E-005	0.00000E+000	-4.77216E-005	-5.39641E-002	5.37890E-001	3.57300E+000	9	...........
	33	0.453333	5.31663E-001	-8.87165E-005	0.00000E+000	-4.71673E-005	-5.39641E-002	5.31804E-001	3.57300E+000	9	...........
	34	0.466667	5.25709E-001	-8.88353E-005	0.00000E+000	-4.67016E-005	-5.39641E-002	5.25830E-001	3.57300E+000	9	...........
	35	0.48	5.19766E-001	-8.89478E-005	0.00000E+000	-4.62321E-005	-5.39641E-002	5.19890E-001	3.57300E+000	9	...........
	36	0.493333	5.13900E-001	-8.86071E-005	0.00000E+000	-4.55352E-005	-5.39641E-002	5.14008E-001	3.57300E+000	9	...........
	37	0.506667	5.08038E-001	-8.86884E-005	0.00000E+000	-4.50571E-005	-5.39641E-002	5.08171E-001	3.57300E+000	9	...........
	38	0.52	5.02288E-001	-8.89103E-005	0.00000E+000	-4.46586E-005	-5.39641E-002	5.02420E-001	3.57300E+000	9	...........
	39	0.533333	4.96590E-001	-8.86582E-005	0.00000E+000	-4.40268E-005	-5.39641E-002	4.96711E-001	3.57300E+000	9	...........
	40	0.546667	4.90944E-001	-8.90353E-005	0.00000E+000	-4.37114E-005	-5.39641E-002	4.91063E-001	3.57300E+000	9	...........
	41	0.56	4.85379E-001	-8.86134E-005	0.00000E+000	-4.30111E-005	-5.39641E-002	4.85464E-001	3.57300E+000	9	...........
	42	0.573333	4.79866E-001	-8.86123E-005	0.00000E+000	-4.25221E-005	-5.39641E-002	4.79935E-001	3.57300E+000	9	...........
	43	0.586667	4.74333E-001	-8.85332E-005	0.00000E+000	-4.19942E-005	-5.39641E-002	4.74400E-001	3.57300E+000	9	...........
	44	0.6	4.68833E-001	-8.88155E-005	0.00000E+000	-4.16397E-005	-5.39641E-002	4.68899E-001	3.57300E+000	9	...........
	45	0.613333	4.63392E-001	-8.88072E-005	0.00000E+000	-4.11526E-005	-5.39641E-002	4.63449E-001	3.57300E+000	9	...........
	46	0.626667	4.57973E-001	-8.86394E-005	0.00000E+000	-4.05945E-005	-5.39641E-002	4.58038E-001	3.57300E+000	9	...........
	47	0.64	4.52594E-001	-8.86238E-005	0.00000E+000	-4.01106E-005	-5.39641E-002	4.52652E-001	3.57300E+000	9	...........
	48	0.653333	4.47238E-001	-8.88749E-005	0.00000E+000	-3.97483E-005	-5.39641E-002	4.47304E-001	3.57300E+000	9	...........
	49	0.666667	4.41918E-001	-8.88259E-005	0.00000E+000	-3.92537E-005	-5.39641E-002	4.41977E-001	3.57300E+000	9	...........
	50	0.68	4.36620E-001	-8.86311E-005	0.00000E+000	-3.86981E-005	-5.39641E-002	4.36681E-001	3.57300E+000	9	...........
	51	0.693333	4.31341E-001	-8.86217E-005	0.00000E+000	-3.82262E-005	-5.39641E-002	4.31400E-001	3.57300E+000	9	...........
	52	0.706667	4.26089E-001	-8.88551E-005	0.00000E+000	-3.78602E-005	-5.39641E-002	4.26152E-001	3.57300E+000	9	...........
	53	0.72	4.20870E-001	-8.89593E-005	0.00000E+000	-3.74403E-005	-5.39641E-002	4.20929E-001	3.57300E+000	9	...........
	54	0.733333	4.15676E-001	-8.87280E-005	0.00000E+000	-3.68821E-005	-5.39641E-002	4.15732E-001	3.57300E+000	9	...........
	55	0.746667	4.10508E-001	-8.88947E-005	0.00000E+000	-3.64920E-005	-5.39641E-002	4.10567E-001	3.57300E+000	9	...........
	56	0.76	4.05357E-001	-8.87926E-005	0.00000E+000	-3.59927E-005	-5.39641E-002	4.05404E-001	3.57300E+000	9	...........
	57	0.773333	4.00210E-001	-8.86686E-005	0.00000E+000	-3.54861E-005	-5.39641E-002	4.00252E-001	3.57300E+000	9	...........
	58	0.786667	3.95086E-001	-8.87072E-005	0.00000E+000	-3.50469E-005	-5.39641E-002	3.95132E-001	3.57300E+000	9	...........
	59	0.8	3.89968E-001	-8.88249E-005	0.00000E+000	-3.46389E-005	-5.39641E-002	3.90017E-001	3.57300E+000	9	...........
	60	0.813333	3.84887E-001	-8.87155E-005	0.00000E+000	-3.41455E-005	-5.39641E-002	3.84935E-001	3.57300E+000	9	...........
	61	0.826667	3.79833E-001	-8.87217E-005	0.00000E+000	-3.36995E-005	-5.39641E-002	3.79876E-001	3.57300E+000	9	...........
	62	0.84	3.74771E-001	-8.88113E-005	0.00000E+000	-3.32839E-005	-5.39641E-002	3.74823E-001	3.57300E+000	9	...........
	63	0.853333	3.69729E-001	-8.86592E-005	0.00000E+000	-3.27799E-005	-5.39641E-002	3.69783E-001	3.57300E+000	9	...........
	64	0.866667	3.64702E-001	-8.88364E-005	0.00000E+000	-3.23988E-005	-5.39641E-002	3.64749E-001	3.57300E+000	9	...........
	65	0.88	3.59691E-001	-8.89801E-005	0.00000E+000	-3.20053E-005	-5.39641E-002	3.59738E-001	3.57300E+000	9	...........
	66	0.893333	3.54711E-001	-8.88218E-005	0.00000E+000	-3.15061E-005	-5.39641E-002	3.54753E-001	3.57300E+000	9	...........
	67	0.906667	3.49722E-001	-8.89041E-005	0.00000E+000	-3.10917E-005	-5.39641E-002	3.49767E-001	3.57300E+000	9	...........
	68	0.92	3.44756E-001	-8.87968E-005	0.00000E+000	-3.06133E-005	-5.39641E-002	3.44799E-001	3.57300E+000	9	...........
	69	0.933333	3.39805E-001	-8.88780E-005	0.00000E+000	-3.02012E-005	-5.39641E-002	3.39845E-001	3.57300E+000	9	...........
	70	0.946667	3.34859E-001	-8.87832E-005	0.00000E+000	-2.97299E-005	-5.39641E-002	3.34901E-001	3.57300E+000	9	...........
	71	0.96	3.29910E-001	-8.88801E-005	0.00000E+000	-2.93224E-005	-5.39641E-002	3.29940E-001	3.57305E+000	9	...........
	72	0.97333	3.24976E-001	-8.88926E-005	0.00000E+000	-2.88880E-005	-5.39641E-002	3.25024E-001	3.57340E+000	9	...........
	73	0.98667	3.20095E-001	-8.89978E-005	0.00000E+000	-2.84877E-005	-5.39641E-002	3.20132E-001	3.57340E+000	9	...........
	74	1	3.15227E-001	-8.84561E-005	0.00000E+000	-2.78838E-005	-5.39641E-002	3.15261E-001	3.57340E+000	9	...........
	75	1.01333	3.10372E-001	-8.88739E-005	0.00000E+000	-2.75840E-005	-5.39641E-002	3.10406E-001	3.57340E+000	9	...........
	76	1.02667	3.05519E-001	-8.87530E-005	0.00000E+000	-2.71157E-005	-5.39641E-002	3.05555E-001	3.57340E+000	9	...........
	77	1.04	3.00676E-001	-8.87957E-005	0.00000E+000	-2.66987E-005	-5.39641E-002	3.00708E-001	3.57340E+000	9	...........
	78	1.05333	2.95840E-001	-8.87551E-005	0.00000E+000	-2.62573E-005	-5.39641E-002	2.95874E-001	3.57340E+000	9	...........
	79	1.06667	2.91018E-001	-8.86905E-005	0.00000E+000	-2.58106E-005	-5.39641E-002	2.91055E-001	3.57340E+000	9	...........
	80	1.08	2.86212E-001	-8.87968E-005	0.00000E+000	-2.54147E-005	-5.39641E-002	2.86250E-001	3.57340E+000	9	...........
	81	1.09333	2.81428E-001	-8.87051E-005	0.00000E+000	-2.49641E-005	-5.39641E-002	2.81467E-001	3.57340E+000	9	...........
	82	1.10667	2.76690E-001	-8.88728E-005	0.00000E+000	-2.45902E-005	-5.39641E-002	2.76722E-001	3.57340E+000	9	...........
	83	1.12	2.71942E-001	-8.88707E-005	0.00000E+000	-2.41677E-005	-5.39641E-002	2.71983E-001	3.57340E+000	9	...........
	84	1.13333	2.67227E-001	-8.88395E-005	0.00000E+000	-2.37403E-005	-5.39641E-002	2.67267E-001	3.57340E+000	9	...........
	85	1.14667	2.62521E-001	-8.89478E-005	0.00000E+000	-2.33507E-005	-5.39641E-002	2.62550E-001	3.57340E+000	9	...........
	86	1.16	2.57829E-001	-8.85811E-005	0.00000E+000	-2.28388E-005	-5.39641E-002	2.57865E-001	3.57340E+000	9	...........
	87	1.17333	2.53168E-001	-8.88249E-005	0.00000E+000	-2.24876E-005	-5.39641E-002	2.53202E-001	3.57340E+000	9	...........
	88	1.18667	2.48502E-001	-8.88874E-005	0.00000E+000	-2.20887E-005	-5.39641E-002	2.48532E-001	3.57340E+000	9	...........
	89	1.2	2.43851E-001	-8.88061E-005	0.00000E+000	-2.16555E-005	-5.39641E-002	2.43883E-001	3.57340E+000	9	...........
	90	1.21333	2.39221E-001	-8.87905E-005	0.00000E+000	-2.12405E-005	-5.39641E-002	2.39250E-001	3.57340E+000	9	...........
	91	1.22667	2.34600E-001	-8.88895E-005	0.00000E+000	-2.08535E-005	-5.39641E-002	2.34627E-001	3.57340E+000	9	...........
	92	1.24	2.29993E-001	-8.88645E-005	0.00000E+000	-2.04382E-005	-5.39641E-002	2.30025E-001	3.57340E+000	9	...........
	93	1.25333	2.25408E-001	-8.89947E-005	0.00000E+000	-2.00601E-005	-5.39641E-002	2.25430E-001	3.57340E+000	9	...........
	94	1.26667	2.20826E-001	-8.89416E-005	0.00000E+000	-1.96406E-005	-5.39641E-002	2.20853E-001	3.57340E+000	9	...........
	95	1.28	2.16271E-001	-8.88176E-005	0.00000E+000	-1.92087E-005	-5.39641E-002	2.16294E-001	3.57340E+000	9	...........
	96	1.29333	2.11731E-001	-8.86332E-005	0.00000E+000	-1.87664E-005	-5.39641E-002	2.11758E-001	3.57340E+000	9	...........
	97	1.30667	2.07211E-001	-8.88478E-005	0.00000E+000	-1.84103E-005	-5.39641E-002	2.07235E-001	3.57340E+000	9	...........
	98	1.32	2.02724E-001	-8.89155E-005	0.00000E+000	-1.80253E-005	-5.39641E-002	2.02750E-001	3.57340E+000	9	...........
	99	1.33333	1.98244E-001	-8.86019E-005	0.00000E+000	-1.75648E-005	-5.39641E-002	1.98270E-001	3.57340E+000	9	...........
	100	1.34667	1.93794E-001	-8.88134E-005	0.00000E+000	-1.72115E-005	-5.39641E-002	1.93818E-001	3.57340E+000	9	...........
	101	1.36	1.89363E-001	-8.86832E-005	0.00000E+000	-1.67933E-005	-5.39641E-002	1.89384E-001	3.57340E+000	9	...........
	102	1.37333	1.84962E-001	-8.87957E-005	0.00000E+000	-1.64239E-005	-5.39641E-002	1.84982E-001	3.57340E+000	9	...........
	103	1.38667	1.80556E-001	-8.86780E-005	0.00000E+000	-1.60113E-005	-5.39641E-002	1.80572E-001	3.57340E+000	9	...........
	104	1.4	1.76170E-001	-8.86905E-005	0.00000E+000	-1.56246E-005	-5.39641E-002	1.76187E-001	3.57340E+000	9	...........
	105	1.41333	1.71806E-001	-8.87259E-005	0.00000E+000	-1.52436E-005	-5.39641E-002	1.71831E-001	3.57340E+000	9	...........
	106	1.42667	1.67463E-001	-8.87269E-005	0.00000E+000	-1.48585E-005	-5.39641E-002	1.67482E-001	3.57340E+000	9	...........
	107	1.44	1.63135E-001	-8.88749E-005	0.00000E+000	-1.44986E-005	-5.39641E-002	1.63155E-001	3.57340E+000	9	...........
	108	1.45333	1.58830E-001	-8.85998E-005	0.00000E+000	-1.40723E-005	-5.39641E-002	1.58844E-001	3.57340E+000	9	...........
	109	1.46667	1.54532E-001	-8.87186E-005	0.00000E+000	-1.37098E-005	-5.39641E-002	1.54547E-001	3.57340E+000	9	...........
	110	1.48	1.50257E-001	-8.87832E-005	0.00000E+000	-1.33403E-005	-5.39641E-002	1.50269E-001	3.57340E+000	9	...........
	111	1.49333	1.46000E-001	-8.87415E-005	0.00000E+000	-1.29563E-005	-5.39641E-002	1.46014E-001	3.57340E+000	9	...........
	112	1.50667	1.41765E-001	-8.87270E-005	0.00000E+000	-1.25784E-005	-5.39641E-002	1.41782E-001	3.57340E+000	9	...........
	113	1.52	1.37564E-001	-8.86311E-005	0.00000E+000	-1.21925E-005	-5.39641E-002	1.37583E-001	3.57340E+000	9	...........
	114	1.53333	1.33385E-001	-8.89739E-005	0.00000E+000	-1.18678E-005	-5.39641E-002	1.33395E-001	3.57340E+000	9	...........
	115	1.54667	1.29215E-001	-8.89655E-005	0.00000E+000	-1.14957E-005	-5.39641E-002	1.29228E-001	3.57340E+000	9	...........
	116	1.56	1.25072E-001	-8.87499E-005	0.00000E+000	-1.11001E-005	-5.39641E-002	1.25080E-001	3.57340E+000	9	...........
	117	1.57333	1.20944E-001	-8.88374E-005	0.00000E+000	-1.07443E-005	-5.39641E-002	1.20957E-001	3.57340E+000	9	...........
	118	1.58667	1.16850E-001	-8.89322E-005	0.00000E+000	-1.03917E-005	-5.39641E-002	1.16866E-001	3.57340E+000	9	...........
	119	1.6	1.12776E-001	-8.87832E-005	0.00000E+000	-1.00126E-005	-5.39641E-002	1.12789E-001	3.57340E+000	9	...........
	120	1.61333	1.08699E-001	-8.87051E-005	0.00000E+000	-9.64218E-006	-5.39641E-002	1.08706E-001	3.57340E+000	9	...........
	121	1.62667	1.04644E-001	-8.87384E-005	0.00000E+000	-9.28596E-006	-5.39641E-002	1.04654E-001	3.57340E+000	9	...........
	122	1.64	1.00609E-001	-8.89051E-005	0.00000E+000	-8.94467E-006	-5.39641E-002	1.00619E-001	3.57340E+000	9	...........
	123	1.65333	9.65778E-002	-8.89280E-005	0.00000E+000	-8.58847E-006	-5.39641E-002	9.65917E-002	3.57340E+000	9	...........
	124	1.66667	9.25707E-002	-8.87957E-005	0.00000E+000	-8.21988E-006	-5.39641E-002	9.25786E-002	3.57340E+000	9	...........
	125	1.68	8.85875E-002	-8.88645E-005	0.00000E+000	-7.87228E-006	-5.39641E-002	8.85895E-002	3.57340E+000	9	...........
	126	1.69333	8.46123E-002	-8.87853E-005	0.00000E+000	-7.51233E-006	-5.39641E-002	8.46161E-002	3.57340E+000	9	...........
	127	1.70667	8.06541E-002	-8.83613E-005	0.00000E+000	-7.12669E-006	-5.39641E-002	8.06561E-002	3.57340E+000	9	...........
	128	1.72	7.67155E-002	-8.88447E-005	0.00000E+000	-6.81577E-006	-5.39641E-002	7.67165E-002	3.57340E+000	9	...........
	129	1.73333	7.27899E-002	-8.88145E-005	0.00000E+000	-6.46479E-006	-5.39641E-002	7.27917E-002	3.57340E+000	9	...........
	130	1.74667	6.88949E-002	-8.88509E-005	0.00000E+000	-6.12137E-006	-5.39641E-002	6.88978E-002	3.57340E+000	9	...........
	131	1.76	6.50203E-002	-8.87905E-005	0.00000E+000	-5.77318E-006	-5.39641E-002	6.50256E-002	3.57340E+000	9	...........
	132	1.77333	6.11550E-002	-8.86822E-005	0.00000E+000	-5.42336E-006	-5.39641E-002	6.11595E-002	3.57340E+000	9	...........
	133	1.78667	5.73193E-002	-8.86394E-005	0.00000E+000	-5.08075E-006	-5.39641E-002	5.73182E-002	3.57340E+000	9	...........
	134	1.8	5.34910E-002	-8.86717E-005	0.00000E+000	-4.74314E-006	-5.39641E-002	5.34861E-002	3.57340E+000	9	...........
	135	1.81333	4.96903E-002	-8.87759E-005	0.00000E+000	-4.41130E-006	-5.39641E-002	4.96910E-002	3.57340E+000	9	...........
	136	1.82667	4.59174E-002	-8.86426E-005	0.00000E+000	-4.07024E-006	-5.39641E-002	4.59226E-002	3.57340E+000	9	...........
	137	1.84	4.21415E-002	-8.88082E-005	0.00000E+000	-3.74251E-006	-5.39641E-002	4.21431E-002	3.57340E+000	9	...........
	138	1.85333	3.83707E-002	-8.91312E-005	0.00000E+000	-3.42003E-006	-5.39641E-002	3.83722E-002	3.57340E+000	9	...........
	139	1.86667	3.46224E-002	-8.88937E-005	0.00000E+000	-3.07771E-006	-5.39641E-002	3.46216E-002	3.57340E+000	9	...........
	140	1.88	3.08870E-002	-8.88332E-005	0.00000E+000	-2.74380E-006	-5.39641E-002	3.08895E-002	3.57340E+000	9	...........
	141	1.89333	2.71676E-002	-8.89468E-005	0.00000E+000	-2.41647E-006	-5.39641E-002	2.71613E-002	3.57340E+000	9	...........
	142	1.90667	2.34537E-002	-8.90030E-005	0.00000E+000	-2.08745E-006	-5.39641E-002	2.34543E-002	3.57340E+000	9	...........
	143	1.92	1.97729E-002	-8.87770E-005	0.00000E+000	-1.75538E-006	-5.39641E-002	1.97720E-002	3.57340E+000	9	...........
	144	1.93333	1.61028E-002	-8.88197E-005	0.00000E+000	-1.43024E-006	-5.39641E-002	1.60979E-002	3.57340E+000	9	...........
	145	1.94667	1.24583E-002	-8.87832E-005	0.00000E+000	-1.10609E-006	-5.39641E-002	1.24485E-002	3.57340E+000	9	...........
	146	1.96	8.83927E-003	-8.88332E-005	0.00000E+000	-7.85221E-007	-5.39641E-002	8.82684E-003	3.57346E+000	9	...........
	147	1.97333	5.23266E-003	-8.87155E-005	0.00000E+000	-4.64218E-007	-5.39641E-002	5.22308E-003	3.57390E+000	9	...........
	148	1.98667	1.63071E-003	-8.87717E-005	0.00000E+000	-1.44761E-007	-5.39641E-002	1.61769E-003	3.57390E+000	9	...........
	149	1.98833	-3.95270E-004	-8.86582E-005	0.00000E+000	3.50439E-008	-5.39641E-002	-4.10044E-004	3.57390E+000	9	...........
STARTTIMEOFFSET	QUANT	2858.756	Start Time Offset (s)
