EXPLAIN
TAG	PWR800_DISCHARGE
TITLE	LABEL	PWR Cyclic Charge Discharge (Cell) - Discharge Step	Test &Identifier
DATE	LABEL	10-7-2017	Date
TIME	LABEL	16:19:11	Time
NOTES	NOTES	3	&Notes...
	supercap test cell
	0.9mg
	6M KOH
PSTAT	PSTAT	IFC5000-01520	Potentiostat
CAPACITY	QUANT	1.00000E-003	Capacity (A-hr)
CELLTYPE	SELECTOR	1	&Cell Type
WORKINGCONNECTION	SELECTOR	0	&Working Lead
MAXDISCHARGETIME	VARIABLEANDUNITS	1.00000E+002	s	1.00000E+002	second(s)	Max &Discharge Time
DISCHARGEMODE	MULTIPARAM	0	9.00000E-005	&Discharge Mode	Constant Current	Amp(s)
SAMPLETIME	QUANT	1.00000E-002	Sa&mple Period (s)
DISCHARGESTOPAT1	MULTIPARAM	3	0.00000E+000	Discharge Stop At &1	Voltage < Limit	V
DISCHARGESTOPAT2	MULTIPARAM	0	0.00000E+000	Discharge Stop At &2	None	N/A
AESBHCSELECTOR	TOGGLE	F	Save Both Half Cells
IRCOMP	TOGGLE	F	IR &Measure
EOC	QUANT	0	Open Circuit (V)
SEQUENCER	TOGGLE	TRUE	Run as Sequence
PSTATMODEL	IQUANT	53	Pstat Model
PSTATSECTION	LABEL	IFC5000-01520	Pstat Section
PSTATSERIALNO	LABEL	01520	Pstat Serial Number
CTRLMODE	IQUANT	0	Control Mode
ELECTROMETER	IQUANT	1	RE=0 or CS=1
IESTAB	IQUANT	0	I/E Stability
CASPEED	IQUANT	4	Control Amp Speed
CONVENTION	IQUANT	1	Current Convention
ICHRANGE	IQUANT	2	Ich Range
ICHRANGEMODE	TOGGLE	T	Ich Auto Range
ICHOFFSETENABLE	TOGGLE	F	Ich Offset Enable
ICHOFFSET	QUANT	0	Ich Offset (V)
ICHFILTER	IQUANT	1	Ich Filter
VCHRANGE	IQUANT	2	Vch Range
VCHRANGEMODE	TOGGLE	T	Vch Auto Range
VCHOFFSETENABLE	TOGGLE	F	Vch Offset Enable
VCHOFFSET	QUANT	0	Vch Offset (V)
VCHFILTER	IQUANT	1	Vch Filter
IERANGELOWERLIMIT	IQUANT	9	I/E Range Lower Limit
IERANGEMODE	TOGGLE	F	I/E AutoRange
IERANGE	IQUANT	9	I/E Range
ACHSELECT	IQUANT	1	Ach Select
ACHRANGE	IQUANT	2	Ach Range
ACHOFFSETENABLE	TOGGLE	F	Ach Offset Enable
ACHOFFSET	QUANT	0	Ach Offset (V)
ACHFILTER	IQUANT	1	Ach Filter
CABLEID	IQUANT	14	Cable ID
DCCALDATE	LABEL	5-7-2017	DC Calibration Date
ACCALDATE	LABEL	12/3/2015	AC Calibration Date
FRAMEWORKVERSION	QUANT	7.01	Framework Version
INSTRUMENTVERSION	LABEL	4.00	Instrument Version
CURVE	TABLE	147
	Pt	T	Vf	Im	Vu	Pwr	Sig	Ach	Temp	IERange	Over
	#	s	V	A	V	W	V	V	deg C	#	bits
	0	0.013333	8.03043E-001	-8.88666E-005	0.00000E+000	-7.13637E-005	-5.39641E-002	8.03181E-001	3.57290E+000	9	...........
	1	0.026667	7.88627E-001	-8.87780E-005	0.00000E+000	-7.00127E-005	-5.39641E-002	7.88761E-001	3.57290E+000	9	...........
	2	0.04	7.75204E-001	-8.89218E-005	0.00000E+000	-6.89325E-005	-5.39641E-002	7.75366E-001	3.57290E+000	9	...........
	3	0.053333	7.62590E-001	-8.88895E-005	0.00000E+000	-6.77862E-005	-5.39641E-002	7.62702E-001	3.57290E+000	9	...........
	4	0.066667	7.50591E-001	-8.88999E-005	0.00000E+000	-6.67275E-005	-5.39641E-002	7.50734E-001	3.57290E+000	9	...........
	5	0.08	7.39138E-001	-8.87499E-005	0.00000E+000	-6.55984E-005	-5.39641E-002	7.39256E-001	3.57290E+000	9	...........
	6	0.093333	7.28188E-001	-8.86915E-005	0.00000E+000	-6.45841E-005	-5.39641E-002	7.28318E-001	3.57290E+000	9	...........
	7	0.106667	7.17648E-001	-8.87936E-005	0.00000E+000	-6.37226E-005	-5.39641E-002	7.17769E-001	3.57290E+000	9	...........
	8	0.12	7.07480E-001	-8.89812E-005	0.00000E+000	-6.29524E-005	-5.39641E-002	7.07611E-001	3.57290E+000	9	...........
	9	0.133333	6.97689E-001	-8.87124E-005	0.00000E+000	-6.18937E-005	-5.39641E-002	6.97800E-001	3.57290E+000	9	...........
	10	0.146667	6.88186E-001	-8.86467E-005	0.00000E+000	-6.10054E-005	-5.39641E-002	6.88332E-001	3.57335E+000	9	...........
	11	0.16	6.79006E-001	-8.88343E-005	0.00000E+000	-6.03190E-005	-5.39641E-002	6.79128E-001	3.57350E+000	9	...........
	12	0.173333	6.70058E-001	-8.87655E-005	0.00000E+000	-5.94780E-005	-5.39641E-002	6.70168E-001	3.57350E+000	9	...........
	13	0.186667	6.61311E-001	-8.86936E-005	0.00000E+000	-5.86540E-005	-5.39641E-002	6.61449E-001	3.57350E+000	9	...........
	14	0.2	6.52856E-001	-8.87676E-005	0.00000E+000	-5.79525E-005	-5.39641E-002	6.52978E-001	3.57350E+000	9	...........
	15	0.213333	6.44568E-001	-8.88978E-005	0.00000E+000	-5.73007E-005	-5.39641E-002	6.44689E-001	3.57350E+000	9	...........
	16	0.226667	6.36458E-001	-8.89124E-005	0.00000E+000	-5.65890E-005	-5.39641E-002	6.36577E-001	3.57350E+000	9	...........
	17	0.24	6.28567E-001	-8.88291E-005	0.00000E+000	-5.58351E-005	-5.39641E-002	6.28696E-001	3.57350E+000	9	...........
	18	0.253333	6.20862E-001	-8.89426E-005	0.00000E+000	-5.52211E-005	-5.39641E-002	6.20962E-001	3.57350E+000	9	...........
	19	0.266667	6.13246E-001	-8.88228E-005	0.00000E+000	-5.44702E-005	-5.39641E-002	6.13394E-001	3.57350E+000	9	...........
	20	0.28	6.05847E-001	-8.87155E-005	0.00000E+000	-5.37480E-005	-5.39641E-002	6.06003E-001	3.57350E+000	9	...........
	21	0.293333	5.98589E-001	-8.89155E-005	0.00000E+000	-5.32239E-005	-5.39641E-002	5.98738E-001	3.57350E+000	9	...........
	22	0.306667	5.91466E-001	-8.87832E-005	0.00000E+000	-5.25123E-005	-5.39641E-002	5.91621E-001	3.57350E+000	9	...........
	23	0.32	5.84439E-001	-8.86019E-005	0.00000E+000	-5.17824E-005	-5.39641E-002	5.84588E-001	3.57350E+000	9	...........
	24	0.333333	5.77569E-001	-8.89103E-005	0.00000E+000	-5.13518E-005	-5.39641E-002	5.77712E-001	3.57350E+000	9	...........
	25	0.346667	5.70815E-001	-8.87342E-005	0.00000E+000	-5.06508E-005	-5.39641E-002	5.70942E-001	3.57350E+000	9	...........
	26	0.36	5.64156E-001	-8.88884E-005	0.00000E+000	-5.01470E-005	-5.39641E-002	5.64296E-001	3.57350E+000	9	...........
	27	0.373333	5.57574E-001	-8.85040E-005	0.00000E+000	-4.93475E-005	-5.39641E-002	5.57720E-001	3.57350E+000	9	...........
	28	0.386667	5.51125E-001	-8.89603E-005	0.00000E+000	-4.90283E-005	-5.39641E-002	5.51245E-001	3.57350E+000	9	...........
	29	0.4	5.44753E-001	-8.86926E-005	0.00000E+000	-4.83155E-005	-5.39641E-002	5.44887E-001	3.57350E+000	9	...........
	30	0.413333	5.38474E-001	-8.87947E-005	0.00000E+000	-4.78136E-005	-5.39641E-002	5.38596E-001	3.57350E+000	9	...........
	31	0.426667	5.32226E-001	-8.87124E-005	0.00000E+000	-4.72150E-005	-5.39641E-002	5.32354E-001	3.57350E+000	9	...........
	32	0.44	5.26110E-001	-8.87363E-005	0.00000E+000	-4.66850E-005	-5.39641E-002	5.26227E-001	3.57350E+000	9	...........
	33	0.453333	5.20075E-001	-8.87749E-005	0.00000E+000	-4.61696E-005	-5.39641E-002	5.20177E-001	3.57350E+000	9	...........
	34	0.466667	5.14110E-001	-8.87822E-005	0.00000E+000	-4.56438E-005	-5.39641E-002	5.14209E-001	3.57350E+000	9	...........
	35	0.48	5.08138E-001	-8.86540E-005	0.00000E+000	-4.50485E-005	-5.39641E-002	5.08269E-001	3.57350E+000	9	...........
	36	0.493333	5.02296E-001	-8.87540E-005	0.00000E+000	-4.45808E-005	-5.39641E-002	5.02411E-001	3.57350E+000	9	...........
	37	0.506667	4.96531E-001	-8.86165E-005	0.00000E+000	-4.40009E-005	-5.39641E-002	4.96660E-001	3.57350E+000	9	...........
	38	0.52	4.90824E-001	-8.86738E-005	0.00000E+000	-4.35232E-005	-5.39641E-002	4.90909E-001	3.57350E+000	9	...........
	39	0.533333	4.85196E-001	-8.87832E-005	0.00000E+000	-4.30773E-005	-5.39641E-002	4.85275E-001	3.57350E+000	9	...........
	40	0.546667	4.79622E-001	-8.88374E-005	0.00000E+000	-4.26083E-005	-5.39641E-002	4.79685E-001	3.57350E+000	9	...........
	41	0.56	4.74036E-001	-8.89395E-005	0.00000E+000	-4.21605E-005	-5.39641E-002	4.74102E-001	3.57350E+000	9	...........
	42	0.573333	4.68507E-001	-8.88686E-005	0.00000E+000	-4.16356E-005	-5.39641E-002	4.68568E-001	3.57350E+000	9	...........
	43	0.586667	4.63000E-001	-8.89301E-005	0.00000E+000	-4.11747E-005	-5.39641E-002	4.63065E-001	3.57350E+000	9	...........
	44	0.6	4.57548E-001	-8.87520E-005	0.00000E+000	-4.06083E-005	-5.39641E-002	4.57611E-001	3.57350E+000	9	...........
	45	0.613333	4.52124E-001	-8.86915E-005	0.00000E+000	-4.00996E-005	-5.39641E-002	4.52192E-001	3.57350E+000	9	...........
	46	0.626667	4.46748E-001	-8.88270E-005	0.00000E+000	-3.96833E-005	-5.39641E-002	4.46809E-001	3.57350E+000	9	...........
	47	0.64	4.41406E-001	-8.89228E-005	0.00000E+000	-3.92511E-005	-5.39641E-002	4.41471E-001	3.57350E+000	9	...........
	48	0.653333	4.36102E-001	-8.90666E-005	0.00000E+000	-3.88422E-005	-5.39641E-002	4.36169E-001	3.57350E+000	9	...........
	49	0.666667	4.30829E-001	-8.87499E-005	0.00000E+000	-3.82360E-005	-5.39641E-002	4.30897E-001	3.57350E+000	9	...........
	50	0.68	4.25586E-001	-8.88489E-005	0.00000E+000	-3.78129E-005	-5.39641E-002	4.25652E-001	3.57350E+000	9	...........
	51	0.693333	4.20366E-001	-8.89989E-005	0.00000E+000	-3.74121E-005	-5.39641E-002	4.20428E-001	3.57350E+000	9	...........
	52	0.706667	4.15180E-001	-8.89353E-005	0.00000E+000	-3.69242E-005	-5.39641E-002	4.15243E-001	3.57350E+000	9	...........
	53	0.72	4.10018E-001	-8.88759E-005	0.00000E+000	-3.64408E-005	-5.39641E-002	4.10077E-001	3.57350E+000	9	...........
	54	0.733333	4.04876E-001	-8.87926E-005	0.00000E+000	-3.59500E-005	-5.39641E-002	4.04933E-001	3.57350E+000	9	...........
	55	0.746667	3.99756E-001	-8.88666E-005	0.00000E+000	-3.55249E-005	-5.39641E-002	3.99809E-001	3.57350E+000	9	...........
	56	0.76	3.94649E-001	-8.88051E-005	0.00000E+000	-3.50468E-005	-5.39641E-002	3.94703E-001	3.57350E+000	9	...........
	57	0.773333	3.89556E-001	-8.88509E-005	0.00000E+000	-3.46124E-005	-5.39641E-002	3.89610E-001	3.57350E+000	9	...........
	58	0.786667	3.84496E-001	-8.89020E-005	0.00000E+000	-3.41824E-005	-5.39641E-002	3.84546E-001	3.57350E+000	9	...........
	59	0.8	3.79465E-001	-8.87499E-005	0.00000E+000	-3.36774E-005	-5.39641E-002	3.79514E-001	3.57350E+000	9	...........
	60	0.813333	3.74446E-001	-8.87520E-005	0.00000E+000	-3.32328E-005	-5.39641E-002	3.74499E-001	3.57350E+000	9	...........
	61	0.826667	3.69449E-001	-8.91083E-005	0.00000E+000	-3.29210E-005	-5.39641E-002	3.69492E-001	3.57350E+000	9	...........
	62	0.84	3.64461E-001	-8.89905E-005	0.00000E+000	-3.24336E-005	-5.39641E-002	3.64508E-001	3.57350E+000	9	...........
	63	0.853333	3.59481E-001	-8.88936E-005	0.00000E+000	-3.19556E-005	-5.39641E-002	3.59534E-001	3.57350E+000	9	...........
	64	0.866667	3.54523E-001	-8.88499E-005	0.00000E+000	-3.14993E-005	-5.39641E-002	3.54569E-001	3.57350E+000	9	...........
	65	0.88	3.49575E-001	-8.88791E-005	0.00000E+000	-3.10699E-005	-5.39641E-002	3.49615E-001	3.57350E+000	9	...........
	66	0.893333	3.44619E-001	-8.86759E-005	0.00000E+000	-3.05594E-005	-5.39641E-002	3.44666E-001	3.57350E+000	9	...........
	67	0.906667	3.39702E-001	-8.85300E-005	0.00000E+000	-3.00738E-005	-5.39641E-002	3.39741E-001	3.57350E+000	9	...........
	68	0.92	3.34781E-001	-8.90562E-005	0.00000E+000	-2.98143E-005	-5.39641E-002	3.34825E-001	3.57350E+000	9	...........
	69	0.933333	3.29889E-001	-8.87113E-005	0.00000E+000	-2.92649E-005	-5.39641E-002	3.29930E-001	3.57350E+000	9	...........
	70	0.946667	3.25021E-001	-8.87863E-005	0.00000E+000	-2.88574E-005	-5.39641E-002	3.25067E-001	3.57350E+000	9	...........
	71	0.96	3.20157E-001	-8.91041E-005	0.00000E+000	-2.85273E-005	-5.39641E-002	3.20197E-001	3.57350E+000	9	...........
	72	0.97333	3.15296E-001	-8.85842E-005	0.00000E+000	-2.79303E-005	-5.39641E-002	3.15339E-001	3.57350E+000	9	...........
	73	0.98667	3.10453E-001	-8.85217E-005	0.00000E+000	-2.74818E-005	-5.39641E-002	3.10496E-001	3.57350E+000	9	...........
	74	1	3.05606E-001	-8.88113E-005	0.00000E+000	-2.71412E-005	-5.39641E-002	3.05649E-001	3.57350E+000	9	...........
	75	1.01333	3.00767E-001	-8.87572E-005	0.00000E+000	-2.66953E-005	-5.39641E-002	3.00814E-001	3.57350E+000	9	...........
	76	1.02667	2.95946E-001	-8.88780E-005	0.00000E+000	-2.63031E-005	-5.39641E-002	2.95990E-001	3.57350E+000	9	...........
	77	1.04	2.91142E-001	-8.89937E-005	0.00000E+000	-2.59098E-005	-5.39641E-002	2.91183E-001	3.57350E+000	9	...........
	78	1.05333	2.86345E-001	-8.89207E-005	0.00000E+000	-2.54620E-005	-5.39641E-002	2.86388E-001	3.57350E+000	9	...........
	79	1.06667	2.81547E-001	-8.86050E-005	0.00000E+000	-2.49464E-005	-5.39641E-002	2.81594E-001	3.57350E+000	9	...........
	80	1.08	2.76765E-001	-8.86499E-005	0.00000E+000	-2.45352E-005	-5.39641E-002	2.76800E-001	3.57350E+000	9	...........
	81	1.09333	2.71989E-001	-8.87405E-005	0.00000E+000	-2.41364E-005	-5.39641E-002	2.72023E-001	3.57350E+000	9	...........
	82	1.10667	2.67234E-001	-8.89520E-005	0.00000E+000	-2.37710E-005	-5.39641E-002	2.67272E-001	3.57350E+000	9	...........
	83	1.12	2.62486E-001	-8.89895E-005	0.00000E+000	-2.33585E-005	-5.39641E-002	2.62522E-001	3.57350E+000	9	...........
	84	1.13333	2.57762E-001	-8.87415E-005	0.00000E+000	-2.28742E-005	-5.39641E-002	2.57798E-001	3.57350E+000	9	...........
	85	1.14667	2.53041E-001	-8.90791E-005	0.00000E+000	-2.25407E-005	-5.39641E-002	2.53078E-001	3.57305E+000	9	...........
	86	1.16	2.48337E-001	-8.85978E-005	0.00000E+000	-2.20021E-005	-5.39641E-002	2.48373E-001	3.57290E+000	9	...........
	87	1.17333	2.43664E-001	-8.89916E-005	0.00000E+000	-2.16840E-005	-5.39641E-002	2.43694E-001	3.57290E+000	9	...........
	88	1.18667	2.39009E-001	-8.87999E-005	0.00000E+000	-2.12239E-005	-5.39641E-002	2.39032E-001	3.57290E+000	9	...........
	89	1.2	2.34364E-001	-8.88416E-005	0.00000E+000	-2.08213E-005	-5.39641E-002	2.34390E-001	3.57290E+000	9	...........
	90	1.21333	2.29736E-001	-8.86863E-005	0.00000E+000	-2.03744E-005	-5.39641E-002	2.29754E-001	3.57290E+000	9	...........
	91	1.22667	2.25115E-001	-8.87290E-005	0.00000E+000	-1.99742E-005	-5.39641E-002	2.25141E-001	3.57290E+000	9	...........
	92	1.24	2.20519E-001	-8.88322E-005	0.00000E+000	-1.95892E-005	-5.39641E-002	2.20546E-001	3.57290E+000	9	...........
	93	1.25333	2.15944E-001	-8.88676E-005	0.00000E+000	-1.91904E-005	-5.39641E-002	2.15968E-001	3.57290E+000	9	...........
	94	1.26667	2.11372E-001	-8.86613E-005	0.00000E+000	-1.87405E-005	-5.39641E-002	2.11402E-001	3.57290E+000	9	...........
	95	1.28	2.06830E-001	-8.87061E-005	0.00000E+000	-1.83471E-005	-5.39641E-002	2.06852E-001	3.57290E+000	9	...........
	96	1.29333	2.02308E-001	-8.86176E-005	0.00000E+000	-1.79281E-005	-5.39641E-002	2.02333E-001	3.57290E+000	9	...........
	97	1.30667	1.97803E-001	-8.90562E-005	0.00000E+000	-1.76156E-005	-5.39641E-002	1.97833E-001	3.57290E+000	9	...........
	98	1.32	1.93319E-001	-8.85082E-005	0.00000E+000	-1.71104E-005	-5.39641E-002	1.93346E-001	3.57290E+000	9	...........
	99	1.33333	1.88846E-001	-8.88666E-005	0.00000E+000	-1.67821E-005	-5.39641E-002	1.88873E-001	3.57290E+000	9	...........
	100	1.34667	1.84376E-001	-8.86603E-005	0.00000E+000	-1.63468E-005	-5.39641E-002	1.84397E-001	3.57290E+000	9	...........
	101	1.36	1.79921E-001	-8.86957E-005	0.00000E+000	-1.59582E-005	-5.39641E-002	1.79945E-001	3.57290E+000	9	...........
	102	1.37333	1.75480E-001	-8.88634E-005	0.00000E+000	-1.55938E-005	-5.39641E-002	1.75507E-001	3.57290E+000	9	...........
	103	1.38667	1.71068E-001	-8.89385E-005	0.00000E+000	-1.52145E-005	-5.39641E-002	1.71093E-001	3.57290E+000	9	...........
	104	1.4	1.66677E-001	-8.86999E-005	0.00000E+000	-1.47842E-005	-5.39641E-002	1.66701E-001	3.57290E+000	9	...........
	105	1.41333	1.62305E-001	-8.87926E-005	0.00000E+000	-1.44115E-005	-5.39641E-002	1.62324E-001	3.57290E+000	9	...........
	106	1.42667	1.57940E-001	-8.89187E-005	0.00000E+000	-1.40438E-005	-5.39641E-002	1.57957E-001	3.57290E+000	9	...........
	107	1.44	1.53593E-001	-8.85811E-005	0.00000E+000	-1.36054E-005	-5.39641E-002	1.53609E-001	3.57290E+000	9	...........
	108	1.45333	1.49261E-001	-8.86759E-005	0.00000E+000	-1.32359E-005	-5.39641E-002	1.49272E-001	3.57290E+000	9	...........
	109	1.46667	1.44948E-001	-8.87697E-005	0.00000E+000	-1.28670E-005	-5.39641E-002	1.44964E-001	3.57290E+000	9	...........
	110	1.48	1.40663E-001	-8.89926E-005	0.00000E+000	-1.25180E-005	-5.39641E-002	1.40681E-001	3.57290E+000	9	...........
	111	1.49333	1.36404E-001	-8.85248E-005	0.00000E+000	-1.20752E-005	-5.39641E-002	1.36416E-001	3.57290E+000	9	...........
	112	1.50667	1.32161E-001	-8.87447E-005	0.00000E+000	-1.17286E-005	-5.39641E-002	1.32174E-001	3.57290E+000	9	...........
	113	1.52	1.27932E-001	-8.88259E-005	0.00000E+000	-1.13637E-005	-5.39641E-002	1.27946E-001	3.57290E+000	9	...........
	114	1.53333	1.23715E-001	-8.85405E-005	0.00000E+000	-1.09538E-005	-5.39641E-002	1.23729E-001	3.57290E+000	9	...........
	115	1.54667	1.19528E-001	-8.90030E-005	0.00000E+000	-1.06383E-005	-5.39641E-002	1.19538E-001	3.57290E+000	9	...........
	116	1.56	1.15357E-001	-8.88572E-005	0.00000E+000	-1.02503E-005	-5.39641E-002	1.15364E-001	3.57290E+000	9	...........
	117	1.57333	1.11194E-001	-8.89760E-005	0.00000E+000	-9.89357E-006	-5.39641E-002	1.11199E-001	3.57290E+000	9	...........
	118	1.58667	1.07042E-001	-8.85498E-005	0.00000E+000	-9.47856E-006	-5.39641E-002	1.07050E-001	3.57290E+000	9	...........
	119	1.6	1.02926E-001	-8.85738E-005	0.00000E+000	-9.11653E-006	-5.39641E-002	1.02930E-001	3.57290E+000	9	...........
	120	1.61333	9.88240E-002	-8.88728E-005	0.00000E+000	-8.78277E-006	-5.39641E-002	9.88358E-002	3.57290E+000	9	...........
	121	1.62667	9.47491E-002	-8.85384E-005	0.00000E+000	-8.38893E-006	-5.39641E-002	9.47559E-002	3.57290E+000	9	...........
	122	1.64	9.07018E-002	-8.89739E-005	0.00000E+000	-8.07009E-006	-5.39641E-002	9.07097E-002	3.57290E+000	9	...........
	123	1.65333	8.66516E-002	-8.88624E-005	0.00000E+000	-7.70007E-006	-5.39641E-002	8.66617E-002	3.57290E+000	9	...........
	124	1.66667	8.26255E-002	-8.88395E-005	0.00000E+000	-7.34041E-006	-5.39641E-002	8.26305E-002	3.57290E+000	9	...........
	125	1.68	7.86353E-002	-8.86665E-005	0.00000E+000	-6.97232E-006	-5.39641E-002	7.86331E-002	3.57290E+000	9	...........
	126	1.69333	7.46500E-002	-8.88030E-005	0.00000E+000	-6.62914E-006	-5.39641E-002	7.46499E-002	3.57290E+000	9	...........
	127	1.70667	7.06778E-002	-8.89030E-005	0.00000E+000	-6.28347E-006	-5.39641E-002	7.06797E-002	3.57290E+000	9	...........
	128	1.72	6.67443E-002	-8.88676E-005	0.00000E+000	-5.93141E-006	-5.39641E-002	6.67459E-002	3.57290E+000	9	...........
	129	1.73333	6.28145E-002	-8.88530E-005	0.00000E+000	-5.58126E-006	-5.39641E-002	6.28172E-002	3.57290E+000	9	...........
	130	1.74667	5.89060E-002	-8.90999E-005	0.00000E+000	-5.24852E-006	-5.39641E-002	5.89107E-002	3.57290E+000	9	...........
	131	1.76	5.50099E-002	-8.87207E-005	0.00000E+000	-4.88052E-006	-5.39641E-002	5.50137E-002	3.57290E+000	9	...........
	132	1.77333	5.11309E-002	-8.89530E-005	0.00000E+000	-4.54825E-006	-5.39641E-002	5.11373E-002	3.57290E+000	9	...........
	133	1.78667	4.72791E-002	-8.89905E-005	0.00000E+000	-4.20740E-006	-5.39641E-002	4.72876E-002	3.57290E+000	9	...........
	134	1.8	4.34290E-002	-8.86801E-005	0.00000E+000	-3.85128E-006	-5.39641E-002	4.34367E-002	3.57290E+000	9	...........
	135	1.81333	3.95809E-002	-8.86999E-005	0.00000E+000	-3.51082E-006	-5.39641E-002	3.95850E-002	3.57290E+000	9	...........
	136	1.82667	3.57614E-002	-8.85728E-005	0.00000E+000	-3.16749E-006	-5.39641E-002	3.57664E-002	3.57290E+000	9	...........
	137	1.84	3.19677E-002	-8.87915E-005	0.00000E+000	-2.83846E-006	-5.39641E-002	3.19690E-002	3.57290E+000	9	...........
	138	1.85333	2.82030E-002	-8.89030E-005	0.00000E+000	-2.50734E-006	-5.39641E-002	2.81991E-002	3.57290E+000	9	...........
	139	1.86667	2.44657E-002	-8.91666E-005	0.00000E+000	-2.18152E-006	-5.39641E-002	2.44646E-002	3.57290E+000	9	...........
	140	1.88	2.07462E-002	-8.87957E-005	0.00000E+000	-1.84218E-006	-5.39641E-002	2.07452E-002	3.57290E+000	9	...........
	141	1.89333	1.70416E-002	-8.85936E-005	0.00000E+000	-1.50978E-006	-5.39641E-002	1.70326E-002	3.57290E+000	9	...........
	142	1.90667	1.33381E-002	-8.90989E-005	0.00000E+000	-1.18841E-006	-5.39641E-002	1.33325E-002	3.57290E+000	9	...........
	143	1.92	9.67002E-003	-8.88228E-005	0.00000E+000	-8.58919E-007	-5.39641E-002	9.65987E-003	3.57290E+000	9	...........
	144	1.93333	6.01229E-003	-8.88176E-005	0.00000E+000	-5.33997E-007	-5.39641E-002	6.00386E-003	3.57290E+000	9	...........
	145	1.94667	2.37715E-003	-8.89895E-005	0.00000E+000	-2.11541E-007	-5.39641E-002	2.36338E-003	3.57290E+000	9	...........
	146	1.95	1.06133E-004	-8.87040E-005	0.00000E+000	-9.41439E-009	-5.39641E-002	8.65007E-005	3.57290E+000	9	...........
STARTTIMEOFFSET	QUANT	4020.833	Start Time Offset (s)
