EXPLAIN
TAG	PWR800_DISCHARGE
TITLE	LABEL	PWR Cyclic Charge Discharge (Cell) - Discharge Step	Test &Identifier
DATE	LABEL	10-7-2017	Date
TIME	LABEL	15:50:56	Time
NOTES	NOTES	3	&Notes...
	supercap test cell
	0.9mg
	6M KOH
PSTAT	PSTAT	IFC5000-01520	Potentiostat
CAPACITY	QUANT	1.00000E-003	Capacity (A-hr)
CELLTYPE	SELECTOR	1	&Cell Type
WORKINGCONNECTION	SELECTOR	0	&Working Lead
MAXDISCHARGETIME	VARIABLEANDUNITS	1.00000E+002	s	1.00000E+002	second(s)	Max &Discharge Time
DISCHARGEMODE	MULTIPARAM	0	9.00000E-005	&Discharge Mode	Constant Current	Amp(s)
SAMPLETIME	QUANT	1.00000E-002	Sa&mple Period (s)
DISCHARGESTOPAT1	MULTIPARAM	3	0.00000E+000	Discharge Stop At &1	Voltage < Limit	V
DISCHARGESTOPAT2	MULTIPARAM	0	0.00000E+000	Discharge Stop At &2	None	N/A
AESBHCSELECTOR	TOGGLE	F	Save Both Half Cells
IRCOMP	TOGGLE	F	IR &Measure
EOC	QUANT	0	Open Circuit (V)
SEQUENCER	TOGGLE	TRUE	Run as Sequence
PSTATMODEL	IQUANT	53	Pstat Model
PSTATSECTION	LABEL	IFC5000-01520	Pstat Section
PSTATSERIALNO	LABEL	01520	Pstat Serial Number
CTRLMODE	IQUANT	0	Control Mode
ELECTROMETER	IQUANT	1	RE=0 or CS=1
IESTAB	IQUANT	0	I/E Stability
CASPEED	IQUANT	4	Control Amp Speed
CONVENTION	IQUANT	1	Current Convention
ICHRANGE	IQUANT	2	Ich Range
ICHRANGEMODE	TOGGLE	T	Ich Auto Range
ICHOFFSETENABLE	TOGGLE	F	Ich Offset Enable
ICHOFFSET	QUANT	0	Ich Offset (V)
ICHFILTER	IQUANT	1	Ich Filter
VCHRANGE	IQUANT	2	Vch Range
VCHRANGEMODE	TOGGLE	T	Vch Auto Range
VCHOFFSETENABLE	TOGGLE	F	Vch Offset Enable
VCHOFFSET	QUANT	0	Vch Offset (V)
VCHFILTER	IQUANT	1	Vch Filter
IERANGELOWERLIMIT	IQUANT	9	I/E Range Lower Limit
IERANGEMODE	TOGGLE	F	I/E AutoRange
IERANGE	IQUANT	9	I/E Range
ACHSELECT	IQUANT	1	Ach Select
ACHRANGE	IQUANT	2	Ach Range
ACHOFFSETENABLE	TOGGLE	F	Ach Offset Enable
ACHOFFSET	QUANT	0	Ach Offset (V)
ACHFILTER	IQUANT	1	Ach Filter
CABLEID	IQUANT	14	Cable ID
DCCALDATE	LABEL	5-7-2017	DC Calibration Date
ACCALDATE	LABEL	12/3/2015	AC Calibration Date
FRAMEWORKVERSION	QUANT	7.01	Framework Version
INSTRUMENTVERSION	LABEL	4.00	Instrument Version
CURVE	TABLE	151
	Pt	T	Vf	Im	Vu	Pwr	Sig	Ach	Temp	IERange	Over
	#	s	V	A	V	W	V	V	deg C	#	bits
	0	0.013333	8.09844E-001	-8.88176E-005	0.00000E+000	-7.19284E-005	-5.39641E-002	8.10006E-001	3.57260E+000	9	...........
	1	0.026667	7.96058E-001	-8.85155E-005	0.00000E+000	-7.04634E-005	-5.39641E-002	7.96179E-001	3.57260E+000	9	...........
	2	0.04	7.83136E-001	-8.87228E-005	0.00000E+000	-6.94820E-005	-5.39641E-002	7.83276E-001	3.57260E+000	9	...........
	3	0.053333	7.70958E-001	-8.87884E-005	0.00000E+000	-6.84521E-005	-5.39641E-002	7.71125E-001	3.57260E+000	9	...........
	4	0.066667	7.59393E-001	-8.88489E-005	0.00000E+000	-6.74712E-005	-5.39641E-002	7.59534E-001	3.57260E+000	9	...........
	5	0.08	7.48331E-001	-8.87082E-005	0.00000E+000	-6.63831E-005	-5.39641E-002	7.48489E-001	3.57260E+000	9	...........
	6	0.093333	7.37708E-001	-8.87853E-005	0.00000E+000	-6.54976E-005	-5.39641E-002	7.37856E-001	3.57260E+000	9	...........
	7	0.106667	7.27494E-001	-8.88103E-005	0.00000E+000	-6.46090E-005	-5.39641E-002	7.27623E-001	3.57260E+000	9	...........
	8	0.12	7.17638E-001	-8.86644E-005	0.00000E+000	-6.36290E-005	-5.39641E-002	7.17758E-001	3.57260E+000	9	...........
	9	0.133333	7.08093E-001	-8.87770E-005	0.00000E+000	-6.28624E-005	-5.39641E-002	7.08218E-001	3.57260E+000	9	...........
	10	0.146667	6.98870E-001	-8.86196E-005	0.00000E+000	-6.19336E-005	-5.39641E-002	6.98953E-001	3.57260E+000	9	...........
	11	0.16	6.89854E-001	-8.88666E-005	0.00000E+000	-6.13049E-005	-5.39641E-002	6.89968E-001	3.57260E+000	9	...........
	12	0.173333	6.81137E-001	-8.87999E-005	0.00000E+000	-6.04849E-005	-5.39641E-002	6.81249E-001	3.57260E+000	9	...........
	13	0.186667	6.72640E-001	-8.89228E-005	0.00000E+000	-5.98131E-005	-5.39641E-002	6.72738E-001	3.57260E+000	9	...........
	14	0.2	6.64296E-001	-8.86905E-005	0.00000E+000	-5.89167E-005	-5.39641E-002	6.64433E-001	3.57260E+000	9	...........
	15	0.213333	6.56233E-001	-8.87082E-005	0.00000E+000	-5.82132E-005	-5.39641E-002	6.56323E-001	3.57260E+000	9	...........
	16	0.226667	6.48299E-001	-8.85332E-005	0.00000E+000	-5.73959E-005	-5.39641E-002	6.48396E-001	3.57260E+000	9	...........
	17	0.24	6.40547E-001	-8.87624E-005	0.00000E+000	-5.68565E-005	-5.39641E-002	6.40661E-001	3.57260E+000	9	...........
	18	0.253333	6.32953E-001	-8.88759E-005	0.00000E+000	-5.62543E-005	-5.39641E-002	6.33049E-001	3.57260E+000	9	...........
	19	0.266667	6.25524E-001	-8.87301E-005	0.00000E+000	-5.55028E-005	-5.39641E-002	6.25626E-001	3.57260E+000	9	...........
	20	0.28	6.18235E-001	-8.88707E-005	0.00000E+000	-5.49430E-005	-5.39641E-002	6.18336E-001	3.57260E+000	9	...........
	21	0.293333	6.11045E-001	-8.90166E-005	0.00000E+000	-5.43931E-005	-5.39641E-002	6.11166E-001	3.57260E+000	9	...........
	22	0.306667	6.04018E-001	-8.88624E-005	0.00000E+000	-5.36745E-005	-5.39641E-002	6.04151E-001	3.57260E+000	9	...........
	23	0.32	5.97120E-001	-8.88645E-005	0.00000E+000	-5.30627E-005	-5.39641E-002	5.97258E-001	3.57260E+000	9	...........
	24	0.333333	5.90342E-001	-8.87749E-005	0.00000E+000	-5.24075E-005	-5.39641E-002	5.90478E-001	3.57260E+000	9	...........
	25	0.346667	5.83618E-001	-8.87197E-005	0.00000E+000	-5.17784E-005	-5.39641E-002	5.83756E-001	3.57260E+000	9	...........
	26	0.36	5.77016E-001	-8.89249E-005	0.00000E+000	-5.13111E-005	-5.39641E-002	5.77151E-001	3.57260E+000	9	...........
	27	0.373333	5.70505E-001	-8.85925E-005	0.00000E+000	-5.05425E-005	-5.39641E-002	5.70648E-001	3.57260E+000	9	...........
	28	0.386667	5.64097E-001	-8.85634E-005	0.00000E+000	-4.99584E-005	-5.39641E-002	5.64215E-001	3.57260E+000	9	...........
	29	0.4	5.57746E-001	-8.88968E-005	0.00000E+000	-4.95818E-005	-5.39641E-002	5.57859E-001	3.57260E+000	9	...........
	30	0.413333	5.51528E-001	-8.88864E-005	0.00000E+000	-4.90233E-005	-5.39641E-002	5.51634E-001	3.57260E+000	9	...........
	31	0.426667	5.45375E-001	-8.90687E-005	0.00000E+000	-4.85759E-005	-5.39641E-002	5.45476E-001	3.57260E+000	9	...........
	32	0.44	5.39296E-001	-8.87165E-005	0.00000E+000	-4.78444E-005	-5.39641E-002	5.39400E-001	3.57260E+000	9	...........
	33	0.453333	5.33262E-001	-8.88228E-005	0.00000E+000	-4.73658E-005	-5.39641E-002	5.33360E-001	3.57260E+000	9	...........
	34	0.466667	5.27281E-001	-8.88311E-005	0.00000E+000	-4.68390E-005	-5.39641E-002	5.27401E-001	3.57260E+000	9	...........
	35	0.48	5.21364E-001	-8.88249E-005	0.00000E+000	-4.63101E-005	-5.39641E-002	5.21477E-001	3.57260E+000	9	...........
	36	0.493333	5.15538E-001	-8.90937E-005	0.00000E+000	-4.59312E-005	-5.39641E-002	5.15665E-001	3.57260E+000	9	...........
	37	0.506667	5.09705E-001	-8.87676E-005	0.00000E+000	-4.52453E-005	-5.39641E-002	5.09848E-001	3.57260E+000	9	...........
	38	0.52	5.03969E-001	-8.89207E-005	0.00000E+000	-4.48133E-005	-5.39641E-002	5.04085E-001	3.57260E+000	9	...........
	39	0.533333	4.98284E-001	-8.87165E-005	0.00000E+000	-4.42061E-005	-5.39641E-002	4.98415E-001	3.57260E+000	9	...........
	40	0.546667	4.92689E-001	-8.88218E-005	0.00000E+000	-4.37615E-005	-5.39641E-002	4.92795E-001	3.57260E+000	9	...........
	41	0.56	4.87151E-001	-8.87665E-005	0.00000E+000	-4.32427E-005	-5.39641E-002	4.87223E-001	3.57260E+000	9	...........
	42	0.573333	4.81702E-001	-8.86717E-005	0.00000E+000	-4.27134E-005	-5.39641E-002	4.81771E-001	3.57260E+000	9	...........
	43	0.586667	4.76199E-001	-8.89822E-005	0.00000E+000	-4.23732E-005	-5.39641E-002	4.76257E-001	3.57260E+000	9	...........
	44	0.6	4.70723E-001	-8.88780E-005	0.00000E+000	-4.18370E-005	-5.39641E-002	4.70789E-001	3.57260E+000	9	...........
	45	0.613333	4.65280E-001	-8.90270E-005	0.00000E+000	-4.14225E-005	-5.39641E-002	4.65341E-001	3.57260E+000	9	...........
	46	0.626667	4.59872E-001	-8.90479E-005	0.00000E+000	-4.09506E-005	-5.39641E-002	4.59940E-001	3.57260E+000	9	...........
	47	0.64	4.54505E-001	-8.86092E-005	0.00000E+000	-4.02733E-005	-5.39641E-002	4.54564E-001	3.57260E+000	9	...........
	48	0.653333	4.49173E-001	-8.87697E-005	0.00000E+000	-3.98729E-005	-5.39641E-002	4.49235E-001	3.57260E+000	9	...........
	49	0.666667	4.43867E-001	-8.87749E-005	0.00000E+000	-3.94043E-005	-5.39641E-002	4.43927E-001	3.57260E+000	9	...........
	50	0.68	4.38586E-001	-8.89655E-005	0.00000E+000	-3.90190E-005	-5.39641E-002	4.38644E-001	3.57260E+000	9	...........
	51	0.693333	4.33322E-001	-8.88093E-005	0.00000E+000	-3.84830E-005	-5.39641E-002	4.33375E-001	3.57260E+000	9	...........
	52	0.706667	4.28081E-001	-8.88249E-005	0.00000E+000	-3.80243E-005	-5.39641E-002	4.28141E-001	3.57260E+000	9	...........
	53	0.72	4.22874E-001	-8.88041E-005	0.00000E+000	-3.75530E-005	-5.39641E-002	4.22932E-001	3.57260E+000	9	...........
	54	0.733333	4.17686E-001	-8.87770E-005	0.00000E+000	-3.70809E-005	-5.39641E-002	4.17749E-001	3.57260E+000	9	...........
	55	0.746667	4.12518E-001	-8.88968E-005	0.00000E+000	-3.66715E-005	-5.39641E-002	4.12570E-001	3.57260E+000	9	...........
	56	0.76	4.07375E-001	-8.87259E-005	0.00000E+000	-3.61447E-005	-5.39641E-002	4.07428E-001	3.57260E+000	9	...........
	57	0.773333	4.02252E-001	-8.87478E-005	0.00000E+000	-3.56990E-005	-5.39641E-002	4.02300E-001	3.57260E+000	9	...........
	58	0.786667	3.97137E-001	-8.84581E-005	0.00000E+000	-3.51300E-005	-5.39641E-002	3.97189E-001	3.57260E+000	9	...........
	59	0.8	3.92052E-001	-8.86405E-005	0.00000E+000	-3.47517E-005	-5.39641E-002	3.92097E-001	3.57260E+000	9	...........
	60	0.813333	3.86986E-001	-8.88343E-005	0.00000E+000	-3.43776E-005	-5.39641E-002	3.87034E-001	3.57260E+000	9	...........
	61	0.826667	3.81947E-001	-8.87874E-005	0.00000E+000	-3.39121E-005	-5.39641E-002	3.81993E-001	3.57260E+000	9	...........
	62	0.84	3.76909E-001	-8.87916E-005	0.00000E+000	-3.34663E-005	-5.39641E-002	3.76961E-001	3.57260E+000	9	...........
	63	0.853333	3.71890E-001	-8.88697E-005	0.00000E+000	-3.30497E-005	-5.39641E-002	3.71933E-001	3.57260E+000	9	...........
	64	0.866667	3.66881E-001	-8.88520E-005	0.00000E+000	-3.25981E-005	-5.39641E-002	3.66921E-001	3.57260E+000	9	...........
	65	0.88	3.61870E-001	-8.84821E-005	0.00000E+000	-3.20190E-005	-5.39641E-002	3.61917E-001	3.57260E+000	9	...........
	66	0.893333	3.56879E-001	-8.89739E-005	0.00000E+000	-3.17529E-005	-5.39641E-002	3.56926E-001	3.57260E+000	9	...........
	67	0.906667	3.51918E-001	-8.88884E-005	0.00000E+000	-3.12814E-005	-5.39641E-002	3.51960E-001	3.57260E+000	9	...........
	68	0.92	3.46961E-001	-8.86853E-005	0.00000E+000	-3.07703E-005	-5.39641E-002	3.47003E-001	3.57260E+000	9	...........
	69	0.933333	3.42015E-001	-8.87582E-005	0.00000E+000	-3.03566E-005	-5.39641E-002	3.42053E-001	3.57260E+000	9	...........
	70	0.946667	3.37088E-001	-8.86248E-005	0.00000E+000	-2.98744E-005	-5.39641E-002	3.37126E-001	3.57260E+000	9	...........
	71	0.96	3.32184E-001	-8.88020E-005	0.00000E+000	-2.94986E-005	-5.39641E-002	3.32228E-001	3.57260E+000	9	...........
	72	0.97333	3.27286E-001	-8.86321E-005	0.00000E+000	-2.90081E-005	-5.39641E-002	3.27328E-001	3.57260E+000	9	...........
	73	0.98667	3.22394E-001	-8.89228E-005	0.00000E+000	-2.86682E-005	-5.39641E-002	3.22435E-001	3.57260E+000	9	...........
	74	1	3.17524E-001	-8.86019E-005	0.00000E+000	-2.81332E-005	-5.39641E-002	3.17564E-001	3.57260E+000	9	...........
	75	1.01333	3.12669E-001	-8.86353E-005	0.00000E+000	-2.77135E-005	-5.39641E-002	3.12704E-001	3.57260E+000	9	...........
	76	1.02667	3.07838E-001	-8.87415E-005	0.00000E+000	-2.73180E-005	-5.39641E-002	3.07875E-001	3.57260E+000	9	...........
	77	1.04	3.03014E-001	-8.88311E-005	0.00000E+000	-2.69171E-005	-5.39641E-002	3.03051E-001	3.57260E+000	9	...........
	78	1.05333	2.98200E-001	-8.87072E-005	0.00000E+000	-2.64525E-005	-5.39641E-002	2.98234E-001	3.57260E+000	9	...........
	79	1.06667	2.93393E-001	-8.90833E-005	0.00000E+000	-2.61364E-005	-5.39641E-002	2.93425E-001	3.57260E+000	9	...........
	80	1.08	2.88576E-001	-8.86676E-005	0.00000E+000	-2.55873E-005	-5.39641E-002	2.88621E-001	3.57260E+000	9	...........
	81	1.09333	2.83792E-001	-8.89916E-005	0.00000E+000	-2.52551E-005	-5.39641E-002	2.83824E-001	3.57260E+000	9	...........
	82	1.10667	2.79024E-001	-8.86884E-005	0.00000E+000	-2.47462E-005	-5.39641E-002	2.79058E-001	3.57260E+000	9	...........
	83	1.12	2.74290E-001	-8.87540E-005	0.00000E+000	-2.43443E-005	-5.39641E-002	2.74328E-001	3.57260E+000	9	...........
	84	1.13333	2.69567E-001	-8.89103E-005	0.00000E+000	-2.39673E-005	-5.39641E-002	2.69601E-001	3.57260E+000	9	...........
	85	1.14667	2.64850E-001	-8.88822E-005	0.00000E+000	-2.35405E-005	-5.39641E-002	2.64885E-001	3.57260E+000	9	...........
	86	1.16	2.60151E-001	-8.89187E-005	0.00000E+000	-2.31323E-005	-5.39641E-002	2.60180E-001	3.57260E+000	9	...........
	87	1.17333	2.55465E-001	-8.89520E-005	0.00000E+000	-2.27241E-005	-5.39641E-002	2.55502E-001	3.57260E+000	9	...........
	88	1.18667	2.50799E-001	-8.84706E-005	0.00000E+000	-2.21884E-005	-5.39641E-002	2.50830E-001	3.57260E+000	9	...........
	89	1.2	2.46170E-001	-8.87655E-005	0.00000E+000	-2.18514E-005	-5.39641E-002	2.46202E-001	3.57260E+000	9	...........
	90	1.21333	2.41565E-001	-8.89468E-005	0.00000E+000	-2.14865E-005	-5.39641E-002	2.41590E-001	3.57260E+000	9	...........
	91	1.22667	2.36978E-001	-8.88030E-005	0.00000E+000	-2.10443E-005	-5.39641E-002	2.37003E-001	3.57260E+000	9	...........
	92	1.24	2.32407E-001	-8.91458E-005	0.00000E+000	-2.07181E-005	-5.39641E-002	2.32427E-001	3.57260E+000	9	...........
	93	1.25333	2.27844E-001	-8.86842E-005	0.00000E+000	-2.02062E-005	-5.39641E-002	2.27869E-001	3.57260E+000	9	...........
	94	1.26667	2.23319E-001	-8.89072E-005	0.00000E+000	-1.98546E-005	-5.39641E-002	2.23345E-001	3.57260E+000	9	...........
	95	1.28	2.18812E-001	-8.87947E-005	0.00000E+000	-1.94294E-005	-5.39641E-002	2.18835E-001	3.57260E+000	9	...........
	96	1.29333	2.14294E-001	-8.88593E-005	0.00000E+000	-1.90420E-005	-5.39641E-002	2.14316E-001	3.57260E+000	9	...........
	97	1.30667	2.09785E-001	-8.88207E-005	0.00000E+000	-1.86332E-005	-5.39641E-002	2.09808E-001	3.57260E+000	9	...........
	98	1.32	2.05309E-001	-8.88686E-005	0.00000E+000	-1.82455E-005	-5.39641E-002	2.05328E-001	3.57260E+000	9	...........
	99	1.33333	2.00864E-001	-8.87176E-005	0.00000E+000	-1.78201E-005	-5.39641E-002	2.00886E-001	3.57260E+000	9	...........
	100	1.34667	1.96448E-001	-8.89103E-005	0.00000E+000	-1.74663E-005	-5.39641E-002	1.96471E-001	3.57260E+000	9	...........
	101	1.36	1.92043E-001	-8.87790E-005	0.00000E+000	-1.70494E-005	-5.39641E-002	1.92066E-001	3.57260E+000	9	...........
	102	1.37333	1.87662E-001	-8.89697E-005	0.00000E+000	-1.66962E-005	-5.39641E-002	1.87688E-001	3.57260E+000	9	...........
	103	1.38667	1.83307E-001	-8.91916E-005	0.00000E+000	-1.63495E-005	-5.39641E-002	1.83331E-001	3.57260E+000	9	...........
	104	1.4	1.78973E-001	-8.86248E-005	0.00000E+000	-1.58615E-005	-5.39641E-002	1.78995E-001	3.57260E+000	9	...........
	105	1.41333	1.74647E-001	-8.89624E-005	0.00000E+000	-1.55371E-005	-5.39641E-002	1.74668E-001	3.57260E+000	9	...........
	106	1.42667	1.70338E-001	-8.87926E-005	0.00000E+000	-1.51248E-005	-5.39641E-002	1.70361E-001	3.57260E+000	9	...........
	107	1.44	1.66041E-001	-8.88572E-005	0.00000E+000	-1.47540E-005	-5.39641E-002	1.66063E-001	3.57260E+000	9	...........
	108	1.45333	1.61780E-001	-8.87395E-005	0.00000E+000	-1.43563E-005	-5.39641E-002	1.61793E-001	3.57260E+000	9	...........
	109	1.46667	1.57531E-001	-8.89176E-005	0.00000E+000	-1.40073E-005	-5.39641E-002	1.57548E-001	3.57260E+000	9	...........
	110	1.48	1.53319E-001	-8.90176E-005	0.00000E+000	-1.36481E-005	-5.39641E-002	1.53339E-001	3.57260E+000	9	...........
	111	1.49333	1.49122E-001	-8.87301E-005	0.00000E+000	-1.32316E-005	-5.39641E-002	1.49140E-001	3.57260E+000	9	...........
	112	1.50667	1.44928E-001	-8.86801E-005	0.00000E+000	-1.28522E-005	-5.39641E-002	1.44942E-001	3.57260E+000	9	...........
	113	1.52	1.40756E-001	-8.90114E-005	0.00000E+000	-1.25289E-005	-5.39641E-002	1.40769E-001	3.57260E+000	9	...........
	114	1.53333	1.36600E-001	-8.86780E-005	0.00000E+000	-1.21134E-005	-5.39641E-002	1.36617E-001	3.57260E+000	9	...........
	115	1.54667	1.32468E-001	-8.88655E-005	0.00000E+000	-1.17719E-005	-5.39641E-002	1.32486E-001	3.57260E+000	9	...........
	116	1.56	1.28351E-001	-8.88353E-005	0.00000E+000	-1.14021E-005	-5.39641E-002	1.28368E-001	3.57260E+000	9	...........
	117	1.57333	1.24264E-001	-8.89593E-005	0.00000E+000	-1.10544E-005	-5.39641E-002	1.24275E-001	3.57260E+000	9	...........
	118	1.58667	1.20191E-001	-8.88572E-005	0.00000E+000	-1.06798E-005	-5.39641E-002	1.20208E-001	3.57260E+000	9	...........
	119	1.6	1.16143E-001	-8.87624E-005	0.00000E+000	-1.03091E-005	-5.39641E-002	1.16152E-001	3.57260E+000	9	...........
	120	1.61333	1.12108E-001	-8.87415E-005	0.00000E+000	-9.94865E-006	-5.39641E-002	1.12121E-001	3.57260E+000	9	...........
	121	1.62667	1.08091E-001	-8.87749E-005	0.00000E+000	-9.59576E-006	-5.39641E-002	1.08099E-001	3.57260E+000	9	...........
	122	1.64	1.04091E-001	-8.86832E-005	0.00000E+000	-9.23114E-006	-5.39641E-002	1.04093E-001	3.57260E+000	9	...........
	123	1.65333	1.00105E-001	-8.88332E-005	0.00000E+000	-8.89266E-006	-5.39641E-002	1.00111E-001	3.57260E+000	9	...........
	124	1.66667	9.61237E-002	-8.88936E-005	0.00000E+000	-8.54479E-006	-5.39641E-002	9.61317E-002	3.57260E+000	9	...........
	125	1.68	9.21681E-002	-8.89155E-005	0.00000E+000	-8.19517E-006	-5.39641E-002	9.21727E-002	3.57260E+000	9	...........
	126	1.69333	8.82242E-002	-8.87624E-005	0.00000E+000	-7.83099E-006	-5.39641E-002	8.82265E-002	3.57260E+000	9	...........
	127	1.70667	8.43090E-002	-8.88843E-005	0.00000E+000	-7.49375E-006	-5.39641E-002	8.43126E-002	3.57260E+000	9	...........
	128	1.72	8.04138E-002	-8.88843E-005	0.00000E+000	-7.14752E-006	-5.39641E-002	8.04133E-002	3.57260E+000	9	...........
	129	1.73333	7.65253E-002	-8.87520E-005	0.00000E+000	-6.79177E-006	-5.39641E-002	7.65286E-002	3.57260E+000	9	...........
	130	1.74667	7.26469E-002	-8.87540E-005	0.00000E+000	-6.44771E-006	-5.39641E-002	7.26504E-002	3.57260E+000	9	...........
	131	1.76	6.87842E-002	-8.89385E-005	0.00000E+000	-6.11756E-006	-5.39641E-002	6.87848E-002	3.57260E+000	9	...........
	132	1.77333	6.49498E-002	-8.86926E-005	0.00000E+000	-5.76057E-006	-5.39641E-002	6.49497E-002	3.57260E+000	9	...........
	133	1.78667	6.11405E-002	-8.88832E-005	0.00000E+000	-5.43437E-006	-5.39641E-002	6.11378E-002	3.57260E+000	9	...........
	134	1.8	5.73423E-002	-8.88291E-005	0.00000E+000	-5.09367E-006	-5.39641E-002	5.73444E-002	3.57260E+000	9	...........
	135	1.81333	5.35460E-002	-8.87936E-005	0.00000E+000	-4.75455E-006	-5.39641E-002	5.35445E-002	3.57260E+000	9	...........
	136	1.82667	4.97797E-002	-8.85738E-005	0.00000E+000	-4.40918E-006	-5.39641E-002	4.97752E-002	3.57260E+000	9	...........
	137	1.84	4.60397E-002	-8.89635E-005	0.00000E+000	-4.09585E-006	-5.39641E-002	4.60461E-002	3.57260E+000	9	...........
	138	1.85333	4.22976E-002	-8.87926E-005	0.00000E+000	-3.75571E-006	-5.39641E-002	4.23083E-002	3.57260E+000	9	...........
	139	1.86667	3.85792E-002	-8.89478E-005	0.00000E+000	-3.43153E-006	-5.39641E-002	3.85862E-002	3.57260E+000	9	...........
	140	1.88	3.48798E-002	-8.86759E-005	0.00000E+000	-3.09300E-006	-5.39641E-002	3.48793E-002	3.57260E+000	9	...........
	141	1.89333	3.11956E-002	-8.87603E-005	0.00000E+000	-2.76893E-006	-5.39641E-002	3.11941E-002	3.57260E+000	9	...........
	142	1.90667	2.75349E-002	-8.89926E-005	0.00000E+000	-2.45040E-006	-5.39641E-002	2.75346E-002	3.57260E+000	9	...........
	143	1.92	2.38861E-002	-8.86196E-005	0.00000E+000	-2.11678E-006	-5.39641E-002	2.38882E-002	3.57260E+000	9	...........
	144	1.93333	2.02698E-002	-8.88728E-005	0.00000E+000	-1.80143E-006	-5.39641E-002	2.02621E-002	3.57260E+000	9	...........
	145	1.94667	1.66641E-002	-8.88874E-005	0.00000E+000	-1.48123E-006	-5.39641E-002	1.66623E-002	3.57260E+000	9	...........
	146	1.96	1.30792E-002	-8.88478E-005	0.00000E+000	-1.16205E-006	-5.39641E-002	1.30713E-002	3.57260E+000	9	...........
	147	1.97333	9.49453E-003	-8.89197E-005	0.00000E+000	-8.44251E-007	-5.39641E-002	9.48659E-003	3.57260E+000	9	...........
	148	1.98667	5.93406E-003	-8.88811E-005	0.00000E+000	-5.27426E-007	-5.39641E-002	5.92045E-003	3.57260E+000	9	...........
	149	2	2.40751E-003	-8.88749E-005	0.00000E+000	-2.13967E-007	-5.39641E-002	2.39162E-003	3.57260E+000	9	...........
	150	2.00333	2.09697E-004	-8.90291E-005	0.00000E+000	-1.86691E-008	-5.39641E-002	1.93468E-004	3.57260E+000	9	...........
STARTTIMEOFFSET	QUANT	2610.689	Start Time Offset (s)
