EXPLAIN
TAG	PWR800_DISCHARGE
TITLE	LABEL	PWR Cyclic Charge Discharge (Cell) - Discharge Step	Test &Identifier
DATE	LABEL	10-7-2017	Date
TIME	LABEL	15:17:43	Time
NOTES	NOTES	3	&Notes...
	supercap test cell
	0.9mg
	6M KOH
PSTAT	PSTAT	IFC5000-01520	Potentiostat
CAPACITY	QUANT	1.00000E-003	Capacity (A-hr)
CELLTYPE	SELECTOR	1	&Cell Type
WORKINGCONNECTION	SELECTOR	0	&Working Lead
MAXDISCHARGETIME	VARIABLEANDUNITS	1.00000E+002	s	1.00000E+002	second(s)	Max &Discharge Time
DISCHARGEMODE	MULTIPARAM	0	9.00000E-005	&Discharge Mode	Constant Current	Amp(s)
SAMPLETIME	QUANT	1.00000E-002	Sa&mple Period (s)
DISCHARGESTOPAT1	MULTIPARAM	3	0.00000E+000	Discharge Stop At &1	Voltage < Limit	V
DISCHARGESTOPAT2	MULTIPARAM	0	0.00000E+000	Discharge Stop At &2	None	N/A
AESBHCSELECTOR	TOGGLE	F	Save Both Half Cells
IRCOMP	TOGGLE	F	IR &Measure
EOC	QUANT	0	Open Circuit (V)
SEQUENCER	TOGGLE	TRUE	Run as Sequence
PSTATMODEL	IQUANT	53	Pstat Model
PSTATSECTION	LABEL	IFC5000-01520	Pstat Section
PSTATSERIALNO	LABEL	01520	Pstat Serial Number
CTRLMODE	IQUANT	0	Control Mode
ELECTROMETER	IQUANT	1	RE=0 or CS=1
IESTAB	IQUANT	0	I/E Stability
CASPEED	IQUANT	4	Control Amp Speed
CONVENTION	IQUANT	1	Current Convention
ICHRANGE	IQUANT	2	Ich Range
ICHRANGEMODE	TOGGLE	T	Ich Auto Range
ICHOFFSETENABLE	TOGGLE	F	Ich Offset Enable
ICHOFFSET	QUANT	0	Ich Offset (V)
ICHFILTER	IQUANT	1	Ich Filter
VCHRANGE	IQUANT	2	Vch Range
VCHRANGEMODE	TOGGLE	T	Vch Auto Range
VCHOFFSETENABLE	TOGGLE	F	Vch Offset Enable
VCHOFFSET	QUANT	0	Vch Offset (V)
VCHFILTER	IQUANT	1	Vch Filter
IERANGELOWERLIMIT	IQUANT	9	I/E Range Lower Limit
IERANGEMODE	TOGGLE	F	I/E AutoRange
IERANGE	IQUANT	9	I/E Range
ACHSELECT	IQUANT	1	Ach Select
ACHRANGE	IQUANT	2	Ach Range
ACHOFFSETENABLE	TOGGLE	F	Ach Offset Enable
ACHOFFSET	QUANT	0	Ach Offset (V)
ACHFILTER	IQUANT	1	Ach Filter
CABLEID	IQUANT	14	Cable ID
DCCALDATE	LABEL	5-7-2017	DC Calibration Date
ACCALDATE	LABEL	12/3/2015	AC Calibration Date
FRAMEWORKVERSION	QUANT	7.01	Framework Version
INSTRUMENTVERSION	LABEL	4.00	Instrument Version
CURVE	TABLE	160
	Pt	T	Vf	Im	Vu	Pwr	Sig	Ach	Temp	IERange	Over
	#	s	V	A	V	W	V	V	deg C	#	bits
	0	0.013333	8.25883E-001	-8.87134E-005	0.00000E+000	-7.32669E-005	-5.39641E-002	8.26026E-001	3.57210E+000	9	...........
	1	0.026667	8.13387E-001	-8.86665E-005	0.00000E+000	-7.21202E-005	-5.39641E-002	8.13508E-001	3.57210E+000	9	...........
	2	0.04	8.01656E-001	-8.86332E-005	0.00000E+000	-7.10534E-005	-5.39641E-002	8.01783E-001	3.57210E+000	9	...........
	3	0.053333	7.90511E-001	-8.88426E-005	0.00000E+000	-7.02311E-005	-5.39641E-002	7.90646E-001	3.57210E+000	9	...........
	4	0.066667	7.79862E-001	-8.85665E-005	0.00000E+000	-6.90697E-005	-5.39641E-002	7.79994E-001	3.57210E+000	9	...........
	5	0.08	7.69640E-001	-8.88103E-005	0.00000E+000	-6.83519E-005	-5.39641E-002	7.69772E-001	3.57210E+000	9	...........
	6	0.093333	7.59816E-001	-8.85217E-005	0.00000E+000	-6.72602E-005	-5.39641E-002	7.59917E-001	3.57210E+000	9	...........
	7	0.106667	7.50286E-001	-8.86780E-005	0.00000E+000	-6.65339E-005	-5.39641E-002	7.50413E-001	3.57210E+000	9	...........
	8	0.12	7.41049E-001	-8.85300E-005	0.00000E+000	-6.56051E-005	-5.39641E-002	7.41184E-001	3.57210E+000	9	...........
	9	0.133333	7.32099E-001	-8.88291E-005	0.00000E+000	-6.50317E-005	-5.39641E-002	7.32244E-001	3.57210E+000	9	...........
	10	0.146667	7.23419E-001	-8.83769E-005	0.00000E+000	-6.39335E-005	-5.39641E-002	7.23534E-001	3.57210E+000	9	...........
	11	0.16	7.14894E-001	-8.88509E-005	0.00000E+000	-6.35190E-005	-5.39641E-002	7.15033E-001	3.57210E+000	9	...........
	12	0.173333	7.06616E-001	-8.89322E-005	0.00000E+000	-6.28409E-005	-5.39641E-002	7.06743E-001	3.57210E+000	9	...........
	13	0.186667	6.98531E-001	-8.87374E-005	0.00000E+000	-6.19858E-005	-5.39641E-002	6.98650E-001	3.57210E+000	9	...........
	14	0.2	6.90633E-001	-8.88280E-005	0.00000E+000	-6.13475E-005	-5.39641E-002	6.90762E-001	3.57210E+000	9	...........
	15	0.213333	6.82904E-001	-8.88353E-005	0.00000E+000	-6.06660E-005	-5.39641E-002	6.83020E-001	3.57210E+000	9	...........
	16	0.226667	6.75317E-001	-8.86353E-005	0.00000E+000	-5.98569E-005	-5.39641E-002	6.75433E-001	3.57210E+000	9	...........
	17	0.24	6.67877E-001	-8.85540E-005	0.00000E+000	-5.91432E-005	-5.39641E-002	6.67997E-001	3.57210E+000	9	...........
	18	0.253333	6.60558E-001	-8.85561E-005	0.00000E+000	-5.84964E-005	-5.39641E-002	6.60659E-001	3.57210E+000	9	...........
	19	0.266667	6.53390E-001	-8.87072E-005	0.00000E+000	-5.79604E-005	-5.39641E-002	6.53453E-001	3.57210E+000	9	...........
	20	0.28	6.46333E-001	-8.87019E-005	0.00000E+000	-5.73310E-005	-5.39641E-002	6.46411E-001	3.57210E+000	9	...........
	21	0.293333	6.39403E-001	-8.85498E-005	0.00000E+000	-5.66190E-005	-5.39641E-002	6.39472E-001	3.57210E+000	9	...........
	22	0.306667	6.32590E-001	-8.87582E-005	0.00000E+000	-5.61476E-005	-5.39641E-002	6.32648E-001	3.57210E+000	9	...........
	23	0.32	6.25876E-001	-8.83394E-005	0.00000E+000	-5.52895E-005	-5.39641E-002	6.25923E-001	3.57210E+000	9	...........
	24	0.333333	6.19253E-001	-8.85300E-005	0.00000E+000	-5.48225E-005	-5.39641E-002	6.19298E-001	3.57210E+000	9	...........
	25	0.346667	6.12645E-001	-8.86947E-005	0.00000E+000	-5.43384E-005	-5.39641E-002	6.12750E-001	3.57210E+000	9	...........
	26	0.36	6.06158E-001	-8.84467E-005	0.00000E+000	-5.36127E-005	-5.39641E-002	6.06295E-001	3.57210E+000	9	...........
	27	0.373333	5.99786E-001	-8.84540E-005	0.00000E+000	-5.30534E-005	-5.39641E-002	5.99935E-001	3.57210E+000	9	...........
	28	0.386667	5.93503E-001	-8.87624E-005	0.00000E+000	-5.26808E-005	-5.39641E-002	5.93635E-001	3.57210E+000	9	...........
	29	0.4	5.87265E-001	-8.85592E-005	0.00000E+000	-5.20077E-005	-5.39641E-002	5.87390E-001	3.57210E+000	9	...........
	30	0.413333	5.81092E-001	-8.88530E-005	0.00000E+000	-5.16318E-005	-5.39641E-002	5.81215E-001	3.57210E+000	9	...........
	31	0.426667	5.75001E-001	-8.89270E-005	0.00000E+000	-5.11331E-005	-5.39641E-002	5.75118E-001	3.57210E+000	9	...........
	32	0.44	5.69009E-001	-8.87217E-005	0.00000E+000	-5.04835E-005	-5.39641E-002	5.69103E-001	3.57210E+000	9	...........
	33	0.453333	5.63021E-001	-8.87738E-005	0.00000E+000	-4.99815E-005	-5.39641E-002	5.63128E-001	3.57210E+000	9	...........
	34	0.466667	5.57050E-001	-8.87613E-005	0.00000E+000	-4.94445E-005	-5.39641E-002	5.57159E-001	3.57210E+000	9	...........
	35	0.48	5.51184E-001	-8.86988E-005	0.00000E+000	-4.88894E-005	-5.39641E-002	5.51277E-001	3.57210E+000	9	...........
	36	0.493333	5.45373E-001	-8.88926E-005	0.00000E+000	-4.84796E-005	-5.39641E-002	5.45462E-001	3.57210E+000	9	...........
	37	0.506667	5.39615E-001	-8.89447E-005	0.00000E+000	-4.79959E-005	-5.39641E-002	5.39692E-001	3.57210E+000	9	...........
	38	0.52	5.33826E-001	-8.87301E-005	0.00000E+000	-4.73664E-005	-5.39641E-002	5.33929E-001	3.57210E+000	9	...........
	39	0.533333	5.28167E-001	-8.89635E-005	0.00000E+000	-4.69875E-005	-5.39641E-002	5.28264E-001	3.57210E+000	9	...........
	40	0.546667	5.22528E-001	-8.85113E-005	0.00000E+000	-4.62497E-005	-5.39641E-002	5.22589E-001	3.57210E+000	9	...........
	41	0.56	5.16932E-001	-8.87436E-005	0.00000E+000	-4.58745E-005	-5.39641E-002	5.16990E-001	3.57210E+000	9	...........
	42	0.573333	5.11297E-001	-8.86405E-005	0.00000E+000	-4.53216E-005	-5.39641E-002	5.11396E-001	3.57210E+000	9	...........
	43	0.586667	5.05731E-001	-8.86530E-005	0.00000E+000	-4.48345E-005	-5.39641E-002	5.05845E-001	3.57210E+000	9	...........
	44	0.6	5.00231E-001	-8.88041E-005	0.00000E+000	-4.44226E-005	-5.39641E-002	5.00351E-001	3.57210E+000	9	...........
	45	0.613333	4.94783E-001	-8.89843E-005	0.00000E+000	-4.40279E-005	-5.39641E-002	4.94874E-001	3.57210E+000	9	...........
	46	0.626667	4.89339E-001	-8.86988E-005	0.00000E+000	-4.34038E-005	-5.39641E-002	4.89438E-001	3.57210E+000	9	...........
	47	0.64	4.83949E-001	-8.87759E-005	0.00000E+000	-4.29630E-005	-5.39641E-002	4.84036E-001	3.57210E+000	9	...........
	48	0.653333	4.78578E-001	-8.87103E-005	0.00000E+000	-4.24548E-005	-5.39641E-002	4.78640E-001	3.57210E+000	9	...........
	49	0.666667	4.73220E-001	-8.88238E-005	0.00000E+000	-4.20332E-005	-5.39641E-002	4.73276E-001	3.57210E+000	9	...........
	50	0.68	4.67881E-001	-8.87968E-005	0.00000E+000	-4.15463E-005	-5.39641E-002	4.67942E-001	3.57210E+000	9	...........
	51	0.693333	4.62570E-001	-8.87207E-005	0.00000E+000	-4.10395E-005	-5.39641E-002	4.62626E-001	3.57210E+000	9	...........
	52	0.706667	4.57264E-001	-8.88166E-005	0.00000E+000	-4.06126E-005	-5.39641E-002	4.57321E-001	3.57210E+000	9	...........
	53	0.72	4.51989E-001	-8.86624E-005	0.00000E+000	-4.00744E-005	-5.39641E-002	4.52044E-001	3.57210E+000	9	...........
	54	0.733333	4.46718E-001	-8.86082E-005	0.00000E+000	-3.95829E-005	-5.39641E-002	4.46777E-001	3.57210E+000	9	...........
	55	0.746667	4.41484E-001	-8.86509E-005	0.00000E+000	-3.91379E-005	-5.39641E-002	4.41538E-001	3.57210E+000	9	...........
	56	0.76	4.36288E-001	-8.88916E-005	0.00000E+000	-3.87823E-005	-5.39641E-002	4.36346E-001	3.57210E+000	9	...........
	57	0.773333	4.31121E-001	-8.87322E-005	0.00000E+000	-3.82543E-005	-5.39641E-002	4.31171E-001	3.57210E+000	9	...........
	58	0.786667	4.25974E-001	-8.88759E-005	0.00000E+000	-3.78588E-005	-5.39641E-002	4.26026E-001	3.57210E+000	9	...........
	59	0.8	4.20853E-001	-8.85884E-005	0.00000E+000	-3.72827E-005	-5.39641E-002	4.20911E-001	3.57210E+000	9	...........
	60	0.813333	4.15751E-001	-8.87426E-005	0.00000E+000	-3.68948E-005	-5.39641E-002	4.15799E-001	3.57210E+000	9	...........
	61	0.826667	4.10654E-001	-8.87426E-005	0.00000E+000	-3.64425E-005	-5.39641E-002	4.10703E-001	3.57210E+000	9	...........
	62	0.84	4.05576E-001	-8.86134E-005	0.00000E+000	-3.59395E-005	-5.39641E-002	4.05624E-001	3.57210E+000	9	...........
	63	0.853333	4.00519E-001	-8.88384E-005	0.00000E+000	-3.55815E-005	-5.39641E-002	4.00562E-001	3.57210E+000	9	...........
	64	0.866667	3.95468E-001	-8.86353E-005	0.00000E+000	-3.50524E-005	-5.39641E-002	3.95507E-001	3.57210E+000	9	...........
	65	0.88	3.90421E-001	-8.87895E-005	0.00000E+000	-3.46653E-005	-5.39641E-002	3.90468E-001	3.57210E+000	9	...........
	66	0.893333	3.85421E-001	-8.83519E-005	0.00000E+000	-3.40527E-005	-5.39641E-002	3.85461E-001	3.57210E+000	9	...........
	67	0.906667	3.80446E-001	-8.87978E-005	0.00000E+000	-3.37828E-005	-5.39641E-002	3.80478E-001	3.57210E+000	9	...........
	68	0.92	3.75487E-001	-8.86415E-005	0.00000E+000	-3.32838E-005	-5.39641E-002	3.75524E-001	3.57210E+000	9	...........
	69	0.933333	3.70537E-001	-8.85853E-005	0.00000E+000	-3.28241E-005	-5.39641E-002	3.70575E-001	3.57327E+000	9	...........
	70	0.946667	3.65595E-001	-8.85800E-005	0.00000E+000	-3.23844E-005	-5.39641E-002	3.65633E-001	3.57340E+000	9	...........
	71	0.96	3.60668E-001	-8.87540E-005	0.00000E+000	-3.20107E-005	-5.39641E-002	3.60708E-001	3.57340E+000	9	...........
	72	0.97333	3.55762E-001	-8.86259E-005	0.00000E+000	-3.15297E-005	-5.39641E-002	3.55799E-001	3.57340E+000	9	...........
	73	0.98667	3.50881E-001	-8.88770E-005	0.00000E+000	-3.11852E-005	-5.39641E-002	3.50922E-001	3.57340E+000	9	...........
	74	1	3.46013E-001	-8.88895E-005	0.00000E+000	-3.07569E-005	-5.39641E-002	3.46051E-001	3.57340E+000	9	...........
	75	1.01333	3.41168E-001	-8.87019E-005	0.00000E+000	-3.02623E-005	-5.39641E-002	3.41205E-001	3.57340E+000	9	...........
	76	1.02667	3.36333E-001	-8.88030E-005	0.00000E+000	-2.98674E-005	-5.39641E-002	3.36370E-001	3.57340E+000	9	...........
	77	1.04	3.31527E-001	-8.86009E-005	0.00000E+000	-2.93736E-005	-5.39641E-002	3.31564E-001	3.57340E+000	9	...........
	78	1.05333	3.26755E-001	-8.85363E-005	0.00000E+000	-2.89296E-005	-5.39641E-002	3.26792E-001	3.57340E+000	9	...........
	79	1.06667	3.21993E-001	-8.86665E-005	0.00000E+000	-2.85500E-005	-5.39641E-002	3.22030E-001	3.57340E+000	9	...........
	80	1.08	3.17236E-001	-8.88603E-005	0.00000E+000	-2.81897E-005	-5.39641E-002	3.17272E-001	3.57340E+000	9	...........
	81	1.09333	3.12504E-001	-8.86801E-005	0.00000E+000	-2.77129E-005	-5.39641E-002	3.12538E-001	3.57340E+000	9	...........
	82	1.10667	3.07790E-001	-8.87228E-005	0.00000E+000	-2.73080E-005	-5.39641E-002	3.07824E-001	3.57340E+000	9	...........
	83	1.12	3.03102E-001	-8.88426E-005	0.00000E+000	-2.69284E-005	-5.39641E-002	3.03139E-001	3.57340E+000	9	...........
	84	1.13333	2.98437E-001	-8.87217E-005	0.00000E+000	-2.64778E-005	-5.39641E-002	2.98471E-001	3.57340E+000	9	...........
	85	1.14667	2.93783E-001	-8.87332E-005	0.00000E+000	-2.60683E-005	-5.39641E-002	2.93822E-001	3.57340E+000	9	...........
	86	1.16	2.89149E-001	-8.89009E-005	0.00000E+000	-2.57057E-005	-5.39641E-002	2.89180E-001	3.57340E+000	9	...........
	87	1.17333	2.84549E-001	-8.86071E-005	0.00000E+000	-2.52131E-005	-5.39641E-002	2.84583E-001	3.57340E+000	9	...........
	88	1.18667	2.79981E-001	-8.85050E-005	0.00000E+000	-2.47798E-005	-5.39641E-002	2.80014E-001	3.57340E+000	9	...........
	89	1.2	2.75429E-001	-8.88624E-005	0.00000E+000	-2.44753E-005	-5.39641E-002	2.75464E-001	3.57340E+000	9	...........
	90	1.21333	2.70895E-001	-8.89843E-005	0.00000E+000	-2.41054E-005	-5.39641E-002	2.70928E-001	3.57340E+000	9	...........
	91	1.22667	2.66360E-001	-8.86478E-005	0.00000E+000	-2.36122E-005	-5.39641E-002	2.66398E-001	3.57340E+000	9	...........
	92	1.24	2.61847E-001	-8.85884E-005	0.00000E+000	-2.31966E-005	-5.39641E-002	2.61880E-001	3.57340E+000	9	...........
	93	1.25333	2.57352E-001	-8.87217E-005	0.00000E+000	-2.28327E-005	-5.39641E-002	2.57385E-001	3.57340E+000	9	...........
	94	1.26667	2.52872E-001	-8.87436E-005	0.00000E+000	-2.24408E-005	-5.39641E-002	2.52901E-001	3.57340E+000	9	...........
	95	1.28	2.48424E-001	-8.86686E-005	0.00000E+000	-2.20274E-005	-5.39641E-002	2.48452E-001	3.57340E+000	9	...........
	96	1.29333	2.44003E-001	-8.86478E-005	0.00000E+000	-2.16303E-005	-5.39641E-002	2.44023E-001	3.57340E+000	9	...........
	97	1.30667	2.39595E-001	-8.86342E-005	0.00000E+000	-2.12363E-005	-5.39641E-002	2.39618E-001	3.57340E+000	9	...........
	98	1.32	2.35223E-001	-8.84706E-005	0.00000E+000	-2.08104E-005	-5.39641E-002	2.35247E-001	3.57340E+000	9	...........
	99	1.33333	2.30873E-001	-8.88759E-005	0.00000E+000	-2.05190E-005	-5.39641E-002	2.30893E-001	3.57340E+000	9	...........
	100	1.34667	2.26533E-001	-8.86801E-005	0.00000E+000	-2.00890E-005	-5.39641E-002	2.26549E-001	3.57340E+000	9	...........
	101	1.36	2.22197E-001	-8.86082E-005	0.00000E+000	-1.96885E-005	-5.39641E-002	2.22222E-001	3.57340E+000	9	...........
	102	1.37333	2.17884E-001	-8.87009E-005	0.00000E+000	-1.93265E-005	-5.39641E-002	2.17905E-001	3.57340E+000	9	...........
	103	1.38667	2.13607E-001	-8.86822E-005	0.00000E+000	-1.89431E-005	-5.39641E-002	2.13633E-001	3.57340E+000	9	...........
	104	1.4	2.09344E-001	-8.89051E-005	0.00000E+000	-1.86117E-005	-5.39641E-002	2.09363E-001	3.57340E+000	9	...........
	105	1.41333	2.05118E-001	-8.89020E-005	0.00000E+000	-1.82354E-005	-5.39641E-002	2.05141E-001	3.57340E+000	9	...........
	106	1.42667	2.00901E-001	-8.87936E-005	0.00000E+000	-1.78387E-005	-5.39641E-002	2.00923E-001	3.57340E+000	9	...........
	107	1.44	1.96707E-001	-8.88811E-005	0.00000E+000	-1.74835E-005	-5.39641E-002	1.96727E-001	3.57340E+000	9	...........
	108	1.45333	1.92549E-001	-8.88197E-005	0.00000E+000	-1.71021E-005	-5.39641E-002	1.92566E-001	3.57340E+000	9	...........
	109	1.46667	1.88391E-001	-8.87759E-005	0.00000E+000	-1.67246E-005	-5.39641E-002	1.88404E-001	3.57340E+000	9	...........
	110	1.48	1.84245E-001	-8.88853E-005	0.00000E+000	-1.63767E-005	-5.39641E-002	1.84262E-001	3.57340E+000	9	...........
	111	1.49333	1.80119E-001	-8.88853E-005	0.00000E+000	-1.60100E-005	-5.39641E-002	1.80141E-001	3.57340E+000	9	...........
	112	1.50667	1.76014E-001	-8.86717E-005	0.00000E+000	-1.56074E-005	-5.39641E-002	1.76029E-001	3.57340E+000	9	...........
	113	1.52	1.71923E-001	-8.86926E-005	0.00000E+000	-1.52483E-005	-5.39641E-002	1.71939E-001	3.57340E+000	9	...........
	114	1.53333	1.67852E-001	-8.86446E-005	0.00000E+000	-1.48792E-005	-5.39641E-002	1.67866E-001	3.57340E+000	9	...........
	115	1.54667	1.63805E-001	-8.86947E-005	0.00000E+000	-1.45287E-005	-5.39641E-002	1.63821E-001	3.57340E+000	9	...........
	116	1.56	1.59767E-001	-8.85102E-005	0.00000E+000	-1.41411E-005	-5.39641E-002	1.59782E-001	3.57340E+000	9	...........
	117	1.57333	1.55755E-001	-8.85842E-005	0.00000E+000	-1.37974E-005	-5.39641E-002	1.55771E-001	3.57340E+000	9	...........
	118	1.58667	1.51753E-001	-8.88145E-005	0.00000E+000	-1.34779E-005	-5.39641E-002	1.51762E-001	3.57340E+000	9	...........
	119	1.6	1.47768E-001	-8.87092E-005	0.00000E+000	-1.31084E-005	-5.39641E-002	1.47776E-001	3.57340E+000	9	...........
	120	1.61333	1.43795E-001	-8.87040E-005	0.00000E+000	-1.27552E-005	-5.39641E-002	1.43809E-001	3.57340E+000	9	...........
	121	1.62667	1.39838E-001	-8.84238E-005	0.00000E+000	-1.23650E-005	-5.39641E-002	1.39846E-001	3.57340E+000	9	...........
	122	1.64	1.35887E-001	-8.84998E-005	0.00000E+000	-1.20260E-005	-5.39641E-002	1.35895E-001	3.57340E+000	9	...........
	123	1.65333	1.31956E-001	-8.87999E-005	0.00000E+000	-1.17177E-005	-5.39641E-002	1.31965E-001	3.57340E+000	9	...........
	124	1.66667	1.28032E-001	-8.87509E-005	0.00000E+000	-1.13630E-005	-5.39641E-002	1.28042E-001	3.57340E+000	9	...........
	125	1.68	1.24135E-001	-8.89489E-005	0.00000E+000	-1.10416E-005	-5.39641E-002	1.24146E-001	3.57340E+000	9	...........
	126	1.69333	1.20255E-001	-8.87103E-005	0.00000E+000	-1.06678E-005	-5.39641E-002	1.20266E-001	3.57340E+000	9	...........
	127	1.70667	1.16408E-001	-8.87197E-005	0.00000E+000	-1.03276E-005	-5.39641E-002	1.16420E-001	3.57340E+000	9	...........
	128	1.72	1.12550E-001	-8.87561E-005	0.00000E+000	-9.98948E-006	-5.39641E-002	1.12563E-001	3.57340E+000	9	...........
	129	1.73333	1.08715E-001	-8.87311E-005	0.00000E+000	-9.64641E-006	-5.39641E-002	1.08723E-001	3.57340E+000	9	...........
	130	1.74667	1.04912E-001	-8.89374E-005	0.00000E+000	-9.33063E-006	-5.39641E-002	1.04921E-001	3.57340E+000	9	...........
	131	1.76	1.01110E-001	-8.86884E-005	0.00000E+000	-8.96733E-006	-5.39641E-002	1.01121E-001	3.57340E+000	9	...........
	132	1.77333	9.73440E-002	-8.87540E-005	0.00000E+000	-8.63968E-006	-5.39641E-002	9.73550E-002	3.57340E+000	9	...........
	133	1.78667	9.36049E-002	-8.85405E-005	0.00000E+000	-8.28782E-006	-5.39641E-002	9.36111E-002	3.57340E+000	9	...........
	134	1.8	8.98654E-002	-8.88093E-005	0.00000E+000	-7.98088E-006	-5.39641E-002	8.98715E-002	3.57340E+000	9	...........
	135	1.81333	8.61389E-002	-8.85592E-005	0.00000E+000	-7.62839E-006	-5.39641E-002	8.61431E-002	3.57340E+000	9	...........
	136	1.82667	8.24343E-002	-8.88655E-005	0.00000E+000	-7.32556E-006	-5.39641E-002	8.24377E-002	3.57340E+000	9	...........
	137	1.84	7.87398E-002	-8.88395E-005	0.00000E+000	-6.99520E-006	-5.39641E-002	7.87431E-002	3.57340E+000	9	...........
	138	1.85333	7.50604E-002	-8.86384E-005	0.00000E+000	-6.65323E-006	-5.39641E-002	7.50618E-002	3.57340E+000	9	...........
	139	1.86667	7.14022E-002	-8.87655E-005	0.00000E+000	-6.33805E-006	-5.39641E-002	7.13985E-002	3.57340E+000	9	...........
	140	1.88	6.77714E-002	-8.87707E-005	0.00000E+000	-6.01611E-006	-5.39641E-002	6.77678E-002	3.57340E+000	9	...........
	141	1.89333	6.41355E-002	-8.88197E-005	0.00000E+000	-5.69650E-006	-5.39641E-002	6.41371E-002	3.57340E+000	9	...........
	142	1.90667	6.05106E-002	-8.87405E-005	0.00000E+000	-5.36974E-006	-5.39641E-002	6.05097E-002	3.57340E+000	9	...........
	143	1.92	5.69127E-002	-8.86905E-005	0.00000E+000	-5.04761E-006	-5.39641E-002	5.69068E-002	3.57340E+000	9	...........
	144	1.93333	5.33309E-002	-8.85613E-005	0.00000E+000	-4.72305E-006	-5.39641E-002	5.33312E-002	3.57277E+000	9	...........
	145	1.94667	4.97724E-002	-8.84008E-005	0.00000E+000	-4.39992E-006	-5.39641E-002	4.97681E-002	3.57270E+000	9	...........
	146	1.96	4.62500E-002	-8.86790E-005	0.00000E+000	-4.10140E-006	-5.39641E-002	4.62548E-002	3.57270E+000	9	...........
	147	1.97333	4.26992E-002	-8.87655E-005	0.00000E+000	-3.79021E-006	-5.39641E-002	4.27034E-002	3.57270E+000	9	...........
	148	1.98667	3.91547E-002	-8.85832E-005	0.00000E+000	-3.46845E-006	-5.39641E-002	3.91605E-002	3.57270E+000	9	...........
	149	2	3.56258E-002	-8.88822E-005	0.00000E+000	-3.16649E-006	-5.39641E-002	3.56284E-002	3.57270E+000	9	...........
	150	2.01333	3.21011E-002	-8.87718E-005	0.00000E+000	-2.84967E-006	-5.39641E-002	3.21036E-002	3.57270E+000	9	...........
	151	2.02667	2.86049E-002	-8.86655E-005	0.00000E+000	-2.53627E-006	-5.39641E-002	2.86046E-002	3.57270E+000	9	...........
	152	2.04	2.51224E-002	-8.87197E-005	0.00000E+000	-2.22885E-006	-5.39641E-002	2.51215E-002	3.57270E+000	9	...........
	153	2.05333	2.16824E-002	-8.88176E-005	0.00000E+000	-1.92578E-006	-5.39641E-002	2.16798E-002	3.57270E+000	9	...........
	154	2.06667	1.82298E-002	-8.87134E-005	0.00000E+000	-1.61722E-006	-5.39641E-002	1.82256E-002	3.57270E+000	9	...........
	155	2.08	1.47991E-002	-8.86874E-005	0.00000E+000	-1.31249E-006	-5.39641E-002	1.47944E-002	3.57270E+000	9	...........
	156	2.09333	1.13855E-002	-8.88520E-005	0.00000E+000	-1.01162E-006	-5.39641E-002	1.13796E-002	3.57270E+000	9	...........
	157	2.10667	7.99572E-003	-8.87853E-005	0.00000E+000	-7.09902E-007	-5.39641E-002	7.98687E-003	3.57270E+000	9	...........
	158	2.12	4.60329E-003	-8.85300E-005	0.00000E+000	-4.07529E-007	-5.39641E-002	4.59099E-003	3.57270E+000	9	...........
	159	2.13333	1.23361E-003	-8.87207E-005	0.00000E+000	-1.09447E-007	-5.39641E-002	1.22198E-003	3.57270E+000	9	...........
STARTTIMEOFFSET	QUANT	937.6862	Start Time Offset (s)
