EXPLAIN
TAG	PWR800_DISCHARGE
TITLE	LABEL	PWR Cyclic Charge Discharge (Cell) - Discharge Step	Test &Identifier
DATE	LABEL	10-7-2017	Date
TIME	LABEL	16:12:26	Time
NOTES	NOTES	3	&Notes...
	supercap test cell
	0.9mg
	6M KOH
PSTAT	PSTAT	IFC5000-01520	Potentiostat
CAPACITY	QUANT	1.00000E-003	Capacity (A-hr)
CELLTYPE	SELECTOR	1	&Cell Type
WORKINGCONNECTION	SELECTOR	0	&Working Lead
MAXDISCHARGETIME	VARIABLEANDUNITS	1.00000E+002	s	1.00000E+002	second(s)	Max &Discharge Time
DISCHARGEMODE	MULTIPARAM	0	9.00000E-005	&Discharge Mode	Constant Current	Amp(s)
SAMPLETIME	QUANT	1.00000E-002	Sa&mple Period (s)
DISCHARGESTOPAT1	MULTIPARAM	3	0.00000E+000	Discharge Stop At &1	Voltage < Limit	V
DISCHARGESTOPAT2	MULTIPARAM	0	0.00000E+000	Discharge Stop At &2	None	N/A
AESBHCSELECTOR	TOGGLE	F	Save Both Half Cells
IRCOMP	TOGGLE	F	IR &Measure
EOC	QUANT	0	Open Circuit (V)
SEQUENCER	TOGGLE	TRUE	Run as Sequence
PSTATMODEL	IQUANT	53	Pstat Model
PSTATSECTION	LABEL	IFC5000-01520	Pstat Section
PSTATSERIALNO	LABEL	01520	Pstat Serial Number
CTRLMODE	IQUANT	0	Control Mode
ELECTROMETER	IQUANT	1	RE=0 or CS=1
IESTAB	IQUANT	0	I/E Stability
CASPEED	IQUANT	4	Control Amp Speed
CONVENTION	IQUANT	1	Current Convention
ICHRANGE	IQUANT	2	Ich Range
ICHRANGEMODE	TOGGLE	T	Ich Auto Range
ICHOFFSETENABLE	TOGGLE	F	Ich Offset Enable
ICHOFFSET	QUANT	0	Ich Offset (V)
ICHFILTER	IQUANT	1	Ich Filter
VCHRANGE	IQUANT	2	Vch Range
VCHRANGEMODE	TOGGLE	T	Vch Auto Range
VCHOFFSETENABLE	TOGGLE	F	Vch Offset Enable
VCHOFFSET	QUANT	0	Vch Offset (V)
VCHFILTER	IQUANT	1	Vch Filter
IERANGELOWERLIMIT	IQUANT	9	I/E Range Lower Limit
IERANGEMODE	TOGGLE	F	I/E AutoRange
IERANGE	IQUANT	9	I/E Range
ACHSELECT	IQUANT	1	Ach Select
ACHRANGE	IQUANT	2	Ach Range
ACHOFFSETENABLE	TOGGLE	F	Ach Offset Enable
ACHOFFSET	QUANT	0	Ach Offset (V)
ACHFILTER	IQUANT	1	Ach Filter
CABLEID	IQUANT	14	Cable ID
DCCALDATE	LABEL	5-7-2017	DC Calibration Date
ACCALDATE	LABEL	12/3/2015	AC Calibration Date
FRAMEWORKVERSION	QUANT	7.01	Framework Version
INSTRUMENTVERSION	LABEL	4.00	Instrument Version
CURVE	TABLE	147
	Pt	T	Vf	Im	Vu	Pwr	Sig	Ach	Temp	IERange	Over
	#	s	V	A	V	W	V	V	deg C	#	bits
	0	0.013333	7.95183E-001	-8.83977E-005	0.00000E+000	-7.02923E-005	-5.39641E-002	7.95306E-001	3.57291E+000	9	...........
	1	0.026667	7.81126E-001	-8.86165E-005	0.00000E+000	-6.92207E-005	-5.39641E-002	7.81262E-001	3.57310E+000	9	...........
	2	0.04	7.68047E-001	-8.88843E-005	0.00000E+000	-6.82673E-005	-5.39641E-002	7.68176E-001	3.57310E+000	9	...........
	3	0.053333	7.55752E-001	-8.88864E-005	0.00000E+000	-6.71760E-005	-5.39641E-002	7.55872E-001	3.57310E+000	9	...........
	4	0.066667	7.44058E-001	-8.88020E-005	0.00000E+000	-6.60738E-005	-5.39641E-002	7.44183E-001	3.57310E+000	9	...........
	5	0.08	7.32890E-001	-8.85957E-005	0.00000E+000	-6.49309E-005	-5.39641E-002	7.33021E-001	3.57310E+000	9	...........
	6	0.093333	7.22195E-001	-8.88728E-005	0.00000E+000	-6.41835E-005	-5.39641E-002	7.22319E-001	3.57310E+000	9	...........
	7	0.106667	7.11893E-001	-8.87384E-005	0.00000E+000	-6.31723E-005	-5.39641E-002	7.12026E-001	3.57310E+000	9	...........
	8	0.12	7.01981E-001	-8.87717E-005	0.00000E+000	-6.23161E-005	-5.39641E-002	7.02097E-001	3.57310E+000	9	...........
	9	0.133333	6.92401E-001	-8.86394E-005	0.00000E+000	-6.13740E-005	-5.39641E-002	6.92507E-001	3.57310E+000	9	...........
	10	0.146667	6.83121E-001	-8.87467E-005	0.00000E+000	-6.06248E-005	-5.39641E-002	6.83237E-001	3.57310E+000	9	...........
	11	0.16	6.74106E-001	-8.87488E-005	0.00000E+000	-5.98261E-005	-5.39641E-002	6.74225E-001	3.57310E+000	9	...........
	12	0.173333	6.65327E-001	-8.88030E-005	0.00000E+000	-5.90831E-005	-5.39641E-002	6.65450E-001	3.57310E+000	9	...........
	13	0.186667	6.56778E-001	-8.88853E-005	0.00000E+000	-5.83779E-005	-5.39641E-002	6.56889E-001	3.57310E+000	9	...........
	14	0.2	6.48475E-001	-8.85894E-005	0.00000E+000	-5.74480E-005	-5.39641E-002	6.48571E-001	3.57310E+000	9	...........
	15	0.213333	6.40347E-001	-8.89864E-005	0.00000E+000	-5.69821E-005	-5.39641E-002	6.40441E-001	3.57310E+000	9	...........
	16	0.226667	6.32403E-001	-8.88499E-005	0.00000E+000	-5.61889E-005	-5.39641E-002	6.32514E-001	3.57310E+000	9	...........
	17	0.24	6.24665E-001	-8.88759E-005	0.00000E+000	-5.55177E-005	-5.39641E-002	6.24763E-001	3.57310E+000	9	...........
	18	0.253333	6.17098E-001	-8.91479E-005	0.00000E+000	-5.50130E-005	-5.39641E-002	6.17209E-001	3.57310E+000	9	...........
	19	0.266667	6.09570E-001	-8.89062E-005	0.00000E+000	-5.41946E-005	-5.39641E-002	6.09704E-001	3.57310E+000	9	...........
	20	0.28	6.02290E-001	-8.88614E-005	0.00000E+000	-5.35203E-005	-5.39641E-002	6.02413E-001	3.57310E+000	9	...........
	21	0.293333	5.95135E-001	-8.88363E-005	0.00000E+000	-5.28696E-005	-5.39641E-002	5.95263E-001	3.57310E+000	9	...........
	22	0.306667	5.88093E-001	-8.88697E-005	0.00000E+000	-5.22636E-005	-5.39641E-002	5.88220E-001	3.57310E+000	9	...........
	23	0.32	5.81175E-001	-8.87353E-005	0.00000E+000	-5.15707E-005	-5.39641E-002	5.81335E-001	3.57310E+000	9	...........
	24	0.333333	5.74397E-001	-8.88364E-005	0.00000E+000	-5.10274E-005	-5.39641E-002	5.74531E-001	3.57310E+000	9	...........
	25	0.346667	5.67743E-001	-8.87478E-005	0.00000E+000	-5.03859E-005	-5.39641E-002	5.67850E-001	3.57310E+000	9	...........
	26	0.36	5.61101E-001	-8.90729E-005	0.00000E+000	-4.99789E-005	-5.39641E-002	5.61206E-001	3.57310E+000	9	...........
	27	0.373333	5.54641E-001	-8.88332E-005	0.00000E+000	-4.92706E-005	-5.39641E-002	5.54730E-001	3.57310E+000	9	...........
	28	0.386667	5.48269E-001	-8.87499E-005	0.00000E+000	-4.86588E-005	-5.39641E-002	5.48367E-001	3.57310E+000	9	...........
	29	0.4	5.42008E-001	-8.86926E-005	0.00000E+000	-4.80721E-005	-5.39641E-002	5.42095E-001	3.57310E+000	9	...........
	30	0.413333	5.35774E-001	-8.87717E-005	0.00000E+000	-4.75616E-005	-5.39641E-002	5.35862E-001	3.57310E+000	9	...........
	31	0.426667	5.29636E-001	-8.88124E-005	0.00000E+000	-4.70382E-005	-5.39641E-002	5.29755E-001	3.57310E+000	9	...........
	32	0.44	5.23609E-001	-8.88270E-005	0.00000E+000	-4.65106E-005	-5.39641E-002	5.23703E-001	3.57310E+000	9	...........
	33	0.453333	5.17635E-001	-8.89082E-005	0.00000E+000	-4.60220E-005	-5.39641E-002	5.17704E-001	3.57310E+000	9	...........
	34	0.466667	5.11711E-001	-8.83362E-005	0.00000E+000	-4.52026E-005	-5.39641E-002	5.11799E-001	3.57310E+000	9	...........
	35	0.48	5.05837E-001	-8.85707E-005	0.00000E+000	-4.48023E-005	-5.39641E-002	5.05930E-001	3.57310E+000	9	...........
	36	0.493333	5.00022E-001	-8.90895E-005	0.00000E+000	-4.45468E-005	-5.39641E-002	5.00118E-001	3.57310E+000	9	...........
	37	0.506667	4.94335E-001	-8.86217E-005	0.00000E+000	-4.38089E-005	-5.39641E-002	4.94381E-001	3.57310E+000	9	...........
	38	0.52	4.88656E-001	-8.87738E-005	0.00000E+000	-4.33798E-005	-5.39641E-002	4.88705E-001	3.57310E+000	9	...........
	39	0.533333	4.83101E-001	-8.85227E-005	0.00000E+000	-4.27654E-005	-5.39641E-002	4.83159E-001	3.57310E+000	9	...........
	40	0.546667	4.77542E-001	-8.88134E-005	0.00000E+000	-4.24121E-005	-5.39641E-002	4.77607E-001	3.57310E+000	9	...........
	41	0.56	4.71990E-001	-8.88884E-005	0.00000E+000	-4.19544E-005	-5.39641E-002	4.72054E-001	3.57310E+000	9	...........
	42	0.573333	4.66491E-001	-8.90583E-005	0.00000E+000	-4.15449E-005	-5.39641E-002	4.66550E-001	3.57310E+000	9	...........
	43	0.586667	4.61019E-001	-8.88145E-005	0.00000E+000	-4.09451E-005	-5.39641E-002	4.61080E-001	3.57310E+000	9	...........
	44	0.6	4.55585E-001	-8.89780E-005	0.00000E+000	-4.05370E-005	-5.39641E-002	4.55647E-001	3.57310E+000	9	...........
	45	0.613333	4.50202E-001	-8.87978E-005	0.00000E+000	-3.99769E-005	-5.39641E-002	4.50267E-001	3.57310E+000	9	...........
	46	0.626667	4.44854E-001	-8.90083E-005	0.00000E+000	-3.95956E-005	-5.39641E-002	4.44913E-001	3.57310E+000	9	...........
	47	0.64	4.39550E-001	-8.87394E-005	0.00000E+000	-3.90054E-005	-5.39641E-002	4.39614E-001	3.57310E+000	9	...........
	48	0.653333	4.34277E-001	-8.90291E-005	0.00000E+000	-3.86633E-005	-5.39641E-002	4.34336E-001	3.57310E+000	9	...........
	49	0.666667	4.29017E-001	-8.86301E-005	0.00000E+000	-3.80238E-005	-5.39641E-002	4.29075E-001	3.57310E+000	9	...........
	50	0.68	4.23784E-001	-8.89551E-005	0.00000E+000	-3.76978E-005	-5.39641E-002	4.23847E-001	3.57310E+000	9	...........
	51	0.693333	4.18592E-001	-8.88426E-005	0.00000E+000	-3.71888E-005	-5.39641E-002	4.18650E-001	3.57310E+000	9	...........
	52	0.706667	4.13417E-001	-8.87374E-005	0.00000E+000	-3.66855E-005	-5.39641E-002	4.13473E-001	3.57310E+000	9	...........
	53	0.72	4.08263E-001	-8.87551E-005	0.00000E+000	-3.62355E-005	-5.39641E-002	4.08318E-001	3.57310E+000	9	...........
	54	0.733333	4.03151E-001	-8.84852E-005	0.00000E+000	-3.56729E-005	-5.39641E-002	4.03201E-001	3.57310E+000	9	...........
	55	0.746667	3.98041E-001	-8.88322E-005	0.00000E+000	-3.53589E-005	-5.39641E-002	3.98093E-001	3.57310E+000	9	...........
	56	0.76	3.92949E-001	-8.87124E-005	0.00000E+000	-3.48594E-005	-5.39641E-002	3.92994E-001	3.57310E+000	9	...........
	57	0.773333	3.87868E-001	-8.89385E-005	0.00000E+000	-3.44964E-005	-5.39641E-002	3.87914E-001	3.57310E+000	9	...........
	58	0.786667	3.82797E-001	-8.90051E-005	0.00000E+000	-3.40709E-005	-5.39641E-002	3.82845E-001	3.57310E+000	9	...........
	59	0.8	3.77755E-001	-8.88895E-005	0.00000E+000	-3.35784E-005	-5.39641E-002	3.77806E-001	3.57310E+000	9	...........
	60	0.813333	3.72728E-001	-8.89249E-005	0.00000E+000	-3.31448E-005	-5.39641E-002	3.72774E-001	3.57310E+000	9	...........
	61	0.826667	3.67732E-001	-8.88207E-005	0.00000E+000	-3.26622E-005	-5.39641E-002	3.67782E-001	3.57310E+000	9	...........
	62	0.84	3.62742E-001	-8.87905E-005	0.00000E+000	-3.22080E-005	-5.39641E-002	3.62789E-001	3.57310E+000	9	...........
	63	0.853333	3.57757E-001	-8.85998E-005	0.00000E+000	-3.16972E-005	-5.39641E-002	3.57804E-001	3.57310E+000	9	...........
	64	0.866667	3.52795E-001	-8.88374E-005	0.00000E+000	-3.13414E-005	-5.39641E-002	3.52838E-001	3.57310E+000	9	...........
	65	0.88	3.47845E-001	-8.87113E-005	0.00000E+000	-3.08578E-005	-5.39641E-002	3.47890E-001	3.57310E+000	9	...........
	66	0.893333	3.42915E-001	-8.87186E-005	0.00000E+000	-3.04230E-005	-5.39641E-002	3.42961E-001	3.57310E+000	9	...........
	67	0.906667	3.37991E-001	-8.87447E-005	0.00000E+000	-2.99949E-005	-5.39641E-002	3.38027E-001	3.57310E+000	9	...........
	68	0.92	3.33065E-001	-8.87947E-005	0.00000E+000	-2.95744E-005	-5.39641E-002	3.33111E-001	3.57310E+000	9	...........
	69	0.933333	3.28163E-001	-8.90937E-005	0.00000E+000	-2.92373E-005	-5.39641E-002	3.28200E-001	3.57310E+000	9	...........
	70	0.946667	3.23272E-001	-8.87770E-005	0.00000E+000	-2.86991E-005	-5.39641E-002	3.23309E-001	3.57310E+000	9	...........
	71	0.96	3.18401E-001	-8.88322E-005	0.00000E+000	-2.82842E-005	-5.39641E-002	3.18440E-001	3.57310E+000	9	...........
	72	0.97333	3.13550E-001	-8.84790E-005	0.00000E+000	-2.77426E-005	-5.39641E-002	3.13592E-001	3.57310E+000	9	...........
	73	0.98667	3.08707E-001	-8.88426E-005	0.00000E+000	-2.74263E-005	-5.39641E-002	3.08739E-001	3.57310E+000	9	...........
	74	1	3.03854E-001	-8.88655E-005	0.00000E+000	-2.70022E-005	-5.39641E-002	3.03898E-001	3.57310E+000	9	...........
	75	1.01333	2.99017E-001	-8.90155E-005	0.00000E+000	-2.66172E-005	-5.39641E-002	2.99057E-001	3.57299E+000	9	...........
	76	1.02667	2.94200E-001	-8.88999E-005	0.00000E+000	-2.61543E-005	-5.39641E-002	2.94238E-001	3.57280E+000	9	...........
	77	1.04	2.89406E-001	-8.90385E-005	0.00000E+000	-2.57683E-005	-5.39641E-002	2.89444E-001	3.57280E+000	9	...........
	78	1.05333	2.84630E-001	-8.90614E-005	0.00000E+000	-2.53496E-005	-5.39641E-002	2.84674E-001	3.57280E+000	9	...........
	79	1.06667	2.79865E-001	-8.90958E-005	0.00000E+000	-2.49348E-005	-5.39641E-002	2.79906E-001	3.57280E+000	9	...........
	80	1.08	2.75130E-001	-8.87217E-005	0.00000E+000	-2.44100E-005	-5.39641E-002	2.75165E-001	3.57280E+000	9	...........
	81	1.09333	2.70394E-001	-8.87530E-005	0.00000E+000	-2.39983E-005	-5.39641E-002	2.70430E-001	3.57280E+000	9	...........
	82	1.10667	2.65670E-001	-8.87790E-005	0.00000E+000	-2.35859E-005	-5.39641E-002	2.65706E-001	3.57280E+000	9	...........
	83	1.12	2.60965E-001	-8.86488E-005	0.00000E+000	-2.31342E-005	-5.39641E-002	2.61004E-001	3.57280E+000	9	...........
	84	1.13333	2.56244E-001	-8.86228E-005	0.00000E+000	-2.27090E-005	-5.39641E-002	2.56280E-001	3.57280E+000	9	...........
	85	1.14667	2.51531E-001	-8.87916E-005	0.00000E+000	-2.23338E-005	-5.39641E-002	2.51566E-001	3.57280E+000	9	...........
	86	1.16	2.46857E-001	-8.87968E-005	0.00000E+000	-2.19201E-005	-5.39641E-002	2.46888E-001	3.57280E+000	9	...........
	87	1.17333	2.42206E-001	-8.88822E-005	0.00000E+000	-2.15278E-005	-5.39641E-002	2.42229E-001	3.57280E+000	9	...........
	88	1.18667	2.37557E-001	-8.86030E-005	0.00000E+000	-2.10482E-005	-5.39641E-002	2.37581E-001	3.57280E+000	9	...........
	89	1.2	2.32918E-001	-8.88947E-005	0.00000E+000	-2.07051E-005	-5.39641E-002	2.32942E-001	3.57280E+000	9	...........
	90	1.21333	2.28299E-001	-8.91729E-005	0.00000E+000	-2.03581E-005	-5.39641E-002	2.28325E-001	3.57280E+000	9	...........
	91	1.22667	2.23711E-001	-8.86634E-005	0.00000E+000	-1.98350E-005	-5.39641E-002	2.23741E-001	3.57280E+000	9	...........
	92	1.24	2.19140E-001	-8.89009E-005	0.00000E+000	-1.94817E-005	-5.39641E-002	2.19162E-001	3.57280E+000	9	...........
	93	1.25333	2.14582E-001	-8.86457E-005	0.00000E+000	-1.90217E-005	-5.39641E-002	2.14606E-001	3.57280E+000	9	...........
	94	1.26667	2.10043E-001	-8.90572E-005	0.00000E+000	-1.87058E-005	-5.39641E-002	2.10063E-001	3.57280E+000	9	...........
	95	1.28	2.05516E-001	-8.89437E-005	0.00000E+000	-1.82793E-005	-5.39641E-002	2.05540E-001	3.57280E+000	9	...........
	96	1.29333	2.01002E-001	-8.86446E-005	0.00000E+000	-1.78178E-005	-5.39641E-002	2.01030E-001	3.57280E+000	9	...........
	97	1.30667	1.96496E-001	-8.87113E-005	0.00000E+000	-1.74314E-005	-5.39641E-002	1.96526E-001	3.57280E+000	9	...........
	98	1.32	1.92000E-001	-8.88822E-005	0.00000E+000	-1.70654E-005	-5.39641E-002	1.92032E-001	3.57280E+000	9	...........
	99	1.33333	1.87527E-001	-8.89062E-005	0.00000E+000	-1.66723E-005	-5.39641E-002	1.87555E-001	3.57280E+000	9	...........
	100	1.34667	1.83071E-001	-8.88520E-005	0.00000E+000	-1.62662E-005	-5.39641E-002	1.83091E-001	3.57280E+000	9	...........
	101	1.36	1.78635E-001	-8.87176E-005	0.00000E+000	-1.58480E-005	-5.39641E-002	1.78654E-001	3.57280E+000	9	...........
	102	1.37333	1.74216E-001	-8.88228E-005	0.00000E+000	-1.54744E-005	-5.39641E-002	1.74239E-001	3.57280E+000	9	...........
	103	1.38667	1.69839E-001	-8.89624E-005	0.00000E+000	-1.51092E-005	-5.39641E-002	1.69854E-001	3.57280E+000	9	...........
	104	1.4	1.65478E-001	-8.86988E-005	0.00000E+000	-1.46777E-005	-5.39641E-002	1.65497E-001	3.57280E+000	9	...........
	105	1.41333	1.61146E-001	-8.87832E-005	0.00000E+000	-1.43071E-005	-5.39641E-002	1.61163E-001	3.57280E+000	9	...........
	106	1.42667	1.56826E-001	-8.88874E-005	0.00000E+000	-1.39398E-005	-5.39641E-002	1.56838E-001	3.57280E+000	9	...........
	107	1.44	1.52514E-001	-8.87374E-005	0.00000E+000	-1.35337E-005	-5.39641E-002	1.52528E-001	3.57280E+000	9	...........
	108	1.45333	1.48218E-001	-8.88499E-005	0.00000E+000	-1.31692E-005	-5.39641E-002	1.48235E-001	3.57280E+000	9	...........
	109	1.46667	1.43944E-001	-8.86894E-005	0.00000E+000	-1.27663E-005	-5.39641E-002	1.43960E-001	3.57280E+000	9	...........
	110	1.48	1.39699E-001	-8.89791E-005	0.00000E+000	-1.24303E-005	-5.39641E-002	1.39711E-001	3.57280E+000	9	...........
	111	1.49333	1.35462E-001	-8.90093E-005	0.00000E+000	-1.20574E-005	-5.39641E-002	1.35473E-001	3.57280E+000	9	...........
	112	1.50667	1.31259E-001	-8.86811E-005	0.00000E+000	-1.16402E-005	-5.39641E-002	1.31268E-001	3.57280E+000	9	...........
	113	1.52	1.27065E-001	-8.88561E-005	0.00000E+000	-1.12905E-005	-5.39641E-002	1.27076E-001	3.57280E+000	9	...........
	114	1.53333	1.22886E-001	-8.87467E-005	0.00000E+000	-1.09057E-005	-5.39641E-002	1.22898E-001	3.57280E+000	9	...........
	115	1.54667	1.18734E-001	-8.87561E-005	0.00000E+000	-1.05384E-005	-5.39641E-002	1.18744E-001	3.57280E+000	9	...........
	116	1.56	1.14599E-001	-8.89655E-005	0.00000E+000	-1.01953E-005	-5.39641E-002	1.14611E-001	3.57280E+000	9	...........
	117	1.57333	1.10481E-001	-8.86926E-005	0.00000E+000	-9.79885E-006	-5.39641E-002	1.10491E-001	3.57280E+000	9	...........
	118	1.58667	1.06377E-001	-8.87811E-005	0.00000E+000	-9.44424E-006	-5.39641E-002	1.06389E-001	3.57280E+000	9	...........
	119	1.6	1.02287E-001	-8.88697E-005	0.00000E+000	-9.09021E-006	-5.39641E-002	1.02301E-001	3.57280E+000	9	...........
	120	1.61333	9.82211E-002	-8.86176E-005	0.00000E+000	-8.70412E-006	-5.39641E-002	9.82301E-002	3.57280E+000	9	...........
	121	1.62667	9.41775E-002	-8.89239E-005	0.00000E+000	-8.37463E-006	-5.39641E-002	9.41862E-002	3.57280E+000	9	...........
	122	1.64	9.01496E-002	-8.90062E-005	0.00000E+000	-8.02387E-006	-5.39641E-002	9.01596E-002	3.57280E+000	9	...........
	123	1.65333	8.61419E-002	-8.85946E-005	0.00000E+000	-7.63171E-006	-5.39641E-002	8.61466E-002	3.57280E+000	9	...........
	124	1.66667	8.21424E-002	-8.89155E-005	0.00000E+000	-7.30374E-006	-5.39641E-002	8.21524E-002	3.57280E+000	9	...........
	125	1.68	7.81668E-002	-8.88238E-005	0.00000E+000	-6.94307E-006	-5.39641E-002	7.81709E-002	3.57280E+000	9	...........
	126	1.69333	7.42040E-002	-8.88697E-005	0.00000E+000	-6.59448E-006	-5.39641E-002	7.42080E-002	3.57280E+000	9	...........
	127	1.70667	7.02383E-002	-8.89541E-005	0.00000E+000	-6.24798E-006	-5.39641E-002	7.02420E-002	3.57280E+000	9	...........
	128	1.72	6.63036E-002	-8.87790E-005	0.00000E+000	-5.88637E-006	-5.39641E-002	6.63075E-002	3.57280E+000	9	...........
	129	1.73333	6.23876E-002	-8.88259E-005	0.00000E+000	-5.54164E-006	-5.39641E-002	6.23961E-002	3.57280E+000	9	...........
	130	1.74667	5.85030E-002	-8.86676E-005	0.00000E+000	-5.18732E-006	-5.39641E-002	5.85083E-002	3.57280E+000	9	...........
	131	1.76	5.46329E-002	-8.86426E-005	0.00000E+000	-4.84280E-006	-5.39641E-002	5.46347E-002	3.57280E+000	9	...........
	132	1.77333	5.07764E-002	-8.88301E-005	0.00000E+000	-4.51047E-006	-5.39641E-002	5.07802E-002	3.57280E+000	9	...........
	133	1.78667	4.69435E-002	-8.88020E-005	0.00000E+000	-4.16868E-006	-5.39641E-002	4.69503E-002	3.57280E+000	9	...........
	134	1.8	4.31240E-002	-8.88905E-005	0.00000E+000	-3.83332E-006	-5.39641E-002	4.31333E-002	3.57280E+000	9	...........
	135	1.81333	3.93013E-002	-8.89030E-005	0.00000E+000	-3.49401E-006	-5.39641E-002	3.93025E-002	3.57280E+000	9	...........
	136	1.82667	3.55032E-002	-8.88311E-005	0.00000E+000	-3.15379E-006	-5.39641E-002	3.55117E-002	3.57280E+000	9	...........
	137	1.84	3.17257E-002	-8.87759E-005	0.00000E+000	-2.81648E-006	-5.39641E-002	3.17296E-002	3.57280E+000	9	...........
	138	1.85333	2.79748E-002	-8.86384E-005	0.00000E+000	-2.47964E-006	-5.39641E-002	2.79769E-002	3.57280E+000	9	...........
	139	1.86667	2.42436E-002	-8.91145E-005	0.00000E+000	-2.16046E-006	-5.39641E-002	2.42424E-002	3.57280E+000	9	...........
	140	1.88	2.05442E-002	-8.87717E-005	0.00000E+000	-1.82374E-006	-5.39641E-002	2.05423E-002	3.57280E+000	9	...........
	141	1.89333	1.68630E-002	-8.89322E-005	0.00000E+000	-1.49967E-006	-5.39641E-002	1.68614E-002	3.57280E+000	9	...........
	142	1.90667	1.32077E-002	-8.88426E-005	0.00000E+000	-1.17341E-006	-5.39641E-002	1.32033E-002	3.57280E+000	9	...........
	143	1.92	9.57760E-003	-8.86061E-005	0.00000E+000	-8.48633E-007	-5.39641E-002	9.56978E-003	3.57280E+000	9	...........
	144	1.93333	5.95238E-003	-8.89239E-005	0.00000E+000	-5.29308E-007	-5.39641E-002	5.93843E-003	3.57280E+000	9	...........
	145	1.94667	2.34616E-003	-8.89145E-005	0.00000E+000	-2.08608E-007	-5.39641E-002	2.33363E-003	3.57280E+000	9	...........
	146	1.95	1.02629E-004	-8.87624E-005	0.00000E+000	-9.10957E-009	-5.39641E-002	8.33973E-005	3.57280E+000	9	...........
STARTTIMEOFFSET	QUANT	3683.972	Start Time Offset (s)
