EXPLAIN
TAG	PWR800_DISCHARGE
TITLE	LABEL	PWR Cyclic Charge Discharge (Cell) - Discharge Step	Test &Identifier
DATE	LABEL	10-7-2017	Date
TIME	LABEL	15:18:04	Time
NOTES	NOTES	3	&Notes...
	supercap test cell
	0.9mg
	6M KOH
PSTAT	PSTAT	IFC5000-01520	Potentiostat
CAPACITY	QUANT	1.00000E-003	Capacity (A-hr)
CELLTYPE	SELECTOR	1	&Cell Type
WORKINGCONNECTION	SELECTOR	0	&Working Lead
MAXDISCHARGETIME	VARIABLEANDUNITS	1.00000E+002	s	1.00000E+002	second(s)	Max &Discharge Time
DISCHARGEMODE	MULTIPARAM	0	9.00000E-005	&Discharge Mode	Constant Current	Amp(s)
SAMPLETIME	QUANT	1.00000E-002	Sa&mple Period (s)
DISCHARGESTOPAT1	MULTIPARAM	3	0.00000E+000	Discharge Stop At &1	Voltage < Limit	V
DISCHARGESTOPAT2	MULTIPARAM	0	0.00000E+000	Discharge Stop At &2	None	N/A
AESBHCSELECTOR	TOGGLE	F	Save Both Half Cells
IRCOMP	TOGGLE	F	IR &Measure
EOC	QUANT	0	Open Circuit (V)
SEQUENCER	TOGGLE	TRUE	Run as Sequence
PSTATMODEL	IQUANT	53	Pstat Model
PSTATSECTION	LABEL	IFC5000-01520	Pstat Section
PSTATSERIALNO	LABEL	01520	Pstat Serial Number
CTRLMODE	IQUANT	0	Control Mode
ELECTROMETER	IQUANT	1	RE=0 or CS=1
IESTAB	IQUANT	0	I/E Stability
CASPEED	IQUANT	4	Control Amp Speed
CONVENTION	IQUANT	1	Current Convention
ICHRANGE	IQUANT	2	Ich Range
ICHRANGEMODE	TOGGLE	T	Ich Auto Range
ICHOFFSETENABLE	TOGGLE	F	Ich Offset Enable
ICHOFFSET	QUANT	0	Ich Offset (V)
ICHFILTER	IQUANT	1	Ich Filter
VCHRANGE	IQUANT	2	Vch Range
VCHRANGEMODE	TOGGLE	T	Vch Auto Range
VCHOFFSETENABLE	TOGGLE	F	Vch Offset Enable
VCHOFFSET	QUANT	0	Vch Offset (V)
VCHFILTER	IQUANT	1	Vch Filter
IERANGELOWERLIMIT	IQUANT	9	I/E Range Lower Limit
IERANGEMODE	TOGGLE	F	I/E AutoRange
IERANGE	IQUANT	9	I/E Range
ACHSELECT	IQUANT	1	Ach Select
ACHRANGE	IQUANT	2	Ach Range
ACHOFFSETENABLE	TOGGLE	F	Ach Offset Enable
ACHOFFSET	QUANT	0	Ach Offset (V)
ACHFILTER	IQUANT	1	Ach Filter
CABLEID	IQUANT	14	Cable ID
DCCALDATE	LABEL	5-7-2017	DC Calibration Date
ACCALDATE	LABEL	12/3/2015	AC Calibration Date
FRAMEWORKVERSION	QUANT	7.01	Framework Version
INSTRUMENTVERSION	LABEL	4.00	Instrument Version
CURVE	TABLE	160
	Pt	T	Vf	Im	Vu	Pwr	Sig	Ach	Temp	IERange	Over
	#	s	V	A	V	W	V	V	deg C	#	bits
	0	0.013333	8.24793E-001	-8.87884E-005	0.00000E+000	-7.32320E-005	-5.39641E-002	8.24930E-001	3.57210E+000	9	...........
	1	0.026667	8.12259E-001	-8.86957E-005	0.00000E+000	-7.20439E-005	-5.39641E-002	8.12395E-001	3.57210E+000	9	...........
	2	0.04	8.00537E-001	-8.88968E-005	0.00000E+000	-7.11652E-005	-5.39641E-002	8.00649E-001	3.57210E+000	9	...........
	3	0.053333	7.89388E-001	-8.83727E-005	0.00000E+000	-6.97604E-005	-5.39641E-002	7.89517E-001	3.57210E+000	9	...........
	4	0.066667	7.78755E-001	-8.85519E-005	0.00000E+000	-6.89603E-005	-5.39641E-002	7.78864E-001	3.57210E+000	9	...........
	5	0.08	7.68515E-001	-8.85113E-005	0.00000E+000	-6.80223E-005	-5.39641E-002	7.68631E-001	3.57210E+000	9	...........
	6	0.093333	7.58692E-001	-8.89364E-005	0.00000E+000	-6.74753E-005	-5.39641E-002	7.58791E-001	3.57210E+000	9	...........
	7	0.106667	7.49165E-001	-8.87009E-005	0.00000E+000	-6.64516E-005	-5.39641E-002	7.49290E-001	3.57210E+000	9	...........
	8	0.12	7.39945E-001	-8.87113E-005	0.00000E+000	-6.56415E-005	-5.39641E-002	7.40061E-001	3.57210E+000	9	...........
	9	0.133333	7.30975E-001	-8.84290E-005	0.00000E+000	-6.46394E-005	-5.39641E-002	7.31091E-001	3.57210E+000	9	...........
	10	0.146667	7.22298E-001	-8.87061E-005	0.00000E+000	-6.40723E-005	-5.39641E-002	7.22386E-001	3.57210E+000	9	...........
	11	0.16	7.13763E-001	-8.86915E-005	0.00000E+000	-6.33047E-005	-5.39641E-002	7.13863E-001	3.57210E+000	9	...........
	12	0.173333	7.05471E-001	-8.87103E-005	0.00000E+000	-6.25825E-005	-5.39641E-002	7.05585E-001	3.57210E+000	9	...........
	13	0.186667	6.97392E-001	-8.85134E-005	0.00000E+000	-6.17285E-005	-5.39641E-002	6.97497E-001	3.57210E+000	9	...........
	14	0.2	6.89471E-001	-8.86457E-005	0.00000E+000	-6.11186E-005	-5.39641E-002	6.89579E-001	3.57210E+000	9	...........
	15	0.213333	6.81728E-001	-8.86822E-005	0.00000E+000	-6.04571E-005	-5.39641E-002	6.81855E-001	3.57210E+000	9	...........
	16	0.226667	6.74167E-001	-8.86874E-005	0.00000E+000	-5.97901E-005	-5.39641E-002	6.74284E-001	3.57210E+000	9	...........
	17	0.24	6.66729E-001	-8.88468E-005	0.00000E+000	-5.92367E-005	-5.39641E-002	6.66845E-001	3.57210E+000	9	...........
	18	0.253333	6.59396E-001	-8.87197E-005	0.00000E+000	-5.85014E-005	-5.39641E-002	6.59516E-001	3.57210E+000	9	...........
	19	0.266667	6.52219E-001	-8.87895E-005	0.00000E+000	-5.79101E-005	-5.39641E-002	6.52353E-001	3.57210E+000	9	...........
	20	0.28	6.45184E-001	-8.84946E-005	0.00000E+000	-5.70953E-005	-5.39641E-002	6.45304E-001	3.57210E+000	9	...........
	21	0.293333	6.38237E-001	-8.87467E-005	0.00000E+000	-5.66415E-005	-5.39641E-002	6.38361E-001	3.57210E+000	9	...........
	22	0.306667	6.31412E-001	-8.88520E-005	0.00000E+000	-5.61022E-005	-5.39641E-002	6.31503E-001	3.57210E+000	9	...........
	23	0.32	6.24714E-001	-8.88468E-005	0.00000E+000	-5.55038E-005	-5.39641E-002	6.24801E-001	3.57210E+000	9	...........
	24	0.333333	6.18107E-001	-8.89437E-005	0.00000E+000	-5.49767E-005	-5.39641E-002	6.18178E-001	3.57210E+000	9	...........
	25	0.346667	6.11499E-001	-8.86665E-005	0.00000E+000	-5.42195E-005	-5.39641E-002	6.11629E-001	3.57210E+000	9	...........
	26	0.36	6.05065E-001	-8.86717E-005	0.00000E+000	-5.36522E-005	-5.39641E-002	6.05185E-001	3.57210E+000	9	...........
	27	0.373333	5.98738E-001	-8.88739E-005	0.00000E+000	-5.32121E-005	-5.39641E-002	5.98823E-001	3.57210E+000	9	...........
	28	0.386667	5.92455E-001	-8.87551E-005	0.00000E+000	-5.25834E-005	-5.39641E-002	5.92527E-001	3.57210E+000	9	...........
	29	0.4	5.86207E-001	-8.86436E-005	0.00000E+000	-5.19635E-005	-5.39641E-002	5.86322E-001	3.57210E+000	9	...........
	30	0.413333	5.80068E-001	-8.86978E-005	0.00000E+000	-5.14508E-005	-5.39641E-002	5.80162E-001	3.57210E+000	9	...........
	31	0.426667	5.73997E-001	-8.88051E-005	0.00000E+000	-5.09739E-005	-5.39641E-002	5.74087E-001	3.57210E+000	9	...........
	32	0.44	5.68003E-001	-8.85717E-005	0.00000E+000	-5.03090E-005	-5.39641E-002	5.68075E-001	3.57210E+000	9	...........
	33	0.453333	5.61968E-001	-8.86707E-005	0.00000E+000	-4.98301E-005	-5.39641E-002	5.62074E-001	3.57210E+000	9	...........
	34	0.466667	5.56047E-001	-8.86738E-005	0.00000E+000	-4.93068E-005	-5.39641E-002	5.56136E-001	3.57210E+000	9	...........
	35	0.48	5.50179E-001	-8.85800E-005	0.00000E+000	-4.87348E-005	-5.39641E-002	5.50284E-001	3.57210E+000	9	...........
	36	0.493333	5.44389E-001	-8.87936E-005	0.00000E+000	-4.83383E-005	-5.39641E-002	5.44469E-001	3.57210E+000	9	...........
	37	0.506667	5.38629E-001	-8.87436E-005	0.00000E+000	-4.77999E-005	-5.39641E-002	5.38696E-001	3.57210E+000	9	...........
	38	0.52	5.32886E-001	-8.88166E-005	0.00000E+000	-4.73291E-005	-5.39641E-002	5.32965E-001	3.57210E+000	9	...........
	39	0.533333	5.27223E-001	-8.89864E-005	0.00000E+000	-4.69156E-005	-5.39641E-002	5.27282E-001	3.57210E+000	9	...........
	40	0.546667	5.21578E-001	-8.85978E-005	0.00000E+000	-4.62106E-005	-5.39641E-002	5.21625E-001	3.57271E+000	9	...........
	41	0.56	5.15977E-001	-8.86280E-005	0.00000E+000	-4.57300E-005	-5.39641E-002	5.16062E-001	3.57280E+000	9	...........
	42	0.573333	5.10403E-001	-8.88759E-005	0.00000E+000	-4.53625E-005	-5.39641E-002	5.10474E-001	3.57280E+000	9	...........
	43	0.586667	5.04834E-001	-8.87895E-005	0.00000E+000	-4.48240E-005	-5.39641E-002	5.04916E-001	3.57280E+000	9	...........
	44	0.6	4.99340E-001	-8.88374E-005	0.00000E+000	-4.43600E-005	-5.39641E-002	4.99411E-001	3.57280E+000	9	...........
	45	0.613333	4.93895E-001	-8.87124E-005	0.00000E+000	-4.38146E-005	-5.39641E-002	4.93961E-001	3.57280E+000	9	...........
	46	0.626667	4.88463E-001	-8.86123E-005	0.00000E+000	-4.32839E-005	-5.39641E-002	4.88544E-001	3.57280E+000	9	...........
	47	0.64	4.83136E-001	-8.84311E-005	0.00000E+000	-4.27242E-005	-5.39641E-002	4.83180E-001	3.57280E+000	9	...........
	48	0.653333	4.77759E-001	-8.85873E-005	0.00000E+000	-4.23234E-005	-5.39641E-002	4.77816E-001	3.57280E+000	9	...........
	49	0.666667	4.72385E-001	-8.88968E-005	0.00000E+000	-4.19935E-005	-5.39641E-002	4.72439E-001	3.57280E+000	9	...........
	50	0.68	4.67050E-001	-8.85946E-005	0.00000E+000	-4.13781E-005	-5.39641E-002	4.67101E-001	3.57280E+000	9	...........
	51	0.693333	4.61722E-001	-8.88343E-005	0.00000E+000	-4.10167E-005	-5.39641E-002	4.61781E-001	3.57280E+000	9	...........
	52	0.706667	4.56437E-001	-8.87634E-005	0.00000E+000	-4.05149E-005	-5.39641E-002	4.56492E-001	3.57280E+000	9	...........
	53	0.72	4.51178E-001	-8.88978E-005	0.00000E+000	-4.01088E-005	-5.39641E-002	4.51237E-001	3.57280E+000	9	...........
	54	0.733333	4.45930E-001	-8.85217E-005	0.00000E+000	-3.94745E-005	-5.39641E-002	4.45987E-001	3.57280E+000	9	...........
	55	0.746667	4.40727E-001	-8.88311E-005	0.00000E+000	-3.91502E-005	-5.39641E-002	4.40783E-001	3.57280E+000	9	...........
	56	0.76	4.35531E-001	-8.87290E-005	0.00000E+000	-3.86443E-005	-5.39641E-002	4.35590E-001	3.57280E+000	9	...........
	57	0.773333	4.30360E-001	-8.86957E-005	0.00000E+000	-3.81711E-005	-5.39641E-002	4.30410E-001	3.57280E+000	9	...........
	58	0.786667	4.25202E-001	-8.86853E-005	0.00000E+000	-3.77091E-005	-5.39641E-002	4.25254E-001	3.57280E+000	9	...........
	59	0.8	4.20054E-001	-8.87926E-005	0.00000E+000	-3.72977E-005	-5.39641E-002	4.20105E-001	3.57280E+000	9	...........
	60	0.813333	4.14917E-001	-8.85842E-005	0.00000E+000	-3.67551E-005	-5.39641E-002	4.14974E-001	3.57280E+000	9	...........
	61	0.826667	4.09797E-001	-8.85530E-005	0.00000E+000	-3.62887E-005	-5.39641E-002	4.09844E-001	3.57280E+000	9	...........
	62	0.84	4.04691E-001	-8.85467E-005	0.00000E+000	-3.58341E-005	-5.39641E-002	4.04738E-001	3.57280E+000	9	...........
	63	0.853333	3.99606E-001	-8.89093E-005	0.00000E+000	-3.55287E-005	-5.39641E-002	3.99651E-001	3.57280E+000	9	...........
	64	0.866667	3.94541E-001	-8.87124E-005	0.00000E+000	-3.50007E-005	-5.39641E-002	3.94588E-001	3.57280E+000	9	...........
	65	0.88	3.89490E-001	-8.86769E-005	0.00000E+000	-3.45388E-005	-5.39641E-002	3.89535E-001	3.57280E+000	9	...........
	66	0.893333	3.84450E-001	-8.86749E-005	0.00000E+000	-3.40910E-005	-5.39641E-002	3.84494E-001	3.57280E+000	9	...........
	67	0.906667	3.79440E-001	-8.86874E-005	0.00000E+000	-3.36515E-005	-5.39641E-002	3.79482E-001	3.57280E+000	9	...........
	68	0.92	3.74465E-001	-8.87592E-005	0.00000E+000	-3.32372E-005	-5.39641E-002	3.74507E-001	3.57280E+000	9	...........
	69	0.933333	3.69506E-001	-8.85227E-005	0.00000E+000	-3.27097E-005	-5.39641E-002	3.69547E-001	3.57280E+000	9	...........
	70	0.946667	3.64558E-001	-8.85738E-005	0.00000E+000	-3.22903E-005	-5.39641E-002	3.64604E-001	3.57280E+000	9	...........
	71	0.96	3.59621E-001	-8.89093E-005	0.00000E+000	-3.19736E-005	-5.39641E-002	3.59663E-001	3.57280E+000	9	...........
	72	0.97333	3.54699E-001	-8.85363E-005	0.00000E+000	-3.14038E-005	-5.39641E-002	3.54739E-001	3.57280E+000	9	...........
	73	0.98667	3.49807E-001	-8.87488E-005	0.00000E+000	-3.10449E-005	-5.39641E-002	3.49844E-001	3.57280E+000	9	...........
	74	1	3.44937E-001	-8.87384E-005	0.00000E+000	-3.06092E-005	-5.39641E-002	3.44975E-001	3.57280E+000	9	...........
	75	1.01333	3.40087E-001	-8.85425E-005	0.00000E+000	-3.01121E-005	-5.39641E-002	3.40126E-001	3.57280E+000	9	...........
	76	1.02667	3.35249E-001	-8.85196E-005	0.00000E+000	-2.96761E-005	-5.39641E-002	3.35283E-001	3.57280E+000	9	...........
	77	1.04	3.30433E-001	-8.85780E-005	0.00000E+000	-2.92691E-005	-5.39641E-002	3.30468E-001	3.57280E+000	9	...........
	78	1.05333	3.25646E-001	-8.86894E-005	0.00000E+000	-2.88813E-005	-5.39641E-002	3.25687E-001	3.57280E+000	9	...........
	79	1.06667	3.20870E-001	-8.85925E-005	0.00000E+000	-2.84267E-005	-5.39641E-002	3.20906E-001	3.57280E+000	9	...........
	80	1.08	3.16132E-001	-8.89280E-005	0.00000E+000	-2.81130E-005	-5.39641E-002	3.16172E-001	3.57280E+000	9	...........
	81	1.09333	3.11440E-001	-8.87947E-005	0.00000E+000	-2.76542E-005	-5.39641E-002	3.11476E-001	3.57280E+000	9	...........
	82	1.10667	3.06743E-001	-8.87040E-005	0.00000E+000	-2.72094E-005	-5.39641E-002	3.06781E-001	3.57280E+000	9	...........
	83	1.12	3.02063E-001	-8.86394E-005	0.00000E+000	-2.67747E-005	-5.39641E-002	3.02099E-001	3.57280E+000	9	...........
	84	1.13333	2.97403E-001	-8.86884E-005	0.00000E+000	-2.63762E-005	-5.39641E-002	2.97440E-001	3.57280E+000	9	...........
	85	1.14667	2.92760E-001	-8.86457E-005	0.00000E+000	-2.59519E-005	-5.39641E-002	2.92785E-001	3.57280E+000	9	...........
	86	1.16	2.88132E-001	-8.85967E-005	0.00000E+000	-2.55275E-005	-5.39641E-002	2.88166E-001	3.57280E+000	9	...........
	87	1.17333	2.83526E-001	-8.87457E-005	0.00000E+000	-2.51617E-005	-5.39641E-002	2.83563E-001	3.57280E+000	9	...........
	88	1.18667	2.78951E-001	-8.87092E-005	0.00000E+000	-2.47455E-005	-5.39641E-002	2.78986E-001	3.57280E+000	9	...........
	89	1.2	2.74400E-001	-8.86551E-005	0.00000E+000	-2.43269E-005	-5.39641E-002	2.74431E-001	3.57280E+000	9	...........
	90	1.21333	2.69869E-001	-8.88843E-005	0.00000E+000	-2.39871E-005	-5.39641E-002	2.69902E-001	3.57280E+000	9	...........
	91	1.22667	2.65358E-001	-8.86509E-005	0.00000E+000	-2.35242E-005	-5.39641E-002	2.65392E-001	3.57280E+000	9	...........
	92	1.24	2.60874E-001	-8.90249E-005	0.00000E+000	-2.32243E-005	-5.39641E-002	2.60900E-001	3.57280E+000	9	...........
	93	1.25333	2.56388E-001	-8.88301E-005	0.00000E+000	-2.27750E-005	-5.39641E-002	2.56416E-001	3.57280E+000	9	...........
	94	1.26667	2.51926E-001	-8.88728E-005	0.00000E+000	-2.23894E-005	-5.39641E-002	2.51958E-001	3.57280E+000	9	...........
	95	1.28	2.47501E-001	-8.89145E-005	0.00000E+000	-2.20064E-005	-5.39641E-002	2.47529E-001	3.57280E+000	9	...........
	96	1.29333	2.43093E-001	-8.86238E-005	0.00000E+000	-2.15439E-005	-5.39641E-002	2.43115E-001	3.57280E+000	9	...........
	97	1.30667	2.38721E-001	-8.86103E-005	0.00000E+000	-2.11531E-005	-5.39641E-002	2.38744E-001	3.57280E+000	9	...........
	98	1.32	2.34361E-001	-8.87520E-005	0.00000E+000	-2.08000E-005	-5.39641E-002	2.34385E-001	3.57280E+000	9	...........
	99	1.33333	2.30026E-001	-8.85780E-005	0.00000E+000	-2.03753E-005	-5.39641E-002	2.30048E-001	3.57280E+000	9	...........
	100	1.34667	2.25700E-001	-8.88030E-005	0.00000E+000	-2.00428E-005	-5.39641E-002	2.25721E-001	3.57280E+000	9	...........
	101	1.36	2.21382E-001	-8.87738E-005	0.00000E+000	-1.96530E-005	-5.39641E-002	2.21405E-001	3.57280E+000	9	...........
	102	1.37333	2.17095E-001	-8.88989E-005	0.00000E+000	-1.92995E-005	-5.39641E-002	2.17118E-001	3.57280E+000	9	...........
	103	1.38667	2.12831E-001	-8.86936E-005	0.00000E+000	-1.88768E-005	-5.39641E-002	2.12856E-001	3.57280E+000	9	...........
	104	1.4	2.08599E-001	-8.86811E-005	0.00000E+000	-1.84988E-005	-5.39641E-002	2.08622E-001	3.57280E+000	9	...........
	105	1.41333	2.04367E-001	-8.86373E-005	0.00000E+000	-1.81145E-005	-5.39641E-002	2.04386E-001	3.57280E+000	9	...........
	106	1.42667	2.00148E-001	-8.86728E-005	0.00000E+000	-1.77477E-005	-5.39641E-002	2.00167E-001	3.57280E+000	9	...........
	107	1.44	1.95955E-001	-8.86384E-005	0.00000E+000	-1.73691E-005	-5.39641E-002	1.95975E-001	3.57280E+000	9	...........
	108	1.45333	1.91787E-001	-8.88426E-005	0.00000E+000	-1.70388E-005	-5.39641E-002	1.91810E-001	3.57280E+000	9	...........
	109	1.46667	1.87639E-001	-8.87665E-005	0.00000E+000	-1.66561E-005	-5.39641E-002	1.87659E-001	3.57280E+000	9	...........
	110	1.48	1.83508E-001	-8.86947E-005	0.00000E+000	-1.62762E-005	-5.39641E-002	1.83523E-001	3.57280E+000	9	...........
	111	1.49333	1.79391E-001	-8.84957E-005	0.00000E+000	-1.58753E-005	-5.39641E-002	1.79409E-001	3.57280E+000	9	...........
	112	1.50667	1.75300E-001	-8.88166E-005	0.00000E+000	-1.55696E-005	-5.39641E-002	1.75314E-001	3.57280E+000	9	...........
	113	1.52	1.71209E-001	-8.87249E-005	0.00000E+000	-1.51905E-005	-5.39641E-002	1.71230E-001	3.57280E+000	9	...........
	114	1.53333	1.67152E-001	-8.86228E-005	0.00000E+000	-1.48135E-005	-5.39641E-002	1.67169E-001	3.57280E+000	9	...........
	115	1.54667	1.63105E-001	-8.85946E-005	0.00000E+000	-1.44502E-005	-5.39641E-002	1.63124E-001	3.57297E+000	9	...........
	116	1.56	1.59071E-001	-8.87082E-005	0.00000E+000	-1.41109E-005	-5.39641E-002	1.59088E-001	3.57300E+000	9	...........
	117	1.57333	1.55070E-001	-8.85155E-005	0.00000E+000	-1.37261E-005	-5.39641E-002	1.55084E-001	3.57300E+000	9	...........
	118	1.58667	1.51089E-001	-8.88884E-005	0.00000E+000	-1.34301E-005	-5.39641E-002	1.51101E-001	3.57300E+000	9	...........
	119	1.6	1.47124E-001	-8.88030E-005	0.00000E+000	-1.30651E-005	-5.39641E-002	1.47135E-001	3.57300E+000	9	...........
	120	1.61333	1.43169E-001	-8.88811E-005	0.00000E+000	-1.27251E-005	-5.39641E-002	1.43180E-001	3.57300E+000	9	...........
	121	1.62667	1.39227E-001	-8.89541E-005	0.00000E+000	-1.23848E-005	-5.39641E-002	1.39235E-001	3.57300E+000	9	...........
	122	1.64	1.35297E-001	-8.88666E-005	0.00000E+000	-1.20234E-005	-5.39641E-002	1.35303E-001	3.57300E+000	9	...........
	123	1.65333	1.31388E-001	-8.87176E-005	0.00000E+000	-1.16564E-005	-5.39641E-002	1.31394E-001	3.57300E+000	9	...........
	124	1.66667	1.27491E-001	-8.88822E-005	0.00000E+000	-1.13317E-005	-5.39641E-002	1.27496E-001	3.57300E+000	9	...........
	125	1.68	1.23595E-001	-8.87405E-005	0.00000E+000	-1.09679E-005	-5.39641E-002	1.23605E-001	3.57300E+000	9	...........
	126	1.69333	1.19729E-001	-8.85300E-005	0.00000E+000	-1.05996E-005	-5.39641E-002	1.19738E-001	3.57300E+000	9	...........
	127	1.70667	1.15879E-001	-8.90353E-005	0.00000E+000	-1.03174E-005	-5.39641E-002	1.15888E-001	3.57300E+000	9	...........
	128	1.72	1.12036E-001	-8.90916E-005	0.00000E+000	-9.98146E-006	-5.39641E-002	1.12048E-001	3.57300E+000	9	...........
	129	1.73333	1.08192E-001	-8.86717E-005	0.00000E+000	-9.59362E-006	-5.39641E-002	1.08199E-001	3.57300E+000	9	...........
	130	1.74667	1.04371E-001	-8.87926E-005	0.00000E+000	-9.26739E-006	-5.39641E-002	1.04372E-001	3.57300E+000	9	...........
	131	1.76	1.00575E-001	-8.87863E-005	0.00000E+000	-8.92966E-006	-5.39641E-002	1.00582E-001	3.57300E+000	9	...........
	132	1.77333	9.68022E-002	-8.87051E-005	0.00000E+000	-8.58685E-006	-5.39641E-002	9.68085E-002	3.57300E+000	9	...........
	133	1.78667	9.30459E-002	-8.87759E-005	0.00000E+000	-8.26024E-006	-5.39641E-002	9.30527E-002	3.57300E+000	9	...........
	134	1.8	8.93071E-002	-8.87207E-005	0.00000E+000	-7.92339E-006	-5.39641E-002	8.93153E-002	3.57300E+000	9	...........
	135	1.81333	8.55800E-002	-8.86780E-005	0.00000E+000	-7.58906E-006	-5.39641E-002	8.55864E-002	3.57300E+000	9	...........
	136	1.82667	8.18526E-002	-8.88030E-005	0.00000E+000	-7.26876E-006	-5.39641E-002	8.18532E-002	3.57300E+000	9	...........
	137	1.84	7.81364E-002	-8.88291E-005	0.00000E+000	-6.94078E-006	-5.39641E-002	7.81359E-002	3.57300E+000	9	...........
	138	1.85333	7.44255E-002	-8.88280E-005	0.00000E+000	-6.61107E-006	-5.39641E-002	7.44271E-002	3.57300E+000	9	...........
	139	1.86667	7.07366E-002	-8.87499E-005	0.00000E+000	-6.27787E-006	-5.39641E-002	7.07351E-002	3.57300E+000	9	...........
	140	1.88	6.70569E-002	-8.86988E-005	0.00000E+000	-5.94787E-006	-5.39641E-002	6.70580E-002	3.57300E+000	9	...........
	141	1.89333	6.34109E-002	-8.85978E-005	0.00000E+000	-5.61807E-006	-5.39641E-002	6.34140E-002	3.57300E+000	9	...........
	142	1.90667	5.97910E-002	-8.88311E-005	0.00000E+000	-5.31130E-006	-5.39641E-002	5.97907E-002	3.57300E+000	9	...........
	143	1.92	5.61962E-002	-8.90124E-005	0.00000E+000	-5.00216E-006	-5.39641E-002	5.61927E-002	3.57300E+000	9	...........
	144	1.93333	5.26074E-002	-8.85019E-005	0.00000E+000	-4.65586E-006	-5.39641E-002	5.26039E-002	3.57300E+000	9	...........
	145	1.94667	4.90319E-002	-8.90281E-005	0.00000E+000	-4.36521E-006	-5.39641E-002	4.90292E-002	3.57300E+000	9	...........
	146	1.96	4.54645E-002	-8.86061E-005	0.00000E+000	-4.02844E-006	-5.39641E-002	4.54765E-002	3.57300E+000	9	...........
	147	1.97333	4.18937E-002	-8.86842E-005	0.00000E+000	-3.71531E-006	-5.39641E-002	4.19009E-002	3.57300E+000	9	...........
	148	1.98667	3.83713E-002	-8.90020E-005	0.00000E+000	-3.41513E-006	-5.39641E-002	3.83732E-002	3.57300E+000	9	...........
	149	2	3.48587E-002	-8.89541E-005	0.00000E+000	-3.10082E-006	-5.39641E-002	3.48615E-002	3.57300E+000	9	...........
	150	2.01333	3.13510E-002	-8.87290E-005	0.00000E+000	-2.78174E-006	-5.39641E-002	3.13502E-002	3.57300E+000	9	...........
	151	2.02667	2.78438E-002	-8.85477E-005	0.00000E+000	-2.46550E-006	-5.39641E-002	2.78438E-002	3.57300E+000	9	...........
	152	2.04	2.43679E-002	-8.89853E-005	0.00000E+000	-2.16839E-006	-5.39641E-002	2.43654E-002	3.57300E+000	9	...........
	153	2.05333	2.09226E-002	-8.88374E-005	0.00000E+000	-1.85871E-006	-5.39641E-002	2.09226E-002	3.57300E+000	9	...........
	154	2.06667	1.74843E-002	-8.88499E-005	0.00000E+000	-1.55348E-006	-5.39641E-002	1.74771E-002	3.57300E+000	9	...........
	155	2.08	1.40518E-002	-8.87999E-005	0.00000E+000	-1.24780E-006	-5.39641E-002	1.40451E-002	3.57300E+000	9	...........
	156	2.09333	1.06482E-002	-8.87676E-005	0.00000E+000	-9.45217E-007	-5.39641E-002	1.06408E-002	3.57300E+000	9	...........
	157	2.10667	7.25741E-003	-8.85790E-005	0.00000E+000	-6.42855E-007	-5.39641E-002	7.24295E-003	3.57300E+000	9	...........
	158	2.12	3.88435E-003	-8.86769E-005	0.00000E+000	-3.44452E-007	-5.39641E-002	3.87802E-003	3.57300E+000	9	...........
	159	2.13	9.69334E-004	-8.87221E-005	0.00000E+000	-8.60013E-008	-5.39641E-002	9.54068E-004	3.57300E+000	9	...........
STARTTIMEOFFSET	QUANT	955.79	Start Time Offset (s)
