EXPLAIN
TAG	PWR800_DISCHARGE
TITLE	LABEL	PWR Cyclic Charge Discharge (Cell) - Discharge Step	Test &Identifier
DATE	LABEL	10-7-2017	Date
TIME	LABEL	15:54:12	Time
NOTES	NOTES	3	&Notes...
	supercap test cell
	0.9mg
	6M KOH
PSTAT	PSTAT	IFC5000-01520	Potentiostat
CAPACITY	QUANT	1.00000E-003	Capacity (A-hr)
CELLTYPE	SELECTOR	1	&Cell Type
WORKINGCONNECTION	SELECTOR	0	&Working Lead
MAXDISCHARGETIME	VARIABLEANDUNITS	1.00000E+002	s	1.00000E+002	second(s)	Max &Discharge Time
DISCHARGEMODE	MULTIPARAM	0	9.00000E-005	&Discharge Mode	Constant Current	Amp(s)
SAMPLETIME	QUANT	1.00000E-002	Sa&mple Period (s)
DISCHARGESTOPAT1	MULTIPARAM	3	0.00000E+000	Discharge Stop At &1	Voltage < Limit	V
DISCHARGESTOPAT2	MULTIPARAM	0	0.00000E+000	Discharge Stop At &2	None	N/A
AESBHCSELECTOR	TOGGLE	F	Save Both Half Cells
IRCOMP	TOGGLE	F	IR &Measure
EOC	QUANT	0	Open Circuit (V)
SEQUENCER	TOGGLE	TRUE	Run as Sequence
PSTATMODEL	IQUANT	53	Pstat Model
PSTATSECTION	LABEL	IFC5000-01520	Pstat Section
PSTATSERIALNO	LABEL	01520	Pstat Serial Number
CTRLMODE	IQUANT	0	Control Mode
ELECTROMETER	IQUANT	1	RE=0 or CS=1
IESTAB	IQUANT	0	I/E Stability
CASPEED	IQUANT	4	Control Amp Speed
CONVENTION	IQUANT	1	Current Convention
ICHRANGE	IQUANT	2	Ich Range
ICHRANGEMODE	TOGGLE	T	Ich Auto Range
ICHOFFSETENABLE	TOGGLE	F	Ich Offset Enable
ICHOFFSET	QUANT	0	Ich Offset (V)
ICHFILTER	IQUANT	1	Ich Filter
VCHRANGE	IQUANT	2	Vch Range
VCHRANGEMODE	TOGGLE	T	Vch Auto Range
VCHOFFSETENABLE	TOGGLE	F	Vch Offset Enable
VCHOFFSET	QUANT	0	Vch Offset (V)
VCHFILTER	IQUANT	1	Vch Filter
IERANGELOWERLIMIT	IQUANT	9	I/E Range Lower Limit
IERANGEMODE	TOGGLE	F	I/E AutoRange
IERANGE	IQUANT	9	I/E Range
ACHSELECT	IQUANT	1	Ach Select
ACHRANGE	IQUANT	2	Ach Range
ACHOFFSETENABLE	TOGGLE	F	Ach Offset Enable
ACHOFFSET	QUANT	0	Ach Offset (V)
ACHFILTER	IQUANT	1	Ach Filter
CABLEID	IQUANT	14	Cable ID
DCCALDATE	LABEL	5-7-2017	DC Calibration Date
ACCALDATE	LABEL	12/3/2015	AC Calibration Date
FRAMEWORKVERSION	QUANT	7.01	Framework Version
INSTRUMENTVERSION	LABEL	4.00	Instrument Version
CURVE	TABLE	150
	Pt	T	Vf	Im	Vu	Pwr	Sig	Ach	Temp	IERange	Over
	#	s	V	A	V	W	V	V	deg C	#	bits
	0	0.013333	8.08808E-001	-8.88634E-005	0.00000E+000	-7.18734E-005	-5.39641E-002	8.08910E-001	3.57260E+000	9	...........
	1	0.026667	7.94953E-001	-8.84696E-005	0.00000E+000	-7.03292E-005	-5.39641E-002	7.95037E-001	3.57260E+000	9	...........
	2	0.04	7.81958E-001	-8.85800E-005	0.00000E+000	-6.92659E-005	-5.39641E-002	7.82077E-001	3.57260E+000	9	...........
	3	0.053333	7.69733E-001	-8.85352E-005	0.00000E+000	-6.81485E-005	-5.39641E-002	7.69860E-001	3.57260E+000	9	...........
	4	0.066667	7.58129E-001	-8.88811E-005	0.00000E+000	-6.73834E-005	-5.39641E-002	7.58254E-001	3.57260E+000	9	...........
	5	0.08	7.47041E-001	-8.87009E-005	0.00000E+000	-6.62632E-005	-5.39641E-002	7.47159E-001	3.57260E+000	9	...........
	6	0.093333	7.36374E-001	-8.87478E-005	0.00000E+000	-6.53515E-005	-5.39641E-002	7.36494E-001	3.57260E+000	9	...........
	7	0.106667	7.26166E-001	-8.87905E-005	0.00000E+000	-6.44767E-005	-5.39641E-002	7.26280E-001	3.57260E+000	9	...........
	8	0.12	7.16245E-001	-8.89155E-005	0.00000E+000	-6.36853E-005	-5.39641E-002	7.16395E-001	3.57260E+000	9	...........
	9	0.133333	7.06680E-001	-8.88020E-005	0.00000E+000	-6.27546E-005	-5.39641E-002	7.06810E-001	3.57260E+000	9	...........
	10	0.146667	6.97407E-001	-8.88509E-005	0.00000E+000	-6.19652E-005	-5.39641E-002	6.97555E-001	3.57260E+000	9	...........
	11	0.16	6.88408E-001	-8.87624E-005	0.00000E+000	-6.11048E-005	-5.39641E-002	6.88543E-001	3.57260E+000	9	...........
	12	0.173333	6.79660E-001	-8.88478E-005	0.00000E+000	-6.03863E-005	-5.39641E-002	6.79778E-001	3.57260E+000	9	...........
	13	0.186667	6.71131E-001	-8.88707E-005	0.00000E+000	-5.96439E-005	-5.39641E-002	6.71237E-001	3.57260E+000	9	...........
	14	0.2	6.62779E-001	-8.86665E-005	0.00000E+000	-5.87663E-005	-5.39641E-002	6.62893E-001	3.57260E+000	9	...........
	15	0.213333	6.54655E-001	-8.89176E-005	0.00000E+000	-5.82103E-005	-5.39641E-002	6.54766E-001	3.57260E+000	9	...........
	16	0.226667	6.46740E-001	-8.88739E-005	0.00000E+000	-5.74783E-005	-5.39641E-002	6.46842E-001	3.57260E+000	9	...........
	17	0.24	6.38968E-001	-8.87207E-005	0.00000E+000	-5.66896E-005	-5.39641E-002	6.39068E-001	3.57260E+000	9	...........
	18	0.253333	6.31342E-001	-8.89374E-005	0.00000E+000	-5.61500E-005	-5.39641E-002	6.31468E-001	3.57260E+000	9	...........
	19	0.266667	6.23907E-001	-8.88176E-005	0.00000E+000	-5.54139E-005	-5.39641E-002	6.24019E-001	3.57260E+000	9	...........
	20	0.28	6.16629E-001	-8.86248E-005	0.00000E+000	-5.46487E-005	-5.39641E-002	6.16723E-001	3.57260E+000	9	...........
	21	0.293333	6.09388E-001	-8.87447E-005	0.00000E+000	-5.40799E-005	-5.39641E-002	6.09517E-001	3.57260E+000	9	...........
	22	0.306667	6.02335E-001	-8.85717E-005	0.00000E+000	-5.33499E-005	-5.39641E-002	6.02483E-001	3.57260E+000	9	...........
	23	0.32	5.95413E-001	-8.86134E-005	0.00000E+000	-5.27615E-005	-5.39641E-002	5.95530E-001	3.57260E+000	9	...........
	24	0.333333	5.88578E-001	-8.86988E-005	0.00000E+000	-5.22061E-005	-5.39641E-002	5.88722E-001	3.57260E+000	9	...........
	25	0.346667	5.81848E-001	-8.89770E-005	0.00000E+000	-5.17711E-005	-5.39641E-002	5.81970E-001	3.57260E+000	9	...........
	26	0.36	5.75268E-001	-8.89989E-005	0.00000E+000	-5.11982E-005	-5.39641E-002	5.75383E-001	3.57260E+000	9	...........
	27	0.373333	5.68770E-001	-8.86832E-005	0.00000E+000	-5.04404E-005	-5.39641E-002	5.68862E-001	3.57260E+000	9	...........
	28	0.386667	5.62354E-001	-8.88697E-005	0.00000E+000	-4.99763E-005	-5.39641E-002	5.62431E-001	3.57260E+000	9	...........
	29	0.4	5.55988E-001	-8.86478E-005	0.00000E+000	-4.92871E-005	-5.39641E-002	5.56074E-001	3.57260E+000	9	...........
	30	0.413333	5.49746E-001	-8.89103E-005	0.00000E+000	-4.88781E-005	-5.39641E-002	5.49855E-001	3.57260E+000	9	...........
	31	0.426667	5.43585E-001	-8.88728E-005	0.00000E+000	-4.83099E-005	-5.39641E-002	5.43687E-001	3.57260E+000	9	...........
	32	0.44	5.37486E-001	-8.87978E-005	0.00000E+000	-4.77276E-005	-5.39641E-002	5.37599E-001	3.57260E+000	9	...........
	33	0.453333	5.31419E-001	-8.88061E-005	0.00000E+000	-4.71933E-005	-5.39641E-002	5.31535E-001	3.57260E+000	9	...........
	34	0.466667	5.25482E-001	-8.87259E-005	0.00000E+000	-4.66239E-005	-5.39641E-002	5.25570E-001	3.57260E+000	9	...........
	35	0.48	5.19582E-001	-8.89478E-005	0.00000E+000	-4.62157E-005	-5.39641E-002	5.19685E-001	3.57260E+000	9	...........
	36	0.493333	5.13794E-001	-8.87249E-005	0.00000E+000	-4.55863E-005	-5.39641E-002	5.13896E-001	3.57260E+000	9	...........
	37	0.506667	5.07987E-001	-8.88280E-005	0.00000E+000	-4.51234E-005	-5.39641E-002	5.08118E-001	3.57260E+000	9	...........
	38	0.52	5.02256E-001	-8.88509E-005	0.00000E+000	-4.46259E-005	-5.39641E-002	5.02404E-001	3.57260E+000	9	...........
	39	0.533333	4.96625E-001	-8.89103E-005	0.00000E+000	-4.41551E-005	-5.39641E-002	4.96735E-001	3.57260E+000	9	...........
	40	0.546667	4.91040E-001	-8.89666E-005	0.00000E+000	-4.36862E-005	-5.39641E-002	4.91103E-001	3.57260E+000	9	...........
	41	0.56	4.85472E-001	-8.88322E-005	0.00000E+000	-4.31255E-005	-5.39641E-002	4.85531E-001	3.57260E+000	9	...........
	42	0.573333	4.79975E-001	-8.88874E-005	0.00000E+000	-4.26637E-005	-5.39641E-002	4.80033E-001	3.57260E+000	9	...........
	43	0.586667	4.74454E-001	-8.87676E-005	0.00000E+000	-4.21162E-005	-5.39641E-002	4.74515E-001	3.57260E+000	9	...........
	44	0.6	4.68978E-001	-8.86957E-005	0.00000E+000	-4.15963E-005	-5.39641E-002	4.69035E-001	3.57260E+000	9	...........
	45	0.613333	4.63536E-001	-8.86582E-005	0.00000E+000	-4.10962E-005	-5.39641E-002	4.63596E-001	3.57260E+000	9	...........
	46	0.626667	4.58124E-001	-8.90947E-005	0.00000E+000	-4.08164E-005	-5.39641E-002	4.58185E-001	3.57260E+000	9	...........
	47	0.64	4.52738E-001	-8.87988E-005	0.00000E+000	-4.02026E-005	-5.39641E-002	4.52800E-001	3.57260E+000	9	...........
	48	0.653333	4.47398E-001	-8.89510E-005	0.00000E+000	-3.97964E-005	-5.39641E-002	4.47467E-001	3.57260E+000	9	...........
	49	0.666667	4.42108E-001	-8.87634E-005	0.00000E+000	-3.92430E-005	-5.39641E-002	4.42169E-001	3.57260E+000	9	...........
	50	0.68	4.36837E-001	-8.87686E-005	0.00000E+000	-3.87774E-005	-5.39641E-002	4.36898E-001	3.57260E+000	9	...........
	51	0.693333	4.31593E-001	-8.87718E-005	0.00000E+000	-3.83132E-005	-5.39641E-002	4.31659E-001	3.57260E+000	9	...........
	52	0.706667	4.26368E-001	-8.89353E-005	0.00000E+000	-3.79192E-005	-5.39641E-002	4.26427E-001	3.57260E+000	9	...........
	53	0.72	4.21170E-001	-8.88759E-005	0.00000E+000	-3.74319E-005	-5.39641E-002	4.21228E-001	3.57260E+000	9	...........
	54	0.733333	4.15982E-001	-8.87592E-005	0.00000E+000	-3.69222E-005	-5.39641E-002	4.16040E-001	3.57260E+000	9	...........
	55	0.746667	4.10826E-001	-8.89510E-005	0.00000E+000	-3.65433E-005	-5.39641E-002	4.10879E-001	3.57260E+000	9	...........
	56	0.76	4.05688E-001	-8.87759E-005	0.00000E+000	-3.60153E-005	-5.39641E-002	4.05746E-001	3.57312E+000	9	...........
	57	0.773333	4.00567E-001	-8.88218E-005	0.00000E+000	-3.55790E-005	-5.39641E-002	4.00619E-001	3.57400E+000	9	...........
	58	0.786667	3.95459E-001	-8.88843E-005	0.00000E+000	-3.51501E-005	-5.39641E-002	3.95507E-001	3.57400E+000	9	...........
	59	0.8	3.90378E-001	-8.89395E-005	0.00000E+000	-3.47200E-005	-5.39641E-002	3.90422E-001	3.57400E+000	9	...........
	60	0.813333	3.85301E-001	-8.88520E-005	0.00000E+000	-3.42348E-005	-5.39641E-002	3.85347E-001	3.57400E+000	9	...........
	61	0.826667	3.80238E-001	-8.87853E-005	0.00000E+000	-3.37596E-005	-5.39641E-002	3.80289E-001	3.57400E+000	9	...........
	62	0.84	3.75195E-001	-8.89343E-005	0.00000E+000	-3.33677E-005	-5.39641E-002	3.75237E-001	3.57400E+000	9	...........
	63	0.853333	3.70157E-001	-8.88332E-005	0.00000E+000	-3.28823E-005	-5.39641E-002	3.70202E-001	3.57400E+000	9	...........
	64	0.866667	3.65130E-001	-8.89999E-005	0.00000E+000	-3.24966E-005	-5.39641E-002	3.65175E-001	3.57400E+000	9	...........
	65	0.88	3.60119E-001	-8.87603E-005	0.00000E+000	-3.19642E-005	-5.39641E-002	3.60165E-001	3.57400E+000	9	...........
	66	0.893333	3.55129E-001	-8.89478E-005	0.00000E+000	-3.15880E-005	-5.39641E-002	3.55170E-001	3.57400E+000	9	...........
	67	0.906667	3.50162E-001	-8.91739E-005	0.00000E+000	-3.12253E-005	-5.39641E-002	3.50204E-001	3.57400E+000	9	...........
	68	0.92	3.45187E-001	-8.88061E-005	0.00000E+000	-3.06547E-005	-5.39641E-002	3.45230E-001	3.57400E+000	9	...........
	69	0.933333	3.40228E-001	-8.87249E-005	0.00000E+000	-3.01867E-005	-5.39641E-002	3.40266E-001	3.57400E+000	9	...........
	70	0.946667	3.35290E-001	-8.86894E-005	0.00000E+000	-2.97367E-005	-5.39641E-002	3.35331E-001	3.57400E+000	9	...........
	71	0.96	3.30371E-001	-8.88353E-005	0.00000E+000	-2.93486E-005	-5.39641E-002	3.30409E-001	3.57400E+000	9	...........
	72	0.97333	3.25465E-001	-8.87030E-005	0.00000E+000	-2.88697E-005	-5.39641E-002	3.25499E-001	3.57400E+000	9	...........
	73	0.98667	3.20560E-001	-8.88249E-005	0.00000E+000	-2.84737E-005	-5.39641E-002	3.20600E-001	3.57400E+000	9	...........
	74	1	3.15655E-001	-8.84665E-005	0.00000E+000	-2.79249E-005	-5.39641E-002	3.15691E-001	3.57400E+000	9	...........
	75	1.01333	3.10762E-001	-8.88749E-005	0.00000E+000	-2.76189E-005	-5.39641E-002	3.10801E-001	3.57400E+000	9	...........
	76	1.02667	3.05894E-001	-8.88520E-005	0.00000E+000	-2.71793E-005	-5.39641E-002	3.05936E-001	3.57400E+000	9	...........
	77	1.04	3.01058E-001	-8.89853E-005	0.00000E+000	-2.67898E-005	-5.39641E-002	3.01096E-001	3.57400E+000	9	...........
	78	1.05333	2.96233E-001	-8.86071E-005	0.00000E+000	-2.62484E-005	-5.39641E-002	2.96269E-001	3.57400E+000	9	...........
	79	1.06667	2.91417E-001	-8.86988E-005	0.00000E+000	-2.58484E-005	-5.39641E-002	2.91452E-001	3.57400E+000	9	...........
	80	1.08	2.86616E-001	-8.87697E-005	0.00000E+000	-2.54428E-005	-5.39641E-002	2.86657E-001	3.57400E+000	9	...........
	81	1.09333	2.81825E-001	-8.88478E-005	0.00000E+000	-2.50396E-005	-5.39641E-002	2.81864E-001	3.57400E+000	9	...........
	82	1.10667	2.77056E-001	-8.89239E-005	0.00000E+000	-2.46369E-005	-5.39641E-002	2.77092E-001	3.57400E+000	9	...........
	83	1.12	2.72309E-001	-8.85415E-005	0.00000E+000	-2.41107E-005	-5.39641E-002	2.72342E-001	3.57400E+000	9	...........
	84	1.13333	2.67558E-001	-8.87457E-005	0.00000E+000	-2.37446E-005	-5.39641E-002	2.67592E-001	3.57400E+000	9	...........
	85	1.14667	2.62829E-001	-8.89853E-005	0.00000E+000	-2.33879E-005	-5.39641E-002	2.62870E-001	3.57400E+000	9	...........
	86	1.16	2.58137E-001	-8.86863E-005	0.00000E+000	-2.28932E-005	-5.39641E-002	2.58165E-001	3.57400E+000	9	...........
	87	1.17333	2.53449E-001	-8.89603E-005	0.00000E+000	-2.25469E-005	-5.39641E-002	2.53481E-001	3.57400E+000	9	...........
	88	1.18667	2.48786E-001	-8.88155E-005	0.00000E+000	-2.20960E-005	-5.39641E-002	2.48814E-001	3.57400E+000	9	...........
	89	1.2	2.44134E-001	-8.86894E-005	0.00000E+000	-2.16521E-005	-5.39641E-002	2.44158E-001	3.57400E+000	9	...........
	90	1.21333	2.39495E-001	-8.89134E-005	0.00000E+000	-2.12943E-005	-5.39641E-002	2.39519E-001	3.57400E+000	9	...........
	91	1.22667	2.34875E-001	-8.87478E-005	0.00000E+000	-2.08446E-005	-5.39641E-002	2.34896E-001	3.57400E+000	9	...........
	92	1.24	2.30269E-001	-8.86394E-005	0.00000E+000	-2.04109E-005	-5.39641E-002	2.30289E-001	3.57400E+000	9	...........
	93	1.25333	2.25680E-001	-8.91375E-005	0.00000E+000	-2.01165E-005	-5.39641E-002	2.25703E-001	3.57400E+000	9	...........
	94	1.26667	2.21111E-001	-8.89843E-005	0.00000E+000	-1.96754E-005	-5.39641E-002	2.21134E-001	3.57400E+000	9	...........
	95	1.28	2.16569E-001	-8.88343E-005	0.00000E+000	-1.92387E-005	-5.39641E-002	2.16587E-001	3.57400E+000	9	...........
	96	1.29333	2.12052E-001	-8.89645E-005	0.00000E+000	-1.88651E-005	-5.39641E-002	2.12074E-001	3.57400E+000	9	...........
	97	1.30667	2.07548E-001	-8.87853E-005	0.00000E+000	-1.84272E-005	-5.39641E-002	2.07573E-001	3.57400E+000	9	...........
	98	1.32	2.03066E-001	-8.87415E-005	0.00000E+000	-1.80204E-005	-5.39641E-002	2.03093E-001	3.57400E+000	9	...........
	99	1.33333	1.98582E-001	-8.86967E-005	0.00000E+000	-1.76136E-005	-5.39641E-002	1.98611E-001	3.57400E+000	9	...........
	100	1.34667	1.94148E-001	-8.89166E-005	0.00000E+000	-1.72630E-005	-5.39641E-002	1.94171E-001	3.57400E+000	9	...........
	101	1.36	1.89743E-001	-8.89614E-005	0.00000E+000	-1.68798E-005	-5.39641E-002	1.89759E-001	3.57400E+000	9	...........
	102	1.37333	1.85343E-001	-8.85613E-005	0.00000E+000	-1.64142E-005	-5.39641E-002	1.85367E-001	3.57400E+000	9	...........
	103	1.38667	1.80962E-001	-8.89207E-005	0.00000E+000	-1.60913E-005	-5.39641E-002	1.80982E-001	3.57400E+000	9	...........
	104	1.4	1.76597E-001	-8.88916E-005	0.00000E+000	-1.56979E-005	-5.39641E-002	1.76612E-001	3.57400E+000	9	...........
	105	1.41333	1.72246E-001	-8.86269E-005	0.00000E+000	-1.52657E-005	-5.39641E-002	1.72262E-001	3.57400E+000	9	...........
	106	1.42667	1.67899E-001	-8.88759E-005	0.00000E+000	-1.49222E-005	-5.39641E-002	1.67914E-001	3.57400E+000	9	...........
	107	1.44	1.63594E-001	-8.88030E-005	0.00000E+000	-1.45277E-005	-5.39641E-002	1.63604E-001	3.57400E+000	9	...........
	108	1.45333	1.59300E-001	-8.88218E-005	0.00000E+000	-1.41493E-005	-5.39641E-002	1.59311E-001	3.57400E+000	9	...........
	109	1.46667	1.55025E-001	-8.86311E-005	0.00000E+000	-1.37400E-005	-5.39641E-002	1.55036E-001	3.57400E+000	9	...........
	110	1.48	1.50783E-001	-8.89739E-005	0.00000E+000	-1.34158E-005	-5.39641E-002	1.50797E-001	3.57400E+000	9	...........
	111	1.49333	1.46557E-001	-8.86155E-005	0.00000E+000	-1.29872E-005	-5.39641E-002	1.46564E-001	3.57400E+000	9	...........
	112	1.50667	1.42348E-001	-8.87415E-005	0.00000E+000	-1.26322E-005	-5.39641E-002	1.42360E-001	3.57400E+000	9	...........
	113	1.52	1.38162E-001	-8.88759E-005	0.00000E+000	-1.22793E-005	-5.39641E-002	1.38173E-001	3.57400E+000	9	...........
	114	1.53333	1.34003E-001	-8.89770E-005	0.00000E+000	-1.19232E-005	-5.39641E-002	1.34012E-001	3.57400E+000	9	...........
	115	1.54667	1.29865E-001	-8.86269E-005	0.00000E+000	-1.15096E-005	-5.39641E-002	1.29871E-001	3.57400E+000	9	...........
	116	1.56	1.25742E-001	-8.87363E-005	0.00000E+000	-1.11579E-005	-5.39641E-002	1.25749E-001	3.57400E+000	9	...........
	117	1.57333	1.21616E-001	-8.86686E-005	0.00000E+000	-1.07835E-005	-5.39641E-002	1.21628E-001	3.57400E+000	9	...........
	118	1.58667	1.17508E-001	-8.86738E-005	0.00000E+000	-1.04199E-005	-5.39641E-002	1.17523E-001	3.57400E+000	9	...........
	119	1.6	1.13414E-001	-8.87780E-005	0.00000E+000	-1.00687E-005	-5.39641E-002	1.13427E-001	3.57400E+000	9	...........
	120	1.61333	1.09338E-001	-8.88666E-005	0.00000E+000	-9.71648E-006	-5.39641E-002	1.09343E-001	3.57400E+000	9	...........
	121	1.62667	1.05277E-001	-8.88072E-005	0.00000E+000	-9.34931E-006	-5.39641E-002	1.05283E-001	3.57400E+000	9	...........
	122	1.64	1.01243E-001	-8.88197E-005	0.00000E+000	-8.99240E-006	-5.39641E-002	1.01250E-001	3.57400E+000	9	...........
	123	1.65333	9.72126E-002	-8.89551E-005	0.00000E+000	-8.64756E-006	-5.39641E-002	9.72215E-002	3.57400E+000	9	...........
	124	1.66667	9.32144E-002	-8.88363E-005	0.00000E+000	-8.28083E-006	-5.39641E-002	9.32227E-002	3.57400E+000	9	...........
	125	1.68	8.92381E-002	-8.87478E-005	0.00000E+000	-7.91968E-006	-5.39641E-002	8.92441E-002	3.57400E+000	9	...........
	126	1.69333	8.52798E-002	-8.88280E-005	0.00000E+000	-7.57523E-006	-5.39641E-002	8.52912E-002	3.57400E+000	9	...........
	127	1.70667	8.13396E-002	-8.88228E-005	0.00000E+000	-7.22481E-006	-5.39641E-002	8.13418E-002	3.57400E+000	9	...........
	128	1.72	7.74224E-002	-8.89364E-005	0.00000E+000	-6.88566E-006	-5.39641E-002	7.74262E-002	3.57400E+000	9	...........
	129	1.73333	7.35291E-002	-8.86394E-005	0.00000E+000	-6.51758E-006	-5.39641E-002	7.35263E-002	3.57400E+000	9	...........
	130	1.74667	6.96315E-002	-8.89833E-005	0.00000E+000	-6.19604E-006	-5.39641E-002	6.96272E-002	3.57400E+000	9	...........
	131	1.76	6.57668E-002	-8.89280E-005	0.00000E+000	-5.84851E-006	-5.39641E-002	6.57629E-002	3.57362E+000	9	...........
	132	1.77333	6.19139E-002	-8.88697E-005	0.00000E+000	-5.50227E-006	-5.39641E-002	6.19131E-002	3.57300E+000	9	...........
	133	1.78667	5.80812E-002	-8.88582E-005	0.00000E+000	-5.16099E-006	-5.39641E-002	5.80791E-002	3.57300E+000	9	...........
	134	1.8	5.42616E-002	-8.87197E-005	0.00000E+000	-4.81407E-006	-5.39641E-002	5.42538E-002	3.57300E+000	9	...........
	135	1.81333	5.04521E-002	-8.85602E-005	0.00000E+000	-4.46805E-006	-5.39641E-002	5.04447E-002	3.57300E+000	9	...........
	136	1.82667	4.66771E-002	-8.89603E-005	0.00000E+000	-4.15241E-006	-5.39641E-002	4.66834E-002	3.57300E+000	9	...........
	137	1.84	4.29056E-002	-8.89541E-005	0.00000E+000	-3.81663E-006	-5.39641E-002	4.29099E-002	3.57300E+000	9	...........
	138	1.85333	3.91456E-002	-8.86269E-005	0.00000E+000	-3.46936E-006	-5.39641E-002	3.91515E-002	3.57300E+000	9	...........
	139	1.86667	3.53997E-002	-8.86144E-005	0.00000E+000	-3.13692E-006	-5.39641E-002	3.54052E-002	3.57300E+000	9	...........
	140	1.88	3.16939E-002	-8.86280E-005	0.00000E+000	-2.80896E-006	-5.39641E-002	3.16948E-002	3.57300E+000	9	...........
	141	1.89333	2.79976E-002	-8.88228E-005	0.00000E+000	-2.48683E-006	-5.39641E-002	2.79951E-002	3.57300E+000	9	...........
	142	1.90667	2.43167E-002	-8.88811E-005	0.00000E+000	-2.16130E-006	-5.39641E-002	2.43135E-002	3.57300E+000	9	...........
	143	1.92	2.06574E-002	-8.86790E-005	0.00000E+000	-1.83188E-006	-5.39641E-002	2.06503E-002	3.57300E+000	9	...........
	144	1.93333	1.70187E-002	-8.87061E-005	0.00000E+000	-1.50966E-006	-5.39641E-002	1.70154E-002	3.57300E+000	9	...........
	145	1.94667	1.34097E-002	-8.87363E-005	0.00000E+000	-1.18993E-006	-5.39641E-002	1.34021E-002	3.57300E+000	9	...........
	146	1.96	9.82136E-003	-8.87342E-005	0.00000E+000	-8.71491E-007	-5.39641E-002	9.81304E-003	3.57300E+000	9	...........
	147	1.97333	6.24499E-003	-8.89645E-005	0.00000E+000	-5.55582E-007	-5.39641E-002	6.23394E-003	3.57300E+000	9	...........
	148	1.98667	2.66863E-003	-8.87780E-005	0.00000E+000	-2.36916E-007	-5.39641E-002	2.65310E-003	3.57300E+000	9	...........
	149	1.99167	2.13935E-004	-8.89971E-005	0.00000E+000	-1.90396E-008	-5.39641E-002	1.98557E-004	3.57300E+000	9	...........
STARTTIMEOFFSET	QUANT	2774.888	Start Time Offset (s)
