EXPLAIN
TAG	PWR800_DISCHARGE
TITLE	LABEL	PWR Cyclic Charge Discharge (Cell) - Discharge Step	Test &Identifier
DATE	LABEL	10-7-2017	Date
TIME	LABEL	15:04:39	Time
NOTES	NOTES	3	&Notes...
	supercap test cell
	0.9mg
	6M KOH
PSTAT	PSTAT	IFC5000-01520	Potentiostat
CAPACITY	QUANT	1.00000E-003	Capacity (A-hr)
CELLTYPE	SELECTOR	1	&Cell Type
WORKINGCONNECTION	SELECTOR	0	&Working Lead
MAXDISCHARGETIME	VARIABLEANDUNITS	1.00000E+002	s	1.00000E+002	second(s)	Max &Discharge Time
DISCHARGEMODE	MULTIPARAM	0	9.00000E-005	&Discharge Mode	Constant Current	Amp(s)
SAMPLETIME	QUANT	1.00000E-002	Sa&mple Period (s)
DISCHARGESTOPAT1	MULTIPARAM	3	0.00000E+000	Discharge Stop At &1	Voltage < Limit	V
DISCHARGESTOPAT2	MULTIPARAM	0	0.00000E+000	Discharge Stop At &2	None	N/A
AESBHCSELECTOR	TOGGLE	F	Save Both Half Cells
IRCOMP	TOGGLE	F	IR &Measure
EOC	QUANT	0	Open Circuit (V)
SEQUENCER	TOGGLE	TRUE	Run as Sequence
PSTATMODEL	IQUANT	53	Pstat Model
PSTATSECTION	LABEL	IFC5000-01520	Pstat Section
PSTATSERIALNO	LABEL	01520	Pstat Serial Number
CTRLMODE	IQUANT	0	Control Mode
ELECTROMETER	IQUANT	1	RE=0 or CS=1
IESTAB	IQUANT	0	I/E Stability
CASPEED	IQUANT	4	Control Amp Speed
CONVENTION	IQUANT	1	Current Convention
ICHRANGE	IQUANT	2	Ich Range
ICHRANGEMODE	TOGGLE	T	Ich Auto Range
ICHOFFSETENABLE	TOGGLE	F	Ich Offset Enable
ICHOFFSET	QUANT	0	Ich Offset (V)
ICHFILTER	IQUANT	1	Ich Filter
VCHRANGE	IQUANT	2	Vch Range
VCHRANGEMODE	TOGGLE	T	Vch Auto Range
VCHOFFSETENABLE	TOGGLE	F	Vch Offset Enable
VCHOFFSET	QUANT	0	Vch Offset (V)
VCHFILTER	IQUANT	1	Vch Filter
IERANGELOWERLIMIT	IQUANT	9	I/E Range Lower Limit
IERANGEMODE	TOGGLE	F	I/E AutoRange
IERANGE	IQUANT	9	I/E Range
ACHSELECT	IQUANT	1	Ach Select
ACHRANGE	IQUANT	2	Ach Range
ACHOFFSETENABLE	TOGGLE	F	Ach Offset Enable
ACHOFFSET	QUANT	0	Ach Offset (V)
ACHFILTER	IQUANT	1	Ach Filter
CABLEID	IQUANT	14	Cable ID
DCCALDATE	LABEL	5-7-2017	DC Calibration Date
ACCALDATE	LABEL	12/3/2015	AC Calibration Date
FRAMEWORKVERSION	QUANT	7.01	Framework Version
INSTRUMENTVERSION	LABEL	4.00	Instrument Version
CURVE	TABLE	169
	Pt	T	Vf	Im	Vu	Pwr	Sig	Ach	Temp	IERange	Over
	#	s	V	A	V	W	V	V	deg C	#	bits
	0	0.013333	8.44799E-001	-8.87144E-005	0.00000E+000	-7.49458E-005	-5.39641E-002	8.44942E-001	3.57190E+000	9	...........
	1	0.026667	8.33620E-001	-8.83925E-005	0.00000E+000	-7.36857E-005	-5.39641E-002	8.33772E-001	3.57190E+000	9	...........
	2	0.04	8.23086E-001	-8.87197E-005	0.00000E+000	-7.30239E-005	-5.39641E-002	8.23228E-001	3.57190E+000	9	...........
	3	0.053333	8.12981E-001	-8.86290E-005	0.00000E+000	-7.20537E-005	-5.39641E-002	8.13137E-001	3.57190E+000	9	...........
	4	0.066667	8.03317E-001	-8.86749E-005	0.00000E+000	-7.12340E-005	-5.39641E-002	8.03470E-001	3.57190E+000	9	...........
	5	0.08	7.93955E-001	-8.85634E-005	0.00000E+000	-7.03153E-005	-5.39641E-002	7.94091E-001	3.57190E+000	9	...........
	6	0.093333	7.84868E-001	-8.85363E-005	0.00000E+000	-6.94893E-005	-5.39641E-002	7.84996E-001	3.57190E+000	9	...........
	7	0.106667	7.76053E-001	-8.85530E-005	0.00000E+000	-6.87218E-005	-5.39641E-002	7.76192E-001	3.57190E+000	9	...........
	8	0.12	7.67458E-001	-8.87311E-005	0.00000E+000	-6.80974E-005	-5.39641E-002	7.67605E-001	3.57190E+000	9	...........
	9	0.133333	7.59074E-001	-8.87165E-005	0.00000E+000	-6.73425E-005	-5.39641E-002	7.59189E-001	3.57190E+000	9	...........
	10	0.146667	7.50878E-001	-8.87384E-005	0.00000E+000	-6.66317E-005	-5.39641E-002	7.50999E-001	3.57190E+000	9	...........
	11	0.16	7.42846E-001	-8.86499E-005	0.00000E+000	-6.58532E-005	-5.39641E-002	7.42984E-001	3.57190E+000	9	...........
	12	0.173333	7.34976E-001	-8.87238E-005	0.00000E+000	-6.52098E-005	-5.39641E-002	7.35103E-001	3.57190E+000	9	...........
	13	0.186667	7.27300E-001	-8.84738E-005	0.00000E+000	-6.43470E-005	-5.39641E-002	7.27399E-001	3.57190E+000	9	...........
	14	0.2	7.19740E-001	-8.86863E-005	0.00000E+000	-6.38311E-005	-5.39641E-002	7.19845E-001	3.57190E+000	9	...........
	15	0.213333	7.12273E-001	-8.86144E-005	0.00000E+000	-6.31177E-005	-5.39641E-002	7.12385E-001	3.57190E+000	9	...........
	16	0.226667	7.04987E-001	-8.84415E-005	0.00000E+000	-6.23501E-005	-5.39641E-002	7.05105E-001	3.57190E+000	9	...........
	17	0.24	6.97799E-001	-8.86238E-005	0.00000E+000	-6.18416E-005	-5.39641E-002	6.97888E-001	3.57190E+000	9	...........
	18	0.253333	6.90704E-001	-8.86592E-005	0.00000E+000	-6.12373E-005	-5.39641E-002	6.90798E-001	3.57190E+000	9	...........
	19	0.266667	6.83737E-001	-8.85946E-005	0.00000E+000	-6.05754E-005	-5.39641E-002	6.83839E-001	3.57190E+000	9	...........
	20	0.28	6.76879E-001	-8.85613E-005	0.00000E+000	-5.99453E-005	-5.39641E-002	6.76944E-001	3.57190E+000	9	...........
	21	0.293333	6.70092E-001	-8.84748E-005	0.00000E+000	-5.92862E-005	-5.39641E-002	6.70175E-001	3.57190E+000	9	...........
	22	0.306667	6.63392E-001	-8.82769E-005	0.00000E+000	-5.85621E-005	-5.39641E-002	6.63463E-001	3.57190E+000	9	...........
	23	0.32	6.56805E-001	-8.85675E-005	0.00000E+000	-5.81716E-005	-5.39641E-002	6.56858E-001	3.57190E+000	9	...........
	24	0.333333	6.50275E-001	-8.85196E-005	0.00000E+000	-5.75621E-005	-5.39641E-002	6.50333E-001	3.57190E+000	9	...........
	25	0.346667	6.43819E-001	-8.86571E-005	0.00000E+000	-5.70792E-005	-5.39641E-002	6.43881E-001	3.57165E+000	9	...........
	26	0.36	6.37408E-001	-8.85738E-005	0.00000E+000	-5.64577E-005	-5.39641E-002	6.37476E-001	3.57150E+000	9	...........
	27	0.373333	6.31093E-001	-8.85061E-005	0.00000E+000	-5.58556E-005	-5.39641E-002	6.31144E-001	3.57150E+000	9	...........
	28	0.386667	6.24832E-001	-8.88968E-005	0.00000E+000	-5.55456E-005	-5.39641E-002	6.24889E-001	3.57150E+000	9	...........
	29	0.4	6.18641E-001	-8.84894E-005	0.00000E+000	-5.47432E-005	-5.39641E-002	6.18684E-001	3.57150E+000	9	...........
	30	0.413333	6.12490E-001	-8.88113E-005	0.00000E+000	-5.43961E-005	-5.39641E-002	6.12562E-001	3.57150E+000	9	...........
	31	0.426667	6.06384E-001	-8.86832E-005	0.00000E+000	-5.37761E-005	-5.39641E-002	6.06499E-001	3.57150E+000	9	...........
	32	0.44	6.00367E-001	-8.85113E-005	0.00000E+000	-5.31393E-005	-5.39641E-002	6.00481E-001	3.57150E+000	9	...........
	33	0.453333	5.94426E-001	-8.86988E-005	0.00000E+000	-5.27249E-005	-5.39641E-002	5.94498E-001	3.57150E+000	9	...........
	34	0.466667	5.88499E-001	-8.87488E-005	0.00000E+000	-5.22286E-005	-5.39641E-002	5.88588E-001	3.57150E+000	9	...........
	35	0.48	5.82594E-001	-8.86853E-005	0.00000E+000	-5.16675E-005	-5.39641E-002	5.82706E-001	3.57150E+000	9	...........
	36	0.493333	5.76761E-001	-8.87395E-005	0.00000E+000	-5.11814E-005	-5.39641E-002	5.76857E-001	3.57150E+000	9	...........
	37	0.506667	5.70974E-001	-8.87301E-005	0.00000E+000	-5.06625E-005	-5.39641E-002	5.71060E-001	3.57150E+000	9	...........
	38	0.52	5.65203E-001	-8.87968E-005	0.00000E+000	-5.01882E-005	-5.39641E-002	5.65304E-001	3.57150E+000	9	...........
	39	0.533333	5.59428E-001	-8.88259E-005	0.00000E+000	-4.96917E-005	-5.39641E-002	5.59525E-001	3.57150E+000	9	...........
	40	0.546667	5.53732E-001	-8.87551E-005	0.00000E+000	-4.91466E-005	-5.39641E-002	5.53811E-001	3.57150E+000	9	...........
	41	0.56	5.48063E-001	-8.84540E-005	0.00000E+000	-4.84783E-005	-5.39641E-002	5.48155E-001	3.57150E+000	9	...........
	42	0.573333	5.42439E-001	-8.83915E-005	0.00000E+000	-4.79470E-005	-5.39641E-002	5.42501E-001	3.57150E+000	9	...........
	43	0.586667	5.36799E-001	-8.86978E-005	0.00000E+000	-4.76128E-005	-5.39641E-002	5.36894E-001	3.57150E+000	9	...........
	44	0.6	5.31193E-001	-8.89134E-005	0.00000E+000	-4.72302E-005	-5.39641E-002	5.31302E-001	3.57150E+000	9	...........
	45	0.613333	5.25636E-001	-8.87978E-005	0.00000E+000	-4.66753E-005	-5.39641E-002	5.25734E-001	3.57150E+000	9	...........
	46	0.626667	5.20141E-001	-8.87061E-005	0.00000E+000	-4.61397E-005	-5.39641E-002	5.20205E-001	3.57150E+000	9	...........
	47	0.64	5.14648E-001	-8.87155E-005	0.00000E+000	-4.56572E-005	-5.39641E-002	5.14708E-001	3.57150E+000	9	...........
	48	0.653333	5.09123E-001	-8.85050E-005	0.00000E+000	-4.50600E-005	-5.39641E-002	5.09238E-001	3.57150E+000	9	...........
	49	0.666667	5.03688E-001	-8.84884E-005	0.00000E+000	-4.45705E-005	-5.39641E-002	5.03798E-001	3.57150E+000	9	...........
	50	0.68	4.98274E-001	-8.86561E-005	0.00000E+000	-4.41751E-005	-5.39641E-002	4.98364E-001	3.57150E+000	9	...........
	51	0.693333	4.92889E-001	-8.88624E-005	0.00000E+000	-4.37993E-005	-5.39641E-002	4.92964E-001	3.57150E+000	9	...........
	52	0.706667	4.87500E-001	-8.85259E-005	0.00000E+000	-4.31564E-005	-5.39641E-002	4.87576E-001	3.57150E+000	9	...........
	53	0.72	4.82190E-001	-8.85811E-005	0.00000E+000	-4.27129E-005	-5.39641E-002	4.82239E-001	3.57150E+000	9	...........
	54	0.733333	4.76847E-001	-8.83685E-005	0.00000E+000	-4.21383E-005	-5.39641E-002	4.76897E-001	3.57150E+000	9	...........
	55	0.746667	4.71510E-001	-8.87853E-005	0.00000E+000	-4.18632E-005	-5.39641E-002	4.71556E-001	3.57150E+000	9	...........
	56	0.76	4.66198E-001	-8.87165E-005	0.00000E+000	-4.13595E-005	-5.39641E-002	4.66245E-001	3.57150E+000	9	...........
	57	0.773333	4.60918E-001	-8.85259E-005	0.00000E+000	-4.08032E-005	-5.39641E-002	4.60967E-001	3.57150E+000	9	...........
	58	0.786667	4.55667E-001	-8.86624E-005	0.00000E+000	-4.04005E-005	-5.39641E-002	4.55718E-001	3.57150E+000	9	...........
	59	0.8	4.50443E-001	-8.88103E-005	0.00000E+000	-4.00040E-005	-5.39641E-002	4.50489E-001	3.57150E+000	9	...........
	60	0.813333	4.45240E-001	-8.86624E-005	0.00000E+000	-3.94760E-005	-5.39641E-002	4.45282E-001	3.57150E+000	9	...........
	61	0.826667	4.40063E-001	-8.85686E-005	0.00000E+000	-3.89758E-005	-5.39641E-002	4.40105E-001	3.57150E+000	9	...........
	62	0.84	4.34906E-001	-8.88405E-005	0.00000E+000	-3.86373E-005	-5.39641E-002	4.34953E-001	3.57150E+000	9	...........
	63	0.853333	4.29775E-001	-8.84363E-005	0.00000E+000	-3.80077E-005	-5.39641E-002	4.29816E-001	3.57150E+000	9	...........
	64	0.866667	4.24653E-001	-8.82331E-005	0.00000E+000	-3.74684E-005	-5.39641E-002	4.24698E-001	3.57150E+000	9	...........
	65	0.88	4.19566E-001	-8.85915E-005	0.00000E+000	-3.71700E-005	-5.39641E-002	4.19606E-001	3.57150E+000	9	...........
	66	0.893333	4.14488E-001	-8.84352E-005	0.00000E+000	-3.66553E-005	-5.39641E-002	4.14530E-001	3.57150E+000	9	...........
	67	0.906667	4.09440E-001	-8.86915E-005	0.00000E+000	-3.63138E-005	-5.39641E-002	4.09478E-001	3.57150E+000	9	...........
	68	0.92	4.04421E-001	-8.87665E-005	0.00000E+000	-3.58990E-005	-5.39641E-002	4.04457E-001	3.57150E+000	9	...........
	69	0.933333	3.99412E-001	-8.85811E-005	0.00000E+000	-3.53803E-005	-5.39641E-002	3.99453E-001	3.57150E+000	9	...........
	70	0.946667	3.94440E-001	-8.85530E-005	0.00000E+000	-3.49288E-005	-5.39641E-002	3.94475E-001	3.57150E+000	9	...........
	71	0.96	3.89497E-001	-8.86019E-005	0.00000E+000	-3.45101E-005	-5.39641E-002	3.89530E-001	3.57150E+000	9	...........
	72	0.97333	3.84574E-001	-8.85457E-005	0.00000E+000	-3.40523E-005	-5.39641E-002	3.84605E-001	3.57150E+000	9	...........
	73	0.98667	3.79661E-001	-8.85467E-005	0.00000E+000	-3.36178E-005	-5.39641E-002	3.79693E-001	3.57150E+000	9	...........
	74	1	3.74778E-001	-8.86728E-005	0.00000E+000	-3.32326E-005	-5.39641E-002	3.74808E-001	3.57150E+000	9	...........
	75	1.01333	3.69917E-001	-8.84592E-005	0.00000E+000	-3.27225E-005	-5.39641E-002	3.69947E-001	3.57150E+000	9	...........
	76	1.02667	3.65055E-001	-8.86061E-005	0.00000E+000	-3.23461E-005	-5.39641E-002	3.65089E-001	3.57150E+000	9	...........
	77	1.04	3.60232E-001	-8.85238E-005	0.00000E+000	-3.18891E-005	-5.39641E-002	3.60260E-001	3.57150E+000	9	...........
	78	1.05333	3.55425E-001	-8.85061E-005	0.00000E+000	-3.14573E-005	-5.39641E-002	3.55458E-001	3.57150E+000	9	...........
	79	1.06667	3.50649E-001	-8.87061E-005	0.00000E+000	-3.11047E-005	-5.39641E-002	3.50682E-001	3.57150E+000	9	...........
	80	1.08	3.45907E-001	-8.89009E-005	0.00000E+000	-3.07514E-005	-5.39641E-002	3.45933E-001	3.57150E+000	9	...........
	81	1.09333	3.41185E-001	-8.85477E-005	0.00000E+000	-3.02112E-005	-5.39641E-002	3.41218E-001	3.57150E+000	9	...........
	82	1.10667	3.36461E-001	-8.87738E-005	0.00000E+000	-2.98689E-005	-5.39641E-002	3.36496E-001	3.57150E+000	9	...........
	83	1.12	3.31768E-001	-8.85467E-005	0.00000E+000	-2.93769E-005	-5.39641E-002	3.31798E-001	3.57150E+000	9	...........
	84	1.13333	3.27106E-001	-8.86269E-005	0.00000E+000	-2.89904E-005	-5.39641E-002	3.27141E-001	3.57150E+000	9	...........
	85	1.14667	3.22476E-001	-8.87332E-005	0.00000E+000	-2.86143E-005	-5.39641E-002	3.22506E-001	3.57150E+000	9	...........
	86	1.16	3.17859E-001	-8.85405E-005	0.00000E+000	-2.81434E-005	-5.39641E-002	3.17895E-001	3.57150E+000	9	...........
	87	1.17333	3.13276E-001	-8.85175E-005	0.00000E+000	-2.77304E-005	-5.39641E-002	3.13309E-001	3.57150E+000	9	...........
	88	1.18667	3.08701E-001	-8.84998E-005	0.00000E+000	-2.73200E-005	-5.39641E-002	3.08731E-001	3.57150E+000	9	...........
	89	1.2	3.04163E-001	-8.88884E-005	0.00000E+000	-2.70366E-005	-5.39641E-002	3.04195E-001	3.57150E+000	9	...........
	90	1.21333	2.99647E-001	-8.86373E-005	0.00000E+000	-2.65599E-005	-5.39641E-002	2.99677E-001	3.57150E+000	9	...........
	91	1.22667	2.95154E-001	-8.85394E-005	0.00000E+000	-2.61328E-005	-5.39641E-002	2.95185E-001	3.57150E+000	9	...........
	92	1.24	2.90694E-001	-8.86561E-005	0.00000E+000	-2.57718E-005	-5.39641E-002	2.90724E-001	3.57150E+000	9	...........
	93	1.25333	2.86258E-001	-8.87603E-005	0.00000E+000	-2.54083E-005	-5.39641E-002	2.86283E-001	3.57150E+000	9	...........
	94	1.26667	2.81848E-001	-8.87509E-005	0.00000E+000	-2.50142E-005	-5.39641E-002	2.81876E-001	3.57150E+000	9	...........
	95	1.28	2.77440E-001	-8.83956E-005	0.00000E+000	-2.45245E-005	-5.39641E-002	2.77470E-001	3.57150E+000	9	...........
	96	1.29333	2.73057E-001	-8.85384E-005	0.00000E+000	-2.41760E-005	-5.39641E-002	2.73088E-001	3.57150E+000	9	...........
	97	1.30667	2.68683E-001	-8.86082E-005	0.00000E+000	-2.38075E-005	-5.39641E-002	2.68710E-001	3.57150E+000	9	...........
	98	1.32	2.64336E-001	-8.86071E-005	0.00000E+000	-2.34221E-005	-5.39641E-002	2.64362E-001	3.57150E+000	9	...........
	99	1.33333	2.60023E-001	-8.84863E-005	0.00000E+000	-2.30085E-005	-5.39641E-002	2.60051E-001	3.57150E+000	9	...........
	100	1.34667	2.55733E-001	-8.86822E-005	0.00000E+000	-2.26789E-005	-5.39641E-002	2.55761E-001	3.57138E+000	9	...........
	101	1.36	2.51458E-001	-8.86050E-005	0.00000E+000	-2.22805E-005	-5.39641E-002	2.51488E-001	3.57130E+000	9	...........
	102	1.37333	2.47204E-001	-8.83925E-005	0.00000E+000	-2.18510E-005	-5.39641E-002	2.47227E-001	3.57130E+000	9	...........
	103	1.38667	2.42965E-001	-8.89270E-005	0.00000E+000	-2.16061E-005	-5.39641E-002	2.42984E-001	3.57130E+000	9	...........
	104	1.4	2.38738E-001	-8.87040E-005	0.00000E+000	-2.11770E-005	-5.39641E-002	2.38758E-001	3.57130E+000	9	...........
	105	1.41333	2.34541E-001	-8.84363E-005	0.00000E+000	-2.07419E-005	-5.39641E-002	2.34556E-001	3.57130E+000	9	...........
	106	1.42667	2.30356E-001	-8.88259E-005	0.00000E+000	-2.04616E-005	-5.39641E-002	2.30372E-001	3.57130E+000	9	...........
	107	1.44	2.26183E-001	-8.84383E-005	0.00000E+000	-2.00033E-005	-5.39641E-002	2.26203E-001	3.57130E+000	9	...........
	108	1.45333	2.22037E-001	-8.85998E-005	0.00000E+000	-1.96724E-005	-5.39641E-002	2.22057E-001	3.57130E+000	9	...........
	109	1.46667	2.17903E-001	-8.87228E-005	0.00000E+000	-1.93329E-005	-5.39641E-002	2.17919E-001	3.57130E+000	9	...........
	110	1.48	2.13781E-001	-8.85030E-005	0.00000E+000	-1.89202E-005	-5.39641E-002	2.13795E-001	3.57130E+000	9	...........
	111	1.49333	2.09695E-001	-8.87384E-005	0.00000E+000	-1.86080E-005	-5.39641E-002	2.09706E-001	3.57130E+000	9	...........
	112	1.50667	2.05608E-001	-8.87655E-005	0.00000E+000	-1.82509E-005	-5.39641E-002	2.05623E-001	3.57130E+000	9	...........
	113	1.52	2.01553E-001	-8.86248E-005	0.00000E+000	-1.78626E-005	-5.39641E-002	2.01568E-001	3.57130E+000	9	...........
	114	1.53333	1.97485E-001	-8.86947E-005	0.00000E+000	-1.75158E-005	-5.39641E-002	1.97506E-001	3.57130E+000	9	...........
	115	1.54667	1.93438E-001	-8.86634E-005	0.00000E+000	-1.71509E-005	-5.39641E-002	1.93451E-001	3.57130E+000	9	...........
	116	1.56	1.89411E-001	-8.86467E-005	0.00000E+000	-1.67907E-005	-5.39641E-002	1.89429E-001	3.57130E+000	9	...........
	117	1.57333	1.85389E-001	-8.87332E-005	0.00000E+000	-1.64502E-005	-5.39641E-002	1.85403E-001	3.57130E+000	9	...........
	118	1.58667	1.81372E-001	-8.86217E-005	0.00000E+000	-1.60735E-005	-5.39641E-002	1.81387E-001	3.57130E+000	9	...........
	119	1.6	1.77394E-001	-8.85592E-005	0.00000E+000	-1.57099E-005	-5.39641E-002	1.77408E-001	3.57130E+000	9	...........
	120	1.61333	1.73436E-001	-8.85352E-005	0.00000E+000	-1.53552E-005	-5.39641E-002	1.73448E-001	3.57130E+000	9	...........
	121	1.62667	1.69497E-001	-8.85550E-005	0.00000E+000	-1.50098E-005	-5.39641E-002	1.69505E-001	3.57130E+000	9	...........
	122	1.64	1.65559E-001	-8.88311E-005	0.00000E+000	-1.47068E-005	-5.39641E-002	1.65563E-001	3.57130E+000	9	...........
	123	1.65333	1.61641E-001	-8.88228E-005	0.00000E+000	-1.43574E-005	-5.39641E-002	1.61647E-001	3.57130E+000	9	...........
	124	1.66667	1.57733E-001	-8.85467E-005	0.00000E+000	-1.39667E-005	-5.39641E-002	1.57742E-001	3.57130E+000	9	...........
	125	1.68	1.53839E-001	-8.87728E-005	0.00000E+000	-1.36567E-005	-5.39641E-002	1.53844E-001	3.57130E+000	9	...........
	126	1.69333	1.49969E-001	-8.88499E-005	0.00000E+000	-1.33248E-005	-5.39641E-002	1.49974E-001	3.57130E+000	9	...........
	127	1.70667	1.46114E-001	-8.85988E-005	0.00000E+000	-1.29455E-005	-5.39641E-002	1.46120E-001	3.57130E+000	9	...........
	128	1.72	1.42282E-001	-8.83227E-005	0.00000E+000	-1.25667E-005	-5.39641E-002	1.42292E-001	3.57130E+000	9	...........
	129	1.73333	1.38454E-001	-8.85967E-005	0.00000E+000	-1.22666E-005	-5.39641E-002	1.38461E-001	3.57130E+000	9	...........
	130	1.74667	1.34638E-001	-8.82644E-005	0.00000E+000	-1.18837E-005	-5.39641E-002	1.34643E-001	3.57130E+000	9	...........
	131	1.76	1.30819E-001	-8.85957E-005	0.00000E+000	-1.15900E-005	-5.39641E-002	1.30827E-001	3.57130E+000	9	...........
	132	1.77333	1.27029E-001	-8.85259E-005	0.00000E+000	-1.12453E-005	-5.39641E-002	1.27044E-001	3.57130E+000	9	...........
	133	1.78667	1.23263E-001	-8.86780E-005	0.00000E+000	-1.09307E-005	-5.39641E-002	1.23273E-001	3.57130E+000	9	...........
	134	1.8	1.19495E-001	-8.85571E-005	0.00000E+000	-1.05821E-005	-5.39641E-002	1.19512E-001	3.57130E+000	9	...........
	135	1.81333	1.15756E-001	-8.84206E-005	0.00000E+000	-1.02352E-005	-5.39641E-002	1.15762E-001	3.57130E+000	9	...........
	136	1.82667	1.12030E-001	-8.85967E-005	0.00000E+000	-9.92553E-006	-5.39641E-002	1.12035E-001	3.57130E+000	9	...........
	137	1.84	1.08313E-001	-8.85540E-005	0.00000E+000	-9.59152E-006	-5.39641E-002	1.08320E-001	3.57130E+000	9	...........
	138	1.85333	1.04612E-001	-8.86894E-005	0.00000E+000	-9.27800E-006	-5.39641E-002	1.04621E-001	3.57130E+000	9	...........
	139	1.86667	1.00934E-001	-8.87874E-005	0.00000E+000	-8.96169E-006	-5.39641E-002	1.00943E-001	3.57130E+000	9	...........
	140	1.88	9.72703E-002	-8.83904E-005	0.00000E+000	-8.59776E-006	-5.39641E-002	9.72726E-002	3.57130E+000	9	...........
	141	1.89333	9.36125E-002	-8.85477E-005	0.00000E+000	-8.28918E-006	-5.39641E-002	9.36150E-002	3.57130E+000	9	...........
	142	1.90667	8.99580E-002	-8.87322E-005	0.00000E+000	-7.98216E-006	-5.39641E-002	8.99637E-002	3.57130E+000	9	...........
	143	1.92	8.63311E-002	-8.86269E-005	0.00000E+000	-7.65126E-006	-5.39641E-002	8.63371E-002	3.57130E+000	9	...........
	144	1.93333	8.26996E-002	-8.86217E-005	0.00000E+000	-7.32898E-006	-5.39641E-002	8.27058E-002	3.57130E+000	9	...........
	145	1.94667	7.90929E-002	-8.85957E-005	0.00000E+000	-7.00729E-006	-5.39641E-002	7.90910E-002	3.57130E+000	9	...........
	146	1.96	7.55045E-002	-8.83883E-005	0.00000E+000	-6.67371E-006	-5.39641E-002	7.54987E-002	3.57130E+000	9	...........
	147	1.97333	7.19229E-002	-8.87009E-005	0.00000E+000	-6.37963E-006	-5.39641E-002	7.19216E-002	3.57130E+000	9	...........
	148	1.98667	6.83633E-002	-8.87269E-005	0.00000E+000	-6.06566E-006	-5.39641E-002	6.83645E-002	3.57130E+000	9	...........
	149	2	6.48328E-002	-8.87551E-005	0.00000E+000	-5.75424E-006	-5.39641E-002	6.48301E-002	3.57130E+000	9	...........
	150	2.01333	6.13023E-002	-8.86186E-005	0.00000E+000	-5.43252E-006	-5.39641E-002	6.13033E-002	3.57130E+000	9	...........
	151	2.02667	5.77770E-002	-8.86915E-005	0.00000E+000	-5.12433E-006	-5.39641E-002	5.77741E-002	3.57130E+000	9	...........
	152	2.04	5.42715E-002	-8.85811E-005	0.00000E+000	-4.80743E-006	-5.39641E-002	5.42655E-002	3.57130E+000	9	...........
	153	2.05333	5.07927E-002	-8.85738E-005	0.00000E+000	-4.49890E-006	-5.39641E-002	5.07891E-002	3.57130E+000	9	...........
	154	2.06667	4.73216E-002	-8.88530E-005	0.00000E+000	-4.20466E-006	-5.39641E-002	4.73244E-002	3.57130E+000	9	...........
	155	2.08	4.38590E-002	-8.84884E-005	0.00000E+000	-3.88101E-006	-5.39641E-002	4.38714E-002	3.57130E+000	9	...........
	156	2.09333	4.04362E-002	-8.89614E-005	0.00000E+000	-3.59726E-006	-5.39641E-002	4.04402E-002	3.57130E+000	9	...........
	157	2.10667	3.70112E-002	-8.84133E-005	0.00000E+000	-3.27229E-006	-5.39641E-002	3.70166E-002	3.57130E+000	9	...........
	158	2.12	3.36121E-002	-8.86248E-005	0.00000E+000	-2.97886E-006	-5.39641E-002	3.36149E-002	3.57130E+000	9	...........
	159	2.13333	3.02249E-002	-8.83842E-005	0.00000E+000	-2.67140E-006	-5.39641E-002	3.02253E-002	3.57130E+000	9	...........
	160	2.14667	2.68654E-002	-8.85227E-005	0.00000E+000	-2.37820E-006	-5.39641E-002	2.68670E-002	3.57130E+000	9	...........
	161	2.16	2.35260E-002	-8.84779E-005	0.00000E+000	-2.08154E-006	-5.39641E-002	2.35221E-002	3.57130E+000	9	...........
	162	2.17333	2.01940E-002	-8.87988E-005	0.00000E+000	-1.79321E-006	-5.39641E-002	2.01886E-002	3.57130E+000	9	...........
	163	2.18667	1.68890E-002	-8.85488E-005	0.00000E+000	-1.49550E-006	-5.39641E-002	1.68815E-002	3.57130E+000	9	...........
	164	2.2	1.36209E-002	-8.86269E-005	0.00000E+000	-1.20717E-006	-5.39641E-002	1.36130E-002	3.57130E+000	9	...........
	165	2.21333	1.03600E-002	-8.87916E-005	0.00000E+000	-9.19878E-007	-5.39641E-002	1.03468E-002	3.57130E+000	9	...........
	166	2.22667	7.08954E-003	-8.86530E-005	0.00000E+000	-6.28509E-007	-5.39641E-002	7.08023E-003	3.57130E+000	9	...........
	167	2.24	3.85803E-003	-8.85280E-005	0.00000E+000	-3.41543E-007	-5.39641E-002	3.84492E-003	3.57130E+000	9	...........
	168	2.25167	8.55680E-004	-8.83641E-005	0.00000E+000	-7.56114E-008	-5.39641E-002	8.38168E-004	3.57130E+000	9	...........
STARTTIMEOFFSET	QUANT	273.9533	Start Time Offset (s)
