EXPLAIN
TAG	PWR800_DISCHARGE
TITLE	LABEL	PWR Cyclic Charge Discharge (Cell) - Discharge Step	Test &Identifier
DATE	LABEL	10-7-2017	Date
TIME	LABEL	15:09:57	Time
NOTES	NOTES	3	&Notes...
	supercap test cell
	0.9mg
	6M KOH
PSTAT	PSTAT	IFC5000-01520	Potentiostat
CAPACITY	QUANT	1.00000E-003	Capacity (A-hr)
CELLTYPE	SELECTOR	1	&Cell Type
WORKINGCONNECTION	SELECTOR	0	&Working Lead
MAXDISCHARGETIME	VARIABLEANDUNITS	1.00000E+002	s	1.00000E+002	second(s)	Max &Discharge Time
DISCHARGEMODE	MULTIPARAM	0	9.00000E-005	&Discharge Mode	Constant Current	Amp(s)
SAMPLETIME	QUANT	1.00000E-002	Sa&mple Period (s)
DISCHARGESTOPAT1	MULTIPARAM	3	0.00000E+000	Discharge Stop At &1	Voltage < Limit	V
DISCHARGESTOPAT2	MULTIPARAM	0	0.00000E+000	Discharge Stop At &2	None	N/A
AESBHCSELECTOR	TOGGLE	F	Save Both Half Cells
IRCOMP	TOGGLE	F	IR &Measure
EOC	QUANT	0	Open Circuit (V)
SEQUENCER	TOGGLE	TRUE	Run as Sequence
PSTATMODEL	IQUANT	53	Pstat Model
PSTATSECTION	LABEL	IFC5000-01520	Pstat Section
PSTATSERIALNO	LABEL	01520	Pstat Serial Number
CTRLMODE	IQUANT	0	Control Mode
ELECTROMETER	IQUANT	1	RE=0 or CS=1
IESTAB	IQUANT	0	I/E Stability
CASPEED	IQUANT	4	Control Amp Speed
CONVENTION	IQUANT	1	Current Convention
ICHRANGE	IQUANT	2	Ich Range
ICHRANGEMODE	TOGGLE	T	Ich Auto Range
ICHOFFSETENABLE	TOGGLE	F	Ich Offset Enable
ICHOFFSET	QUANT	0	Ich Offset (V)
ICHFILTER	IQUANT	1	Ich Filter
VCHRANGE	IQUANT	2	Vch Range
VCHRANGEMODE	TOGGLE	T	Vch Auto Range
VCHOFFSETENABLE	TOGGLE	F	Vch Offset Enable
VCHOFFSET	QUANT	0	Vch Offset (V)
VCHFILTER	IQUANT	1	Vch Filter
IERANGELOWERLIMIT	IQUANT	9	I/E Range Lower Limit
IERANGEMODE	TOGGLE	F	I/E AutoRange
IERANGE	IQUANT	9	I/E Range
ACHSELECT	IQUANT	1	Ach Select
ACHRANGE	IQUANT	2	Ach Range
ACHOFFSETENABLE	TOGGLE	F	Ach Offset Enable
ACHOFFSET	QUANT	0	Ach Offset (V)
ACHFILTER	IQUANT	1	Ach Filter
CABLEID	IQUANT	14	Cable ID
DCCALDATE	LABEL	5-7-2017	DC Calibration Date
ACCALDATE	LABEL	12/3/2015	AC Calibration Date
FRAMEWORKVERSION	QUANT	7.01	Framework Version
INSTRUMENTVERSION	LABEL	4.00	Instrument Version
CURVE	TABLE	164
	Pt	T	Vf	Im	Vu	Pwr	Sig	Ach	Temp	IERange	Over
	#	s	V	A	V	W	V	V	deg C	#	bits
	0	0.013333	8.35610E-001	-8.86050E-005	0.00000E+000	-7.40393E-005	-5.39641E-002	8.35735E-001	3.57160E+000	9	...........
	1	0.026667	8.23727E-001	-8.86050E-005	0.00000E+000	-7.29864E-005	-5.39641E-002	8.23848E-001	3.57160E+000	9	...........
	2	0.04	8.12492E-001	-8.88051E-005	0.00000E+000	-7.21534E-005	-5.39641E-002	8.12615E-001	3.57160E+000	9	...........
	3	0.053333	8.01839E-001	-8.84957E-005	0.00000E+000	-7.09593E-005	-5.39641E-002	8.01941E-001	3.57160E+000	9	...........
	4	0.066667	7.91611E-001	-8.88416E-005	0.00000E+000	-7.03280E-005	-5.39641E-002	7.91720E-001	3.57160E+000	9	...........
	5	0.08	7.81744E-001	-8.85321E-005	0.00000E+000	-6.92095E-005	-5.39641E-002	7.81869E-001	3.57160E+000	9	...........
	6	0.093333	7.72232E-001	-8.86592E-005	0.00000E+000	-6.84655E-005	-5.39641E-002	7.72370E-001	3.57160E+000	9	...........
	7	0.106667	7.62985E-001	-8.86092E-005	0.00000E+000	-6.76075E-005	-5.39641E-002	7.63117E-001	3.57160E+000	9	...........
	8	0.12	7.54024E-001	-8.84050E-005	0.00000E+000	-6.66595E-005	-5.39641E-002	7.54149E-001	3.57160E+000	9	...........
	9	0.133333	7.45281E-001	-8.86363E-005	0.00000E+000	-6.60589E-005	-5.39641E-002	7.45428E-001	3.57160E+000	9	...........
	10	0.146667	7.36757E-001	-8.88353E-005	0.00000E+000	-6.54501E-005	-5.39641E-002	7.36885E-001	3.57178E+000	9	...........
	11	0.16	7.28467E-001	-8.85144E-005	0.00000E+000	-6.44798E-005	-5.39641E-002	7.28573E-001	3.57180E+000	9	...........
	12	0.173333	7.20364E-001	-8.86780E-005	0.00000E+000	-6.38804E-005	-5.39641E-002	7.20463E-001	3.57180E+000	9	...........
	13	0.186667	7.12387E-001	-8.83654E-005	0.00000E+000	-6.29504E-005	-5.39641E-002	7.12485E-001	3.57180E+000	9	...........
	14	0.2	7.04588E-001	-8.86624E-005	0.00000E+000	-6.24704E-005	-5.39641E-002	7.04690E-001	3.57180E+000	9	...........
	15	0.213333	6.96965E-001	-8.86832E-005	0.00000E+000	-6.18091E-005	-5.39641E-002	6.97059E-001	3.57180E+000	9	...........
	16	0.226667	6.89450E-001	-8.86384E-005	0.00000E+000	-6.11117E-005	-5.39641E-002	6.89557E-001	3.57180E+000	9	...........
	17	0.24	6.82077E-001	-8.88103E-005	0.00000E+000	-6.05755E-005	-5.39641E-002	6.82187E-001	3.57180E+000	9	...........
	18	0.253333	6.74853E-001	-8.86499E-005	0.00000E+000	-5.98256E-005	-5.39641E-002	6.74964E-001	3.57180E+000	9	...........
	19	0.266667	6.67746E-001	-8.88614E-005	0.00000E+000	-5.93368E-005	-5.39641E-002	6.67856E-001	3.57180E+000	9	...........
	20	0.28	6.60721E-001	-8.86540E-005	0.00000E+000	-5.85755E-005	-5.39641E-002	6.60830E-001	3.57180E+000	9	...........
	21	0.293333	6.53843E-001	-8.84800E-005	0.00000E+000	-5.78520E-005	-5.39641E-002	6.53962E-001	3.57180E+000	9	...........
	22	0.306667	6.47049E-001	-8.89062E-005	0.00000E+000	-5.75267E-005	-5.39641E-002	6.47177E-001	3.57180E+000	9	...........
	23	0.32	6.40351E-001	-8.86644E-005	0.00000E+000	-5.67763E-005	-5.39641E-002	6.40493E-001	3.57180E+000	9	...........
	24	0.333333	6.33731E-001	-8.86134E-005	0.00000E+000	-5.61570E-005	-5.39641E-002	6.33837E-001	3.57180E+000	9	...........
	25	0.346667	6.27183E-001	-8.86217E-005	0.00000E+000	-5.55821E-005	-5.39641E-002	6.27318E-001	3.57180E+000	9	...........
	26	0.36	6.20762E-001	-8.85696E-005	0.00000E+000	-5.49807E-005	-5.39641E-002	6.20853E-001	3.57180E+000	9	...........
	27	0.373333	6.14362E-001	-8.88134E-005	0.00000E+000	-5.45636E-005	-5.39641E-002	6.14471E-001	3.57180E+000	9	...........
	28	0.386667	6.08017E-001	-8.84988E-005	0.00000E+000	-5.38088E-005	-5.39641E-002	6.08137E-001	3.57180E+000	9	...........
	29	0.4	6.01791E-001	-8.86790E-005	0.00000E+000	-5.33663E-005	-5.39641E-002	6.01917E-001	3.57180E+000	9	...........
	30	0.413333	5.95634E-001	-8.84769E-005	0.00000E+000	-5.26999E-005	-5.39641E-002	5.95740E-001	3.57180E+000	9	...........
	31	0.426667	5.89536E-001	-8.86738E-005	0.00000E+000	-5.22764E-005	-5.39641E-002	5.89656E-001	3.57180E+000	9	...........
	32	0.44	5.83448E-001	-8.87019E-005	0.00000E+000	-5.17530E-005	-5.39641E-002	5.83552E-001	3.57180E+000	9	...........
	33	0.453333	5.77476E-001	-8.87030E-005	0.00000E+000	-5.12239E-005	-5.39641E-002	5.77570E-001	3.57180E+000	9	...........
	34	0.466667	5.71559E-001	-8.85009E-005	0.00000E+000	-5.05835E-005	-5.39641E-002	5.71628E-001	3.57180E+000	9	...........
	35	0.48	5.65662E-001	-8.86176E-005	0.00000E+000	-5.01276E-005	-5.39641E-002	5.65731E-001	3.57180E+000	9	...........
	36	0.493333	5.59778E-001	-8.89009E-005	0.00000E+000	-4.97648E-005	-5.39641E-002	5.59856E-001	3.57180E+000	9	...........
	37	0.506667	5.53975E-001	-8.87092E-005	0.00000E+000	-4.91427E-005	-5.39641E-002	5.54050E-001	3.57180E+000	9	...........
	38	0.52	5.48205E-001	-8.86040E-005	0.00000E+000	-4.85732E-005	-5.39641E-002	5.48280E-001	3.57180E+000	9	...........
	39	0.533333	5.42491E-001	-8.86905E-005	0.00000E+000	-4.81138E-005	-5.39641E-002	5.42557E-001	3.57180E+000	9	...........
	40	0.546667	5.36771E-001	-8.86707E-005	0.00000E+000	-4.75959E-005	-5.39641E-002	5.36837E-001	3.57180E+000	9	...........
	41	0.56	5.31061E-001	-8.86926E-005	0.00000E+000	-4.71012E-005	-5.39641E-002	5.31139E-001	3.57180E+000	9	...........
	42	0.573333	5.25449E-001	-8.86686E-005	0.00000E+000	-4.65909E-005	-5.39641E-002	5.25541E-001	3.57180E+000	9	...........
	43	0.586667	5.19900E-001	-8.87738E-005	0.00000E+000	-4.61535E-005	-5.39641E-002	5.19974E-001	3.57180E+000	9	...........
	44	0.6	5.14360E-001	-8.87592E-005	0.00000E+000	-4.56542E-005	-5.39641E-002	5.14438E-001	3.57180E+000	9	...........
	45	0.613333	5.08792E-001	-8.84321E-005	0.00000E+000	-4.49935E-005	-5.39641E-002	5.08905E-001	3.57180E+000	9	...........
	46	0.626667	5.03282E-001	-8.86019E-005	0.00000E+000	-4.45918E-005	-5.39641E-002	5.03405E-001	3.57180E+000	9	...........
	47	0.64	4.97845E-001	-8.85019E-005	0.00000E+000	-4.40603E-005	-5.39641E-002	4.97944E-001	3.57180E+000	9	...........
	48	0.653333	4.92403E-001	-8.86822E-005	0.00000E+000	-4.36674E-005	-5.39641E-002	4.92514E-001	3.57180E+000	9	...........
	49	0.666667	4.87004E-001	-8.84008E-005	0.00000E+000	-4.30516E-005	-5.39641E-002	4.87095E-001	3.57180E+000	9	...........
	50	0.68	4.81677E-001	-8.89093E-005	0.00000E+000	-4.28255E-005	-5.39641E-002	4.81733E-001	3.57180E+000	9	...........
	51	0.693333	4.76302E-001	-8.87645E-005	0.00000E+000	-4.22787E-005	-5.39641E-002	4.76360E-001	3.57180E+000	9	...........
	52	0.706667	4.70961E-001	-8.86061E-005	0.00000E+000	-4.17300E-005	-5.39641E-002	4.71016E-001	3.57180E+000	9	...........
	53	0.72	4.65660E-001	-8.86749E-005	0.00000E+000	-4.12924E-005	-5.39641E-002	4.65711E-001	3.57180E+000	9	...........
	54	0.733333	4.60358E-001	-8.85696E-005	0.00000E+000	-4.07738E-005	-5.39641E-002	4.60414E-001	3.57180E+000	9	...........
	55	0.746667	4.55068E-001	-8.86905E-005	0.00000E+000	-4.03602E-005	-5.39641E-002	4.55121E-001	3.57180E+000	9	...........
	56	0.76	4.49808E-001	-8.86915E-005	0.00000E+000	-3.98941E-005	-5.39641E-002	4.49861E-001	3.57180E+000	9	...........
	57	0.773333	4.44570E-001	-8.86457E-005	0.00000E+000	-3.94092E-005	-5.39641E-002	4.44624E-001	3.57180E+000	9	...........
	58	0.786667	4.39359E-001	-8.86405E-005	0.00000E+000	-3.89450E-005	-5.39641E-002	4.39405E-001	3.57180E+000	9	...........
	59	0.8	4.34152E-001	-8.86030E-005	0.00000E+000	-3.84672E-005	-5.39641E-002	4.34203E-001	3.57180E+000	9	...........
	60	0.813333	4.28977E-001	-8.86165E-005	0.00000E+000	-3.80145E-005	-5.39641E-002	4.29021E-001	3.57180E+000	9	...........
	61	0.826667	4.23837E-001	-8.87259E-005	0.00000E+000	-3.76053E-005	-5.39641E-002	4.23885E-001	3.57180E+000	9	...........
	62	0.84	4.18726E-001	-8.85832E-005	0.00000E+000	-3.70921E-005	-5.39641E-002	4.18765E-001	3.57180E+000	9	...........
	63	0.853333	4.13624E-001	-8.84488E-005	0.00000E+000	-3.65846E-005	-5.39641E-002	4.13667E-001	3.57180E+000	9	...........
	64	0.866667	4.08549E-001	-8.86696E-005	0.00000E+000	-3.62259E-005	-5.39641E-002	4.08590E-001	3.57180E+000	9	...........
	65	0.88	4.03489E-001	-8.85738E-005	0.00000E+000	-3.57386E-005	-5.39641E-002	4.03529E-001	3.57180E+000	9	...........
	66	0.893333	3.98444E-001	-8.86217E-005	0.00000E+000	-3.53108E-005	-5.39641E-002	3.98482E-001	3.57180E+000	9	...........
	67	0.906667	3.93413E-001	-8.87197E-005	0.00000E+000	-3.49035E-005	-5.39641E-002	3.93452E-001	3.57180E+000	9	...........
	68	0.92	3.88388E-001	-8.86509E-005	0.00000E+000	-3.44309E-005	-5.39641E-002	3.88427E-001	3.57180E+000	9	...........
	69	0.933333	3.83378E-001	-8.89051E-005	0.00000E+000	-3.40843E-005	-5.39641E-002	3.83414E-001	3.57180E+000	9	...........
	70	0.946667	3.78406E-001	-8.85394E-005	0.00000E+000	-3.35038E-005	-5.39641E-002	3.78447E-001	3.57180E+000	9	...........
	71	0.96	3.73441E-001	-8.85696E-005	0.00000E+000	-3.30755E-005	-5.39641E-002	3.73476E-001	3.57180E+000	9	...........
	72	0.97333	3.68499E-001	-8.84769E-005	0.00000E+000	-3.26036E-005	-5.39641E-002	3.68534E-001	3.57180E+000	9	...........
	73	0.98667	3.63588E-001	-8.86926E-005	0.00000E+000	-3.22475E-005	-5.39641E-002	3.63619E-001	3.57180E+000	9	...........
	74	1	3.58689E-001	-8.84383E-005	0.00000E+000	-3.17219E-005	-5.39641E-002	3.58724E-001	3.57180E+000	9	...........
	75	1.01333	3.53807E-001	-8.87738E-005	0.00000E+000	-3.14088E-005	-5.39641E-002	3.53841E-001	3.57180E+000	9	...........
	76	1.02667	3.48956E-001	-8.86290E-005	0.00000E+000	-3.09276E-005	-5.39641E-002	3.48985E-001	3.57180E+000	9	...........
	77	1.04	3.44118E-001	-8.88249E-005	0.00000E+000	-3.05662E-005	-5.39641E-002	3.44152E-001	3.57180E+000	9	...........
	78	1.05333	3.39306E-001	-8.86332E-005	0.00000E+000	-3.00737E-005	-5.39641E-002	3.39341E-001	3.57180E+000	9	...........
	79	1.06667	3.34526E-001	-8.88728E-005	0.00000E+000	-2.97302E-005	-5.39641E-002	3.34555E-001	3.57180E+000	9	...........
	80	1.08	3.29758E-001	-8.85936E-005	0.00000E+000	-2.92144E-005	-5.39641E-002	3.29785E-001	3.57180E+000	9	...........
	81	1.09333	3.25013E-001	-8.85311E-005	0.00000E+000	-2.87737E-005	-5.39641E-002	3.25041E-001	3.57180E+000	9	...........
	82	1.10667	3.20293E-001	-8.88103E-005	0.00000E+000	-2.84453E-005	-5.39641E-002	3.20320E-001	3.57180E+000	9	...........
	83	1.12	3.15590E-001	-8.88989E-005	0.00000E+000	-2.80556E-005	-5.39641E-002	3.15619E-001	3.57180E+000	9	...........
	84	1.13333	3.10924E-001	-8.85967E-005	0.00000E+000	-2.75469E-005	-5.39641E-002	3.10953E-001	3.57180E+000	9	...........
	85	1.14667	3.06269E-001	-8.85196E-005	0.00000E+000	-2.71108E-005	-5.39641E-002	3.06300E-001	3.57241E+000	9	...........
	86	1.16	3.01637E-001	-8.86571E-005	0.00000E+000	-2.67423E-005	-5.39641E-002	3.01666E-001	3.57250E+000	9	...........
	87	1.17333	2.97019E-001	-8.84550E-005	0.00000E+000	-2.62728E-005	-5.39641E-002	2.97044E-001	3.57250E+000	9	...........
	88	1.18667	2.92430E-001	-8.84675E-005	0.00000E+000	-2.58706E-005	-5.39641E-002	2.92460E-001	3.57250E+000	9	...........
	89	1.2	2.87870E-001	-8.84217E-005	0.00000E+000	-2.54540E-005	-5.39641E-002	2.87900E-001	3.57250E+000	9	...........
	90	1.21333	2.83332E-001	-8.86686E-005	0.00000E+000	-2.51226E-005	-5.39641E-002	2.83361E-001	3.57250E+000	9	...........
	91	1.22667	2.78812E-001	-8.82841E-005	0.00000E+000	-2.46147E-005	-5.39641E-002	2.78845E-001	3.57250E+000	9	...........
	92	1.24	2.74323E-001	-8.85530E-005	0.00000E+000	-2.42921E-005	-5.39641E-002	2.74350E-001	3.57250E+000	9	...........
	93	1.25333	2.69833E-001	-8.88707E-005	0.00000E+000	-2.39803E-005	-5.39641E-002	2.69857E-001	3.57250E+000	9	...........
	94	1.26667	2.65364E-001	-8.88499E-005	0.00000E+000	-2.35775E-005	-5.39641E-002	2.65391E-001	3.57250E+000	9	...........
	95	1.28	2.60923E-001	-8.85925E-005	0.00000E+000	-2.31158E-005	-5.39641E-002	2.60954E-001	3.57250E+000	9	...........
	96	1.29333	2.56499E-001	-8.84550E-005	0.00000E+000	-2.26887E-005	-5.39641E-002	2.56527E-001	3.57250E+000	9	...........
	97	1.30667	2.52114E-001	-8.85957E-005	0.00000E+000	-2.23362E-005	-5.39641E-002	2.52141E-001	3.57250E+000	9	...........
	98	1.32	2.47740E-001	-8.86540E-005	0.00000E+000	-2.19632E-005	-5.39641E-002	2.47763E-001	3.57250E+000	9	...........
	99	1.33333	2.43399E-001	-8.87342E-005	0.00000E+000	-2.15978E-005	-5.39641E-002	2.43422E-001	3.57250E+000	9	...........
	100	1.34667	2.39081E-001	-8.86571E-005	0.00000E+000	-2.11962E-005	-5.39641E-002	2.39102E-001	3.57250E+000	9	...........
	101	1.36	2.34776E-001	-8.86123E-005	0.00000E+000	-2.08040E-005	-5.39641E-002	2.34797E-001	3.57250E+000	9	...........
	102	1.37333	2.30493E-001	-8.86613E-005	0.00000E+000	-2.04358E-005	-5.39641E-002	2.30514E-001	3.57250E+000	9	...........
	103	1.38667	2.26225E-001	-8.85029E-005	0.00000E+000	-2.00216E-005	-5.39641E-002	2.26243E-001	3.57250E+000	9	...........
	104	1.4	2.21976E-001	-8.85946E-005	0.00000E+000	-1.96659E-005	-5.39641E-002	2.21999E-001	3.57250E+000	9	...........
	105	1.41333	2.17762E-001	-8.87645E-005	0.00000E+000	-1.93295E-005	-5.39641E-002	2.17781E-001	3.57250E+000	9	...........
	106	1.42667	2.13578E-001	-8.85634E-005	0.00000E+000	-1.89152E-005	-5.39641E-002	2.13597E-001	3.57250E+000	9	...........
	107	1.44	2.09425E-001	-8.85863E-005	0.00000E+000	-1.85522E-005	-5.39641E-002	2.09437E-001	3.57250E+000	9	...........
	108	1.45333	2.05284E-001	-8.85967E-005	0.00000E+000	-1.81875E-005	-5.39641E-002	2.05302E-001	3.57250E+000	9	...........
	109	1.46667	2.01143E-001	-8.87426E-005	0.00000E+000	-1.78500E-005	-5.39641E-002	2.01164E-001	3.57250E+000	9	...........
	110	1.48	1.97017E-001	-8.88093E-005	0.00000E+000	-1.74970E-005	-5.39641E-002	1.97032E-001	3.57250E+000	9	...........
	111	1.49333	1.92899E-001	-8.88884E-005	0.00000E+000	-1.71465E-005	-5.39641E-002	1.92916E-001	3.57250E+000	9	...........
	112	1.50667	1.88796E-001	-8.88655E-005	0.00000E+000	-1.67774E-005	-5.39641E-002	1.88809E-001	3.57250E+000	9	...........
	113	1.52	1.84705E-001	-8.84915E-005	0.00000E+000	-1.63448E-005	-5.39641E-002	1.84722E-001	3.57250E+000	9	...........
	114	1.53333	1.80627E-001	-8.87280E-005	0.00000E+000	-1.60266E-005	-5.39641E-002	1.80640E-001	3.57250E+000	9	...........
	115	1.54667	1.76571E-001	-8.86426E-005	0.00000E+000	-1.56517E-005	-5.39641E-002	1.76590E-001	3.57250E+000	9	...........
	116	1.56	1.72525E-001	-8.85634E-005	0.00000E+000	-1.52794E-005	-5.39641E-002	1.72542E-001	3.57250E+000	9	...........
	117	1.57333	1.68489E-001	-8.88895E-005	0.00000E+000	-1.49769E-005	-5.39641E-002	1.68507E-001	3.57250E+000	9	...........
	118	1.58667	1.64458E-001	-8.88593E-005	0.00000E+000	-1.46136E-005	-5.39641E-002	1.64472E-001	3.57250E+000	9	...........
	119	1.6	1.60464E-001	-8.88634E-005	0.00000E+000	-1.42593E-005	-5.39641E-002	1.60482E-001	3.57250E+000	9	...........
	120	1.61333	1.56481E-001	-8.85071E-005	0.00000E+000	-1.38497E-005	-5.39641E-002	1.56492E-001	3.57250E+000	9	...........
	121	1.62667	1.52515E-001	-8.86988E-005	0.00000E+000	-1.35279E-005	-5.39641E-002	1.52526E-001	3.57250E+000	9	...........
	122	1.64	1.48571E-001	-8.86624E-005	0.00000E+000	-1.31726E-005	-5.39641E-002	1.48575E-001	3.57250E+000	9	...........
	123	1.65333	1.44636E-001	-8.87853E-005	0.00000E+000	-1.28415E-005	-5.39641E-002	1.44642E-001	3.57250E+000	9	...........
	124	1.66667	1.40725E-001	-8.87280E-005	0.00000E+000	-1.24862E-005	-5.39641E-002	1.40728E-001	3.57250E+000	9	...........
	125	1.68	1.36822E-001	-8.87915E-005	0.00000E+000	-1.21487E-005	-5.39641E-002	1.36831E-001	3.57250E+000	9	...........
	126	1.69333	1.32933E-001	-8.86207E-005	0.00000E+000	-1.17806E-005	-5.39641E-002	1.32942E-001	3.57250E+000	9	...........
	127	1.70667	1.29058E-001	-8.85759E-005	0.00000E+000	-1.14314E-005	-5.39641E-002	1.29062E-001	3.57250E+000	9	...........
	128	1.72	1.25204E-001	-8.85863E-005	0.00000E+000	-1.10913E-005	-5.39641E-002	1.25208E-001	3.57250E+000	9	...........
	129	1.73333	1.21362E-001	-8.88113E-005	0.00000E+000	-1.07783E-005	-5.39641E-002	1.21374E-001	3.57250E+000	9	...........
	130	1.74667	1.17549E-001	-8.88041E-005	0.00000E+000	-1.04388E-005	-5.39641E-002	1.17551E-001	3.57250E+000	9	...........
	131	1.76	1.13748E-001	-8.84613E-005	0.00000E+000	-1.00623E-005	-5.39641E-002	1.13758E-001	3.57250E+000	9	...........
	132	1.77333	1.09961E-001	-8.85748E-005	0.00000E+000	-9.73978E-006	-5.39641E-002	1.09966E-001	3.57250E+000	9	...........
	133	1.78667	1.06185E-001	-8.87936E-005	0.00000E+000	-9.42856E-006	-5.39641E-002	1.06191E-001	3.57250E+000	9	...........
	134	1.8	1.02417E-001	-8.86624E-005	0.00000E+000	-9.08052E-006	-5.39641E-002	1.02421E-001	3.57250E+000	9	...........
	135	1.81333	9.86523E-002	-8.87290E-005	0.00000E+000	-8.75332E-006	-5.39641E-002	9.86641E-002	3.57250E+000	9	...........
	136	1.82667	9.49208E-002	-8.83435E-005	0.00000E+000	-8.38564E-006	-5.39641E-002	9.49263E-002	3.57250E+000	9	...........
	137	1.84	9.12010E-002	-8.85009E-005	0.00000E+000	-8.07137E-006	-5.39641E-002	9.12053E-002	3.57250E+000	9	...........
	138	1.85333	8.75053E-002	-8.87822E-005	0.00000E+000	-7.76891E-006	-5.39641E-002	8.75085E-002	3.57250E+000	9	...........
	139	1.86667	8.38216E-002	-8.87259E-005	0.00000E+000	-7.43714E-006	-5.39641E-002	8.38217E-002	3.57250E+000	9	...........
	140	1.88	8.01487E-002	-8.87707E-005	0.00000E+000	-7.11486E-006	-5.39641E-002	8.01478E-002	3.57250E+000	9	...........
	141	1.89333	7.64960E-002	-8.86957E-005	0.00000E+000	-6.78487E-006	-5.39641E-002	7.64945E-002	3.57250E+000	9	...........
	142	1.90667	7.28464E-002	-8.89978E-005	0.00000E+000	-6.48317E-006	-5.39641E-002	7.28437E-002	3.57250E+000	9	...........
	143	1.92	6.91962E-002	-8.86551E-005	0.00000E+000	-6.13459E-006	-5.39641E-002	6.92013E-002	3.57250E+000	9	...........
	144	1.93333	6.55785E-002	-8.86624E-005	0.00000E+000	-5.81435E-006	-5.39641E-002	6.55744E-002	3.57250E+000	9	...........
	145	1.94667	6.19818E-002	-8.89103E-005	0.00000E+000	-5.51083E-006	-5.39641E-002	6.19821E-002	3.57250E+000	9	...........
	146	1.96	5.83956E-002	-8.87447E-005	0.00000E+000	-5.18229E-006	-5.39641E-002	5.83922E-002	3.57250E+000	9	...........
	147	1.97333	5.48369E-002	-8.87749E-005	0.00000E+000	-4.86814E-006	-5.39641E-002	5.48270E-002	3.57250E+000	9	...........
	148	1.98667	5.12749E-002	-8.84613E-005	0.00000E+000	-4.53584E-006	-5.39641E-002	5.12709E-002	3.57250E+000	9	...........
	149	2	4.77291E-002	-8.88030E-005	0.00000E+000	-4.23848E-006	-5.39641E-002	4.77339E-002	3.57250E+000	9	...........
	150	2.01333	4.41852E-002	-8.88218E-005	0.00000E+000	-3.92461E-006	-5.39641E-002	4.41934E-002	3.57250E+000	9	...........
	151	2.02667	4.06770E-002	-8.87572E-005	0.00000E+000	-3.61038E-006	-5.39641E-002	4.06799E-002	3.57250E+000	9	...........
	152	2.04	3.71687E-002	-8.84727E-005	0.00000E+000	-3.28841E-006	-5.39641E-002	3.71721E-002	3.57250E+000	9	...........
	153	2.05333	3.36773E-002	-8.88436E-005	0.00000E+000	-2.99201E-006	-5.39641E-002	3.36790E-002	3.57250E+000	9	...........
	154	2.06667	3.02099E-002	-8.85665E-005	0.00000E+000	-2.67558E-006	-5.39641E-002	3.02067E-002	3.57250E+000	9	...........
	155	2.08	2.67742E-002	-8.87499E-005	0.00000E+000	-2.37620E-006	-5.39641E-002	2.67743E-002	3.57250E+000	9	...........
	156	2.09333	2.33496E-002	-8.86717E-005	0.00000E+000	-2.07045E-006	-5.39641E-002	2.33436E-002	3.57250E+000	9	...........
	157	2.10667	1.99528E-002	-8.89999E-005	0.00000E+000	-1.77580E-006	-5.39641E-002	1.99456E-002	3.57250E+000	9	...........
	158	2.12	1.65585E-002	-8.83508E-005	0.00000E+000	-1.46295E-006	-5.39641E-002	1.65499E-002	3.57250E+000	9	...........
	159	2.13333	1.31779E-002	-8.87186E-005	0.00000E+000	-1.16912E-006	-5.39641E-002	1.31689E-002	3.57250E+000	9	...........
	160	2.14667	9.82411E-003	-8.87613E-005	0.00000E+000	-8.72001E-007	-5.39641E-002	9.81366E-003	3.57197E+000	9	...........
	161	2.16	6.49172E-003	-8.86040E-005	0.00000E+000	-5.75192E-007	-5.39641E-002	6.48116E-003	3.57190E+000	9	...........
	162	2.17333	3.17483E-003	-8.86822E-005	0.00000E+000	-2.81550E-007	-5.39641E-002	3.16473E-003	3.57190E+000	9	...........
	163	2.18167	4.97194E-004	-8.86448E-005	0.00000E+000	-4.40737E-008	-5.39641E-002	4.87981E-004	3.57190E+000	9	...........
STARTTIMEOFFSET	QUANT	543.4517	Start Time Offset (s)
