EXPLAIN
TAG	PWR800_DISCHARGE
TITLE	LABEL	PWR Cyclic Charge Discharge (Cell) - Discharge Step	Test &Identifier
DATE	LABEL	10-7-2017	Date
TIME	LABEL	15:47:59	Time
NOTES	NOTES	3	&Notes...
	supercap test cell
	0.9mg
	6M KOH
PSTAT	PSTAT	IFC5000-01520	Potentiostat
CAPACITY	QUANT	1.00000E-003	Capacity (A-hr)
CELLTYPE	SELECTOR	1	&Cell Type
WORKINGCONNECTION	SELECTOR	0	&Working Lead
MAXDISCHARGETIME	VARIABLEANDUNITS	1.00000E+002	s	1.00000E+002	second(s)	Max &Discharge Time
DISCHARGEMODE	MULTIPARAM	0	9.00000E-005	&Discharge Mode	Constant Current	Amp(s)
SAMPLETIME	QUANT	1.00000E-002	Sa&mple Period (s)
DISCHARGESTOPAT1	MULTIPARAM	3	0.00000E+000	Discharge Stop At &1	Voltage < Limit	V
DISCHARGESTOPAT2	MULTIPARAM	0	0.00000E+000	Discharge Stop At &2	None	N/A
AESBHCSELECTOR	TOGGLE	F	Save Both Half Cells
IRCOMP	TOGGLE	F	IR &Measure
EOC	QUANT	0	Open Circuit (V)
SEQUENCER	TOGGLE	TRUE	Run as Sequence
PSTATMODEL	IQUANT	53	Pstat Model
PSTATSECTION	LABEL	IFC5000-01520	Pstat Section
PSTATSERIALNO	LABEL	01520	Pstat Serial Number
CTRLMODE	IQUANT	0	Control Mode
ELECTROMETER	IQUANT	1	RE=0 or CS=1
IESTAB	IQUANT	0	I/E Stability
CASPEED	IQUANT	4	Control Amp Speed
CONVENTION	IQUANT	1	Current Convention
ICHRANGE	IQUANT	2	Ich Range
ICHRANGEMODE	TOGGLE	T	Ich Auto Range
ICHOFFSETENABLE	TOGGLE	F	Ich Offset Enable
ICHOFFSET	QUANT	0	Ich Offset (V)
ICHFILTER	IQUANT	1	Ich Filter
VCHRANGE	IQUANT	2	Vch Range
VCHRANGEMODE	TOGGLE	T	Vch Auto Range
VCHOFFSETENABLE	TOGGLE	F	Vch Offset Enable
VCHOFFSET	QUANT	0	Vch Offset (V)
VCHFILTER	IQUANT	1	Vch Filter
IERANGELOWERLIMIT	IQUANT	9	I/E Range Lower Limit
IERANGEMODE	TOGGLE	F	I/E AutoRange
IERANGE	IQUANT	9	I/E Range
ACHSELECT	IQUANT	1	Ach Select
ACHRANGE	IQUANT	2	Ach Range
ACHOFFSETENABLE	TOGGLE	F	Ach Offset Enable
ACHOFFSET	QUANT	0	Ach Offset (V)
ACHFILTER	IQUANT	1	Ach Filter
CABLEID	IQUANT	14	Cable ID
DCCALDATE	LABEL	5-7-2017	DC Calibration Date
ACCALDATE	LABEL	12/3/2015	AC Calibration Date
FRAMEWORKVERSION	QUANT	7.01	Framework Version
INSTRUMENTVERSION	LABEL	4.00	Instrument Version
CURVE	TABLE	151
	Pt	T	Vf	Im	Vu	Pwr	Sig	Ach	Temp	IERange	Over
	#	s	V	A	V	W	V	V	deg C	#	bits
	0	0.013333	8.08702E-001	-8.87509E-005	0.00000E+000	-7.17730E-005	-5.39641E-002	8.08840E-001	3.57260E+000	9	...........
	1	0.026667	7.95025E-001	-8.88082E-005	0.00000E+000	-7.06048E-005	-5.39641E-002	7.95156E-001	3.57260E+000	9	...........
	2	0.04	7.82271E-001	-8.86478E-005	0.00000E+000	-6.93465E-005	-5.39641E-002	7.82387E-001	3.57260E+000	9	...........
	3	0.053333	7.70237E-001	-8.87082E-005	0.00000E+000	-6.83264E-005	-5.39641E-002	7.70342E-001	3.57260E+000	9	...........
	4	0.066667	7.58799E-001	-8.85207E-005	0.00000E+000	-6.71694E-005	-5.39641E-002	7.58906E-001	3.57260E+000	9	...........
	5	0.08	7.47840E-001	-8.88728E-005	0.00000E+000	-6.64627E-005	-5.39641E-002	7.47971E-001	3.57260E+000	9	...........
	6	0.093333	7.37334E-001	-8.89624E-005	0.00000E+000	-6.55950E-005	-5.39641E-002	7.37459E-001	3.57260E+000	9	...........
	7	0.106667	7.27231E-001	-8.87759E-005	0.00000E+000	-6.45606E-005	-5.39641E-002	7.27375E-001	3.57260E+000	9	...........
	8	0.12	7.17462E-001	-8.87645E-005	0.00000E+000	-6.36851E-005	-5.39641E-002	7.17601E-001	3.57260E+000	9	...........
	9	0.133333	7.08006E-001	-8.87655E-005	0.00000E+000	-6.28465E-005	-5.39641E-002	7.08166E-001	3.57260E+000	9	...........
	10	0.146667	6.98842E-001	-8.87509E-005	0.00000E+000	-6.20229E-005	-5.39641E-002	6.98973E-001	3.57260E+000	9	...........
	11	0.16	6.89965E-001	-8.86853E-005	0.00000E+000	-6.11898E-005	-5.39641E-002	6.90089E-001	3.57260E+000	9	...........
	12	0.173333	6.81295E-001	-8.87645E-005	0.00000E+000	-6.04747E-005	-5.39641E-002	6.81404E-001	3.57260E+000	9	...........
	13	0.186667	6.72863E-001	-8.87676E-005	0.00000E+000	-5.97284E-005	-5.39641E-002	6.72970E-001	3.57260E+000	9	...........
	14	0.2	6.64633E-001	-8.86978E-005	0.00000E+000	-5.89515E-005	-5.39641E-002	6.64720E-001	3.57260E+000	9	...........
	15	0.213333	6.56600E-001	-8.90739E-005	0.00000E+000	-5.84860E-005	-5.39641E-002	6.56678E-001	3.57260E+000	9	...........
	16	0.226667	6.48760E-001	-8.86530E-005	0.00000E+000	-5.75145E-005	-5.39641E-002	6.48846E-001	3.57260E+000	9	...........
	17	0.24	6.41091E-001	-8.86280E-005	0.00000E+000	-5.68186E-005	-5.39641E-002	6.41173E-001	3.57260E+000	9	...........
	18	0.253333	6.33537E-001	-8.86040E-005	0.00000E+000	-5.61339E-005	-5.39641E-002	6.33591E-001	3.57260E+000	9	...........
	19	0.266667	6.26169E-001	-8.87676E-005	0.00000E+000	-5.55835E-005	-5.39641E-002	6.26242E-001	3.57260E+000	9	...........
	20	0.28	6.18944E-001	-8.86947E-005	0.00000E+000	-5.48970E-005	-5.39641E-002	6.19017E-001	3.57260E+000	9	...........
	21	0.293333	6.11788E-001	-8.84988E-005	0.00000E+000	-5.41424E-005	-5.39641E-002	6.11927E-001	3.57260E+000	9	...........
	22	0.306667	6.04792E-001	-8.89510E-005	0.00000E+000	-5.37969E-005	-5.39641E-002	6.04930E-001	3.57260E+000	9	...........
	23	0.32	5.97931E-001	-8.86999E-005	0.00000E+000	-5.30364E-005	-5.39641E-002	5.98046E-001	3.57260E+000	9	...........
	24	0.333333	5.91187E-001	-8.89666E-005	0.00000E+000	-5.25959E-005	-5.39641E-002	5.91291E-001	3.57260E+000	9	...........
	25	0.346667	5.84494E-001	-8.87353E-005	0.00000E+000	-5.18652E-005	-5.39641E-002	5.84631E-001	3.57260E+000	9	...........
	26	0.36	5.77936E-001	-8.86988E-005	0.00000E+000	-5.12623E-005	-5.39641E-002	5.78051E-001	3.57260E+000	9	...........
	27	0.373333	5.71488E-001	-8.86176E-005	0.00000E+000	-5.06438E-005	-5.39641E-002	5.71596E-001	3.57260E+000	9	...........
	28	0.386667	5.65114E-001	-8.87426E-005	0.00000E+000	-5.01497E-005	-5.39641E-002	5.65211E-001	3.57260E+000	9	...........
	29	0.4	5.58763E-001	-8.85321E-005	0.00000E+000	-4.94685E-005	-5.39641E-002	5.58880E-001	3.57260E+000	9	...........
	30	0.413333	5.52554E-001	-8.89541E-005	0.00000E+000	-4.91520E-005	-5.39641E-002	5.52677E-001	3.57260E+000	9	...........
	31	0.426667	5.46410E-001	-8.87415E-005	0.00000E+000	-4.84892E-005	-5.39641E-002	5.46519E-001	3.57260E+000	9	...........
	32	0.44	5.40339E-001	-8.87207E-005	0.00000E+000	-4.79392E-005	-5.39641E-002	5.40425E-001	3.57260E+000	9	...........
	33	0.453333	5.34286E-001	-8.88364E-005	0.00000E+000	-4.74641E-005	-5.39641E-002	5.34387E-001	3.57260E+000	9	...........
	34	0.466667	5.28330E-001	-8.86571E-005	0.00000E+000	-4.68403E-005	-5.39641E-002	5.28447E-001	3.57260E+000	9	...........
	35	0.48	5.22439E-001	-8.88291E-005	0.00000E+000	-4.64078E-005	-5.39641E-002	5.22550E-001	3.57260E+000	9	...........
	36	0.493333	5.16587E-001	-8.86874E-005	0.00000E+000	-4.58148E-005	-5.39641E-002	5.16704E-001	3.57260E+000	9	...........
	37	0.506667	5.10793E-001	-8.84738E-005	0.00000E+000	-4.51918E-005	-5.39641E-002	5.10900E-001	3.57260E+000	9	...........
	38	0.52	5.05036E-001	-8.88614E-005	0.00000E+000	-4.48781E-005	-5.39641E-002	5.05151E-001	3.57260E+000	9	...........
	39	0.533333	4.99378E-001	-8.86175E-005	0.00000E+000	-4.42537E-005	-5.39641E-002	4.99465E-001	3.57260E+000	9	...........
	40	0.546667	4.93784E-001	-8.87811E-005	0.00000E+000	-4.38387E-005	-5.39641E-002	4.93840E-001	3.57260E+000	9	...........
	41	0.56	4.88208E-001	-8.86321E-005	0.00000E+000	-4.32709E-005	-5.39641E-002	4.88283E-001	3.57260E+000	9	...........
	42	0.573333	4.82747E-001	-8.88676E-005	0.00000E+000	-4.29006E-005	-5.39641E-002	4.82813E-001	3.57260E+000	9	...........
	43	0.586667	4.77267E-001	-8.88832E-005	0.00000E+000	-4.24210E-005	-5.39641E-002	4.77333E-001	3.57260E+000	9	...........
	44	0.6	4.71803E-001	-8.88020E-005	0.00000E+000	-4.18970E-005	-5.39641E-002	4.71865E-001	3.57260E+000	9	...........
	45	0.613333	4.66379E-001	-8.88718E-005	0.00000E+000	-4.14480E-005	-5.39641E-002	4.66440E-001	3.57260E+000	9	...........
	46	0.626667	4.60974E-001	-8.87968E-005	0.00000E+000	-4.09330E-005	-5.39641E-002	4.61035E-001	3.57260E+000	9	...........
	47	0.64	4.55611E-001	-8.89541E-005	0.00000E+000	-4.05285E-005	-5.39641E-002	4.55676E-001	3.57260E+000	9	...........
	48	0.653333	4.50282E-001	-8.88207E-005	0.00000E+000	-3.99944E-005	-5.39641E-002	4.50344E-001	3.57260E+000	9	...........
	49	0.666667	4.44964E-001	-8.86519E-005	0.00000E+000	-3.94469E-005	-5.39641E-002	4.45037E-001	3.57260E+000	9	...........
	50	0.68	4.39700E-001	-8.87843E-005	0.00000E+000	-3.90384E-005	-5.39641E-002	4.39759E-001	3.57260E+000	9	...........
	51	0.693333	4.34435E-001	-8.87926E-005	0.00000E+000	-3.85746E-005	-5.39641E-002	4.34494E-001	3.57260E+000	9	...........
	52	0.706667	4.29200E-001	-8.89009E-005	0.00000E+000	-3.81563E-005	-5.39641E-002	4.29255E-001	3.57260E+000	9	...........
	53	0.72	4.24000E-001	-8.87019E-005	0.00000E+000	-3.76096E-005	-5.39641E-002	4.24060E-001	3.57260E+000	9	...........
	54	0.733333	4.18820E-001	-8.86790E-005	0.00000E+000	-3.71406E-005	-5.39641E-002	4.18876E-001	3.57260E+000	9	...........
	55	0.746667	4.13665E-001	-8.88801E-005	0.00000E+000	-3.67666E-005	-5.39641E-002	4.13722E-001	3.57260E+000	9	...........
	56	0.76	4.08535E-001	-8.89051E-005	0.00000E+000	-3.63209E-005	-5.39641E-002	4.08588E-001	3.57260E+000	9	...........
	57	0.773333	4.03427E-001	-8.88853E-005	0.00000E+000	-3.58588E-005	-5.39641E-002	4.03474E-001	3.57260E+000	9	...........
	58	0.786667	3.98325E-001	-8.87999E-005	0.00000E+000	-3.53712E-005	-5.39641E-002	3.98375E-001	3.57260E+000	9	...........
	59	0.8	3.93232E-001	-8.89020E-005	0.00000E+000	-3.49591E-005	-5.39641E-002	3.93275E-001	3.57260E+000	9	...........
	60	0.813333	3.88137E-001	-8.89197E-005	0.00000E+000	-3.45130E-005	-5.39641E-002	3.88184E-001	3.57260E+000	9	...........
	61	0.826667	3.83047E-001	-8.86019E-005	0.00000E+000	-3.39387E-005	-5.39641E-002	3.83092E-001	3.57260E+000	9	...........
	62	0.84	3.77985E-001	-8.86457E-005	0.00000E+000	-3.35067E-005	-5.39641E-002	3.78031E-001	3.57260E+000	9	...........
	63	0.853333	3.72945E-001	-8.85957E-005	0.00000E+000	-3.30413E-005	-5.39641E-002	3.72990E-001	3.57260E+000	9	...........
	64	0.866667	3.67921E-001	-8.89385E-005	0.00000E+000	-3.27223E-005	-5.39641E-002	3.67969E-001	3.57260E+000	9	...........
	65	0.88	3.62913E-001	-8.86592E-005	0.00000E+000	-3.21756E-005	-5.39641E-002	3.62967E-001	3.57260E+000	9	...........
	66	0.893333	3.57928E-001	-8.87259E-005	0.00000E+000	-3.17574E-005	-5.39641E-002	3.57971E-001	3.57260E+000	9	...........
	67	0.906667	3.52965E-001	-8.87915E-005	0.00000E+000	-3.13403E-005	-5.39641E-002	3.53009E-001	3.57260E+000	9	...........
	68	0.92	3.47999E-001	-8.88145E-005	0.00000E+000	-3.09073E-005	-5.39641E-002	3.48048E-001	3.57260E+000	9	...........
	69	0.933333	3.43053E-001	-8.85290E-005	0.00000E+000	-3.03702E-005	-5.39641E-002	3.43097E-001	3.57260E+000	9	...........
	70	0.946667	3.38119E-001	-8.88561E-005	0.00000E+000	-3.00439E-005	-5.39641E-002	3.38158E-001	3.57260E+000	9	...........
	71	0.96	3.33187E-001	-8.86749E-005	0.00000E+000	-2.95453E-005	-5.39641E-002	3.33231E-001	3.57260E+000	9	...........
	72	0.97333	3.28299E-001	-8.88207E-005	0.00000E+000	-2.91597E-005	-5.39641E-002	3.28344E-001	3.57260E+000	9	...........
	73	0.98667	3.23435E-001	-8.89332E-005	0.00000E+000	-2.87641E-005	-5.39641E-002	3.23475E-001	3.57260E+000	9	...........
	74	1	3.18581E-001	-8.86071E-005	0.00000E+000	-2.82285E-005	-5.39641E-002	3.18622E-001	3.57260E+000	9	...........
	75	1.01333	3.13741E-001	-8.88530E-005	0.00000E+000	-2.78768E-005	-5.39641E-002	3.13785E-001	3.57260E+000	9	...........
	76	1.02667	3.08904E-001	-8.86571E-005	0.00000E+000	-2.73866E-005	-5.39641E-002	3.08943E-001	3.57260E+000	9	...........
	77	1.04	3.04071E-001	-8.87572E-005	0.00000E+000	-2.69885E-005	-5.39641E-002	3.04113E-001	3.57260E+000	9	...........
	78	1.05333	2.99249E-001	-8.87853E-005	0.00000E+000	-2.65689E-005	-5.39641E-002	2.99291E-001	3.57260E+000	9	...........
	79	1.06667	2.94445E-001	-8.86561E-005	0.00000E+000	-2.61044E-005	-5.39641E-002	2.94482E-001	3.57260E+000	9	...........
	80	1.08	2.89658E-001	-8.87478E-005	0.00000E+000	-2.57065E-005	-5.39641E-002	2.89696E-001	3.57260E+000	9	...........
	81	1.09333	2.84891E-001	-8.87655E-005	0.00000E+000	-2.52885E-005	-5.39641E-002	2.84931E-001	3.57260E+000	9	...........
	82	1.10667	2.80138E-001	-8.88655E-005	0.00000E+000	-2.48946E-005	-5.39641E-002	2.80177E-001	3.57260E+000	9	...........
	83	1.12	2.75403E-001	-8.88645E-005	0.00000E+000	-2.44735E-005	-5.39641E-002	2.75441E-001	3.57260E+000	9	...........
	84	1.13333	2.70702E-001	-8.85988E-005	0.00000E+000	-2.39839E-005	-5.39641E-002	2.70736E-001	3.57260E+000	9	...........
	85	1.14667	2.66003E-001	-8.88739E-005	0.00000E+000	-2.36408E-005	-5.39641E-002	2.66040E-001	3.57260E+000	9	...........
	86	1.16	2.61320E-001	-8.85957E-005	0.00000E+000	-2.31518E-005	-5.39641E-002	2.61353E-001	3.57260E+000	9	...........
	87	1.17333	2.56655E-001	-8.85644E-005	0.00000E+000	-2.27305E-005	-5.39641E-002	2.56687E-001	3.57260E+000	9	...........
	88	1.18667	2.51997E-001	-8.87290E-005	0.00000E+000	-2.23594E-005	-5.39641E-002	2.52026E-001	3.57260E+000	9	...........
	89	1.2	2.47356E-001	-8.87978E-005	0.00000E+000	-2.19646E-005	-5.39641E-002	2.47385E-001	3.57260E+000	9	...........
	90	1.21333	2.42740E-001	-8.88134E-005	0.00000E+000	-2.15585E-005	-5.39641E-002	2.42770E-001	3.57260E+000	9	...........
	91	1.22667	2.38138E-001	-8.90239E-005	0.00000E+000	-2.11999E-005	-5.39641E-002	2.38162E-001	3.57260E+000	9	...........
	92	1.24	2.33571E-001	-8.88686E-005	0.00000E+000	-2.07571E-005	-5.39641E-002	2.33603E-001	3.57260E+000	9	...........
	93	1.25333	2.29028E-001	-8.88614E-005	0.00000E+000	-2.03517E-005	-5.39641E-002	2.29060E-001	3.57260E+000	9	...........
	94	1.26667	2.24498E-001	-8.87040E-005	0.00000E+000	-1.99139E-005	-5.39641E-002	2.24527E-001	3.57260E+000	9	...........
	95	1.28	2.19969E-001	-8.87301E-005	0.00000E+000	-1.95179E-005	-5.39641E-002	2.20001E-001	3.57260E+000	9	...........
	96	1.29333	2.15469E-001	-8.88061E-005	0.00000E+000	-1.91350E-005	-5.39641E-002	2.15495E-001	3.57260E+000	9	...........
	97	1.30667	2.10992E-001	-8.89103E-005	0.00000E+000	-1.87593E-005	-5.39641E-002	2.11013E-001	3.57260E+000	9	...........
	98	1.32	2.06529E-001	-8.88739E-005	0.00000E+000	-1.83550E-005	-5.39641E-002	2.06547E-001	3.57260E+000	9	...........
	99	1.33333	2.02087E-001	-8.88655E-005	0.00000E+000	-1.79585E-005	-5.39641E-002	2.02115E-001	3.57260E+000	9	...........
	100	1.34667	1.97661E-001	-8.88457E-005	0.00000E+000	-1.75613E-005	-5.39641E-002	1.97688E-001	3.57260E+000	9	...........
	101	1.36	1.93269E-001	-8.89655E-005	0.00000E+000	-1.71943E-005	-5.39641E-002	1.93295E-001	3.57260E+000	9	...........
	102	1.37333	1.88890E-001	-8.88749E-005	0.00000E+000	-1.67876E-005	-5.39641E-002	1.88916E-001	3.57260E+000	9	...........
	103	1.38667	1.84540E-001	-8.87676E-005	0.00000E+000	-1.63812E-005	-5.39641E-002	1.84556E-001	3.57260E+000	9	...........
	104	1.4	1.80201E-001	-8.89249E-005	0.00000E+000	-1.60243E-005	-5.39641E-002	1.80223E-001	3.57260E+000	9	...........
	105	1.41333	1.75875E-001	-8.87353E-005	0.00000E+000	-1.56063E-005	-5.39641E-002	1.75896E-001	3.57260E+000	9	...........
	106	1.42667	1.71570E-001	-8.87290E-005	0.00000E+000	-1.52233E-005	-5.39641E-002	1.71597E-001	3.57260E+000	9	...........
	107	1.44	1.67294E-001	-8.86905E-005	0.00000E+000	-1.48374E-005	-5.39641E-002	1.67314E-001	3.57260E+000	9	...........
	108	1.45333	1.63036E-001	-8.88426E-005	0.00000E+000	-1.44846E-005	-5.39641E-002	1.63054E-001	3.57260E+000	9	...........
	109	1.46667	1.58790E-001	-8.87259E-005	0.00000E+000	-1.40888E-005	-5.39641E-002	1.58806E-001	3.57260E+000	9	...........
	110	1.48	1.54550E-001	-8.87113E-005	0.00000E+000	-1.37103E-005	-5.39641E-002	1.54567E-001	3.57260E+000	9	...........
	111	1.49333	1.50349E-001	-8.88207E-005	0.00000E+000	-1.33541E-005	-5.39641E-002	1.50370E-001	3.57260E+000	9	...........
	112	1.50667	1.46185E-001	-8.89708E-005	0.00000E+000	-1.30062E-005	-5.39641E-002	1.46199E-001	3.57260E+000	9	...........
	113	1.52	1.42028E-001	-8.86697E-005	0.00000E+000	-1.25936E-005	-5.39641E-002	1.42046E-001	3.57260E+000	9	...........
	114	1.53333	1.37881E-001	-8.88384E-005	0.00000E+000	-1.22492E-005	-5.39641E-002	1.37897E-001	3.57260E+000	9	...........
	115	1.54667	1.33759E-001	-8.88770E-005	0.00000E+000	-1.18881E-005	-5.39641E-002	1.33773E-001	3.57260E+000	9	...........
	116	1.56	1.29659E-001	-8.89155E-005	0.00000E+000	-1.15287E-005	-5.39641E-002	1.29666E-001	3.57260E+000	9	...........
	117	1.57333	1.25558E-001	-8.87665E-005	0.00000E+000	-1.11453E-005	-5.39641E-002	1.25568E-001	3.57260E+000	9	...........
	118	1.58667	1.21466E-001	-8.87572E-005	0.00000E+000	-1.07810E-005	-5.39641E-002	1.21483E-001	3.57260E+000	9	...........
	119	1.6	1.17384E-001	-8.88405E-005	0.00000E+000	-1.04285E-005	-5.39641E-002	1.17402E-001	3.57260E+000	9	...........
	120	1.61333	1.13337E-001	-8.88832E-005	0.00000E+000	-1.00737E-005	-5.39641E-002	1.13349E-001	3.57260E+000	9	...........
	121	1.62667	1.09310E-001	-8.89874E-005	0.00000E+000	-9.72725E-006	-5.39641E-002	1.09327E-001	3.57260E+000	9	...........
	122	1.64	1.05297E-001	-8.85446E-005	0.00000E+000	-9.32352E-006	-5.39641E-002	1.05313E-001	3.57260E+000	9	...........
	123	1.65333	1.01298E-001	-8.85248E-005	0.00000E+000	-8.96735E-006	-5.39641E-002	1.01306E-001	3.57260E+000	9	...........
	124	1.66667	9.73080E-002	-8.88009E-005	0.00000E+000	-8.64104E-006	-5.39641E-002	9.73259E-002	3.57260E+000	9	...........
	125	1.68	9.33446E-002	-8.90979E-005	0.00000E+000	-8.31680E-006	-5.39641E-002	9.33556E-002	3.57260E+000	9	...........
	126	1.69333	8.93972E-002	-8.87801E-005	0.00000E+000	-7.93669E-006	-5.39641E-002	8.94068E-002	3.57260E+000	9	...........
	127	1.70667	8.54738E-002	-8.87540E-005	0.00000E+000	-7.58615E-006	-5.39641E-002	8.54866E-002	3.57260E+000	9	...........
	128	1.72	8.15756E-002	-8.90572E-005	0.00000E+000	-7.26489E-006	-5.39641E-002	8.15854E-002	3.57260E+000	9	...........
	129	1.73333	7.76973E-002	-8.88353E-005	0.00000E+000	-6.90226E-006	-5.39641E-002	7.77113E-002	3.57260E+000	9	...........
	130	1.74667	7.38422E-002	-8.85946E-005	0.00000E+000	-6.54202E-006	-5.39641E-002	7.38419E-002	3.57260E+000	9	...........
	131	1.76	6.99937E-002	-8.89041E-005	0.00000E+000	-6.22273E-006	-5.39641E-002	6.99968E-002	3.57260E+000	9	...........
	132	1.77333	6.61657E-002	-8.86342E-005	0.00000E+000	-5.86454E-006	-5.39641E-002	6.61653E-002	3.57260E+000	9	...........
	133	1.78667	6.23503E-002	-8.86061E-005	0.00000E+000	-5.52462E-006	-5.39641E-002	6.23492E-002	3.57260E+000	9	...........
	134	1.8	5.85523E-002	-8.88718E-005	0.00000E+000	-5.20365E-006	-5.39641E-002	5.85509E-002	3.57260E+000	9	...........
	135	1.81333	5.47801E-002	-8.85519E-005	0.00000E+000	-4.85088E-006	-5.39641E-002	5.47721E-002	3.57260E+000	9	...........
	136	1.82667	5.10220E-002	-8.86290E-005	0.00000E+000	-4.52203E-006	-5.39641E-002	5.10145E-002	3.57260E+000	9	...........
	137	1.84	4.72872E-002	-8.88978E-005	0.00000E+000	-4.20373E-006	-5.39641E-002	4.72937E-002	3.57260E+000	9	...........
	138	1.85333	4.35542E-002	-8.85957E-005	0.00000E+000	-3.85872E-006	-5.39641E-002	4.35633E-002	3.57260E+000	9	...........
	139	1.86667	3.98385E-002	-8.87499E-005	0.00000E+000	-3.53566E-006	-5.39641E-002	3.98496E-002	3.57260E+000	9	...........
	140	1.88	3.61483E-002	-8.87405E-005	0.00000E+000	-3.20782E-006	-5.39641E-002	3.61548E-002	3.57260E+000	9	...........
	141	1.89333	3.24854E-002	-8.89582E-005	0.00000E+000	-2.88984E-006	-5.39641E-002	3.24836E-002	3.57260E+000	9	...........
	142	1.90667	2.88275E-002	-8.88364E-005	0.00000E+000	-2.56093E-006	-5.39641E-002	2.88307E-002	3.57260E+000	9	...........
	143	1.92	2.51967E-002	-8.89916E-005	0.00000E+000	-2.24229E-006	-5.39641E-002	2.51967E-002	3.57260E+000	9	...........
	144	1.93333	2.15802E-002	-8.87863E-005	0.00000E+000	-1.91603E-006	-5.39641E-002	2.15800E-002	3.57260E+000	9	...........
	145	1.94667	1.79776E-002	-8.87436E-005	0.00000E+000	-1.59540E-006	-5.39641E-002	1.79762E-002	3.57260E+000	9	...........
	146	1.96	1.43838E-002	-8.84779E-005	0.00000E+000	-1.27265E-006	-5.39641E-002	1.43805E-002	3.57260E+000	9	...........
	147	1.97333	1.08044E-002	-8.89666E-005	0.00000E+000	-9.61227E-007	-5.39641E-002	1.08027E-002	3.57260E+000	9	...........
	148	1.98667	7.23941E-003	-8.86582E-005	0.00000E+000	-6.41833E-007	-5.39641E-002	7.22800E-003	3.57260E+000	9	...........
	149	2	3.69574E-003	-8.87488E-005	0.00000E+000	-3.27992E-007	-5.39641E-002	3.68029E-003	3.57260E+000	9	...........
	150	2.00833	8.20410E-004	-8.87999E-005	0.00000E+000	-7.28523E-008	-5.39641E-002	8.06370E-004	3.57260E+000	9	...........
STARTTIMEOFFSET	QUANT	2462.523	Start Time Offset (s)
