EXPLAIN
TAG	PWR800_DISCHARGE
TITLE	LABEL	PWR Cyclic Charge Discharge (Cell) - Discharge Step	Test &Identifier
DATE	LABEL	10-7-2017	Date
TIME	LABEL	15:58:36	Time
NOTES	NOTES	3	&Notes...
	supercap test cell
	0.9mg
	6M KOH
PSTAT	PSTAT	IFC5000-01520	Potentiostat
CAPACITY	QUANT	1.00000E-003	Capacity (A-hr)
CELLTYPE	SELECTOR	1	&Cell Type
WORKINGCONNECTION	SELECTOR	0	&Working Lead
MAXDISCHARGETIME	VARIABLEANDUNITS	1.00000E+002	s	1.00000E+002	second(s)	Max &Discharge Time
DISCHARGEMODE	MULTIPARAM	0	9.00000E-005	&Discharge Mode	Constant Current	Amp(s)
SAMPLETIME	QUANT	1.00000E-002	Sa&mple Period (s)
DISCHARGESTOPAT1	MULTIPARAM	3	0.00000E+000	Discharge Stop At &1	Voltage < Limit	V
DISCHARGESTOPAT2	MULTIPARAM	0	0.00000E+000	Discharge Stop At &2	None	N/A
AESBHCSELECTOR	TOGGLE	F	Save Both Half Cells
IRCOMP	TOGGLE	F	IR &Measure
EOC	QUANT	0	Open Circuit (V)
SEQUENCER	TOGGLE	TRUE	Run as Sequence
PSTATMODEL	IQUANT	53	Pstat Model
PSTATSECTION	LABEL	IFC5000-01520	Pstat Section
PSTATSERIALNO	LABEL	01520	Pstat Serial Number
CTRLMODE	IQUANT	0	Control Mode
ELECTROMETER	IQUANT	1	RE=0 or CS=1
IESTAB	IQUANT	0	I/E Stability
CASPEED	IQUANT	4	Control Amp Speed
CONVENTION	IQUANT	1	Current Convention
ICHRANGE	IQUANT	2	Ich Range
ICHRANGEMODE	TOGGLE	T	Ich Auto Range
ICHOFFSETENABLE	TOGGLE	F	Ich Offset Enable
ICHOFFSET	QUANT	0	Ich Offset (V)
ICHFILTER	IQUANT	1	Ich Filter
VCHRANGE	IQUANT	2	Vch Range
VCHRANGEMODE	TOGGLE	T	Vch Auto Range
VCHOFFSETENABLE	TOGGLE	F	Vch Offset Enable
VCHOFFSET	QUANT	0	Vch Offset (V)
VCHFILTER	IQUANT	1	Vch Filter
IERANGELOWERLIMIT	IQUANT	9	I/E Range Lower Limit
IERANGEMODE	TOGGLE	F	I/E AutoRange
IERANGE	IQUANT	9	I/E Range
ACHSELECT	IQUANT	1	Ach Select
ACHRANGE	IQUANT	2	Ach Range
ACHOFFSETENABLE	TOGGLE	F	Ach Offset Enable
ACHOFFSET	QUANT	0	Ach Offset (V)
ACHFILTER	IQUANT	1	Ach Filter
CABLEID	IQUANT	14	Cable ID
DCCALDATE	LABEL	5-7-2017	DC Calibration Date
ACCALDATE	LABEL	12/3/2015	AC Calibration Date
FRAMEWORKVERSION	QUANT	7.01	Framework Version
INSTRUMENTVERSION	LABEL	4.00	Instrument Version
CURVE	TABLE	149
	Pt	T	Vf	Im	Vu	Pwr	Sig	Ach	Temp	IERange	Over
	#	s	V	A	V	W	V	V	deg C	#	bits
	0	0.013333	8.09482E-001	-8.88155E-005	0.00000E+000	-7.18945E-005	-5.39641E-002	8.09597E-001	3.57290E+000	9	...........
	1	0.026667	7.95473E-001	-8.86801E-005	0.00000E+000	-7.05426E-005	-5.39641E-002	7.95573E-001	3.57290E+000	9	...........
	2	0.04	7.82359E-001	-8.88978E-005	0.00000E+000	-6.95500E-005	-5.39641E-002	7.82486E-001	3.57290E+000	9	...........
	3	0.053333	7.70019E-001	-8.88582E-005	0.00000E+000	-6.84225E-005	-5.39641E-002	7.70131E-001	3.57290E+000	9	...........
	4	0.066667	7.58298E-001	-8.90312E-005	0.00000E+000	-6.75122E-005	-5.39641E-002	7.58397E-001	3.57290E+000	9	...........
	5	0.08	7.47083E-001	-8.83487E-005	0.00000E+000	-6.60038E-005	-5.39641E-002	7.47200E-001	3.57290E+000	9	...........
	6	0.093333	7.36315E-001	-8.88186E-005	0.00000E+000	-6.53985E-005	-5.39641E-002	7.36446E-001	3.57290E+000	9	...........
	7	0.106667	7.25982E-001	-8.90135E-005	0.00000E+000	-6.46222E-005	-5.39641E-002	7.26106E-001	3.57290E+000	9	...........
	8	0.12	7.15966E-001	-8.87603E-005	0.00000E+000	-6.35493E-005	-5.39641E-002	7.16084E-001	3.57290E+000	9	...........
	9	0.133333	7.06311E-001	-8.89270E-005	0.00000E+000	-6.28101E-005	-5.39641E-002	7.06444E-001	3.57290E+000	9	...........
	10	0.146667	6.96948E-001	-8.88291E-005	0.00000E+000	-6.19092E-005	-5.39641E-002	6.97064E-001	3.57290E+000	9	...........
	11	0.16	6.87864E-001	-8.86405E-005	0.00000E+000	-6.09726E-005	-5.39641E-002	6.87992E-001	3.57290E+000	9	...........
	12	0.173333	6.79051E-001	-8.88864E-005	0.00000E+000	-6.03584E-005	-5.39641E-002	6.79153E-001	3.57290E+000	9	...........
	13	0.186667	6.70447E-001	-8.87269E-005	0.00000E+000	-5.94867E-005	-5.39641E-002	6.70552E-001	3.57290E+000	9	...........
	14	0.2	6.62031E-001	-8.90030E-005	0.00000E+000	-5.89228E-005	-5.39641E-002	6.62145E-001	3.57290E+000	9	...........
	15	0.213333	6.53858E-001	-8.87280E-005	0.00000E+000	-5.80155E-005	-5.39641E-002	6.53969E-001	3.57290E+000	9	...........
	16	0.226667	6.45853E-001	-8.88937E-005	0.00000E+000	-5.74122E-005	-5.39641E-002	6.45976E-001	3.57290E+000	9	...........
	17	0.24	6.38037E-001	-8.88864E-005	0.00000E+000	-5.67128E-005	-5.39641E-002	6.38131E-001	3.57290E+000	9	...........
	18	0.253333	6.30391E-001	-8.89864E-005	0.00000E+000	-5.60962E-005	-5.39641E-002	6.30497E-001	3.57290E+000	9	...........
	19	0.266667	6.22909E-001	-8.88936E-005	0.00000E+000	-5.53727E-005	-5.39641E-002	6.23008E-001	3.57290E+000	9	...........
	20	0.28	6.15541E-001	-8.89093E-005	0.00000E+000	-5.47273E-005	-5.39641E-002	6.15654E-001	3.57290E+000	9	...........
	21	0.293333	6.08272E-001	-8.86780E-005	0.00000E+000	-5.39404E-005	-5.39641E-002	6.08418E-001	3.57290E+000	9	...........
	22	0.306667	6.01199E-001	-8.87957E-005	0.00000E+000	-5.33839E-005	-5.39641E-002	6.01327E-001	3.57290E+000	9	...........
	23	0.32	5.94256E-001	-8.87572E-005	0.00000E+000	-5.27445E-005	-5.39641E-002	5.94373E-001	3.57290E+000	9	...........
	24	0.333333	5.87402E-001	-8.87499E-005	0.00000E+000	-5.21319E-005	-5.39641E-002	5.87516E-001	3.57290E+000	9	...........
	25	0.346667	5.80689E-001	-8.90676E-005	0.00000E+000	-5.17206E-005	-5.39641E-002	5.80791E-001	3.57290E+000	9	...........
	26	0.36	5.74066E-001	-8.85269E-005	0.00000E+000	-5.08203E-005	-5.39641E-002	5.74172E-001	3.57290E+000	9	...........
	27	0.373333	5.67531E-001	-8.87561E-005	0.00000E+000	-5.03719E-005	-5.39641E-002	5.67656E-001	3.57290E+000	9	...........
	28	0.386667	5.61055E-001	-8.85102E-005	0.00000E+000	-4.96591E-005	-5.39641E-002	5.61197E-001	3.57290E+000	9	...........
	29	0.4	5.54693E-001	-8.86894E-005	0.00000E+000	-4.91954E-005	-5.39641E-002	5.54829E-001	3.57290E+000	9	...........
	30	0.413333	5.48440E-001	-8.87645E-005	0.00000E+000	-4.86820E-005	-5.39641E-002	5.48559E-001	3.57290E+000	9	...........
	31	0.426667	5.42218E-001	-8.85498E-005	0.00000E+000	-4.80133E-005	-5.39641E-002	5.42346E-001	3.57290E+000	9	...........
	32	0.44	5.36083E-001	-8.87749E-005	0.00000E+000	-4.75907E-005	-5.39641E-002	5.36214E-001	3.57282E+000	9	...........
	33	0.453333	5.30014E-001	-8.88384E-005	0.00000E+000	-4.70856E-005	-5.39641E-002	5.30147E-001	3.57260E+000	9	...........
	34	0.466667	5.24020E-001	-8.86155E-005	0.00000E+000	-4.64363E-005	-5.39641E-002	5.24120E-001	3.57260E+000	9	...........
	35	0.48	5.18110E-001	-8.88905E-005	0.00000E+000	-4.60551E-005	-5.39641E-002	5.18197E-001	3.57260E+000	9	...........
	36	0.493333	5.12247E-001	-8.88041E-005	0.00000E+000	-4.54896E-005	-5.39641E-002	5.12336E-001	3.57260E+000	9	...........
	37	0.506667	5.06411E-001	-8.87957E-005	0.00000E+000	-4.49671E-005	-5.39641E-002	5.06491E-001	3.57260E+000	9	...........
	38	0.52	5.00663E-001	-8.87322E-005	0.00000E+000	-4.44249E-005	-5.39641E-002	5.00741E-001	3.57260E+000	9	...........
	39	0.533333	4.94987E-001	-8.88811E-005	0.00000E+000	-4.39950E-005	-5.39641E-002	4.95049E-001	3.57260E+000	9	...........
	40	0.546667	4.89340E-001	-8.86884E-005	0.00000E+000	-4.33988E-005	-5.39641E-002	4.89416E-001	3.57260E+000	9	...........
	41	0.56	4.83810E-001	-8.88801E-005	0.00000E+000	-4.30011E-005	-5.39641E-002	4.83874E-001	3.57260E+000	9	...........
	42	0.573333	4.78307E-001	-8.86040E-005	0.00000E+000	-4.23799E-005	-5.39641E-002	4.78366E-001	3.57260E+000	9	...........
	43	0.586667	4.72809E-001	-8.86863E-005	0.00000E+000	-4.19317E-005	-5.39641E-002	4.72871E-001	3.57260E+000	9	...........
	44	0.6	4.67336E-001	-8.86999E-005	0.00000E+000	-4.14526E-005	-5.39641E-002	4.67398E-001	3.57260E+000	9	...........
	45	0.613333	4.61888E-001	-8.87905E-005	0.00000E+000	-4.10113E-005	-5.39641E-002	4.61952E-001	3.57260E+000	9	...........
	46	0.626667	4.56479E-001	-8.87165E-005	0.00000E+000	-4.04972E-005	-5.39641E-002	4.56537E-001	3.57260E+000	9	...........
	47	0.64	4.51119E-001	-8.88864E-005	0.00000E+000	-4.00983E-005	-5.39641E-002	4.51186E-001	3.57260E+000	9	...........
	48	0.653333	4.45788E-001	-8.86769E-005	0.00000E+000	-3.95311E-005	-5.39641E-002	4.45850E-001	3.57260E+000	9	...........
	49	0.666667	4.40478E-001	-8.90447E-005	0.00000E+000	-3.92223E-005	-5.39641E-002	4.40536E-001	3.57260E+000	9	...........
	50	0.68	4.35195E-001	-8.88561E-005	0.00000E+000	-3.86697E-005	-5.39641E-002	4.35251E-001	3.57260E+000	9	...........
	51	0.693333	4.29959E-001	-8.86551E-005	0.00000E+000	-3.81181E-005	-5.39641E-002	4.30018E-001	3.57260E+000	9	...........
	52	0.706667	4.24748E-001	-8.88728E-005	0.00000E+000	-3.77486E-005	-5.39641E-002	4.24807E-001	3.57260E+000	9	...........
	53	0.72	4.19545E-001	-8.85613E-005	0.00000E+000	-3.71555E-005	-5.39641E-002	4.19605E-001	3.57260E+000	9	...........
	54	0.733333	4.14370E-001	-8.89666E-005	0.00000E+000	-3.68651E-005	-5.39641E-002	4.14427E-001	3.57260E+000	9	...........
	55	0.746667	4.09209E-001	-8.87822E-005	0.00000E+000	-3.63304E-005	-5.39641E-002	4.09260E-001	3.57260E+000	9	...........
	56	0.76	4.04065E-001	-8.87717E-005	0.00000E+000	-3.58696E-005	-5.39641E-002	4.04116E-001	3.57260E+000	9	...........
	57	0.773333	3.98944E-001	-8.88478E-005	0.00000E+000	-3.54453E-005	-5.39641E-002	3.98999E-001	3.57260E+000	9	...........
	58	0.786667	3.93836E-001	-8.87030E-005	0.00000E+000	-3.49345E-005	-5.39641E-002	3.93881E-001	3.57260E+000	9	...........
	59	0.8	3.88740E-001	-8.88655E-005	0.00000E+000	-3.45456E-005	-5.39641E-002	3.88791E-001	3.57260E+000	9	...........
	60	0.813333	3.83654E-001	-8.87269E-005	0.00000E+000	-3.40404E-005	-5.39641E-002	3.83708E-001	3.57260E+000	9	...........
	61	0.826667	3.78585E-001	-8.88697E-005	0.00000E+000	-3.36448E-005	-5.39641E-002	3.78631E-001	3.57260E+000	9	...........
	62	0.84	3.73526E-001	-8.89218E-005	0.00000E+000	-3.32146E-005	-5.39641E-002	3.73572E-001	3.57260E+000	9	...........
	63	0.853333	3.68489E-001	-8.88937E-005	0.00000E+000	-3.27563E-005	-5.39641E-002	3.68534E-001	3.57260E+000	9	...........
	64	0.866667	3.63477E-001	-8.87228E-005	0.00000E+000	-3.22487E-005	-5.39641E-002	3.63522E-001	3.57260E+000	9	...........
	65	0.88	3.58479E-001	-8.89385E-005	0.00000E+000	-3.18825E-005	-5.39641E-002	3.58523E-001	3.57260E+000	9	...........
	66	0.893333	3.53468E-001	-8.88030E-005	0.00000E+000	-3.13890E-005	-5.39641E-002	3.53510E-001	3.57260E+000	9	...........
	67	0.906667	3.48486E-001	-8.88166E-005	0.00000E+000	-3.09514E-005	-5.39641E-002	3.48528E-001	3.57260E+000	9	...........
	68	0.92	3.43540E-001	-8.88426E-005	0.00000E+000	-3.05210E-005	-5.39641E-002	3.43581E-001	3.57260E+000	9	...........
	69	0.933333	3.38591E-001	-8.86040E-005	0.00000E+000	-3.00005E-005	-5.39641E-002	3.38631E-001	3.57260E+000	9	...........
	70	0.946667	3.33635E-001	-8.88343E-005	0.00000E+000	-2.96382E-005	-5.39641E-002	3.33667E-001	3.57260E+000	9	...........
	71	0.96	3.28702E-001	-8.84238E-005	0.00000E+000	-2.90651E-005	-5.39641E-002	3.28735E-001	3.57260E+000	9	...........
	72	0.97333	3.23801E-001	-8.87811E-005	0.00000E+000	-2.87474E-005	-5.39641E-002	3.23837E-001	3.57260E+000	9	...........
	73	0.98667	3.18918E-001	-8.89457E-005	0.00000E+000	-2.83664E-005	-5.39641E-002	3.18953E-001	3.57260E+000	9	...........
	74	1	3.14031E-001	-8.89218E-005	0.00000E+000	-2.79242E-005	-5.39641E-002	3.14067E-001	3.57260E+000	9	...........
	75	1.01333	3.09150E-001	-8.86478E-005	0.00000E+000	-2.74054E-005	-5.39641E-002	3.09186E-001	3.57260E+000	9	...........
	76	1.02667	3.04280E-001	-8.87843E-005	0.00000E+000	-2.70153E-005	-5.39641E-002	3.04319E-001	3.57260E+000	9	...........
	77	1.04	2.99432E-001	-8.88020E-005	0.00000E+000	-2.65901E-005	-5.39641E-002	2.99467E-001	3.57260E+000	9	...........
	78	1.05333	2.94617E-001	-8.86769E-005	0.00000E+000	-2.61258E-005	-5.39641E-002	2.94654E-001	3.57260E+000	9	...........
	79	1.06667	2.89808E-001	-8.89343E-005	0.00000E+000	-2.57738E-005	-5.39641E-002	2.89842E-001	3.57260E+000	9	...........
	80	1.08	2.85017E-001	-8.86050E-005	0.00000E+000	-2.52539E-005	-5.39641E-002	2.85057E-001	3.57260E+000	9	...........
	81	1.09333	2.80234E-001	-8.87520E-005	0.00000E+000	-2.48713E-005	-5.39641E-002	2.80272E-001	3.57260E+000	9	...........
	82	1.10667	2.75467E-001	-8.86238E-005	0.00000E+000	-2.44130E-005	-5.39641E-002	2.75509E-001	3.57260E+000	9	...........
	83	1.12	2.70727E-001	-8.88926E-005	0.00000E+000	-2.40656E-005	-5.39641E-002	2.70758E-001	3.57260E+000	9	...........
	84	1.13333	2.65988E-001	-8.88551E-005	0.00000E+000	-2.36344E-005	-5.39641E-002	2.66021E-001	3.57260E+000	9	...........
	85	1.14667	2.61260E-001	-8.87759E-005	0.00000E+000	-2.31936E-005	-5.39641E-002	2.61294E-001	3.57260E+000	9	...........
	86	1.16	2.56553E-001	-8.88301E-005	0.00000E+000	-2.27897E-005	-5.39641E-002	2.56586E-001	3.57260E+000	9	...........
	87	1.17333	2.51883E-001	-8.88645E-005	0.00000E+000	-2.23835E-005	-5.39641E-002	2.51915E-001	3.57260E+000	9	...........
	88	1.18667	2.47222E-001	-8.88093E-005	0.00000E+000	-2.19556E-005	-5.39641E-002	2.47249E-001	3.57260E+000	9	...........
	89	1.2	2.42567E-001	-8.89541E-005	0.00000E+000	-2.15774E-005	-5.39641E-002	2.42593E-001	3.57260E+000	9	...........
	90	1.21333	2.37929E-001	-8.88916E-005	0.00000E+000	-2.11499E-005	-5.39641E-002	2.37957E-001	3.57260E+000	9	...........
	91	1.22667	2.33314E-001	-8.88697E-005	0.00000E+000	-2.07345E-005	-5.39641E-002	2.33341E-001	3.57260E+000	9	...........
	92	1.24	2.28711E-001	-8.87603E-005	0.00000E+000	-2.03004E-005	-5.39641E-002	2.28736E-001	3.57260E+000	9	...........
	93	1.25333	2.24118E-001	-8.87415E-005	0.00000E+000	-1.98885E-005	-5.39641E-002	2.24143E-001	3.57260E+000	9	...........
	94	1.26667	2.19547E-001	-8.88676E-005	0.00000E+000	-1.95107E-005	-5.39641E-002	2.19569E-001	3.57260E+000	9	...........
	95	1.28	2.14995E-001	-8.87176E-005	0.00000E+000	-1.90738E-005	-5.39641E-002	2.15018E-001	3.57260E+000	9	...........
	96	1.29333	2.10459E-001	-8.88770E-005	0.00000E+000	-1.87050E-005	-5.39641E-002	2.10483E-001	3.57260E+000	9	...........
	97	1.30667	2.05952E-001	-8.88666E-005	0.00000E+000	-1.83022E-005	-5.39641E-002	2.05975E-001	3.57260E+000	9	...........
	98	1.32	2.01470E-001	-8.89176E-005	0.00000E+000	-1.79142E-005	-5.39641E-002	2.01494E-001	3.57260E+000	9	...........
	99	1.33333	1.97011E-001	-8.86446E-005	0.00000E+000	-1.74639E-005	-5.39641E-002	1.97034E-001	3.57260E+000	9	...........
	100	1.34667	1.92564E-001	-8.88759E-005	0.00000E+000	-1.71143E-005	-5.39641E-002	1.92584E-001	3.57260E+000	9	...........
	101	1.36	1.88127E-001	-8.89218E-005	0.00000E+000	-1.67286E-005	-5.39641E-002	1.88145E-001	3.57260E+000	9	...........
	102	1.37333	1.83693E-001	-8.89510E-005	0.00000E+000	-1.63397E-005	-5.39641E-002	1.83717E-001	3.57260E+000	9	...........
	103	1.38667	1.79291E-001	-8.89072E-005	0.00000E+000	-1.59402E-005	-5.39641E-002	1.79309E-001	3.57260E+000	9	...........
	104	1.4	1.74921E-001	-8.87134E-005	0.00000E+000	-1.55178E-005	-5.39641E-002	1.74938E-001	3.57260E+000	9	...........
	105	1.41333	1.70559E-001	-8.90437E-005	0.00000E+000	-1.51872E-005	-5.39641E-002	1.70578E-001	3.57260E+000	9	...........
	106	1.42667	1.66228E-001	-8.87895E-005	0.00000E+000	-1.47593E-005	-5.39641E-002	1.66238E-001	3.57260E+000	9	...........
	107	1.44	1.61907E-001	-8.87811E-005	0.00000E+000	-1.43743E-005	-5.39641E-002	1.61922E-001	3.57260E+000	9	...........
	108	1.45333	1.57612E-001	-8.88353E-005	0.00000E+000	-1.40015E-005	-5.39641E-002	1.57627E-001	3.57260E+000	9	...........
	109	1.46667	1.53332E-001	-8.88593E-005	0.00000E+000	-1.36250E-005	-5.39641E-002	1.53343E-001	3.57260E+000	9	...........
	110	1.48	1.49070E-001	-8.90260E-005	0.00000E+000	-1.32711E-005	-5.39641E-002	1.49079E-001	3.57260E+000	9	...........
	111	1.49333	1.44831E-001	-8.87936E-005	0.00000E+000	-1.28601E-005	-5.39641E-002	1.44842E-001	3.57260E+000	9	...........
	112	1.50667	1.40605E-001	-8.87999E-005	0.00000E+000	-1.24857E-005	-5.39641E-002	1.40619E-001	3.57260E+000	9	...........
	113	1.52	1.36389E-001	-8.87520E-005	0.00000E+000	-1.21048E-005	-5.39641E-002	1.36400E-001	3.57260E+000	9	...........
	114	1.53333	1.32202E-001	-8.88155E-005	0.00000E+000	-1.17416E-005	-5.39641E-002	1.32213E-001	3.57260E+000	9	...........
	115	1.54667	1.28035E-001	-8.90770E-005	0.00000E+000	-1.14050E-005	-5.39641E-002	1.28045E-001	3.57260E+000	9	...........
	116	1.56	1.23901E-001	-8.84258E-005	0.00000E+000	-1.09561E-005	-5.39641E-002	1.23906E-001	3.57260E+000	9	...........
	117	1.57333	1.19778E-001	-8.85873E-005	0.00000E+000	-1.06108E-005	-5.39641E-002	1.19790E-001	3.57260E+000	9	...........
	118	1.58667	1.15659E-001	-8.88541E-005	0.00000E+000	-1.02768E-005	-5.39641E-002	1.15668E-001	3.57260E+000	9	...........
	119	1.6	1.11571E-001	-8.90822E-005	0.00000E+000	-9.93900E-006	-5.39641E-002	1.11584E-001	3.57260E+000	9	...........
	120	1.61333	1.07507E-001	-8.87290E-005	0.00000E+000	-9.53900E-006	-5.39641E-002	1.07519E-001	3.57260E+000	9	...........
	121	1.62667	1.03449E-001	-8.86301E-005	0.00000E+000	-9.16872E-006	-5.39641E-002	1.03462E-001	3.57260E+000	9	...........
	122	1.64	9.94084E-002	-8.87269E-005	0.00000E+000	-8.82021E-006	-5.39641E-002	9.94158E-002	3.57260E+000	9	...........
	123	1.65333	9.53781E-002	-8.87551E-005	0.00000E+000	-8.46529E-006	-5.39641E-002	9.53897E-002	3.57260E+000	9	...........
	124	1.66667	9.13661E-002	-8.87207E-005	0.00000E+000	-8.10607E-006	-5.39641E-002	9.13696E-002	3.57260E+000	9	...........
	125	1.68	8.73767E-002	-8.85394E-005	0.00000E+000	-7.73628E-006	-5.39641E-002	8.73734E-002	3.57260E+000	9	...........
	126	1.69333	8.34027E-002	-8.90510E-005	0.00000E+000	-7.42709E-006	-5.39641E-002	8.34045E-002	3.57260E+000	9	...........
	127	1.70667	7.94412E-002	-8.88634E-005	0.00000E+000	-7.05942E-006	-5.39641E-002	7.94440E-002	3.57260E+000	9	...........
	128	1.72	7.55097E-002	-8.90135E-005	0.00000E+000	-6.72138E-006	-5.39641E-002	7.55132E-002	3.57260E+000	9	...........
	129	1.73333	7.15888E-002	-8.88707E-005	0.00000E+000	-6.36215E-006	-5.39641E-002	7.15849E-002	3.57260E+000	9	...........
	130	1.74667	6.76817E-002	-8.90093E-005	0.00000E+000	-6.02430E-006	-5.39641E-002	6.76800E-002	3.57260E+000	9	...........
	131	1.76	6.38152E-002	-8.89551E-005	0.00000E+000	-5.67669E-006	-5.39641E-002	6.38188E-002	3.57260E+000	9	...........
	132	1.77333	5.99597E-002	-8.87801E-005	0.00000E+000	-5.32323E-006	-5.39641E-002	5.99628E-002	3.57260E+000	9	...........
	133	1.78667	5.60999E-002	-8.88624E-005	0.00000E+000	-4.98517E-006	-5.39641E-002	5.60997E-002	3.57260E+000	9	...........
	134	1.8	5.22580E-002	-8.86915E-005	0.00000E+000	-4.63485E-006	-5.39641E-002	5.22606E-002	3.57260E+000	9	...........
	135	1.81333	4.84578E-002	-8.89332E-005	0.00000E+000	-4.30951E-006	-5.39641E-002	4.84537E-002	3.57260E+000	9	...........
	136	1.82667	4.46642E-002	-8.88405E-005	0.00000E+000	-3.96799E-006	-5.39641E-002	4.46759E-002	3.57260E+000	9	...........
	137	1.84	4.08944E-002	-8.88926E-005	0.00000E+000	-3.63521E-006	-5.39641E-002	4.08989E-002	3.57260E+000	9	...........
	138	1.85333	3.71290E-002	-8.89843E-005	0.00000E+000	-3.30390E-006	-5.39641E-002	3.71345E-002	3.57260E+000	9	...........
	139	1.86667	3.33816E-002	-8.85644E-005	0.00000E+000	-2.95642E-006	-5.39641E-002	3.33851E-002	3.57260E+000	9	...........
	140	1.88	2.96574E-002	-8.88864E-005	0.00000E+000	-2.63614E-006	-5.39641E-002	2.96599E-002	3.57260E+000	9	...........
	141	1.89333	2.59609E-002	-8.90583E-005	0.00000E+000	-2.31204E-006	-5.39641E-002	2.59627E-002	3.57260E+000	9	...........
	142	1.90667	2.22815E-002	-8.89343E-005	0.00000E+000	-1.98159E-006	-5.39641E-002	2.22825E-002	3.57260E+000	9	...........
	143	1.92	1.86247E-002	-8.87957E-005	0.00000E+000	-1.65380E-006	-5.39641E-002	1.86186E-002	3.57260E+000	9	...........
	144	1.93333	1.49592E-002	-8.89687E-005	0.00000E+000	-1.33090E-006	-5.39641E-002	1.49570E-002	3.57260E+000	9	...........
	145	1.94667	1.13125E-002	-8.90301E-005	0.00000E+000	-1.00715E-006	-5.39641E-002	1.13056E-002	3.57260E+000	9	...........
	146	1.96	7.68283E-003	-8.87843E-005	0.00000E+000	-6.82115E-007	-5.39641E-002	7.67502E-003	3.57260E+000	9	...........
	147	1.97333	4.08901E-003	-8.88947E-005	0.00000E+000	-3.63491E-007	-5.39641E-002	4.07647E-003	3.57260E+000	9	...........
	148	1.98333	9.66581E-004	-8.88874E-005	0.00000E+000	-8.59169E-008	-5.39641E-002	9.47778E-004	3.57260E+000	9	...........
STARTTIMEOFFSET	QUANT	2996.644	Start Time Offset (s)
