EXPLAIN
TAG	PWR800_DISCHARGE
TITLE	LABEL	PWR Cyclic Charge Discharge (Cell) - Discharge Step	Test &Identifier
DATE	LABEL	10-7-2017	Date
TIME	LABEL	15:03:59	Time
NOTES	NOTES	3	&Notes...
	supercap test cell
	0.9mg
	6M KOH
PSTAT	PSTAT	IFC5000-01520	Potentiostat
CAPACITY	QUANT	1.00000E-003	Capacity (A-hr)
CELLTYPE	SELECTOR	1	&Cell Type
WORKINGCONNECTION	SELECTOR	0	&Working Lead
MAXDISCHARGETIME	VARIABLEANDUNITS	1.00000E+002	s	1.00000E+002	second(s)	Max &Discharge Time
DISCHARGEMODE	MULTIPARAM	0	9.00000E-005	&Discharge Mode	Constant Current	Amp(s)
SAMPLETIME	QUANT	1.00000E-002	Sa&mple Period (s)
DISCHARGESTOPAT1	MULTIPARAM	3	0.00000E+000	Discharge Stop At &1	Voltage < Limit	V
DISCHARGESTOPAT2	MULTIPARAM	0	0.00000E+000	Discharge Stop At &2	None	N/A
AESBHCSELECTOR	TOGGLE	F	Save Both Half Cells
IRCOMP	TOGGLE	F	IR &Measure
EOC	QUANT	0	Open Circuit (V)
SEQUENCER	TOGGLE	TRUE	Run as Sequence
PSTATMODEL	IQUANT	53	Pstat Model
PSTATSECTION	LABEL	IFC5000-01520	Pstat Section
PSTATSERIALNO	LABEL	01520	Pstat Serial Number
CTRLMODE	IQUANT	0	Control Mode
ELECTROMETER	IQUANT	1	RE=0 or CS=1
IESTAB	IQUANT	0	I/E Stability
CASPEED	IQUANT	4	Control Amp Speed
CONVENTION	IQUANT	1	Current Convention
ICHRANGE	IQUANT	2	Ich Range
ICHRANGEMODE	TOGGLE	T	Ich Auto Range
ICHOFFSETENABLE	TOGGLE	F	Ich Offset Enable
ICHOFFSET	QUANT	0	Ich Offset (V)
ICHFILTER	IQUANT	1	Ich Filter
VCHRANGE	IQUANT	2	Vch Range
VCHRANGEMODE	TOGGLE	T	Vch Auto Range
VCHOFFSETENABLE	TOGGLE	F	Vch Offset Enable
VCHOFFSET	QUANT	0	Vch Offset (V)
VCHFILTER	IQUANT	1	Vch Filter
IERANGELOWERLIMIT	IQUANT	9	I/E Range Lower Limit
IERANGEMODE	TOGGLE	F	I/E AutoRange
IERANGE	IQUANT	9	I/E Range
ACHSELECT	IQUANT	1	Ach Select
ACHRANGE	IQUANT	2	Ach Range
ACHOFFSETENABLE	TOGGLE	F	Ach Offset Enable
ACHOFFSET	QUANT	0	Ach Offset (V)
ACHFILTER	IQUANT	1	Ach Filter
CABLEID	IQUANT	14	Cable ID
DCCALDATE	LABEL	5-7-2017	DC Calibration Date
ACCALDATE	LABEL	12/3/2015	AC Calibration Date
FRAMEWORKVERSION	QUANT	7.01	Framework Version
INSTRUMENTVERSION	LABEL	4.00	Instrument Version
CURVE	TABLE	170
	Pt	T	Vf	Im	Vu	Pwr	Sig	Ach	Temp	IERange	Over
	#	s	V	A	V	W	V	V	deg C	#	bits
	0	0.013333	8.44970E-001	-8.85394E-005	0.00000E+000	-7.48131E-005	-5.39641E-002	8.45126E-001	3.57120E+000	9	...........
	1	0.026667	8.33946E-001	-8.85311E-005	0.00000E+000	-7.38301E-005	-5.39641E-002	8.34112E-001	3.57120E+000	9	...........
	2	0.04	8.23536E-001	-8.85509E-005	0.00000E+000	-7.29248E-005	-5.39641E-002	8.23661E-001	3.57120E+000	9	...........
	3	0.053333	8.13552E-001	-8.86863E-005	0.00000E+000	-7.21509E-005	-5.39641E-002	8.13677E-001	3.57120E+000	9	...........
	4	0.066667	8.03956E-001	-8.88322E-005	0.00000E+000	-7.14172E-005	-5.39641E-002	8.04080E-001	3.57120E+000	9	...........
	5	0.08	7.94708E-001	-8.85186E-005	0.00000E+000	-7.03464E-005	-5.39641E-002	7.94829E-001	3.57120E+000	9	...........
	6	0.093333	7.85714E-001	-8.86019E-005	0.00000E+000	-6.96158E-005	-5.39641E-002	7.85811E-001	3.57120E+000	9	...........
	7	0.106667	7.76962E-001	-8.87478E-005	0.00000E+000	-6.89537E-005	-5.39641E-002	7.77076E-001	3.57120E+000	9	...........
	8	0.12	7.68433E-001	-8.86509E-005	0.00000E+000	-6.81223E-005	-5.39641E-002	7.68557E-001	3.57120E+000	9	...........
	9	0.133333	7.60105E-001	-8.81998E-005	0.00000E+000	-6.70411E-005	-5.39641E-002	7.60207E-001	3.57120E+000	9	...........
	10	0.146667	7.51969E-001	-8.85165E-005	0.00000E+000	-6.65617E-005	-5.39641E-002	7.52087E-001	3.57120E+000	9	...........
	11	0.16	7.44005E-001	-8.86332E-005	0.00000E+000	-6.59435E-005	-5.39641E-002	7.44084E-001	3.57120E+000	9	...........
	12	0.173333	7.36181E-001	-8.86238E-005	0.00000E+000	-6.52432E-005	-5.39641E-002	7.36283E-001	3.57120E+000	9	...........
	13	0.186667	7.28529E-001	-8.84175E-005	0.00000E+000	-6.44148E-005	-5.39641E-002	7.28633E-001	3.57120E+000	9	...........
	14	0.2	7.21045E-001	-8.84300E-005	0.00000E+000	-6.37621E-005	-5.39641E-002	7.21110E-001	3.57120E+000	9	...........
	15	0.213333	7.13583E-001	-8.86103E-005	0.00000E+000	-6.32307E-005	-5.39641E-002	7.13698E-001	3.57120E+000	9	...........
	16	0.226667	7.06347E-001	-8.87155E-005	0.00000E+000	-6.26640E-005	-5.39641E-002	7.06444E-001	3.57120E+000	9	...........
	17	0.24	6.99199E-001	-8.85269E-005	0.00000E+000	-6.18979E-005	-5.39641E-002	6.99314E-001	3.57120E+000	9	...........
	18	0.253333	6.92155E-001	-8.86717E-005	0.00000E+000	-6.13746E-005	-5.39641E-002	6.92247E-001	3.57110E+000	9	...........
	19	0.266667	6.85187E-001	-8.87811E-005	0.00000E+000	-6.08317E-005	-5.39641E-002	6.85283E-001	3.57110E+000	9	...........
	20	0.28	6.78338E-001	-8.86040E-005	0.00000E+000	-6.01035E-005	-5.39641E-002	6.78425E-001	3.57110E+000	9	...........
	21	0.293333	6.71585E-001	-8.85738E-005	0.00000E+000	-5.94848E-005	-5.39641E-002	6.71665E-001	3.57110E+000	9	...........
	22	0.306667	6.64875E-001	-8.83581E-005	0.00000E+000	-5.87471E-005	-5.39641E-002	6.64967E-001	3.57110E+000	9	...........
	23	0.32	6.58292E-001	-8.88061E-005	0.00000E+000	-5.84604E-005	-5.39641E-002	6.58333E-001	3.57110E+000	9	...........
	24	0.333333	6.51760E-001	-8.83998E-005	0.00000E+000	-5.76154E-005	-5.39641E-002	6.51849E-001	3.57110E+000	9	...........
	25	0.346667	6.45314E-001	-8.87374E-005	0.00000E+000	-5.72634E-005	-5.39641E-002	6.45399E-001	3.57110E+000	9	...........
	26	0.36	6.38925E-001	-8.85905E-005	0.00000E+000	-5.66027E-005	-5.39641E-002	6.39019E-001	3.57110E+000	9	...........
	27	0.373333	6.32610E-001	-8.85863E-005	0.00000E+000	-5.60406E-005	-5.39641E-002	6.32692E-001	3.57110E+000	9	...........
	28	0.386667	6.26370E-001	-8.87499E-005	0.00000E+000	-5.55903E-005	-5.39641E-002	6.26448E-001	3.57110E+000	9	...........
	29	0.4	6.20196E-001	-8.88801E-005	0.00000E+000	-5.51231E-005	-5.39641E-002	6.20252E-001	3.57110E+000	9	...........
	30	0.413333	6.14047E-001	-8.86165E-005	0.00000E+000	-5.44147E-005	-5.39641E-002	6.14123E-001	3.57110E+000	9	...........
	31	0.426667	6.07935E-001	-8.86144E-005	0.00000E+000	-5.38718E-005	-5.39641E-002	6.08016E-001	3.57110E+000	9	...........
	32	0.44	6.01916E-001	-8.88072E-005	0.00000E+000	-5.34545E-005	-5.39641E-002	6.02011E-001	3.57110E+000	9	...........
	33	0.453333	5.95940E-001	-8.85832E-005	0.00000E+000	-5.27903E-005	-5.39641E-002	5.96013E-001	3.57110E+000	9	...........
	34	0.466667	5.90007E-001	-8.86884E-005	0.00000E+000	-5.23268E-005	-5.39641E-002	5.90100E-001	3.57110E+000	9	...........
	35	0.48	5.84071E-001	-8.84519E-005	0.00000E+000	-5.16622E-005	-5.39641E-002	5.84172E-001	3.57110E+000	9	...........
	36	0.493333	5.78229E-001	-8.86749E-005	0.00000E+000	-5.12744E-005	-5.39641E-002	5.78318E-001	3.57110E+000	9	...........
	37	0.506667	5.72432E-001	-8.86978E-005	0.00000E+000	-5.07734E-005	-5.39641E-002	5.72498E-001	3.57110E+000	9	...........
	38	0.52	5.66666E-001	-8.84977E-005	0.00000E+000	-5.01486E-005	-5.39641E-002	5.66741E-001	3.57110E+000	9	...........
	39	0.533333	5.60884E-001	-8.85811E-005	0.00000E+000	-4.96837E-005	-5.39641E-002	5.60984E-001	3.57110E+000	9	...........
	40	0.546667	5.55183E-001	-8.88155E-005	0.00000E+000	-4.93089E-005	-5.39641E-002	5.55256E-001	3.57110E+000	9	...........
	41	0.56	5.49534E-001	-8.86040E-005	0.00000E+000	-4.86910E-005	-5.39641E-002	5.49584E-001	3.57110E+000	9	...........
	42	0.573333	5.43902E-001	-8.85613E-005	0.00000E+000	-4.81687E-005	-5.39641E-002	5.43947E-001	3.57110E+000	9	...........
	43	0.586667	5.38290E-001	-8.87916E-005	0.00000E+000	-4.77956E-005	-5.39641E-002	5.38361E-001	3.57110E+000	9	...........
	44	0.6	5.32691E-001	-8.87863E-005	0.00000E+000	-4.72957E-005	-5.39641E-002	5.32767E-001	3.57110E+000	9	...........
	45	0.613333	5.27150E-001	-8.84800E-005	0.00000E+000	-4.66422E-005	-5.39641E-002	5.27216E-001	3.57110E+000	9	...........
	46	0.626667	5.21620E-001	-8.85946E-005	0.00000E+000	-4.62128E-005	-5.39641E-002	5.21675E-001	3.57110E+000	9	...........
	47	0.64	5.16113E-001	-8.84133E-005	0.00000E+000	-4.56313E-005	-5.39641E-002	5.16178E-001	3.57110E+000	9	...........
	48	0.653333	5.10594E-001	-8.86259E-005	0.00000E+000	-4.52518E-005	-5.39641E-002	5.10670E-001	3.57110E+000	9	...........
	49	0.666667	5.05142E-001	-8.87895E-005	0.00000E+000	-4.48513E-005	-5.39641E-002	5.05233E-001	3.57110E+000	9	...........
	50	0.68	4.99732E-001	-8.84071E-005	0.00000E+000	-4.41799E-005	-5.39641E-002	4.99808E-001	3.57110E+000	9	...........
	51	0.693333	4.94324E-001	-8.89280E-005	0.00000E+000	-4.39593E-005	-5.39641E-002	4.94418E-001	3.57110E+000	9	...........
	52	0.706667	4.88981E-001	-8.85811E-005	0.00000E+000	-4.33145E-005	-5.39641E-002	4.89044E-001	3.57110E+000	9	...........
	53	0.72	4.83636E-001	-8.86405E-005	0.00000E+000	-4.28697E-005	-5.39641E-002	4.83703E-001	3.57110E+000	9	...........
	54	0.733333	4.78309E-001	-8.84759E-005	0.00000E+000	-4.23188E-005	-5.39641E-002	4.78363E-001	3.57110E+000	9	...........
	55	0.746667	4.72985E-001	-8.85561E-005	0.00000E+000	-4.18857E-005	-5.39641E-002	4.73038E-001	3.57110E+000	9	...........
	56	0.76	4.67697E-001	-8.85175E-005	0.00000E+000	-4.13994E-005	-5.39641E-002	4.67747E-001	3.57110E+000	9	...........
	57	0.773333	4.62434E-001	-8.87884E-005	0.00000E+000	-4.10588E-005	-5.39641E-002	4.62478E-001	3.57110E+000	9	...........
	58	0.786667	4.57189E-001	-8.85988E-005	0.00000E+000	-4.05064E-005	-5.39641E-002	4.57240E-001	3.57110E+000	9	...........
	59	0.8	4.51978E-001	-8.85373E-005	0.00000E+000	-4.00169E-005	-5.39641E-002	4.52026E-001	3.57110E+000	9	...........
	60	0.813333	4.46783E-001	-8.85311E-005	0.00000E+000	-3.95542E-005	-5.39641E-002	4.46828E-001	3.57110E+000	9	...........
	61	0.826667	4.41616E-001	-8.87697E-005	0.00000E+000	-3.92021E-005	-5.39641E-002	4.41656E-001	3.57110E+000	9	...........
	62	0.84	4.36458E-001	-8.87165E-005	0.00000E+000	-3.87210E-005	-5.39641E-002	4.36497E-001	3.57110E+000	9	...........
	63	0.853333	4.31328E-001	-8.87103E-005	0.00000E+000	-3.82632E-005	-5.39641E-002	4.31371E-001	3.57110E+000	9	...........
	64	0.866667	4.26232E-001	-8.89614E-005	0.00000E+000	-3.79182E-005	-5.39641E-002	4.26271E-001	3.57110E+000	9	...........
	65	0.88	4.21148E-001	-8.86301E-005	0.00000E+000	-3.73264E-005	-5.39641E-002	4.21192E-001	3.57110E+000	9	...........
	66	0.893333	4.16082E-001	-8.86436E-005	0.00000E+000	-3.68830E-005	-5.39641E-002	4.16123E-001	3.57110E+000	9	...........
	67	0.906667	4.11040E-001	-8.86342E-005	0.00000E+000	-3.64322E-005	-5.39641E-002	4.11078E-001	3.57110E+000	9	...........
	68	0.92	4.06047E-001	-8.85540E-005	0.00000E+000	-3.59571E-005	-5.39641E-002	4.06074E-001	3.57110E+000	9	...........
	69	0.933333	4.01065E-001	-8.86571E-005	0.00000E+000	-3.55572E-005	-5.39641E-002	4.01096E-001	3.57110E+000	9	...........
	70	0.946667	3.96094E-001	-8.85696E-005	0.00000E+000	-3.50819E-005	-5.39641E-002	3.96124E-001	3.57110E+000	9	...........
	71	0.96	3.91149E-001	-8.85655E-005	0.00000E+000	-3.46423E-005	-5.39641E-002	3.91179E-001	3.57110E+000	9	...........
	72	0.97333	3.86208E-001	-8.87488E-005	0.00000E+000	-3.42755E-005	-5.39641E-002	3.86237E-001	3.57110E+000	9	...........
	73	0.98667	3.81317E-001	-8.85623E-005	0.00000E+000	-3.37703E-005	-5.39641E-002	3.81351E-001	3.57110E+000	9	...........
	74	1	3.76450E-001	-8.85446E-005	0.00000E+000	-3.33326E-005	-5.39641E-002	3.76478E-001	3.57110E+000	9	...........
	75	1.01333	3.71605E-001	-8.86165E-005	0.00000E+000	-3.29304E-005	-5.39641E-002	3.71636E-001	3.57110E+000	9	...........
	76	1.02667	3.66816E-001	-8.85102E-005	0.00000E+000	-3.24669E-005	-5.39641E-002	3.66846E-001	3.57110E+000	9	...........
	77	1.04	3.62042E-001	-8.86571E-005	0.00000E+000	-3.20976E-005	-5.39641E-002	3.62071E-001	3.57110E+000	9	...........
	78	1.05333	3.57258E-001	-8.85186E-005	0.00000E+000	-3.16239E-005	-5.39641E-002	3.57291E-001	3.57110E+000	9	...........
	79	1.06667	3.52497E-001	-8.89103E-005	0.00000E+000	-3.13406E-005	-5.39641E-002	3.52526E-001	3.57110E+000	9	...........
	80	1.08	3.47769E-001	-8.87999E-005	0.00000E+000	-3.08819E-005	-5.39641E-002	3.47802E-001	3.57110E+000	9	...........
	81	1.09333	3.43056E-001	-8.84529E-005	0.00000E+000	-3.03443E-005	-5.39641E-002	3.43083E-001	3.57110E+000	9	...........
	82	1.10667	3.38367E-001	-8.84186E-005	0.00000E+000	-2.99179E-005	-5.39641E-002	3.38395E-001	3.57110E+000	9	...........
	83	1.12	3.33697E-001	-8.85217E-005	0.00000E+000	-2.95394E-005	-5.39641E-002	3.33725E-001	3.57110E+000	9	...........
	84	1.13333	3.29044E-001	-8.85571E-005	0.00000E+000	-2.91392E-005	-5.39641E-002	3.29072E-001	3.57110E+000	9	...........
	85	1.14667	3.24428E-001	-8.87249E-005	0.00000E+000	-2.87849E-005	-5.39641E-002	3.24455E-001	3.57110E+000	9	...........
	86	1.16	3.19838E-001	-8.86155E-005	0.00000E+000	-2.83426E-005	-5.39641E-002	3.19870E-001	3.57110E+000	9	...........
	87	1.17333	3.15281E-001	-8.89312E-005	0.00000E+000	-2.80383E-005	-5.39641E-002	3.15311E-001	3.57110E+000	9	...........
	88	1.18667	3.10736E-001	-8.86394E-005	0.00000E+000	-2.75435E-005	-5.39641E-002	3.10769E-001	3.57110E+000	9	...........
	89	1.2	3.06213E-001	-8.87676E-005	0.00000E+000	-2.71818E-005	-5.39641E-002	3.06237E-001	3.57110E+000	9	...........
	90	1.21333	3.01735E-001	-8.84873E-005	0.00000E+000	-2.66998E-005	-5.39641E-002	3.01762E-001	3.57110E+000	9	...........
	91	1.22667	2.97246E-001	-8.86269E-005	0.00000E+000	-2.63440E-005	-5.39641E-002	2.97277E-001	3.57110E+000	9	...........
	92	1.24	2.92789E-001	-8.86071E-005	0.00000E+000	-2.59432E-005	-5.39641E-002	2.92817E-001	3.57110E+000	9	...........
	93	1.25333	2.88360E-001	-8.87936E-005	0.00000E+000	-2.56045E-005	-5.39641E-002	2.88389E-001	3.57110E+000	9	...........
	94	1.26667	2.83950E-001	-8.84988E-005	0.00000E+000	-2.51293E-005	-5.39641E-002	2.83979E-001	3.57110E+000	9	...........
	95	1.28	2.79566E-001	-8.86905E-005	0.00000E+000	-2.47948E-005	-5.39641E-002	2.79590E-001	3.57110E+000	9	...........
	96	1.29333	2.75195E-001	-8.86811E-005	0.00000E+000	-2.44046E-005	-5.39641E-002	2.75216E-001	3.57110E+000	9	...........
	97	1.30667	2.70819E-001	-8.86071E-005	0.00000E+000	-2.39965E-005	-5.39641E-002	2.70845E-001	3.57110E+000	9	...........
	98	1.32	2.66475E-001	-8.86926E-005	0.00000E+000	-2.36343E-005	-5.39641E-002	2.66504E-001	3.57110E+000	9	...........
	99	1.33333	2.62169E-001	-8.87176E-005	0.00000E+000	-2.32590E-005	-5.39641E-002	2.62194E-001	3.57110E+000	9	...........
	100	1.34667	2.57880E-001	-8.84248E-005	0.00000E+000	-2.28030E-005	-5.39641E-002	2.57903E-001	3.57110E+000	9	...........
	101	1.36	2.53619E-001	-8.85946E-005	0.00000E+000	-2.24693E-005	-5.39641E-002	2.53640E-001	3.57110E+000	9	...........
	102	1.37333	2.49384E-001	-8.86415E-005	0.00000E+000	-2.21058E-005	-5.39641E-002	2.49404E-001	3.57110E+000	9	...........
	103	1.38667	2.45165E-001	-8.87197E-005	0.00000E+000	-2.17509E-005	-5.39641E-002	2.45183E-001	3.57110E+000	9	...........
	104	1.4	2.40961E-001	-8.87447E-005	0.00000E+000	-2.13840E-005	-5.39641E-002	2.40983E-001	3.57110E+000	9	...........
	105	1.41333	2.36791E-001	-8.85894E-005	0.00000E+000	-2.09772E-005	-5.39641E-002	2.36809E-001	3.57110E+000	9	...........
	106	1.42667	2.32628E-001	-8.87269E-005	0.00000E+000	-2.06404E-005	-5.39641E-002	2.32646E-001	3.57110E+000	9	...........
	107	1.44	2.28477E-001	-8.85311E-005	0.00000E+000	-2.02273E-005	-5.39641E-002	2.28493E-001	3.57110E+000	9	...........
	108	1.45333	2.24358E-001	-8.88718E-005	0.00000E+000	-1.99391E-005	-5.39641E-002	2.24372E-001	3.57110E+000	9	...........
	109	1.46667	2.20242E-001	-8.85925E-005	0.00000E+000	-1.95118E-005	-5.39641E-002	2.20255E-001	3.57110E+000	9	...........
	110	1.48	2.16115E-001	-8.85853E-005	0.00000E+000	-1.91446E-005	-5.39641E-002	2.16133E-001	3.57110E+000	9	...........
	111	1.49333	2.11997E-001	-8.85832E-005	0.00000E+000	-1.87794E-005	-5.39641E-002	2.12010E-001	3.57110E+000	9	...........
	112	1.50667	2.07885E-001	-8.86832E-005	0.00000E+000	-1.84359E-005	-5.39641E-002	2.07902E-001	3.57110E+000	9	...........
	113	1.52	2.03804E-001	-8.87978E-005	0.00000E+000	-1.80974E-005	-5.39641E-002	2.03823E-001	3.57110E+000	9	...........
	114	1.53333	1.99752E-001	-8.87926E-005	0.00000E+000	-1.77365E-005	-5.39641E-002	1.99765E-001	3.57110E+000	9	...........
	115	1.54667	1.95716E-001	-8.85217E-005	0.00000E+000	-1.73251E-005	-5.39641E-002	1.95727E-001	3.57110E+000	9	...........
	116	1.56	1.91691E-001	-8.86749E-005	0.00000E+000	-1.69981E-005	-5.39641E-002	1.91700E-001	3.57110E+000	9	...........
	117	1.57333	1.87684E-001	-8.87009E-005	0.00000E+000	-1.66478E-005	-5.39641E-002	1.87697E-001	3.57110E+000	9	...........
	118	1.58667	1.83687E-001	-8.86644E-005	0.00000E+000	-1.62865E-005	-5.39641E-002	1.83701E-001	3.57110E+000	9	...........
	119	1.6	1.79712E-001	-8.86686E-005	0.00000E+000	-1.59349E-005	-5.39641E-002	1.79724E-001	3.57110E+000	9	...........
	120	1.61333	1.75767E-001	-8.85227E-005	0.00000E+000	-1.55594E-005	-5.39641E-002	1.75772E-001	3.57110E+000	9	...........
	121	1.62667	1.71837E-001	-8.86780E-005	0.00000E+000	-1.52381E-005	-5.39641E-002	1.71850E-001	3.57110E+000	9	...........
	122	1.64	1.67925E-001	-8.85227E-005	0.00000E+000	-1.48652E-005	-5.39641E-002	1.67934E-001	3.57110E+000	9	...........
	123	1.65333	1.64050E-001	-8.88051E-005	0.00000E+000	-1.45684E-005	-5.39641E-002	1.64058E-001	3.57110E+000	9	...........
	124	1.66667	1.60186E-001	-8.83946E-005	0.00000E+000	-1.41596E-005	-5.39641E-002	1.60197E-001	3.57110E+000	9	...........
	125	1.68	1.56331E-001	-8.85644E-005	0.00000E+000	-1.38453E-005	-5.39641E-002	1.56336E-001	3.57110E+000	9	...........
	126	1.69333	1.52467E-001	-8.87457E-005	0.00000E+000	-1.35308E-005	-5.39641E-002	1.52470E-001	3.57110E+000	9	...........
	127	1.70667	1.48609E-001	-8.85769E-005	0.00000E+000	-1.31633E-005	-5.39641E-002	1.48612E-001	3.57110E+000	9	...........
	128	1.72	1.44769E-001	-8.85811E-005	0.00000E+000	-1.28238E-005	-5.39641E-002	1.44775E-001	3.57110E+000	9	...........
	129	1.73333	1.40958E-001	-8.85717E-005	0.00000E+000	-1.24849E-005	-5.39641E-002	1.40967E-001	3.57110E+000	9	...........
	130	1.74667	1.37174E-001	-8.86134E-005	0.00000E+000	-1.21554E-005	-5.39641E-002	1.37177E-001	3.57110E+000	9	...........
	131	1.76	1.33385E-001	-8.85696E-005	0.00000E+000	-1.18139E-005	-5.39641E-002	1.33394E-001	3.57110E+000	9	...........
	132	1.77333	1.29611E-001	-8.86519E-005	0.00000E+000	-1.14903E-005	-5.39641E-002	1.29614E-001	3.57110E+000	9	...........
	133	1.78667	1.25843E-001	-8.85405E-005	0.00000E+000	-1.11422E-005	-5.39641E-002	1.25850E-001	3.57110E+000	9	...........
	134	1.8	1.22096E-001	-8.88228E-005	0.00000E+000	-1.08449E-005	-5.39641E-002	1.22107E-001	3.57110E+000	9	...........
	135	1.81333	1.18379E-001	-8.85342E-005	0.00000E+000	-1.04806E-005	-5.39641E-002	1.18387E-001	3.57110E+000	9	...........
	136	1.82667	1.14663E-001	-8.84363E-005	0.00000E+000	-1.01403E-005	-5.39641E-002	1.14666E-001	3.57110E+000	9	...........
	137	1.84	1.10955E-001	-8.85946E-005	0.00000E+000	-9.83005E-006	-5.39641E-002	1.10961E-001	3.57110E+000	9	...........
	138	1.85333	1.07249E-001	-8.86426E-005	0.00000E+000	-9.50687E-006	-5.39641E-002	1.07256E-001	3.57110E+000	9	...........
	139	1.86667	1.03570E-001	-8.88270E-005	0.00000E+000	-9.19983E-006	-5.39641E-002	1.03573E-001	3.57110E+000	9	...........
	140	1.88	9.99079E-002	-8.87749E-005	0.00000E+000	-8.86931E-006	-5.39641E-002	9.99128E-002	3.57110E+000	9	...........
	141	1.89333	9.62656E-002	-8.88780E-005	0.00000E+000	-8.55589E-006	-5.39641E-002	9.62747E-002	3.57110E+000	9	...........
	142	1.90667	9.26240E-002	-8.85936E-005	0.00000E+000	-8.20589E-006	-5.39641E-002	9.26311E-002	3.57110E+000	9	...........
	143	1.92	8.89998E-002	-8.86478E-005	0.00000E+000	-7.88963E-006	-5.39641E-002	8.90042E-002	3.57110E+000	9	...........
	144	1.93333	8.54338E-002	-8.83529E-005	0.00000E+000	-7.54832E-006	-5.39641E-002	8.54314E-002	3.57110E+000	9	...........
	145	1.94667	8.18669E-002	-8.85905E-005	0.00000E+000	-7.25262E-006	-5.39641E-002	8.18677E-002	3.57110E+000	9	...........
	146	1.96	7.82967E-002	-8.87759E-005	0.00000E+000	-6.95086E-006	-5.39641E-002	7.83001E-002	3.57110E+000	9	...........
	147	1.97333	7.47418E-002	-8.87415E-005	0.00000E+000	-6.63270E-006	-5.39641E-002	7.47410E-002	3.57110E+000	9	...........
	148	1.98667	7.12069E-002	-8.85363E-005	0.00000E+000	-6.30440E-006	-5.39641E-002	7.12025E-002	3.57110E+000	9	...........
	149	2	6.76688E-002	-8.85936E-005	0.00000E+000	-5.99502E-006	-5.39641E-002	6.76644E-002	3.57110E+000	9	...........
	150	2.01333	6.41461E-002	-8.87801E-005	0.00000E+000	-5.69489E-006	-5.39641E-002	6.41441E-002	3.57110E+000	9	...........
	151	2.02667	6.06407E-002	-8.85519E-005	0.00000E+000	-5.36985E-006	-5.39641E-002	6.06326E-002	3.57110E+000	9	...........
	152	2.04	5.71666E-002	-8.83988E-005	0.00000E+000	-5.05346E-006	-5.39641E-002	5.71608E-002	3.57110E+000	9	...........
	153	2.05333	5.37116E-002	-8.85998E-005	0.00000E+000	-4.75884E-006	-5.39641E-002	5.37048E-002	3.57110E+000	9	...........
	154	2.06667	5.02836E-002	-8.87103E-005	0.00000E+000	-4.46067E-006	-5.39641E-002	5.02809E-002	3.57110E+000	9	...........
	155	2.08	4.68459E-002	-8.84363E-005	0.00000E+000	-4.14288E-006	-5.39641E-002	4.68572E-002	3.57110E+000	9	...........
	156	2.09333	4.34143E-002	-8.85665E-005	0.00000E+000	-3.84506E-006	-5.39641E-002	4.34212E-002	3.57110E+000	9	...........
	157	2.10667	4.00159E-002	-8.85675E-005	0.00000E+000	-3.54411E-006	-5.39641E-002	4.00213E-002	3.57110E+000	9	...........
	158	2.12	3.66169E-002	-8.86822E-005	0.00000E+000	-3.24727E-006	-5.39641E-002	3.66168E-002	3.57110E+000	9	...........
	159	2.13333	3.32279E-002	-8.86582E-005	0.00000E+000	-2.94593E-006	-5.39641E-002	3.32323E-002	3.57110E+000	9	...........
	160	2.14667	2.98383E-002	-8.85446E-005	0.00000E+000	-2.64202E-006	-5.39641E-002	2.98371E-002	3.57110E+000	9	...........
	161	2.16	2.64806E-002	-8.87926E-005	0.00000E+000	-2.35128E-006	-5.39641E-002	2.64803E-002	3.57110E+000	9	...........
	162	2.17333	2.31435E-002	-8.85477E-005	0.00000E+000	-2.04930E-006	-5.39641E-002	2.31424E-002	3.57110E+000	9	...........
	163	2.18667	1.98323E-002	-8.87530E-005	0.00000E+000	-1.76017E-006	-5.39641E-002	1.98302E-002	3.57110E+000	9	...........
	164	2.2	1.65598E-002	-8.86759E-005	0.00000E+000	-1.46845E-006	-5.39641E-002	1.65509E-002	3.57110E+000	9	...........
	165	2.21333	1.32839E-002	-8.88551E-005	0.00000E+000	-1.18035E-006	-5.39641E-002	1.32753E-002	3.57110E+000	9	...........
	166	2.22667	1.00234E-002	-8.86311E-005	0.00000E+000	-8.88385E-007	-5.39641E-002	1.00163E-002	3.57110E+000	9	...........
	167	2.24	6.78653E-003	-8.85061E-005	0.00000E+000	-6.00649E-007	-5.39641E-002	6.77260E-003	3.57110E+000	9	...........
	168	2.25333	3.57902E-003	-8.86373E-005	0.00000E+000	-3.17235E-007	-5.39641E-002	3.56052E-003	3.57160E+000	9	...........
	169	2.26333	7.81677E-004	-8.86346E-005	0.00000E+000	-6.92836E-008	-5.39641E-002	7.67881E-004	3.57160E+000	9	...........
STARTTIMEOFFSET	QUANT	239.9184	Start Time Offset (s)
