EXPLAIN
TAG	PWR800_DISCHARGE
TITLE	LABEL	PWR Cyclic Charge Discharge (Cell) - Discharge Step	Test &Identifier
DATE	LABEL	10-7-2017	Date
TIME	LABEL	16:07:18	Time
NOTES	NOTES	3	&Notes...
	supercap test cell
	0.9mg
	6M KOH
PSTAT	PSTAT	IFC5000-01520	Potentiostat
CAPACITY	QUANT	1.00000E-003	Capacity (A-hr)
CELLTYPE	SELECTOR	1	&Cell Type
WORKINGCONNECTION	SELECTOR	0	&Working Lead
MAXDISCHARGETIME	VARIABLEANDUNITS	1.00000E+002	s	1.00000E+002	second(s)	Max &Discharge Time
DISCHARGEMODE	MULTIPARAM	0	9.00000E-005	&Discharge Mode	Constant Current	Amp(s)
SAMPLETIME	QUANT	1.00000E-002	Sa&mple Period (s)
DISCHARGESTOPAT1	MULTIPARAM	3	0.00000E+000	Discharge Stop At &1	Voltage < Limit	V
DISCHARGESTOPAT2	MULTIPARAM	0	0.00000E+000	Discharge Stop At &2	None	N/A
AESBHCSELECTOR	TOGGLE	F	Save Both Half Cells
IRCOMP	TOGGLE	F	IR &Measure
EOC	QUANT	0	Open Circuit (V)
SEQUENCER	TOGGLE	TRUE	Run as Sequence
PSTATMODEL	IQUANT	53	Pstat Model
PSTATSECTION	LABEL	IFC5000-01520	Pstat Section
PSTATSERIALNO	LABEL	01520	Pstat Serial Number
CTRLMODE	IQUANT	0	Control Mode
ELECTROMETER	IQUANT	1	RE=0 or CS=1
IESTAB	IQUANT	0	I/E Stability
CASPEED	IQUANT	4	Control Amp Speed
CONVENTION	IQUANT	1	Current Convention
ICHRANGE	IQUANT	2	Ich Range
ICHRANGEMODE	TOGGLE	T	Ich Auto Range
ICHOFFSETENABLE	TOGGLE	F	Ich Offset Enable
ICHOFFSET	QUANT	0	Ich Offset (V)
ICHFILTER	IQUANT	1	Ich Filter
VCHRANGE	IQUANT	2	Vch Range
VCHRANGEMODE	TOGGLE	T	Vch Auto Range
VCHOFFSETENABLE	TOGGLE	F	Vch Offset Enable
VCHOFFSET	QUANT	0	Vch Offset (V)
VCHFILTER	IQUANT	1	Vch Filter
IERANGELOWERLIMIT	IQUANT	9	I/E Range Lower Limit
IERANGEMODE	TOGGLE	F	I/E AutoRange
IERANGE	IQUANT	9	I/E Range
ACHSELECT	IQUANT	1	Ach Select
ACHRANGE	IQUANT	2	Ach Range
ACHOFFSETENABLE	TOGGLE	F	Ach Offset Enable
ACHOFFSET	QUANT	0	Ach Offset (V)
ACHFILTER	IQUANT	1	Ach Filter
CABLEID	IQUANT	14	Cable ID
DCCALDATE	LABEL	5-7-2017	DC Calibration Date
ACCALDATE	LABEL	12/3/2015	AC Calibration Date
FRAMEWORKVERSION	QUANT	7.01	Framework Version
INSTRUMENTVERSION	LABEL	4.00	Instrument Version
CURVE	TABLE	147
	Pt	T	Vf	Im	Vu	Pwr	Sig	Ach	Temp	IERange	Over
	#	s	V	A	V	W	V	V	deg C	#	bits
	0	0.013333	7.97190E-001	-8.86926E-005	0.00000E+000	-7.07048E-005	-5.39641E-002	7.97311E-001	3.57270E+000	9	...........
	1	0.026667	7.83122E-001	-8.88957E-005	0.00000E+000	-6.96162E-005	-5.39641E-002	7.83241E-001	3.57270E+000	9	...........
	2	0.04	7.70061E-001	-8.86749E-005	0.00000E+000	-6.82850E-005	-5.39641E-002	7.70186E-001	3.57270E+000	9	...........
	3	0.053333	7.57748E-001	-8.85738E-005	0.00000E+000	-6.71166E-005	-5.39641E-002	7.57859E-001	3.57270E+000	9	...........
	4	0.066667	7.46077E-001	-8.86582E-005	0.00000E+000	-6.61458E-005	-5.39641E-002	7.46203E-001	3.57270E+000	9	...........
	5	0.08	7.34926E-001	-8.87936E-005	0.00000E+000	-6.52567E-005	-5.39641E-002	7.35059E-001	3.57270E+000	9	...........
	6	0.093333	7.24282E-001	-8.84331E-005	0.00000E+000	-6.40505E-005	-5.39641E-002	7.24396E-001	3.57270E+000	9	...........
	7	0.106667	7.13999E-001	-8.87374E-005	0.00000E+000	-6.33584E-005	-5.39641E-002	7.14143E-001	3.57270E+000	9	...........
	8	0.12	7.04145E-001	-8.88603E-005	0.00000E+000	-6.25706E-005	-5.39641E-002	7.04251E-001	3.57270E+000	9	...........
	9	0.133333	6.94581E-001	-8.85102E-005	0.00000E+000	-6.14775E-005	-5.39641E-002	6.94698E-001	3.57270E+000	9	...........
	10	0.146667	6.85307E-001	-8.87238E-005	0.00000E+000	-6.08031E-005	-5.39641E-002	6.85465E-001	3.57270E+000	9	...........
	11	0.16	6.76328E-001	-8.90854E-005	0.00000E+000	-6.02509E-005	-5.39641E-002	6.76475E-001	3.57270E+000	9	...........
	12	0.173333	6.67613E-001	-8.85352E-005	0.00000E+000	-5.91073E-005	-5.39641E-002	6.67743E-001	3.57270E+000	9	...........
	13	0.186667	6.59106E-001	-8.87770E-005	0.00000E+000	-5.85135E-005	-5.39641E-002	6.59222E-001	3.57270E+000	9	...........
	14	0.2	6.50837E-001	-8.87957E-005	0.00000E+000	-5.77915E-005	-5.39641E-002	6.50922E-001	3.57270E+000	9	...........
	15	0.213333	6.42734E-001	-8.85738E-005	0.00000E+000	-5.69294E-005	-5.39641E-002	6.42832E-001	3.57270E+000	9	...........
	16	0.226667	6.34794E-001	-8.87863E-005	0.00000E+000	-5.63610E-005	-5.39641E-002	6.34889E-001	3.57270E+000	9	...........
	17	0.24	6.27082E-001	-8.86676E-005	0.00000E+000	-5.56018E-005	-5.39641E-002	6.27184E-001	3.57270E+000	9	...........
	18	0.253333	6.19523E-001	-8.87790E-005	0.00000E+000	-5.50006E-005	-5.39641E-002	6.19604E-001	3.57270E+000	9	...........
	19	0.266667	6.12049E-001	-8.86967E-005	0.00000E+000	-5.42867E-005	-5.39641E-002	6.12198E-001	3.57270E+000	9	...........
	20	0.28	6.04774E-001	-8.88843E-005	0.00000E+000	-5.37549E-005	-5.39641E-002	6.04937E-001	3.57270E+000	9	...........
	21	0.293333	5.97641E-001	-8.86217E-005	0.00000E+000	-5.29640E-005	-5.39641E-002	5.97786E-001	3.57270E+000	9	...........
	22	0.306667	5.90623E-001	-8.88145E-005	0.00000E+000	-5.24559E-005	-5.39641E-002	5.90783E-001	3.57270E+000	9	...........
	23	0.32	5.83702E-001	-8.87134E-005	0.00000E+000	-5.17822E-005	-5.39641E-002	5.83883E-001	3.57270E+000	9	...........
	24	0.333333	5.76968E-001	-8.86978E-005	0.00000E+000	-5.11758E-005	-5.39641E-002	5.77131E-001	3.57270E+000	9	...........
	25	0.346667	5.70297E-001	-8.87884E-005	0.00000E+000	-5.06358E-005	-5.39641E-002	5.70456E-001	3.57270E+000	9	...........
	26	0.36	5.63741E-001	-8.87040E-005	0.00000E+000	-5.00061E-005	-5.39641E-002	5.63893E-001	3.57270E+000	9	...........
	27	0.373333	5.57272E-001	-8.87217E-005	0.00000E+000	-4.94422E-005	-5.39641E-002	5.57409E-001	3.57270E+000	9	...........
	28	0.386667	5.50911E-001	-8.88697E-005	0.00000E+000	-4.89593E-005	-5.39641E-002	5.51042E-001	3.57270E+000	9	...........
	29	0.4	5.44649E-001	-8.89207E-005	0.00000E+000	-4.84306E-005	-5.39641E-002	5.44756E-001	3.57270E+000	9	...........
	30	0.413333	5.38444E-001	-8.88999E-005	0.00000E+000	-4.78676E-005	-5.39641E-002	5.38555E-001	3.57270E+000	9	...........
	31	0.426667	5.32291E-001	-8.90770E-005	0.00000E+000	-4.74149E-005	-5.39641E-002	5.32390E-001	3.57270E+000	9	...........
	32	0.44	5.26256E-001	-8.86926E-005	0.00000E+000	-4.66750E-005	-5.39641E-002	5.26342E-001	3.57270E+000	9	...........
	33	0.453333	5.20301E-001	-8.87311E-005	0.00000E+000	-4.61669E-005	-5.39641E-002	5.20383E-001	3.57270E+000	9	...........
	34	0.466667	5.14412E-001	-8.88384E-005	0.00000E+000	-4.56995E-005	-5.39641E-002	5.14489E-001	3.57270E+000	9	...........
	35	0.48	5.08529E-001	-8.88822E-005	0.00000E+000	-4.51992E-005	-5.39641E-002	5.08671E-001	3.57270E+000	9	...........
	36	0.493333	5.02750E-001	-8.87051E-005	0.00000E+000	-4.45965E-005	-5.39641E-002	5.02873E-001	3.57270E+000	9	...........
	37	0.506667	4.97011E-001	-8.87447E-005	0.00000E+000	-4.41071E-005	-5.39641E-002	4.97131E-001	3.57270E+000	9	...........
	38	0.52	4.91336E-001	-8.87072E-005	0.00000E+000	-4.35850E-005	-5.39641E-002	4.91445E-001	3.57270E+000	9	...........
	39	0.533333	4.85744E-001	-8.87040E-005	0.00000E+000	-4.30875E-005	-5.39641E-002	4.85833E-001	3.57270E+000	9	...........
	40	0.546667	4.80234E-001	-8.89332E-005	0.00000E+000	-4.27088E-005	-5.39641E-002	4.80303E-001	3.57270E+000	9	...........
	41	0.56	4.74701E-001	-8.89739E-005	0.00000E+000	-4.22360E-005	-5.39641E-002	4.74768E-001	3.57270E+000	9	...........
	42	0.573333	4.69208E-001	-8.86457E-005	0.00000E+000	-4.15933E-005	-5.39641E-002	4.69278E-001	3.57270E+000	9	...........
	43	0.586667	4.63765E-001	-8.84873E-005	0.00000E+000	-4.10374E-005	-5.39641E-002	4.63825E-001	3.57270E+000	9	...........
	44	0.6	4.58361E-001	-8.88280E-005	0.00000E+000	-4.07153E-005	-5.39641E-002	4.58420E-001	3.57270E+000	9	...........
	45	0.613333	4.52992E-001	-8.88009E-005	0.00000E+000	-4.02261E-005	-5.39641E-002	4.53049E-001	3.57270E+000	9	...........
	46	0.626667	4.47653E-001	-8.88499E-005	0.00000E+000	-3.97740E-005	-5.39641E-002	4.47720E-001	3.57270E+000	9	...........
	47	0.64	4.42342E-001	-8.88343E-005	0.00000E+000	-3.92951E-005	-5.39641E-002	4.42407E-001	3.57270E+000	9	...........
	48	0.653333	4.37057E-001	-8.87082E-005	0.00000E+000	-3.87706E-005	-5.39641E-002	4.37119E-001	3.57270E+000	9	...........
	49	0.666667	4.31798E-001	-8.88686E-005	0.00000E+000	-3.83733E-005	-5.39641E-002	4.31858E-001	3.57270E+000	9	...........
	50	0.68	4.26546E-001	-8.89030E-005	0.00000E+000	-3.79212E-005	-5.39641E-002	4.26609E-001	3.57270E+000	9	...........
	51	0.693333	4.21349E-001	-8.88634E-005	0.00000E+000	-3.74425E-005	-5.39641E-002	4.21403E-001	3.57270E+000	9	...........
	52	0.706667	4.16170E-001	-8.88405E-005	0.00000E+000	-3.69727E-005	-5.39641E-002	4.16225E-001	3.57270E+000	9	...........
	53	0.72	4.11010E-001	-8.87530E-005	0.00000E+000	-3.64784E-005	-5.39641E-002	4.11061E-001	3.57270E+000	9	...........
	54	0.733333	4.05873E-001	-8.86186E-005	0.00000E+000	-3.59679E-005	-5.39641E-002	4.05926E-001	3.57270E+000	9	...........
	55	0.746667	4.00759E-001	-8.87415E-005	0.00000E+000	-3.55639E-005	-5.39641E-002	4.00809E-001	3.57270E+000	9	...........
	56	0.76	3.95669E-001	-8.86217E-005	0.00000E+000	-3.50648E-005	-5.39641E-002	3.95715E-001	3.57270E+000	9	...........
	57	0.773333	3.90591E-001	-8.89770E-005	0.00000E+000	-3.47536E-005	-5.39641E-002	3.90639E-001	3.57270E+000	9	...........
	58	0.786667	3.85545E-001	-8.88707E-005	0.00000E+000	-3.42637E-005	-5.39641E-002	3.85590E-001	3.57270E+000	9	...........
	59	0.8	3.80510E-001	-8.89780E-005	0.00000E+000	-3.38571E-005	-5.39641E-002	3.80554E-001	3.57270E+000	9	...........
	60	0.813333	3.75473E-001	-8.88624E-005	0.00000E+000	-3.33654E-005	-5.39641E-002	3.75520E-001	3.57270E+000	9	...........
	61	0.826667	3.70461E-001	-8.88593E-005	0.00000E+000	-3.29189E-005	-5.39641E-002	3.70499E-001	3.57270E+000	9	...........
	62	0.84	3.65459E-001	-8.86301E-005	0.00000E+000	-3.23907E-005	-5.39641E-002	3.65507E-001	3.57270E+000	9	...........
	63	0.853333	3.60484E-001	-8.87019E-005	0.00000E+000	-3.19756E-005	-5.39641E-002	3.60529E-001	3.57270E+000	9	...........
	64	0.866667	3.55517E-001	-8.88113E-005	0.00000E+000	-3.15740E-005	-5.39641E-002	3.55562E-001	3.57270E+000	9	...........
	65	0.88	3.50546E-001	-8.87915E-005	0.00000E+000	-3.11255E-005	-5.39641E-002	3.50595E-001	3.57270E+000	9	...........
	66	0.893333	3.45606E-001	-8.88416E-005	0.00000E+000	-3.07042E-005	-5.39641E-002	3.45649E-001	3.57270E+000	9	...........
	67	0.906667	3.40682E-001	-8.88291E-005	0.00000E+000	-3.02625E-005	-5.39641E-002	3.40722E-001	3.57270E+000	9	...........
	68	0.92	3.35772E-001	-8.89760E-005	0.00000E+000	-2.98756E-005	-5.39641E-002	3.35817E-001	3.57270E+000	9	...........
	69	0.933333	3.30865E-001	-8.89239E-005	0.00000E+000	-2.94218E-005	-5.39641E-002	3.30914E-001	3.57270E+000	9	...........
	70	0.946667	3.25962E-001	-8.88541E-005	0.00000E+000	-2.89631E-005	-5.39641E-002	3.26000E-001	3.57270E+000	9	...........
	71	0.96	3.21069E-001	-8.89989E-005	0.00000E+000	-2.85748E-005	-5.39641E-002	3.21109E-001	3.57270E+000	9	...........
	72	0.97333	3.16199E-001	-8.87780E-005	0.00000E+000	-2.80715E-005	-5.39641E-002	3.16240E-001	3.57270E+000	9	...........
	73	0.98667	3.11344E-001	-8.88739E-005	0.00000E+000	-2.76704E-005	-5.39641E-002	3.11386E-001	3.57270E+000	9	...........
	74	1	3.06514E-001	-8.88999E-005	0.00000E+000	-2.72491E-005	-5.39641E-002	3.06553E-001	3.57270E+000	9	...........
	75	1.01333	3.01695E-001	-8.87561E-005	0.00000E+000	-2.67772E-005	-5.39641E-002	3.01734E-001	3.57270E+000	9	...........
	76	1.02667	2.96884E-001	-8.87322E-005	0.00000E+000	-2.63431E-005	-5.39641E-002	2.96918E-001	3.57270E+000	9	...........
	77	1.04	2.92078E-001	-8.88291E-005	0.00000E+000	-2.59450E-005	-5.39641E-002	2.92120E-001	3.57270E+000	9	...........
	78	1.05333	2.87294E-001	-8.88384E-005	0.00000E+000	-2.55227E-005	-5.39641E-002	2.87330E-001	3.57270E+000	9	...........
	79	1.06667	2.82524E-001	-8.88311E-005	0.00000E+000	-2.50969E-005	-5.39641E-002	2.82560E-001	3.57270E+000	9	...........
	80	1.08	2.77754E-001	-8.87415E-005	0.00000E+000	-2.46483E-005	-5.39641E-002	2.77785E-001	3.57270E+000	9	...........
	81	1.09333	2.72994E-001	-8.88103E-005	0.00000E+000	-2.42447E-005	-5.39641E-002	2.73028E-001	3.57270E+000	9	...........
	82	1.10667	2.68252E-001	-8.90208E-005	0.00000E+000	-2.38800E-005	-5.39641E-002	2.68286E-001	3.57270E+000	9	...........
	83	1.12	2.63537E-001	-8.87405E-005	0.00000E+000	-2.33864E-005	-5.39641E-002	2.63573E-001	3.57270E+000	9	...........
	84	1.13333	2.58846E-001	-8.87582E-005	0.00000E+000	-2.29747E-005	-5.39641E-002	2.58876E-001	3.57270E+000	9	...........
	85	1.14667	2.54151E-001	-8.87530E-005	0.00000E+000	-2.25567E-005	-5.39641E-002	2.54182E-001	3.57270E+000	9	...........
	86	1.16	2.49490E-001	-8.87467E-005	0.00000E+000	-2.21415E-005	-5.39641E-002	2.49523E-001	3.57270E+000	9	...........
	87	1.17333	2.44846E-001	-8.85925E-005	0.00000E+000	-2.16916E-005	-5.39641E-002	2.44874E-001	3.57270E+000	9	...........
	88	1.18667	2.40214E-001	-8.87447E-005	0.00000E+000	-2.13177E-005	-5.39641E-002	2.40237E-001	3.57270E+000	9	...........
	89	1.2	2.35606E-001	-8.88343E-005	0.00000E+000	-2.09299E-005	-5.39641E-002	2.35630E-001	3.57270E+000	9	...........
	90	1.21333	2.31000E-001	-8.87499E-005	0.00000E+000	-2.05013E-005	-5.39641E-002	2.31023E-001	3.57270E+000	9	...........
	91	1.22667	2.26395E-001	-8.87832E-005	0.00000E+000	-2.01001E-005	-5.39641E-002	2.26422E-001	3.57270E+000	9	...........
	92	1.24	2.21811E-001	-8.90385E-005	0.00000E+000	-1.97497E-005	-5.39641E-002	2.21834E-001	3.57270E+000	9	...........
	93	1.25333	2.17256E-001	-8.85936E-005	0.00000E+000	-1.92475E-005	-5.39641E-002	2.17273E-001	3.57270E+000	9	...........
	94	1.26667	2.12716E-001	-8.88645E-005	0.00000E+000	-1.89029E-005	-5.39641E-002	2.12732E-001	3.57270E+000	9	...........
	95	1.28	2.08185E-001	-8.89468E-005	0.00000E+000	-1.85174E-005	-5.39641E-002	2.08203E-001	3.57270E+000	9	...........
	96	1.29333	2.03667E-001	-8.86780E-005	0.00000E+000	-1.80607E-005	-5.39641E-002	2.03686E-001	3.57270E+000	9	...........
	97	1.30667	1.99177E-001	-8.87790E-005	0.00000E+000	-1.76827E-005	-5.39641E-002	1.99201E-001	3.57270E+000	9	...........
	98	1.32	1.94712E-001	-8.88416E-005	0.00000E+000	-1.72985E-005	-5.39641E-002	1.94730E-001	3.57270E+000	9	...........
	99	1.33333	1.90264E-001	-8.87863E-005	0.00000E+000	-1.68928E-005	-5.39641E-002	1.90280E-001	3.57270E+000	9	...........
	100	1.34667	1.85834E-001	-8.90635E-005	0.00000E+000	-1.65510E-005	-5.39641E-002	1.85847E-001	3.57270E+000	9	...........
	101	1.36	1.81413E-001	-8.90083E-005	0.00000E+000	-1.61472E-005	-5.39641E-002	1.81432E-001	3.57270E+000	9	...........
	102	1.37333	1.77019E-001	-8.88749E-005	0.00000E+000	-1.57325E-005	-5.39641E-002	1.77041E-001	3.57270E+000	9	...........
	103	1.38667	1.72632E-001	-8.88634E-005	0.00000E+000	-1.53407E-005	-5.39641E-002	1.72651E-001	3.57270E+000	9	...........
	104	1.4	1.68258E-001	-8.87113E-005	0.00000E+000	-1.49264E-005	-5.39641E-002	1.68277E-001	3.57270E+000	9	...........
	105	1.41333	1.63927E-001	-8.88655E-005	0.00000E+000	-1.45674E-005	-5.39641E-002	1.63949E-001	3.57270E+000	9	...........
	106	1.42667	1.59615E-001	-8.87895E-005	0.00000E+000	-1.41721E-005	-5.39641E-002	1.59630E-001	3.57270E+000	9	...........
	107	1.44	1.55312E-001	-8.88426E-005	0.00000E+000	-1.37983E-005	-5.39641E-002	1.55326E-001	3.57270E+000	9	...........
	108	1.45333	1.51017E-001	-8.89322E-005	0.00000E+000	-1.34303E-005	-5.39641E-002	1.51037E-001	3.57270E+000	9	...........
	109	1.46667	1.46746E-001	-8.86697E-005	0.00000E+000	-1.30120E-005	-5.39641E-002	1.46766E-001	3.57270E+000	9	...........
	110	1.48	1.42504E-001	-8.87759E-005	0.00000E+000	-1.26509E-005	-5.39641E-002	1.42518E-001	3.57270E+000	9	...........
	111	1.49333	1.38285E-001	-8.88718E-005	0.00000E+000	-1.22896E-005	-5.39641E-002	1.38303E-001	3.57270E+000	9	...........
	112	1.50667	1.34073E-001	-8.88947E-005	0.00000E+000	-1.19183E-005	-5.39641E-002	1.34089E-001	3.57270E+000	9	...........
	113	1.52	1.29878E-001	-8.88041E-005	0.00000E+000	-1.15337E-005	-5.39641E-002	1.29893E-001	3.57270E+000	9	...........
	114	1.53333	1.25684E-001	-8.85884E-005	0.00000E+000	-1.11341E-005	-5.39641E-002	1.25700E-001	3.57270E+000	9	...........
	115	1.54667	1.21527E-001	-8.87634E-005	0.00000E+000	-1.07871E-005	-5.39641E-002	1.21538E-001	3.57270E+000	9	...........
	116	1.56	1.17373E-001	-8.85217E-005	0.00000E+000	-1.03901E-005	-5.39641E-002	1.17387E-001	3.57270E+000	9	...........
	117	1.57333	1.13255E-001	-8.86530E-005	0.00000E+000	-1.00404E-005	-5.39641E-002	1.13270E-001	3.57270E+000	9	...........
	118	1.58667	1.09166E-001	-8.87665E-005	0.00000E+000	-9.69032E-006	-5.39641E-002	1.09181E-001	3.57270E+000	9	...........
	119	1.6	1.05097E-001	-8.89207E-005	0.00000E+000	-9.34533E-006	-5.39641E-002	1.05101E-001	3.57270E+000	9	...........
	120	1.61333	1.01018E-001	-8.89666E-005	0.00000E+000	-8.98726E-006	-5.39641E-002	1.01033E-001	3.57270E+000	9	...........
	121	1.62667	9.69757E-002	-8.87822E-005	0.00000E+000	-8.60971E-006	-5.39641E-002	9.69817E-002	3.57270E+000	9	...........
	122	1.64	9.29516E-002	-8.87280E-005	0.00000E+000	-8.24741E-006	-5.39641E-002	9.29610E-002	3.57270E+000	9	...........
	123	1.65333	8.89351E-002	-8.89395E-005	0.00000E+000	-7.90985E-006	-5.39641E-002	8.89492E-002	3.57270E+000	9	...........
	124	1.66667	8.49436E-002	-8.90103E-005	0.00000E+000	-7.56086E-006	-5.39641E-002	8.49524E-002	3.57270E+000	9	...........
	125	1.68	8.09827E-002	-8.87082E-005	0.00000E+000	-7.18383E-006	-5.39641E-002	8.09830E-002	3.57270E+000	9	...........
	126	1.69333	7.70402E-002	-8.87863E-005	0.00000E+000	-6.84012E-006	-5.39641E-002	7.70473E-002	3.57270E+000	9	...........
	127	1.70667	7.31011E-002	-8.88707E-005	0.00000E+000	-6.49655E-006	-5.39641E-002	7.31016E-002	3.57270E+000	9	...........
	128	1.72	6.91727E-002	-8.87165E-005	0.00000E+000	-6.13676E-006	-5.39641E-002	6.91735E-002	3.57270E+000	9	...........
	129	1.73333	6.52627E-002	-8.87947E-005	0.00000E+000	-5.79498E-006	-5.39641E-002	6.52656E-002	3.57270E+000	9	...........
	130	1.74667	6.13762E-002	-8.91041E-005	0.00000E+000	-5.46887E-006	-5.39641E-002	6.13818E-002	3.57270E+000	9	...........
	131	1.76	5.75097E-002	-8.86707E-005	0.00000E+000	-5.09943E-006	-5.39641E-002	5.75139E-002	3.57270E+000	9	...........
	132	1.77333	5.36542E-002	-8.87603E-005	0.00000E+000	-4.76237E-006	-5.39641E-002	5.36587E-002	3.57270E+000	9	...........
	133	1.78667	4.98230E-002	-8.89655E-005	0.00000E+000	-4.43253E-006	-5.39641E-002	4.98208E-002	3.57270E+000	9	...........
	134	1.8	4.60083E-002	-8.89155E-005	0.00000E+000	-4.09085E-006	-5.39641E-002	4.60186E-002	3.57270E+000	9	...........
	135	1.81333	4.21972E-002	-8.87436E-005	0.00000E+000	-3.74473E-006	-5.39641E-002	4.22039E-002	3.57270E+000	9	...........
	136	1.82667	3.84097E-002	-8.84925E-005	0.00000E+000	-3.39898E-006	-5.39641E-002	3.84131E-002	3.57270E+000	9	...........
	137	1.84	3.46355E-002	-8.87228E-005	0.00000E+000	-3.07295E-006	-5.39641E-002	3.46389E-002	3.57270E+000	9	...........
	138	1.85333	3.08798E-002	-8.87822E-005	0.00000E+000	-2.74157E-006	-5.39641E-002	3.08826E-002	3.57270E+000	9	...........
	139	1.86667	2.71388E-002	-8.85634E-005	0.00000E+000	-2.40350E-006	-5.39641E-002	2.71394E-002	3.57270E+000	9	...........
	140	1.88	2.34202E-002	-8.88239E-005	0.00000E+000	-2.08027E-006	-5.39641E-002	2.34189E-002	3.57270E+000	9	...........
	141	1.89333	1.97236E-002	-8.89426E-005	0.00000E+000	-1.75426E-006	-5.39641E-002	1.97179E-002	3.57270E+000	9	...........
	142	1.90667	1.60456E-002	-8.87186E-005	0.00000E+000	-1.42354E-006	-5.39641E-002	1.60420E-002	3.57270E+000	9	...........
	143	1.92	1.23827E-002	-8.89760E-005	0.00000E+000	-1.10176E-006	-5.39641E-002	1.23746E-002	3.57270E+000	9	...........
	144	1.93333	8.73815E-003	-8.89374E-005	0.00000E+000	-7.77148E-007	-5.39641E-002	8.72741E-003	3.57270E+000	9	...........
	145	1.94667	5.11650E-003	-8.86311E-005	0.00000E+000	-4.53481E-007	-5.39641E-002	5.10388E-003	3.57270E+000	9	...........
	146	1.96	1.52219E-003	-8.86707E-005	0.00000E+000	-1.34974E-007	-5.39641E-002	1.50685E-003	3.57270E+000	9	...........
STARTTIMEOFFSET	QUANT	3428.353	Start Time Offset (s)
