EXPLAIN
TAG	PWR800_DISCHARGE
TITLE	LABEL	PWR Cyclic Charge Discharge (Cell) - Discharge Step	Test &Identifier
DATE	LABEL	10-7-2017	Date
TIME	LABEL	16:14:40	Time
NOTES	NOTES	3	&Notes...
	supercap test cell
	0.9mg
	6M KOH
PSTAT	PSTAT	IFC5000-01520	Potentiostat
CAPACITY	QUANT	1.00000E-003	Capacity (A-hr)
CELLTYPE	SELECTOR	1	&Cell Type
WORKINGCONNECTION	SELECTOR	0	&Working Lead
MAXDISCHARGETIME	VARIABLEANDUNITS	1.00000E+002	s	1.00000E+002	second(s)	Max &Discharge Time
DISCHARGEMODE	MULTIPARAM	0	9.00000E-005	&Discharge Mode	Constant Current	Amp(s)
SAMPLETIME	QUANT	1.00000E-002	Sa&mple Period (s)
DISCHARGESTOPAT1	MULTIPARAM	3	0.00000E+000	Discharge Stop At &1	Voltage < Limit	V
DISCHARGESTOPAT2	MULTIPARAM	0	0.00000E+000	Discharge Stop At &2	None	N/A
AESBHCSELECTOR	TOGGLE	F	Save Both Half Cells
IRCOMP	TOGGLE	F	IR &Measure
EOC	QUANT	0	Open Circuit (V)
SEQUENCER	TOGGLE	TRUE	Run as Sequence
PSTATMODEL	IQUANT	53	Pstat Model
PSTATSECTION	LABEL	IFC5000-01520	Pstat Section
PSTATSERIALNO	LABEL	01520	Pstat Serial Number
CTRLMODE	IQUANT	0	Control Mode
ELECTROMETER	IQUANT	1	RE=0 or CS=1
IESTAB	IQUANT	0	I/E Stability
CASPEED	IQUANT	4	Control Amp Speed
CONVENTION	IQUANT	1	Current Convention
ICHRANGE	IQUANT	2	Ich Range
ICHRANGEMODE	TOGGLE	T	Ich Auto Range
ICHOFFSETENABLE	TOGGLE	F	Ich Offset Enable
ICHOFFSET	QUANT	0	Ich Offset (V)
ICHFILTER	IQUANT	1	Ich Filter
VCHRANGE	IQUANT	2	Vch Range
VCHRANGEMODE	TOGGLE	T	Vch Auto Range
VCHOFFSETENABLE	TOGGLE	F	Vch Offset Enable
VCHOFFSET	QUANT	0	Vch Offset (V)
VCHFILTER	IQUANT	1	Vch Filter
IERANGELOWERLIMIT	IQUANT	9	I/E Range Lower Limit
IERANGEMODE	TOGGLE	F	I/E AutoRange
IERANGE	IQUANT	9	I/E Range
ACHSELECT	IQUANT	1	Ach Select
ACHRANGE	IQUANT	2	Ach Range
ACHOFFSETENABLE	TOGGLE	F	Ach Offset Enable
ACHOFFSET	QUANT	0	Ach Offset (V)
ACHFILTER	IQUANT	1	Ach Filter
CABLEID	IQUANT	14	Cable ID
DCCALDATE	LABEL	5-7-2017	DC Calibration Date
ACCALDATE	LABEL	12/3/2015	AC Calibration Date
FRAMEWORKVERSION	QUANT	7.01	Framework Version
INSTRUMENTVERSION	LABEL	4.00	Instrument Version
CURVE	TABLE	147
	Pt	T	Vf	Im	Vu	Pwr	Sig	Ach	Temp	IERange	Over
	#	s	V	A	V	W	V	V	deg C	#	bits
	0	0.013333	8.02688E-001	-8.87051E-005	0.00000E+000	-7.12025E-005	-5.39641E-002	8.02817E-001	3.57330E+000	9	...........
	1	0.026667	7.88352E-001	-8.88447E-005	0.00000E+000	-7.00408E-005	-5.39641E-002	7.88486E-001	3.57330E+000	9	...........
	2	0.04	7.75005E-001	-8.88499E-005	0.00000E+000	-6.88591E-005	-5.39641E-002	7.75127E-001	3.57330E+000	9	...........
	3	0.053333	7.62441E-001	-8.88541E-005	0.00000E+000	-6.77460E-005	-5.39641E-002	7.62565E-001	3.57330E+000	9	...........
	4	0.066667	7.50529E-001	-8.89468E-005	0.00000E+000	-6.67571E-005	-5.39641E-002	7.50646E-001	3.57330E+000	9	...........
	5	0.08	7.39120E-001	-8.88186E-005	0.00000E+000	-6.56476E-005	-5.39641E-002	7.39255E-001	3.57330E+000	9	...........
	6	0.093333	7.28223E-001	-8.83654E-005	0.00000E+000	-6.43497E-005	-5.39641E-002	7.28324E-001	3.57330E+000	9	...........
	7	0.106667	7.17744E-001	-8.87040E-005	0.00000E+000	-6.36668E-005	-5.39641E-002	7.17864E-001	3.57330E+000	9	...........
	8	0.12	7.07629E-001	-8.85530E-005	0.00000E+000	-6.26627E-005	-5.39641E-002	7.07749E-001	3.57330E+000	9	...........
	9	0.133333	6.97892E-001	-8.88436E-005	0.00000E+000	-6.20033E-005	-5.39641E-002	6.97992E-001	3.57330E+000	9	...........
	10	0.146667	6.88428E-001	-8.85727E-005	0.00000E+000	-6.09760E-005	-5.39641E-002	6.88529E-001	3.57330E+000	9	...........
	11	0.16	6.79265E-001	-8.87905E-005	0.00000E+000	-6.03123E-005	-5.39641E-002	6.79363E-001	3.57330E+000	9	...........
	12	0.173333	6.70349E-001	-8.88103E-005	0.00000E+000	-5.95339E-005	-5.39641E-002	6.70447E-001	3.57330E+000	9	...........
	13	0.186667	6.61667E-001	-8.89791E-005	0.00000E+000	-5.88745E-005	-5.39641E-002	6.61757E-001	3.57330E+000	9	...........
	14	0.2	6.53242E-001	-8.88530E-005	0.00000E+000	-5.80425E-005	-5.39641E-002	6.53321E-001	3.57330E+000	9	...........
	15	0.213333	6.45000E-001	-8.87717E-005	0.00000E+000	-5.72578E-005	-5.39641E-002	6.45081E-001	3.57330E+000	9	...........
	16	0.226667	6.36954E-001	-8.88259E-005	0.00000E+000	-5.65781E-005	-5.39641E-002	6.37043E-001	3.57330E+000	9	...........
	17	0.24	6.29100E-001	-8.88968E-005	0.00000E+000	-5.59250E-005	-5.39641E-002	6.29222E-001	3.57330E+000	9	...........
	18	0.253333	6.21432E-001	-8.90426E-005	0.00000E+000	-5.53340E-005	-5.39641E-002	6.21532E-001	3.57330E+000	9	...........
	19	0.266667	6.13893E-001	-8.89624E-005	0.00000E+000	-5.46134E-005	-5.39641E-002	6.14034E-001	3.57330E+000	9	...........
	20	0.28	6.06499E-001	-8.86082E-005	0.00000E+000	-5.37408E-005	-5.39641E-002	6.06670E-001	3.57330E+000	9	...........
	21	0.293333	5.99272E-001	-8.90364E-005	0.00000E+000	-5.33570E-005	-5.39641E-002	5.99427E-001	3.57330E+000	9	...........
	22	0.306667	5.92182E-001	-8.85821E-005	0.00000E+000	-5.24567E-005	-5.39641E-002	5.92318E-001	3.57330E+000	9	...........
	23	0.32	5.85154E-001	-8.88155E-005	0.00000E+000	-5.19707E-005	-5.39641E-002	5.85306E-001	3.57330E+000	9	...........
	24	0.333333	5.78276E-001	-8.87447E-005	0.00000E+000	-5.13189E-005	-5.39641E-002	5.78423E-001	3.57330E+000	9	...........
	25	0.346667	5.71551E-001	-8.87186E-005	0.00000E+000	-5.07073E-005	-5.39641E-002	5.71655E-001	3.57330E+000	9	...........
	26	0.36	5.64883E-001	-8.87290E-005	0.00000E+000	-5.01215E-005	-5.39641E-002	5.65037E-001	3.57330E+000	9	...........
	27	0.373333	5.58303E-001	-8.85686E-005	0.00000E+000	-4.94481E-005	-5.39641E-002	5.58459E-001	3.57330E+000	9	...........
	28	0.386667	5.51874E-001	-8.88791E-005	0.00000E+000	-4.90501E-005	-5.39641E-002	5.52022E-001	3.57330E+000	9	...........
	29	0.4	5.45514E-001	-8.89968E-005	0.00000E+000	-4.85490E-005	-5.39641E-002	5.45637E-001	3.57330E+000	9	...........
	30	0.413333	5.39237E-001	-8.87332E-005	0.00000E+000	-4.78482E-005	-5.39641E-002	5.39379E-001	3.57330E+000	9	...........
	31	0.426667	5.32998E-001	-8.87509E-005	0.00000E+000	-4.73041E-005	-5.39641E-002	5.33119E-001	3.57330E+000	9	...........
	32	0.44	5.26892E-001	-8.89687E-005	0.00000E+000	-4.68769E-005	-5.39641E-002	5.27024E-001	3.57330E+000	9	...........
	33	0.453333	5.20864E-001	-8.87592E-005	0.00000E+000	-4.62315E-005	-5.39641E-002	5.20956E-001	3.57330E+000	9	...........
	34	0.466667	5.14890E-001	-8.88645E-005	0.00000E+000	-4.57555E-005	-5.39641E-002	5.14955E-001	3.57330E+000	9	...........
	35	0.48	5.08918E-001	-8.86884E-005	0.00000E+000	-4.51351E-005	-5.39641E-002	5.09055E-001	3.57330E+000	9	...........
	36	0.493333	5.03060E-001	-8.88416E-005	0.00000E+000	-4.46926E-005	-5.39641E-002	5.03170E-001	3.57330E+000	9	...........
	37	0.506667	4.97235E-001	-8.87936E-005	0.00000E+000	-4.41513E-005	-5.39641E-002	4.97358E-001	3.57330E+000	9	...........
	38	0.52	4.91481E-001	-8.88624E-005	0.00000E+000	-4.36741E-005	-5.39641E-002	4.91614E-001	3.57330E+000	9	...........
	39	0.533333	4.85852E-001	-8.87655E-005	0.00000E+000	-4.31269E-005	-5.39641E-002	4.85920E-001	3.57330E+000	9	...........
	40	0.546667	4.80278E-001	-8.86384E-005	0.00000E+000	-4.25711E-005	-5.39641E-002	4.80349E-001	3.57330E+000	9	...........
	41	0.56	4.74694E-001	-8.89947E-005	0.00000E+000	-4.22453E-005	-5.39641E-002	4.74761E-001	3.57330E+000	9	...........
	42	0.573333	4.69144E-001	-8.86301E-005	0.00000E+000	-4.15802E-005	-5.39641E-002	4.69212E-001	3.57324E+000	9	...........
	43	0.586667	4.63635E-001	-8.88905E-005	0.00000E+000	-4.12128E-005	-5.39641E-002	4.63697E-001	3.57280E+000	9	...........
	44	0.6	4.58160E-001	-8.88353E-005	0.00000E+000	-4.07008E-005	-5.39641E-002	4.58225E-001	3.57280E+000	9	...........
	45	0.613333	4.52727E-001	-8.89093E-005	0.00000E+000	-4.02516E-005	-5.39641E-002	4.52791E-001	3.57280E+000	9	...........
	46	0.626667	4.47329E-001	-8.86634E-005	0.00000E+000	-3.96617E-005	-5.39641E-002	4.47392E-001	3.57280E+000	9	...........
	47	0.64	4.41968E-001	-8.89322E-005	0.00000E+000	-3.93052E-005	-5.39641E-002	4.42034E-001	3.57280E+000	9	...........
	48	0.653333	4.36642E-001	-8.88989E-005	0.00000E+000	-3.88170E-005	-5.39641E-002	4.36705E-001	3.57280E+000	9	...........
	49	0.666667	4.31343E-001	-8.91291E-005	0.00000E+000	-3.84452E-005	-5.39641E-002	4.31409E-001	3.57280E+000	9	...........
	50	0.68	4.26095E-001	-8.89780E-005	0.00000E+000	-3.79131E-005	-5.39641E-002	4.26153E-001	3.57280E+000	9	...........
	51	0.693333	4.20868E-001	-8.86186E-005	0.00000E+000	-3.72968E-005	-5.39641E-002	4.20930E-001	3.57280E+000	9	...........
	52	0.706667	4.15671E-001	-8.87395E-005	0.00000E+000	-3.68864E-005	-5.39641E-002	4.15735E-001	3.57280E+000	9	...........
	53	0.72	4.10499E-001	-8.88780E-005	0.00000E+000	-3.64843E-005	-5.39641E-002	4.10557E-001	3.57280E+000	9	...........
	54	0.733333	4.05355E-001	-8.88155E-005	0.00000E+000	-3.60018E-005	-5.39641E-002	4.05406E-001	3.57280E+000	9	...........
	55	0.746667	4.00229E-001	-8.86384E-005	0.00000E+000	-3.54757E-005	-5.39641E-002	4.00278E-001	3.57280E+000	9	...........
	56	0.76	3.95135E-001	-8.86936E-005	0.00000E+000	-3.50459E-005	-5.39641E-002	3.95191E-001	3.57280E+000	9	...........
	57	0.773333	3.90072E-001	-8.89989E-005	0.00000E+000	-3.47160E-005	-5.39641E-002	3.90120E-001	3.57280E+000	9	...........
	58	0.786667	3.85010E-001	-8.85602E-005	0.00000E+000	-3.40966E-005	-5.39641E-002	3.85064E-001	3.57280E+000	9	...........
	59	0.8	3.79972E-001	-8.88093E-005	0.00000E+000	-3.37451E-005	-5.39641E-002	3.80022E-001	3.57280E+000	9	...........
	60	0.813333	3.74940E-001	-8.86186E-005	0.00000E+000	-3.32266E-005	-5.39641E-002	3.74995E-001	3.57280E+000	9	...........
	61	0.826667	3.69924E-001	-8.84165E-005	0.00000E+000	-3.27074E-005	-5.39641E-002	3.69974E-001	3.57280E+000	9	...........
	62	0.84	3.64925E-001	-8.89749E-005	0.00000E+000	-3.24692E-005	-5.39641E-002	3.64982E-001	3.57280E+000	9	...........
	63	0.853333	3.59944E-001	-8.89583E-005	0.00000E+000	-3.20200E-005	-5.39641E-002	3.59996E-001	3.57280E+000	9	...........
	64	0.866667	3.54969E-001	-8.86957E-005	0.00000E+000	-3.14842E-005	-5.39641E-002	3.55019E-001	3.57280E+000	9	...........
	65	0.88	3.50013E-001	-8.88509E-005	0.00000E+000	-3.10990E-005	-5.39641E-002	3.50062E-001	3.57280E+000	9	...........
	66	0.893333	3.45072E-001	-8.89937E-005	0.00000E+000	-3.07092E-005	-5.39641E-002	3.45119E-001	3.57280E+000	9	...........
	67	0.906667	3.40139E-001	-8.85467E-005	0.00000E+000	-3.01182E-005	-5.39641E-002	3.40183E-001	3.57280E+000	9	...........
	68	0.92	3.35218E-001	-8.89009E-005	0.00000E+000	-2.98012E-005	-5.39641E-002	3.35260E-001	3.57280E+000	9	...........
	69	0.933333	3.30309E-001	-8.87780E-005	0.00000E+000	-2.93242E-005	-5.39641E-002	3.30355E-001	3.57280E+000	9	...........
	70	0.946667	3.25408E-001	-8.86092E-005	0.00000E+000	-2.88342E-005	-5.39641E-002	3.25456E-001	3.57280E+000	9	...........
	71	0.96	3.20535E-001	-8.90155E-005	0.00000E+000	-2.85326E-005	-5.39641E-002	3.20583E-001	3.57280E+000	9	...........
	72	0.97333	3.15694E-001	-8.87884E-005	0.00000E+000	-2.80300E-005	-5.39641E-002	3.15734E-001	3.57280E+000	9	...........
	73	0.98667	3.10841E-001	-8.87072E-005	0.00000E+000	-2.75738E-005	-5.39641E-002	3.10880E-001	3.57280E+000	9	...........
	74	1	3.05989E-001	-8.88749E-005	0.00000E+000	-2.71947E-005	-5.39641E-002	3.06031E-001	3.57280E+000	9	...........
	75	1.01333	3.01145E-001	-8.89603E-005	0.00000E+000	-2.67900E-005	-5.39641E-002	3.01183E-001	3.57280E+000	9	...........
	76	1.02667	2.96300E-001	-8.88614E-005	0.00000E+000	-2.63296E-005	-5.39641E-002	2.96338E-001	3.57280E+000	9	...........
	77	1.04	2.91482E-001	-8.84644E-005	0.00000E+000	-2.57858E-005	-5.39641E-002	2.91516E-001	3.57280E+000	9	...........
	78	1.05333	2.86674E-001	-8.87363E-005	0.00000E+000	-2.54384E-005	-5.39641E-002	2.86710E-001	3.57280E+000	9	...........
	79	1.06667	2.81873E-001	-8.86478E-005	0.00000E+000	-2.49874E-005	-5.39641E-002	2.81908E-001	3.57280E+000	9	...........
	80	1.08	2.77086E-001	-8.87551E-005	0.00000E+000	-2.45928E-005	-5.39641E-002	2.77123E-001	3.57280E+000	9	...........
	81	1.09333	2.72330E-001	-8.86342E-005	0.00000E+000	-2.41377E-005	-5.39641E-002	2.72364E-001	3.57280E+000	9	...........
	82	1.10667	2.67581E-001	-8.87374E-005	0.00000E+000	-2.37444E-005	-5.39641E-002	2.67619E-001	3.57280E+000	9	...........
	83	1.12	2.62837E-001	-8.86644E-005	0.00000E+000	-2.33043E-005	-5.39641E-002	2.62876E-001	3.57280E+000	9	...........
	84	1.13333	2.58117E-001	-8.88759E-005	0.00000E+000	-2.29404E-005	-5.39641E-002	2.58158E-001	3.57280E+000	9	...........
	85	1.14667	2.53405E-001	-8.87759E-005	0.00000E+000	-2.24963E-005	-5.39641E-002	2.53441E-001	3.57280E+000	9	...........
	86	1.16	2.48709E-001	-8.88791E-005	0.00000E+000	-2.21051E-005	-5.39641E-002	2.48748E-001	3.57280E+000	9	...........
	87	1.17333	2.44031E-001	-8.87561E-005	0.00000E+000	-2.16592E-005	-5.39641E-002	2.44060E-001	3.57280E+000	9	...........
	88	1.18667	2.39369E-001	-8.86978E-005	0.00000E+000	-2.12315E-005	-5.39641E-002	2.39393E-001	3.57280E+000	9	...........
	89	1.2	2.34736E-001	-8.88916E-005	0.00000E+000	-2.08660E-005	-5.39641E-002	2.34760E-001	3.57280E+000	9	...........
	90	1.21333	2.30124E-001	-8.88593E-005	0.00000E+000	-2.04487E-005	-5.39641E-002	2.30152E-001	3.57280E+000	9	...........
	91	1.22667	2.25516E-001	-8.89541E-005	0.00000E+000	-2.00606E-005	-5.39641E-002	2.25540E-001	3.57280E+000	9	...........
	92	1.24	2.20936E-001	-8.86259E-005	0.00000E+000	-1.95806E-005	-5.39641E-002	2.20965E-001	3.57280E+000	9	...........
	93	1.25333	2.16365E-001	-8.86499E-005	0.00000E+000	-1.91807E-005	-5.39641E-002	2.16392E-001	3.57280E+000	9	...........
	94	1.26667	2.11808E-001	-8.89655E-005	0.00000E+000	-1.88436E-005	-5.39641E-002	2.11834E-001	3.57280E+000	9	...........
	95	1.28	2.07269E-001	-8.86894E-005	0.00000E+000	-1.83826E-005	-5.39641E-002	2.07293E-001	3.57280E+000	9	...........
	96	1.29333	2.02748E-001	-8.87165E-005	0.00000E+000	-1.79871E-005	-5.39641E-002	2.02774E-001	3.57280E+000	9	...........
	97	1.30667	1.98237E-001	-8.86874E-005	0.00000E+000	-1.75811E-005	-5.39641E-002	1.98260E-001	3.57280E+000	9	...........
	98	1.32	1.93746E-001	-8.88947E-005	0.00000E+000	-1.72230E-005	-5.39641E-002	1.93770E-001	3.57280E+000	9	...........
	99	1.33333	1.89257E-001	-8.88895E-005	0.00000E+000	-1.68229E-005	-5.39641E-002	1.89277E-001	3.57280E+000	9	...........
	100	1.34667	1.84781E-001	-8.86509E-005	0.00000E+000	-1.63810E-005	-5.39641E-002	1.84800E-001	3.57280E+000	9	...........
	101	1.36	1.80321E-001	-8.87645E-005	0.00000E+000	-1.60061E-005	-5.39641E-002	1.80349E-001	3.57280E+000	9	...........
	102	1.37333	1.75894E-001	-8.88759E-005	0.00000E+000	-1.56327E-005	-5.39641E-002	1.75918E-001	3.57280E+000	9	...........
	103	1.38667	1.71488E-001	-8.87249E-005	0.00000E+000	-1.52152E-005	-5.39641E-002	1.71507E-001	3.57280E+000	9	...........
	104	1.4	1.67115E-001	-8.88447E-005	0.00000E+000	-1.48473E-005	-5.39641E-002	1.67134E-001	3.57280E+000	9	...........
	105	1.41333	1.62768E-001	-8.85467E-005	0.00000E+000	-1.44126E-005	-5.39641E-002	1.62782E-001	3.57280E+000	9	...........
	106	1.42667	1.58416E-001	-8.90083E-005	0.00000E+000	-1.41004E-005	-5.39641E-002	1.58434E-001	3.57280E+000	9	...........
	107	1.44	1.54083E-001	-8.88041E-005	0.00000E+000	-1.36832E-005	-5.39641E-002	1.54098E-001	3.57280E+000	9	...........
	108	1.45333	1.49781E-001	-8.87499E-005	0.00000E+000	-1.32931E-005	-5.39641E-002	1.49796E-001	3.57280E+000	9	...........
	109	1.46667	1.45494E-001	-8.85550E-005	0.00000E+000	-1.28842E-005	-5.39641E-002	1.45510E-001	3.57280E+000	9	...........
	110	1.48	1.41219E-001	-8.88218E-005	0.00000E+000	-1.25433E-005	-5.39641E-002	1.41236E-001	3.57280E+000	9	...........
	111	1.49333	1.36962E-001	-8.89155E-005	0.00000E+000	-1.21781E-005	-5.39641E-002	1.36974E-001	3.57280E+000	9	...........
	112	1.50667	1.32725E-001	-8.89530E-005	0.00000E+000	-1.18063E-005	-5.39641E-002	1.32738E-001	3.57280E+000	9	...........
	113	1.52	1.28507E-001	-8.87926E-005	0.00000E+000	-1.14105E-005	-5.39641E-002	1.28521E-001	3.57280E+000	9	...........
	114	1.53333	1.24313E-001	-8.89489E-005	0.00000E+000	-1.10575E-005	-5.39641E-002	1.24328E-001	3.57280E+000	9	...........
	115	1.54667	1.20141E-001	-8.91166E-005	0.00000E+000	-1.07065E-005	-5.39641E-002	1.20156E-001	3.57280E+000	9	...........
	116	1.56	1.15991E-001	-8.88832E-005	0.00000E+000	-1.03096E-005	-5.39641E-002	1.16005E-001	3.57280E+000	9	...........
	117	1.57333	1.11846E-001	-8.87718E-005	0.00000E+000	-9.92881E-006	-5.39641E-002	1.11866E-001	3.57285E+000	9	...........
	118	1.58667	1.07723E-001	-8.87780E-005	0.00000E+000	-9.56343E-006	-5.39641E-002	1.07735E-001	3.57320E+000	9	...........
	119	1.6	1.03620E-001	-8.85623E-005	0.00000E+000	-9.17683E-006	-5.39641E-002	1.03630E-001	3.57320E+000	9	...........
	120	1.61333	9.95220E-002	-8.89968E-005	0.00000E+000	-8.85714E-006	-5.39641E-002	9.95332E-002	3.57320E+000	9	...........
	121	1.62667	9.54459E-002	-8.86780E-005	0.00000E+000	-8.46395E-006	-5.39641E-002	9.54579E-002	3.57320E+000	9	...........
	122	1.64	9.13942E-002	-8.88155E-005	0.00000E+000	-8.11722E-006	-5.39641E-002	9.14003E-002	3.57320E+000	9	...........
	123	1.65333	8.73675E-002	-8.88238E-005	0.00000E+000	-7.76031E-006	-5.39641E-002	8.73763E-002	3.57320E+000	9	...........
	124	1.66667	8.33533E-002	-8.87051E-005	0.00000E+000	-7.39386E-006	-5.39641E-002	8.33595E-002	3.57320E+000	9	...........
	125	1.68	7.93571E-002	-8.87499E-005	0.00000E+000	-7.04293E-006	-5.39641E-002	7.93663E-002	3.57320E+000	9	...........
	126	1.69333	7.53833E-002	-8.88832E-005	0.00000E+000	-6.70031E-006	-5.39641E-002	7.53823E-002	3.57320E+000	9	...........
	127	1.70667	7.14336E-002	-8.90353E-005	0.00000E+000	-6.36011E-006	-5.39641E-002	7.14319E-002	3.57320E+000	9	...........
	128	1.72	6.75126E-002	-8.87207E-005	0.00000E+000	-5.98976E-006	-5.39641E-002	6.75099E-002	3.57320E+000	9	...........
	129	1.73333	6.36039E-002	-8.88874E-005	0.00000E+000	-5.65359E-006	-5.39641E-002	6.36013E-002	3.57320E+000	9	...........
	130	1.74667	5.97104E-002	-8.90208E-005	0.00000E+000	-5.31547E-006	-5.39641E-002	5.97091E-002	3.57320E+000	9	...........
	131	1.76	5.58367E-002	-8.89645E-005	0.00000E+000	-4.96748E-006	-5.39641E-002	5.58272E-002	3.57320E+000	9	...........
	132	1.77333	5.19647E-002	-8.86176E-005	0.00000E+000	-4.60499E-006	-5.39641E-002	5.19606E-002	3.57320E+000	9	...........
	133	1.78667	4.81287E-002	-8.89166E-005	0.00000E+000	-4.27944E-006	-5.39641E-002	4.81315E-002	3.57320E+000	9	...........
	134	1.8	4.43072E-002	-8.88707E-005	0.00000E+000	-3.93761E-006	-5.39641E-002	4.43131E-002	3.57320E+000	9	...........
	135	1.81333	4.04954E-002	-8.86780E-005	0.00000E+000	-3.59105E-006	-5.39641E-002	4.05108E-002	3.57320E+000	9	...........
	136	1.82667	3.66986E-002	-8.87384E-005	0.00000E+000	-3.25658E-006	-5.39641E-002	3.66991E-002	3.57320E+000	9	...........
	137	1.84	3.29145E-002	-8.89228E-005	0.00000E+000	-2.92685E-006	-5.39641E-002	3.29146E-002	3.57320E+000	9	...........
	138	1.85333	2.91550E-002	-8.88489E-005	0.00000E+000	-2.59038E-006	-5.39641E-002	2.91517E-002	3.57320E+000	9	...........
	139	1.86667	2.54008E-002	-8.89530E-005	0.00000E+000	-2.25948E-006	-5.39641E-002	2.53982E-002	3.57320E+000	9	...........
	140	1.88	2.16711E-002	-8.89780E-005	0.00000E+000	-1.92825E-006	-5.39641E-002	2.16678E-002	3.57320E+000	9	...........
	141	1.89333	1.79482E-002	-8.86624E-005	0.00000E+000	-1.59133E-006	-5.39641E-002	1.79487E-002	3.57320E+000	9	...........
	142	1.90667	1.42426E-002	-8.88593E-005	0.00000E+000	-1.26559E-006	-5.39641E-002	1.42404E-002	3.57320E+000	9	...........
	143	1.92	1.05612E-002	-8.88822E-005	0.00000E+000	-9.38702E-007	-5.39641E-002	1.05501E-002	3.57320E+000	9	...........
	144	1.93333	6.89908E-003	-8.86978E-005	0.00000E+000	-6.11933E-007	-5.39641E-002	6.88602E-003	3.57320E+000	9	...........
	145	1.94667	3.26068E-003	-8.88343E-005	0.00000E+000	-2.89660E-007	-5.39641E-002	3.24829E-003	3.57320E+000	9	...........
	146	1.95333	5.45367E-004	-8.85748E-005	0.00000E+000	-4.83058E-008	-5.39641E-002	5.28185E-004	3.57320E+000	9	...........
STARTTIMEOFFSET	QUANT	3794.958	Start Time Offset (s)
