EXPLAIN
TAG	PWR800_DISCHARGE
TITLE	LABEL	PWR Cyclic Charge Discharge (Cell) - Discharge Step	Test &Identifier
DATE	LABEL	10-7-2017	Date
TIME	LABEL	15:52:06	Time
NOTES	NOTES	3	&Notes...
	supercap test cell
	0.9mg
	6M KOH
PSTAT	PSTAT	IFC5000-01520	Potentiostat
CAPACITY	QUANT	1.00000E-003	Capacity (A-hr)
CELLTYPE	SELECTOR	1	&Cell Type
WORKINGCONNECTION	SELECTOR	0	&Working Lead
MAXDISCHARGETIME	VARIABLEANDUNITS	1.00000E+002	s	1.00000E+002	second(s)	Max &Discharge Time
DISCHARGEMODE	MULTIPARAM	0	9.00000E-005	&Discharge Mode	Constant Current	Amp(s)
SAMPLETIME	QUANT	1.00000E-002	Sa&mple Period (s)
DISCHARGESTOPAT1	MULTIPARAM	3	0.00000E+000	Discharge Stop At &1	Voltage < Limit	V
DISCHARGESTOPAT2	MULTIPARAM	0	0.00000E+000	Discharge Stop At &2	None	N/A
AESBHCSELECTOR	TOGGLE	F	Save Both Half Cells
IRCOMP	TOGGLE	F	IR &Measure
EOC	QUANT	0	Open Circuit (V)
SEQUENCER	TOGGLE	TRUE	Run as Sequence
PSTATMODEL	IQUANT	53	Pstat Model
PSTATSECTION	LABEL	IFC5000-01520	Pstat Section
PSTATSERIALNO	LABEL	01520	Pstat Serial Number
CTRLMODE	IQUANT	0	Control Mode
ELECTROMETER	IQUANT	1	RE=0 or CS=1
IESTAB	IQUANT	0	I/E Stability
CASPEED	IQUANT	4	Control Amp Speed
CONVENTION	IQUANT	1	Current Convention
ICHRANGE	IQUANT	2	Ich Range
ICHRANGEMODE	TOGGLE	T	Ich Auto Range
ICHOFFSETENABLE	TOGGLE	F	Ich Offset Enable
ICHOFFSET	QUANT	0	Ich Offset (V)
ICHFILTER	IQUANT	1	Ich Filter
VCHRANGE	IQUANT	2	Vch Range
VCHRANGEMODE	TOGGLE	T	Vch Auto Range
VCHOFFSETENABLE	TOGGLE	F	Vch Offset Enable
VCHOFFSET	QUANT	0	Vch Offset (V)
VCHFILTER	IQUANT	1	Vch Filter
IERANGELOWERLIMIT	IQUANT	9	I/E Range Lower Limit
IERANGEMODE	TOGGLE	F	I/E AutoRange
IERANGE	IQUANT	9	I/E Range
ACHSELECT	IQUANT	1	Ach Select
ACHRANGE	IQUANT	2	Ach Range
ACHOFFSETENABLE	TOGGLE	F	Ach Offset Enable
ACHOFFSET	QUANT	0	Ach Offset (V)
ACHFILTER	IQUANT	1	Ach Filter
CABLEID	IQUANT	14	Cable ID
DCCALDATE	LABEL	5-7-2017	DC Calibration Date
ACCALDATE	LABEL	12/3/2015	AC Calibration Date
FRAMEWORKVERSION	QUANT	7.01	Framework Version
INSTRUMENTVERSION	LABEL	4.00	Instrument Version
CURVE	TABLE	150
	Pt	T	Vf	Im	Vu	Pwr	Sig	Ach	Temp	IERange	Over
	#	s	V	A	V	W	V	V	deg C	#	bits
	0	0.013333	8.05917E-001	-8.85894E-005	0.00000E+000	-7.13957E-005	-5.39641E-002	8.06072E-001	3.57260E+000	9	...........
	1	0.026667	7.92127E-001	-8.88489E-005	0.00000E+000	-7.03795E-005	-5.39641E-002	7.92257E-001	3.57260E+000	9	...........
	2	0.04	7.79241E-001	-8.88811E-005	0.00000E+000	-6.92598E-005	-5.39641E-002	7.79377E-001	3.57260E+000	9	...........
	3	0.053333	7.67091E-001	-8.88343E-005	0.00000E+000	-6.81440E-005	-5.39641E-002	7.67227E-001	3.57260E+000	9	...........
	4	0.066667	7.55584E-001	-8.86405E-005	0.00000E+000	-6.69754E-005	-5.39641E-002	7.55684E-001	3.57260E+000	9	...........
	5	0.08	7.44549E-001	-8.86134E-005	0.00000E+000	-6.59770E-005	-5.39641E-002	7.44656E-001	3.57260E+000	9	...........
	6	0.093333	7.33981E-001	-8.88728E-005	0.00000E+000	-6.52310E-005	-5.39641E-002	7.34101E-001	3.57260E+000	9	...........
	7	0.106667	7.23820E-001	-8.86530E-005	0.00000E+000	-6.41688E-005	-5.39641E-002	7.23901E-001	3.57260E+000	9	...........
	8	0.12	7.13967E-001	-8.88197E-005	0.00000E+000	-6.34143E-005	-5.39641E-002	7.14086E-001	3.57260E+000	9	...........
	9	0.133333	7.04471E-001	-8.89072E-005	0.00000E+000	-6.26325E-005	-5.39641E-002	7.04580E-001	3.57260E+000	9	...........
	10	0.146667	6.95270E-001	-8.88186E-005	0.00000E+000	-6.17529E-005	-5.39641E-002	6.95397E-001	3.57260E+000	9	...........
	11	0.16	6.86326E-001	-8.88041E-005	0.00000E+000	-6.09486E-005	-5.39641E-002	6.86435E-001	3.57260E+000	9	...........
	12	0.173333	6.77659E-001	-8.86697E-005	0.00000E+000	-6.00878E-005	-5.39641E-002	6.77737E-001	3.57260E+000	9	...........
	13	0.186667	6.69195E-001	-8.88176E-005	0.00000E+000	-5.94363E-005	-5.39641E-002	6.69298E-001	3.57260E+000	9	...........
	14	0.2	6.60916E-001	-8.87686E-005	0.00000E+000	-5.86686E-005	-5.39641E-002	6.61000E-001	3.57260E+000	9	...........
	15	0.213333	6.52876E-001	-8.88676E-005	0.00000E+000	-5.80196E-005	-5.39641E-002	6.52958E-001	3.57260E+000	9	...........
	16	0.226667	6.44982E-001	-8.88249E-005	0.00000E+000	-5.72905E-005	-5.39641E-002	6.45082E-001	3.57260E+000	9	...........
	17	0.24	6.37284E-001	-8.89770E-005	0.00000E+000	-5.67037E-005	-5.39641E-002	6.37359E-001	3.57260E+000	9	...........
	18	0.253333	6.29758E-001	-8.88186E-005	0.00000E+000	-5.59342E-005	-5.39641E-002	6.29818E-001	3.57260E+000	9	...........
	19	0.266667	6.22383E-001	-8.89051E-005	0.00000E+000	-5.53330E-005	-5.39641E-002	6.22452E-001	3.57260E+000	9	...........
	20	0.28	6.15120E-001	-8.88207E-005	0.00000E+000	-5.46354E-005	-5.39641E-002	6.15238E-001	3.57260E+000	9	...........
	21	0.293333	6.07960E-001	-8.87884E-005	0.00000E+000	-5.39798E-005	-5.39641E-002	6.08091E-001	3.57260E+000	9	...........
	22	0.306667	6.00987E-001	-8.88728E-005	0.00000E+000	-5.34114E-005	-5.39641E-002	6.01117E-001	3.57260E+000	9	...........
	23	0.32	5.94097E-001	-8.87426E-005	0.00000E+000	-5.27217E-005	-5.39641E-002	5.94231E-001	3.57260E+000	9	...........
	24	0.333333	5.87295E-001	-8.88061E-005	0.00000E+000	-5.21554E-005	-5.39641E-002	5.87420E-001	3.57260E+000	9	...........
	25	0.346667	5.80608E-001	-8.86863E-005	0.00000E+000	-5.14920E-005	-5.39641E-002	5.80740E-001	3.57260E+000	9	...........
	26	0.36	5.74036E-001	-8.88416E-005	0.00000E+000	-5.09983E-005	-5.39641E-002	5.74157E-001	3.57260E+000	9	...........
	27	0.373333	5.67591E-001	-8.84581E-005	0.00000E+000	-5.02081E-005	-5.39641E-002	5.67687E-001	3.57260E+000	9	...........
	28	0.386667	5.61173E-001	-8.86405E-005	0.00000E+000	-4.97426E-005	-5.39641E-002	5.61305E-001	3.57260E+000	9	...........
	29	0.4	5.54864E-001	-8.86301E-005	0.00000E+000	-4.91776E-005	-5.39641E-002	5.54971E-001	3.57260E+000	9	...........
	30	0.413333	5.48652E-001	-8.89051E-005	0.00000E+000	-4.87779E-005	-5.39641E-002	5.48757E-001	3.57260E+000	9	...........
	31	0.426667	5.42509E-001	-8.88999E-005	0.00000E+000	-4.82290E-005	-5.39641E-002	5.42602E-001	3.57260E+000	9	...........
	32	0.44	5.36415E-001	-8.88780E-005	0.00000E+000	-4.76755E-005	-5.39641E-002	5.36490E-001	3.57260E+000	9	...........
	33	0.453333	5.30385E-001	-8.88739E-005	0.00000E+000	-4.71374E-005	-5.39641E-002	5.30469E-001	3.57260E+000	9	...........
	34	0.466667	5.24455E-001	-8.88864E-005	0.00000E+000	-4.66169E-005	-5.39641E-002	5.24562E-001	3.57260E+000	9	...........
	35	0.48	5.18598E-001	-8.87165E-005	0.00000E+000	-4.60082E-005	-5.39641E-002	5.18677E-001	3.57260E+000	9	...........
	36	0.493333	5.12775E-001	-8.89593E-005	0.00000E+000	-4.56161E-005	-5.39641E-002	5.12873E-001	3.57260E+000	9	...........
	37	0.506667	5.06956E-001	-8.87832E-005	0.00000E+000	-4.50092E-005	-5.39641E-002	5.07105E-001	3.57260E+000	9	...........
	38	0.52	5.01249E-001	-8.86186E-005	0.00000E+000	-4.44200E-005	-5.39641E-002	5.01368E-001	3.57260E+000	9	...........
	39	0.533333	4.95596E-001	-8.85665E-005	0.00000E+000	-4.38932E-005	-5.39641E-002	4.95714E-001	3.57260E+000	9	...........
	40	0.546667	4.89970E-001	-8.87665E-005	0.00000E+000	-4.34929E-005	-5.39641E-002	4.90085E-001	3.57260E+000	9	...........
	41	0.56	4.84450E-001	-8.86582E-005	0.00000E+000	-4.29504E-005	-5.39641E-002	4.84517E-001	3.57260E+000	9	...........
	42	0.573333	4.78942E-001	-8.87884E-005	0.00000E+000	-4.25245E-005	-5.39641E-002	4.79003E-001	3.57260E+000	9	...........
	43	0.586667	4.73421E-001	-8.86884E-005	0.00000E+000	-4.19870E-005	-5.39641E-002	4.73485E-001	3.57260E+000	9	...........
	44	0.6	4.67951E-001	-8.88957E-005	0.00000E+000	-4.15989E-005	-5.39641E-002	4.68012E-001	3.57260E+000	9	...........
	45	0.613333	4.62538E-001	-8.86822E-005	0.00000E+000	-4.10189E-005	-5.39641E-002	4.62600E-001	3.57260E+000	9	...........
	46	0.626667	4.57147E-001	-8.87509E-005	0.00000E+000	-4.05722E-005	-5.39641E-002	4.57206E-001	3.57260E+000	9	...........
	47	0.64	4.51793E-001	-8.86061E-005	0.00000E+000	-4.00316E-005	-5.39641E-002	4.51851E-001	3.57260E+000	9	...........
	48	0.653333	4.46449E-001	-8.84738E-005	0.00000E+000	-3.94990E-005	-5.39641E-002	4.46508E-001	3.57260E+000	9	...........
	49	0.666667	4.41134E-001	-8.87478E-005	0.00000E+000	-3.91497E-005	-5.39641E-002	4.41195E-001	3.57260E+000	9	...........
	50	0.68	4.35842E-001	-8.87884E-005	0.00000E+000	-3.86977E-005	-5.39641E-002	4.35903E-001	3.57260E+000	9	...........
	51	0.693333	4.30577E-001	-8.87707E-005	0.00000E+000	-3.82226E-005	-5.39641E-002	4.30634E-001	3.57260E+000	9	...........
	52	0.706667	4.25340E-001	-8.86113E-005	0.00000E+000	-3.76899E-005	-5.39641E-002	4.25397E-001	3.57260E+000	9	...........
	53	0.72	4.20135E-001	-8.88520E-005	0.00000E+000	-3.73299E-005	-5.39641E-002	4.20195E-001	3.57260E+000	9	...........
	54	0.733333	4.14956E-001	-8.89718E-005	0.00000E+000	-3.69193E-005	-5.39641E-002	4.15020E-001	3.57260E+000	9	...........
	55	0.746667	4.09798E-001	-8.88968E-005	0.00000E+000	-3.64297E-005	-5.39641E-002	4.09855E-001	3.57383E+000	9	...........
	56	0.76	4.04656E-001	-8.86030E-005	0.00000E+000	-3.58537E-005	-5.39641E-002	4.04699E-001	3.57400E+000	9	...........
	57	0.773333	3.99514E-001	-8.89843E-005	0.00000E+000	-3.55505E-005	-5.39641E-002	3.99570E-001	3.57400E+000	9	...........
	58	0.786667	3.94409E-001	-8.86092E-005	0.00000E+000	-3.49483E-005	-5.39641E-002	3.94454E-001	3.57400E+000	9	...........
	59	0.8	3.89323E-001	-8.87801E-005	0.00000E+000	-3.45642E-005	-5.39641E-002	3.89376E-001	3.57400E+000	9	...........
	60	0.813333	3.84258E-001	-8.87405E-005	0.00000E+000	-3.40993E-005	-5.39641E-002	3.84303E-001	3.57400E+000	9	...........
	61	0.826667	3.79215E-001	-8.86353E-005	0.00000E+000	-3.36118E-005	-5.39641E-002	3.79255E-001	3.57400E+000	9	...........
	62	0.84	3.74184E-001	-8.86238E-005	0.00000E+000	-3.31616E-005	-5.39641E-002	3.74224E-001	3.57400E+000	9	...........
	63	0.853333	3.69155E-001	-8.86415E-005	0.00000E+000	-3.27225E-005	-5.39641E-002	3.69191E-001	3.57400E+000	9	...........
	64	0.866667	3.64147E-001	-8.86384E-005	0.00000E+000	-3.22774E-005	-5.39641E-002	3.64189E-001	3.57400E+000	9	...........
	65	0.88	3.59152E-001	-8.87113E-005	0.00000E+000	-3.18608E-005	-5.39641E-002	3.59197E-001	3.57400E+000	9	...........
	66	0.893333	3.54180E-001	-8.87072E-005	0.00000E+000	-3.14183E-005	-5.39641E-002	3.54216E-001	3.57400E+000	9	...........
	67	0.906667	3.49205E-001	-8.86478E-005	0.00000E+000	-3.09562E-005	-5.39641E-002	3.49247E-001	3.57400E+000	9	...........
	68	0.92	3.44240E-001	-8.89864E-005	0.00000E+000	-3.06327E-005	-5.39641E-002	3.44289E-001	3.57400E+000	9	...........
	69	0.933333	3.39305E-001	-8.87384E-005	0.00000E+000	-3.01094E-005	-5.39641E-002	3.39350E-001	3.57400E+000	9	...........
	70	0.946667	3.34382E-001	-8.86207E-005	0.00000E+000	-2.96331E-005	-5.39641E-002	3.34428E-001	3.57400E+000	9	...........
	71	0.96	3.29476E-001	-8.87342E-005	0.00000E+000	-2.92358E-005	-5.39641E-002	3.29517E-001	3.57400E+000	9	...........
	72	0.97333	3.24582E-001	-8.88009E-005	0.00000E+000	-2.88232E-005	-5.39641E-002	3.24622E-001	3.57400E+000	9	...........
	73	0.98667	3.19694E-001	-8.85769E-005	0.00000E+000	-2.83175E-005	-5.39641E-002	3.19729E-001	3.57400E+000	9	...........
	74	1	3.14819E-001	-8.88874E-005	0.00000E+000	-2.79834E-005	-5.39641E-002	3.14861E-001	3.57400E+000	9	...........
	75	1.01333	3.09962E-001	-8.88634E-005	0.00000E+000	-2.75443E-005	-5.39641E-002	3.09999E-001	3.57400E+000	9	...........
	76	1.02667	3.05103E-001	-8.89530E-005	0.00000E+000	-2.71398E-005	-5.39641E-002	3.05142E-001	3.57400E+000	9	...........
	77	1.04	3.00271E-001	-8.89489E-005	0.00000E+000	-2.67088E-005	-5.39641E-002	3.00301E-001	3.57400E+000	9	...........
	78	1.05333	2.95452E-001	-8.88770E-005	0.00000E+000	-2.62589E-005	-5.39641E-002	2.95486E-001	3.57400E+000	9	...........
	79	1.06667	2.90645E-001	-8.86405E-005	0.00000E+000	-2.57629E-005	-5.39641E-002	2.90681E-001	3.57400E+000	9	...........
	80	1.08	2.85865E-001	-8.88176E-005	0.00000E+000	-2.53898E-005	-5.39641E-002	2.85904E-001	3.57400E+000	9	...........
	81	1.09333	2.81108E-001	-8.88384E-005	0.00000E+000	-2.49732E-005	-5.39641E-002	2.81146E-001	3.57400E+000	9	...........
	82	1.10667	2.76391E-001	-8.85832E-005	0.00000E+000	-2.44836E-005	-5.39641E-002	2.76423E-001	3.57400E+000	9	...........
	83	1.12	2.71688E-001	-8.87259E-005	0.00000E+000	-2.41058E-005	-5.39641E-002	2.71722E-001	3.57400E+000	9	...........
	84	1.13333	2.66971E-001	-8.89072E-005	0.00000E+000	-2.37356E-005	-5.39641E-002	2.67006E-001	3.57400E+000	9	...........
	85	1.14667	2.62286E-001	-8.87624E-005	0.00000E+000	-2.32811E-005	-5.39641E-002	2.62322E-001	3.57400E+000	9	...........
	86	1.16	2.57616E-001	-8.87863E-005	0.00000E+000	-2.28728E-005	-5.39641E-002	2.57647E-001	3.57400E+000	9	...........
	87	1.17333	2.52981E-001	-8.89009E-005	0.00000E+000	-2.24903E-005	-5.39641E-002	2.53016E-001	3.57400E+000	9	...........
	88	1.18667	2.48363E-001	-8.88124E-005	0.00000E+000	-2.20578E-005	-5.39641E-002	2.48393E-001	3.57400E+000	9	...........
	89	1.2	2.43759E-001	-8.87124E-005	0.00000E+000	-2.16245E-005	-5.39641E-002	2.43787E-001	3.57400E+000	9	...........
	90	1.21333	2.39164E-001	-8.88176E-005	0.00000E+000	-2.12420E-005	-5.39641E-002	2.39189E-001	3.57400E+000	9	...........
	91	1.22667	2.34569E-001	-8.87926E-005	0.00000E+000	-2.08280E-005	-5.39641E-002	2.34597E-001	3.57400E+000	9	...........
	92	1.24	2.29998E-001	-8.88186E-005	0.00000E+000	-2.04281E-005	-5.39641E-002	2.30020E-001	3.57400E+000	9	...........
	93	1.25333	2.25445E-001	-8.86697E-005	0.00000E+000	-1.99901E-005	-5.39641E-002	2.25473E-001	3.57400E+000	9	...........
	94	1.26667	2.20921E-001	-8.87186E-005	0.00000E+000	-1.95998E-005	-5.39641E-002	2.20948E-001	3.57400E+000	9	...........
	95	1.28	2.16408E-001	-8.87988E-005	0.00000E+000	-1.92168E-005	-5.39641E-002	2.16433E-001	3.57400E+000	9	...........
	96	1.29333	2.11901E-001	-8.87144E-005	0.00000E+000	-1.87987E-005	-5.39641E-002	2.11919E-001	3.57400E+000	9	...........
	97	1.30667	2.07415E-001	-8.86436E-005	0.00000E+000	-1.83860E-005	-5.39641E-002	2.07438E-001	3.57400E+000	9	...........
	98	1.32	2.02958E-001	-8.85998E-005	0.00000E+000	-1.79821E-005	-5.39641E-002	2.02984E-001	3.57400E+000	9	...........
	99	1.33333	1.98512E-001	-8.86884E-005	0.00000E+000	-1.76057E-005	-5.39641E-002	1.98535E-001	3.57400E+000	9	...........
	100	1.34667	1.94066E-001	-8.88364E-005	0.00000E+000	-1.72401E-005	-5.39641E-002	1.94092E-001	3.57400E+000	9	...........
	101	1.36	1.89654E-001	-8.88614E-005	0.00000E+000	-1.68529E-005	-5.39641E-002	1.89675E-001	3.57400E+000	9	...........
	102	1.37333	1.85259E-001	-8.87405E-005	0.00000E+000	-1.64400E-005	-5.39641E-002	1.85278E-001	3.57400E+000	9	...........
	103	1.38667	1.80874E-001	-8.89999E-005	0.00000E+000	-1.60977E-005	-5.39641E-002	1.80893E-001	3.57400E+000	9	...........
	104	1.4	1.76505E-001	-8.87113E-005	0.00000E+000	-1.56580E-005	-5.39641E-002	1.76528E-001	3.57400E+000	9	...........
	105	1.41333	1.72153E-001	-8.86009E-005	0.00000E+000	-1.52529E-005	-5.39641E-002	1.72182E-001	3.57400E+000	9	...........
	106	1.42667	1.67845E-001	-8.89343E-005	0.00000E+000	-1.49272E-005	-5.39641E-002	1.67870E-001	3.57400E+000	9	...........
	107	1.44	1.63560E-001	-8.88499E-005	0.00000E+000	-1.45323E-005	-5.39641E-002	1.63573E-001	3.57400E+000	9	...........
	108	1.45333	1.59281E-001	-8.89218E-005	0.00000E+000	-1.41636E-005	-5.39641E-002	1.59297E-001	3.57400E+000	9	...........
	109	1.46667	1.55027E-001	-8.86519E-005	0.00000E+000	-1.37435E-005	-5.39641E-002	1.55040E-001	3.57400E+000	9	...........
	110	1.48	1.50780E-001	-8.89124E-005	0.00000E+000	-1.34063E-005	-5.39641E-002	1.50798E-001	3.57400E+000	9	...........
	111	1.49333	1.46561E-001	-8.87988E-005	0.00000E+000	-1.30144E-005	-5.39641E-002	1.46573E-001	3.57400E+000	9	...........
	112	1.50667	1.42361E-001	-8.88801E-005	0.00000E+000	-1.26531E-005	-5.39641E-002	1.42373E-001	3.57400E+000	9	...........
	113	1.52	1.38181E-001	-8.87363E-005	0.00000E+000	-1.22617E-005	-5.39641E-002	1.38191E-001	3.57400E+000	9	...........
	114	1.53333	1.34013E-001	-8.88280E-005	0.00000E+000	-1.19041E-005	-5.39641E-002	1.34026E-001	3.57400E+000	9	...........
	115	1.54667	1.29881E-001	-8.88916E-005	0.00000E+000	-1.15453E-005	-5.39641E-002	1.29894E-001	3.57400E+000	9	...........
	116	1.56	1.25750E-001	-8.87572E-005	0.00000E+000	-1.11612E-005	-5.39641E-002	1.25765E-001	3.57400E+000	9	...........
	117	1.57333	1.21641E-001	-8.87665E-005	0.00000E+000	-1.07977E-005	-5.39641E-002	1.21650E-001	3.57400E+000	9	...........
	118	1.58667	1.17545E-001	-8.89343E-005	0.00000E+000	-1.04538E-005	-5.39641E-002	1.17555E-001	3.57400E+000	9	...........
	119	1.6	1.13470E-001	-8.88916E-005	0.00000E+000	-1.00865E-005	-5.39641E-002	1.13481E-001	3.57400E+000	9	...........
	120	1.61333	1.09426E-001	-8.88311E-005	0.00000E+000	-9.72041E-006	-5.39641E-002	1.09433E-001	3.57400E+000	9	...........
	121	1.62667	1.05403E-001	-8.86082E-005	0.00000E+000	-9.33953E-006	-5.39641E-002	1.05413E-001	3.57400E+000	9	...........
	122	1.64	1.01389E-001	-8.89541E-005	0.00000E+000	-9.01898E-006	-5.39641E-002	1.01400E-001	3.57400E+000	9	...........
	123	1.65333	9.73787E-002	-8.86540E-005	0.00000E+000	-8.63301E-006	-5.39641E-002	9.73863E-002	3.57400E+000	9	...........
	124	1.66667	9.33974E-002	-8.87322E-005	0.00000E+000	-8.28735E-006	-5.39641E-002	9.34048E-002	3.57400E+000	9	...........
	125	1.68	8.94372E-002	-8.89176E-005	0.00000E+000	-7.95254E-006	-5.39641E-002	8.94484E-002	3.57400E+000	9	...........
	126	1.69333	8.55044E-002	-8.88051E-005	0.00000E+000	-7.59323E-006	-5.39641E-002	8.55161E-002	3.57400E+000	9	...........
	127	1.70667	8.16011E-002	-8.88426E-005	0.00000E+000	-7.24965E-006	-5.39641E-002	8.16094E-002	3.57400E+000	9	...........
	128	1.72	7.76963E-002	-8.86759E-005	0.00000E+000	-6.88979E-006	-5.39641E-002	7.77008E-002	3.57400E+000	9	...........
	129	1.73333	7.38217E-002	-8.88624E-005	0.00000E+000	-6.55997E-006	-5.39641E-002	7.38233E-002	3.57400E+000	9	...........
	130	1.74667	6.99671E-002	-8.89655E-005	0.00000E+000	-6.22466E-006	-5.39641E-002	6.99688E-002	3.57321E+000	9	...........
	131	1.76	6.61393E-002	-8.89259E-005	0.00000E+000	-5.88150E-006	-5.39641E-002	6.61382E-002	3.57310E+000	9	...........
	132	1.77333	6.23189E-002	-8.86842E-005	0.00000E+000	-5.52671E-006	-5.39641E-002	6.23165E-002	3.57310E+000	9	...........
	133	1.78667	5.85073E-002	-8.89916E-005	0.00000E+000	-5.20665E-006	-5.39641E-002	5.85081E-002	3.57310E+000	9	...........
	134	1.8	5.47251E-002	-8.84748E-005	0.00000E+000	-4.84179E-006	-5.39641E-002	5.47228E-002	3.57310E+000	9	...........
	135	1.81333	5.09463E-002	-8.87176E-005	0.00000E+000	-4.51983E-006	-5.39641E-002	5.09486E-002	3.57310E+000	9	...........
	136	1.82667	4.71957E-002	-8.87728E-005	0.00000E+000	-4.18970E-006	-5.39641E-002	4.72034E-002	3.57310E+000	9	...........
	137	1.84	4.34601E-002	-8.88186E-005	0.00000E+000	-3.86007E-006	-5.39641E-002	4.34721E-002	3.57310E+000	9	...........
	138	1.85333	3.97331E-002	-8.86405E-005	0.00000E+000	-3.52196E-006	-5.39641E-002	3.97418E-002	3.57310E+000	9	...........
	139	1.86667	3.60208E-002	-8.87488E-005	0.00000E+000	-3.19680E-006	-5.39641E-002	3.60273E-002	3.57310E+000	9	...........
	140	1.88	3.23254E-002	-8.87072E-005	0.00000E+000	-2.86749E-006	-5.39641E-002	3.23344E-002	3.57310E+000	9	...........
	141	1.89333	2.86583E-002	-8.88259E-005	0.00000E+000	-2.54560E-006	-5.39641E-002	2.86571E-002	3.57310E+000	9	...........
	142	1.90667	2.49951E-002	-8.88832E-005	0.00000E+000	-2.22165E-006	-5.39641E-002	2.49946E-002	3.57310E+000	9	...........
	143	1.92	2.13525E-002	-8.89134E-005	0.00000E+000	-1.89853E-006	-5.39641E-002	2.13473E-002	3.57310E+000	9	...........
	144	1.93333	1.77247E-002	-8.87165E-005	0.00000E+000	-1.57248E-006	-5.39641E-002	1.77149E-002	3.57310E+000	9	...........
	145	1.94667	1.41071E-002	-8.87113E-005	0.00000E+000	-1.25146E-006	-5.39641E-002	1.41012E-002	3.57310E+000	9	...........
	146	1.96	1.05083E-002	-8.87561E-005	0.00000E+000	-9.32675E-007	-5.39641E-002	1.04983E-002	3.57310E+000	9	...........
	147	1.97333	6.92831E-003	-8.90406E-005	0.00000E+000	-6.16901E-007	-5.39641E-002	6.91741E-003	3.57310E+000	9	...........
	148	1.98667	3.35984E-003	-8.88686E-005	0.00000E+000	-2.98585E-007	-5.39641E-002	3.34977E-003	3.57310E+000	9	...........
	149	1.995	4.91808E-004	-8.86148E-005	0.00000E+000	-4.35815E-008	-5.39641E-002	4.77549E-004	3.57310E+000	9	...........
STARTTIMEOFFSET	QUANT	2669.747	Start Time Offset (s)
