EXPLAIN
TAG	PWR800_DISCHARGE
TITLE	LABEL	PWR Cyclic Charge Discharge (Cell) - Discharge Step	Test &Identifier
DATE	LABEL	10-7-2017	Date
TIME	LABEL	15:13:07	Time
NOTES	NOTES	3	&Notes...
	supercap test cell
	0.9mg
	6M KOH
PSTAT	PSTAT	IFC5000-01520	Potentiostat
CAPACITY	QUANT	1.00000E-003	Capacity (A-hr)
CELLTYPE	SELECTOR	1	&Cell Type
WORKINGCONNECTION	SELECTOR	0	&Working Lead
MAXDISCHARGETIME	VARIABLEANDUNITS	1.00000E+002	s	1.00000E+002	second(s)	Max &Discharge Time
DISCHARGEMODE	MULTIPARAM	0	9.00000E-005	&Discharge Mode	Constant Current	Amp(s)
SAMPLETIME	QUANT	1.00000E-002	Sa&mple Period (s)
DISCHARGESTOPAT1	MULTIPARAM	3	0.00000E+000	Discharge Stop At &1	Voltage < Limit	V
DISCHARGESTOPAT2	MULTIPARAM	0	0.00000E+000	Discharge Stop At &2	None	N/A
AESBHCSELECTOR	TOGGLE	F	Save Both Half Cells
IRCOMP	TOGGLE	F	IR &Measure
EOC	QUANT	0	Open Circuit (V)
SEQUENCER	TOGGLE	TRUE	Run as Sequence
PSTATMODEL	IQUANT	53	Pstat Model
PSTATSECTION	LABEL	IFC5000-01520	Pstat Section
PSTATSERIALNO	LABEL	01520	Pstat Serial Number
CTRLMODE	IQUANT	0	Control Mode
ELECTROMETER	IQUANT	1	RE=0 or CS=1
IESTAB	IQUANT	0	I/E Stability
CASPEED	IQUANT	4	Control Amp Speed
CONVENTION	IQUANT	1	Current Convention
ICHRANGE	IQUANT	2	Ich Range
ICHRANGEMODE	TOGGLE	T	Ich Auto Range
ICHOFFSETENABLE	TOGGLE	F	Ich Offset Enable
ICHOFFSET	QUANT	0	Ich Offset (V)
ICHFILTER	IQUANT	1	Ich Filter
VCHRANGE	IQUANT	2	Vch Range
VCHRANGEMODE	TOGGLE	T	Vch Auto Range
VCHOFFSETENABLE	TOGGLE	F	Vch Offset Enable
VCHOFFSET	QUANT	0	Vch Offset (V)
VCHFILTER	IQUANT	1	Vch Filter
IERANGELOWERLIMIT	IQUANT	9	I/E Range Lower Limit
IERANGEMODE	TOGGLE	F	I/E AutoRange
IERANGE	IQUANT	9	I/E Range
ACHSELECT	IQUANT	1	Ach Select
ACHRANGE	IQUANT	2	Ach Range
ACHOFFSETENABLE	TOGGLE	F	Ach Offset Enable
ACHOFFSET	QUANT	0	Ach Offset (V)
ACHFILTER	IQUANT	1	Ach Filter
CABLEID	IQUANT	14	Cable ID
DCCALDATE	LABEL	5-7-2017	DC Calibration Date
ACCALDATE	LABEL	12/3/2015	AC Calibration Date
FRAMEWORKVERSION	QUANT	7.01	Framework Version
INSTRUMENTVERSION	LABEL	4.00	Instrument Version
CURVE	TABLE	162
	Pt	T	Vf	Im	Vu	Pwr	Sig	Ach	Temp	IERange	Over
	#	s	V	A	V	W	V	V	deg C	#	bits
	0	0.013333	8.32253E-001	-8.84665E-005	0.00000E+000	-7.36265E-005	-5.39641E-002	8.32397E-001	3.57170E+000	9	...........
	1	0.026667	8.20091E-001	-8.88332E-005	0.00000E+000	-7.28513E-005	-5.39641E-002	8.20206E-001	3.57170E+000	9	...........
	2	0.04	8.08649E-001	-8.87217E-005	0.00000E+000	-7.17448E-005	-5.39641E-002	8.08743E-001	3.57170E+000	9	...........
	3	0.053333	7.97756E-001	-8.88832E-005	0.00000E+000	-7.09072E-005	-5.39641E-002	7.97846E-001	3.57170E+000	9	...........
	4	0.066667	7.87302E-001	-8.88853E-005	0.00000E+000	-6.99796E-005	-5.39641E-002	7.87385E-001	3.57170E+000	9	...........
	5	0.08	7.77277E-001	-8.86832E-005	0.00000E+000	-6.89314E-005	-5.39641E-002	7.77381E-001	3.57170E+000	9	...........
	6	0.093333	7.67576E-001	-8.88041E-005	0.00000E+000	-6.81639E-005	-5.39641E-002	7.67671E-001	3.57170E+000	9	...........
	7	0.106667	7.58184E-001	-8.84769E-005	0.00000E+000	-6.70818E-005	-5.39641E-002	7.58259E-001	3.57170E+000	9	...........
	8	0.12	7.49068E-001	-8.87686E-005	0.00000E+000	-6.64938E-005	-5.39641E-002	7.49148E-001	3.57170E+000	9	...........
	9	0.133333	7.40219E-001	-8.85488E-005	0.00000E+000	-6.55455E-005	-5.39641E-002	7.40299E-001	3.57170E+000	9	...........
	10	0.146667	7.31577E-001	-8.85061E-005	0.00000E+000	-6.47490E-005	-5.39641E-002	7.31661E-001	3.57170E+000	9	...........
	11	0.16	7.23170E-001	-8.88030E-005	0.00000E+000	-6.42197E-005	-5.39641E-002	7.23235E-001	3.57170E+000	9	...........
	12	0.173333	7.14914E-001	-8.90051E-005	0.00000E+000	-6.36311E-005	-5.39641E-002	7.15013E-001	3.57170E+000	9	...........
	13	0.186667	7.06836E-001	-8.86894E-005	0.00000E+000	-6.26889E-005	-5.39641E-002	7.06959E-001	3.57170E+000	9	...........
	14	0.2	6.98957E-001	-8.86978E-005	0.00000E+000	-6.19960E-005	-5.39641E-002	6.99063E-001	3.57170E+000	9	...........
	15	0.213333	6.91252E-001	-8.85571E-005	0.00000E+000	-6.12153E-005	-5.39641E-002	6.91340E-001	3.57170E+000	9	...........
	16	0.226667	6.83677E-001	-8.85509E-005	0.00000E+000	-6.05402E-005	-5.39641E-002	6.83779E-001	3.57170E+000	9	...........
	17	0.24	6.76264E-001	-8.86686E-005	0.00000E+000	-5.99634E-005	-5.39641E-002	6.76345E-001	3.57170E+000	9	...........
	18	0.253333	6.68962E-001	-8.89426E-005	0.00000E+000	-5.94993E-005	-5.39641E-002	6.69054E-001	3.57170E+000	9	...........
	19	0.266667	6.61751E-001	-8.86936E-005	0.00000E+000	-5.86931E-005	-5.39641E-002	6.61863E-001	3.57170E+000	9	...........
	20	0.28	6.54700E-001	-8.88041E-005	0.00000E+000	-5.81400E-005	-5.39641E-002	6.54801E-001	3.57170E+000	9	...........
	21	0.293333	6.47757E-001	-8.87113E-005	0.00000E+000	-5.74634E-005	-5.39641E-002	6.47869E-001	3.57170E+000	9	...........
	22	0.306667	6.40893E-001	-8.87322E-005	0.00000E+000	-5.68678E-005	-5.39641E-002	6.41024E-001	3.57170E+000	9	...........
	23	0.32	6.34140E-001	-8.88478E-005	0.00000E+000	-5.63419E-005	-5.39641E-002	6.34263E-001	3.57170E+000	9	...........
	24	0.333333	6.27500E-001	-8.85946E-005	0.00000E+000	-5.55931E-005	-5.39641E-002	6.27622E-001	3.57170E+000	9	...........
	25	0.346667	6.20946E-001	-8.88186E-005	0.00000E+000	-5.51516E-005	-5.39641E-002	6.21056E-001	3.57170E+000	9	...........
	26	0.36	6.14422E-001	-8.86769E-005	0.00000E+000	-5.44851E-005	-5.39641E-002	6.14567E-001	3.57170E+000	9	...........
	27	0.373333	6.07984E-001	-8.86373E-005	0.00000E+000	-5.38901E-005	-5.39641E-002	6.08135E-001	3.57170E+000	9	...........
	28	0.386667	6.01681E-001	-8.85259E-005	0.00000E+000	-5.32644E-005	-5.39641E-002	6.01825E-001	3.57170E+000	9	...........
	29	0.4	5.95420E-001	-8.88353E-005	0.00000E+000	-5.28943E-005	-5.39641E-002	5.95552E-001	3.57170E+000	9	...........
	30	0.413333	5.89239E-001	-8.87697E-005	0.00000E+000	-5.23066E-005	-5.39641E-002	5.89352E-001	3.57170E+000	9	...........
	31	0.426667	5.83062E-001	-8.84894E-005	0.00000E+000	-5.15948E-005	-5.39641E-002	5.83196E-001	3.57170E+000	9	...........
	32	0.44	5.77000E-001	-8.88759E-005	0.00000E+000	-5.12814E-005	-5.39641E-002	5.77096E-001	3.57170E+000	9	...........
	33	0.453333	5.70962E-001	-8.87655E-005	0.00000E+000	-5.06818E-005	-5.39641E-002	5.71073E-001	3.57170E+000	9	...........
	34	0.466667	5.65018E-001	-8.86238E-005	0.00000E+000	-5.00740E-005	-5.39641E-002	5.65115E-001	3.57170E+000	9	...........
	35	0.48	5.59077E-001	-8.85029E-005	0.00000E+000	-4.94799E-005	-5.39641E-002	5.59174E-001	3.57170E+000	9	...........
	36	0.493333	5.53196E-001	-8.85592E-005	0.00000E+000	-4.89906E-005	-5.39641E-002	5.53304E-001	3.57170E+000	9	...........
	37	0.506667	5.47377E-001	-8.86905E-005	0.00000E+000	-4.85472E-005	-5.39641E-002	5.47490E-001	3.57170E+000	9	...........
	38	0.52	5.41643E-001	-8.87009E-005	0.00000E+000	-4.80442E-005	-5.39641E-002	5.41715E-001	3.57170E+000	9	...........
	39	0.533333	5.35876E-001	-8.86019E-005	0.00000E+000	-4.74796E-005	-5.39641E-002	5.35964E-001	3.57170E+000	9	...........
	40	0.546667	5.30206E-001	-8.86717E-005	0.00000E+000	-4.70143E-005	-5.39641E-002	5.30247E-001	3.57170E+000	9	...........
	41	0.56	5.24552E-001	-8.88905E-005	0.00000E+000	-4.66277E-005	-5.39641E-002	5.24607E-001	3.57170E+000	9	...........
	42	0.573333	5.18947E-001	-8.85248E-005	0.00000E+000	-4.59397E-005	-5.39641E-002	5.18999E-001	3.57170E+000	9	...........
	43	0.586667	5.13385E-001	-8.86446E-005	0.00000E+000	-4.55088E-005	-5.39641E-002	5.13439E-001	3.57170E+000	9	...........
	44	0.6	5.07779E-001	-8.88884E-005	0.00000E+000	-4.51357E-005	-5.39641E-002	5.07883E-001	3.57170E+000	9	...........
	45	0.613333	5.02243E-001	-8.87811E-005	0.00000E+000	-4.45897E-005	-5.39641E-002	5.02355E-001	3.57170E+000	9	...........
	46	0.626667	4.96806E-001	-8.86707E-005	0.00000E+000	-4.40522E-005	-5.39641E-002	4.96901E-001	3.57170E+000	9	...........
	47	0.64	4.91353E-001	-8.86415E-005	0.00000E+000	-4.35543E-005	-5.39641E-002	4.91413E-001	3.57170E+000	9	...........
	48	0.653333	4.85936E-001	-8.84884E-005	0.00000E+000	-4.29997E-005	-5.39641E-002	4.86016E-001	3.57170E+000	9	...........
	49	0.666667	4.80573E-001	-8.87478E-005	0.00000E+000	-4.26498E-005	-5.39641E-002	4.80626E-001	3.57170E+000	9	...........
	50	0.68	4.75190E-001	-8.86332E-005	0.00000E+000	-4.21176E-005	-5.39641E-002	4.75243E-001	3.57170E+000	9	...........
	51	0.693333	4.69819E-001	-8.87478E-005	0.00000E+000	-4.16954E-005	-5.39641E-002	4.69867E-001	3.57170E+000	9	...........
	52	0.706667	4.64473E-001	-8.87884E-005	0.00000E+000	-4.12398E-005	-5.39641E-002	4.64521E-001	3.57170E+000	9	...........
	53	0.72	4.59142E-001	-8.89114E-005	0.00000E+000	-4.08230E-005	-5.39641E-002	4.59196E-001	3.57170E+000	9	...........
	54	0.733333	4.53830E-001	-8.85550E-005	0.00000E+000	-4.01889E-005	-5.39641E-002	4.53884E-001	3.57170E+000	9	...........
	55	0.746667	4.48546E-001	-8.86342E-005	0.00000E+000	-3.97566E-005	-5.39641E-002	4.48599E-001	3.57170E+000	9	...........
	56	0.76	4.43268E-001	-8.88707E-005	0.00000E+000	-3.93935E-005	-5.39641E-002	4.43324E-001	3.57170E+000	9	...........
	57	0.773333	4.38014E-001	-8.86676E-005	0.00000E+000	-3.88377E-005	-5.39641E-002	4.38068E-001	3.57170E+000	9	...........
	58	0.786667	4.32784E-001	-8.85290E-005	0.00000E+000	-3.83140E-005	-5.39641E-002	4.32835E-001	3.57170E+000	9	...........
	59	0.8	4.27578E-001	-8.87051E-005	0.00000E+000	-3.79283E-005	-5.39641E-002	4.27629E-001	3.57170E+000	9	...........
	60	0.813333	4.22389E-001	-8.88134E-005	0.00000E+000	-3.75138E-005	-5.39641E-002	4.22438E-001	3.57170E+000	9	...........
	61	0.826667	4.17217E-001	-8.87874E-005	0.00000E+000	-3.70436E-005	-5.39641E-002	4.17275E-001	3.57170E+000	9	...........
	62	0.84	4.12085E-001	-8.88645E-005	0.00000E+000	-3.66197E-005	-5.39641E-002	4.12130E-001	3.57170E+000	9	...........
	63	0.853333	4.06968E-001	-8.89030E-005	0.00000E+000	-3.61807E-005	-5.39641E-002	4.07013E-001	3.57170E+000	9	...........
	64	0.866667	4.01871E-001	-8.85540E-005	0.00000E+000	-3.55873E-005	-5.39641E-002	4.01912E-001	3.57170E+000	9	...........
	65	0.88	3.96798E-001	-8.88822E-005	0.00000E+000	-3.52683E-005	-5.39641E-002	3.96840E-001	3.57170E+000	9	...........
	66	0.893333	3.91747E-001	-8.85384E-005	0.00000E+000	-3.46846E-005	-5.39641E-002	3.91785E-001	3.57170E+000	9	...........
	67	0.906667	3.86704E-001	-8.87645E-005	0.00000E+000	-3.43256E-005	-5.39641E-002	3.86739E-001	3.57170E+000	9	...........
	68	0.92	3.81676E-001	-8.86301E-005	0.00000E+000	-3.38280E-005	-5.39641E-002	3.81715E-001	3.57187E+000	9	...........
	69	0.933333	3.76673E-001	-8.85634E-005	0.00000E+000	-3.33594E-005	-5.39641E-002	3.76712E-001	3.57310E+000	9	...........
	70	0.946667	3.71679E-001	-8.87603E-005	0.00000E+000	-3.29904E-005	-5.39641E-002	3.71720E-001	3.57310E+000	9	...........
	71	0.96	3.66712E-001	-8.86926E-005	0.00000E+000	-3.25246E-005	-5.39641E-002	3.66753E-001	3.57310E+000	9	...........
	72	0.97333	3.61756E-001	-8.87467E-005	0.00000E+000	-3.21046E-005	-5.39641E-002	3.61788E-001	3.57310E+000	9	...........
	73	0.98667	3.56823E-001	-8.87728E-005	0.00000E+000	-3.16762E-005	-5.39641E-002	3.56860E-001	3.57310E+000	9	...........
	74	1	3.51902E-001	-8.87915E-005	0.00000E+000	-3.12459E-005	-5.39641E-002	3.51938E-001	3.57310E+000	9	...........
	75	1.01333	3.46998E-001	-8.86551E-005	0.00000E+000	-3.07631E-005	-5.39641E-002	3.47033E-001	3.57310E+000	9	...........
	76	1.02667	3.42147E-001	-8.86436E-005	0.00000E+000	-3.03292E-005	-5.39641E-002	3.42185E-001	3.57310E+000	9	...........
	77	1.04	3.37318E-001	-8.85634E-005	0.00000E+000	-2.98740E-005	-5.39641E-002	3.37347E-001	3.57310E+000	9	...........
	78	1.05333	3.32500E-001	-8.84363E-005	0.00000E+000	-2.94050E-005	-5.39641E-002	3.32535E-001	3.57310E+000	9	...........
	79	1.06667	3.27696E-001	-8.87342E-005	0.00000E+000	-2.90779E-005	-5.39641E-002	3.27731E-001	3.57310E+000	9	...........
	80	1.08	3.22912E-001	-8.85509E-005	0.00000E+000	-2.85942E-005	-5.39641E-002	3.22947E-001	3.57310E+000	9	...........
	81	1.09333	3.18145E-001	-8.88530E-005	0.00000E+000	-2.82682E-005	-5.39641E-002	3.18182E-001	3.57310E+000	9	...........
	82	1.10667	3.13411E-001	-8.88780E-005	0.00000E+000	-2.78553E-005	-5.39641E-002	3.13448E-001	3.57310E+000	9	...........
	83	1.12	3.08699E-001	-8.87905E-005	0.00000E+000	-2.74095E-005	-5.39641E-002	3.08733E-001	3.57310E+000	9	...........
	84	1.13333	3.04021E-001	-8.85071E-005	0.00000E+000	-2.69080E-005	-5.39641E-002	3.04058E-001	3.57310E+000	9	...........
	85	1.14667	2.99361E-001	-8.87061E-005	0.00000E+000	-2.65551E-005	-5.39641E-002	2.99391E-001	3.57310E+000	9	...........
	86	1.16	2.94726E-001	-8.88468E-005	0.00000E+000	-2.61855E-005	-5.39641E-002	2.94759E-001	3.57310E+000	9	...........
	87	1.17333	2.90102E-001	-8.85884E-005	0.00000E+000	-2.56997E-005	-5.39641E-002	2.90131E-001	3.57310E+000	9	...........
	88	1.18667	2.85492E-001	-8.86436E-005	0.00000E+000	-2.53070E-005	-5.39641E-002	2.85526E-001	3.57310E+000	9	...........
	89	1.2	2.80912E-001	-8.84571E-005	0.00000E+000	-2.48487E-005	-5.39641E-002	2.80946E-001	3.57310E+000	9	...........
	90	1.21333	2.76362E-001	-8.87040E-005	0.00000E+000	-2.45145E-005	-5.39641E-002	2.76389E-001	3.57310E+000	9	...........
	91	1.22667	2.71837E-001	-8.85477E-005	0.00000E+000	-2.40706E-005	-5.39641E-002	2.71861E-001	3.57310E+000	9	...........
	92	1.24	2.67330E-001	-8.87176E-005	0.00000E+000	-2.37169E-005	-5.39641E-002	2.67361E-001	3.57310E+000	9	...........
	93	1.25333	2.62846E-001	-8.88666E-005	0.00000E+000	-2.33583E-005	-5.39641E-002	2.62879E-001	3.57310E+000	9	...........
	94	1.26667	2.58369E-001	-8.86749E-005	0.00000E+000	-2.29108E-005	-5.39641E-002	2.58395E-001	3.57310E+000	9	...........
	95	1.28	2.53913E-001	-8.86603E-005	0.00000E+000	-2.25120E-005	-5.39641E-002	2.53943E-001	3.57310E+000	9	...........
	96	1.29333	2.49496E-001	-8.85675E-005	0.00000E+000	-2.20972E-005	-5.39641E-002	2.49526E-001	3.57310E+000	9	...........
	97	1.30667	2.45085E-001	-8.86071E-005	0.00000E+000	-2.17163E-005	-5.39641E-002	2.45111E-001	3.57310E+000	9	...........
	98	1.32	2.40701E-001	-8.88822E-005	0.00000E+000	-2.13941E-005	-5.39641E-002	2.40723E-001	3.57310E+000	9	...........
	99	1.33333	2.36339E-001	-8.85509E-005	0.00000E+000	-2.09280E-005	-5.39641E-002	2.36359E-001	3.57310E+000	9	...........
	100	1.34667	2.31987E-001	-8.86655E-005	0.00000E+000	-2.05692E-005	-5.39641E-002	2.32010E-001	3.57310E+000	9	...........
	101	1.36	2.27667E-001	-8.88155E-005	0.00000E+000	-2.02203E-005	-5.39641E-002	2.27686E-001	3.57310E+000	9	...........
	102	1.37333	2.23352E-001	-8.85894E-005	0.00000E+000	-1.97867E-005	-5.39641E-002	2.23378E-001	3.57310E+000	9	...........
	103	1.38667	2.19089E-001	-8.87197E-005	0.00000E+000	-1.94375E-005	-5.39641E-002	2.19108E-001	3.57310E+000	9	...........
	104	1.4	2.14863E-001	-8.85759E-005	0.00000E+000	-1.90317E-005	-5.39641E-002	2.14878E-001	3.57310E+000	9	...........
	105	1.41333	2.10649E-001	-8.87092E-005	0.00000E+000	-1.86865E-005	-5.39641E-002	2.10667E-001	3.57310E+000	9	...........
	106	1.42667	2.06448E-001	-8.87822E-005	0.00000E+000	-1.83289E-005	-5.39641E-002	2.06465E-001	3.57310E+000	9	...........
	107	1.44	2.02256E-001	-8.88624E-005	0.00000E+000	-1.79729E-005	-5.39641E-002	2.02270E-001	3.57310E+000	9	...........
	108	1.45333	1.98100E-001	-8.85759E-005	0.00000E+000	-1.75469E-005	-5.39641E-002	1.98114E-001	3.57310E+000	9	...........
	109	1.46667	1.93945E-001	-8.86936E-005	0.00000E+000	-1.72017E-005	-5.39641E-002	1.93962E-001	3.57310E+000	9	...........
	110	1.48	1.89816E-001	-8.87624E-005	0.00000E+000	-1.68485E-005	-5.39641E-002	1.89834E-001	3.57310E+000	9	...........
	111	1.49333	1.85691E-001	-8.87853E-005	0.00000E+000	-1.64867E-005	-5.39641E-002	1.85707E-001	3.57310E+000	9	...........
	112	1.50667	1.81577E-001	-8.86728E-005	0.00000E+000	-1.61009E-005	-5.39641E-002	1.81591E-001	3.57310E+000	9	...........
	113	1.52	1.77484E-001	-8.83946E-005	0.00000E+000	-1.56887E-005	-5.39641E-002	1.77505E-001	3.57310E+000	9	...........
	114	1.53333	1.73401E-001	-8.86822E-005	0.00000E+000	-1.53776E-005	-5.39641E-002	1.73418E-001	3.57310E+000	9	...........
	115	1.54667	1.69351E-001	-8.87092E-005	0.00000E+000	-1.50230E-005	-5.39641E-002	1.69362E-001	3.57310E+000	9	...........
	116	1.56	1.65304E-001	-8.88957E-005	0.00000E+000	-1.46948E-005	-5.39641E-002	1.65317E-001	3.57310E+000	9	...........
	117	1.57333	1.61276E-001	-8.87363E-005	0.00000E+000	-1.43110E-005	-5.39641E-002	1.61289E-001	3.57310E+000	9	...........
	118	1.58667	1.57289E-001	-8.86217E-005	0.00000E+000	-1.39392E-005	-5.39641E-002	1.57300E-001	3.57310E+000	9	...........
	119	1.6	1.53295E-001	-8.88291E-005	0.00000E+000	-1.36170E-005	-5.39641E-002	1.53307E-001	3.57310E+000	9	...........
	120	1.61333	1.49312E-001	-8.87363E-005	0.00000E+000	-1.32494E-005	-5.39641E-002	1.49318E-001	3.57310E+000	9	...........
	121	1.62667	1.45342E-001	-8.87207E-005	0.00000E+000	-1.28949E-005	-5.39641E-002	1.45353E-001	3.57310E+000	9	...........
	122	1.64	1.41392E-001	-8.85154E-005	0.00000E+000	-1.25154E-005	-5.39641E-002	1.41403E-001	3.57310E+000	9	...........
	123	1.65333	1.37440E-001	-8.85530E-005	0.00000E+000	-1.21707E-005	-5.39641E-002	1.37454E-001	3.57310E+000	9	...........
	124	1.66667	1.33515E-001	-8.85530E-005	0.00000E+000	-1.18231E-005	-5.39641E-002	1.33530E-001	3.57310E+000	9	...........
	125	1.68	1.29608E-001	-8.86957E-005	0.00000E+000	-1.14957E-005	-5.39641E-002	1.29624E-001	3.57310E+000	9	...........
	126	1.69333	1.25717E-001	-8.86707E-005	0.00000E+000	-1.11474E-005	-5.39641E-002	1.25729E-001	3.57310E+000	9	...........
	127	1.70667	1.21823E-001	-8.87395E-005	0.00000E+000	-1.08105E-005	-5.39641E-002	1.21832E-001	3.57310E+000	9	...........
	128	1.72	1.17935E-001	-8.87509E-005	0.00000E+000	-1.04668E-005	-5.39641E-002	1.17944E-001	3.57310E+000	9	...........
	129	1.73333	1.14070E-001	-8.86665E-005	0.00000E+000	-1.01142E-005	-5.39641E-002	1.14078E-001	3.57310E+000	9	...........
	130	1.74667	1.10232E-001	-8.87530E-005	0.00000E+000	-9.78342E-006	-5.39641E-002	1.10243E-001	3.57310E+000	9	...........
	131	1.76	1.06429E-001	-8.88780E-005	0.00000E+000	-9.45917E-006	-5.39641E-002	1.06436E-001	3.57310E+000	9	...........
	132	1.77333	1.02612E-001	-8.84331E-005	0.00000E+000	-9.07433E-006	-5.39641E-002	1.02622E-001	3.57310E+000	9	...........
	133	1.78667	9.88168E-002	-8.88426E-005	0.00000E+000	-8.77914E-006	-5.39641E-002	9.88283E-002	3.57310E+000	9	...........
	134	1.8	9.50469E-002	-8.87384E-005	0.00000E+000	-8.43431E-006	-5.39641E-002	9.50526E-002	3.57310E+000	9	...........
	135	1.81333	9.13019E-002	-8.86530E-005	0.00000E+000	-8.09418E-006	-5.39641E-002	9.13113E-002	3.57310E+000	9	...........
	136	1.82667	8.75667E-002	-8.86082E-005	0.00000E+000	-7.75913E-006	-5.39641E-002	8.75784E-002	3.57310E+000	9	...........
	137	1.84	8.38470E-002	-8.88113E-005	0.00000E+000	-7.44656E-006	-5.39641E-002	8.38586E-002	3.57310E+000	9	...........
	138	1.85333	8.01398E-002	-8.87061E-005	0.00000E+000	-7.10889E-006	-5.39641E-002	8.01397E-002	3.57310E+000	9	...........
	139	1.86667	7.64235E-002	-8.85477E-005	0.00000E+000	-6.76712E-006	-5.39641E-002	7.64284E-002	3.57310E+000	9	...........
	140	1.88	7.27281E-002	-8.85759E-005	0.00000E+000	-6.44195E-006	-5.39641E-002	7.27276E-002	3.57310E+000	9	...........
	141	1.89333	6.90599E-002	-8.87072E-005	0.00000E+000	-6.12610E-006	-5.39641E-002	6.90579E-002	3.57310E+000	9	...........
	142	1.90667	6.54088E-002	-8.86134E-005	0.00000E+000	-5.79609E-006	-5.39641E-002	6.54132E-002	3.57310E+000	9	...........
	143	1.92	6.17599E-002	-8.88572E-005	0.00000E+000	-5.48781E-006	-5.39641E-002	6.17630E-002	3.57297E+000	9	...........
	144	1.93333	5.81339E-002	-8.87155E-005	0.00000E+000	-5.15738E-006	-5.39641E-002	5.81406E-002	3.57210E+000	9	...........
	145	1.94667	5.45328E-002	-8.87676E-005	0.00000E+000	-4.84075E-006	-5.39641E-002	5.45319E-002	3.57210E+000	9	...........
	146	1.96	5.09417E-002	-8.86592E-005	0.00000E+000	-4.51645E-006	-5.39641E-002	5.09477E-002	3.57210E+000	9	...........
	147	1.97333	4.73799E-002	-8.88999E-005	0.00000E+000	-4.21207E-006	-5.39641E-002	4.73874E-002	3.57210E+000	9	...........
	148	1.98667	4.38270E-002	-8.85082E-005	0.00000E+000	-3.87905E-006	-5.39641E-002	4.38365E-002	3.57210E+000	9	...........
	149	2	4.02803E-002	-8.90833E-005	0.00000E+000	-3.58830E-006	-5.39641E-002	4.02859E-002	3.57210E+000	9	...........
	150	2.01333	3.67500E-002	-8.87593E-005	0.00000E+000	-3.26190E-006	-5.39641E-002	3.67570E-002	3.57210E+000	9	...........
	151	2.02667	3.32408E-002	-8.84613E-005	0.00000E+000	-2.94053E-006	-5.39641E-002	3.32446E-002	3.57210E+000	9	...........
	152	2.04	2.97464E-002	-8.88405E-005	0.00000E+000	-2.64268E-006	-5.39641E-002	2.97473E-002	3.57210E+000	9	...........
	153	2.05333	2.62577E-002	-8.85477E-005	0.00000E+000	-2.32506E-006	-5.39641E-002	2.62614E-002	3.57210E+000	9	...........
	154	2.06667	2.27970E-002	-8.86040E-005	0.00000E+000	-2.01990E-006	-5.39641E-002	2.27914E-002	3.57210E+000	9	...........
	155	2.08	1.93373E-002	-8.87488E-005	0.00000E+000	-1.71616E-006	-5.39641E-002	1.93386E-002	3.57210E+000	9	...........
	156	2.09333	1.59191E-002	-8.86561E-005	0.00000E+000	-1.41132E-006	-5.39641E-002	1.59099E-002	3.57210E+000	9	...........
	157	2.10667	1.25161E-002	-8.86738E-005	0.00000E+000	-1.10985E-006	-5.39641E-002	1.25177E-002	3.57210E+000	9	...........
	158	2.12	9.13279E-003	-8.85707E-005	0.00000E+000	-8.08898E-007	-5.39641E-002	9.12166E-003	3.57210E+000	9	...........
	159	2.13333	5.76143E-003	-8.87936E-005	0.00000E+000	-5.11578E-007	-5.39641E-002	5.74985E-003	3.57210E+000	9	...........
	160	2.14667	2.40533E-003	-8.87322E-005	0.00000E+000	-2.13430E-007	-5.39641E-002	2.39503E-003	3.57210E+000	9	...........
	161	2.15167	1.10220E-004	-8.90472E-005	0.00000E+000	-9.81482E-009	-5.39641E-002	9.35084E-005	3.57210E+000	9	...........
STARTTIMEOFFSET	QUANT	704.8383	Start Time Offset (s)
