EXPLAIN
TAG	PWR800_DISCHARGE
TITLE	LABEL	PWR Cyclic Charge Discharge (Cell) - Discharge Step	Test &Identifier
DATE	LABEL	10-7-2017	Date
TIME	LABEL	15:10:19	Time
NOTES	NOTES	3	&Notes...
	supercap test cell
	0.9mg
	6M KOH
PSTAT	PSTAT	IFC5000-01520	Potentiostat
CAPACITY	QUANT	1.00000E-003	Capacity (A-hr)
CELLTYPE	SELECTOR	1	&Cell Type
WORKINGCONNECTION	SELECTOR	0	&Working Lead
MAXDISCHARGETIME	VARIABLEANDUNITS	1.00000E+002	s	1.00000E+002	second(s)	Max &Discharge Time
DISCHARGEMODE	MULTIPARAM	0	9.00000E-005	&Discharge Mode	Constant Current	Amp(s)
SAMPLETIME	QUANT	1.00000E-002	Sa&mple Period (s)
DISCHARGESTOPAT1	MULTIPARAM	3	0.00000E+000	Discharge Stop At &1	Voltage < Limit	V
DISCHARGESTOPAT2	MULTIPARAM	0	0.00000E+000	Discharge Stop At &2	None	N/A
AESBHCSELECTOR	TOGGLE	F	Save Both Half Cells
IRCOMP	TOGGLE	F	IR &Measure
EOC	QUANT	0	Open Circuit (V)
SEQUENCER	TOGGLE	TRUE	Run as Sequence
PSTATMODEL	IQUANT	53	Pstat Model
PSTATSECTION	LABEL	IFC5000-01520	Pstat Section
PSTATSERIALNO	LABEL	01520	Pstat Serial Number
CTRLMODE	IQUANT	0	Control Mode
ELECTROMETER	IQUANT	1	RE=0 or CS=1
IESTAB	IQUANT	0	I/E Stability
CASPEED	IQUANT	4	Control Amp Speed
CONVENTION	IQUANT	1	Current Convention
ICHRANGE	IQUANT	2	Ich Range
ICHRANGEMODE	TOGGLE	T	Ich Auto Range
ICHOFFSETENABLE	TOGGLE	F	Ich Offset Enable
ICHOFFSET	QUANT	0	Ich Offset (V)
ICHFILTER	IQUANT	1	Ich Filter
VCHRANGE	IQUANT	2	Vch Range
VCHRANGEMODE	TOGGLE	T	Vch Auto Range
VCHOFFSETENABLE	TOGGLE	F	Vch Offset Enable
VCHOFFSET	QUANT	0	Vch Offset (V)
VCHFILTER	IQUANT	1	Vch Filter
IERANGELOWERLIMIT	IQUANT	9	I/E Range Lower Limit
IERANGEMODE	TOGGLE	F	I/E AutoRange
IERANGE	IQUANT	9	I/E Range
ACHSELECT	IQUANT	1	Ach Select
ACHRANGE	IQUANT	2	Ach Range
ACHOFFSETENABLE	TOGGLE	F	Ach Offset Enable
ACHOFFSET	QUANT	0	Ach Offset (V)
ACHFILTER	IQUANT	1	Ach Filter
CABLEID	IQUANT	14	Cable ID
DCCALDATE	LABEL	5-7-2017	DC Calibration Date
ACCALDATE	LABEL	12/3/2015	AC Calibration Date
FRAMEWORKVERSION	QUANT	7.01	Framework Version
INSTRUMENTVERSION	LABEL	4.00	Instrument Version
CURVE	TABLE	164
	Pt	T	Vf	Im	Vu	Pwr	Sig	Ach	Temp	IERange	Over
	#	s	V	A	V	W	V	V	deg C	#	bits
	0	0.013333	8.37879E-001	-8.86676E-005	0.00000E+000	-7.42926E-005	-5.39641E-002	8.38061E-001	3.57240E+000	9	...........
	1	0.026667	8.25982E-001	-8.86842E-005	0.00000E+000	-7.32516E-005	-5.39641E-002	8.26145E-001	3.57240E+000	9	...........
	2	0.04	8.14713E-001	-8.85613E-005	0.00000E+000	-7.21520E-005	-5.39641E-002	8.14872E-001	3.57240E+000	9	...........
	3	0.053333	8.04024E-001	-8.86842E-005	0.00000E+000	-7.13042E-005	-5.39641E-002	8.04165E-001	3.57240E+000	9	...........
	4	0.066667	7.93782E-001	-8.87342E-005	0.00000E+000	-7.04357E-005	-5.39641E-002	7.93896E-001	3.57240E+000	9	...........
	5	0.08	7.83861E-001	-8.84884E-005	0.00000E+000	-6.93626E-005	-5.39641E-002	7.83981E-001	3.57240E+000	9	...........
	6	0.093333	7.74285E-001	-8.86926E-005	0.00000E+000	-6.86733E-005	-5.39641E-002	7.74414E-001	3.57240E+000	9	...........
	7	0.106667	7.65023E-001	-8.87072E-005	0.00000E+000	-6.78630E-005	-5.39641E-002	7.65116E-001	3.57240E+000	9	...........
	8	0.12	7.56021E-001	-8.87592E-005	0.00000E+000	-6.71038E-005	-5.39641E-002	7.56094E-001	3.57240E+000	9	...........
	9	0.133333	7.47261E-001	-8.88457E-005	0.00000E+000	-6.63910E-005	-5.39641E-002	7.47344E-001	3.57240E+000	9	...........
	10	0.146667	7.38702E-001	-8.86644E-005	0.00000E+000	-6.54966E-005	-5.39641E-002	7.38811E-001	3.57240E+000	9	...........
	11	0.16	7.30361E-001	-8.86853E-005	0.00000E+000	-6.47723E-005	-5.39641E-002	7.30460E-001	3.57240E+000	9	...........
	12	0.173333	7.22233E-001	-8.85821E-005	0.00000E+000	-6.39770E-005	-5.39641E-002	7.22323E-001	3.57240E+000	9	...........
	13	0.186667	7.14224E-001	-8.86801E-005	0.00000E+000	-6.33374E-005	-5.39641E-002	7.14319E-001	3.57240E+000	9	...........
	14	0.2	7.06404E-001	-8.88030E-005	0.00000E+000	-6.27308E-005	-5.39641E-002	7.06522E-001	3.57240E+000	9	...........
	15	0.213333	6.98740E-001	-8.87686E-005	0.00000E+000	-6.20262E-005	-5.39641E-002	6.98834E-001	3.57240E+000	9	...........
	16	0.226667	6.91219E-001	-8.85071E-005	0.00000E+000	-6.11778E-005	-5.39641E-002	6.91312E-001	3.57240E+000	9	...........
	17	0.24	6.83830E-001	-8.86707E-005	0.00000E+000	-6.06357E-005	-5.39641E-002	6.83933E-001	3.57240E+000	9	...........
	18	0.253333	6.76593E-001	-8.87051E-005	0.00000E+000	-6.00172E-005	-5.39641E-002	6.76695E-001	3.57240E+000	9	...........
	19	0.266667	6.69469E-001	-8.86686E-005	0.00000E+000	-5.93609E-005	-5.39641E-002	6.69537E-001	3.57240E+000	9	...........
	20	0.28	6.62411E-001	-8.85457E-005	0.00000E+000	-5.86536E-005	-5.39641E-002	6.62500E-001	3.57240E+000	9	...........
	21	0.293333	6.55512E-001	-8.86363E-005	0.00000E+000	-5.81022E-005	-5.39641E-002	6.55608E-001	3.57240E+000	9	...........
	22	0.306667	6.48694E-001	-8.86165E-005	0.00000E+000	-5.74850E-005	-5.39641E-002	6.48816E-001	3.57240E+000	9	...........
	23	0.32	6.42001E-001	-8.86592E-005	0.00000E+000	-5.69193E-005	-5.39641E-002	6.42104E-001	3.57240E+000	9	...........
	24	0.333333	6.35346E-001	-8.85467E-005	0.00000E+000	-5.62578E-005	-5.39641E-002	6.35449E-001	3.57191E+000	9	...........
	25	0.346667	6.28816E-001	-8.87905E-005	0.00000E+000	-5.58329E-005	-5.39641E-002	6.28913E-001	3.57170E+000	9	...........
	26	0.36	6.22356E-001	-8.87165E-005	0.00000E+000	-5.52133E-005	-5.39641E-002	6.22436E-001	3.57170E+000	9	...........
	27	0.373333	6.15952E-001	-8.85457E-005	0.00000E+000	-5.45398E-005	-5.39641E-002	6.16053E-001	3.57170E+000	9	...........
	28	0.386667	6.09598E-001	-8.84383E-005	0.00000E+000	-5.39118E-005	-5.39641E-002	6.09707E-001	3.57170E+000	9	...........
	29	0.4	6.03333E-001	-8.86717E-005	0.00000E+000	-5.34986E-005	-5.39641E-002	6.03468E-001	3.57170E+000	9	...........
	30	0.413333	5.97170E-001	-8.85123E-005	0.00000E+000	-5.28569E-005	-5.39641E-002	5.97287E-001	3.57170E+000	9	...........
	31	0.426667	5.91071E-001	-8.85498E-005	0.00000E+000	-5.23392E-005	-5.39641E-002	5.91162E-001	3.57170E+000	9	...........
	32	0.44	5.84966E-001	-8.88447E-005	0.00000E+000	-5.19712E-005	-5.39641E-002	5.85077E-001	3.57170E+000	9	...........
	33	0.453333	5.78973E-001	-8.86353E-005	0.00000E+000	-5.13174E-005	-5.39641E-002	5.79067E-001	3.57170E+000	9	...........
	34	0.466667	5.73027E-001	-8.86655E-005	0.00000E+000	-5.08077E-005	-5.39641E-002	5.73101E-001	3.57170E+000	9	...........
	35	0.48	5.67129E-001	-8.87915E-005	0.00000E+000	-5.03562E-005	-5.39641E-002	5.67207E-001	3.57170E+000	9	...........
	36	0.493333	5.61236E-001	-8.87645E-005	0.00000E+000	-4.98178E-005	-5.39641E-002	5.61316E-001	3.57170E+000	9	...........
	37	0.506667	5.55407E-001	-8.85863E-005	0.00000E+000	-4.92014E-005	-5.39641E-002	5.55489E-001	3.57170E+000	9	...........
	38	0.52	5.49641E-001	-8.86613E-005	0.00000E+000	-4.87319E-005	-5.39641E-002	5.49707E-001	3.57170E+000	9	...........
	39	0.533333	5.43901E-001	-8.87905E-005	0.00000E+000	-4.82933E-005	-5.39641E-002	5.43931E-001	3.57170E+000	9	...........
	40	0.546667	5.38222E-001	-8.84811E-005	0.00000E+000	-4.76224E-005	-5.39641E-002	5.38240E-001	3.57170E+000	9	...........
	41	0.56	5.32522E-001	-8.85425E-005	0.00000E+000	-4.71508E-005	-5.39641E-002	5.32577E-001	3.57170E+000	9	...........
	42	0.573333	5.26911E-001	-8.86811E-005	0.00000E+000	-4.67271E-005	-5.39641E-002	5.26957E-001	3.57170E+000	9	...........
	43	0.586667	5.21337E-001	-8.85373E-005	0.00000E+000	-4.61578E-005	-5.39641E-002	5.21371E-001	3.57170E+000	9	...........
	44	0.6	5.15787E-001	-8.88259E-005	0.00000E+000	-4.58153E-005	-5.39641E-002	5.15824E-001	3.57170E+000	9	...........
	45	0.613333	5.10230E-001	-8.85634E-005	0.00000E+000	-4.51877E-005	-5.39641E-002	5.10308E-001	3.57170E+000	9	...........
	46	0.626667	5.04733E-001	-8.87113E-005	0.00000E+000	-4.47755E-005	-5.39641E-002	5.04839E-001	3.57170E+000	9	...........
	47	0.64	4.99301E-001	-8.87353E-005	0.00000E+000	-4.43056E-005	-5.39641E-002	4.99394E-001	3.57170E+000	9	...........
	48	0.653333	4.93898E-001	-8.85790E-005	0.00000E+000	-4.37490E-005	-5.39641E-002	4.93990E-001	3.57170E+000	9	...........
	49	0.666667	4.88463E-001	-8.85925E-005	0.00000E+000	-4.32742E-005	-5.39641E-002	4.88568E-001	3.57170E+000	9	...........
	50	0.68	4.83128E-001	-8.83967E-005	0.00000E+000	-4.27069E-005	-5.39641E-002	4.83177E-001	3.57170E+000	9	...........
	51	0.693333	4.77751E-001	-8.85759E-005	0.00000E+000	-4.23172E-005	-5.39641E-002	4.77811E-001	3.57170E+000	9	...........
	52	0.706667	4.72387E-001	-8.86082E-005	0.00000E+000	-4.18574E-005	-5.39641E-002	4.72442E-001	3.57170E+000	9	...........
	53	0.72	4.67045E-001	-8.87665E-005	0.00000E+000	-4.14580E-005	-5.39641E-002	4.67096E-001	3.57170E+000	9	...........
	54	0.733333	4.61731E-001	-8.88041E-005	0.00000E+000	-4.10036E-005	-5.39641E-002	4.61789E-001	3.57170E+000	9	...........
	55	0.746667	4.56439E-001	-8.84258E-005	0.00000E+000	-4.03610E-005	-5.39641E-002	4.56494E-001	3.57170E+000	9	...........
	56	0.76	4.51162E-001	-8.83998E-005	0.00000E+000	-3.98826E-005	-5.39641E-002	4.51212E-001	3.57170E+000	9	...........
	57	0.773333	4.45908E-001	-8.86030E-005	0.00000E+000	-3.95087E-005	-5.39641E-002	4.45960E-001	3.57170E+000	9	...........
	58	0.786667	4.40675E-001	-8.86571E-005	0.00000E+000	-3.90689E-005	-5.39641E-002	4.40725E-001	3.57170E+000	9	...........
	59	0.8	4.35474E-001	-8.87676E-005	0.00000E+000	-3.86560E-005	-5.39641E-002	4.35521E-001	3.57170E+000	9	...........
	60	0.813333	4.30292E-001	-8.88061E-005	0.00000E+000	-3.82126E-005	-5.39641E-002	4.30337E-001	3.57170E+000	9	...........
	61	0.826667	4.25126E-001	-8.89009E-005	0.00000E+000	-3.77941E-005	-5.39641E-002	4.25174E-001	3.57170E+000	9	...........
	62	0.84	4.19988E-001	-8.86405E-005	0.00000E+000	-3.72279E-005	-5.39641E-002	4.20033E-001	3.57170E+000	9	...........
	63	0.853333	4.14875E-001	-8.88082E-005	0.00000E+000	-3.68443E-005	-5.39641E-002	4.14922E-001	3.57170E+000	9	...........
	64	0.866667	4.09780E-001	-8.84925E-005	0.00000E+000	-3.62625E-005	-5.39641E-002	4.09821E-001	3.57170E+000	9	...........
	65	0.88	4.04698E-001	-8.86665E-005	0.00000E+000	-3.58832E-005	-5.39641E-002	4.04737E-001	3.57170E+000	9	...........
	66	0.893333	3.99636E-001	-8.87853E-005	0.00000E+000	-3.54818E-005	-5.39641E-002	3.99675E-001	3.57170E+000	9	...........
	67	0.906667	3.94598E-001	-8.87905E-005	0.00000E+000	-3.50366E-005	-5.39641E-002	3.94635E-001	3.57170E+000	9	...........
	68	0.92	3.89568E-001	-8.88853E-005	0.00000E+000	-3.46269E-005	-5.39641E-002	3.89602E-001	3.57170E+000	9	...........
	69	0.933333	3.84570E-001	-8.86947E-005	0.00000E+000	-3.41093E-005	-5.39641E-002	3.84605E-001	3.57170E+000	9	...........
	70	0.946667	3.79592E-001	-8.86394E-005	0.00000E+000	-3.36468E-005	-5.39641E-002	3.79637E-001	3.57170E+000	9	...........
	71	0.96	3.74639E-001	-8.86040E-005	0.00000E+000	-3.31945E-005	-5.39641E-002	3.74673E-001	3.57170E+000	9	...........
	72	0.97333	3.69687E-001	-8.88832E-005	0.00000E+000	-3.28590E-005	-5.39641E-002	3.69724E-001	3.57170E+000	9	...........
	73	0.98667	3.64770E-001	-8.85759E-005	0.00000E+000	-3.23099E-005	-5.39641E-002	3.64815E-001	3.57170E+000	9	...........
	74	1	3.59884E-001	-8.85102E-005	0.00000E+000	-3.18534E-005	-5.39641E-002	3.59922E-001	3.57170E+000	9	...........
	75	1.01333	3.54991E-001	-8.86947E-005	0.00000E+000	-3.14858E-005	-5.39641E-002	3.55028E-001	3.57170E+000	9	...........
	76	1.02667	3.50136E-001	-8.89207E-005	0.00000E+000	-3.11344E-005	-5.39641E-002	3.50172E-001	3.57170E+000	9	...........
	77	1.04	3.45306E-001	-8.86530E-005	0.00000E+000	-3.06124E-005	-5.39641E-002	3.45338E-001	3.57170E+000	9	...........
	78	1.05333	3.40498E-001	-8.86655E-005	0.00000E+000	-3.01904E-005	-5.39641E-002	3.40537E-001	3.57170E+000	9	...........
	79	1.06667	3.35713E-001	-8.85748E-005	0.00000E+000	-2.97357E-005	-5.39641E-002	3.35753E-001	3.57170E+000	9	...........
	80	1.08	3.30959E-001	-8.86936E-005	0.00000E+000	-2.93539E-005	-5.39641E-002	3.30995E-001	3.57170E+000	9	...........
	81	1.09333	3.26228E-001	-8.86061E-005	0.00000E+000	-2.89057E-005	-5.39641E-002	3.26259E-001	3.57170E+000	9	...........
	82	1.10667	3.21510E-001	-8.86842E-005	0.00000E+000	-2.85129E-005	-5.39641E-002	3.21543E-001	3.57170E+000	9	...........
	83	1.12	3.16818E-001	-8.85613E-005	0.00000E+000	-2.80578E-005	-5.39641E-002	3.16849E-001	3.57170E+000	9	...........
	84	1.13333	3.12134E-001	-8.86499E-005	0.00000E+000	-2.76707E-005	-5.39641E-002	3.12169E-001	3.57170E+000	9	...........
	85	1.14667	3.07469E-001	-8.85290E-005	0.00000E+000	-2.72199E-005	-5.39641E-002	3.07498E-001	3.57170E+000	9	...........
	86	1.16	3.02830E-001	-8.88666E-005	0.00000E+000	-2.69115E-005	-5.39641E-002	3.02865E-001	3.57170E+000	9	...........
	87	1.17333	2.98224E-001	-8.84800E-005	0.00000E+000	-2.63869E-005	-5.39641E-002	2.98255E-001	3.57170E+000	9	...........
	88	1.18667	2.93640E-001	-8.88541E-005	0.00000E+000	-2.60911E-005	-5.39641E-002	2.93667E-001	3.57170E+000	9	...........
	89	1.2	2.89067E-001	-8.85009E-005	0.00000E+000	-2.55827E-005	-5.39641E-002	2.89097E-001	3.57170E+000	9	...........
	90	1.21333	2.84535E-001	-8.83019E-005	0.00000E+000	-2.51250E-005	-5.39641E-002	2.84570E-001	3.57170E+000	9	...........
	91	1.22667	2.80038E-001	-8.86353E-005	0.00000E+000	-2.48213E-005	-5.39641E-002	2.80069E-001	3.57170E+000	9	...........
	92	1.24	2.75525E-001	-8.88926E-005	0.00000E+000	-2.44922E-005	-5.39641E-002	2.75556E-001	3.57170E+000	9	...........
	93	1.25333	2.71032E-001	-8.86228E-005	0.00000E+000	-2.40196E-005	-5.39641E-002	2.71066E-001	3.57170E+000	9	...........
	94	1.26667	2.66565E-001	-8.87915E-005	0.00000E+000	-2.36687E-005	-5.39641E-002	2.66593E-001	3.57170E+000	9	...........
	95	1.28	2.62117E-001	-8.84561E-005	0.00000E+000	-2.31859E-005	-5.39641E-002	2.62153E-001	3.57170E+000	9	...........
	96	1.29333	2.57702E-001	-8.85696E-005	0.00000E+000	-2.28246E-005	-5.39641E-002	2.57728E-001	3.57170E+000	9	...........
	97	1.30667	2.53310E-001	-8.87801E-005	0.00000E+000	-2.24889E-005	-5.39641E-002	2.53338E-001	3.57170E+000	9	...........
	98	1.32	2.48913E-001	-8.86551E-005	0.00000E+000	-2.20674E-005	-5.39641E-002	2.48940E-001	3.57170E+000	9	...........
	99	1.33333	2.44547E-001	-8.87978E-005	0.00000E+000	-2.17152E-005	-5.39641E-002	2.44571E-001	3.57184E+000	9	...........
	100	1.34667	2.40208E-001	-8.87728E-005	0.00000E+000	-2.13239E-005	-5.39641E-002	2.40234E-001	3.57190E+000	9	...........
	101	1.36	2.35891E-001	-8.85009E-005	0.00000E+000	-2.08766E-005	-5.39641E-002	2.35915E-001	3.57190E+000	9	...........
	102	1.37333	2.31595E-001	-8.85186E-005	0.00000E+000	-2.05005E-005	-5.39641E-002	2.31612E-001	3.57190E+000	9	...........
	103	1.38667	2.27322E-001	-8.86415E-005	0.00000E+000	-2.01502E-005	-5.39641E-002	2.27342E-001	3.57190E+000	9	...........
	104	1.4	2.23057E-001	-8.86915E-005	0.00000E+000	-1.97833E-005	-5.39641E-002	2.23080E-001	3.57190E+000	9	...........
	105	1.41333	2.18815E-001	-8.89332E-005	0.00000E+000	-1.94599E-005	-5.39641E-002	2.18836E-001	3.57190E+000	9	...........
	106	1.42667	2.14596E-001	-8.88322E-005	0.00000E+000	-1.90630E-005	-5.39641E-002	2.14616E-001	3.57190E+000	9	...........
	107	1.44	2.10378E-001	-8.88874E-005	0.00000E+000	-1.87000E-005	-5.39641E-002	2.10394E-001	3.57190E+000	9	...........
	108	1.45333	2.06167E-001	-8.88166E-005	0.00000E+000	-1.83110E-005	-5.39641E-002	2.06185E-001	3.57190E+000	9	...........
	109	1.46667	2.01983E-001	-8.84936E-005	0.00000E+000	-1.78742E-005	-5.39641E-002	2.01999E-001	3.57190E+000	9	...........
	110	1.48	1.97811E-001	-8.86905E-005	0.00000E+000	-1.75440E-005	-5.39641E-002	1.97828E-001	3.57190E+000	9	...........
	111	1.49333	1.93665E-001	-8.87770E-005	0.00000E+000	-1.71930E-005	-5.39641E-002	1.93683E-001	3.57190E+000	9	...........
	112	1.50667	1.89548E-001	-8.87384E-005	0.00000E+000	-1.68202E-005	-5.39641E-002	1.89559E-001	3.57190E+000	9	...........
	113	1.52	1.85443E-001	-8.86373E-005	0.00000E+000	-1.64372E-005	-5.39641E-002	1.85454E-001	3.57190E+000	9	...........
	114	1.53333	1.81353E-001	-8.85352E-005	0.00000E+000	-1.60561E-005	-5.39641E-002	1.81360E-001	3.57190E+000	9	...........
	115	1.54667	1.77267E-001	-8.89958E-005	0.00000E+000	-1.57760E-005	-5.39641E-002	1.77275E-001	3.57190E+000	9	...........
	116	1.56	1.73201E-001	-8.88197E-005	0.00000E+000	-1.53837E-005	-5.39641E-002	1.73211E-001	3.57190E+000	9	...........
	117	1.57333	1.69158E-001	-8.89166E-005	0.00000E+000	-1.50410E-005	-5.39641E-002	1.69170E-001	3.57190E+000	9	...........
	118	1.58667	1.65147E-001	-8.88311E-005	0.00000E+000	-1.46702E-005	-5.39641E-002	1.65159E-001	3.57190E+000	9	...........
	119	1.6	1.61154E-001	-8.87936E-005	0.00000E+000	-1.43095E-005	-5.39641E-002	1.61162E-001	3.57190E+000	9	...........
	120	1.61333	1.57167E-001	-8.86801E-005	0.00000E+000	-1.39376E-005	-5.39641E-002	1.57175E-001	3.57190E+000	9	...........
	121	1.62667	1.53194E-001	-8.85842E-005	0.00000E+000	-1.35706E-005	-5.39641E-002	1.53195E-001	3.57190E+000	9	...........
	122	1.64	1.49216E-001	-8.87509E-005	0.00000E+000	-1.32430E-005	-5.39641E-002	1.49234E-001	3.57190E+000	9	...........
	123	1.65333	1.45271E-001	-8.86884E-005	0.00000E+000	-1.28839E-005	-5.39641E-002	1.45273E-001	3.57190E+000	9	...........
	124	1.66667	1.41339E-001	-8.86353E-005	0.00000E+000	-1.25276E-005	-5.39641E-002	1.41353E-001	3.57190E+000	9	...........
	125	1.68	1.37446E-001	-8.85498E-005	0.00000E+000	-1.21708E-005	-5.39641E-002	1.37451E-001	3.57190E+000	9	...........
	126	1.69333	1.33557E-001	-8.86936E-005	0.00000E+000	-1.18456E-005	-5.39641E-002	1.33561E-001	3.57190E+000	9	...........
	127	1.70667	1.29679E-001	-8.84050E-005	0.00000E+000	-1.14643E-005	-5.39641E-002	1.29690E-001	3.57190E+000	9	...........
	128	1.72	1.25811E-001	-8.88884E-005	0.00000E+000	-1.11832E-005	-5.39641E-002	1.25821E-001	3.57190E+000	9	...........
	129	1.73333	1.21966E-001	-8.83956E-005	0.00000E+000	-1.07813E-005	-5.39641E-002	1.21971E-001	3.57190E+000	9	...........
	130	1.74667	1.18121E-001	-8.87436E-005	0.00000E+000	-1.04825E-005	-5.39641E-002	1.18129E-001	3.57190E+000	9	...........
	131	1.76	1.14299E-001	-8.87895E-005	0.00000E+000	-1.01485E-005	-5.39641E-002	1.14304E-001	3.57190E+000	9	...........
	132	1.77333	1.10502E-001	-8.87384E-005	0.00000E+000	-9.80575E-006	-5.39641E-002	1.10512E-001	3.57190E+000	9	...........
	133	1.78667	1.06710E-001	-8.87311E-005	0.00000E+000	-9.46853E-006	-5.39641E-002	1.06716E-001	3.57190E+000	9	...........
	134	1.8	1.02946E-001	-8.85925E-005	0.00000E+000	-9.12021E-006	-5.39641E-002	1.02948E-001	3.57190E+000	9	...........
	135	1.81333	9.91798E-002	-8.86874E-005	0.00000E+000	-8.79599E-006	-5.39641E-002	9.91874E-002	3.57190E+000	9	...........
	136	1.82667	9.54228E-002	-8.88624E-005	0.00000E+000	-8.47950E-006	-5.39641E-002	9.54267E-002	3.57190E+000	9	...........
	137	1.84	9.16775E-002	-8.85811E-005	0.00000E+000	-8.12089E-006	-5.39641E-002	9.16863E-002	3.57190E+000	9	...........
	138	1.85333	8.79712E-002	-8.88311E-005	0.00000E+000	-7.81459E-006	-5.39641E-002	8.79745E-002	3.57190E+000	9	...........
	139	1.86667	8.42839E-002	-8.86780E-005	0.00000E+000	-7.47412E-006	-5.39641E-002	8.42888E-002	3.57190E+000	9	...........
	140	1.88	8.06193E-002	-8.86769E-005	0.00000E+000	-7.14907E-006	-5.39641E-002	8.06199E-002	3.57190E+000	9	...........
	141	1.89333	7.69787E-002	-8.88051E-005	0.00000E+000	-6.83610E-006	-5.39641E-002	7.69760E-002	3.57190E+000	9	...........
	142	1.90667	7.33461E-002	-8.87801E-005	0.00000E+000	-6.51168E-006	-5.39641E-002	7.33427E-002	3.57190E+000	9	...........
	143	1.92	6.97337E-002	-8.88489E-005	0.00000E+000	-6.19576E-006	-5.39641E-002	6.97333E-002	3.57190E+000	9	...........
	144	1.93333	6.61525E-002	-8.87478E-005	0.00000E+000	-5.87089E-006	-5.39641E-002	6.61513E-002	3.57190E+000	9	...........
	145	1.94667	6.25815E-002	-8.86707E-005	0.00000E+000	-5.54914E-006	-5.39641E-002	6.25761E-002	3.57190E+000	9	...........
	146	1.96	5.90232E-002	-8.84571E-005	0.00000E+000	-5.22102E-006	-5.39641E-002	5.90230E-002	3.57190E+000	9	...........
	147	1.97333	5.54830E-002	-8.88061E-005	0.00000E+000	-4.92723E-006	-5.39641E-002	5.54796E-002	3.57190E+000	9	...........
	148	1.98667	5.19638E-002	-8.84498E-005	0.00000E+000	-4.59619E-006	-5.39641E-002	5.19590E-002	3.57190E+000	9	...........
	149	2	4.84588E-002	-8.88468E-005	0.00000E+000	-4.30541E-006	-5.39641E-002	4.84595E-002	3.57190E+000	9	...........
	150	2.01333	4.49504E-002	-8.86801E-005	0.00000E+000	-3.98620E-006	-5.39641E-002	4.49586E-002	3.57190E+000	9	...........
	151	2.02667	4.14480E-002	-8.85405E-005	0.00000E+000	-3.66982E-006	-5.39641E-002	4.14544E-002	3.57190E+000	9	...........
	152	2.04	3.79611E-002	-8.84123E-005	0.00000E+000	-3.35623E-006	-5.39641E-002	3.79669E-002	3.57190E+000	9	...........
	153	2.05333	3.44791E-002	-8.87832E-005	0.00000E+000	-3.06116E-006	-5.39641E-002	3.44858E-002	3.57190E+000	9	...........
	154	2.06667	3.10084E-002	-8.86301E-005	0.00000E+000	-2.74828E-006	-5.39641E-002	3.10095E-002	3.57190E+000	9	...........
	155	2.08	2.75428E-002	-8.86811E-005	0.00000E+000	-2.44253E-006	-5.39641E-002	2.75459E-002	3.57190E+000	9	...........
	156	2.09333	2.41166E-002	-8.85509E-005	0.00000E+000	-2.13554E-006	-5.39641E-002	2.41132E-002	3.57190E+000	9	...........
	157	2.10667	2.07013E-002	-8.86790E-005	0.00000E+000	-1.83577E-006	-5.39641E-002	2.06967E-002	3.57190E+000	9	...........
	158	2.12	1.73180E-002	-8.88551E-005	0.00000E+000	-1.53879E-006	-5.39641E-002	1.73094E-002	3.57190E+000	9	...........
	159	2.13333	1.39546E-002	-8.86176E-005	0.00000E+000	-1.23662E-006	-5.39641E-002	1.39498E-002	3.57190E+000	9	...........
	160	2.14667	1.06048E-002	-8.87915E-005	0.00000E+000	-9.41615E-007	-5.39641E-002	1.05955E-002	3.57190E+000	9	...........
	161	2.16	7.28152E-003	-8.84467E-005	0.00000E+000	-6.44026E-007	-5.39641E-002	7.26602E-003	3.57190E+000	9	...........
	162	2.17333	3.96704E-003	-8.85498E-005	0.00000E+000	-3.51281E-007	-5.39641E-002	3.95171E-003	3.57190E+000	9	...........
	163	2.185	8.65462E-004	-8.87153E-005	0.00000E+000	-7.67798E-008	-5.39641E-002	8.52998E-004	3.57190E+000	9	...........
STARTTIMEOFFSET	QUANT	562.0467	Start Time Offset (s)
