EXPLAIN
TAG	PWR800_DISCHARGE
TITLE	LABEL	PWR Cyclic Charge Discharge (Cell) - Discharge Step	Test &Identifier
DATE	LABEL	10-7-2017	Date
TIME	LABEL	15:35:48	Time
NOTES	NOTES	3	&Notes...
	supercap test cell
	0.9mg
	6M KOH
PSTAT	PSTAT	IFC5000-01520	Potentiostat
CAPACITY	QUANT	1.00000E-003	Capacity (A-hr)
CELLTYPE	SELECTOR	1	&Cell Type
WORKINGCONNECTION	SELECTOR	0	&Working Lead
MAXDISCHARGETIME	VARIABLEANDUNITS	1.00000E+002	s	1.00000E+002	second(s)	Max &Discharge Time
DISCHARGEMODE	MULTIPARAM	0	9.00000E-005	&Discharge Mode	Constant Current	Amp(s)
SAMPLETIME	QUANT	1.00000E-002	Sa&mple Period (s)
DISCHARGESTOPAT1	MULTIPARAM	3	0.00000E+000	Discharge Stop At &1	Voltage < Limit	V
DISCHARGESTOPAT2	MULTIPARAM	0	0.00000E+000	Discharge Stop At &2	None	N/A
AESBHCSELECTOR	TOGGLE	F	Save Both Half Cells
IRCOMP	TOGGLE	F	IR &Measure
EOC	QUANT	0	Open Circuit (V)
SEQUENCER	TOGGLE	TRUE	Run as Sequence
PSTATMODEL	IQUANT	53	Pstat Model
PSTATSECTION	LABEL	IFC5000-01520	Pstat Section
PSTATSERIALNO	LABEL	01520	Pstat Serial Number
CTRLMODE	IQUANT	0	Control Mode
ELECTROMETER	IQUANT	1	RE=0 or CS=1
IESTAB	IQUANT	0	I/E Stability
CASPEED	IQUANT	4	Control Amp Speed
CONVENTION	IQUANT	1	Current Convention
ICHRANGE	IQUANT	2	Ich Range
ICHRANGEMODE	TOGGLE	T	Ich Auto Range
ICHOFFSETENABLE	TOGGLE	F	Ich Offset Enable
ICHOFFSET	QUANT	0	Ich Offset (V)
ICHFILTER	IQUANT	1	Ich Filter
VCHRANGE	IQUANT	2	Vch Range
VCHRANGEMODE	TOGGLE	T	Vch Auto Range
VCHOFFSETENABLE	TOGGLE	F	Vch Offset Enable
VCHOFFSET	QUANT	0	Vch Offset (V)
VCHFILTER	IQUANT	1	Vch Filter
IERANGELOWERLIMIT	IQUANT	9	I/E Range Lower Limit
IERANGEMODE	TOGGLE	F	I/E AutoRange
IERANGE	IQUANT	9	I/E Range
ACHSELECT	IQUANT	1	Ach Select
ACHRANGE	IQUANT	2	Ach Range
ACHOFFSETENABLE	TOGGLE	F	Ach Offset Enable
ACHOFFSET	QUANT	0	Ach Offset (V)
ACHFILTER	IQUANT	1	Ach Filter
CABLEID	IQUANT	14	Cable ID
DCCALDATE	LABEL	5-7-2017	DC Calibration Date
ACCALDATE	LABEL	12/3/2015	AC Calibration Date
FRAMEWORKVERSION	QUANT	7.01	Framework Version
INSTRUMENTVERSION	LABEL	4.00	Instrument Version
CURVE	TABLE	154
	Pt	T	Vf	Im	Vu	Pwr	Sig	Ach	Temp	IERange	Over
	#	s	V	A	V	W	V	V	deg C	#	bits
	0	0.013333	8.14896E-001	-8.86603E-005	0.00000E+000	-7.22489E-005	-5.39641E-002	8.15042E-001	3.57240E+000	9	...........
	1	0.026667	8.01563E-001	-8.86290E-005	0.00000E+000	-7.10417E-005	-5.39641E-002	8.01695E-001	3.57240E+000	9	...........
	2	0.04	7.89082E-001	-8.86457E-005	0.00000E+000	-6.99487E-005	-5.39641E-002	7.89222E-001	3.57240E+000	9	...........
	3	0.053333	7.77289E-001	-8.85852E-005	0.00000E+000	-6.88563E-005	-5.39641E-002	7.77431E-001	3.57240E+000	9	...........
	4	0.066667	7.66040E-001	-8.88395E-005	0.00000E+000	-6.80546E-005	-5.39641E-002	7.66187E-001	3.57240E+000	9	...........
	5	0.08	7.55312E-001	-8.87072E-005	0.00000E+000	-6.70016E-005	-5.39641E-002	7.55442E-001	3.57240E+000	9	...........
	6	0.093333	7.44994E-001	-8.86790E-005	0.00000E+000	-6.60654E-005	-5.39641E-002	7.45101E-001	3.57240E+000	9	...........
	7	0.106667	7.35002E-001	-8.88301E-005	0.00000E+000	-6.52903E-005	-5.39641E-002	7.35129E-001	3.57240E+000	9	...........
	8	0.12	7.25411E-001	-8.86957E-005	0.00000E+000	-6.43408E-005	-5.39641E-002	7.25528E-001	3.57240E+000	9	...........
	9	0.133333	7.16067E-001	-8.88645E-005	0.00000E+000	-6.36329E-005	-5.39641E-002	7.16200E-001	3.57247E+000	9	...........
	10	0.146667	7.07033E-001	-8.86603E-005	0.00000E+000	-6.26857E-005	-5.39641E-002	7.07149E-001	3.57250E+000	9	...........
	11	0.16	6.98261E-001	-8.86738E-005	0.00000E+000	-6.19174E-005	-5.39641E-002	6.98388E-001	3.57250E+000	9	...........
	12	0.173333	6.89676E-001	-8.88176E-005	0.00000E+000	-6.12554E-005	-5.39641E-002	6.89817E-001	3.57250E+000	9	...........
	13	0.186667	6.81337E-001	-8.89676E-005	0.00000E+000	-6.06169E-005	-5.39641E-002	6.81478E-001	3.57250E+000	9	...........
	14	0.2	6.73190E-001	-8.87645E-005	0.00000E+000	-5.97554E-005	-5.39641E-002	6.73335E-001	3.57250E+000	9	...........
	15	0.213333	6.65232E-001	-8.85290E-005	0.00000E+000	-5.88923E-005	-5.39641E-002	6.65389E-001	3.57250E+000	9	...........
	16	0.226667	6.57453E-001	-8.87113E-005	0.00000E+000	-5.83235E-005	-5.39641E-002	6.57584E-001	3.57250E+000	9	...........
	17	0.24	6.49833E-001	-8.85207E-005	0.00000E+000	-5.75236E-005	-5.39641E-002	6.49989E-001	3.57250E+000	9	...........
	18	0.253333	6.42395E-001	-8.87447E-005	0.00000E+000	-5.70091E-005	-5.39641E-002	6.42529E-001	3.57250E+000	9	...........
	19	0.266667	6.35014E-001	-8.84925E-005	0.00000E+000	-5.61940E-005	-5.39641E-002	6.35144E-001	3.57250E+000	9	...........
	20	0.28	6.27868E-001	-8.87770E-005	0.00000E+000	-5.57403E-005	-5.39641E-002	6.27986E-001	3.57250E+000	9	...........
	21	0.293333	6.20808E-001	-8.88916E-005	0.00000E+000	-5.51846E-005	-5.39641E-002	6.20914E-001	3.57250E+000	9	...........
	22	0.306667	6.13816E-001	-8.89114E-005	0.00000E+000	-5.45752E-005	-5.39641E-002	6.13948E-001	3.57250E+000	9	...........
	23	0.32	6.06948E-001	-8.86853E-005	0.00000E+000	-5.38274E-005	-5.39641E-002	6.07111E-001	3.57250E+000	9	...........
	24	0.333333	6.00237E-001	-8.86707E-005	0.00000E+000	-5.32234E-005	-5.39641E-002	6.00382E-001	3.57250E+000	9	...........
	25	0.346667	5.93618E-001	-8.87634E-005	0.00000E+000	-5.26916E-005	-5.39641E-002	5.93736E-001	3.57250E+000	9	...........
	26	0.36	5.87067E-001	-8.86759E-005	0.00000E+000	-5.20587E-005	-5.39641E-002	5.87208E-001	3.57250E+000	9	...........
	27	0.373333	5.80629E-001	-8.88957E-005	0.00000E+000	-5.16154E-005	-5.39641E-002	5.80735E-001	3.57250E+000	9	...........
	28	0.386667	5.74290E-001	-8.87988E-005	0.00000E+000	-5.09963E-005	-5.39641E-002	5.74386E-001	3.57250E+000	9	...........
	29	0.4	5.68018E-001	-8.87853E-005	0.00000E+000	-5.04316E-005	-5.39641E-002	5.68126E-001	3.57250E+000	9	...........
	30	0.413333	5.61785E-001	-8.87259E-005	0.00000E+000	-4.98449E-005	-5.39641E-002	5.61910E-001	3.57250E+000	9	...........
	31	0.426667	5.55657E-001	-8.87999E-005	0.00000E+000	-4.93423E-005	-5.39641E-002	5.55780E-001	3.57250E+000	9	...........
	32	0.44	5.49651E-001	-8.87520E-005	0.00000E+000	-4.87826E-005	-5.39641E-002	5.49726E-001	3.57250E+000	9	...........
	33	0.453333	5.43659E-001	-8.88968E-005	0.00000E+000	-4.83295E-005	-5.39641E-002	5.43754E-001	3.57250E+000	9	...........
	34	0.466667	5.37741E-001	-8.85790E-005	0.00000E+000	-4.76326E-005	-5.39641E-002	5.37810E-001	3.57250E+000	9	...........
	35	0.48	5.31847E-001	-8.87915E-005	0.00000E+000	-4.72235E-005	-5.39641E-002	5.31942E-001	3.57250E+000	9	...........
	36	0.493333	5.26030E-001	-8.85988E-005	0.00000E+000	-4.66056E-005	-5.39641E-002	5.26131E-001	3.57250E+000	9	...........
	37	0.506667	5.20252E-001	-8.86978E-005	0.00000E+000	-4.61452E-005	-5.39641E-002	5.20337E-001	3.57250E+000	9	...........
	38	0.52	5.14519E-001	-8.88530E-005	0.00000E+000	-4.57166E-005	-5.39641E-002	5.14593E-001	3.57250E+000	9	...........
	39	0.533333	5.08791E-001	-8.89593E-005	0.00000E+000	-4.52617E-005	-5.39641E-002	5.08899E-001	3.57250E+000	9	...........
	40	0.546667	5.03156E-001	-8.88228E-005	0.00000E+000	-4.46917E-005	-5.39641E-002	5.03261E-001	3.57250E+000	9	...........
	41	0.56	4.97563E-001	-8.88061E-005	0.00000E+000	-4.41866E-005	-5.39641E-002	4.97663E-001	3.57250E+000	9	...........
	42	0.573333	4.92035E-001	-8.87551E-005	0.00000E+000	-4.36706E-005	-5.39641E-002	4.92120E-001	3.57250E+000	9	...........
	43	0.586667	4.86574E-001	-8.88332E-005	0.00000E+000	-4.32239E-005	-5.39641E-002	4.86635E-001	3.57250E+000	9	...........
	44	0.6	4.81179E-001	-8.87228E-005	0.00000E+000	-4.26916E-005	-5.39641E-002	4.81247E-001	3.57250E+000	9	...........
	45	0.613333	4.75756E-001	-8.85800E-005	0.00000E+000	-4.21425E-005	-5.39641E-002	4.75814E-001	3.57250E+000	9	...........
	46	0.626667	4.70375E-001	-8.86530E-005	0.00000E+000	-4.17002E-005	-5.39641E-002	4.70437E-001	3.57250E+000	9	...........
	47	0.64	4.65006E-001	-8.88176E-005	0.00000E+000	-4.13007E-005	-5.39641E-002	4.65065E-001	3.57250E+000	9	...........
	48	0.653333	4.59657E-001	-8.87030E-005	0.00000E+000	-4.07730E-005	-5.39641E-002	4.59715E-001	3.57250E+000	9	...........
	49	0.666667	4.54329E-001	-8.88884E-005	0.00000E+000	-4.03846E-005	-5.39641E-002	4.54394E-001	3.57250E+000	9	...........
	50	0.68	4.49035E-001	-8.87332E-005	0.00000E+000	-3.98443E-005	-5.39641E-002	4.49100E-001	3.57250E+000	9	...........
	51	0.693333	4.43766E-001	-8.86624E-005	0.00000E+000	-3.93454E-005	-5.39641E-002	4.43835E-001	3.57250E+000	9	...........
	52	0.706667	4.38519E-001	-8.86551E-005	0.00000E+000	-3.88769E-005	-5.39641E-002	4.38579E-001	3.57250E+000	9	...........
	53	0.72	4.33291E-001	-8.86446E-005	0.00000E+000	-3.84089E-005	-5.39641E-002	4.33351E-001	3.57250E+000	9	...........
	54	0.733333	4.28094E-001	-8.87624E-005	0.00000E+000	-3.79986E-005	-5.39641E-002	4.28153E-001	3.57250E+000	9	...........
	55	0.746667	4.22915E-001	-8.86207E-005	0.00000E+000	-3.74790E-005	-5.39641E-002	4.22969E-001	3.57250E+000	9	...........
	56	0.76	4.17740E-001	-8.88030E-005	0.00000E+000	-3.70966E-005	-5.39641E-002	4.17800E-001	3.57250E+000	9	...........
	57	0.773333	4.12587E-001	-8.89093E-005	0.00000E+000	-3.66828E-005	-5.39641E-002	4.12651E-001	3.57250E+000	9	...........
	58	0.786667	4.07461E-001	-8.84154E-005	0.00000E+000	-3.60258E-005	-5.39641E-002	4.07510E-001	3.57250E+000	9	...........
	59	0.8	4.02355E-001	-8.89020E-005	0.00000E+000	-3.57701E-005	-5.39641E-002	4.02403E-001	3.57250E+000	9	...........
	60	0.813333	3.97248E-001	-8.89343E-005	0.00000E+000	-3.53289E-005	-5.39641E-002	3.97293E-001	3.57250E+000	9	...........
	61	0.826667	3.92174E-001	-8.89072E-005	0.00000E+000	-3.48671E-005	-5.39641E-002	3.92219E-001	3.57250E+000	9	...........
	62	0.84	3.87118E-001	-8.90062E-005	0.00000E+000	-3.44559E-005	-5.39641E-002	3.87166E-001	3.57250E+000	9	...........
	63	0.853333	3.82074E-001	-8.88051E-005	0.00000E+000	-3.39302E-005	-5.39641E-002	3.82121E-001	3.57250E+000	9	...........
	64	0.866667	3.77036E-001	-8.85550E-005	0.00000E+000	-3.33884E-005	-5.39641E-002	3.77087E-001	3.57250E+000	9	...........
	65	0.88	3.72018E-001	-8.87238E-005	0.00000E+000	-3.30069E-005	-5.39641E-002	3.72062E-001	3.57250E+000	9	...........
	66	0.893333	3.67021E-001	-8.86186E-005	0.00000E+000	-3.25249E-005	-5.39641E-002	3.67066E-001	3.57250E+000	9	...........
	67	0.906667	3.62023E-001	-8.90812E-005	0.00000E+000	-3.22494E-005	-5.39641E-002	3.62072E-001	3.57250E+000	9	...........
	68	0.92	3.57051E-001	-8.87415E-005	0.00000E+000	-3.16853E-005	-5.39641E-002	3.57097E-001	3.57250E+000	9	...........
	69	0.933333	3.52100E-001	-8.85186E-005	0.00000E+000	-3.11674E-005	-5.39641E-002	3.52149E-001	3.57250E+000	9	...........
	70	0.946667	3.47174E-001	-8.89447E-005	0.00000E+000	-3.08792E-005	-5.39641E-002	3.47217E-001	3.57250E+000	9	...........
	71	0.96	3.42266E-001	-8.87072E-005	0.00000E+000	-3.03614E-005	-5.39641E-002	3.42306E-001	3.57250E+000	9	...........
	72	0.97333	3.37346E-001	-8.86884E-005	0.00000E+000	-2.99187E-005	-5.39641E-002	3.37380E-001	3.57250E+000	9	...........
	73	0.98667	3.32440E-001	-8.88176E-005	0.00000E+000	-2.95265E-005	-5.39641E-002	3.32478E-001	3.57250E+000	9	...........
	74	1	3.27559E-001	-8.89510E-005	0.00000E+000	-2.91367E-005	-5.39641E-002	3.27601E-001	3.57250E+000	9	...........
	75	1.01333	3.22701E-001	-8.89020E-005	0.00000E+000	-2.86888E-005	-5.39641E-002	3.22738E-001	3.57250E+000	9	...........
	76	1.02667	3.17846E-001	-8.85217E-005	0.00000E+000	-2.81363E-005	-5.39641E-002	3.17887E-001	3.57250E+000	9	...........
	77	1.04	3.13036E-001	-8.88155E-005	0.00000E+000	-2.78024E-005	-5.39641E-002	3.13074E-001	3.57250E+000	9	...........
	78	1.05333	3.08230E-001	-8.87405E-005	0.00000E+000	-2.73525E-005	-5.39641E-002	3.08269E-001	3.57250E+000	9	...........
	79	1.06667	3.03437E-001	-8.85342E-005	0.00000E+000	-2.68645E-005	-5.39641E-002	3.03480E-001	3.57250E+000	9	...........
	80	1.08	2.98665E-001	-8.86947E-005	0.00000E+000	-2.64900E-005	-5.39641E-002	2.98703E-001	3.57250E+000	9	...........
	81	1.09333	2.93912E-001	-8.88280E-005	0.00000E+000	-2.61076E-005	-5.39641E-002	2.93951E-001	3.57250E+000	9	...........
	82	1.10667	2.89185E-001	-8.87155E-005	0.00000E+000	-2.56552E-005	-5.39641E-002	2.89221E-001	3.57250E+000	9	...........
	83	1.12	2.84461E-001	-8.89958E-005	0.00000E+000	-2.53159E-005	-5.39641E-002	2.84505E-001	3.57250E+000	9	...........
	84	1.13333	2.79773E-001	-8.87061E-005	0.00000E+000	-2.48175E-005	-5.39641E-002	2.79810E-001	3.57264E+000	9	...........
	85	1.14667	2.75091E-001	-8.87228E-005	0.00000E+000	-2.44068E-005	-5.39641E-002	2.75127E-001	3.57270E+000	9	...........
	86	1.16	2.70411E-001	-8.88145E-005	0.00000E+000	-2.40164E-005	-5.39641E-002	2.70446E-001	3.57270E+000	9	...........
	87	1.17333	2.65749E-001	-8.87228E-005	0.00000E+000	-2.35780E-005	-5.39641E-002	2.65787E-001	3.57270E+000	9	...........
	88	1.18667	2.61119E-001	-8.86874E-005	0.00000E+000	-2.31580E-005	-5.39641E-002	2.61156E-001	3.57270E+000	9	...........
	89	1.2	2.56504E-001	-8.87697E-005	0.00000E+000	-2.27698E-005	-5.39641E-002	2.56537E-001	3.57270E+000	9	...........
	90	1.21333	2.51918E-001	-8.86926E-005	0.00000E+000	-2.23432E-005	-5.39641E-002	2.51950E-001	3.57270E+000	9	...........
	91	1.22667	2.47342E-001	-8.85915E-005	0.00000E+000	-2.19124E-005	-5.39641E-002	2.47371E-001	3.57270E+000	9	...........
	92	1.24	2.42788E-001	-8.86999E-005	0.00000E+000	-2.15352E-005	-5.39641E-002	2.42812E-001	3.57270E+000	9	...........
	93	1.25333	2.38255E-001	-8.88280E-005	0.00000E+000	-2.11637E-005	-5.39641E-002	2.38283E-001	3.57270E+000	9	...........
	94	1.26667	2.33746E-001	-8.87165E-005	0.00000E+000	-2.07371E-005	-5.39641E-002	2.33774E-001	3.57270E+000	9	...........
	95	1.28	2.29246E-001	-8.90833E-005	0.00000E+000	-2.04220E-005	-5.39641E-002	2.29273E-001	3.57270E+000	9	...........
	96	1.29333	2.24778E-001	-8.88582E-005	0.00000E+000	-1.99734E-005	-5.39641E-002	2.24804E-001	3.57270E+000	9	...........
	97	1.30667	2.20338E-001	-8.86457E-005	0.00000E+000	-1.95320E-005	-5.39641E-002	2.20370E-001	3.57270E+000	9	...........
	98	1.32	2.15906E-001	-8.86822E-005	0.00000E+000	-1.91470E-005	-5.39641E-002	2.15929E-001	3.57270E+000	9	...........
	99	1.33333	2.11497E-001	-8.88645E-005	0.00000E+000	-1.87945E-005	-5.39641E-002	2.11526E-001	3.57270E+000	9	...........
	100	1.34667	2.07129E-001	-8.89510E-005	0.00000E+000	-1.84243E-005	-5.39641E-002	2.07150E-001	3.57270E+000	9	...........
	101	1.36	2.02753E-001	-8.87238E-005	0.00000E+000	-1.79890E-005	-5.39641E-002	2.02779E-001	3.57270E+000	9	...........
	102	1.37333	1.98406E-001	-8.89072E-005	0.00000E+000	-1.76397E-005	-5.39641E-002	1.98431E-001	3.57270E+000	9	...........
	103	1.38667	1.94086E-001	-8.86644E-005	0.00000E+000	-1.72085E-005	-5.39641E-002	1.94109E-001	3.57270E+000	9	...........
	104	1.4	1.89779E-001	-8.88249E-005	0.00000E+000	-1.68571E-005	-5.39641E-002	1.89807E-001	3.57270E+000	9	...........
	105	1.41333	1.85489E-001	-8.88322E-005	0.00000E+000	-1.64774E-005	-5.39641E-002	1.85511E-001	3.57270E+000	9	...........
	106	1.42667	1.81206E-001	-8.86530E-005	0.00000E+000	-1.60645E-005	-5.39641E-002	1.81236E-001	3.57270E+000	9	...........
	107	1.44	1.76956E-001	-8.89947E-005	0.00000E+000	-1.57482E-005	-5.39641E-002	1.76977E-001	3.57270E+000	9	...........
	108	1.45333	1.72718E-001	-8.86061E-005	0.00000E+000	-1.53039E-005	-5.39641E-002	1.72744E-001	3.57270E+000	9	...........
	109	1.46667	1.68499E-001	-8.86582E-005	0.00000E+000	-1.49388E-005	-5.39641E-002	1.68522E-001	3.57270E+000	9	...........
	110	1.48	1.64293E-001	-8.90010E-005	0.00000E+000	-1.46222E-005	-5.39641E-002	1.64312E-001	3.57270E+000	9	...........
	111	1.49333	1.60097E-001	-8.86936E-005	0.00000E+000	-1.41996E-005	-5.39641E-002	1.60116E-001	3.57270E+000	9	...........
	112	1.50667	1.55927E-001	-8.86373E-005	0.00000E+000	-1.38209E-005	-5.39641E-002	1.55946E-001	3.57270E+000	9	...........
	113	1.52	1.51780E-001	-8.89489E-005	0.00000E+000	-1.35007E-005	-5.39641E-002	1.51804E-001	3.57270E+000	9	...........
	114	1.53333	1.47669E-001	-8.90103E-005	0.00000E+000	-1.31440E-005	-5.39641E-002	1.47683E-001	3.57270E+000	9	...........
	115	1.54667	1.43559E-001	-8.89530E-005	0.00000E+000	-1.27700E-005	-5.39641E-002	1.43574E-001	3.57270E+000	9	...........
	116	1.56	1.39465E-001	-8.90124E-005	0.00000E+000	-1.24141E-005	-5.39641E-002	1.39481E-001	3.57270E+000	9	...........
	117	1.57333	1.35396E-001	-8.87092E-005	0.00000E+000	-1.20108E-005	-5.39641E-002	1.35409E-001	3.57270E+000	9	...........
	118	1.58667	1.31337E-001	-8.87655E-005	0.00000E+000	-1.16582E-005	-5.39641E-002	1.31354E-001	3.57270E+000	9	...........
	119	1.6	1.27296E-001	-8.88124E-005	0.00000E+000	-1.13055E-005	-5.39641E-002	1.27311E-001	3.57270E+000	9	...........
	120	1.61333	1.23271E-001	-8.87103E-005	0.00000E+000	-1.09354E-005	-5.39641E-002	1.23282E-001	3.57270E+000	9	...........
	121	1.62667	1.19261E-001	-8.86853E-005	0.00000E+000	-1.05767E-005	-5.39641E-002	1.19274E-001	3.57270E+000	9	...........
	122	1.64	1.15267E-001	-8.86905E-005	0.00000E+000	-1.02230E-005	-5.39641E-002	1.15276E-001	3.57270E+000	9	...........
	123	1.65333	1.11285E-001	-8.86842E-005	0.00000E+000	-9.86923E-006	-5.39641E-002	1.11299E-001	3.57270E+000	9	...........
	124	1.66667	1.07337E-001	-8.88301E-005	0.00000E+000	-9.53478E-006	-5.39641E-002	1.07348E-001	3.57270E+000	9	...........
	125	1.68	1.03426E-001	-8.87707E-005	0.00000E+000	-9.18122E-006	-5.39641E-002	1.03435E-001	3.57270E+000	9	...........
	126	1.69333	9.95337E-002	-8.88749E-005	0.00000E+000	-8.84604E-006	-5.39641E-002	9.95484E-002	3.57270E+000	9	...........
	127	1.70667	9.56489E-002	-8.89312E-005	0.00000E+000	-8.50617E-006	-5.39641E-002	9.56576E-002	3.57270E+000	9	...........
	128	1.72	9.17702E-002	-8.88780E-005	0.00000E+000	-8.15635E-006	-5.39641E-002	9.17752E-002	3.57270E+000	9	...........
	129	1.73333	8.79082E-002	-8.86707E-005	0.00000E+000	-7.79488E-006	-5.39641E-002	8.79120E-002	3.57270E+000	9	...........
	130	1.74667	8.40701E-002	-8.88249E-005	0.00000E+000	-7.46752E-006	-5.39641E-002	8.40755E-002	3.57270E+000	9	...........
	131	1.76	8.02539E-002	-8.89270E-005	0.00000E+000	-7.13674E-006	-5.39641E-002	8.02574E-002	3.57270E+000	9	...........
	132	1.77333	7.64377E-002	-8.88447E-005	0.00000E+000	-6.79108E-006	-5.39641E-002	7.64346E-002	3.57270E+000	9	...........
	133	1.78667	7.26349E-002	-8.87269E-005	0.00000E+000	-6.44467E-006	-5.39641E-002	7.26347E-002	3.57270E+000	9	...........
	134	1.8	6.88450E-002	-8.86363E-005	0.00000E+000	-6.10216E-006	-5.39641E-002	6.88470E-002	3.57270E+000	9	...........
	135	1.81333	6.50742E-002	-8.85165E-005	0.00000E+000	-5.76014E-006	-5.39641E-002	6.50731E-002	3.57270E+000	9	...........
	136	1.82667	6.13114E-002	-8.86467E-005	0.00000E+000	-5.43505E-006	-5.39641E-002	6.13099E-002	3.57270E+000	9	...........
	137	1.84	5.75765E-002	-8.89353E-005	0.00000E+000	-5.12058E-006	-5.39641E-002	5.75777E-002	3.57270E+000	9	...........
	138	1.85333	5.38545E-002	-8.85602E-005	0.00000E+000	-4.76937E-006	-5.39641E-002	5.38565E-002	3.57270E+000	9	...........
	139	1.86667	5.01502E-002	-8.89197E-005	0.00000E+000	-4.45934E-006	-5.39641E-002	5.01503E-002	3.57270E+000	9	...........
	140	1.88	4.64666E-002	-8.86822E-005	0.00000E+000	-4.12075E-006	-5.39641E-002	4.64728E-002	3.57270E+000	9	...........
	141	1.89333	4.27894E-002	-8.85540E-005	0.00000E+000	-3.78917E-006	-5.39641E-002	4.28023E-002	3.57270E+000	9	...........
	142	1.90667	3.91357E-002	-8.90947E-005	0.00000E+000	-3.48679E-006	-5.39641E-002	3.91455E-002	3.57270E+000	9	...........
	143	1.92	3.54980E-002	-8.87603E-005	0.00000E+000	-3.15082E-006	-5.39641E-002	3.55084E-002	3.57270E+000	9	...........
	144	1.93333	3.18713E-002	-8.86311E-005	0.00000E+000	-2.82479E-006	-5.39641E-002	3.18730E-002	3.57270E+000	9	...........
	145	1.94667	2.82509E-002	-8.89082E-005	0.00000E+000	-2.51174E-006	-5.39641E-002	2.82534E-002	3.57270E+000	9	...........
	146	1.96	2.46370E-002	-8.86186E-005	0.00000E+000	-2.18330E-006	-5.39641E-002	2.46358E-002	3.57270E+000	9	...........
	147	1.97333	2.10404E-002	-8.87738E-005	0.00000E+000	-1.86784E-006	-5.39641E-002	2.10425E-002	3.57270E+000	9	...........
	148	1.98667	1.74657E-002	-8.88582E-005	0.00000E+000	-1.55197E-006	-5.39641E-002	1.74611E-002	3.57270E+000	9	...........
	149	2	1.39066E-002	-8.89260E-005	0.00000E+000	-1.23666E-006	-5.39641E-002	1.39023E-002	3.57270E+000	9	...........
	150	2.01333	1.03739E-002	-8.88176E-005	0.00000E+000	-9.21381E-007	-5.39641E-002	1.03653E-002	3.57270E+000	9	...........
	151	2.02667	6.85697E-003	-8.89603E-005	0.00000E+000	-6.09999E-007	-5.39641E-002	6.84631E-003	3.57270E+000	9	...........
	152	2.04	3.35690E-003	-8.86561E-005	0.00000E+000	-2.97610E-007	-5.39641E-002	3.34493E-003	3.57270E+000	9	...........
	153	2.04833	5.33333E-004	-8.86065E-005	0.00000E+000	-4.72568E-008	-5.39641E-002	5.21618E-004	3.57270E+000	9	...........
STARTTIMEOFFSET	QUANT	1850.611	Start Time Offset (s)
