EXPLAIN
TAG	PWR800_DISCHARGE
TITLE	LABEL	PWR Cyclic Charge Discharge (Cell) - Discharge Step	Test &Identifier
DATE	LABEL	10-7-2017	Date
TIME	LABEL	15:06:54	Time
NOTES	NOTES	3	&Notes...
	supercap test cell
	0.9mg
	6M KOH
PSTAT	PSTAT	IFC5000-01520	Potentiostat
CAPACITY	QUANT	1.00000E-003	Capacity (A-hr)
CELLTYPE	SELECTOR	1	&Cell Type
WORKINGCONNECTION	SELECTOR	0	&Working Lead
MAXDISCHARGETIME	VARIABLEANDUNITS	1.00000E+002	s	1.00000E+002	second(s)	Max &Discharge Time
DISCHARGEMODE	MULTIPARAM	0	9.00000E-005	&Discharge Mode	Constant Current	Amp(s)
SAMPLETIME	QUANT	1.00000E-002	Sa&mple Period (s)
DISCHARGESTOPAT1	MULTIPARAM	3	0.00000E+000	Discharge Stop At &1	Voltage < Limit	V
DISCHARGESTOPAT2	MULTIPARAM	0	0.00000E+000	Discharge Stop At &2	None	N/A
AESBHCSELECTOR	TOGGLE	F	Save Both Half Cells
IRCOMP	TOGGLE	F	IR &Measure
EOC	QUANT	0	Open Circuit (V)
SEQUENCER	TOGGLE	TRUE	Run as Sequence
PSTATMODEL	IQUANT	53	Pstat Model
PSTATSECTION	LABEL	IFC5000-01520	Pstat Section
PSTATSERIALNO	LABEL	01520	Pstat Serial Number
CTRLMODE	IQUANT	0	Control Mode
ELECTROMETER	IQUANT	1	RE=0 or CS=1
IESTAB	IQUANT	0	I/E Stability
CASPEED	IQUANT	4	Control Amp Speed
CONVENTION	IQUANT	1	Current Convention
ICHRANGE	IQUANT	2	Ich Range
ICHRANGEMODE	TOGGLE	T	Ich Auto Range
ICHOFFSETENABLE	TOGGLE	F	Ich Offset Enable
ICHOFFSET	QUANT	0	Ich Offset (V)
ICHFILTER	IQUANT	1	Ich Filter
VCHRANGE	IQUANT	2	Vch Range
VCHRANGEMODE	TOGGLE	T	Vch Auto Range
VCHOFFSETENABLE	TOGGLE	F	Vch Offset Enable
VCHOFFSET	QUANT	0	Vch Offset (V)
VCHFILTER	IQUANT	1	Vch Filter
IERANGELOWERLIMIT	IQUANT	9	I/E Range Lower Limit
IERANGEMODE	TOGGLE	F	I/E AutoRange
IERANGE	IQUANT	9	I/E Range
ACHSELECT	IQUANT	1	Ach Select
ACHRANGE	IQUANT	2	Ach Range
ACHOFFSETENABLE	TOGGLE	F	Ach Offset Enable
ACHOFFSET	QUANT	0	Ach Offset (V)
ACHFILTER	IQUANT	1	Ach Filter
CABLEID	IQUANT	14	Cable ID
DCCALDATE	LABEL	5-7-2017	DC Calibration Date
ACCALDATE	LABEL	12/3/2015	AC Calibration Date
FRAMEWORKVERSION	QUANT	7.01	Framework Version
INSTRUMENTVERSION	LABEL	4.00	Instrument Version
CURVE	TABLE	166
	Pt	T	Vf	Im	Vu	Pwr	Sig	Ach	Temp	IERange	Over
	#	s	V	A	V	W	V	V	deg C	#	bits
	0	0.013333	8.42475E-001	-8.86144E-005	0.00000E+000	-7.46555E-005	-5.39641E-002	8.42587E-001	3.57130E+000	9	...........
	1	0.026667	8.30969E-001	-8.87759E-005	0.00000E+000	-7.37700E-005	-5.39641E-002	8.31050E-001	3.57130E+000	9	...........
	2	0.04	8.20098E-001	-8.87009E-005	0.00000E+000	-7.27435E-005	-5.39641E-002	8.20197E-001	3.57130E+000	9	...........
	3	0.053333	8.09708E-001	-8.87395E-005	0.00000E+000	-7.18531E-005	-5.39641E-002	8.09820E-001	3.57130E+000	9	...........
	4	0.066667	7.99778E-001	-8.84821E-005	0.00000E+000	-7.07661E-005	-5.39641E-002	7.99873E-001	3.57130E+000	9	...........
	5	0.08	7.90167E-001	-8.84998E-005	0.00000E+000	-6.99297E-005	-5.39641E-002	7.90250E-001	3.57130E+000	9	...........
	6	0.093333	7.80849E-001	-8.85853E-005	0.00000E+000	-6.91717E-005	-5.39641E-002	7.80934E-001	3.57130E+000	9	...........
	7	0.106667	7.71820E-001	-8.86207E-005	0.00000E+000	-6.83992E-005	-5.39641E-002	7.71907E-001	3.57130E+000	9	...........
	8	0.12	7.63012E-001	-8.85259E-005	0.00000E+000	-6.75463E-005	-5.39641E-002	7.63096E-001	3.57130E+000	9	...........
	9	0.133333	7.54443E-001	-8.86780E-005	0.00000E+000	-6.69025E-005	-5.39641E-002	7.54525E-001	3.57130E+000	9	...........
	10	0.146667	7.46087E-001	-8.88134E-005	0.00000E+000	-6.62626E-005	-5.39641E-002	7.46165E-001	3.57130E+000	9	...........
	11	0.16	7.37884E-001	-8.86092E-005	0.00000E+000	-6.53833E-005	-5.39641E-002	7.37980E-001	3.57130E+000	9	...........
	12	0.173333	7.29886E-001	-8.87040E-005	0.00000E+000	-6.47438E-005	-5.39641E-002	7.29970E-001	3.57130E+000	9	...........
	13	0.186667	7.22068E-001	-8.87759E-005	0.00000E+000	-6.41023E-005	-5.39641E-002	7.22124E-001	3.57130E+000	9	...........
	14	0.2	7.14308E-001	-8.86936E-005	0.00000E+000	-6.33545E-005	-5.39641E-002	7.14396E-001	3.57130E+000	9	...........
	15	0.213333	7.06750E-001	-8.87926E-005	0.00000E+000	-6.27542E-005	-5.39641E-002	7.06829E-001	3.57130E+000	9	...........
	16	0.226667	6.99317E-001	-8.85978E-005	0.00000E+000	-6.19580E-005	-5.39641E-002	6.99398E-001	3.57130E+000	9	...........
	17	0.24	6.92022E-001	-8.85821E-005	0.00000E+000	-6.13008E-005	-5.39641E-002	6.92118E-001	3.57130E+000	9	...........
	18	0.253333	6.84822E-001	-8.86894E-005	0.00000E+000	-6.07365E-005	-5.39641E-002	6.84914E-001	3.57130E+000	9	...........
	19	0.266667	6.77764E-001	-8.84352E-005	0.00000E+000	-5.99383E-005	-5.39641E-002	6.77864E-001	3.57130E+000	9	...........
	20	0.28	6.70797E-001	-8.84873E-005	0.00000E+000	-5.93570E-005	-5.39641E-002	6.70884E-001	3.57130E+000	9	...........
	21	0.293333	6.63911E-001	-8.87634E-005	0.00000E+000	-5.89310E-005	-5.39641E-002	6.63988E-001	3.57130E+000	9	...........
	22	0.306667	6.57134E-001	-8.86363E-005	0.00000E+000	-5.82460E-005	-5.39641E-002	6.57214E-001	3.57130E+000	9	...........
	23	0.32	6.50449E-001	-8.84456E-005	0.00000E+000	-5.75294E-005	-5.39641E-002	6.50528E-001	3.57130E+000	9	...........
	24	0.333333	6.43863E-001	-8.86613E-005	0.00000E+000	-5.70858E-005	-5.39641E-002	6.43927E-001	3.57130E+000	9	...........
	25	0.346667	6.37326E-001	-8.84759E-005	0.00000E+000	-5.63879E-005	-5.39641E-002	6.37393E-001	3.57130E+000	9	...........
	26	0.36	6.30870E-001	-8.84686E-005	0.00000E+000	-5.58121E-005	-5.39641E-002	6.30956E-001	3.57130E+000	9	...........
	27	0.373333	6.24518E-001	-8.87092E-005	0.00000E+000	-5.54006E-005	-5.39641E-002	6.24591E-001	3.57130E+000	9	...........
	28	0.386667	6.18239E-001	-8.84696E-005	0.00000E+000	-5.46953E-005	-5.39641E-002	6.18292E-001	3.57130E+000	9	...........
	29	0.4	6.11928E-001	-8.86801E-005	0.00000E+000	-5.42658E-005	-5.39641E-002	6.12058E-001	3.57130E+000	9	...........
	30	0.413333	6.05750E-001	-8.86405E-005	0.00000E+000	-5.36940E-005	-5.39641E-002	6.05856E-001	3.57130E+000	9	...........
	31	0.426667	5.99604E-001	-8.85415E-005	0.00000E+000	-5.30899E-005	-5.39641E-002	5.99726E-001	3.57130E+000	9	...........
	32	0.44	5.93558E-001	-8.86624E-005	0.00000E+000	-5.26263E-005	-5.39641E-002	5.93633E-001	3.57183E+000	9	...........
	33	0.453333	5.87527E-001	-8.88864E-005	0.00000E+000	-5.22232E-005	-5.39641E-002	5.87606E-001	3.57200E+000	9	...........
	34	0.466667	5.81543E-001	-8.88603E-005	0.00000E+000	-5.16761E-005	-5.39641E-002	5.81615E-001	3.57200E+000	9	...........
	35	0.48	5.75649E-001	-8.86696E-005	0.00000E+000	-5.10426E-005	-5.39641E-002	5.75708E-001	3.57200E+000	9	...........
	36	0.493333	5.69784E-001	-8.86269E-005	0.00000E+000	-5.04982E-005	-5.39641E-002	5.69840E-001	3.57200E+000	9	...........
	37	0.506667	5.63932E-001	-8.86467E-005	0.00000E+000	-4.99908E-005	-5.39641E-002	5.63987E-001	3.57200E+000	9	...........
	38	0.52	5.58106E-001	-8.85519E-005	0.00000E+000	-4.94214E-005	-5.39641E-002	5.58170E-001	3.57200E+000	9	...........
	39	0.533333	5.52378E-001	-8.87759E-005	0.00000E+000	-4.90379E-005	-5.39641E-002	5.52450E-001	3.57200E+000	9	...........
	40	0.546667	5.46635E-001	-8.84529E-005	0.00000E+000	-4.83514E-005	-5.39641E-002	5.46697E-001	3.57200E+000	9	...........
	41	0.56	5.40956E-001	-8.85675E-005	0.00000E+000	-4.79112E-005	-5.39641E-002	5.41007E-001	3.57200E+000	9	...........
	42	0.573333	5.35273E-001	-8.87592E-005	0.00000E+000	-4.75104E-005	-5.39641E-002	5.35319E-001	3.57200E+000	9	...........
	43	0.586667	5.29633E-001	-8.86801E-005	0.00000E+000	-4.69679E-005	-5.39641E-002	5.29695E-001	3.57200E+000	9	...........
	44	0.6	5.24016E-001	-8.87186E-005	0.00000E+000	-4.64900E-005	-5.39641E-002	5.24092E-001	3.57200E+000	9	...........
	45	0.613333	5.18488E-001	-8.86082E-005	0.00000E+000	-4.59423E-005	-5.39641E-002	5.18535E-001	3.57200E+000	9	...........
	46	0.626667	5.12941E-001	-8.86561E-005	0.00000E+000	-4.54753E-005	-5.39641E-002	5.13005E-001	3.57200E+000	9	...........
	47	0.64	5.07384E-001	-8.87061E-005	0.00000E+000	-4.50081E-005	-5.39641E-002	5.07475E-001	3.57200E+000	9	...........
	48	0.653333	5.01894E-001	-8.88207E-005	0.00000E+000	-4.45786E-005	-5.39641E-002	5.01990E-001	3.57200E+000	9	...........
	49	0.666667	4.96445E-001	-8.83550E-005	0.00000E+000	-4.38634E-005	-5.39641E-002	4.96524E-001	3.57200E+000	9	...........
	50	0.68	4.91023E-001	-8.88895E-005	0.00000E+000	-4.36468E-005	-5.39641E-002	4.91095E-001	3.57200E+000	9	...........
	51	0.693333	4.85644E-001	-8.88332E-005	0.00000E+000	-4.31413E-005	-5.39641E-002	4.85726E-001	3.57200E+000	9	...........
	52	0.706667	4.80297E-001	-8.86269E-005	0.00000E+000	-4.25672E-005	-5.39641E-002	4.80345E-001	3.57200E+000	9	...........
	53	0.72	4.74914E-001	-8.89332E-005	0.00000E+000	-4.22356E-005	-5.39641E-002	4.74965E-001	3.57200E+000	9	...........
	54	0.733333	4.69562E-001	-8.86634E-005	0.00000E+000	-4.16329E-005	-5.39641E-002	4.69612E-001	3.57200E+000	9	...........
	55	0.746667	4.64250E-001	-8.85665E-005	0.00000E+000	-4.11170E-005	-5.39641E-002	4.64300E-001	3.57200E+000	9	...........
	56	0.76	4.58963E-001	-8.85207E-005	0.00000E+000	-4.06277E-005	-5.39641E-002	4.59010E-001	3.57200E+000	9	...........
	57	0.773333	4.53695E-001	-8.87697E-005	0.00000E+000	-4.02744E-005	-5.39641E-002	4.53740E-001	3.57200E+000	9	...........
	58	0.786667	4.48435E-001	-8.88749E-005	0.00000E+000	-3.98546E-005	-5.39641E-002	4.48485E-001	3.57200E+000	9	...........
	59	0.8	4.43198E-001	-8.84623E-005	0.00000E+000	-3.92063E-005	-5.39641E-002	4.43244E-001	3.57200E+000	9	...........
	60	0.813333	4.37962E-001	-8.84759E-005	0.00000E+000	-3.87491E-005	-5.39641E-002	4.38006E-001	3.57200E+000	9	...........
	61	0.826667	4.32748E-001	-8.86780E-005	0.00000E+000	-3.83752E-005	-5.39641E-002	4.32796E-001	3.57200E+000	9	...........
	62	0.84	4.27558E-001	-8.86061E-005	0.00000E+000	-3.78843E-005	-5.39641E-002	4.27612E-001	3.57200E+000	9	...........
	63	0.853333	4.22397E-001	-8.85759E-005	0.00000E+000	-3.74142E-005	-5.39641E-002	4.22443E-001	3.57200E+000	9	...........
	64	0.866667	4.17276E-001	-8.87926E-005	0.00000E+000	-3.70510E-005	-5.39641E-002	4.17325E-001	3.57200E+000	9	...........
	65	0.88	4.12157E-001	-8.87509E-005	0.00000E+000	-3.65793E-005	-5.39641E-002	4.12203E-001	3.57200E+000	9	...........
	66	0.893333	4.07054E-001	-8.83935E-005	0.00000E+000	-3.59809E-005	-5.39641E-002	4.07101E-001	3.57200E+000	9	...........
	67	0.906667	4.02000E-001	-8.83477E-005	0.00000E+000	-3.55158E-005	-5.39641E-002	4.02038E-001	3.57200E+000	9	...........
	68	0.92	3.96946E-001	-8.87759E-005	0.00000E+000	-3.52392E-005	-5.39641E-002	3.96984E-001	3.57200E+000	9	...........
	69	0.933333	3.91923E-001	-8.86363E-005	0.00000E+000	-3.47386E-005	-5.39641E-002	3.91957E-001	3.57200E+000	9	...........
	70	0.946667	3.86933E-001	-8.86634E-005	0.00000E+000	-3.43068E-005	-5.39641E-002	3.86966E-001	3.57200E+000	9	...........
	71	0.96	3.81953E-001	-8.89999E-005	0.00000E+000	-3.39938E-005	-5.39641E-002	3.81989E-001	3.57200E+000	9	...........
	72	0.97333	3.77000E-001	-8.88134E-005	0.00000E+000	-3.34827E-005	-5.39641E-002	3.77032E-001	3.57200E+000	9	...........
	73	0.98667	3.72053E-001	-8.88530E-005	0.00000E+000	-3.30581E-005	-5.39641E-002	3.72083E-001	3.57200E+000	9	...........
	74	1	3.67133E-001	-8.88103E-005	0.00000E+000	-3.26052E-005	-5.39641E-002	3.67170E-001	3.57200E+000	9	...........
	75	1.01333	3.62237E-001	-8.89155E-005	0.00000E+000	-3.22085E-005	-5.39641E-002	3.62271E-001	3.57200E+000	9	...........
	76	1.02667	3.57356E-001	-8.85832E-005	0.00000E+000	-3.16557E-005	-5.39641E-002	3.57390E-001	3.57200E+000	9	...........
	77	1.04	3.52506E-001	-8.84790E-005	0.00000E+000	-3.11894E-005	-5.39641E-002	3.52542E-001	3.57200E+000	9	...........
	78	1.05333	3.47676E-001	-8.85790E-005	0.00000E+000	-3.07968E-005	-5.39641E-002	3.47709E-001	3.57200E+000	9	...........
	79	1.06667	3.42866E-001	-8.84873E-005	0.00000E+000	-3.03393E-005	-5.39641E-002	3.42902E-001	3.57200E+000	9	...........
	80	1.08	3.38087E-001	-8.86863E-005	0.00000E+000	-2.99837E-005	-5.39641E-002	3.38120E-001	3.57200E+000	9	...........
	81	1.09333	3.33325E-001	-8.85800E-005	0.00000E+000	-2.95260E-005	-5.39641E-002	3.33362E-001	3.57200E+000	9	...........
	82	1.10667	3.28591E-001	-8.88270E-005	0.00000E+000	-2.91877E-005	-5.39641E-002	3.28621E-001	3.57200E+000	9	...........
	83	1.12	3.23898E-001	-8.86446E-005	0.00000E+000	-2.87118E-005	-5.39641E-002	3.23924E-001	3.57200E+000	9	...........
	84	1.13333	3.19225E-001	-8.87259E-005	0.00000E+000	-2.83235E-005	-5.39641E-002	3.19254E-001	3.57200E+000	9	...........
	85	1.14667	3.14556E-001	-8.85842E-005	0.00000E+000	-2.78647E-005	-5.39641E-002	3.14582E-001	3.57200E+000	9	...........
	86	1.16	3.09925E-001	-8.86301E-005	0.00000E+000	-2.74686E-005	-5.39641E-002	3.09950E-001	3.57200E+000	9	...........
	87	1.17333	3.05338E-001	-8.86936E-005	0.00000E+000	-2.70816E-005	-5.39641E-002	3.05366E-001	3.57200E+000	9	...........
	88	1.18667	3.00758E-001	-8.84342E-005	0.00000E+000	-2.65972E-005	-5.39641E-002	3.00787E-001	3.57200E+000	9	...........
	89	1.2	2.96185E-001	-8.85769E-005	0.00000E+000	-2.62352E-005	-5.39641E-002	2.96217E-001	3.57200E+000	9	...........
	90	1.21333	2.91645E-001	-8.86176E-005	0.00000E+000	-2.58449E-005	-5.39641E-002	2.91664E-001	3.57200E+000	9	...........
	91	1.22667	2.87111E-001	-8.88447E-005	0.00000E+000	-2.55083E-005	-5.39641E-002	2.87138E-001	3.57200E+000	9	...........
	92	1.24	2.82612E-001	-8.87332E-005	0.00000E+000	-2.50770E-005	-5.39641E-002	2.82634E-001	3.57200E+000	9	...........
	93	1.25333	2.78130E-001	-8.86561E-005	0.00000E+000	-2.46579E-005	-5.39641E-002	2.78157E-001	3.57200E+000	9	...........
	94	1.26667	2.73682E-001	-8.85259E-005	0.00000E+000	-2.42279E-005	-5.39641E-002	2.73712E-001	3.57200E+000	9	...........
	95	1.28	2.69249E-001	-8.85675E-005	0.00000E+000	-2.38467E-005	-5.39641E-002	2.69275E-001	3.57200E+000	9	...........
	96	1.29333	2.64820E-001	-8.88166E-005	0.00000E+000	-2.35204E-005	-5.39641E-002	2.64846E-001	3.57200E+000	9	...........
	97	1.30667	2.60421E-001	-8.85957E-005	0.00000E+000	-2.30721E-005	-5.39641E-002	2.60443E-001	3.57200E+000	9	...........
	98	1.32	2.56036E-001	-8.85154E-005	0.00000E+000	-2.26631E-005	-5.39641E-002	2.56062E-001	3.57200E+000	9	...........
	99	1.33333	2.51678E-001	-8.86311E-005	0.00000E+000	-2.23065E-005	-5.39641E-002	2.51705E-001	3.57200E+000	9	...........
	100	1.34667	2.47358E-001	-8.86749E-005	0.00000E+000	-2.19345E-005	-5.39641E-002	2.47379E-001	3.57200E+000	9	...........
	101	1.36	2.43070E-001	-8.88041E-005	0.00000E+000	-2.15856E-005	-5.39641E-002	2.43088E-001	3.57200E+000	9	...........
	102	1.37333	2.38786E-001	-8.87197E-005	0.00000E+000	-2.11850E-005	-5.39641E-002	2.38802E-001	3.57200E+000	9	...........
	103	1.38667	2.34531E-001	-8.87155E-005	0.00000E+000	-2.08065E-005	-5.39641E-002	2.34552E-001	3.57200E+000	9	...........
	104	1.4	2.30293E-001	-8.86936E-005	0.00000E+000	-2.04255E-005	-5.39641E-002	2.30308E-001	3.57200E+000	9	...........
	105	1.41333	2.26072E-001	-8.84300E-005	0.00000E+000	-1.99916E-005	-5.39641E-002	2.26091E-001	3.57200E+000	9	...........
	106	1.42667	2.21869E-001	-8.85457E-005	0.00000E+000	-1.96455E-005	-5.39641E-002	2.21887E-001	3.57200E+000	9	...........
	107	1.44	2.17693E-001	-8.85436E-005	0.00000E+000	-1.92753E-005	-5.39641E-002	2.17708E-001	3.57155E+000	9	...........
	108	1.45333	2.13522E-001	-8.84738E-005	0.00000E+000	-1.88911E-005	-5.39641E-002	2.13537E-001	3.57140E+000	9	...........
	109	1.46667	2.09374E-001	-8.86373E-005	0.00000E+000	-1.85583E-005	-5.39641E-002	2.09390E-001	3.57140E+000	9	...........
	110	1.48	2.05246E-001	-8.87228E-005	0.00000E+000	-1.82100E-005	-5.39641E-002	2.05258E-001	3.57140E+000	9	...........
	111	1.49333	2.01112E-001	-8.83758E-005	0.00000E+000	-1.77734E-005	-5.39641E-002	2.01132E-001	3.57140E+000	9	...........
	112	1.50667	1.96998E-001	-8.87030E-005	0.00000E+000	-1.74743E-005	-5.39641E-002	1.97008E-001	3.57140E+000	9	...........
	113	1.52	1.92906E-001	-8.87395E-005	0.00000E+000	-1.71184E-005	-5.39641E-002	1.92918E-001	3.57140E+000	9	...........
	114	1.53333	1.88835E-001	-8.84102E-005	0.00000E+000	-1.66949E-005	-5.39641E-002	1.88852E-001	3.57140E+000	9	...........
	115	1.54667	1.84785E-001	-8.88395E-005	0.00000E+000	-1.64162E-005	-5.39641E-002	1.84795E-001	3.57140E+000	9	...........
	116	1.56	1.80735E-001	-8.82362E-005	0.00000E+000	-1.59474E-005	-5.39641E-002	1.80750E-001	3.57140E+000	9	...........
	117	1.57333	1.76716E-001	-8.86488E-005	0.00000E+000	-1.56656E-005	-5.39641E-002	1.76732E-001	3.57140E+000	9	...........
	118	1.58667	1.72718E-001	-8.85686E-005	0.00000E+000	-1.52974E-005	-5.39641E-002	1.72731E-001	3.57140E+000	9	...........
	119	1.6	1.68723E-001	-8.85425E-005	0.00000E+000	-1.49392E-005	-5.39641E-002	1.68737E-001	3.57140E+000	9	...........
	120	1.61333	1.64747E-001	-8.87718E-005	0.00000E+000	-1.46249E-005	-5.39641E-002	1.64754E-001	3.57140E+000	9	...........
	121	1.62667	1.60769E-001	-8.84842E-005	0.00000E+000	-1.42255E-005	-5.39641E-002	1.60782E-001	3.57140E+000	9	...........
	122	1.64	1.56825E-001	-8.85102E-005	0.00000E+000	-1.38806E-005	-5.39641E-002	1.56832E-001	3.57140E+000	9	...........
	123	1.65333	1.52907E-001	-8.89353E-005	0.00000E+000	-1.35988E-005	-5.39641E-002	1.52915E-001	3.57140E+000	9	...........
	124	1.66667	1.48999E-001	-8.83550E-005	0.00000E+000	-1.31648E-005	-5.39641E-002	1.49006E-001	3.57140E+000	9	...........
	125	1.68	1.45095E-001	-8.86384E-005	0.00000E+000	-1.28610E-005	-5.39641E-002	1.45099E-001	3.57140E+000	9	...........
	126	1.69333	1.41204E-001	-8.84144E-005	0.00000E+000	-1.24845E-005	-5.39641E-002	1.41215E-001	3.57140E+000	9	...........
	127	1.70667	1.37333E-001	-8.85842E-005	0.00000E+000	-1.21655E-005	-5.39641E-002	1.37338E-001	3.57140E+000	9	...........
	128	1.72	1.33481E-001	-8.85811E-005	0.00000E+000	-1.18239E-005	-5.39641E-002	1.33486E-001	3.57140E+000	9	...........
	129	1.73333	1.29647E-001	-8.88207E-005	0.00000E+000	-1.15154E-005	-5.39641E-002	1.29655E-001	3.57140E+000	9	...........
	130	1.74667	1.25800E-001	-8.86592E-005	0.00000E+000	-1.11534E-005	-5.39641E-002	1.25806E-001	3.57140E+000	9	...........
	131	1.76	1.21971E-001	-8.88030E-005	0.00000E+000	-1.08314E-005	-5.39641E-002	1.21974E-001	3.57140E+000	9	...........
	132	1.77333	1.18161E-001	-8.86384E-005	0.00000E+000	-1.04736E-005	-5.39641E-002	1.18166E-001	3.57140E+000	9	...........
	133	1.78667	1.14359E-001	-8.86957E-005	0.00000E+000	-1.01432E-005	-5.39641E-002	1.14362E-001	3.57140E+000	9	...........
	134	1.8	1.10556E-001	-8.88218E-005	0.00000E+000	-9.81977E-006	-5.39641E-002	1.10570E-001	3.57140E+000	9	...........
	135	1.81333	1.06780E-001	-8.84311E-005	0.00000E+000	-9.44264E-006	-5.39641E-002	1.06791E-001	3.57140E+000	9	...........
	136	1.82667	1.03019E-001	-8.86592E-005	0.00000E+000	-9.13357E-006	-5.39641E-002	1.03023E-001	3.57140E+000	9	...........
	137	1.84	9.92576E-002	-8.87363E-005	0.00000E+000	-8.80775E-006	-5.39641E-002	9.92682E-002	3.57140E+000	9	...........
	138	1.85333	9.55280E-002	-8.84019E-005	0.00000E+000	-8.44485E-006	-5.39641E-002	9.55303E-002	3.57140E+000	9	...........
	139	1.86667	9.18141E-002	-8.85134E-005	0.00000E+000	-8.12677E-006	-5.39641E-002	9.18178E-002	3.57140E+000	9	...........
	140	1.88	8.81161E-002	-8.85029E-005	0.00000E+000	-7.79853E-006	-5.39641E-002	8.81248E-002	3.57140E+000	9	...........
	141	1.89333	8.44362E-002	-8.84488E-005	0.00000E+000	-7.46828E-006	-5.39641E-002	8.44413E-002	3.57140E+000	9	...........
	142	1.90667	8.07718E-002	-8.86707E-005	0.00000E+000	-7.16209E-006	-5.39641E-002	8.07691E-002	3.57140E+000	9	...........
	143	1.92	7.71145E-002	-8.86269E-005	0.00000E+000	-6.83442E-006	-5.39641E-002	7.71176E-002	3.57140E+000	9	...........
	144	1.93333	7.34924E-002	-8.85707E-005	0.00000E+000	-6.50927E-006	-5.39641E-002	7.34918E-002	3.57140E+000	9	...........
	145	1.94667	6.98788E-002	-8.85519E-005	0.00000E+000	-6.18790E-006	-5.39641E-002	6.98770E-002	3.57140E+000	9	...........
	146	1.96	6.62741E-002	-8.85352E-005	0.00000E+000	-5.86759E-006	-5.39641E-002	6.62729E-002	3.57140E+000	9	...........
	147	1.97333	6.26892E-002	-8.85415E-005	0.00000E+000	-5.55060E-006	-5.39641E-002	6.26826E-002	3.57140E+000	9	...........
	148	1.98667	5.90964E-002	-8.85998E-005	0.00000E+000	-5.23593E-006	-5.39641E-002	5.90971E-002	3.57140E+000	9	...........
	149	2	5.55261E-002	-8.88572E-005	0.00000E+000	-4.93389E-006	-5.39641E-002	5.55246E-002	3.57140E+000	9	...........
	150	2.01333	5.19672E-002	-8.87280E-005	0.00000E+000	-4.61095E-006	-5.39641E-002	5.19575E-002	3.57140E+000	9	...........
	151	2.02667	4.84336E-002	-8.87040E-005	0.00000E+000	-4.29626E-006	-5.39641E-002	4.84291E-002	3.57140E+000	9	...........
	152	2.04	4.49330E-002	-8.83394E-005	0.00000E+000	-3.96936E-006	-5.39641E-002	4.49408E-002	3.57140E+000	9	...........
	153	2.05333	4.14423E-002	-8.88353E-005	0.00000E+000	-3.68154E-006	-5.39641E-002	4.14543E-002	3.57140E+000	9	...........
	154	2.06667	3.79701E-002	-8.85852E-005	0.00000E+000	-3.36359E-006	-5.39641E-002	3.79723E-002	3.57140E+000	9	...........
	155	2.08	3.45194E-002	-8.84394E-005	0.00000E+000	-3.05288E-006	-5.39641E-002	3.45178E-002	3.57140E+000	9	...........
	156	2.09333	3.10811E-002	-8.86290E-005	0.00000E+000	-2.75469E-006	-5.39641E-002	3.10788E-002	3.57140E+000	9	...........
	157	2.10667	2.76627E-002	-8.87103E-005	0.00000E+000	-2.45396E-006	-5.39641E-002	2.76568E-002	3.57140E+000	9	...........
	158	2.12	2.42529E-002	-8.86280E-005	0.00000E+000	-2.14949E-006	-5.39641E-002	2.42485E-002	3.57140E+000	9	...........
	159	2.13333	2.08574E-002	-8.87790E-005	0.00000E+000	-1.85170E-006	-5.39641E-002	2.08516E-002	3.57140E+000	9	...........
	160	2.14667	1.74704E-002	-8.86061E-005	0.00000E+000	-1.54798E-006	-5.39641E-002	1.74654E-002	3.57140E+000	9	...........
	161	2.16	1.41019E-002	-8.85925E-005	0.00000E+000	-1.24932E-006	-5.39641E-002	1.40896E-002	3.57140E+000	9	...........
	162	2.17333	1.07518E-002	-8.87770E-005	0.00000E+000	-9.54512E-007	-5.39641E-002	1.07447E-002	3.57140E+000	9	...........
	163	2.18667	7.43520E-003	-8.85592E-005	0.00000E+000	-6.58455E-007	-5.39641E-002	7.42024E-003	3.57140E+000	9	...........
	164	2.2	4.14338E-003	-8.88207E-005	0.00000E+000	-3.68018E-007	-5.39641E-002	4.13157E-003	3.57140E+000	9	...........
	165	2.21167	1.08081E-003	-8.86356E-005	0.00000E+000	-9.57985E-008	-5.39641E-002	1.06164E-003	3.57140E+000	9	...........
STARTTIMEOFFSET	QUANT	388.6683	Start Time Offset (s)
