EXPLAIN
TAG	PWR800_DISCHARGE
TITLE	LABEL	PWR Cyclic Charge Discharge (Cell) - Discharge Step	Test &Identifier
DATE	LABEL	10-7-2017	Date
TIME	LABEL	15:04:04	Time
NOTES	NOTES	3	&Notes...
	supercap test cell
	0.9mg
	6M KOH
PSTAT	PSTAT	IFC5000-01520	Potentiostat
CAPACITY	QUANT	1.00000E-003	Capacity (A-hr)
CELLTYPE	SELECTOR	1	&Cell Type
WORKINGCONNECTION	SELECTOR	0	&Working Lead
MAXDISCHARGETIME	VARIABLEANDUNITS	1.00000E+002	s	1.00000E+002	second(s)	Max &Discharge Time
DISCHARGEMODE	MULTIPARAM	0	9.00000E-005	&Discharge Mode	Constant Current	Amp(s)
SAMPLETIME	QUANT	1.00000E-002	Sa&mple Period (s)
DISCHARGESTOPAT1	MULTIPARAM	3	0.00000E+000	Discharge Stop At &1	Voltage < Limit	V
DISCHARGESTOPAT2	MULTIPARAM	0	0.00000E+000	Discharge Stop At &2	None	N/A
AESBHCSELECTOR	TOGGLE	F	Save Both Half Cells
IRCOMP	TOGGLE	F	IR &Measure
EOC	QUANT	0	Open Circuit (V)
SEQUENCER	TOGGLE	TRUE	Run as Sequence
PSTATMODEL	IQUANT	53	Pstat Model
PSTATSECTION	LABEL	IFC5000-01520	Pstat Section
PSTATSERIALNO	LABEL	01520	Pstat Serial Number
CTRLMODE	IQUANT	0	Control Mode
ELECTROMETER	IQUANT	1	RE=0 or CS=1
IESTAB	IQUANT	0	I/E Stability
CASPEED	IQUANT	4	Control Amp Speed
CONVENTION	IQUANT	1	Current Convention
ICHRANGE	IQUANT	2	Ich Range
ICHRANGEMODE	TOGGLE	T	Ich Auto Range
ICHOFFSETENABLE	TOGGLE	F	Ich Offset Enable
ICHOFFSET	QUANT	0	Ich Offset (V)
ICHFILTER	IQUANT	1	Ich Filter
VCHRANGE	IQUANT	2	Vch Range
VCHRANGEMODE	TOGGLE	T	Vch Auto Range
VCHOFFSETENABLE	TOGGLE	F	Vch Offset Enable
VCHOFFSET	QUANT	0	Vch Offset (V)
VCHFILTER	IQUANT	1	Vch Filter
IERANGELOWERLIMIT	IQUANT	9	I/E Range Lower Limit
IERANGEMODE	TOGGLE	F	I/E AutoRange
IERANGE	IQUANT	9	I/E Range
ACHSELECT	IQUANT	1	Ach Select
ACHRANGE	IQUANT	2	Ach Range
ACHOFFSETENABLE	TOGGLE	F	Ach Offset Enable
ACHOFFSET	QUANT	0	Ach Offset (V)
ACHFILTER	IQUANT	1	Ach Filter
CABLEID	IQUANT	14	Cable ID
DCCALDATE	LABEL	5-7-2017	DC Calibration Date
ACCALDATE	LABEL	12/3/2015	AC Calibration Date
FRAMEWORKVERSION	QUANT	7.01	Framework Version
INSTRUMENTVERSION	LABEL	4.00	Instrument Version
CURVE	TABLE	170
	Pt	T	Vf	Im	Vu	Pwr	Sig	Ach	Temp	IERange	Over
	#	s	V	A	V	W	V	V	deg C	#	bits
	0	0.013333	8.45404E-001	-8.84404E-005	0.00000E+000	-7.47679E-005	-5.39641E-002	8.45497E-001	3.57160E+000	9	...........
	1	0.026667	8.34344E-001	-8.84800E-005	0.00000E+000	-7.38227E-005	-5.39641E-002	8.34456E-001	3.57160E+000	9	...........
	2	0.04	8.23895E-001	-8.83727E-005	0.00000E+000	-7.28098E-005	-5.39641E-002	8.23995E-001	3.57160E+000	9	...........
	3	0.053333	8.13887E-001	-8.86405E-005	0.00000E+000	-7.21434E-005	-5.39641E-002	8.13978E-001	3.57160E+000	9	...........
	4	0.066667	8.04297E-001	-8.86519E-005	0.00000E+000	-7.13025E-005	-5.39641E-002	8.04398E-001	3.57160E+000	9	...........
	5	0.08	7.95002E-001	-8.85227E-005	0.00000E+000	-7.03757E-005	-5.39641E-002	7.95094E-001	3.57160E+000	9	...........
	6	0.093333	7.85997E-001	-8.87405E-005	0.00000E+000	-6.97498E-005	-5.39641E-002	7.86062E-001	3.57160E+000	9	...........
	7	0.106667	7.77240E-001	-8.85280E-005	0.00000E+000	-6.88075E-005	-5.39641E-002	7.77327E-001	3.57160E+000	9	...........
	8	0.12	7.68686E-001	-8.85425E-005	0.00000E+000	-6.80614E-005	-5.39641E-002	7.68775E-001	3.57160E+000	9	...........
	9	0.133333	7.60346E-001	-8.83289E-005	0.00000E+000	-6.71606E-005	-5.39641E-002	7.60406E-001	3.57160E+000	9	...........
	10	0.146667	7.52207E-001	-8.86884E-005	0.00000E+000	-6.67120E-005	-5.39641E-002	7.52260E-001	3.57160E+000	9	...........
	11	0.16	7.44217E-001	-8.84706E-005	0.00000E+000	-6.58413E-005	-5.39641E-002	7.44281E-001	3.57160E+000	9	...........
	12	0.173333	7.36361E-001	-8.85582E-005	0.00000E+000	-6.52108E-005	-5.39641E-002	7.36441E-001	3.57160E+000	9	...........
	13	0.186667	7.28716E-001	-8.85446E-005	0.00000E+000	-6.45239E-005	-5.39641E-002	7.28798E-001	3.57160E+000	9	...........
	14	0.2	7.21180E-001	-8.84186E-005	0.00000E+000	-6.37657E-005	-5.39641E-002	7.21265E-001	3.57160E+000	9	...........
	15	0.213333	7.13725E-001	-8.84352E-005	0.00000E+000	-6.31185E-005	-5.39641E-002	7.13839E-001	3.57160E+000	9	...........
	16	0.226667	7.06465E-001	-8.86728E-005	0.00000E+000	-6.26442E-005	-5.39641E-002	7.06583E-001	3.57160E+000	9	...........
	17	0.24	6.99304E-001	-8.86290E-005	0.00000E+000	-6.19786E-005	-5.39641E-002	6.99388E-001	3.57160E+000	9	...........
	18	0.253333	6.92246E-001	-8.85967E-005	0.00000E+000	-6.13307E-005	-5.39641E-002	6.92347E-001	3.57160E+000	9	...........
	19	0.266667	6.85273E-001	-8.89124E-005	0.00000E+000	-6.09293E-005	-5.39641E-002	6.85362E-001	3.57160E+000	9	...........
	20	0.28	6.78423E-001	-8.87426E-005	0.00000E+000	-6.02050E-005	-5.39641E-002	6.78519E-001	3.57160E+000	9	...........
	21	0.293333	6.71620E-001	-8.86759E-005	0.00000E+000	-5.95565E-005	-5.39641E-002	6.71728E-001	3.57160E+000	9	...........
	22	0.306667	6.64957E-001	-8.83904E-005	0.00000E+000	-5.87758E-005	-5.39641E-002	6.65039E-001	3.57160E+000	9	...........
	23	0.32	6.58350E-001	-8.84331E-005	0.00000E+000	-5.82199E-005	-5.39641E-002	6.58426E-001	3.57160E+000	9	...........
	24	0.333333	6.51791E-001	-8.89155E-005	0.00000E+000	-5.79543E-005	-5.39641E-002	6.51898E-001	3.57160E+000	9	...........
	25	0.346667	6.45311E-001	-8.86353E-005	0.00000E+000	-5.71973E-005	-5.39641E-002	6.45391E-001	3.57160E+000	9	...........
	26	0.36	6.38915E-001	-8.85634E-005	0.00000E+000	-5.65845E-005	-5.39641E-002	6.39013E-001	3.57160E+000	9	...........
	27	0.373333	6.32576E-001	-8.86738E-005	0.00000E+000	-5.60930E-005	-5.39641E-002	6.32674E-001	3.57160E+000	9	...........
	28	0.386667	6.26337E-001	-8.86926E-005	0.00000E+000	-5.55514E-005	-5.39641E-002	6.26413E-001	3.57160E+000	9	...........
	29	0.4	6.20147E-001	-8.83571E-005	0.00000E+000	-5.47944E-005	-5.39641E-002	6.20188E-001	3.57160E+000	9	...........
	30	0.413333	6.13962E-001	-8.87353E-005	0.00000E+000	-5.44801E-005	-5.39641E-002	6.14069E-001	3.57160E+000	9	...........
	31	0.426667	6.07861E-001	-8.84696E-005	0.00000E+000	-5.37772E-005	-5.39641E-002	6.07946E-001	3.57160E+000	9	...........
	32	0.44	6.01799E-001	-8.84102E-005	0.00000E+000	-5.32052E-005	-5.39641E-002	6.01897E-001	3.57160E+000	9	...........
	33	0.453333	5.95823E-001	-8.84123E-005	0.00000E+000	-5.26781E-005	-5.39641E-002	5.95890E-001	3.57160E+000	9	...........
	34	0.466667	5.89873E-001	-8.87499E-005	0.00000E+000	-5.23512E-005	-5.39641E-002	5.89963E-001	3.57160E+000	9	...........
	35	0.48	5.83938E-001	-8.85623E-005	0.00000E+000	-5.17150E-005	-5.39641E-002	5.84005E-001	3.57160E+000	9	...........
	36	0.493333	5.78089E-001	-8.85561E-005	0.00000E+000	-5.11933E-005	-5.39641E-002	5.78176E-001	3.57160E+000	9	...........
	37	0.506667	5.72272E-001	-8.86728E-005	0.00000E+000	-5.07449E-005	-5.39641E-002	5.72321E-001	3.57160E+000	9	...........
	38	0.52	5.66517E-001	-8.87134E-005	0.00000E+000	-5.02577E-005	-5.39641E-002	5.66586E-001	3.57160E+000	9	...........
	39	0.533333	5.60747E-001	-8.85519E-005	0.00000E+000	-4.96553E-005	-5.39641E-002	5.60830E-001	3.57160E+000	9	...........
	40	0.546667	5.55038E-001	-8.84300E-005	0.00000E+000	-4.90820E-005	-5.39641E-002	5.55117E-001	3.57110E+000	9	...........
	41	0.56	5.49392E-001	-8.86988E-005	0.00000E+000	-4.87304E-005	-5.39641E-002	5.49459E-001	3.57110E+000	9	...........
	42	0.573333	5.43740E-001	-8.85196E-005	0.00000E+000	-4.81316E-005	-5.39641E-002	5.43819E-001	3.57110E+000	9	...........
	43	0.586667	5.38150E-001	-8.84706E-005	0.00000E+000	-4.76105E-005	-5.39641E-002	5.38241E-001	3.57110E+000	9	...........
	44	0.6	5.32555E-001	-8.86238E-005	0.00000E+000	-4.71970E-005	-5.39641E-002	5.32649E-001	3.57110E+000	9	...........
	45	0.613333	5.27022E-001	-8.87915E-005	0.00000E+000	-4.67951E-005	-5.39641E-002	5.27099E-001	3.57110E+000	9	...........
	46	0.626667	5.21498E-001	-8.86186E-005	0.00000E+000	-4.62144E-005	-5.39641E-002	5.21571E-001	3.57110E+000	9	...........
	47	0.64	5.15986E-001	-8.87082E-005	0.00000E+000	-4.57722E-005	-5.39641E-002	5.16073E-001	3.57110E+000	9	...........
	48	0.653333	5.10496E-001	-8.82664E-005	0.00000E+000	-4.50597E-005	-5.39641E-002	5.10575E-001	3.57110E+000	9	...........
	49	0.666667	5.05017E-001	-8.87665E-005	0.00000E+000	-4.48286E-005	-5.39641E-002	5.05116E-001	3.57110E+000	9	...........
	50	0.68	4.99620E-001	-8.85269E-005	0.00000E+000	-4.42298E-005	-5.39641E-002	4.99694E-001	3.57110E+000	9	...........
	51	0.693333	4.94222E-001	-8.84759E-005	0.00000E+000	-4.37267E-005	-5.39641E-002	4.94278E-001	3.57110E+000	9	...........
	52	0.706667	4.88851E-001	-8.84811E-005	0.00000E+000	-4.32540E-005	-5.39641E-002	4.88919E-001	3.57110E+000	9	...........
	53	0.72	4.83520E-001	-8.84717E-005	0.00000E+000	-4.27778E-005	-5.39641E-002	4.83585E-001	3.57110E+000	9	...........
	54	0.733333	4.78200E-001	-8.84842E-005	0.00000E+000	-4.23131E-005	-5.39641E-002	4.78251E-001	3.57110E+000	9	...........
	55	0.746667	4.72869E-001	-8.84852E-005	0.00000E+000	-4.18419E-005	-5.39641E-002	4.72917E-001	3.57110E+000	9	...........
	56	0.76	4.67557E-001	-8.84217E-005	0.00000E+000	-4.13422E-005	-5.39641E-002	4.67601E-001	3.57110E+000	9	...........
	57	0.773333	4.62290E-001	-8.85290E-005	0.00000E+000	-4.09260E-005	-5.39641E-002	4.62331E-001	3.57110E+000	9	...........
	58	0.786667	4.57045E-001	-8.84196E-005	0.00000E+000	-4.04117E-005	-5.39641E-002	4.57094E-001	3.57110E+000	9	...........
	59	0.8	4.51830E-001	-8.84467E-005	0.00000E+000	-3.99628E-005	-5.39641E-002	4.51875E-001	3.57110E+000	9	...........
	60	0.813333	4.46629E-001	-8.88301E-005	0.00000E+000	-3.96741E-005	-5.39641E-002	4.46676E-001	3.57110E+000	9	...........
	61	0.826667	4.41454E-001	-8.88864E-005	0.00000E+000	-3.92392E-005	-5.39641E-002	4.41501E-001	3.57110E+000	9	...........
	62	0.84	4.36295E-001	-8.86582E-005	0.00000E+000	-3.86811E-005	-5.39641E-002	4.36344E-001	3.57110E+000	9	...........
	63	0.853333	4.31158E-001	-8.86551E-005	0.00000E+000	-3.82243E-005	-5.39641E-002	4.31199E-001	3.57110E+000	9	...........
	64	0.866667	4.26035E-001	-8.85477E-005	0.00000E+000	-3.77244E-005	-5.39641E-002	4.26076E-001	3.57110E+000	9	...........
	65	0.88	4.20944E-001	-8.86040E-005	0.00000E+000	-3.72973E-005	-5.39641E-002	4.20991E-001	3.57110E+000	9	...........
	66	0.893333	4.15896E-001	-8.85623E-005	0.00000E+000	-3.68327E-005	-5.39641E-002	4.15936E-001	3.57110E+000	9	...........
	67	0.906667	4.10862E-001	-8.86436E-005	0.00000E+000	-3.64203E-005	-5.39641E-002	4.10897E-001	3.57110E+000	9	...........
	68	0.92	4.05841E-001	-8.87030E-005	0.00000E+000	-3.59993E-005	-5.39641E-002	4.05874E-001	3.57110E+000	9	...........
	69	0.933333	4.00844E-001	-8.86311E-005	0.00000E+000	-3.55272E-005	-5.39641E-002	4.00879E-001	3.57110E+000	9	...........
	70	0.946667	3.95858E-001	-8.85519E-005	0.00000E+000	-3.50540E-005	-5.39641E-002	3.95895E-001	3.57110E+000	9	...........
	71	0.96	3.90905E-001	-8.84967E-005	0.00000E+000	-3.45938E-005	-5.39641E-002	3.90933E-001	3.57110E+000	9	...........
	72	0.97333	3.85967E-001	-8.85405E-005	0.00000E+000	-3.41737E-005	-5.39641E-002	3.86001E-001	3.57110E+000	9	...........
	73	0.98667	3.81043E-001	-8.87572E-005	0.00000E+000	-3.38203E-005	-5.39641E-002	3.81070E-001	3.57110E+000	9	...........
	74	1	3.76144E-001	-8.82873E-005	0.00000E+000	-3.32088E-005	-5.39641E-002	3.76182E-001	3.57110E+000	9	...........
	75	1.01333	3.71285E-001	-8.87269E-005	0.00000E+000	-3.29430E-005	-5.39641E-002	3.71311E-001	3.57110E+000	9	...........
	76	1.02667	3.66445E-001	-8.86957E-005	0.00000E+000	-3.25021E-005	-5.39641E-002	3.66478E-001	3.57110E+000	9	...........
	77	1.04	3.61639E-001	-8.84529E-005	0.00000E+000	-3.19880E-005	-5.39641E-002	3.61672E-001	3.57110E+000	9	...........
	78	1.05333	3.56842E-001	-8.87259E-005	0.00000E+000	-3.16611E-005	-5.39641E-002	3.56871E-001	3.57110E+000	9	...........
	79	1.06667	3.52080E-001	-8.87561E-005	0.00000E+000	-3.12493E-005	-5.39641E-002	3.52109E-001	3.57110E+000	9	...........
	80	1.08	3.47339E-001	-8.85717E-005	0.00000E+000	-3.07644E-005	-5.39641E-002	3.47370E-001	3.57110E+000	9	...........
	81	1.09333	3.42633E-001	-8.85509E-005	0.00000E+000	-3.03404E-005	-5.39641E-002	3.42658E-001	3.57110E+000	9	...........
	82	1.10667	3.37938E-001	-8.85477E-005	0.00000E+000	-2.99237E-005	-5.39641E-002	3.37970E-001	3.57110E+000	9	...........
	83	1.12	3.33280E-001	-8.86384E-005	0.00000E+000	-2.95414E-005	-5.39641E-002	3.33308E-001	3.57110E+000	9	...........
	84	1.13333	3.28646E-001	-8.87436E-005	0.00000E+000	-2.91653E-005	-5.39641E-002	3.28672E-001	3.57110E+000	9	...........
	85	1.14667	3.24043E-001	-8.85134E-005	0.00000E+000	-2.86822E-005	-5.39641E-002	3.24069E-001	3.57110E+000	9	...........
	86	1.16	3.19447E-001	-8.86092E-005	0.00000E+000	-2.83059E-005	-5.39641E-002	3.19477E-001	3.57110E+000	9	...........
	87	1.17333	3.14883E-001	-8.84957E-005	0.00000E+000	-2.78658E-005	-5.39641E-002	3.14913E-001	3.57110E+000	9	...........
	88	1.18667	3.10341E-001	-8.86269E-005	0.00000E+000	-2.75046E-005	-5.39641E-002	3.10367E-001	3.57110E+000	9	...........
	89	1.2	3.05802E-001	-8.85978E-005	0.00000E+000	-2.70934E-005	-5.39641E-002	3.05832E-001	3.57110E+000	9	...........
	90	1.21333	3.01300E-001	-8.86978E-005	0.00000E+000	-2.67247E-005	-5.39641E-002	3.01325E-001	3.57110E+000	9	...........
	91	1.22667	2.96818E-001	-8.86749E-005	0.00000E+000	-2.63203E-005	-5.39641E-002	2.96843E-001	3.57110E+000	9	...........
	92	1.24	2.92347E-001	-8.86603E-005	0.00000E+000	-2.59196E-005	-5.39641E-002	2.92374E-001	3.57110E+000	9	...........
	93	1.25333	2.87899E-001	-8.87374E-005	0.00000E+000	-2.55474E-005	-5.39641E-002	2.87927E-001	3.57110E+000	9	...........
	94	1.26667	2.83468E-001	-8.86842E-005	0.00000E+000	-2.51392E-005	-5.39641E-002	2.83496E-001	3.57110E+000	9	...........
	95	1.28	2.79073E-001	-8.85915E-005	0.00000E+000	-2.47235E-005	-5.39641E-002	2.79095E-001	3.57110E+000	9	...........
	96	1.29333	2.74695E-001	-8.86936E-005	0.00000E+000	-2.43637E-005	-5.39641E-002	2.74715E-001	3.57110E+000	9	...........
	97	1.30667	2.70341E-001	-8.84540E-005	0.00000E+000	-2.39127E-005	-5.39641E-002	2.70360E-001	3.57110E+000	9	...........
	98	1.32	2.66000E-001	-8.87280E-005	0.00000E+000	-2.36016E-005	-5.39641E-002	2.66025E-001	3.57110E+000	9	...........
	99	1.33333	2.61680E-001	-8.85780E-005	0.00000E+000	-2.31791E-005	-5.39641E-002	2.61706E-001	3.57110E+000	9	...........
	100	1.34667	2.57384E-001	-8.89051E-005	0.00000E+000	-2.28827E-005	-5.39641E-002	2.57405E-001	3.57110E+000	9	...........
	101	1.36	2.53109E-001	-8.88311E-005	0.00000E+000	-2.24840E-005	-5.39641E-002	2.53128E-001	3.57110E+000	9	...........
	102	1.37333	2.48851E-001	-8.86071E-005	0.00000E+000	-2.20500E-005	-5.39641E-002	2.48868E-001	3.57110E+000	9	...........
	103	1.38667	2.44618E-001	-8.85905E-005	0.00000E+000	-2.16708E-005	-5.39641E-002	2.44633E-001	3.57110E+000	9	...........
	104	1.4	2.40398E-001	-8.82883E-005	0.00000E+000	-2.12243E-005	-5.39641E-002	2.40413E-001	3.57110E+000	9	...........
	105	1.41333	2.36211E-001	-8.85477E-005	0.00000E+000	-2.09159E-005	-5.39641E-002	2.36228E-001	3.57110E+000	9	...........
	106	1.42667	2.32047E-001	-8.84811E-005	0.00000E+000	-2.05317E-005	-5.39641E-002	2.32062E-001	3.57110E+000	9	...........
	107	1.44	2.27894E-001	-8.89447E-005	0.00000E+000	-2.02700E-005	-5.39641E-002	2.27911E-001	3.57110E+000	9	...........
	108	1.45333	2.23753E-001	-8.86176E-005	0.00000E+000	-1.98284E-005	-5.39641E-002	2.23772E-001	3.57110E+000	9	...........
	109	1.46667	2.19613E-001	-8.85842E-005	0.00000E+000	-1.94543E-005	-5.39641E-002	2.19635E-001	3.57110E+000	9	...........
	110	1.48	2.15500E-001	-8.86134E-005	0.00000E+000	-1.90962E-005	-5.39641E-002	2.15512E-001	3.57110E+000	9	...........
	111	1.49333	2.11403E-001	-8.85467E-005	0.00000E+000	-1.87190E-005	-5.39641E-002	2.11419E-001	3.57110E+000	9	...........
	112	1.50667	2.07327E-001	-8.88061E-005	0.00000E+000	-1.84119E-005	-5.39641E-002	2.07339E-001	3.57110E+000	9	...........
	113	1.52	2.03279E-001	-8.87467E-005	0.00000E+000	-1.80403E-005	-5.39641E-002	2.03297E-001	3.57110E+000	9	...........
	114	1.53333	1.99266E-001	-8.88478E-005	0.00000E+000	-1.77044E-005	-5.39641E-002	1.99281E-001	3.57110E+000	9	...........
	115	1.54667	1.95256E-001	-8.84686E-005	0.00000E+000	-1.72740E-005	-5.39641E-002	1.95274E-001	3.57110E+000	9	...........
	116	1.56	1.91260E-001	-8.86905E-005	0.00000E+000	-1.69629E-005	-5.39641E-002	1.91269E-001	3.57110E+000	9	...........
	117	1.57333	1.87284E-001	-8.87155E-005	0.00000E+000	-1.66150E-005	-5.39641E-002	1.87294E-001	3.57110E+000	9	...........
	118	1.58667	1.83302E-001	-8.85811E-005	0.00000E+000	-1.62371E-005	-5.39641E-002	1.83321E-001	3.57110E+000	9	...........
	119	1.6	1.79337E-001	-8.87301E-005	0.00000E+000	-1.59126E-005	-5.39641E-002	1.79349E-001	3.57110E+000	9	...........
	120	1.61333	1.75375E-001	-8.86394E-005	0.00000E+000	-1.55452E-005	-5.39641E-002	1.75386E-001	3.57110E+000	9	...........
	121	1.62667	1.71425E-001	-8.83519E-005	0.00000E+000	-1.51457E-005	-5.39641E-002	1.71438E-001	3.57110E+000	9	...........
	122	1.64	1.67511E-001	-8.84394E-005	0.00000E+000	-1.48145E-005	-5.39641E-002	1.67525E-001	3.57110E+000	9	...........
	123	1.65333	1.63590E-001	-8.87728E-005	0.00000E+000	-1.45224E-005	-5.39641E-002	1.63608E-001	3.57110E+000	9	...........
	124	1.66667	1.59677E-001	-8.86707E-005	0.00000E+000	-1.41587E-005	-5.39641E-002	1.59685E-001	3.57110E+000	9	...........
	125	1.68	1.55784E-001	-8.86144E-005	0.00000E+000	-1.38047E-005	-5.39641E-002	1.55788E-001	3.57110E+000	9	...........
	126	1.69333	1.51907E-001	-8.85832E-005	0.00000E+000	-1.34564E-005	-5.39641E-002	1.51911E-001	3.57110E+000	9	...........
	127	1.70667	1.48049E-001	-8.87259E-005	0.00000E+000	-1.31358E-005	-5.39641E-002	1.48053E-001	3.57110E+000	9	...........
	128	1.72	1.44211E-001	-8.86988E-005	0.00000E+000	-1.27913E-005	-5.39641E-002	1.44216E-001	3.57110E+000	9	...........
	129	1.73333	1.40360E-001	-8.85290E-005	0.00000E+000	-1.24260E-005	-5.39641E-002	1.40373E-001	3.57110E+000	9	...........
	130	1.74667	1.36540E-001	-8.84706E-005	0.00000E+000	-1.20798E-005	-5.39641E-002	1.36551E-001	3.57110E+000	9	...........
	131	1.76	1.32735E-001	-8.89207E-005	0.00000E+000	-1.18029E-005	-5.39641E-002	1.32740E-001	3.57110E+000	9	...........
	132	1.77333	1.28949E-001	-8.86926E-005	0.00000E+000	-1.14368E-005	-5.39641E-002	1.28958E-001	3.57110E+000	9	...........
	133	1.78667	1.25189E-001	-8.83894E-005	0.00000E+000	-1.10654E-005	-5.39641E-002	1.25194E-001	3.57110E+000	9	...........
	134	1.8	1.21437E-001	-8.82852E-005	0.00000E+000	-1.07211E-005	-5.39641E-002	1.21450E-001	3.57110E+000	9	...........
	135	1.81333	1.17702E-001	-8.86801E-005	0.00000E+000	-1.04378E-005	-5.39641E-002	1.17708E-001	3.57110E+000	9	...........
	136	1.82667	1.13949E-001	-8.87843E-005	0.00000E+000	-1.01168E-005	-5.39641E-002	1.13966E-001	3.57110E+000	9	...........
	137	1.84	1.10241E-001	-8.86665E-005	0.00000E+000	-9.77469E-006	-5.39641E-002	1.10249E-001	3.57110E+000	9	...........
	138	1.85333	1.06527E-001	-8.87895E-005	0.00000E+000	-9.45845E-006	-5.39641E-002	1.06529E-001	3.57110E+000	9	...........
	139	1.86667	1.02835E-001	-8.86894E-005	0.00000E+000	-9.12037E-006	-5.39641E-002	1.02840E-001	3.57110E+000	9	...........
	140	1.88	9.91638E-002	-8.85644E-005	0.00000E+000	-8.78238E-006	-5.39641E-002	9.91767E-002	3.57110E+000	9	...........
	141	1.89333	9.55116E-002	-8.85655E-005	0.00000E+000	-8.45903E-006	-5.39641E-002	9.55123E-002	3.57110E+000	9	...........
	142	1.90667	9.18781E-002	-8.85082E-005	0.00000E+000	-8.13196E-006	-5.39641E-002	9.18866E-002	3.57110E+000	9	...........
	143	1.92	8.82403E-002	-8.83831E-005	0.00000E+000	-7.79895E-006	-5.39641E-002	8.82447E-002	3.57110E+000	9	...........
	144	1.93333	8.46080E-002	-8.86863E-005	0.00000E+000	-7.50357E-006	-5.39641E-002	8.46102E-002	3.57110E+000	9	...........
	145	1.94667	8.10147E-002	-8.86613E-005	0.00000E+000	-7.18287E-006	-5.39641E-002	8.10152E-002	3.57110E+000	9	...........
	146	1.96	7.74283E-002	-8.85154E-005	0.00000E+000	-6.85360E-006	-5.39641E-002	7.74258E-002	3.57110E+000	9	...........
	147	1.97333	7.38505E-002	-8.87415E-005	0.00000E+000	-6.55360E-006	-5.39641E-002	7.38485E-002	3.57110E+000	9	...........
	148	1.98667	7.02759E-002	-8.84508E-005	0.00000E+000	-6.21597E-006	-5.39641E-002	7.02723E-002	3.57110E+000	9	...........
	149	2	6.67255E-002	-8.89072E-005	0.00000E+000	-5.93238E-006	-5.39641E-002	6.67248E-002	3.57110E+000	9	...........
	150	2.01333	6.31963E-002	-8.84581E-005	0.00000E+000	-5.59023E-006	-5.39641E-002	6.31905E-002	3.57110E+000	9	...........
	151	2.02667	5.96709E-002	-8.85769E-005	0.00000E+000	-5.28547E-006	-5.39641E-002	5.96684E-002	3.57110E+000	9	...........
	152	2.04	5.61749E-002	-8.85707E-005	0.00000E+000	-4.97545E-006	-5.39641E-002	5.61651E-002	3.57110E+000	9	...........
	153	2.05333	5.26932E-002	-8.86488E-005	0.00000E+000	-4.67119E-006	-5.39641E-002	5.26890E-002	3.57110E+000	9	...........
	154	2.06667	4.92433E-002	-8.85925E-005	0.00000E+000	-4.36259E-006	-5.39641E-002	4.92411E-002	3.57110E+000	9	...........
	155	2.08	4.58139E-002	-8.85998E-005	0.00000E+000	-4.05910E-006	-5.39641E-002	4.58244E-002	3.57110E+000	9	...........
	156	2.09333	4.23993E-002	-8.84279E-005	0.00000E+000	-3.74929E-006	-5.39641E-002	4.24069E-002	3.57110E+000	9	...........
	157	2.10667	3.89942E-002	-8.84873E-005	0.00000E+000	-3.45049E-006	-5.39641E-002	3.89960E-002	3.57110E+000	9	...........
	158	2.12	3.55958E-002	-8.85509E-005	0.00000E+000	-3.15204E-006	-5.39641E-002	3.56007E-002	3.57110E+000	9	...........
	159	2.13333	3.22155E-002	-8.84936E-005	0.00000E+000	-2.85087E-006	-5.39641E-002	3.22251E-002	3.57110E+000	9	...........
	160	2.14667	2.88678E-002	-8.85550E-005	0.00000E+000	-2.55639E-006	-5.39641E-002	2.88683E-002	3.57110E+000	9	...........
	161	2.16	2.55438E-002	-8.87895E-005	0.00000E+000	-2.26802E-006	-5.39641E-002	2.55450E-002	3.57110E+000	9	...........
	162	2.17333	2.22541E-002	-8.87718E-005	0.00000E+000	-1.97553E-006	-5.39641E-002	2.22519E-002	3.57110E+000	9	...........
	163	2.18667	1.89491E-002	-8.83894E-005	0.00000E+000	-1.67490E-006	-5.39641E-002	1.89488E-002	3.57110E+000	9	...........
	164	2.2	1.56559E-002	-8.85321E-005	0.00000E+000	-1.38605E-006	-5.39641E-002	1.56512E-002	3.57110E+000	9	...........
	165	2.21333	1.23860E-002	-8.88499E-005	0.00000E+000	-1.10050E-006	-5.39641E-002	1.23736E-002	3.57110E+000	9	...........
	166	2.22667	9.14777E-003	-8.88009E-005	0.00000E+000	-8.12331E-007	-5.39641E-002	9.13796E-003	3.57110E+000	9	...........
	167	2.24	5.92229E-003	-8.86697E-005	0.00000E+000	-5.25128E-007	-5.39641E-002	5.90938E-003	3.57110E+000	9	...........
	168	2.25333	2.71912E-003	-8.85571E-005	0.00000E+000	-2.40798E-007	-5.39641E-002	2.70498E-003	3.57110E+000	9	...........
	169	2.26	3.33033E-004	-8.84456E-005	0.00000E+000	-2.94553E-008	-5.39641E-002	3.16628E-004	3.57110E+000	9	...........
STARTTIMEOFFSET	QUANT	244.7967	Start Time Offset (s)
