EXPLAIN
TAG	PWR800_DISCHARGE
TITLE	LABEL	PWR Cyclic Charge Discharge (Cell) - Discharge Step	Test &Identifier
DATE	LABEL	10-7-2017	Date
TIME	LABEL	15:41:42	Time
NOTES	NOTES	3	&Notes...
	supercap test cell
	0.9mg
	6M KOH
PSTAT	PSTAT	IFC5000-01520	Potentiostat
CAPACITY	QUANT	1.00000E-003	Capacity (A-hr)
CELLTYPE	SELECTOR	1	&Cell Type
WORKINGCONNECTION	SELECTOR	0	&Working Lead
MAXDISCHARGETIME	VARIABLEANDUNITS	1.00000E+002	s	1.00000E+002	second(s)	Max &Discharge Time
DISCHARGEMODE	MULTIPARAM	0	9.00000E-005	&Discharge Mode	Constant Current	Amp(s)
SAMPLETIME	QUANT	1.00000E-002	Sa&mple Period (s)
DISCHARGESTOPAT1	MULTIPARAM	3	0.00000E+000	Discharge Stop At &1	Voltage < Limit	V
DISCHARGESTOPAT2	MULTIPARAM	0	0.00000E+000	Discharge Stop At &2	None	N/A
AESBHCSELECTOR	TOGGLE	F	Save Both Half Cells
IRCOMP	TOGGLE	F	IR &Measure
EOC	QUANT	0	Open Circuit (V)
SEQUENCER	TOGGLE	TRUE	Run as Sequence
PSTATMODEL	IQUANT	53	Pstat Model
PSTATSECTION	LABEL	IFC5000-01520	Pstat Section
PSTATSERIALNO	LABEL	01520	Pstat Serial Number
CTRLMODE	IQUANT	0	Control Mode
ELECTROMETER	IQUANT	1	RE=0 or CS=1
IESTAB	IQUANT	0	I/E Stability
CASPEED	IQUANT	4	Control Amp Speed
CONVENTION	IQUANT	1	Current Convention
ICHRANGE	IQUANT	2	Ich Range
ICHRANGEMODE	TOGGLE	T	Ich Auto Range
ICHOFFSETENABLE	TOGGLE	F	Ich Offset Enable
ICHOFFSET	QUANT	0	Ich Offset (V)
ICHFILTER	IQUANT	1	Ich Filter
VCHRANGE	IQUANT	2	Vch Range
VCHRANGEMODE	TOGGLE	T	Vch Auto Range
VCHOFFSETENABLE	TOGGLE	F	Vch Offset Enable
VCHOFFSET	QUANT	0	Vch Offset (V)
VCHFILTER	IQUANT	1	Vch Filter
IERANGELOWERLIMIT	IQUANT	9	I/E Range Lower Limit
IERANGEMODE	TOGGLE	F	I/E AutoRange
IERANGE	IQUANT	9	I/E Range
ACHSELECT	IQUANT	1	Ach Select
ACHRANGE	IQUANT	2	Ach Range
ACHOFFSETENABLE	TOGGLE	F	Ach Offset Enable
ACHOFFSET	QUANT	0	Ach Offset (V)
ACHFILTER	IQUANT	1	Ach Filter
CABLEID	IQUANT	14	Cable ID
DCCALDATE	LABEL	5-7-2017	DC Calibration Date
ACCALDATE	LABEL	12/3/2015	AC Calibration Date
FRAMEWORKVERSION	QUANT	7.01	Framework Version
INSTRUMENTVERSION	LABEL	4.00	Instrument Version
CURVE	TABLE	153
	Pt	T	Vf	Im	Vu	Pwr	Sig	Ach	Temp	IERange	Over
	#	s	V	A	V	W	V	V	deg C	#	bits
	0	0.013333	8.12772E-001	-8.85936E-005	0.00000E+000	-7.20064E-005	-5.39641E-002	8.12936E-001	3.57250E+000	9	...........
	1	0.026667	7.99296E-001	-8.88582E-005	0.00000E+000	-7.10240E-005	-5.39641E-002	7.99455E-001	3.57250E+000	9	...........
	2	0.04	7.86693E-001	-8.86811E-005	0.00000E+000	-6.97648E-005	-5.39641E-002	7.86836E-001	3.57250E+000	9	...........
	3	0.053333	7.74788E-001	-8.87551E-005	0.00000E+000	-6.87664E-005	-5.39641E-002	7.74924E-001	3.57250E+000	9	...........
	4	0.066667	7.63440E-001	-8.85509E-005	0.00000E+000	-6.76033E-005	-5.39641E-002	7.63591E-001	3.57250E+000	9	...........
	5	0.08	7.52606E-001	-8.87811E-005	0.00000E+000	-6.68172E-005	-5.39641E-002	7.52724E-001	3.57250E+000	9	...........
	6	0.093333	7.42172E-001	-8.88770E-005	0.00000E+000	-6.59620E-005	-5.39641E-002	7.42295E-001	3.57250E+000	9	...........
	7	0.106667	7.32109E-001	-8.85154E-005	0.00000E+000	-6.48030E-005	-5.39641E-002	7.32244E-001	3.57250E+000	9	...........
	8	0.12	7.22418E-001	-8.86957E-005	0.00000E+000	-6.40754E-005	-5.39641E-002	7.22535E-001	3.57250E+000	9	...........
	9	0.133333	7.12981E-001	-8.90697E-005	0.00000E+000	-6.35050E-005	-5.39641E-002	7.13115E-001	3.57250E+000	9	...........
	10	0.146667	7.03847E-001	-8.89260E-005	0.00000E+000	-6.25902E-005	-5.39641E-002	7.03998E-001	3.57250E+000	9	...........
	11	0.16	6.95013E-001	-8.88082E-005	0.00000E+000	-6.17229E-005	-5.39641E-002	6.95137E-001	3.57250E+000	9	...........
	12	0.173333	6.86360E-001	-8.85967E-005	0.00000E+000	-6.08093E-005	-5.39641E-002	6.86508E-001	3.57250E+000	9	...........
	13	0.186667	6.77973E-001	-8.89176E-005	0.00000E+000	-6.02838E-005	-5.39641E-002	6.78085E-001	3.57250E+000	9	...........
	14	0.2	6.69769E-001	-8.89551E-005	0.00000E+000	-5.95794E-005	-5.39641E-002	6.69897E-001	3.57250E+000	9	...........
	15	0.213333	6.61747E-001	-8.87832E-005	0.00000E+000	-5.87520E-005	-5.39641E-002	6.61860E-001	3.57250E+000	9	...........
	16	0.226667	6.53888E-001	-8.85780E-005	0.00000E+000	-5.79201E-005	-5.39641E-002	6.54009E-001	3.57250E+000	9	...........
	17	0.24	6.46218E-001	-8.87374E-005	0.00000E+000	-5.73437E-005	-5.39641E-002	6.46342E-001	3.57250E+000	9	...........
	18	0.253333	6.38711E-001	-8.89332E-005	0.00000E+000	-5.68027E-005	-5.39641E-002	6.38787E-001	3.57250E+000	9	...........
	19	0.266667	6.31339E-001	-8.87790E-005	0.00000E+000	-5.60496E-005	-5.39641E-002	6.31431E-001	3.57250E+000	9	...........
	20	0.28	6.24112E-001	-8.89791E-005	0.00000E+000	-5.55329E-005	-5.39641E-002	6.24177E-001	3.57250E+000	9	...........
	21	0.293333	6.16999E-001	-8.89072E-005	0.00000E+000	-5.48557E-005	-5.39641E-002	6.17103E-001	3.57250E+000	9	...........
	22	0.306667	6.09938E-001	-8.86717E-005	0.00000E+000	-5.40843E-005	-5.39641E-002	6.10099E-001	3.57250E+000	9	...........
	23	0.32	6.03083E-001	-8.88832E-005	0.00000E+000	-5.36040E-005	-5.39641E-002	6.03230E-001	3.57250E+000	9	...........
	24	0.333333	5.96322E-001	-8.85686E-005	0.00000E+000	-5.28154E-005	-5.39641E-002	5.96473E-001	3.57250E+000	9	...........
	25	0.346667	5.89673E-001	-8.87499E-005	0.00000E+000	-5.23334E-005	-5.39641E-002	5.89802E-001	3.57250E+000	9	...........
	26	0.36	5.83088E-001	-8.87415E-005	0.00000E+000	-5.17441E-005	-5.39641E-002	5.83212E-001	3.57250E+000	9	...........
	27	0.373333	5.76633E-001	-8.88614E-005	0.00000E+000	-5.12404E-005	-5.39641E-002	5.76747E-001	3.57250E+000	9	...........
	28	0.386667	5.70248E-001	-8.86863E-005	0.00000E+000	-5.05732E-005	-5.39641E-002	5.70356E-001	3.57250E+000	9	...........
	29	0.4	5.63929E-001	-8.87832E-005	0.00000E+000	-5.00674E-005	-5.39641E-002	5.64056E-001	3.57250E+000	9	...........
	30	0.413333	5.57660E-001	-8.87780E-005	0.00000E+000	-4.95079E-005	-5.39641E-002	5.57789E-001	3.57250E+000	9	...........
	31	0.426667	5.51505E-001	-8.88416E-005	0.00000E+000	-4.89966E-005	-5.39641E-002	5.51629E-001	3.57250E+000	9	...........
	32	0.44	5.45422E-001	-8.87499E-005	0.00000E+000	-4.84061E-005	-5.39641E-002	5.45541E-001	3.57250E+000	9	...........
	33	0.453333	5.39411E-001	-8.84706E-005	0.00000E+000	-4.77220E-005	-5.39641E-002	5.39520E-001	3.57250E+000	9	...........
	34	0.466667	5.33410E-001	-8.87697E-005	0.00000E+000	-4.73506E-005	-5.39641E-002	5.33535E-001	3.57250E+000	9	...........
	35	0.48	5.27521E-001	-8.88645E-005	0.00000E+000	-4.68779E-005	-5.39641E-002	5.27631E-001	3.57250E+000	9	...........
	36	0.493333	5.21688E-001	-8.90062E-005	0.00000E+000	-4.64334E-005	-5.39641E-002	5.21781E-001	3.57250E+000	9	...........
	37	0.506667	5.15922E-001	-8.87968E-005	0.00000E+000	-4.58122E-005	-5.39641E-002	5.16019E-001	3.57250E+000	9	...........
	38	0.52	5.10160E-001	-8.89051E-005	0.00000E+000	-4.53558E-005	-5.39641E-002	5.10258E-001	3.57250E+000	9	...........
	39	0.533333	5.04430E-001	-8.87634E-005	0.00000E+000	-4.47750E-005	-5.39641E-002	5.04555E-001	3.57250E+000	9	...........
	40	0.546667	4.98816E-001	-8.86999E-005	0.00000E+000	-4.42449E-005	-5.39641E-002	4.98929E-001	3.57250E+000	9	...........
	41	0.56	4.93219E-001	-8.88145E-005	0.00000E+000	-4.38050E-005	-5.39641E-002	4.93333E-001	3.57250E+000	9	...........
	42	0.573333	4.87678E-001	-8.87916E-005	0.00000E+000	-4.33017E-005	-5.39641E-002	4.87803E-001	3.57250E+000	9	...........
	43	0.586667	4.82254E-001	-8.86644E-005	0.00000E+000	-4.27587E-005	-5.39641E-002	4.82308E-001	3.57250E+000	9	...........
	44	0.6	4.76771E-001	-8.85790E-005	0.00000E+000	-4.22319E-005	-5.39641E-002	4.76839E-001	3.57250E+000	9	...........
	45	0.613333	4.71320E-001	-8.88718E-005	0.00000E+000	-4.18871E-005	-5.39641E-002	4.71384E-001	3.57250E+000	9	...........
	46	0.626667	4.65912E-001	-8.87582E-005	0.00000E+000	-4.13535E-005	-5.39641E-002	4.65972E-001	3.57250E+000	9	...........
	47	0.64	4.60537E-001	-8.88707E-005	0.00000E+000	-4.09283E-005	-5.39641E-002	4.60596E-001	3.57355E+000	9	...........
	48	0.653333	4.55179E-001	-8.89020E-005	0.00000E+000	-4.04663E-005	-5.39641E-002	4.55241E-001	3.57460E+000	9	...........
	49	0.666667	4.49840E-001	-8.87530E-005	0.00000E+000	-3.99246E-005	-5.39641E-002	4.49904E-001	3.57460E+000	9	...........
	50	0.68	4.44523E-001	-8.89103E-005	0.00000E+000	-3.95227E-005	-5.39641E-002	4.44584E-001	3.57460E+000	9	...........
	51	0.693333	4.39240E-001	-8.87009E-005	0.00000E+000	-3.89609E-005	-5.39641E-002	4.39303E-001	3.57460E+000	9	...........
	52	0.706667	4.33977E-001	-8.87134E-005	0.00000E+000	-3.84995E-005	-5.39641E-002	4.34036E-001	3.57460E+000	9	...........
	53	0.72	4.28738E-001	-8.89291E-005	0.00000E+000	-3.81273E-005	-5.39641E-002	4.28796E-001	3.57460E+000	9	...........
	54	0.733333	4.23523E-001	-8.87843E-005	0.00000E+000	-3.76022E-005	-5.39641E-002	4.23581E-001	3.57460E+000	9	...........
	55	0.746667	4.18323E-001	-8.90749E-005	0.00000E+000	-3.72621E-005	-5.39641E-002	4.18383E-001	3.57460E+000	9	...........
	56	0.76	4.13157E-001	-8.86832E-005	0.00000E+000	-3.66401E-005	-5.39641E-002	4.13209E-001	3.57460E+000	9	...........
	57	0.773333	4.08015E-001	-8.87520E-005	0.00000E+000	-3.62121E-005	-5.39641E-002	4.08069E-001	3.57460E+000	9	...........
	58	0.786667	4.02893E-001	-8.89114E-005	0.00000E+000	-3.58218E-005	-5.39641E-002	4.02941E-001	3.57460E+000	9	...........
	59	0.8	3.97782E-001	-8.88718E-005	0.00000E+000	-3.53516E-005	-5.39641E-002	3.97830E-001	3.57460E+000	9	...........
	60	0.813333	3.92691E-001	-8.88926E-005	0.00000E+000	-3.49073E-005	-5.39641E-002	3.92741E-001	3.57460E+000	9	...........
	61	0.826667	3.87610E-001	-8.87613E-005	0.00000E+000	-3.44048E-005	-5.39641E-002	3.87663E-001	3.57460E+000	9	...........
	62	0.84	3.82532E-001	-8.87665E-005	0.00000E+000	-3.39561E-005	-5.39641E-002	3.82586E-001	3.57460E+000	9	...........
	63	0.853333	3.77480E-001	-8.89624E-005	0.00000E+000	-3.35815E-005	-5.39641E-002	3.77529E-001	3.57460E+000	9	...........
	64	0.866667	3.72434E-001	-8.85550E-005	0.00000E+000	-3.29809E-005	-5.39641E-002	3.72487E-001	3.57460E+000	9	...........
	65	0.88	3.67414E-001	-8.90270E-005	0.00000E+000	-3.27098E-005	-5.39641E-002	3.67462E-001	3.57460E+000	9	...........
	66	0.893333	3.62401E-001	-8.89749E-005	0.00000E+000	-3.22446E-005	-5.39641E-002	3.62450E-001	3.57460E+000	9	...........
	67	0.906667	3.57414E-001	-8.87207E-005	0.00000E+000	-3.17100E-005	-5.39641E-002	3.57459E-001	3.57460E+000	9	...........
	68	0.92	3.52441E-001	-8.89468E-005	0.00000E+000	-3.13485E-005	-5.39641E-002	3.52484E-001	3.57460E+000	9	...........
	69	0.933333	3.47488E-001	-8.87530E-005	0.00000E+000	-3.08406E-005	-5.39641E-002	3.47529E-001	3.57460E+000	9	...........
	70	0.946667	3.42552E-001	-8.87144E-005	0.00000E+000	-3.03893E-005	-5.39641E-002	3.42595E-001	3.57460E+000	9	...........
	71	0.96	3.37604E-001	-8.86144E-005	0.00000E+000	-2.99166E-005	-5.39641E-002	3.37651E-001	3.57460E+000	9	...........
	72	0.97333	3.32694E-001	-8.87665E-005	0.00000E+000	-2.95321E-005	-5.39641E-002	3.32738E-001	3.57460E+000	9	...........
	73	0.98667	3.27792E-001	-8.86769E-005	0.00000E+000	-2.90676E-005	-5.39641E-002	3.27836E-001	3.57460E+000	9	...........
	74	1	3.22907E-001	-8.87353E-005	0.00000E+000	-2.86533E-005	-5.39641E-002	3.22948E-001	3.57460E+000	9	...........
	75	1.01333	3.18038E-001	-8.89958E-005	0.00000E+000	-2.83041E-005	-5.39641E-002	3.18080E-001	3.57460E+000	9	...........
	76	1.02667	3.13185E-001	-8.90645E-005	0.00000E+000	-2.78937E-005	-5.39641E-002	3.13223E-001	3.57460E+000	9	...........
	77	1.04	3.08349E-001	-8.88270E-005	0.00000E+000	-2.73897E-005	-5.39641E-002	3.08390E-001	3.57460E+000	9	...........
	78	1.05333	3.03531E-001	-8.85477E-005	0.00000E+000	-2.68770E-005	-5.39641E-002	3.03571E-001	3.57460E+000	9	...........
	79	1.06667	2.98726E-001	-8.89447E-005	0.00000E+000	-2.65701E-005	-5.39641E-002	2.98763E-001	3.57460E+000	9	...........
	80	1.08	2.93944E-001	-8.88478E-005	0.00000E+000	-2.61162E-005	-5.39641E-002	2.93983E-001	3.57460E+000	9	...........
	81	1.09333	2.89185E-001	-8.88739E-005	0.00000E+000	-2.57010E-005	-5.39641E-002	2.89221E-001	3.57460E+000	9	...........
	82	1.10667	2.84442E-001	-8.87051E-005	0.00000E+000	-2.52314E-005	-5.39641E-002	2.84482E-001	3.57460E+000	9	...........
	83	1.12	2.79699E-001	-8.87259E-005	0.00000E+000	-2.48165E-005	-5.39641E-002	2.79732E-001	3.57460E+000	9	...........
	84	1.13333	2.74972E-001	-8.85394E-005	0.00000E+000	-2.43459E-005	-5.39641E-002	2.75009E-001	3.57460E+000	9	...........
	85	1.14667	2.70277E-001	-8.90562E-005	0.00000E+000	-2.40698E-005	-5.39641E-002	2.70309E-001	3.57460E+000	9	...........
	86	1.16	2.65597E-001	-8.86957E-005	0.00000E+000	-2.35573E-005	-5.39641E-002	2.65634E-001	3.57460E+000	9	...........
	87	1.17333	2.60936E-001	-8.84936E-005	0.00000E+000	-2.30912E-005	-5.39641E-002	2.60973E-001	3.57460E+000	9	...........
	88	1.18667	2.56287E-001	-8.88551E-005	0.00000E+000	-2.27724E-005	-5.39641E-002	2.56320E-001	3.57460E+000	9	...........
	89	1.2	2.51653E-001	-8.87843E-005	0.00000E+000	-2.23428E-005	-5.39641E-002	2.51684E-001	3.57460E+000	9	...........
	90	1.21333	2.47039E-001	-8.87634E-005	0.00000E+000	-2.19280E-005	-5.39641E-002	2.47072E-001	3.57460E+000	9	...........
	91	1.22667	2.42474E-001	-8.89312E-005	0.00000E+000	-2.15635E-005	-5.39641E-002	2.42502E-001	3.57460E+000	9	...........
	92	1.24	2.37911E-001	-8.88989E-005	0.00000E+000	-2.11500E-005	-5.39641E-002	2.37944E-001	3.57460E+000	9	...........
	93	1.25333	2.33365E-001	-8.87988E-005	0.00000E+000	-2.07226E-005	-5.39641E-002	2.33392E-001	3.57460E+000	9	...........
	94	1.26667	2.28834E-001	-8.87436E-005	0.00000E+000	-2.03075E-005	-5.39641E-002	2.28857E-001	3.57460E+000	9	...........
	95	1.28	2.24328E-001	-8.88332E-005	0.00000E+000	-1.99277E-005	-5.39641E-002	2.24354E-001	3.57460E+000	9	...........
	96	1.29333	2.19844E-001	-8.86884E-005	0.00000E+000	-1.94976E-005	-5.39641E-002	2.19872E-001	3.57460E+000	9	...........
	97	1.30667	2.15362E-001	-8.89260E-005	0.00000E+000	-1.91513E-005	-5.39641E-002	2.15390E-001	3.57460E+000	9	...........
	98	1.32	2.10909E-001	-8.88103E-005	0.00000E+000	-1.87309E-005	-5.39641E-002	2.10935E-001	3.57460E+000	9	...........
	99	1.33333	2.06486E-001	-8.88499E-005	0.00000E+000	-1.83462E-005	-5.39641E-002	2.06506E-001	3.57460E+000	9	...........
	100	1.34667	2.02080E-001	-8.88061E-005	0.00000E+000	-1.79459E-005	-5.39641E-002	2.02105E-001	3.57460E+000	9	...........
	101	1.36	1.97695E-001	-8.86915E-005	0.00000E+000	-1.75339E-005	-5.39641E-002	1.97720E-001	3.57460E+000	9	...........
	102	1.37333	1.93355E-001	-8.86415E-005	0.00000E+000	-1.71392E-005	-5.39641E-002	1.93382E-001	3.57460E+000	9	...........
	103	1.38667	1.88992E-001	-8.88113E-005	0.00000E+000	-1.67846E-005	-5.39641E-002	1.89020E-001	3.57460E+000	9	...........
	104	1.4	1.84665E-001	-8.85092E-005	0.00000E+000	-1.63445E-005	-5.39641E-002	1.84693E-001	3.57460E+000	9	...........
	105	1.41333	1.80374E-001	-8.86488E-005	0.00000E+000	-1.59899E-005	-5.39641E-002	1.80402E-001	3.57460E+000	9	...........
	106	1.42667	1.76115E-001	-8.89697E-005	0.00000E+000	-1.56689E-005	-5.39641E-002	1.76137E-001	3.57460E+000	9	...........
	107	1.44	1.71873E-001	-8.85571E-005	0.00000E+000	-1.52206E-005	-5.39641E-002	1.71895E-001	3.57460E+000	9	...........
	108	1.45333	1.67633E-001	-8.89812E-005	0.00000E+000	-1.49162E-005	-5.39641E-002	1.67656E-001	3.57460E+000	9	...........
	109	1.46667	1.63431E-001	-8.86228E-005	0.00000E+000	-1.44837E-005	-5.39641E-002	1.63447E-001	3.57460E+000	9	...........
	110	1.48	1.59219E-001	-8.90260E-005	0.00000E+000	-1.41746E-005	-5.39641E-002	1.59240E-001	3.57460E+000	9	...........
	111	1.49333	1.55035E-001	-8.88093E-005	0.00000E+000	-1.37685E-005	-5.39641E-002	1.55053E-001	3.57460E+000	9	...........
	112	1.50667	1.50879E-001	-8.87676E-005	0.00000E+000	-1.33932E-005	-5.39641E-002	1.50897E-001	3.57460E+000	9	...........
	113	1.52	1.46737E-001	-8.87603E-005	0.00000E+000	-1.30244E-005	-5.39641E-002	1.46752E-001	3.57460E+000	9	...........
	114	1.53333	1.42618E-001	-8.88968E-005	0.00000E+000	-1.26783E-005	-5.39641E-002	1.42631E-001	3.57460E+000	9	...........
	115	1.54667	1.38505E-001	-8.86790E-005	0.00000E+000	-1.22825E-005	-5.39641E-002	1.38518E-001	3.57460E+000	9	...........
	116	1.56	1.34413E-001	-8.89062E-005	0.00000E+000	-1.19501E-005	-5.39641E-002	1.34424E-001	3.57460E+000	9	...........
	117	1.57333	1.30332E-001	-8.89530E-005	0.00000E+000	-1.15934E-005	-5.39641E-002	1.30346E-001	3.57460E+000	9	...........
	118	1.58667	1.26270E-001	-8.84592E-005	0.00000E+000	-1.11697E-005	-5.39641E-002	1.26281E-001	3.57460E+000	9	...........
	119	1.6	1.22233E-001	-8.87217E-005	0.00000E+000	-1.08448E-005	-5.39641E-002	1.22251E-001	3.57460E+000	9	...........
	120	1.61333	1.18203E-001	-8.87613E-005	0.00000E+000	-1.04919E-005	-5.39641E-002	1.18221E-001	3.57460E+000	9	...........
	121	1.62667	1.14188E-001	-8.89218E-005	0.00000E+000	-1.01538E-005	-5.39641E-002	1.14204E-001	3.57460E+000	9	...........
	122	1.64	1.10183E-001	-8.85665E-005	0.00000E+000	-9.75854E-006	-5.39641E-002	1.10195E-001	3.57380E+000	9	...........
	123	1.65333	1.06199E-001	-8.87509E-005	0.00000E+000	-9.42529E-006	-5.39641E-002	1.06207E-001	3.57300E+000	9	...........
	124	1.66667	1.02227E-001	-8.88749E-005	0.00000E+000	-9.08546E-006	-5.39641E-002	1.02239E-001	3.57300E+000	9	...........
	125	1.68	9.82766E-002	-8.88780E-005	0.00000E+000	-8.73463E-006	-5.39641E-002	9.82925E-002	3.57300E+000	9	...........
	126	1.69333	9.43489E-002	-8.87030E-005	0.00000E+000	-8.36903E-006	-5.39641E-002	9.43586E-002	3.57300E+000	9	...........
	127	1.70667	9.04354E-002	-8.87228E-005	0.00000E+000	-8.02368E-006	-5.39641E-002	9.04459E-002	3.57300E+000	9	...........
	128	1.72	8.65386E-002	-8.88311E-005	0.00000E+000	-7.68733E-006	-5.39641E-002	8.65495E-002	3.57300E+000	9	...........
	129	1.73333	8.26603E-002	-8.89009E-005	0.00000E+000	-7.34858E-006	-5.39641E-002	8.26696E-002	3.57300E+000	9	...........
	130	1.74667	7.88038E-002	-8.85655E-005	0.00000E+000	-6.97930E-006	-5.39641E-002	7.88110E-002	3.57300E+000	9	...........
	131	1.76	7.49728E-002	-8.90260E-005	0.00000E+000	-6.67453E-006	-5.39641E-002	7.49732E-002	3.57300E+000	9	...........
	132	1.77333	7.11320E-002	-8.85019E-005	0.00000E+000	-6.29532E-006	-5.39641E-002	7.11358E-002	3.57300E+000	9	...........
	133	1.78667	6.73189E-002	-8.84404E-005	0.00000E+000	-5.95372E-006	-5.39641E-002	6.73224E-002	3.57300E+000	9	...........
	134	1.8	6.35313E-002	-8.90531E-005	0.00000E+000	-5.65765E-006	-5.39641E-002	6.35328E-002	3.57300E+000	9	...........
	135	1.81333	5.97545E-002	-8.89041E-005	0.00000E+000	-5.31242E-006	-5.39641E-002	5.97605E-002	3.57300E+000	9	...........
	136	1.82667	5.60007E-002	-8.88249E-005	0.00000E+000	-4.97425E-006	-5.39641E-002	5.60041E-002	3.57300E+000	9	...........
	137	1.84	5.22542E-002	-8.85384E-005	0.00000E+000	-4.62650E-006	-5.39641E-002	5.22537E-002	3.57300E+000	9	...........
	138	1.85333	4.85342E-002	-8.88113E-005	0.00000E+000	-4.31039E-006	-5.39641E-002	4.85370E-002	3.57300E+000	9	...........
	139	1.86667	4.48380E-002	-8.88530E-005	0.00000E+000	-3.98399E-006	-5.39641E-002	4.48464E-002	3.57300E+000	9	...........
	140	1.88	4.11454E-002	-8.89551E-005	0.00000E+000	-3.66009E-006	-5.39641E-002	4.11512E-002	3.57300E+000	9	...........
	141	1.89333	3.74775E-002	-8.89124E-005	0.00000E+000	-3.33221E-006	-5.39641E-002	3.74881E-002	3.57300E+000	9	...........
	142	1.90667	3.38344E-002	-8.86822E-005	0.00000E+000	-3.00051E-006	-5.39641E-002	3.38382E-002	3.57300E+000	9	...........
	143	1.92	3.02070E-002	-8.88509E-005	0.00000E+000	-2.68392E-006	-5.39641E-002	3.02116E-002	3.57300E+000	9	...........
	144	1.93333	2.65832E-002	-8.91375E-005	0.00000E+000	-2.36956E-006	-5.39641E-002	2.65835E-002	3.57300E+000	9	...........
	145	1.94667	2.29729E-002	-8.87061E-005	0.00000E+000	-2.03783E-006	-5.39641E-002	2.29796E-002	3.57300E+000	9	...........
	146	1.96	1.93906E-002	-8.87540E-005	0.00000E+000	-1.72100E-006	-5.39641E-002	1.93899E-002	3.57300E+000	9	...........
	147	1.97333	1.58298E-002	-8.89562E-005	0.00000E+000	-1.40816E-006	-5.39641E-002	1.58234E-002	3.57300E+000	9	...........
	148	1.98667	1.22737E-002	-8.88280E-005	0.00000E+000	-1.09025E-006	-5.39641E-002	1.22661E-002	3.57300E+000	9	...........
	149	2	8.72942E-003	-8.90291E-005	0.00000E+000	-7.77173E-007	-5.39641E-002	8.72207E-003	3.57300E+000	9	...........
	150	2.01333	5.20144E-003	-8.87217E-005	0.00000E+000	-4.61480E-007	-5.39641E-002	5.18806E-003	3.57300E+000	9	...........
	151	2.02667	1.70066E-003	-8.87801E-005	0.00000E+000	-1.50985E-007	-5.39641E-002	1.68623E-003	3.57300E+000	9	...........
	152	2.02833	-2.61122E-004	-8.90249E-005	0.00000E+000	2.32464E-008	-5.39641E-002	-2.62182E-004	3.57300E+000	9	...........
STARTTIMEOFFSET	QUANT	2147.465	Start Time Offset (s)
