EXPLAIN
TAG	PWR800_DISCHARGE
TITLE	LABEL	PWR Cyclic Charge Discharge (Cell) - Discharge Step	Test &Identifier
DATE	LABEL	10-7-2017	Date
TIME	LABEL	15:50:51	Time
NOTES	NOTES	3	&Notes...
	supercap test cell
	0.9mg
	6M KOH
PSTAT	PSTAT	IFC5000-01520	Potentiostat
CAPACITY	QUANT	1.00000E-003	Capacity (A-hr)
CELLTYPE	SELECTOR	1	&Cell Type
WORKINGCONNECTION	SELECTOR	0	&Working Lead
MAXDISCHARGETIME	VARIABLEANDUNITS	1.00000E+002	s	1.00000E+002	second(s)	Max &Discharge Time
DISCHARGEMODE	MULTIPARAM	0	9.00000E-005	&Discharge Mode	Constant Current	Amp(s)
SAMPLETIME	QUANT	1.00000E-002	Sa&mple Period (s)
DISCHARGESTOPAT1	MULTIPARAM	3	0.00000E+000	Discharge Stop At &1	Voltage < Limit	V
DISCHARGESTOPAT2	MULTIPARAM	0	0.00000E+000	Discharge Stop At &2	None	N/A
AESBHCSELECTOR	TOGGLE	F	Save Both Half Cells
IRCOMP	TOGGLE	F	IR &Measure
EOC	QUANT	0	Open Circuit (V)
SEQUENCER	TOGGLE	TRUE	Run as Sequence
PSTATMODEL	IQUANT	53	Pstat Model
PSTATSECTION	LABEL	IFC5000-01520	Pstat Section
PSTATSERIALNO	LABEL	01520	Pstat Serial Number
CTRLMODE	IQUANT	0	Control Mode
ELECTROMETER	IQUANT	1	RE=0 or CS=1
IESTAB	IQUANT	0	I/E Stability
CASPEED	IQUANT	4	Control Amp Speed
CONVENTION	IQUANT	1	Current Convention
ICHRANGE	IQUANT	2	Ich Range
ICHRANGEMODE	TOGGLE	T	Ich Auto Range
ICHOFFSETENABLE	TOGGLE	F	Ich Offset Enable
ICHOFFSET	QUANT	0	Ich Offset (V)
ICHFILTER	IQUANT	1	Ich Filter
VCHRANGE	IQUANT	2	Vch Range
VCHRANGEMODE	TOGGLE	T	Vch Auto Range
VCHOFFSETENABLE	TOGGLE	F	Vch Offset Enable
VCHOFFSET	QUANT	0	Vch Offset (V)
VCHFILTER	IQUANT	1	Vch Filter
IERANGELOWERLIMIT	IQUANT	9	I/E Range Lower Limit
IERANGEMODE	TOGGLE	F	I/E AutoRange
IERANGE	IQUANT	9	I/E Range
ACHSELECT	IQUANT	1	Ach Select
ACHRANGE	IQUANT	2	Ach Range
ACHOFFSETENABLE	TOGGLE	F	Ach Offset Enable
ACHOFFSET	QUANT	0	Ach Offset (V)
ACHFILTER	IQUANT	1	Ach Filter
CABLEID	IQUANT	14	Cable ID
DCCALDATE	LABEL	5-7-2017	DC Calibration Date
ACCALDATE	LABEL	12/3/2015	AC Calibration Date
FRAMEWORKVERSION	QUANT	7.01	Framework Version
INSTRUMENTVERSION	LABEL	4.00	Instrument Version
CURVE	TABLE	151
	Pt	T	Vf	Im	Vu	Pwr	Sig	Ach	Temp	IERange	Over
	#	s	V	A	V	W	V	V	deg C	#	bits
	0	0.013333	8.08863E-001	-8.85894E-005	0.00000E+000	-7.16567E-005	-5.39641E-002	8.09011E-001	3.57260E+000	9	...........
	1	0.026667	7.95077E-001	-8.86207E-005	0.00000E+000	-7.04602E-005	-5.39641E-002	7.95221E-001	3.57260E+000	9	...........
	2	0.04	7.82177E-001	-8.88405E-005	0.00000E+000	-6.94890E-005	-5.39641E-002	7.82334E-001	3.57260E+000	9	...........
	3	0.053333	7.70043E-001	-8.88905E-005	0.00000E+000	-6.84496E-005	-5.39641E-002	7.70192E-001	3.57260E+000	9	...........
	4	0.066667	7.58491E-001	-8.87905E-005	0.00000E+000	-6.73468E-005	-5.39641E-002	7.58621E-001	3.57260E+000	9	...........
	5	0.08	7.47459E-001	-8.87040E-005	0.00000E+000	-6.63026E-005	-5.39641E-002	7.47601E-001	3.57260E+000	9	...........
	6	0.093333	7.36854E-001	-8.89072E-005	0.00000E+000	-6.55116E-005	-5.39641E-002	7.37008E-001	3.57260E+000	9	...........
	7	0.106667	7.26678E-001	-8.87082E-005	0.00000E+000	-6.44623E-005	-5.39641E-002	7.26836E-001	3.57260E+000	9	...........
	8	0.12	7.16850E-001	-8.88874E-005	0.00000E+000	-6.37189E-005	-5.39641E-002	7.16984E-001	3.57260E+000	9	...........
	9	0.133333	7.07323E-001	-8.82789E-005	0.00000E+000	-6.24417E-005	-5.39641E-002	7.07464E-001	3.57260E+000	9	...........
	10	0.146667	6.98108E-001	-8.89103E-005	0.00000E+000	-6.20690E-005	-5.39641E-002	6.98232E-001	3.57260E+000	9	...........
	11	0.16	6.89122E-001	-8.87499E-005	0.00000E+000	-6.11595E-005	-5.39641E-002	6.89277E-001	3.57260E+000	9	...........
	12	0.173333	6.80422E-001	-8.89009E-005	0.00000E+000	-6.04901E-005	-5.39641E-002	6.80564E-001	3.57260E+000	9	...........
	13	0.186667	6.71947E-001	-8.90301E-005	0.00000E+000	-5.98236E-005	-5.39641E-002	6.72088E-001	3.57260E+000	9	...........
	14	0.2	6.63643E-001	-8.86530E-005	0.00000E+000	-5.88339E-005	-5.39641E-002	6.63793E-001	3.57260E+000	9	...........
	15	0.213333	6.55584E-001	-8.88489E-005	0.00000E+000	-5.82479E-005	-5.39641E-002	6.55698E-001	3.57260E+000	9	...........
	16	0.226667	6.47667E-001	-8.87030E-005	0.00000E+000	-5.74500E-005	-5.39641E-002	6.47749E-001	3.57260E+000	9	...........
	17	0.24	6.39923E-001	-8.86967E-005	0.00000E+000	-5.67591E-005	-5.39641E-002	6.39971E-001	3.57260E+000	9	...........
	18	0.253333	6.32330E-001	-8.87353E-005	0.00000E+000	-5.61100E-005	-5.39641E-002	6.32392E-001	3.57260E+000	9	...........
	19	0.266667	6.24932E-001	-8.88926E-005	0.00000E+000	-5.55519E-005	-5.39641E-002	6.24989E-001	3.57294E+000	9	...........
	20	0.28	6.17670E-001	-8.85998E-005	0.00000E+000	-5.47254E-005	-5.39641E-002	6.17731E-001	3.57350E+000	9	...........
	21	0.293333	6.10458E-001	-8.88228E-005	0.00000E+000	-5.42226E-005	-5.39641E-002	6.10566E-001	3.57350E+000	9	...........
	22	0.306667	6.03441E-001	-8.89072E-005	0.00000E+000	-5.36502E-005	-5.39641E-002	6.03537E-001	3.57350E+000	9	...........
	23	0.32	5.96543E-001	-8.88728E-005	0.00000E+000	-5.30165E-005	-5.39641E-002	5.96623E-001	3.57350E+000	9	...........
	24	0.333333	5.89766E-001	-8.87499E-005	0.00000E+000	-5.23416E-005	-5.39641E-002	5.89856E-001	3.57350E+000	9	...........
	25	0.346667	5.83052E-001	-8.90218E-005	0.00000E+000	-5.19043E-005	-5.39641E-002	5.83155E-001	3.57350E+000	9	...........
	26	0.36	5.76472E-001	-8.86697E-005	0.00000E+000	-5.11156E-005	-5.39641E-002	5.76583E-001	3.57350E+000	9	...........
	27	0.373333	5.69996E-001	-8.89843E-005	0.00000E+000	-5.07207E-005	-5.39641E-002	5.70080E-001	3.57350E+000	9	...........
	28	0.386667	5.63577E-001	-8.86321E-005	0.00000E+000	-4.99510E-005	-5.39641E-002	5.63684E-001	3.57350E+000	9	...........
	29	0.4	5.57227E-001	-8.87916E-005	0.00000E+000	-4.94771E-005	-5.39641E-002	5.57344E-001	3.57350E+000	9	...........
	30	0.413333	5.50989E-001	-8.87572E-005	0.00000E+000	-4.89042E-005	-5.39641E-002	5.51089E-001	3.57350E+000	9	...........
	31	0.426667	5.44814E-001	-8.87249E-005	0.00000E+000	-4.83385E-005	-5.39641E-002	5.44942E-001	3.57350E+000	9	...........
	32	0.44	5.38723E-001	-8.87061E-005	0.00000E+000	-4.77880E-005	-5.39641E-002	5.38845E-001	3.57350E+000	9	...........
	33	0.453333	5.32667E-001	-8.86832E-005	0.00000E+000	-4.72386E-005	-5.39641E-002	5.32772E-001	3.57350E+000	9	...........
	34	0.466667	5.26716E-001	-8.85259E-005	0.00000E+000	-4.66280E-005	-5.39641E-002	5.26825E-001	3.57350E+000	9	...........
	35	0.48	5.20809E-001	-8.88113E-005	0.00000E+000	-4.62537E-005	-5.39641E-002	5.20898E-001	3.57350E+000	9	...........
	36	0.493333	5.14978E-001	-8.89426E-005	0.00000E+000	-4.58035E-005	-5.39641E-002	5.15081E-001	3.57350E+000	9	...........
	37	0.506667	5.09188E-001	-8.87061E-005	0.00000E+000	-4.51681E-005	-5.39641E-002	5.09309E-001	3.57350E+000	9	...........
	38	0.52	5.03428E-001	-8.90155E-005	0.00000E+000	-4.48129E-005	-5.39641E-002	5.03574E-001	3.57350E+000	9	...........
	39	0.533333	4.97784E-001	-8.86009E-005	0.00000E+000	-4.41041E-005	-5.39641E-002	4.97921E-001	3.57350E+000	9	...........
	40	0.546667	4.92178E-001	-8.86957E-005	0.00000E+000	-4.36541E-005	-5.39641E-002	4.92303E-001	3.57350E+000	9	...........
	41	0.56	4.86608E-001	-8.88416E-005	0.00000E+000	-4.32310E-005	-5.39641E-002	4.86734E-001	3.57350E+000	9	...........
	42	0.573333	4.81162E-001	-8.91375E-005	0.00000E+000	-4.28896E-005	-5.39641E-002	4.81228E-001	3.57350E+000	9	...........
	43	0.586667	4.75641E-001	-8.88041E-005	0.00000E+000	-4.22388E-005	-5.39641E-002	4.75710E-001	3.57350E+000	9	...........
	44	0.6	4.70173E-001	-8.86613E-005	0.00000E+000	-4.16861E-005	-5.39641E-002	4.70238E-001	3.57350E+000	9	...........
	45	0.613333	4.64747E-001	-8.88468E-005	0.00000E+000	-4.12913E-005	-5.39641E-002	4.64813E-001	3.57350E+000	9	...........
	46	0.626667	4.59365E-001	-8.88978E-005	0.00000E+000	-4.08366E-005	-5.39641E-002	4.59429E-001	3.57350E+000	9	...........
	47	0.64	4.54004E-001	-8.89895E-005	0.00000E+000	-4.04016E-005	-5.39641E-002	4.54066E-001	3.57350E+000	9	...........
	48	0.653333	4.48658E-001	-8.89999E-005	0.00000E+000	-3.99305E-005	-5.39641E-002	4.48722E-001	3.57350E+000	9	...........
	49	0.666667	4.43347E-001	-8.89301E-005	0.00000E+000	-3.94269E-005	-5.39641E-002	4.43406E-001	3.57350E+000	9	...........
	50	0.68	4.38073E-001	-8.87259E-005	0.00000E+000	-3.88684E-005	-5.39641E-002	4.38134E-001	3.57350E+000	9	...........
	51	0.693333	4.32807E-001	-8.86947E-005	0.00000E+000	-3.83877E-005	-5.39641E-002	4.32872E-001	3.57350E+000	9	...........
	52	0.706667	4.27568E-001	-8.89676E-005	0.00000E+000	-3.80397E-005	-5.39641E-002	4.27630E-001	3.57350E+000	9	...........
	53	0.72	4.22365E-001	-8.86957E-005	0.00000E+000	-3.74620E-005	-5.39641E-002	4.22423E-001	3.57350E+000	9	...........
	54	0.733333	4.17189E-001	-8.90364E-005	0.00000E+000	-3.71450E-005	-5.39641E-002	4.17246E-001	3.57350E+000	9	...........
	55	0.746667	4.12016E-001	-8.85957E-005	0.00000E+000	-3.65028E-005	-5.39641E-002	4.12074E-001	3.57350E+000	9	...........
	56	0.76	4.06870E-001	-8.87759E-005	0.00000E+000	-3.61203E-005	-5.39641E-002	4.06920E-001	3.57350E+000	9	...........
	57	0.773333	4.01753E-001	-8.88353E-005	0.00000E+000	-3.56898E-005	-5.39641E-002	4.01806E-001	3.57350E+000	9	...........
	58	0.786667	3.96641E-001	-8.90947E-005	0.00000E+000	-3.53386E-005	-5.39641E-002	3.96690E-001	3.57350E+000	9	...........
	59	0.8	3.91540E-001	-8.86311E-005	0.00000E+000	-3.47026E-005	-5.39641E-002	3.91594E-001	3.57350E+000	9	...........
	60	0.813333	3.86460E-001	-8.87405E-005	0.00000E+000	-3.42947E-005	-5.39641E-002	3.86508E-001	3.57350E+000	9	...........
	61	0.826667	3.81409E-001	-8.89697E-005	0.00000E+000	-3.39338E-005	-5.39641E-002	3.81454E-001	3.57350E+000	9	...........
	62	0.84	3.76381E-001	-8.89343E-005	0.00000E+000	-3.34732E-005	-5.39641E-002	3.76429E-001	3.57350E+000	9	...........
	63	0.853333	3.71390E-001	-8.86363E-005	0.00000E+000	-3.29187E-005	-5.39641E-002	3.71433E-001	3.57350E+000	9	...........
	64	0.866667	3.66382E-001	-8.87426E-005	0.00000E+000	-3.25136E-005	-5.39641E-002	3.66431E-001	3.57350E+000	9	...........
	65	0.88	3.61405E-001	-8.87061E-005	0.00000E+000	-3.20588E-005	-5.39641E-002	3.61449E-001	3.57350E+000	9	...........
	66	0.893333	3.56414E-001	-8.88332E-005	0.00000E+000	-3.16614E-005	-5.39641E-002	3.56462E-001	3.57350E+000	9	...........
	67	0.906667	3.51435E-001	-8.86374E-005	0.00000E+000	-3.11502E-005	-5.39641E-002	3.51481E-001	3.57350E+000	9	...........
	68	0.92	3.46447E-001	-8.89551E-005	0.00000E+000	-3.08183E-005	-5.39641E-002	3.46490E-001	3.57350E+000	9	...........
	69	0.933333	3.41493E-001	-8.84738E-005	0.00000E+000	-3.02132E-005	-5.39641E-002	3.41537E-001	3.57350E+000	9	...........
	70	0.946667	3.36546E-001	-8.89468E-005	0.00000E+000	-2.99347E-005	-5.39641E-002	3.36590E-001	3.57350E+000	9	...........
	71	0.96	3.31612E-001	-8.89416E-005	0.00000E+000	-2.94941E-005	-5.39641E-002	3.31654E-001	3.57350E+000	9	...........
	72	0.97333	3.26680E-001	-8.87061E-005	0.00000E+000	-2.89785E-005	-5.39641E-002	3.26725E-001	3.57350E+000	9	...........
	73	0.98667	3.21784E-001	-8.87822E-005	0.00000E+000	-2.85687E-005	-5.39641E-002	3.21825E-001	3.57350E+000	9	...........
	74	1	3.16920E-001	-8.87957E-005	0.00000E+000	-2.81412E-005	-5.39641E-002	3.16961E-001	3.57350E+000	9	...........
	75	1.01333	3.12076E-001	-8.88395E-005	0.00000E+000	-2.77246E-005	-5.39641E-002	3.12119E-001	3.57350E+000	9	...........
	76	1.02667	3.07248E-001	-8.88249E-005	0.00000E+000	-2.72913E-005	-5.39641E-002	3.07291E-001	3.57350E+000	9	...........
	77	1.04	3.02449E-001	-8.88572E-005	0.00000E+000	-2.68747E-005	-5.39641E-002	3.02487E-001	3.57350E+000	9	...........
	78	1.05333	2.97663E-001	-8.84884E-005	0.00000E+000	-2.63397E-005	-5.39641E-002	2.97703E-001	3.57350E+000	9	...........
	79	1.06667	2.92882E-001	-8.89103E-005	0.00000E+000	-2.60402E-005	-5.39641E-002	2.92921E-001	3.57350E+000	9	...........
	80	1.08	2.88108E-001	-8.86082E-005	0.00000E+000	-2.55287E-005	-5.39641E-002	2.88145E-001	3.57350E+000	9	...........
	81	1.09333	2.83342E-001	-8.89343E-005	0.00000E+000	-2.51988E-005	-5.39641E-002	2.83386E-001	3.57350E+000	9	...........
	82	1.10667	2.78602E-001	-8.91343E-005	0.00000E+000	-2.48330E-005	-5.39641E-002	2.78639E-001	3.57350E+000	9	...........
	83	1.12	2.73879E-001	-8.86894E-005	0.00000E+000	-2.42902E-005	-5.39641E-002	2.73913E-001	3.57350E+000	9	...........
	84	1.13333	2.69169E-001	-8.85821E-005	0.00000E+000	-2.38436E-005	-5.39641E-002	2.69201E-001	3.57350E+000	9	...........
	85	1.14667	2.64454E-001	-8.86071E-005	0.00000E+000	-2.34325E-005	-5.39641E-002	2.64490E-001	3.57350E+000	9	...........
	86	1.16	2.59757E-001	-8.86499E-005	0.00000E+000	-2.30274E-005	-5.39641E-002	2.59793E-001	3.57350E+000	9	...........
	87	1.17333	2.55081E-001	-8.89103E-005	0.00000E+000	-2.26794E-005	-5.39641E-002	2.55124E-001	3.57350E+000	9	...........
	88	1.18667	2.50431E-001	-8.87551E-005	0.00000E+000	-2.22270E-005	-5.39641E-002	2.50471E-001	3.57350E+000	9	...........
	89	1.2	2.45803E-001	-8.87426E-005	0.00000E+000	-2.18132E-005	-5.39641E-002	2.45832E-001	3.57350E+000	9	...........
	90	1.21333	2.41191E-001	-8.88780E-005	0.00000E+000	-2.14366E-005	-5.39641E-002	2.41217E-001	3.57350E+000	9	...........
	91	1.22667	2.36610E-001	-8.87124E-005	0.00000E+000	-2.09902E-005	-5.39641E-002	2.36636E-001	3.57350E+000	9	...........
	92	1.24	2.32051E-001	-8.86936E-005	0.00000E+000	-2.05814E-005	-5.39641E-002	2.32080E-001	3.57350E+000	9	...........
	93	1.25333	2.27513E-001	-8.87915E-005	0.00000E+000	-2.02012E-005	-5.39641E-002	2.27532E-001	3.57350E+000	9	...........
	94	1.26667	2.22984E-001	-8.89218E-005	0.00000E+000	-1.98281E-005	-5.39641E-002	2.23007E-001	3.57339E+000	9	...........
	95	1.28	2.18477E-001	-8.87134E-005	0.00000E+000	-1.93818E-005	-5.39641E-002	2.18501E-001	3.57320E+000	9	...........
	96	1.29333	2.13980E-001	-8.89593E-005	0.00000E+000	-1.90355E-005	-5.39641E-002	2.14005E-001	3.57320E+000	9	...........
	97	1.30667	2.09509E-001	-8.90166E-005	0.00000E+000	-1.86497E-005	-5.39641E-002	2.09530E-001	3.57320E+000	9	...........
	98	1.32	2.05043E-001	-8.89405E-005	0.00000E+000	-1.82367E-005	-5.39641E-002	2.05074E-001	3.57320E+000	9	...........
	99	1.33333	2.00596E-001	-8.88301E-005	0.00000E+000	-1.78190E-005	-5.39641E-002	2.00625E-001	3.57320E+000	9	...........
	100	1.34667	1.96161E-001	-8.89416E-005	0.00000E+000	-1.74469E-005	-5.39641E-002	1.96186E-001	3.57320E+000	9	...........
	101	1.36	1.91745E-001	-8.90604E-005	0.00000E+000	-1.70769E-005	-5.39641E-002	1.91770E-001	3.57320E+000	9	...........
	102	1.37333	1.87353E-001	-8.86186E-005	0.00000E+000	-1.66030E-005	-5.39641E-002	1.87375E-001	3.57320E+000	9	...........
	103	1.38667	1.82980E-001	-8.88843E-005	0.00000E+000	-1.62640E-005	-5.39641E-002	1.83005E-001	3.57320E+000	9	...........
	104	1.4	1.78618E-001	-8.88593E-005	0.00000E+000	-1.58719E-005	-5.39641E-002	1.78644E-001	3.57320E+000	9	...........
	105	1.41333	1.74290E-001	-8.88499E-005	0.00000E+000	-1.54856E-005	-5.39641E-002	1.74311E-001	3.57320E+000	9	...........
	106	1.42667	1.69980E-001	-8.88322E-005	0.00000E+000	-1.50997E-005	-5.39641E-002	1.69996E-001	3.57320E+000	9	...........
	107	1.44	1.65689E-001	-8.85915E-005	0.00000E+000	-1.46786E-005	-5.39641E-002	1.65710E-001	3.57320E+000	9	...........
	108	1.45333	1.61434E-001	-8.87801E-005	0.00000E+000	-1.43321E-005	-5.39641E-002	1.61445E-001	3.57320E+000	9	...........
	109	1.46667	1.57197E-001	-8.86926E-005	0.00000E+000	-1.39422E-005	-5.39641E-002	1.57214E-001	3.57320E+000	9	...........
	110	1.48	1.52978E-001	-8.87186E-005	0.00000E+000	-1.35720E-005	-5.39641E-002	1.52995E-001	3.57320E+000	9	...........
	111	1.49333	1.48783E-001	-8.85634E-005	0.00000E+000	-1.31767E-005	-5.39641E-002	1.48795E-001	3.57320E+000	9	...........
	112	1.50667	1.44602E-001	-8.89457E-005	0.00000E+000	-1.28617E-005	-5.39641E-002	1.44613E-001	3.57320E+000	9	...........
	113	1.52	1.40442E-001	-8.87457E-005	0.00000E+000	-1.24636E-005	-5.39641E-002	1.40456E-001	3.57320E+000	9	...........
	114	1.53333	1.36315E-001	-8.87509E-005	0.00000E+000	-1.20981E-005	-5.39641E-002	1.36328E-001	3.57320E+000	9	...........
	115	1.54667	1.32196E-001	-8.86988E-005	0.00000E+000	-1.17256E-005	-5.39641E-002	1.32211E-001	3.57320E+000	9	...........
	116	1.56	1.28107E-001	-8.87988E-005	0.00000E+000	-1.13757E-005	-5.39641E-002	1.28116E-001	3.57320E+000	9	...........
	117	1.57333	1.24032E-001	-8.88530E-005	0.00000E+000	-1.10206E-005	-5.39641E-002	1.24039E-001	3.57320E+000	9	...........
	118	1.58667	1.19952E-001	-8.87447E-005	0.00000E+000	-1.06451E-005	-5.39641E-002	1.19964E-001	3.57320E+000	9	...........
	119	1.6	1.15899E-001	-8.89562E-005	0.00000E+000	-1.03100E-005	-5.39641E-002	1.15908E-001	3.57320E+000	9	...........
	120	1.61333	1.11851E-001	-8.89166E-005	0.00000E+000	-9.94540E-006	-5.39641E-002	1.11860E-001	3.57320E+000	9	...........
	121	1.62667	1.07819E-001	-8.89593E-005	0.00000E+000	-9.59147E-006	-5.39641E-002	1.07835E-001	3.57320E+000	9	...........
	122	1.64	1.03817E-001	-8.87645E-005	0.00000E+000	-9.21529E-006	-5.39641E-002	1.03823E-001	3.57320E+000	9	...........
	123	1.65333	9.98195E-002	-8.85988E-005	0.00000E+000	-8.84388E-006	-5.39641E-002	9.98338E-002	3.57320E+000	9	...........
	124	1.66667	9.58407E-002	-8.85800E-005	0.00000E+000	-8.48957E-006	-5.39641E-002	9.58525E-002	3.57320E+000	9	...........
	125	1.68	9.18825E-002	-8.87780E-005	0.00000E+000	-8.15714E-006	-5.39641E-002	9.18859E-002	3.57320E+000	9	...........
	126	1.69333	8.79357E-002	-8.88166E-005	0.00000E+000	-7.81015E-006	-5.39641E-002	8.79425E-002	3.57320E+000	9	...........
	127	1.70667	8.40046E-002	-8.85644E-005	0.00000E+000	-7.43981E-006	-5.39641E-002	8.40122E-002	3.57320E+000	9	...........
	128	1.72	8.01031E-002	-8.87905E-005	0.00000E+000	-7.11239E-006	-5.39641E-002	8.01082E-002	3.57320E+000	9	...........
	129	1.73333	7.62346E-002	-8.86686E-005	0.00000E+000	-6.75961E-006	-5.39641E-002	7.62376E-002	3.57320E+000	9	...........
	130	1.74667	7.23718E-002	-8.86884E-005	0.00000E+000	-6.41854E-006	-5.39641E-002	7.23764E-002	3.57320E+000	9	...........
	131	1.76	6.85319E-002	-8.90604E-005	0.00000E+000	-6.10347E-006	-5.39641E-002	6.85314E-002	3.57320E+000	9	...........
	132	1.77333	6.47079E-002	-8.87259E-005	0.00000E+000	-5.74127E-006	-5.39641E-002	6.47099E-002	3.57320E+000	9	...........
	133	1.78667	6.09020E-002	-8.88061E-005	0.00000E+000	-5.40847E-006	-5.39641E-002	6.09050E-002	3.57320E+000	9	...........
	134	1.8	5.71163E-002	-8.87707E-005	0.00000E+000	-5.07026E-006	-5.39641E-002	5.71179E-002	3.57320E+000	9	...........
	135	1.81333	5.33549E-002	-8.87384E-005	0.00000E+000	-4.73463E-006	-5.39641E-002	5.33560E-002	3.57320E+000	9	...........
	136	1.82667	4.95987E-002	-8.89103E-005	0.00000E+000	-4.40984E-006	-5.39641E-002	4.96000E-002	3.57320E+000	9	...........
	137	1.84	4.58712E-002	-8.88468E-005	0.00000E+000	-4.07550E-006	-5.39641E-002	4.58828E-002	3.57320E+000	9	...........
	138	1.85333	4.21569E-002	-8.87395E-005	0.00000E+000	-3.74098E-006	-5.39641E-002	4.21667E-002	3.57320E+000	9	...........
	139	1.86667	3.84607E-002	-8.88155E-005	0.00000E+000	-3.41591E-006	-5.39641E-002	3.84659E-002	3.57320E+000	9	...........
	140	1.88	3.47647E-002	-8.87645E-005	0.00000E+000	-3.08587E-006	-5.39641E-002	3.47697E-002	3.57320E+000	9	...........
	141	1.89333	3.10914E-002	-8.88124E-005	0.00000E+000	-2.76130E-006	-5.39641E-002	3.10911E-002	3.57320E+000	9	...........
	142	1.90667	2.74375E-002	-8.90749E-005	0.00000E+000	-2.44400E-006	-5.39641E-002	2.74394E-002	3.57320E+000	9	...........
	143	1.92	2.38016E-002	-8.90729E-005	0.00000E+000	-2.12008E-006	-5.39641E-002	2.37980E-002	3.57320E+000	9	...........
	144	1.93333	2.01732E-002	-8.87645E-005	0.00000E+000	-1.79067E-006	-5.39641E-002	2.01697E-002	3.57320E+000	9	...........
	145	1.94667	1.65594E-002	-8.88843E-005	0.00000E+000	-1.47187E-006	-5.39641E-002	1.65529E-002	3.57320E+000	9	...........
	146	1.96	1.29650E-002	-8.86176E-005	0.00000E+000	-1.14892E-006	-5.39641E-002	1.29586E-002	3.57320E+000	9	...........
	147	1.97333	9.39495E-003	-8.86957E-005	0.00000E+000	-8.33291E-007	-5.39641E-002	9.38391E-003	3.57320E+000	9	...........
	148	1.98667	5.84701E-003	-8.87197E-005	0.00000E+000	-5.18745E-007	-5.39641E-002	5.83390E-003	3.57320E+000	9	...........
	149	2	2.31840E-003	-8.87947E-005	0.00000E+000	-2.05861E-007	-5.39641E-002	2.30271E-003	3.57320E+000	9	...........
	150	2.00333	1.26004E-004	-8.89541E-005	0.00000E+000	-1.12086E-008	-5.39641E-002	1.12129E-004	3.57320E+000	9	...........
STARTTIMEOFFSET	QUANT	2606.464	Start Time Offset (s)
