EXPLAIN
TAG	PWR800_DISCHARGE
TITLE	LABEL	PWR Cyclic Charge Discharge (Cell) - Discharge Step	Test &Identifier
DATE	LABEL	10-7-2017	Date
TIME	LABEL	14:59:28	Time
NOTES	NOTES	3	&Notes...
	supercap test cell
	0.9mg
	6M KOH
PSTAT	PSTAT	IFC5000-01520	Potentiostat
CAPACITY	QUANT	1.00000E-003	Capacity (A-hr)
CELLTYPE	SELECTOR	1	&Cell Type
WORKINGCONNECTION	SELECTOR	0	&Working Lead
MAXDISCHARGETIME	VARIABLEANDUNITS	1.00000E+002	s	1.00000E+002	second(s)	Max &Discharge Time
DISCHARGEMODE	MULTIPARAM	0	9.00000E-005	&Discharge Mode	Constant Current	Amp(s)
SAMPLETIME	QUANT	1.00000E-002	Sa&mple Period (s)
DISCHARGESTOPAT1	MULTIPARAM	3	0.00000E+000	Discharge Stop At &1	Voltage < Limit	V
DISCHARGESTOPAT2	MULTIPARAM	0	0.00000E+000	Discharge Stop At &2	None	N/A
AESBHCSELECTOR	TOGGLE	F	Save Both Half Cells
IRCOMP	TOGGLE	F	IR &Measure
EOC	QUANT	0	Open Circuit (V)
SEQUENCER	TOGGLE	TRUE	Run as Sequence
PSTATMODEL	IQUANT	53	Pstat Model
PSTATSECTION	LABEL	IFC5000-01520	Pstat Section
PSTATSERIALNO	LABEL	01520	Pstat Serial Number
CTRLMODE	IQUANT	0	Control Mode
ELECTROMETER	IQUANT	1	RE=0 or CS=1
IESTAB	IQUANT	0	I/E Stability
CASPEED	IQUANT	4	Control Amp Speed
CONVENTION	IQUANT	1	Current Convention
ICHRANGE	IQUANT	2	Ich Range
ICHRANGEMODE	TOGGLE	T	Ich Auto Range
ICHOFFSETENABLE	TOGGLE	F	Ich Offset Enable
ICHOFFSET	QUANT	0	Ich Offset (V)
ICHFILTER	IQUANT	1	Ich Filter
VCHRANGE	IQUANT	2	Vch Range
VCHRANGEMODE	TOGGLE	T	Vch Auto Range
VCHOFFSETENABLE	TOGGLE	F	Vch Offset Enable
VCHOFFSET	QUANT	0	Vch Offset (V)
VCHFILTER	IQUANT	1	Vch Filter
IERANGELOWERLIMIT	IQUANT	9	I/E Range Lower Limit
IERANGEMODE	TOGGLE	F	I/E AutoRange
IERANGE	IQUANT	9	I/E Range
ACHSELECT	IQUANT	1	Ach Select
ACHRANGE	IQUANT	2	Ach Range
ACHOFFSETENABLE	TOGGLE	F	Ach Offset Enable
ACHOFFSET	QUANT	0	Ach Offset (V)
ACHFILTER	IQUANT	1	Ach Filter
CABLEID	IQUANT	14	Cable ID
DCCALDATE	LABEL	5-7-2017	DC Calibration Date
ACCALDATE	LABEL	12/3/2015	AC Calibration Date
FRAMEWORKVERSION	QUANT	7.01	Framework Version
INSTRUMENTVERSION	LABEL	4.00	Instrument Version
CURVE	TABLE	186
	Pt	T	Vf	Im	Vu	Pwr	Sig	Ach	Temp	IERange	Over
	#	s	V	A	V	W	V	V	deg C	#	bits
	0	0.013333	8.53789E-001	-8.82550E-005	0.00000E+000	-7.53512E-005	-5.39641E-002	8.53918E-001	3.57060E+000	9	...........
	1	0.026667	8.44550E-001	-8.83956E-005	0.00000E+000	-7.46545E-005	-5.39641E-002	8.44658E-001	3.57060E+000	9	...........
	2	0.04	8.35755E-001	-8.84873E-005	0.00000E+000	-7.39537E-005	-5.39641E-002	8.35858E-001	3.57060E+000	9	...........
	3	0.053333	8.27323E-001	-8.86134E-005	0.00000E+000	-7.33119E-005	-5.39641E-002	8.27403E-001	3.57060E+000	9	...........
	4	0.066667	8.19149E-001	-8.85248E-005	0.00000E+000	-7.25150E-005	-5.39641E-002	8.19216E-001	3.57060E+000	9	...........
	5	0.08	8.11180E-001	-8.85352E-005	0.00000E+000	-7.18180E-005	-5.39641E-002	8.11262E-001	3.57060E+000	9	...........
	6	0.093333	8.03456E-001	-8.85592E-005	0.00000E+000	-7.11534E-005	-5.39641E-002	8.03527E-001	3.57060E+000	9	...........
	7	0.106667	7.95882E-001	-8.85978E-005	0.00000E+000	-7.05133E-005	-5.39641E-002	7.95957E-001	3.57060E+000	9	...........
	8	0.12	7.88429E-001	-8.84029E-005	0.00000E+000	-6.96994E-005	-5.39641E-002	7.88519E-001	3.57060E+000	9	...........
	9	0.133333	7.81153E-001	-8.84477E-005	0.00000E+000	-6.90912E-005	-5.39641E-002	7.81236E-001	3.57060E+000	9	...........
	10	0.146667	7.73950E-001	-8.87853E-005	0.00000E+000	-6.87154E-005	-5.39641E-002	7.74062E-001	3.57060E+000	9	...........
	11	0.16	7.66901E-001	-8.84550E-005	0.00000E+000	-6.78363E-005	-5.39641E-002	7.66990E-001	3.57060E+000	9	...........
	12	0.173333	7.59919E-001	-8.84873E-005	0.00000E+000	-6.72432E-005	-5.39641E-002	7.59992E-001	3.57060E+000	9	...........
	13	0.186667	7.53042E-001	-8.87395E-005	0.00000E+000	-6.68246E-005	-5.39641E-002	7.53120E-001	3.57060E+000	9	...........
	14	0.2	7.46241E-001	-8.86269E-005	0.00000E+000	-6.61370E-005	-5.39641E-002	7.46329E-001	3.57060E+000	9	...........
	15	0.213333	7.39517E-001	-8.85061E-005	0.00000E+000	-6.54518E-005	-5.39641E-002	7.39601E-001	3.57060E+000	9	...........
	16	0.226667	7.32875E-001	-8.86686E-005	0.00000E+000	-6.49830E-005	-5.39641E-002	7.32965E-001	3.57060E+000	9	...........
	17	0.24	7.26339E-001	-8.85873E-005	0.00000E+000	-6.43444E-005	-5.39641E-002	7.26388E-001	3.57060E+000	9	...........
	18	0.253333	7.19852E-001	-8.85884E-005	0.00000E+000	-6.37706E-005	-5.39641E-002	7.19900E-001	3.57060E+000	9	...........
	19	0.266667	7.13355E-001	-8.84238E-005	0.00000E+000	-6.30775E-005	-5.39641E-002	7.13455E-001	3.57060E+000	9	...........
	20	0.28	7.06990E-001	-8.87040E-005	0.00000E+000	-6.27129E-005	-5.39641E-002	7.07098E-001	3.57060E+000	9	...........
	21	0.293333	7.00690E-001	-8.86415E-005	0.00000E+000	-6.21103E-005	-5.39641E-002	7.00752E-001	3.57060E+000	9	...........
	22	0.306667	6.94428E-001	-8.87405E-005	0.00000E+000	-6.16239E-005	-5.39641E-002	6.94482E-001	3.57060E+000	9	...........
	23	0.32	6.88156E-001	-8.85759E-005	0.00000E+000	-6.09540E-005	-5.39641E-002	6.88259E-001	3.57060E+000	9	...........
	24	0.333333	6.82023E-001	-8.86030E-005	0.00000E+000	-6.04293E-005	-5.39641E-002	6.82079E-001	3.57060E+000	9	...........
	25	0.346667	6.75869E-001	-8.85071E-005	0.00000E+000	-5.98192E-005	-5.39641E-002	6.75944E-001	3.57060E+000	9	...........
	26	0.36	6.69794E-001	-8.86061E-005	0.00000E+000	-5.93478E-005	-5.39641E-002	6.69863E-001	3.57060E+000	9	...........
	27	0.373333	6.63714E-001	-8.83342E-005	0.00000E+000	-5.86286E-005	-5.39641E-002	6.63795E-001	3.57060E+000	9	...........
	28	0.386667	6.57700E-001	-8.86842E-005	0.00000E+000	-5.83276E-005	-5.39641E-002	6.57773E-001	3.57060E+000	9	...........
	29	0.4	6.51719E-001	-8.87217E-005	0.00000E+000	-5.78216E-005	-5.39641E-002	6.51780E-001	3.57060E+000	9	...........
	30	0.413333	6.45790E-001	-8.87217E-005	0.00000E+000	-5.72956E-005	-5.39641E-002	6.45858E-001	3.57060E+000	9	...........
	31	0.426667	6.39865E-001	-8.85134E-005	0.00000E+000	-5.66366E-005	-5.39641E-002	6.39923E-001	3.57059E+000	9	...........
	32	0.44	6.33982E-001	-8.85446E-005	0.00000E+000	-5.61357E-005	-5.39641E-002	6.34043E-001	3.57050E+000	9	...........
	33	0.453333	6.28126E-001	-8.84300E-005	0.00000E+000	-5.55452E-005	-5.39641E-002	6.28194E-001	3.57050E+000	9	...........
	34	0.466667	6.22316E-001	-8.83654E-005	0.00000E+000	-5.49912E-005	-5.39641E-002	6.22366E-001	3.57050E+000	9	...........
	35	0.48	6.16529E-001	-8.85269E-005	0.00000E+000	-5.45794E-005	-5.39641E-002	6.16579E-001	3.57050E+000	9	...........
	36	0.493333	6.10695E-001	-8.86207E-005	0.00000E+000	-5.41202E-005	-5.39641E-002	6.10767E-001	3.57050E+000	9	...........
	37	0.506667	6.04961E-001	-8.85207E-005	0.00000E+000	-5.35516E-005	-5.39641E-002	6.05051E-001	3.57050E+000	9	...........
	38	0.52	5.99267E-001	-8.86092E-005	0.00000E+000	-5.31005E-005	-5.39641E-002	5.99337E-001	3.57050E+000	9	...........
	39	0.533333	5.93598E-001	-8.84967E-005	0.00000E+000	-5.25315E-005	-5.39641E-002	5.93638E-001	3.57050E+000	9	...........
	40	0.546667	5.87917E-001	-8.85405E-005	0.00000E+000	-5.20545E-005	-5.39641E-002	5.87983E-001	3.57050E+000	9	...........
	41	0.56	5.82264E-001	-8.85446E-005	0.00000E+000	-5.15564E-005	-5.39641E-002	5.82316E-001	3.57050E+000	9	...........
	42	0.573333	5.76642E-001	-8.85800E-005	0.00000E+000	-5.10790E-005	-5.39641E-002	5.76705E-001	3.57050E+000	9	...........
	43	0.586667	5.71051E-001	-8.84863E-005	0.00000E+000	-5.05302E-005	-5.39641E-002	5.71103E-001	3.57050E+000	9	...........
	44	0.6	5.65510E-001	-8.85634E-005	0.00000E+000	-5.00835E-005	-5.39641E-002	5.65524E-001	3.57050E+000	9	...........
	45	0.613333	5.59902E-001	-8.86623E-005	0.00000E+000	-4.96422E-005	-5.39641E-002	5.59934E-001	3.57050E+000	9	...........
	46	0.626667	5.54386E-001	-8.85165E-005	0.00000E+000	-4.90723E-005	-5.39641E-002	5.54420E-001	3.57050E+000	9	...........
	47	0.64	5.48893E-001	-8.86915E-005	0.00000E+000	-4.86822E-005	-5.39641E-002	5.48911E-001	3.57050E+000	9	...........
	48	0.653333	5.43416E-001	-8.86853E-005	0.00000E+000	-4.81930E-005	-5.39641E-002	5.43459E-001	3.57050E+000	9	...........
	49	0.666667	5.37992E-001	-8.86426E-005	0.00000E+000	-4.76889E-005	-5.39641E-002	5.38034E-001	3.57050E+000	9	...........
	50	0.68	5.32542E-001	-8.84759E-005	0.00000E+000	-4.71171E-005	-5.39641E-002	5.32584E-001	3.57050E+000	9	...........
	51	0.693333	5.27141E-001	-8.87551E-005	0.00000E+000	-4.67865E-005	-5.39641E-002	5.27206E-001	3.57050E+000	9	...........
	52	0.706667	5.21746E-001	-8.84998E-005	0.00000E+000	-4.61744E-005	-5.39641E-002	5.21804E-001	3.57050E+000	9	...........
	53	0.72	5.16412E-001	-8.85759E-005	0.00000E+000	-4.57417E-005	-5.39641E-002	5.16470E-001	3.57050E+000	9	...........
	54	0.733333	5.11045E-001	-8.86228E-005	0.00000E+000	-4.52902E-005	-5.39641E-002	5.11138E-001	3.57050E+000	9	...........
	55	0.746667	5.05715E-001	-8.85561E-005	0.00000E+000	-4.47841E-005	-5.39641E-002	5.05808E-001	3.57050E+000	9	...........
	56	0.76	5.00430E-001	-8.82998E-005	0.00000E+000	-4.41879E-005	-5.39641E-002	5.00524E-001	3.57050E+000	9	...........
	57	0.773333	4.95171E-001	-8.84779E-005	0.00000E+000	-4.38117E-005	-5.39641E-002	4.95240E-001	3.57050E+000	9	...........
	58	0.786667	4.89950E-001	-8.86999E-005	0.00000E+000	-4.34585E-005	-5.39641E-002	4.89988E-001	3.57050E+000	9	...........
	59	0.8	4.84721E-001	-8.84946E-005	0.00000E+000	-4.28952E-005	-5.39641E-002	4.84769E-001	3.57050E+000	9	...........
	60	0.813333	4.79524E-001	-8.85790E-005	0.00000E+000	-4.24757E-005	-5.39641E-002	4.79561E-001	3.57050E+000	9	...........
	61	0.826667	4.74351E-001	-8.86071E-005	0.00000E+000	-4.20308E-005	-5.39641E-002	4.74388E-001	3.57050E+000	9	...........
	62	0.84	4.69206E-001	-8.84488E-005	0.00000E+000	-4.15007E-005	-5.39641E-002	4.69241E-001	3.57050E+000	9	...........
	63	0.853333	4.64074E-001	-8.87207E-005	0.00000E+000	-4.11730E-005	-5.39641E-002	4.64112E-001	3.57050E+000	9	...........
	64	0.866667	4.58972E-001	-8.83290E-005	0.00000E+000	-4.05406E-005	-5.39641E-002	4.59014E-001	3.57050E+000	9	...........
	65	0.88	4.53902E-001	-8.85280E-005	0.00000E+000	-4.01831E-005	-5.39641E-002	4.53942E-001	3.57050E+000	9	...........
	66	0.893333	4.48846E-001	-8.84436E-005	0.00000E+000	-3.96976E-005	-5.39641E-002	4.48884E-001	3.57050E+000	9	...........
	67	0.906667	4.43815E-001	-8.84884E-005	0.00000E+000	-3.92724E-005	-5.39641E-002	4.43852E-001	3.57050E+000	9	...........
	68	0.92	4.38799E-001	-8.88936E-005	0.00000E+000	-3.90064E-005	-5.39641E-002	4.38837E-001	3.57050E+000	9	...........
	69	0.933333	4.33819E-001	-8.85061E-005	0.00000E+000	-3.83957E-005	-5.39641E-002	4.33851E-001	3.57050E+000	9	...........
	70	0.946667	4.28862E-001	-8.87144E-005	0.00000E+000	-3.80463E-005	-5.39641E-002	4.28899E-001	3.57050E+000	9	...........
	71	0.96	4.23927E-001	-8.87103E-005	0.00000E+000	-3.76067E-005	-5.39641E-002	4.23960E-001	3.57050E+000	9	...........
	72	0.97333	4.19040E-001	-8.84373E-005	0.00000E+000	-3.70587E-005	-5.39641E-002	4.19075E-001	3.57050E+000	9	...........
	73	0.98667	4.14175E-001	-8.87634E-005	0.00000E+000	-3.67636E-005	-5.39641E-002	4.14204E-001	3.57050E+000	9	...........
	74	1	4.09332E-001	-8.85352E-005	0.00000E+000	-3.62403E-005	-5.39641E-002	4.09366E-001	3.57050E+000	9	...........
	75	1.01333	4.04526E-001	-8.84925E-005	0.00000E+000	-3.57975E-005	-5.39641E-002	4.04552E-001	3.57050E+000	9	...........
	76	1.02667	3.99733E-001	-8.89218E-005	0.00000E+000	-3.55449E-005	-5.39641E-002	3.99759E-001	3.57050E+000	9	...........
	77	1.04	3.94967E-001	-8.85384E-005	0.00000E+000	-3.49697E-005	-5.39641E-002	3.94991E-001	3.57050E+000	9	...........
	78	1.05333	3.90243E-001	-8.86134E-005	0.00000E+000	-3.45808E-005	-5.39641E-002	3.90265E-001	3.57050E+000	9	...........
	79	1.06667	3.85545E-001	-8.84592E-005	0.00000E+000	-3.41050E-005	-5.39641E-002	3.85570E-001	3.57050E+000	9	...........
	80	1.08	3.80865E-001	-8.85509E-005	0.00000E+000	-3.37259E-005	-5.39641E-002	3.80893E-001	3.57050E+000	9	...........
	81	1.09333	3.76226E-001	-8.88082E-005	0.00000E+000	-3.34120E-005	-5.39641E-002	3.76246E-001	3.57050E+000	9	...........
	82	1.10667	3.71611E-001	-8.85530E-005	0.00000E+000	-3.29073E-005	-5.39641E-002	3.71633E-001	3.57050E+000	9	...........
	83	1.12	3.67016E-001	-8.86436E-005	0.00000E+000	-3.25336E-005	-5.39641E-002	3.67044E-001	3.57050E+000	9	...........
	84	1.13333	3.62419E-001	-8.88082E-005	0.00000E+000	-3.21858E-005	-5.39641E-002	3.62450E-001	3.57050E+000	9	...........
	85	1.14667	3.57854E-001	-8.86436E-005	0.00000E+000	-3.17214E-005	-5.39641E-002	3.57880E-001	3.57050E+000	9	...........
	86	1.16	3.53332E-001	-8.82341E-005	0.00000E+000	-3.11760E-005	-5.39641E-002	3.53351E-001	3.57050E+000	9	...........
	87	1.17333	3.48839E-001	-8.83894E-005	0.00000E+000	-3.08336E-005	-5.39641E-002	3.48865E-001	3.57050E+000	9	...........
	88	1.18667	3.44372E-001	-8.88686E-005	0.00000E+000	-3.06039E-005	-5.39641E-002	3.44397E-001	3.57050E+000	9	...........
	89	1.2	3.39938E-001	-8.85457E-005	0.00000E+000	-3.01000E-005	-5.39641E-002	3.39961E-001	3.57050E+000	9	...........
	90	1.21333	3.35511E-001	-8.83935E-005	0.00000E+000	-2.96570E-005	-5.39641E-002	3.35534E-001	3.57050E+000	9	...........
	91	1.22667	3.31114E-001	-8.87999E-005	0.00000E+000	-2.94029E-005	-5.39641E-002	3.31136E-001	3.57050E+000	9	...........
	92	1.24	3.26728E-001	-8.84311E-005	0.00000E+000	-2.88929E-005	-5.39641E-002	3.26755E-001	3.57050E+000	9	...........
	93	1.25333	3.22342E-001	-8.90030E-005	0.00000E+000	-2.86894E-005	-5.39641E-002	3.22368E-001	3.57050E+000	9	...........
	94	1.26667	3.17992E-001	-8.85196E-005	0.00000E+000	-2.81485E-005	-5.39641E-002	3.18020E-001	3.57050E+000	9	...........
	95	1.28	3.13671E-001	-8.85363E-005	0.00000E+000	-2.77713E-005	-5.39641E-002	3.13698E-001	3.57050E+000	9	...........
	96	1.29333	3.09372E-001	-8.83696E-005	0.00000E+000	-2.73391E-005	-5.39641E-002	3.09392E-001	3.57050E+000	9	...........
	97	1.30667	3.05101E-001	-8.87405E-005	0.00000E+000	-2.70748E-005	-5.39641E-002	3.05120E-001	3.57050E+000	9	...........
	98	1.32	3.00856E-001	-8.83821E-005	0.00000E+000	-2.65903E-005	-5.39641E-002	3.00880E-001	3.57050E+000	9	...........
	99	1.33333	2.96635E-001	-8.86926E-005	0.00000E+000	-2.63094E-005	-5.39641E-002	2.96658E-001	3.57050E+000	9	...........
	100	1.34667	2.92436E-001	-8.86624E-005	0.00000E+000	-2.59281E-005	-5.39641E-002	2.92462E-001	3.57050E+000	9	...........
	101	1.36	2.88273E-001	-8.85998E-005	0.00000E+000	-2.55409E-005	-5.39641E-002	2.88296E-001	3.57050E+000	9	...........
	102	1.37333	2.84107E-001	-8.84175E-005	0.00000E+000	-2.51200E-005	-5.39641E-002	2.84128E-001	3.57050E+000	9	...........
	103	1.38667	2.79959E-001	-8.88020E-005	0.00000E+000	-2.48609E-005	-5.39641E-002	2.79980E-001	3.57050E+000	9	...........
	104	1.4	2.75842E-001	-8.85842E-005	0.00000E+000	-2.44353E-005	-5.39641E-002	2.75868E-001	3.57050E+000	9	...........
	105	1.41333	2.71748E-001	-8.86499E-005	0.00000E+000	-2.40904E-005	-5.39641E-002	2.71767E-001	3.57050E+000	9	...........
	106	1.42667	2.67662E-001	-8.86301E-005	0.00000E+000	-2.37229E-005	-5.39641E-002	2.67684E-001	3.57054E+000	9	...........
	107	1.44	2.63580E-001	-8.85946E-005	0.00000E+000	-2.33518E-005	-5.39641E-002	2.63602E-001	3.57090E+000	9	...........
	108	1.45333	2.59512E-001	-8.87103E-005	0.00000E+000	-2.30213E-005	-5.39641E-002	2.59536E-001	3.57090E+000	9	...........
	109	1.46667	2.55467E-001	-8.84206E-005	0.00000E+000	-2.25886E-005	-5.39641E-002	2.55487E-001	3.57090E+000	9	...........
	110	1.48	2.51446E-001	-8.85102E-005	0.00000E+000	-2.22555E-005	-5.39641E-002	2.51461E-001	3.57090E+000	9	...........
	111	1.49333	2.47441E-001	-8.84894E-005	0.00000E+000	-2.18959E-005	-5.39641E-002	2.47459E-001	3.57090E+000	9	...........
	112	1.50667	2.43466E-001	-8.83748E-005	0.00000E+000	-2.15162E-005	-5.39641E-002	2.43485E-001	3.57090E+000	9	...........
	113	1.52	2.39493E-001	-8.84311E-005	0.00000E+000	-2.11786E-005	-5.39641E-002	2.39504E-001	3.57090E+000	9	...........
	114	1.53333	2.35555E-001	-8.86519E-005	0.00000E+000	-2.08824E-005	-5.39641E-002	2.35569E-001	3.57090E+000	9	...........
	115	1.54667	2.31631E-001	-8.86592E-005	0.00000E+000	-2.05362E-005	-5.39641E-002	2.31648E-001	3.57090E+000	9	...........
	116	1.56	2.27736E-001	-8.85769E-005	0.00000E+000	-2.01721E-005	-5.39641E-002	2.27745E-001	3.57090E+000	9	...........
	117	1.57333	2.23843E-001	-8.83769E-005	0.00000E+000	-1.97825E-005	-5.39641E-002	2.23859E-001	3.57090E+000	9	...........
	118	1.58667	2.19968E-001	-8.86811E-005	0.00000E+000	-1.95070E-005	-5.39641E-002	2.19980E-001	3.57090E+000	9	...........
	119	1.6	2.16105E-001	-8.84498E-005	0.00000E+000	-1.91145E-005	-5.39641E-002	2.16123E-001	3.57090E+000	9	...........
	120	1.61333	2.12257E-001	-8.87113E-005	0.00000E+000	-1.88296E-005	-5.39641E-002	2.12274E-001	3.57090E+000	9	...........
	121	1.62667	2.08433E-001	-8.85998E-005	0.00000E+000	-1.84671E-005	-5.39641E-002	2.08450E-001	3.57090E+000	9	...........
	122	1.64	2.04610E-001	-8.86582E-005	0.00000E+000	-1.81404E-005	-5.39641E-002	2.04625E-001	3.57090E+000	9	...........
	123	1.65333	2.00812E-001	-8.86697E-005	0.00000E+000	-1.78059E-005	-5.39641E-002	2.00834E-001	3.57090E+000	9	...........
	124	1.66667	1.97037E-001	-8.83863E-005	0.00000E+000	-1.74154E-005	-5.39641E-002	1.97053E-001	3.57090E+000	9	...........
	125	1.68	1.93288E-001	-8.85071E-005	0.00000E+000	-1.71074E-005	-5.39641E-002	1.93301E-001	3.57090E+000	9	...........
	126	1.69333	1.89542E-001	-8.86092E-005	0.00000E+000	-1.67952E-005	-5.39641E-002	1.89550E-001	3.57090E+000	9	...........
	127	1.70667	1.85814E-001	-8.84894E-005	0.00000E+000	-1.64426E-005	-5.39641E-002	1.85828E-001	3.57090E+000	9	...........
	128	1.72	1.82087E-001	-8.86759E-005	0.00000E+000	-1.61467E-005	-5.39641E-002	1.82104E-001	3.57090E+000	9	...........
	129	1.73333	1.78381E-001	-8.86009E-005	0.00000E+000	-1.58047E-005	-5.39641E-002	1.78399E-001	3.57090E+000	9	...........
	130	1.74667	1.74705E-001	-8.86780E-005	0.00000E+000	-1.54925E-005	-5.39641E-002	1.74721E-001	3.57090E+000	9	...........
	131	1.76	1.71055E-001	-8.87030E-005	0.00000E+000	-1.51731E-005	-5.39641E-002	1.71072E-001	3.57090E+000	9	...........
	132	1.77333	1.67416E-001	-8.84509E-005	0.00000E+000	-1.48081E-005	-5.39641E-002	1.67427E-001	3.57090E+000	9	...........
	133	1.78667	1.63802E-001	-8.83717E-005	0.00000E+000	-1.44755E-005	-5.39641E-002	1.63807E-001	3.57090E+000	9	...........
	134	1.8	1.60197E-001	-8.85405E-005	0.00000E+000	-1.41839E-005	-5.39641E-002	1.60201E-001	3.57090E+000	9	...........
	135	1.81333	1.56590E-001	-8.88041E-005	0.00000E+000	-1.39058E-005	-5.39641E-002	1.56597E-001	3.57090E+000	9	...........
	136	1.82667	1.52999E-001	-8.88999E-005	0.00000E+000	-1.36016E-005	-5.39641E-002	1.53005E-001	3.57090E+000	9	...........
	137	1.84	1.49406E-001	-8.86238E-005	0.00000E+000	-1.32410E-005	-5.39641E-002	1.49416E-001	3.57090E+000	9	...........
	138	1.85333	1.45835E-001	-8.86832E-005	0.00000E+000	-1.29331E-005	-5.39641E-002	1.45839E-001	3.57090E+000	9	...........
	139	1.86667	1.42279E-001	-8.86394E-005	0.00000E+000	-1.26115E-005	-5.39641E-002	1.42288E-001	3.57090E+000	9	...........
	140	1.88	1.38733E-001	-8.85853E-005	0.00000E+000	-1.22897E-005	-5.39641E-002	1.38738E-001	3.57090E+000	9	...........
	141	1.89333	1.35226E-001	-8.85352E-005	0.00000E+000	-1.19723E-005	-5.39641E-002	1.35231E-001	3.57090E+000	9	...........
	142	1.90667	1.31736E-001	-8.84456E-005	0.00000E+000	-1.16515E-005	-5.39641E-002	1.31745E-001	3.57090E+000	9	...........
	143	1.92	1.28239E-001	-8.85446E-005	0.00000E+000	-1.13548E-005	-5.39641E-002	1.28245E-001	3.57090E+000	9	...........
	144	1.93333	1.24759E-001	-8.86509E-005	0.00000E+000	-1.10600E-005	-5.39641E-002	1.24763E-001	3.57090E+000	9	...........
	145	1.94667	1.21285E-001	-8.85082E-005	0.00000E+000	-1.07347E-005	-5.39641E-002	1.21288E-001	3.57090E+000	9	...........
	146	1.96	1.17822E-001	-8.85696E-005	0.00000E+000	-1.04354E-005	-5.39641E-002	1.17827E-001	3.57090E+000	9	...........
	147	1.97333	1.14411E-001	-8.85519E-005	0.00000E+000	-1.01313E-005	-5.39641E-002	1.14418E-001	3.57090E+000	9	...........
	148	1.98667	1.11015E-001	-8.84498E-005	0.00000E+000	-9.81928E-006	-5.39641E-002	1.11018E-001	3.57090E+000	9	...........
	149	2	1.07648E-001	-8.85321E-005	0.00000E+000	-9.53035E-006	-5.39641E-002	1.07656E-001	3.57090E+000	9	...........
	150	2.01333	1.04279E-001	-8.84217E-005	0.00000E+000	-9.22057E-006	-5.39641E-002	1.04284E-001	3.57090E+000	9	...........
	151	2.02667	1.00945E-001	-8.85988E-005	0.00000E+000	-8.94360E-006	-5.39641E-002	1.00949E-001	3.57090E+000	9	...........
	152	2.04	9.76311E-002	-8.83300E-005	0.00000E+000	-8.62376E-006	-5.39641E-002	9.76389E-002	3.57090E+000	9	...........
	153	2.05333	9.43380E-002	-8.85519E-005	0.00000E+000	-8.35381E-006	-5.39641E-002	9.43424E-002	3.57090E+000	9	...........
	154	2.06667	9.10275E-002	-8.83039E-005	0.00000E+000	-8.03809E-006	-5.39641E-002	9.10314E-002	3.57090E+000	9	...........
	155	2.08	8.77413E-002	-8.85269E-005	0.00000E+000	-7.76747E-006	-5.39641E-002	8.77443E-002	3.57090E+000	9	...........
	156	2.09333	8.44757E-002	-8.87592E-005	0.00000E+000	-7.49800E-006	-5.39641E-002	8.44773E-002	3.57090E+000	9	...........
	157	2.10667	8.12598E-002	-8.85342E-005	0.00000E+000	-7.19427E-006	-5.39641E-002	8.12535E-002	3.57090E+000	9	...........
	158	2.12	7.80677E-002	-8.83362E-005	0.00000E+000	-6.89621E-006	-5.39641E-002	7.80603E-002	3.57090E+000	9	...........
	159	2.13333	7.48964E-002	-8.83039E-005	0.00000E+000	-6.61365E-006	-5.39641E-002	7.48897E-002	3.57090E+000	9	...........
	160	2.14667	7.17339E-002	-8.87686E-005	0.00000E+000	-6.36772E-006	-5.39641E-002	7.17252E-002	3.57090E+000	9	...........
	161	2.16	6.85932E-002	-8.86040E-005	0.00000E+000	-6.07763E-006	-5.39641E-002	6.85816E-002	3.57090E+000	9	...........
	162	2.17333	6.54678E-002	-8.86238E-005	0.00000E+000	-5.80201E-006	-5.39641E-002	6.54653E-002	3.57090E+000	9	...........
	163	2.18667	6.23548E-002	-8.85280E-005	0.00000E+000	-5.52015E-006	-5.39641E-002	6.23484E-002	3.57090E+000	9	...........
	164	2.2	5.92431E-002	-8.83717E-005	0.00000E+000	-5.23541E-006	-5.39641E-002	5.92404E-002	3.57090E+000	9	...........
	165	2.21333	5.61533E-002	-8.85050E-005	0.00000E+000	-4.96985E-006	-5.39641E-002	5.61511E-002	3.57090E+000	9	...........
	166	2.22667	5.30909E-002	-8.85790E-005	0.00000E+000	-4.70273E-006	-5.39641E-002	5.30802E-002	3.57090E+000	9	...........
	167	2.24	5.00377E-002	-8.87707E-005	0.00000E+000	-4.44188E-006	-5.39641E-002	5.00327E-002	3.57090E+000	9	...........
	168	2.25333	4.70129E-002	-8.86769E-005	0.00000E+000	-4.16896E-006	-5.39641E-002	4.70184E-002	3.57090E+000	9	...........
	169	2.26667	4.40123E-002	-8.83404E-005	0.00000E+000	-3.88806E-006	-5.39641E-002	4.40214E-002	3.57090E+000	9	...........
	170	2.28	4.10165E-002	-8.86457E-005	0.00000E+000	-3.63593E-006	-5.39641E-002	4.10170E-002	3.57090E+000	9	...........
	171	2.29333	3.80525E-002	-8.86665E-005	0.00000E+000	-3.37399E-006	-5.39641E-002	3.80576E-002	3.57090E+000	9	...........
	172	2.30667	3.50945E-002	-8.87030E-005	0.00000E+000	-3.11298E-006	-5.39641E-002	3.50953E-002	3.57090E+000	9	...........
	173	2.32	3.21739E-002	-8.88614E-005	0.00000E+000	-2.85902E-006	-5.39641E-002	3.21780E-002	3.57090E+000	9	...........
	174	2.33333	2.92881E-002	-8.84894E-005	0.00000E+000	-2.59169E-006	-5.39641E-002	2.92867E-002	3.57090E+000	9	...........
	175	2.34667	2.64028E-002	-8.85686E-005	0.00000E+000	-2.33846E-006	-5.39641E-002	2.64034E-002	3.57090E+000	9	...........
	176	2.36	2.35546E-002	-8.88655E-005	0.00000E+000	-2.09319E-006	-5.39641E-002	2.35552E-002	3.57090E+000	9	...........
	177	2.37333	2.07430E-002	-8.87384E-005	0.00000E+000	-1.84070E-006	-5.39641E-002	2.07413E-002	3.57090E+000	9	...........
	178	2.38667	1.79445E-002	-8.85769E-005	0.00000E+000	-1.58947E-006	-5.39641E-002	1.79443E-002	3.57090E+000	9	...........
	179	2.4	1.51676E-002	-8.85186E-005	0.00000E+000	-1.34262E-006	-5.39641E-002	1.51629E-002	3.57090E+000	9	...........
	180	2.41333	1.23997E-002	-8.86301E-005	0.00000E+000	-1.09899E-006	-5.39641E-002	1.23886E-002	3.57090E+000	9	...........
	181	2.42667	9.64751E-003	-8.85946E-005	0.00000E+000	-8.54718E-007	-5.39641E-002	9.63683E-003	3.57089E+000	9	...........
	182	2.44	6.89757E-003	-8.87926E-005	0.00000E+000	-6.12453E-007	-5.39641E-002	6.88712E-003	3.57080E+000	9	...........
	183	2.45333	4.19807E-003	-8.86175E-005	0.00000E+000	-3.72022E-007	-5.39641E-002	4.18574E-003	3.57080E+000	9	...........
	184	2.46667	1.52968E-003	-8.85790E-005	0.00000E+000	-1.35497E-007	-5.39641E-002	1.51747E-003	3.57080E+000	9	...........
	185	2.47	-1.28426E-004	-8.85832E-005	0.00000E+000	1.13764E-008	-5.39641E-002	-1.31138E-004	3.57080E+000	9	...........
STARTTIMEOFFSET	QUANT	8.753334	Start Time Offset (s)
