EXPLAIN
TAG	PWR800_DISCHARGE
TITLE	LABEL	PWR Cyclic Charge Discharge (Cell) - Discharge Step	Test &Identifier
DATE	LABEL	10-7-2017	Date
TIME	LABEL	16:16:49	Time
NOTES	NOTES	3	&Notes...
	supercap test cell
	0.9mg
	6M KOH
PSTAT	PSTAT	IFC5000-01520	Potentiostat
CAPACITY	QUANT	1.00000E-003	Capacity (A-hr)
CELLTYPE	SELECTOR	1	&Cell Type
WORKINGCONNECTION	SELECTOR	0	&Working Lead
MAXDISCHARGETIME	VARIABLEANDUNITS	1.00000E+002	s	1.00000E+002	second(s)	Max &Discharge Time
DISCHARGEMODE	MULTIPARAM	0	9.00000E-005	&Discharge Mode	Constant Current	Amp(s)
SAMPLETIME	QUANT	1.00000E-002	Sa&mple Period (s)
DISCHARGESTOPAT1	MULTIPARAM	3	0.00000E+000	Discharge Stop At &1	Voltage < Limit	V
DISCHARGESTOPAT2	MULTIPARAM	0	0.00000E+000	Discharge Stop At &2	None	N/A
AESBHCSELECTOR	TOGGLE	F	Save Both Half Cells
IRCOMP	TOGGLE	F	IR &Measure
EOC	QUANT	0	Open Circuit (V)
SEQUENCER	TOGGLE	TRUE	Run as Sequence
PSTATMODEL	IQUANT	53	Pstat Model
PSTATSECTION	LABEL	IFC5000-01520	Pstat Section
PSTATSERIALNO	LABEL	01520	Pstat Serial Number
CTRLMODE	IQUANT	0	Control Mode
ELECTROMETER	IQUANT	1	RE=0 or CS=1
IESTAB	IQUANT	0	I/E Stability
CASPEED	IQUANT	4	Control Amp Speed
CONVENTION	IQUANT	1	Current Convention
ICHRANGE	IQUANT	2	Ich Range
ICHRANGEMODE	TOGGLE	T	Ich Auto Range
ICHOFFSETENABLE	TOGGLE	F	Ich Offset Enable
ICHOFFSET	QUANT	0	Ich Offset (V)
ICHFILTER	IQUANT	1	Ich Filter
VCHRANGE	IQUANT	2	Vch Range
VCHRANGEMODE	TOGGLE	T	Vch Auto Range
VCHOFFSETENABLE	TOGGLE	F	Vch Offset Enable
VCHOFFSET	QUANT	0	Vch Offset (V)
VCHFILTER	IQUANT	1	Vch Filter
IERANGELOWERLIMIT	IQUANT	9	I/E Range Lower Limit
IERANGEMODE	TOGGLE	F	I/E AutoRange
IERANGE	IQUANT	9	I/E Range
ACHSELECT	IQUANT	1	Ach Select
ACHRANGE	IQUANT	2	Ach Range
ACHOFFSETENABLE	TOGGLE	F	Ach Offset Enable
ACHOFFSET	QUANT	0	Ach Offset (V)
ACHFILTER	IQUANT	1	Ach Filter
CABLEID	IQUANT	14	Cable ID
DCCALDATE	LABEL	5-7-2017	DC Calibration Date
ACCALDATE	LABEL	12/3/2015	AC Calibration Date
FRAMEWORKVERSION	QUANT	7.01	Framework Version
INSTRUMENTVERSION	LABEL	4.00	Instrument Version
CURVE	TABLE	147
	Pt	T	Vf	Im	Vu	Pwr	Sig	Ach	Temp	IERange	Over
	#	s	V	A	V	W	V	V	deg C	#	bits
	0	0.013333	8.03929E-001	-8.90156E-005	0.00000E+000	-7.15621E-005	-5.39641E-002	8.04060E-001	3.57320E+000	9	...........
	1	0.026667	7.89521E-001	-8.89280E-005	0.00000E+000	-7.02105E-005	-5.39641E-002	7.89636E-001	3.57320E+000	9	...........
	2	0.04	7.76080E-001	-8.89510E-005	0.00000E+000	-6.90330E-005	-5.39641E-002	7.76216E-001	3.57320E+000	9	...........
	3	0.053333	7.63436E-001	-8.87592E-005	0.00000E+000	-6.77620E-005	-5.39641E-002	7.63561E-001	3.57320E+000	9	...........
	4	0.066667	7.51467E-001	-8.86988E-005	0.00000E+000	-6.66542E-005	-5.39641E-002	7.51592E-001	3.57320E+000	9	...........
	5	0.08	7.40027E-001	-8.88457E-005	0.00000E+000	-6.57483E-005	-5.39641E-002	7.40144E-001	3.57320E+000	9	...........
	6	0.093333	7.29071E-001	-8.87113E-005	0.00000E+000	-6.46768E-005	-5.39641E-002	7.29181E-001	3.57320E+000	9	...........
	7	0.106667	7.18542E-001	-8.88509E-005	0.00000E+000	-6.38431E-005	-5.39641E-002	7.18650E-001	3.57320E+000	9	...........
	8	0.12	7.08354E-001	-8.86467E-005	0.00000E+000	-6.27933E-005	-5.39641E-002	7.08478E-001	3.57320E+000	9	...........
	9	0.133333	6.98587E-001	-8.87822E-005	0.00000E+000	-6.20221E-005	-5.39641E-002	6.98684E-001	3.57320E+000	9	...........
	10	0.146667	6.89062E-001	-8.88624E-005	0.00000E+000	-6.12317E-005	-5.39641E-002	6.89157E-001	3.57320E+000	9	...........
	11	0.16	6.79849E-001	-8.89301E-005	0.00000E+000	-6.04590E-005	-5.39641E-002	6.79957E-001	3.57320E+000	9	...........
	12	0.173333	6.70908E-001	-8.88343E-005	0.00000E+000	-5.95996E-005	-5.39641E-002	6.71009E-001	3.57320E+000	9	...........
	13	0.186667	6.62157E-001	-8.89478E-005	0.00000E+000	-5.88975E-005	-5.39641E-002	6.62268E-001	3.57320E+000	9	...........
	14	0.2	6.53679E-001	-8.86186E-005	0.00000E+000	-5.79281E-005	-5.39641E-002	6.53818E-001	3.57320E+000	9	...........
	15	0.213333	6.45417E-001	-8.88218E-005	0.00000E+000	-5.73271E-005	-5.39641E-002	6.45532E-001	3.57320E+000	9	...........
	16	0.226667	6.37321E-001	-8.87811E-005	0.00000E+000	-5.65820E-005	-5.39641E-002	6.37448E-001	3.57320E+000	9	...........
	17	0.24	6.29424E-001	-8.88759E-005	0.00000E+000	-5.59407E-005	-5.39641E-002	6.29544E-001	3.57320E+000	9	...........
	18	0.253333	6.21716E-001	-8.88072E-005	0.00000E+000	-5.52129E-005	-5.39641E-002	6.21818E-001	3.57320E+000	9	...........
	19	0.266667	6.14107E-001	-8.87915E-005	0.00000E+000	-5.45275E-005	-5.39641E-002	6.14239E-001	3.57320E+000	9	...........
	20	0.28	6.06636E-001	-8.90958E-005	0.00000E+000	-5.40487E-005	-5.39641E-002	6.06802E-001	3.57320E+000	9	...........
	21	0.293333	5.99378E-001	-8.84748E-005	0.00000E+000	-5.30299E-005	-5.39641E-002	5.99502E-001	3.57314E+000	9	...........
	22	0.306667	5.92259E-001	-8.87499E-005	0.00000E+000	-5.25629E-005	-5.39641E-002	5.92383E-001	3.57310E+000	9	...........
	23	0.32	5.85228E-001	-8.88905E-005	0.00000E+000	-5.20212E-005	-5.39641E-002	5.85361E-001	3.57310E+000	9	...........
	24	0.333333	5.78355E-001	-8.89072E-005	0.00000E+000	-5.14199E-005	-5.39641E-002	5.78481E-001	3.57310E+000	9	...........
	25	0.346667	5.71601E-001	-8.86728E-005	0.00000E+000	-5.06855E-005	-5.39641E-002	5.71705E-001	3.57310E+000	9	...........
	26	0.36	5.64941E-001	-8.88145E-005	0.00000E+000	-5.01750E-005	-5.39641E-002	5.65068E-001	3.57310E+000	9	...........
	27	0.373333	5.58343E-001	-8.88301E-005	0.00000E+000	-4.95976E-005	-5.39641E-002	5.58462E-001	3.57310E+000	9	...........
	28	0.386667	5.51885E-001	-8.85436E-005	0.00000E+000	-4.88659E-005	-5.39641E-002	5.52000E-001	3.57310E+000	9	...........
	29	0.4	5.45514E-001	-8.88332E-005	0.00000E+000	-4.84598E-005	-5.39641E-002	5.45607E-001	3.57310E+000	9	...........
	30	0.413333	5.39242E-001	-8.90406E-005	0.00000E+000	-4.80144E-005	-5.39641E-002	5.39361E-001	3.57310E+000	9	...........
	31	0.426667	5.32991E-001	-8.87426E-005	0.00000E+000	-4.72990E-005	-5.39641E-002	5.33117E-001	3.57310E+000	9	...........
	32	0.44	5.26862E-001	-8.89291E-005	0.00000E+000	-4.68534E-005	-5.39641E-002	5.26966E-001	3.57310E+000	9	...........
	33	0.453333	5.20790E-001	-8.86957E-005	0.00000E+000	-4.61918E-005	-5.39641E-002	5.20885E-001	3.57310E+000	9	...........
	34	0.466667	5.14853E-001	-8.87884E-005	0.00000E+000	-4.57130E-005	-5.39641E-002	5.14956E-001	3.57310E+000	9	...........
	35	0.48	5.08892E-001	-8.88259E-005	0.00000E+000	-4.52028E-005	-5.39641E-002	5.09045E-001	3.57310E+000	9	...........
	36	0.493333	5.03016E-001	-8.89260E-005	0.00000E+000	-4.47312E-005	-5.39641E-002	5.03164E-001	3.57310E+000	9	...........
	37	0.506667	4.97256E-001	-8.87780E-005	0.00000E+000	-4.41454E-005	-5.39641E-002	4.97398E-001	3.57310E+000	9	...........
	38	0.52	4.91524E-001	-8.88228E-005	0.00000E+000	-4.36586E-005	-5.39641E-002	4.91656E-001	3.57310E+000	9	...........
	39	0.533333	4.85884E-001	-8.88301E-005	0.00000E+000	-4.31611E-005	-5.39641E-002	4.85982E-001	3.57310E+000	9	...........
	40	0.546667	4.80311E-001	-8.88155E-005	0.00000E+000	-4.26591E-005	-5.39641E-002	4.80386E-001	3.57310E+000	9	...........
	41	0.56	4.74718E-001	-8.86988E-005	0.00000E+000	-4.21069E-005	-5.39641E-002	4.74789E-001	3.57310E+000	9	...........
	42	0.573333	4.69167E-001	-8.88322E-005	0.00000E+000	-4.16772E-005	-5.39641E-002	4.69237E-001	3.57310E+000	9	...........
	43	0.586667	4.63667E-001	-8.88166E-005	0.00000E+000	-4.11813E-005	-5.39641E-002	4.63731E-001	3.57310E+000	9	...........
	44	0.6	4.58212E-001	-8.90708E-005	0.00000E+000	-4.08133E-005	-5.39641E-002	4.58282E-001	3.57310E+000	9	...........
	45	0.613333	4.52800E-001	-8.88228E-005	0.00000E+000	-4.02190E-005	-5.39641E-002	4.52872E-001	3.57310E+000	9	...........
	46	0.626667	4.47430E-001	-8.85915E-005	0.00000E+000	-3.96385E-005	-5.39641E-002	4.47498E-001	3.57310E+000	9	...........
	47	0.64	4.42091E-001	-8.90260E-005	0.00000E+000	-3.93575E-005	-5.39641E-002	4.42155E-001	3.57310E+000	9	...........
	48	0.653333	4.36782E-001	-8.84290E-005	0.00000E+000	-3.86242E-005	-5.39641E-002	4.36852E-001	3.57310E+000	9	...........
	49	0.666667	4.31509E-001	-8.87374E-005	0.00000E+000	-3.82910E-005	-5.39641E-002	4.31569E-001	3.57310E+000	9	...........
	50	0.68	4.26264E-001	-8.88739E-005	0.00000E+000	-3.78837E-005	-5.39641E-002	4.26324E-001	3.57310E+000	9	...........
	51	0.693333	4.21043E-001	-8.88197E-005	0.00000E+000	-3.73969E-005	-5.39641E-002	4.21104E-001	3.57310E+000	9	...........
	52	0.706667	4.15847E-001	-8.87249E-005	0.00000E+000	-3.68959E-005	-5.39641E-002	4.15899E-001	3.57310E+000	9	...........
	53	0.72	4.10667E-001	-8.86832E-005	0.00000E+000	-3.64192E-005	-5.39641E-002	4.10725E-001	3.57310E+000	9	...........
	54	0.733333	4.05524E-001	-8.88343E-005	0.00000E+000	-3.60245E-005	-5.39641E-002	4.05575E-001	3.57310E+000	9	...........
	55	0.746667	4.00402E-001	-8.87916E-005	0.00000E+000	-3.55523E-005	-5.39641E-002	4.00450E-001	3.57310E+000	9	...........
	56	0.76	3.95310E-001	-8.89843E-005	0.00000E+000	-3.51764E-005	-5.39641E-002	3.95356E-001	3.57310E+000	9	...........
	57	0.773333	3.90228E-001	-8.87040E-005	0.00000E+000	-3.46148E-005	-5.39641E-002	3.90273E-001	3.57310E+000	9	...........
	58	0.786667	3.85169E-001	-8.86801E-005	0.00000E+000	-3.41568E-005	-5.39641E-002	3.85219E-001	3.57310E+000	9	...........
	59	0.8	3.80126E-001	-8.90708E-005	0.00000E+000	-3.38581E-005	-5.39641E-002	3.80173E-001	3.57310E+000	9	...........
	60	0.813333	3.75101E-001	-8.85519E-005	0.00000E+000	-3.32159E-005	-5.39641E-002	3.75148E-001	3.57310E+000	9	...........
	61	0.826667	3.70089E-001	-8.86051E-005	0.00000E+000	-3.27917E-005	-5.39641E-002	3.70142E-001	3.57310E+000	9	...........
	62	0.84	3.65084E-001	-8.87665E-005	0.00000E+000	-3.24072E-005	-5.39641E-002	3.65131E-001	3.57310E+000	9	...........
	63	0.853333	3.60076E-001	-8.88103E-005	0.00000E+000	-3.19785E-005	-5.39641E-002	3.60123E-001	3.57310E+000	9	...........
	64	0.866667	3.55095E-001	-8.90656E-005	0.00000E+000	-3.16268E-005	-5.39641E-002	3.55139E-001	3.57310E+000	9	...........
	65	0.88	3.50135E-001	-8.87676E-005	0.00000E+000	-3.10806E-005	-5.39641E-002	3.50181E-001	3.57310E+000	9	...........
	66	0.893333	3.45175E-001	-8.87895E-005	0.00000E+000	-3.06479E-005	-5.39641E-002	3.45218E-001	3.57310E+000	9	...........
	67	0.906667	3.40236E-001	-8.88707E-005	0.00000E+000	-3.02370E-005	-5.39641E-002	3.40286E-001	3.57310E+000	9	...........
	68	0.92	3.35322E-001	-8.87217E-005	0.00000E+000	-2.97503E-005	-5.39641E-002	3.35371E-001	3.57310E+000	9	...........
	69	0.933333	3.30424E-001	-8.87530E-005	0.00000E+000	-2.93261E-005	-5.39641E-002	3.30470E-001	3.57310E+000	9	...........
	70	0.946667	3.25526E-001	-8.86894E-005	0.00000E+000	-2.88707E-005	-5.39641E-002	3.25577E-001	3.57310E+000	9	...........
	71	0.96	3.20651E-001	-8.89551E-005	0.00000E+000	-2.85236E-005	-5.39641E-002	3.20694E-001	3.57310E+000	9	...........
	72	0.97333	3.15771E-001	-8.88864E-005	0.00000E+000	-2.80677E-005	-5.39641E-002	3.15817E-001	3.57310E+000	9	...........
	73	0.98667	3.10915E-001	-8.87936E-005	0.00000E+000	-2.76073E-005	-5.39641E-002	3.10961E-001	3.57310E+000	9	...........
	74	1	3.06064E-001	-8.86509E-005	0.00000E+000	-2.71328E-005	-5.39641E-002	3.06111E-001	3.57310E+000	9	...........
	75	1.01333	3.01236E-001	-8.88280E-005	0.00000E+000	-2.67582E-005	-5.39641E-002	3.01281E-001	3.57310E+000	9	...........
	76	1.02667	2.96428E-001	-8.87749E-005	0.00000E+000	-2.63153E-005	-5.39641E-002	2.96470E-001	3.57310E+000	9	...........
	77	1.04	2.91622E-001	-8.87540E-005	0.00000E+000	-2.58826E-005	-5.39641E-002	2.91667E-001	3.57310E+000	9	...........
	78	1.05333	2.86839E-001	-8.87540E-005	0.00000E+000	-2.54581E-005	-5.39641E-002	2.86877E-001	3.57310E+000	9	...........
	79	1.06667	2.82062E-001	-8.87676E-005	0.00000E+000	-2.50379E-005	-5.39641E-002	2.82103E-001	3.57310E+000	9	...........
	80	1.08	2.77298E-001	-8.88811E-005	0.00000E+000	-2.46465E-005	-5.39641E-002	2.77339E-001	3.57310E+000	9	...........
	81	1.09333	2.72548E-001	-8.89874E-005	0.00000E+000	-2.42533E-005	-5.39641E-002	2.72588E-001	3.57310E+000	9	...........
	82	1.10667	2.67809E-001	-8.85425E-005	0.00000E+000	-2.37125E-005	-5.39641E-002	2.67849E-001	3.57310E+000	9	...........
	83	1.12	2.63076E-001	-8.90291E-005	0.00000E+000	-2.34214E-005	-5.39641E-002	2.63116E-001	3.57310E+000	9	...........
	84	1.13333	2.58363E-001	-8.87269E-005	0.00000E+000	-2.29238E-005	-5.39641E-002	2.58395E-001	3.57310E+000	9	...........
	85	1.14667	2.53661E-001	-8.86894E-005	0.00000E+000	-2.24971E-005	-5.39641E-002	2.53693E-001	3.57310E+000	9	...........
	86	1.16	2.48963E-001	-8.87936E-005	0.00000E+000	-2.21063E-005	-5.39641E-002	2.48993E-001	3.57310E+000	9	...........
	87	1.17333	2.44278E-001	-8.89697E-005	0.00000E+000	-2.17334E-005	-5.39641E-002	2.44307E-001	3.57310E+000	9	...........
	88	1.18667	2.39623E-001	-8.89968E-005	0.00000E+000	-2.13257E-005	-5.39641E-002	2.39653E-001	3.57310E+000	9	...........
	89	1.2	2.34991E-001	-8.87051E-005	0.00000E+000	-2.08449E-005	-5.39641E-002	2.35017E-001	3.57310E+000	9	...........
	90	1.21333	2.30363E-001	-8.87832E-005	0.00000E+000	-2.04524E-005	-5.39641E-002	2.30393E-001	3.57310E+000	9	...........
	91	1.22667	2.25745E-001	-8.88936E-005	0.00000E+000	-2.00673E-005	-5.39641E-002	2.25777E-001	3.57310E+000	9	...........
	92	1.24	2.21142E-001	-8.89499E-005	0.00000E+000	-1.96705E-005	-5.39641E-002	2.21165E-001	3.57310E+000	9	...........
	93	1.25333	2.16549E-001	-8.87270E-005	0.00000E+000	-1.92137E-005	-5.39641E-002	2.16573E-001	3.57310E+000	9	...........
	94	1.26667	2.11975E-001	-8.88207E-005	0.00000E+000	-1.88277E-005	-5.39641E-002	2.12003E-001	3.57310E+000	9	...........
	95	1.28	2.07432E-001	-8.90812E-005	0.00000E+000	-1.84783E-005	-5.39641E-002	2.07455E-001	3.57310E+000	9	...........
	96	1.29333	2.02900E-001	-8.89093E-005	0.00000E+000	-1.80397E-005	-5.39641E-002	2.02923E-001	3.57316E+000	9	...........
	97	1.30667	1.98377E-001	-8.89562E-005	0.00000E+000	-1.76468E-005	-5.39641E-002	1.98404E-001	3.57320E+000	9	...........
	98	1.32	1.93892E-001	-8.88530E-005	0.00000E+000	-1.72279E-005	-5.39641E-002	1.93909E-001	3.57320E+000	9	...........
	99	1.33333	1.89414E-001	-8.87436E-005	0.00000E+000	-1.68093E-005	-5.39641E-002	1.89434E-001	3.57320E+000	9	...........
	100	1.34667	1.84953E-001	-8.88864E-005	0.00000E+000	-1.64398E-005	-5.39641E-002	1.84972E-001	3.57320E+000	9	...........
	101	1.36	1.80508E-001	-8.88864E-005	0.00000E+000	-1.60447E-005	-5.39641E-002	1.80524E-001	3.57320E+000	9	...........
	102	1.37333	1.76090E-001	-8.89655E-005	0.00000E+000	-1.56659E-005	-5.39641E-002	1.76108E-001	3.57320E+000	9	...........
	103	1.38667	1.71692E-001	-8.89020E-005	0.00000E+000	-1.52637E-005	-5.39641E-002	1.71710E-001	3.57320E+000	9	...........
	104	1.4	1.67300E-001	-8.87061E-005	0.00000E+000	-1.48406E-005	-5.39641E-002	1.67316E-001	3.57320E+000	9	...........
	105	1.41333	1.62933E-001	-8.90739E-005	0.00000E+000	-1.45130E-005	-5.39641E-002	1.62947E-001	3.57320E+000	9	...........
	106	1.42667	1.58587E-001	-8.89312E-005	0.00000E+000	-1.41033E-005	-5.39641E-002	1.58598E-001	3.57320E+000	9	...........
	107	1.44	1.54257E-001	-8.88353E-005	0.00000E+000	-1.37035E-005	-5.39641E-002	1.54269E-001	3.57320E+000	9	...........
	108	1.45333	1.49949E-001	-8.89947E-005	0.00000E+000	-1.33447E-005	-5.39641E-002	1.49961E-001	3.57320E+000	9	...........
	109	1.46667	1.45646E-001	-8.87603E-005	0.00000E+000	-1.29276E-005	-5.39641E-002	1.45661E-001	3.57320E+000	9	...........
	110	1.48	1.41364E-001	-8.89364E-005	0.00000E+000	-1.25724E-005	-5.39641E-002	1.41376E-001	3.57320E+000	9	...........
	111	1.49333	1.37099E-001	-8.87113E-005	0.00000E+000	-1.21623E-005	-5.39641E-002	1.37113E-001	3.57320E+000	9	...........
	112	1.50667	1.32850E-001	-8.88259E-005	0.00000E+000	-1.18005E-005	-5.39641E-002	1.32865E-001	3.57320E+000	9	...........
	113	1.52	1.28628E-001	-8.88061E-005	0.00000E+000	-1.14229E-005	-5.39641E-002	1.28636E-001	3.57320E+000	9	...........
	114	1.53333	1.24420E-001	-8.87895E-005	0.00000E+000	-1.10472E-005	-5.39641E-002	1.24434E-001	3.57320E+000	9	...........
	115	1.54667	1.20236E-001	-8.87342E-005	0.00000E+000	-1.06691E-005	-5.39641E-002	1.20254E-001	3.57320E+000	9	...........
	116	1.56	1.16062E-001	-8.88728E-005	0.00000E+000	-1.03148E-005	-5.39641E-002	1.16076E-001	3.57320E+000	9	...........
	117	1.57333	1.11899E-001	-8.88686E-005	0.00000E+000	-9.94431E-006	-5.39641E-002	1.11917E-001	3.57320E+000	9	...........
	118	1.58667	1.07772E-001	-8.88343E-005	0.00000E+000	-9.57382E-006	-5.39641E-002	1.07785E-001	3.57320E+000	9	...........
	119	1.6	1.03650E-001	-8.88249E-005	0.00000E+000	-9.20672E-006	-5.39641E-002	1.03662E-001	3.57320E+000	9	...........
	120	1.61333	9.95629E-002	-8.88134E-005	0.00000E+000	-8.84252E-006	-5.39641E-002	9.95739E-002	3.57320E+000	9	...........
	121	1.62667	9.54819E-002	-8.87228E-005	0.00000E+000	-8.47142E-006	-5.39641E-002	9.54900E-002	3.57320E+000	9	...........
	122	1.64	9.14248E-002	-8.87217E-005	0.00000E+000	-8.11137E-006	-5.39641E-002	9.14332E-002	3.57320E+000	9	...........
	123	1.65333	8.73786E-002	-8.91833E-005	0.00000E+000	-7.79271E-006	-5.39641E-002	8.73925E-002	3.57320E+000	9	...........
	124	1.66667	8.33621E-002	-8.89530E-005	0.00000E+000	-7.41532E-006	-5.39641E-002	8.33664E-002	3.57320E+000	9	...........
	125	1.68	7.93672E-002	-8.85738E-005	0.00000E+000	-7.02985E-006	-5.39641E-002	7.93695E-002	3.57320E+000	9	...........
	126	1.69333	7.53794E-002	-8.88582E-005	0.00000E+000	-6.69808E-006	-5.39641E-002	7.53817E-002	3.57320E+000	9	...........
	127	1.70667	7.14057E-002	-8.86874E-005	0.00000E+000	-6.33278E-006	-5.39641E-002	7.14097E-002	3.57320E+000	9	...........
	128	1.72	6.74622E-002	-8.89416E-005	0.00000E+000	-6.00019E-006	-5.39641E-002	6.74653E-002	3.57320E+000	9	...........
	129	1.73333	6.35226E-002	-8.87478E-005	0.00000E+000	-5.63749E-006	-5.39641E-002	6.35270E-002	3.57320E+000	9	...........
	130	1.74667	5.96191E-002	-8.87624E-005	0.00000E+000	-5.29194E-006	-5.39641E-002	5.96232E-002	3.57320E+000	9	...........
	131	1.76	5.57266E-002	-8.88739E-005	0.00000E+000	-4.95264E-006	-5.39641E-002	5.57243E-002	3.57320E+000	9	...........
	132	1.77333	5.18446E-002	-8.89530E-005	0.00000E+000	-4.61174E-006	-5.39641E-002	5.18477E-002	3.57320E+000	9	...........
	133	1.78667	4.79912E-002	-8.89103E-005	0.00000E+000	-4.26692E-006	-5.39641E-002	4.79967E-002	3.57320E+000	9	...........
	134	1.8	4.41575E-002	-8.90812E-005	0.00000E+000	-3.93361E-006	-5.39641E-002	4.41660E-002	3.57320E+000	9	...........
	135	1.81333	4.03351E-002	-8.88322E-005	0.00000E+000	-3.58306E-006	-5.39641E-002	4.03385E-002	3.57320E+000	9	...........
	136	1.82667	3.65302E-002	-8.90635E-005	0.00000E+000	-3.25351E-006	-5.39641E-002	3.65326E-002	3.57320E+000	9	...........
	137	1.84	3.27421E-002	-8.89353E-005	0.00000E+000	-2.91193E-006	-5.39641E-002	3.27434E-002	3.57320E+000	9	...........
	138	1.85333	2.89732E-002	-8.87113E-005	0.00000E+000	-2.57025E-006	-5.39641E-002	2.89707E-002	3.57320E+000	9	...........
	139	1.86667	2.52162E-002	-8.88082E-005	0.00000E+000	-2.23940E-006	-5.39641E-002	2.52174E-002	3.57320E+000	9	...........
	140	1.88	2.14800E-002	-8.84894E-005	0.00000E+000	-1.90075E-006	-5.39641E-002	2.14761E-002	3.57320E+000	9	...........
	141	1.89333	1.77713E-002	-8.88936E-005	0.00000E+000	-1.57975E-006	-5.39641E-002	1.77674E-002	3.57320E+000	9	...........
	142	1.90667	1.40939E-002	-8.89301E-005	0.00000E+000	-1.25338E-006	-5.39641E-002	1.40842E-002	3.57320E+000	9	...........
	143	1.92	1.04169E-002	-8.86321E-005	0.00000E+000	-9.23268E-007	-5.39641E-002	1.04090E-002	3.57320E+000	9	...........
	144	1.93333	6.75366E-003	-8.89374E-005	0.00000E+000	-6.00653E-007	-5.39641E-002	6.74123E-003	3.57320E+000	9	...........
	145	1.94667	3.11582E-003	-8.86655E-005	0.00000E+000	-2.76266E-007	-5.39641E-002	3.09840E-003	3.57320E+000	9	...........
	146	1.95333	3.96678E-004	-8.88520E-005	0.00000E+000	-3.52456E-008	-5.39641E-002	3.78446E-004	3.57320E+000	9	...........
STARTTIMEOFFSET	QUANT	3901.739	Start Time Offset (s)
