EXPLAIN
TAG	PWR800_DISCHARGE
TITLE	LABEL	PWR Cyclic Charge Discharge (Cell) - Discharge Step	Test &Identifier
DATE	LABEL	10-7-2017	Date
TIME	LABEL	16:25:00	Time
NOTES	NOTES	3	&Notes...
	supercap test cell
	0.9mg
	6M KOH
PSTAT	PSTAT	IFC5000-01520	Potentiostat
CAPACITY	QUANT	1.00000E-003	Capacity (A-hr)
CELLTYPE	SELECTOR	1	&Cell Type
WORKINGCONNECTION	SELECTOR	0	&Working Lead
MAXDISCHARGETIME	VARIABLEANDUNITS	1.00000E+002	s	1.00000E+002	second(s)	Max &Discharge Time
DISCHARGEMODE	MULTIPARAM	0	9.00000E-005	&Discharge Mode	Constant Current	Amp(s)
SAMPLETIME	QUANT	1.00000E-002	Sa&mple Period (s)
DISCHARGESTOPAT1	MULTIPARAM	3	0.00000E+000	Discharge Stop At &1	Voltage < Limit	V
DISCHARGESTOPAT2	MULTIPARAM	0	0.00000E+000	Discharge Stop At &2	None	N/A
AESBHCSELECTOR	TOGGLE	F	Save Both Half Cells
IRCOMP	TOGGLE	F	IR &Measure
EOC	QUANT	0	Open Circuit (V)
SEQUENCER	TOGGLE	TRUE	Run as Sequence
PSTATMODEL	IQUANT	53	Pstat Model
PSTATSECTION	LABEL	IFC5000-01520	Pstat Section
PSTATSERIALNO	LABEL	01520	Pstat Serial Number
CTRLMODE	IQUANT	0	Control Mode
ELECTROMETER	IQUANT	1	RE=0 or CS=1
IESTAB	IQUANT	0	I/E Stability
CASPEED	IQUANT	4	Control Amp Speed
CONVENTION	IQUANT	1	Current Convention
ICHRANGE	IQUANT	2	Ich Range
ICHRANGEMODE	TOGGLE	T	Ich Auto Range
ICHOFFSETENABLE	TOGGLE	F	Ich Offset Enable
ICHOFFSET	QUANT	0	Ich Offset (V)
ICHFILTER	IQUANT	1	Ich Filter
VCHRANGE	IQUANT	2	Vch Range
VCHRANGEMODE	TOGGLE	T	Vch Auto Range
VCHOFFSETENABLE	TOGGLE	F	Vch Offset Enable
VCHOFFSET	QUANT	0	Vch Offset (V)
VCHFILTER	IQUANT	1	Vch Filter
IERANGELOWERLIMIT	IQUANT	9	I/E Range Lower Limit
IERANGEMODE	TOGGLE	F	I/E AutoRange
IERANGE	IQUANT	9	I/E Range
ACHSELECT	IQUANT	1	Ach Select
ACHRANGE	IQUANT	2	Ach Range
ACHOFFSETENABLE	TOGGLE	F	Ach Offset Enable
ACHOFFSET	QUANT	0	Ach Offset (V)
ACHFILTER	IQUANT	1	Ach Filter
CABLEID	IQUANT	14	Cable ID
DCCALDATE	LABEL	5-7-2017	DC Calibration Date
ACCALDATE	LABEL	12/3/2015	AC Calibration Date
FRAMEWORKVERSION	QUANT	7.01	Framework Version
INSTRUMENTVERSION	LABEL	4.00	Instrument Version
CURVE	TABLE	146
	Pt	T	Vf	Im	Vu	Pwr	Sig	Ach	Temp	IERange	Over
	#	s	V	A	V	W	V	V	deg C	#	bits
	0	0.013333	7.97315E-001	-8.88291E-005	0.00000E+000	-7.08247E-005	-5.39641E-002	7.97440E-001	3.57290E+000	9	...........
	1	0.026667	7.82882E-001	-8.89426E-005	0.00000E+000	-6.96316E-005	-5.39641E-002	7.82996E-001	3.57290E+000	9	...........
	2	0.04	7.69460E-001	-8.87197E-005	0.00000E+000	-6.82662E-005	-5.39641E-002	7.69572E-001	3.57290E+000	9	...........
	3	0.053333	7.56822E-001	-8.88093E-005	0.00000E+000	-6.72128E-005	-5.39641E-002	7.56935E-001	3.57290E+000	9	...........
	4	0.066667	7.44855E-001	-8.88030E-005	0.00000E+000	-6.61454E-005	-5.39641E-002	7.44963E-001	3.57290E+000	9	...........
	5	0.08	7.33428E-001	-8.88030E-005	0.00000E+000	-6.51306E-005	-5.39641E-002	7.33525E-001	3.57290E+000	9	...........
	6	0.093333	7.22513E-001	-8.87884E-005	0.00000E+000	-6.41508E-005	-5.39641E-002	7.22598E-001	3.57290E+000	9	...........
	7	0.106667	7.11970E-001	-8.86394E-005	0.00000E+000	-6.31086E-005	-5.39641E-002	7.12063E-001	3.57290E+000	9	...........
	8	0.12	7.01850E-001	-8.89062E-005	0.00000E+000	-6.23988E-005	-5.39641E-002	7.01939E-001	3.57290E+000	9	...........
	9	0.133333	6.92067E-001	-8.86999E-005	0.00000E+000	-6.13863E-005	-5.39641E-002	6.92178E-001	3.57290E+000	9	...........
	10	0.146667	6.82602E-001	-8.86186E-005	0.00000E+000	-6.04913E-005	-5.39641E-002	6.82724E-001	3.57290E+000	9	...........
	11	0.16	6.73445E-001	-8.85936E-005	0.00000E+000	-5.96629E-005	-5.39641E-002	6.73564E-001	3.57290E+000	9	...........
	12	0.173333	6.64493E-001	-8.87624E-005	0.00000E+000	-5.89820E-005	-5.39641E-002	6.64618E-001	3.57290E+000	9	...........
	13	0.186667	6.55798E-001	-8.88561E-005	0.00000E+000	-5.82716E-005	-5.39641E-002	6.55932E-001	3.57290E+000	9	...........
	14	0.2	6.47331E-001	-8.88739E-005	0.00000E+000	-5.75308E-005	-5.39641E-002	6.47458E-001	3.57290E+000	9	...........
	15	0.213333	6.39053E-001	-8.89416E-005	0.00000E+000	-5.68384E-005	-5.39641E-002	6.39202E-001	3.57290E+000	9	...........
	16	0.226667	6.30992E-001	-8.86373E-005	0.00000E+000	-5.59295E-005	-5.39641E-002	6.31116E-001	3.57290E+000	9	...........
	17	0.24	6.23129E-001	-8.90833E-005	0.00000E+000	-5.55104E-005	-5.39641E-002	6.23238E-001	3.57290E+000	9	...........
	18	0.253333	6.15435E-001	-8.87676E-005	0.00000E+000	-5.46307E-005	-5.39641E-002	6.15568E-001	3.57290E+000	9	...........
	19	0.266667	6.07856E-001	-8.85852E-005	0.00000E+000	-5.38471E-005	-5.39641E-002	6.08002E-001	3.57290E+000	9	...........
	20	0.28	6.00476E-001	-8.88489E-005	0.00000E+000	-5.33516E-005	-5.39641E-002	6.00620E-001	3.57290E+000	9	...........
	21	0.293333	5.93276E-001	-8.86696E-005	0.00000E+000	-5.26055E-005	-5.39641E-002	5.93396E-001	3.57290E+000	9	...........
	22	0.306667	5.86126E-001	-8.87353E-005	0.00000E+000	-5.20100E-005	-5.39641E-002	5.86267E-001	3.57290E+000	9	...........
	23	0.32	5.79155E-001	-8.87978E-005	0.00000E+000	-5.14277E-005	-5.39641E-002	5.79273E-001	3.57290E+000	9	...........
	24	0.333333	5.72312E-001	-8.87353E-005	0.00000E+000	-5.07842E-005	-5.39641E-002	5.72403E-001	3.57290E+000	9	...........
	25	0.346667	5.65585E-001	-8.88864E-005	0.00000E+000	-5.02728E-005	-5.39641E-002	5.65706E-001	3.57290E+000	9	...........
	26	0.36	5.58903E-001	-8.90958E-005	0.00000E+000	-4.97959E-005	-5.39641E-002	5.59036E-001	3.57290E+000	9	...........
	27	0.373333	5.52379E-001	-8.88041E-005	0.00000E+000	-4.90535E-005	-5.39641E-002	5.52529E-001	3.57290E+000	9	...........
	28	0.386667	5.45931E-001	-8.87269E-005	0.00000E+000	-4.84388E-005	-5.39641E-002	5.46065E-001	3.57290E+000	9	...........
	29	0.4	5.39611E-001	-8.89062E-005	0.00000E+000	-4.79747E-005	-5.39641E-002	5.39735E-001	3.57290E+000	9	...........
	30	0.413333	5.33327E-001	-8.89332E-005	0.00000E+000	-4.74305E-005	-5.39641E-002	5.33472E-001	3.57290E+000	9	...........
	31	0.426667	5.27145E-001	-8.86009E-005	0.00000E+000	-4.67055E-005	-5.39641E-002	5.27287E-001	3.57290E+000	9	...........
	32	0.44	5.21033E-001	-8.85498E-005	0.00000E+000	-4.61374E-005	-5.39641E-002	5.21185E-001	3.57290E+000	9	...........
	33	0.453333	5.15019E-001	-8.86301E-005	0.00000E+000	-4.56462E-005	-5.39641E-002	5.15128E-001	3.57290E+000	9	...........
	34	0.466667	5.09021E-001	-8.89728E-005	0.00000E+000	-4.52890E-005	-5.39641E-002	5.09179E-001	3.57290E+000	9	...........
	35	0.48	5.03104E-001	-8.87499E-005	0.00000E+000	-4.46504E-005	-5.39641E-002	5.03258E-001	3.57290E+000	9	...........
	36	0.493333	4.97331E-001	-8.87874E-005	0.00000E+000	-4.41568E-005	-5.39641E-002	4.97436E-001	3.57290E+000	9	...........
	37	0.506667	4.91549E-001	-8.87780E-005	0.00000E+000	-4.36388E-005	-5.39641E-002	4.91683E-001	3.57290E+000	9	...........
	38	0.52	4.85913E-001	-8.87197E-005	0.00000E+000	-4.31100E-005	-5.39641E-002	4.85991E-001	3.57290E+000	9	...........
	39	0.533333	4.80337E-001	-8.89239E-005	0.00000E+000	-4.27134E-005	-5.39641E-002	4.80406E-001	3.57290E+000	9	...........
	40	0.546667	4.74730E-001	-8.86009E-005	0.00000E+000	-4.20615E-005	-5.39641E-002	4.74799E-001	3.57290E+000	9	...........
	41	0.56	4.69159E-001	-8.86113E-005	0.00000E+000	-4.15728E-005	-5.39641E-002	4.69228E-001	3.57290E+000	9	...........
	42	0.573333	4.63638E-001	-8.87572E-005	0.00000E+000	-4.11512E-005	-5.39641E-002	4.63700E-001	3.57290E+000	9	...........
	43	0.586667	4.58161E-001	-8.89541E-005	0.00000E+000	-4.07553E-005	-5.39641E-002	4.58221E-001	3.57290E+000	9	...........
	44	0.6	4.52719E-001	-8.89468E-005	0.00000E+000	-4.02679E-005	-5.39641E-002	4.52785E-001	3.57290E+000	9	...........
	45	0.613333	4.47324E-001	-8.87947E-005	0.00000E+000	-3.97200E-005	-5.39641E-002	4.47391E-001	3.57290E+000	9	...........
	46	0.626667	4.41970E-001	-8.87874E-005	0.00000E+000	-3.92414E-005	-5.39641E-002	4.42033E-001	3.57290E+000	9	...........
	47	0.64	4.36646E-001	-8.87499E-005	0.00000E+000	-3.87523E-005	-5.39641E-002	4.36709E-001	3.57290E+000	9	...........
	48	0.653333	4.31360E-001	-8.86571E-005	0.00000E+000	-3.82431E-005	-5.39641E-002	4.31421E-001	3.57290E+000	9	...........
	49	0.666667	4.26096E-001	-8.88343E-005	0.00000E+000	-3.78520E-005	-5.39641E-002	4.26160E-001	3.57290E+000	9	...........
	50	0.68	4.20867E-001	-8.88624E-005	0.00000E+000	-3.73993E-005	-5.39641E-002	4.20926E-001	3.57290E+000	9	...........
	51	0.693333	4.15661E-001	-8.89749E-005	0.00000E+000	-3.69834E-005	-5.39641E-002	4.15720E-001	3.57290E+000	9	...........
	52	0.706667	4.10472E-001	-8.87405E-005	0.00000E+000	-3.64255E-005	-5.39641E-002	4.10529E-001	3.57325E+000	9	...........
	53	0.72	4.05323E-001	-8.88145E-005	0.00000E+000	-3.59986E-005	-5.39641E-002	4.05378E-001	3.57430E+000	9	...........
	54	0.733333	4.00210E-001	-8.87790E-005	0.00000E+000	-3.55303E-005	-5.39641E-002	4.00257E-001	3.57430E+000	9	...........
	55	0.746667	3.95114E-001	-8.85852E-005	0.00000E+000	-3.50013E-005	-5.39641E-002	3.95163E-001	3.57430E+000	9	...........
	56	0.76	3.90047E-001	-8.88634E-005	0.00000E+000	-3.46609E-005	-5.39641E-002	3.90091E-001	3.57430E+000	9	...........
	57	0.773333	3.84997E-001	-8.89197E-005	0.00000E+000	-3.42338E-005	-5.39641E-002	3.85043E-001	3.57430E+000	9	...........
	58	0.786667	3.79966E-001	-8.86644E-005	0.00000E+000	-3.36895E-005	-5.39641E-002	3.80015E-001	3.57430E+000	9	...........
	59	0.8	3.74955E-001	-8.87624E-005	0.00000E+000	-3.32819E-005	-5.39641E-002	3.75003E-001	3.57430E+000	9	...........
	60	0.813333	3.69943E-001	-8.87926E-005	0.00000E+000	-3.28482E-005	-5.39641E-002	3.69986E-001	3.57430E+000	9	...........
	61	0.826667	3.64942E-001	-8.86967E-005	0.00000E+000	-3.23692E-005	-5.39641E-002	3.64990E-001	3.57430E+000	9	...........
	62	0.84	3.59967E-001	-8.88676E-005	0.00000E+000	-3.19894E-005	-5.39641E-002	3.60013E-001	3.57430E+000	9	...........
	63	0.853333	3.55004E-001	-8.89249E-005	0.00000E+000	-3.15687E-005	-5.39641E-002	3.55049E-001	3.57430E+000	9	...........
	64	0.866667	3.50066E-001	-8.87301E-005	0.00000E+000	-3.10614E-005	-5.39641E-002	3.50106E-001	3.57430E+000	9	...........
	65	0.88	3.45123E-001	-8.89770E-005	0.00000E+000	-3.07080E-005	-5.39641E-002	3.45169E-001	3.57430E+000	9	...........
	66	0.893333	3.40184E-001	-8.86196E-005	0.00000E+000	-3.01470E-005	-5.39641E-002	3.40229E-001	3.57430E+000	9	...........
	67	0.906667	3.35265E-001	-8.88197E-005	0.00000E+000	-2.97781E-005	-5.39641E-002	3.35307E-001	3.57430E+000	9	...........
	68	0.92	3.30361E-001	-8.89916E-005	0.00000E+000	-2.93994E-005	-5.39641E-002	3.30396E-001	3.57430E+000	9	...........
	69	0.933333	3.25476E-001	-8.87520E-005	0.00000E+000	-2.88866E-005	-5.39641E-002	3.25520E-001	3.57430E+000	9	...........
	70	0.946667	3.20600E-001	-8.87686E-005	0.00000E+000	-2.84592E-005	-5.39641E-002	3.20643E-001	3.57430E+000	9	...........
	71	0.96	3.15740E-001	-8.89937E-005	0.00000E+000	-2.80989E-005	-5.39641E-002	3.15784E-001	3.57430E+000	9	...........
	72	0.97333	3.10890E-001	-8.88530E-005	0.00000E+000	-2.76235E-005	-5.39641E-002	3.10932E-001	3.57430E+000	9	...........
	73	0.98667	3.06044E-001	-8.90541E-005	0.00000E+000	-2.72545E-005	-5.39641E-002	3.06087E-001	3.57430E+000	9	...........
	74	1	3.01223E-001	-8.88697E-005	0.00000E+000	-2.67696E-005	-5.39641E-002	3.01258E-001	3.57430E+000	9	...........
	75	1.01333	2.96404E-001	-8.88520E-005	0.00000E+000	-2.63361E-005	-5.39641E-002	2.96439E-001	3.57430E+000	9	...........
	76	1.02667	2.91586E-001	-8.89635E-005	0.00000E+000	-2.59405E-005	-5.39641E-002	2.91626E-001	3.57430E+000	9	...........
	77	1.04	2.86782E-001	-8.87780E-005	0.00000E+000	-2.54599E-005	-5.39641E-002	2.86818E-001	3.57430E+000	9	...........
	78	1.05333	2.82001E-001	-8.84102E-005	0.00000E+000	-2.49317E-005	-5.39641E-002	2.82044E-001	3.57430E+000	9	...........
	79	1.06667	2.77236E-001	-8.86749E-005	0.00000E+000	-2.45839E-005	-5.39641E-002	2.77272E-001	3.57430E+000	9	...........
	80	1.08	2.72474E-001	-8.88291E-005	0.00000E+000	-2.42036E-005	-5.39641E-002	2.72517E-001	3.57430E+000	9	...........
	81	1.09333	2.67727E-001	-8.91791E-005	0.00000E+000	-2.38757E-005	-5.39641E-002	2.67762E-001	3.57430E+000	9	...........
	82	1.10667	2.62993E-001	-8.87936E-005	0.00000E+000	-2.33521E-005	-5.39641E-002	2.63033E-001	3.57430E+000	9	...........
	83	1.12	2.58273E-001	-8.89708E-005	0.00000E+000	-2.29787E-005	-5.39641E-002	2.58307E-001	3.57430E+000	9	...........
	84	1.13333	2.53571E-001	-8.90635E-005	0.00000E+000	-2.25839E-005	-5.39641E-002	2.53613E-001	3.57430E+000	9	...........
	85	1.14667	2.48889E-001	-8.87822E-005	0.00000E+000	-2.20969E-005	-5.39641E-002	2.48922E-001	3.57430E+000	9	...........
	86	1.16	2.44213E-001	-8.89270E-005	0.00000E+000	-2.17171E-005	-5.39641E-002	2.44244E-001	3.57430E+000	9	...........
	87	1.17333	2.39539E-001	-8.89218E-005	0.00000E+000	-2.13003E-005	-5.39641E-002	2.39563E-001	3.57430E+000	9	...........
	88	1.18667	2.34878E-001	-8.87499E-005	0.00000E+000	-2.08454E-005	-5.39641E-002	2.34902E-001	3.57430E+000	9	...........
	89	1.2	2.30227E-001	-8.89385E-005	0.00000E+000	-2.04761E-005	-5.39641E-002	2.30258E-001	3.57430E+000	9	...........
	90	1.21333	2.25606E-001	-8.87884E-005	0.00000E+000	-2.00312E-005	-5.39641E-002	2.25625E-001	3.57430E+000	9	...........
	91	1.22667	2.21001E-001	-8.86332E-005	0.00000E+000	-1.95880E-005	-5.39641E-002	2.21023E-001	3.57430E+000	9	...........
	92	1.24	2.16418E-001	-8.85373E-005	0.00000E+000	-1.91611E-005	-5.39641E-002	2.16445E-001	3.57430E+000	9	...........
	93	1.25333	2.11845E-001	-8.88905E-005	0.00000E+000	-1.88310E-005	-5.39641E-002	2.11873E-001	3.57430E+000	9	...........
	94	1.26667	2.07304E-001	-8.88957E-005	0.00000E+000	-1.84284E-005	-5.39641E-002	2.07326E-001	3.57430E+000	9	...........
	95	1.28	2.02767E-001	-8.87415E-005	0.00000E+000	-1.79938E-005	-5.39641E-002	2.02792E-001	3.57430E+000	9	...........
	96	1.29333	1.98243E-001	-8.88218E-005	0.00000E+000	-1.76083E-005	-5.39641E-002	1.98274E-001	3.57430E+000	9	...........
	97	1.30667	1.93719E-001	-8.87311E-005	0.00000E+000	-1.71889E-005	-5.39641E-002	1.93746E-001	3.57430E+000	9	...........
	98	1.32	1.89205E-001	-8.86592E-005	0.00000E+000	-1.67748E-005	-5.39641E-002	1.89236E-001	3.57430E+000	9	...........
	99	1.33333	1.84723E-001	-8.88176E-005	0.00000E+000	-1.64066E-005	-5.39641E-002	1.84748E-001	3.57430E+000	9	...........
	100	1.34667	1.80257E-001	-8.87592E-005	0.00000E+000	-1.59994E-005	-5.39641E-002	1.80278E-001	3.57430E+000	9	...........
	101	1.36	1.75821E-001	-8.85780E-005	0.00000E+000	-1.55739E-005	-5.39641E-002	1.75836E-001	3.57430E+000	9	...........
	102	1.37333	1.71399E-001	-8.89520E-005	0.00000E+000	-1.52463E-005	-5.39641E-002	1.71424E-001	3.57430E+000	9	...........
	103	1.38667	1.67000E-001	-8.87738E-005	0.00000E+000	-1.48252E-005	-5.39641E-002	1.67020E-001	3.57430E+000	9	...........
	104	1.4	1.62611E-001	-8.89583E-005	0.00000E+000	-1.44656E-005	-5.39641E-002	1.62629E-001	3.57430E+000	9	...........
	105	1.41333	1.58244E-001	-8.89853E-005	0.00000E+000	-1.40814E-005	-5.39641E-002	1.58256E-001	3.57430E+000	9	...........
	106	1.42667	1.53893E-001	-8.89437E-005	0.00000E+000	-1.36878E-005	-5.39641E-002	1.53908E-001	3.57430E+000	9	...........
	107	1.44	1.49561E-001	-8.88572E-005	0.00000E+000	-1.32896E-005	-5.39641E-002	1.49574E-001	3.57430E+000	9	...........
	108	1.45333	1.45232E-001	-8.87520E-005	0.00000E+000	-1.28896E-005	-5.39641E-002	1.45242E-001	3.57430E+000	9	...........
	109	1.46667	1.40934E-001	-8.88322E-005	0.00000E+000	-1.25194E-005	-5.39641E-002	1.40948E-001	3.57430E+000	9	...........
	110	1.48	1.36656E-001	-8.88072E-005	0.00000E+000	-1.21360E-005	-5.39641E-002	1.36667E-001	3.57430E+000	9	...........
	111	1.49333	1.32387E-001	-8.85811E-005	0.00000E+000	-1.17270E-005	-5.39641E-002	1.32408E-001	3.57430E+000	9	...........
	112	1.50667	1.28146E-001	-8.90145E-005	0.00000E+000	-1.14069E-005	-5.39641E-002	1.28157E-001	3.57430E+000	9	...........
	113	1.52	1.23916E-001	-8.87676E-005	0.00000E+000	-1.09997E-005	-5.39641E-002	1.23925E-001	3.57430E+000	9	...........
	114	1.53333	1.19696E-001	-8.88343E-005	0.00000E+000	-1.06331E-005	-5.39641E-002	1.19708E-001	3.57430E+000	9	...........
	115	1.54667	1.15489E-001	-8.91375E-005	0.00000E+000	-1.02944E-005	-5.39641E-002	1.15504E-001	3.57430E+000	9	...........
	116	1.56	1.11313E-001	-8.85873E-005	0.00000E+000	-9.86096E-006	-5.39641E-002	1.11324E-001	3.57430E+000	9	...........
	117	1.57333	1.07169E-001	-8.87290E-005	0.00000E+000	-9.50903E-006	-5.39641E-002	1.07170E-001	3.57430E+000	9	...........
	118	1.58667	1.03033E-001	-8.87342E-005	0.00000E+000	-9.14252E-006	-5.39641E-002	1.03039E-001	3.57430E+000	9	...........
	119	1.6	9.89057E-002	-8.88561E-005	0.00000E+000	-8.78838E-006	-5.39641E-002	9.89140E-002	3.57430E+000	9	...........
	120	1.61333	9.48015E-002	-8.89020E-005	0.00000E+000	-8.42804E-006	-5.39641E-002	9.48050E-002	3.57430E+000	9	...........
	121	1.62667	9.07167E-002	-8.88614E-005	0.00000E+000	-8.06121E-006	-5.39641E-002	9.07242E-002	3.57430E+000	9	...........
	122	1.64	8.66561E-002	-8.87040E-005	0.00000E+000	-7.68675E-006	-5.39641E-002	8.66599E-002	3.57430E+000	9	...........
	123	1.65333	8.26230E-002	-8.88509E-005	0.00000E+000	-7.34113E-006	-5.39641E-002	8.26239E-002	3.57430E+000	9	...........
	124	1.66667	7.86012E-002	-8.89947E-005	0.00000E+000	-6.99509E-006	-5.39641E-002	7.86063E-002	3.57430E+000	9	...........
	125	1.68	7.45938E-002	-8.89062E-005	0.00000E+000	-6.63185E-006	-5.39641E-002	7.45977E-002	3.57430E+000	9	...........
	126	1.69333	7.06130E-002	-8.89499E-005	0.00000E+000	-6.28102E-006	-5.39641E-002	7.06095E-002	3.57430E+000	9	...........
	127	1.70667	6.66461E-002	-8.90854E-005	0.00000E+000	-5.93719E-006	-5.39641E-002	6.66449E-002	3.57405E+000	9	...........
	128	1.72	6.27046E-002	-8.87467E-005	0.00000E+000	-5.56483E-006	-5.39641E-002	6.27036E-002	3.57330E+000	9	...........
	129	1.73333	5.87778E-002	-8.88895E-005	0.00000E+000	-5.22473E-006	-5.39641E-002	5.87739E-002	3.57330E+000	9	...........
	130	1.74667	5.48630E-002	-8.89155E-005	0.00000E+000	-4.87818E-006	-5.39641E-002	5.48572E-002	3.57330E+000	9	...........
	131	1.76	5.09613E-002	-8.88197E-005	0.00000E+000	-4.52637E-006	-5.39641E-002	5.09565E-002	3.57330E+000	9	...........
	132	1.77333	4.70934E-002	-8.90749E-005	0.00000E+000	-4.19485E-006	-5.39641E-002	4.71009E-002	3.57330E+000	9	...........
	133	1.78667	4.32373E-002	-8.87947E-005	0.00000E+000	-3.83925E-006	-5.39641E-002	4.32448E-002	3.57330E+000	9	...........
	134	1.8	3.94036E-002	-8.87509E-005	0.00000E+000	-3.49711E-006	-5.39641E-002	3.94140E-002	3.57330E+000	9	...........
	135	1.81333	3.55972E-002	-8.87353E-005	0.00000E+000	-3.15873E-006	-5.39641E-002	3.56010E-002	3.57330E+000	9	...........
	136	1.82667	3.17989E-002	-8.89468E-005	0.00000E+000	-2.82841E-006	-5.39641E-002	3.17958E-002	3.57330E+000	9	...........
	137	1.84	2.80233E-002	-8.86082E-005	0.00000E+000	-2.48309E-006	-5.39641E-002	2.80213E-002	3.57330E+000	9	...........
	138	1.85333	2.42600E-002	-8.88322E-005	0.00000E+000	-2.15506E-006	-5.39641E-002	2.42597E-002	3.57330E+000	9	...........
	139	1.86667	2.05147E-002	-8.87280E-005	0.00000E+000	-1.82023E-006	-5.39641E-002	2.05135E-002	3.57330E+000	9	...........
	140	1.88	1.67974E-002	-8.89134E-005	0.00000E+000	-1.49351E-006	-5.39641E-002	1.67907E-002	3.57330E+000	9	...........
	141	1.89333	1.31003E-002	-8.90041E-005	0.00000E+000	-1.16598E-006	-5.39641E-002	1.30929E-002	3.57330E+000	9	...........
	142	1.90667	9.42155E-003	-8.88603E-005	0.00000E+000	-8.37202E-007	-5.39641E-002	9.41319E-003	3.57330E+000	9	...........
	143	1.92	5.76317E-003	-8.87999E-005	0.00000E+000	-5.11769E-007	-5.39641E-002	5.75255E-003	3.57330E+000	9	...........
	144	1.93333	2.11841E-003	-8.86040E-005	0.00000E+000	-1.87700E-007	-5.39641E-002	2.10654E-003	3.57330E+000	9	...........
	145	1.93667	-1.51351E-004	-8.87916E-005	0.00000E+000	1.34387E-008	-5.39641E-002	-1.73334E-004	3.57330E+000	9	...........
STARTTIMEOFFSET	QUANT	4310.221	Start Time Offset (s)
