EXPLAIN
TAG	PWR800_DISCHARGE
TITLE	LABEL	PWR Cyclic Charge Discharge (Cell) - Discharge Step	Test &Identifier
DATE	LABEL	10-7-2017	Date
TIME	LABEL	15:42:18	Time
NOTES	NOTES	3	&Notes...
	supercap test cell
	0.9mg
	6M KOH
PSTAT	PSTAT	IFC5000-01520	Potentiostat
CAPACITY	QUANT	1.00000E-003	Capacity (A-hr)
CELLTYPE	SELECTOR	1	&Cell Type
WORKINGCONNECTION	SELECTOR	0	&Working Lead
MAXDISCHARGETIME	VARIABLEANDUNITS	1.00000E+002	s	1.00000E+002	second(s)	Max &Discharge Time
DISCHARGEMODE	MULTIPARAM	0	9.00000E-005	&Discharge Mode	Constant Current	Amp(s)
SAMPLETIME	QUANT	1.00000E-002	Sa&mple Period (s)
DISCHARGESTOPAT1	MULTIPARAM	3	0.00000E+000	Discharge Stop At &1	Voltage < Limit	V
DISCHARGESTOPAT2	MULTIPARAM	0	0.00000E+000	Discharge Stop At &2	None	N/A
AESBHCSELECTOR	TOGGLE	F	Save Both Half Cells
IRCOMP	TOGGLE	F	IR &Measure
EOC	QUANT	0	Open Circuit (V)
SEQUENCER	TOGGLE	TRUE	Run as Sequence
PSTATMODEL	IQUANT	53	Pstat Model
PSTATSECTION	LABEL	IFC5000-01520	Pstat Section
PSTATSERIALNO	LABEL	01520	Pstat Serial Number
CTRLMODE	IQUANT	0	Control Mode
ELECTROMETER	IQUANT	1	RE=0 or CS=1
IESTAB	IQUANT	0	I/E Stability
CASPEED	IQUANT	4	Control Amp Speed
CONVENTION	IQUANT	1	Current Convention
ICHRANGE	IQUANT	2	Ich Range
ICHRANGEMODE	TOGGLE	T	Ich Auto Range
ICHOFFSETENABLE	TOGGLE	F	Ich Offset Enable
ICHOFFSET	QUANT	0	Ich Offset (V)
ICHFILTER	IQUANT	1	Ich Filter
VCHRANGE	IQUANT	2	Vch Range
VCHRANGEMODE	TOGGLE	T	Vch Auto Range
VCHOFFSETENABLE	TOGGLE	F	Vch Offset Enable
VCHOFFSET	QUANT	0	Vch Offset (V)
VCHFILTER	IQUANT	1	Vch Filter
IERANGELOWERLIMIT	IQUANT	9	I/E Range Lower Limit
IERANGEMODE	TOGGLE	F	I/E AutoRange
IERANGE	IQUANT	9	I/E Range
ACHSELECT	IQUANT	1	Ach Select
ACHRANGE	IQUANT	2	Ach Range
ACHOFFSETENABLE	TOGGLE	F	Ach Offset Enable
ACHOFFSET	QUANT	0	Ach Offset (V)
ACHFILTER	IQUANT	1	Ach Filter
CABLEID	IQUANT	14	Cable ID
DCCALDATE	LABEL	5-7-2017	DC Calibration Date
ACCALDATE	LABEL	12/3/2015	AC Calibration Date
FRAMEWORKVERSION	QUANT	7.01	Framework Version
INSTRUMENTVERSION	LABEL	4.00	Instrument Version
CURVE	TABLE	153
	Pt	T	Vf	Im	Vu	Pwr	Sig	Ach	Temp	IERange	Over
	#	s	V	A	V	W	V	V	deg C	#	bits
	0	0.013333	8.13237E-001	-8.88791E-005	0.00000E+000	-7.22797E-005	-5.39641E-002	8.13415E-001	3.57310E+000	9	...........
	1	0.026667	7.99699E-001	-8.86509E-005	0.00000E+000	-7.08941E-005	-5.39641E-002	7.99860E-001	3.57310E+000	9	...........
	2	0.04	7.87019E-001	-8.85780E-005	0.00000E+000	-6.97125E-005	-5.39641E-002	7.87181E-001	3.57310E+000	9	...........
	3	0.053333	7.75078E-001	-8.89249E-005	0.00000E+000	-6.89237E-005	-5.39641E-002	7.75225E-001	3.57310E+000	9	...........
	4	0.066667	7.63645E-001	-8.88291E-005	0.00000E+000	-6.78338E-005	-5.39641E-002	7.63822E-001	3.57310E+000	9	...........
	5	0.08	7.52771E-001	-8.87884E-005	0.00000E+000	-6.68373E-005	-5.39641E-002	7.52894E-001	3.57310E+000	9	...........
	6	0.093333	7.42311E-001	-8.87770E-005	0.00000E+000	-6.59001E-005	-5.39641E-002	7.42460E-001	3.57310E+000	9	...........
	7	0.106667	7.32246E-001	-8.85550E-005	0.00000E+000	-6.48441E-005	-5.39641E-002	7.32391E-001	3.57310E+000	9	...........
	8	0.12	7.22537E-001	-8.89082E-005	0.00000E+000	-6.42395E-005	-5.39641E-002	7.22638E-001	3.57310E+000	9	...........
	9	0.133333	7.13076E-001	-8.88645E-005	0.00000E+000	-6.33672E-005	-5.39641E-002	7.13214E-001	3.57310E+000	9	...........
	10	0.146667	7.03932E-001	-8.89499E-005	0.00000E+000	-6.26147E-005	-5.39641E-002	7.04065E-001	3.57310E+000	9	...........
	11	0.16	6.95063E-001	-8.88395E-005	0.00000E+000	-6.17491E-005	-5.39641E-002	6.95189E-001	3.57310E+000	9	...........
	12	0.173333	6.86376E-001	-8.89666E-005	0.00000E+000	-6.10646E-005	-5.39641E-002	6.86527E-001	3.57310E+000	9	...........
	13	0.186667	6.77981E-001	-8.88103E-005	0.00000E+000	-6.02117E-005	-5.39641E-002	6.78125E-001	3.57310E+000	9	...........
	14	0.2	6.69755E-001	-8.88103E-005	0.00000E+000	-5.94812E-005	-5.39641E-002	6.69889E-001	3.57310E+000	9	...........
	15	0.213333	6.61700E-001	-8.90270E-005	0.00000E+000	-5.89092E-005	-5.39641E-002	6.61853E-001	3.57310E+000	9	...........
	16	0.226667	6.53859E-001	-8.88551E-005	0.00000E+000	-5.80987E-005	-5.39641E-002	6.54029E-001	3.57310E+000	9	...........
	17	0.24	6.46190E-001	-8.87655E-005	0.00000E+000	-5.73594E-005	-5.39641E-002	6.46337E-001	3.57310E+000	9	...........
	18	0.253333	6.38656E-001	-8.87092E-005	0.00000E+000	-5.66547E-005	-5.39641E-002	6.38778E-001	3.57310E+000	9	...........
	19	0.266667	6.31271E-001	-8.87280E-005	0.00000E+000	-5.60114E-005	-5.39641E-002	6.31422E-001	3.57310E+000	9	...........
	20	0.28	6.24070E-001	-8.87342E-005	0.00000E+000	-5.53763E-005	-5.39641E-002	6.24189E-001	3.57310E+000	9	...........
	21	0.293333	6.16972E-001	-8.85675E-005	0.00000E+000	-5.46437E-005	-5.39641E-002	6.17081E-001	3.57310E+000	9	...........
	22	0.306667	6.09878E-001	-8.86280E-005	0.00000E+000	-5.40523E-005	-5.39641E-002	6.10057E-001	3.57310E+000	9	...........
	23	0.32	6.03051E-001	-8.86613E-005	0.00000E+000	-5.34673E-005	-5.39641E-002	6.03176E-001	3.57310E+000	9	...........
	24	0.333333	5.96294E-001	-8.87895E-005	0.00000E+000	-5.29447E-005	-5.39641E-002	5.96410E-001	3.57310E+000	9	...........
	25	0.346667	5.89651E-001	-8.87186E-005	0.00000E+000	-5.23130E-005	-5.39641E-002	5.89768E-001	3.57310E+000	9	...........
	26	0.36	5.83054E-001	-8.87759E-005	0.00000E+000	-5.17612E-005	-5.39641E-002	5.83156E-001	3.57310E+000	9	...........
	27	0.373333	5.76618E-001	-8.89166E-005	0.00000E+000	-5.12709E-005	-5.39641E-002	5.76720E-001	3.57310E+000	9	...........
	28	0.386667	5.70237E-001	-8.86030E-005	0.00000E+000	-5.05247E-005	-5.39641E-002	5.70302E-001	3.57310E+000	9	...........
	29	0.4	5.63935E-001	-8.89770E-005	0.00000E+000	-5.01772E-005	-5.39641E-002	5.64030E-001	3.57310E+000	9	...........
	30	0.413333	5.57678E-001	-8.89312E-005	0.00000E+000	-4.95949E-005	-5.39641E-002	5.57761E-001	3.57310E+000	9	...........
	31	0.426667	5.51519E-001	-8.90166E-005	0.00000E+000	-4.90943E-005	-5.39641E-002	5.51609E-001	3.57310E+000	9	...........
	32	0.44	5.45439E-001	-8.89103E-005	0.00000E+000	-4.84952E-005	-5.39641E-002	5.45496E-001	3.57310E+000	9	...........
	33	0.453333	5.39432E-001	-8.86676E-005	0.00000E+000	-4.78301E-005	-5.39641E-002	5.39505E-001	3.57310E+000	9	...........
	34	0.466667	5.33454E-001	-8.88291E-005	0.00000E+000	-4.73862E-005	-5.39641E-002	5.33530E-001	3.57310E+000	9	...........
	35	0.48	5.27564E-001	-8.88426E-005	0.00000E+000	-4.68702E-005	-5.39641E-002	5.27659E-001	3.57310E+000	9	...........
	36	0.493333	5.21724E-001	-8.88249E-005	0.00000E+000	-4.63421E-005	-5.39641E-002	5.21800E-001	3.57310E+000	9	...........
	37	0.506667	5.15957E-001	-8.87780E-005	0.00000E+000	-4.58056E-005	-5.39641E-002	5.16025E-001	3.57310E+000	9	...........
	38	0.52	5.10190E-001	-8.87811E-005	0.00000E+000	-4.52952E-005	-5.39641E-002	5.10299E-001	3.57310E+000	9	...........
	39	0.533333	5.04504E-001	-8.87124E-005	0.00000E+000	-4.47558E-005	-5.39641E-002	5.04615E-001	3.57310E+000	9	...........
	40	0.546667	4.98860E-001	-8.86780E-005	0.00000E+000	-4.42379E-005	-5.39641E-002	4.98994E-001	3.57310E+000	9	...........
	41	0.56	4.93265E-001	-8.89041E-005	0.00000E+000	-4.38533E-005	-5.39641E-002	4.93370E-001	3.57310E+000	9	...........
	42	0.573333	4.87708E-001	-8.87968E-005	0.00000E+000	-4.33069E-005	-5.39641E-002	4.87829E-001	3.57310E+000	9	...........
	43	0.586667	4.82284E-001	-8.87217E-005	0.00000E+000	-4.27891E-005	-5.39641E-002	4.82339E-001	3.57310E+000	9	...........
	44	0.6	4.76803E-001	-8.87676E-005	0.00000E+000	-4.23246E-005	-5.39641E-002	4.76864E-001	3.57310E+000	9	...........
	45	0.613333	4.71350E-001	-8.86551E-005	0.00000E+000	-4.17875E-005	-5.39641E-002	4.71416E-001	3.57310E+000	9	...........
	46	0.626667	4.65925E-001	-8.88676E-005	0.00000E+000	-4.14057E-005	-5.39641E-002	4.65994E-001	3.57310E+000	9	...........
	47	0.64	4.60546E-001	-8.87905E-005	0.00000E+000	-4.08921E-005	-5.39641E-002	4.60612E-001	3.57310E+000	9	...........
	48	0.653333	4.55197E-001	-8.89155E-005	0.00000E+000	-4.04741E-005	-5.39641E-002	4.55265E-001	3.57310E+000	9	...........
	49	0.666667	4.49873E-001	-8.87905E-005	0.00000E+000	-3.99444E-005	-5.39641E-002	4.49934E-001	3.57310E+000	9	...........
	50	0.68	4.44571E-001	-8.87332E-005	0.00000E+000	-3.94482E-005	-5.39641E-002	4.44634E-001	3.57310E+000	9	...........
	51	0.693333	4.39298E-001	-8.87561E-005	0.00000E+000	-3.89904E-005	-5.39641E-002	4.39356E-001	3.57310E+000	9	...........
	52	0.706667	4.34040E-001	-8.85957E-005	0.00000E+000	-3.84541E-005	-5.39641E-002	4.34098E-001	3.57310E+000	9	...........
	53	0.72	4.28817E-001	-8.89395E-005	0.00000E+000	-3.81388E-005	-5.39641E-002	4.28876E-001	3.57310E+000	9	...........
	54	0.733333	4.23619E-001	-8.91239E-005	0.00000E+000	-3.77546E-005	-5.39641E-002	4.23673E-001	3.57310E+000	9	...........
	55	0.746667	4.18435E-001	-8.86905E-005	0.00000E+000	-3.71112E-005	-5.39641E-002	4.18491E-001	3.57310E+000	9	...........
	56	0.76	4.13277E-001	-8.90666E-005	0.00000E+000	-3.68092E-005	-5.39641E-002	4.13332E-001	3.57310E+000	9	...........
	57	0.773333	4.08136E-001	-8.88072E-005	0.00000E+000	-3.62454E-005	-5.39641E-002	4.08187E-001	3.57310E+000	9	...........
	58	0.786667	4.03018E-001	-8.85957E-005	0.00000E+000	-3.57056E-005	-5.39641E-002	4.03074E-001	3.57310E+000	9	...........
	59	0.8	3.97917E-001	-8.87405E-005	0.00000E+000	-3.53114E-005	-5.39641E-002	3.97973E-001	3.57310E+000	9	...........
	60	0.813333	3.92828E-001	-8.86405E-005	0.00000E+000	-3.48205E-005	-5.39641E-002	3.92876E-001	3.57310E+000	9	...........
	61	0.826667	3.87762E-001	-8.88530E-005	0.00000E+000	-3.44538E-005	-5.39641E-002	3.87812E-001	3.57310E+000	9	...........
	62	0.84	3.82723E-001	-8.88686E-005	0.00000E+000	-3.40120E-005	-5.39641E-002	3.82771E-001	3.57310E+000	9	...........
	63	0.853333	3.77699E-001	-8.90280E-005	0.00000E+000	-3.36258E-005	-5.39641E-002	3.77745E-001	3.57310E+000	9	...........
	64	0.866667	3.72688E-001	-8.87103E-005	0.00000E+000	-3.30613E-005	-5.39641E-002	3.72732E-001	3.57310E+000	9	...........
	65	0.88	3.67683E-001	-8.87915E-005	0.00000E+000	-3.26471E-005	-5.39641E-002	3.67726E-001	3.57310E+000	9	...........
	66	0.893333	3.62691E-001	-8.88145E-005	0.00000E+000	-3.22122E-005	-5.39641E-002	3.62734E-001	3.57310E+000	9	...........
	67	0.906667	3.57715E-001	-8.87395E-005	0.00000E+000	-3.17434E-005	-5.39641E-002	3.57757E-001	3.57310E+000	9	...........
	68	0.92	3.52753E-001	-8.87853E-005	0.00000E+000	-3.13193E-005	-5.39641E-002	3.52800E-001	3.57360E+000	9	...........
	69	0.933333	3.47811E-001	-8.88020E-005	0.00000E+000	-3.08863E-005	-5.39641E-002	3.47851E-001	3.57390E+000	9	...........
	70	0.946667	3.42872E-001	-8.89562E-005	0.00000E+000	-3.05006E-005	-5.39641E-002	3.42916E-001	3.57390E+000	9	...........
	71	0.96	3.37948E-001	-8.87520E-005	0.00000E+000	-2.99936E-005	-5.39641E-002	3.37992E-001	3.57390E+000	9	...........
	72	0.97333	3.33035E-001	-8.85634E-005	0.00000E+000	-2.94947E-005	-5.39641E-002	3.33078E-001	3.57390E+000	9	...........
	73	0.98667	3.28148E-001	-8.87155E-005	0.00000E+000	-2.91118E-005	-5.39641E-002	3.28189E-001	3.57390E+000	9	...........
	74	1	3.23287E-001	-8.87124E-005	0.00000E+000	-2.86795E-005	-5.39641E-002	3.23323E-001	3.57390E+000	9	...........
	75	1.01333	3.18435E-001	-8.86707E-005	0.00000E+000	-2.82358E-005	-5.39641E-002	3.18475E-001	3.57390E+000	9	...........
	76	1.02667	3.13608E-001	-8.89770E-005	0.00000E+000	-2.79039E-005	-5.39641E-002	3.13644E-001	3.57390E+000	9	...........
	77	1.04	3.08795E-001	-8.86248E-005	0.00000E+000	-2.73669E-005	-5.39641E-002	3.08839E-001	3.57390E+000	9	...........
	78	1.05333	3.03991E-001	-8.85405E-005	0.00000E+000	-2.69155E-005	-5.39641E-002	3.04030E-001	3.57390E+000	9	...........
	79	1.06667	2.99190E-001	-8.87697E-005	0.00000E+000	-2.65590E-005	-5.39641E-002	2.99229E-001	3.57390E+000	9	...........
	80	1.08	2.94412E-001	-8.87322E-005	0.00000E+000	-2.61238E-005	-5.39641E-002	2.94449E-001	3.57390E+000	9	...........
	81	1.09333	2.89647E-001	-8.85384E-005	0.00000E+000	-2.56449E-005	-5.39641E-002	2.89682E-001	3.57390E+000	9	...........
	82	1.10667	2.84888E-001	-8.86853E-005	0.00000E+000	-2.52653E-005	-5.39641E-002	2.84932E-001	3.57390E+000	9	...........
	83	1.12	2.80160E-001	-8.89239E-005	0.00000E+000	-2.49129E-005	-5.39641E-002	2.80195E-001	3.57390E+000	9	...........
	84	1.13333	2.75446E-001	-8.89895E-005	0.00000E+000	-2.45118E-005	-5.39641E-002	2.75482E-001	3.57390E+000	9	...........
	85	1.14667	2.70751E-001	-8.87686E-005	0.00000E+000	-2.40342E-005	-5.39641E-002	2.70786E-001	3.57390E+000	9	...........
	86	1.16	2.66080E-001	-8.85842E-005	0.00000E+000	-2.35705E-005	-5.39641E-002	2.66120E-001	3.57390E+000	9	...........
	87	1.17333	2.61419E-001	-8.87572E-005	0.00000E+000	-2.32028E-005	-5.39641E-002	2.61463E-001	3.57390E+000	9	...........
	88	1.18667	2.56801E-001	-8.85238E-005	0.00000E+000	-2.27330E-005	-5.39641E-002	2.56835E-001	3.57390E+000	9	...........
	89	1.2	2.52195E-001	-8.88530E-005	0.00000E+000	-2.24083E-005	-5.39641E-002	2.52226E-001	3.57390E+000	9	...........
	90	1.21333	2.47592E-001	-8.88249E-005	0.00000E+000	-2.19923E-005	-5.39641E-002	2.47629E-001	3.57390E+000	9	...........
	91	1.22667	2.43019E-001	-8.90301E-005	0.00000E+000	-2.16360E-005	-5.39641E-002	2.43050E-001	3.57390E+000	9	...........
	92	1.24	2.38459E-001	-8.88051E-005	0.00000E+000	-2.11763E-005	-5.39641E-002	2.38484E-001	3.57390E+000	9	...........
	93	1.25333	2.33914E-001	-8.87780E-005	0.00000E+000	-2.07665E-005	-5.39641E-002	2.33939E-001	3.57390E+000	9	...........
	94	1.26667	2.29390E-001	-8.87061E-005	0.00000E+000	-2.03483E-005	-5.39641E-002	2.29422E-001	3.57390E+000	9	...........
	95	1.28	2.24894E-001	-8.88332E-005	0.00000E+000	-1.99780E-005	-5.39641E-002	2.24921E-001	3.57390E+000	9	...........
	96	1.29333	2.20419E-001	-8.88645E-005	0.00000E+000	-1.95874E-005	-5.39641E-002	2.20443E-001	3.57390E+000	9	...........
	97	1.30667	2.15960E-001	-8.87749E-005	0.00000E+000	-1.91718E-005	-5.39641E-002	2.15983E-001	3.57390E+000	9	...........
	98	1.32	2.11507E-001	-8.86540E-005	0.00000E+000	-1.87510E-005	-5.39641E-002	2.11535E-001	3.57390E+000	9	...........
	99	1.33333	2.07090E-001	-8.87030E-005	0.00000E+000	-1.83695E-005	-5.39641E-002	2.07105E-001	3.57390E+000	9	...........
	100	1.34667	2.02687E-001	-8.85342E-005	0.00000E+000	-1.79447E-005	-5.39641E-002	2.02709E-001	3.57390E+000	9	...........
	101	1.36	1.98291E-001	-8.91854E-005	0.00000E+000	-1.76847E-005	-5.39641E-002	1.98314E-001	3.57390E+000	9	...........
	102	1.37333	1.93917E-001	-8.87259E-005	0.00000E+000	-1.72055E-005	-5.39641E-002	1.93940E-001	3.57390E+000	9	...........
	103	1.38667	1.89579E-001	-8.89041E-005	0.00000E+000	-1.68543E-005	-5.39641E-002	1.89602E-001	3.57390E+000	9	...........
	104	1.4	1.85268E-001	-8.87457E-005	0.00000E+000	-1.64418E-005	-5.39641E-002	1.85286E-001	3.57390E+000	9	...........
	105	1.41333	1.80966E-001	-8.88541E-005	0.00000E+000	-1.60796E-005	-5.39641E-002	1.80986E-001	3.57390E+000	9	...........
	106	1.42667	1.76687E-001	-8.86384E-005	0.00000E+000	-1.56613E-005	-5.39641E-002	1.76706E-001	3.57390E+000	9	...........
	107	1.44	1.72409E-001	-8.89134E-005	0.00000E+000	-1.53295E-005	-5.39641E-002	1.72431E-001	3.57390E+000	9	...........
	108	1.45333	1.68174E-001	-8.88353E-005	0.00000E+000	-1.49398E-005	-5.39641E-002	1.68198E-001	3.57390E+000	9	...........
	109	1.46667	1.63960E-001	-8.86196E-005	0.00000E+000	-1.45301E-005	-5.39641E-002	1.63983E-001	3.57390E+000	9	...........
	110	1.48	1.59754E-001	-8.87592E-005	0.00000E+000	-1.41797E-005	-5.39641E-002	1.59774E-001	3.57390E+000	9	...........
	111	1.49333	1.55564E-001	-8.90999E-005	0.00000E+000	-1.38607E-005	-5.39641E-002	1.55583E-001	3.57390E+000	9	...........
	112	1.50667	1.51403E-001	-8.87061E-005	0.00000E+000	-1.34304E-005	-5.39641E-002	1.51416E-001	3.57390E+000	9	...........
	113	1.52	1.47262E-001	-8.88936E-005	0.00000E+000	-1.30906E-005	-5.39641E-002	1.47275E-001	3.57390E+000	9	...........
	114	1.53333	1.43128E-001	-8.87634E-005	0.00000E+000	-1.27045E-005	-5.39641E-002	1.43142E-001	3.57390E+000	9	...........
	115	1.54667	1.39018E-001	-8.86915E-005	0.00000E+000	-1.23297E-005	-5.39641E-002	1.39031E-001	3.57390E+000	9	...........
	116	1.56	1.34916E-001	-8.87228E-005	0.00000E+000	-1.19701E-005	-5.39641E-002	1.34932E-001	3.57390E+000	9	...........
	117	1.57333	1.30826E-001	-8.87926E-005	0.00000E+000	-1.16164E-005	-5.39641E-002	1.30843E-001	3.57390E+000	9	...........
	118	1.58667	1.26770E-001	-8.87707E-005	0.00000E+000	-1.12535E-005	-5.39641E-002	1.26785E-001	3.57390E+000	9	...........
	119	1.6	1.22731E-001	-8.86238E-005	0.00000E+000	-1.08769E-005	-5.39641E-002	1.22745E-001	3.57390E+000	9	...........
	120	1.61333	1.18710E-001	-8.89739E-005	0.00000E+000	-1.05621E-005	-5.39641E-002	1.18720E-001	3.57390E+000	9	...........
	121	1.62667	1.14708E-001	-8.88853E-005	0.00000E+000	-1.01959E-005	-5.39641E-002	1.14724E-001	3.57390E+000	9	...........
	122	1.64	1.10737E-001	-8.86613E-005	0.00000E+000	-9.81806E-006	-5.39641E-002	1.10743E-001	3.57390E+000	9	...........
	123	1.65333	1.06762E-001	-8.88343E-005	0.00000E+000	-9.48410E-006	-5.39641E-002	1.06776E-001	3.57390E+000	9	...........
	124	1.66667	1.02793E-001	-8.88416E-005	0.00000E+000	-9.13229E-006	-5.39641E-002	1.02802E-001	3.57390E+000	9	...........
	125	1.68	9.88416E-002	-8.87447E-005	0.00000E+000	-8.77166E-006	-5.39641E-002	9.88531E-002	3.57390E+000	9	...........
	126	1.69333	9.49117E-002	-8.87645E-005	0.00000E+000	-8.42478E-006	-5.39641E-002	9.49177E-002	3.57390E+000	9	...........
	127	1.70667	9.09973E-002	-8.89041E-005	0.00000E+000	-8.09003E-006	-5.39641E-002	9.10067E-002	3.57390E+000	9	...........
	128	1.72	8.70971E-002	-8.86624E-005	0.00000E+000	-7.72224E-006	-5.39641E-002	8.71052E-002	3.57390E+000	9	...........
	129	1.73333	8.32240E-002	-8.87843E-005	0.00000E+000	-7.38898E-006	-5.39641E-002	8.32311E-002	3.57390E+000	9	...........
	130	1.74667	7.93676E-002	-8.90624E-005	0.00000E+000	-7.06867E-006	-5.39641E-002	7.93667E-002	3.57390E+000	9	...........
	131	1.76	7.55257E-002	-8.89343E-005	0.00000E+000	-6.71683E-006	-5.39641E-002	7.55269E-002	3.57390E+000	9	...........
	132	1.77333	7.17147E-002	-8.89416E-005	0.00000E+000	-6.37842E-006	-5.39641E-002	7.17138E-002	3.57390E+000	9	...........
	133	1.78667	6.79361E-002	-8.89603E-005	0.00000E+000	-6.04362E-006	-5.39641E-002	6.79300E-002	3.57390E+000	9	...........
	134	1.8	6.41592E-002	-8.87207E-005	0.00000E+000	-5.69225E-006	-5.39641E-002	6.41529E-002	3.57390E+000	9	...........
	135	1.81333	6.03969E-002	-8.86092E-005	0.00000E+000	-5.35172E-006	-5.39641E-002	6.04014E-002	3.57390E+000	9	...........
	136	1.82667	5.66568E-002	-8.86436E-005	0.00000E+000	-5.02226E-006	-5.39641E-002	5.66559E-002	3.57390E+000	9	...........
	137	1.84	5.29276E-002	-8.86999E-005	0.00000E+000	-4.69467E-006	-5.39641E-002	5.29278E-002	3.57390E+000	9	...........
	138	1.85333	4.92161E-002	-8.89207E-005	0.00000E+000	-4.37634E-006	-5.39641E-002	4.92186E-002	3.57390E+000	9	...........
	139	1.86667	4.55262E-002	-8.89114E-005	0.00000E+000	-4.04779E-006	-5.39641E-002	4.55377E-002	3.57390E+000	9	...........
	140	1.88	4.18340E-002	-8.89051E-005	0.00000E+000	-3.71926E-006	-5.39641E-002	4.18361E-002	3.57390E+000	9	...........
	141	1.89333	3.81615E-002	-8.89791E-005	0.00000E+000	-3.39557E-006	-5.39641E-002	3.81659E-002	3.57390E+000	9	...........
	142	1.90667	3.45161E-002	-8.88551E-005	0.00000E+000	-3.06693E-006	-5.39641E-002	3.45221E-002	3.57390E+000	9	...........
	143	1.92	3.08654E-002	-8.89687E-005	0.00000E+000	-2.74605E-006	-5.39641E-002	3.08732E-002	3.57327E+000	9	...........
	144	1.93333	2.72332E-002	-8.87332E-005	0.00000E+000	-2.41649E-006	-5.39641E-002	2.72350E-002	3.57290E+000	9	...........
	145	1.94667	2.36255E-002	-8.88384E-005	0.00000E+000	-2.09885E-006	-5.39641E-002	2.36249E-002	3.57290E+000	9	...........
	146	1.96	2.00508E-002	-8.88791E-005	0.00000E+000	-1.78210E-006	-5.39641E-002	2.00466E-002	3.57290E+000	9	...........
	147	1.97333	1.64915E-002	-8.88624E-005	0.00000E+000	-1.46547E-006	-5.39641E-002	1.64858E-002	3.57290E+000	9	...........
	148	1.98667	1.29486E-002	-8.89197E-005	0.00000E+000	-1.15138E-006	-5.39641E-002	1.29387E-002	3.57290E+000	9	...........
	149	2	9.41539E-003	-8.87895E-005	0.00000E+000	-8.35988E-007	-5.39641E-002	9.41037E-003	3.57290E+000	9	...........
	150	2.01333	5.90064E-003	-8.86280E-005	0.00000E+000	-5.22962E-007	-5.39641E-002	5.88895E-003	3.57290E+000	9	...........
	151	2.02667	2.40668E-003	-8.90676E-005	0.00000E+000	-2.14357E-007	-5.39641E-002	2.39897E-003	3.57290E+000	9	...........
	152	2.03167	2.00877E-005	-8.84165E-005	0.00000E+000	-1.77609E-009	-5.39641E-002	1.27866E-005	3.57290E+000	9	...........
STARTTIMEOFFSET	QUANT	2177.42	Start Time Offset (s)
