EXPLAIN
TAG	PWR800_DISCHARGE
TITLE	LABEL	PWR Cyclic Charge Discharge (Cell) - Discharge Step	Test &Identifier
DATE	LABEL	10-7-2017	Date
TIME	LABEL	15:44:40	Time
NOTES	NOTES	3	&Notes...
	supercap test cell
	0.9mg
	6M KOH
PSTAT	PSTAT	IFC5000-01520	Potentiostat
CAPACITY	QUANT	1.00000E-003	Capacity (A-hr)
CELLTYPE	SELECTOR	1	&Cell Type
WORKINGCONNECTION	SELECTOR	0	&Working Lead
MAXDISCHARGETIME	VARIABLEANDUNITS	1.00000E+002	s	1.00000E+002	second(s)	Max &Discharge Time
DISCHARGEMODE	MULTIPARAM	0	9.00000E-005	&Discharge Mode	Constant Current	Amp(s)
SAMPLETIME	QUANT	1.00000E-002	Sa&mple Period (s)
DISCHARGESTOPAT1	MULTIPARAM	3	0.00000E+000	Discharge Stop At &1	Voltage < Limit	V
DISCHARGESTOPAT2	MULTIPARAM	0	0.00000E+000	Discharge Stop At &2	None	N/A
AESBHCSELECTOR	TOGGLE	F	Save Both Half Cells
IRCOMP	TOGGLE	F	IR &Measure
EOC	QUANT	0	Open Circuit (V)
SEQUENCER	TOGGLE	TRUE	Run as Sequence
PSTATMODEL	IQUANT	53	Pstat Model
PSTATSECTION	LABEL	IFC5000-01520	Pstat Section
PSTATSERIALNO	LABEL	01520	Pstat Serial Number
CTRLMODE	IQUANT	0	Control Mode
ELECTROMETER	IQUANT	1	RE=0 or CS=1
IESTAB	IQUANT	0	I/E Stability
CASPEED	IQUANT	4	Control Amp Speed
CONVENTION	IQUANT	1	Current Convention
ICHRANGE	IQUANT	2	Ich Range
ICHRANGEMODE	TOGGLE	T	Ich Auto Range
ICHOFFSETENABLE	TOGGLE	F	Ich Offset Enable
ICHOFFSET	QUANT	0	Ich Offset (V)
ICHFILTER	IQUANT	1	Ich Filter
VCHRANGE	IQUANT	2	Vch Range
VCHRANGEMODE	TOGGLE	T	Vch Auto Range
VCHOFFSETENABLE	TOGGLE	F	Vch Offset Enable
VCHOFFSET	QUANT	0	Vch Offset (V)
VCHFILTER	IQUANT	1	Vch Filter
IERANGELOWERLIMIT	IQUANT	9	I/E Range Lower Limit
IERANGEMODE	TOGGLE	F	I/E AutoRange
IERANGE	IQUANT	9	I/E Range
ACHSELECT	IQUANT	1	Ach Select
ACHRANGE	IQUANT	2	Ach Range
ACHOFFSETENABLE	TOGGLE	F	Ach Offset Enable
ACHOFFSET	QUANT	0	Ach Offset (V)
ACHFILTER	IQUANT	1	Ach Filter
CABLEID	IQUANT	14	Cable ID
DCCALDATE	LABEL	5-7-2017	DC Calibration Date
ACCALDATE	LABEL	12/3/2015	AC Calibration Date
FRAMEWORKVERSION	QUANT	7.01	Framework Version
INSTRUMENTVERSION	LABEL	4.00	Instrument Version
CURVE	TABLE	152
	Pt	T	Vf	Im	Vu	Pwr	Sig	Ach	Temp	IERange	Over
	#	s	V	A	V	W	V	V	deg C	#	bits
	0	0.013333	8.13451E-001	-8.86217E-005	0.00000E+000	-7.20894E-005	-5.39641E-002	8.13628E-001	3.57260E+000	9	...........
	1	0.026667	7.99811E-001	-8.86509E-005	0.00000E+000	-7.09039E-005	-5.39641E-002	7.99987E-001	3.57260E+000	9	...........
	2	0.04	7.87065E-001	-8.84592E-005	0.00000E+000	-6.96231E-005	-5.39641E-002	7.87205E-001	3.57260E+000	9	...........
	3	0.053333	7.75035E-001	-8.88468E-005	0.00000E+000	-6.88594E-005	-5.39641E-002	7.75160E-001	3.57260E+000	9	...........
	4	0.066667	7.63557E-001	-8.86790E-005	0.00000E+000	-6.77115E-005	-5.39641E-002	7.63682E-001	3.57260E+000	9	...........
	5	0.08	7.52612E-001	-8.86499E-005	0.00000E+000	-6.67190E-005	-5.39641E-002	7.52726E-001	3.57260E+000	9	...........
	6	0.093333	7.42073E-001	-8.87447E-005	0.00000E+000	-6.58550E-005	-5.39641E-002	7.42200E-001	3.57260E+000	9	...........
	7	0.106667	7.31949E-001	-8.85842E-005	0.00000E+000	-6.48392E-005	-5.39641E-002	7.32046E-001	3.57260E+000	9	...........
	8	0.12	7.22135E-001	-8.89332E-005	0.00000E+000	-6.42218E-005	-5.39641E-002	7.22266E-001	3.57260E+000	9	...........
	9	0.133333	7.12627E-001	-8.86749E-005	0.00000E+000	-6.31921E-005	-5.39641E-002	7.12755E-001	3.57260E+000	9	...........
	10	0.146667	7.03416E-001	-8.91750E-005	0.00000E+000	-6.27271E-005	-5.39641E-002	7.03548E-001	3.57260E+000	9	...........
	11	0.16	6.94474E-001	-8.90176E-005	0.00000E+000	-6.18205E-005	-5.39641E-002	6.94624E-001	3.57260E+000	9	...........
	12	0.173333	6.85770E-001	-8.87603E-005	0.00000E+000	-6.08691E-005	-5.39641E-002	6.85885E-001	3.57260E+000	9	...........
	13	0.186667	6.77304E-001	-8.87228E-005	0.00000E+000	-6.00923E-005	-5.39641E-002	6.77424E-001	3.57260E+000	9	...........
	14	0.2	6.69040E-001	-8.87269E-005	0.00000E+000	-5.93619E-005	-5.39641E-002	6.69162E-001	3.57260E+000	9	...........
	15	0.213333	6.60932E-001	-8.86467E-005	0.00000E+000	-5.85895E-005	-5.39641E-002	6.61054E-001	3.57260E+000	9	...........
	16	0.226667	6.53054E-001	-8.85332E-005	0.00000E+000	-5.78169E-005	-5.39641E-002	6.53171E-001	3.57260E+000	9	...........
	17	0.24	6.45315E-001	-8.87853E-005	0.00000E+000	-5.72945E-005	-5.39641E-002	6.45439E-001	3.57260E+000	9	...........
	18	0.253333	6.37747E-001	-8.86540E-005	0.00000E+000	-5.65388E-005	-5.39641E-002	6.37898E-001	3.57260E+000	9	...........
	19	0.266667	6.30346E-001	-8.86884E-005	0.00000E+000	-5.59043E-005	-5.39641E-002	6.30456E-001	3.57260E+000	9	...........
	20	0.28	6.23062E-001	-8.87499E-005	0.00000E+000	-5.52966E-005	-5.39641E-002	6.23152E-001	3.57260E+000	9	...........
	21	0.293333	6.15912E-001	-8.87259E-005	0.00000E+000	-5.46473E-005	-5.39641E-002	6.16023E-001	3.57260E+000	9	...........
	22	0.306667	6.08825E-001	-8.90291E-005	0.00000E+000	-5.42032E-005	-5.39641E-002	6.08986E-001	3.57260E+000	9	...........
	23	0.32	6.01929E-001	-8.85769E-005	0.00000E+000	-5.33170E-005	-5.39641E-002	6.02066E-001	3.57260E+000	9	...........
	24	0.333333	5.95154E-001	-8.88489E-005	0.00000E+000	-5.28787E-005	-5.39641E-002	5.95281E-001	3.57260E+000	9	...........
	25	0.346667	5.88448E-001	-8.88478E-005	0.00000E+000	-5.22823E-005	-5.39641E-002	5.88587E-001	3.57260E+000	9	...........
	26	0.36	5.81855E-001	-8.87770E-005	0.00000E+000	-5.16553E-005	-5.39641E-002	5.81972E-001	3.57260E+000	9	...........
	27	0.373333	5.75363E-001	-8.86957E-005	0.00000E+000	-5.10322E-005	-5.39641E-002	5.75487E-001	3.57260E+000	9	...........
	28	0.386667	5.68953E-001	-8.88478E-005	0.00000E+000	-5.05502E-005	-5.39641E-002	5.69063E-001	3.57260E+000	9	...........
	29	0.4	5.62617E-001	-8.86884E-005	0.00000E+000	-4.98976E-005	-5.39641E-002	5.62725E-001	3.57260E+000	9	...........
	30	0.413333	5.56358E-001	-8.87936E-005	0.00000E+000	-4.94011E-005	-5.39641E-002	5.56490E-001	3.57260E+000	9	...........
	31	0.426667	5.50214E-001	-8.90270E-005	0.00000E+000	-4.89839E-005	-5.39641E-002	5.50327E-001	3.57260E+000	9	...........
	32	0.44	5.44146E-001	-8.86874E-005	0.00000E+000	-4.82589E-005	-5.39641E-002	5.44249E-001	3.57260E+000	9	...........
	33	0.453333	5.38127E-001	-8.86926E-005	0.00000E+000	-4.77278E-005	-5.39641E-002	5.38230E-001	3.57260E+000	9	...........
	34	0.466667	5.32132E-001	-8.89280E-005	0.00000E+000	-4.73214E-005	-5.39641E-002	5.32227E-001	3.57260E+000	9	...........
	35	0.48	5.26252E-001	-8.87592E-005	0.00000E+000	-4.67097E-005	-5.39641E-002	5.26350E-001	3.57260E+000	9	...........
	36	0.493333	5.20431E-001	-8.88686E-005	0.00000E+000	-4.62500E-005	-5.39641E-002	5.20479E-001	3.57260E+000	9	...........
	37	0.506667	5.14648E-001	-8.88478E-005	0.00000E+000	-4.57253E-005	-5.39641E-002	5.14695E-001	3.57260E+000	9	...........
	38	0.52	5.08855E-001	-8.88739E-005	0.00000E+000	-4.52239E-005	-5.39641E-002	5.08951E-001	3.57260E+000	9	...........
	39	0.533333	5.03160E-001	-8.85050E-005	0.00000E+000	-4.45322E-005	-5.39641E-002	5.03225E-001	3.57260E+000	9	...........
	40	0.546667	4.97504E-001	-8.87718E-005	0.00000E+000	-4.41643E-005	-5.39641E-002	4.97586E-001	3.57260E+000	9	...........
	41	0.56	4.91872E-001	-8.85165E-005	0.00000E+000	-4.35388E-005	-5.39641E-002	4.91954E-001	3.57260E+000	9	...........
	42	0.573333	4.86346E-001	-8.84769E-005	0.00000E+000	-4.30304E-005	-5.39641E-002	4.86395E-001	3.57260E+000	9	...........
	43	0.586667	4.80869E-001	-8.89624E-005	0.00000E+000	-4.27793E-005	-5.39641E-002	4.80935E-001	3.57260E+000	9	...........
	44	0.6	4.75369E-001	-8.88645E-005	0.00000E+000	-4.22435E-005	-5.39641E-002	4.75433E-001	3.57260E+000	9	...........
	45	0.613333	4.69902E-001	-8.88311E-005	0.00000E+000	-4.17419E-005	-5.39641E-002	4.69967E-001	3.57260E+000	9	...........
	46	0.626667	4.64483E-001	-8.88311E-005	0.00000E+000	-4.12606E-005	-5.39641E-002	4.64543E-001	3.57260E+000	9	...........
	47	0.64	4.59081E-001	-8.88572E-005	0.00000E+000	-4.07927E-005	-5.39641E-002	4.59142E-001	3.57260E+000	9	...........
	48	0.653333	4.53707E-001	-8.86884E-005	0.00000E+000	-4.02386E-005	-5.39641E-002	4.53768E-001	3.57260E+000	9	...........
	49	0.666667	4.48370E-001	-8.86446E-005	0.00000E+000	-3.97456E-005	-5.39641E-002	4.48431E-001	3.57341E+000	9	...........
	50	0.68	4.43054E-001	-8.87822E-005	0.00000E+000	-3.93353E-005	-5.39641E-002	4.43116E-001	3.57390E+000	9	...........
	51	0.693333	4.37781E-001	-8.90864E-005	0.00000E+000	-3.90003E-005	-5.39641E-002	4.37844E-001	3.57390E+000	9	...........
	52	0.706667	4.32520E-001	-8.86207E-005	0.00000E+000	-3.83302E-005	-5.39641E-002	4.32576E-001	3.57390E+000	9	...........
	53	0.72	4.27286E-001	-8.89822E-005	0.00000E+000	-3.80209E-005	-5.39641E-002	4.27345E-001	3.57390E+000	9	...........
	54	0.733333	4.22068E-001	-8.88801E-005	0.00000E+000	-3.75135E-005	-5.39641E-002	4.22131E-001	3.57390E+000	9	...........
	55	0.746667	4.16885E-001	-8.86446E-005	0.00000E+000	-3.69546E-005	-5.39641E-002	4.16945E-001	3.57390E+000	9	...........
	56	0.76	4.11717E-001	-8.87947E-005	0.00000E+000	-3.65583E-005	-5.39641E-002	4.11775E-001	3.57390E+000	9	...........
	57	0.773333	4.06564E-001	-8.90103E-005	0.00000E+000	-3.61884E-005	-5.39641E-002	4.06619E-001	3.57390E+000	9	...........
	58	0.786667	4.01434E-001	-8.85467E-005	0.00000E+000	-3.55456E-005	-5.39641E-002	4.01481E-001	3.57390E+000	9	...........
	59	0.8	3.96324E-001	-8.87363E-005	0.00000E+000	-3.51683E-005	-5.39641E-002	3.96372E-001	3.57390E+000	9	...........
	60	0.813333	3.91239E-001	-8.89041E-005	0.00000E+000	-3.47827E-005	-5.39641E-002	3.91291E-001	3.57390E+000	9	...........
	61	0.826667	3.86177E-001	-8.90270E-005	0.00000E+000	-3.43802E-005	-5.39641E-002	3.86226E-001	3.57390E+000	9	...........
	62	0.84	3.81118E-001	-8.87009E-005	0.00000E+000	-3.38055E-005	-5.39641E-002	3.81168E-001	3.57390E+000	9	...........
	63	0.853333	3.76066E-001	-8.88249E-005	0.00000E+000	-3.34040E-005	-5.39641E-002	3.76109E-001	3.57390E+000	9	...........
	64	0.866667	3.71027E-001	-8.87728E-005	0.00000E+000	-3.29371E-005	-5.39641E-002	3.71069E-001	3.57390E+000	9	...........
	65	0.88	3.66022E-001	-8.88249E-005	0.00000E+000	-3.25119E-005	-5.39641E-002	3.66068E-001	3.57390E+000	9	...........
	66	0.893333	3.61010E-001	-8.88457E-005	0.00000E+000	-3.20742E-005	-5.39641E-002	3.61053E-001	3.57390E+000	9	...........
	67	0.906667	3.55999E-001	-8.87113E-005	0.00000E+000	-3.15812E-005	-5.39641E-002	3.56039E-001	3.57390E+000	9	...........
	68	0.92	3.51000E-001	-8.86144E-005	0.00000E+000	-3.11037E-005	-5.39641E-002	3.51044E-001	3.57390E+000	9	...........
	69	0.933333	3.46014E-001	-8.85988E-005	0.00000E+000	-3.06564E-005	-5.39641E-002	3.46061E-001	3.57390E+000	9	...........
	70	0.946667	3.41058E-001	-8.87728E-005	0.00000E+000	-3.02767E-005	-5.39641E-002	3.41097E-001	3.57390E+000	9	...........
	71	0.96	3.36122E-001	-8.86603E-005	0.00000E+000	-2.98007E-005	-5.39641E-002	3.36166E-001	3.57390E+000	9	...........
	72	0.97333	3.31212E-001	-8.86415E-005	0.00000E+000	-2.93591E-005	-5.39641E-002	3.31256E-001	3.57390E+000	9	...........
	73	0.98667	3.26315E-001	-8.87374E-005	0.00000E+000	-2.89564E-005	-5.39641E-002	3.26354E-001	3.57390E+000	9	...........
	74	1	3.21436E-001	-8.86488E-005	0.00000E+000	-2.84949E-005	-5.39641E-002	3.21478E-001	3.57390E+000	9	...........
	75	1.01333	3.16563E-001	-8.88426E-005	0.00000E+000	-2.81243E-005	-5.39641E-002	3.16605E-001	3.57390E+000	9	...........
	76	1.02667	3.11697E-001	-8.86759E-005	0.00000E+000	-2.76400E-005	-5.39641E-002	3.11735E-001	3.57390E+000	9	...........
	77	1.04	3.06834E-001	-8.91395E-005	0.00000E+000	-2.73510E-005	-5.39641E-002	3.06879E-001	3.57390E+000	9	...........
	78	1.05333	3.01995E-001	-8.88197E-005	0.00000E+000	-2.68231E-005	-5.39641E-002	3.02035E-001	3.57390E+000	9	...........
	79	1.06667	2.97172E-001	-8.88468E-005	0.00000E+000	-2.64028E-005	-5.39641E-002	2.97209E-001	3.57390E+000	9	...........
	80	1.08	2.92366E-001	-8.87572E-005	0.00000E+000	-2.59496E-005	-5.39641E-002	2.92405E-001	3.57390E+000	9	...........
	81	1.09333	2.87576E-001	-8.88364E-005	0.00000E+000	-2.55472E-005	-5.39641E-002	2.87614E-001	3.57390E+000	9	...........
	82	1.10667	2.82815E-001	-8.88280E-005	0.00000E+000	-2.51219E-005	-5.39641E-002	2.82855E-001	3.57390E+000	9	...........
	83	1.12	2.78071E-001	-8.89687E-005	0.00000E+000	-2.47396E-005	-5.39641E-002	2.78103E-001	3.57390E+000	9	...........
	84	1.13333	2.73339E-001	-8.86801E-005	0.00000E+000	-2.42397E-005	-5.39641E-002	2.73376E-001	3.57390E+000	9	...........
	85	1.14667	2.68644E-001	-8.87207E-005	0.00000E+000	-2.38343E-005	-5.39641E-002	2.68677E-001	3.57390E+000	9	...........
	86	1.16	2.63966E-001	-8.88551E-005	0.00000E+000	-2.34547E-005	-5.39641E-002	2.64003E-001	3.57390E+000	9	...........
	87	1.17333	2.59300E-001	-8.88176E-005	0.00000E+000	-2.30304E-005	-5.39641E-002	2.59334E-001	3.57390E+000	9	...........
	88	1.18667	2.54635E-001	-8.84248E-005	0.00000E+000	-2.25160E-005	-5.39641E-002	2.54674E-001	3.57390E+000	9	...........
	89	1.2	2.50004E-001	-8.86905E-005	0.00000E+000	-2.21730E-005	-5.39641E-002	2.50036E-001	3.57390E+000	9	...........
	90	1.21333	2.45379E-001	-8.86134E-005	0.00000E+000	-2.17439E-005	-5.39641E-002	2.45406E-001	3.57390E+000	9	...........
	91	1.22667	2.40764E-001	-8.86717E-005	0.00000E+000	-2.13490E-005	-5.39641E-002	2.40795E-001	3.57390E+000	9	...........
	92	1.24	2.36182E-001	-8.89385E-005	0.00000E+000	-2.10057E-005	-5.39641E-002	2.36206E-001	3.57390E+000	9	...........
	93	1.25333	2.31605E-001	-8.87342E-005	0.00000E+000	-2.05513E-005	-5.39641E-002	2.31632E-001	3.57390E+000	9	...........
	94	1.26667	2.27045E-001	-8.85498E-005	0.00000E+000	-2.01048E-005	-5.39641E-002	2.27065E-001	3.57390E+000	9	...........
	95	1.28	2.22505E-001	-8.85925E-005	0.00000E+000	-1.97123E-005	-5.39641E-002	2.22523E-001	3.57390E+000	9	...........
	96	1.29333	2.17987E-001	-8.88311E-005	0.00000E+000	-1.93641E-005	-5.39641E-002	2.18007E-001	3.57390E+000	9	...........
	97	1.30667	2.13496E-001	-8.84654E-005	0.00000E+000	-1.88871E-005	-5.39641E-002	2.13516E-001	3.57390E+000	9	...........
	98	1.32	2.09026E-001	-8.89885E-005	0.00000E+000	-1.86009E-005	-5.39641E-002	2.09045E-001	3.57390E+000	9	...........
	99	1.33333	2.04580E-001	-8.87645E-005	0.00000E+000	-1.81594E-005	-5.39641E-002	2.04605E-001	3.57390E+000	9	...........
	100	1.34667	2.00151E-001	-8.88614E-005	0.00000E+000	-1.77857E-005	-5.39641E-002	2.00177E-001	3.57390E+000	9	...........
	101	1.36	1.95740E-001	-8.86863E-005	0.00000E+000	-1.73594E-005	-5.39641E-002	1.95760E-001	3.57390E+000	9	...........
	102	1.37333	1.91353E-001	-8.88082E-005	0.00000E+000	-1.69937E-005	-5.39641E-002	1.91379E-001	3.57390E+000	9	...........
	103	1.38667	1.86992E-001	-8.87530E-005	0.00000E+000	-1.65961E-005	-5.39641E-002	1.87011E-001	3.57390E+000	9	...........
	104	1.4	1.82644E-001	-8.87572E-005	0.00000E+000	-1.62109E-005	-5.39641E-002	1.82666E-001	3.57390E+000	9	...........
	105	1.41333	1.78319E-001	-8.86634E-005	0.00000E+000	-1.58104E-005	-5.39641E-002	1.78340E-001	3.57390E+000	9	...........
	106	1.42667	1.74014E-001	-8.88124E-005	0.00000E+000	-1.54546E-005	-5.39641E-002	1.74034E-001	3.57390E+000	9	...........
	107	1.44	1.69740E-001	-8.87832E-005	0.00000E+000	-1.50701E-005	-5.39641E-002	1.69762E-001	3.57390E+000	9	...........
	108	1.45333	1.65472E-001	-8.87478E-005	0.00000E+000	-1.46853E-005	-5.39641E-002	1.65492E-001	3.57390E+000	9	...........
	109	1.46667	1.61225E-001	-8.89385E-005	0.00000E+000	-1.43391E-005	-5.39641E-002	1.61239E-001	3.57390E+000	9	...........
	110	1.48	1.56991E-001	-8.88509E-005	0.00000E+000	-1.39488E-005	-5.39641E-002	1.57004E-001	3.57390E+000	9	...........
	111	1.49333	1.52779E-001	-8.87801E-005	0.00000E+000	-1.35637E-005	-5.39641E-002	1.52792E-001	3.57390E+000	9	...........
	112	1.50667	1.48580E-001	-8.88082E-005	0.00000E+000	-1.31952E-005	-5.39641E-002	1.48594E-001	3.57390E+000	9	...........
	113	1.52	1.44419E-001	-8.89124E-005	0.00000E+000	-1.28407E-005	-5.39641E-002	1.44439E-001	3.57390E+000	9	...........
	114	1.53333	1.40272E-001	-8.89489E-005	0.00000E+000	-1.24770E-005	-5.39641E-002	1.40291E-001	3.57390E+000	9	...........
	115	1.54667	1.36150E-001	-8.87978E-005	0.00000E+000	-1.20898E-005	-5.39641E-002	1.36163E-001	3.57390E+000	9	...........
	116	1.56	1.32034E-001	-8.88499E-005	0.00000E+000	-1.17312E-005	-5.39641E-002	1.32044E-001	3.57390E+000	9	...........
	117	1.57333	1.27936E-001	-8.89812E-005	0.00000E+000	-1.13839E-005	-5.39641E-002	1.27947E-001	3.57390E+000	9	...........
	118	1.58667	1.23864E-001	-8.87082E-005	0.00000E+000	-1.09877E-005	-5.39641E-002	1.23875E-001	3.57390E+000	9	...........
	119	1.6	1.19843E-001	-8.87676E-005	0.00000E+000	-1.06381E-005	-5.39641E-002	1.19851E-001	3.57390E+000	9	...........
	120	1.61333	1.15846E-001	-8.86686E-005	0.00000E+000	-1.02719E-005	-5.39641E-002	1.15855E-001	3.57390E+000	9	...........
	121	1.62667	1.11874E-001	-8.90208E-005	0.00000E+000	-9.95909E-006	-5.39641E-002	1.11881E-001	3.57390E+000	9	...........
	122	1.64	1.07910E-001	-8.89405E-005	0.00000E+000	-9.59756E-006	-5.39641E-002	1.07919E-001	3.57390E+000	9	...........
	123	1.65333	1.03956E-001	-8.87280E-005	0.00000E+000	-9.22383E-006	-5.39641E-002	1.03961E-001	3.57390E+000	9	...........
	124	1.66667	1.00010E-001	-8.88124E-005	0.00000E+000	-8.88212E-006	-5.39641E-002	1.00020E-001	3.57371E+000	9	...........
	125	1.68	9.60878E-002	-8.88124E-005	0.00000E+000	-8.53379E-006	-5.39641E-002	9.60937E-002	3.57360E+000	9	...........
	126	1.69333	9.21786E-002	-8.88801E-005	0.00000E+000	-8.19284E-006	-5.39641E-002	9.21884E-002	3.57360E+000	9	...........
	127	1.70667	8.82821E-002	-8.85821E-005	0.00000E+000	-7.82021E-006	-5.39641E-002	8.82932E-002	3.57360E+000	9	...........
	128	1.72	8.44105E-002	-8.86488E-005	0.00000E+000	-7.48289E-006	-5.39641E-002	8.44150E-002	3.57360E+000	9	...........
	129	1.73333	8.05541E-002	-8.89301E-005	0.00000E+000	-7.16369E-006	-5.39641E-002	8.05584E-002	3.57360E+000	9	...........
	130	1.74667	7.67204E-002	-8.89583E-005	0.00000E+000	-6.82491E-006	-5.39641E-002	7.67233E-002	3.57360E+000	9	...........
	131	1.76	7.29071E-002	-8.88259E-005	0.00000E+000	-6.47604E-006	-5.39641E-002	7.29092E-002	3.57360E+000	9	...........
	132	1.77333	6.90975E-002	-8.88332E-005	0.00000E+000	-6.13816E-006	-5.39641E-002	6.90939E-002	3.57360E+000	9	...........
	133	1.78667	6.52976E-002	-8.90968E-005	0.00000E+000	-5.81781E-006	-5.39641E-002	6.52942E-002	3.57360E+000	9	...........
	134	1.8	6.15087E-002	-8.86571E-005	0.00000E+000	-5.45318E-006	-5.39641E-002	6.15066E-002	3.57360E+000	9	...........
	135	1.81333	5.77337E-002	-8.89374E-005	0.00000E+000	-5.13469E-006	-5.39641E-002	5.77381E-002	3.57360E+000	9	...........
	136	1.82667	5.39748E-002	-8.88499E-005	0.00000E+000	-4.79566E-006	-5.39641E-002	5.39722E-002	3.57360E+000	9	...........
	137	1.84	5.02290E-002	-8.87926E-005	0.00000E+000	-4.45997E-006	-5.39641E-002	5.02276E-002	3.57360E+000	9	...........
	138	1.85333	4.65192E-002	-8.85988E-005	0.00000E+000	-4.12155E-006	-5.39641E-002	4.65246E-002	3.57360E+000	9	...........
	139	1.86667	4.28028E-002	-8.87613E-005	0.00000E+000	-3.79923E-006	-5.39641E-002	4.28151E-002	3.57360E+000	9	...........
	140	1.88	3.91155E-002	-8.87728E-005	0.00000E+000	-3.47240E-006	-5.39641E-002	3.91203E-002	3.57360E+000	9	...........
	141	1.89333	3.54418E-002	-8.87124E-005	0.00000E+000	-3.14412E-006	-5.39641E-002	3.54449E-002	3.57360E+000	9	...........
	142	1.90667	3.17889E-002	-8.87509E-005	0.00000E+000	-2.82129E-006	-5.39641E-002	3.17868E-002	3.57360E+000	9	...........
	143	1.92	2.81459E-002	-8.87759E-005	0.00000E+000	-2.49868E-006	-5.39641E-002	2.81457E-002	3.57360E+000	9	...........
	144	1.93333	2.45152E-002	-8.88228E-005	0.00000E+000	-2.17751E-006	-5.39641E-002	2.45147E-002	3.57360E+000	9	...........
	145	1.94667	2.09050E-002	-8.89082E-005	0.00000E+000	-1.85863E-006	-5.39641E-002	2.09027E-002	3.57360E+000	9	...........
	146	1.96	1.73186E-002	-8.87113E-005	0.00000E+000	-1.53635E-006	-5.39641E-002	1.73109E-002	3.57360E+000	9	...........
	147	1.97333	1.37451E-002	-8.87759E-005	0.00000E+000	-1.22023E-006	-5.39641E-002	1.37351E-002	3.57360E+000	9	...........
	148	1.98667	1.01742E-002	-8.89197E-005	0.00000E+000	-9.04691E-007	-5.39641E-002	1.01659E-002	3.57360E+000	9	...........
	149	2	6.62407E-003	-8.90103E-005	0.00000E+000	-5.89610E-007	-5.39641E-002	6.61407E-003	3.57360E+000	9	...........
	150	2.01333	3.09592E-003	-8.88551E-005	0.00000E+000	-2.75088E-007	-5.39641E-002	3.08387E-003	3.57360E+000	9	...........
	151	2.02	4.57019E-004	-8.84790E-005	0.00000E+000	-4.04366E-008	-5.39641E-002	4.45144E-004	3.57360E+000	9	...........
STARTTIMEOFFSET	QUANT	2296.882	Start Time Offset (s)
