EXPLAIN
TAG	PWR800_DISCHARGE
TITLE	LABEL	PWR Cyclic Charge Discharge (Cell) - Discharge Step	Test &Identifier
DATE	LABEL	10-7-2017	Date
TIME	LABEL	15:21:38	Time
NOTES	NOTES	3	&Notes...
	supercap test cell
	0.9mg
	6M KOH
PSTAT	PSTAT	IFC5000-01520	Potentiostat
CAPACITY	QUANT	1.00000E-003	Capacity (A-hr)
CELLTYPE	SELECTOR	1	&Cell Type
WORKINGCONNECTION	SELECTOR	0	&Working Lead
MAXDISCHARGETIME	VARIABLEANDUNITS	1.00000E+002	s	1.00000E+002	second(s)	Max &Discharge Time
DISCHARGEMODE	MULTIPARAM	0	9.00000E-005	&Discharge Mode	Constant Current	Amp(s)
SAMPLETIME	QUANT	1.00000E-002	Sa&mple Period (s)
DISCHARGESTOPAT1	MULTIPARAM	3	0.00000E+000	Discharge Stop At &1	Voltage < Limit	V
DISCHARGESTOPAT2	MULTIPARAM	0	0.00000E+000	Discharge Stop At &2	None	N/A
AESBHCSELECTOR	TOGGLE	F	Save Both Half Cells
IRCOMP	TOGGLE	F	IR &Measure
EOC	QUANT	0	Open Circuit (V)
SEQUENCER	TOGGLE	TRUE	Run as Sequence
PSTATMODEL	IQUANT	53	Pstat Model
PSTATSECTION	LABEL	IFC5000-01520	Pstat Section
PSTATSERIALNO	LABEL	01520	Pstat Serial Number
CTRLMODE	IQUANT	0	Control Mode
ELECTROMETER	IQUANT	1	RE=0 or CS=1
IESTAB	IQUANT	0	I/E Stability
CASPEED	IQUANT	4	Control Amp Speed
CONVENTION	IQUANT	1	Current Convention
ICHRANGE	IQUANT	2	Ich Range
ICHRANGEMODE	TOGGLE	T	Ich Auto Range
ICHOFFSETENABLE	TOGGLE	F	Ich Offset Enable
ICHOFFSET	QUANT	0	Ich Offset (V)
ICHFILTER	IQUANT	1	Ich Filter
VCHRANGE	IQUANT	2	Vch Range
VCHRANGEMODE	TOGGLE	T	Vch Auto Range
VCHOFFSETENABLE	TOGGLE	F	Vch Offset Enable
VCHOFFSET	QUANT	0	Vch Offset (V)
VCHFILTER	IQUANT	1	Vch Filter
IERANGELOWERLIMIT	IQUANT	9	I/E Range Lower Limit
IERANGEMODE	TOGGLE	F	I/E AutoRange
IERANGE	IQUANT	9	I/E Range
ACHSELECT	IQUANT	1	Ach Select
ACHRANGE	IQUANT	2	Ach Range
ACHOFFSETENABLE	TOGGLE	F	Ach Offset Enable
ACHOFFSET	QUANT	0	Ach Offset (V)
ACHFILTER	IQUANT	1	Ach Filter
CABLEID	IQUANT	14	Cable ID
DCCALDATE	LABEL	5-7-2017	DC Calibration Date
ACCALDATE	LABEL	12/3/2015	AC Calibration Date
FRAMEWORKVERSION	QUANT	7.01	Framework Version
INSTRUMENTVERSION	LABEL	4.00	Instrument Version
CURVE	TABLE	158
	Pt	T	Vf	Im	Vu	Pwr	Sig	Ach	Temp	IERange	Over
	#	s	V	A	V	W	V	V	deg C	#	bits
	0	0.013333	8.22597E-001	-8.86967E-005	0.00000E+000	-7.29616E-005	-5.39641E-002	8.22762E-001	3.57210E+000	9	...........
	1	0.026667	8.09882E-001	-8.85102E-005	0.00000E+000	-7.16829E-005	-5.39641E-002	8.10031E-001	3.57210E+000	9	...........
	2	0.04	7.97989E-001	-8.86832E-005	0.00000E+000	-7.07682E-005	-5.39641E-002	7.98141E-001	3.57210E+000	9	...........
	3	0.053333	7.86658E-001	-8.89239E-005	0.00000E+000	-6.99527E-005	-5.39641E-002	7.86771E-001	3.57210E+000	9	...........
	4	0.066667	7.75842E-001	-8.86519E-005	0.00000E+000	-6.87799E-005	-5.39641E-002	7.75959E-001	3.57210E+000	9	...........
	5	0.08	7.65499E-001	-8.85602E-005	0.00000E+000	-6.77928E-005	-5.39641E-002	7.65594E-001	3.57210E+000	9	...........
	6	0.093333	7.55521E-001	-8.86259E-005	0.00000E+000	-6.69587E-005	-5.39641E-002	7.55614E-001	3.57210E+000	9	...........
	7	0.106667	7.45885E-001	-8.83487E-005	0.00000E+000	-6.58980E-005	-5.39641E-002	7.45985E-001	3.57210E+000	9	...........
	8	0.12	7.36536E-001	-8.86832E-005	0.00000E+000	-6.53184E-005	-5.39641E-002	7.36624E-001	3.57210E+000	9	...........
	9	0.133333	7.27500E-001	-8.89009E-005	0.00000E+000	-6.46755E-005	-5.39641E-002	7.27576E-001	3.57210E+000	9	...........
	10	0.146667	7.18685E-001	-8.87718E-005	0.00000E+000	-6.37989E-005	-5.39641E-002	7.18766E-001	3.57210E+000	9	...........
	11	0.16	7.10053E-001	-8.86915E-005	0.00000E+000	-6.29756E-005	-5.39641E-002	7.10150E-001	3.57210E+000	9	...........
	12	0.173333	7.01692E-001	-8.89457E-005	0.00000E+000	-6.24125E-005	-5.39641E-002	7.01793E-001	3.57210E+000	9	...........
	13	0.186667	6.93511E-001	-8.85800E-005	0.00000E+000	-6.14313E-005	-5.39641E-002	6.93612E-001	3.57210E+000	9	...........
	14	0.2	6.85497E-001	-8.87905E-005	0.00000E+000	-6.08657E-005	-5.39641E-002	6.85600E-001	3.57210E+000	9	...........
	15	0.213333	6.77703E-001	-8.89353E-005	0.00000E+000	-6.02717E-005	-5.39641E-002	6.77760E-001	3.57210E+000	9	...........
	16	0.226667	6.70065E-001	-8.85863E-005	0.00000E+000	-5.93586E-005	-5.39641E-002	6.70127E-001	3.57210E+000	9	...........
	17	0.24	6.62523E-001	-8.87717E-005	0.00000E+000	-5.88133E-005	-5.39641E-002	6.62623E-001	3.57210E+000	9	...........
	18	0.253333	6.55161E-001	-8.89176E-005	0.00000E+000	-5.82554E-005	-5.39641E-002	6.55249E-001	3.57210E+000	9	...........
	19	0.266667	6.47923E-001	-8.86717E-005	0.00000E+000	-5.74525E-005	-5.39641E-002	6.48002E-001	3.57210E+000	9	...........
	20	0.28	6.40822E-001	-8.87488E-005	0.00000E+000	-5.68722E-005	-5.39641E-002	6.40898E-001	3.57210E+000	9	...........
	21	0.293333	6.33818E-001	-8.85550E-005	0.00000E+000	-5.61278E-005	-5.39641E-002	6.33914E-001	3.57210E+000	9	...........
	22	0.306667	6.26936E-001	-8.87019E-005	0.00000E+000	-5.56104E-005	-5.39641E-002	6.27041E-001	3.57210E+000	9	...........
	23	0.32	6.20179E-001	-8.86301E-005	0.00000E+000	-5.49665E-005	-5.39641E-002	6.20269E-001	3.57209E+000	9	...........
	24	0.333333	6.13487E-001	-8.88603E-005	0.00000E+000	-5.45146E-005	-5.39641E-002	6.13597E-001	3.57200E+000	9	...........
	25	0.346667	6.06859E-001	-8.88759E-005	0.00000E+000	-5.39352E-005	-5.39641E-002	6.07010E-001	3.57200E+000	9	...........
	26	0.36	6.00400E-001	-8.90666E-005	0.00000E+000	-5.34756E-005	-5.39641E-002	6.00516E-001	3.57200E+000	9	...........
	27	0.373333	5.93968E-001	-8.88041E-005	0.00000E+000	-5.27468E-005	-5.39641E-002	5.94102E-001	3.57200E+000	9	...........
	28	0.386667	5.87621E-001	-8.86280E-005	0.00000E+000	-5.20797E-005	-5.39641E-002	5.87747E-001	3.57200E+000	9	...........
	29	0.4	5.81355E-001	-8.87259E-005	0.00000E+000	-5.15813E-005	-5.39641E-002	5.81476E-001	3.57200E+000	9	...........
	30	0.413333	5.75180E-001	-8.87384E-005	0.00000E+000	-5.10406E-005	-5.39641E-002	5.75263E-001	3.57200E+000	9	...........
	31	0.426667	5.69043E-001	-8.86426E-005	0.00000E+000	-5.04414E-005	-5.39641E-002	5.69131E-001	3.57200E+000	9	...........
	32	0.44	5.62962E-001	-8.89833E-005	0.00000E+000	-5.00942E-005	-5.39641E-002	5.63077E-001	3.57200E+000	9	...........
	33	0.453333	5.56940E-001	-8.89437E-005	0.00000E+000	-4.95363E-005	-5.39641E-002	5.57050E-001	3.57200E+000	9	...........
	34	0.466667	5.51008E-001	-8.86551E-005	0.00000E+000	-4.88496E-005	-5.39641E-002	5.51107E-001	3.57200E+000	9	...........
	35	0.48	5.45114E-001	-8.87551E-005	0.00000E+000	-4.83817E-005	-5.39641E-002	5.45204E-001	3.57200E+000	9	...........
	36	0.493333	5.39304E-001	-8.86801E-005	0.00000E+000	-4.78256E-005	-5.39641E-002	5.39391E-001	3.57200E+000	9	...........
	37	0.506667	5.33474E-001	-8.86790E-005	0.00000E+000	-4.73079E-005	-5.39641E-002	5.33577E-001	3.57200E+000	9	...........
	38	0.52	5.27724E-001	-8.86582E-005	0.00000E+000	-4.67870E-005	-5.39641E-002	5.27821E-001	3.57200E+000	9	...........
	39	0.533333	5.22016E-001	-8.87790E-005	0.00000E+000	-4.63440E-005	-5.39641E-002	5.22105E-001	3.57200E+000	9	...........
	40	0.546667	5.16341E-001	-8.89249E-005	0.00000E+000	-4.59156E-005	-5.39641E-002	5.16425E-001	3.57200E+000	9	...........
	41	0.56	5.10691E-001	-8.87613E-005	0.00000E+000	-4.53297E-005	-5.39641E-002	5.10760E-001	3.57200E+000	9	...........
	42	0.573333	5.05063E-001	-8.85634E-005	0.00000E+000	-4.47301E-005	-5.39641E-002	5.05161E-001	3.57200E+000	9	...........
	43	0.586667	4.99521E-001	-8.86478E-005	0.00000E+000	-4.42814E-005	-5.39641E-002	4.99590E-001	3.57200E+000	9	...........
	44	0.6	4.94003E-001	-8.88614E-005	0.00000E+000	-4.38978E-005	-5.39641E-002	4.94090E-001	3.57200E+000	9	...........
	45	0.613333	4.88561E-001	-8.86759E-005	0.00000E+000	-4.33236E-005	-5.39641E-002	4.88635E-001	3.57200E+000	9	...........
	46	0.626667	4.83143E-001	-8.85852E-005	0.00000E+000	-4.27993E-005	-5.39641E-002	4.83202E-001	3.57200E+000	9	...........
	47	0.64	4.77700E-001	-8.88551E-005	0.00000E+000	-4.24461E-005	-5.39641E-002	4.77758E-001	3.57200E+000	9	...........
	48	0.653333	4.72301E-001	-8.86822E-005	0.00000E+000	-4.18847E-005	-5.39641E-002	4.72359E-001	3.57200E+000	9	...........
	49	0.666667	4.66927E-001	-8.87134E-005	0.00000E+000	-4.14227E-005	-5.39641E-002	4.66977E-001	3.57200E+000	9	...........
	50	0.68	4.61563E-001	-8.86759E-005	0.00000E+000	-4.09295E-005	-5.39641E-002	4.61619E-001	3.57200E+000	9	...........
	51	0.693333	4.56238E-001	-8.87217E-005	0.00000E+000	-4.04783E-005	-5.39641E-002	4.56293E-001	3.57200E+000	9	...........
	52	0.706667	4.50910E-001	-8.86134E-005	0.00000E+000	-3.99567E-005	-5.39641E-002	4.50972E-001	3.57200E+000	9	...........
	53	0.72	4.45626E-001	-8.86519E-005	0.00000E+000	-3.95056E-005	-5.39641E-002	4.45678E-001	3.57200E+000	9	...........
	54	0.733333	4.40372E-001	-8.87447E-005	0.00000E+000	-3.90807E-005	-5.39641E-002	4.40427E-001	3.57200E+000	9	...........
	55	0.746667	4.35139E-001	-8.87665E-005	0.00000E+000	-3.86258E-005	-5.39641E-002	4.35197E-001	3.57200E+000	9	...........
	56	0.76	4.29907E-001	-8.86269E-005	0.00000E+000	-3.81013E-005	-5.39641E-002	4.29959E-001	3.57200E+000	9	...........
	57	0.773333	4.24704E-001	-8.87728E-005	0.00000E+000	-3.77022E-005	-5.39641E-002	4.24754E-001	3.57200E+000	9	...........
	58	0.786667	4.19511E-001	-8.88686E-005	0.00000E+000	-3.72814E-005	-5.39641E-002	4.19563E-001	3.57200E+000	9	...........
	59	0.8	4.14341E-001	-8.83842E-005	0.00000E+000	-3.66212E-005	-5.39641E-002	4.14386E-001	3.57200E+000	9	...........
	60	0.813333	4.09198E-001	-8.85530E-005	0.00000E+000	-3.62357E-005	-5.39641E-002	4.09244E-001	3.57200E+000	9	...........
	61	0.826667	4.04074E-001	-8.87770E-005	0.00000E+000	-3.58725E-005	-5.39641E-002	4.04115E-001	3.57200E+000	9	...........
	62	0.84	3.98969E-001	-8.87499E-005	0.00000E+000	-3.54084E-005	-5.39641E-002	3.99014E-001	3.57200E+000	9	...........
	63	0.853333	3.93876E-001	-8.86228E-005	0.00000E+000	-3.49064E-005	-5.39641E-002	3.93921E-001	3.57200E+000	9	...........
	64	0.866667	3.88801E-001	-8.87228E-005	0.00000E+000	-3.44955E-005	-5.39641E-002	3.88842E-001	3.57200E+000	9	...........
	65	0.88	3.83743E-001	-8.85998E-005	0.00000E+000	-3.39996E-005	-5.39641E-002	3.83788E-001	3.57200E+000	9	...........
	66	0.893333	3.78708E-001	-8.86978E-005	0.00000E+000	-3.35906E-005	-5.39641E-002	3.78748E-001	3.57200E+000	9	...........
	67	0.906667	3.73685E-001	-8.87613E-005	0.00000E+000	-3.31688E-005	-5.39641E-002	3.73726E-001	3.57200E+000	9	...........
	68	0.92	3.68685E-001	-8.88416E-005	0.00000E+000	-3.27546E-005	-5.39641E-002	3.68725E-001	3.57200E+000	9	...........
	69	0.933333	3.63696E-001	-8.83935E-005	0.00000E+000	-3.21484E-005	-5.39641E-002	3.63743E-001	3.57200E+000	9	...........
	70	0.946667	3.58735E-001	-8.90020E-005	0.00000E+000	-3.19281E-005	-5.39641E-002	3.58777E-001	3.57200E+000	9	...........
	71	0.96	3.53807E-001	-8.87790E-005	0.00000E+000	-3.14107E-005	-5.39641E-002	3.53847E-001	3.57200E+000	9	...........
	72	0.97333	3.48884E-001	-8.87311E-005	0.00000E+000	-3.09569E-005	-5.39641E-002	3.48918E-001	3.57200E+000	9	...........
	73	0.98667	3.43979E-001	-8.89895E-005	0.00000E+000	-3.06105E-005	-5.39641E-002	3.44016E-001	3.57200E+000	9	...........
	74	1	3.39074E-001	-8.87322E-005	0.00000E+000	-3.00868E-005	-5.39641E-002	3.39115E-001	3.57200E+000	9	...........
	75	1.01333	3.34196E-001	-8.88791E-005	0.00000E+000	-2.97030E-005	-5.39641E-002	3.34230E-001	3.57200E+000	9	...........
	76	1.02667	3.29339E-001	-8.85811E-005	0.00000E+000	-2.91732E-005	-5.39641E-002	3.29374E-001	3.57200E+000	9	...........
	77	1.04	3.24507E-001	-8.88457E-005	0.00000E+000	-2.88311E-005	-5.39641E-002	3.24545E-001	3.57200E+000	9	...........
	78	1.05333	3.19677E-001	-8.85154E-005	0.00000E+000	-2.82964E-005	-5.39641E-002	3.19717E-001	3.57200E+000	9	...........
	79	1.06667	3.14884E-001	-8.87613E-005	0.00000E+000	-2.79495E-005	-5.39641E-002	3.14917E-001	3.57200E+000	9	...........
	80	1.08	3.10103E-001	-8.86759E-005	0.00000E+000	-2.74986E-005	-5.39641E-002	3.10142E-001	3.57200E+000	9	...........
	81	1.09333	3.05355E-001	-8.87770E-005	0.00000E+000	-2.71085E-005	-5.39641E-002	3.05392E-001	3.57200E+000	9	...........
	82	1.10667	3.00629E-001	-8.88072E-005	0.00000E+000	-2.66980E-005	-5.39641E-002	3.00664E-001	3.57200E+000	9	...........
	83	1.12	2.95907E-001	-8.86530E-005	0.00000E+000	-2.62331E-005	-5.39641E-002	2.95943E-001	3.57200E+000	9	...........
	84	1.13333	2.91216E-001	-8.87655E-005	0.00000E+000	-2.58500E-005	-5.39641E-002	2.91244E-001	3.57200E+000	9	...........
	85	1.14667	2.86544E-001	-8.87322E-005	0.00000E+000	-2.54257E-005	-5.39641E-002	2.86583E-001	3.57200E+000	9	...........
	86	1.16	2.81898E-001	-8.85946E-005	0.00000E+000	-2.49747E-005	-5.39641E-002	2.81930E-001	3.57200E+000	9	...........
	87	1.17333	2.77252E-001	-8.84717E-005	0.00000E+000	-2.45290E-005	-5.39641E-002	2.77292E-001	3.57200E+000	9	...........
	88	1.18667	2.72634E-001	-8.87697E-005	0.00000E+000	-2.42016E-005	-5.39641E-002	2.72664E-001	3.57200E+000	9	...........
	89	1.2	2.68032E-001	-8.88416E-005	0.00000E+000	-2.38124E-005	-5.39641E-002	2.68069E-001	3.57200E+000	9	...........
	90	1.21333	2.63461E-001	-8.87843E-005	0.00000E+000	-2.33912E-005	-5.39641E-002	2.63494E-001	3.57200E+000	9	...........
	91	1.22667	2.58899E-001	-8.87103E-005	0.00000E+000	-2.29670E-005	-5.39641E-002	2.58931E-001	3.57200E+000	9	...........
	92	1.24	2.54372E-001	-8.86613E-005	0.00000E+000	-2.25529E-005	-5.39641E-002	2.54406E-001	3.57200E+000	9	...........
	93	1.25333	2.49867E-001	-8.86842E-005	0.00000E+000	-2.21593E-005	-5.39641E-002	2.49895E-001	3.57200E+000	9	...........
	94	1.26667	2.45381E-001	-8.86186E-005	0.00000E+000	-2.17453E-005	-5.39641E-002	2.45408E-001	3.57200E+000	9	...........
	95	1.28	2.40916E-001	-8.87051E-005	0.00000E+000	-2.13705E-005	-5.39641E-002	2.40944E-001	3.57200E+000	9	...........
	96	1.29333	2.36483E-001	-8.87155E-005	0.00000E+000	-2.09797E-005	-5.39641E-002	2.36507E-001	3.57200E+000	9	...........
	97	1.30667	2.32055E-001	-8.85905E-005	0.00000E+000	-2.05579E-005	-5.39641E-002	2.32082E-001	3.57200E+000	9	...........
	98	1.32	2.27638E-001	-8.86384E-005	0.00000E+000	-2.01775E-005	-5.39641E-002	2.27665E-001	3.57201E+000	9	...........
	99	1.33333	2.23243E-001	-8.89958E-005	0.00000E+000	-1.98677E-005	-5.39641E-002	2.23270E-001	3.57210E+000	9	...........
	100	1.34667	2.18878E-001	-8.86415E-005	0.00000E+000	-1.94017E-005	-5.39641E-002	2.18907E-001	3.57210E+000	9	...........
	101	1.36	2.14535E-001	-8.88614E-005	0.00000E+000	-1.90639E-005	-5.39641E-002	2.14561E-001	3.57210E+000	9	...........
	102	1.37333	2.10222E-001	-8.86488E-005	0.00000E+000	-1.86359E-005	-5.39641E-002	2.10242E-001	3.57210E+000	9	...........
	103	1.38667	2.05928E-001	-8.85790E-005	0.00000E+000	-1.82409E-005	-5.39641E-002	2.05950E-001	3.57210E+000	9	...........
	104	1.4	2.01633E-001	-8.87926E-005	0.00000E+000	-1.79035E-005	-5.39641E-002	2.01657E-001	3.57210E+000	9	...........
	105	1.41333	1.97366E-001	-8.89530E-005	0.00000E+000	-1.75563E-005	-5.39641E-002	1.97384E-001	3.57210E+000	9	...........
	106	1.42667	1.93120E-001	-8.86947E-005	0.00000E+000	-1.71287E-005	-5.39641E-002	1.93137E-001	3.57210E+000	9	...........
	107	1.44	1.88902E-001	-8.87259E-005	0.00000E+000	-1.67605E-005	-5.39641E-002	1.88923E-001	3.57210E+000	9	...........
	108	1.45333	1.84700E-001	-8.88853E-005	0.00000E+000	-1.64172E-005	-5.39641E-002	1.84719E-001	3.57210E+000	9	...........
	109	1.46667	1.80491E-001	-8.88457E-005	0.00000E+000	-1.60358E-005	-5.39641E-002	1.80511E-001	3.57210E+000	9	...........
	110	1.48	1.76313E-001	-8.87228E-005	0.00000E+000	-1.56430E-005	-5.39641E-002	1.76329E-001	3.57210E+000	9	...........
	111	1.49333	1.72146E-001	-8.86957E-005	0.00000E+000	-1.52686E-005	-5.39641E-002	1.72169E-001	3.57210E+000	9	...........
	112	1.50667	1.68008E-001	-8.85894E-005	0.00000E+000	-1.48838E-005	-5.39641E-002	1.68028E-001	3.57210E+000	9	...........
	113	1.52	1.63899E-001	-8.87790E-005	0.00000E+000	-1.45508E-005	-5.39641E-002	1.63919E-001	3.57210E+000	9	...........
	114	1.53333	1.59817E-001	-8.85602E-005	0.00000E+000	-1.41535E-005	-5.39641E-002	1.59834E-001	3.57210E+000	9	...........
	115	1.54667	1.55737E-001	-8.89343E-005	0.00000E+000	-1.38503E-005	-5.39641E-002	1.55750E-001	3.57210E+000	9	...........
	116	1.56	1.51673E-001	-8.89228E-005	0.00000E+000	-1.34872E-005	-5.39641E-002	1.51686E-001	3.57210E+000	9	...........
	117	1.57333	1.47627E-001	-8.86759E-005	0.00000E+000	-1.30910E-005	-5.39641E-002	1.47637E-001	3.57210E+000	9	...........
	118	1.58667	1.43590E-001	-8.88770E-005	0.00000E+000	-1.27619E-005	-5.39641E-002	1.43604E-001	3.57210E+000	9	...........
	119	1.6	1.39563E-001	-8.88176E-005	0.00000E+000	-1.23956E-005	-5.39641E-002	1.39580E-001	3.57210E+000	9	...........
	120	1.61333	1.35553E-001	-8.86644E-005	0.00000E+000	-1.20188E-005	-5.39641E-002	1.35563E-001	3.57210E+000	9	...........
	121	1.62667	1.31566E-001	-8.87269E-005	0.00000E+000	-1.16735E-005	-5.39641E-002	1.31578E-001	3.57210E+000	9	...........
	122	1.64	1.27621E-001	-8.85623E-005	0.00000E+000	-1.13024E-005	-5.39641E-002	1.27626E-001	3.57210E+000	9	...........
	123	1.65333	1.23673E-001	-8.86394E-005	0.00000E+000	-1.09623E-005	-5.39641E-002	1.23683E-001	3.57210E+000	9	...........
	124	1.66667	1.19725E-001	-8.87655E-005	0.00000E+000	-1.06274E-005	-5.39641E-002	1.19734E-001	3.57210E+000	9	...........
	125	1.68	1.15805E-001	-8.87936E-005	0.00000E+000	-1.02828E-005	-5.39641E-002	1.15812E-001	3.57210E+000	9	...........
	126	1.69333	1.11911E-001	-8.88541E-005	0.00000E+000	-9.94379E-006	-5.39641E-002	1.11922E-001	3.57210E+000	9	...........
	127	1.70667	1.08038E-001	-8.85457E-005	0.00000E+000	-9.56625E-006	-5.39641E-002	1.08050E-001	3.57210E+000	9	...........
	128	1.72	1.04173E-001	-8.86738E-005	0.00000E+000	-9.23741E-006	-5.39641E-002	1.04184E-001	3.57210E+000	9	...........
	129	1.73333	1.00306E-001	-8.88134E-005	0.00000E+000	-8.90848E-006	-5.39641E-002	1.00316E-001	3.57210E+000	9	...........
	130	1.74667	9.64623E-002	-8.87030E-005	0.00000E+000	-8.55650E-006	-5.39641E-002	9.64664E-002	3.57210E+000	9	...........
	131	1.76	9.26314E-002	-8.88155E-005	0.00000E+000	-8.22710E-006	-5.39641E-002	9.26334E-002	3.57210E+000	9	...........
	132	1.77333	8.88140E-002	-8.84738E-005	0.00000E+000	-7.85771E-006	-5.39641E-002	8.88208E-002	3.57210E+000	9	...........
	133	1.78667	8.50281E-002	-8.86978E-005	0.00000E+000	-7.54181E-006	-5.39641E-002	8.50272E-002	3.57210E+000	9	...........
	134	1.8	8.12733E-002	-8.86863E-005	0.00000E+000	-7.20783E-006	-5.39641E-002	8.12744E-002	3.57210E+000	9	...........
	135	1.81333	7.75321E-002	-8.84415E-005	0.00000E+000	-6.85705E-006	-5.39641E-002	7.75320E-002	3.57210E+000	9	...........
	136	1.82667	7.37939E-002	-8.87582E-005	0.00000E+000	-6.54982E-006	-5.39641E-002	7.37945E-002	3.57210E+000	9	...........
	137	1.84	7.00748E-002	-8.86311E-005	0.00000E+000	-6.21081E-006	-5.39641E-002	7.00738E-002	3.57210E+000	9	...........
	138	1.85333	6.63734E-002	-8.84404E-005	0.00000E+000	-5.87010E-006	-5.39641E-002	6.63729E-002	3.57210E+000	9	...........
	139	1.86667	6.26856E-002	-8.87280E-005	0.00000E+000	-5.56197E-006	-5.39641E-002	6.26842E-002	3.57210E+000	9	...........
	140	1.88	5.89920E-002	-8.85925E-005	0.00000E+000	-5.22625E-006	-5.39641E-002	5.89919E-002	3.57210E+000	9	...........
	141	1.89333	5.53279E-002	-8.86040E-005	0.00000E+000	-4.90227E-006	-5.39641E-002	5.53204E-002	3.57210E+000	9	...........
	142	1.90667	5.16812E-002	-8.87103E-005	0.00000E+000	-4.58465E-006	-5.39641E-002	5.16766E-002	3.57210E+000	9	...........
	143	1.92	4.80585E-002	-8.87540E-005	0.00000E+000	-4.26539E-006	-5.39641E-002	4.80576E-002	3.57210E+000	9	...........
	144	1.93333	4.44465E-002	-8.87509E-005	0.00000E+000	-3.94467E-006	-5.39641E-002	4.44511E-002	3.57210E+000	9	...........
	145	1.94667	4.08404E-002	-8.87780E-005	0.00000E+000	-3.62573E-006	-5.39641E-002	4.08462E-002	3.57210E+000	9	...........
	146	1.96	3.72502E-002	-8.85644E-005	0.00000E+000	-3.29905E-006	-5.39641E-002	3.72558E-002	3.57210E+000	9	...........
	147	1.97333	3.36711E-002	-8.86915E-005	0.00000E+000	-2.98634E-006	-5.39641E-002	3.36734E-002	3.57210E+000	9	...........
	148	1.98667	3.01148E-002	-8.85905E-005	0.00000E+000	-2.66789E-006	-5.39641E-002	3.01170E-002	3.57210E+000	9	...........
	149	2	2.65576E-002	-8.89239E-005	0.00000E+000	-2.36161E-006	-5.39641E-002	2.65545E-002	3.57210E+000	9	...........
	150	2.01333	2.30145E-002	-8.87718E-005	0.00000E+000	-2.04304E-006	-5.39641E-002	2.30172E-002	3.57210E+000	9	...........
	151	2.02667	1.94914E-002	-8.86603E-005	0.00000E+000	-1.72811E-006	-5.39641E-002	1.94854E-002	3.57210E+000	9	...........
	152	2.04	1.59704E-002	-8.90124E-005	0.00000E+000	-1.42156E-006	-5.39641E-002	1.59647E-002	3.57210E+000	9	...........
	153	2.05333	1.24837E-002	-8.84613E-005	0.00000E+000	-1.10432E-006	-5.39641E-002	1.24760E-002	3.57210E+000	9	...........
	154	2.06667	9.00406E-003	-8.86967E-005	0.00000E+000	-7.98631E-007	-5.39641E-002	8.99477E-003	3.57210E+000	9	...........
	155	2.08	5.55341E-003	-8.86915E-005	0.00000E+000	-4.92540E-007	-5.39641E-002	5.54102E-003	3.57210E+000	9	...........
	156	2.09333	2.12386E-003	-8.84811E-005	0.00000E+000	-1.87921E-007	-5.39641E-002	2.11125E-003	3.57210E+000	9	...........
	157	2.09667	-8.54376E-006	-8.92250E-005	0.00000E+000	7.62317E-010	-5.39641E-002	-2.11173E-005	3.57210E+000	9	...........
STARTTIMEOFFSET	QUANT	1135.005	Start Time Offset (s)
