EXPLAIN
TAG	PWR800_DISCHARGE
TITLE	LABEL	PWR Cyclic Charge Discharge (Cell) - Discharge Step	Test &Identifier
DATE	LABEL	10-7-2017	Date
TIME	LABEL	15:38:58	Time
NOTES	NOTES	3	&Notes...
	supercap test cell
	0.9mg
	6M KOH
PSTAT	PSTAT	IFC5000-01520	Potentiostat
CAPACITY	QUANT	1.00000E-003	Capacity (A-hr)
CELLTYPE	SELECTOR	1	&Cell Type
WORKINGCONNECTION	SELECTOR	0	&Working Lead
MAXDISCHARGETIME	VARIABLEANDUNITS	1.00000E+002	s	1.00000E+002	second(s)	Max &Discharge Time
DISCHARGEMODE	MULTIPARAM	0	9.00000E-005	&Discharge Mode	Constant Current	Amp(s)
SAMPLETIME	QUANT	1.00000E-002	Sa&mple Period (s)
DISCHARGESTOPAT1	MULTIPARAM	3	0.00000E+000	Discharge Stop At &1	Voltage < Limit	V
DISCHARGESTOPAT2	MULTIPARAM	0	0.00000E+000	Discharge Stop At &2	None	N/A
AESBHCSELECTOR	TOGGLE	F	Save Both Half Cells
IRCOMP	TOGGLE	F	IR &Measure
EOC	QUANT	0	Open Circuit (V)
SEQUENCER	TOGGLE	TRUE	Run as Sequence
PSTATMODEL	IQUANT	53	Pstat Model
PSTATSECTION	LABEL	IFC5000-01520	Pstat Section
PSTATSERIALNO	LABEL	01520	Pstat Serial Number
CTRLMODE	IQUANT	0	Control Mode
ELECTROMETER	IQUANT	1	RE=0 or CS=1
IESTAB	IQUANT	0	I/E Stability
CASPEED	IQUANT	4	Control Amp Speed
CONVENTION	IQUANT	1	Current Convention
ICHRANGE	IQUANT	2	Ich Range
ICHRANGEMODE	TOGGLE	T	Ich Auto Range
ICHOFFSETENABLE	TOGGLE	F	Ich Offset Enable
ICHOFFSET	QUANT	0	Ich Offset (V)
ICHFILTER	IQUANT	1	Ich Filter
VCHRANGE	IQUANT	2	Vch Range
VCHRANGEMODE	TOGGLE	T	Vch Auto Range
VCHOFFSETENABLE	TOGGLE	F	Vch Offset Enable
VCHOFFSET	QUANT	0	Vch Offset (V)
VCHFILTER	IQUANT	1	Vch Filter
IERANGELOWERLIMIT	IQUANT	9	I/E Range Lower Limit
IERANGEMODE	TOGGLE	F	I/E AutoRange
IERANGE	IQUANT	9	I/E Range
ACHSELECT	IQUANT	1	Ach Select
ACHRANGE	IQUANT	2	Ach Range
ACHOFFSETENABLE	TOGGLE	F	Ach Offset Enable
ACHOFFSET	QUANT	0	Ach Offset (V)
ACHFILTER	IQUANT	1	Ach Filter
CABLEID	IQUANT	14	Cable ID
DCCALDATE	LABEL	5-7-2017	DC Calibration Date
ACCALDATE	LABEL	12/3/2015	AC Calibration Date
FRAMEWORKVERSION	QUANT	7.01	Framework Version
INSTRUMENTVERSION	LABEL	4.00	Instrument Version
CURVE	TABLE	154
	Pt	T	Vf	Im	Vu	Pwr	Sig	Ach	Temp	IERange	Over
	#	s	V	A	V	W	V	V	deg C	#	bits
	0	0.013333	8.14024E-001	-8.87155E-005	0.00000E+000	-7.22165E-005	-5.39641E-002	8.14218E-001	3.57250E+000	9	...........
	1	0.026667	8.00661E-001	-8.88093E-005	0.00000E+000	-7.11061E-005	-5.39641E-002	8.00796E-001	3.57250E+000	9	...........
	2	0.04	7.88098E-001	-8.89551E-005	0.00000E+000	-7.01053E-005	-5.39641E-002	7.88256E-001	3.57250E+000	9	...........
	3	0.053333	7.76262E-001	-8.87790E-005	0.00000E+000	-6.89158E-005	-5.39641E-002	7.76434E-001	3.57250E+000	9	...........
	4	0.066667	7.64973E-001	-8.87988E-005	0.00000E+000	-6.79287E-005	-5.39641E-002	7.65139E-001	3.57250E+000	9	...........
	5	0.08	7.54186E-001	-8.87426E-005	0.00000E+000	-6.69284E-005	-5.39641E-002	7.54336E-001	3.57250E+000	9	...........
	6	0.093333	7.43841E-001	-8.88374E-005	0.00000E+000	-6.60809E-005	-5.39641E-002	7.43986E-001	3.57250E+000	9	...........
	7	0.106667	7.33840E-001	-8.86186E-005	0.00000E+000	-6.50319E-005	-5.39641E-002	7.34009E-001	3.57250E+000	9	...........
	8	0.12	7.24215E-001	-8.86457E-005	0.00000E+000	-6.41986E-005	-5.39641E-002	7.24369E-001	3.57250E+000	9	...........
	9	0.133333	7.14834E-001	-8.87936E-005	0.00000E+000	-6.34727E-005	-5.39641E-002	7.15029E-001	3.57250E+000	9	...........
	10	0.146667	7.05755E-001	-8.86123E-005	0.00000E+000	-6.25386E-005	-5.39641E-002	7.05930E-001	3.57250E+000	9	...........
	11	0.16	6.96970E-001	-8.89499E-005	0.00000E+000	-6.19954E-005	-5.39641E-002	6.97105E-001	3.57250E+000	9	...........
	12	0.173333	6.88370E-001	-8.89447E-005	0.00000E+000	-6.12268E-005	-5.39641E-002	6.88537E-001	3.57250E+000	9	...........
	13	0.186667	6.80013E-001	-8.86269E-005	0.00000E+000	-6.02674E-005	-5.39641E-002	6.80164E-001	3.57250E+000	9	...........
	14	0.2	6.71872E-001	-8.88030E-005	0.00000E+000	-5.96643E-005	-5.39641E-002	6.71989E-001	3.57250E+000	9	...........
	15	0.213333	6.63853E-001	-8.88832E-005	0.00000E+000	-5.90054E-005	-5.39641E-002	6.63992E-001	3.57250E+000	9	...........
	16	0.226667	6.56080E-001	-8.90416E-005	0.00000E+000	-5.84184E-005	-5.39641E-002	6.56175E-001	3.57250E+000	9	...........
	17	0.24	6.48417E-001	-8.86884E-005	0.00000E+000	-5.75071E-005	-5.39641E-002	6.48551E-001	3.57250E+000	9	...........
	18	0.253333	6.40960E-001	-8.90041E-005	0.00000E+000	-5.70480E-005	-5.39641E-002	6.41051E-001	3.57250E+000	9	...........
	19	0.266667	6.33607E-001	-8.87197E-005	0.00000E+000	-5.62134E-005	-5.39641E-002	6.33702E-001	3.57250E+000	9	...........
	20	0.28	6.26424E-001	-8.87155E-005	0.00000E+000	-5.55735E-005	-5.39641E-002	6.26511E-001	3.57250E+000	9	...........
	21	0.293333	6.19354E-001	-8.88311E-005	0.00000E+000	-5.50179E-005	-5.39641E-002	6.19444E-001	3.57250E+000	9	...........
	22	0.306667	6.12339E-001	-8.87374E-005	0.00000E+000	-5.43373E-005	-5.39641E-002	6.12491E-001	3.57250E+000	9	...........
	23	0.32	6.05485E-001	-8.88884E-005	0.00000E+000	-5.38206E-005	-5.39641E-002	6.05621E-001	3.57250E+000	9	...........
	24	0.333333	5.98759E-001	-8.87968E-005	0.00000E+000	-5.31679E-005	-5.39641E-002	5.98892E-001	3.57250E+000	9	...........
	25	0.346667	5.92144E-001	-8.88259E-005	0.00000E+000	-5.25977E-005	-5.39641E-002	5.92266E-001	3.57250E+000	9	...........
	26	0.36	5.85577E-001	-8.89510E-005	0.00000E+000	-5.20876E-005	-5.39641E-002	5.85708E-001	3.57250E+000	9	...........
	27	0.373333	5.79135E-001	-8.86988E-005	0.00000E+000	-5.13686E-005	-5.39641E-002	5.79262E-001	3.57250E+000	9	...........
	28	0.386667	5.72769E-001	-8.88270E-005	0.00000E+000	-5.08774E-005	-5.39641E-002	5.72852E-001	3.57250E+000	9	...........
	29	0.4	5.66493E-001	-8.88426E-005	0.00000E+000	-5.03287E-005	-5.39641E-002	5.66602E-001	3.57250E+000	9	...........
	30	0.413333	5.60217E-001	-8.86207E-005	0.00000E+000	-4.96468E-005	-5.39641E-002	5.60369E-001	3.57250E+000	9	...........
	31	0.426667	5.54086E-001	-8.88238E-005	0.00000E+000	-4.92161E-005	-5.39641E-002	5.54206E-001	3.57250E+000	9	...........
	32	0.44	5.48040E-001	-8.89082E-005	0.00000E+000	-4.87253E-005	-5.39641E-002	5.48154E-001	3.57250E+000	9	...........
	33	0.453333	5.42014E-001	-8.87447E-005	0.00000E+000	-4.81009E-005	-5.39641E-002	5.42150E-001	3.57250E+000	9	...........
	34	0.466667	5.36045E-001	-8.89833E-005	0.00000E+000	-4.76990E-005	-5.39641E-002	5.36189E-001	3.57250E+000	9	...........
	35	0.48	5.30137E-001	-8.89603E-005	0.00000E+000	-4.71612E-005	-5.39641E-002	5.30262E-001	3.57250E+000	9	...........
	36	0.493333	5.24305E-001	-8.86592E-005	0.00000E+000	-4.64845E-005	-5.39641E-002	5.24424E-001	3.57250E+000	9	...........
	37	0.506667	5.18508E-001	-8.86988E-005	0.00000E+000	-4.59910E-005	-5.39641E-002	5.18637E-001	3.57250E+000	9	...........
	38	0.52	5.12782E-001	-8.85946E-005	0.00000E+000	-4.54297E-005	-5.39641E-002	5.12893E-001	3.57250E+000	9	...........
	39	0.533333	5.07054E-001	-8.88811E-005	0.00000E+000	-4.50675E-005	-5.39641E-002	5.07203E-001	3.57250E+000	9	...........
	40	0.546667	5.01392E-001	-8.85550E-005	0.00000E+000	-4.44008E-005	-5.39641E-002	5.01541E-001	3.57250E+000	9	...........
	41	0.56	4.95817E-001	-8.88134E-005	0.00000E+000	-4.40352E-005	-5.39641E-002	4.95943E-001	3.57250E+000	9	...........
	42	0.573333	4.90270E-001	-8.86842E-005	0.00000E+000	-4.34792E-005	-5.39641E-002	4.90383E-001	3.57250E+000	9	...........
	43	0.586667	4.84808E-001	-8.87280E-005	0.00000E+000	-4.30161E-005	-5.39641E-002	4.84900E-001	3.57250E+000	9	...........
	44	0.6	4.79402E-001	-8.89291E-005	0.00000E+000	-4.26328E-005	-5.39641E-002	4.79469E-001	3.57250E+000	9	...........
	45	0.613333	4.73966E-001	-8.88416E-005	0.00000E+000	-4.21079E-005	-5.39641E-002	4.74033E-001	3.57250E+000	9	...........
	46	0.626667	4.68580E-001	-8.88999E-005	0.00000E+000	-4.16567E-005	-5.39641E-002	4.68639E-001	3.57250E+000	9	...........
	47	0.64	4.63219E-001	-8.87426E-005	0.00000E+000	-4.11072E-005	-5.39641E-002	4.63282E-001	3.57250E+000	9	...........
	48	0.653333	4.57879E-001	-8.89197E-005	0.00000E+000	-4.07145E-005	-5.39641E-002	4.57946E-001	3.57250E+000	9	...........
	49	0.666667	4.52562E-001	-8.89926E-005	0.00000E+000	-4.02747E-005	-5.39641E-002	4.52622E-001	3.57250E+000	9	...........
	50	0.68	4.47284E-001	-8.88291E-005	0.00000E+000	-3.97318E-005	-5.39641E-002	4.47347E-001	3.57250E+000	9	...........
	51	0.693333	4.42026E-001	-8.88384E-005	0.00000E+000	-3.92689E-005	-5.39641E-002	4.42089E-001	3.57250E+000	9	...........
	52	0.706667	4.36788E-001	-8.87613E-005	0.00000E+000	-3.87699E-005	-5.39641E-002	4.36842E-001	3.57250E+000	9	...........
	53	0.72	4.31579E-001	-8.88822E-005	0.00000E+000	-3.83597E-005	-5.39641E-002	4.31634E-001	3.57250E+000	9	...........
	54	0.733333	4.26410E-001	-8.88624E-005	0.00000E+000	-3.78918E-005	-5.39641E-002	4.26462E-001	3.57250E+000	9	...........
	55	0.746667	4.21253E-001	-8.85957E-005	0.00000E+000	-3.73212E-005	-5.39641E-002	4.21310E-001	3.57250E+000	9	...........
	56	0.76	4.16100E-001	-8.86176E-005	0.00000E+000	-3.68738E-005	-5.39641E-002	4.16154E-001	3.57250E+000	9	...........
	57	0.773333	4.10979E-001	-8.86957E-005	0.00000E+000	-3.64521E-005	-5.39641E-002	4.11027E-001	3.57250E+000	9	...........
	58	0.786667	4.05876E-001	-8.88728E-005	0.00000E+000	-3.60713E-005	-5.39641E-002	4.05925E-001	3.57250E+000	9	...........
	59	0.8	4.00778E-001	-8.88301E-005	0.00000E+000	-3.56011E-005	-5.39641E-002	4.00822E-001	3.57250E+000	9	...........
	60	0.813333	3.95685E-001	-8.88134E-005	0.00000E+000	-3.51421E-005	-5.39641E-002	3.95733E-001	3.57268E+000	9	...........
	61	0.826667	3.90597E-001	-8.86790E-005	0.00000E+000	-3.46378E-005	-5.39641E-002	3.90646E-001	3.57390E+000	9	...........
	62	0.84	3.85522E-001	-8.89416E-005	0.00000E+000	-3.42889E-005	-5.39641E-002	3.85566E-001	3.57390E+000	9	...........
	63	0.853333	3.80478E-001	-8.88770E-005	0.00000E+000	-3.38157E-005	-5.39641E-002	3.80520E-001	3.57390E+000	9	...........
	64	0.866667	3.75445E-001	-8.86738E-005	0.00000E+000	-3.32921E-005	-5.39641E-002	3.75491E-001	3.57390E+000	9	...........
	65	0.88	3.70437E-001	-8.87895E-005	0.00000E+000	-3.28909E-005	-5.39641E-002	3.70477E-001	3.57390E+000	9	...........
	66	0.893333	3.65462E-001	-8.88645E-005	0.00000E+000	-3.24766E-005	-5.39641E-002	3.65516E-001	3.57390E+000	9	...........
	67	0.906667	3.60506E-001	-8.90708E-005	0.00000E+000	-3.21105E-005	-5.39641E-002	3.60553E-001	3.57390E+000	9	...........
	68	0.92	3.55541E-001	-8.86644E-005	0.00000E+000	-3.15238E-005	-5.39641E-002	3.55587E-001	3.57390E+000	9	...........
	69	0.933333	3.50597E-001	-8.86832E-005	0.00000E+000	-3.10920E-005	-5.39641E-002	3.50641E-001	3.57390E+000	9	...........
	70	0.946667	3.45658E-001	-8.90083E-005	0.00000E+000	-3.07665E-005	-5.39641E-002	3.45707E-001	3.57390E+000	9	...........
	71	0.96	3.40736E-001	-8.89478E-005	0.00000E+000	-3.03078E-005	-5.39641E-002	3.40778E-001	3.57390E+000	9	...........
	72	0.97333	3.35833E-001	-8.90166E-005	0.00000E+000	-2.98947E-005	-5.39641E-002	3.35874E-001	3.57390E+000	9	...........
	73	0.98667	3.30934E-001	-8.88197E-005	0.00000E+000	-2.93935E-005	-5.39641E-002	3.30975E-001	3.57390E+000	9	...........
	74	1	3.26065E-001	-8.90322E-005	0.00000E+000	-2.90303E-005	-5.39641E-002	3.26101E-001	3.57390E+000	9	...........
	75	1.01333	3.21205E-001	-8.87520E-005	0.00000E+000	-2.85075E-005	-5.39641E-002	3.21250E-001	3.57390E+000	9	...........
	76	1.02667	3.16362E-001	-8.87322E-005	0.00000E+000	-2.80715E-005	-5.39641E-002	3.16399E-001	3.57390E+000	9	...........
	77	1.04	3.11525E-001	-8.87207E-005	0.00000E+000	-2.76387E-005	-5.39641E-002	3.11568E-001	3.57390E+000	9	...........
	78	1.05333	3.06728E-001	-8.88645E-005	0.00000E+000	-2.72572E-005	-5.39641E-002	3.06764E-001	3.57390E+000	9	...........
	79	1.06667	3.01934E-001	-8.88666E-005	0.00000E+000	-2.68318E-005	-5.39641E-002	3.01976E-001	3.57390E+000	9	...........
	80	1.08	2.97172E-001	-8.85967E-005	0.00000E+000	-2.63285E-005	-5.39641E-002	2.97207E-001	3.57390E+000	9	...........
	81	1.09333	2.92413E-001	-8.86957E-005	0.00000E+000	-2.59358E-005	-5.39641E-002	2.92449E-001	3.57390E+000	9	...........
	82	1.10667	2.87681E-001	-8.84988E-005	0.00000E+000	-2.54594E-005	-5.39641E-002	2.87718E-001	3.57390E+000	9	...........
	83	1.12	2.82950E-001	-8.90187E-005	0.00000E+000	-2.51878E-005	-5.39641E-002	2.82988E-001	3.57390E+000	9	...........
	84	1.13333	2.78237E-001	-8.87905E-005	0.00000E+000	-2.47048E-005	-5.39641E-002	2.78274E-001	3.57390E+000	9	...........
	85	1.14667	2.73541E-001	-8.88697E-005	0.00000E+000	-2.43095E-005	-5.39641E-002	2.73580E-001	3.57390E+000	9	...........
	86	1.16	2.68876E-001	-8.90374E-005	0.00000E+000	-2.39400E-005	-5.39641E-002	2.68908E-001	3.57390E+000	9	...........
	87	1.17333	2.64228E-001	-8.89239E-005	0.00000E+000	-2.34962E-005	-5.39641E-002	2.64265E-001	3.57390E+000	9	...........
	88	1.18667	2.59578E-001	-8.88061E-005	0.00000E+000	-2.30522E-005	-5.39641E-002	2.59614E-001	3.57390E+000	9	...........
	89	1.2	2.54954E-001	-8.87780E-005	0.00000E+000	-2.26343E-005	-5.39641E-002	2.54987E-001	3.57390E+000	9	...........
	90	1.21333	2.50342E-001	-8.88999E-005	0.00000E+000	-2.22554E-005	-5.39641E-002	2.50378E-001	3.57390E+000	9	...........
	91	1.22667	2.45766E-001	-8.88280E-005	0.00000E+000	-2.18309E-005	-5.39641E-002	2.45799E-001	3.57390E+000	9	...........
	92	1.24	2.41209E-001	-8.88134E-005	0.00000E+000	-2.14226E-005	-5.39641E-002	2.41237E-001	3.57390E+000	9	...........
	93	1.25333	2.36666E-001	-8.87144E-005	0.00000E+000	-2.09957E-005	-5.39641E-002	2.36696E-001	3.57390E+000	9	...........
	94	1.26667	2.32151E-001	-8.87540E-005	0.00000E+000	-2.06043E-005	-5.39641E-002	2.32178E-001	3.57390E+000	9	...........
	95	1.28	2.27656E-001	-8.89187E-005	0.00000E+000	-2.02429E-005	-5.39641E-002	2.27684E-001	3.57390E+000	9	...........
	96	1.29333	2.23176E-001	-8.86967E-005	0.00000E+000	-1.97950E-005	-5.39641E-002	2.23205E-001	3.57390E+000	9	...........
	97	1.30667	2.18731E-001	-8.88707E-005	0.00000E+000	-1.94388E-005	-5.39641E-002	2.18755E-001	3.57390E+000	9	...........
	98	1.32	2.14303E-001	-8.88739E-005	0.00000E+000	-1.90459E-005	-5.39641E-002	2.14327E-001	3.57390E+000	9	...........
	99	1.33333	2.09880E-001	-8.87999E-005	0.00000E+000	-1.86373E-005	-5.39641E-002	2.09909E-001	3.57390E+000	9	...........
	100	1.34667	2.05468E-001	-8.86957E-005	0.00000E+000	-1.82241E-005	-5.39641E-002	2.05495E-001	3.57390E+000	9	...........
	101	1.36	2.01078E-001	-8.87332E-005	0.00000E+000	-1.78423E-005	-5.39641E-002	2.01104E-001	3.57390E+000	9	...........
	102	1.37333	1.96724E-001	-8.89353E-005	0.00000E+000	-1.74957E-005	-5.39641E-002	1.96741E-001	3.57390E+000	9	...........
	103	1.38667	1.92404E-001	-8.89916E-005	0.00000E+000	-1.71223E-005	-5.39641E-002	1.92423E-001	3.57390E+000	9	...........
	104	1.4	1.88080E-001	-8.88739E-005	0.00000E+000	-1.67154E-005	-5.39641E-002	1.88100E-001	3.57390E+000	9	...........
	105	1.41333	1.83777E-001	-8.86988E-005	0.00000E+000	-1.63008E-005	-5.39641E-002	1.83797E-001	3.57390E+000	9	...........
	106	1.42667	1.79481E-001	-8.88593E-005	0.00000E+000	-1.59486E-005	-5.39641E-002	1.79502E-001	3.57390E+000	9	...........
	107	1.44	1.75198E-001	-8.87478E-005	0.00000E+000	-1.55484E-005	-5.39641E-002	1.75216E-001	3.57390E+000	9	...........
	108	1.45333	1.70943E-001	-8.90228E-005	0.00000E+000	-1.52178E-005	-5.39641E-002	1.70964E-001	3.57390E+000	9	...........
	109	1.46667	1.66723E-001	-8.86363E-005	0.00000E+000	-1.47777E-005	-5.39641E-002	1.66739E-001	3.57390E+000	9	...........
	110	1.48	1.62512E-001	-8.88374E-005	0.00000E+000	-1.44372E-005	-5.39641E-002	1.62533E-001	3.57390E+000	9	...........
	111	1.49333	1.58346E-001	-8.88384E-005	0.00000E+000	-1.40672E-005	-5.39641E-002	1.58365E-001	3.57390E+000	9	...........
	112	1.50667	1.54192E-001	-8.90155E-005	0.00000E+000	-1.37255E-005	-5.39641E-002	1.54200E-001	3.57390E+000	9	...........
	113	1.52	1.50050E-001	-8.87801E-005	0.00000E+000	-1.33214E-005	-5.39641E-002	1.50060E-001	3.57390E+000	9	...........
	114	1.53333	1.45930E-001	-8.90155E-005	0.00000E+000	-1.29900E-005	-5.39641E-002	1.45938E-001	3.57390E+000	9	...........
	115	1.54667	1.41803E-001	-8.87978E-005	0.00000E+000	-1.25918E-005	-5.39641E-002	1.41813E-001	3.57390E+000	9	...........
	116	1.56	1.37704E-001	-8.88426E-005	0.00000E+000	-1.22340E-005	-5.39641E-002	1.37710E-001	3.57390E+000	9	...........
	117	1.57333	1.33609E-001	-8.88291E-005	0.00000E+000	-1.18684E-005	-5.39641E-002	1.33620E-001	3.57390E+000	9	...........
	118	1.58667	1.29549E-001	-8.88291E-005	0.00000E+000	-1.15077E-005	-5.39641E-002	1.29555E-001	3.57390E+000	9	...........
	119	1.6	1.25514E-001	-8.88978E-005	0.00000E+000	-1.11579E-005	-5.39641E-002	1.25524E-001	3.57390E+000	9	...........
	120	1.61333	1.21492E-001	-8.90489E-005	0.00000E+000	-1.08187E-005	-5.39641E-002	1.21499E-001	3.57390E+000	9	...........
	121	1.62667	1.17479E-001	-8.86436E-005	0.00000E+000	-1.04137E-005	-5.39641E-002	1.17485E-001	3.57390E+000	9	...........
	122	1.64	1.13466E-001	-8.85665E-005	0.00000E+000	-1.00492E-005	-5.39641E-002	1.13476E-001	3.57390E+000	9	...........
	123	1.65333	1.09475E-001	-8.89780E-005	0.00000E+000	-9.74090E-006	-5.39641E-002	1.09479E-001	3.57390E+000	9	...........
	124	1.66667	1.05497E-001	-8.87999E-005	0.00000E+000	-9.36815E-006	-5.39641E-002	1.05506E-001	3.57390E+000	9	...........
	125	1.68	1.01552E-001	-8.88291E-005	0.00000E+000	-9.02080E-006	-5.39641E-002	1.01552E-001	3.57390E+000	9	...........
	126	1.69333	9.76220E-002	-8.85623E-005	0.00000E+000	-8.64563E-006	-5.39641E-002	9.76290E-002	3.57390E+000	9	...........
	127	1.70667	9.37190E-002	-8.88113E-005	0.00000E+000	-8.32331E-006	-5.39641E-002	9.37281E-002	3.57390E+000	9	...........
	128	1.72	8.98409E-002	-8.87520E-005	0.00000E+000	-7.97355E-006	-5.39641E-002	8.98449E-002	3.57390E+000	9	...........
	129	1.73333	8.59766E-002	-8.88634E-005	0.00000E+000	-7.64018E-006	-5.39641E-002	8.59838E-002	3.57390E+000	9	...........
	130	1.74667	8.21288E-002	-8.92229E-005	0.00000E+000	-7.32777E-006	-5.39641E-002	8.21312E-002	3.57390E+000	9	...........
	131	1.76	7.83002E-002	-8.89082E-005	0.00000E+000	-6.96153E-006	-5.39641E-002	7.83017E-002	3.57390E+000	9	...........
	132	1.77333	7.44987E-002	-8.89051E-005	0.00000E+000	-6.62331E-006	-5.39641E-002	7.44968E-002	3.57390E+000	9	...........
	133	1.78667	7.07074E-002	-8.88020E-005	0.00000E+000	-6.27895E-006	-5.39641E-002	7.07118E-002	3.57390E+000	9	...........
	134	1.8	6.69397E-002	-8.88218E-005	0.00000E+000	-5.94570E-006	-5.39641E-002	6.69355E-002	3.57390E+000	9	...........
	135	1.81333	6.31788E-002	-8.90801E-005	0.00000E+000	-5.62797E-006	-5.39641E-002	6.31810E-002	3.57382E+000	9	...........
	136	1.82667	5.94333E-002	-8.89833E-005	0.00000E+000	-5.28856E-006	-5.39641E-002	5.94346E-002	3.57330E+000	9	...........
	137	1.84	5.56972E-002	-8.87374E-005	0.00000E+000	-4.94243E-006	-5.39641E-002	5.56952E-002	3.57330E+000	9	...........
	138	1.85333	5.19761E-002	-8.87488E-005	0.00000E+000	-4.61282E-006	-5.39641E-002	5.19782E-002	3.57330E+000	9	...........
	139	1.86667	4.82745E-002	-8.89457E-005	0.00000E+000	-4.29381E-006	-5.39641E-002	4.82822E-002	3.57330E+000	9	...........
	140	1.88	4.45916E-002	-8.86874E-005	0.00000E+000	-3.95471E-006	-5.39641E-002	4.46072E-002	3.57330E+000	9	...........
	141	1.89333	4.09148E-002	-8.88999E-005	0.00000E+000	-3.63732E-006	-5.39641E-002	4.09232E-002	3.57330E+000	9	...........
	142	1.90667	3.72663E-002	-8.89926E-005	0.00000E+000	-3.31643E-006	-5.39641E-002	3.72721E-002	3.57330E+000	9	...........
	143	1.92	3.36382E-002	-8.86176E-005	0.00000E+000	-2.98094E-006	-5.39641E-002	3.36469E-002	3.57330E+000	9	...........
	144	1.93333	3.00258E-002	-8.87718E-005	0.00000E+000	-2.66545E-006	-5.39641E-002	3.00282E-002	3.57330E+000	9	...........
	145	1.94667	2.64110E-002	-8.88697E-005	0.00000E+000	-2.34714E-006	-5.39641E-002	2.64130E-002	3.57330E+000	9	...........
	146	1.96	2.28271E-002	-8.90020E-005	0.00000E+000	-2.03166E-006	-5.39641E-002	2.28216E-002	3.57330E+000	9	...........
	147	1.97333	1.92593E-002	-8.88603E-005	0.00000E+000	-1.71138E-006	-5.39641E-002	1.92553E-002	3.57330E+000	9	...........
	148	1.98667	1.57129E-002	-8.89687E-005	0.00000E+000	-1.39796E-006	-5.39641E-002	1.57052E-002	3.57330E+000	9	...........
	149	2	1.21796E-002	-8.85978E-005	0.00000E+000	-1.07908E-006	-5.39641E-002	1.21737E-002	3.57330E+000	9	...........
	150	2.01333	8.65628E-003	-8.90103E-005	0.00000E+000	-7.70499E-007	-5.39641E-002	8.65118E-003	3.57330E+000	9	...........
	151	2.02667	5.14980E-003	-8.86071E-005	0.00000E+000	-4.56309E-007	-5.39641E-002	5.13898E-003	3.57330E+000	9	...........
	152	2.04	1.66006E-003	-8.88113E-005	0.00000E+000	-1.47432E-007	-5.39641E-002	1.64737E-003	3.57330E+000	9	...........
	153	2.04167	-3.02968E-004	-8.83248E-005	0.00000E+000	2.67596E-008	-5.39641E-002	-3.10234E-004	3.57330E+000	9	...........
STARTTIMEOFFSET	QUANT	2010.121	Start Time Offset (s)
