EXPLAIN
TAG	PWR800_DISCHARGE
TITLE	LABEL	PWR Cyclic Charge Discharge (Cell) - Discharge Step	Test &Identifier
DATE	LABEL	10-7-2017	Date
TIME	LABEL	15:37:05	Time
NOTES	NOTES	3	&Notes...
	supercap test cell
	0.9mg
	6M KOH
PSTAT	PSTAT	IFC5000-01520	Potentiostat
CAPACITY	QUANT	1.00000E-003	Capacity (A-hr)
CELLTYPE	SELECTOR	1	&Cell Type
WORKINGCONNECTION	SELECTOR	0	&Working Lead
MAXDISCHARGETIME	VARIABLEANDUNITS	1.00000E+002	s	1.00000E+002	second(s)	Max &Discharge Time
DISCHARGEMODE	MULTIPARAM	0	9.00000E-005	&Discharge Mode	Constant Current	Amp(s)
SAMPLETIME	QUANT	1.00000E-002	Sa&mple Period (s)
DISCHARGESTOPAT1	MULTIPARAM	3	0.00000E+000	Discharge Stop At &1	Voltage < Limit	V
DISCHARGESTOPAT2	MULTIPARAM	0	0.00000E+000	Discharge Stop At &2	None	N/A
AESBHCSELECTOR	TOGGLE	F	Save Both Half Cells
IRCOMP	TOGGLE	F	IR &Measure
EOC	QUANT	0	Open Circuit (V)
SEQUENCER	TOGGLE	TRUE	Run as Sequence
PSTATMODEL	IQUANT	53	Pstat Model
PSTATSECTION	LABEL	IFC5000-01520	Pstat Section
PSTATSERIALNO	LABEL	01520	Pstat Serial Number
CTRLMODE	IQUANT	0	Control Mode
ELECTROMETER	IQUANT	1	RE=0 or CS=1
IESTAB	IQUANT	0	I/E Stability
CASPEED	IQUANT	4	Control Amp Speed
CONVENTION	IQUANT	1	Current Convention
ICHRANGE	IQUANT	2	Ich Range
ICHRANGEMODE	TOGGLE	T	Ich Auto Range
ICHOFFSETENABLE	TOGGLE	F	Ich Offset Enable
ICHOFFSET	QUANT	0	Ich Offset (V)
ICHFILTER	IQUANT	1	Ich Filter
VCHRANGE	IQUANT	2	Vch Range
VCHRANGEMODE	TOGGLE	T	Vch Auto Range
VCHOFFSETENABLE	TOGGLE	F	Vch Offset Enable
VCHOFFSET	QUANT	0	Vch Offset (V)
VCHFILTER	IQUANT	1	Vch Filter
IERANGELOWERLIMIT	IQUANT	9	I/E Range Lower Limit
IERANGEMODE	TOGGLE	F	I/E AutoRange
IERANGE	IQUANT	9	I/E Range
ACHSELECT	IQUANT	1	Ach Select
ACHRANGE	IQUANT	2	Ach Range
ACHOFFSETENABLE	TOGGLE	F	Ach Offset Enable
ACHOFFSET	QUANT	0	Ach Offset (V)
ACHFILTER	IQUANT	1	Ach Filter
CABLEID	IQUANT	14	Cable ID
DCCALDATE	LABEL	5-7-2017	DC Calibration Date
ACCALDATE	LABEL	12/3/2015	AC Calibration Date
FRAMEWORKVERSION	QUANT	7.01	Framework Version
INSTRUMENTVERSION	LABEL	4.00	Instrument Version
CURVE	TABLE	153
	Pt	T	Vf	Im	Vu	Pwr	Sig	Ach	Temp	IERange	Over
	#	s	V	A	V	W	V	V	deg C	#	bits
	0	0.013333	8.11050E-001	-8.89874E-005	0.00000E+000	-7.21732E-005	-5.39641E-002	8.11228E-001	3.57330E+000	9	...........
	1	0.026667	7.97781E-001	-8.87520E-005	0.00000E+000	-7.08047E-005	-5.39641E-002	7.97926E-001	3.57330E+000	9	...........
	2	0.04	7.85339E-001	-8.88186E-005	0.00000E+000	-6.97528E-005	-5.39641E-002	7.85474E-001	3.57330E+000	9	...........
	3	0.053333	7.73586E-001	-8.87217E-005	0.00000E+000	-6.86339E-005	-5.39641E-002	7.73731E-001	3.57330E+000	9	...........
	4	0.066667	7.62374E-001	-8.85863E-005	0.00000E+000	-6.75359E-005	-5.39641E-002	7.62525E-001	3.57330E+000	9	...........
	5	0.08	7.51697E-001	-8.90114E-005	0.00000E+000	-6.69096E-005	-5.39641E-002	7.51824E-001	3.57330E+000	9	...........
	6	0.093333	7.41404E-001	-8.87353E-005	0.00000E+000	-6.57887E-005	-5.39641E-002	7.41550E-001	3.57330E+000	9	...........
	7	0.106667	7.31481E-001	-8.87072E-005	0.00000E+000	-6.48876E-005	-5.39641E-002	7.31625E-001	3.57330E+000	9	...........
	8	0.12	7.21923E-001	-8.87843E-005	0.00000E+000	-6.40954E-005	-5.39641E-002	7.22035E-001	3.57330E+000	9	...........
	9	0.133333	7.12610E-001	-8.87645E-005	0.00000E+000	-6.32544E-005	-5.39641E-002	7.12736E-001	3.57330E+000	9	...........
	10	0.146667	7.03606E-001	-8.88238E-005	0.00000E+000	-6.24970E-005	-5.39641E-002	7.03733E-001	3.57330E+000	9	...........
	11	0.16	6.94861E-001	-8.88061E-005	0.00000E+000	-6.17079E-005	-5.39641E-002	6.94967E-001	3.57330E+000	9	...........
	12	0.173333	6.86323E-001	-8.89051E-005	0.00000E+000	-6.10176E-005	-5.39641E-002	6.86439E-001	3.57330E+000	9	...........
	13	0.186667	6.78035E-001	-8.86905E-005	0.00000E+000	-6.01352E-005	-5.39641E-002	6.78142E-001	3.57330E+000	9	...........
	14	0.2	6.69932E-001	-8.88509E-005	0.00000E+000	-5.95240E-005	-5.39641E-002	6.70038E-001	3.57330E+000	9	...........
	15	0.213333	6.61961E-001	-8.87968E-005	0.00000E+000	-5.87800E-005	-5.39641E-002	6.62099E-001	3.57330E+000	9	...........
	16	0.226667	6.54206E-001	-8.87915E-005	0.00000E+000	-5.80879E-005	-5.39641E-002	6.54316E-001	3.57330E+000	9	...........
	17	0.24	6.46607E-001	-8.90072E-005	0.00000E+000	-5.75527E-005	-5.39641E-002	6.46716E-001	3.57330E+000	9	...........
	18	0.253333	6.39154E-001	-8.88936E-005	0.00000E+000	-5.68167E-005	-5.39641E-002	6.39237E-001	3.57330E+000	9	...........
	19	0.266667	6.31847E-001	-8.88009E-005	0.00000E+000	-5.61086E-005	-5.39641E-002	6.31896E-001	3.57330E+000	9	...........
	20	0.28	6.24677E-001	-8.87843E-005	0.00000E+000	-5.54615E-005	-5.39641E-002	6.24719E-001	3.57330E+000	9	...........
	21	0.293333	6.17638E-001	-8.84165E-005	0.00000E+000	-5.46094E-005	-5.39641E-002	6.17697E-001	3.57330E+000	9	...........
	22	0.306667	6.10651E-001	-8.88968E-005	0.00000E+000	-5.42849E-005	-5.39641E-002	6.10772E-001	3.57330E+000	9	...........
	23	0.32	6.03852E-001	-8.90322E-005	0.00000E+000	-5.37623E-005	-5.39641E-002	6.03981E-001	3.57330E+000	9	...........
	24	0.333333	5.97150E-001	-8.87082E-005	0.00000E+000	-5.29721E-005	-5.39641E-002	5.97285E-001	3.57330E+000	9	...........
	25	0.346667	5.90553E-001	-8.88697E-005	0.00000E+000	-5.24823E-005	-5.39641E-002	5.90683E-001	3.57330E+000	9	...........
	26	0.36	5.84049E-001	-8.86269E-005	0.00000E+000	-5.17624E-005	-5.39641E-002	5.84155E-001	3.57330E+000	9	...........
	27	0.373333	5.77625E-001	-8.89353E-005	0.00000E+000	-5.13713E-005	-5.39641E-002	5.77755E-001	3.57330E+000	9	...........
	28	0.386667	5.71295E-001	-8.84884E-005	0.00000E+000	-5.05530E-005	-5.39641E-002	5.71415E-001	3.57330E+000	9	...........
	29	0.4	5.65048E-001	-8.89228E-005	0.00000E+000	-5.02456E-005	-5.39641E-002	5.65172E-001	3.57330E+000	9	...........
	30	0.413333	5.58833E-001	-8.86936E-005	0.00000E+000	-4.95649E-005	-5.39641E-002	5.58951E-001	3.57330E+000	9	...........
	31	0.426667	5.52732E-001	-8.84571E-005	0.00000E+000	-4.88931E-005	-5.39641E-002	5.52854E-001	3.57330E+000	9	...........
	32	0.44	5.46702E-001	-8.88541E-005	0.00000E+000	-4.85767E-005	-5.39641E-002	5.46806E-001	3.57330E+000	9	...........
	33	0.453333	5.40751E-001	-8.85696E-005	0.00000E+000	-4.78941E-005	-5.39641E-002	5.40854E-001	3.57330E+000	9	...........
	34	0.466667	5.34812E-001	-8.87269E-005	0.00000E+000	-4.74522E-005	-5.39641E-002	5.34917E-001	3.57330E+000	9	...........
	35	0.48	5.28976E-001	-8.88093E-005	0.00000E+000	-4.69779E-005	-5.39641E-002	5.29070E-001	3.57330E+000	9	...........
	36	0.493333	5.23171E-001	-8.88822E-005	0.00000E+000	-4.65006E-005	-5.39641E-002	5.23284E-001	3.57330E+000	9	...........
	37	0.506667	5.17444E-001	-8.89082E-005	0.00000E+000	-4.60050E-005	-5.39641E-002	5.17536E-001	3.57330E+000	9	...........
	38	0.52	5.11732E-001	-8.88218E-005	0.00000E+000	-4.54529E-005	-5.39641E-002	5.11844E-001	3.57330E+000	9	...........
	39	0.533333	5.06038E-001	-8.87165E-005	0.00000E+000	-4.48940E-005	-5.39641E-002	5.06190E-001	3.57330E+000	9	...........
	40	0.546667	5.00440E-001	-8.90551E-005	0.00000E+000	-4.45668E-005	-5.39641E-002	5.00584E-001	3.57330E+000	9	...........
	41	0.56	4.94911E-001	-8.88082E-005	0.00000E+000	-4.39521E-005	-5.39641E-002	4.95014E-001	3.57330E+000	9	...........
	42	0.573333	4.89376E-001	-8.85894E-005	0.00000E+000	-4.33535E-005	-5.39641E-002	4.89475E-001	3.57330E+000	9	...........
	43	0.586667	4.83955E-001	-8.85800E-005	0.00000E+000	-4.28687E-005	-5.39641E-002	4.84028E-001	3.57330E+000	9	...........
	44	0.6	4.78527E-001	-8.89312E-005	0.00000E+000	-4.25559E-005	-5.39641E-002	4.78592E-001	3.57330E+000	9	...........
	45	0.613333	4.73109E-001	-8.90426E-005	0.00000E+000	-4.21269E-005	-5.39641E-002	4.73165E-001	3.57330E+000	9	...........
	46	0.626667	4.67719E-001	-8.90437E-005	0.00000E+000	-4.16474E-005	-5.39641E-002	4.67778E-001	3.57330E+000	9	...........
	47	0.64	4.62346E-001	-8.87113E-005	0.00000E+000	-4.10153E-005	-5.39641E-002	4.62404E-001	3.57330E+000	9	...........
	48	0.653333	4.57009E-001	-8.86717E-005	0.00000E+000	-4.05238E-005	-5.39641E-002	4.57062E-001	3.57330E+000	9	...........
	49	0.666667	4.51693E-001	-8.87290E-005	0.00000E+000	-4.00783E-005	-5.39641E-002	4.51753E-001	3.57330E+000	9	...........
	50	0.68	4.46411E-001	-8.88655E-005	0.00000E+000	-3.96705E-005	-5.39641E-002	4.46474E-001	3.57330E+000	9	...........
	51	0.693333	4.41130E-001	-8.88541E-005	0.00000E+000	-3.91962E-005	-5.39641E-002	4.41186E-001	3.57330E+000	9	...........
	52	0.706667	4.35878E-001	-8.89760E-005	0.00000E+000	-3.87827E-005	-5.39641E-002	4.35938E-001	3.57330E+000	9	...........
	53	0.72	4.30659E-001	-8.88864E-005	0.00000E+000	-3.82797E-005	-5.39641E-002	4.30721E-001	3.57330E+000	9	...........
	54	0.733333	4.25462E-001	-8.86551E-005	0.00000E+000	-3.77194E-005	-5.39641E-002	4.25525E-001	3.57330E+000	9	...........
	55	0.746667	4.20282E-001	-8.87916E-005	0.00000E+000	-3.73175E-005	-5.39641E-002	4.20338E-001	3.57330E+000	9	...........
	56	0.76	4.15138E-001	-8.87082E-005	0.00000E+000	-3.68261E-005	-5.39641E-002	4.15197E-001	3.57330E+000	9	...........
	57	0.773333	4.10014E-001	-8.84623E-005	0.00000E+000	-3.62708E-005	-5.39641E-002	4.10069E-001	3.57330E+000	9	...........
	58	0.786667	4.04897E-001	-8.88395E-005	0.00000E+000	-3.59708E-005	-5.39641E-002	4.04953E-001	3.57330E+000	9	...........
	59	0.8	3.99810E-001	-8.88249E-005	0.00000E+000	-3.55131E-005	-5.39641E-002	3.99865E-001	3.57330E+000	9	...........
	60	0.813333	3.94744E-001	-8.86582E-005	0.00000E+000	-3.49973E-005	-5.39641E-002	3.94795E-001	3.57330E+000	9	...........
	61	0.826667	3.89672E-001	-8.86217E-005	0.00000E+000	-3.45334E-005	-5.39641E-002	3.89717E-001	3.57330E+000	9	...........
	62	0.84	3.84614E-001	-8.89343E-005	0.00000E+000	-3.42054E-005	-5.39641E-002	3.84666E-001	3.57330E+000	9	...........
	63	0.853333	3.79581E-001	-8.86936E-005	0.00000E+000	-3.36664E-005	-5.39641E-002	3.79630E-001	3.57330E+000	9	...........
	64	0.866667	3.74563E-001	-8.90895E-005	0.00000E+000	-3.33696E-005	-5.39641E-002	3.74602E-001	3.57330E+000	9	...........
	65	0.88	3.69566E-001	-8.86915E-005	0.00000E+000	-3.27774E-005	-5.39641E-002	3.69607E-001	3.57330E+000	9	...........
	66	0.893333	3.64580E-001	-8.86499E-005	0.00000E+000	-3.23200E-005	-5.39641E-002	3.64621E-001	3.57330E+000	9	...........
	67	0.906667	3.59601E-001	-8.88468E-005	0.00000E+000	-3.19493E-005	-5.39641E-002	3.59647E-001	3.57330E+000	9	...........
	68	0.92	3.54650E-001	-8.87551E-005	0.00000E+000	-3.14770E-005	-5.39641E-002	3.54692E-001	3.57361E+000	9	...........
	69	0.933333	3.49703E-001	-8.86519E-005	0.00000E+000	-3.10018E-005	-5.39641E-002	3.49746E-001	3.57380E+000	9	...........
	70	0.946667	3.44760E-001	-8.87613E-005	0.00000E+000	-3.06013E-005	-5.39641E-002	3.44799E-001	3.57380E+000	9	...........
	71	0.96	3.39845E-001	-8.85186E-005	0.00000E+000	-3.00826E-005	-5.39641E-002	3.39880E-001	3.57380E+000	9	...........
	72	0.97333	3.34943E-001	-8.86509E-005	0.00000E+000	-2.96930E-005	-5.39641E-002	3.34988E-001	3.57380E+000	9	...........
	73	0.98667	3.30067E-001	-8.85498E-005	0.00000E+000	-2.92274E-005	-5.39641E-002	3.30106E-001	3.57380E+000	9	...........
	74	1	3.25216E-001	-8.89395E-005	0.00000E+000	-2.89245E-005	-5.39641E-002	3.25258E-001	3.57380E+000	9	...........
	75	1.01333	3.20378E-001	-8.87249E-005	0.00000E+000	-2.84255E-005	-5.39641E-002	3.20419E-001	3.57380E+000	9	...........
	76	1.02667	3.15538E-001	-8.88853E-005	0.00000E+000	-2.80467E-005	-5.39641E-002	3.15585E-001	3.57380E+000	9	...........
	77	1.04	3.10730E-001	-8.89822E-005	0.00000E+000	-2.76495E-005	-5.39641E-002	3.10772E-001	3.57380E+000	9	...........
	78	1.05333	3.05924E-001	-8.86582E-005	0.00000E+000	-2.71226E-005	-5.39641E-002	3.05964E-001	3.57380E+000	9	...........
	79	1.06667	3.01127E-001	-8.85696E-005	0.00000E+000	-2.66707E-005	-5.39641E-002	3.01170E-001	3.57380E+000	9	...........
	80	1.08	2.96349E-001	-8.86311E-005	0.00000E+000	-2.62657E-005	-5.39641E-002	2.96388E-001	3.57380E+000	9	...........
	81	1.09333	2.91606E-001	-8.85092E-005	0.00000E+000	-2.58098E-005	-5.39641E-002	2.91635E-001	3.57380E+000	9	...........
	82	1.10667	2.86868E-001	-8.89291E-005	0.00000E+000	-2.55109E-005	-5.39641E-002	2.86908E-001	3.57380E+000	9	...........
	83	1.12	2.82153E-001	-8.87884E-005	0.00000E+000	-2.50519E-005	-5.39641E-002	2.82186E-001	3.57380E+000	9	...........
	84	1.13333	2.77450E-001	-8.88103E-005	0.00000E+000	-2.46404E-005	-5.39641E-002	2.77481E-001	3.57380E+000	9	...........
	85	1.14667	2.72756E-001	-8.87217E-005	0.00000E+000	-2.41993E-005	-5.39641E-002	2.72789E-001	3.57380E+000	9	...........
	86	1.16	2.68097E-001	-8.88509E-005	0.00000E+000	-2.38206E-005	-5.39641E-002	2.68127E-001	3.57380E+000	9	...........
	87	1.17333	2.63455E-001	-8.89843E-005	0.00000E+000	-2.34434E-005	-5.39641E-002	2.63494E-001	3.57380E+000	9	...........
	88	1.18667	2.58830E-001	-8.88207E-005	0.00000E+000	-2.29895E-005	-5.39641E-002	2.58867E-001	3.57380E+000	9	...........
	89	1.2	2.54218E-001	-8.89499E-005	0.00000E+000	-2.26127E-005	-5.39641E-002	2.54254E-001	3.57380E+000	9	...........
	90	1.21333	2.49628E-001	-8.86207E-005	0.00000E+000	-2.21222E-005	-5.39641E-002	2.49660E-001	3.57380E+000	9	...........
	91	1.22667	2.45060E-001	-8.87645E-005	0.00000E+000	-2.17526E-005	-5.39641E-002	2.45092E-001	3.57380E+000	9	...........
	92	1.24	2.40511E-001	-8.87572E-005	0.00000E+000	-2.13471E-005	-5.39641E-002	2.40538E-001	3.57380E+000	9	...........
	93	1.25333	2.35987E-001	-8.86832E-005	0.00000E+000	-2.09281E-005	-5.39641E-002	2.36012E-001	3.57380E+000	9	...........
	94	1.26667	2.31475E-001	-8.90218E-005	0.00000E+000	-2.06063E-005	-5.39641E-002	2.31499E-001	3.57380E+000	9	...........
	95	1.28	2.26974E-001	-8.87207E-005	0.00000E+000	-2.01373E-005	-5.39641E-002	2.26997E-001	3.57380E+000	9	...........
	96	1.29333	2.22503E-001	-8.88072E-005	0.00000E+000	-1.97599E-005	-5.39641E-002	2.22528E-001	3.57380E+000	9	...........
	97	1.30667	2.18045E-001	-8.89176E-005	0.00000E+000	-1.93881E-005	-5.39641E-002	2.18072E-001	3.57380E+000	9	...........
	98	1.32	2.13613E-001	-8.90166E-005	0.00000E+000	-1.90151E-005	-5.39641E-002	2.13637E-001	3.57380E+000	9	...........
	99	1.33333	2.09223E-001	-8.88061E-005	0.00000E+000	-1.85803E-005	-5.39641E-002	2.09246E-001	3.57380E+000	9	...........
	100	1.34667	2.04849E-001	-8.89051E-005	0.00000E+000	-1.82121E-005	-5.39641E-002	2.04875E-001	3.57380E+000	9	...........
	101	1.36	2.00470E-001	-8.86905E-005	0.00000E+000	-1.77798E-005	-5.39641E-002	2.00498E-001	3.57380E+000	9	...........
	102	1.37333	1.96125E-001	-8.89041E-005	0.00000E+000	-1.74363E-005	-5.39641E-002	1.96143E-001	3.57380E+000	9	...........
	103	1.38667	1.91798E-001	-8.87415E-005	0.00000E+000	-1.70204E-005	-5.39641E-002	1.91820E-001	3.57380E+000	9	...........
	104	1.4	1.87490E-001	-8.90051E-005	0.00000E+000	-1.66875E-005	-5.39641E-002	1.87512E-001	3.57380E+000	9	...........
	105	1.41333	1.83176E-001	-8.90478E-005	0.00000E+000	-1.63114E-005	-5.39641E-002	1.83197E-001	3.57380E+000	9	...........
	106	1.42667	1.78873E-001	-8.87915E-005	0.00000E+000	-1.58824E-005	-5.39641E-002	1.78894E-001	3.57380E+000	9	...........
	107	1.44	1.74609E-001	-8.86509E-005	0.00000E+000	-1.54792E-005	-5.39641E-002	1.74628E-001	3.57380E+000	9	...........
	108	1.45333	1.70358E-001	-8.87040E-005	0.00000E+000	-1.51115E-005	-5.39641E-002	1.70379E-001	3.57380E+000	9	...........
	109	1.46667	1.66139E-001	-8.85061E-005	0.00000E+000	-1.47043E-005	-5.39641E-002	1.66154E-001	3.57380E+000	9	...........
	110	1.48	1.61936E-001	-8.87686E-005	0.00000E+000	-1.43748E-005	-5.39641E-002	1.61957E-001	3.57380E+000	9	...........
	111	1.49333	1.57772E-001	-8.87593E-005	0.00000E+000	-1.40037E-005	-5.39641E-002	1.57784E-001	3.57380E+000	9	...........
	112	1.50667	1.53628E-001	-8.89874E-005	0.00000E+000	-1.36710E-005	-5.39641E-002	1.53650E-001	3.57380E+000	9	...........
	113	1.52	1.49495E-001	-8.89489E-005	0.00000E+000	-1.32974E-005	-5.39641E-002	1.49510E-001	3.57380E+000	9	...........
	114	1.53333	1.45378E-001	-8.87405E-005	0.00000E+000	-1.29009E-005	-5.39641E-002	1.45389E-001	3.57380E+000	9	...........
	115	1.54667	1.41271E-001	-8.89655E-005	0.00000E+000	-1.25682E-005	-5.39641E-002	1.41288E-001	3.57380E+000	9	...........
	116	1.56	1.37184E-001	-8.87395E-005	0.00000E+000	-1.21736E-005	-5.39641E-002	1.37198E-001	3.57380E+000	9	...........
	117	1.57333	1.33131E-001	-8.84904E-005	0.00000E+000	-1.17808E-005	-5.39641E-002	1.33146E-001	3.57380E+000	9	...........
	118	1.58667	1.29092E-001	-8.88770E-005	0.00000E+000	-1.14733E-005	-5.39641E-002	1.29103E-001	3.57380E+000	9	...........
	119	1.6	1.25065E-001	-8.87645E-005	0.00000E+000	-1.11013E-005	-5.39641E-002	1.25075E-001	3.57380E+000	9	...........
	120	1.61333	1.21045E-001	-8.89166E-005	0.00000E+000	-1.07629E-005	-5.39641E-002	1.21062E-001	3.57380E+000	9	...........
	121	1.62667	1.17062E-001	-8.86613E-005	0.00000E+000	-1.03789E-005	-5.39641E-002	1.17078E-001	3.57380E+000	9	...........
	122	1.64	1.13078E-001	-8.89072E-005	0.00000E+000	-1.00535E-005	-5.39641E-002	1.13096E-001	3.57380E+000	9	...........
	123	1.65333	1.09113E-001	-8.89114E-005	0.00000E+000	-9.70143E-006	-5.39641E-002	1.09128E-001	3.57380E+000	9	...........
	124	1.66667	1.05162E-001	-8.88551E-005	0.00000E+000	-9.34415E-006	-5.39641E-002	1.05172E-001	3.57380E+000	9	...........
	125	1.68	1.01216E-001	-8.87155E-005	0.00000E+000	-8.97946E-006	-5.39641E-002	1.01230E-001	3.57380E+000	9	...........
	126	1.69333	9.72965E-002	-8.86728E-005	0.00000E+000	-8.62755E-006	-5.39641E-002	9.73133E-002	3.57380E+000	9	...........
	127	1.70667	9.33923E-002	-8.89374E-005	0.00000E+000	-8.30607E-006	-5.39641E-002	9.34008E-002	3.57380E+000	9	...........
	128	1.72	8.95078E-002	-8.89030E-005	0.00000E+000	-7.95751E-006	-5.39641E-002	8.95203E-002	3.57380E+000	9	...........
	129	1.73333	8.56464E-002	-8.89030E-005	0.00000E+000	-7.61423E-006	-5.39641E-002	8.56591E-002	3.57380E+000	9	...........
	130	1.74667	8.18153E-002	-8.87988E-005	0.00000E+000	-7.26511E-006	-5.39641E-002	8.18222E-002	3.57380E+000	9	...........
	131	1.76	7.80044E-002	-8.88176E-005	0.00000E+000	-6.92816E-006	-5.39641E-002	7.80067E-002	3.57380E+000	9	...........
	132	1.77333	7.41995E-002	-8.86332E-005	0.00000E+000	-6.57653E-006	-5.39641E-002	7.42035E-002	3.57380E+000	9	...........
	133	1.78667	7.04131E-002	-8.88103E-005	0.00000E+000	-6.25341E-006	-5.39641E-002	7.04158E-002	3.57380E+000	9	...........
	134	1.8	6.66419E-002	-8.86467E-005	0.00000E+000	-5.90758E-006	-5.39641E-002	6.66409E-002	3.57380E+000	9	...........
	135	1.81333	6.28756E-002	-8.85873E-005	0.00000E+000	-5.56998E-006	-5.39641E-002	6.28773E-002	3.57380E+000	9	...........
	136	1.82667	5.91202E-002	-8.89322E-005	0.00000E+000	-5.25769E-006	-5.39641E-002	5.91226E-002	3.57380E+000	9	...........
	137	1.84	5.53836E-002	-8.89478E-005	0.00000E+000	-4.92626E-006	-5.39641E-002	5.53833E-002	3.57380E+000	9	...........
	138	1.85333	5.16703E-002	-8.86217E-005	0.00000E+000	-4.57911E-006	-5.39641E-002	5.16732E-002	3.57380E+000	9	...........
	139	1.86667	4.79902E-002	-8.88405E-005	0.00000E+000	-4.26348E-006	-5.39641E-002	4.79940E-002	3.57380E+000	9	...........
	140	1.88	4.43079E-002	-8.87968E-005	0.00000E+000	-3.93440E-006	-5.39641E-002	4.43208E-002	3.57380E+000	9	...........
	141	1.89333	4.06359E-002	-8.88686E-005	0.00000E+000	-3.61125E-006	-5.39641E-002	4.06449E-002	3.57380E+000	9	...........
	142	1.90667	3.69627E-002	-8.89718E-005	0.00000E+000	-3.28864E-006	-5.39641E-002	3.69698E-002	3.57380E+000	9	...........
	143	1.92	3.33079E-002	-8.86092E-005	0.00000E+000	-2.95139E-006	-5.39641E-002	3.33106E-002	3.57324E+000	9	...........
	144	1.93333	2.96767E-002	-8.88936E-005	0.00000E+000	-2.63807E-006	-5.39641E-002	2.96775E-002	3.57290E+000	9	...........
	145	1.94667	2.60598E-002	-8.88311E-005	0.00000E+000	-2.31492E-006	-5.39641E-002	2.60584E-002	3.57290E+000	9	...........
	146	1.96	2.24673E-002	-8.88113E-005	0.00000E+000	-1.99535E-006	-5.39641E-002	2.24661E-002	3.57290E+000	9	...........
	147	1.97333	1.88855E-002	-8.90187E-005	0.00000E+000	-1.68116E-006	-5.39641E-002	1.88829E-002	3.57290E+000	9	...........
	148	1.98667	1.53089E-002	-8.89374E-005	0.00000E+000	-1.36154E-006	-5.39641E-002	1.53053E-002	3.57290E+000	9	...........
	149	2	1.17578E-002	-8.89937E-005	0.00000E+000	-1.04637E-006	-5.39641E-002	1.17484E-002	3.57290E+000	9	...........
	150	2.01333	8.21240E-003	-8.88280E-005	0.00000E+000	-7.29492E-007	-5.39641E-002	8.20444E-003	3.57290E+000	9	...........
	151	2.02667	4.70250E-003	-8.87124E-005	0.00000E+000	-4.17170E-007	-5.39641E-002	4.68827E-003	3.57290E+000	9	...........
	152	2.04	1.19993E-003	-8.87655E-005	0.00000E+000	-1.06512E-007	-5.39641E-002	1.18493E-003	3.57290E+000	9	...........
STARTTIMEOFFSET	QUANT	1915.328	Start Time Offset (s)
