EXPLAIN
TAG	PWR800_DISCHARGE
TITLE	LABEL	PWR Cyclic Charge Discharge (Cell) - Discharge Step	Test &Identifier
DATE	LABEL	10-7-2017	Date
TIME	LABEL	15:13:34	Time
NOTES	NOTES	3	&Notes...
	supercap test cell
	0.9mg
	6M KOH
PSTAT	PSTAT	IFC5000-01520	Potentiostat
CAPACITY	QUANT	1.00000E-003	Capacity (A-hr)
CELLTYPE	SELECTOR	1	&Cell Type
WORKINGCONNECTION	SELECTOR	0	&Working Lead
MAXDISCHARGETIME	VARIABLEANDUNITS	1.00000E+002	s	1.00000E+002	second(s)	Max &Discharge Time
DISCHARGEMODE	MULTIPARAM	0	9.00000E-005	&Discharge Mode	Constant Current	Amp(s)
SAMPLETIME	QUANT	1.00000E-002	Sa&mple Period (s)
DISCHARGESTOPAT1	MULTIPARAM	3	0.00000E+000	Discharge Stop At &1	Voltage < Limit	V
DISCHARGESTOPAT2	MULTIPARAM	0	0.00000E+000	Discharge Stop At &2	None	N/A
AESBHCSELECTOR	TOGGLE	F	Save Both Half Cells
IRCOMP	TOGGLE	F	IR &Measure
EOC	QUANT	0	Open Circuit (V)
SEQUENCER	TOGGLE	TRUE	Run as Sequence
PSTATMODEL	IQUANT	53	Pstat Model
PSTATSECTION	LABEL	IFC5000-01520	Pstat Section
PSTATSERIALNO	LABEL	01520	Pstat Serial Number
CTRLMODE	IQUANT	0	Control Mode
ELECTROMETER	IQUANT	1	RE=0 or CS=1
IESTAB	IQUANT	0	I/E Stability
CASPEED	IQUANT	4	Control Amp Speed
CONVENTION	IQUANT	1	Current Convention
ICHRANGE	IQUANT	2	Ich Range
ICHRANGEMODE	TOGGLE	T	Ich Auto Range
ICHOFFSETENABLE	TOGGLE	F	Ich Offset Enable
ICHOFFSET	QUANT	0	Ich Offset (V)
ICHFILTER	IQUANT	1	Ich Filter
VCHRANGE	IQUANT	2	Vch Range
VCHRANGEMODE	TOGGLE	T	Vch Auto Range
VCHOFFSETENABLE	TOGGLE	F	Vch Offset Enable
VCHOFFSET	QUANT	0	Vch Offset (V)
VCHFILTER	IQUANT	1	Vch Filter
IERANGELOWERLIMIT	IQUANT	9	I/E Range Lower Limit
IERANGEMODE	TOGGLE	F	I/E AutoRange
IERANGE	IQUANT	9	I/E Range
ACHSELECT	IQUANT	1	Ach Select
ACHRANGE	IQUANT	2	Ach Range
ACHOFFSETENABLE	TOGGLE	F	Ach Offset Enable
ACHOFFSET	QUANT	0	Ach Offset (V)
ACHFILTER	IQUANT	1	Ach Filter
CABLEID	IQUANT	14	Cable ID
DCCALDATE	LABEL	5-7-2017	DC Calibration Date
ACCALDATE	LABEL	12/3/2015	AC Calibration Date
FRAMEWORKVERSION	QUANT	7.01	Framework Version
INSTRUMENTVERSION	LABEL	4.00	Instrument Version
CURVE	TABLE	161
	Pt	T	Vf	Im	Vu	Pwr	Sig	Ach	Temp	IERange	Over
	#	s	V	A	V	W	V	V	deg C	#	bits
	0	0.013333	8.18016E-001	-8.88249E-005	0.00000E+000	-7.26602E-005	-5.39641E-002	8.18182E-001	3.57240E+000	9	...........
	1	0.026667	8.05976E-001	-8.88020E-005	0.00000E+000	-7.15722E-005	-5.39641E-002	8.06098E-001	3.57240E+000	9	...........
	2	0.04	7.94641E-001	-8.88218E-005	0.00000E+000	-7.05814E-005	-5.39641E-002	7.94752E-001	3.57240E+000	9	...........
	3	0.053333	7.83879E-001	-8.86384E-005	0.00000E+000	-6.94817E-005	-5.39641E-002	7.83996E-001	3.57240E+000	9	...........
	4	0.066667	7.73611E-001	-8.87238E-005	0.00000E+000	-6.86377E-005	-5.39641E-002	7.73736E-001	3.57240E+000	9	...........
	5	0.08	7.63734E-001	-8.88874E-005	0.00000E+000	-6.78863E-005	-5.39641E-002	7.63857E-001	3.57240E+000	9	...........
	6	0.093333	7.54218E-001	-8.85946E-005	0.00000E+000	-6.68196E-005	-5.39641E-002	7.54336E-001	3.57240E+000	9	...........
	7	0.106667	7.45013E-001	-8.85509E-005	0.00000E+000	-6.59716E-005	-5.39641E-002	7.45100E-001	3.57240E+000	9	...........
	8	0.12	7.36075E-001	-8.89197E-005	0.00000E+000	-6.54515E-005	-5.39641E-002	7.36163E-001	3.57240E+000	9	...........
	9	0.133333	7.27415E-001	-8.85655E-005	0.00000E+000	-6.44239E-005	-5.39641E-002	7.27500E-001	3.57240E+000	9	...........
	10	0.146667	7.18958E-001	-8.87363E-005	0.00000E+000	-6.37977E-005	-5.39641E-002	7.19061E-001	3.57240E+000	9	...........
	11	0.16	7.10689E-001	-8.88582E-005	0.00000E+000	-6.31506E-005	-5.39641E-002	7.10806E-001	3.57240E+000	9	...........
	12	0.173333	7.02675E-001	-8.84738E-005	0.00000E+000	-6.21683E-005	-5.39641E-002	7.02765E-001	3.57240E+000	9	...........
	13	0.186667	6.94823E-001	-8.84529E-005	0.00000E+000	-6.14591E-005	-5.39641E-002	6.94922E-001	3.57240E+000	9	...........
	14	0.2	6.87142E-001	-8.87290E-005	0.00000E+000	-6.09694E-005	-5.39641E-002	6.87243E-001	3.57240E+000	9	...........
	15	0.213333	6.79594E-001	-8.87040E-005	0.00000E+000	-6.02827E-005	-5.39641E-002	6.79709E-001	3.57240E+000	9	...........
	16	0.226667	6.72211E-001	-8.84529E-005	0.00000E+000	-5.94590E-005	-5.39641E-002	6.72314E-001	3.57240E+000	9	...........
	17	0.24	6.64923E-001	-8.85238E-005	0.00000E+000	-5.88615E-005	-5.39641E-002	6.65038E-001	3.57240E+000	9	...........
	18	0.253333	6.57773E-001	-8.90551E-005	0.00000E+000	-5.85781E-005	-5.39641E-002	6.57863E-001	3.57240E+000	9	...........
	19	0.266667	6.50761E-001	-8.87228E-005	0.00000E+000	-5.77373E-005	-5.39641E-002	6.50857E-001	3.57240E+000	9	...........
	20	0.28	6.43854E-001	-8.85384E-005	0.00000E+000	-5.70058E-005	-5.39641E-002	6.43916E-001	3.57240E+000	9	...........
	21	0.293333	6.37031E-001	-8.89405E-005	0.00000E+000	-5.66578E-005	-5.39641E-002	6.37114E-001	3.57240E+000	9	...........
	22	0.306667	6.30342E-001	-8.87155E-005	0.00000E+000	-5.59211E-005	-5.39641E-002	6.30397E-001	3.57240E+000	9	...........
	23	0.32	6.23718E-001	-8.89041E-005	0.00000E+000	-5.54511E-005	-5.39641E-002	6.23797E-001	3.57240E+000	9	...........
	24	0.333333	6.17208E-001	-8.86332E-005	0.00000E+000	-5.47051E-005	-5.39641E-002	6.17289E-001	3.57240E+000	9	...........
	25	0.346667	6.10680E-001	-8.86676E-005	0.00000E+000	-5.41475E-005	-5.39641E-002	6.10829E-001	3.57240E+000	9	...........
	26	0.36	6.04371E-001	-8.86248E-005	0.00000E+000	-5.35623E-005	-5.39641E-002	6.04472E-001	3.57240E+000	9	...........
	27	0.373333	5.98096E-001	-8.87436E-005	0.00000E+000	-5.30772E-005	-5.39641E-002	5.98187E-001	3.57240E+000	9	...........
	28	0.386667	5.91898E-001	-8.86342E-005	0.00000E+000	-5.24624E-005	-5.39641E-002	5.91997E-001	3.57240E+000	9	...........
	29	0.4	5.85724E-001	-8.87301E-005	0.00000E+000	-5.19713E-005	-5.39641E-002	5.85842E-001	3.57240E+000	9	...........
	30	0.413333	5.79646E-001	-8.84696E-005	0.00000E+000	-5.12810E-005	-5.39641E-002	5.79771E-001	3.57240E+000	9	...........
	31	0.426667	5.73653E-001	-8.87613E-005	0.00000E+000	-5.09182E-005	-5.39641E-002	5.73748E-001	3.57240E+000	9	...........
	32	0.44	5.67696E-001	-8.85561E-005	0.00000E+000	-5.02730E-005	-5.39641E-002	5.67781E-001	3.57240E+000	9	...........
	33	0.453333	5.61787E-001	-8.86707E-005	0.00000E+000	-4.98140E-005	-5.39641E-002	5.61880E-001	3.57240E+000	9	...........
	34	0.466667	5.55918E-001	-8.85800E-005	0.00000E+000	-4.92433E-005	-5.39641E-002	5.56027E-001	3.57240E+000	9	...........
	35	0.48	5.50118E-001	-8.85238E-005	0.00000E+000	-4.86986E-005	-5.39641E-002	5.50210E-001	3.57240E+000	9	...........
	36	0.493333	5.44368E-001	-8.86103E-005	0.00000E+000	-4.82366E-005	-5.39641E-002	5.44451E-001	3.57240E+000	9	...........
	37	0.506667	5.38642E-001	-8.85446E-005	0.00000E+000	-4.76938E-005	-5.39641E-002	5.38757E-001	3.57240E+000	9	...........
	38	0.52	5.32956E-001	-8.86301E-005	0.00000E+000	-4.72359E-005	-5.39641E-002	5.33059E-001	3.57240E+000	9	...........
	39	0.533333	5.27340E-001	-8.87738E-005	0.00000E+000	-4.68140E-005	-5.39641E-002	5.27454E-001	3.57240E+000	9	...........
	40	0.546667	5.21774E-001	-8.84748E-005	0.00000E+000	-4.61639E-005	-5.39641E-002	5.21844E-001	3.57240E+000	9	...........
	41	0.56	5.16228E-001	-8.83988E-005	0.00000E+000	-4.56340E-005	-5.39641E-002	5.16286E-001	3.57240E+000	9	...........
	42	0.573333	5.10673E-001	-8.87436E-005	0.00000E+000	-4.53189E-005	-5.39641E-002	5.10753E-001	3.57240E+000	9	...........
	43	0.586667	5.05147E-001	-8.85300E-005	0.00000E+000	-4.47207E-005	-5.39641E-002	5.05279E-001	3.57240E+000	9	...........
	44	0.6	4.99711E-001	-8.86551E-005	0.00000E+000	-4.43019E-005	-5.39641E-002	4.99836E-001	3.57240E+000	9	...........
	45	0.613333	4.94300E-001	-8.87342E-005	0.00000E+000	-4.38614E-005	-5.39641E-002	4.94413E-001	3.57240E+000	9	...........
	46	0.626667	4.88905E-001	-8.88166E-005	0.00000E+000	-4.34228E-005	-5.39641E-002	4.89008E-001	3.57240E+000	9	...........
	47	0.64	4.83577E-001	-8.85884E-005	0.00000E+000	-4.28393E-005	-5.39641E-002	4.83644E-001	3.57240E+000	9	...........
	48	0.653333	4.78237E-001	-8.89655E-005	0.00000E+000	-4.25466E-005	-5.39641E-002	4.78295E-001	3.57240E+000	9	...........
	49	0.666667	4.72894E-001	-8.87592E-005	0.00000E+000	-4.19737E-005	-5.39641E-002	4.72946E-001	3.57240E+000	9	...........
	50	0.68	4.67578E-001	-8.85530E-005	0.00000E+000	-4.14054E-005	-5.39641E-002	4.67630E-001	3.57240E+000	9	...........
	51	0.693333	4.62287E-001	-8.88228E-005	0.00000E+000	-4.10616E-005	-5.39641E-002	4.62337E-001	3.57240E+000	9	...........
	52	0.706667	4.57012E-001	-8.86540E-005	0.00000E+000	-4.05159E-005	-5.39641E-002	4.57061E-001	3.57240E+000	9	...........
	53	0.72	4.51766E-001	-8.86686E-005	0.00000E+000	-4.00574E-005	-5.39641E-002	4.51819E-001	3.57240E+000	9	...........
	54	0.733333	4.46547E-001	-8.88884E-005	0.00000E+000	-3.96929E-005	-5.39641E-002	4.46598E-001	3.57240E+000	9	...........
	55	0.746667	4.41349E-001	-8.84477E-005	0.00000E+000	-3.90363E-005	-5.39641E-002	4.41394E-001	3.57240E+000	9	...........
	56	0.76	4.36159E-001	-8.88614E-005	0.00000E+000	-3.87577E-005	-5.39641E-002	4.36208E-001	3.57240E+000	9	...........
	57	0.773333	4.31001E-001	-8.86915E-005	0.00000E+000	-3.82261E-005	-5.39641E-002	4.31044E-001	3.57240E+000	9	...........
	58	0.786667	4.25868E-001	-8.88832E-005	0.00000E+000	-3.78525E-005	-5.39641E-002	4.25911E-001	3.57260E+000	9	...........
	59	0.8	4.20758E-001	-8.88582E-005	0.00000E+000	-3.73878E-005	-5.39641E-002	4.20804E-001	3.57320E+000	9	...........
	60	0.813333	4.15665E-001	-8.89176E-005	0.00000E+000	-3.69599E-005	-5.39641E-002	4.15707E-001	3.57320E+000	9	...........
	61	0.826667	4.10603E-001	-8.86269E-005	0.00000E+000	-3.63905E-005	-5.39641E-002	4.10645E-001	3.57320E+000	9	...........
	62	0.84	4.05549E-001	-8.87613E-005	0.00000E+000	-3.59971E-005	-5.39641E-002	4.05591E-001	3.57320E+000	9	...........
	63	0.853333	4.00519E-001	-8.89353E-005	0.00000E+000	-3.56203E-005	-5.39641E-002	4.00562E-001	3.57320E+000	9	...........
	64	0.866667	3.95496E-001	-8.87749E-005	0.00000E+000	-3.51101E-005	-5.39641E-002	3.95531E-001	3.57320E+000	9	...........
	65	0.88	3.90484E-001	-8.85300E-005	0.00000E+000	-3.45696E-005	-5.39641E-002	3.90517E-001	3.57320E+000	9	...........
	66	0.893333	3.85499E-001	-8.86874E-005	0.00000E+000	-3.41889E-005	-5.39641E-002	3.85536E-001	3.57320E+000	9	...........
	67	0.906667	3.80538E-001	-8.85217E-005	0.00000E+000	-3.36858E-005	-5.39641E-002	3.80581E-001	3.57320E+000	9	...........
	68	0.92	3.75592E-001	-8.86332E-005	0.00000E+000	-3.32899E-005	-5.39641E-002	3.75630E-001	3.57320E+000	9	...........
	69	0.933333	3.70672E-001	-8.87520E-005	0.00000E+000	-3.28979E-005	-5.39641E-002	3.70703E-001	3.57320E+000	9	...........
	70	0.946667	3.65757E-001	-8.89843E-005	0.00000E+000	-3.25466E-005	-5.39641E-002	3.65788E-001	3.57320E+000	9	...........
	71	0.96	3.60852E-001	-8.87457E-005	0.00000E+000	-3.20240E-005	-5.39641E-002	3.60878E-001	3.57320E+000	9	...........
	72	0.97333	3.55964E-001	-8.88749E-005	0.00000E+000	-3.16363E-005	-5.39641E-002	3.55997E-001	3.57320E+000	9	...........
	73	0.98667	3.51099E-001	-8.85946E-005	0.00000E+000	-3.11055E-005	-5.39641E-002	3.51130E-001	3.57320E+000	9	...........
	74	1	3.46261E-001	-8.87342E-005	0.00000E+000	-3.07252E-005	-5.39641E-002	3.46293E-001	3.57320E+000	9	...........
	75	1.01333	3.41458E-001	-8.85394E-005	0.00000E+000	-3.02325E-005	-5.39641E-002	3.41485E-001	3.57320E+000	9	...........
	76	1.02667	3.36674E-001	-8.89624E-005	0.00000E+000	-2.99513E-005	-5.39641E-002	3.36702E-001	3.57320E+000	9	...........
	77	1.04	3.31915E-001	-8.90228E-005	0.00000E+000	-2.95480E-005	-5.39641E-002	3.31951E-001	3.57320E+000	9	...........
	78	1.05333	3.27197E-001	-8.88155E-005	0.00000E+000	-2.90602E-005	-5.39641E-002	3.27231E-001	3.57320E+000	9	...........
	79	1.06667	3.22502E-001	-8.85561E-005	0.00000E+000	-2.85595E-005	-5.39641E-002	3.22531E-001	3.57320E+000	9	...........
	80	1.08	3.17819E-001	-8.87832E-005	0.00000E+000	-2.82170E-005	-5.39641E-002	3.17850E-001	3.57320E+000	9	...........
	81	1.09333	3.13154E-001	-8.83915E-005	0.00000E+000	-2.76801E-005	-5.39641E-002	3.13181E-001	3.57320E+000	9	...........
	82	1.10667	3.08489E-001	-8.89103E-005	0.00000E+000	-2.74278E-005	-5.39641E-002	3.08523E-001	3.57320E+000	9	...........
	83	1.12	3.03851E-001	-8.85613E-005	0.00000E+000	-2.69094E-005	-5.39641E-002	3.03884E-001	3.57320E+000	9	...........
	84	1.13333	2.99240E-001	-8.85915E-005	0.00000E+000	-2.65101E-005	-5.39641E-002	2.99274E-001	3.57320E+000	9	...........
	85	1.14667	2.94655E-001	-8.88124E-005	0.00000E+000	-2.61690E-005	-5.39641E-002	2.94688E-001	3.57320E+000	9	...........
	86	1.16	2.90084E-001	-8.87822E-005	0.00000E+000	-2.57543E-005	-5.39641E-002	2.90117E-001	3.57320E+000	9	...........
	87	1.17333	2.85533E-001	-8.86634E-005	0.00000E+000	-2.53163E-005	-5.39641E-002	2.85563E-001	3.57320E+000	9	...........
	88	1.18667	2.81004E-001	-8.87978E-005	0.00000E+000	-2.49525E-005	-5.39641E-002	2.81035E-001	3.57320E+000	9	...........
	89	1.2	2.76476E-001	-8.87874E-005	0.00000E+000	-2.45476E-005	-5.39641E-002	2.76510E-001	3.57320E+000	9	...........
	90	1.21333	2.71991E-001	-8.88801E-005	0.00000E+000	-2.41746E-005	-5.39641E-002	2.72012E-001	3.57320E+000	9	...........
	91	1.22667	2.67512E-001	-8.87884E-005	0.00000E+000	-2.37520E-005	-5.39641E-002	2.67543E-001	3.57320E+000	9	...........
	92	1.24	2.63057E-001	-8.87488E-005	0.00000E+000	-2.33460E-005	-5.39641E-002	2.63093E-001	3.57320E+000	9	...........
	93	1.25333	2.58630E-001	-8.86790E-005	0.00000E+000	-2.29350E-005	-5.39641E-002	2.58659E-001	3.57320E+000	9	...........
	94	1.26667	2.54210E-001	-8.87290E-005	0.00000E+000	-2.25558E-005	-5.39641E-002	2.54235E-001	3.57320E+000	9	...........
	95	1.28	2.49826E-001	-8.87259E-005	0.00000E+000	-2.21660E-005	-5.39641E-002	2.49850E-001	3.57320E+000	9	...........
	96	1.29333	2.45462E-001	-8.86207E-005	0.00000E+000	-2.17530E-005	-5.39641E-002	2.45482E-001	3.57320E+000	9	...........
	97	1.30667	2.41104E-001	-8.86092E-005	0.00000E+000	-2.13641E-005	-5.39641E-002	2.41126E-001	3.57320E+000	9	...........
	98	1.32	2.36768E-001	-8.85759E-005	0.00000E+000	-2.09719E-005	-5.39641E-002	2.36788E-001	3.57320E+000	9	...........
	99	1.33333	2.32459E-001	-8.87124E-005	0.00000E+000	-2.06220E-005	-5.39641E-002	2.32478E-001	3.57320E+000	9	...........
	100	1.34667	2.28190E-001	-8.86446E-005	0.00000E+000	-2.02278E-005	-5.39641E-002	2.28207E-001	3.57320E+000	9	...........
	101	1.36	2.23923E-001	-8.86603E-005	0.00000E+000	-1.98531E-005	-5.39641E-002	2.23947E-001	3.57320E+000	9	...........
	102	1.37333	2.19687E-001	-8.89176E-005	0.00000E+000	-1.95340E-005	-5.39641E-002	2.19704E-001	3.57320E+000	9	...........
	103	1.38667	2.15467E-001	-8.87645E-005	0.00000E+000	-1.91258E-005	-5.39641E-002	2.15483E-001	3.57320E+000	9	...........
	104	1.4	2.11277E-001	-8.86259E-005	0.00000E+000	-1.87246E-005	-5.39641E-002	2.11290E-001	3.57320E+000	9	...........
	105	1.41333	2.07076E-001	-8.86936E-005	0.00000E+000	-1.83663E-005	-5.39641E-002	2.07088E-001	3.57320E+000	9	...........
	106	1.42667	2.02896E-001	-8.85790E-005	0.00000E+000	-1.79723E-005	-5.39641E-002	2.02918E-001	3.57320E+000	9	...........
	107	1.44	1.98746E-001	-8.85967E-005	0.00000E+000	-1.76082E-005	-5.39641E-002	1.98772E-001	3.57320E+000	9	...........
	108	1.45333	1.94620E-001	-8.87645E-005	0.00000E+000	-1.72754E-005	-5.39641E-002	1.94638E-001	3.57320E+000	9	...........
	109	1.46667	1.90510E-001	-8.85415E-005	0.00000E+000	-1.68680E-005	-5.39641E-002	1.90522E-001	3.57320E+000	9	...........
	110	1.48	1.86406E-001	-8.86082E-005	0.00000E+000	-1.65171E-005	-5.39641E-002	1.86422E-001	3.57320E+000	9	...........
	111	1.49333	1.82326E-001	-8.85009E-005	0.00000E+000	-1.61360E-005	-5.39641E-002	1.82341E-001	3.57320E+000	9	...........
	112	1.50667	1.78263E-001	-8.85436E-005	0.00000E+000	-1.57840E-005	-5.39641E-002	1.78282E-001	3.57320E+000	9	...........
	113	1.52	1.74198E-001	-8.86405E-005	0.00000E+000	-1.54410E-005	-5.39641E-002	1.74216E-001	3.57320E+000	9	...........
	114	1.53333	1.70171E-001	-8.87124E-005	0.00000E+000	-1.50962E-005	-5.39641E-002	1.70182E-001	3.57320E+000	9	...........
	115	1.54667	1.66168E-001	-8.86665E-005	0.00000E+000	-1.47335E-005	-5.39641E-002	1.66185E-001	3.57320E+000	9	...........
	116	1.56	1.62188E-001	-8.86050E-005	0.00000E+000	-1.43707E-005	-5.39641E-002	1.62193E-001	3.57320E+000	9	...........
	117	1.57333	1.58214E-001	-8.87915E-005	0.00000E+000	-1.40481E-005	-5.39641E-002	1.58221E-001	3.57320E+000	9	...........
	118	1.58667	1.54242E-001	-8.87186E-005	0.00000E+000	-1.36841E-005	-5.39641E-002	1.54252E-001	3.57320E+000	9	...........
	119	1.6	1.50299E-001	-8.88259E-005	0.00000E+000	-1.33504E-005	-5.39641E-002	1.50311E-001	3.57320E+000	9	...........
	120	1.61333	1.46374E-001	-8.87092E-005	0.00000E+000	-1.29847E-005	-5.39641E-002	1.46378E-001	3.57320E+000	9	...........
	121	1.62667	1.42463E-001	-8.86634E-005	0.00000E+000	-1.26312E-005	-5.39641E-002	1.42473E-001	3.57320E+000	9	...........
	122	1.64	1.38573E-001	-8.85394E-005	0.00000E+000	-1.22692E-005	-5.39641E-002	1.38588E-001	3.57320E+000	9	...........
	123	1.65333	1.34689E-001	-8.86790E-005	0.00000E+000	-1.19441E-005	-5.39641E-002	1.34700E-001	3.57320E+000	9	...........
	124	1.66667	1.30817E-001	-8.87301E-005	0.00000E+000	-1.16074E-005	-5.39641E-002	1.30828E-001	3.57320E+000	9	...........
	125	1.68	1.26951E-001	-8.87217E-005	0.00000E+000	-1.12633E-005	-5.39641E-002	1.26962E-001	3.57320E+000	9	...........
	126	1.69333	1.23080E-001	-8.89489E-005	0.00000E+000	-1.09478E-005	-5.39641E-002	1.23091E-001	3.57320E+000	9	...........
	127	1.70667	1.19234E-001	-8.83571E-005	0.00000E+000	-1.05352E-005	-5.39641E-002	1.19251E-001	3.57320E+000	9	...........
	128	1.72	1.15410E-001	-8.86061E-005	0.00000E+000	-1.02261E-005	-5.39641E-002	1.15427E-001	3.57320E+000	9	...........
	129	1.73333	1.11603E-001	-8.86738E-005	0.00000E+000	-9.89629E-006	-5.39641E-002	1.11621E-001	3.57320E+000	9	...........
	130	1.74667	1.07836E-001	-8.86488E-005	0.00000E+000	-9.55952E-006	-5.39641E-002	1.07851E-001	3.57320E+000	9	...........
	131	1.76	1.04103E-001	-8.84644E-005	0.00000E+000	-9.20943E-006	-5.39641E-002	1.04106E-001	3.57320E+000	9	...........
	132	1.77333	1.00360E-001	-8.85019E-005	0.00000E+000	-8.88209E-006	-5.39641E-002	1.00367E-001	3.57320E+000	9	...........
	133	1.78667	9.66052E-002	-8.86530E-005	0.00000E+000	-8.56434E-006	-5.39641E-002	9.66142E-002	3.57308E+000	9	...........
	134	1.8	9.28779E-002	-8.88645E-005	0.00000E+000	-8.25355E-006	-5.39641E-002	9.28850E-002	3.57270E+000	9	...........
	135	1.81333	8.91735E-002	-8.88447E-005	0.00000E+000	-7.92260E-006	-5.39641E-002	8.91827E-002	3.57270E+000	9	...........
	136	1.82667	8.54793E-002	-8.86759E-005	0.00000E+000	-7.57995E-006	-5.39641E-002	8.54895E-002	3.57270E+000	9	...........
	137	1.84	8.18052E-002	-8.86269E-005	0.00000E+000	-7.25014E-006	-5.39641E-002	8.18042E-002	3.57270E+000	9	...........
	138	1.85333	7.81404E-002	-8.89562E-005	0.00000E+000	-6.95107E-006	-5.39641E-002	7.81385E-002	3.57270E+000	9	...........
	139	1.86667	7.44776E-002	-8.86905E-005	0.00000E+000	-6.60546E-006	-5.39641E-002	7.44770E-002	3.57270E+000	9	...........
	140	1.88	7.08298E-002	-8.87363E-005	0.00000E+000	-6.28518E-006	-5.39641E-002	7.08310E-002	3.57270E+000	9	...........
	141	1.89333	6.72046E-002	-8.87009E-005	0.00000E+000	-5.96111E-006	-5.39641E-002	6.72050E-002	3.57270E+000	9	...........
	142	1.90667	6.35830E-002	-8.87134E-005	0.00000E+000	-5.64067E-006	-5.39641E-002	6.35803E-002	3.57270E+000	9	...........
	143	1.92	5.99847E-002	-8.88759E-005	0.00000E+000	-5.33120E-006	-5.39641E-002	5.99872E-002	3.57270E+000	9	...........
	144	1.93333	5.63938E-002	-8.85467E-005	0.00000E+000	-4.99349E-006	-5.39641E-002	5.63928E-002	3.57270E+000	9	...........
	145	1.94667	5.28090E-002	-8.85082E-005	0.00000E+000	-4.67403E-006	-5.39641E-002	5.28058E-002	3.57270E+000	9	...........
	146	1.96	4.92583E-002	-8.86561E-005	0.00000E+000	-4.36705E-006	-5.39641E-002	4.92531E-002	3.57270E+000	9	...........
	147	1.97333	4.57313E-002	-8.87103E-005	0.00000E+000	-4.05684E-006	-5.39641E-002	4.57413E-002	3.57270E+000	9	...........
	148	1.98667	4.22109E-002	-8.88957E-005	0.00000E+000	-3.75237E-006	-5.39641E-002	4.22137E-002	3.57270E+000	9	...........
	149	2	3.86970E-002	-8.87780E-005	0.00000E+000	-3.43544E-006	-5.39641E-002	3.86967E-002	3.57270E+000	9	...........
	150	2.01333	3.52085E-002	-8.86290E-005	0.00000E+000	-3.12050E-006	-5.39641E-002	3.52140E-002	3.57270E+000	9	...........
	151	2.02667	3.17430E-002	-8.88061E-005	0.00000E+000	-2.81897E-006	-5.39641E-002	3.17455E-002	3.57270E+000	9	...........
	152	2.04	2.82551E-002	-8.88551E-005	0.00000E+000	-2.51061E-006	-5.39641E-002	2.82575E-002	3.57270E+000	9	...........
	153	2.05333	2.47818E-002	-8.88770E-005	0.00000E+000	-2.20253E-006	-5.39641E-002	2.47805E-002	3.57270E+000	9	...........
	154	2.06667	2.13233E-002	-8.84748E-005	0.00000E+000	-1.88658E-006	-5.39641E-002	2.13173E-002	3.57270E+000	9	...........
	155	2.08	1.78808E-002	-8.87770E-005	0.00000E+000	-1.58741E-006	-5.39641E-002	1.78735E-002	3.57270E+000	9	...........
	156	2.09333	1.44827E-002	-8.85050E-005	0.00000E+000	-1.28179E-006	-5.39641E-002	1.44759E-002	3.57270E+000	9	...........
	157	2.10667	1.11068E-002	-8.84425E-005	0.00000E+000	-9.82315E-007	-5.39641E-002	1.11034E-002	3.57270E+000	9	...........
	158	2.12	7.74509E-003	-8.87072E-005	0.00000E+000	-6.87045E-007	-5.39641E-002	7.73639E-003	3.57270E+000	9	...........
	159	2.13333	4.39577E-003	-8.86738E-005	0.00000E+000	-3.89790E-007	-5.39641E-002	4.38394E-003	3.57270E+000	9	...........
	160	2.14667	1.06623E-003	-8.87728E-005	0.00000E+000	-9.46521E-008	-5.39641E-002	1.05375E-003	3.57270E+000	9	...........
STARTTIMEOFFSET	QUANT	727.78	Start Time Offset (s)
