EXPLAIN
TAG	PWR800_DISCHARGE
TITLE	LABEL	PWR Cyclic Charge Discharge (Cell) - Discharge Step	Test &Identifier
DATE	LABEL	10-7-2017	Date
TIME	LABEL	15:13:39	Time
NOTES	NOTES	3	&Notes...
	supercap test cell
	0.9mg
	6M KOH
PSTAT	PSTAT	IFC5000-01520	Potentiostat
CAPACITY	QUANT	1.00000E-003	Capacity (A-hr)
CELLTYPE	SELECTOR	1	&Cell Type
WORKINGCONNECTION	SELECTOR	0	&Working Lead
MAXDISCHARGETIME	VARIABLEANDUNITS	1.00000E+002	s	1.00000E+002	second(s)	Max &Discharge Time
DISCHARGEMODE	MULTIPARAM	0	9.00000E-005	&Discharge Mode	Constant Current	Amp(s)
SAMPLETIME	QUANT	1.00000E-002	Sa&mple Period (s)
DISCHARGESTOPAT1	MULTIPARAM	3	0.00000E+000	Discharge Stop At &1	Voltage < Limit	V
DISCHARGESTOPAT2	MULTIPARAM	0	0.00000E+000	Discharge Stop At &2	None	N/A
AESBHCSELECTOR	TOGGLE	F	Save Both Half Cells
IRCOMP	TOGGLE	F	IR &Measure
EOC	QUANT	0	Open Circuit (V)
SEQUENCER	TOGGLE	TRUE	Run as Sequence
PSTATMODEL	IQUANT	53	Pstat Model
PSTATSECTION	LABEL	IFC5000-01520	Pstat Section
PSTATSERIALNO	LABEL	01520	Pstat Serial Number
CTRLMODE	IQUANT	0	Control Mode
ELECTROMETER	IQUANT	1	RE=0 or CS=1
IESTAB	IQUANT	0	I/E Stability
CASPEED	IQUANT	4	Control Amp Speed
CONVENTION	IQUANT	1	Current Convention
ICHRANGE	IQUANT	2	Ich Range
ICHRANGEMODE	TOGGLE	T	Ich Auto Range
ICHOFFSETENABLE	TOGGLE	F	Ich Offset Enable
ICHOFFSET	QUANT	0	Ich Offset (V)
ICHFILTER	IQUANT	1	Ich Filter
VCHRANGE	IQUANT	2	Vch Range
VCHRANGEMODE	TOGGLE	T	Vch Auto Range
VCHOFFSETENABLE	TOGGLE	F	Vch Offset Enable
VCHOFFSET	QUANT	0	Vch Offset (V)
VCHFILTER	IQUANT	1	Vch Filter
IERANGELOWERLIMIT	IQUANT	9	I/E Range Lower Limit
IERANGEMODE	TOGGLE	F	I/E AutoRange
IERANGE	IQUANT	9	I/E Range
ACHSELECT	IQUANT	1	Ach Select
ACHRANGE	IQUANT	2	Ach Range
ACHOFFSETENABLE	TOGGLE	F	Ach Offset Enable
ACHOFFSET	QUANT	0	Ach Offset (V)
ACHFILTER	IQUANT	1	Ach Filter
CABLEID	IQUANT	14	Cable ID
DCCALDATE	LABEL	5-7-2017	DC Calibration Date
ACCALDATE	LABEL	12/3/2015	AC Calibration Date
FRAMEWORKVERSION	QUANT	7.01	Framework Version
INSTRUMENTVERSION	LABEL	4.00	Instrument Version
CURVE	TABLE	163
	Pt	T	Vf	Im	Vu	Pwr	Sig	Ach	Temp	IERange	Over
	#	s	V	A	V	W	V	V	deg C	#	bits
	0	0.013333	8.32339E-001	-8.86457E-005	0.00000E+000	-7.37833E-005	-5.39641E-002	8.32491E-001	3.57170E+000	9	...........
	1	0.026667	8.20136E-001	-8.87092E-005	0.00000E+000	-7.27536E-005	-5.39641E-002	8.20288E-001	3.57170E+000	9	...........
	2	0.04	8.08634E-001	-8.85623E-005	0.00000E+000	-7.16145E-005	-5.39641E-002	8.08792E-001	3.57170E+000	9	...........
	3	0.053333	7.97730E-001	-8.85686E-005	0.00000E+000	-7.06538E-005	-5.39641E-002	7.97862E-001	3.57170E+000	9	...........
	4	0.066667	7.87257E-001	-8.86884E-005	0.00000E+000	-6.98206E-005	-5.39641E-002	7.87375E-001	3.57170E+000	9	...........
	5	0.08	7.77222E-001	-8.84644E-005	0.00000E+000	-6.87565E-005	-5.39641E-002	7.77321E-001	3.57170E+000	9	...........
	6	0.093333	7.67478E-001	-8.87405E-005	0.00000E+000	-6.81063E-005	-5.39641E-002	7.67619E-001	3.57170E+000	9	...........
	7	0.106667	7.58105E-001	-8.85884E-005	0.00000E+000	-6.71593E-005	-5.39641E-002	7.58187E-001	3.57170E+000	9	...........
	8	0.12	7.48969E-001	-8.85613E-005	0.00000E+000	-6.63297E-005	-5.39641E-002	7.49091E-001	3.57170E+000	9	...........
	9	0.133333	7.40094E-001	-8.89239E-005	0.00000E+000	-6.58120E-005	-5.39641E-002	7.40225E-001	3.57170E+000	9	...........
	10	0.146667	7.31469E-001	-8.89260E-005	0.00000E+000	-6.50466E-005	-5.39641E-002	7.31579E-001	3.57170E+000	9	...........
	11	0.16	7.23060E-001	-8.85925E-005	0.00000E+000	-6.40577E-005	-5.39641E-002	7.23168E-001	3.57170E+000	9	...........
	12	0.173333	7.14812E-001	-8.85071E-005	0.00000E+000	-6.32659E-005	-5.39641E-002	7.14935E-001	3.57170E+000	9	...........
	13	0.186667	7.06764E-001	-8.87113E-005	0.00000E+000	-6.26980E-005	-5.39641E-002	7.06895E-001	3.57170E+000	9	...........
	14	0.2	6.98922E-001	-8.86957E-005	0.00000E+000	-6.19914E-005	-5.39641E-002	6.99049E-001	3.57170E+000	9	...........
	15	0.213333	6.91223E-001	-8.86092E-005	0.00000E+000	-6.12487E-005	-5.39641E-002	6.91338E-001	3.57170E+000	9	...........
	16	0.226667	6.83668E-001	-8.87051E-005	0.00000E+000	-6.06448E-005	-5.39641E-002	6.83794E-001	3.57170E+000	9	...........
	17	0.24	6.76288E-001	-8.85738E-005	0.00000E+000	-5.99014E-005	-5.39641E-002	6.76403E-001	3.57170E+000	9	...........
	18	0.253333	6.69027E-001	-8.86957E-005	0.00000E+000	-5.93399E-005	-5.39641E-002	6.69127E-001	3.57170E+000	9	...........
	19	0.266667	6.61849E-001	-8.86353E-005	0.00000E+000	-5.86631E-005	-5.39641E-002	6.61955E-001	3.57170E+000	9	...........
	20	0.28	6.54812E-001	-8.87426E-005	0.00000E+000	-5.81097E-005	-5.39641E-002	6.54917E-001	3.57170E+000	9	...........
	21	0.293333	6.47882E-001	-8.85759E-005	0.00000E+000	-5.73867E-005	-5.39641E-002	6.47971E-001	3.57170E+000	9	...........
	22	0.306667	6.41075E-001	-8.88082E-005	0.00000E+000	-5.69327E-005	-5.39641E-002	6.41158E-001	3.57170E+000	9	...........
	23	0.32	6.34330E-001	-8.85873E-005	0.00000E+000	-5.61936E-005	-5.39641E-002	6.34408E-001	3.57170E+000	9	...........
	24	0.333333	6.27717E-001	-8.87717E-005	0.00000E+000	-5.57236E-005	-5.39641E-002	6.27791E-001	3.57170E+000	9	...........
	25	0.346667	6.21200E-001	-8.85905E-005	0.00000E+000	-5.50324E-005	-5.39641E-002	6.21276E-001	3.57170E+000	9	...........
	26	0.36	6.14726E-001	-8.85790E-005	0.00000E+000	-5.44518E-005	-5.39641E-002	6.14831E-001	3.57170E+000	9	...........
	27	0.373333	6.08288E-001	-8.85936E-005	0.00000E+000	-5.38904E-005	-5.39641E-002	6.08418E-001	3.57170E+000	9	...........
	28	0.386667	6.01993E-001	-8.87197E-005	0.00000E+000	-5.34086E-005	-5.39641E-002	6.02146E-001	3.57170E+000	9	...........
	29	0.4	5.95793E-001	-8.87728E-005	0.00000E+000	-5.28902E-005	-5.39641E-002	5.95912E-001	3.57170E+000	9	...........
	30	0.413333	5.89624E-001	-8.88186E-005	0.00000E+000	-5.23696E-005	-5.39641E-002	5.89753E-001	3.57170E+000	9	...........
	31	0.426667	5.83510E-001	-8.86853E-005	0.00000E+000	-5.17487E-005	-5.39641E-002	5.83630E-001	3.57170E+000	9	...........
	32	0.44	5.77490E-001	-8.88020E-005	0.00000E+000	-5.12822E-005	-5.39641E-002	5.77590E-001	3.57170E+000	9	...........
	33	0.453333	5.71515E-001	-8.88176E-005	0.00000E+000	-5.07606E-005	-5.39641E-002	5.71578E-001	3.57170E+000	9	...........
	34	0.466667	5.65583E-001	-8.87269E-005	0.00000E+000	-5.01824E-005	-5.39641E-002	5.65690E-001	3.57170E+000	9	...........
	35	0.48	5.59688E-001	-8.85811E-005	0.00000E+000	-4.95778E-005	-5.39641E-002	5.59817E-001	3.57170E+000	9	...........
	36	0.493333	5.53887E-001	-8.85498E-005	0.00000E+000	-4.90466E-005	-5.39641E-002	5.54009E-001	3.57170E+000	9	...........
	37	0.506667	5.48133E-001	-8.84467E-005	0.00000E+000	-4.84805E-005	-5.39641E-002	5.48205E-001	3.57170E+000	9	...........
	38	0.52	5.42394E-001	-8.87092E-005	0.00000E+000	-4.81154E-005	-5.39641E-002	5.42470E-001	3.57170E+000	9	...........
	39	0.533333	5.36676E-001	-8.86071E-005	0.00000E+000	-4.75533E-005	-5.39641E-002	5.36767E-001	3.57170E+000	9	...........
	40	0.546667	5.31005E-001	-8.85738E-005	0.00000E+000	-4.70331E-005	-5.39641E-002	5.31094E-001	3.57170E+000	9	...........
	41	0.56	5.25396E-001	-8.86728E-005	0.00000E+000	-4.65883E-005	-5.39641E-002	5.25464E-001	3.57170E+000	9	...........
	42	0.573333	5.19811E-001	-8.86728E-005	0.00000E+000	-4.60931E-005	-5.39641E-002	5.19892E-001	3.57170E+000	9	...........
	43	0.586667	5.14274E-001	-8.86613E-005	0.00000E+000	-4.55962E-005	-5.39641E-002	5.14343E-001	3.57170E+000	9	...........
	44	0.6	5.08711E-001	-8.89843E-005	0.00000E+000	-4.52673E-005	-5.39641E-002	5.08833E-001	3.57170E+000	9	...........
	45	0.613333	5.03222E-001	-8.86446E-005	0.00000E+000	-4.46080E-005	-5.39641E-002	5.03333E-001	3.57170E+000	9	...........
	46	0.626667	4.97772E-001	-8.85321E-005	0.00000E+000	-4.40688E-005	-5.39641E-002	4.97863E-001	3.57170E+000	9	...........
	47	0.64	4.92357E-001	-8.85561E-005	0.00000E+000	-4.36012E-005	-5.39641E-002	4.92474E-001	3.57170E+000	9	...........
	48	0.653333	4.86971E-001	-8.86228E-005	0.00000E+000	-4.31567E-005	-5.39641E-002	4.87064E-001	3.57170E+000	9	...........
	49	0.666667	4.81671E-001	-8.86082E-005	0.00000E+000	-4.26800E-005	-5.39641E-002	4.81725E-001	3.57170E+000	9	...........
	50	0.68	4.76322E-001	-8.83988E-005	0.00000E+000	-4.21063E-005	-5.39641E-002	4.76382E-001	3.57170E+000	9	...........
	51	0.693333	4.71008E-001	-8.86738E-005	0.00000E+000	-4.17661E-005	-5.39641E-002	4.71065E-001	3.57170E+000	9	...........
	52	0.706667	4.65717E-001	-8.88864E-005	0.00000E+000	-4.13959E-005	-5.39641E-002	4.65769E-001	3.57170E+000	9	...........
	53	0.72	4.60438E-001	-8.85967E-005	0.00000E+000	-4.07933E-005	-5.39641E-002	4.60491E-001	3.57170E+000	9	...........
	54	0.733333	4.55177E-001	-8.86071E-005	0.00000E+000	-4.03319E-005	-5.39641E-002	4.55227E-001	3.57170E+000	9	...........
	55	0.746667	4.49948E-001	-8.82737E-005	0.00000E+000	-3.97186E-005	-5.39641E-002	4.50003E-001	3.57170E+000	9	...........
	56	0.76	4.44743E-001	-8.85530E-005	0.00000E+000	-3.93833E-005	-5.39641E-002	4.44796E-001	3.57170E+000	9	...........
	57	0.773333	4.39552E-001	-8.89364E-005	0.00000E+000	-3.90922E-005	-5.39641E-002	4.39612E-001	3.57170E+000	9	...........
	58	0.786667	4.34373E-001	-8.85498E-005	0.00000E+000	-3.84636E-005	-5.39641E-002	4.34422E-001	3.57170E+000	9	...........
	59	0.8	4.29213E-001	-8.88947E-005	0.00000E+000	-3.81547E-005	-5.39641E-002	4.29263E-001	3.57170E+000	9	...........
	60	0.813333	4.24072E-001	-8.88916E-005	0.00000E+000	-3.76965E-005	-5.39641E-002	4.24125E-001	3.57170E+000	9	...........
	61	0.826667	4.18959E-001	-8.85092E-005	0.00000E+000	-3.70817E-005	-5.39641E-002	4.19014E-001	3.57170E+000	9	...........
	62	0.84	4.13843E-001	-8.88405E-005	0.00000E+000	-3.67660E-005	-5.39641E-002	4.13891E-001	3.57170E+000	9	...........
	63	0.853333	4.08758E-001	-8.87103E-005	0.00000E+000	-3.62610E-005	-5.39641E-002	4.08802E-001	3.57170E+000	9	...........
	64	0.866667	4.03696E-001	-8.85144E-005	0.00000E+000	-3.57329E-005	-5.39641E-002	4.03739E-001	3.57170E+000	9	...........
	65	0.88	3.98648E-001	-8.86373E-005	0.00000E+000	-3.53351E-005	-5.39641E-002	3.98690E-001	3.57170E+000	9	...........
	66	0.893333	3.93635E-001	-8.88843E-005	0.00000E+000	-3.49880E-005	-5.39641E-002	3.93672E-001	3.57170E+000	9	...........
	67	0.906667	3.88625E-001	-8.89020E-005	0.00000E+000	-3.45495E-005	-5.39641E-002	3.88658E-001	3.57170E+000	9	...........
	68	0.92	3.83630E-001	-8.86696E-005	0.00000E+000	-3.40163E-005	-5.39641E-002	3.83672E-001	3.57170E+000	9	...........
	69	0.933333	3.78654E-001	-8.86592E-005	0.00000E+000	-3.35712E-005	-5.39641E-002	3.78693E-001	3.57170E+000	9	...........
	70	0.946667	3.73699E-001	-8.88124E-005	0.00000E+000	-3.31891E-005	-5.39641E-002	3.73734E-001	3.57170E+000	9	...........
	71	0.96	3.68763E-001	-8.86801E-005	0.00000E+000	-3.27019E-005	-5.39641E-002	3.68803E-001	3.57170E+000	9	...........
	72	0.97333	3.63859E-001	-8.85165E-005	0.00000E+000	-3.22076E-005	-5.39641E-002	3.63896E-001	3.57170E+000	9	...........
	73	0.98667	3.58967E-001	-8.85290E-005	0.00000E+000	-3.17790E-005	-5.39641E-002	3.59004E-001	3.57170E+000	9	...........
	74	1	3.54099E-001	-8.87843E-005	0.00000E+000	-3.14384E-005	-5.39641E-002	3.54134E-001	3.57170E+000	9	...........
	75	1.01333	3.49262E-001	-8.88280E-005	0.00000E+000	-3.10243E-005	-5.39641E-002	3.49302E-001	3.57170E+000	9	...........
	76	1.02667	3.44445E-001	-8.87843E-005	0.00000E+000	-3.05813E-005	-5.39641E-002	3.44481E-001	3.57170E+000	9	...........
	77	1.04	3.39638E-001	-8.86697E-005	0.00000E+000	-3.01155E-005	-5.39641E-002	3.39678E-001	3.57170E+000	9	...........
	78	1.05333	3.34850E-001	-8.88134E-005	0.00000E+000	-2.97391E-005	-5.39641E-002	3.34890E-001	3.57170E+000	9	...........
	79	1.06667	3.30080E-001	-8.88416E-005	0.00000E+000	-2.93249E-005	-5.39641E-002	3.30114E-001	3.57170E+000	9	...........
	80	1.08	3.25343E-001	-8.88843E-005	0.00000E+000	-2.89179E-005	-5.39641E-002	3.25376E-001	3.57170E+000	9	...........
	81	1.09333	3.20614E-001	-8.85894E-005	0.00000E+000	-2.84030E-005	-5.39641E-002	3.20649E-001	3.57170E+000	9	...........
	82	1.10667	3.15905E-001	-8.88238E-005	0.00000E+000	-2.80599E-005	-5.39641E-002	3.15937E-001	3.57170E+000	9	...........
	83	1.12	3.11218E-001	-8.85800E-005	0.00000E+000	-2.75677E-005	-5.39641E-002	3.11253E-001	3.57170E+000	9	...........
	84	1.13333	3.06574E-001	-8.89572E-005	0.00000E+000	-2.72720E-005	-5.39641E-002	3.06604E-001	3.57170E+000	9	...........
	85	1.14667	3.01935E-001	-8.89780E-005	0.00000E+000	-2.68656E-005	-5.39641E-002	3.01971E-001	3.57170E+000	9	...........
	86	1.16	2.97319E-001	-8.87624E-005	0.00000E+000	-2.63908E-005	-5.39641E-002	2.97354E-001	3.57170E+000	9	...........
	87	1.17333	2.92737E-001	-8.86478E-005	0.00000E+000	-2.59504E-005	-5.39641E-002	2.92768E-001	3.57170E+000	9	...........
	88	1.18667	2.88151E-001	-8.86040E-005	0.00000E+000	-2.55313E-005	-5.39641E-002	2.88180E-001	3.57170E+000	9	...........
	89	1.2	2.83592E-001	-8.86592E-005	0.00000E+000	-2.51430E-005	-5.39641E-002	2.83623E-001	3.57170E+000	9	...........
	90	1.21333	2.79058E-001	-8.86634E-005	0.00000E+000	-2.47422E-005	-5.39641E-002	2.79084E-001	3.57170E+000	9	...........
	91	1.22667	2.74530E-001	-8.88311E-005	0.00000E+000	-2.43868E-005	-5.39641E-002	2.74563E-001	3.57170E+000	9	...........
	92	1.24	2.70029E-001	-8.87843E-005	0.00000E+000	-2.39743E-005	-5.39641E-002	2.70056E-001	3.57170E+000	9	...........
	93	1.25333	2.65550E-001	-8.86571E-005	0.00000E+000	-2.35429E-005	-5.39641E-002	2.65579E-001	3.57170E+000	9	...........
	94	1.26667	2.61097E-001	-8.88124E-005	0.00000E+000	-2.31887E-005	-5.39641E-002	2.61125E-001	3.57170E+000	9	...........
	95	1.28	2.56680E-001	-8.87863E-005	0.00000E+000	-2.27897E-005	-5.39641E-002	2.56712E-001	3.57170E+000	9	...........
	96	1.29333	2.52265E-001	-8.86436E-005	0.00000E+000	-2.23617E-005	-5.39641E-002	2.52292E-001	3.57170E+000	9	...........
	97	1.30667	2.47876E-001	-8.85821E-005	0.00000E+000	-2.19574E-005	-5.39641E-002	2.47900E-001	3.57170E+000	9	...........
	98	1.32	2.43506E-001	-8.88707E-005	0.00000E+000	-2.16405E-005	-5.39641E-002	2.43531E-001	3.57170E+000	9	...........
	99	1.33333	2.39144E-001	-8.83810E-005	0.00000E+000	-2.11358E-005	-5.39641E-002	2.39167E-001	3.57170E+000	9	...........
	100	1.34667	2.34806E-001	-8.90072E-005	0.00000E+000	-2.08994E-005	-5.39641E-002	2.34830E-001	3.57170E+000	9	...........
	101	1.36	2.30493E-001	-8.86915E-005	0.00000E+000	-2.04428E-005	-5.39641E-002	2.30512E-001	3.57170E+000	9	...........
	102	1.37333	2.26190E-001	-8.88749E-005	0.00000E+000	-2.01026E-005	-5.39641E-002	2.26213E-001	3.57170E+000	9	...........
	103	1.38667	2.21915E-001	-8.87228E-005	0.00000E+000	-1.96889E-005	-5.39641E-002	2.21935E-001	3.57170E+000	9	...........
	104	1.4	2.17638E-001	-8.89801E-005	0.00000E+000	-1.93655E-005	-5.39641E-002	2.17658E-001	3.57175E+000	9	...........
	105	1.41333	2.13396E-001	-8.87134E-005	0.00000E+000	-1.89311E-005	-5.39641E-002	2.13418E-001	3.57180E+000	9	...........
	106	1.42667	2.09175E-001	-8.88457E-005	0.00000E+000	-1.85843E-005	-5.39641E-002	2.09195E-001	3.57180E+000	9	...........
	107	1.44	2.04971E-001	-8.86103E-005	0.00000E+000	-1.81626E-005	-5.39641E-002	2.04998E-001	3.57180E+000	9	...........
	108	1.45333	2.00798E-001	-8.84508E-005	0.00000E+000	-1.77607E-005	-5.39641E-002	2.00820E-001	3.57180E+000	9	...........
	109	1.46667	1.96651E-001	-8.85644E-005	0.00000E+000	-1.74163E-005	-5.39641E-002	1.96672E-001	3.57180E+000	9	...........
	110	1.48	1.92523E-001	-8.88134E-005	0.00000E+000	-1.70986E-005	-5.39641E-002	1.92543E-001	3.57180E+000	9	...........
	111	1.49333	1.88416E-001	-8.85655E-005	0.00000E+000	-1.66871E-005	-5.39641E-002	1.88439E-001	3.57180E+000	9	...........
	112	1.50667	1.84315E-001	-8.86259E-005	0.00000E+000	-1.63351E-005	-5.39641E-002	1.84343E-001	3.57180E+000	9	...........
	113	1.52	1.80229E-001	-8.86082E-005	0.00000E+000	-1.59698E-005	-5.39641E-002	1.80249E-001	3.57180E+000	9	...........
	114	1.53333	1.76158E-001	-8.84623E-005	0.00000E+000	-1.55833E-005	-5.39641E-002	1.76175E-001	3.57180E+000	9	...........
	115	1.54667	1.72103E-001	-8.88374E-005	0.00000E+000	-1.52892E-005	-5.39641E-002	1.72125E-001	3.57180E+000	9	...........
	116	1.56	1.68061E-001	-8.85790E-005	0.00000E+000	-1.48867E-005	-5.39641E-002	1.68081E-001	3.57180E+000	9	...........
	117	1.57333	1.64043E-001	-8.88864E-005	0.00000E+000	-1.45812E-005	-5.39641E-002	1.64060E-001	3.57180E+000	9	...........
	118	1.58667	1.60052E-001	-8.85696E-005	0.00000E+000	-1.41757E-005	-5.39641E-002	1.60066E-001	3.57180E+000	9	...........
	119	1.6	1.56085E-001	-8.86655E-005	0.00000E+000	-1.38393E-005	-5.39641E-002	1.56096E-001	3.57180E+000	9	...........
	120	1.61333	1.52118E-001	-8.87707E-005	0.00000E+000	-1.35036E-005	-5.39641E-002	1.52129E-001	3.57180E+000	9	...........
	121	1.62667	1.48174E-001	-8.87374E-005	0.00000E+000	-1.31485E-005	-5.39641E-002	1.48188E-001	3.57180E+000	9	...........
	122	1.64	1.44229E-001	-8.87249E-005	0.00000E+000	-1.27967E-005	-5.39641E-002	1.44240E-001	3.57180E+000	9	...........
	123	1.65333	1.40299E-001	-8.85352E-005	0.00000E+000	-1.24214E-005	-5.39641E-002	1.40312E-001	3.57180E+000	9	...........
	124	1.66667	1.36393E-001	-8.87843E-005	0.00000E+000	-1.21095E-005	-5.39641E-002	1.36404E-001	3.57180E+000	9	...........
	125	1.68	1.32498E-001	-8.87217E-005	0.00000E+000	-1.17554E-005	-5.39641E-002	1.32508E-001	3.57180E+000	9	...........
	126	1.69333	1.28613E-001	-8.86405E-005	0.00000E+000	-1.14003E-005	-5.39641E-002	1.28620E-001	3.57180E+000	9	...........
	127	1.70667	1.24755E-001	-8.85811E-005	0.00000E+000	-1.10509E-005	-5.39641E-002	1.24759E-001	3.57180E+000	9	...........
	128	1.72	1.20915E-001	-8.85530E-005	0.00000E+000	-1.07074E-005	-5.39641E-002	1.20929E-001	3.57180E+000	9	...........
	129	1.73333	1.17084E-001	-8.87561E-005	0.00000E+000	-1.03919E-005	-5.39641E-002	1.17095E-001	3.57180E+000	9	...........
	130	1.74667	1.13271E-001	-8.87259E-005	0.00000E+000	-1.00501E-005	-5.39641E-002	1.13282E-001	3.57180E+000	9	...........
	131	1.76	1.09453E-001	-8.85467E-005	0.00000E+000	-9.69169E-006	-5.39641E-002	1.09460E-001	3.57180E+000	9	...........
	132	1.77333	1.05655E-001	-8.87290E-005	0.00000E+000	-9.37464E-006	-5.39641E-002	1.05663E-001	3.57180E+000	9	...........
	133	1.78667	1.01879E-001	-8.87040E-005	0.00000E+000	-9.03704E-006	-5.39641E-002	1.01885E-001	3.57180E+000	9	...........
	134	1.8	9.81361E-002	-8.89676E-005	0.00000E+000	-8.73093E-006	-5.39641E-002	9.81366E-002	3.57180E+000	9	...........
	135	1.81333	9.44152E-002	-8.84238E-005	0.00000E+000	-8.34855E-006	-5.39641E-002	9.44171E-002	3.57180E+000	9	...........
	136	1.82667	9.06951E-002	-8.88999E-005	0.00000E+000	-8.06278E-006	-5.39641E-002	9.07058E-002	3.57180E+000	9	...........
	137	1.84	8.69823E-002	-8.87269E-005	0.00000E+000	-7.71768E-006	-5.39641E-002	8.69887E-002	3.57180E+000	9	...........
	138	1.85333	8.32819E-002	-8.86488E-005	0.00000E+000	-7.38285E-006	-5.39641E-002	8.32874E-002	3.57180E+000	9	...........
	139	1.86667	7.95963E-002	-8.85405E-005	0.00000E+000	-7.04750E-006	-5.39641E-002	7.95968E-002	3.57180E+000	9	...........
	140	1.88	7.59211E-002	-8.90301E-005	0.00000E+000	-6.75927E-006	-5.39641E-002	7.59273E-002	3.57180E+000	9	...........
	141	1.89333	7.22690E-002	-8.87863E-005	0.00000E+000	-6.41650E-006	-5.39641E-002	7.22677E-002	3.57180E+000	9	...........
	142	1.90667	6.86286E-002	-8.87467E-005	0.00000E+000	-6.09056E-006	-5.39641E-002	6.86258E-002	3.57180E+000	9	...........
	143	1.92	6.50025E-002	-8.84894E-005	0.00000E+000	-5.75203E-006	-5.39641E-002	6.49947E-002	3.57180E+000	9	...........
	144	1.93333	6.13656E-002	-8.86228E-005	0.00000E+000	-5.43839E-006	-5.39641E-002	6.13689E-002	3.57180E+000	9	...........
	145	1.94667	5.77695E-002	-8.84581E-005	0.00000E+000	-5.11018E-006	-5.39641E-002	5.77694E-002	3.57180E+000	9	...........
	146	1.96	5.42009E-002	-8.87103E-005	0.00000E+000	-4.80817E-006	-5.39641E-002	5.41974E-002	3.57180E+000	9	...........
	147	1.97333	5.06487E-002	-8.86863E-005	0.00000E+000	-4.49185E-006	-5.39641E-002	5.06463E-002	3.57180E+000	9	...........
	148	1.98667	4.71135E-002	-8.86571E-005	0.00000E+000	-4.17695E-006	-5.39641E-002	4.71192E-002	3.57180E+000	9	...........
	149	2	4.35972E-002	-8.86957E-005	0.00000E+000	-3.86689E-006	-5.39641E-002	4.36040E-002	3.57180E+000	9	...........
	150	2.01333	4.00822E-002	-8.86269E-005	0.00000E+000	-3.55236E-006	-5.39641E-002	4.00850E-002	3.57180E+000	9	...........
	151	2.02667	3.65775E-002	-8.90083E-005	0.00000E+000	-3.25570E-006	-5.39641E-002	3.65853E-002	3.57180E+000	9	...........
	152	2.04	3.30867E-002	-8.85092E-005	0.00000E+000	-2.92848E-006	-5.39641E-002	3.30910E-002	3.57180E+000	9	...........
	153	2.05333	2.96070E-002	-8.86530E-005	0.00000E+000	-2.62475E-006	-5.39641E-002	2.96066E-002	3.57180E+000	9	...........
	154	2.06667	2.61516E-002	-8.87405E-005	0.00000E+000	-2.32070E-006	-5.39641E-002	2.61561E-002	3.57180E+000	9	...........
	155	2.08	2.27223E-002	-8.85238E-005	0.00000E+000	-2.01147E-006	-5.39641E-002	2.27181E-002	3.57180E+000	9	...........
	156	2.09333	1.93048E-002	-8.86321E-005	0.00000E+000	-1.71102E-006	-5.39641E-002	1.93021E-002	3.57180E+000	9	...........
	157	2.10667	1.59204E-002	-8.87353E-005	0.00000E+000	-1.41270E-006	-5.39641E-002	1.59109E-002	3.57180E+000	9	...........
	158	2.12	1.25311E-002	-8.86144E-005	0.00000E+000	-1.11043E-006	-5.39641E-002	1.25256E-002	3.57180E+000	9	...........
	159	2.13333	9.16137E-003	-8.87353E-005	0.00000E+000	-8.12937E-007	-5.39641E-002	9.15254E-003	3.57180E+000	9	...........
	160	2.14667	5.81746E-003	-8.88468E-005	0.00000E+000	-5.16863E-007	-5.39641E-002	5.80645E-003	3.57180E+000	9	...........
	161	2.16	2.50290E-003	-8.88582E-005	0.00000E+000	-2.22403E-007	-5.39641E-002	2.49110E-003	3.57180E+000	9	...........
	162	2.165	2.21576E-004	-8.87554E-005	0.00000E+000	-1.96661E-008	-5.39641E-002	2.06098E-004	3.57180E+000	9	...........
STARTTIMEOFFSET	QUANT	732.36	Start Time Offset (s)
