EXPLAIN
TAG	PWR800_DISCHARGE
TITLE	LABEL	PWR Cyclic Charge Discharge (Cell) - Discharge Step	Test &Identifier
DATE	LABEL	10-7-2017	Date
TIME	LABEL	15:41:01	Time
NOTES	NOTES	3	&Notes...
	supercap test cell
	0.9mg
	6M KOH
PSTAT	PSTAT	IFC5000-01520	Potentiostat
CAPACITY	QUANT	1.00000E-003	Capacity (A-hr)
CELLTYPE	SELECTOR	1	&Cell Type
WORKINGCONNECTION	SELECTOR	0	&Working Lead
MAXDISCHARGETIME	VARIABLEANDUNITS	1.00000E+002	s	1.00000E+002	second(s)	Max &Discharge Time
DISCHARGEMODE	MULTIPARAM	0	9.00000E-005	&Discharge Mode	Constant Current	Amp(s)
SAMPLETIME	QUANT	1.00000E-002	Sa&mple Period (s)
DISCHARGESTOPAT1	MULTIPARAM	3	0.00000E+000	Discharge Stop At &1	Voltage < Limit	V
DISCHARGESTOPAT2	MULTIPARAM	0	0.00000E+000	Discharge Stop At &2	None	N/A
AESBHCSELECTOR	TOGGLE	F	Save Both Half Cells
IRCOMP	TOGGLE	F	IR &Measure
EOC	QUANT	0	Open Circuit (V)
SEQUENCER	TOGGLE	TRUE	Run as Sequence
PSTATMODEL	IQUANT	53	Pstat Model
PSTATSECTION	LABEL	IFC5000-01520	Pstat Section
PSTATSERIALNO	LABEL	01520	Pstat Serial Number
CTRLMODE	IQUANT	0	Control Mode
ELECTROMETER	IQUANT	1	RE=0 or CS=1
IESTAB	IQUANT	0	I/E Stability
CASPEED	IQUANT	4	Control Amp Speed
CONVENTION	IQUANT	1	Current Convention
ICHRANGE	IQUANT	2	Ich Range
ICHRANGEMODE	TOGGLE	T	Ich Auto Range
ICHOFFSETENABLE	TOGGLE	F	Ich Offset Enable
ICHOFFSET	QUANT	0	Ich Offset (V)
ICHFILTER	IQUANT	1	Ich Filter
VCHRANGE	IQUANT	2	Vch Range
VCHRANGEMODE	TOGGLE	T	Vch Auto Range
VCHOFFSETENABLE	TOGGLE	F	Vch Offset Enable
VCHOFFSET	QUANT	0	Vch Offset (V)
VCHFILTER	IQUANT	1	Vch Filter
IERANGELOWERLIMIT	IQUANT	9	I/E Range Lower Limit
IERANGEMODE	TOGGLE	F	I/E AutoRange
IERANGE	IQUANT	9	I/E Range
ACHSELECT	IQUANT	1	Ach Select
ACHRANGE	IQUANT	2	Ach Range
ACHOFFSETENABLE	TOGGLE	F	Ach Offset Enable
ACHOFFSET	QUANT	0	Ach Offset (V)
ACHFILTER	IQUANT	1	Ach Filter
CABLEID	IQUANT	14	Cable ID
DCCALDATE	LABEL	5-7-2017	DC Calibration Date
ACCALDATE	LABEL	12/3/2015	AC Calibration Date
FRAMEWORKVERSION	QUANT	7.01	Framework Version
INSTRUMENTVERSION	LABEL	4.00	Instrument Version
CURVE	TABLE	152
	Pt	T	Vf	Im	Vu	Pwr	Sig	Ach	Temp	IERange	Over
	#	s	V	A	V	W	V	V	deg C	#	bits
	0	0.013333	8.06118E-001	-8.88322E-005	0.00000E+000	-7.16092E-005	-5.39641E-002	8.06242E-001	3.57320E+000	9	...........
	1	0.026667	7.92762E-001	-8.87249E-005	0.00000E+000	-7.03377E-005	-5.39641E-002	7.92868E-001	3.57320E+000	9	...........
	2	0.04	7.80252E-001	-8.85686E-005	0.00000E+000	-6.91058E-005	-5.39641E-002	7.80361E-001	3.57320E+000	9	...........
	3	0.053333	7.68463E-001	-8.87197E-005	0.00000E+000	-6.81778E-005	-5.39641E-002	7.68576E-001	3.57320E+000	9	...........
	4	0.066667	7.57258E-001	-8.91635E-005	0.00000E+000	-6.75197E-005	-5.39641E-002	7.57366E-001	3.57320E+000	9	...........
	5	0.08	7.46526E-001	-8.89187E-005	0.00000E+000	-6.63801E-005	-5.39641E-002	7.46655E-001	3.57320E+000	9	...........
	6	0.093333	7.36200E-001	-8.86926E-005	0.00000E+000	-6.52955E-005	-5.39641E-002	7.36336E-001	3.57320E+000	9	...........
	7	0.106667	7.26300E-001	-8.88655E-005	0.00000E+000	-6.45430E-005	-5.39641E-002	7.26415E-001	3.57320E+000	9	...........
	8	0.12	7.16685E-001	-8.89260E-005	0.00000E+000	-6.37319E-005	-5.39641E-002	7.16843E-001	3.57320E+000	9	...........
	9	0.133333	7.07404E-001	-8.88155E-005	0.00000E+000	-6.28285E-005	-5.39641E-002	7.07565E-001	3.57320E+000	9	...........
	10	0.146667	6.98423E-001	-8.89364E-005	0.00000E+000	-6.21152E-005	-5.39641E-002	6.98568E-001	3.57320E+000	9	...........
	11	0.16	6.89671E-001	-8.86561E-005	0.00000E+000	-6.11436E-005	-5.39641E-002	6.89825E-001	3.57320E+000	9	...........
	12	0.173333	6.81168E-001	-8.88364E-005	0.00000E+000	-6.05125E-005	-5.39641E-002	6.81335E-001	3.57320E+000	9	...........
	13	0.186667	6.72880E-001	-8.87905E-005	0.00000E+000	-5.97454E-005	-5.39641E-002	6.73010E-001	3.57320E+000	9	...........
	14	0.2	6.64767E-001	-8.88322E-005	0.00000E+000	-5.90527E-005	-5.39641E-002	6.64914E-001	3.57320E+000	9	...........
	15	0.213333	6.56858E-001	-8.86613E-005	0.00000E+000	-5.82379E-005	-5.39641E-002	6.56957E-001	3.57320E+000	9	...........
	16	0.226667	6.49123E-001	-8.87509E-005	0.00000E+000	-5.76102E-005	-5.39641E-002	6.49231E-001	3.57320E+000	9	...........
	17	0.24	6.41565E-001	-8.88041E-005	0.00000E+000	-5.69736E-005	-5.39641E-002	6.41646E-001	3.57320E+000	9	...........
	18	0.253333	6.34115E-001	-8.89041E-005	0.00000E+000	-5.63754E-005	-5.39641E-002	6.34216E-001	3.57320E+000	9	...........
	19	0.266667	6.26846E-001	-8.86624E-005	0.00000E+000	-5.55776E-005	-5.39641E-002	6.26948E-001	3.57320E+000	9	...........
	20	0.28	6.19712E-001	-8.87770E-005	0.00000E+000	-5.50161E-005	-5.39641E-002	6.19792E-001	3.57320E+000	9	...........
	21	0.293333	6.12619E-001	-8.88978E-005	0.00000E+000	-5.44605E-005	-5.39641E-002	6.12766E-001	3.57320E+000	9	...........
	22	0.306667	6.05689E-001	-8.88093E-005	0.00000E+000	-5.37908E-005	-5.39641E-002	6.05855E-001	3.57320E+000	9	...........
	23	0.32	5.98908E-001	-8.91468E-005	0.00000E+000	-5.33907E-005	-5.39641E-002	5.99041E-001	3.57320E+000	9	...........
	24	0.333333	5.92222E-001	-8.87019E-005	0.00000E+000	-5.25312E-005	-5.39641E-002	5.92361E-001	3.57320E+000	9	...........
	25	0.346667	5.85615E-001	-8.89135E-005	0.00000E+000	-5.20691E-005	-5.39641E-002	5.85753E-001	3.57320E+000	9	...........
	26	0.36	5.79109E-001	-8.88061E-005	0.00000E+000	-5.14284E-005	-5.39641E-002	5.79258E-001	3.57320E+000	9	...........
	27	0.373333	5.72736E-001	-8.88718E-005	0.00000E+000	-5.09000E-005	-5.39641E-002	5.72852E-001	3.57320E+000	9	...........
	28	0.386667	5.66413E-001	-8.89718E-005	0.00000E+000	-5.03948E-005	-5.39641E-002	5.66539E-001	3.57320E+000	9	...........
	29	0.4	5.60151E-001	-8.85915E-005	0.00000E+000	-4.96246E-005	-5.39641E-002	5.60275E-001	3.57320E+000	9	...........
	30	0.413333	5.53975E-001	-8.87217E-005	0.00000E+000	-4.91496E-005	-5.39641E-002	5.54114E-001	3.57320E+000	9	...........
	31	0.426667	5.47889E-001	-8.88853E-005	0.00000E+000	-4.86993E-005	-5.39641E-002	5.48010E-001	3.57320E+000	9	...........
	32	0.44	5.41852E-001	-8.87395E-005	0.00000E+000	-4.80836E-005	-5.39641E-002	5.41970E-001	3.57320E+000	9	...........
	33	0.453333	5.35853E-001	-8.90072E-005	0.00000E+000	-4.76948E-005	-5.39641E-002	5.35976E-001	3.57320E+000	9	...........
	34	0.466667	5.29946E-001	-8.86155E-005	0.00000E+000	-4.69614E-005	-5.39641E-002	5.30054E-001	3.57320E+000	9	...........
	35	0.48	5.24105E-001	-8.88947E-005	0.00000E+000	-4.65902E-005	-5.39641E-002	5.24210E-001	3.57320E+000	9	...........
	36	0.493333	5.18323E-001	-8.87384E-005	0.00000E+000	-4.59952E-005	-5.39641E-002	5.18417E-001	3.57259E+000	9	...........
	37	0.506667	5.12598E-001	-8.88051E-005	0.00000E+000	-4.55213E-005	-5.39641E-002	5.12705E-001	3.57250E+000	9	...........
	38	0.52	5.06871E-001	-8.86519E-005	0.00000E+000	-4.49351E-005	-5.39641E-002	5.07025E-001	3.57250E+000	9	...........
	39	0.533333	5.01245E-001	-8.84988E-005	0.00000E+000	-4.43596E-005	-5.39641E-002	5.01380E-001	3.57250E+000	9	...........
	40	0.546667	4.95655E-001	-8.90843E-005	0.00000E+000	-4.41551E-005	-5.39641E-002	4.95749E-001	3.57250E+000	9	...........
	41	0.56	4.90111E-001	-8.87238E-005	0.00000E+000	-4.34846E-005	-5.39641E-002	4.90216E-001	3.57250E+000	9	...........
	42	0.573333	4.84652E-001	-8.88718E-005	0.00000E+000	-4.30719E-005	-5.39641E-002	4.84744E-001	3.57250E+000	9	...........
	43	0.586667	4.79217E-001	-8.87332E-005	0.00000E+000	-4.25225E-005	-5.39641E-002	4.79288E-001	3.57250E+000	9	...........
	44	0.6	4.73780E-001	-8.85988E-005	0.00000E+000	-4.19763E-005	-5.39641E-002	4.73843E-001	3.57250E+000	9	...........
	45	0.613333	4.68360E-001	-8.89593E-005	0.00000E+000	-4.16650E-005	-5.39641E-002	4.68425E-001	3.57250E+000	9	...........
	46	0.626667	4.62982E-001	-8.88530E-005	0.00000E+000	-4.11373E-005	-5.39641E-002	4.63048E-001	3.57250E+000	9	...........
	47	0.64	4.57633E-001	-8.89374E-005	0.00000E+000	-4.07007E-005	-5.39641E-002	4.57701E-001	3.57250E+000	9	...........
	48	0.653333	4.52311E-001	-8.89155E-005	0.00000E+000	-4.02174E-005	-5.39641E-002	4.52378E-001	3.57250E+000	9	...........
	49	0.666667	4.47033E-001	-8.88749E-005	0.00000E+000	-3.97300E-005	-5.39641E-002	4.47103E-001	3.57250E+000	9	...........
	50	0.68	4.41766E-001	-8.87947E-005	0.00000E+000	-3.92265E-005	-5.39641E-002	4.41830E-001	3.57250E+000	9	...........
	51	0.693333	4.36516E-001	-8.86332E-005	0.00000E+000	-3.86898E-005	-5.39641E-002	4.36579E-001	3.57250E+000	9	...........
	52	0.706667	4.31304E-001	-8.89603E-005	0.00000E+000	-3.83689E-005	-5.39641E-002	4.31360E-001	3.57250E+000	9	...........
	53	0.72	4.26097E-001	-8.89708E-005	0.00000E+000	-3.79102E-005	-5.39641E-002	4.26159E-001	3.57250E+000	9	...........
	54	0.733333	4.20919E-001	-8.87853E-005	0.00000E+000	-3.73714E-005	-5.39641E-002	4.20976E-001	3.57250E+000	9	...........
	55	0.746667	4.15750E-001	-8.90541E-005	0.00000E+000	-3.70242E-005	-5.39641E-002	4.15812E-001	3.57250E+000	9	...........
	56	0.76	4.10617E-001	-8.89468E-005	0.00000E+000	-3.65231E-005	-5.39641E-002	4.10675E-001	3.57250E+000	9	...........
	57	0.773333	4.05482E-001	-8.87749E-005	0.00000E+000	-3.59966E-005	-5.39641E-002	4.05541E-001	3.57250E+000	9	...........
	58	0.786667	4.00356E-001	-8.87624E-005	0.00000E+000	-3.55366E-005	-5.39641E-002	4.00412E-001	3.57250E+000	9	...........
	59	0.8	3.95262E-001	-8.89166E-005	0.00000E+000	-3.51454E-005	-5.39641E-002	3.95311E-001	3.57250E+000	9	...........
	60	0.813333	3.90190E-001	-8.87613E-005	0.00000E+000	-3.46338E-005	-5.39641E-002	3.90242E-001	3.57250E+000	9	...........
	61	0.826667	3.85139E-001	-8.88113E-005	0.00000E+000	-3.42047E-005	-5.39641E-002	3.85186E-001	3.57250E+000	9	...........
	62	0.84	3.80097E-001	-8.88801E-005	0.00000E+000	-3.37830E-005	-5.39641E-002	3.80144E-001	3.57250E+000	9	...........
	63	0.853333	3.75073E-001	-8.89114E-005	0.00000E+000	-3.33483E-005	-5.39641E-002	3.75120E-001	3.57250E+000	9	...........
	64	0.866667	3.70074E-001	-8.87572E-005	0.00000E+000	-3.28467E-005	-5.39641E-002	3.70115E-001	3.57250E+000	9	...........
	65	0.88	3.65064E-001	-8.89030E-005	0.00000E+000	-3.24553E-005	-5.39641E-002	3.65105E-001	3.57250E+000	9	...........
	66	0.893333	3.60072E-001	-8.87978E-005	0.00000E+000	-3.19736E-005	-5.39641E-002	3.60116E-001	3.57250E+000	9	...........
	67	0.906667	3.55090E-001	-8.88634E-005	0.00000E+000	-3.15545E-005	-5.39641E-002	3.55133E-001	3.57250E+000	9	...........
	68	0.92	3.50130E-001	-8.87134E-005	0.00000E+000	-3.10612E-005	-5.39641E-002	3.50173E-001	3.57250E+000	9	...........
	69	0.933333	3.45182E-001	-8.89124E-005	0.00000E+000	-3.06909E-005	-5.39641E-002	3.45224E-001	3.57250E+000	9	...........
	70	0.946667	3.40250E-001	-8.89249E-005	0.00000E+000	-3.02567E-005	-5.39641E-002	3.40287E-001	3.57250E+000	9	...........
	71	0.96	3.35344E-001	-8.85655E-005	0.00000E+000	-2.96999E-005	-5.39641E-002	3.35386E-001	3.57250E+000	9	...........
	72	0.97333	3.30459E-001	-8.90656E-005	0.00000E+000	-2.94325E-005	-5.39641E-002	3.30498E-001	3.57250E+000	9	...........
	73	0.98667	3.25581E-001	-8.88582E-005	0.00000E+000	-2.89305E-005	-5.39641E-002	3.25620E-001	3.57250E+000	9	...........
	74	1	3.20722E-001	-8.88832E-005	0.00000E+000	-2.85068E-005	-5.39641E-002	3.20763E-001	3.57250E+000	9	...........
	75	1.01333	3.15880E-001	-8.88811E-005	0.00000E+000	-2.80757E-005	-5.39641E-002	3.15921E-001	3.57250E+000	9	...........
	76	1.02667	3.11059E-001	-8.88936E-005	0.00000E+000	-2.76512E-005	-5.39641E-002	3.11106E-001	3.57250E+000	9	...........
	77	1.04	3.06253E-001	-8.87426E-005	0.00000E+000	-2.71777E-005	-5.39641E-002	3.06295E-001	3.57250E+000	9	...........
	78	1.05333	3.01460E-001	-8.86103E-005	0.00000E+000	-2.67124E-005	-5.39641E-002	3.01497E-001	3.57250E+000	9	...........
	79	1.06667	2.96683E-001	-8.89874E-005	0.00000E+000	-2.64011E-005	-5.39641E-002	2.96719E-001	3.57250E+000	9	...........
	80	1.08	2.91914E-001	-8.89499E-005	0.00000E+000	-2.59657E-005	-5.39641E-002	2.91949E-001	3.57250E+000	9	...........
	81	1.09333	2.87174E-001	-8.89301E-005	0.00000E+000	-2.55384E-005	-5.39641E-002	2.87214E-001	3.57250E+000	9	...........
	82	1.10667	2.82460E-001	-8.85998E-005	0.00000E+000	-2.50259E-005	-5.39641E-002	2.82497E-001	3.57250E+000	9	...........
	83	1.12	2.77740E-001	-8.87645E-005	0.00000E+000	-2.46534E-005	-5.39641E-002	2.77778E-001	3.57250E+000	9	...........
	84	1.13333	2.73043E-001	-8.89905E-005	0.00000E+000	-2.42983E-005	-5.39641E-002	2.73079E-001	3.57250E+000	9	...........
	85	1.14667	2.68373E-001	-8.89280E-005	0.00000E+000	-2.38659E-005	-5.39641E-002	2.68413E-001	3.57250E+000	9	...........
	86	1.16	2.63735E-001	-8.89739E-005	0.00000E+000	-2.34655E-005	-5.39641E-002	2.63771E-001	3.57250E+000	9	...........
	87	1.17333	2.59107E-001	-8.87165E-005	0.00000E+000	-2.29870E-005	-5.39641E-002	2.59145E-001	3.57250E+000	9	...........
	88	1.18667	2.54499E-001	-8.88634E-005	0.00000E+000	-2.26157E-005	-5.39641E-002	2.54542E-001	3.57250E+000	9	...........
	89	1.2	2.49921E-001	-8.91864E-005	0.00000E+000	-2.22895E-005	-5.39641E-002	2.49957E-001	3.57250E+000	9	...........
	90	1.21333	2.45357E-001	-8.87384E-005	0.00000E+000	-2.17726E-005	-5.39641E-002	2.45391E-001	3.57250E+000	9	...........
	91	1.22667	2.40800E-001	-8.86801E-005	0.00000E+000	-2.13541E-005	-5.39641E-002	2.40827E-001	3.57250E+000	9	...........
	92	1.24	2.36251E-001	-8.85717E-005	0.00000E+000	-2.09251E-005	-5.39641E-002	2.36282E-001	3.57250E+000	9	...........
	93	1.25333	2.31730E-001	-8.88561E-005	0.00000E+000	-2.05906E-005	-5.39641E-002	2.31758E-001	3.57250E+000	9	...........
	94	1.26667	2.27229E-001	-8.88811E-005	0.00000E+000	-2.01964E-005	-5.39641E-002	2.27258E-001	3.57250E+000	9	...........
	95	1.28	2.22737E-001	-8.88384E-005	0.00000E+000	-1.97876E-005	-5.39641E-002	2.22763E-001	3.57250E+000	9	...........
	96	1.29333	2.18273E-001	-8.89062E-005	0.00000E+000	-1.94058E-005	-5.39641E-002	2.18298E-001	3.57250E+000	9	...........
	97	1.30667	2.13827E-001	-8.87770E-005	0.00000E+000	-1.89829E-005	-5.39641E-002	2.13855E-001	3.57250E+000	9	...........
	98	1.32	2.09395E-001	-8.89280E-005	0.00000E+000	-1.86210E-005	-5.39641E-002	2.09420E-001	3.57250E+000	9	...........
	99	1.33333	2.04965E-001	-8.86947E-005	0.00000E+000	-1.81793E-005	-5.39641E-002	2.04994E-001	3.57250E+000	9	...........
	100	1.34667	2.00569E-001	-8.88072E-005	0.00000E+000	-1.78120E-005	-5.39641E-002	2.00597E-001	3.57250E+000	9	...........
	101	1.36	1.96192E-001	-8.88166E-005	0.00000E+000	-1.74251E-005	-5.39641E-002	1.96216E-001	3.57250E+000	9	...........
	102	1.37333	1.91846E-001	-8.85863E-005	0.00000E+000	-1.69949E-005	-5.39641E-002	1.91871E-001	3.57250E+000	9	...........
	103	1.38667	1.87538E-001	-8.87217E-005	0.00000E+000	-1.66387E-005	-5.39641E-002	1.87558E-001	3.57250E+000	9	...........
	104	1.4	1.83227E-001	-8.84425E-005	0.00000E+000	-1.62050E-005	-5.39641E-002	1.83252E-001	3.57250E+000	9	...........
	105	1.41333	1.78936E-001	-8.89895E-005	0.00000E+000	-1.59234E-005	-5.39641E-002	1.78956E-001	3.57250E+000	9	...........
	106	1.42667	1.74675E-001	-8.88978E-005	0.00000E+000	-1.55282E-005	-5.39641E-002	1.74699E-001	3.57250E+000	9	...........
	107	1.44	1.70431E-001	-8.88416E-005	0.00000E+000	-1.51414E-005	-5.39641E-002	1.70453E-001	3.57250E+000	9	...........
	108	1.45333	1.66202E-001	-8.87603E-005	0.00000E+000	-1.47521E-005	-5.39641E-002	1.66227E-001	3.57250E+000	9	...........
	109	1.46667	1.61998E-001	-8.86394E-005	0.00000E+000	-1.43594E-005	-5.39641E-002	1.62017E-001	3.57250E+000	9	...........
	110	1.48	1.57813E-001	-8.89020E-005	0.00000E+000	-1.40299E-005	-5.39641E-002	1.57828E-001	3.57250E+000	9	...........
	111	1.49333	1.53632E-001	-8.88384E-005	0.00000E+000	-1.36484E-005	-5.39641E-002	1.53647E-001	3.57268E+000	9	...........
	112	1.50667	1.49478E-001	-8.86738E-005	0.00000E+000	-1.32548E-005	-5.39641E-002	1.49489E-001	3.57270E+000	9	...........
	113	1.52	1.45342E-001	-8.87342E-005	0.00000E+000	-1.28968E-005	-5.39641E-002	1.45360E-001	3.57270E+000	9	...........
	114	1.53333	1.41234E-001	-8.89176E-005	0.00000E+000	-1.25582E-005	-5.39641E-002	1.41248E-001	3.57270E+000	9	...........
	115	1.54667	1.37145E-001	-8.91718E-005	0.00000E+000	-1.22294E-005	-5.39641E-002	1.37162E-001	3.57270E+000	9	...........
	116	1.56	1.33075E-001	-8.86697E-005	0.00000E+000	-1.17997E-005	-5.39641E-002	1.33089E-001	3.57270E+000	9	...........
	117	1.57333	1.29020E-001	-8.89197E-005	0.00000E+000	-1.14724E-005	-5.39641E-002	1.29033E-001	3.57270E+000	9	...........
	118	1.58667	1.24975E-001	-8.89301E-005	0.00000E+000	-1.11140E-005	-5.39641E-002	1.24989E-001	3.57270E+000	9	...........
	119	1.6	1.20949E-001	-8.89291E-005	0.00000E+000	-1.07558E-005	-5.39641E-002	1.20967E-001	3.57270E+000	9	...........
	120	1.61333	1.16948E-001	-8.87843E-005	0.00000E+000	-1.03832E-005	-5.39641E-002	1.16969E-001	3.57270E+000	9	...........
	121	1.62667	1.12963E-001	-8.87832E-005	0.00000E+000	-1.00292E-005	-5.39641E-002	1.12980E-001	3.57270E+000	9	...........
	122	1.64	1.08995E-001	-8.87770E-005	0.00000E+000	-9.67628E-006	-5.39641E-002	1.09012E-001	3.57270E+000	9	...........
	123	1.65333	1.05048E-001	-8.87832E-005	0.00000E+000	-9.32654E-006	-5.39641E-002	1.05056E-001	3.57270E+000	9	...........
	124	1.66667	1.01121E-001	-8.88582E-005	0.00000E+000	-8.98542E-006	-5.39641E-002	1.01136E-001	3.57270E+000	9	...........
	125	1.68	9.72061E-002	-8.88916E-005	0.00000E+000	-8.64080E-006	-5.39641E-002	9.72121E-002	3.57270E+000	9	...........
	126	1.69333	9.33201E-002	-8.89708E-005	0.00000E+000	-8.30276E-006	-5.39641E-002	9.33306E-002	3.57270E+000	9	...........
	127	1.70667	8.94490E-002	-8.88113E-005	0.00000E+000	-7.94408E-006	-5.39641E-002	8.94583E-002	3.57270E+000	9	...........
	128	1.72	8.55835E-002	-8.86978E-005	0.00000E+000	-7.59107E-006	-5.39641E-002	8.55877E-002	3.57270E+000	9	...........
	129	1.73333	8.17300E-002	-8.87540E-005	0.00000E+000	-7.25387E-006	-5.39641E-002	8.17317E-002	3.57270E+000	9	...........
	130	1.74667	7.78888E-002	-8.87530E-005	0.00000E+000	-6.91287E-006	-5.39641E-002	7.78967E-002	3.57270E+000	9	...........
	131	1.76	7.40620E-002	-8.87530E-005	0.00000E+000	-6.57322E-006	-5.39641E-002	7.40614E-002	3.57270E+000	9	...........
	132	1.77333	7.02493E-002	-8.86061E-005	0.00000E+000	-6.22452E-006	-5.39641E-002	7.02531E-002	3.57270E+000	9	...........
	133	1.78667	6.64582E-002	-8.88697E-005	0.00000E+000	-5.90612E-006	-5.39641E-002	6.64601E-002	3.57270E+000	9	...........
	134	1.8	6.26847E-002	-8.87009E-005	0.00000E+000	-5.56019E-006	-5.39641E-002	6.26886E-002	3.57270E+000	9	...........
	135	1.81333	5.89230E-002	-8.89822E-005	0.00000E+000	-5.24310E-006	-5.39641E-002	5.89317E-002	3.57270E+000	9	...........
	136	1.82667	5.51923E-002	-8.89312E-005	0.00000E+000	-4.90831E-006	-5.39641E-002	5.51962E-002	3.57270E+000	9	...........
	137	1.84	5.14701E-002	-8.88624E-005	0.00000E+000	-4.57376E-006	-5.39641E-002	5.14682E-002	3.57270E+000	9	...........
	138	1.85333	4.77612E-002	-8.86863E-005	0.00000E+000	-4.23577E-006	-5.39641E-002	4.77692E-002	3.57270E+000	9	...........
	139	1.86667	4.40836E-002	-8.88864E-005	0.00000E+000	-3.91843E-006	-5.39641E-002	4.40932E-002	3.57270E+000	9	...........
	140	1.88	4.04171E-002	-8.91020E-005	0.00000E+000	-3.60125E-006	-5.39641E-002	4.04209E-002	3.57270E+000	9	...........
	141	1.89333	3.67569E-002	-8.89687E-005	0.00000E+000	-3.27021E-006	-5.39641E-002	3.67644E-002	3.57270E+000	9	...........
	142	1.90667	3.31155E-002	-8.88697E-005	0.00000E+000	-2.94296E-006	-5.39641E-002	3.31153E-002	3.57270E+000	9	...........
	143	1.92	2.94878E-002	-8.88134E-005	0.00000E+000	-2.61891E-006	-5.39641E-002	2.94896E-002	3.57270E+000	9	...........
	144	1.93333	2.58708E-002	-8.86155E-005	0.00000E+000	-2.29255E-006	-5.39641E-002	2.58689E-002	3.57270E+000	9	...........
	145	1.94667	2.22704E-002	-8.90124E-005	0.00000E+000	-1.98234E-006	-5.39641E-002	2.22685E-002	3.57270E+000	9	...........
	146	1.96	1.86923E-002	-8.84581E-005	0.00000E+000	-1.65349E-006	-5.39641E-002	1.86841E-002	3.57270E+000	9	...........
	147	1.97333	1.51317E-002	-8.88801E-005	0.00000E+000	-1.34490E-006	-5.39641E-002	1.51255E-002	3.57270E+000	9	...........
	148	1.98667	1.15916E-002	-8.86519E-005	0.00000E+000	-1.02762E-006	-5.39641E-002	1.15809E-002	3.57270E+000	9	...........
	149	2	8.07162E-003	-8.88311E-005	0.00000E+000	-7.17012E-007	-5.39641E-002	8.06228E-003	3.57270E+000	9	...........
	150	2.01333	4.56321E-003	-8.87665E-005	0.00000E+000	-4.05060E-007	-5.39641E-002	4.55427E-003	3.57270E+000	9	...........
	151	2.025	1.29195E-003	-8.87392E-005	0.00000E+000	-1.14646E-007	-5.39641E-002	1.27998E-003	3.57270E+000	9	...........
STARTTIMEOFFSET	QUANT	2113.182	Start Time Offset (s)
