EXPLAIN
TAG	PWR800_DISCHARGE
TITLE	LABEL	PWR Cyclic Charge Discharge (Cell) - Discharge Step	Test &Identifier
DATE	LABEL	10-7-2017	Date
TIME	LABEL	15:49:55	Time
NOTES	NOTES	3	&Notes...
	supercap test cell
	0.9mg
	6M KOH
PSTAT	PSTAT	IFC5000-01520	Potentiostat
CAPACITY	QUANT	1.00000E-003	Capacity (A-hr)
CELLTYPE	SELECTOR	1	&Cell Type
WORKINGCONNECTION	SELECTOR	0	&Working Lead
MAXDISCHARGETIME	VARIABLEANDUNITS	1.00000E+002	s	1.00000E+002	second(s)	Max &Discharge Time
DISCHARGEMODE	MULTIPARAM	0	9.00000E-005	&Discharge Mode	Constant Current	Amp(s)
SAMPLETIME	QUANT	1.00000E-002	Sa&mple Period (s)
DISCHARGESTOPAT1	MULTIPARAM	3	0.00000E+000	Discharge Stop At &1	Voltage < Limit	V
DISCHARGESTOPAT2	MULTIPARAM	0	0.00000E+000	Discharge Stop At &2	None	N/A
AESBHCSELECTOR	TOGGLE	F	Save Both Half Cells
IRCOMP	TOGGLE	F	IR &Measure
EOC	QUANT	0	Open Circuit (V)
SEQUENCER	TOGGLE	TRUE	Run as Sequence
PSTATMODEL	IQUANT	53	Pstat Model
PSTATSECTION	LABEL	IFC5000-01520	Pstat Section
PSTATSERIALNO	LABEL	01520	Pstat Serial Number
CTRLMODE	IQUANT	0	Control Mode
ELECTROMETER	IQUANT	1	RE=0 or CS=1
IESTAB	IQUANT	0	I/E Stability
CASPEED	IQUANT	4	Control Amp Speed
CONVENTION	IQUANT	1	Current Convention
ICHRANGE	IQUANT	2	Ich Range
ICHRANGEMODE	TOGGLE	T	Ich Auto Range
ICHOFFSETENABLE	TOGGLE	F	Ich Offset Enable
ICHOFFSET	QUANT	0	Ich Offset (V)
ICHFILTER	IQUANT	1	Ich Filter
VCHRANGE	IQUANT	2	Vch Range
VCHRANGEMODE	TOGGLE	T	Vch Auto Range
VCHOFFSETENABLE	TOGGLE	F	Vch Offset Enable
VCHOFFSET	QUANT	0	Vch Offset (V)
VCHFILTER	IQUANT	1	Vch Filter
IERANGELOWERLIMIT	IQUANT	9	I/E Range Lower Limit
IERANGEMODE	TOGGLE	F	I/E AutoRange
IERANGE	IQUANT	9	I/E Range
ACHSELECT	IQUANT	1	Ach Select
ACHRANGE	IQUANT	2	Ach Range
ACHOFFSETENABLE	TOGGLE	F	Ach Offset Enable
ACHOFFSET	QUANT	0	Ach Offset (V)
ACHFILTER	IQUANT	1	Ach Filter
CABLEID	IQUANT	14	Cable ID
DCCALDATE	LABEL	5-7-2017	DC Calibration Date
ACCALDATE	LABEL	12/3/2015	AC Calibration Date
FRAMEWORKVERSION	QUANT	7.01	Framework Version
INSTRUMENTVERSION	LABEL	4.00	Instrument Version
CURVE	TABLE	151
	Pt	T	Vf	Im	Vu	Pwr	Sig	Ach	Temp	IERange	Over
	#	s	V	A	V	W	V	V	deg C	#	bits
	0	0.013333	8.10118E-001	-8.86769E-005	0.00000E+000	-7.18388E-005	-5.39641E-002	8.10272E-001	3.57260E+000	9	...........
	1	0.026667	7.96370E-001	-8.85467E-005	0.00000E+000	-7.05159E-005	-5.39641E-002	7.96526E-001	3.57260E+000	9	...........
	2	0.04	7.83513E-001	-8.86665E-005	0.00000E+000	-6.94714E-005	-5.39641E-002	7.83622E-001	3.57260E+000	9	...........
	3	0.053333	7.71381E-001	-8.85509E-005	0.00000E+000	-6.83065E-005	-5.39641E-002	7.71485E-001	3.57260E+000	9	...........
	4	0.066667	7.59840E-001	-8.87676E-005	0.00000E+000	-6.74491E-005	-5.39641E-002	7.59972E-001	3.57260E+000	9	...........
	5	0.08	7.48811E-001	-8.87197E-005	0.00000E+000	-6.64342E-005	-5.39641E-002	7.48897E-001	3.57260E+000	9	...........
	6	0.093333	7.38217E-001	-8.87249E-005	0.00000E+000	-6.54982E-005	-5.39641E-002	7.38333E-001	3.57260E+000	9	...........
	7	0.106667	7.28018E-001	-8.89749E-005	0.00000E+000	-6.47753E-005	-5.39641E-002	7.28138E-001	3.57260E+000	9	...........
	8	0.12	7.18184E-001	-8.87790E-005	0.00000E+000	-6.37597E-005	-5.39641E-002	7.18301E-001	3.57260E+000	9	...........
	9	0.133333	7.08625E-001	-8.86978E-005	0.00000E+000	-6.28534E-005	-5.39641E-002	7.08753E-001	3.57260E+000	9	...........
	10	0.146667	6.99394E-001	-8.87249E-005	0.00000E+000	-6.20536E-005	-5.39641E-002	6.99510E-001	3.57260E+000	9	...........
	11	0.16	6.90407E-001	-8.87176E-005	0.00000E+000	-6.12512E-005	-5.39641E-002	6.90515E-001	3.57260E+000	9	...........
	12	0.173333	6.81660E-001	-8.86540E-005	0.00000E+000	-6.04319E-005	-5.39641E-002	6.81764E-001	3.57260E+000	9	...........
	13	0.186667	6.73173E-001	-8.87624E-005	0.00000E+000	-5.97524E-005	-5.39641E-002	6.73254E-001	3.57260E+000	9	...........
	14	0.2	6.64855E-001	-8.84415E-005	0.00000E+000	-5.88007E-005	-5.39641E-002	6.64952E-001	3.57260E+000	9	...........
	15	0.213333	6.56755E-001	-8.88728E-005	0.00000E+000	-5.83677E-005	-5.39641E-002	6.56809E-001	3.57260E+000	9	...........
	16	0.226667	6.48817E-001	-8.88113E-005	0.00000E+000	-5.76224E-005	-5.39641E-002	6.48889E-001	3.57260E+000	9	...........
	17	0.24	6.41041E-001	-8.88541E-005	0.00000E+000	-5.69591E-005	-5.39641E-002	6.41144E-001	3.57260E+000	9	...........
	18	0.253333	6.33407E-001	-8.84884E-005	0.00000E+000	-5.60491E-005	-5.39641E-002	6.33516E-001	3.57260E+000	9	...........
	19	0.266667	6.25983E-001	-8.91135E-005	0.00000E+000	-5.57835E-005	-5.39641E-002	6.26074E-001	3.57260E+000	9	...........
	20	0.28	6.18706E-001	-8.89364E-005	0.00000E+000	-5.50255E-005	-5.39641E-002	6.18797E-001	3.57260E+000	9	...........
	21	0.293333	6.11480E-001	-8.88311E-005	0.00000E+000	-5.43185E-005	-5.39641E-002	6.11621E-001	3.57260E+000	9	...........
	22	0.306667	6.04454E-001	-8.87030E-005	0.00000E+000	-5.36168E-005	-5.39641E-002	6.04610E-001	3.57260E+000	9	...........
	23	0.32	5.97557E-001	-8.88051E-005	0.00000E+000	-5.30661E-005	-5.39641E-002	5.97676E-001	3.57260E+000	9	...........
	24	0.333333	5.90764E-001	-8.86884E-005	0.00000E+000	-5.23939E-005	-5.39641E-002	5.90883E-001	3.57260E+000	9	...........
	25	0.346667	5.84042E-001	-8.88093E-005	0.00000E+000	-5.18684E-005	-5.39641E-002	5.84155E-001	3.57260E+000	9	...........
	26	0.36	5.77455E-001	-8.85592E-005	0.00000E+000	-5.11389E-005	-5.39641E-002	5.77582E-001	3.57260E+000	9	...........
	27	0.373333	5.70961E-001	-8.87405E-005	0.00000E+000	-5.06674E-005	-5.39641E-002	5.71077E-001	3.57260E+000	9	...........
	28	0.386667	5.64549E-001	-8.87217E-005	0.00000E+000	-5.00878E-005	-5.39641E-002	5.64681E-001	3.57260E+000	9	...........
	29	0.4	5.58169E-001	-8.87582E-005	0.00000E+000	-4.95421E-005	-5.39641E-002	5.58297E-001	3.57260E+000	9	...........
	30	0.413333	5.51929E-001	-8.88478E-005	0.00000E+000	-4.90377E-005	-5.39641E-002	5.52049E-001	3.57260E+000	9	...........
	31	0.426667	5.45762E-001	-8.88811E-005	0.00000E+000	-4.85079E-005	-5.39641E-002	5.45877E-001	3.57260E+000	9	...........
	32	0.44	5.39650E-001	-8.88259E-005	0.00000E+000	-4.79349E-005	-5.39641E-002	5.39770E-001	3.57260E+000	9	...........
	33	0.453333	5.33596E-001	-8.89103E-005	0.00000E+000	-4.74422E-005	-5.39641E-002	5.33710E-001	3.57260E+000	9	...........
	34	0.466667	5.27655E-001	-8.87978E-005	0.00000E+000	-4.68546E-005	-5.39641E-002	5.27756E-001	3.57260E+000	9	...........
	35	0.48	5.21762E-001	-8.89676E-005	0.00000E+000	-4.64199E-005	-5.39641E-002	5.21861E-001	3.57260E+000	9	...........
	36	0.493333	5.15933E-001	-8.88811E-005	0.00000E+000	-4.58567E-005	-5.39641E-002	5.16007E-001	3.57260E+000	9	...........
	37	0.506667	5.10104E-001	-8.88124E-005	0.00000E+000	-4.53035E-005	-5.39641E-002	5.10218E-001	3.57260E+000	9	...........
	38	0.52	5.04329E-001	-8.86592E-005	0.00000E+000	-4.47134E-005	-5.39641E-002	5.04471E-001	3.57260E+000	9	...........
	39	0.533333	4.98671E-001	-8.88353E-005	0.00000E+000	-4.42996E-005	-5.39641E-002	4.98774E-001	3.57260E+000	9	...........
	40	0.546667	4.93019E-001	-8.90083E-005	0.00000E+000	-4.38827E-005	-5.39641E-002	4.93143E-001	3.57260E+000	9	...........
	41	0.56	4.87418E-001	-8.87822E-005	0.00000E+000	-4.32740E-005	-5.39641E-002	4.87530E-001	3.57260E+000	9	...........
	42	0.573333	4.81951E-001	-8.88614E-005	0.00000E+000	-4.28268E-005	-5.39641E-002	4.82018E-001	3.57260E+000	9	...........
	43	0.586667	4.76414E-001	-8.86915E-005	0.00000E+000	-4.22539E-005	-5.39641E-002	4.76479E-001	3.57260E+000	9	...........
	44	0.6	4.70924E-001	-8.86050E-005	0.00000E+000	-4.17262E-005	-5.39641E-002	4.70989E-001	3.57260E+000	9	...........
	45	0.613333	4.65469E-001	-8.90030E-005	0.00000E+000	-4.14282E-005	-5.39641E-002	4.65534E-001	3.57260E+000	9	...........
	46	0.626667	4.60063E-001	-8.86301E-005	0.00000E+000	-4.07754E-005	-5.39641E-002	4.60125E-001	3.57260E+000	9	...........
	47	0.64	4.54671E-001	-8.87374E-005	0.00000E+000	-4.03463E-005	-5.39641E-002	4.54728E-001	3.57260E+000	9	...........
	48	0.653333	4.49317E-001	-8.86957E-005	0.00000E+000	-3.98525E-005	-5.39641E-002	4.49385E-001	3.57260E+000	9	...........
	49	0.666667	4.43999E-001	-8.87884E-005	0.00000E+000	-3.94220E-005	-5.39641E-002	4.44061E-001	3.57260E+000	9	...........
	50	0.68	4.38692E-001	-8.87728E-005	0.00000E+000	-3.89440E-005	-5.39641E-002	4.38758E-001	3.57260E+000	9	...........
	51	0.693333	4.33423E-001	-8.89405E-005	0.00000E+000	-3.85489E-005	-5.39641E-002	4.33479E-001	3.57260E+000	9	...........
	52	0.706667	4.28168E-001	-8.87676E-005	0.00000E+000	-3.80075E-005	-5.39641E-002	4.28226E-001	3.57260E+000	9	...........
	53	0.72	4.22936E-001	-8.87530E-005	0.00000E+000	-3.75369E-005	-5.39641E-002	4.22997E-001	3.57260E+000	9	...........
	54	0.733333	4.17749E-001	-8.88343E-005	0.00000E+000	-3.71104E-005	-5.39641E-002	4.17809E-001	3.57260E+000	9	...........
	55	0.746667	4.12575E-001	-8.87197E-005	0.00000E+000	-3.66035E-005	-5.39641E-002	4.12630E-001	3.57260E+000	9	...........
	56	0.76	4.07429E-001	-8.90291E-005	0.00000E+000	-3.62730E-005	-5.39641E-002	4.07474E-001	3.57260E+000	9	...........
	57	0.773333	4.02300E-001	-8.86957E-005	0.00000E+000	-3.56823E-005	-5.39641E-002	4.02349E-001	3.57277E+000	9	...........
	58	0.786667	3.97203E-001	-8.90218E-005	0.00000E+000	-3.53597E-005	-5.39641E-002	3.97245E-001	3.57400E+000	9	...........
	59	0.8	3.92103E-001	-8.86738E-005	0.00000E+000	-3.47693E-005	-5.39641E-002	3.92150E-001	3.57400E+000	9	...........
	60	0.813333	3.87001E-001	-8.87947E-005	0.00000E+000	-3.43636E-005	-5.39641E-002	3.87055E-001	3.57400E+000	9	...........
	61	0.826667	3.81931E-001	-8.88145E-005	0.00000E+000	-3.39210E-005	-5.39641E-002	3.81976E-001	3.57400E+000	9	...........
	62	0.84	3.76894E-001	-8.87790E-005	0.00000E+000	-3.34603E-005	-5.39641E-002	3.76939E-001	3.57400E+000	9	...........
	63	0.853333	3.71877E-001	-8.87103E-005	0.00000E+000	-3.29893E-005	-5.39641E-002	3.71925E-001	3.57400E+000	9	...........
	64	0.866667	3.66877E-001	-8.89114E-005	0.00000E+000	-3.26196E-005	-5.39641E-002	3.66921E-001	3.57400E+000	9	...........
	65	0.88	3.61886E-001	-8.86551E-005	0.00000E+000	-3.20830E-005	-5.39641E-002	3.61927E-001	3.57400E+000	9	...........
	66	0.893333	3.56907E-001	-8.86811E-005	0.00000E+000	-3.16509E-005	-5.39641E-002	3.56945E-001	3.57400E+000	9	...........
	67	0.906667	3.51936E-001	-8.87790E-005	0.00000E+000	-3.12446E-005	-5.39641E-002	3.51971E-001	3.57400E+000	9	...........
	68	0.92	3.46974E-001	-8.88937E-005	0.00000E+000	-3.08438E-005	-5.39641E-002	3.47015E-001	3.57400E+000	9	...........
	69	0.933333	3.42038E-001	-8.88186E-005	0.00000E+000	-3.03793E-005	-5.39641E-002	3.42076E-001	3.57400E+000	9	...........
	70	0.946667	3.37118E-001	-8.85978E-005	0.00000E+000	-2.98679E-005	-5.39641E-002	3.37162E-001	3.57400E+000	9	...........
	71	0.96	3.32213E-001	-8.86780E-005	0.00000E+000	-2.94600E-005	-5.39641E-002	3.32259E-001	3.57400E+000	9	...........
	72	0.97333	3.27318E-001	-8.87363E-005	0.00000E+000	-2.90450E-005	-5.39641E-002	3.27358E-001	3.57400E+000	9	...........
	73	0.98667	3.22449E-001	-8.89697E-005	0.00000E+000	-2.86882E-005	-5.39641E-002	3.22491E-001	3.57400E+000	9	...........
	74	1	3.17584E-001	-8.89551E-005	0.00000E+000	-2.82507E-005	-5.39641E-002	3.17622E-001	3.57400E+000	9	...........
	75	1.01333	3.12716E-001	-8.86842E-005	0.00000E+000	-2.77330E-005	-5.39641E-002	3.12758E-001	3.57400E+000	9	...........
	76	1.02667	3.07869E-001	-8.88634E-005	0.00000E+000	-2.73583E-005	-5.39641E-002	3.07912E-001	3.57400E+000	9	...........
	77	1.04	3.03041E-001	-8.88009E-005	0.00000E+000	-2.69103E-005	-5.39641E-002	3.03082E-001	3.57400E+000	9	...........
	78	1.05333	2.98235E-001	-8.88113E-005	0.00000E+000	-2.64867E-005	-5.39641E-002	2.98265E-001	3.57400E+000	9	...........
	79	1.06667	2.93425E-001	-8.89239E-005	0.00000E+000	-2.60925E-005	-5.39641E-002	2.93456E-001	3.57400E+000	9	...........
	80	1.08	2.88635E-001	-8.88405E-005	0.00000E+000	-2.56424E-005	-5.39641E-002	2.88674E-001	3.57400E+000	9	...........
	81	1.09333	2.83866E-001	-8.88249E-005	0.00000E+000	-2.52143E-005	-5.39641E-002	2.83905E-001	3.57400E+000	9	...........
	82	1.10667	2.79124E-001	-8.87801E-005	0.00000E+000	-2.47807E-005	-5.39641E-002	2.79157E-001	3.57400E+000	9	...........
	83	1.12	2.74410E-001	-8.87009E-005	0.00000E+000	-2.43404E-005	-5.39641E-002	2.74448E-001	3.57400E+000	9	...........
	84	1.13333	2.69711E-001	-8.90468E-005	0.00000E+000	-2.40169E-005	-5.39641E-002	2.69749E-001	3.57400E+000	9	...........
	85	1.14667	2.65026E-001	-8.89197E-005	0.00000E+000	-2.35661E-005	-5.39641E-002	2.65062E-001	3.57400E+000	9	...........
	86	1.16	2.60343E-001	-8.88395E-005	0.00000E+000	-2.31287E-005	-5.39641E-002	2.60381E-001	3.57400E+000	9	...........
	87	1.17333	2.55666E-001	-8.87197E-005	0.00000E+000	-2.26826E-005	-5.39641E-002	2.55702E-001	3.57400E+000	9	...........
	88	1.18667	2.51034E-001	-8.86738E-005	0.00000E+000	-2.22601E-005	-5.39641E-002	2.51062E-001	3.57400E+000	9	...........
	89	1.2	2.46404E-001	-8.88124E-005	0.00000E+000	-2.18837E-005	-5.39641E-002	2.46434E-001	3.57400E+000	9	...........
	90	1.21333	2.41772E-001	-8.84363E-005	0.00000E+000	-2.13814E-005	-5.39641E-002	2.41800E-001	3.57400E+000	9	...........
	91	1.22667	2.37172E-001	-8.86238E-005	0.00000E+000	-2.10191E-005	-5.39641E-002	2.37193E-001	3.57400E+000	9	...........
	92	1.24	2.32574E-001	-8.88124E-005	0.00000E+000	-2.06555E-005	-5.39641E-002	2.32597E-001	3.57400E+000	9	...........
	93	1.25333	2.27998E-001	-8.87259E-005	0.00000E+000	-2.02293E-005	-5.39641E-002	2.28018E-001	3.57400E+000	9	...........
	94	1.26667	2.23441E-001	-8.89145E-005	0.00000E+000	-1.98671E-005	-5.39641E-002	2.23462E-001	3.57400E+000	9	...........
	95	1.28	2.18915E-001	-8.88676E-005	0.00000E+000	-1.94545E-005	-5.39641E-002	2.18941E-001	3.57400E+000	9	...........
	96	1.29333	2.14403E-001	-8.87436E-005	0.00000E+000	-1.90269E-005	-5.39641E-002	2.14422E-001	3.57400E+000	9	...........
	97	1.30667	2.09902E-001	-8.86634E-005	0.00000E+000	-1.86106E-005	-5.39641E-002	2.09921E-001	3.57400E+000	9	...........
	98	1.32	2.05437E-001	-8.82977E-005	0.00000E+000	-1.81396E-005	-5.39641E-002	2.05455E-001	3.57400E+000	9	...........
	99	1.33333	2.01002E-001	-8.86561E-005	0.00000E+000	-1.78201E-005	-5.39641E-002	2.01021E-001	3.57400E+000	9	...........
	100	1.34667	1.96567E-001	-8.86665E-005	0.00000E+000	-1.74289E-005	-5.39641E-002	1.96589E-001	3.57400E+000	9	...........
	101	1.36	1.92167E-001	-8.88832E-005	0.00000E+000	-1.70804E-005	-5.39641E-002	1.92185E-001	3.57400E+000	9	...........
	102	1.37333	1.87775E-001	-8.89708E-005	0.00000E+000	-1.67065E-005	-5.39641E-002	1.87793E-001	3.57400E+000	9	...........
	103	1.38667	1.83404E-001	-8.86697E-005	0.00000E+000	-1.62623E-005	-5.39641E-002	1.83418E-001	3.57400E+000	9	...........
	104	1.4	1.79066E-001	-8.88624E-005	0.00000E+000	-1.59123E-005	-5.39641E-002	1.79089E-001	3.57400E+000	9	...........
	105	1.41333	1.74755E-001	-8.88759E-005	0.00000E+000	-1.55315E-005	-5.39641E-002	1.74775E-001	3.57400E+000	9	...........
	106	1.42667	1.70445E-001	-8.86613E-005	0.00000E+000	-1.51119E-005	-5.39641E-002	1.70464E-001	3.57400E+000	9	...........
	107	1.44	1.66160E-001	-8.88166E-005	0.00000E+000	-1.47578E-005	-5.39641E-002	1.66176E-001	3.57400E+000	9	...........
	108	1.45333	1.61889E-001	-8.87686E-005	0.00000E+000	-1.43706E-005	-5.39641E-002	1.61904E-001	3.57400E+000	9	...........
	109	1.46667	1.57648E-001	-8.89405E-005	0.00000E+000	-1.40213E-005	-5.39641E-002	1.57660E-001	3.57400E+000	9	...........
	110	1.48	1.53437E-001	-8.86280E-005	0.00000E+000	-1.35988E-005	-5.39641E-002	1.53450E-001	3.57400E+000	9	...........
	111	1.49333	1.49225E-001	-8.89510E-005	0.00000E+000	-1.32737E-005	-5.39641E-002	1.49238E-001	3.57400E+000	9	...........
	112	1.50667	1.45040E-001	-8.86238E-005	0.00000E+000	-1.28540E-005	-5.39641E-002	1.45049E-001	3.57400E+000	9	...........
	113	1.52	1.40859E-001	-8.87342E-005	0.00000E+000	-1.24991E-005	-5.39641E-002	1.40873E-001	3.57400E+000	9	...........
	114	1.53333	1.36694E-001	-8.86717E-005	0.00000E+000	-1.21209E-005	-5.39641E-002	1.36707E-001	3.57400E+000	9	...........
	115	1.54667	1.32541E-001	-8.87770E-005	0.00000E+000	-1.17666E-005	-5.39641E-002	1.32559E-001	3.57400E+000	9	...........
	116	1.56	1.28425E-001	-8.85405E-005	0.00000E+000	-1.13708E-005	-5.39641E-002	1.28441E-001	3.57400E+000	9	...........
	117	1.57333	1.24336E-001	-8.88791E-005	0.00000E+000	-1.10509E-005	-5.39641E-002	1.24346E-001	3.57400E+000	9	...........
	118	1.58667	1.20262E-001	-8.88353E-005	0.00000E+000	-1.06835E-005	-5.39641E-002	1.20277E-001	3.57400E+000	9	...........
	119	1.6	1.16208E-001	-8.86759E-005	0.00000E+000	-1.03049E-005	-5.39641E-002	1.16218E-001	3.57400E+000	9	...........
	120	1.61333	1.12156E-001	-8.89197E-005	0.00000E+000	-9.97285E-006	-5.39641E-002	1.12170E-001	3.57400E+000	9	...........
	121	1.62667	1.08116E-001	-8.86717E-005	0.00000E+000	-9.58685E-006	-5.39641E-002	1.08133E-001	3.57400E+000	9	...........
	122	1.64	1.04109E-001	-8.87770E-005	0.00000E+000	-9.24246E-006	-5.39641E-002	1.04124E-001	3.57400E+000	9	...........
	123	1.65333	1.00117E-001	-8.85800E-005	0.00000E+000	-8.86838E-006	-5.39641E-002	1.00131E-001	3.57400E+000	9	...........
	124	1.66667	9.61365E-002	-8.87186E-005	0.00000E+000	-8.52910E-006	-5.39641E-002	9.61480E-002	3.57400E+000	9	...........
	125	1.68	9.21851E-002	-8.87457E-005	0.00000E+000	-8.18103E-006	-5.39641E-002	9.21935E-002	3.57400E+000	9	...........
	126	1.69333	8.82452E-002	-8.86780E-005	0.00000E+000	-7.82540E-006	-5.39641E-002	8.82522E-002	3.57400E+000	9	...........
	127	1.70667	8.43335E-002	-8.86467E-005	0.00000E+000	-7.47589E-006	-5.39641E-002	8.43349E-002	3.57400E+000	9	...........
	128	1.72	8.04249E-002	-8.88707E-005	0.00000E+000	-7.14742E-006	-5.39641E-002	8.04317E-002	3.57400E+000	9	...........
	129	1.73333	7.65330E-002	-8.90270E-005	0.00000E+000	-6.81351E-006	-5.39641E-002	7.65356E-002	3.57400E+000	9	...........
	130	1.74667	7.26544E-002	-8.88280E-005	0.00000E+000	-6.45375E-006	-5.39641E-002	7.26576E-002	3.57400E+000	9	...........
	131	1.76	6.87978E-002	-8.86624E-005	0.00000E+000	-6.09978E-006	-5.39641E-002	6.87948E-002	3.57400E+000	9	...........
	132	1.77333	6.49503E-002	-8.86040E-005	0.00000E+000	-5.75486E-006	-5.39641E-002	6.49504E-002	3.57392E+000	9	...........
	133	1.78667	6.11238E-002	-8.90447E-005	0.00000E+000	-5.44275E-006	-5.39641E-002	6.11228E-002	3.57340E+000	9	...........
	134	1.8	5.73139E-002	-8.88603E-005	0.00000E+000	-5.09294E-006	-5.39641E-002	5.73172E-002	3.57340E+000	9	...........
	135	1.81333	5.35280E-002	-8.89197E-005	0.00000E+000	-4.75970E-006	-5.39641E-002	5.35240E-002	3.57340E+000	9	...........
	136	1.82667	4.97561E-002	-8.87467E-005	0.00000E+000	-4.41569E-006	-5.39641E-002	4.97542E-002	3.57340E+000	9	...........
	137	1.84	4.60157E-002	-8.88155E-005	0.00000E+000	-4.08690E-006	-5.39641E-002	4.60234E-002	3.57340E+000	9	...........
	138	1.85333	4.22850E-002	-8.87999E-005	0.00000E+000	-3.75490E-006	-5.39641E-002	4.22949E-002	3.57340E+000	9	...........
	139	1.86667	3.85725E-002	-8.90510E-005	0.00000E+000	-3.43492E-006	-5.39641E-002	3.85780E-002	3.57340E+000	9	...........
	140	1.88	3.48749E-002	-8.87332E-005	0.00000E+000	-3.09456E-006	-5.39641E-002	3.48801E-002	3.57340E+000	9	...........
	141	1.89333	3.11951E-002	-8.87270E-005	0.00000E+000	-2.76784E-006	-5.39641E-002	3.11980E-002	3.57340E+000	9	...........
	142	1.90667	2.75274E-002	-8.89228E-005	0.00000E+000	-2.44781E-006	-5.39641E-002	2.75325E-002	3.57340E+000	9	...........
	143	1.92	2.38720E-002	-8.88020E-005	0.00000E+000	-2.11988E-006	-5.39641E-002	2.38704E-002	3.57340E+000	9	...........
	144	1.93333	2.02361E-002	-8.83842E-005	0.00000E+000	-1.78855E-006	-5.39641E-002	2.02317E-002	3.57340E+000	9	...........
	145	1.94667	1.66215E-002	-8.89572E-005	0.00000E+000	-1.47860E-006	-5.39641E-002	1.66137E-002	3.57340E+000	9	...........
	146	1.96	1.30259E-002	-8.88395E-005	0.00000E+000	-1.15722E-006	-5.39641E-002	1.30195E-002	3.57340E+000	9	...........
	147	1.97333	9.44097E-003	-8.86499E-005	0.00000E+000	-8.36941E-007	-5.39641E-002	9.43225E-003	3.57340E+000	9	...........
	148	1.98667	5.87485E-003	-8.87322E-005	0.00000E+000	-5.21288E-007	-5.39641E-002	5.86313E-003	3.57340E+000	9	...........
	149	2	2.32826E-003	-8.90062E-005	0.00000E+000	-2.07229E-007	-5.39641E-002	2.31601E-003	3.57340E+000	9	...........
	150	2.00333	1.28507E-004	-8.87249E-005	0.00000E+000	-1.14018E-008	-5.39641E-002	1.16434E-004	3.57340E+000	9	...........
STARTTIMEOFFSET	QUANT	2559.971	Start Time Offset (s)
