EXPLAIN
TAG	PWR800_DISCHARGE
TITLE	LABEL	PWR Cyclic Charge Discharge (Cell) - Discharge Step	Test &Identifier
DATE	LABEL	10-7-2017	Date
TIME	LABEL	15:11:51	Time
NOTES	NOTES	3	&Notes...
	supercap test cell
	0.9mg
	6M KOH
PSTAT	PSTAT	IFC5000-01520	Potentiostat
CAPACITY	QUANT	1.00000E-003	Capacity (A-hr)
CELLTYPE	SELECTOR	1	&Cell Type
WORKINGCONNECTION	SELECTOR	0	&Working Lead
MAXDISCHARGETIME	VARIABLEANDUNITS	1.00000E+002	s	1.00000E+002	second(s)	Max &Discharge Time
DISCHARGEMODE	MULTIPARAM	0	9.00000E-005	&Discharge Mode	Constant Current	Amp(s)
SAMPLETIME	QUANT	1.00000E-002	Sa&mple Period (s)
DISCHARGESTOPAT1	MULTIPARAM	3	0.00000E+000	Discharge Stop At &1	Voltage < Limit	V
DISCHARGESTOPAT2	MULTIPARAM	0	0.00000E+000	Discharge Stop At &2	None	N/A
AESBHCSELECTOR	TOGGLE	F	Save Both Half Cells
IRCOMP	TOGGLE	F	IR &Measure
EOC	QUANT	0	Open Circuit (V)
SEQUENCER	TOGGLE	TRUE	Run as Sequence
PSTATMODEL	IQUANT	53	Pstat Model
PSTATSECTION	LABEL	IFC5000-01520	Pstat Section
PSTATSERIALNO	LABEL	01520	Pstat Serial Number
CTRLMODE	IQUANT	0	Control Mode
ELECTROMETER	IQUANT	1	RE=0 or CS=1
IESTAB	IQUANT	0	I/E Stability
CASPEED	IQUANT	4	Control Amp Speed
CONVENTION	IQUANT	1	Current Convention
ICHRANGE	IQUANT	2	Ich Range
ICHRANGEMODE	TOGGLE	T	Ich Auto Range
ICHOFFSETENABLE	TOGGLE	F	Ich Offset Enable
ICHOFFSET	QUANT	0	Ich Offset (V)
ICHFILTER	IQUANT	1	Ich Filter
VCHRANGE	IQUANT	2	Vch Range
VCHRANGEMODE	TOGGLE	T	Vch Auto Range
VCHOFFSETENABLE	TOGGLE	F	Vch Offset Enable
VCHOFFSET	QUANT	0	Vch Offset (V)
VCHFILTER	IQUANT	1	Vch Filter
IERANGELOWERLIMIT	IQUANT	9	I/E Range Lower Limit
IERANGEMODE	TOGGLE	F	I/E AutoRange
IERANGE	IQUANT	9	I/E Range
ACHSELECT	IQUANT	1	Ach Select
ACHRANGE	IQUANT	2	Ach Range
ACHOFFSETENABLE	TOGGLE	F	Ach Offset Enable
ACHOFFSET	QUANT	0	Ach Offset (V)
ACHFILTER	IQUANT	1	Ach Filter
CABLEID	IQUANT	14	Cable ID
DCCALDATE	LABEL	5-7-2017	DC Calibration Date
ACCALDATE	LABEL	12/3/2015	AC Calibration Date
FRAMEWORKVERSION	QUANT	7.01	Framework Version
INSTRUMENTVERSION	LABEL	4.00	Instrument Version
CURVE	TABLE	163
	Pt	T	Vf	Im	Vu	Pwr	Sig	Ach	Temp	IERange	Over
	#	s	V	A	V	W	V	V	deg C	#	bits
	0	0.013333	8.32335E-001	-8.84467E-005	0.00000E+000	-7.36173E-005	-5.39641E-002	8.32496E-001	3.57160E+000	9	...........
	1	0.026667	8.20287E-001	-8.84081E-005	0.00000E+000	-7.25201E-005	-5.39641E-002	8.20442E-001	3.57160E+000	9	...........
	2	0.04	8.08918E-001	-8.87874E-005	0.00000E+000	-7.18217E-005	-5.39641E-002	8.09068E-001	3.57160E+000	9	...........
	3	0.053333	7.98160E-001	-8.87374E-005	0.00000E+000	-7.08266E-005	-5.39641E-002	7.98301E-001	3.57160E+000	9	...........
	4	0.066667	7.87798E-001	-8.85759E-005	0.00000E+000	-6.97799E-005	-5.39641E-002	7.87956E-001	3.57160E+000	9	...........
	5	0.08	7.77875E-001	-8.88447E-005	0.00000E+000	-6.91101E-005	-5.39641E-002	7.77999E-001	3.57160E+000	9	...........
	6	0.093333	7.68258E-001	-8.84873E-005	0.00000E+000	-6.79811E-005	-5.39641E-002	7.68380E-001	3.57160E+000	9	...........
	7	0.106667	7.58947E-001	-8.85123E-005	0.00000E+000	-6.71762E-005	-5.39641E-002	7.59064E-001	3.57160E+000	9	...........
	8	0.12	7.49895E-001	-8.86405E-005	0.00000E+000	-6.64710E-005	-5.39641E-002	7.49979E-001	3.57160E+000	9	...........
	9	0.133333	7.41083E-001	-8.88530E-005	0.00000E+000	-6.58474E-005	-5.39641E-002	7.41178E-001	3.57160E+000	9	...........
	10	0.146667	7.32518E-001	-8.85394E-005	0.00000E+000	-6.48568E-005	-5.39641E-002	7.32586E-001	3.57160E+000	9	...........
	11	0.16	7.24202E-001	-8.88384E-005	0.00000E+000	-6.43369E-005	-5.39641E-002	7.24223E-001	3.57160E+000	9	...........
	12	0.173333	7.15984E-001	-8.85582E-005	0.00000E+000	-6.34062E-005	-5.39641E-002	7.16053E-001	3.57160E+000	9	...........
	13	0.186667	7.07974E-001	-8.83342E-005	0.00000E+000	-6.25383E-005	-5.39641E-002	7.08059E-001	3.57160E+000	9	...........
	14	0.2	7.00151E-001	-8.86144E-005	0.00000E+000	-6.20435E-005	-5.39641E-002	7.00222E-001	3.57160E+000	9	...........
	15	0.213333	6.92476E-001	-8.83404E-005	0.00000E+000	-6.11736E-005	-5.39641E-002	6.92564E-001	3.57160E+000	9	...........
	16	0.226667	6.84942E-001	-8.87363E-005	0.00000E+000	-6.07792E-005	-5.39641E-002	6.85038E-001	3.57160E+000	9	...........
	17	0.24	6.77562E-001	-8.85853E-005	0.00000E+000	-6.00220E-005	-5.39641E-002	6.77652E-001	3.57160E+000	9	...........
	18	0.253333	6.70305E-001	-8.87770E-005	0.00000E+000	-5.95077E-005	-5.39641E-002	6.70394E-001	3.57160E+000	9	...........
	19	0.266667	6.63128E-001	-8.85394E-005	0.00000E+000	-5.87129E-005	-5.39641E-002	6.63242E-001	3.57160E+000	9	...........
	20	0.28	6.56118E-001	-8.87947E-005	0.00000E+000	-5.82598E-005	-5.39641E-002	6.56204E-001	3.57160E+000	9	...........
	21	0.293333	6.49199E-001	-8.87072E-005	0.00000E+000	-5.75886E-005	-5.39641E-002	6.49293E-001	3.57160E+000	9	...........
	22	0.306667	6.42358E-001	-8.86582E-005	0.00000E+000	-5.69503E-005	-5.39641E-002	6.42474E-001	3.57160E+000	9	...........
	23	0.32	6.35625E-001	-8.88905E-005	0.00000E+000	-5.65010E-005	-5.39641E-002	6.35718E-001	3.57160E+000	9	...........
	24	0.333333	6.29018E-001	-8.85175E-005	0.00000E+000	-5.56791E-005	-5.39641E-002	6.29099E-001	3.57160E+000	9	...........
	25	0.346667	6.22463E-001	-8.87124E-005	0.00000E+000	-5.52201E-005	-5.39641E-002	6.22536E-001	3.57160E+000	9	...........
	26	0.36	6.15993E-001	-8.87655E-005	0.00000E+000	-5.46789E-005	-5.39641E-002	6.16072E-001	3.57160E+000	9	...........
	27	0.373333	6.09538E-001	-8.87509E-005	0.00000E+000	-5.40970E-005	-5.39641E-002	6.09656E-001	3.57160E+000	9	...........
	28	0.386667	6.03236E-001	-8.87426E-005	0.00000E+000	-5.35327E-005	-5.39641E-002	6.03357E-001	3.57160E+000	9	...........
	29	0.4	5.97016E-001	-8.89114E-005	0.00000E+000	-5.30815E-005	-5.39641E-002	5.97121E-001	3.57160E+000	9	...........
	30	0.413333	5.90845E-001	-8.87790E-005	0.00000E+000	-5.24546E-005	-5.39641E-002	5.90936E-001	3.57160E+000	9	...........
	31	0.426667	5.84688E-001	-8.88728E-005	0.00000E+000	-5.19628E-005	-5.39641E-002	5.84782E-001	3.57160E+000	9	...........
	32	0.44	5.78627E-001	-8.86988E-005	0.00000E+000	-5.13235E-005	-5.39641E-002	5.78742E-001	3.57160E+000	9	...........
	33	0.453333	5.72641E-001	-8.87655E-005	0.00000E+000	-5.08307E-005	-5.39641E-002	5.72721E-001	3.57160E+000	9	...........
	34	0.466667	5.66693E-001	-8.85717E-005	0.00000E+000	-5.01930E-005	-5.39641E-002	5.66791E-001	3.57160E+000	9	...........
	35	0.48	5.60747E-001	-8.87384E-005	0.00000E+000	-4.97598E-005	-5.39641E-002	5.60850E-001	3.57160E+000	9	...........
	36	0.493333	5.54897E-001	-8.86426E-005	0.00000E+000	-4.91874E-005	-5.39641E-002	5.55002E-001	3.57160E+000	9	...........
	37	0.506667	5.49122E-001	-8.85155E-005	0.00000E+000	-4.86058E-005	-5.39641E-002	5.49200E-001	3.57160E+000	9	...........
	38	0.52	5.43345E-001	-8.86290E-005	0.00000E+000	-4.81561E-005	-5.39641E-002	5.43440E-001	3.57160E+000	9	...........
	39	0.533333	5.37616E-001	-8.85852E-005	0.00000E+000	-4.76249E-005	-5.39641E-002	5.37712E-001	3.57160E+000	9	...........
	40	0.546667	5.31902E-001	-8.86947E-005	0.00000E+000	-4.71768E-005	-5.39641E-002	5.31987E-001	3.57165E+000	9	...........
	41	0.56	5.26247E-001	-8.88374E-005	0.00000E+000	-4.67504E-005	-5.39641E-002	5.26316E-001	3.57200E+000	9	...........
	42	0.573333	5.20610E-001	-8.86248E-005	0.00000E+000	-4.61390E-005	-5.39641E-002	5.20664E-001	3.57200E+000	9	...........
	43	0.586667	5.15033E-001	-8.87301E-005	0.00000E+000	-4.56989E-005	-5.39641E-002	5.15059E-001	3.57200E+000	9	...........
	44	0.6	5.09400E-001	-8.88936E-005	0.00000E+000	-4.52824E-005	-5.39641E-002	5.09485E-001	3.57200E+000	9	...........
	45	0.613333	5.03889E-001	-8.86926E-005	0.00000E+000	-4.46912E-005	-5.39641E-002	5.03975E-001	3.57200E+000	9	...........
	46	0.626667	4.98392E-001	-8.85519E-005	0.00000E+000	-4.41336E-005	-5.39641E-002	4.98476E-001	3.57200E+000	9	...........
	47	0.64	4.92926E-001	-8.87301E-005	0.00000E+000	-4.37374E-005	-5.39641E-002	4.92999E-001	3.57200E+000	9	...........
	48	0.653333	4.87463E-001	-8.85571E-005	0.00000E+000	-4.31683E-005	-5.39641E-002	4.87566E-001	3.57200E+000	9	...........
	49	0.666667	4.82093E-001	-8.85873E-005	0.00000E+000	-4.27073E-005	-5.39641E-002	4.82156E-001	3.57200E+000	9	...........
	50	0.68	4.76705E-001	-8.85977E-005	0.00000E+000	-4.22350E-005	-5.39641E-002	4.76759E-001	3.57200E+000	9	...........
	51	0.693333	4.71340E-001	-8.89103E-005	0.00000E+000	-4.19070E-005	-5.39641E-002	4.71395E-001	3.57200E+000	9	...........
	52	0.706667	4.65986E-001	-8.85946E-005	0.00000E+000	-4.12839E-005	-5.39641E-002	4.66050E-001	3.57200E+000	9	...........
	53	0.72	4.60672E-001	-8.86978E-005	0.00000E+000	-4.08606E-005	-5.39641E-002	4.60723E-001	3.57200E+000	9	...........
	54	0.733333	4.55377E-001	-8.86373E-005	0.00000E+000	-4.03634E-005	-5.39641E-002	4.55431E-001	3.57200E+000	9	...........
	55	0.746667	4.50107E-001	-8.87926E-005	0.00000E+000	-3.99662E-005	-5.39641E-002	4.50163E-001	3.57200E+000	9	...........
	56	0.76	4.44855E-001	-8.88332E-005	0.00000E+000	-3.95179E-005	-5.39641E-002	4.44909E-001	3.57200E+000	9	...........
	57	0.773333	4.39607E-001	-8.87645E-005	0.00000E+000	-3.90214E-005	-5.39641E-002	4.39658E-001	3.57200E+000	9	...........
	58	0.786667	4.34384E-001	-8.86655E-005	0.00000E+000	-3.85148E-005	-5.39641E-002	4.34426E-001	3.57200E+000	9	...........
	59	0.8	4.29173E-001	-8.88259E-005	0.00000E+000	-3.81217E-005	-5.39641E-002	4.29224E-001	3.57200E+000	9	...........
	60	0.813333	4.23989E-001	-8.86436E-005	0.00000E+000	-3.75839E-005	-5.39641E-002	4.24035E-001	3.57200E+000	9	...........
	61	0.826667	4.18830E-001	-8.85467E-005	0.00000E+000	-3.70860E-005	-5.39641E-002	4.18881E-001	3.57200E+000	9	...........
	62	0.84	4.13692E-001	-8.85894E-005	0.00000E+000	-3.66487E-005	-5.39641E-002	4.13735E-001	3.57200E+000	9	...........
	63	0.853333	4.08577E-001	-8.87092E-005	0.00000E+000	-3.62446E-005	-5.39641E-002	4.08613E-001	3.57200E+000	9	...........
	64	0.866667	4.03481E-001	-8.85926E-005	0.00000E+000	-3.57454E-005	-5.39641E-002	4.03518E-001	3.57200E+000	9	...........
	65	0.88	3.98390E-001	-8.84936E-005	0.00000E+000	-3.52550E-005	-5.39641E-002	3.98425E-001	3.57200E+000	9	...........
	66	0.893333	3.93329E-001	-8.87499E-005	0.00000E+000	-3.49079E-005	-5.39641E-002	3.93367E-001	3.57200E+000	9	...........
	67	0.906667	3.88298E-001	-8.88020E-005	0.00000E+000	-3.44816E-005	-5.39641E-002	3.88332E-001	3.57200E+000	9	...........
	68	0.92	3.83296E-001	-8.88270E-005	0.00000E+000	-3.40470E-005	-5.39641E-002	3.83330E-001	3.57200E+000	9	...........
	69	0.933333	3.78311E-001	-8.86165E-005	0.00000E+000	-3.35246E-005	-5.39641E-002	3.78351E-001	3.57200E+000	9	...........
	70	0.946667	3.73337E-001	-8.87415E-005	0.00000E+000	-3.31305E-005	-5.39641E-002	3.73372E-001	3.57200E+000	9	...........
	71	0.96	3.68393E-001	-8.86384E-005	0.00000E+000	-3.26538E-005	-5.39641E-002	3.68434E-001	3.57200E+000	9	...........
	72	0.97333	3.63473E-001	-8.85780E-005	0.00000E+000	-3.21957E-005	-5.39641E-002	3.63510E-001	3.57200E+000	9	...........
	73	0.98667	3.58573E-001	-8.85696E-005	0.00000E+000	-3.17587E-005	-5.39641E-002	3.58611E-001	3.57200E+000	9	...........
	74	1	3.53693E-001	-8.87832E-005	0.00000E+000	-3.14020E-005	-5.39641E-002	3.53725E-001	3.57200E+000	9	...........
	75	1.01333	3.48816E-001	-8.87301E-005	0.00000E+000	-3.09504E-005	-5.39641E-002	3.48854E-001	3.57200E+000	9	...........
	76	1.02667	3.43975E-001	-8.87061E-005	0.00000E+000	-3.05127E-005	-5.39641E-002	3.44010E-001	3.57200E+000	9	...........
	77	1.04	3.39152E-001	-8.86644E-005	0.00000E+000	-3.00707E-005	-5.39641E-002	3.39185E-001	3.57200E+000	9	...........
	78	1.05333	3.34352E-001	-8.87499E-005	0.00000E+000	-2.96737E-005	-5.39641E-002	3.34382E-001	3.57200E+000	9	...........
	79	1.06667	3.29589E-001	-8.86978E-005	0.00000E+000	-2.92338E-005	-5.39641E-002	3.29619E-001	3.57200E+000	9	...........
	80	1.08	3.24861E-001	-8.85571E-005	0.00000E+000	-2.87688E-005	-5.39641E-002	3.24895E-001	3.57200E+000	9	...........
	81	1.09333	3.20144E-001	-8.87332E-005	0.00000E+000	-2.84074E-005	-5.39641E-002	3.20177E-001	3.57200E+000	9	...........
	82	1.10667	3.15452E-001	-8.85207E-005	0.00000E+000	-2.79241E-005	-5.39641E-002	3.15486E-001	3.57200E+000	9	...........
	83	1.12	3.10778E-001	-8.85707E-005	0.00000E+000	-2.75258E-005	-5.39641E-002	3.10809E-001	3.57200E+000	9	...........
	84	1.13333	3.06118E-001	-8.85686E-005	0.00000E+000	-2.71125E-005	-5.39641E-002	3.06150E-001	3.57200E+000	9	...........
	85	1.14667	3.01468E-001	-8.87280E-005	0.00000E+000	-2.67486E-005	-5.39641E-002	3.01498E-001	3.57200E+000	9	...........
	86	1.16	2.96847E-001	-8.88447E-005	0.00000E+000	-2.63732E-005	-5.39641E-002	2.96876E-001	3.57200E+000	9	...........
	87	1.17333	2.92239E-001	-8.85165E-005	0.00000E+000	-2.58680E-005	-5.39641E-002	2.92269E-001	3.57200E+000	9	...........
	88	1.18667	2.87656E-001	-8.85925E-005	0.00000E+000	-2.54842E-005	-5.39641E-002	2.87684E-001	3.57200E+000	9	...........
	89	1.2	2.83095E-001	-8.86801E-005	0.00000E+000	-2.51049E-005	-5.39641E-002	2.83127E-001	3.57200E+000	9	...........
	90	1.21333	2.78571E-001	-8.89051E-005	0.00000E+000	-2.47663E-005	-5.39641E-002	2.78593E-001	3.57200E+000	9	...........
	91	1.22667	2.74068E-001	-8.86186E-005	0.00000E+000	-2.42875E-005	-5.39641E-002	2.74098E-001	3.57200E+000	9	...........
	92	1.24	2.69581E-001	-8.87301E-005	0.00000E+000	-2.39200E-005	-5.39641E-002	2.69609E-001	3.57200E+000	9	...........
	93	1.25333	2.65122E-001	-8.85873E-005	0.00000E+000	-2.34864E-005	-5.39641E-002	2.65150E-001	3.57200E+000	9	...........
	94	1.26667	2.60698E-001	-8.86592E-005	0.00000E+000	-2.31133E-005	-5.39641E-002	2.60728E-001	3.57200E+000	9	...........
	95	1.28	2.56286E-001	-8.85332E-005	0.00000E+000	-2.26898E-005	-5.39641E-002	2.56315E-001	3.57200E+000	9	...........
	96	1.29333	2.51879E-001	-8.86405E-005	0.00000E+000	-2.23266E-005	-5.39641E-002	2.51909E-001	3.57200E+000	9	...........
	97	1.30667	2.47491E-001	-8.87988E-005	0.00000E+000	-2.19769E-005	-5.39641E-002	2.47513E-001	3.57200E+000	9	...........
	98	1.32	2.43127E-001	-8.86957E-005	0.00000E+000	-2.15643E-005	-5.39641E-002	2.43152E-001	3.57200E+000	9	...........
	99	1.33333	2.38797E-001	-8.87572E-005	0.00000E+000	-2.11950E-005	-5.39641E-002	2.38812E-001	3.57200E+000	9	...........
	100	1.34667	2.34475E-001	-8.87436E-005	0.00000E+000	-2.08081E-005	-5.39641E-002	2.34498E-001	3.57200E+000	9	...........
	101	1.36	2.30164E-001	-8.86853E-005	0.00000E+000	-2.04121E-005	-5.39641E-002	2.30182E-001	3.57200E+000	9	...........
	102	1.37333	2.25857E-001	-8.84019E-005	0.00000E+000	-1.99662E-005	-5.39641E-002	2.25877E-001	3.57200E+000	9	...........
	103	1.38667	2.21588E-001	-8.84759E-005	0.00000E+000	-1.96052E-005	-5.39641E-002	2.21607E-001	3.57200E+000	9	...........
	104	1.4	2.17358E-001	-8.86207E-005	0.00000E+000	-1.92624E-005	-5.39641E-002	2.17368E-001	3.57200E+000	9	...........
	105	1.41333	2.13122E-001	-8.87457E-005	0.00000E+000	-1.89136E-005	-5.39641E-002	2.13141E-001	3.57200E+000	9	...........
	106	1.42667	2.08924E-001	-8.85707E-005	0.00000E+000	-1.85045E-005	-5.39641E-002	2.08937E-001	3.57200E+000	9	...........
	107	1.44	2.04738E-001	-8.84717E-005	0.00000E+000	-1.81135E-005	-5.39641E-002	2.04748E-001	3.57200E+000	9	...........
	108	1.45333	2.00561E-001	-8.86311E-005	0.00000E+000	-1.77759E-005	-5.39641E-002	2.00580E-001	3.57200E+000	9	...........
	109	1.46667	1.96400E-001	-8.87405E-005	0.00000E+000	-1.74287E-005	-5.39641E-002	1.96418E-001	3.57200E+000	9	...........
	110	1.48	1.92259E-001	-8.88426E-005	0.00000E+000	-1.70808E-005	-5.39641E-002	1.92272E-001	3.57200E+000	9	...........
	111	1.49333	1.88127E-001	-8.86592E-005	0.00000E+000	-1.66792E-005	-5.39641E-002	1.88142E-001	3.57200E+000	9	...........
	112	1.50667	1.84016E-001	-8.86061E-005	0.00000E+000	-1.63049E-005	-5.39641E-002	1.84030E-001	3.57200E+000	9	...........
	113	1.52	1.79932E-001	-8.87728E-005	0.00000E+000	-1.59731E-005	-5.39641E-002	1.79952E-001	3.57200E+000	9	...........
	114	1.53333	1.75874E-001	-8.88030E-005	0.00000E+000	-1.56181E-005	-5.39641E-002	1.75890E-001	3.57200E+000	9	...........
	115	1.54667	1.71822E-001	-8.87843E-005	0.00000E+000	-1.52551E-005	-5.39641E-002	1.71835E-001	3.57198E+000	9	...........
	116	1.56	1.67795E-001	-8.85571E-005	0.00000E+000	-1.48594E-005	-5.39641E-002	1.67814E-001	3.57180E+000	9	...........
	117	1.57333	1.63785E-001	-8.88155E-005	0.00000E+000	-1.45467E-005	-5.39641E-002	1.63798E-001	3.57180E+000	9	...........
	118	1.58667	1.59767E-001	-8.89593E-005	0.00000E+000	-1.42128E-005	-5.39641E-002	1.59779E-001	3.57180E+000	9	...........
	119	1.6	1.55768E-001	-8.86207E-005	0.00000E+000	-1.38043E-005	-5.39641E-002	1.55774E-001	3.57180E+000	9	...........
	120	1.61333	1.51789E-001	-8.86269E-005	0.00000E+000	-1.34526E-005	-5.39641E-002	1.51794E-001	3.57180E+000	9	...........
	121	1.62667	1.47828E-001	-8.86832E-005	0.00000E+000	-1.31099E-005	-5.39641E-002	1.47835E-001	3.57180E+000	9	...........
	122	1.64	1.43879E-001	-8.88238E-005	0.00000E+000	-1.27799E-005	-5.39641E-002	1.43891E-001	3.57180E+000	9	...........
	123	1.65333	1.39939E-001	-8.85623E-005	0.00000E+000	-1.23933E-005	-5.39641E-002	1.39951E-001	3.57180E+000	9	...........
	124	1.66667	1.36026E-001	-8.89489E-005	0.00000E+000	-1.20994E-005	-5.39641E-002	1.36037E-001	3.57180E+000	9	...........
	125	1.68	1.32133E-001	-8.85477E-005	0.00000E+000	-1.17000E-005	-5.39641E-002	1.32146E-001	3.57180E+000	9	...........
	126	1.69333	1.28262E-001	-8.85592E-005	0.00000E+000	-1.13588E-005	-5.39641E-002	1.28269E-001	3.57180E+000	9	...........
	127	1.70667	1.24388E-001	-8.87061E-005	0.00000E+000	-1.10340E-005	-5.39641E-002	1.24390E-001	3.57180E+000	9	...........
	128	1.72	1.20523E-001	-8.87134E-005	0.00000E+000	-1.06920E-005	-5.39641E-002	1.20533E-001	3.57180E+000	9	...........
	129	1.73333	1.16697E-001	-8.86488E-005	0.00000E+000	-1.03451E-005	-5.39641E-002	1.16698E-001	3.57180E+000	9	...........
	130	1.74667	1.12883E-001	-8.85519E-005	0.00000E+000	-9.99596E-006	-5.39641E-002	1.12885E-001	3.57180E+000	9	...........
	131	1.76	1.09081E-001	-8.85717E-005	0.00000E+000	-9.66148E-006	-5.39641E-002	1.09086E-001	3.57180E+000	9	...........
	132	1.77333	1.05289E-001	-8.86842E-005	0.00000E+000	-9.33751E-006	-5.39641E-002	1.05296E-001	3.57180E+000	9	...........
	133	1.78667	1.01525E-001	-8.87290E-005	0.00000E+000	-9.00818E-006	-5.39641E-002	1.01523E-001	3.57180E+000	9	...........
	134	1.8	9.77622E-002	-8.86321E-005	0.00000E+000	-8.66487E-006	-5.39641E-002	9.77627E-002	3.57180E+000	9	...........
	135	1.81333	9.40124E-002	-8.85613E-005	0.00000E+000	-8.32586E-006	-5.39641E-002	9.40191E-002	3.57180E+000	9	...........
	136	1.82667	9.02825E-002	-8.83904E-005	0.00000E+000	-7.98011E-006	-5.39641E-002	9.02866E-002	3.57180E+000	9	...........
	137	1.84	8.65590E-002	-8.86780E-005	0.00000E+000	-7.67588E-006	-5.39641E-002	8.65626E-002	3.57180E+000	9	...........
	138	1.85333	8.28331E-002	-8.88093E-005	0.00000E+000	-7.35635E-006	-5.39641E-002	8.28401E-002	3.57180E+000	9	...........
	139	1.86667	7.91354E-002	-8.88374E-005	0.00000E+000	-7.03018E-006	-5.39641E-002	7.91369E-002	3.57180E+000	9	...........
	140	1.88	7.54547E-002	-8.86894E-005	0.00000E+000	-6.69203E-006	-5.39641E-002	7.54551E-002	3.57180E+000	9	...........
	141	1.89333	7.17995E-002	-8.85894E-005	0.00000E+000	-6.36067E-006	-5.39641E-002	7.18034E-002	3.57180E+000	9	...........
	142	1.90667	6.81581E-002	-8.87040E-005	0.00000E+000	-6.04590E-006	-5.39641E-002	6.81573E-002	3.57180E+000	9	...........
	143	1.92	6.45378E-002	-8.86269E-005	0.00000E+000	-5.71979E-006	-5.39641E-002	6.45351E-002	3.57180E+000	9	...........
	144	1.93333	6.09393E-002	-8.86696E-005	0.00000E+000	-5.40346E-006	-5.39641E-002	6.09384E-002	3.57180E+000	9	...........
	145	1.94667	5.73530E-002	-8.87405E-005	0.00000E+000	-5.08953E-006	-5.39641E-002	5.73537E-002	3.57180E+000	9	...........
	146	1.96	5.37692E-002	-8.88614E-005	0.00000E+000	-4.77800E-006	-5.39641E-002	5.37637E-002	3.57180E+000	9	...........
	147	1.97333	5.02050E-002	-8.85905E-005	0.00000E+000	-4.44769E-006	-5.39641E-002	5.02055E-002	3.57180E+000	9	...........
	148	1.98667	4.66608E-002	-8.86540E-005	0.00000E+000	-4.13667E-006	-5.39641E-002	4.66637E-002	3.57180E+000	9	...........
	149	2	4.31104E-002	-8.87988E-005	0.00000E+000	-3.82816E-006	-5.39641E-002	4.31184E-002	3.57180E+000	9	...........
	150	2.01333	3.95721E-002	-8.87822E-005	0.00000E+000	-3.51330E-006	-5.39641E-002	3.95784E-002	3.57180E+000	9	...........
	151	2.02667	3.60587E-002	-8.86738E-005	0.00000E+000	-3.19746E-006	-5.39641E-002	3.60619E-002	3.57180E+000	9	...........
	152	2.04	3.25655E-002	-8.87676E-005	0.00000E+000	-2.89076E-006	-5.39641E-002	3.25708E-002	3.57180E+000	9	...........
	153	2.05333	2.90935E-002	-8.85436E-005	0.00000E+000	-2.57604E-006	-5.39641E-002	2.90925E-002	3.57180E+000	9	...........
	154	2.06667	2.56404E-002	-8.84915E-005	0.00000E+000	-2.26896E-006	-5.39641E-002	2.56379E-002	3.57180E+000	9	...........
	155	2.08	2.22168E-002	-8.89374E-005	0.00000E+000	-1.97591E-006	-5.39641E-002	2.22136E-002	3.57180E+000	9	...........
	156	2.09333	1.87870E-002	-8.85717E-005	0.00000E+000	-1.66400E-006	-5.39641E-002	1.87840E-002	3.57180E+000	9	...........
	157	2.10667	1.53920E-002	-8.89812E-005	0.00000E+000	-1.36960E-006	-5.39641E-002	1.53814E-002	3.57180E+000	9	...........
	158	2.12	1.20135E-002	-8.85165E-005	0.00000E+000	-1.06339E-006	-5.39641E-002	1.20081E-002	3.57180E+000	9	...........
	159	2.13333	8.65017E-003	-8.83863E-005	0.00000E+000	-7.64556E-007	-5.39641E-002	8.63829E-003	3.57180E+000	9	...........
	160	2.14667	5.30301E-003	-8.87499E-005	0.00000E+000	-4.70641E-007	-5.39641E-002	5.29413E-003	3.57180E+000	9	...........
	161	2.16	1.96666E-003	-8.87843E-005	0.00000E+000	-1.74608E-007	-5.39641E-002	1.95215E-003	3.57180E+000	9	...........
	162	2.16333	-1.03899E-004	-8.86207E-005	0.00000E+000	9.20759E-009	-5.39641E-002	-1.22979E-004	3.57180E+000	9	...........
STARTTIMEOFFSET	QUANT	640.6866	Start Time Offset (s)
