EXPLAIN
TAG	PWR800_DISCHARGE
TITLE	LABEL	PWR Cyclic Charge Discharge (Cell) - Discharge Step	Test &Identifier
DATE	LABEL	10-7-2017	Date
TIME	LABEL	15:03:07	Time
NOTES	NOTES	3	&Notes...
	supercap test cell
	0.9mg
	6M KOH
PSTAT	PSTAT	IFC5000-01520	Potentiostat
CAPACITY	QUANT	1.00000E-003	Capacity (A-hr)
CELLTYPE	SELECTOR	1	&Cell Type
WORKINGCONNECTION	SELECTOR	0	&Working Lead
MAXDISCHARGETIME	VARIABLEANDUNITS	1.00000E+002	s	1.00000E+002	second(s)	Max &Discharge Time
DISCHARGEMODE	MULTIPARAM	0	9.00000E-005	&Discharge Mode	Constant Current	Amp(s)
SAMPLETIME	QUANT	1.00000E-002	Sa&mple Period (s)
DISCHARGESTOPAT1	MULTIPARAM	3	0.00000E+000	Discharge Stop At &1	Voltage < Limit	V
DISCHARGESTOPAT2	MULTIPARAM	0	0.00000E+000	Discharge Stop At &2	None	N/A
AESBHCSELECTOR	TOGGLE	F	Save Both Half Cells
IRCOMP	TOGGLE	F	IR &Measure
EOC	QUANT	0	Open Circuit (V)
SEQUENCER	TOGGLE	TRUE	Run as Sequence
PSTATMODEL	IQUANT	53	Pstat Model
PSTATSECTION	LABEL	IFC5000-01520	Pstat Section
PSTATSERIALNO	LABEL	01520	Pstat Serial Number
CTRLMODE	IQUANT	0	Control Mode
ELECTROMETER	IQUANT	1	RE=0 or CS=1
IESTAB	IQUANT	0	I/E Stability
CASPEED	IQUANT	4	Control Amp Speed
CONVENTION	IQUANT	1	Current Convention
ICHRANGE	IQUANT	2	Ich Range
ICHRANGEMODE	TOGGLE	T	Ich Auto Range
ICHOFFSETENABLE	TOGGLE	F	Ich Offset Enable
ICHOFFSET	QUANT	0	Ich Offset (V)
ICHFILTER	IQUANT	1	Ich Filter
VCHRANGE	IQUANT	2	Vch Range
VCHRANGEMODE	TOGGLE	T	Vch Auto Range
VCHOFFSETENABLE	TOGGLE	F	Vch Offset Enable
VCHOFFSET	QUANT	0	Vch Offset (V)
VCHFILTER	IQUANT	1	Vch Filter
IERANGELOWERLIMIT	IQUANT	9	I/E Range Lower Limit
IERANGEMODE	TOGGLE	F	I/E AutoRange
IERANGE	IQUANT	9	I/E Range
ACHSELECT	IQUANT	1	Ach Select
ACHRANGE	IQUANT	2	Ach Range
ACHOFFSETENABLE	TOGGLE	F	Ach Offset Enable
ACHOFFSET	QUANT	0	Ach Offset (V)
ACHFILTER	IQUANT	1	Ach Filter
CABLEID	IQUANT	14	Cable ID
DCCALDATE	LABEL	5-7-2017	DC Calibration Date
ACCALDATE	LABEL	12/3/2015	AC Calibration Date
FRAMEWORKVERSION	QUANT	7.01	Framework Version
INSTRUMENTVERSION	LABEL	4.00	Instrument Version
CURVE	TABLE	172
	Pt	T	Vf	Im	Vu	Pwr	Sig	Ach	Temp	IERange	Over
	#	s	V	A	V	W	V	V	deg C	#	bits
	0	0.013333	8.46557E-001	-8.87905E-005	0.00000E+000	-7.51662E-005	-5.39641E-002	8.46688E-001	3.57100E+000	9	...........
	1	0.026667	8.35684E-001	-8.86196E-005	0.00000E+000	-7.40580E-005	-5.39641E-002	8.35841E-001	3.57100E+000	9	...........
	2	0.04	8.25459E-001	-8.84904E-005	0.00000E+000	-7.30452E-005	-5.39641E-002	8.25582E-001	3.57100E+000	9	...........
	3	0.053333	8.15660E-001	-8.86165E-005	0.00000E+000	-7.22810E-005	-5.39641E-002	8.15777E-001	3.57100E+000	9	...........
	4	0.066667	8.06224E-001	-8.86634E-005	0.00000E+000	-7.14826E-005	-5.39641E-002	8.06321E-001	3.57100E+000	9	...........
	5	0.08	7.97149E-001	-8.87863E-005	0.00000E+000	-7.07759E-005	-5.39641E-002	7.97217E-001	3.57100E+000	9	...........
	6	0.093333	7.88250E-001	-8.85071E-005	0.00000E+000	-6.97658E-005	-5.39641E-002	7.88346E-001	3.57100E+000	9	...........
	7	0.106667	7.79636E-001	-8.85332E-005	0.00000E+000	-6.90236E-005	-5.39641E-002	7.79734E-001	3.57140E+000	9	...........
	8	0.12	7.71229E-001	-8.85957E-005	0.00000E+000	-6.83275E-005	-5.39641E-002	7.71332E-001	3.57140E+000	9	...........
	9	0.133333	7.63013E-001	-8.86353E-005	0.00000E+000	-6.76299E-005	-5.39641E-002	7.63101E-001	3.57140E+000	9	...........
	10	0.146667	7.54998E-001	-8.86061E-005	0.00000E+000	-6.68974E-005	-5.39641E-002	7.55091E-001	3.57140E+000	9	...........
	11	0.16	7.47140E-001	-8.85332E-005	0.00000E+000	-6.61467E-005	-5.39641E-002	7.47219E-001	3.57140E+000	9	...........
	12	0.173333	7.39400E-001	-8.85050E-005	0.00000E+000	-6.54406E-005	-5.39641E-002	7.39494E-001	3.57140E+000	9	...........
	13	0.186667	7.31861E-001	-8.84634E-005	0.00000E+000	-6.47428E-005	-5.39641E-002	7.31935E-001	3.57140E+000	9	...........
	14	0.2	7.24437E-001	-8.88332E-005	0.00000E+000	-6.43540E-005	-5.39641E-002	7.24500E-001	3.57140E+000	9	...........
	15	0.213333	7.17124E-001	-8.84456E-005	0.00000E+000	-6.34265E-005	-5.39641E-002	7.17201E-001	3.57140E+000	9	...........
	16	0.226667	7.09891E-001	-8.86519E-005	0.00000E+000	-6.29332E-005	-5.39641E-002	7.09985E-001	3.57140E+000	9	...........
	17	0.24	7.02839E-001	-8.84133E-005	0.00000E+000	-6.21403E-005	-5.39641E-002	7.02942E-001	3.57140E+000	9	...........
	18	0.253333	6.95869E-001	-8.86582E-005	0.00000E+000	-6.16944E-005	-5.39641E-002	6.95940E-001	3.57140E+000	9	...........
	19	0.266667	6.88980E-001	-8.85082E-005	0.00000E+000	-6.09803E-005	-5.39641E-002	6.89059E-001	3.57140E+000	9	...........
	20	0.28	6.82165E-001	-8.86217E-005	0.00000E+000	-6.04546E-005	-5.39641E-002	6.82263E-001	3.57140E+000	9	...........
	21	0.293333	6.75467E-001	-8.87228E-005	0.00000E+000	-5.99293E-005	-5.39641E-002	6.75563E-001	3.57140E+000	9	...........
	22	0.306667	6.68854E-001	-8.84540E-005	0.00000E+000	-5.91628E-005	-5.39641E-002	6.68940E-001	3.57140E+000	9	...........
	23	0.32	6.62295E-001	-8.85769E-005	0.00000E+000	-5.86641E-005	-5.39641E-002	6.62383E-001	3.57140E+000	9	...........
	24	0.333333	6.55823E-001	-8.89520E-005	0.00000E+000	-5.83367E-005	-5.39641E-002	6.55918E-001	3.57140E+000	9	...........
	25	0.346667	6.49406E-001	-8.85748E-005	0.00000E+000	-5.75211E-005	-5.39641E-002	6.49503E-001	3.57140E+000	9	...........
	26	0.36	6.43088E-001	-8.89041E-005	0.00000E+000	-5.71731E-005	-5.39641E-002	6.43149E-001	3.57140E+000	9	...........
	27	0.373333	6.36789E-001	-8.85592E-005	0.00000E+000	-5.63936E-005	-5.39641E-002	6.36872E-001	3.57140E+000	9	...........
	28	0.386667	6.30594E-001	-8.85800E-005	0.00000E+000	-5.58581E-005	-5.39641E-002	6.30669E-001	3.57140E+000	9	...........
	29	0.4	6.24473E-001	-8.83654E-005	0.00000E+000	-5.51819E-005	-5.39641E-002	6.24539E-001	3.57140E+000	9	...........
	30	0.413333	6.18386E-001	-8.86499E-005	0.00000E+000	-5.48198E-005	-5.39641E-002	6.18458E-001	3.57140E+000	9	...........
	31	0.426667	6.12288E-001	-8.85102E-005	0.00000E+000	-5.41937E-005	-5.39641E-002	6.12401E-001	3.57140E+000	9	...........
	32	0.44	6.06293E-001	-8.86978E-005	0.00000E+000	-5.37768E-005	-5.39641E-002	6.06414E-001	3.57140E+000	9	...........
	33	0.453333	6.00348E-001	-8.84352E-005	0.00000E+000	-5.30919E-005	-5.39641E-002	6.00446E-001	3.57140E+000	9	...........
	34	0.466667	5.94437E-001	-8.83831E-005	0.00000E+000	-5.25382E-005	-5.39641E-002	5.94551E-001	3.57140E+000	9	...........
	35	0.48	5.88593E-001	-8.88186E-005	0.00000E+000	-5.22780E-005	-5.39641E-002	5.88665E-001	3.57140E+000	9	...........
	36	0.493333	5.82731E-001	-8.87738E-005	0.00000E+000	-5.17312E-005	-5.39641E-002	5.82831E-001	3.57140E+000	9	...........
	37	0.506667	5.76971E-001	-8.88614E-005	0.00000E+000	-5.12704E-005	-5.39641E-002	5.77071E-001	3.57140E+000	9	...........
	38	0.52	5.71225E-001	-8.85477E-005	0.00000E+000	-5.05807E-005	-5.39641E-002	5.71320E-001	3.57140E+000	9	...........
	39	0.533333	5.65532E-001	-8.84936E-005	0.00000E+000	-5.00459E-005	-5.39641E-002	5.65610E-001	3.57140E+000	9	...........
	40	0.546667	5.59808E-001	-8.82581E-005	0.00000E+000	-4.94076E-005	-5.39641E-002	5.59891E-001	3.57140E+000	9	...........
	41	0.56	5.54165E-001	-8.88249E-005	0.00000E+000	-4.92236E-005	-5.39641E-002	5.54264E-001	3.57140E+000	9	...........
	42	0.573333	5.48553E-001	-8.85436E-005	0.00000E+000	-4.85708E-005	-5.39641E-002	5.48644E-001	3.57140E+000	9	...........
	43	0.586667	5.42993E-001	-8.85134E-005	0.00000E+000	-4.80622E-005	-5.39641E-002	5.43051E-001	3.57140E+000	9	...........
	44	0.6	5.37428E-001	-8.82946E-005	0.00000E+000	-4.74519E-005	-5.39641E-002	5.37500E-001	3.57140E+000	9	...........
	45	0.613333	5.31860E-001	-8.85675E-005	0.00000E+000	-4.71056E-005	-5.39641E-002	5.31965E-001	3.57140E+000	9	...........
	46	0.626667	5.26361E-001	-8.85352E-005	0.00000E+000	-4.66015E-005	-5.39641E-002	5.26435E-001	3.57140E+000	9	...........
	47	0.64	5.20879E-001	-8.86342E-005	0.00000E+000	-4.61677E-005	-5.39641E-002	5.20962E-001	3.57140E+000	9	...........
	48	0.653333	5.15449E-001	-8.86405E-005	0.00000E+000	-4.56897E-005	-5.39641E-002	5.15510E-001	3.57140E+000	9	...........
	49	0.666667	5.09996E-001	-8.86915E-005	0.00000E+000	-4.52323E-005	-5.39641E-002	5.10103E-001	3.57140E+000	9	...........
	50	0.68	5.04553E-001	-8.86936E-005	0.00000E+000	-4.47506E-005	-5.39641E-002	5.04659E-001	3.57140E+000	9	...........
	51	0.693333	4.99206E-001	-8.86957E-005	0.00000E+000	-4.42774E-005	-5.39641E-002	4.99313E-001	3.57140E+000	9	...........
	52	0.706667	4.93849E-001	-8.83519E-005	0.00000E+000	-4.36325E-005	-5.39641E-002	4.93948E-001	3.57140E+000	9	...........
	53	0.72	4.88492E-001	-8.86749E-005	0.00000E+000	-4.33170E-005	-5.39641E-002	4.88620E-001	3.57140E+000	9	...........
	54	0.733333	4.83220E-001	-8.85332E-005	0.00000E+000	-4.27810E-005	-5.39641E-002	4.83282E-001	3.57140E+000	9	...........
	55	0.746667	4.77930E-001	-8.85488E-005	0.00000E+000	-4.23201E-005	-5.39641E-002	4.77982E-001	3.57140E+000	9	...........
	56	0.76	4.72655E-001	-8.86478E-005	0.00000E+000	-4.18998E-005	-5.39641E-002	4.72704E-001	3.57140E+000	9	...........
	57	0.773333	4.67426E-001	-8.83821E-005	0.00000E+000	-4.13121E-005	-5.39641E-002	4.67468E-001	3.57140E+000	9	...........
	58	0.786667	4.62208E-001	-8.88655E-005	0.00000E+000	-4.10743E-005	-5.39641E-002	4.62251E-001	3.57140E+000	9	...........
	59	0.8	4.57004E-001	-8.84488E-005	0.00000E+000	-4.04215E-005	-5.39641E-002	4.57047E-001	3.57140E+000	9	...........
	60	0.813333	4.51820E-001	-8.86519E-005	0.00000E+000	-4.00547E-005	-5.39641E-002	4.51861E-001	3.57140E+000	9	...........
	61	0.826667	4.46660E-001	-8.87019E-005	0.00000E+000	-3.96196E-005	-5.39641E-002	4.46701E-001	3.57140E+000	9	...........
	62	0.84	4.41544E-001	-8.84154E-005	0.00000E+000	-3.90393E-005	-5.39641E-002	4.41584E-001	3.57140E+000	9	...........
	63	0.853333	4.36427E-001	-8.86759E-005	0.00000E+000	-3.87006E-005	-5.39641E-002	4.36468E-001	3.57140E+000	9	...........
	64	0.866667	4.31325E-001	-8.88030E-005	0.00000E+000	-3.83030E-005	-5.39641E-002	4.31365E-001	3.57140E+000	9	...........
	65	0.88	4.26258E-001	-8.88947E-005	0.00000E+000	-3.78921E-005	-5.39641E-002	4.26295E-001	3.57140E+000	9	...........
	66	0.893333	4.21226E-001	-8.85686E-005	0.00000E+000	-3.73074E-005	-5.39641E-002	4.21262E-001	3.57140E+000	9	...........
	67	0.906667	4.16209E-001	-8.85561E-005	0.00000E+000	-3.68578E-005	-5.39641E-002	4.16247E-001	3.57140E+000	9	...........
	68	0.92	4.11214E-001	-8.85811E-005	0.00000E+000	-3.64258E-005	-5.39641E-002	4.11250E-001	3.57140E+000	9	...........
	69	0.933333	4.06247E-001	-8.85436E-005	0.00000E+000	-3.59705E-005	-5.39641E-002	4.06289E-001	3.57140E+000	9	...........
	70	0.946667	4.01298E-001	-8.87738E-005	0.00000E+000	-3.56247E-005	-5.39641E-002	4.01330E-001	3.57140E+000	9	...........
	71	0.96	3.96371E-001	-8.85550E-005	0.00000E+000	-3.51007E-005	-5.39641E-002	3.96403E-001	3.57140E+000	9	...........
	72	0.97333	3.91461E-001	-8.85144E-005	0.00000E+000	-3.46500E-005	-5.39641E-002	3.91492E-001	3.57140E+000	9	...........
	73	0.98667	3.86575E-001	-8.87655E-005	0.00000E+000	-3.43145E-005	-5.39641E-002	3.86605E-001	3.57140E+000	9	...........
	74	1	3.81709E-001	-8.85019E-005	0.00000E+000	-3.37820E-005	-5.39641E-002	3.81743E-001	3.57140E+000	9	...........
	75	1.01333	3.76878E-001	-8.85905E-005	0.00000E+000	-3.33878E-005	-5.39641E-002	3.76906E-001	3.57140E+000	9	...........
	76	1.02667	3.72061E-001	-8.85790E-005	0.00000E+000	-3.29568E-005	-5.39641E-002	3.72090E-001	3.57140E+000	9	...........
	77	1.04	3.67259E-001	-8.87061E-005	0.00000E+000	-3.25781E-005	-5.39641E-002	3.67293E-001	3.57140E+000	9	...........
	78	1.05333	3.62477E-001	-8.84998E-005	0.00000E+000	-3.20792E-005	-5.39641E-002	3.62510E-001	3.57140E+000	9	...........
	79	1.06667	3.57731E-001	-8.84581E-005	0.00000E+000	-3.16442E-005	-5.39641E-002	3.57761E-001	3.57140E+000	9	...........
	80	1.08	3.53002E-001	-8.87530E-005	0.00000E+000	-3.13300E-005	-5.39641E-002	3.53030E-001	3.57140E+000	9	...........
	81	1.09333	3.48296E-001	-8.86269E-005	0.00000E+000	-3.08684E-005	-5.39641E-002	3.48324E-001	3.57140E+000	9	...........
	82	1.10667	3.43607E-001	-8.85061E-005	0.00000E+000	-3.04113E-005	-5.39641E-002	3.43638E-001	3.57190E+000	9	...........
	83	1.12	3.38943E-001	-8.87551E-005	0.00000E+000	-3.00829E-005	-5.39641E-002	3.38974E-001	3.57190E+000	9	...........
	84	1.13333	3.34311E-001	-8.87645E-005	0.00000E+000	-2.96749E-005	-5.39641E-002	3.34340E-001	3.57190E+000	9	...........
	85	1.14667	3.29705E-001	-8.84519E-005	0.00000E+000	-2.91631E-005	-5.39641E-002	3.29732E-001	3.57190E+000	9	...........
	86	1.16	3.25139E-001	-8.87707E-005	0.00000E+000	-2.88628E-005	-5.39641E-002	3.25169E-001	3.57190E+000	9	...........
	87	1.17333	3.20598E-001	-8.86759E-005	0.00000E+000	-2.84293E-005	-5.39641E-002	3.20621E-001	3.57190E+000	9	...........
	88	1.18667	3.16059E-001	-8.84404E-005	0.00000E+000	-2.79524E-005	-5.39641E-002	3.16087E-001	3.57190E+000	9	...........
	89	1.2	3.11536E-001	-8.83842E-005	0.00000E+000	-2.75348E-005	-5.39641E-002	3.11568E-001	3.57190E+000	9	...........
	90	1.21333	3.07046E-001	-8.85384E-005	0.00000E+000	-2.71854E-005	-5.39641E-002	3.07073E-001	3.57190E+000	9	...........
	91	1.22667	3.02593E-001	-8.85686E-005	0.00000E+000	-2.68003E-005	-5.39641E-002	3.02616E-001	3.57190E+000	9	...........
	92	1.24	2.98139E-001	-8.85759E-005	0.00000E+000	-2.64079E-005	-5.39641E-002	2.98170E-001	3.57190E+000	9	...........
	93	1.25333	2.93721E-001	-8.85925E-005	0.00000E+000	-2.60215E-005	-5.39641E-002	2.93746E-001	3.57190E+000	9	...........
	94	1.26667	2.89326E-001	-8.87884E-005	0.00000E+000	-2.56888E-005	-5.39641E-002	2.89349E-001	3.57190E+000	9	...........
	95	1.28	2.84943E-001	-8.86332E-005	0.00000E+000	-2.52554E-005	-5.39641E-002	2.84973E-001	3.57190E+000	9	...........
	96	1.29333	2.80575E-001	-8.87061E-005	0.00000E+000	-2.48887E-005	-5.39641E-002	2.80600E-001	3.57190E+000	9	...........
	97	1.30667	2.76228E-001	-8.85165E-005	0.00000E+000	-2.44508E-005	-5.39641E-002	2.76253E-001	3.57190E+000	9	...........
	98	1.32	2.71904E-001	-8.86571E-005	0.00000E+000	-2.41062E-005	-5.39641E-002	2.71931E-001	3.57190E+000	9	...........
	99	1.33333	2.67591E-001	-8.84269E-005	0.00000E+000	-2.36623E-005	-5.39641E-002	2.67621E-001	3.57190E+000	9	...........
	100	1.34667	2.63307E-001	-8.86551E-005	0.00000E+000	-2.33435E-005	-5.39641E-002	2.63331E-001	3.57190E+000	9	...........
	101	1.36	2.59030E-001	-8.86103E-005	0.00000E+000	-2.29527E-005	-5.39641E-002	2.59053E-001	3.57190E+000	9	...........
	102	1.37333	2.54781E-001	-8.85029E-005	0.00000E+000	-2.25489E-005	-5.39641E-002	2.54807E-001	3.57190E+000	9	...........
	103	1.38667	2.50551E-001	-8.84842E-005	0.00000E+000	-2.21698E-005	-5.39641E-002	2.50573E-001	3.57190E+000	9	...........
	104	1.4	2.46343E-001	-8.86676E-005	0.00000E+000	-2.18426E-005	-5.39641E-002	2.46360E-001	3.57190E+000	9	...........
	105	1.41333	2.42166E-001	-8.86498E-005	0.00000E+000	-2.14679E-005	-5.39641E-002	2.42187E-001	3.57190E+000	9	...........
	106	1.42667	2.37984E-001	-8.84019E-005	0.00000E+000	-2.10382E-005	-5.39641E-002	2.37999E-001	3.57190E+000	9	...........
	107	1.44	2.33817E-001	-8.85384E-005	0.00000E+000	-2.07018E-005	-5.39641E-002	2.33832E-001	3.57190E+000	9	...........
	108	1.45333	2.29671E-001	-8.87394E-005	0.00000E+000	-2.03809E-005	-5.39641E-002	2.29685E-001	3.57190E+000	9	...........
	109	1.46667	2.25558E-001	-8.87561E-005	0.00000E+000	-2.00196E-005	-5.39641E-002	2.25567E-001	3.57190E+000	9	...........
	110	1.48	2.21441E-001	-8.87978E-005	0.00000E+000	-1.96635E-005	-5.39641E-002	2.21461E-001	3.57190E+000	9	...........
	111	1.49333	2.17358E-001	-8.85029E-005	0.00000E+000	-1.92369E-005	-5.39641E-002	2.17372E-001	3.57190E+000	9	...........
	112	1.50667	2.13284E-001	-8.86519E-005	0.00000E+000	-1.89081E-005	-5.39641E-002	2.13301E-001	3.57190E+000	9	...........
	113	1.52	2.09249E-001	-8.85863E-005	0.00000E+000	-1.85366E-005	-5.39641E-002	2.09258E-001	3.57190E+000	9	...........
	114	1.53333	2.05229E-001	-8.87780E-005	0.00000E+000	-1.82198E-005	-5.39641E-002	2.05240E-001	3.57190E+000	9	...........
	115	1.54667	2.01224E-001	-8.86217E-005	0.00000E+000	-1.78328E-005	-5.39641E-002	2.01240E-001	3.57190E+000	9	...........
	116	1.56	1.97242E-001	-8.86248E-005	0.00000E+000	-1.74806E-005	-5.39641E-002	1.97254E-001	3.57190E+000	9	...........
	117	1.57333	1.93277E-001	-8.83529E-005	0.00000E+000	-1.70766E-005	-5.39641E-002	1.93291E-001	3.57190E+000	9	...........
	118	1.58667	1.89337E-001	-8.85467E-005	0.00000E+000	-1.67651E-005	-5.39641E-002	1.89344E-001	3.57190E+000	9	...........
	119	1.6	1.85391E-001	-8.88759E-005	0.00000E+000	-1.64768E-005	-5.39641E-002	1.85400E-001	3.57190E+000	9	...........
	120	1.61333	1.81455E-001	-8.85519E-005	0.00000E+000	-1.60682E-005	-5.39641E-002	1.81469E-001	3.57190E+000	9	...........
	121	1.62667	1.77546E-001	-8.83904E-005	0.00000E+000	-1.56934E-005	-5.39641E-002	1.77556E-001	3.57190E+000	9	...........
	122	1.64	1.73639E-001	-8.83415E-005	0.00000E+000	-1.53396E-005	-5.39641E-002	1.73651E-001	3.57190E+000	9	...........
	123	1.65333	1.69757E-001	-8.85269E-005	0.00000E+000	-1.50281E-005	-5.39641E-002	1.69764E-001	3.57190E+000	9	...........
	124	1.66667	1.65896E-001	-8.87249E-005	0.00000E+000	-1.47191E-005	-5.39641E-002	1.65899E-001	3.57190E+000	9	...........
	125	1.68	1.62043E-001	-8.85332E-005	0.00000E+000	-1.43462E-005	-5.39641E-002	1.62052E-001	3.57190E+000	9	...........
	126	1.69333	1.58222E-001	-8.85905E-005	0.00000E+000	-1.40169E-005	-5.39641E-002	1.58225E-001	3.57190E+000	9	...........
	127	1.70667	1.54400E-001	-8.86217E-005	0.00000E+000	-1.36832E-005	-5.39641E-002	1.54406E-001	3.57190E+000	9	...........
	128	1.72	1.50581E-001	-8.88384E-005	0.00000E+000	-1.33774E-005	-5.39641E-002	1.50584E-001	3.57190E+000	9	...........
	129	1.73333	1.46760E-001	-8.82102E-005	0.00000E+000	-1.29458E-005	-5.39641E-002	1.46764E-001	3.57190E+000	9	...........
	130	1.74667	1.42961E-001	-8.84404E-005	0.00000E+000	-1.26435E-005	-5.39641E-002	1.42969E-001	3.57190E+000	9	...........
	131	1.76	1.39182E-001	-8.85748E-005	0.00000E+000	-1.23281E-005	-5.39641E-002	1.39191E-001	3.57190E+000	9	...........
	132	1.77333	1.35401E-001	-8.85978E-005	0.00000E+000	-1.19962E-005	-5.39641E-002	1.35408E-001	3.57190E+000	9	...........
	133	1.78667	1.31636E-001	-8.86051E-005	0.00000E+000	-1.16636E-005	-5.39641E-002	1.31639E-001	3.57190E+000	9	...........
	134	1.8	1.27889E-001	-8.85852E-005	0.00000E+000	-1.13291E-005	-5.39641E-002	1.27886E-001	3.57190E+000	9	...........
	135	1.81333	1.24155E-001	-8.87811E-005	0.00000E+000	-1.10226E-005	-5.39641E-002	1.24160E-001	3.57190E+000	9	...........
	136	1.82667	1.20448E-001	-8.86769E-005	0.00000E+000	-1.06810E-005	-5.39641E-002	1.20452E-001	3.57190E+000	9	...........
	137	1.84	1.16751E-001	-8.84238E-005	0.00000E+000	-1.03236E-005	-5.39641E-002	1.16761E-001	3.57190E+000	9	...........
	138	1.85333	1.13051E-001	-8.86165E-005	0.00000E+000	-1.00182E-005	-5.39641E-002	1.13059E-001	3.57190E+000	9	...........
	139	1.86667	1.09377E-001	-8.88895E-005	0.00000E+000	-9.72247E-006	-5.39641E-002	1.09384E-001	3.57190E+000	9	...........
	140	1.88	1.05715E-001	-8.85592E-005	0.00000E+000	-9.36200E-006	-5.39641E-002	1.05722E-001	3.57190E+000	9	...........
	141	1.89333	1.02059E-001	-8.87009E-005	0.00000E+000	-9.05277E-006	-5.39641E-002	1.02063E-001	3.57190E+000	9	...........
	142	1.90667	9.84373E-002	-8.86155E-005	0.00000E+000	-8.72307E-006	-5.39641E-002	9.84410E-002	3.57190E+000	9	...........
	143	1.92	9.48312E-002	-8.86780E-005	0.00000E+000	-8.40944E-006	-5.39641E-002	9.48363E-002	3.57190E+000	9	...........
	144	1.93333	9.12437E-002	-8.85394E-005	0.00000E+000	-8.07866E-006	-5.39641E-002	9.12459E-002	3.57190E+000	9	...........
	145	1.94667	8.76703E-002	-8.88811E-005	0.00000E+000	-7.79224E-006	-5.39641E-002	8.76689E-002	3.57190E+000	9	...........
	146	1.96	8.40933E-002	-8.86728E-005	0.00000E+000	-7.45678E-006	-5.39641E-002	8.40960E-002	3.57190E+000	9	...........
	147	1.97333	8.05441E-002	-8.87707E-005	0.00000E+000	-7.14996E-006	-5.39641E-002	8.05401E-002	3.57190E+000	9	...........
	148	1.98667	7.70088E-002	-8.84904E-005	0.00000E+000	-6.81455E-006	-5.39641E-002	7.70066E-002	3.57190E+000	9	...........
	149	2	7.34815E-002	-8.86040E-005	0.00000E+000	-6.51075E-006	-5.39641E-002	7.34845E-002	3.57190E+000	9	...........
	150	2.01333	6.99787E-002	-8.86280E-005	0.00000E+000	-6.20207E-006	-5.39641E-002	6.99772E-002	3.57190E+000	9	...........
	151	2.02667	6.64722E-002	-8.87165E-005	0.00000E+000	-5.89719E-006	-5.39641E-002	6.64698E-002	3.57190E+000	9	...........
	152	2.04	6.29764E-002	-8.84738E-005	0.00000E+000	-5.57176E-006	-5.39641E-002	6.29750E-002	3.57190E+000	9	...........
	153	2.05333	5.95187E-002	-8.85873E-005	0.00000E+000	-5.27260E-006	-5.39641E-002	5.95190E-002	3.57190E+000	9	...........
	154	2.06667	5.60720E-002	-8.87811E-005	0.00000E+000	-4.97813E-006	-5.39641E-002	5.60685E-002	3.57190E+000	9	...........
	155	2.08	5.26317E-002	-8.86863E-005	0.00000E+000	-4.66771E-006	-5.39641E-002	5.26272E-002	3.57190E+000	9	...........
	156	2.09333	4.92091E-002	-8.87290E-005	0.00000E+000	-4.36627E-006	-5.39641E-002	4.92054E-002	3.57190E+000	9	...........
	157	2.10667	4.58016E-002	-8.87030E-005	0.00000E+000	-4.06274E-006	-5.39641E-002	4.58086E-002	3.57130E+000	9	...........
	158	2.12	4.24216E-002	-8.86644E-005	0.00000E+000	-3.76129E-006	-5.39641E-002	4.24313E-002	3.57130E+000	9	...........
	159	2.13333	3.90646E-002	-8.83008E-005	0.00000E+000	-3.44943E-006	-5.39641E-002	3.90651E-002	3.57130E+000	9	...........
	160	2.14667	3.57217E-002	-8.86759E-005	0.00000E+000	-3.16765E-006	-5.39641E-002	3.57230E-002	3.57130E+000	9	...........
	161	2.16	3.23832E-002	-8.84529E-005	0.00000E+000	-2.86439E-006	-5.39641E-002	3.23889E-002	3.57130E+000	9	...........
	162	2.17333	2.90545E-002	-8.83133E-005	0.00000E+000	-2.56590E-006	-5.39641E-002	2.90563E-002	3.57130E+000	9	...........
	163	2.18667	2.57669E-002	-8.88041E-005	0.00000E+000	-2.28820E-006	-5.39641E-002	2.57613E-002	3.57130E+000	9	...........
	164	2.2	2.24929E-002	-8.88770E-005	0.00000E+000	-1.99910E-006	-5.39641E-002	2.24888E-002	3.57130E+000	9	...........
	165	2.21333	1.92101E-002	-8.83665E-005	0.00000E+000	-1.69753E-006	-5.39641E-002	1.92069E-002	3.57130E+000	9	...........
	166	2.22667	1.59609E-002	-8.85727E-005	0.00000E+000	-1.41370E-006	-5.39641E-002	1.59552E-002	3.57130E+000	9	...........
	167	2.24	1.27164E-002	-8.87290E-005	0.00000E+000	-1.12831E-006	-5.39641E-002	1.27102E-002	3.57130E+000	9	...........
	168	2.25333	9.51037E-003	-8.85873E-005	0.00000E+000	-8.42499E-007	-5.39641E-002	9.50021E-003	3.57130E+000	9	...........
	169	2.26667	6.32818E-003	-8.88166E-005	0.00000E+000	-5.62047E-007	-5.39641E-002	6.32045E-003	3.57130E+000	9	...........
	170	2.28	3.17494E-003	-8.86561E-005	0.00000E+000	-2.81478E-007	-5.39641E-002	3.16335E-003	3.57130E+000	9	...........
	171	2.28833	6.28358E-004	-8.87966E-005	0.00000E+000	-5.57960E-008	-5.39641E-002	6.17803E-004	3.57130E+000	9	...........
STARTTIMEOFFSET	QUANT	195.625	Start Time Offset (s)
