EXPLAIN
TAG	PWR800_DISCHARGE
TITLE	LABEL	PWR Cyclic Charge Discharge (Cell) - Discharge Step	Test &Identifier
DATE	LABEL	10-7-2017	Date
TIME	LABEL	15:18:52	Time
NOTES	NOTES	3	&Notes...
	supercap test cell
	0.9mg
	6M KOH
PSTAT	PSTAT	IFC5000-01520	Potentiostat
CAPACITY	QUANT	1.00000E-003	Capacity (A-hr)
CELLTYPE	SELECTOR	1	&Cell Type
WORKINGCONNECTION	SELECTOR	0	&Working Lead
MAXDISCHARGETIME	VARIABLEANDUNITS	1.00000E+002	s	1.00000E+002	second(s)	Max &Discharge Time
DISCHARGEMODE	MULTIPARAM	0	9.00000E-005	&Discharge Mode	Constant Current	Amp(s)
SAMPLETIME	QUANT	1.00000E-002	Sa&mple Period (s)
DISCHARGESTOPAT1	MULTIPARAM	3	0.00000E+000	Discharge Stop At &1	Voltage < Limit	V
DISCHARGESTOPAT2	MULTIPARAM	0	0.00000E+000	Discharge Stop At &2	None	N/A
AESBHCSELECTOR	TOGGLE	F	Save Both Half Cells
IRCOMP	TOGGLE	F	IR &Measure
EOC	QUANT	0	Open Circuit (V)
SEQUENCER	TOGGLE	TRUE	Run as Sequence
PSTATMODEL	IQUANT	53	Pstat Model
PSTATSECTION	LABEL	IFC5000-01520	Pstat Section
PSTATSERIALNO	LABEL	01520	Pstat Serial Number
CTRLMODE	IQUANT	0	Control Mode
ELECTROMETER	IQUANT	1	RE=0 or CS=1
IESTAB	IQUANT	0	I/E Stability
CASPEED	IQUANT	4	Control Amp Speed
CONVENTION	IQUANT	1	Current Convention
ICHRANGE	IQUANT	2	Ich Range
ICHRANGEMODE	TOGGLE	T	Ich Auto Range
ICHOFFSETENABLE	TOGGLE	F	Ich Offset Enable
ICHOFFSET	QUANT	0	Ich Offset (V)
ICHFILTER	IQUANT	1	Ich Filter
VCHRANGE	IQUANT	2	Vch Range
VCHRANGEMODE	TOGGLE	T	Vch Auto Range
VCHOFFSETENABLE	TOGGLE	F	Vch Offset Enable
VCHOFFSET	QUANT	0	Vch Offset (V)
VCHFILTER	IQUANT	1	Vch Filter
IERANGELOWERLIMIT	IQUANT	9	I/E Range Lower Limit
IERANGEMODE	TOGGLE	F	I/E AutoRange
IERANGE	IQUANT	9	I/E Range
ACHSELECT	IQUANT	1	Ach Select
ACHRANGE	IQUANT	2	Ach Range
ACHOFFSETENABLE	TOGGLE	F	Ach Offset Enable
ACHOFFSET	QUANT	0	Ach Offset (V)
ACHFILTER	IQUANT	1	Ach Filter
CABLEID	IQUANT	14	Cable ID
DCCALDATE	LABEL	5-7-2017	DC Calibration Date
ACCALDATE	LABEL	12/3/2015	AC Calibration Date
FRAMEWORKVERSION	QUANT	7.01	Framework Version
INSTRUMENTVERSION	LABEL	4.00	Instrument Version
CURVE	TABLE	160
	Pt	T	Vf	Im	Vu	Pwr	Sig	Ach	Temp	IERange	Over
	#	s	V	A	V	W	V	V	deg C	#	bits
	0	0.013333	8.24572E-001	-8.85592E-005	0.00000E+000	-7.30235E-005	-5.39641E-002	8.24732E-001	3.57200E+000	9	...........
	1	0.026667	8.12002E-001	-8.86134E-005	0.00000E+000	-7.19542E-005	-5.39641E-002	8.12150E-001	3.57200E+000	9	...........
	2	0.04	8.00210E-001	-8.84706E-005	0.00000E+000	-7.07951E-005	-5.39641E-002	8.00351E-001	3.57200E+000	9	...........
	3	0.053333	7.89008E-001	-8.87665E-005	0.00000E+000	-7.00375E-005	-5.39641E-002	7.89134E-001	3.57200E+000	9	...........
	4	0.066667	7.78349E-001	-8.87822E-005	0.00000E+000	-6.91035E-005	-5.39641E-002	7.78455E-001	3.57200E+000	9	...........
	5	0.08	7.68070E-001	-8.86269E-005	0.00000E+000	-6.80717E-005	-5.39641E-002	7.68209E-001	3.57200E+000	9	...........
	6	0.093333	7.58197E-001	-8.87478E-005	0.00000E+000	-6.72883E-005	-5.39641E-002	7.58316E-001	3.57200E+000	9	...........
	7	0.106667	7.48631E-001	-8.86696E-005	0.00000E+000	-6.63808E-005	-5.39641E-002	7.48739E-001	3.57200E+000	9	...........
	8	0.12	7.39342E-001	-8.89051E-005	0.00000E+000	-6.57313E-005	-5.39641E-002	7.39486E-001	3.57200E+000	9	...........
	9	0.133333	7.30365E-001	-8.85977E-005	0.00000E+000	-6.47087E-005	-5.39641E-002	7.30461E-001	3.57200E+000	9	...........
	10	0.146667	7.21627E-001	-8.88051E-005	0.00000E+000	-6.40841E-005	-5.39641E-002	7.21745E-001	3.57200E+000	9	...........
	11	0.16	7.13046E-001	-8.88770E-005	0.00000E+000	-6.33734E-005	-5.39641E-002	7.13180E-001	3.57200E+000	9	...........
	12	0.173333	7.04727E-001	-8.88916E-005	0.00000E+000	-6.26443E-005	-5.39641E-002	7.04876E-001	3.57200E+000	9	...........
	13	0.186667	6.96614E-001	-8.85227E-005	0.00000E+000	-6.16662E-005	-5.39641E-002	6.96737E-001	3.57200E+000	9	...........
	14	0.2	6.88665E-001	-8.85290E-005	0.00000E+000	-6.09668E-005	-5.39641E-002	6.88805E-001	3.57200E+000	9	...........
	15	0.213333	6.80911E-001	-8.85144E-005	0.00000E+000	-6.02704E-005	-5.39641E-002	6.81033E-001	3.57200E+000	9	...........
	16	0.226667	6.73298E-001	-8.86519E-005	0.00000E+000	-5.96891E-005	-5.39641E-002	6.73388E-001	3.57200E+000	9	...........
	17	0.24	6.65809E-001	-8.86915E-005	0.00000E+000	-5.90516E-005	-5.39641E-002	6.65938E-001	3.57200E+000	9	...........
	18	0.253333	6.58477E-001	-8.85425E-005	0.00000E+000	-5.83033E-005	-5.39641E-002	6.58574E-001	3.57200E+000	9	...........
	19	0.266667	6.51251E-001	-8.87551E-005	0.00000E+000	-5.78018E-005	-5.39641E-002	6.51373E-001	3.57200E+000	9	...........
	20	0.28	6.44204E-001	-8.86613E-005	0.00000E+000	-5.71160E-005	-5.39641E-002	6.44283E-001	3.57200E+000	9	...........
	21	0.293333	6.37218E-001	-8.87061E-005	0.00000E+000	-5.65252E-005	-5.39641E-002	6.37284E-001	3.57200E+000	9	...........
	22	0.306667	6.30357E-001	-8.87843E-005	0.00000E+000	-5.59658E-005	-5.39641E-002	6.30427E-001	3.57200E+000	9	...........
	23	0.32	6.23634E-001	-8.84759E-005	0.00000E+000	-5.51766E-005	-5.39641E-002	6.23683E-001	3.57200E+000	9	...........
	24	0.333333	6.16993E-001	-8.88416E-005	0.00000E+000	-5.48146E-005	-5.39641E-002	6.17062E-001	3.57200E+000	9	...........
	25	0.346667	6.10377E-001	-8.87915E-005	0.00000E+000	-5.41963E-005	-5.39641E-002	6.10494E-001	3.57200E+000	9	...........
	26	0.36	6.03902E-001	-8.84748E-005	0.00000E+000	-5.34301E-005	-5.39641E-002	6.04048E-001	3.57200E+000	9	...........
	27	0.373333	5.97550E-001	-8.84831E-005	0.00000E+000	-5.28731E-005	-5.39641E-002	5.97642E-001	3.57200E+000	9	...........
	28	0.386667	5.91237E-001	-8.86280E-005	0.00000E+000	-5.24002E-005	-5.39641E-002	5.91358E-001	3.57200E+000	9	...........
	29	0.4	5.84956E-001	-8.88947E-005	0.00000E+000	-5.19995E-005	-5.39641E-002	5.85077E-001	3.57200E+000	9	...........
	30	0.413333	5.78822E-001	-8.87478E-005	0.00000E+000	-5.13691E-005	-5.39641E-002	5.78918E-001	3.57200E+000	9	...........
	31	0.426667	5.72717E-001	-8.86165E-005	0.00000E+000	-5.07522E-005	-5.39641E-002	5.72795E-001	3.57200E+000	9	...........
	32	0.44	5.66672E-001	-8.87228E-005	0.00000E+000	-5.02767E-005	-5.39641E-002	5.66777E-001	3.57200E+000	9	...........
	33	0.453333	5.60665E-001	-8.86915E-005	0.00000E+000	-4.97262E-005	-5.39641E-002	5.60777E-001	3.57200E+000	9	...........
	34	0.466667	5.54733E-001	-8.86717E-005	0.00000E+000	-4.91891E-005	-5.39641E-002	5.54872E-001	3.57200E+000	9	...........
	35	0.48	5.48879E-001	-8.88499E-005	0.00000E+000	-4.87679E-005	-5.39641E-002	5.48986E-001	3.57200E+000	9	...........
	36	0.493333	5.43078E-001	-8.86999E-005	0.00000E+000	-4.81710E-005	-5.39641E-002	5.43180E-001	3.57200E+000	9	...........
	37	0.506667	5.37297E-001	-8.87290E-005	0.00000E+000	-4.76739E-005	-5.39641E-002	5.37424E-001	3.57200E+000	9	...........
	38	0.52	5.31548E-001	-8.87572E-005	0.00000E+000	-4.71787E-005	-5.39641E-002	5.31657E-001	3.57200E+000	9	...........
	39	0.533333	5.25872E-001	-8.87707E-005	0.00000E+000	-4.66820E-005	-5.39641E-002	5.25977E-001	3.57200E+000	9	...........
	40	0.546667	5.20219E-001	-8.86196E-005	0.00000E+000	-4.61016E-005	-5.39641E-002	5.20320E-001	3.57200E+000	9	...........
	41	0.56	5.14613E-001	-8.85061E-005	0.00000E+000	-4.55464E-005	-5.39641E-002	5.14701E-001	3.57200E+000	9	...........
	42	0.573333	5.09000E-001	-8.83863E-005	0.00000E+000	-4.49886E-005	-5.39641E-002	5.09153E-001	3.57200E+000	9	...........
	43	0.586667	5.03459E-001	-8.87572E-005	0.00000E+000	-4.46856E-005	-5.39641E-002	5.03588E-001	3.57200E+000	9	...........
	44	0.6	4.97959E-001	-8.85436E-005	0.00000E+000	-4.40911E-005	-5.39641E-002	4.98095E-001	3.57200E+000	9	...........
	45	0.613333	4.92532E-001	-8.88822E-005	0.00000E+000	-4.37773E-005	-5.39641E-002	4.92628E-001	3.57200E+000	9	...........
	46	0.626667	4.87134E-001	-8.89457E-005	0.00000E+000	-4.33285E-005	-5.39641E-002	4.87224E-001	3.57200E+000	9	...........
	47	0.64	4.81788E-001	-8.85290E-005	0.00000E+000	-4.26522E-005	-5.39641E-002	4.81850E-001	3.57200E+000	9	...........
	48	0.653333	4.76394E-001	-8.85509E-005	0.00000E+000	-4.21851E-005	-5.39641E-002	4.76454E-001	3.57200E+000	9	...........
	49	0.666667	4.71046E-001	-8.86936E-005	0.00000E+000	-4.17787E-005	-5.39641E-002	4.71103E-001	3.57200E+000	9	...........
	50	0.68	4.65724E-001	-8.87061E-005	0.00000E+000	-4.13126E-005	-5.39641E-002	4.65782E-001	3.57200E+000	9	...........
	51	0.693333	4.60420E-001	-8.87447E-005	0.00000E+000	-4.08598E-005	-5.39641E-002	4.60477E-001	3.57200E+000	9	...........
	52	0.706667	4.55124E-001	-8.86248E-005	0.00000E+000	-4.03353E-005	-5.39641E-002	4.55184E-001	3.57200E+000	9	...........
	53	0.72	4.49864E-001	-8.87832E-005	0.00000E+000	-3.99404E-005	-5.39641E-002	4.49922E-001	3.57200E+000	9	...........
	54	0.733333	4.44636E-001	-8.86634E-005	0.00000E+000	-3.94230E-005	-5.39641E-002	4.44696E-001	3.57200E+000	9	...........
	55	0.746667	4.39432E-001	-8.87832E-005	0.00000E+000	-3.90142E-005	-5.39641E-002	4.39489E-001	3.57200E+000	9	...........
	56	0.76	4.34235E-001	-8.87509E-005	0.00000E+000	-3.85388E-005	-5.39641E-002	4.34289E-001	3.57200E+000	9	...........
	57	0.773333	4.29053E-001	-8.88957E-005	0.00000E+000	-3.81410E-005	-5.39641E-002	4.29106E-001	3.57200E+000	9	...........
	58	0.786667	4.23887E-001	-8.86353E-005	0.00000E+000	-3.75714E-005	-5.39641E-002	4.23943E-001	3.57200E+000	9	...........
	59	0.8	4.18751E-001	-8.89468E-005	0.00000E+000	-3.72465E-005	-5.39641E-002	4.18803E-001	3.57200E+000	9	...........
	60	0.813333	4.13631E-001	-8.88228E-005	0.00000E+000	-3.67399E-005	-5.39641E-002	4.13685E-001	3.57200E+000	9	...........
	61	0.826667	4.08524E-001	-8.86728E-005	0.00000E+000	-3.62249E-005	-5.39641E-002	4.08574E-001	3.57200E+000	9	...........
	62	0.84	4.03433E-001	-8.86999E-005	0.00000E+000	-3.57845E-005	-5.39641E-002	4.03472E-001	3.57200E+000	9	...........
	63	0.853333	3.98361E-001	-8.85759E-005	0.00000E+000	-3.52852E-005	-5.39641E-002	3.98405E-001	3.57200E+000	9	...........
	64	0.866667	3.93314E-001	-8.87978E-005	0.00000E+000	-3.49254E-005	-5.39641E-002	3.93364E-001	3.57200E+000	9	...........
	65	0.88	3.88288E-001	-8.84581E-005	0.00000E+000	-3.43472E-005	-5.39641E-002	3.88331E-001	3.57200E+000	9	...........
	66	0.893333	3.83293E-001	-8.86780E-005	0.00000E+000	-3.39897E-005	-5.39641E-002	3.83332E-001	3.57200E+000	9	...........
	67	0.906667	3.78307E-001	-8.86978E-005	0.00000E+000	-3.35550E-005	-5.39641E-002	3.78353E-001	3.57200E+000	9	...........
	68	0.92	3.73338E-001	-8.86842E-005	0.00000E+000	-3.31092E-005	-5.39641E-002	3.73376E-001	3.57200E+000	9	...........
	69	0.933333	3.68375E-001	-8.87447E-005	0.00000E+000	-3.26913E-005	-5.39641E-002	3.68412E-001	3.57200E+000	9	...........
	70	0.946667	3.63438E-001	-8.87207E-005	0.00000E+000	-3.22445E-005	-5.39641E-002	3.63479E-001	3.57200E+000	9	...........
	71	0.96	3.58530E-001	-8.86769E-005	0.00000E+000	-3.17934E-005	-5.39641E-002	3.58566E-001	3.57200E+000	9	...........
	72	0.97333	3.53620E-001	-8.88655E-005	0.00000E+000	-3.14246E-005	-5.39641E-002	3.53658E-001	3.57200E+000	9	...........
	73	0.98667	3.48731E-001	-8.86613E-005	0.00000E+000	-3.09190E-005	-5.39641E-002	3.48768E-001	3.57200E+000	9	...........
	74	1	3.43858E-001	-8.86582E-005	0.00000E+000	-3.04858E-005	-5.39641E-002	3.43894E-001	3.57200E+000	9	...........
	75	1.01333	3.39007E-001	-8.90051E-005	0.00000E+000	-3.01733E-005	-5.39641E-002	3.39037E-001	3.57200E+000	9	...........
	76	1.02667	3.34189E-001	-8.88561E-005	0.00000E+000	-2.96947E-005	-5.39641E-002	3.34222E-001	3.57200E+000	9	...........
	77	1.04	3.29403E-001	-8.89072E-005	0.00000E+000	-2.92863E-005	-5.39641E-002	3.29433E-001	3.57200E+000	9	...........
	78	1.05333	3.24650E-001	-8.86092E-005	0.00000E+000	-2.87670E-005	-5.39641E-002	3.24682E-001	3.57200E+000	9	...........
	79	1.06667	3.19918E-001	-8.86842E-005	0.00000E+000	-2.83717E-005	-5.39641E-002	3.19950E-001	3.57200E+000	9	...........
	80	1.08	3.15199E-001	-8.87843E-005	0.00000E+000	-2.79847E-005	-5.39641E-002	3.15235E-001	3.57200E+000	9	...........
	81	1.09333	3.10479E-001	-8.88301E-005	0.00000E+000	-2.75799E-005	-5.39641E-002	3.10516E-001	3.57200E+000	9	...........
	82	1.10667	3.05771E-001	-8.85029E-005	0.00000E+000	-2.70616E-005	-5.39641E-002	3.05810E-001	3.57200E+000	9	...........
	83	1.12	3.01089E-001	-8.87051E-005	0.00000E+000	-2.67082E-005	-5.39641E-002	3.01125E-001	3.57200E+000	9	...........
	84	1.13333	2.96426E-001	-8.85144E-005	0.00000E+000	-2.62380E-005	-5.39641E-002	2.96459E-001	3.57200E+000	9	...........
	85	1.14667	2.91801E-001	-8.83269E-005	0.00000E+000	-2.57739E-005	-5.39641E-002	2.91835E-001	3.57200E+000	9	...........
	86	1.16	2.87187E-001	-8.85029E-005	0.00000E+000	-2.54169E-005	-5.39641E-002	2.87220E-001	3.57200E+000	9	...........
	87	1.17333	2.82585E-001	-8.86155E-005	0.00000E+000	-2.50414E-005	-5.39641E-002	2.82622E-001	3.57200E+000	9	...........
	88	1.18667	2.78014E-001	-8.89822E-005	0.00000E+000	-2.47383E-005	-5.39641E-002	2.78043E-001	3.57200E+000	9	...........
	89	1.2	2.73459E-001	-8.87249E-005	0.00000E+000	-2.42627E-005	-5.39641E-002	2.73492E-001	3.57200E+000	9	...........
	90	1.21333	2.68937E-001	-8.88124E-005	0.00000E+000	-2.38850E-005	-5.39641E-002	2.68970E-001	3.57200E+000	9	...........
	91	1.22667	2.64417E-001	-8.87905E-005	0.00000E+000	-2.34777E-005	-5.39641E-002	2.64451E-001	3.57200E+000	9	...........
	92	1.24	2.59937E-001	-8.87030E-005	0.00000E+000	-2.30571E-005	-5.39641E-002	2.59966E-001	3.57200E+000	9	...........
	93	1.25333	2.55456E-001	-8.87165E-005	0.00000E+000	-2.26631E-005	-5.39641E-002	2.55485E-001	3.57200E+000	9	...........
	94	1.26667	2.50999E-001	-8.87436E-005	0.00000E+000	-2.22745E-005	-5.39641E-002	2.51033E-001	3.57200E+000	9	...........
	95	1.28	2.46574E-001	-8.86936E-005	0.00000E+000	-2.18695E-005	-5.39641E-002	2.46600E-001	3.57200E+000	9	...........
	96	1.29333	2.42170E-001	-8.87707E-005	0.00000E+000	-2.14976E-005	-5.39641E-002	2.42196E-001	3.57200E+000	9	...........
	97	1.30667	2.37784E-001	-8.86009E-005	0.00000E+000	-2.10678E-005	-5.39641E-002	2.37809E-001	3.57200E+000	9	...........
	98	1.32	2.33434E-001	-8.85759E-005	0.00000E+000	-2.06766E-005	-5.39641E-002	2.33455E-001	3.57200E+000	9	...........
	99	1.33333	2.29085E-001	-8.85727E-005	0.00000E+000	-2.02907E-005	-5.39641E-002	2.29109E-001	3.57200E+000	9	...........
	100	1.34667	2.24731E-001	-8.87801E-005	0.00000E+000	-1.99516E-005	-5.39641E-002	2.24759E-001	3.57200E+000	9	...........
	101	1.36	2.20415E-001	-8.87082E-005	0.00000E+000	-1.95526E-005	-5.39641E-002	2.20439E-001	3.57200E+000	9	...........
	102	1.37333	2.16125E-001	-8.89280E-005	0.00000E+000	-1.92196E-005	-5.39641E-002	2.16151E-001	3.57200E+000	9	...........
	103	1.38667	2.11848E-001	-8.89520E-005	0.00000E+000	-1.88443E-005	-5.39641E-002	2.11871E-001	3.57200E+000	9	...........
	104	1.4	2.07605E-001	-8.84821E-005	0.00000E+000	-1.83693E-005	-5.39641E-002	2.07625E-001	3.57200E+000	9	...........
	105	1.41333	2.03376E-001	-8.88436E-005	0.00000E+000	-1.80687E-005	-5.39641E-002	2.03403E-001	3.57200E+000	9	...........
	106	1.42667	1.99171E-001	-8.88916E-005	0.00000E+000	-1.77046E-005	-5.39641E-002	1.99196E-001	3.57200E+000	9	...........
	107	1.44	1.94992E-001	-8.88280E-005	0.00000E+000	-1.73208E-005	-5.39641E-002	1.95009E-001	3.57200E+000	9	...........
	108	1.45333	1.90829E-001	-8.85832E-005	0.00000E+000	-1.69042E-005	-5.39641E-002	1.90847E-001	3.57200E+000	9	...........
	109	1.46667	1.86668E-001	-8.89687E-005	0.00000E+000	-1.66076E-005	-5.39641E-002	1.86688E-001	3.57200E+000	9	...........
	110	1.48	1.82530E-001	-8.87395E-005	0.00000E+000	-1.61977E-005	-5.39641E-002	1.82548E-001	3.57200E+000	9	...........
	111	1.49333	1.78406E-001	-8.84831E-005	0.00000E+000	-1.57859E-005	-5.39641E-002	1.78425E-001	3.57200E+000	9	...........
	112	1.50667	1.74303E-001	-8.89385E-005	0.00000E+000	-1.55022E-005	-5.39641E-002	1.74317E-001	3.57200E+000	9	...........
	113	1.52	1.70226E-001	-8.86478E-005	0.00000E+000	-1.50901E-005	-5.39641E-002	1.70243E-001	3.57200E+000	9	...........
	114	1.53333	1.66162E-001	-8.89124E-005	0.00000E+000	-1.47739E-005	-5.39641E-002	1.66181E-001	3.57200E+000	9	...........
	115	1.54667	1.62117E-001	-8.85957E-005	0.00000E+000	-1.43629E-005	-5.39641E-002	1.62130E-001	3.57200E+000	9	...........
	116	1.56	1.58092E-001	-8.85655E-005	0.00000E+000	-1.40015E-005	-5.39641E-002	1.58106E-001	3.57200E+000	9	...........
	117	1.57333	1.54087E-001	-8.88999E-005	0.00000E+000	-1.36983E-005	-5.39641E-002	1.54097E-001	3.57200E+000	9	...........
	118	1.58667	1.50090E-001	-8.88905E-005	0.00000E+000	-1.33415E-005	-5.39641E-002	1.50098E-001	3.57200E+000	9	...........
	119	1.6	1.46098E-001	-8.88478E-005	0.00000E+000	-1.29805E-005	-5.39641E-002	1.46107E-001	3.57200E+000	9	...........
	120	1.61333	1.42129E-001	-8.91052E-005	0.00000E+000	-1.26644E-005	-5.39641E-002	1.42139E-001	3.57200E+000	9	...........
	121	1.62667	1.38164E-001	-8.86030E-005	0.00000E+000	-1.22418E-005	-5.39641E-002	1.38170E-001	3.57200E+000	9	...........
	122	1.64	1.34215E-001	-8.84998E-005	0.00000E+000	-1.18780E-005	-5.39641E-002	1.34221E-001	3.57200E+000	9	...........
	123	1.65333	1.30284E-001	-8.87947E-005	0.00000E+000	-1.15685E-005	-5.39641E-002	1.30288E-001	3.57200E+000	9	...........
	124	1.66667	1.26376E-001	-8.86436E-005	0.00000E+000	-1.12024E-005	-5.39641E-002	1.26384E-001	3.57200E+000	9	...........
	125	1.68	1.22483E-001	-8.87280E-005	0.00000E+000	-1.08677E-005	-5.39641E-002	1.22483E-001	3.57200E+000	9	...........
	126	1.69333	1.18604E-001	-8.89708E-005	0.00000E+000	-1.05523E-005	-5.39641E-002	1.18616E-001	3.57200E+000	9	...........
	127	1.70667	1.14754E-001	-8.87238E-005	0.00000E+000	-1.01815E-005	-5.39641E-002	1.14761E-001	3.57200E+000	9	...........
	128	1.72	1.10909E-001	-8.87530E-005	0.00000E+000	-9.84348E-006	-5.39641E-002	1.10917E-001	3.57200E+000	9	...........
	129	1.73333	1.07081E-001	-8.88676E-005	0.00000E+000	-9.51600E-006	-5.39641E-002	1.07084E-001	3.57200E+000	9	...........
	130	1.74667	1.03263E-001	-8.88780E-005	0.00000E+000	-9.17785E-006	-5.39641E-002	1.03264E-001	3.57200E+000	9	...........
	131	1.76	9.94428E-002	-8.85602E-005	0.00000E+000	-8.80668E-006	-5.39641E-002	9.94497E-002	3.57200E+000	9	...........
	132	1.77333	9.56213E-002	-8.87853E-005	0.00000E+000	-8.48976E-006	-5.39641E-002	9.56281E-002	3.57200E+000	9	...........
	133	1.78667	9.18468E-002	-8.87290E-005	0.00000E+000	-8.14948E-006	-5.39641E-002	9.18482E-002	3.57200E+000	9	...........
	134	1.8	8.80933E-002	-8.88322E-005	0.00000E+000	-7.82552E-006	-5.39641E-002	8.80934E-002	3.57200E+000	9	...........
	135	1.81333	8.43565E-002	-8.87592E-005	0.00000E+000	-7.48742E-006	-5.39641E-002	8.43607E-002	3.57200E+000	9	...........
	136	1.82667	8.06358E-002	-8.85977E-005	0.00000E+000	-7.14415E-006	-5.39641E-002	8.06397E-002	3.57200E+000	9	...........
	137	1.84	7.69185E-002	-8.88905E-005	0.00000E+000	-6.83733E-006	-5.39641E-002	7.69142E-002	3.57200E+000	9	...........
	138	1.85333	7.32107E-002	-8.87780E-005	0.00000E+000	-6.49950E-006	-5.39641E-002	7.32063E-002	3.57200E+000	9	...........
	139	1.86667	6.95164E-002	-8.88707E-005	0.00000E+000	-6.17798E-006	-5.39641E-002	6.95118E-002	3.57200E+000	9	...........
	140	1.88	6.58473E-002	-8.87499E-005	0.00000E+000	-5.84394E-006	-5.39641E-002	6.58415E-002	3.57200E+000	9	...........
	141	1.89333	6.21911E-002	-8.87092E-005	0.00000E+000	-5.51693E-006	-5.39641E-002	6.21862E-002	3.57200E+000	9	...........
	142	1.90667	5.85598E-002	-8.86624E-005	0.00000E+000	-5.19205E-006	-5.39641E-002	5.85554E-002	3.57200E+000	9	...........
	143	1.92	5.49347E-002	-8.86009E-005	0.00000E+000	-4.86726E-006	-5.39641E-002	5.49316E-002	3.57200E+000	9	...........
	144	1.93333	5.13312E-002	-8.85759E-005	0.00000E+000	-4.54670E-006	-5.39641E-002	5.13336E-002	3.57200E+000	9	...........
	145	1.94667	4.77503E-002	-8.89176E-005	0.00000E+000	-4.24584E-006	-5.39641E-002	4.77570E-002	3.57200E+000	9	...........
	146	1.96	4.41735E-002	-8.86884E-005	0.00000E+000	-3.91768E-006	-5.39641E-002	4.41812E-002	3.57200E+000	9	...........
	147	1.97333	4.06039E-002	-8.88218E-005	0.00000E+000	-3.60651E-006	-5.39641E-002	4.06110E-002	3.57200E+000	9	...........
	148	1.98667	3.70440E-002	-8.88864E-005	0.00000E+000	-3.29271E-006	-5.39641E-002	3.70508E-002	3.57200E+000	9	...........
	149	2	3.34899E-002	-8.89562E-005	0.00000E+000	-2.97913E-006	-5.39641E-002	3.34930E-002	3.57200E+000	9	...........
	150	2.01333	2.99567E-002	-8.85332E-005	0.00000E+000	-2.65216E-006	-5.39641E-002	2.99583E-002	3.57200E+000	9	...........
	151	2.02667	2.64243E-002	-8.85332E-005	0.00000E+000	-2.33942E-006	-5.39641E-002	2.64267E-002	3.57200E+000	9	...........
	152	2.04	2.29214E-002	-8.86978E-005	0.00000E+000	-2.03307E-006	-5.39641E-002	2.29172E-002	3.57200E+000	9	...........
	153	2.05333	1.94567E-002	-8.87134E-005	0.00000E+000	-1.72607E-006	-5.39641E-002	1.94512E-002	3.57200E+000	9	...........
	154	2.06667	1.60120E-002	-8.89947E-005	0.00000E+000	-1.42499E-006	-5.39641E-002	1.60022E-002	3.57200E+000	9	...........
	155	2.08	1.25756E-002	-8.86061E-005	0.00000E+000	-1.11428E-006	-5.39641E-002	1.25624E-002	3.57200E+000	9	...........
	156	2.09333	9.13666E-003	-8.85446E-005	0.00000E+000	-8.09002E-007	-5.39641E-002	9.12616E-003	3.57200E+000	9	...........
	157	2.10667	5.71928E-003	-8.87197E-005	0.00000E+000	-5.07413E-007	-5.39641E-002	5.70745E-003	3.57200E+000	9	...........
	158	2.12	2.32871E-003	-8.86592E-005	0.00000E+000	-2.06461E-007	-5.39641E-002	2.31646E-003	3.57200E+000	9	...........
	159	2.125	6.97331E-006	-8.84331E-005	0.00000E+000	-6.16671E-010	-5.39641E-002	-7.70258E-006	3.57200E+000	9	...........
STARTTIMEOFFSET	QUANT	996.46	Start Time Offset (s)
