EXPLAIN
TAG	PWR800_DISCHARGE
TITLE	LABEL	PWR Cyclic Charge Discharge (Cell) - Discharge Step	Test &Identifier
DATE	LABEL	10-7-2017	Date
TIME	LABEL	15:14:56	Time
NOTES	NOTES	3	&Notes...
	supercap test cell
	0.9mg
	6M KOH
PSTAT	PSTAT	IFC5000-01520	Potentiostat
CAPACITY	QUANT	1.00000E-003	Capacity (A-hr)
CELLTYPE	SELECTOR	1	&Cell Type
WORKINGCONNECTION	SELECTOR	0	&Working Lead
MAXDISCHARGETIME	VARIABLEANDUNITS	1.00000E+002	s	1.00000E+002	second(s)	Max &Discharge Time
DISCHARGEMODE	MULTIPARAM	0	9.00000E-005	&Discharge Mode	Constant Current	Amp(s)
SAMPLETIME	QUANT	1.00000E-002	Sa&mple Period (s)
DISCHARGESTOPAT1	MULTIPARAM	3	0.00000E+000	Discharge Stop At &1	Voltage < Limit	V
DISCHARGESTOPAT2	MULTIPARAM	0	0.00000E+000	Discharge Stop At &2	None	N/A
AESBHCSELECTOR	TOGGLE	F	Save Both Half Cells
IRCOMP	TOGGLE	F	IR &Measure
EOC	QUANT	0	Open Circuit (V)
SEQUENCER	TOGGLE	TRUE	Run as Sequence
PSTATMODEL	IQUANT	53	Pstat Model
PSTATSECTION	LABEL	IFC5000-01520	Pstat Section
PSTATSERIALNO	LABEL	01520	Pstat Serial Number
CTRLMODE	IQUANT	0	Control Mode
ELECTROMETER	IQUANT	1	RE=0 or CS=1
IESTAB	IQUANT	0	I/E Stability
CASPEED	IQUANT	4	Control Amp Speed
CONVENTION	IQUANT	1	Current Convention
ICHRANGE	IQUANT	2	Ich Range
ICHRANGEMODE	TOGGLE	T	Ich Auto Range
ICHOFFSETENABLE	TOGGLE	F	Ich Offset Enable
ICHOFFSET	QUANT	0	Ich Offset (V)
ICHFILTER	IQUANT	1	Ich Filter
VCHRANGE	IQUANT	2	Vch Range
VCHRANGEMODE	TOGGLE	T	Vch Auto Range
VCHOFFSETENABLE	TOGGLE	F	Vch Offset Enable
VCHOFFSET	QUANT	0	Vch Offset (V)
VCHFILTER	IQUANT	1	Vch Filter
IERANGELOWERLIMIT	IQUANT	9	I/E Range Lower Limit
IERANGEMODE	TOGGLE	F	I/E AutoRange
IERANGE	IQUANT	9	I/E Range
ACHSELECT	IQUANT	1	Ach Select
ACHRANGE	IQUANT	2	Ach Range
ACHOFFSETENABLE	TOGGLE	F	Ach Offset Enable
ACHOFFSET	QUANT	0	Ach Offset (V)
ACHFILTER	IQUANT	1	Ach Filter
CABLEID	IQUANT	14	Cable ID
DCCALDATE	LABEL	5-7-2017	DC Calibration Date
ACCALDATE	LABEL	12/3/2015	AC Calibration Date
FRAMEWORKVERSION	QUANT	7.01	Framework Version
INSTRUMENTVERSION	LABEL	4.00	Instrument Version
CURVE	TABLE	162
	Pt	T	Vf	Im	Vu	Pwr	Sig	Ach	Temp	IERange	Over
	#	s	V	A	V	W	V	V	deg C	#	bits
	0	0.013333	8.27177E-001	-8.86363E-005	0.00000E+000	-7.33179E-005	-5.39641E-002	8.27342E-001	3.57180E+000	9	...........
	1	0.026667	8.14898E-001	-8.86707E-005	0.00000E+000	-7.22575E-005	-5.39641E-002	8.15053E-001	3.57180E+000	9	...........
	2	0.04	8.03361E-001	-8.86894E-005	0.00000E+000	-7.12496E-005	-5.39641E-002	8.03508E-001	3.57180E+000	9	...........
	3	0.053333	7.92422E-001	-8.84759E-005	0.00000E+000	-7.01102E-005	-5.39641E-002	7.92537E-001	3.57180E+000	9	...........
	4	0.066667	7.81925E-001	-8.86728E-005	0.00000E+000	-6.93355E-005	-5.39641E-002	7.82057E-001	3.57180E+000	9	...........
	5	0.08	7.71877E-001	-8.89416E-005	0.00000E+000	-6.86519E-005	-5.39641E-002	7.72005E-001	3.57180E+000	9	...........
	6	0.093333	7.62167E-001	-8.87915E-005	0.00000E+000	-6.76740E-005	-5.39641E-002	7.62287E-001	3.57180E+000	9	...........
	7	0.106667	7.52800E-001	-8.88603E-005	0.00000E+000	-6.68940E-005	-5.39641E-002	7.52910E-001	3.57180E+000	9	...........
	8	0.12	7.43714E-001	-8.88447E-005	0.00000E+000	-6.60750E-005	-5.39641E-002	7.43808E-001	3.57180E+000	9	...........
	9	0.133333	7.34859E-001	-8.88509E-005	0.00000E+000	-6.52929E-005	-5.39641E-002	7.34979E-001	3.57180E+000	9	...........
	10	0.146667	7.26271E-001	-8.86248E-005	0.00000E+000	-6.43657E-005	-5.39641E-002	7.26379E-001	3.57180E+000	9	...........
	11	0.16	7.17872E-001	-8.85613E-005	0.00000E+000	-6.35757E-005	-5.39641E-002	7.17990E-001	3.57180E+000	9	...........
	12	0.173333	7.09681E-001	-8.87040E-005	0.00000E+000	-6.29516E-005	-5.39641E-002	7.09785E-001	3.57180E+000	9	...........
	13	0.186667	7.01692E-001	-8.86478E-005	0.00000E+000	-6.22034E-005	-5.39641E-002	7.01802E-001	3.57180E+000	9	...........
	14	0.2	6.93894E-001	-8.86717E-005	0.00000E+000	-6.15288E-005	-5.39641E-002	6.93995E-001	3.57180E+000	9	...........
	15	0.213333	6.86193E-001	-8.85905E-005	0.00000E+000	-6.07901E-005	-5.39641E-002	6.86312E-001	3.57180E+000	9	...........
	16	0.226667	6.78700E-001	-8.88593E-005	0.00000E+000	-6.03088E-005	-5.39641E-002	6.78780E-001	3.57180E+000	9	...........
	17	0.24	6.71318E-001	-8.85686E-005	0.00000E+000	-5.94577E-005	-5.39641E-002	6.71400E-001	3.57180E+000	9	...........
	18	0.253333	6.64066E-001	-8.90760E-005	0.00000E+000	-5.91523E-005	-5.39641E-002	6.64152E-001	3.57180E+000	9	...........
	19	0.266667	6.56943E-001	-8.85665E-005	0.00000E+000	-5.81831E-005	-5.39641E-002	6.57007E-001	3.57180E+000	9	...........
	20	0.28	6.49935E-001	-8.89395E-005	0.00000E+000	-5.78049E-005	-5.39641E-002	6.50007E-001	3.57180E+000	9	...........
	21	0.293333	6.43055E-001	-8.88405E-005	0.00000E+000	-5.71294E-005	-5.39641E-002	6.43133E-001	3.57180E+000	9	...........
	22	0.306667	6.36238E-001	-8.85655E-005	0.00000E+000	-5.63487E-005	-5.39641E-002	6.36314E-001	3.57180E+000	9	...........
	23	0.32	6.29575E-001	-8.86717E-005	0.00000E+000	-5.58255E-005	-5.39641E-002	6.29629E-001	3.57180E+000	9	...........
	24	0.333333	6.22993E-001	-8.86228E-005	0.00000E+000	-5.52114E-005	-5.39641E-002	6.23028E-001	3.57180E+000	9	...........
	25	0.346667	6.16496E-001	-8.90166E-005	0.00000E+000	-5.48783E-005	-5.39641E-002	6.16539E-001	3.57180E+000	9	...........
	26	0.36	6.10033E-001	-8.87936E-005	0.00000E+000	-5.41671E-005	-5.39641E-002	6.10120E-001	3.57180E+000	9	...........
	27	0.373333	6.03711E-001	-8.87072E-005	0.00000E+000	-5.35535E-005	-5.39641E-002	6.03803E-001	3.57180E+000	9	...........
	28	0.386667	5.97452E-001	-8.87697E-005	0.00000E+000	-5.30356E-005	-5.39641E-002	5.97553E-001	3.57180E+000	9	...........
	29	0.4	5.91261E-001	-8.85290E-005	0.00000E+000	-5.23438E-005	-5.39641E-002	5.91377E-001	3.57180E+000	9	...........
	30	0.413333	5.85120E-001	-8.89801E-005	0.00000E+000	-5.20641E-005	-5.39641E-002	5.85228E-001	3.57180E+000	9	...........
	31	0.426667	5.79062E-001	-8.88718E-005	0.00000E+000	-5.14622E-005	-5.39641E-002	5.79178E-001	3.57180E+000	9	...........
	32	0.44	5.73094E-001	-8.87874E-005	0.00000E+000	-5.08836E-005	-5.39641E-002	5.73181E-001	3.57180E+000	9	...........
	33	0.453333	5.67150E-001	-8.87822E-005	0.00000E+000	-5.03528E-005	-5.39641E-002	5.67241E-001	3.57180E+000	9	...........
	34	0.466667	5.61233E-001	-8.87863E-005	0.00000E+000	-4.98298E-005	-5.39641E-002	5.61345E-001	3.57180E+000	9	...........
	35	0.48	5.55373E-001	-8.88843E-005	0.00000E+000	-4.93639E-005	-5.39641E-002	5.55490E-001	3.57180E+000	9	...........
	36	0.493333	5.49626E-001	-8.88791E-005	0.00000E+000	-4.88502E-005	-5.39641E-002	5.49700E-001	3.57180E+000	9	...........
	37	0.506667	5.43867E-001	-8.86488E-005	0.00000E+000	-4.82132E-005	-5.39641E-002	5.43960E-001	3.57180E+000	9	...........
	38	0.52	5.38189E-001	-8.88499E-005	0.00000E+000	-4.78180E-005	-5.39641E-002	5.38267E-001	3.57180E+000	9	...........
	39	0.533333	5.32494E-001	-8.85915E-005	0.00000E+000	-4.71745E-005	-5.39641E-002	5.32574E-001	3.57180E+000	9	...........
	40	0.546667	5.26894E-001	-8.86009E-005	0.00000E+000	-4.66832E-005	-5.39641E-002	5.26972E-001	3.57180E+000	9	...........
	41	0.56	5.21327E-001	-8.87478E-005	0.00000E+000	-4.62666E-005	-5.39641E-002	5.21397E-001	3.57180E+000	9	...........
	42	0.573333	5.15786E-001	-8.87426E-005	0.00000E+000	-4.57722E-005	-5.39641E-002	5.15858E-001	3.57180E+000	9	...........
	43	0.586667	5.10247E-001	-8.87645E-005	0.00000E+000	-4.52918E-005	-5.39641E-002	5.10340E-001	3.57180E+000	9	...........
	44	0.6	5.04758E-001	-8.90030E-005	0.00000E+000	-4.49250E-005	-5.39641E-002	5.04851E-001	3.57180E+000	9	...........
	45	0.613333	4.99305E-001	-8.87749E-005	0.00000E+000	-4.43257E-005	-5.39641E-002	4.99411E-001	3.57180E+000	9	...........
	46	0.626667	4.93914E-001	-8.89249E-005	0.00000E+000	-4.39213E-005	-5.39641E-002	4.93984E-001	3.57180E+000	9	...........
	47	0.64	4.88543E-001	-8.87488E-005	0.00000E+000	-4.33576E-005	-5.39641E-002	4.88618E-001	3.57180E+000	9	...........
	48	0.653333	4.83223E-001	-8.87822E-005	0.00000E+000	-4.29016E-005	-5.39641E-002	4.83292E-001	3.57180E+000	9	...........
	49	0.666667	4.77896E-001	-8.89760E-005	0.00000E+000	-4.25213E-005	-5.39641E-002	4.77951E-001	3.57180E+000	9	...........
	50	0.68	4.72575E-001	-8.85998E-005	0.00000E+000	-4.18700E-005	-5.39641E-002	4.72627E-001	3.57180E+000	9	...........
	51	0.693333	4.67273E-001	-8.85644E-005	0.00000E+000	-4.13837E-005	-5.39641E-002	4.67325E-001	3.57180E+000	9	...........
	52	0.706667	4.61990E-001	-8.89864E-005	0.00000E+000	-4.11108E-005	-5.39641E-002	4.62035E-001	3.57180E+000	9	...........
	53	0.72	4.56715E-001	-8.89020E-005	0.00000E+000	-4.06029E-005	-5.39641E-002	4.56761E-001	3.57180E+000	9	...........
	54	0.733333	4.51469E-001	-8.85477E-005	0.00000E+000	-3.99766E-005	-5.39641E-002	4.51513E-001	3.57180E+000	9	...........
	55	0.746667	4.46234E-001	-8.84498E-005	0.00000E+000	-3.94693E-005	-5.39641E-002	4.46288E-001	3.57180E+000	9	...........
	56	0.76	4.41032E-001	-8.88561E-005	0.00000E+000	-3.91884E-005	-5.39641E-002	4.41080E-001	3.57180E+000	9	...........
	57	0.773333	4.35865E-001	-8.84884E-005	0.00000E+000	-3.85690E-005	-5.39641E-002	4.35916E-001	3.57180E+000	9	...........
	58	0.786667	4.30709E-001	-8.87811E-005	0.00000E+000	-3.82388E-005	-5.39641E-002	4.30759E-001	3.57180E+000	9	...........
	59	0.8	4.25566E-001	-8.89801E-005	0.00000E+000	-3.78669E-005	-5.39641E-002	4.25616E-001	3.57180E+000	9	...........
	60	0.813333	4.20447E-001	-8.90385E-005	0.00000E+000	-3.74360E-005	-5.39641E-002	4.20497E-001	3.57180E+000	9	...........
	61	0.826667	4.15351E-001	-8.85082E-005	0.00000E+000	-3.67620E-005	-5.39641E-002	4.15403E-001	3.57180E+000	9	...........
	62	0.84	4.10268E-001	-8.87780E-005	0.00000E+000	-3.64228E-005	-5.39641E-002	4.10314E-001	3.57180E+000	9	...........
	63	0.853333	4.05205E-001	-8.85415E-005	0.00000E+000	-3.58775E-005	-5.39641E-002	4.05258E-001	3.57180E+000	9	...........
	64	0.866667	4.00180E-001	-8.88218E-005	0.00000E+000	-3.55447E-005	-5.39641E-002	4.00222E-001	3.57180E+000	9	...........
	65	0.88	3.95161E-001	-8.86332E-005	0.00000E+000	-3.50243E-005	-5.39641E-002	3.95200E-001	3.57180E+000	9	...........
	66	0.893333	3.90159E-001	-8.87072E-005	0.00000E+000	-3.46099E-005	-5.39641E-002	3.90202E-001	3.57180E+000	9	...........
	67	0.906667	3.85166E-001	-8.87895E-005	0.00000E+000	-3.41987E-005	-5.39641E-002	3.85209E-001	3.57180E+000	9	...........
	68	0.92	3.80189E-001	-8.87749E-005	0.00000E+000	-3.37512E-005	-5.39641E-002	3.80233E-001	3.57180E+000	9	...........
	69	0.933333	3.75229E-001	-8.86248E-005	0.00000E+000	-3.32546E-005	-5.39641E-002	3.75275E-001	3.57180E+000	9	...........
	70	0.946667	3.70299E-001	-8.87144E-005	0.00000E+000	-3.28509E-005	-5.39641E-002	3.70341E-001	3.57180E+000	9	...........
	71	0.96	3.65377E-001	-8.86280E-005	0.00000E+000	-3.23826E-005	-5.39641E-002	3.65420E-001	3.57180E+000	9	...........
	72	0.97333	3.60464E-001	-8.89322E-005	0.00000E+000	-3.20569E-005	-5.39641E-002	3.60504E-001	3.57210E+000	9	...........
	73	0.98667	3.55591E-001	-8.86499E-005	0.00000E+000	-3.15231E-005	-5.39641E-002	3.55626E-001	3.57220E+000	9	...........
	74	1	3.50764E-001	-8.86853E-005	0.00000E+000	-3.11076E-005	-5.39641E-002	3.50800E-001	3.57220E+000	9	...........
	75	1.01333	3.45958E-001	-8.85790E-005	0.00000E+000	-3.06447E-005	-5.39641E-002	3.45998E-001	3.57220E+000	9	...........
	76	1.02667	3.41162E-001	-8.85009E-005	0.00000E+000	-3.01931E-005	-5.39641E-002	3.41201E-001	3.57220E+000	9	...........
	77	1.04	3.36374E-001	-8.87561E-005	0.00000E+000	-2.98552E-005	-5.39641E-002	3.36415E-001	3.57220E+000	9	...........
	78	1.05333	3.31613E-001	-8.88145E-005	0.00000E+000	-2.94520E-005	-5.39641E-002	3.31646E-001	3.57220E+000	9	...........
	79	1.06667	3.26858E-001	-8.87478E-005	0.00000E+000	-2.90079E-005	-5.39641E-002	3.26900E-001	3.57220E+000	9	...........
	80	1.08	3.22148E-001	-8.86415E-005	0.00000E+000	-2.85557E-005	-5.39641E-002	3.22184E-001	3.57220E+000	9	...........
	81	1.09333	3.17450E-001	-8.85571E-005	0.00000E+000	-2.81125E-005	-5.39641E-002	3.17483E-001	3.57220E+000	9	...........
	82	1.10667	3.12772E-001	-8.87613E-005	0.00000E+000	-2.77620E-005	-5.39641E-002	3.12807E-001	3.57220E+000	9	...........
	83	1.12	3.08117E-001	-8.88666E-005	0.00000E+000	-2.73813E-005	-5.39641E-002	3.08149E-001	3.57220E+000	9	...........
	84	1.13333	3.03508E-001	-8.86717E-005	0.00000E+000	-2.69126E-005	-5.39641E-002	3.03544E-001	3.57220E+000	9	...........
	85	1.14667	2.98921E-001	-8.88957E-005	0.00000E+000	-2.65728E-005	-5.39641E-002	2.98949E-001	3.57220E+000	9	...........
	86	1.16	2.94329E-001	-8.86769E-005	0.00000E+000	-2.61002E-005	-5.39641E-002	2.94363E-001	3.57220E+000	9	...........
	87	1.17333	2.89753E-001	-8.90604E-005	0.00000E+000	-2.58055E-005	-5.39641E-002	2.89787E-001	3.57220E+000	9	...........
	88	1.18667	2.85197E-001	-8.86051E-005	0.00000E+000	-2.52699E-005	-5.39641E-002	2.85229E-001	3.57220E+000	9	...........
	89	1.2	2.80670E-001	-8.87811E-005	0.00000E+000	-2.49182E-005	-5.39641E-002	2.80701E-001	3.57220E+000	9	...........
	90	1.21333	2.76168E-001	-8.87051E-005	0.00000E+000	-2.44975E-005	-5.39641E-002	2.76199E-001	3.57220E+000	9	...........
	91	1.22667	2.71684E-001	-8.86238E-005	0.00000E+000	-2.40777E-005	-5.39641E-002	2.71717E-001	3.57220E+000	9	...........
	92	1.24	2.67207E-001	-8.87645E-005	0.00000E+000	-2.37185E-005	-5.39641E-002	2.67236E-001	3.57220E+000	9	...........
	93	1.25333	2.62719E-001	-8.89009E-005	0.00000E+000	-2.33560E-005	-5.39641E-002	2.62755E-001	3.57220E+000	9	...........
	94	1.26667	2.58286E-001	-8.87124E-005	0.00000E+000	-2.29131E-005	-5.39641E-002	2.58312E-001	3.57220E+000	9	...........
	95	1.28	2.53881E-001	-8.86644E-005	0.00000E+000	-2.25102E-005	-5.39641E-002	2.53908E-001	3.57220E+000	9	...........
	96	1.29333	2.49489E-001	-8.86092E-005	0.00000E+000	-2.21070E-005	-5.39641E-002	2.49515E-001	3.57220E+000	9	...........
	97	1.30667	2.45119E-001	-8.88707E-005	0.00000E+000	-2.17839E-005	-5.39641E-002	2.45138E-001	3.57220E+000	9	...........
	98	1.32	2.40764E-001	-8.88270E-005	0.00000E+000	-2.13863E-005	-5.39641E-002	2.40783E-001	3.57220E+000	9	...........
	99	1.33333	2.36420E-001	-8.85634E-005	0.00000E+000	-2.09382E-005	-5.39641E-002	2.36437E-001	3.57220E+000	9	...........
	100	1.34667	2.32094E-001	-8.87238E-005	0.00000E+000	-2.05923E-005	-5.39641E-002	2.32117E-001	3.57220E+000	9	...........
	101	1.36	2.27825E-001	-8.86467E-005	0.00000E+000	-2.01960E-005	-5.39641E-002	2.27843E-001	3.57220E+000	9	...........
	102	1.37333	2.23570E-001	-8.87926E-005	0.00000E+000	-1.98514E-005	-5.39641E-002	2.23593E-001	3.57220E+000	9	...........
	103	1.38667	2.19326E-001	-8.85905E-005	0.00000E+000	-1.94302E-005	-5.39641E-002	2.19345E-001	3.57220E+000	9	...........
	104	1.4	2.15107E-001	-8.86519E-005	0.00000E+000	-1.90697E-005	-5.39641E-002	2.15129E-001	3.57220E+000	9	...........
	105	1.41333	2.10916E-001	-8.86530E-005	0.00000E+000	-1.86984E-005	-5.39641E-002	2.10936E-001	3.57220E+000	9	...........
	106	1.42667	2.06734E-001	-8.87113E-005	0.00000E+000	-1.83397E-005	-5.39641E-002	2.06749E-001	3.57220E+000	9	...........
	107	1.44	2.02569E-001	-8.88082E-005	0.00000E+000	-1.79898E-005	-5.39641E-002	2.02598E-001	3.57220E+000	9	...........
	108	1.45333	1.98419E-001	-8.84519E-005	0.00000E+000	-1.75505E-005	-5.39641E-002	1.98436E-001	3.57220E+000	9	...........
	109	1.46667	1.94259E-001	-8.88593E-005	0.00000E+000	-1.72617E-005	-5.39641E-002	1.94276E-001	3.57220E+000	9	...........
	110	1.48	1.90142E-001	-8.86561E-005	0.00000E+000	-1.68573E-005	-5.39641E-002	1.90165E-001	3.57220E+000	9	...........
	111	1.49333	1.86042E-001	-8.86353E-005	0.00000E+000	-1.64899E-005	-5.39641E-002	1.86061E-001	3.57220E+000	9	...........
	112	1.50667	1.81936E-001	-8.88999E-005	0.00000E+000	-1.61741E-005	-5.39641E-002	1.81956E-001	3.57220E+000	9	...........
	113	1.52	1.77850E-001	-8.84717E-005	0.00000E+000	-1.57347E-005	-5.39641E-002	1.77876E-001	3.57220E+000	9	...........
	114	1.53333	1.73793E-001	-8.87926E-005	0.00000E+000	-1.54316E-005	-5.39641E-002	1.73808E-001	3.57220E+000	9	...........
	115	1.54667	1.69744E-001	-8.86478E-005	0.00000E+000	-1.50474E-005	-5.39641E-002	1.69766E-001	3.57220E+000	9	...........
	116	1.56	1.65725E-001	-8.88530E-005	0.00000E+000	-1.47251E-005	-5.39641E-002	1.65742E-001	3.57220E+000	9	...........
	117	1.57333	1.61717E-001	-8.85738E-005	0.00000E+000	-1.43239E-005	-5.39641E-002	1.61731E-001	3.57220E+000	9	...........
	118	1.58667	1.57732E-001	-8.88811E-005	0.00000E+000	-1.40194E-005	-5.39641E-002	1.57747E-001	3.57220E+000	9	...........
	119	1.6	1.53767E-001	-8.87009E-005	0.00000E+000	-1.36393E-005	-5.39641E-002	1.53782E-001	3.57220E+000	9	...........
	120	1.61333	1.49818E-001	-8.88395E-005	0.00000E+000	-1.33097E-005	-5.39641E-002	1.49828E-001	3.57220E+000	9	...........
	121	1.62667	1.45886E-001	-8.88707E-005	0.00000E+000	-1.29650E-005	-5.39641E-002	1.45890E-001	3.57220E+000	9	...........
	122	1.64	1.41970E-001	-8.87905E-005	0.00000E+000	-1.26055E-005	-5.39641E-002	1.41979E-001	3.57220E+000	9	...........
	123	1.65333	1.38064E-001	-8.88207E-005	0.00000E+000	-1.22629E-005	-5.39641E-002	1.38071E-001	3.57220E+000	9	...........
	124	1.66667	1.34184E-001	-8.84258E-005	0.00000E+000	-1.18653E-005	-5.39641E-002	1.34186E-001	3.57220E+000	9	...........
	125	1.68	1.30298E-001	-8.86373E-005	0.00000E+000	-1.15493E-005	-5.39641E-002	1.30304E-001	3.57220E+000	9	...........
	126	1.69333	1.26432E-001	-8.87884E-005	0.00000E+000	-1.12257E-005	-5.39641E-002	1.26440E-001	3.57220E+000	9	...........
	127	1.70667	1.22603E-001	-8.85498E-005	0.00000E+000	-1.08565E-005	-5.39641E-002	1.22608E-001	3.57220E+000	9	...........
	128	1.72	1.18757E-001	-8.85925E-005	0.00000E+000	-1.05210E-005	-5.39641E-002	1.18768E-001	3.57220E+000	9	...........
	129	1.73333	1.14938E-001	-8.85029E-005	0.00000E+000	-1.01724E-005	-5.39641E-002	1.14944E-001	3.57220E+000	9	...........
	130	1.74667	1.11128E-001	-8.89562E-005	0.00000E+000	-9.88555E-006	-5.39641E-002	1.11135E-001	3.57220E+000	9	...........
	131	1.76	1.07357E-001	-8.85780E-005	0.00000E+000	-9.50950E-006	-5.39641E-002	1.07361E-001	3.57220E+000	9	...........
	132	1.77333	1.03586E-001	-8.86561E-005	0.00000E+000	-9.18357E-006	-5.39641E-002	1.03595E-001	3.57220E+000	9	...........
	133	1.78667	9.98316E-002	-8.87957E-005	0.00000E+000	-8.86462E-006	-5.39641E-002	9.98407E-002	3.57220E+000	9	...........
	134	1.8	9.61040E-002	-8.87707E-005	0.00000E+000	-8.53122E-006	-5.39641E-002	9.61086E-002	3.57220E+000	9	...........
	135	1.81333	9.23752E-002	-8.87592E-005	0.00000E+000	-8.19915E-006	-5.39641E-002	9.23793E-002	3.57220E+000	9	...........
	136	1.82667	8.86595E-002	-8.85727E-005	0.00000E+000	-7.85281E-006	-5.39641E-002	8.86621E-002	3.57220E+000	9	...........
	137	1.84	8.49748E-002	-8.87655E-005	0.00000E+000	-7.54283E-006	-5.39641E-002	8.49753E-002	3.57220E+000	9	...........
	138	1.85333	8.12930E-002	-8.87843E-005	0.00000E+000	-7.21754E-006	-5.39641E-002	8.12915E-002	3.57220E+000	9	...........
	139	1.86667	7.76104E-002	-8.85905E-005	0.00000E+000	-6.87554E-006	-5.39641E-002	7.76039E-002	3.57220E+000	9	...........
	140	1.88	7.39298E-002	-8.89645E-005	0.00000E+000	-6.57713E-006	-5.39641E-002	7.39339E-002	3.57220E+000	9	...........
	141	1.89333	7.02712E-002	-8.86582E-005	0.00000E+000	-6.23012E-006	-5.39641E-002	7.02652E-002	3.57220E+000	9	...........
	142	1.90667	6.66218E-002	-8.86269E-005	0.00000E+000	-5.90449E-006	-5.39641E-002	6.66167E-002	3.57220E+000	9	...........
	143	1.92	6.29921E-002	-8.89395E-005	0.00000E+000	-5.60249E-006	-5.39641E-002	6.29910E-002	3.57220E+000	9	...........
	144	1.93333	5.93960E-002	-8.86551E-005	0.00000E+000	-5.26575E-006	-5.39641E-002	5.93907E-002	3.57220E+000	9	...........
	145	1.94667	5.57917E-002	-8.86176E-005	0.00000E+000	-4.94412E-006	-5.39641E-002	5.57946E-002	3.57220E+000	9	...........
	146	1.96	5.22021E-002	-8.85102E-005	0.00000E+000	-4.62042E-006	-5.39641E-002	5.22011E-002	3.57220E+000	9	...........
	147	1.97333	4.86403E-002	-8.87030E-005	0.00000E+000	-4.31454E-006	-5.39641E-002	4.86430E-002	3.57220E+000	9	...........
	148	1.98667	4.51109E-002	-8.86978E-005	0.00000E+000	-4.00124E-006	-5.39641E-002	4.51175E-002	3.57220E+000	9	...........
	149	2	4.15968E-002	-8.87051E-005	0.00000E+000	-3.68984E-006	-5.39641E-002	4.16017E-002	3.57220E+000	9	...........
	150	2.01333	3.80970E-002	-8.88426E-005	0.00000E+000	-3.38464E-006	-5.39641E-002	3.81009E-002	3.57220E+000	9	...........
	151	2.02667	3.46035E-002	-8.87051E-005	0.00000E+000	-3.06950E-006	-5.39641E-002	3.46066E-002	3.57220E+000	9	...........
	152	2.04	3.11204E-002	-8.87613E-005	0.00000E+000	-2.76229E-006	-5.39641E-002	3.11192E-002	3.57220E+000	9	...........
	153	2.05333	2.76518E-002	-8.87238E-005	0.00000E+000	-2.45337E-006	-5.39641E-002	2.76520E-002	3.57220E+000	9	...........
	154	2.06667	2.41986E-002	-8.90041E-005	0.00000E+000	-2.15378E-006	-5.39641E-002	2.41998E-002	3.57220E+000	9	...........
	155	2.08	2.07600E-002	-8.87634E-005	0.00000E+000	-1.84272E-006	-5.39641E-002	2.07589E-002	3.57220E+000	9	...........
	156	2.09333	1.73560E-002	-8.85259E-005	0.00000E+000	-1.53646E-006	-5.39641E-002	1.73525E-002	3.57220E+000	9	...........
	157	2.10667	1.39729E-002	-8.87676E-005	0.00000E+000	-1.24034E-006	-5.39641E-002	1.39681E-002	3.57220E+000	9	...........
	158	2.12	1.06210E-002	-8.85936E-005	0.00000E+000	-9.40949E-007	-5.39641E-002	1.06170E-002	3.57220E+000	9	...........
	159	2.13333	7.28158E-003	-8.87405E-005	0.00000E+000	-6.46171E-007	-5.39641E-002	7.26942E-003	3.57220E+000	9	...........
	160	2.14667	3.95273E-003	-8.87217E-005	0.00000E+000	-3.50693E-007	-5.39641E-002	3.94071E-003	3.57220E+000	9	...........
	161	2.15833	8.28007E-004	-8.88451E-005	0.00000E+000	-7.35644E-008	-5.39641E-002	8.14913E-004	3.57220E+000	9	...........
STARTTIMEOFFSET	QUANT	796.5314	Start Time Offset (s)
