EXPLAIN
TAG	PWR800_DISCHARGE
TITLE	LABEL	PWR Cyclic Charge Discharge (Cell) - Discharge Step	Test &Identifier
DATE	LABEL	10-7-2017	Date
TIME	LABEL	15:35:37	Time
NOTES	NOTES	3	&Notes...
	supercap test cell
	0.9mg
	6M KOH
PSTAT	PSTAT	IFC5000-01520	Potentiostat
CAPACITY	QUANT	1.00000E-003	Capacity (A-hr)
CELLTYPE	SELECTOR	1	&Cell Type
WORKINGCONNECTION	SELECTOR	0	&Working Lead
MAXDISCHARGETIME	VARIABLEANDUNITS	1.00000E+002	s	1.00000E+002	second(s)	Max &Discharge Time
DISCHARGEMODE	MULTIPARAM	0	9.00000E-005	&Discharge Mode	Constant Current	Amp(s)
SAMPLETIME	QUANT	1.00000E-002	Sa&mple Period (s)
DISCHARGESTOPAT1	MULTIPARAM	3	0.00000E+000	Discharge Stop At &1	Voltage < Limit	V
DISCHARGESTOPAT2	MULTIPARAM	0	0.00000E+000	Discharge Stop At &2	None	N/A
AESBHCSELECTOR	TOGGLE	F	Save Both Half Cells
IRCOMP	TOGGLE	F	IR &Measure
EOC	QUANT	0	Open Circuit (V)
SEQUENCER	TOGGLE	TRUE	Run as Sequence
PSTATMODEL	IQUANT	53	Pstat Model
PSTATSECTION	LABEL	IFC5000-01520	Pstat Section
PSTATSERIALNO	LABEL	01520	Pstat Serial Number
CTRLMODE	IQUANT	0	Control Mode
ELECTROMETER	IQUANT	1	RE=0 or CS=1
IESTAB	IQUANT	0	I/E Stability
CASPEED	IQUANT	4	Control Amp Speed
CONVENTION	IQUANT	1	Current Convention
ICHRANGE	IQUANT	2	Ich Range
ICHRANGEMODE	TOGGLE	T	Ich Auto Range
ICHOFFSETENABLE	TOGGLE	F	Ich Offset Enable
ICHOFFSET	QUANT	0	Ich Offset (V)
ICHFILTER	IQUANT	1	Ich Filter
VCHRANGE	IQUANT	2	Vch Range
VCHRANGEMODE	TOGGLE	T	Vch Auto Range
VCHOFFSETENABLE	TOGGLE	F	Vch Offset Enable
VCHOFFSET	QUANT	0	Vch Offset (V)
VCHFILTER	IQUANT	1	Vch Filter
IERANGELOWERLIMIT	IQUANT	9	I/E Range Lower Limit
IERANGEMODE	TOGGLE	F	I/E AutoRange
IERANGE	IQUANT	9	I/E Range
ACHSELECT	IQUANT	1	Ach Select
ACHRANGE	IQUANT	2	Ach Range
ACHOFFSETENABLE	TOGGLE	F	Ach Offset Enable
ACHOFFSET	QUANT	0	Ach Offset (V)
ACHFILTER	IQUANT	1	Ach Filter
CABLEID	IQUANT	14	Cable ID
DCCALDATE	LABEL	5-7-2017	DC Calibration Date
ACCALDATE	LABEL	12/3/2015	AC Calibration Date
FRAMEWORKVERSION	QUANT	7.01	Framework Version
INSTRUMENTVERSION	LABEL	4.00	Instrument Version
CURVE	TABLE	154
	Pt	T	Vf	Im	Vu	Pwr	Sig	Ach	Temp	IERange	Over
	#	s	V	A	V	W	V	V	deg C	#	bits
	0	0.013333	8.13870E-001	-8.87957E-005	0.00000E+000	-7.22681E-005	-5.39641E-002	8.14046E-001	3.57240E+000	9	...........
	1	0.026667	8.00561E-001	-8.88270E-005	0.00000E+000	-7.11114E-005	-5.39641E-002	8.00712E-001	3.57240E+000	9	...........
	2	0.04	7.88070E-001	-8.84946E-005	0.00000E+000	-6.97400E-005	-5.39641E-002	7.88230E-001	3.57240E+000	9	...........
	3	0.053333	7.76275E-001	-8.86363E-005	0.00000E+000	-6.88061E-005	-5.39641E-002	7.76440E-001	3.57240E+000	9	...........
	4	0.066667	7.65058E-001	-8.89864E-005	0.00000E+000	-6.80797E-005	-5.39641E-002	7.65232E-001	3.57240E+000	9	...........
	5	0.08	7.54334E-001	-8.87228E-005	0.00000E+000	-6.69266E-005	-5.39641E-002	7.54483E-001	3.57240E+000	9	...........
	6	0.093333	7.44033E-001	-8.88614E-005	0.00000E+000	-6.61157E-005	-5.39641E-002	7.44181E-001	3.57240E+000	9	...........
	7	0.106667	7.34078E-001	-8.86624E-005	0.00000E+000	-6.50851E-005	-5.39641E-002	7.34233E-001	3.57240E+000	9	...........
	8	0.12	7.24477E-001	-8.86030E-005	0.00000E+000	-6.41908E-005	-5.39641E-002	7.24611E-001	3.57240E+000	9	...........
	9	0.133333	7.15149E-001	-8.86790E-005	0.00000E+000	-6.34188E-005	-5.39641E-002	7.15303E-001	3.57240E+000	9	...........
	10	0.146667	7.06135E-001	-8.88666E-005	0.00000E+000	-6.27518E-005	-5.39641E-002	7.06280E-001	3.57240E+000	9	...........
	11	0.16	6.97359E-001	-8.86238E-005	0.00000E+000	-6.18026E-005	-5.39641E-002	6.97506E-001	3.57240E+000	9	...........
	12	0.173333	6.88812E-001	-8.86717E-005	0.00000E+000	-6.10782E-005	-5.39641E-002	6.88952E-001	3.57240E+000	9	...........
	13	0.186667	6.80505E-001	-8.88238E-005	0.00000E+000	-6.04451E-005	-5.39641E-002	6.80643E-001	3.57240E+000	9	...........
	14	0.2	6.72377E-001	-8.86801E-005	0.00000E+000	-5.96265E-005	-5.39641E-002	6.72490E-001	3.57240E+000	9	...........
	15	0.213333	6.64392E-001	-8.86248E-005	0.00000E+000	-5.88816E-005	-5.39641E-002	6.64527E-001	3.57240E+000	9	...........
	16	0.226667	6.56618E-001	-8.89270E-005	0.00000E+000	-5.83911E-005	-5.39641E-002	6.56722E-001	3.57240E+000	9	...........
	17	0.24	6.49004E-001	-8.87728E-005	0.00000E+000	-5.76139E-005	-5.39641E-002	6.49118E-001	3.57240E+000	9	...........
	18	0.253333	6.41552E-001	-8.85186E-005	0.00000E+000	-5.67893E-005	-5.39641E-002	6.41674E-001	3.57240E+000	9	...........
	19	0.266667	6.34210E-001	-8.87884E-005	0.00000E+000	-5.63105E-005	-5.39641E-002	6.34332E-001	3.57240E+000	9	...........
	20	0.28	6.27036E-001	-8.88989E-005	0.00000E+000	-5.57428E-005	-5.39641E-002	6.27148E-001	3.57240E+000	9	...........
	21	0.293333	6.20001E-001	-8.88884E-005	0.00000E+000	-5.51109E-005	-5.39641E-002	6.20088E-001	3.57240E+000	9	...........
	22	0.306667	6.12984E-001	-8.88749E-005	0.00000E+000	-5.44789E-005	-5.39641E-002	6.13138E-001	3.57240E+000	9	...........
	23	0.32	6.06145E-001	-8.86624E-005	0.00000E+000	-5.37423E-005	-5.39641E-002	6.06303E-001	3.57240E+000	9	...........
	24	0.333333	5.99459E-001	-8.88499E-005	0.00000E+000	-5.32619E-005	-5.39641E-002	5.99586E-001	3.57240E+000	9	...........
	25	0.346667	5.92819E-001	-8.88093E-005	0.00000E+000	-5.26478E-005	-5.39641E-002	5.92981E-001	3.57240E+000	9	...........
	26	0.36	5.86287E-001	-8.88739E-005	0.00000E+000	-5.21056E-005	-5.39641E-002	5.86432E-001	3.57240E+000	9	...........
	27	0.373333	5.79847E-001	-8.88113E-005	0.00000E+000	-5.14970E-005	-5.39641E-002	5.79975E-001	3.57240E+000	9	...........
	28	0.386667	5.73505E-001	-8.88176E-005	0.00000E+000	-5.09373E-005	-5.39641E-002	5.73631E-001	3.57240E+000	9	...........
	29	0.4	5.67227E-001	-8.86842E-005	0.00000E+000	-5.03041E-005	-5.39641E-002	5.67358E-001	3.57240E+000	9	...........
	30	0.413333	5.60980E-001	-8.85769E-005	0.00000E+000	-4.96899E-005	-5.39641E-002	5.61122E-001	3.57240E+000	9	...........
	31	0.426667	5.54853E-001	-8.86186E-005	0.00000E+000	-4.91703E-005	-5.39641E-002	5.55000E-001	3.57240E+000	9	...........
	32	0.44	5.48804E-001	-8.87530E-005	0.00000E+000	-4.87080E-005	-5.39641E-002	5.48952E-001	3.57240E+000	9	...........
	33	0.453333	5.42818E-001	-8.88707E-005	0.00000E+000	-4.82407E-005	-5.39641E-002	5.42940E-001	3.57240E+000	9	...........
	34	0.466667	5.36884E-001	-8.87488E-005	0.00000E+000	-4.76478E-005	-5.39641E-002	5.37034E-001	3.57240E+000	9	...........
	35	0.48	5.30981E-001	-8.88353E-005	0.00000E+000	-4.71699E-005	-5.39641E-002	5.31101E-001	3.57240E+000	9	...........
	36	0.493333	5.25171E-001	-8.86978E-005	0.00000E+000	-4.65815E-005	-5.39641E-002	5.25292E-001	3.57240E+000	9	...........
	37	0.506667	5.19393E-001	-8.87978E-005	0.00000E+000	-4.61210E-005	-5.39641E-002	5.19502E-001	3.57240E+000	9	...........
	38	0.52	5.13698E-001	-8.87551E-005	0.00000E+000	-4.55933E-005	-5.39641E-002	5.13785E-001	3.57240E+000	9	...........
	39	0.533333	5.07968E-001	-8.87207E-005	0.00000E+000	-4.50673E-005	-5.39641E-002	5.08073E-001	3.57240E+000	9	...........
	40	0.546667	5.02355E-001	-8.90301E-005	0.00000E+000	-4.47247E-005	-5.39641E-002	5.02456E-001	3.57240E+000	9	...........
	41	0.56	4.96814E-001	-8.88509E-005	0.00000E+000	-4.41424E-005	-5.39641E-002	4.96909E-001	3.57240E+000	9	...........
	42	0.573333	4.91287E-001	-8.88051E-005	0.00000E+000	-4.36288E-005	-5.39641E-002	4.91375E-001	3.57240E+000	9	...........
	43	0.586667	4.85812E-001	-8.87155E-005	0.00000E+000	-4.30991E-005	-5.39641E-002	4.85874E-001	3.57240E+000	9	...........
	44	0.6	4.80378E-001	-8.87426E-005	0.00000E+000	-4.26300E-005	-5.39641E-002	4.80447E-001	3.57240E+000	9	...........
	45	0.613333	4.74945E-001	-8.88593E-005	0.00000E+000	-4.22033E-005	-5.39641E-002	4.75007E-001	3.57240E+000	9	...........
	46	0.626667	4.69543E-001	-8.89999E-005	0.00000E+000	-4.17893E-005	-5.39641E-002	4.69607E-001	3.57240E+000	9	...........
	47	0.64	4.64184E-001	-8.87311E-005	0.00000E+000	-4.11876E-005	-5.39641E-002	4.64245E-001	3.57240E+000	9	...........
	48	0.653333	4.58861E-001	-8.89166E-005	0.00000E+000	-4.08004E-005	-5.39641E-002	4.58916E-001	3.57240E+000	9	...........
	49	0.666667	4.53551E-001	-8.86530E-005	0.00000E+000	-4.02087E-005	-5.39641E-002	4.53608E-001	3.57240E+000	9	...........
	50	0.68	4.48266E-001	-8.87197E-005	0.00000E+000	-3.97700E-005	-5.39641E-002	4.48323E-001	3.57240E+000	9	...........
	51	0.693333	4.42998E-001	-8.86999E-005	0.00000E+000	-3.92939E-005	-5.39641E-002	4.43062E-001	3.57240E+000	9	...........
	52	0.706667	4.37754E-001	-8.89041E-005	0.00000E+000	-3.89181E-005	-5.39641E-002	4.37808E-001	3.57240E+000	9	...........
	53	0.72	4.32529E-001	-8.87374E-005	0.00000E+000	-3.83815E-005	-5.39641E-002	4.32584E-001	3.57240E+000	9	...........
	54	0.733333	4.27338E-001	-8.86957E-005	0.00000E+000	-3.79030E-005	-5.39641E-002	4.27399E-001	3.57240E+000	9	...........
	55	0.746667	4.22154E-001	-8.88530E-005	0.00000E+000	-3.75096E-005	-5.39641E-002	4.22212E-001	3.57240E+000	9	...........
	56	0.76	4.16989E-001	-8.87916E-005	0.00000E+000	-3.70251E-005	-5.39641E-002	4.17040E-001	3.57240E+000	9	...........
	57	0.773333	4.11842E-001	-8.87822E-005	0.00000E+000	-3.65642E-005	-5.39641E-002	4.11893E-001	3.57240E+000	9	...........
	58	0.786667	4.06725E-001	-8.85853E-005	0.00000E+000	-3.60298E-005	-5.39641E-002	4.06777E-001	3.57240E+000	9	...........
	59	0.8	4.01624E-001	-8.90020E-005	0.00000E+000	-3.57454E-005	-5.39641E-002	4.01671E-001	3.57240E+000	9	...........
	60	0.813333	3.96547E-001	-8.85498E-005	0.00000E+000	-3.51142E-005	-5.39641E-002	3.96597E-001	3.57240E+000	9	...........
	61	0.826667	3.91482E-001	-8.89312E-005	0.00000E+000	-3.48149E-005	-5.39641E-002	3.91527E-001	3.57240E+000	9	...........
	62	0.84	3.86437E-001	-8.87082E-005	0.00000E+000	-3.42801E-005	-5.39641E-002	3.86486E-001	3.57240E+000	9	...........
	63	0.853333	3.81408E-001	-8.87176E-005	0.00000E+000	-3.38376E-005	-5.39641E-002	3.81449E-001	3.57240E+000	9	...........
	64	0.866667	3.76395E-001	-8.88561E-005	0.00000E+000	-3.34450E-005	-5.39641E-002	3.76437E-001	3.57240E+000	9	...........
	65	0.88	3.71387E-001	-8.88520E-005	0.00000E+000	-3.29985E-005	-5.39641E-002	3.71429E-001	3.57240E+000	9	...........
	66	0.893333	3.66385E-001	-8.90228E-005	0.00000E+000	-3.26166E-005	-5.39641E-002	3.66429E-001	3.57240E+000	9	...........
	67	0.906667	3.61394E-001	-8.86634E-005	0.00000E+000	-3.20424E-005	-5.39641E-002	3.61431E-001	3.57240E+000	9	...........
	68	0.92	3.56425E-001	-8.89447E-005	0.00000E+000	-3.17021E-005	-5.39641E-002	3.56463E-001	3.57240E+000	9	...........
	69	0.933333	3.51474E-001	-8.86947E-005	0.00000E+000	-3.11739E-005	-5.39641E-002	3.51510E-001	3.57240E+000	9	...........
	70	0.946667	3.46532E-001	-8.87530E-005	0.00000E+000	-3.07557E-005	-5.39641E-002	3.46575E-001	3.57240E+000	9	...........
	71	0.96	3.41614E-001	-8.86165E-005	0.00000E+000	-3.02726E-005	-5.39641E-002	3.41653E-001	3.57240E+000	9	...........
	72	0.97333	3.36693E-001	-8.88603E-005	0.00000E+000	-2.99187E-005	-5.39641E-002	3.36734E-001	3.57240E+000	9	...........
	73	0.98667	3.31811E-001	-8.86696E-005	0.00000E+000	-2.94216E-005	-5.39641E-002	3.31847E-001	3.57240E+000	9	...........
	74	1	3.26961E-001	-8.89583E-005	0.00000E+000	-2.90859E-005	-5.39641E-002	3.27004E-001	3.57240E+000	9	...........
	75	1.01333	3.22119E-001	-8.89551E-005	0.00000E+000	-2.86541E-005	-5.39641E-002	3.22156E-001	3.57240E+000	9	...........
	76	1.02667	3.17271E-001	-8.87478E-005	0.00000E+000	-2.81571E-005	-5.39641E-002	3.17312E-001	3.57240E+000	9	...........
	77	1.04	3.12441E-001	-8.86155E-005	0.00000E+000	-2.76871E-005	-5.39641E-002	3.12483E-001	3.57240E+000	9	...........
	78	1.05333	3.07625E-001	-8.85644E-005	0.00000E+000	-2.72446E-005	-5.39641E-002	3.07664E-001	3.57240E+000	9	...........
	79	1.06667	3.02836E-001	-8.86530E-005	0.00000E+000	-2.68473E-005	-5.39641E-002	3.02869E-001	3.57240E+000	9	...........
	80	1.08	2.98063E-001	-8.88249E-005	0.00000E+000	-2.64755E-005	-5.39641E-002	2.98098E-001	3.57240E+000	9	...........
	81	1.09333	2.93311E-001	-8.89562E-005	0.00000E+000	-2.60918E-005	-5.39641E-002	2.93353E-001	3.57240E+000	9	...........
	82	1.10667	2.88590E-001	-8.89332E-005	0.00000E+000	-2.56653E-005	-5.39641E-002	2.88626E-001	3.57240E+000	9	...........
	83	1.12	2.83891E-001	-8.86363E-005	0.00000E+000	-2.51631E-005	-5.39641E-002	2.83928E-001	3.57240E+000	9	...........
	84	1.13333	2.79204E-001	-8.86634E-005	0.00000E+000	-2.47551E-005	-5.39641E-002	2.79240E-001	3.57240E+000	9	...........
	85	1.14667	2.74524E-001	-8.86749E-005	0.00000E+000	-2.43434E-005	-5.39641E-002	2.74560E-001	3.57240E+000	9	...........
	86	1.16	2.69878E-001	-8.87770E-005	0.00000E+000	-2.39590E-005	-5.39641E-002	2.69914E-001	3.57240E+000	9	...........
	87	1.17333	2.65233E-001	-8.85248E-005	0.00000E+000	-2.34797E-005	-5.39641E-002	2.65269E-001	3.57240E+000	9	...........
	88	1.18667	2.60603E-001	-8.86874E-005	0.00000E+000	-2.31122E-005	-5.39641E-002	2.60643E-001	3.57240E+000	9	...........
	89	1.2	2.55996E-001	-8.88416E-005	0.00000E+000	-2.27431E-005	-5.39641E-002	2.56032E-001	3.57240E+000	9	...........
	90	1.21333	2.51403E-001	-8.87592E-005	0.00000E+000	-2.23144E-005	-5.39641E-002	2.51442E-001	3.57240E+000	9	...........
	91	1.22667	2.46827E-001	-8.86707E-005	0.00000E+000	-2.18863E-005	-5.39641E-002	2.46851E-001	3.57240E+000	9	...........
	92	1.24	2.42261E-001	-8.87165E-005	0.00000E+000	-2.14925E-005	-5.39641E-002	2.42284E-001	3.57240E+000	9	...........
	93	1.25333	2.37733E-001	-8.88364E-005	0.00000E+000	-2.11194E-005	-5.39641E-002	2.37759E-001	3.57240E+000	9	...........
	94	1.26667	2.33218E-001	-8.88395E-005	0.00000E+000	-2.07190E-005	-5.39641E-002	2.33244E-001	3.57240E+000	9	...........
	95	1.28	2.28731E-001	-8.86186E-005	0.00000E+000	-2.02698E-005	-5.39641E-002	2.28752E-001	3.57240E+000	9	...........
	96	1.29333	2.24259E-001	-8.89447E-005	0.00000E+000	-1.99467E-005	-5.39641E-002	2.24286E-001	3.57240E+000	9	...........
	97	1.30667	2.19802E-001	-8.89457E-005	0.00000E+000	-1.95504E-005	-5.39641E-002	2.19831E-001	3.57240E+000	9	...........
	98	1.32	2.15385E-001	-8.84717E-005	0.00000E+000	-1.90555E-005	-5.39641E-002	2.15409E-001	3.57240E+000	9	...........
	99	1.33333	2.10986E-001	-8.85780E-005	0.00000E+000	-1.86887E-005	-5.39641E-002	2.11008E-001	3.57240E+000	9	...........
	100	1.34667	2.06600E-001	-8.89468E-005	0.00000E+000	-1.83764E-005	-5.39641E-002	2.06619E-001	3.57240E+000	9	...........
	101	1.36	2.02230E-001	-8.87290E-005	0.00000E+000	-1.79437E-005	-5.39641E-002	2.02253E-001	3.57240E+000	9	...........
	102	1.37333	1.97886E-001	-8.90176E-005	0.00000E+000	-1.76154E-005	-5.39641E-002	1.97907E-001	3.57240E+000	9	...........
	103	1.38667	1.93546E-001	-8.86092E-005	0.00000E+000	-1.71499E-005	-5.39641E-002	1.93573E-001	3.57240E+000	9	...........
	104	1.4	1.89248E-001	-8.86978E-005	0.00000E+000	-1.67859E-005	-5.39641E-002	1.89267E-001	3.57240E+000	9	...........
	105	1.41333	1.84968E-001	-8.90020E-005	0.00000E+000	-1.64625E-005	-5.39641E-002	1.84985E-001	3.57240E+000	9	...........
	106	1.42667	1.80696E-001	-8.85988E-005	0.00000E+000	-1.60094E-005	-5.39641E-002	1.80717E-001	3.57240E+000	9	...........
	107	1.44	1.76449E-001	-8.87717E-005	0.00000E+000	-1.56637E-005	-5.39641E-002	1.76474E-001	3.57240E+000	9	...........
	108	1.45333	1.72225E-001	-8.87551E-005	0.00000E+000	-1.52859E-005	-5.39641E-002	1.72246E-001	3.57240E+000	9	...........
	109	1.46667	1.68009E-001	-8.89259E-005	0.00000E+000	-1.49404E-005	-5.39641E-002	1.68031E-001	3.57240E+000	9	...........
	110	1.48	1.63815E-001	-8.87665E-005	0.00000E+000	-1.45413E-005	-5.39641E-002	1.63840E-001	3.57240E+000	9	...........
	111	1.49333	1.59634E-001	-8.89395E-005	0.00000E+000	-1.41977E-005	-5.39641E-002	1.59651E-001	3.57240E+000	9	...........
	112	1.50667	1.55472E-001	-8.90458E-005	0.00000E+000	-1.38442E-005	-5.39641E-002	1.55490E-001	3.57240E+000	9	...........
	113	1.52	1.51331E-001	-8.88707E-005	0.00000E+000	-1.34489E-005	-5.39641E-002	1.51344E-001	3.57240E+000	9	...........
	114	1.53333	1.47208E-001	-8.89155E-005	0.00000E+000	-1.30891E-005	-5.39641E-002	1.47227E-001	3.57240E+000	9	...........
	115	1.54667	1.43099E-001	-8.90020E-005	0.00000E+000	-1.27361E-005	-5.39641E-002	1.43116E-001	3.57240E+000	9	...........
	116	1.56	1.39018E-001	-8.87374E-005	0.00000E+000	-1.23360E-005	-5.39641E-002	1.39030E-001	3.57240E+000	9	...........
	117	1.57333	1.34940E-001	-8.89239E-005	0.00000E+000	-1.19994E-005	-5.39641E-002	1.34954E-001	3.57240E+000	9	...........
	118	1.58667	1.30882E-001	-8.87426E-005	0.00000E+000	-1.16148E-005	-5.39641E-002	1.30892E-001	3.57240E+000	9	...........
	119	1.6	1.26847E-001	-8.87436E-005	0.00000E+000	-1.12568E-005	-5.39641E-002	1.26861E-001	3.57240E+000	9	...........
	120	1.61333	1.22836E-001	-8.89103E-005	0.00000E+000	-1.09214E-005	-5.39641E-002	1.22854E-001	3.57240E+000	9	...........
	121	1.62667	1.18842E-001	-8.89114E-005	0.00000E+000	-1.05664E-005	-5.39641E-002	1.18855E-001	3.57240E+000	9	...........
	122	1.64	1.14848E-001	-8.89905E-005	0.00000E+000	-1.02204E-005	-5.39641E-002	1.14857E-001	3.57240E+000	9	...........
	123	1.65333	1.10863E-001	-8.87238E-005	0.00000E+000	-9.83620E-006	-5.39641E-002	1.10876E-001	3.57240E+000	9	...........
	124	1.66667	1.06903E-001	-8.84977E-005	0.00000E+000	-9.46068E-006	-5.39641E-002	1.06915E-001	3.57240E+000	9	...........
	125	1.68	1.02970E-001	-8.88936E-005	0.00000E+000	-9.15337E-006	-5.39641E-002	1.02976E-001	3.57240E+000	9	...........
	126	1.69333	9.90471E-002	-8.86790E-005	0.00000E+000	-8.78340E-006	-5.39641E-002	9.90531E-002	3.57240E+000	9	...........
	127	1.70667	9.51312E-002	-8.87342E-005	0.00000E+000	-8.44139E-006	-5.39641E-002	9.51376E-002	3.57240E+000	9	...........
	128	1.72	9.12229E-002	-8.86717E-005	0.00000E+000	-8.08889E-006	-5.39641E-002	9.12356E-002	3.57240E+000	9	...........
	129	1.73333	8.73554E-002	-8.85488E-005	0.00000E+000	-7.73522E-006	-5.39641E-002	8.73650E-002	3.57240E+000	9	...........
	130	1.74667	8.35076E-002	-8.86696E-005	0.00000E+000	-7.40459E-006	-5.39641E-002	8.35171E-002	3.57240E+000	9	...........
	131	1.76	7.96922E-002	-8.87342E-005	0.00000E+000	-7.07142E-006	-5.39641E-002	7.96988E-002	3.57240E+000	9	...........
	132	1.77333	7.58735E-002	-8.86957E-005	0.00000E+000	-6.72965E-006	-5.39641E-002	7.58715E-002	3.57240E+000	9	...........
	133	1.78667	7.20695E-002	-8.86530E-005	0.00000E+000	-6.38918E-006	-5.39641E-002	7.20694E-002	3.57240E+000	9	...........
	134	1.8	6.82907E-002	-8.90489E-005	0.00000E+000	-6.08121E-006	-5.39641E-002	6.82923E-002	3.57240E+000	9	...........
	135	1.81333	6.45259E-002	-8.89562E-005	0.00000E+000	-5.73998E-006	-5.39641E-002	6.45306E-002	3.57240E+000	9	...........
	136	1.82667	6.07797E-002	-8.87707E-005	0.00000E+000	-5.39545E-006	-5.39641E-002	6.07771E-002	3.57240E+000	9	...........
	137	1.84	5.70273E-002	-8.87822E-005	0.00000E+000	-5.06300E-006	-5.39641E-002	5.70264E-002	3.57240E+000	9	...........
	138	1.85333	5.32945E-002	-8.85925E-005	0.00000E+000	-4.72149E-006	-5.39641E-002	5.32953E-002	3.57240E+000	9	...........
	139	1.86667	4.95917E-002	-8.85873E-005	0.00000E+000	-4.39319E-006	-5.39641E-002	4.95928E-002	3.57240E+000	9	...........
	140	1.88	4.59270E-002	-8.87072E-005	0.00000E+000	-4.07405E-006	-5.39641E-002	4.59390E-002	3.57240E+000	9	...........
	141	1.89333	4.22536E-002	-8.89551E-005	0.00000E+000	-3.75867E-006	-5.39641E-002	4.22625E-002	3.57240E+000	9	...........
	142	1.90667	3.85912E-002	-8.85978E-005	0.00000E+000	-3.41909E-006	-5.39641E-002	3.85975E-002	3.57240E+000	9	...........
	143	1.92	3.49217E-002	-8.86238E-005	0.00000E+000	-3.09490E-006	-5.39641E-002	3.49289E-002	3.57240E+000	9	...........
	144	1.93333	3.12713E-002	-8.86259E-005	0.00000E+000	-2.77145E-006	-5.39641E-002	3.12744E-002	3.57240E+000	9	...........
	145	1.94667	2.76477E-002	-8.87530E-005	0.00000E+000	-2.45381E-006	-5.39641E-002	2.76486E-002	3.57240E+000	9	...........
	146	1.96	2.40468E-002	-8.86988E-005	0.00000E+000	-2.13293E-006	-5.39641E-002	2.40430E-002	3.57240E+000	9	...........
	147	1.97333	2.04849E-002	-8.88614E-005	0.00000E+000	-1.82031E-006	-5.39641E-002	2.04836E-002	3.57240E+000	9	...........
	148	1.98667	1.69312E-002	-8.87655E-005	0.00000E+000	-1.50290E-006	-5.39641E-002	1.69276E-002	3.57240E+000	9	...........
	149	2	1.33789E-002	-8.86426E-005	0.00000E+000	-1.18594E-006	-5.39641E-002	1.33709E-002	3.57240E+000	9	...........
	150	2.01333	9.84648E-003	-8.85509E-005	0.00000E+000	-8.71914E-007	-5.39641E-002	9.84231E-003	3.57240E+000	9	...........
	151	2.02667	6.33716E-003	-8.86884E-005	0.00000E+000	-5.62033E-007	-5.39641E-002	6.33027E-003	3.57240E+000	9	...........
	152	2.04	2.84999E-003	-8.88759E-005	0.00000E+000	-2.53296E-007	-5.39641E-002	2.83922E-003	3.57240E+000	9	...........
	153	2.04667	2.37878E-004	-8.88291E-005	0.00000E+000	-2.11305E-008	-5.39641E-002	2.27230E-004	3.57240E+000	9	...........
STARTTIMEOFFSET	QUANT	1841.963	Start Time Offset (s)
