EXPLAIN
TAG	PWR800_DISCHARGE
TITLE	LABEL	PWR Cyclic Charge Discharge (Cell) - Discharge Step	Test &Identifier
DATE	LABEL	10-7-2017	Date
TIME	LABEL	15:53:32	Time
NOTES	NOTES	3	&Notes...
	supercap test cell
	0.9mg
	6M KOH
PSTAT	PSTAT	IFC5000-01520	Potentiostat
CAPACITY	QUANT	1.00000E-003	Capacity (A-hr)
CELLTYPE	SELECTOR	1	&Cell Type
WORKINGCONNECTION	SELECTOR	0	&Working Lead
MAXDISCHARGETIME	VARIABLEANDUNITS	1.00000E+002	s	1.00000E+002	second(s)	Max &Discharge Time
DISCHARGEMODE	MULTIPARAM	0	9.00000E-005	&Discharge Mode	Constant Current	Amp(s)
SAMPLETIME	QUANT	1.00000E-002	Sa&mple Period (s)
DISCHARGESTOPAT1	MULTIPARAM	3	0.00000E+000	Discharge Stop At &1	Voltage < Limit	V
DISCHARGESTOPAT2	MULTIPARAM	0	0.00000E+000	Discharge Stop At &2	None	N/A
AESBHCSELECTOR	TOGGLE	F	Save Both Half Cells
IRCOMP	TOGGLE	F	IR &Measure
EOC	QUANT	0	Open Circuit (V)
SEQUENCER	TOGGLE	TRUE	Run as Sequence
PSTATMODEL	IQUANT	53	Pstat Model
PSTATSECTION	LABEL	IFC5000-01520	Pstat Section
PSTATSERIALNO	LABEL	01520	Pstat Serial Number
CTRLMODE	IQUANT	0	Control Mode
ELECTROMETER	IQUANT	1	RE=0 or CS=1
IESTAB	IQUANT	0	I/E Stability
CASPEED	IQUANT	4	Control Amp Speed
CONVENTION	IQUANT	1	Current Convention
ICHRANGE	IQUANT	2	Ich Range
ICHRANGEMODE	TOGGLE	T	Ich Auto Range
ICHOFFSETENABLE	TOGGLE	F	Ich Offset Enable
ICHOFFSET	QUANT	0	Ich Offset (V)
ICHFILTER	IQUANT	1	Ich Filter
VCHRANGE	IQUANT	2	Vch Range
VCHRANGEMODE	TOGGLE	T	Vch Auto Range
VCHOFFSETENABLE	TOGGLE	F	Vch Offset Enable
VCHOFFSET	QUANT	0	Vch Offset (V)
VCHFILTER	IQUANT	1	Vch Filter
IERANGELOWERLIMIT	IQUANT	9	I/E Range Lower Limit
IERANGEMODE	TOGGLE	F	I/E AutoRange
IERANGE	IQUANT	9	I/E Range
ACHSELECT	IQUANT	1	Ach Select
ACHRANGE	IQUANT	2	Ach Range
ACHOFFSETENABLE	TOGGLE	F	Ach Offset Enable
ACHOFFSET	QUANT	0	Ach Offset (V)
ACHFILTER	IQUANT	1	Ach Filter
CABLEID	IQUANT	14	Cable ID
DCCALDATE	LABEL	5-7-2017	DC Calibration Date
ACCALDATE	LABEL	12/3/2015	AC Calibration Date
FRAMEWORKVERSION	QUANT	7.01	Framework Version
INSTRUMENTVERSION	LABEL	4.00	Instrument Version
CURVE	TABLE	150
	Pt	T	Vf	Im	Vu	Pwr	Sig	Ach	Temp	IERange	Over
	#	s	V	A	V	W	V	V	deg C	#	bits
	0	0.013333	8.10043E-001	-8.88082E-005	0.00000E+000	-7.19385E-005	-5.39641E-002	8.10201E-001	3.57330E+000	9	...........
	1	0.026667	7.96183E-001	-8.83571E-005	0.00000E+000	-7.03484E-005	-5.39641E-002	7.96320E-001	3.57330E+000	9	...........
	2	0.04	7.83201E-001	-8.85186E-005	0.00000E+000	-6.93278E-005	-5.39641E-002	7.83359E-001	3.57330E+000	9	...........
	3	0.053333	7.70958E-001	-8.89645E-005	0.00000E+000	-6.85879E-005	-5.39641E-002	7.71132E-001	3.57330E+000	9	...........
	4	0.066667	7.59355E-001	-8.86780E-005	0.00000E+000	-6.73380E-005	-5.39641E-002	7.59497E-001	3.57330E+000	9	...........
	5	0.08	7.48253E-001	-8.86238E-005	0.00000E+000	-6.63130E-005	-5.39641E-002	7.48391E-001	3.57330E+000	9	...........
	6	0.093333	7.37573E-001	-8.86353E-005	0.00000E+000	-6.53750E-005	-5.39641E-002	7.37709E-001	3.57330E+000	9	...........
	7	0.106667	7.27304E-001	-8.88541E-005	0.00000E+000	-6.46239E-005	-5.39641E-002	7.27436E-001	3.57330E+000	9	...........
	8	0.12	7.17358E-001	-8.87822E-005	0.00000E+000	-6.36886E-005	-5.39641E-002	7.17501E-001	3.57330E+000	9	...........
	9	0.133333	7.07747E-001	-8.87718E-005	0.00000E+000	-6.28279E-005	-5.39641E-002	7.07876E-001	3.57330E+000	9	...........
	10	0.146667	6.98448E-001	-8.88061E-005	0.00000E+000	-6.20265E-005	-5.39641E-002	6.98577E-001	3.57330E+000	9	...........
	11	0.16	6.89420E-001	-8.88061E-005	0.00000E+000	-6.12247E-005	-5.39641E-002	6.89549E-001	3.57330E+000	9	...........
	12	0.173333	6.80624E-001	-8.87509E-005	0.00000E+000	-6.04060E-005	-5.39641E-002	6.80757E-001	3.57330E+000	9	...........
	13	0.186667	6.72080E-001	-8.88478E-005	0.00000E+000	-5.97128E-005	-5.39641E-002	6.72193E-001	3.57330E+000	9	...........
	14	0.2	6.63690E-001	-8.87155E-005	0.00000E+000	-5.88796E-005	-5.39641E-002	6.63852E-001	3.57330E+000	9	...........
	15	0.213333	6.55536E-001	-8.85905E-005	0.00000E+000	-5.80743E-005	-5.39641E-002	6.55679E-001	3.57330E+000	9	...........
	16	0.226667	6.47592E-001	-8.85946E-005	0.00000E+000	-5.73732E-005	-5.39641E-002	6.47747E-001	3.57330E+000	9	...........
	17	0.24	6.39828E-001	-8.87499E-005	0.00000E+000	-5.67846E-005	-5.39641E-002	6.39937E-001	3.57330E+000	9	...........
	18	0.253333	6.32184E-001	-8.86874E-005	0.00000E+000	-5.60667E-005	-5.39641E-002	6.32302E-001	3.57330E+000	9	...........
	19	0.266667	6.24724E-001	-8.88020E-005	0.00000E+000	-5.54767E-005	-5.39641E-002	6.24826E-001	3.57330E+000	9	...........
	20	0.28	6.17397E-001	-8.87499E-005	0.00000E+000	-5.47939E-005	-5.39641E-002	6.17506E-001	3.57330E+000	9	...........
	21	0.293333	6.10151E-001	-8.88718E-005	0.00000E+000	-5.42252E-005	-5.39641E-002	6.10290E-001	3.57330E+000	9	...........
	22	0.306667	6.03082E-001	-8.89780E-005	0.00000E+000	-5.36610E-005	-5.39641E-002	6.03222E-001	3.57330E+000	9	...........
	23	0.32	5.96169E-001	-8.86696E-005	0.00000E+000	-5.28621E-005	-5.39641E-002	5.96267E-001	3.57330E+000	9	...........
	24	0.333333	5.89348E-001	-8.86978E-005	0.00000E+000	-5.22739E-005	-5.39641E-002	5.89463E-001	3.57330E+000	9	...........
	25	0.346667	5.82623E-001	-8.91458E-005	0.00000E+000	-5.19384E-005	-5.39641E-002	5.82725E-001	3.57330E+000	9	...........
	26	0.36	5.76007E-001	-8.88811E-005	0.00000E+000	-5.11961E-005	-5.39641E-002	5.76127E-001	3.57330E+000	9	...........
	27	0.373333	5.69482E-001	-8.87707E-005	0.00000E+000	-5.05533E-005	-5.39641E-002	5.69577E-001	3.57330E+000	9	...........
	28	0.386667	5.63033E-001	-8.89353E-005	0.00000E+000	-5.00735E-005	-5.39641E-002	5.63160E-001	3.57330E+000	9	...........
	29	0.4	5.56665E-001	-8.87415E-005	0.00000E+000	-4.93993E-005	-5.39641E-002	5.56792E-001	3.57330E+000	9	...........
	30	0.413333	5.50400E-001	-8.89020E-005	0.00000E+000	-4.89316E-005	-5.39641E-002	5.50524E-001	3.57330E+000	9	...........
	31	0.426667	5.44226E-001	-8.88113E-005	0.00000E+000	-4.83335E-005	-5.39641E-002	5.44351E-001	3.57330E+000	9	...........
	32	0.44	5.38102E-001	-8.89801E-005	0.00000E+000	-4.78803E-005	-5.39641E-002	5.38231E-001	3.57330E+000	9	...........
	33	0.453333	5.32042E-001	-8.87124E-005	0.00000E+000	-4.71987E-005	-5.39641E-002	5.32157E-001	3.57330E+000	9	...........
	34	0.466667	5.26068E-001	-8.87686E-005	0.00000E+000	-4.66984E-005	-5.39641E-002	5.26204E-001	3.57330E+000	9	...........
	35	0.48	5.20172E-001	-8.87165E-005	0.00000E+000	-4.61479E-005	-5.39641E-002	5.20284E-001	3.57330E+000	9	...........
	36	0.493333	5.14337E-001	-8.89562E-005	0.00000E+000	-4.57534E-005	-5.39641E-002	5.14451E-001	3.57330E+000	9	...........
	37	0.506667	5.08476E-001	-8.89499E-005	0.00000E+000	-4.52289E-005	-5.39641E-002	5.08639E-001	3.57330E+000	9	...........
	38	0.52	5.02735E-001	-8.87520E-005	0.00000E+000	-4.46187E-005	-5.39641E-002	5.02858E-001	3.57330E+000	9	...........
	39	0.533333	4.97058E-001	-8.86967E-005	0.00000E+000	-4.40874E-005	-5.39641E-002	4.97175E-001	3.57330E+000	9	...........
	40	0.546667	4.91443E-001	-8.87290E-005	0.00000E+000	-4.36053E-005	-5.39641E-002	4.91534E-001	3.57330E+000	9	...........
	41	0.56	4.85892E-001	-8.88874E-005	0.00000E+000	-4.31897E-005	-5.39641E-002	4.85966E-001	3.57330E+000	9	...........
	42	0.573333	4.80399E-001	-8.89301E-005	0.00000E+000	-4.27219E-005	-5.39641E-002	4.80464E-001	3.57330E+000	9	...........
	43	0.586667	4.74896E-001	-8.87186E-005	0.00000E+000	-4.21321E-005	-5.39641E-002	4.74958E-001	3.57330E+000	9	...........
	44	0.6	4.69429E-001	-8.88624E-005	0.00000E+000	-4.17145E-005	-5.39641E-002	4.69493E-001	3.57330E+000	9	...........
	45	0.613333	4.64006E-001	-8.89239E-005	0.00000E+000	-4.12612E-005	-5.39641E-002	4.64069E-001	3.57330E+000	9	...........
	46	0.626667	4.58610E-001	-8.89301E-005	0.00000E+000	-4.07843E-005	-5.39641E-002	4.58670E-001	3.57330E+000	9	...........
	47	0.64	4.53235E-001	-8.87926E-005	0.00000E+000	-4.02439E-005	-5.39641E-002	4.53296E-001	3.57330E+000	9	...........
	48	0.653333	4.47906E-001	-8.88051E-005	0.00000E+000	-3.97764E-005	-5.39641E-002	4.47965E-001	3.57330E+000	9	...........
	49	0.666667	4.42615E-001	-8.89780E-005	0.00000E+000	-3.93831E-005	-5.39641E-002	4.42675E-001	3.57330E+000	9	...........
	50	0.68	4.37342E-001	-8.87905E-005	0.00000E+000	-3.88318E-005	-5.39641E-002	4.37400E-001	3.57330E+000	9	...........
	51	0.693333	4.32101E-001	-8.89968E-005	0.00000E+000	-3.84556E-005	-5.39641E-002	4.32158E-001	3.57330E+000	9	...........
	52	0.706667	4.26884E-001	-8.86071E-005	0.00000E+000	-3.78249E-005	-5.39641E-002	4.26943E-001	3.57330E+000	9	...........
	53	0.72	4.21677E-001	-8.87290E-005	0.00000E+000	-3.74150E-005	-5.39641E-002	4.21734E-001	3.57330E+000	9	...........
	54	0.733333	4.16499E-001	-8.88124E-005	0.00000E+000	-3.69903E-005	-5.39641E-002	4.16552E-001	3.57330E+000	9	...........
	55	0.746667	4.11350E-001	-8.87905E-005	0.00000E+000	-3.65240E-005	-5.39641E-002	4.11403E-001	3.57347E+000	9	...........
	56	0.76	4.06229E-001	-8.86519E-005	0.00000E+000	-3.60130E-005	-5.39641E-002	4.06277E-001	3.57400E+000	9	...........
	57	0.773333	4.01121E-001	-8.88332E-005	0.00000E+000	-3.56329E-005	-5.39641E-002	4.01170E-001	3.57400E+000	9	...........
	58	0.786667	3.96024E-001	-8.85519E-005	0.00000E+000	-3.50686E-005	-5.39641E-002	3.96070E-001	3.57400E+000	9	...........
	59	0.8	3.90948E-001	-8.87905E-005	0.00000E+000	-3.47125E-005	-5.39641E-002	3.90998E-001	3.57400E+000	9	...........
	60	0.813333	3.85892E-001	-8.86738E-005	0.00000E+000	-3.42185E-005	-5.39641E-002	3.85943E-001	3.57400E+000	9	...........
	61	0.826667	3.80843E-001	-8.86738E-005	0.00000E+000	-3.37708E-005	-5.39641E-002	3.80891E-001	3.57400E+000	9	...........
	62	0.84	3.75805E-001	-8.89728E-005	0.00000E+000	-3.34364E-005	-5.39641E-002	3.75852E-001	3.57400E+000	9	...........
	63	0.853333	3.70783E-001	-8.86269E-005	0.00000E+000	-3.28614E-005	-5.39641E-002	3.70828E-001	3.57400E+000	9	...........
	64	0.866667	3.65763E-001	-8.90010E-005	0.00000E+000	-3.25532E-005	-5.39641E-002	3.65811E-001	3.57400E+000	9	...........
	65	0.88	3.60768E-001	-8.87249E-005	0.00000E+000	-3.20091E-005	-5.39641E-002	3.60815E-001	3.57400E+000	9	...........
	66	0.893333	3.55777E-001	-8.85134E-005	0.00000E+000	-3.14911E-005	-5.39641E-002	3.55822E-001	3.57400E+000	9	...........
	67	0.906667	3.50797E-001	-8.87645E-005	0.00000E+000	-3.11383E-005	-5.39641E-002	3.50844E-001	3.57400E+000	9	...........
	68	0.92	3.45823E-001	-8.87332E-005	0.00000E+000	-3.06860E-005	-5.39641E-002	3.45872E-001	3.57400E+000	9	...........
	69	0.933333	3.40879E-001	-8.87822E-005	0.00000E+000	-3.02640E-005	-5.39641E-002	3.40915E-001	3.57400E+000	9	...........
	70	0.946667	3.35934E-001	-8.89770E-005	0.00000E+000	-2.98904E-005	-5.39641E-002	3.35972E-001	3.57400E+000	9	...........
	71	0.96	3.31025E-001	-8.86957E-005	0.00000E+000	-2.93605E-005	-5.39641E-002	3.31065E-001	3.57400E+000	9	...........
	72	0.97333	3.26130E-001	-8.86353E-005	0.00000E+000	-2.89066E-005	-5.39641E-002	3.26172E-001	3.57400E+000	9	...........
	73	0.98667	3.21226E-001	-8.87592E-005	0.00000E+000	-2.85118E-005	-5.39641E-002	3.21270E-001	3.57400E+000	9	...........
	74	1	3.16355E-001	-8.87895E-005	0.00000E+000	-2.80890E-005	-5.39641E-002	3.16404E-001	3.57400E+000	9	...........
	75	1.01333	3.11503E-001	-8.86926E-005	0.00000E+000	-2.76280E-005	-5.39641E-002	3.11545E-001	3.57400E+000	9	...........
	76	1.02667	3.06658E-001	-8.90249E-005	0.00000E+000	-2.73002E-005	-5.39641E-002	3.06703E-001	3.57400E+000	9	...........
	77	1.04	3.01827E-001	-8.88541E-005	0.00000E+000	-2.68186E-005	-5.39641E-002	3.01865E-001	3.57400E+000	9	...........
	78	1.05333	2.97013E-001	-8.89760E-005	0.00000E+000	-2.64270E-005	-5.39641E-002	2.97050E-001	3.57400E+000	9	...........
	79	1.06667	2.92206E-001	-8.86259E-005	0.00000E+000	-2.58970E-005	-5.39641E-002	2.92243E-001	3.57400E+000	9	...........
	80	1.08	2.87427E-001	-8.89030E-005	0.00000E+000	-2.55532E-005	-5.39641E-002	2.87472E-001	3.57400E+000	9	...........
	81	1.09333	2.82672E-001	-8.89145E-005	0.00000E+000	-2.51337E-005	-5.39641E-002	2.82711E-001	3.57400E+000	9	...........
	82	1.10667	2.77930E-001	-8.87165E-005	0.00000E+000	-2.46570E-005	-5.39641E-002	2.77968E-001	3.57400E+000	9	...........
	83	1.12	2.73204E-001	-8.87311E-005	0.00000E+000	-2.42417E-005	-5.39641E-002	2.73244E-001	3.57400E+000	9	...........
	84	1.13333	2.68503E-001	-8.86717E-005	0.00000E+000	-2.38086E-005	-5.39641E-002	2.68539E-001	3.57400E+000	9	...........
	85	1.14667	2.63814E-001	-8.88249E-005	0.00000E+000	-2.34333E-005	-5.39641E-002	2.63850E-001	3.57400E+000	9	...........
	86	1.16	2.59144E-001	-8.86092E-005	0.00000E+000	-2.29626E-005	-5.39641E-002	2.59179E-001	3.57400E+000	9	...........
	87	1.17333	2.54472E-001	-8.89499E-005	0.00000E+000	-2.26353E-005	-5.39641E-002	2.54508E-001	3.57400E+000	9	...........
	88	1.18667	2.49821E-001	-8.89833E-005	0.00000E+000	-2.22299E-005	-5.39641E-002	2.49855E-001	3.57400E+000	9	...........
	89	1.2	2.45190E-001	-8.86634E-005	0.00000E+000	-2.17394E-005	-5.39641E-002	2.45217E-001	3.57400E+000	9	...........
	90	1.21333	2.40575E-001	-8.88270E-005	0.00000E+000	-2.13696E-005	-5.39641E-002	2.40605E-001	3.57400E+000	9	...........
	91	1.22667	2.35975E-001	-8.88061E-005	0.00000E+000	-2.09561E-005	-5.39641E-002	2.36000E-001	3.57400E+000	9	...........
	92	1.24	2.31385E-001	-8.88770E-005	0.00000E+000	-2.05648E-005	-5.39641E-002	2.31406E-001	3.57400E+000	9	...........
	93	1.25333	2.26822E-001	-8.88791E-005	0.00000E+000	-2.01597E-005	-5.39641E-002	2.26849E-001	3.57400E+000	9	...........
	94	1.26667	2.22295E-001	-8.86405E-005	0.00000E+000	-1.97043E-005	-5.39641E-002	2.22320E-001	3.57400E+000	9	...........
	95	1.28	2.17773E-001	-8.88895E-005	0.00000E+000	-1.93577E-005	-5.39641E-002	2.17795E-001	3.57400E+000	9	...........
	96	1.29333	2.13264E-001	-8.87217E-005	0.00000E+000	-1.89211E-005	-5.39641E-002	2.13286E-001	3.57400E+000	9	...........
	97	1.30667	2.08785E-001	-8.86571E-005	0.00000E+000	-1.85103E-005	-5.39641E-002	2.08807E-001	3.57400E+000	9	...........
	98	1.32	2.04326E-001	-8.88072E-005	0.00000E+000	-1.81456E-005	-5.39641E-002	2.04350E-001	3.57400E+000	9	...........
	99	1.33333	1.99888E-001	-8.87822E-005	0.00000E+000	-1.77465E-005	-5.39641E-002	1.99913E-001	3.57400E+000	9	...........
	100	1.34667	1.95463E-001	-8.88364E-005	0.00000E+000	-1.73642E-005	-5.39641E-002	1.95492E-001	3.57400E+000	9	...........
	101	1.36	1.91068E-001	-8.87978E-005	0.00000E+000	-1.69664E-005	-5.39641E-002	1.91092E-001	3.57400E+000	9	...........
	102	1.37333	1.86690E-001	-8.86999E-005	0.00000E+000	-1.65594E-005	-5.39641E-002	1.86711E-001	3.57400E+000	9	...........
	103	1.38667	1.82319E-001	-8.86290E-005	0.00000E+000	-1.61588E-005	-5.39641E-002	1.82338E-001	3.57400E+000	9	...........
	104	1.4	1.77974E-001	-8.89812E-005	0.00000E+000	-1.58363E-005	-5.39641E-002	1.77997E-001	3.57400E+000	9	...........
	105	1.41333	1.73653E-001	-8.87322E-005	0.00000E+000	-1.54086E-005	-5.39641E-002	1.73673E-001	3.57400E+000	9	...........
	106	1.42667	1.69345E-001	-8.86988E-005	0.00000E+000	-1.50207E-005	-5.39641E-002	1.69366E-001	3.57400E+000	9	...........
	107	1.44	1.65058E-001	-8.85759E-005	0.00000E+000	-1.46202E-005	-5.39641E-002	1.65077E-001	3.57400E+000	9	...........
	108	1.45333	1.60780E-001	-8.87363E-005	0.00000E+000	-1.42670E-005	-5.39641E-002	1.60795E-001	3.57400E+000	9	...........
	109	1.46667	1.56520E-001	-8.90135E-005	0.00000E+000	-1.39323E-005	-5.39641E-002	1.56535E-001	3.57400E+000	9	...........
	110	1.48	1.52273E-001	-8.88718E-005	0.00000E+000	-1.35327E-005	-5.39641E-002	1.52290E-001	3.57400E+000	9	...........
	111	1.49333	1.48057E-001	-8.87144E-005	0.00000E+000	-1.31348E-005	-5.39641E-002	1.48071E-001	3.57400E+000	9	...........
	112	1.50667	1.43852E-001	-8.89062E-005	0.00000E+000	-1.27893E-005	-5.39641E-002	1.43862E-001	3.57400E+000	9	...........
	113	1.52	1.39667E-001	-8.88791E-005	0.00000E+000	-1.24135E-005	-5.39641E-002	1.39681E-001	3.57400E+000	9	...........
	114	1.53333	1.35506E-001	-8.86321E-005	0.00000E+000	-1.20102E-005	-5.39641E-002	1.35516E-001	3.57400E+000	9	...........
	115	1.54667	1.31338E-001	-8.88218E-005	0.00000E+000	-1.16656E-005	-5.39641E-002	1.31350E-001	3.57400E+000	9	...........
	116	1.56	1.27203E-001	-8.87228E-005	0.00000E+000	-1.12858E-005	-5.39641E-002	1.27213E-001	3.57400E+000	9	...........
	117	1.57333	1.23083E-001	-8.87957E-005	0.00000E+000	-1.09293E-005	-5.39641E-002	1.23097E-001	3.57400E+000	9	...........
	118	1.58667	1.18986E-001	-8.88676E-005	0.00000E+000	-1.05740E-005	-5.39641E-002	1.19002E-001	3.57400E+000	9	...........
	119	1.6	1.14911E-001	-8.88041E-005	0.00000E+000	-1.02046E-005	-5.39641E-002	1.14921E-001	3.57400E+000	9	...........
	120	1.61333	1.10857E-001	-8.89218E-005	0.00000E+000	-9.85764E-006	-5.39641E-002	1.10869E-001	3.57400E+000	9	...........
	121	1.62667	1.06812E-001	-8.89176E-005	0.00000E+000	-9.49747E-006	-5.39641E-002	1.06821E-001	3.57400E+000	9	...........
	122	1.64	1.02775E-001	-8.88145E-005	0.00000E+000	-9.12790E-006	-5.39641E-002	1.02786E-001	3.57400E+000	9	...........
	123	1.65333	9.87633E-002	-8.87301E-005	0.00000E+000	-8.76327E-006	-5.39641E-002	9.87772E-002	3.57400E+000	9	...........
	124	1.66667	9.47771E-002	-8.86832E-005	0.00000E+000	-8.40513E-006	-5.39641E-002	9.47839E-002	3.57400E+000	9	...........
	125	1.68	9.08009E-002	-8.87238E-005	0.00000E+000	-8.05620E-006	-5.39641E-002	9.08067E-002	3.57400E+000	9	...........
	126	1.69333	8.68368E-002	-8.89385E-005	0.00000E+000	-7.72313E-006	-5.39641E-002	8.68530E-002	3.57400E+000	9	...........
	127	1.70667	8.29011E-002	-8.88103E-005	0.00000E+000	-7.36247E-006	-5.39641E-002	8.29086E-002	3.57400E+000	9	...........
	128	1.72	7.89737E-002	-8.89655E-005	0.00000E+000	-7.02594E-006	-5.39641E-002	7.89833E-002	3.57400E+000	9	...........
	129	1.73333	7.50757E-002	-8.88697E-005	0.00000E+000	-6.67195E-006	-5.39641E-002	7.50768E-002	3.57400E+000	9	...........
	130	1.74667	7.11862E-002	-8.88416E-005	0.00000E+000	-6.32429E-006	-5.39641E-002	7.11812E-002	3.57375E+000	9	...........
	131	1.76	6.73134E-002	-8.87853E-005	0.00000E+000	-5.97644E-006	-5.39641E-002	6.73135E-002	3.57300E+000	9	...........
	132	1.77333	6.34580E-002	-8.87082E-005	0.00000E+000	-5.62924E-006	-5.39641E-002	6.34585E-002	3.57300E+000	9	...........
	133	1.78667	5.96164E-002	-8.90395E-005	0.00000E+000	-5.30821E-006	-5.39641E-002	5.96154E-002	3.57300E+000	9	...........
	134	1.8	5.57987E-002	-8.89072E-005	0.00000E+000	-4.96090E-006	-5.39641E-002	5.57971E-002	3.57300E+000	9	...........
	135	1.81333	5.19970E-002	-8.89958E-005	0.00000E+000	-4.62751E-006	-5.39641E-002	5.19977E-002	3.57300E+000	9	...........
	136	1.82667	4.82212E-002	-8.87207E-005	0.00000E+000	-4.27822E-006	-5.39641E-002	4.82222E-002	3.57300E+000	9	...........
	137	1.84	4.44561E-002	-8.89009E-005	0.00000E+000	-3.95219E-006	-5.39641E-002	4.44653E-002	3.57300E+000	9	...........
	138	1.85333	4.07070E-002	-8.85457E-005	0.00000E+000	-3.60443E-006	-5.39641E-002	4.07126E-002	3.57300E+000	9	...........
	139	1.86667	3.69720E-002	-8.88207E-005	0.00000E+000	-3.28388E-006	-5.39641E-002	3.69748E-002	3.57300E+000	9	...........
	140	1.88	3.32587E-002	-8.87436E-005	0.00000E+000	-2.95149E-006	-5.39641E-002	3.32653E-002	3.57300E+000	9	...........
	141	1.89333	2.95666E-002	-8.87238E-005	0.00000E+000	-2.62326E-006	-5.39641E-002	2.95679E-002	3.57300E+000	9	...........
	142	1.90667	2.58950E-002	-8.88186E-005	0.00000E+000	-2.29996E-006	-5.39641E-002	2.58936E-002	3.57300E+000	9	...........
	143	1.92	2.22422E-002	-8.87728E-005	0.00000E+000	-1.97450E-006	-5.39641E-002	2.22362E-002	3.57300E+000	9	...........
	144	1.93333	1.85935E-002	-8.89020E-005	0.00000E+000	-1.65300E-006	-5.39641E-002	1.85922E-002	3.57300E+000	9	...........
	145	1.94667	1.49770E-002	-8.88499E-005	0.00000E+000	-1.33070E-006	-5.39641E-002	1.49680E-002	3.57300E+000	9	...........
	146	1.96	1.13696E-002	-8.86613E-005	0.00000E+000	-1.00804E-006	-5.39641E-002	1.13583E-002	3.57300E+000	9	...........
	147	1.97333	7.77973E-003	-8.89093E-005	0.00000E+000	-6.91690E-007	-5.39641E-002	7.76821E-003	3.57300E+000	9	...........
	148	1.98667	4.22088E-003	-8.87113E-005	0.00000E+000	-3.74440E-007	-5.39641E-002	4.21200E-003	3.57300E+000	9	...........
	149	1.99833	8.98127E-004	-8.90047E-005	0.00000E+000	-7.99375E-008	-5.39641E-002	8.81115E-004	3.57300E+000	9	...........
STARTTIMEOFFSET	QUANT	2741.272	Start Time Offset (s)
