EXPLAIN
TAG	PWR800_DISCHARGE
TITLE	LABEL	PWR Cyclic Charge Discharge (Cell) - Discharge Step	Test &Identifier
DATE	LABEL	10-7-2017	Date
TIME	LABEL	15:23:28	Time
NOTES	NOTES	3	&Notes...
	supercap test cell
	0.9mg
	6M KOH
PSTAT	PSTAT	IFC5000-01520	Potentiostat
CAPACITY	QUANT	1.00000E-003	Capacity (A-hr)
CELLTYPE	SELECTOR	1	&Cell Type
WORKINGCONNECTION	SELECTOR	0	&Working Lead
MAXDISCHARGETIME	VARIABLEANDUNITS	1.00000E+002	s	1.00000E+002	second(s)	Max &Discharge Time
DISCHARGEMODE	MULTIPARAM	0	9.00000E-005	&Discharge Mode	Constant Current	Amp(s)
SAMPLETIME	QUANT	1.00000E-002	Sa&mple Period (s)
DISCHARGESTOPAT1	MULTIPARAM	3	0.00000E+000	Discharge Stop At &1	Voltage < Limit	V
DISCHARGESTOPAT2	MULTIPARAM	0	0.00000E+000	Discharge Stop At &2	None	N/A
AESBHCSELECTOR	TOGGLE	F	Save Both Half Cells
IRCOMP	TOGGLE	F	IR &Measure
EOC	QUANT	0	Open Circuit (V)
SEQUENCER	TOGGLE	TRUE	Run as Sequence
PSTATMODEL	IQUANT	53	Pstat Model
PSTATSECTION	LABEL	IFC5000-01520	Pstat Section
PSTATSERIALNO	LABEL	01520	Pstat Serial Number
CTRLMODE	IQUANT	0	Control Mode
ELECTROMETER	IQUANT	1	RE=0 or CS=1
IESTAB	IQUANT	0	I/E Stability
CASPEED	IQUANT	4	Control Amp Speed
CONVENTION	IQUANT	1	Current Convention
ICHRANGE	IQUANT	2	Ich Range
ICHRANGEMODE	TOGGLE	T	Ich Auto Range
ICHOFFSETENABLE	TOGGLE	F	Ich Offset Enable
ICHOFFSET	QUANT	0	Ich Offset (V)
ICHFILTER	IQUANT	1	Ich Filter
VCHRANGE	IQUANT	2	Vch Range
VCHRANGEMODE	TOGGLE	T	Vch Auto Range
VCHOFFSETENABLE	TOGGLE	F	Vch Offset Enable
VCHOFFSET	QUANT	0	Vch Offset (V)
VCHFILTER	IQUANT	1	Vch Filter
IERANGELOWERLIMIT	IQUANT	9	I/E Range Lower Limit
IERANGEMODE	TOGGLE	F	I/E AutoRange
IERANGE	IQUANT	9	I/E Range
ACHSELECT	IQUANT	1	Ach Select
ACHRANGE	IQUANT	2	Ach Range
ACHOFFSETENABLE	TOGGLE	F	Ach Offset Enable
ACHOFFSET	QUANT	0	Ach Offset (V)
ACHFILTER	IQUANT	1	Ach Filter
CABLEID	IQUANT	14	Cable ID
DCCALDATE	LABEL	5-7-2017	DC Calibration Date
ACCALDATE	LABEL	12/3/2015	AC Calibration Date
FRAMEWORKVERSION	QUANT	7.01	Framework Version
INSTRUMENTVERSION	LABEL	4.00	Instrument Version
CURVE	TABLE	157
	Pt	T	Vf	Im	Vu	Pwr	Sig	Ach	Temp	IERange	Over
	#	s	V	A	V	W	V	V	deg C	#	bits
	0	0.013333	8.19757E-001	-8.87405E-005	0.00000E+000	-7.27456E-005	-5.39641E-002	8.19922E-001	3.57230E+000	9	...........
	1	0.026667	8.06978E-001	-8.88030E-005	0.00000E+000	-7.16621E-005	-5.39641E-002	8.07137E-001	3.57230E+000	9	...........
	2	0.04	7.95012E-001	-8.88811E-005	0.00000E+000	-7.06615E-005	-5.39641E-002	7.95165E-001	3.57230E+000	9	...........
	3	0.053333	7.83666E-001	-8.88020E-005	0.00000E+000	-6.95911E-005	-5.39641E-002	7.83794E-001	3.57230E+000	9	...........
	4	0.066667	7.72828E-001	-8.88718E-005	0.00000E+000	-6.86826E-005	-5.39641E-002	7.72966E-001	3.57230E+000	9	...........
	5	0.08	7.62461E-001	-8.86551E-005	0.00000E+000	-6.75960E-005	-5.39641E-002	7.62566E-001	3.57230E+000	9	...........
	6	0.093333	7.52463E-001	-8.86832E-005	0.00000E+000	-6.67308E-005	-5.39641E-002	7.52586E-001	3.57230E+000	9	...........
	7	0.106667	7.42803E-001	-8.88780E-005	0.00000E+000	-6.60189E-005	-5.39641E-002	7.42913E-001	3.57230E+000	9	...........
	8	0.12	7.33464E-001	-8.86040E-005	0.00000E+000	-6.49878E-005	-5.39641E-002	7.33574E-001	3.57230E+000	9	...........
	9	0.133333	7.24435E-001	-8.85686E-005	0.00000E+000	-6.41622E-005	-5.39641E-002	7.24513E-001	3.57230E+000	9	...........
	10	0.146667	7.15596E-001	-8.85227E-005	0.00000E+000	-6.33465E-005	-5.39641E-002	7.15694E-001	3.57230E+000	9	...........
	11	0.16	7.07026E-001	-8.90197E-005	0.00000E+000	-6.29393E-005	-5.39641E-002	7.07120E-001	3.57230E+000	9	...........
	12	0.173333	6.98671E-001	-8.88061E-005	0.00000E+000	-6.20463E-005	-5.39641E-002	6.98765E-001	3.57230E+000	9	...........
	13	0.186667	6.90499E-001	-8.87665E-005	0.00000E+000	-6.12932E-005	-5.39641E-002	6.90604E-001	3.57230E+000	9	...........
	14	0.2	6.82515E-001	-8.87488E-005	0.00000E+000	-6.05724E-005	-5.39641E-002	6.82615E-001	3.57230E+000	9	...........
	15	0.213333	6.74715E-001	-8.87467E-005	0.00000E+000	-5.98787E-005	-5.39641E-002	6.74798E-001	3.57230E+000	9	...........
	16	0.226667	6.67054E-001	-8.86561E-005	0.00000E+000	-5.91384E-005	-5.39641E-002	6.67142E-001	3.57230E+000	9	...........
	17	0.24	6.59543E-001	-8.87999E-005	0.00000E+000	-5.85673E-005	-5.39641E-002	6.59628E-001	3.57230E+000	9	...........
	18	0.253333	6.52181E-001	-8.87155E-005	0.00000E+000	-5.78586E-005	-5.39641E-002	6.52261E-001	3.57230E+000	9	...........
	19	0.266667	6.44939E-001	-8.86499E-005	0.00000E+000	-5.71737E-005	-5.39641E-002	6.45026E-001	3.57230E+000	9	...........
	20	0.28	6.37810E-001	-8.87092E-005	0.00000E+000	-5.65796E-005	-5.39641E-002	6.37908E-001	3.57230E+000	9	...........
	21	0.293333	6.30828E-001	-8.87592E-005	0.00000E+000	-5.59918E-005	-5.39641E-002	6.30921E-001	3.57230E+000	9	...........
	22	0.306667	6.23986E-001	-8.88968E-005	0.00000E+000	-5.54703E-005	-5.39641E-002	6.24042E-001	3.57230E+000	9	...........
	23	0.32	6.17220E-001	-8.86780E-005	0.00000E+000	-5.47338E-005	-5.39641E-002	6.17308E-001	3.57230E+000	9	...........
	24	0.333333	6.10486E-001	-8.85269E-005	0.00000E+000	-5.40444E-005	-5.39641E-002	6.10616E-001	3.57230E+000	9	...........
	25	0.346667	6.03938E-001	-8.88593E-005	0.00000E+000	-5.36655E-005	-5.39641E-002	6.04096E-001	3.57230E+000	9	...........
	26	0.36	5.97480E-001	-8.86676E-005	0.00000E+000	-5.29771E-005	-5.39641E-002	5.97606E-001	3.57230E+000	9	...........
	27	0.373333	5.91120E-001	-8.86676E-005	0.00000E+000	-5.24132E-005	-5.39641E-002	5.91240E-001	3.57230E+000	9	...........
	28	0.386667	5.84753E-001	-8.85290E-005	0.00000E+000	-5.17676E-005	-5.39641E-002	5.84900E-001	3.57230E+000	9	...........
	29	0.4	5.78552E-001	-8.88936E-005	0.00000E+000	-5.14296E-005	-5.39641E-002	5.78678E-001	3.57230E+000	9	...........
	30	0.413333	5.72415E-001	-8.88707E-005	0.00000E+000	-5.08710E-005	-5.39641E-002	5.72477E-001	3.57230E+000	9	...........
	31	0.426667	5.66309E-001	-8.87009E-005	0.00000E+000	-5.02322E-005	-5.39641E-002	5.66407E-001	3.57230E+000	9	...........
	32	0.44	5.60227E-001	-8.88593E-005	0.00000E+000	-4.97814E-005	-5.39641E-002	5.60338E-001	3.57230E+000	9	...........
	33	0.453333	5.54253E-001	-8.88343E-005	0.00000E+000	-4.92366E-005	-5.39641E-002	5.54337E-001	3.57230E+000	9	...........
	34	0.466667	5.48318E-001	-8.90791E-005	0.00000E+000	-4.88437E-005	-5.39641E-002	5.48422E-001	3.57230E+000	9	...........
	35	0.48	5.42459E-001	-8.85415E-005	0.00000E+000	-4.80302E-005	-5.39641E-002	5.42536E-001	3.57230E+000	9	...........
	36	0.493333	5.36607E-001	-8.87467E-005	0.00000E+000	-4.76221E-005	-5.39641E-002	5.36696E-001	3.57230E+000	9	...........
	37	0.506667	5.30795E-001	-8.86301E-005	0.00000E+000	-4.70444E-005	-5.39641E-002	5.30877E-001	3.57230E+000	9	...........
	38	0.52	5.25055E-001	-8.87592E-005	0.00000E+000	-4.66035E-005	-5.39641E-002	5.25169E-001	3.57230E+000	9	...........
	39	0.533333	5.19391E-001	-8.85759E-005	0.00000E+000	-4.60055E-005	-5.39641E-002	5.19469E-001	3.57231E+000	9	...........
	40	0.546667	5.13743E-001	-8.87332E-005	0.00000E+000	-4.55860E-005	-5.39641E-002	5.13799E-001	3.57240E+000	9	...........
	41	0.56	5.08028E-001	-8.87686E-005	0.00000E+000	-4.50969E-005	-5.39641E-002	5.08178E-001	3.57240E+000	9	...........
	42	0.573333	5.02453E-001	-8.88770E-005	0.00000E+000	-4.46565E-005	-5.39641E-002	5.02559E-001	3.57240E+000	9	...........
	43	0.586667	4.96915E-001	-8.84488E-005	0.00000E+000	-4.39515E-005	-5.39641E-002	4.97031E-001	3.57240E+000	9	...........
	44	0.6	4.91403E-001	-8.89364E-005	0.00000E+000	-4.37036E-005	-5.39641E-002	4.91513E-001	3.57240E+000	9	...........
	45	0.613333	4.85957E-001	-8.85842E-005	0.00000E+000	-4.30481E-005	-5.39641E-002	4.86050E-001	3.57240E+000	9	...........
	46	0.626667	4.80569E-001	-8.86915E-005	0.00000E+000	-4.26224E-005	-5.39641E-002	4.80628E-001	3.57240E+000	9	...........
	47	0.64	4.75171E-001	-8.88614E-005	0.00000E+000	-4.22243E-005	-5.39641E-002	4.75227E-001	3.57240E+000	9	...........
	48	0.653333	4.69787E-001	-8.88801E-005	0.00000E+000	-4.17547E-005	-5.39641E-002	4.69845E-001	3.57240E+000	9	...........
	49	0.666667	4.64427E-001	-8.87186E-005	0.00000E+000	-4.12033E-005	-5.39641E-002	4.64484E-001	3.57240E+000	9	...........
	50	0.68	4.59083E-001	-8.90010E-005	0.00000E+000	-4.08588E-005	-5.39641E-002	4.59141E-001	3.57240E+000	9	...........
	51	0.693333	4.53781E-001	-8.88416E-005	0.00000E+000	-4.03146E-005	-5.39641E-002	4.53835E-001	3.57240E+000	9	...........
	52	0.706667	4.48494E-001	-8.86988E-005	0.00000E+000	-3.97809E-005	-5.39641E-002	4.48555E-001	3.57240E+000	9	...........
	53	0.72	4.43229E-001	-8.85884E-005	0.00000E+000	-3.92650E-005	-5.39641E-002	4.43284E-001	3.57240E+000	9	...........
	54	0.733333	4.37963E-001	-8.89197E-005	0.00000E+000	-3.89436E-005	-5.39641E-002	4.38020E-001	3.57240E+000	9	...........
	55	0.746667	4.32715E-001	-8.88770E-005	0.00000E+000	-3.84584E-005	-5.39641E-002	4.32767E-001	3.57240E+000	9	...........
	56	0.76	4.27493E-001	-8.86811E-005	0.00000E+000	-3.79106E-005	-5.39641E-002	4.27550E-001	3.57240E+000	9	...........
	57	0.773333	4.22291E-001	-8.86686E-005	0.00000E+000	-3.74440E-005	-5.39641E-002	4.22352E-001	3.57240E+000	9	...........
	58	0.786667	4.17124E-001	-8.90718E-005	0.00000E+000	-3.71540E-005	-5.39641E-002	4.17175E-001	3.57240E+000	9	...........
	59	0.8	4.11973E-001	-8.86540E-005	0.00000E+000	-3.65231E-005	-5.39641E-002	4.12020E-001	3.57240E+000	9	...........
	60	0.813333	4.06831E-001	-8.86478E-005	0.00000E+000	-3.60646E-005	-5.39641E-002	4.06879E-001	3.57240E+000	9	...........
	61	0.826667	4.01720E-001	-8.87613E-005	0.00000E+000	-3.56572E-005	-5.39641E-002	4.01763E-001	3.57240E+000	9	...........
	62	0.84	3.96633E-001	-8.87624E-005	0.00000E+000	-3.52060E-005	-5.39641E-002	3.96673E-001	3.57240E+000	9	...........
	63	0.853333	3.91552E-001	-8.86999E-005	0.00000E+000	-3.47306E-005	-5.39641E-002	3.91592E-001	3.57240E+000	9	...........
	64	0.866667	3.86476E-001	-8.86655E-005	0.00000E+000	-3.42671E-005	-5.39641E-002	3.86519E-001	3.57240E+000	9	...........
	65	0.88	3.81425E-001	-8.87697E-005	0.00000E+000	-3.38589E-005	-5.39641E-002	3.81463E-001	3.57240E+000	9	...........
	66	0.893333	3.76385E-001	-8.86259E-005	0.00000E+000	-3.33574E-005	-5.39641E-002	3.76428E-001	3.57240E+000	9	...........
	67	0.906667	3.71370E-001	-8.86165E-005	0.00000E+000	-3.29095E-005	-5.39641E-002	3.71408E-001	3.57240E+000	9	...........
	68	0.92	3.66348E-001	-8.86634E-005	0.00000E+000	-3.24817E-005	-5.39641E-002	3.66392E-001	3.57240E+000	9	...........
	69	0.933333	3.61355E-001	-8.87311E-005	0.00000E+000	-3.20634E-005	-5.39641E-002	3.61402E-001	3.57240E+000	9	...........
	70	0.946667	3.56390E-001	-8.85363E-005	0.00000E+000	-3.15534E-005	-5.39641E-002	3.56435E-001	3.57240E+000	9	...........
	71	0.96	3.51464E-001	-8.88645E-005	0.00000E+000	-3.12326E-005	-5.39641E-002	3.51498E-001	3.57240E+000	9	...........
	72	0.97333	3.46563E-001	-8.88145E-005	0.00000E+000	-3.07798E-005	-5.39641E-002	3.46607E-001	3.57240E+000	9	...........
	73	0.98667	3.41675E-001	-8.87665E-005	0.00000E+000	-3.03293E-005	-5.39641E-002	3.41716E-001	3.57240E+000	9	...........
	74	1	3.36786E-001	-8.89926E-005	0.00000E+000	-2.99715E-005	-5.39641E-002	3.36825E-001	3.57240E+000	9	...........
	75	1.01333	3.31906E-001	-8.90072E-005	0.00000E+000	-2.95420E-005	-5.39641E-002	3.31947E-001	3.57240E+000	9	...........
	76	1.02667	3.27045E-001	-8.90562E-005	0.00000E+000	-2.91254E-005	-5.39641E-002	3.27089E-001	3.57240E+000	9	...........
	77	1.04	3.22203E-001	-8.86394E-005	0.00000E+000	-2.85599E-005	-5.39641E-002	3.22242E-001	3.57240E+000	9	...........
	78	1.05333	3.17368E-001	-8.87603E-005	0.00000E+000	-2.81697E-005	-5.39641E-002	3.17408E-001	3.57240E+000	9	...........
	79	1.06667	3.12565E-001	-8.85061E-005	0.00000E+000	-2.76639E-005	-5.39641E-002	3.12604E-001	3.57240E+000	9	...........
	80	1.08	3.07784E-001	-8.84456E-005	0.00000E+000	-2.72222E-005	-5.39641E-002	3.07825E-001	3.57240E+000	9	...........
	81	1.09333	3.03040E-001	-8.87051E-005	0.00000E+000	-2.68812E-005	-5.39641E-002	3.03076E-001	3.57240E+000	9	...........
	82	1.10667	2.98304E-001	-8.88561E-005	0.00000E+000	-2.65062E-005	-5.39641E-002	2.98338E-001	3.57240E+000	9	...........
	83	1.12	2.93600E-001	-8.84081E-005	0.00000E+000	-2.59566E-005	-5.39641E-002	2.93641E-001	3.57240E+000	9	...........
	84	1.13333	2.88899E-001	-8.88749E-005	0.00000E+000	-2.56759E-005	-5.39641E-002	2.88936E-001	3.57240E+000	9	...........
	85	1.14667	2.84222E-001	-8.87092E-005	0.00000E+000	-2.52131E-005	-5.39641E-002	2.84258E-001	3.57240E+000	9	...........
	86	1.16	2.79558E-001	-8.87113E-005	0.00000E+000	-2.47999E-005	-5.39641E-002	2.79594E-001	3.57240E+000	9	...........
	87	1.17333	2.74916E-001	-8.85519E-005	0.00000E+000	-2.43443E-005	-5.39641E-002	2.74952E-001	3.57240E+000	9	...........
	88	1.18667	2.70314E-001	-8.87322E-005	0.00000E+000	-2.39855E-005	-5.39641E-002	2.70350E-001	3.57240E+000	9	...........
	89	1.2	2.65742E-001	-8.86061E-005	0.00000E+000	-2.35463E-005	-5.39641E-002	2.65776E-001	3.57240E+000	9	...........
	90	1.21333	2.61190E-001	-8.86790E-005	0.00000E+000	-2.31621E-005	-5.39641E-002	2.61224E-001	3.57240E+000	9	...........
	91	1.22667	2.56643E-001	-8.87936E-005	0.00000E+000	-2.27883E-005	-5.39641E-002	2.56682E-001	3.57240E+000	9	...........
	92	1.24	2.52127E-001	-8.87353E-005	0.00000E+000	-2.23726E-005	-5.39641E-002	2.52159E-001	3.57240E+000	9	...........
	93	1.25333	2.47632E-001	-8.88072E-005	0.00000E+000	-2.19915E-005	-5.39641E-002	2.47659E-001	3.57240E+000	9	...........
	94	1.26667	2.43142E-001	-8.84467E-005	0.00000E+000	-2.15051E-005	-5.39641E-002	2.43168E-001	3.57240E+000	9	...........
	95	1.28	2.38684E-001	-8.87634E-005	0.00000E+000	-2.11864E-005	-5.39641E-002	2.38706E-001	3.57240E+000	9	...........
	96	1.29333	2.34245E-001	-8.87269E-005	0.00000E+000	-2.07839E-005	-5.39641E-002	2.34268E-001	3.57240E+000	9	...........
	97	1.30667	2.29830E-001	-8.87540E-005	0.00000E+000	-2.03983E-005	-5.39641E-002	2.29853E-001	3.57240E+000	9	...........
	98	1.32	2.25421E-001	-8.87290E-005	0.00000E+000	-2.00014E-005	-5.39641E-002	2.25446E-001	3.57240E+000	9	...........
	99	1.33333	2.21039E-001	-8.87197E-005	0.00000E+000	-1.96105E-005	-5.39641E-002	2.21067E-001	3.57240E+000	9	...........
	100	1.34667	2.16674E-001	-8.90145E-005	0.00000E+000	-1.92872E-005	-5.39641E-002	2.16700E-001	3.57240E+000	9	...........
	101	1.36	2.12345E-001	-8.87467E-005	0.00000E+000	-1.88449E-005	-5.39641E-002	2.12359E-001	3.57240E+000	9	...........
	102	1.37333	2.08025E-001	-8.86478E-005	0.00000E+000	-1.84410E-005	-5.39641E-002	2.08044E-001	3.57240E+000	9	...........
	103	1.38667	2.03705E-001	-8.88978E-005	0.00000E+000	-1.81089E-005	-5.39641E-002	2.03732E-001	3.57240E+000	9	...........
	104	1.4	1.99443E-001	-8.86061E-005	0.00000E+000	-1.76719E-005	-5.39641E-002	1.99467E-001	3.57240E+000	9	...........
	105	1.41333	1.95179E-001	-8.88811E-005	0.00000E+000	-1.73477E-005	-5.39641E-002	1.95203E-001	3.57240E+000	9	...........
	106	1.42667	1.90933E-001	-8.86082E-005	0.00000E+000	-1.69182E-005	-5.39641E-002	1.90956E-001	3.57240E+000	9	...........
	107	1.44	1.86724E-001	-8.87624E-005	0.00000E+000	-1.65741E-005	-5.39641E-002	1.86747E-001	3.57240E+000	9	...........
	108	1.45333	1.82516E-001	-8.87395E-005	0.00000E+000	-1.61963E-005	-5.39641E-002	1.82539E-001	3.57240E+000	9	...........
	109	1.46667	1.78347E-001	-8.85686E-005	0.00000E+000	-1.57959E-005	-5.39641E-002	1.78364E-001	3.57240E+000	9	...........
	110	1.48	1.74197E-001	-8.86488E-005	0.00000E+000	-1.54424E-005	-5.39641E-002	1.74215E-001	3.57240E+000	9	...........
	111	1.49333	1.70084E-001	-8.85946E-005	0.00000E+000	-1.50685E-005	-5.39641E-002	1.70100E-001	3.57240E+000	9	...........
	112	1.50667	1.65958E-001	-8.86269E-005	0.00000E+000	-1.47084E-005	-5.39641E-002	1.65979E-001	3.57240E+000	9	...........
	113	1.52	1.61861E-001	-8.88947E-005	0.00000E+000	-1.43886E-005	-5.39641E-002	1.61877E-001	3.57240E+000	9	...........
	114	1.53333	1.57796E-001	-8.86790E-005	0.00000E+000	-1.39932E-005	-5.39641E-002	1.57814E-001	3.57246E+000	9	...........
	115	1.54667	1.53740E-001	-8.89541E-005	0.00000E+000	-1.36758E-005	-5.39641E-002	1.53758E-001	3.57290E+000	9	...........
	116	1.56	1.49699E-001	-8.87374E-005	0.00000E+000	-1.32839E-005	-5.39641E-002	1.49713E-001	3.57290E+000	9	...........
	117	1.57333	1.45677E-001	-8.87978E-005	0.00000E+000	-1.29358E-005	-5.39641E-002	1.45686E-001	3.57290E+000	9	...........
	118	1.58667	1.41678E-001	-8.88155E-005	0.00000E+000	-1.25832E-005	-5.39641E-002	1.41688E-001	3.57290E+000	9	...........
	119	1.6	1.37693E-001	-8.89332E-005	0.00000E+000	-1.22455E-005	-5.39641E-002	1.37701E-001	3.57290E+000	9	...........
	120	1.61333	1.33710E-001	-8.86228E-005	0.00000E+000	-1.18498E-005	-5.39641E-002	1.33724E-001	3.57290E+000	9	...........
	121	1.62667	1.29734E-001	-8.87009E-005	0.00000E+000	-1.15075E-005	-5.39641E-002	1.29740E-001	3.57290E+000	9	...........
	122	1.64	1.25789E-001	-8.86811E-005	0.00000E+000	-1.11551E-005	-5.39641E-002	1.25799E-001	3.57290E+000	9	...........
	123	1.65333	1.21862E-001	-8.86613E-005	0.00000E+000	-1.08045E-005	-5.39641E-002	1.21876E-001	3.57290E+000	9	...........
	124	1.66667	1.17958E-001	-8.86582E-005	0.00000E+000	-1.04579E-005	-5.39641E-002	1.17966E-001	3.57290E+000	9	...........
	125	1.68	1.14072E-001	-8.86071E-005	0.00000E+000	-1.01076E-005	-5.39641E-002	1.14082E-001	3.57290E+000	9	...........
	126	1.69333	1.10207E-001	-8.88395E-005	0.00000E+000	-9.79076E-006	-5.39641E-002	1.10213E-001	3.57290E+000	9	...........
	127	1.70667	1.06339E-001	-8.87165E-005	0.00000E+000	-9.43405E-006	-5.39641E-002	1.06345E-001	3.57290E+000	9	...........
	128	1.72	1.02481E-001	-8.87780E-005	0.00000E+000	-9.09809E-006	-5.39641E-002	1.02490E-001	3.57290E+000	9	...........
	129	1.73333	9.86369E-002	-8.88259E-005	0.00000E+000	-8.76152E-006	-5.39641E-002	9.86459E-002	3.57290E+000	9	...........
	130	1.74667	9.48041E-002	-8.86353E-005	0.00000E+000	-8.40299E-006	-5.39641E-002	9.48060E-002	3.57290E+000	9	...........
	131	1.76	9.09855E-002	-8.89030E-005	0.00000E+000	-8.08889E-006	-5.39641E-002	9.09902E-002	3.57290E+000	9	...........
	132	1.77333	8.71817E-002	-8.87634E-005	0.00000E+000	-7.73855E-006	-5.39641E-002	8.71831E-002	3.57290E+000	9	...........
	133	1.78667	8.33826E-002	-8.85113E-005	0.00000E+000	-7.38030E-006	-5.39641E-002	8.33829E-002	3.57290E+000	9	...........
	134	1.8	7.95982E-002	-8.87207E-005	0.00000E+000	-7.06201E-006	-5.39641E-002	7.96029E-002	3.57290E+000	9	...........
	135	1.81333	7.58358E-002	-8.86196E-005	0.00000E+000	-6.72054E-006	-5.39641E-002	7.58412E-002	3.57290E+000	9	...........
	136	1.82667	7.20934E-002	-8.86676E-005	0.00000E+000	-6.39235E-006	-5.39641E-002	7.20993E-002	3.57290E+000	9	...........
	137	1.84	6.83655E-002	-8.89874E-005	0.00000E+000	-6.08367E-006	-5.39641E-002	6.83694E-002	3.57290E+000	9	...........
	138	1.85333	6.46722E-002	-8.87019E-005	0.00000E+000	-5.73655E-006	-5.39641E-002	6.46738E-002	3.57290E+000	9	...........
	139	1.86667	6.09892E-002	-8.88801E-005	0.00000E+000	-5.42072E-006	-5.39641E-002	6.09943E-002	3.57290E+000	9	...........
	140	1.88	5.73288E-002	-8.87551E-005	0.00000E+000	-5.08823E-006	-5.39641E-002	5.73279E-002	3.57290E+000	9	...........
	141	1.89333	5.36797E-002	-8.86655E-005	0.00000E+000	-4.75954E-006	-5.39641E-002	5.36771E-002	3.57290E+000	9	...........
	142	1.90667	5.00395E-002	-8.85675E-005	0.00000E+000	-4.43188E-006	-5.39641E-002	5.00394E-002	3.57290E+000	9	...........
	143	1.92	4.64188E-002	-8.88947E-005	0.00000E+000	-4.12639E-006	-5.39641E-002	4.64309E-002	3.57290E+000	9	...........
	144	1.93333	4.28265E-002	-8.86228E-005	0.00000E+000	-3.79541E-006	-5.39641E-002	4.28299E-002	3.57290E+000	9	...........
	145	1.94667	3.92390E-002	-8.86363E-005	0.00000E+000	-3.47800E-006	-5.39641E-002	3.92433E-002	3.57290E+000	9	...........
	146	1.96	3.56494E-002	-8.90739E-005	0.00000E+000	-3.17543E-006	-5.39641E-002	3.56567E-002	3.57290E+000	9	...........
	147	1.97333	3.20844E-002	-8.89218E-005	0.00000E+000	-2.85300E-006	-5.39641E-002	3.20846E-002	3.57290E+000	9	...........
	148	1.98667	2.85511E-002	-8.86207E-005	0.00000E+000	-2.53022E-006	-5.39641E-002	2.85560E-002	3.57290E+000	9	...........
	149	2	2.50459E-002	-8.88884E-005	0.00000E+000	-2.22629E-006	-5.39641E-002	2.50477E-002	3.57290E+000	9	...........
	150	2.01333	2.15486E-002	-8.84998E-005	0.00000E+000	-1.90705E-006	-5.39641E-002	2.15485E-002	3.57290E+000	9	...........
	151	2.02667	1.80591E-002	-8.87353E-005	0.00000E+000	-1.60248E-006	-5.39641E-002	1.80537E-002	3.57290E+000	9	...........
	152	2.04	1.45923E-002	-8.86790E-005	0.00000E+000	-1.29403E-006	-5.39641E-002	1.45849E-002	3.57290E+000	9	...........
	153	2.05333	1.11470E-002	-8.88916E-005	0.00000E+000	-9.90871E-007	-5.39641E-002	1.11392E-002	3.57290E+000	9	...........
	154	2.06667	7.71453E-003	-8.86332E-005	0.00000E+000	-6.83763E-007	-5.39641E-002	7.70517E-003	3.57290E+000	9	...........
	155	2.08	4.30053E-003	-8.87759E-005	0.00000E+000	-3.81784E-007	-5.39641E-002	4.28358E-003	3.57290E+000	9	...........
	156	2.09167	1.11026E-003	-8.88939E-005	0.00000E+000	-9.86954E-008	-5.39641E-002	1.10599E-003	3.57290E+000	9	...........
STARTTIMEOFFSET	QUANT	1228.135	Start Time Offset (s)
