EXPLAIN
TAG	PWR800_DISCHARGE
TITLE	LABEL	PWR Cyclic Charge Discharge (Cell) - Discharge Step	Test &Identifier
DATE	LABEL	10-7-2017	Date
TIME	LABEL	15:29:30	Time
NOTES	NOTES	3	&Notes...
	supercap test cell
	0.9mg
	6M KOH
PSTAT	PSTAT	IFC5000-01520	Potentiostat
CAPACITY	QUANT	1.00000E-003	Capacity (A-hr)
CELLTYPE	SELECTOR	1	&Cell Type
WORKINGCONNECTION	SELECTOR	0	&Working Lead
MAXDISCHARGETIME	VARIABLEANDUNITS	1.00000E+002	s	1.00000E+002	second(s)	Max &Discharge Time
DISCHARGEMODE	MULTIPARAM	0	9.00000E-005	&Discharge Mode	Constant Current	Amp(s)
SAMPLETIME	QUANT	1.00000E-002	Sa&mple Period (s)
DISCHARGESTOPAT1	MULTIPARAM	3	0.00000E+000	Discharge Stop At &1	Voltage < Limit	V
DISCHARGESTOPAT2	MULTIPARAM	0	0.00000E+000	Discharge Stop At &2	None	N/A
AESBHCSELECTOR	TOGGLE	F	Save Both Half Cells
IRCOMP	TOGGLE	F	IR &Measure
EOC	QUANT	0	Open Circuit (V)
SEQUENCER	TOGGLE	TRUE	Run as Sequence
PSTATMODEL	IQUANT	53	Pstat Model
PSTATSECTION	LABEL	IFC5000-01520	Pstat Section
PSTATSERIALNO	LABEL	01520	Pstat Serial Number
CTRLMODE	IQUANT	0	Control Mode
ELECTROMETER	IQUANT	1	RE=0 or CS=1
IESTAB	IQUANT	0	I/E Stability
CASPEED	IQUANT	4	Control Amp Speed
CONVENTION	IQUANT	1	Current Convention
ICHRANGE	IQUANT	2	Ich Range
ICHRANGEMODE	TOGGLE	T	Ich Auto Range
ICHOFFSETENABLE	TOGGLE	F	Ich Offset Enable
ICHOFFSET	QUANT	0	Ich Offset (V)
ICHFILTER	IQUANT	1	Ich Filter
VCHRANGE	IQUANT	2	Vch Range
VCHRANGEMODE	TOGGLE	T	Vch Auto Range
VCHOFFSETENABLE	TOGGLE	F	Vch Offset Enable
VCHOFFSET	QUANT	0	Vch Offset (V)
VCHFILTER	IQUANT	1	Vch Filter
IERANGELOWERLIMIT	IQUANT	9	I/E Range Lower Limit
IERANGEMODE	TOGGLE	F	I/E AutoRange
IERANGE	IQUANT	9	I/E Range
ACHSELECT	IQUANT	1	Ach Select
ACHRANGE	IQUANT	2	Ach Range
ACHOFFSETENABLE	TOGGLE	F	Ach Offset Enable
ACHOFFSET	QUANT	0	Ach Offset (V)
ACHFILTER	IQUANT	1	Ach Filter
CABLEID	IQUANT	14	Cable ID
DCCALDATE	LABEL	5-7-2017	DC Calibration Date
ACCALDATE	LABEL	12/3/2015	AC Calibration Date
FRAMEWORKVERSION	QUANT	7.01	Framework Version
INSTRUMENTVERSION	LABEL	4.00	Instrument Version
CURVE	TABLE	157
	Pt	T	Vf	Im	Vu	Pwr	Sig	Ach	Temp	IERange	Over
	#	s	V	A	V	W	V	V	deg C	#	bits
	0	0.013333	8.18011E-001	-8.87697E-005	0.00000E+000	-7.26146E-005	-5.39641E-002	8.18163E-001	3.57290E+000	9	...........
	1	0.026667	8.04930E-001	-8.88936E-005	0.00000E+000	-7.15532E-005	-5.39641E-002	8.05085E-001	3.57245E+000	9	...........
	2	0.04	7.92698E-001	-8.86822E-005	0.00000E+000	-7.02982E-005	-5.39641E-002	7.92823E-001	3.57230E+000	9	...........
	3	0.053333	7.81086E-001	-8.88572E-005	0.00000E+000	-6.94051E-005	-5.39641E-002	7.81237E-001	3.57230E+000	9	...........
	4	0.066667	7.70051E-001	-8.86894E-005	0.00000E+000	-6.82954E-005	-5.39641E-002	7.70197E-001	3.57230E+000	9	...........
	5	0.08	7.59460E-001	-8.88614E-005	0.00000E+000	-6.74866E-005	-5.39641E-002	7.59602E-001	3.57230E+000	9	...........
	6	0.093333	7.49291E-001	-8.88041E-005	0.00000E+000	-6.65401E-005	-5.39641E-002	7.49446E-001	3.57230E+000	9	...........
	7	0.106667	7.39460E-001	-8.86749E-005	0.00000E+000	-6.55715E-005	-5.39641E-002	7.39608E-001	3.57230E+000	9	...........
	8	0.12	7.29991E-001	-8.88655E-005	0.00000E+000	-6.48711E-005	-5.39641E-002	7.30130E-001	3.57230E+000	9	...........
	9	0.133333	7.20810E-001	-8.87072E-005	0.00000E+000	-6.39410E-005	-5.39641E-002	7.20905E-001	3.57230E+000	9	...........
	10	0.146667	7.11831E-001	-8.86738E-005	0.00000E+000	-6.31207E-005	-5.39641E-002	7.11969E-001	3.57230E+000	9	...........
	11	0.16	7.03161E-001	-8.86915E-005	0.00000E+000	-6.23645E-005	-5.39641E-002	7.03263E-001	3.57230E+000	9	...........
	12	0.173333	6.94716E-001	-8.86373E-005	0.00000E+000	-6.15778E-005	-5.39641E-002	6.94814E-001	3.57230E+000	9	...........
	13	0.186667	6.86425E-001	-8.89655E-005	0.00000E+000	-6.10682E-005	-5.39641E-002	6.86569E-001	3.57230E+000	9	...........
	14	0.2	6.78388E-001	-8.88405E-005	0.00000E+000	-6.02684E-005	-5.39641E-002	6.78518E-001	3.57230E+000	9	...........
	15	0.213333	6.70528E-001	-8.86926E-005	0.00000E+000	-5.94709E-005	-5.39641E-002	6.70629E-001	3.57230E+000	9	...........
	16	0.226667	6.62779E-001	-8.85655E-005	0.00000E+000	-5.86993E-005	-5.39641E-002	6.62924E-001	3.57230E+000	9	...........
	17	0.24	6.55220E-001	-8.88697E-005	0.00000E+000	-5.82292E-005	-5.39641E-002	6.55340E-001	3.57230E+000	9	...........
	18	0.253333	6.47828E-001	-8.90479E-005	0.00000E+000	-5.76877E-005	-5.39641E-002	6.47941E-001	3.57230E+000	9	...........
	19	0.266667	6.40587E-001	-8.88447E-005	0.00000E+000	-5.69127E-005	-5.39641E-002	6.40697E-001	3.57230E+000	9	...........
	20	0.28	6.33451E-001	-8.87749E-005	0.00000E+000	-5.62345E-005	-5.39641E-002	6.33537E-001	3.57230E+000	9	...........
	21	0.293333	6.26473E-001	-8.88416E-005	0.00000E+000	-5.56568E-005	-5.39641E-002	6.26557E-001	3.57230E+000	9	...........
	22	0.306667	6.19597E-001	-8.86571E-005	0.00000E+000	-5.49317E-005	-5.39641E-002	6.19682E-001	3.57230E+000	9	...........
	23	0.32	6.12767E-001	-8.88343E-005	0.00000E+000	-5.44347E-005	-5.39641E-002	6.12902E-001	3.57230E+000	9	...........
	24	0.333333	6.06092E-001	-8.87040E-005	0.00000E+000	-5.37628E-005	-5.39641E-002	6.06218E-001	3.57230E+000	9	...........
	25	0.346667	5.99553E-001	-8.87363E-005	0.00000E+000	-5.32021E-005	-5.39641E-002	5.99666E-001	3.57230E+000	9	...........
	26	0.36	5.93086E-001	-8.88478E-005	0.00000E+000	-5.26944E-005	-5.39641E-002	5.93227E-001	3.57230E+000	9	...........
	27	0.373333	5.86702E-001	-8.86103E-005	0.00000E+000	-5.19878E-005	-5.39641E-002	5.86827E-001	3.57230E+000	9	...........
	28	0.386667	5.80381E-001	-8.90864E-005	0.00000E+000	-5.17040E-005	-5.39641E-002	5.80527E-001	3.57230E+000	9	...........
	29	0.4	5.74167E-001	-8.88603E-005	0.00000E+000	-5.10207E-005	-5.39641E-002	5.74313E-001	3.57230E+000	9	...........
	30	0.413333	5.68048E-001	-8.89895E-005	0.00000E+000	-5.05503E-005	-5.39641E-002	5.68177E-001	3.57230E+000	9	...........
	31	0.426667	5.61928E-001	-8.88061E-005	0.00000E+000	-4.99026E-005	-5.39641E-002	5.62085E-001	3.57230E+000	9	...........
	32	0.44	5.55918E-001	-8.87009E-005	0.00000E+000	-4.93104E-005	-5.39641E-002	5.56052E-001	3.57230E+000	9	...........
	33	0.453333	5.49986E-001	-8.85675E-005	0.00000E+000	-4.87109E-005	-5.39641E-002	5.50105E-001	3.57230E+000	9	...........
	34	0.466667	5.44113E-001	-8.87447E-005	0.00000E+000	-4.82871E-005	-5.39641E-002	5.44222E-001	3.57230E+000	9	...........
	35	0.48	5.38274E-001	-8.90260E-005	0.00000E+000	-4.79204E-005	-5.39641E-002	5.38392E-001	3.57230E+000	9	...........
	36	0.493333	5.32444E-001	-8.88093E-005	0.00000E+000	-4.72860E-005	-5.39641E-002	5.32566E-001	3.57230E+000	9	...........
	37	0.506667	5.26720E-001	-8.87051E-005	0.00000E+000	-4.67227E-005	-5.39641E-002	5.26847E-001	3.57230E+000	9	...........
	38	0.52	5.21026E-001	-8.87947E-005	0.00000E+000	-4.62644E-005	-5.39641E-002	5.21156E-001	3.57230E+000	9	...........
	39	0.533333	5.15417E-001	-8.87655E-005	0.00000E+000	-4.57512E-005	-5.39641E-002	5.15546E-001	3.57230E+000	9	...........
	40	0.546667	5.09819E-001	-8.89655E-005	0.00000E+000	-4.53563E-005	-5.39641E-002	5.09958E-001	3.57230E+000	9	...........
	41	0.56	5.04270E-001	-8.86405E-005	0.00000E+000	-4.46988E-005	-5.39641E-002	5.04406E-001	3.57230E+000	9	...........
	42	0.573333	4.98782E-001	-8.87457E-005	0.00000E+000	-4.42648E-005	-5.39641E-002	4.98903E-001	3.57230E+000	9	...........
	43	0.586667	4.93331E-001	-8.89301E-005	0.00000E+000	-4.38720E-005	-5.39641E-002	4.93433E-001	3.57230E+000	9	...........
	44	0.6	4.87897E-001	-8.91072E-005	0.00000E+000	-4.34751E-005	-5.39641E-002	4.87995E-001	3.57230E+000	9	...........
	45	0.613333	4.82576E-001	-8.86144E-005	0.00000E+000	-4.27632E-005	-5.39641E-002	4.82623E-001	3.57230E+000	9	...........
	46	0.626667	4.77211E-001	-8.87634E-005	0.00000E+000	-4.23588E-005	-5.39641E-002	4.77275E-001	3.57230E+000	9	...........
	47	0.64	4.71871E-001	-8.89708E-005	0.00000E+000	-4.19827E-005	-5.39641E-002	4.71925E-001	3.57230E+000	9	...........
	48	0.653333	4.66553E-001	-8.88332E-005	0.00000E+000	-4.14454E-005	-5.39641E-002	4.66610E-001	3.57230E+000	9	...........
	49	0.666667	4.61288E-001	-8.89082E-005	0.00000E+000	-4.10123E-005	-5.39641E-002	4.61345E-001	3.57230E+000	9	...........
	50	0.68	4.56036E-001	-8.88447E-005	0.00000E+000	-4.05164E-005	-5.39641E-002	4.56092E-001	3.57230E+000	9	...........
	51	0.693333	4.50801E-001	-8.88301E-005	0.00000E+000	-4.00447E-005	-5.39641E-002	4.50858E-001	3.57230E+000	9	...........
	52	0.706667	4.45567E-001	-8.89385E-005	0.00000E+000	-3.96281E-005	-5.39641E-002	4.45625E-001	3.57230E+000	9	...........
	53	0.72	4.40373E-001	-8.88364E-005	0.00000E+000	-3.91211E-005	-5.39641E-002	4.40432E-001	3.57230E+000	9	...........
	54	0.733333	4.35210E-001	-8.87238E-005	0.00000E+000	-3.86135E-005	-5.39641E-002	4.35262E-001	3.57230E+000	9	...........
	55	0.746667	4.30064E-001	-8.86394E-005	0.00000E+000	-3.81206E-005	-5.39641E-002	4.30119E-001	3.57230E+000	9	...........
	56	0.76	4.24948E-001	-8.89103E-005	0.00000E+000	-3.77822E-005	-5.39641E-002	4.24995E-001	3.57230E+000	9	...........
	57	0.773333	4.19815E-001	-8.88853E-005	0.00000E+000	-3.73154E-005	-5.39641E-002	4.19867E-001	3.57230E+000	9	...........
	58	0.786667	4.14715E-001	-8.86957E-005	0.00000E+000	-3.67835E-005	-5.39641E-002	4.14768E-001	3.57230E+000	9	...........
	59	0.8	4.09653E-001	-8.90468E-005	0.00000E+000	-3.64782E-005	-5.39641E-002	4.09699E-001	3.57230E+000	9	...........
	60	0.813333	4.04603E-001	-8.88478E-005	0.00000E+000	-3.59481E-005	-5.39641E-002	4.04652E-001	3.57230E+000	9	...........
	61	0.826667	3.99572E-001	-8.88666E-005	0.00000E+000	-3.55086E-005	-5.39641E-002	3.99616E-001	3.57230E+000	9	...........
	62	0.84	3.94538E-001	-8.86405E-005	0.00000E+000	-3.49721E-005	-5.39641E-002	3.94585E-001	3.57230E+000	9	...........
	63	0.853333	3.89522E-001	-8.86769E-005	0.00000E+000	-3.45416E-005	-5.39641E-002	3.89570E-001	3.57230E+000	9	...........
	64	0.866667	3.84536E-001	-8.88322E-005	0.00000E+000	-3.41591E-005	-5.39641E-002	3.84579E-001	3.57230E+000	9	...........
	65	0.88	3.79550E-001	-8.86822E-005	0.00000E+000	-3.36593E-005	-5.39641E-002	3.79593E-001	3.57230E+000	9	...........
	66	0.893333	3.74582E-001	-8.87499E-005	0.00000E+000	-3.32441E-005	-5.39641E-002	3.74618E-001	3.57230E+000	9	...........
	67	0.906667	3.69617E-001	-8.89353E-005	0.00000E+000	-3.28720E-005	-5.39641E-002	3.69658E-001	3.57230E+000	9	...........
	68	0.92	3.64654E-001	-8.87707E-005	0.00000E+000	-3.23706E-005	-5.39641E-002	3.64693E-001	3.57230E+000	9	...........
	69	0.933333	3.59687E-001	-8.86269E-005	0.00000E+000	-3.18779E-005	-5.39641E-002	3.59723E-001	3.57230E+000	9	...........
	70	0.946667	3.54745E-001	-8.88561E-005	0.00000E+000	-3.15213E-005	-5.39641E-002	3.54785E-001	3.57230E+000	9	...........
	71	0.96	3.49833E-001	-8.87259E-005	0.00000E+000	-3.10393E-005	-5.39641E-002	3.49871E-001	3.57230E+000	9	...........
	72	0.97333	3.44934E-001	-8.88499E-005	0.00000E+000	-3.06473E-005	-5.39641E-002	3.44978E-001	3.57230E+000	9	...........
	73	0.98667	3.40051E-001	-8.86176E-005	0.00000E+000	-3.01345E-005	-5.39641E-002	3.40090E-001	3.57230E+000	9	...........
	74	1	3.35188E-001	-8.86676E-005	0.00000E+000	-2.97203E-005	-5.39641E-002	3.35225E-001	3.57230E+000	9	...........
	75	1.01333	3.30347E-001	-8.86519E-005	0.00000E+000	-2.92859E-005	-5.39641E-002	3.30389E-001	3.57230E+000	9	...........
	76	1.02667	3.25538E-001	-8.88113E-005	0.00000E+000	-2.89114E-005	-5.39641E-002	3.25575E-001	3.57230E+000	9	...........
	77	1.04	3.20756E-001	-8.84800E-005	0.00000E+000	-2.83805E-005	-5.39641E-002	3.20789E-001	3.57230E+000	9	...........
	78	1.05333	3.16007E-001	-8.86050E-005	0.00000E+000	-2.79999E-005	-5.39641E-002	3.16042E-001	3.57230E+000	9	...........
	79	1.06667	3.11260E-001	-8.90020E-005	0.00000E+000	-2.77027E-005	-5.39641E-002	3.11291E-001	3.57230E+000	9	...........
	80	1.08	3.06533E-001	-8.85957E-005	0.00000E+000	-2.71575E-005	-5.39641E-002	3.06569E-001	3.57230E+000	9	...........
	81	1.09333	3.01814E-001	-8.87530E-005	0.00000E+000	-2.67869E-005	-5.39641E-002	3.01850E-001	3.57230E+000	9	...........
	82	1.10667	2.97105E-001	-8.88218E-005	0.00000E+000	-2.63894E-005	-5.39641E-002	2.97140E-001	3.57230E+000	9	...........
	83	1.12	2.92413E-001	-8.87322E-005	0.00000E+000	-2.59464E-005	-5.39641E-002	2.92443E-001	3.57230E+000	9	...........
	84	1.13333	2.87750E-001	-8.87520E-005	0.00000E+000	-2.55384E-005	-5.39641E-002	2.87785E-001	3.57230E+000	9	...........
	85	1.14667	2.83110E-001	-8.88832E-005	0.00000E+000	-2.51637E-005	-5.39641E-002	2.83145E-001	3.57230E+000	9	...........
	86	1.16	2.78482E-001	-8.86967E-005	0.00000E+000	-2.47004E-005	-5.39641E-002	2.78519E-001	3.57230E+000	9	...........
	87	1.17333	2.73869E-001	-8.85290E-005	0.00000E+000	-2.42454E-005	-5.39641E-002	2.73909E-001	3.57230E+000	9	...........
	88	1.18667	2.69292E-001	-8.86051E-005	0.00000E+000	-2.38606E-005	-5.39641E-002	2.69324E-001	3.57230E+000	9	...........
	89	1.2	2.64721E-001	-8.88322E-005	0.00000E+000	-2.35157E-005	-5.39641E-002	2.64756E-001	3.57230E+000	9	...........
	90	1.21333	2.60162E-001	-8.87582E-005	0.00000E+000	-2.30915E-005	-5.39641E-002	2.60195E-001	3.57230E+000	9	...........
	91	1.22667	2.55614E-001	-8.88874E-005	0.00000E+000	-2.27209E-005	-5.39641E-002	2.55649E-001	3.57230E+000	9	...........
	92	1.24	2.51080E-001	-8.88489E-005	0.00000E+000	-2.23082E-005	-5.39641E-002	2.51111E-001	3.57230E+000	9	...........
	93	1.25333	2.46547E-001	-8.86999E-005	0.00000E+000	-2.18687E-005	-5.39641E-002	2.46567E-001	3.57230E+000	9	...........
	94	1.26667	2.42056E-001	-8.86353E-005	0.00000E+000	-2.14547E-005	-5.39641E-002	2.42082E-001	3.57230E+000	9	...........
	95	1.28	2.37591E-001	-8.87457E-005	0.00000E+000	-2.10852E-005	-5.39641E-002	2.37615E-001	3.57230E+000	9	...........
	96	1.29333	2.33142E-001	-8.90374E-005	0.00000E+000	-2.07584E-005	-5.39641E-002	2.33168E-001	3.57230E+000	9	...........
	97	1.30667	2.28735E-001	-8.86988E-005	0.00000E+000	-2.02885E-005	-5.39641E-002	2.28761E-001	3.57230E+000	9	...........
	98	1.32	2.24352E-001	-8.85655E-005	0.00000E+000	-1.98698E-005	-5.39641E-002	2.24379E-001	3.57230E+000	9	...........
	99	1.33333	2.20011E-001	-8.88603E-005	0.00000E+000	-1.95503E-005	-5.39641E-002	2.20041E-001	3.57230E+000	9	...........
	100	1.34667	2.15687E-001	-8.87457E-005	0.00000E+000	-1.91413E-005	-5.39641E-002	2.15712E-001	3.57230E+000	9	...........
	101	1.36	2.11354E-001	-8.88739E-005	0.00000E+000	-1.87839E-005	-5.39641E-002	2.11376E-001	3.57230E+000	9	...........
	102	1.37333	2.07031E-001	-8.86999E-005	0.00000E+000	-1.83636E-005	-5.39641E-002	2.07054E-001	3.57230E+000	9	...........
	103	1.38667	2.02743E-001	-8.89187E-005	0.00000E+000	-1.80277E-005	-5.39641E-002	2.02772E-001	3.57230E+000	9	...........
	104	1.4	1.98489E-001	-8.86499E-005	0.00000E+000	-1.75960E-005	-5.39641E-002	1.98514E-001	3.57230E+000	9	...........
	105	1.41333	1.94244E-001	-8.85571E-005	0.00000E+000	-1.72017E-005	-5.39641E-002	1.94266E-001	3.57230E+000	9	...........
	106	1.42667	1.90010E-001	-8.88572E-005	0.00000E+000	-1.68837E-005	-5.39641E-002	1.90030E-001	3.57230E+000	9	...........
	107	1.44	1.85801E-001	-8.88124E-005	0.00000E+000	-1.65014E-005	-5.39641E-002	1.85819E-001	3.57230E+000	9	...........
	108	1.45333	1.81611E-001	-8.86551E-005	0.00000E+000	-1.61007E-005	-5.39641E-002	1.81633E-001	3.57230E+000	9	...........
	109	1.46667	1.77433E-001	-8.87374E-005	0.00000E+000	-1.57449E-005	-5.39641E-002	1.77453E-001	3.57230E+000	9	...........
	110	1.48	1.73273E-001	-8.88707E-005	0.00000E+000	-1.53989E-005	-5.39641E-002	1.73290E-001	3.57230E+000	9	...........
	111	1.49333	1.69126E-001	-8.86165E-005	0.00000E+000	-1.49873E-005	-5.39641E-002	1.69143E-001	3.57230E+000	9	...........
	112	1.50667	1.64995E-001	-8.87780E-005	0.00000E+000	-1.46480E-005	-5.39641E-002	1.65010E-001	3.57230E+000	9	...........
	113	1.52	1.60875E-001	-8.90364E-005	0.00000E+000	-1.43237E-005	-5.39641E-002	1.60888E-001	3.57230E+000	9	...........
	114	1.53333	1.56751E-001	-8.88780E-005	0.00000E+000	-1.39318E-005	-5.39641E-002	1.56766E-001	3.57230E+000	9	...........
	115	1.54667	1.52652E-001	-8.87467E-005	0.00000E+000	-1.35474E-005	-5.39641E-002	1.52663E-001	3.57230E+000	9	...........
	116	1.56	1.48565E-001	-8.88082E-005	0.00000E+000	-1.31938E-005	-5.39641E-002	1.48577E-001	3.57230E+000	9	...........
	117	1.57333	1.44508E-001	-8.84415E-005	0.00000E+000	-1.27805E-005	-5.39641E-002	1.44518E-001	3.57230E+000	9	...........
	118	1.58667	1.40467E-001	-8.89905E-005	0.00000E+000	-1.25002E-005	-5.39641E-002	1.40480E-001	3.57230E+000	9	...........
	119	1.6	1.36434E-001	-8.87447E-005	0.00000E+000	-1.21078E-005	-5.39641E-002	1.36447E-001	3.57230E+000	9	...........
	120	1.61333	1.32438E-001	-8.86978E-005	0.00000E+000	-1.17470E-005	-5.39641E-002	1.32448E-001	3.57230E+000	9	...........
	121	1.62667	1.28463E-001	-8.86457E-005	0.00000E+000	-1.13877E-005	-5.39641E-002	1.28466E-001	3.57230E+000	9	...........
	122	1.64	1.24481E-001	-8.87249E-005	0.00000E+000	-1.10445E-005	-5.39641E-002	1.24489E-001	3.57230E+000	9	...........
	123	1.65333	1.20523E-001	-8.86519E-005	0.00000E+000	-1.06846E-005	-5.39641E-002	1.20538E-001	3.57230E+000	9	...........
	124	1.66667	1.16585E-001	-8.87624E-005	0.00000E+000	-1.03484E-005	-5.39641E-002	1.16596E-001	3.57230E+000	9	...........
	125	1.68	1.12650E-001	-8.90197E-005	0.00000E+000	-1.00281E-005	-5.39641E-002	1.12655E-001	3.57230E+000	9	...........
	126	1.69333	1.08750E-001	-8.89260E-005	0.00000E+000	-9.67071E-006	-5.39641E-002	1.08764E-001	3.57230E+000	9	...........
	127	1.70667	1.04877E-001	-8.87718E-005	0.00000E+000	-9.31012E-006	-5.39641E-002	1.04883E-001	3.57230E+000	9	...........
	128	1.72	1.01013E-001	-8.88218E-005	0.00000E+000	-8.97214E-006	-5.39641E-002	1.01028E-001	3.57230E+000	9	...........
	129	1.73333	9.71607E-002	-8.89395E-005	0.00000E+000	-8.64142E-006	-5.39641E-002	9.71750E-002	3.57230E+000	9	...........
	130	1.74667	9.33262E-002	-8.88895E-005	0.00000E+000	-8.29572E-006	-5.39641E-002	9.33315E-002	3.57230E+000	9	...........
	131	1.76	8.95119E-002	-8.86217E-005	0.00000E+000	-7.93270E-006	-5.39641E-002	8.95222E-002	3.57230E+000	9	...........
	132	1.77333	8.57172E-002	-8.85978E-005	0.00000E+000	-7.59435E-006	-5.39641E-002	8.57237E-002	3.57230E+000	9	...........
	133	1.78667	8.19313E-002	-8.86967E-005	0.00000E+000	-7.26704E-006	-5.39641E-002	8.19320E-002	3.57230E+000	9	...........
	134	1.8	7.81524E-002	-8.89218E-005	0.00000E+000	-6.94945E-006	-5.39641E-002	7.81559E-002	3.57230E+000	9	...........
	135	1.81333	7.43928E-002	-8.87447E-005	0.00000E+000	-6.60197E-006	-5.39641E-002	7.43935E-002	3.57230E+000	9	...........
	136	1.82667	7.06528E-002	-8.90010E-005	0.00000E+000	-6.28817E-006	-5.39641E-002	7.06535E-002	3.57230E+000	9	...........
	137	1.84	6.69376E-002	-8.85946E-005	0.00000E+000	-5.93031E-006	-5.39641E-002	6.69345E-002	3.57230E+000	9	...........
	138	1.85333	6.32169E-002	-8.87259E-005	0.00000E+000	-5.60898E-006	-5.39641E-002	6.32161E-002	3.57230E+000	9	...........
	139	1.86667	5.95239E-002	-8.89041E-005	0.00000E+000	-5.29192E-006	-5.39641E-002	5.95303E-002	3.57230E+000	9	...........
	140	1.88	5.58590E-002	-8.86988E-005	0.00000E+000	-4.95462E-006	-5.39641E-002	5.58560E-002	3.57230E+000	9	...........
	141	1.89333	5.21899E-002	-8.86384E-005	0.00000E+000	-4.62603E-006	-5.39641E-002	5.21854E-002	3.57230E+000	9	...........
	142	1.90667	4.85342E-002	-8.86571E-005	0.00000E+000	-4.30290E-006	-5.39641E-002	4.85365E-002	3.57230E+000	9	...........
	143	1.92	4.48933E-002	-8.88207E-005	0.00000E+000	-3.98746E-006	-5.39641E-002	4.49023E-002	3.57230E+000	9	...........
	144	1.93333	4.12687E-002	-8.85853E-005	0.00000E+000	-3.65580E-006	-5.39641E-002	4.12755E-002	3.57230E+000	9	...........
	145	1.94667	3.76577E-002	-8.88582E-005	0.00000E+000	-3.34620E-006	-5.39641E-002	3.76657E-002	3.57230E+000	9	...........
	146	1.96	3.40706E-002	-8.90041E-005	0.00000E+000	-3.03242E-006	-5.39641E-002	3.40756E-002	3.57230E+000	9	...........
	147	1.97333	3.05029E-002	-8.88416E-005	0.00000E+000	-2.70992E-006	-5.39641E-002	3.05010E-002	3.57230E+000	9	...........
	148	1.98667	2.69499E-002	-8.87478E-005	0.00000E+000	-2.39174E-006	-5.39641E-002	2.69493E-002	3.57230E+000	9	...........
	149	2	2.34215E-002	-8.88739E-005	0.00000E+000	-2.08155E-006	-5.39641E-002	2.34154E-002	3.57230E+000	9	...........
	150	2.01333	1.99015E-002	-8.85592E-005	0.00000E+000	-1.76246E-006	-5.39641E-002	1.98969E-002	3.57230E+000	9	...........
	151	2.02667	1.63970E-002	-8.86874E-005	0.00000E+000	-1.45421E-006	-5.39641E-002	1.63867E-002	3.57260E+000	9	...........
	152	2.04	1.28873E-002	-8.86978E-005	0.00000E+000	-1.14308E-006	-5.39641E-002	1.28813E-002	3.57270E+000	9	...........
	153	2.05333	9.38621E-003	-8.89437E-005	0.00000E+000	-8.34844E-007	-5.39641E-002	9.37924E-003	3.57270E+000	9	...........
	154	2.06667	5.90296E-003	-8.88072E-005	0.00000E+000	-5.24225E-007	-5.39641E-002	5.89467E-003	3.57270E+000	9	...........
	155	2.08	2.43937E-003	-8.87394E-005	0.00000E+000	-2.16468E-007	-5.39641E-002	2.42783E-003	3.57270E+000	9	...........
	156	2.085	7.44477E-005	-8.88527E-005	0.00000E+000	-6.61487E-009	-5.39641E-002	5.58671E-005	3.57270E+000	9	...........
STARTTIMEOFFSET	QUANT	1532.906	Start Time Offset (s)
