EXPLAIN
TAG	PWR800_DISCHARGE
TITLE	LABEL	PWR Cyclic Charge Discharge (Cell) - Discharge Step	Test &Identifier
DATE	LABEL	10-7-2017	Date
TIME	LABEL	15:31:35	Time
NOTES	NOTES	3	&Notes...
	supercap test cell
	0.9mg
	6M KOH
PSTAT	PSTAT	IFC5000-01520	Potentiostat
CAPACITY	QUANT	1.00000E-003	Capacity (A-hr)
CELLTYPE	SELECTOR	1	&Cell Type
WORKINGCONNECTION	SELECTOR	0	&Working Lead
MAXDISCHARGETIME	VARIABLEANDUNITS	1.00000E+002	s	1.00000E+002	second(s)	Max &Discharge Time
DISCHARGEMODE	MULTIPARAM	0	9.00000E-005	&Discharge Mode	Constant Current	Amp(s)
SAMPLETIME	QUANT	1.00000E-002	Sa&mple Period (s)
DISCHARGESTOPAT1	MULTIPARAM	3	0.00000E+000	Discharge Stop At &1	Voltage < Limit	V
DISCHARGESTOPAT2	MULTIPARAM	0	0.00000E+000	Discharge Stop At &2	None	N/A
AESBHCSELECTOR	TOGGLE	F	Save Both Half Cells
IRCOMP	TOGGLE	F	IR &Measure
EOC	QUANT	0	Open Circuit (V)
SEQUENCER	TOGGLE	TRUE	Run as Sequence
PSTATMODEL	IQUANT	53	Pstat Model
PSTATSECTION	LABEL	IFC5000-01520	Pstat Section
PSTATSERIALNO	LABEL	01520	Pstat Serial Number
CTRLMODE	IQUANT	0	Control Mode
ELECTROMETER	IQUANT	1	RE=0 or CS=1
IESTAB	IQUANT	0	I/E Stability
CASPEED	IQUANT	4	Control Amp Speed
CONVENTION	IQUANT	1	Current Convention
ICHRANGE	IQUANT	2	Ich Range
ICHRANGEMODE	TOGGLE	T	Ich Auto Range
ICHOFFSETENABLE	TOGGLE	F	Ich Offset Enable
ICHOFFSET	QUANT	0	Ich Offset (V)
ICHFILTER	IQUANT	1	Ich Filter
VCHRANGE	IQUANT	2	Vch Range
VCHRANGEMODE	TOGGLE	T	Vch Auto Range
VCHOFFSETENABLE	TOGGLE	F	Vch Offset Enable
VCHOFFSET	QUANT	0	Vch Offset (V)
VCHFILTER	IQUANT	1	Vch Filter
IERANGELOWERLIMIT	IQUANT	9	I/E Range Lower Limit
IERANGEMODE	TOGGLE	F	I/E AutoRange
IERANGE	IQUANT	9	I/E Range
ACHSELECT	IQUANT	1	Ach Select
ACHRANGE	IQUANT	2	Ach Range
ACHOFFSETENABLE	TOGGLE	F	Ach Offset Enable
ACHOFFSET	QUANT	0	Ach Offset (V)
ACHFILTER	IQUANT	1	Ach Filter
CABLEID	IQUANT	14	Cable ID
DCCALDATE	LABEL	5-7-2017	DC Calibration Date
ACCALDATE	LABEL	12/3/2015	AC Calibration Date
FRAMEWORKVERSION	QUANT	7.01	Framework Version
INSTRUMENTVERSION	LABEL	4.00	Instrument Version
CURVE	TABLE	155
	Pt	T	Vf	Im	Vu	Pwr	Sig	Ach	Temp	IERange	Over
	#	s	V	A	V	W	V	V	deg C	#	bits
	0	0.013333	8.14760E-001	-8.87134E-005	0.00000E+000	-7.22801E-005	-5.39641E-002	8.14883E-001	3.57230E+000	9	...........
	1	0.026667	8.01614E-001	-8.87134E-005	0.00000E+000	-7.11139E-005	-5.39641E-002	8.01727E-001	3.57230E+000	9	...........
	2	0.04	7.89341E-001	-8.84915E-005	0.00000E+000	-6.98499E-005	-5.39641E-002	7.89435E-001	3.57230E+000	9	...........
	3	0.053333	7.77715E-001	-8.86905E-005	0.00000E+000	-6.89759E-005	-5.39641E-002	7.77825E-001	3.57230E+000	9	...........
	4	0.066667	7.66639E-001	-8.88270E-005	0.00000E+000	-6.80982E-005	-5.39641E-002	7.66774E-001	3.57230E+000	9	...........
	5	0.08	7.56015E-001	-8.89134E-005	0.00000E+000	-6.72199E-005	-5.39641E-002	7.56141E-001	3.57230E+000	9	...........
	6	0.093333	7.45847E-001	-8.87113E-005	0.00000E+000	-6.61651E-005	-5.39641E-002	7.45935E-001	3.57230E+000	9	...........
	7	0.106667	7.35981E-001	-8.87040E-005	0.00000E+000	-6.52845E-005	-5.39641E-002	7.36089E-001	3.57230E+000	9	...........
	8	0.12	7.26519E-001	-8.85457E-005	0.00000E+000	-6.43301E-005	-5.39641E-002	7.26635E-001	3.57230E+000	9	...........
	9	0.133333	7.17315E-001	-8.89176E-005	0.00000E+000	-6.37820E-005	-5.39641E-002	7.17439E-001	3.57234E+000	9	...........
	10	0.146667	7.08372E-001	-8.86832E-005	0.00000E+000	-6.28207E-005	-5.39641E-002	7.08506E-001	3.57240E+000	9	...........
	11	0.16	6.99677E-001	-8.88332E-005	0.00000E+000	-6.21546E-005	-5.39641E-002	6.99798E-001	3.57240E+000	9	...........
	12	0.173333	6.91213E-001	-8.89030E-005	0.00000E+000	-6.14509E-005	-5.39641E-002	6.91307E-001	3.57240E+000	9	...........
	13	0.186667	6.82925E-001	-8.86446E-005	0.00000E+000	-6.05377E-005	-5.39641E-002	6.83047E-001	3.57240E+000	9	...........
	14	0.2	6.74875E-001	-8.86499E-005	0.00000E+000	-5.98275E-005	-5.39641E-002	6.74990E-001	3.57240E+000	9	...........
	15	0.213333	6.66992E-001	-8.88166E-005	0.00000E+000	-5.92399E-005	-5.39641E-002	6.67093E-001	3.57240E+000	9	...........
	16	0.226667	6.59253E-001	-8.88291E-005	0.00000E+000	-5.85608E-005	-5.39641E-002	6.59367E-001	3.57240E+000	9	...........
	17	0.24	6.51714E-001	-8.88978E-005	0.00000E+000	-5.79359E-005	-5.39641E-002	6.51828E-001	3.57240E+000	9	...........
	18	0.253333	6.44312E-001	-8.89187E-005	0.00000E+000	-5.72914E-005	-5.39641E-002	6.44434E-001	3.57240E+000	9	...........
	19	0.266667	6.37008E-001	-8.87176E-005	0.00000E+000	-5.65138E-005	-5.39641E-002	6.37132E-001	3.57240E+000	9	...........
	20	0.28	6.29887E-001	-8.85613E-005	0.00000E+000	-5.57836E-005	-5.39641E-002	6.30011E-001	3.57240E+000	9	...........
	21	0.293333	6.22897E-001	-8.87134E-005	0.00000E+000	-5.52593E-005	-5.39641E-002	6.22999E-001	3.57240E+000	9	...........
	22	0.306667	6.16003E-001	-8.88884E-005	0.00000E+000	-5.47555E-005	-5.39641E-002	6.16134E-001	3.57240E+000	9	...........
	23	0.32	6.09157E-001	-8.86373E-005	0.00000E+000	-5.39940E-005	-5.39641E-002	6.09317E-001	3.57240E+000	9	...........
	24	0.333333	6.02495E-001	-8.87186E-005	0.00000E+000	-5.34526E-005	-5.39641E-002	6.02651E-001	3.57240E+000	9	...........
	25	0.346667	5.95944E-001	-8.86915E-005	0.00000E+000	-5.28552E-005	-5.39641E-002	5.96082E-001	3.57240E+000	9	...........
	26	0.36	5.89479E-001	-8.85894E-005	0.00000E+000	-5.22216E-005	-5.39641E-002	5.89598E-001	3.57240E+000	9	...........
	27	0.373333	5.83046E-001	-8.86749E-005	0.00000E+000	-5.17015E-005	-5.39641E-002	5.83168E-001	3.57240E+000	9	...........
	28	0.386667	5.76752E-001	-8.89635E-005	0.00000E+000	-5.13099E-005	-5.39641E-002	5.76880E-001	3.57240E+000	9	...........
	29	0.4	5.70545E-001	-8.89082E-005	0.00000E+000	-5.07261E-005	-5.39641E-002	5.70657E-001	3.57240E+000	9	...........
	30	0.413333	5.64369E-001	-8.86707E-005	0.00000E+000	-5.00430E-005	-5.39641E-002	5.64479E-001	3.57240E+000	9	...........
	31	0.426667	5.58241E-001	-8.87332E-005	0.00000E+000	-4.95346E-005	-5.39641E-002	5.58341E-001	3.57240E+000	9	...........
	32	0.44	5.52217E-001	-8.87280E-005	0.00000E+000	-4.89971E-005	-5.39641E-002	5.52329E-001	3.57240E+000	9	...........
	33	0.453333	5.46246E-001	-8.88811E-005	0.00000E+000	-4.85510E-005	-5.39641E-002	5.46357E-001	3.57240E+000	9	...........
	34	0.466667	5.40344E-001	-8.87478E-005	0.00000E+000	-4.79543E-005	-5.39641E-002	5.40466E-001	3.57240E+000	9	...........
	35	0.48	5.34474E-001	-8.87530E-005	0.00000E+000	-4.74362E-005	-5.39641E-002	5.34592E-001	3.57240E+000	9	...........
	36	0.493333	5.28693E-001	-8.85509E-005	0.00000E+000	-4.68162E-005	-5.39641E-002	5.28815E-001	3.57240E+000	9	...........
	37	0.506667	5.22943E-001	-8.88822E-005	0.00000E+000	-4.64804E-005	-5.39641E-002	5.23036E-001	3.57240E+000	9	...........
	38	0.52	5.17229E-001	-8.87228E-005	0.00000E+000	-4.58900E-005	-5.39641E-002	5.17340E-001	3.57240E+000	9	...........
	39	0.533333	5.11567E-001	-8.85634E-005	0.00000E+000	-4.53061E-005	-5.39641E-002	5.11665E-001	3.57240E+000	9	...........
	40	0.546667	5.05888E-001	-8.89218E-005	0.00000E+000	-4.49845E-005	-5.39641E-002	5.06024E-001	3.57240E+000	9	...........
	41	0.56	5.00306E-001	-8.86040E-005	0.00000E+000	-4.43291E-005	-5.39641E-002	5.00403E-001	3.57240E+000	9	...........
	42	0.573333	4.94768E-001	-8.87030E-005	0.00000E+000	-4.38874E-005	-5.39641E-002	4.94858E-001	3.57240E+000	9	...........
	43	0.586667	4.89272E-001	-8.86259E-005	0.00000E+000	-4.33622E-005	-5.39641E-002	4.89354E-001	3.57240E+000	9	...........
	44	0.6	4.83893E-001	-8.86457E-005	0.00000E+000	-4.28950E-005	-5.39641E-002	4.83939E-001	3.57240E+000	9	...........
	45	0.613333	4.78476E-001	-8.89437E-005	0.00000E+000	-4.25574E-005	-5.39641E-002	4.78535E-001	3.57240E+000	9	...........
	46	0.626667	4.73069E-001	-8.85800E-005	0.00000E+000	-4.19045E-005	-5.39641E-002	4.73127E-001	3.57240E+000	9	...........
	47	0.64	4.67697E-001	-8.87968E-005	0.00000E+000	-4.15300E-005	-5.39641E-002	4.67756E-001	3.57240E+000	9	...........
	48	0.653333	4.62351E-001	-8.86978E-005	0.00000E+000	-4.10095E-005	-5.39641E-002	4.62412E-001	3.57240E+000	9	...........
	49	0.666667	4.57030E-001	-8.86332E-005	0.00000E+000	-4.05080E-005	-5.39641E-002	4.57091E-001	3.57240E+000	9	...........
	50	0.68	4.51739E-001	-8.85905E-005	0.00000E+000	-4.00198E-005	-5.39641E-002	4.51799E-001	3.57240E+000	9	...........
	51	0.693333	4.46486E-001	-8.85863E-005	0.00000E+000	-3.95526E-005	-5.39641E-002	4.46548E-001	3.57240E+000	9	...........
	52	0.706667	4.41253E-001	-8.88353E-005	0.00000E+000	-3.91989E-005	-5.39641E-002	4.41304E-001	3.57240E+000	9	...........
	53	0.72	4.36040E-001	-8.88436E-005	0.00000E+000	-3.87394E-005	-5.39641E-002	4.36090E-001	3.57240E+000	9	...........
	54	0.733333	4.30839E-001	-8.87384E-005	0.00000E+000	-3.82320E-005	-5.39641E-002	4.30891E-001	3.57240E+000	9	...........
	55	0.746667	4.25645E-001	-8.87103E-005	0.00000E+000	-3.77591E-005	-5.39641E-002	4.25693E-001	3.57240E+000	9	...........
	56	0.76	4.20473E-001	-8.85675E-005	0.00000E+000	-3.72403E-005	-5.39641E-002	4.20527E-001	3.57240E+000	9	...........
	57	0.773333	4.15322E-001	-8.86926E-005	0.00000E+000	-3.68360E-005	-5.39641E-002	4.15377E-001	3.57240E+000	9	...........
	58	0.786667	4.10208E-001	-8.89718E-005	0.00000E+000	-3.64969E-005	-5.39641E-002	4.10256E-001	3.57240E+000	9	...........
	59	0.8	4.05116E-001	-8.86519E-005	0.00000E+000	-3.59144E-005	-5.39641E-002	4.05160E-001	3.57240E+000	9	...........
	60	0.813333	4.00025E-001	-8.86915E-005	0.00000E+000	-3.54789E-005	-5.39641E-002	4.00070E-001	3.57240E+000	9	...........
	61	0.826667	3.94960E-001	-8.86863E-005	0.00000E+000	-3.50276E-005	-5.39641E-002	3.95002E-001	3.57240E+000	9	...........
	62	0.84	3.89904E-001	-8.86103E-005	0.00000E+000	-3.45495E-005	-5.39641E-002	3.89941E-001	3.57240E+000	9	...........
	63	0.853333	3.84858E-001	-8.91062E-005	0.00000E+000	-3.42932E-005	-5.39641E-002	3.84903E-001	3.57240E+000	9	...........
	64	0.866667	3.79835E-001	-8.87488E-005	0.00000E+000	-3.37099E-005	-5.39641E-002	3.79877E-001	3.57240E+000	9	...........
	65	0.88	3.74824E-001	-8.87322E-005	0.00000E+000	-3.32590E-005	-5.39641E-002	3.74869E-001	3.57240E+000	9	...........
	66	0.893333	3.69835E-001	-8.86967E-005	0.00000E+000	-3.28032E-005	-5.39641E-002	3.69879E-001	3.57240E+000	9	...........
	67	0.906667	3.64858E-001	-8.88697E-005	0.00000E+000	-3.24248E-005	-5.39641E-002	3.64905E-001	3.57240E+000	9	...........
	68	0.92	3.59879E-001	-8.88176E-005	0.00000E+000	-3.19636E-005	-5.39641E-002	3.59928E-001	3.57240E+000	9	...........
	69	0.933333	3.54946E-001	-8.87144E-005	0.00000E+000	-3.14888E-005	-5.39641E-002	3.54992E-001	3.57240E+000	9	...........
	70	0.946667	3.50024E-001	-8.87488E-005	0.00000E+000	-3.10643E-005	-5.39641E-002	3.50064E-001	3.57240E+000	9	...........
	71	0.96	3.45124E-001	-8.90041E-005	0.00000E+000	-3.07175E-005	-5.39641E-002	3.45166E-001	3.57240E+000	9	...........
	72	0.97333	3.40248E-001	-8.87738E-005	0.00000E+000	-3.02051E-005	-5.39641E-002	3.40293E-001	3.57240E+000	9	...........
	73	0.98667	3.35389E-001	-8.89676E-005	0.00000E+000	-2.98388E-005	-5.39641E-002	3.35436E-001	3.57240E+000	9	...........
	74	1	3.30536E-001	-8.86446E-005	0.00000E+000	-2.93003E-005	-5.39641E-002	3.30576E-001	3.57240E+000	9	...........
	75	1.01333	3.25695E-001	-8.85290E-005	0.00000E+000	-2.88334E-005	-5.39641E-002	3.25734E-001	3.57240E+000	9	...........
	76	1.02667	3.20862E-001	-8.86196E-005	0.00000E+000	-2.84347E-005	-5.39641E-002	3.20904E-001	3.57240E+000	9	...........
	77	1.04	3.16062E-001	-8.84519E-005	0.00000E+000	-2.79563E-005	-5.39641E-002	3.16098E-001	3.57240E+000	9	...........
	78	1.05333	3.11261E-001	-8.88134E-005	0.00000E+000	-2.76442E-005	-5.39641E-002	3.11293E-001	3.57240E+000	9	...........
	79	1.06667	3.06489E-001	-8.86769E-005	0.00000E+000	-2.71785E-005	-5.39641E-002	3.06519E-001	3.57240E+000	9	...........
	80	1.08	3.01730E-001	-8.87655E-005	0.00000E+000	-2.67832E-005	-5.39641E-002	3.01765E-001	3.57240E+000	9	...........
	81	1.09333	2.96983E-001	-8.88468E-005	0.00000E+000	-2.63860E-005	-5.39641E-002	2.97020E-001	3.57240E+000	9	...........
	82	1.10667	2.92253E-001	-8.86832E-005	0.00000E+000	-2.59179E-005	-5.39641E-002	2.92286E-001	3.57240E+000	9	...........
	83	1.12	2.87553E-001	-8.89520E-005	0.00000E+000	-2.55784E-005	-5.39641E-002	2.87581E-001	3.57240E+000	9	...........
	84	1.13333	2.82862E-001	-8.91823E-005	0.00000E+000	-2.52263E-005	-5.39641E-002	2.82893E-001	3.57240E+000	9	...........
	85	1.14667	2.78191E-001	-8.89385E-005	0.00000E+000	-2.47419E-005	-5.39641E-002	2.78225E-001	3.57240E+000	9	...........
	86	1.16	2.73541E-001	-8.87603E-005	0.00000E+000	-2.42795E-005	-5.39641E-002	2.73578E-001	3.57240E+000	9	...........
	87	1.17333	2.68913E-001	-8.88134E-005	0.00000E+000	-2.38831E-005	-5.39641E-002	2.68948E-001	3.57240E+000	9	...........
	88	1.18667	2.64299E-001	-8.87384E-005	0.00000E+000	-2.34535E-005	-5.39641E-002	2.64339E-001	3.57240E+000	9	...........
	89	1.2	2.59697E-001	-8.88301E-005	0.00000E+000	-2.30689E-005	-5.39641E-002	2.59730E-001	3.57240E+000	9	...........
	90	1.21333	2.55121E-001	-8.88614E-005	0.00000E+000	-2.26704E-005	-5.39641E-002	2.55153E-001	3.57240E+000	9	...........
	91	1.22667	2.50561E-001	-8.85321E-005	0.00000E+000	-2.21827E-005	-5.39641E-002	2.50596E-001	3.57240E+000	9	...........
	92	1.24	2.46027E-001	-8.88728E-005	0.00000E+000	-2.18651E-005	-5.39641E-002	2.46058E-001	3.57240E+000	9	...........
	93	1.25333	2.41513E-001	-8.87520E-005	0.00000E+000	-2.14348E-005	-5.39641E-002	2.41545E-001	3.57240E+000	9	...........
	94	1.26667	2.37023E-001	-8.87655E-005	0.00000E+000	-2.10394E-005	-5.39641E-002	2.37054E-001	3.57240E+000	9	...........
	95	1.28	2.32546E-001	-8.88530E-005	0.00000E+000	-2.06624E-005	-5.39641E-002	2.32570E-001	3.57240E+000	9	...........
	96	1.29333	2.28078E-001	-8.88614E-005	0.00000E+000	-2.02673E-005	-5.39641E-002	2.28101E-001	3.57240E+000	9	...........
	97	1.30667	2.23619E-001	-8.87488E-005	0.00000E+000	-1.98459E-005	-5.39641E-002	2.23652E-001	3.57240E+000	9	...........
	98	1.32	2.19206E-001	-8.87415E-005	0.00000E+000	-1.94527E-005	-5.39641E-002	2.19235E-001	3.57240E+000	9	...........
	99	1.33333	2.14819E-001	-8.88061E-005	0.00000E+000	-1.90773E-005	-5.39641E-002	2.14846E-001	3.57240E+000	9	...........
	100	1.34667	2.10437E-001	-8.90166E-005	0.00000E+000	-1.87324E-005	-5.39641E-002	2.10456E-001	3.57240E+000	9	...........
	101	1.36	2.06060E-001	-8.87082E-005	0.00000E+000	-1.82792E-005	-5.39641E-002	2.06084E-001	3.57240E+000	9	...........
	102	1.37333	2.01728E-001	-8.88030E-005	0.00000E+000	-1.79141E-005	-5.39641E-002	2.01752E-001	3.57240E+000	9	...........
	103	1.38667	1.97422E-001	-8.88228E-005	0.00000E+000	-1.75356E-005	-5.39641E-002	1.97437E-001	3.57240E+000	9	...........
	104	1.4	1.93130E-001	-8.88020E-005	0.00000E+000	-1.71503E-005	-5.39641E-002	1.93153E-001	3.57240E+000	9	...........
	105	1.41333	1.88851E-001	-8.87592E-005	0.00000E+000	-1.67622E-005	-5.39641E-002	1.88872E-001	3.57240E+000	9	...........
	106	1.42667	1.84597E-001	-8.89124E-005	0.00000E+000	-1.64129E-005	-5.39641E-002	1.84619E-001	3.57240E+000	9	...........
	107	1.44	1.80361E-001	-8.85582E-005	0.00000E+000	-1.59724E-005	-5.39641E-002	1.80383E-001	3.57240E+000	9	...........
	108	1.45333	1.76144E-001	-8.88311E-005	0.00000E+000	-1.56471E-005	-5.39641E-002	1.76164E-001	3.57240E+000	9	...........
	109	1.46667	1.71956E-001	-8.86144E-005	0.00000E+000	-1.52378E-005	-5.39641E-002	1.71975E-001	3.57240E+000	9	...........
	110	1.48	1.67778E-001	-8.89103E-005	0.00000E+000	-1.49172E-005	-5.39641E-002	1.67797E-001	3.57240E+000	9	...........
	111	1.49333	1.63621E-001	-8.88238E-005	0.00000E+000	-1.45335E-005	-5.39641E-002	1.63632E-001	3.57240E+000	9	...........
	112	1.50667	1.59469E-001	-8.88009E-005	0.00000E+000	-1.41610E-005	-5.39641E-002	1.59484E-001	3.57240E+000	9	...........
	113	1.52	1.55338E-001	-8.87051E-005	0.00000E+000	-1.37793E-005	-5.39641E-002	1.55346E-001	3.57240E+000	9	...........
	114	1.53333	1.51206E-001	-8.84831E-005	0.00000E+000	-1.33792E-005	-5.39641E-002	1.51225E-001	3.57240E+000	9	...........
	115	1.54667	1.47101E-001	-8.89009E-005	0.00000E+000	-1.30774E-005	-5.39641E-002	1.47116E-001	3.57240E+000	9	...........
	116	1.56	1.43026E-001	-8.85561E-005	0.00000E+000	-1.26658E-005	-5.39641E-002	1.43034E-001	3.57240E+000	9	...........
	117	1.57333	1.38961E-001	-8.88916E-005	0.00000E+000	-1.23524E-005	-5.39641E-002	1.38974E-001	3.57240E+000	9	...........
	118	1.58667	1.34919E-001	-8.86050E-005	0.00000E+000	-1.19545E-005	-5.39641E-002	1.34930E-001	3.57240E+000	9	...........
	119	1.6	1.30908E-001	-8.88364E-005	0.00000E+000	-1.16294E-005	-5.39641E-002	1.30919E-001	3.57240E+000	9	...........
	120	1.61333	1.26909E-001	-8.86894E-005	0.00000E+000	-1.12555E-005	-5.39641E-002	1.26924E-001	3.57240E+000	9	...........
	121	1.62667	1.22918E-001	-8.88364E-005	0.00000E+000	-1.09196E-005	-5.39641E-002	1.22933E-001	3.57240E+000	9	...........
	122	1.64	1.18942E-001	-8.89176E-005	0.00000E+000	-1.05761E-005	-5.39641E-002	1.18954E-001	3.57240E+000	9	...........
	123	1.65333	1.14981E-001	-8.88593E-005	0.00000E+000	-1.02171E-005	-5.39641E-002	1.14992E-001	3.57240E+000	9	...........
	124	1.66667	1.11029E-001	-8.84717E-005	0.00000E+000	-9.82290E-006	-5.39641E-002	1.11045E-001	3.57240E+000	9	...........
	125	1.68	1.07099E-001	-8.87374E-005	0.00000E+000	-9.50369E-006	-5.39641E-002	1.07114E-001	3.57240E+000	9	...........
	126	1.69333	1.03184E-001	-8.88322E-005	0.00000E+000	-9.16605E-006	-5.39641E-002	1.03197E-001	3.57240E+000	9	...........
	127	1.70667	9.93003E-002	-8.85925E-005	0.00000E+000	-8.79726E-006	-5.39641E-002	9.93166E-002	3.57240E+000	9	...........
	128	1.72	9.54223E-002	-8.87738E-005	0.00000E+000	-8.47100E-006	-5.39641E-002	9.54321E-002	3.57240E+000	9	...........
	129	1.73333	9.15645E-002	-8.84769E-005	0.00000E+000	-8.10134E-006	-5.39641E-002	9.15746E-002	3.57240E+000	9	...........
	130	1.74667	8.77232E-002	-8.86374E-005	0.00000E+000	-7.77555E-006	-5.39641E-002	8.77325E-002	3.57240E+000	9	...........
	131	1.76	8.39022E-002	-8.87082E-005	0.00000E+000	-7.44282E-006	-5.39641E-002	8.39116E-002	3.57240E+000	9	...........
	132	1.77333	8.00918E-002	-8.87144E-005	0.00000E+000	-7.10530E-006	-5.39641E-002	8.00965E-002	3.57240E+000	9	...........
	133	1.78667	7.62901E-002	-8.84634E-005	0.00000E+000	-6.74888E-006	-5.39641E-002	7.62974E-002	3.57240E+000	9	...........
	134	1.8	7.25121E-002	-8.89572E-005	0.00000E+000	-6.45047E-006	-5.39641E-002	7.25173E-002	3.57240E+000	9	...........
	135	1.81333	6.87324E-002	-8.87749E-005	0.00000E+000	-6.10171E-006	-5.39641E-002	6.87329E-002	3.57240E+000	9	...........
	136	1.82667	6.49553E-002	-8.89457E-005	0.00000E+000	-5.77750E-006	-5.39641E-002	6.49565E-002	3.57240E+000	9	...........
	137	1.84	6.12261E-002	-8.89322E-005	0.00000E+000	-5.44497E-006	-5.39641E-002	6.12266E-002	3.57240E+000	9	...........
	138	1.85333	5.75213E-002	-8.88051E-005	0.00000E+000	-5.10819E-006	-5.39641E-002	5.75239E-002	3.57240E+000	9	...........
	139	1.86667	5.38217E-002	-8.87634E-005	0.00000E+000	-4.77740E-006	-5.39641E-002	5.38230E-002	3.57240E+000	9	...........
	140	1.88	5.01301E-002	-8.88864E-005	0.00000E+000	-4.45588E-006	-5.39641E-002	5.01291E-002	3.57240E+000	9	...........
	141	1.89333	4.64683E-002	-8.86957E-005	0.00000E+000	-4.12153E-006	-5.39641E-002	4.64820E-002	3.57240E+000	9	...........
	142	1.90667	4.28211E-002	-8.86092E-005	0.00000E+000	-3.79435E-006	-5.39641E-002	4.28308E-002	3.57240E+000	9	...........
	143	1.92	3.91778E-002	-8.88832E-005	0.00000E+000	-3.48225E-006	-5.39641E-002	3.91828E-002	3.57240E+000	9	...........
	144	1.93333	3.55549E-002	-8.87811E-005	0.00000E+000	-3.15660E-006	-5.39641E-002	3.55585E-002	3.57240E+000	9	...........
	145	1.94667	3.19443E-002	-8.89499E-005	0.00000E+000	-2.84144E-006	-5.39641E-002	3.19410E-002	3.57240E+000	9	...........
	146	1.96	2.83431E-002	-8.89124E-005	0.00000E+000	-2.52005E-006	-5.39641E-002	2.83426E-002	3.57240E+000	9	...........
	147	1.97333	2.47590E-002	-8.87447E-005	0.00000E+000	-2.19723E-006	-5.39641E-002	2.47565E-002	3.57240E+000	9	...........
	148	1.98667	2.11812E-002	-8.88270E-005	0.00000E+000	-1.88146E-006	-5.39641E-002	2.11749E-002	3.57240E+000	9	...........
	149	2	1.76394E-002	-8.87134E-005	0.00000E+000	-1.56485E-006	-5.39641E-002	1.76308E-002	3.57240E+000	9	...........
	150	2.01333	1.41098E-002	-8.87915E-005	0.00000E+000	-1.25283E-006	-5.39641E-002	1.41034E-002	3.57240E+000	9	...........
	151	2.02667	1.05893E-002	-8.89989E-005	0.00000E+000	-9.42436E-007	-5.39641E-002	1.05802E-002	3.57240E+000	9	...........
	152	2.04	7.09132E-003	-8.86613E-005	0.00000E+000	-6.28726E-007	-5.39641E-002	7.08233E-003	3.57240E+000	9	...........
	153	2.05333	3.60759E-003	-8.89280E-005	0.00000E+000	-3.20816E-007	-5.39641E-002	3.59551E-003	3.57240E+000	9	...........
	154	2.06167	7.89896E-004	-8.88716E-005	0.00000E+000	-7.01993E-008	-5.39641E-002	7.68869E-004	3.57240E+000	9	...........
STARTTIMEOFFSET	QUANT	1637.959	Start Time Offset (s)
