EXPLAIN
TAG	PWR800_DISCHARGE
TITLE	LABEL	PWR Cyclic Charge Discharge (Cell) - Discharge Step	Test &Identifier
DATE	LABEL	10-7-2017	Date
TIME	LABEL	16:10:22	Time
NOTES	NOTES	3	&Notes...
	supercap test cell
	0.9mg
	6M KOH
PSTAT	PSTAT	IFC5000-01520	Potentiostat
CAPACITY	QUANT	1.00000E-003	Capacity (A-hr)
CELLTYPE	SELECTOR	1	&Cell Type
WORKINGCONNECTION	SELECTOR	0	&Working Lead
MAXDISCHARGETIME	VARIABLEANDUNITS	1.00000E+002	s	1.00000E+002	second(s)	Max &Discharge Time
DISCHARGEMODE	MULTIPARAM	0	9.00000E-005	&Discharge Mode	Constant Current	Amp(s)
SAMPLETIME	QUANT	1.00000E-002	Sa&mple Period (s)
DISCHARGESTOPAT1	MULTIPARAM	3	0.00000E+000	Discharge Stop At &1	Voltage < Limit	V
DISCHARGESTOPAT2	MULTIPARAM	0	0.00000E+000	Discharge Stop At &2	None	N/A
AESBHCSELECTOR	TOGGLE	F	Save Both Half Cells
IRCOMP	TOGGLE	F	IR &Measure
EOC	QUANT	0	Open Circuit (V)
SEQUENCER	TOGGLE	TRUE	Run as Sequence
PSTATMODEL	IQUANT	53	Pstat Model
PSTATSECTION	LABEL	IFC5000-01520	Pstat Section
PSTATSERIALNO	LABEL	01520	Pstat Serial Number
CTRLMODE	IQUANT	0	Control Mode
ELECTROMETER	IQUANT	1	RE=0 or CS=1
IESTAB	IQUANT	0	I/E Stability
CASPEED	IQUANT	4	Control Amp Speed
CONVENTION	IQUANT	1	Current Convention
ICHRANGE	IQUANT	2	Ich Range
ICHRANGEMODE	TOGGLE	T	Ich Auto Range
ICHOFFSETENABLE	TOGGLE	F	Ich Offset Enable
ICHOFFSET	QUANT	0	Ich Offset (V)
ICHFILTER	IQUANT	1	Ich Filter
VCHRANGE	IQUANT	2	Vch Range
VCHRANGEMODE	TOGGLE	T	Vch Auto Range
VCHOFFSETENABLE	TOGGLE	F	Vch Offset Enable
VCHOFFSET	QUANT	0	Vch Offset (V)
VCHFILTER	IQUANT	1	Vch Filter
IERANGELOWERLIMIT	IQUANT	9	I/E Range Lower Limit
IERANGEMODE	TOGGLE	F	I/E AutoRange
IERANGE	IQUANT	9	I/E Range
ACHSELECT	IQUANT	1	Ach Select
ACHRANGE	IQUANT	2	Ach Range
ACHOFFSETENABLE	TOGGLE	F	Ach Offset Enable
ACHOFFSET	QUANT	0	Ach Offset (V)
ACHFILTER	IQUANT	1	Ach Filter
CABLEID	IQUANT	14	Cable ID
DCCALDATE	LABEL	5-7-2017	DC Calibration Date
ACCALDATE	LABEL	12/3/2015	AC Calibration Date
FRAMEWORKVERSION	QUANT	7.01	Framework Version
INSTRUMENTVERSION	LABEL	4.00	Instrument Version
CURVE	TABLE	147
	Pt	T	Vf	Im	Vu	Pwr	Sig	Ach	Temp	IERange	Over
	#	s	V	A	V	W	V	V	deg C	#	bits
	0	0.013333	7.98939E-001	-8.86613E-005	0.00000E+000	-7.08350E-005	-5.39641E-002	7.99075E-001	3.57290E+000	9	...........
	1	0.026667	7.84769E-001	-8.88186E-005	0.00000E+000	-6.97021E-005	-5.39641E-002	7.84896E-001	3.57290E+000	9	...........
	2	0.04	7.71578E-001	-8.85321E-005	0.00000E+000	-6.83094E-005	-5.39641E-002	7.71695E-001	3.57290E+000	9	...........
	3	0.053333	7.59152E-001	-8.88541E-005	0.00000E+000	-6.74537E-005	-5.39641E-002	7.59264E-001	3.57290E+000	9	...........
	4	0.066667	7.47364E-001	-8.88499E-005	0.00000E+000	-6.64032E-005	-5.39641E-002	7.47456E-001	3.57290E+000	9	...........
	5	0.08	7.36096E-001	-8.89176E-005	0.00000E+000	-6.54519E-005	-5.39641E-002	7.36218E-001	3.57290E+000	9	...........
	6	0.093333	7.25367E-001	-8.89937E-005	0.00000E+000	-6.45531E-005	-5.39641E-002	7.25435E-001	3.57290E+000	9	...........
	7	0.106667	7.14977E-001	-8.86644E-005	0.00000E+000	-6.33930E-005	-5.39641E-002	7.15083E-001	3.57290E+000	9	...........
	8	0.12	7.04988E-001	-8.87655E-005	0.00000E+000	-6.25786E-005	-5.39641E-002	7.05096E-001	3.57290E+000	9	...........
	9	0.133333	6.95357E-001	-8.90062E-005	0.00000E+000	-6.18911E-005	-5.39641E-002	6.95437E-001	3.57290E+000	9	...........
	10	0.146667	6.85956E-001	-8.87530E-005	0.00000E+000	-6.08807E-005	-5.39641E-002	6.86073E-001	3.57290E+000	9	...........
	11	0.16	6.76900E-001	-8.87124E-005	0.00000E+000	-6.00494E-005	-5.39641E-002	6.77002E-001	3.57290E+000	9	...........
	12	0.173333	6.68082E-001	-8.89864E-005	0.00000E+000	-5.94502E-005	-5.39641E-002	6.68185E-001	3.57290E+000	9	...........
	13	0.186667	6.59451E-001	-8.89749E-005	0.00000E+000	-5.86746E-005	-5.39641E-002	6.59554E-001	3.57290E+000	9	...........
	14	0.2	6.51080E-001	-8.90395E-005	0.00000E+000	-5.79718E-005	-5.39641E-002	6.51191E-001	3.57290E+000	9	...........
	15	0.213333	6.42898E-001	-8.86207E-005	0.00000E+000	-5.69740E-005	-5.39641E-002	6.43021E-001	3.57290E+000	9	...........
	16	0.226667	6.34931E-001	-8.86811E-005	0.00000E+000	-5.63064E-005	-5.39641E-002	6.35027E-001	3.57290E+000	9	...........
	17	0.24	6.27153E-001	-8.87092E-005	0.00000E+000	-5.56343E-005	-5.39641E-002	6.27252E-001	3.57336E+000	9	...........
	18	0.253333	6.19525E-001	-8.88978E-005	0.00000E+000	-5.50745E-005	-5.39641E-002	6.19606E-001	3.57360E+000	9	...........
	19	0.266667	6.11989E-001	-8.88457E-005	0.00000E+000	-5.43726E-005	-5.39641E-002	6.12140E-001	3.57360E+000	9	...........
	20	0.28	6.04662E-001	-8.89291E-005	0.00000E+000	-5.37721E-005	-5.39641E-002	6.04792E-001	3.57360E+000	9	...........
	21	0.293333	5.97463E-001	-8.87717E-005	0.00000E+000	-5.30379E-005	-5.39641E-002	5.97591E-001	3.57360E+000	9	...........
	22	0.306667	5.90433E-001	-8.88082E-005	0.00000E+000	-5.24353E-005	-5.39641E-002	5.90548E-001	3.57360E+000	9	...........
	23	0.32	5.83465E-001	-8.88811E-005	0.00000E+000	-5.18590E-005	-5.39641E-002	5.83581E-001	3.57360E+000	9	...........
	24	0.333333	5.76635E-001	-8.87832E-005	0.00000E+000	-5.11955E-005	-5.39641E-002	5.76737E-001	3.57360E+000	9	...........
	25	0.346667	5.69937E-001	-8.87832E-005	0.00000E+000	-5.06008E-005	-5.39641E-002	5.70021E-001	3.57360E+000	9	...........
	26	0.36	5.63302E-001	-8.87301E-005	0.00000E+000	-4.99818E-005	-5.39641E-002	5.63431E-001	3.57360E+000	9	...........
	27	0.373333	5.56761E-001	-8.87613E-005	0.00000E+000	-4.94188E-005	-5.39641E-002	5.56882E-001	3.57360E+000	9	...........
	28	0.386667	5.50355E-001	-8.86863E-005	0.00000E+000	-4.88089E-005	-5.39641E-002	5.50465E-001	3.57360E+000	9	...........
	29	0.4	5.44026E-001	-8.90301E-005	0.00000E+000	-4.84347E-005	-5.39641E-002	5.44145E-001	3.57360E+000	9	...........
	30	0.413333	5.37789E-001	-8.90749E-005	0.00000E+000	-4.79035E-005	-5.39641E-002	5.37917E-001	3.57360E+000	9	...........
	31	0.426667	5.31612E-001	-8.88728E-005	0.00000E+000	-4.72458E-005	-5.39641E-002	5.31721E-001	3.57360E+000	9	...........
	32	0.44	5.25558E-001	-8.87613E-005	0.00000E+000	-4.66492E-005	-5.39641E-002	5.25645E-001	3.57360E+000	9	...........
	33	0.453333	5.19537E-001	-8.87186E-005	0.00000E+000	-4.60926E-005	-5.39641E-002	5.19620E-001	3.57360E+000	9	...........
	34	0.466667	5.13585E-001	-8.90687E-005	0.00000E+000	-4.57443E-005	-5.39641E-002	5.13660E-001	3.57360E+000	9	...........
	35	0.48	5.07625E-001	-8.89291E-005	0.00000E+000	-4.51426E-005	-5.39641E-002	5.07768E-001	3.57360E+000	9	...........
	36	0.493333	5.01819E-001	-8.88509E-005	0.00000E+000	-4.45871E-005	-5.39641E-002	5.01915E-001	3.57360E+000	9	...........
	37	0.506667	4.96052E-001	-8.86769E-005	0.00000E+000	-4.39884E-005	-5.39641E-002	4.96164E-001	3.57360E+000	9	...........
	38	0.52	4.90339E-001	-8.88322E-005	0.00000E+000	-4.35579E-005	-5.39641E-002	4.90455E-001	3.57360E+000	9	...........
	39	0.533333	4.84724E-001	-8.91375E-005	0.00000E+000	-4.32071E-005	-5.39641E-002	4.84815E-001	3.57360E+000	9	...........
	40	0.546667	4.79169E-001	-8.87957E-005	0.00000E+000	-4.25482E-005	-5.39641E-002	4.79240E-001	3.57360E+000	9	...........
	41	0.56	4.73617E-001	-8.87301E-005	0.00000E+000	-4.20241E-005	-5.39641E-002	4.73680E-001	3.57360E+000	9	...........
	42	0.573333	4.68094E-001	-8.85894E-005	0.00000E+000	-4.14682E-005	-5.39641E-002	4.68157E-001	3.57360E+000	9	...........
	43	0.586667	4.62604E-001	-8.88353E-005	0.00000E+000	-4.10956E-005	-5.39641E-002	4.62663E-001	3.57360E+000	9	...........
	44	0.6	4.57163E-001	-8.87947E-005	0.00000E+000	-4.05936E-005	-5.39641E-002	4.57227E-001	3.57360E+000	9	...........
	45	0.613333	4.51761E-001	-8.89937E-005	0.00000E+000	-4.02039E-005	-5.39641E-002	4.51823E-001	3.57360E+000	9	...........
	46	0.626667	4.46389E-001	-8.88218E-005	0.00000E+000	-3.96491E-005	-5.39641E-002	4.46449E-001	3.57360E+000	9	...........
	47	0.64	4.41053E-001	-8.85967E-005	0.00000E+000	-3.90759E-005	-5.39641E-002	4.41113E-001	3.57360E+000	9	...........
	48	0.653333	4.35742E-001	-8.86988E-005	0.00000E+000	-3.86498E-005	-5.39641E-002	4.35805E-001	3.57360E+000	9	...........
	49	0.666667	4.30470E-001	-8.90531E-005	0.00000E+000	-3.83347E-005	-5.39641E-002	4.30528E-001	3.57360E+000	9	...........
	50	0.68	4.25223E-001	-8.87415E-005	0.00000E+000	-3.77350E-005	-5.39641E-002	4.25283E-001	3.57360E+000	9	...........
	51	0.693333	4.19996E-001	-8.89833E-005	0.00000E+000	-3.73726E-005	-5.39641E-002	4.20054E-001	3.57360E+000	9	...........
	52	0.706667	4.14809E-001	-8.86915E-005	0.00000E+000	-3.67901E-005	-5.39641E-002	4.14868E-001	3.57360E+000	9	...........
	53	0.72	4.09654E-001	-8.87863E-005	0.00000E+000	-3.63717E-005	-5.39641E-002	4.09707E-001	3.57360E+000	9	...........
	54	0.733333	4.04513E-001	-8.89322E-005	0.00000E+000	-3.59742E-005	-5.39641E-002	4.04565E-001	3.57360E+000	9	...........
	55	0.746667	3.99393E-001	-8.89270E-005	0.00000E+000	-3.55168E-005	-5.39641E-002	3.99440E-001	3.57360E+000	9	...........
	56	0.76	3.94289E-001	-8.91791E-005	0.00000E+000	-3.51624E-005	-5.39641E-002	3.94336E-001	3.57360E+000	9	...........
	57	0.773333	3.89190E-001	-8.88811E-005	0.00000E+000	-3.45916E-005	-5.39641E-002	3.89237E-001	3.57360E+000	9	...........
	58	0.786667	3.84102E-001	-8.87395E-005	0.00000E+000	-3.40850E-005	-5.39641E-002	3.84147E-001	3.57360E+000	9	...........
	59	0.8	3.79028E-001	-8.88457E-005	0.00000E+000	-3.36750E-005	-5.39641E-002	3.79076E-001	3.57360E+000	9	...........
	60	0.813333	3.73988E-001	-8.88311E-005	0.00000E+000	-3.32218E-005	-5.39641E-002	3.74027E-001	3.57360E+000	9	...........
	61	0.826667	3.68963E-001	-8.88332E-005	0.00000E+000	-3.27762E-005	-5.39641E-002	3.69001E-001	3.57360E+000	9	...........
	62	0.84	3.63960E-001	-8.89635E-005	0.00000E+000	-3.23791E-005	-5.39641E-002	3.64006E-001	3.57360E+000	9	...........
	63	0.853333	3.58975E-001	-8.90437E-005	0.00000E+000	-3.19645E-005	-5.39641E-002	3.59015E-001	3.57360E+000	9	...........
	64	0.866667	3.53999E-001	-8.90426E-005	0.00000E+000	-3.15210E-005	-5.39641E-002	3.54041E-001	3.57360E+000	9	...........
	65	0.88	3.49035E-001	-8.84769E-005	0.00000E+000	-3.08815E-005	-5.39641E-002	3.49074E-001	3.57360E+000	9	...........
	66	0.893333	3.44072E-001	-8.88739E-005	0.00000E+000	-3.05790E-005	-5.39641E-002	3.44115E-001	3.57360E+000	9	...........
	67	0.906667	3.39120E-001	-8.87572E-005	0.00000E+000	-3.00994E-005	-5.39641E-002	3.39162E-001	3.57360E+000	9	...........
	68	0.92	3.34184E-001	-8.88207E-005	0.00000E+000	-2.96825E-005	-5.39641E-002	3.34230E-001	3.57360E+000	9	...........
	69	0.933333	3.29268E-001	-8.86926E-005	0.00000E+000	-2.92036E-005	-5.39641E-002	3.29307E-001	3.57360E+000	9	...........
	70	0.946667	3.24345E-001	-8.86301E-005	0.00000E+000	-2.87467E-005	-5.39641E-002	3.24386E-001	3.57360E+000	9	...........
	71	0.96	3.19440E-001	-8.90062E-005	0.00000E+000	-2.84322E-005	-5.39641E-002	3.19482E-001	3.57360E+000	9	...........
	72	0.97333	3.14547E-001	-8.87176E-005	0.00000E+000	-2.79059E-005	-5.39641E-002	3.14591E-001	3.57360E+000	9	...........
	73	0.98667	3.09673E-001	-8.90312E-005	0.00000E+000	-2.75706E-005	-5.39641E-002	3.09717E-001	3.57360E+000	9	...........
	74	1	3.04820E-001	-8.87634E-005	0.00000E+000	-2.70569E-005	-5.39641E-002	3.04864E-001	3.57360E+000	9	...........
	75	1.01333	2.99972E-001	-8.86853E-005	0.00000E+000	-2.66031E-005	-5.39641E-002	3.00014E-001	3.57360E+000	9	...........
	76	1.02667	2.95131E-001	-8.87676E-005	0.00000E+000	-2.61981E-005	-5.39641E-002	2.95167E-001	3.57360E+000	9	...........
	77	1.04	2.90306E-001	-8.86759E-005	0.00000E+000	-2.57431E-005	-5.39641E-002	2.90346E-001	3.57360E+000	9	...........
	78	1.05333	2.85496E-001	-8.89530E-005	0.00000E+000	-2.53958E-005	-5.39641E-002	2.85530E-001	3.57360E+000	9	...........
	79	1.06667	2.80695E-001	-8.87676E-005	0.00000E+000	-2.49167E-005	-5.39641E-002	2.80733E-001	3.57360E+000	9	...........
	80	1.08	2.75913E-001	-8.87926E-005	0.00000E+000	-2.44990E-005	-5.39641E-002	2.75951E-001	3.57360E+000	9	...........
	81	1.09333	2.71153E-001	-8.86978E-005	0.00000E+000	-2.40507E-005	-5.39641E-002	2.71193E-001	3.57360E+000	9	...........
	82	1.10667	2.66402E-001	-8.86665E-005	0.00000E+000	-2.36210E-005	-5.39641E-002	2.66441E-001	3.57360E+000	9	...........
	83	1.12	2.61668E-001	-8.87322E-005	0.00000E+000	-2.32184E-005	-5.39641E-002	2.61704E-001	3.57360E+000	9	...........
	84	1.13333	2.56941E-001	-8.88353E-005	0.00000E+000	-2.28254E-005	-5.39641E-002	2.56974E-001	3.57360E+000	9	...........
	85	1.14667	2.52243E-001	-8.87436E-005	0.00000E+000	-2.23850E-005	-5.39641E-002	2.52277E-001	3.57360E+000	9	...........
	86	1.16	2.47557E-001	-8.90437E-005	0.00000E+000	-2.20434E-005	-5.39641E-002	2.47586E-001	3.57360E+000	9	...........
	87	1.17333	2.42878E-001	-8.90468E-005	0.00000E+000	-2.16275E-005	-5.39641E-002	2.42908E-001	3.57360E+000	9	...........
	88	1.18667	2.38226E-001	-8.90010E-005	0.00000E+000	-2.12024E-005	-5.39641E-002	2.38254E-001	3.57360E+000	9	...........
	89	1.2	2.33608E-001	-8.88061E-005	0.00000E+000	-2.07459E-005	-5.39641E-002	2.33627E-001	3.57360E+000	9	...........
	90	1.21333	2.28983E-001	-8.86082E-005	0.00000E+000	-2.02898E-005	-5.39641E-002	2.29009E-001	3.57360E+000	9	...........
	91	1.22667	2.24360E-001	-8.85842E-005	0.00000E+000	-1.98748E-005	-5.39641E-002	2.24386E-001	3.57360E+000	9	...........
	92	1.24	2.19767E-001	-8.91208E-005	0.00000E+000	-1.95858E-005	-5.39641E-002	2.19793E-001	3.57367E+000	9	...........
	93	1.25333	2.15194E-001	-8.85873E-005	0.00000E+000	-1.90635E-005	-5.39641E-002	2.15214E-001	3.57370E+000	9	...........
	94	1.26667	2.10633E-001	-8.89124E-005	0.00000E+000	-1.87279E-005	-5.39641E-002	2.10658E-001	3.57370E+000	9	...........
	95	1.28	2.06083E-001	-8.89374E-005	0.00000E+000	-1.83285E-005	-5.39641E-002	2.06105E-001	3.57370E+000	9	...........
	96	1.29333	2.01573E-001	-8.87790E-005	0.00000E+000	-1.78955E-005	-5.39641E-002	2.01600E-001	3.57370E+000	9	...........
	97	1.30667	1.97072E-001	-8.89562E-005	0.00000E+000	-1.75307E-005	-5.39641E-002	1.97096E-001	3.57370E+000	9	...........
	98	1.32	1.92592E-001	-8.88509E-005	0.00000E+000	-1.71120E-005	-5.39641E-002	1.92615E-001	3.57370E+000	9	...........
	99	1.33333	1.88132E-001	-8.88009E-005	0.00000E+000	-1.67063E-005	-5.39641E-002	1.88152E-001	3.57370E+000	9	...........
	100	1.34667	1.83693E-001	-8.87738E-005	0.00000E+000	-1.63071E-005	-5.39641E-002	1.83713E-001	3.57370E+000	9	...........
	101	1.36	1.79264E-001	-8.89780E-005	0.00000E+000	-1.59505E-005	-5.39641E-002	1.79283E-001	3.57370E+000	9	...........
	102	1.37333	1.74851E-001	-8.87822E-005	0.00000E+000	-1.55237E-005	-5.39641E-002	1.74865E-001	3.57370E+000	9	...........
	103	1.38667	1.70446E-001	-8.87072E-005	0.00000E+000	-1.51198E-005	-5.39641E-002	1.70465E-001	3.57370E+000	9	...........
	104	1.4	1.66065E-001	-8.87843E-005	0.00000E+000	-1.47439E-005	-5.39641E-002	1.66085E-001	3.57370E+000	9	...........
	105	1.41333	1.61704E-001	-8.89749E-005	0.00000E+000	-1.43876E-005	-5.39641E-002	1.61724E-001	3.57370E+000	9	...........
	106	1.42667	1.57356E-001	-8.89114E-005	0.00000E+000	-1.39908E-005	-5.39641E-002	1.57368E-001	3.57370E+000	9	...........
	107	1.44	1.53012E-001	-8.87718E-005	0.00000E+000	-1.35831E-005	-5.39641E-002	1.53021E-001	3.57370E+000	9	...........
	108	1.45333	1.48692E-001	-8.89687E-005	0.00000E+000	-1.32290E-005	-5.39641E-002	1.48708E-001	3.57370E+000	9	...........
	109	1.46667	1.44395E-001	-8.89947E-005	0.00000E+000	-1.28504E-005	-5.39641E-002	1.44409E-001	3.57370E+000	9	...........
	110	1.48	1.40136E-001	-8.88999E-005	0.00000E+000	-1.24581E-005	-5.39641E-002	1.40147E-001	3.57370E+000	9	...........
	111	1.49333	1.35903E-001	-8.87488E-005	0.00000E+000	-1.20612E-005	-5.39641E-002	1.35916E-001	3.57370E+000	9	...........
	112	1.50667	1.31697E-001	-8.87405E-005	0.00000E+000	-1.16868E-005	-5.39641E-002	1.31711E-001	3.57370E+000	9	...........
	113	1.52	1.27504E-001	-8.86999E-005	0.00000E+000	-1.13096E-005	-5.39641E-002	1.27514E-001	3.57370E+000	9	...........
	114	1.53333	1.23329E-001	-8.87718E-005	0.00000E+000	-1.09481E-005	-5.39641E-002	1.23336E-001	3.57370E+000	9	...........
	115	1.54667	1.19169E-001	-8.85748E-005	0.00000E+000	-1.05554E-005	-5.39641E-002	1.19183E-001	3.57370E+000	9	...........
	116	1.56	1.15033E-001	-8.88093E-005	0.00000E+000	-1.02160E-005	-5.39641E-002	1.15040E-001	3.57370E+000	9	...........
	117	1.57333	1.10908E-001	-8.86696E-005	0.00000E+000	-9.83420E-006	-5.39641E-002	1.10916E-001	3.57370E+000	9	...........
	118	1.58667	1.06787E-001	-8.86665E-005	0.00000E+000	-9.46846E-006	-5.39641E-002	1.06795E-001	3.57370E+000	9	...........
	119	1.6	1.02687E-001	-8.87301E-005	0.00000E+000	-9.11138E-006	-5.39641E-002	1.02691E-001	3.57370E+000	9	...........
	120	1.61333	9.86238E-002	-8.85092E-005	0.00000E+000	-8.72911E-006	-5.39641E-002	9.86306E-002	3.57370E+000	9	...........
	121	1.62667	9.45849E-002	-8.88582E-005	0.00000E+000	-8.40465E-006	-5.39641E-002	9.45893E-002	3.57370E+000	9	...........
	122	1.64	9.05531E-002	-8.86832E-005	0.00000E+000	-8.03054E-006	-5.39641E-002	9.05593E-002	3.57370E+000	9	...........
	123	1.65333	8.65390E-002	-8.89197E-005	0.00000E+000	-7.69502E-006	-5.39641E-002	8.65425E-002	3.57370E+000	9	...........
	124	1.66667	8.25480E-002	-8.89551E-005	0.00000E+000	-7.34306E-006	-5.39641E-002	8.25541E-002	3.57370E+000	9	...........
	125	1.68	7.85763E-002	-8.88426E-005	0.00000E+000	-6.98092E-006	-5.39641E-002	7.85802E-002	3.57370E+000	9	...........
	126	1.69333	7.46117E-002	-8.88259E-005	0.00000E+000	-6.62746E-006	-5.39641E-002	7.46173E-002	3.57370E+000	9	...........
	127	1.70667	7.06668E-002	-8.88895E-005	0.00000E+000	-6.28154E-006	-5.39641E-002	7.06635E-002	3.57370E+000	9	...........
	128	1.72	6.67396E-002	-8.85780E-005	0.00000E+000	-5.91165E-006	-5.39641E-002	6.67389E-002	3.57370E+000	9	...........
	129	1.73333	6.28337E-002	-8.89041E-005	0.00000E+000	-5.58617E-006	-5.39641E-002	6.28300E-002	3.57370E+000	9	...........
	130	1.74667	5.89368E-002	-8.88916E-005	0.00000E+000	-5.23898E-006	-5.39641E-002	5.89380E-002	3.57370E+000	9	...........
	131	1.76	5.50627E-002	-8.88009E-005	0.00000E+000	-4.88962E-006	-5.39641E-002	5.50639E-002	3.57370E+000	9	...........
	132	1.77333	5.12218E-002	-8.87030E-005	0.00000E+000	-4.54353E-006	-5.39641E-002	5.12228E-002	3.57370E+000	9	...........
	133	1.78667	4.73988E-002	-8.88749E-005	0.00000E+000	-4.21257E-006	-5.39641E-002	4.74048E-002	3.57370E+000	9	...........
	134	1.8	4.35918E-002	-8.88978E-005	0.00000E+000	-3.87522E-006	-5.39641E-002	4.36034E-002	3.57370E+000	9	...........
	135	1.81333	3.97940E-002	-8.88416E-005	0.00000E+000	-3.53536E-006	-5.39641E-002	3.97979E-002	3.57370E+000	9	...........
	136	1.82667	3.60145E-002	-8.90468E-005	0.00000E+000	-3.20697E-006	-5.39641E-002	3.60175E-002	3.57370E+000	9	...........
	137	1.84	3.22455E-002	-8.89812E-005	0.00000E+000	-2.86924E-006	-5.39641E-002	3.22460E-002	3.57370E+000	9	...........
	138	1.85333	2.84944E-002	-8.89447E-005	0.00000E+000	-2.53443E-006	-5.39641E-002	2.84914E-002	3.57370E+000	9	...........
	139	1.86667	2.47693E-002	-8.85498E-005	0.00000E+000	-2.19332E-006	-5.39641E-002	2.47686E-002	3.57370E+000	9	...........
	140	1.88	2.10635E-002	-8.86790E-005	0.00000E+000	-1.86789E-006	-5.39641E-002	2.10606E-002	3.57370E+000	9	...........
	141	1.89333	1.73837E-002	-8.90927E-005	0.00000E+000	-1.54876E-006	-5.39641E-002	1.73768E-002	3.57370E+000	9	...........
	142	1.90667	1.37209E-002	-8.86811E-005	0.00000E+000	-1.21679E-006	-5.39641E-002	1.37104E-002	3.57370E+000	9	...........
	143	1.92	1.00740E-002	-8.87186E-005	0.00000E+000	-8.93753E-007	-5.39641E-002	1.00674E-002	3.57370E+000	9	...........
	144	1.93333	6.44737E-003	-8.90353E-005	0.00000E+000	-5.74044E-007	-5.39641E-002	6.44064E-003	3.57370E+000	9	...........
	145	1.94667	2.83334E-003	-8.88395E-005	0.00000E+000	-2.51712E-007	-5.39641E-002	2.81832E-003	3.57370E+000	9	...........
	146	1.95167	3.51219E-004	-8.84887E-005	0.00000E+000	-3.10789E-008	-5.39641E-002	3.34206E-004	3.57370E+000	9	...........
STARTTIMEOFFSET	QUANT	3581.032	Start Time Offset (s)
