EXPLAIN
TAG	PWR800_DISCHARGE
TITLE	LABEL	PWR Cyclic Charge Discharge (Cell) - Discharge Step	Test &Identifier
DATE	LABEL	10-7-2017	Date
TIME	LABEL	15:11:13	Time
NOTES	NOTES	3	&Notes...
	supercap test cell
	0.9mg
	6M KOH
PSTAT	PSTAT	IFC5000-01520	Potentiostat
CAPACITY	QUANT	1.00000E-003	Capacity (A-hr)
CELLTYPE	SELECTOR	1	&Cell Type
WORKINGCONNECTION	SELECTOR	0	&Working Lead
MAXDISCHARGETIME	VARIABLEANDUNITS	1.00000E+002	s	1.00000E+002	second(s)	Max &Discharge Time
DISCHARGEMODE	MULTIPARAM	0	9.00000E-005	&Discharge Mode	Constant Current	Amp(s)
SAMPLETIME	QUANT	1.00000E-002	Sa&mple Period (s)
DISCHARGESTOPAT1	MULTIPARAM	3	0.00000E+000	Discharge Stop At &1	Voltage < Limit	V
DISCHARGESTOPAT2	MULTIPARAM	0	0.00000E+000	Discharge Stop At &2	None	N/A
AESBHCSELECTOR	TOGGLE	F	Save Both Half Cells
IRCOMP	TOGGLE	F	IR &Measure
EOC	QUANT	0	Open Circuit (V)
SEQUENCER	TOGGLE	TRUE	Run as Sequence
PSTATMODEL	IQUANT	53	Pstat Model
PSTATSECTION	LABEL	IFC5000-01520	Pstat Section
PSTATSERIALNO	LABEL	01520	Pstat Serial Number
CTRLMODE	IQUANT	0	Control Mode
ELECTROMETER	IQUANT	1	RE=0 or CS=1
IESTAB	IQUANT	0	I/E Stability
CASPEED	IQUANT	4	Control Amp Speed
CONVENTION	IQUANT	1	Current Convention
ICHRANGE	IQUANT	2	Ich Range
ICHRANGEMODE	TOGGLE	T	Ich Auto Range
ICHOFFSETENABLE	TOGGLE	F	Ich Offset Enable
ICHOFFSET	QUANT	0	Ich Offset (V)
ICHFILTER	IQUANT	1	Ich Filter
VCHRANGE	IQUANT	2	Vch Range
VCHRANGEMODE	TOGGLE	T	Vch Auto Range
VCHOFFSETENABLE	TOGGLE	F	Vch Offset Enable
VCHOFFSET	QUANT	0	Vch Offset (V)
VCHFILTER	IQUANT	1	Vch Filter
IERANGELOWERLIMIT	IQUANT	9	I/E Range Lower Limit
IERANGEMODE	TOGGLE	F	I/E AutoRange
IERANGE	IQUANT	9	I/E Range
ACHSELECT	IQUANT	1	Ach Select
ACHRANGE	IQUANT	2	Ach Range
ACHOFFSETENABLE	TOGGLE	F	Ach Offset Enable
ACHOFFSET	QUANT	0	Ach Offset (V)
ACHFILTER	IQUANT	1	Ach Filter
CABLEID	IQUANT	14	Cable ID
DCCALDATE	LABEL	5-7-2017	DC Calibration Date
ACCALDATE	LABEL	12/3/2015	AC Calibration Date
FRAMEWORKVERSION	QUANT	7.01	Framework Version
INSTRUMENTVERSION	LABEL	4.00	Instrument Version
CURVE	TABLE	163
	Pt	T	Vf	Im	Vu	Pwr	Sig	Ach	Temp	IERange	Over
	#	s	V	A	V	W	V	V	deg C	#	bits
	0	0.013333	8.32479E-001	-8.86373E-005	0.00000E+000	-7.37887E-005	-5.39641E-002	8.32633E-001	3.57160E+000	9	...........
	1	0.026667	8.20486E-001	-8.88447E-005	0.00000E+000	-7.28958E-005	-5.39641E-002	8.20653E-001	3.57160E+000	9	...........
	2	0.04	8.09241E-001	-8.83310E-005	0.00000E+000	-7.14811E-005	-5.39641E-002	8.09350E-001	3.57160E+000	9	...........
	3	0.053333	7.98510E-001	-8.83237E-005	0.00000E+000	-7.05274E-005	-5.39641E-002	7.98612E-001	3.57160E+000	9	...........
	4	0.066667	7.88200E-001	-8.86571E-005	0.00000E+000	-6.98796E-005	-5.39641E-002	7.88307E-001	3.57160E+000	9	...........
	5	0.08	7.78307E-001	-8.84061E-005	0.00000E+000	-6.88070E-005	-5.39641E-002	7.78415E-001	3.57160E+000	9	...........
	6	0.093333	7.68724E-001	-8.88624E-005	0.00000E+000	-6.83107E-005	-5.39641E-002	7.68854E-001	3.57160E+000	9	...........
	7	0.106667	7.59470E-001	-8.86290E-005	0.00000E+000	-6.73110E-005	-5.39641E-002	7.59556E-001	3.57160E+000	9	...........
	8	0.12	7.50465E-001	-8.88395E-005	0.00000E+000	-6.66709E-005	-5.39641E-002	7.50554E-001	3.57160E+000	9	...........
	9	0.133333	7.41719E-001	-8.83623E-005	0.00000E+000	-6.55400E-005	-5.39641E-002	7.41804E-001	3.57160E+000	9	...........
	10	0.146667	7.33169E-001	-8.83779E-005	0.00000E+000	-6.47959E-005	-5.39641E-002	7.33295E-001	3.57160E+000	9	...........
	11	0.16	7.24862E-001	-8.87134E-005	0.00000E+000	-6.43050E-005	-5.39641E-002	7.24958E-001	3.57160E+000	9	...........
	12	0.173333	7.16735E-001	-8.87134E-005	0.00000E+000	-6.35840E-005	-5.39641E-002	7.16844E-001	3.57160E+000	9	...........
	13	0.186667	7.08765E-001	-8.88551E-005	0.00000E+000	-6.29773E-005	-5.39641E-002	7.08865E-001	3.57160E+000	9	...........
	14	0.2	7.00951E-001	-8.87217E-005	0.00000E+000	-6.21895E-005	-5.39641E-002	7.01064E-001	3.57160E+000	9	...........
	15	0.213333	6.93306E-001	-8.86863E-005	0.00000E+000	-6.14868E-005	-5.39641E-002	6.93404E-001	3.57160E+000	9	...........
	16	0.226667	6.85801E-001	-8.89603E-005	0.00000E+000	-6.10091E-005	-5.39641E-002	6.85884E-001	3.57160E+000	9	...........
	17	0.24	6.78478E-001	-8.84467E-005	0.00000E+000	-6.00092E-005	-5.39641E-002	6.78549E-001	3.57160E+000	9	...........
	18	0.253333	6.71226E-001	-8.85602E-005	0.00000E+000	-5.94439E-005	-5.39641E-002	6.71315E-001	3.57160E+000	9	...........
	19	0.266667	6.64094E-001	-8.87426E-005	0.00000E+000	-5.89334E-005	-5.39641E-002	6.64194E-001	3.57160E+000	9	...........
	20	0.28	6.57092E-001	-8.86697E-005	0.00000E+000	-5.82641E-005	-5.39641E-002	6.57197E-001	3.57160E+000	9	...........
	21	0.293333	6.50216E-001	-8.87030E-005	0.00000E+000	-5.76761E-005	-5.39641E-002	6.50309E-001	3.57160E+000	9	...........
	22	0.306667	6.43428E-001	-8.86769E-005	0.00000E+000	-5.70572E-005	-5.39641E-002	6.43519E-001	3.57160E+000	9	...........
	23	0.32	6.36682E-001	-8.87447E-005	0.00000E+000	-5.65021E-005	-5.39641E-002	6.36801E-001	3.57160E+000	9	...........
	24	0.333333	6.30084E-001	-8.85926E-005	0.00000E+000	-5.58208E-005	-5.39641E-002	6.30184E-001	3.57160E+000	9	...........
	25	0.346667	6.23547E-001	-8.85738E-005	0.00000E+000	-5.52299E-005	-5.39641E-002	6.23631E-001	3.57160E+000	9	...........
	26	0.36	6.17132E-001	-8.85342E-005	0.00000E+000	-5.46373E-005	-5.39641E-002	6.17189E-001	3.57160E+000	9	...........
	27	0.373333	6.10660E-001	-8.87353E-005	0.00000E+000	-5.41871E-005	-5.39641E-002	6.10802E-001	3.57160E+000	9	...........
	28	0.386667	6.04380E-001	-8.86728E-005	0.00000E+000	-5.35920E-005	-5.39641E-002	6.04500E-001	3.57160E+000	9	...........
	29	0.4	5.98159E-001	-8.87499E-005	0.00000E+000	-5.30865E-005	-5.39641E-002	5.98248E-001	3.57160E+000	9	...........
	30	0.413333	5.92000E-001	-8.88176E-005	0.00000E+000	-5.25800E-005	-5.39641E-002	5.92098E-001	3.57160E+000	9	...........
	31	0.426667	5.85872E-001	-8.88426E-005	0.00000E+000	-5.20504E-005	-5.39641E-002	5.85975E-001	3.57160E+000	9	...........
	32	0.44	5.79827E-001	-8.85425E-005	0.00000E+000	-5.13393E-005	-5.39641E-002	5.79940E-001	3.57160E+000	9	...........
	33	0.453333	5.73836E-001	-8.86842E-005	0.00000E+000	-5.08902E-005	-5.39641E-002	5.73952E-001	3.57160E+000	9	...........
	34	0.466667	5.67931E-001	-8.85259E-005	0.00000E+000	-5.02766E-005	-5.39641E-002	5.68040E-001	3.57160E+000	9	...........
	35	0.48	5.62040E-001	-8.86988E-005	0.00000E+000	-4.98523E-005	-5.39641E-002	5.62156E-001	3.57160E+000	9	...........
	36	0.493333	5.56192E-001	-8.87811E-005	0.00000E+000	-4.93793E-005	-5.39641E-002	5.56304E-001	3.57160E+000	9	...........
	37	0.506667	5.50414E-001	-8.84394E-005	0.00000E+000	-4.86782E-005	-5.39641E-002	5.50510E-001	3.57160E+000	9	...........
	38	0.52	5.44649E-001	-8.89468E-005	0.00000E+000	-4.84448E-005	-5.39641E-002	5.44760E-001	3.57160E+000	9	...........
	39	0.533333	5.38966E-001	-8.85561E-005	0.00000E+000	-4.77287E-005	-5.39641E-002	5.39072E-001	3.57160E+000	9	...........
	40	0.546667	5.33238E-001	-8.84779E-005	0.00000E+000	-4.71798E-005	-5.39641E-002	5.33341E-001	3.57160E+000	9	...........
	41	0.56	5.27636E-001	-8.86446E-005	0.00000E+000	-4.67721E-005	-5.39641E-002	5.27737E-001	3.57160E+000	9	...........
	42	0.573333	5.22042E-001	-8.85519E-005	0.00000E+000	-4.62278E-005	-5.39641E-002	5.22139E-001	3.57160E+000	9	...........
	43	0.586667	5.16515E-001	-8.87113E-005	0.00000E+000	-4.58207E-005	-5.39641E-002	5.16581E-001	3.57160E+000	9	...........
	44	0.6	5.10988E-001	-8.85092E-005	0.00000E+000	-4.52271E-005	-5.39641E-002	5.11073E-001	3.57160E+000	9	...........
	45	0.613333	5.05429E-001	-8.85582E-005	0.00000E+000	-4.47599E-005	-5.39641E-002	5.05538E-001	3.57243E+000	9	...........
	46	0.626667	4.99961E-001	-8.85852E-005	0.00000E+000	-4.42892E-005	-5.39641E-002	5.00086E-001	3.57270E+000	9	...........
	47	0.64	4.94528E-001	-8.86363E-005	0.00000E+000	-4.38331E-005	-5.39641E-002	4.94615E-001	3.57270E+000	9	...........
	48	0.653333	4.89112E-001	-8.85248E-005	0.00000E+000	-4.32986E-005	-5.39641E-002	4.89205E-001	3.57270E+000	9	...........
	49	0.666667	4.83751E-001	-8.87249E-005	0.00000E+000	-4.29207E-005	-5.39641E-002	4.83815E-001	3.57270E+000	9	...........
	50	0.68	4.78392E-001	-8.86311E-005	0.00000E+000	-4.24004E-005	-5.39641E-002	4.78440E-001	3.57270E+000	9	...........
	51	0.693333	4.73031E-001	-8.86686E-005	0.00000E+000	-4.19430E-005	-5.39641E-002	4.73087E-001	3.57270E+000	9	...........
	52	0.706667	4.67698E-001	-8.87822E-005	0.00000E+000	-4.15232E-005	-5.39641E-002	4.67753E-001	3.57270E+000	9	...........
	53	0.72	4.62407E-001	-8.86530E-005	0.00000E+000	-4.09937E-005	-5.39641E-002	4.62460E-001	3.57270E+000	9	...........
	54	0.733333	4.57141E-001	-8.87030E-005	0.00000E+000	-4.05498E-005	-5.39641E-002	4.57187E-001	3.57270E+000	9	...........
	55	0.746667	4.51885E-001	-8.85686E-005	0.00000E+000	-4.00228E-005	-5.39641E-002	4.51934E-001	3.57270E+000	9	...........
	56	0.76	4.46652E-001	-8.88072E-005	0.00000E+000	-3.96659E-005	-5.39641E-002	4.46706E-001	3.57270E+000	9	...........
	57	0.773333	4.41433E-001	-8.87290E-005	0.00000E+000	-3.91679E-005	-5.39641E-002	4.41485E-001	3.57270E+000	9	...........
	58	0.786667	4.36223E-001	-8.86978E-005	0.00000E+000	-3.86920E-005	-5.39641E-002	4.36267E-001	3.57270E+000	9	...........
	59	0.8	4.31030E-001	-8.84540E-005	0.00000E+000	-3.81263E-005	-5.39641E-002	4.31074E-001	3.57270E+000	9	...........
	60	0.813333	4.25861E-001	-8.85738E-005	0.00000E+000	-3.77201E-005	-5.39641E-002	4.25907E-001	3.57270E+000	9	...........
	61	0.826667	4.20716E-001	-8.85759E-005	0.00000E+000	-3.72653E-005	-5.39641E-002	4.20761E-001	3.57270E+000	9	...........
	62	0.84	4.15612E-001	-8.85123E-005	0.00000E+000	-3.67868E-005	-5.39641E-002	4.15659E-001	3.57270E+000	9	...........
	63	0.853333	4.10530E-001	-8.88249E-005	0.00000E+000	-3.64653E-005	-5.39641E-002	4.10572E-001	3.57270E+000	9	...........
	64	0.866667	4.05451E-001	-8.86467E-005	0.00000E+000	-3.59419E-005	-5.39641E-002	4.05488E-001	3.57270E+000	9	...........
	65	0.88	4.00395E-001	-8.86519E-005	0.00000E+000	-3.54958E-005	-5.39641E-002	4.00434E-001	3.57270E+000	9	...........
	66	0.893333	3.95377E-001	-8.87395E-005	0.00000E+000	-3.50855E-005	-5.39641E-002	3.95416E-001	3.57270E+000	9	...........
	67	0.906667	3.90361E-001	-8.85436E-005	0.00000E+000	-3.45640E-005	-5.39641E-002	3.90396E-001	3.57270E+000	9	...........
	68	0.92	3.85380E-001	-8.86728E-005	0.00000E+000	-3.41727E-005	-5.39641E-002	3.85413E-001	3.57270E+000	9	...........
	69	0.933333	3.80417E-001	-8.89322E-005	0.00000E+000	-3.38314E-005	-5.39641E-002	3.80452E-001	3.57270E+000	9	...........
	70	0.946667	3.75462E-001	-8.85748E-005	0.00000E+000	-3.32565E-005	-5.39641E-002	3.75499E-001	3.57270E+000	9	...........
	71	0.96	3.70523E-001	-8.88551E-005	0.00000E+000	-3.29229E-005	-5.39641E-002	3.70559E-001	3.57270E+000	9	...........
	72	0.97333	3.65614E-001	-8.86644E-005	0.00000E+000	-3.24169E-005	-5.39641E-002	3.65653E-001	3.57270E+000	9	...........
	73	0.98667	3.60726E-001	-8.86842E-005	0.00000E+000	-3.19907E-005	-5.39641E-002	3.60764E-001	3.57270E+000	9	...........
	74	1	3.55855E-001	-8.85967E-005	0.00000E+000	-3.15276E-005	-5.39641E-002	3.55887E-001	3.57270E+000	9	...........
	75	1.01333	3.50977E-001	-8.85707E-005	0.00000E+000	-3.10862E-005	-5.39641E-002	3.51008E-001	3.57270E+000	9	...........
	76	1.02667	3.46107E-001	-8.87645E-005	0.00000E+000	-3.07220E-005	-5.39641E-002	3.46146E-001	3.57270E+000	9	...........
	77	1.04	3.41282E-001	-8.87592E-005	0.00000E+000	-3.02919E-005	-5.39641E-002	3.41311E-001	3.57270E+000	9	...........
	78	1.05333	3.36481E-001	-8.87144E-005	0.00000E+000	-2.98507E-005	-5.39641E-002	3.36511E-001	3.57270E+000	9	...........
	79	1.06667	3.31699E-001	-8.87822E-005	0.00000E+000	-2.94490E-005	-5.39641E-002	3.31732E-001	3.57270E+000	9	...........
	80	1.08	3.26953E-001	-8.84644E-005	0.00000E+000	-2.89237E-005	-5.39641E-002	3.26984E-001	3.57270E+000	9	...........
	81	1.09333	3.22243E-001	-8.86467E-005	0.00000E+000	-2.85658E-005	-5.39641E-002	3.22267E-001	3.57270E+000	9	...........
	82	1.10667	3.17538E-001	-8.90208E-005	0.00000E+000	-2.82675E-005	-5.39641E-002	3.17573E-001	3.57270E+000	9	...........
	83	1.12	3.12850E-001	-8.87228E-005	0.00000E+000	-2.77569E-005	-5.39641E-002	3.12882E-001	3.57270E+000	9	...........
	84	1.13333	3.08171E-001	-8.86853E-005	0.00000E+000	-2.73302E-005	-5.39641E-002	3.08203E-001	3.57270E+000	9	...........
	85	1.14667	3.03519E-001	-8.87853E-005	0.00000E+000	-2.69480E-005	-5.39641E-002	3.03546E-001	3.57270E+000	9	...........
	86	1.16	2.98886E-001	-8.85696E-005	0.00000E+000	-2.64722E-005	-5.39641E-002	2.98921E-001	3.57270E+000	9	...........
	87	1.17333	2.94280E-001	-8.87467E-005	0.00000E+000	-2.61164E-005	-5.39641E-002	2.94313E-001	3.57270E+000	9	...........
	88	1.18667	2.89698E-001	-8.86842E-005	0.00000E+000	-2.56916E-005	-5.39641E-002	2.89722E-001	3.57270E+000	9	...........
	89	1.2	2.85124E-001	-8.87686E-005	0.00000E+000	-2.53101E-005	-5.39641E-002	2.85150E-001	3.57270E+000	9	...........
	90	1.21333	2.80575E-001	-8.87665E-005	0.00000E+000	-2.49056E-005	-5.39641E-002	2.80604E-001	3.57270E+000	9	...........
	91	1.22667	2.76058E-001	-8.88280E-005	0.00000E+000	-2.45217E-005	-5.39641E-002	2.76089E-001	3.57270E+000	9	...........
	92	1.24	2.71565E-001	-8.84748E-005	0.00000E+000	-2.40267E-005	-5.39641E-002	2.71591E-001	3.57270E+000	9	...........
	93	1.25333	2.67111E-001	-8.88218E-005	0.00000E+000	-2.37253E-005	-5.39641E-002	2.67142E-001	3.57270E+000	9	...........
	94	1.26667	2.62676E-001	-8.88603E-005	0.00000E+000	-2.33414E-005	-5.39641E-002	2.62711E-001	3.57270E+000	9	...........
	95	1.28	2.58271E-001	-8.86540E-005	0.00000E+000	-2.28967E-005	-5.39641E-002	2.58297E-001	3.57270E+000	9	...........
	96	1.29333	2.53882E-001	-8.87165E-005	0.00000E+000	-2.25235E-005	-5.39641E-002	2.53908E-001	3.57270E+000	9	...........
	97	1.30667	2.49510E-001	-8.86030E-005	0.00000E+000	-2.21074E-005	-5.39641E-002	2.49533E-001	3.57270E+000	9	...........
	98	1.32	2.45154E-001	-8.86551E-005	0.00000E+000	-2.17342E-005	-5.39641E-002	2.45177E-001	3.57270E+000	9	...........
	99	1.33333	2.40816E-001	-8.89009E-005	0.00000E+000	-2.14088E-005	-5.39641E-002	2.40835E-001	3.57270E+000	9	...........
	100	1.34667	2.36500E-001	-8.85498E-005	0.00000E+000	-2.09421E-005	-5.39641E-002	2.36527E-001	3.57270E+000	9	...........
	101	1.36	2.32214E-001	-8.88999E-005	0.00000E+000	-2.06438E-005	-5.39641E-002	2.32233E-001	3.57270E+000	9	...........
	102	1.37333	2.27918E-001	-8.88676E-005	0.00000E+000	-2.02545E-005	-5.39641E-002	2.27938E-001	3.57270E+000	9	...........
	103	1.38667	2.23635E-001	-8.86842E-005	0.00000E+000	-1.98329E-005	-5.39641E-002	2.23661E-001	3.57270E+000	9	...........
	104	1.4	2.19383E-001	-8.85144E-005	0.00000E+000	-1.94186E-005	-5.39641E-002	2.19405E-001	3.57270E+000	9	...........
	105	1.41333	2.15158E-001	-8.87374E-005	0.00000E+000	-1.90925E-005	-5.39641E-002	2.15177E-001	3.57270E+000	9	...........
	106	1.42667	2.10956E-001	-8.85561E-005	0.00000E+000	-1.86814E-005	-5.39641E-002	2.10974E-001	3.57270E+000	9	...........
	107	1.44	2.06775E-001	-8.84675E-005	0.00000E+000	-1.82929E-005	-5.39641E-002	2.06792E-001	3.57270E+000	9	...........
	108	1.45333	2.02628E-001	-8.85780E-005	0.00000E+000	-1.79483E-005	-5.39641E-002	2.02646E-001	3.57270E+000	9	...........
	109	1.46667	1.98476E-001	-8.87457E-005	0.00000E+000	-1.76139E-005	-5.39641E-002	1.98497E-001	3.57270E+000	9	...........
	110	1.48	1.94348E-001	-8.88176E-005	0.00000E+000	-1.72616E-005	-5.39641E-002	1.94366E-001	3.57270E+000	9	...........
	111	1.49333	1.90249E-001	-8.84727E-005	0.00000E+000	-1.68318E-005	-5.39641E-002	1.90270E-001	3.57270E+000	9	...........
	112	1.50667	1.86158E-001	-8.86009E-005	0.00000E+000	-1.64938E-005	-5.39641E-002	1.86175E-001	3.57270E+000	9	...........
	113	1.52	1.82066E-001	-8.86113E-005	0.00000E+000	-1.61331E-005	-5.39641E-002	1.82082E-001	3.57270E+000	9	...........
	114	1.53333	1.77991E-001	-8.86957E-005	0.00000E+000	-1.57871E-005	-5.39641E-002	1.78010E-001	3.57270E+000	9	...........
	115	1.54667	1.73940E-001	-8.86092E-005	0.00000E+000	-1.54127E-005	-5.39641E-002	1.73959E-001	3.57270E+000	9	...........
	116	1.56	1.69910E-001	-8.85988E-005	0.00000E+000	-1.50538E-005	-5.39641E-002	1.69921E-001	3.57270E+000	9	...........
	117	1.57333	1.65883E-001	-8.85425E-005	0.00000E+000	-1.46877E-005	-5.39641E-002	1.65897E-001	3.57270E+000	9	...........
	118	1.58667	1.61877E-001	-8.89864E-005	0.00000E+000	-1.44049E-005	-5.39641E-002	1.61889E-001	3.57270E+000	9	...........
	119	1.6	1.57896E-001	-8.84915E-005	0.00000E+000	-1.39724E-005	-5.39641E-002	1.57907E-001	3.57270E+000	9	...........
	120	1.61333	1.53923E-001	-8.88509E-005	0.00000E+000	-1.36762E-005	-5.39641E-002	1.53933E-001	3.57187E+000	9	...........
	121	1.62667	1.49990E-001	-8.85300E-005	0.00000E+000	-1.32786E-005	-5.39641E-002	1.49997E-001	3.57160E+000	9	...........
	122	1.64	1.46062E-001	-8.87551E-005	0.00000E+000	-1.29638E-005	-5.39641E-002	1.46069E-001	3.57160E+000	9	...........
	123	1.65333	1.42147E-001	-8.85550E-005	0.00000E+000	-1.25878E-005	-5.39641E-002	1.42159E-001	3.57160E+000	9	...........
	124	1.66667	1.38251E-001	-8.88770E-005	0.00000E+000	-1.22873E-005	-5.39641E-002	1.38263E-001	3.57160E+000	9	...........
	125	1.68	1.34358E-001	-8.86707E-005	0.00000E+000	-1.19136E-005	-5.39641E-002	1.34367E-001	3.57160E+000	9	...........
	126	1.69333	1.30482E-001	-8.86842E-005	0.00000E+000	-1.15717E-005	-5.39641E-002	1.30489E-001	3.57160E+000	9	...........
	127	1.70667	1.26601E-001	-8.87103E-005	0.00000E+000	-1.12308E-005	-5.39641E-002	1.26613E-001	3.57160E+000	9	...........
	128	1.72	1.22740E-001	-8.87520E-005	0.00000E+000	-1.08934E-005	-5.39641E-002	1.22752E-001	3.57160E+000	9	...........
	129	1.73333	1.18918E-001	-8.83831E-005	0.00000E+000	-1.05104E-005	-5.39641E-002	1.18930E-001	3.57160E+000	9	...........
	130	1.74667	1.15097E-001	-8.88530E-005	0.00000E+000	-1.02267E-005	-5.39641E-002	1.15105E-001	3.57160E+000	9	...........
	131	1.76	1.11276E-001	-8.89114E-005	0.00000E+000	-9.89367E-006	-5.39641E-002	1.11287E-001	3.57160E+000	9	...........
	132	1.77333	1.07482E-001	-8.87499E-005	0.00000E+000	-9.53898E-006	-5.39641E-002	1.07494E-001	3.57160E+000	9	...........
	133	1.78667	1.03720E-001	-8.87051E-005	0.00000E+000	-9.20052E-006	-5.39641E-002	1.03727E-001	3.57160E+000	9	...........
	134	1.8	9.99619E-002	-8.88155E-005	0.00000E+000	-8.87817E-006	-5.39641E-002	9.99691E-002	3.57160E+000	9	...........
	135	1.81333	9.62182E-002	-8.86551E-005	0.00000E+000	-8.53023E-006	-5.39641E-002	9.62228E-002	3.57160E+000	9	...........
	136	1.82667	9.24874E-002	-8.89124E-005	0.00000E+000	-8.22328E-006	-5.39641E-002	9.24930E-002	3.57160E+000	9	...........
	137	1.84	8.87765E-002	-8.86092E-005	0.00000E+000	-7.86642E-006	-5.39641E-002	8.87773E-002	3.57160E+000	9	...........
	138	1.85333	8.50755E-002	-8.85853E-005	0.00000E+000	-7.53644E-006	-5.39641E-002	8.50827E-002	3.57160E+000	9	...........
	139	1.86667	8.13885E-002	-8.87697E-005	0.00000E+000	-7.22483E-006	-5.39641E-002	8.13927E-002	3.57160E+000	9	...........
	140	1.88	7.77213E-002	-8.86321E-005	0.00000E+000	-6.88861E-006	-5.39641E-002	7.77248E-002	3.57160E+000	9	...........
	141	1.89333	7.40609E-002	-8.85165E-005	0.00000E+000	-6.55561E-006	-5.39641E-002	7.40631E-002	3.57160E+000	9	...........
	142	1.90667	7.03998E-002	-8.84519E-005	0.00000E+000	-6.22699E-006	-5.39641E-002	7.04011E-002	3.57160E+000	9	...........
	143	1.92	6.67699E-002	-8.87447E-005	0.00000E+000	-5.92548E-006	-5.39641E-002	6.67699E-002	3.57160E+000	9	...........
	144	1.93333	6.31589E-002	-8.87311E-005	0.00000E+000	-5.60416E-006	-5.39641E-002	6.31639E-002	3.57160E+000	9	...........
	145	1.94667	5.95560E-002	-8.85800E-005	0.00000E+000	-5.27547E-006	-5.39641E-002	5.95561E-002	3.57160E+000	9	...........
	146	1.96	5.59809E-002	-8.88739E-005	0.00000E+000	-4.97524E-006	-5.39641E-002	5.59783E-002	3.57160E+000	9	...........
	147	1.97333	5.24128E-002	-8.88926E-005	0.00000E+000	-4.65911E-006	-5.39641E-002	5.24088E-002	3.57160E+000	9	...........
	148	1.98667	4.88801E-002	-8.88436E-005	0.00000E+000	-4.34269E-006	-5.39641E-002	4.88785E-002	3.57160E+000	9	...........
	149	2	4.53572E-002	-8.86717E-005	0.00000E+000	-4.02190E-006	-5.39641E-002	4.53695E-002	3.57160E+000	9	...........
	150	2.01333	4.18431E-002	-8.87311E-005	0.00000E+000	-3.71278E-006	-5.39641E-002	4.18509E-002	3.57160E+000	9	...........
	151	2.02667	3.83427E-002	-8.87228E-005	0.00000E+000	-3.40187E-006	-5.39641E-002	3.83516E-002	3.57160E+000	9	...........
	152	2.04	3.48530E-002	-8.87551E-005	0.00000E+000	-3.09338E-006	-5.39641E-002	3.48582E-002	3.57160E+000	9	...........
	153	2.05333	3.13846E-002	-8.87061E-005	0.00000E+000	-2.78400E-006	-5.39641E-002	3.13804E-002	3.57160E+000	9	...........
	154	2.06667	2.79235E-002	-8.87686E-005	0.00000E+000	-2.47873E-006	-5.39641E-002	2.79230E-002	3.57160E+000	9	...........
	155	2.08	2.44740E-002	-8.88166E-005	0.00000E+000	-2.17369E-006	-5.39641E-002	2.44725E-002	3.57160E+000	9	...........
	156	2.09333	2.10364E-002	-8.85884E-005	0.00000E+000	-1.86358E-006	-5.39641E-002	2.10301E-002	3.57160E+000	9	...........
	157	2.10667	1.76148E-002	-8.86394E-005	0.00000E+000	-1.56137E-006	-5.39641E-002	1.76128E-002	3.57160E+000	9	...........
	158	2.12	1.42227E-002	-8.85321E-005	0.00000E+000	-1.25916E-006	-5.39641E-002	1.42158E-002	3.57160E+000	9	...........
	159	2.13333	1.08562E-002	-8.86967E-005	0.00000E+000	-9.62906E-007	-5.39641E-002	1.08459E-002	3.57160E+000	9	...........
	160	2.14667	7.49979E-003	-8.86238E-005	0.00000E+000	-6.64660E-007	-5.39641E-002	7.49243E-003	3.57160E+000	9	...........
	161	2.16	4.19883E-003	-8.88113E-005	0.00000E+000	-3.72904E-007	-5.39641E-002	4.18603E-003	3.57160E+000	9	...........
	162	2.17167	1.11735E-003	-8.89583E-005	0.00000E+000	-9.93979E-008	-5.39641E-002	1.10625E-003	3.57160E+000	9	...........
STARTTIMEOFFSET	QUANT	608.3383	Start Time Offset (s)
