EXPLAIN
TAG	PWR800_DISCHARGE
TITLE	LABEL	PWR Cyclic Charge Discharge (Cell) - Discharge Step	Test &Identifier
DATE	LABEL	10-7-2017	Date
TIME	LABEL	15:01:02	Time
NOTES	NOTES	3	&Notes...
	supercap test cell
	0.9mg
	6M KOH
PSTAT	PSTAT	IFC5000-01520	Potentiostat
CAPACITY	QUANT	1.00000E-003	Capacity (A-hr)
CELLTYPE	SELECTOR	1	&Cell Type
WORKINGCONNECTION	SELECTOR	0	&Working Lead
MAXDISCHARGETIME	VARIABLEANDUNITS	1.00000E+002	s	1.00000E+002	second(s)	Max &Discharge Time
DISCHARGEMODE	MULTIPARAM	0	9.00000E-005	&Discharge Mode	Constant Current	Amp(s)
SAMPLETIME	QUANT	1.00000E-002	Sa&mple Period (s)
DISCHARGESTOPAT1	MULTIPARAM	3	0.00000E+000	Discharge Stop At &1	Voltage < Limit	V
DISCHARGESTOPAT2	MULTIPARAM	0	0.00000E+000	Discharge Stop At &2	None	N/A
AESBHCSELECTOR	TOGGLE	F	Save Both Half Cells
IRCOMP	TOGGLE	F	IR &Measure
EOC	QUANT	0	Open Circuit (V)
SEQUENCER	TOGGLE	TRUE	Run as Sequence
PSTATMODEL	IQUANT	53	Pstat Model
PSTATSECTION	LABEL	IFC5000-01520	Pstat Section
PSTATSERIALNO	LABEL	01520	Pstat Serial Number
CTRLMODE	IQUANT	0	Control Mode
ELECTROMETER	IQUANT	1	RE=0 or CS=1
IESTAB	IQUANT	0	I/E Stability
CASPEED	IQUANT	4	Control Amp Speed
CONVENTION	IQUANT	1	Current Convention
ICHRANGE	IQUANT	2	Ich Range
ICHRANGEMODE	TOGGLE	T	Ich Auto Range
ICHOFFSETENABLE	TOGGLE	F	Ich Offset Enable
ICHOFFSET	QUANT	0	Ich Offset (V)
ICHFILTER	IQUANT	1	Ich Filter
VCHRANGE	IQUANT	2	Vch Range
VCHRANGEMODE	TOGGLE	T	Vch Auto Range
VCHOFFSETENABLE	TOGGLE	F	Vch Offset Enable
VCHOFFSET	QUANT	0	Vch Offset (V)
VCHFILTER	IQUANT	1	Vch Filter
IERANGELOWERLIMIT	IQUANT	9	I/E Range Lower Limit
IERANGEMODE	TOGGLE	F	I/E AutoRange
IERANGE	IQUANT	9	I/E Range
ACHSELECT	IQUANT	1	Ach Select
ACHRANGE	IQUANT	2	Ach Range
ACHOFFSETENABLE	TOGGLE	F	Ach Offset Enable
ACHOFFSET	QUANT	0	Ach Offset (V)
ACHFILTER	IQUANT	1	Ach Filter
CABLEID	IQUANT	14	Cable ID
DCCALDATE	LABEL	5-7-2017	DC Calibration Date
ACCALDATE	LABEL	12/3/2015	AC Calibration Date
FRAMEWORKVERSION	QUANT	7.01	Framework Version
INSTRUMENTVERSION	LABEL	4.00	Instrument Version
CURVE	TABLE	178
	Pt	T	Vf	Im	Vu	Pwr	Sig	Ach	Temp	IERange	Over
	#	s	V	A	V	W	V	V	deg C	#	bits
	0	0.013333	8.54505E-001	-8.86811E-005	0.00000E+000	-7.57784E-005	-5.39641E-002	8.54636E-001	3.57120E+000	9	...........
	1	0.026667	8.44277E-001	-8.84498E-005	0.00000E+000	-7.46762E-005	-5.39641E-002	8.44407E-001	3.57120E+000	9	...........
	2	0.04	8.34585E-001	-8.87061E-005	0.00000E+000	-7.40328E-005	-5.39641E-002	8.34736E-001	3.57120E+000	9	...........
	3	0.053333	8.25331E-001	-8.87113E-005	0.00000E+000	-7.32162E-005	-5.39641E-002	8.25461E-001	3.57120E+000	9	...........
	4	0.066667	8.16366E-001	-8.86051E-005	0.00000E+000	-7.23341E-005	-5.39641E-002	8.16511E-001	3.57120E+000	9	...........
	5	0.08	8.07714E-001	-8.84144E-005	0.00000E+000	-7.14135E-005	-5.39641E-002	8.07818E-001	3.57120E+000	9	...........
	6	0.093333	7.99309E-001	-8.86978E-005	0.00000E+000	-7.08970E-005	-5.39641E-002	7.99391E-001	3.57120E+000	9	...........
	7	0.106667	7.91058E-001	-8.84321E-005	0.00000E+000	-6.99549E-005	-5.39641E-002	7.91175E-001	3.57120E+000	9	...........
	8	0.12	7.83047E-001	-8.86947E-005	0.00000E+000	-6.94521E-005	-5.39641E-002	7.83116E-001	3.57120E+000	9	...........
	9	0.133333	7.75174E-001	-8.84873E-005	0.00000E+000	-6.85931E-005	-5.39641E-002	7.75271E-001	3.57120E+000	9	...........
	10	0.146667	7.67438E-001	-8.83060E-005	0.00000E+000	-6.77694E-005	-5.39641E-002	7.67557E-001	3.57120E+000	9	...........
	11	0.16	7.59892E-001	-8.84852E-005	0.00000E+000	-6.72392E-005	-5.39641E-002	7.59977E-001	3.57120E+000	9	...........
	12	0.173333	7.52446E-001	-8.89062E-005	0.00000E+000	-6.68971E-005	-5.39641E-002	7.52527E-001	3.57120E+000	9	...........
	13	0.186667	7.45148E-001	-8.85936E-005	0.00000E+000	-6.60153E-005	-5.39641E-002	7.45213E-001	3.57120E+000	9	...........
	14	0.2	7.37907E-001	-8.83821E-005	0.00000E+000	-6.52177E-005	-5.39641E-002	7.38004E-001	3.57120E+000	9	...........
	15	0.213333	7.30838E-001	-8.85227E-005	0.00000E+000	-6.46958E-005	-5.39641E-002	7.30908E-001	3.57120E+000	9	...........
	16	0.226667	7.23871E-001	-8.84884E-005	0.00000E+000	-6.40542E-005	-5.39641E-002	7.23926E-001	3.57120E+000	9	...........
	17	0.24	7.16941E-001	-8.86342E-005	0.00000E+000	-6.35455E-005	-5.39641E-002	7.17021E-001	3.57120E+000	9	...........
	18	0.253333	7.10140E-001	-8.85623E-005	0.00000E+000	-6.28917E-005	-5.39641E-002	7.10204E-001	3.57120E+000	9	...........
	19	0.266667	7.03426E-001	-8.85884E-005	0.00000E+000	-6.23154E-005	-5.39641E-002	7.03476E-001	3.57120E+000	9	...........
	20	0.28	6.96765E-001	-8.86071E-005	0.00000E+000	-6.17384E-005	-5.39641E-002	6.96825E-001	3.57120E+000	9	...........
	21	0.293333	6.90171E-001	-8.86269E-005	0.00000E+000	-6.11678E-005	-5.39641E-002	6.90238E-001	3.57120E+000	9	...........
	22	0.306667	6.83707E-001	-8.86103E-005	0.00000E+000	-6.05834E-005	-5.39641E-002	6.83744E-001	3.57120E+000	9	...........
	23	0.32	6.77278E-001	-8.87499E-005	0.00000E+000	-6.01083E-005	-5.39641E-002	6.77327E-001	3.57120E+000	9	...........
	24	0.333333	6.70912E-001	-8.86478E-005	0.00000E+000	-5.94748E-005	-5.39641E-002	6.70968E-001	3.57120E+000	9	...........
	25	0.346667	6.64581E-001	-8.85571E-005	0.00000E+000	-5.88534E-005	-5.39641E-002	6.64675E-001	3.57120E+000	9	...........
	26	0.36	6.58349E-001	-8.87342E-005	0.00000E+000	-5.84181E-005	-5.39641E-002	6.58427E-001	3.57120E+000	9	...........
	27	0.373333	6.52160E-001	-8.84456E-005	0.00000E+000	-5.76807E-005	-5.39641E-002	6.52236E-001	3.57120E+000	9	...........
	28	0.386667	6.46029E-001	-8.86728E-005	0.00000E+000	-5.72852E-005	-5.39641E-002	6.46097E-001	3.57120E+000	9	...........
	29	0.4	6.39929E-001	-8.88145E-005	0.00000E+000	-5.68350E-005	-5.39641E-002	6.40021E-001	3.57120E+000	9	...........
	30	0.413333	6.33874E-001	-8.85092E-005	0.00000E+000	-5.61037E-005	-5.39641E-002	6.33959E-001	3.57120E+000	9	...........
	31	0.426667	6.27920E-001	-8.84873E-005	0.00000E+000	-5.55629E-005	-5.39641E-002	6.28004E-001	3.57120E+000	9	...........
	32	0.44	6.22001E-001	-8.85602E-005	0.00000E+000	-5.50846E-005	-5.39641E-002	6.22046E-001	3.57120E+000	9	...........
	33	0.453333	6.16080E-001	-8.86342E-005	0.00000E+000	-5.46058E-005	-5.39641E-002	6.16173E-001	3.57120E+000	9	...........
	34	0.466667	6.10169E-001	-8.86467E-005	0.00000E+000	-5.40895E-005	-5.39641E-002	6.10277E-001	3.57120E+000	9	...........
	35	0.48	6.04369E-001	-8.87217E-005	0.00000E+000	-5.36206E-005	-5.39641E-002	6.04472E-001	3.57120E+000	9	...........
	36	0.493333	5.98599E-001	-8.86519E-005	0.00000E+000	-5.30669E-005	-5.39641E-002	5.98695E-001	3.57120E+000	9	...........
	37	0.506667	5.92842E-001	-8.86269E-005	0.00000E+000	-5.25417E-005	-5.39641E-002	5.92931E-001	3.57120E+000	9	...........
	38	0.52	5.87098E-001	-8.86405E-005	0.00000E+000	-5.20407E-005	-5.39641E-002	5.87216E-001	3.57120E+000	9	...........
	39	0.533333	5.81410E-001	-8.86144E-005	0.00000E+000	-5.15213E-005	-5.39641E-002	5.81510E-001	3.57120E+000	9	...........
	40	0.546667	5.75734E-001	-8.85394E-005	0.00000E+000	-5.09752E-005	-5.39641E-002	5.75823E-001	3.57120E+000	9	...........
	41	0.56	5.70122E-001	-8.86426E-005	0.00000E+000	-5.05371E-005	-5.39641E-002	5.70180E-001	3.57120E+000	9	...........
	42	0.573333	5.64526E-001	-8.83915E-005	0.00000E+000	-4.98993E-005	-5.39641E-002	5.64628E-001	3.57120E+000	9	...........
	43	0.586667	5.58926E-001	-8.85280E-005	0.00000E+000	-4.94805E-005	-5.39641E-002	5.59025E-001	3.57120E+000	9	...........
	44	0.6	5.53363E-001	-8.84800E-005	0.00000E+000	-4.89616E-005	-5.39641E-002	5.53465E-001	3.57120E+000	9	...........
	45	0.613333	5.47861E-001	-8.85988E-005	0.00000E+000	-4.85399E-005	-5.39641E-002	5.47926E-001	3.57120E+000	9	...........
	46	0.626667	5.42363E-001	-8.85634E-005	0.00000E+000	-4.80335E-005	-5.39641E-002	5.42431E-001	3.57120E+000	9	...........
	47	0.64	5.36857E-001	-8.84404E-005	0.00000E+000	-4.74799E-005	-5.39641E-002	5.36931E-001	3.57120E+000	9	...........
	48	0.653333	5.31417E-001	-8.86457E-005	0.00000E+000	-4.71078E-005	-5.39641E-002	5.31484E-001	3.57120E+000	9	...........
	49	0.666667	5.25990E-001	-8.86196E-005	0.00000E+000	-4.66130E-005	-5.39641E-002	5.26061E-001	3.57120E+000	9	...........
	50	0.68	5.20598E-001	-8.87342E-005	0.00000E+000	-4.61948E-005	-5.39641E-002	5.20641E-001	3.57120E+000	9	...........
	51	0.693333	5.15218E-001	-8.87926E-005	0.00000E+000	-4.57476E-005	-5.39641E-002	5.15275E-001	3.57120E+000	9	...........
	52	0.706667	5.09834E-001	-8.84373E-005	0.00000E+000	-4.50883E-005	-5.39641E-002	5.09904E-001	3.57120E+000	9	...........
	53	0.72	5.04499E-001	-8.85634E-005	0.00000E+000	-4.46801E-005	-5.39641E-002	5.04573E-001	3.57120E+000	9	...........
	54	0.733333	4.99203E-001	-8.87363E-005	0.00000E+000	-4.42975E-005	-5.39641E-002	4.99271E-001	3.57120E+000	9	...........
	55	0.746667	4.93918E-001	-8.86165E-005	0.00000E+000	-4.37693E-005	-5.39641E-002	4.93978E-001	3.57120E+000	9	...........
	56	0.76	4.88677E-001	-8.87790E-005	0.00000E+000	-4.33843E-005	-5.39641E-002	4.88719E-001	3.57120E+000	9	...........
	57	0.773333	4.83434E-001	-8.87509E-005	0.00000E+000	-4.29052E-005	-5.39641E-002	4.83498E-001	3.57210E+000	9	...........
	58	0.786667	4.78224E-001	-8.85144E-005	0.00000E+000	-4.23297E-005	-5.39641E-002	4.78266E-001	3.57210E+000	9	...........
	59	0.8	4.73024E-001	-8.87645E-005	0.00000E+000	-4.19877E-005	-5.39641E-002	4.73069E-001	3.57210E+000	9	...........
	60	0.813333	4.67848E-001	-8.86749E-005	0.00000E+000	-4.14864E-005	-5.39641E-002	4.67894E-001	3.57210E+000	9	...........
	61	0.826667	4.62690E-001	-8.86665E-005	0.00000E+000	-4.10251E-005	-5.39641E-002	4.62733E-001	3.57210E+000	9	...........
	62	0.84	4.57554E-001	-8.83706E-005	0.00000E+000	-4.04344E-005	-5.39641E-002	4.57597E-001	3.57210E+000	9	...........
	63	0.853333	4.52448E-001	-8.86373E-005	0.00000E+000	-4.01038E-005	-5.39641E-002	4.52486E-001	3.57210E+000	9	...........
	64	0.866667	4.47345E-001	-8.85227E-005	0.00000E+000	-3.96002E-005	-5.39641E-002	4.47390E-001	3.57210E+000	9	...........
	65	0.88	4.42264E-001	-8.85446E-005	0.00000E+000	-3.91601E-005	-5.39641E-002	4.42307E-001	3.57210E+000	9	...........
	66	0.893333	4.37204E-001	-8.84977E-005	0.00000E+000	-3.86915E-005	-5.39641E-002	4.37244E-001	3.57210E+000	9	...........
	67	0.906667	4.32173E-001	-8.84925E-005	0.00000E+000	-3.82441E-005	-5.39641E-002	4.32213E-001	3.57210E+000	9	...........
	68	0.92	4.27173E-001	-8.87197E-005	0.00000E+000	-3.78986E-005	-5.39641E-002	4.27216E-001	3.57210E+000	9	...........
	69	0.933333	4.22196E-001	-8.84373E-005	0.00000E+000	-3.73379E-005	-5.39641E-002	4.22236E-001	3.57210E+000	9	...........
	70	0.946667	4.17243E-001	-8.87478E-005	0.00000E+000	-3.70294E-005	-5.39641E-002	4.17284E-001	3.57210E+000	9	...........
	71	0.96	4.12322E-001	-8.86905E-005	0.00000E+000	-3.65691E-005	-5.39641E-002	4.12361E-001	3.57210E+000	9	...........
	72	0.97333	4.07441E-001	-8.85655E-005	0.00000E+000	-3.60852E-005	-5.39641E-002	4.07469E-001	3.57210E+000	9	...........
	73	0.98667	4.02571E-001	-8.86207E-005	0.00000E+000	-3.56761E-005	-5.39641E-002	4.02604E-001	3.57210E+000	9	...........
	74	1	3.97729E-001	-8.84467E-005	0.00000E+000	-3.51778E-005	-5.39641E-002	3.97760E-001	3.57210E+000	9	...........
	75	1.01333	3.92900E-001	-8.85384E-005	0.00000E+000	-3.47868E-005	-5.39641E-002	3.92931E-001	3.57210E+000	9	...........
	76	1.02667	3.88096E-001	-8.83050E-005	0.00000E+000	-3.42708E-005	-5.39641E-002	3.88126E-001	3.57210E+000	9	...........
	77	1.04	3.83301E-001	-8.84665E-005	0.00000E+000	-3.39093E-005	-5.39641E-002	3.83332E-001	3.57210E+000	9	...........
	78	1.05333	3.78531E-001	-8.84957E-005	0.00000E+000	-3.34983E-005	-5.39641E-002	3.78568E-001	3.57210E+000	9	...........
	79	1.06667	3.73796E-001	-8.86165E-005	0.00000E+000	-3.31245E-005	-5.39641E-002	3.73818E-001	3.57210E+000	9	...........
	80	1.08	3.69077E-001	-8.85832E-005	0.00000E+000	-3.26940E-005	-5.39641E-002	3.69101E-001	3.57210E+000	9	...........
	81	1.09333	3.64391E-001	-8.82185E-005	0.00000E+000	-3.21460E-005	-5.39641E-002	3.64418E-001	3.57210E+000	9	...........
	82	1.10667	3.59717E-001	-8.86196E-005	0.00000E+000	-3.18780E-005	-5.39641E-002	3.59750E-001	3.57210E+000	9	...........
	83	1.12	3.55078E-001	-8.85092E-005	0.00000E+000	-3.14276E-005	-5.39641E-002	3.55106E-001	3.57210E+000	9	...........
	84	1.13333	3.50477E-001	-8.86155E-005	0.00000E+000	-3.10577E-005	-5.39641E-002	3.50497E-001	3.57210E+000	9	...........
	85	1.14667	3.45898E-001	-8.84311E-005	0.00000E+000	-3.05882E-005	-5.39641E-002	3.45926E-001	3.57210E+000	9	...........
	86	1.16	3.41341E-001	-8.86457E-005	0.00000E+000	-3.02584E-005	-5.39641E-002	3.41368E-001	3.57210E+000	9	...........
	87	1.17333	3.36816E-001	-8.88322E-005	0.00000E+000	-2.99201E-005	-5.39641E-002	3.36844E-001	3.57210E+000	9	...........
	88	1.18667	3.32300E-001	-8.84394E-005	0.00000E+000	-2.93884E-005	-5.39641E-002	3.32326E-001	3.57210E+000	9	...........
	89	1.2	3.27816E-001	-8.85821E-005	0.00000E+000	-2.90387E-005	-5.39641E-002	3.27837E-001	3.57210E+000	9	...........
	90	1.21333	3.23343E-001	-8.87301E-005	0.00000E+000	-2.86903E-005	-5.39641E-002	3.23370E-001	3.57210E+000	9	...........
	91	1.22667	3.18889E-001	-8.83946E-005	0.00000E+000	-2.81881E-005	-5.39641E-002	3.18909E-001	3.57210E+000	9	...........
	92	1.24	3.14446E-001	-8.84404E-005	0.00000E+000	-2.78098E-005	-5.39641E-002	3.14475E-001	3.57210E+000	9	...........
	93	1.25333	3.10046E-001	-8.88145E-005	0.00000E+000	-2.75365E-005	-5.39641E-002	3.10070E-001	3.57210E+000	9	...........
	94	1.26667	3.05662E-001	-8.85082E-005	0.00000E+000	-2.70536E-005	-5.39641E-002	3.05692E-001	3.57210E+000	9	...........
	95	1.28	3.01313E-001	-8.86509E-005	0.00000E+000	-2.67117E-005	-5.39641E-002	3.01336E-001	3.57210E+000	9	...........
	96	1.29333	2.96958E-001	-8.86509E-005	0.00000E+000	-2.63256E-005	-5.39641E-002	2.96987E-001	3.57210E+000	9	...........
	97	1.30667	2.92638E-001	-8.85269E-005	0.00000E+000	-2.59064E-005	-5.39641E-002	2.92666E-001	3.57210E+000	9	...........
	98	1.32	2.88338E-001	-8.85582E-005	0.00000E+000	-2.55347E-005	-5.39641E-002	2.88363E-001	3.57210E+000	9	...........
	99	1.33333	2.84074E-001	-8.89437E-005	0.00000E+000	-2.52666E-005	-5.39641E-002	2.84098E-001	3.57210E+000	9	...........
	100	1.34667	2.79831E-001	-8.86509E-005	0.00000E+000	-2.48072E-005	-5.39641E-002	2.79853E-001	3.57210E+000	9	...........
	101	1.36	2.75606E-001	-8.83060E-005	0.00000E+000	-2.43376E-005	-5.39641E-002	2.75637E-001	3.57210E+000	9	...........
	102	1.37333	2.71406E-001	-8.85019E-005	0.00000E+000	-2.40199E-005	-5.39641E-002	2.71429E-001	3.57210E+000	9	...........
	103	1.38667	2.67216E-001	-8.88645E-005	0.00000E+000	-2.37460E-005	-5.39641E-002	2.67241E-001	3.57210E+000	9	...........
	104	1.4	2.63053E-001	-8.86957E-005	0.00000E+000	-2.33317E-005	-5.39641E-002	2.63082E-001	3.57210E+000	9	...........
	105	1.41333	2.58913E-001	-8.85082E-005	0.00000E+000	-2.29159E-005	-5.39641E-002	2.58938E-001	3.57210E+000	9	...........
	106	1.42667	2.54792E-001	-8.86248E-005	0.00000E+000	-2.25809E-005	-5.39641E-002	2.54819E-001	3.57210E+000	9	...........
	107	1.44	2.50683E-001	-8.87457E-005	0.00000E+000	-2.22471E-005	-5.39641E-002	2.50706E-001	3.57210E+000	9	...........
	108	1.45333	2.46602E-001	-8.85978E-005	0.00000E+000	-2.18484E-005	-5.39641E-002	2.46628E-001	3.57210E+000	9	...........
	109	1.46667	2.42536E-001	-8.83998E-005	0.00000E+000	-2.14401E-005	-5.39641E-002	2.42552E-001	3.57210E+000	9	...........
	110	1.48	2.38490E-001	-8.85373E-005	0.00000E+000	-2.11153E-005	-5.39641E-002	2.38508E-001	3.57210E+000	9	...........
	111	1.49333	2.34457E-001	-8.87072E-005	0.00000E+000	-2.07980E-005	-5.39641E-002	2.34479E-001	3.57210E+000	9	...........
	112	1.50667	2.30431E-001	-8.85082E-005	0.00000E+000	-2.03950E-005	-5.39641E-002	2.30451E-001	3.57210E+000	9	...........
	113	1.52	2.26418E-001	-8.85217E-005	0.00000E+000	-2.00429E-005	-5.39641E-002	2.26435E-001	3.57210E+000	9	...........
	114	1.53333	2.22418E-001	-8.84050E-005	0.00000E+000	-1.96628E-005	-5.39641E-002	2.22434E-001	3.57210E+000	9	...........
	115	1.54667	2.18429E-001	-8.87457E-005	0.00000E+000	-1.93847E-005	-5.39641E-002	2.18446E-001	3.57210E+000	9	...........
	116	1.56	2.14449E-001	-8.85644E-005	0.00000E+000	-1.89925E-005	-5.39641E-002	2.14468E-001	3.57210E+000	9	...........
	117	1.57333	2.10504E-001	-8.86176E-005	0.00000E+000	-1.86544E-005	-5.39641E-002	2.10517E-001	3.57210E+000	9	...........
	118	1.58667	2.06581E-001	-8.86769E-005	0.00000E+000	-1.83190E-005	-5.39641E-002	2.06590E-001	3.57210E+000	9	...........
	119	1.6	2.02657E-001	-8.85602E-005	0.00000E+000	-1.79473E-005	-5.39641E-002	2.02674E-001	3.57210E+000	9	...........
	120	1.61333	1.98762E-001	-8.87238E-005	0.00000E+000	-1.76350E-005	-5.39641E-002	1.98775E-001	3.57210E+000	9	...........
	121	1.62667	1.94888E-001	-8.85154E-005	0.00000E+000	-1.72506E-005	-5.39641E-002	1.94901E-001	3.57210E+000	9	...........
	122	1.64	1.91029E-001	-8.84706E-005	0.00000E+000	-1.69005E-005	-5.39641E-002	1.91040E-001	3.57210E+000	9	...........
	123	1.65333	1.87160E-001	-8.87447E-005	0.00000E+000	-1.66094E-005	-5.39641E-002	1.87166E-001	3.57210E+000	9	...........
	124	1.66667	1.83301E-001	-8.87853E-005	0.00000E+000	-1.62744E-005	-5.39641E-002	1.83314E-001	3.57210E+000	9	...........
	125	1.68	1.79459E-001	-8.87353E-005	0.00000E+000	-1.59243E-005	-5.39641E-002	1.79476E-001	3.57210E+000	9	...........
	126	1.69333	1.75636E-001	-8.85457E-005	0.00000E+000	-1.55518E-005	-5.39641E-002	1.75650E-001	3.57210E+000	9	...........
	127	1.70667	1.71825E-001	-8.83904E-005	0.00000E+000	-1.51877E-005	-5.39641E-002	1.71837E-001	3.57210E+000	9	...........
	128	1.72	1.68026E-001	-8.83602E-005	0.00000E+000	-1.48468E-005	-5.39641E-002	1.68039E-001	3.57210E+000	9	...........
	129	1.73333	1.64248E-001	-8.87134E-005	0.00000E+000	-1.45710E-005	-5.39641E-002	1.64257E-001	3.57210E+000	9	...........
	130	1.74667	1.60483E-001	-8.85905E-005	0.00000E+000	-1.42173E-005	-5.39641E-002	1.60495E-001	3.57210E+000	9	...........
	131	1.76	1.56719E-001	-8.86123E-005	0.00000E+000	-1.38872E-005	-5.39641E-002	1.56726E-001	3.57210E+000	9	...........
	132	1.77333	1.52995E-001	-8.86405E-005	0.00000E+000	-1.35616E-005	-5.39641E-002	1.52999E-001	3.57150E+000	9	...........
	133	1.78667	1.49284E-001	-8.83998E-005	0.00000E+000	-1.31966E-005	-5.39641E-002	1.49291E-001	3.57150E+000	9	...........
	134	1.8	1.45586E-001	-8.87540E-005	0.00000E+000	-1.29213E-005	-5.39641E-002	1.45592E-001	3.57150E+000	9	...........
	135	1.81333	1.41884E-001	-8.85394E-005	0.00000E+000	-1.25623E-005	-5.39641E-002	1.41897E-001	3.57150E+000	9	...........
	136	1.82667	1.38187E-001	-8.84894E-005	0.00000E+000	-1.22281E-005	-5.39641E-002	1.38193E-001	3.57150E+000	9	...........
	137	1.84	1.34501E-001	-8.87124E-005	0.00000E+000	-1.19319E-005	-5.39641E-002	1.34506E-001	3.57150E+000	9	...........
	138	1.85333	1.30832E-001	-8.85186E-005	0.00000E+000	-1.15810E-005	-5.39641E-002	1.30837E-001	3.57150E+000	9	...........
	139	1.86667	1.27185E-001	-8.86196E-005	0.00000E+000	-1.12710E-005	-5.39641E-002	1.27192E-001	3.57150E+000	9	...........
	140	1.88	1.23544E-001	-8.89218E-005	0.00000E+000	-1.09857E-005	-5.39641E-002	1.23549E-001	3.57150E+000	9	...........
	141	1.89333	1.19933E-001	-8.85727E-005	0.00000E+000	-1.06228E-005	-5.39641E-002	1.19939E-001	3.57150E+000	9	...........
	142	1.90667	1.16327E-001	-8.86051E-005	0.00000E+000	-1.03071E-005	-5.39641E-002	1.16335E-001	3.57150E+000	9	...........
	143	1.92	1.12740E-001	-8.87655E-005	0.00000E+000	-1.00075E-005	-5.39641E-002	1.12743E-001	3.57150E+000	9	...........
	144	1.93333	1.09139E-001	-8.87040E-005	0.00000E+000	-9.68105E-006	-5.39641E-002	1.09151E-001	3.57150E+000	9	...........
	145	1.94667	1.05540E-001	-8.85154E-005	0.00000E+000	-9.34190E-006	-5.39641E-002	1.05546E-001	3.57150E+000	9	...........
	146	1.96	1.01973E-001	-8.85727E-005	0.00000E+000	-9.03204E-006	-5.39641E-002	1.01975E-001	3.57150E+000	9	...........
	147	1.97333	9.84143E-002	-8.88270E-005	0.00000E+000	-8.74184E-006	-5.39641E-002	9.84228E-002	3.57150E+000	9	...........
	148	1.98667	9.48764E-002	-8.84884E-005	0.00000E+000	-8.39546E-006	-5.39641E-002	9.48796E-002	3.57150E+000	9	...........
	149	2	9.13478E-002	-8.85571E-005	0.00000E+000	-8.08950E-006	-5.39641E-002	9.13562E-002	3.57150E+000	9	...........
	150	2.01333	8.78517E-002	-8.86853E-005	0.00000E+000	-7.79115E-006	-5.39641E-002	8.78538E-002	3.57150E+000	9	...........
	151	2.02667	8.43809E-002	-8.84790E-005	0.00000E+000	-7.46594E-006	-5.39641E-002	8.43741E-002	3.57150E+000	9	...........
	152	2.04	8.08968E-002	-8.86238E-005	0.00000E+000	-7.16939E-006	-5.39641E-002	8.08941E-002	3.57150E+000	9	...........
	153	2.05333	7.74224E-002	-8.88207E-005	0.00000E+000	-6.87671E-006	-5.39641E-002	7.74159E-002	3.57150E+000	9	...........
	154	2.06667	7.39644E-002	-8.85196E-005	0.00000E+000	-6.54730E-006	-5.39641E-002	7.39602E-002	3.57150E+000	9	...........
	155	2.08	7.05297E-002	-8.85988E-005	0.00000E+000	-6.24885E-006	-5.39641E-002	7.05270E-002	3.57150E+000	9	...........
	156	2.09333	6.71118E-002	-8.88207E-005	0.00000E+000	-5.96092E-006	-5.39641E-002	6.71132E-002	3.57150E+000	9	...........
	157	2.10667	6.37094E-002	-8.86780E-005	0.00000E+000	-5.64962E-006	-5.39641E-002	6.37052E-002	3.57150E+000	9	...........
	158	2.12	6.03132E-002	-8.86561E-005	0.00000E+000	-5.34713E-006	-5.39641E-002	6.03139E-002	3.57150E+000	9	...........
	159	2.13333	5.69362E-002	-8.85488E-005	0.00000E+000	-5.04163E-006	-5.39641E-002	5.69317E-002	3.57150E+000	9	...........
	160	2.14667	5.35807E-002	-8.84383E-005	0.00000E+000	-4.73859E-006	-5.39641E-002	5.35800E-002	3.57150E+000	9	...........
	161	2.16	5.02521E-002	-8.86363E-005	0.00000E+000	-4.45416E-006	-5.39641E-002	5.02505E-002	3.57150E+000	9	...........
	162	2.17333	4.69794E-002	-8.89322E-005	0.00000E+000	-4.17798E-006	-5.39641E-002	4.69851E-002	3.57150E+000	9	...........
	163	2.18667	4.37007E-002	-8.88061E-005	0.00000E+000	-3.88089E-006	-5.39641E-002	4.37108E-002	3.57150E+000	9	...........
	164	2.2	4.04311E-002	-8.85467E-005	0.00000E+000	-3.58004E-006	-5.39641E-002	4.04347E-002	3.57150E+000	9	...........
	165	2.21333	3.71809E-002	-8.86415E-005	0.00000E+000	-3.29577E-006	-5.39641E-002	3.71895E-002	3.57150E+000	9	...........
	166	2.22667	3.39607E-002	-8.83508E-005	0.00000E+000	-3.00046E-006	-5.39641E-002	3.39632E-002	3.57150E+000	9	...........
	167	2.24	3.07600E-002	-8.85102E-005	0.00000E+000	-2.72257E-006	-5.39641E-002	3.07580E-002	3.57150E+000	9	...........
	168	2.25333	2.75965E-002	-8.85259E-005	0.00000E+000	-2.44301E-006	-5.39641E-002	2.75985E-002	3.57150E+000	9	...........
	169	2.26667	2.44550E-002	-8.84165E-005	0.00000E+000	-2.16223E-006	-5.39641E-002	2.44529E-002	3.57150E+000	9	...........
	170	2.28	2.13077E-002	-8.86405E-005	0.00000E+000	-1.88873E-006	-5.39641E-002	2.13099E-002	3.57150E+000	9	...........
	171	2.29333	1.82029E-002	-8.88228E-005	0.00000E+000	-1.61683E-006	-5.39641E-002	1.81909E-002	3.57150E+000	9	...........
	172	2.30667	1.51073E-002	-8.88061E-005	0.00000E+000	-1.34162E-006	-5.39641E-002	1.50998E-002	3.57150E+000	9	...........
	173	2.32	1.20204E-002	-8.87009E-005	0.00000E+000	-1.06622E-006	-5.39641E-002	1.20098E-002	3.57150E+000	9	...........
	174	2.33333	8.96294E-003	-8.85602E-005	0.00000E+000	-7.93761E-007	-5.39641E-002	8.95337E-003	3.57150E+000	9	...........
	175	2.34667	5.93788E-003	-8.86686E-005	0.00000E+000	-5.26504E-007	-5.39641E-002	5.92808E-003	3.57150E+000	9	...........
	176	2.36	2.91304E-003	-8.85727E-005	0.00000E+000	-2.58016E-007	-5.39641E-002	2.89731E-003	3.57150E+000	9	...........
	177	2.36833	4.70184E-004	-8.84848E-005	0.00000E+000	-4.16041E-008	-5.39641E-002	4.55125E-004	3.57150E+000	9	...........
STARTTIMEOFFSET	QUANT	89.49168	Start Time Offset (s)
