EXPLAIN
TAG	PWR800_DISCHARGE
TITLE	LABEL	PWR Cyclic Charge Discharge (Cell) - Discharge Step	Test &Identifier
DATE	LABEL	10-7-2017	Date
TIME	LABEL	15:10:13	Time
NOTES	NOTES	3	&Notes...
	supercap test cell
	0.9mg
	6M KOH
PSTAT	PSTAT	IFC5000-01520	Potentiostat
CAPACITY	QUANT	1.00000E-003	Capacity (A-hr)
CELLTYPE	SELECTOR	1	&Cell Type
WORKINGCONNECTION	SELECTOR	0	&Working Lead
MAXDISCHARGETIME	VARIABLEANDUNITS	1.00000E+002	s	1.00000E+002	second(s)	Max &Discharge Time
DISCHARGEMODE	MULTIPARAM	0	9.00000E-005	&Discharge Mode	Constant Current	Amp(s)
SAMPLETIME	QUANT	1.00000E-002	Sa&mple Period (s)
DISCHARGESTOPAT1	MULTIPARAM	3	0.00000E+000	Discharge Stop At &1	Voltage < Limit	V
DISCHARGESTOPAT2	MULTIPARAM	0	0.00000E+000	Discharge Stop At &2	None	N/A
AESBHCSELECTOR	TOGGLE	F	Save Both Half Cells
IRCOMP	TOGGLE	F	IR &Measure
EOC	QUANT	0	Open Circuit (V)
SEQUENCER	TOGGLE	TRUE	Run as Sequence
PSTATMODEL	IQUANT	53	Pstat Model
PSTATSECTION	LABEL	IFC5000-01520	Pstat Section
PSTATSERIALNO	LABEL	01520	Pstat Serial Number
CTRLMODE	IQUANT	0	Control Mode
ELECTROMETER	IQUANT	1	RE=0 or CS=1
IESTAB	IQUANT	0	I/E Stability
CASPEED	IQUANT	4	Control Amp Speed
CONVENTION	IQUANT	1	Current Convention
ICHRANGE	IQUANT	2	Ich Range
ICHRANGEMODE	TOGGLE	T	Ich Auto Range
ICHOFFSETENABLE	TOGGLE	F	Ich Offset Enable
ICHOFFSET	QUANT	0	Ich Offset (V)
ICHFILTER	IQUANT	1	Ich Filter
VCHRANGE	IQUANT	2	Vch Range
VCHRANGEMODE	TOGGLE	T	Vch Auto Range
VCHOFFSETENABLE	TOGGLE	F	Vch Offset Enable
VCHOFFSET	QUANT	0	Vch Offset (V)
VCHFILTER	IQUANT	1	Vch Filter
IERANGELOWERLIMIT	IQUANT	9	I/E Range Lower Limit
IERANGEMODE	TOGGLE	F	I/E AutoRange
IERANGE	IQUANT	9	I/E Range
ACHSELECT	IQUANT	1	Ach Select
ACHRANGE	IQUANT	2	Ach Range
ACHOFFSETENABLE	TOGGLE	F	Ach Offset Enable
ACHOFFSET	QUANT	0	Ach Offset (V)
ACHFILTER	IQUANT	1	Ach Filter
CABLEID	IQUANT	14	Cable ID
DCCALDATE	LABEL	5-7-2017	DC Calibration Date
ACCALDATE	LABEL	12/3/2015	AC Calibration Date
FRAMEWORKVERSION	QUANT	7.01	Framework Version
INSTRUMENTVERSION	LABEL	4.00	Instrument Version
CURVE	TABLE	164
	Pt	T	Vf	Im	Vu	Pwr	Sig	Ach	Temp	IERange	Over
	#	s	V	A	V	W	V	V	deg C	#	bits
	0	0.013333	8.37934E-001	-8.86822E-005	0.00000E+000	-7.43098E-005	-5.39641E-002	8.38075E-001	3.57160E+000	9	...........
	1	0.026667	8.26014E-001	-8.84967E-005	0.00000E+000	-7.30995E-005	-5.39641E-002	8.26143E-001	3.57160E+000	9	...........
	2	0.04	8.14781E-001	-8.86905E-005	0.00000E+000	-7.22634E-005	-5.39641E-002	8.14895E-001	3.57160E+000	9	...........
	3	0.053333	8.04089E-001	-8.86686E-005	0.00000E+000	-7.12974E-005	-5.39641E-002	8.04197E-001	3.57160E+000	9	...........
	4	0.066667	7.93802E-001	-8.86050E-005	0.00000E+000	-7.03349E-005	-5.39641E-002	7.93921E-001	3.57160E+000	9	...........
	5	0.08	7.83894E-001	-8.86061E-005	0.00000E+000	-6.94577E-005	-5.39641E-002	7.84016E-001	3.57160E+000	9	...........
	6	0.093333	7.74355E-001	-8.86280E-005	0.00000E+000	-6.86295E-005	-5.39641E-002	7.74469E-001	3.57160E+000	9	...........
	7	0.106667	7.65072E-001	-8.90406E-005	0.00000E+000	-6.81224E-005	-5.39641E-002	7.65192E-001	3.57160E+000	9	...........
	8	0.12	7.56065E-001	-8.84936E-005	0.00000E+000	-6.69069E-005	-5.39641E-002	7.56177E-001	3.57160E+000	9	...........
	9	0.133333	7.47320E-001	-8.87374E-005	0.00000E+000	-6.63152E-005	-5.39641E-002	7.47425E-001	3.57160E+000	9	...........
	10	0.146667	7.38736E-001	-8.87113E-005	0.00000E+000	-6.55342E-005	-5.39641E-002	7.38845E-001	3.57160E+000	9	...........
	11	0.16	7.30404E-001	-8.87665E-005	0.00000E+000	-6.48354E-005	-5.39641E-002	7.30530E-001	3.57160E+000	9	...........
	12	0.173333	7.22275E-001	-8.86571E-005	0.00000E+000	-6.40348E-005	-5.39641E-002	7.22370E-001	3.57160E+000	9	...........
	13	0.186667	7.14259E-001	-8.86905E-005	0.00000E+000	-6.33480E-005	-5.39641E-002	7.14396E-001	3.57160E+000	9	...........
	14	0.2	7.06441E-001	-8.86551E-005	0.00000E+000	-6.26296E-005	-5.39641E-002	7.06555E-001	3.57160E+000	9	...........
	15	0.213333	6.98801E-001	-8.83894E-005	0.00000E+000	-6.17666E-005	-5.39641E-002	6.98883E-001	3.57160E+000	9	...........
	16	0.226667	6.91264E-001	-8.86009E-005	0.00000E+000	-6.12466E-005	-5.39641E-002	6.91355E-001	3.57160E+000	9	...........
	17	0.24	6.83895E-001	-8.86582E-005	0.00000E+000	-6.06329E-005	-5.39641E-002	6.83985E-001	3.57160E+000	9	...........
	18	0.253333	6.76642E-001	-8.88364E-005	0.00000E+000	-6.01104E-005	-5.39641E-002	6.76752E-001	3.57160E+000	9	...........
	19	0.266667	6.69511E-001	-8.85582E-005	0.00000E+000	-5.92907E-005	-5.39641E-002	6.69579E-001	3.57160E+000	9	...........
	20	0.28	6.62483E-001	-8.88853E-005	0.00000E+000	-5.88850E-005	-5.39641E-002	6.62550E-001	3.57160E+000	9	...........
	21	0.293333	6.55575E-001	-8.86290E-005	0.00000E+000	-5.81030E-005	-5.39641E-002	6.55612E-001	3.57160E+000	9	...........
	22	0.306667	6.48752E-001	-8.85748E-005	0.00000E+000	-5.74631E-005	-5.39641E-002	6.48787E-001	3.57160E+000	9	...........
	23	0.32	6.42015E-001	-8.84550E-005	0.00000E+000	-5.67894E-005	-5.39641E-002	6.42089E-001	3.57160E+000	9	...........
	24	0.333333	6.35332E-001	-8.89009E-005	0.00000E+000	-5.64817E-005	-5.39641E-002	6.35411E-001	3.57160E+000	9	...........
	25	0.346667	6.28799E-001	-8.86811E-005	0.00000E+000	-5.57626E-005	-5.39641E-002	6.28868E-001	3.57160E+000	9	...........
	26	0.36	6.22353E-001	-8.87947E-005	0.00000E+000	-5.52616E-005	-5.39641E-002	6.22391E-001	3.57160E+000	9	...........
	27	0.373333	6.15953E-001	-8.87530E-005	0.00000E+000	-5.46677E-005	-5.39641E-002	6.16037E-001	3.57160E+000	9	...........
	28	0.386667	6.09557E-001	-8.86050E-005	0.00000E+000	-5.40098E-005	-5.39641E-002	6.09689E-001	3.57160E+000	9	...........
	29	0.4	6.03319E-001	-8.86248E-005	0.00000E+000	-5.34691E-005	-5.39641E-002	6.03435E-001	3.57160E+000	9	...........
	30	0.413333	5.97145E-001	-8.88936E-005	0.00000E+000	-5.30824E-005	-5.39641E-002	5.97268E-001	3.57160E+000	9	...........
	31	0.426667	5.91039E-001	-8.84383E-005	0.00000E+000	-5.22705E-005	-5.39641E-002	5.91162E-001	3.57160E+000	9	...........
	32	0.44	5.84936E-001	-8.86530E-005	0.00000E+000	-5.18564E-005	-5.39641E-002	5.85051E-001	3.57160E+000	9	...........
	33	0.453333	5.78929E-001	-8.88947E-005	0.00000E+000	-5.14637E-005	-5.39641E-002	5.79043E-001	3.57160E+000	9	...........
	34	0.466667	5.72993E-001	-8.86863E-005	0.00000E+000	-5.08167E-005	-5.39641E-002	5.73078E-001	3.57160E+000	9	...........
	35	0.48	5.67066E-001	-8.88509E-005	0.00000E+000	-5.03843E-005	-5.39641E-002	5.67161E-001	3.57160E+000	9	...........
	36	0.493333	5.61166E-001	-8.85821E-005	0.00000E+000	-4.97093E-005	-5.39641E-002	5.61305E-001	3.57160E+000	9	...........
	37	0.506667	5.55325E-001	-8.88999E-005	0.00000E+000	-4.93684E-005	-5.39641E-002	5.55456E-001	3.57160E+000	9	...........
	38	0.52	5.49562E-001	-8.87811E-005	0.00000E+000	-4.87907E-005	-5.39641E-002	5.49662E-001	3.57160E+000	9	...........
	39	0.533333	5.43827E-001	-8.88353E-005	0.00000E+000	-4.83111E-005	-5.39641E-002	5.43890E-001	3.57160E+000	9	...........
	40	0.546667	5.38117E-001	-8.86519E-005	0.00000E+000	-4.77051E-005	-5.39641E-002	5.38227E-001	3.57160E+000	9	...........
	41	0.56	5.32419E-001	-8.87082E-005	0.00000E+000	-4.72300E-005	-5.39641E-002	5.32509E-001	3.57160E+000	9	...........
	42	0.573333	5.26789E-001	-8.86196E-005	0.00000E+000	-4.66838E-005	-5.39641E-002	5.26877E-001	3.57160E+000	9	...........
	43	0.586667	5.21213E-001	-8.86165E-005	0.00000E+000	-4.61881E-005	-5.39641E-002	5.21290E-001	3.57160E+000	9	...........
	44	0.6	5.15627E-001	-8.87207E-005	0.00000E+000	-4.57468E-005	-5.39641E-002	5.15718E-001	3.57160E+000	9	...........
	45	0.613333	5.10095E-001	-8.89416E-005	0.00000E+000	-4.53687E-005	-5.39641E-002	5.10183E-001	3.57160E+000	9	...........
	46	0.626667	5.04569E-001	-8.87217E-005	0.00000E+000	-4.47663E-005	-5.39641E-002	5.04666E-001	3.57160E+000	9	...........
	47	0.64	4.99105E-001	-8.86457E-005	0.00000E+000	-4.42435E-005	-5.39641E-002	4.99163E-001	3.57160E+000	9	...........
	48	0.653333	4.93654E-001	-8.85457E-005	0.00000E+000	-4.37109E-005	-5.39641E-002	4.93715E-001	3.57160E+000	9	...........
	49	0.666667	4.88234E-001	-8.86228E-005	0.00000E+000	-4.32687E-005	-5.39641E-002	4.88303E-001	3.57160E+000	9	...........
	50	0.68	4.82861E-001	-8.87655E-005	0.00000E+000	-4.28614E-005	-5.39641E-002	4.82922E-001	3.57160E+000	9	...........
	51	0.693333	4.77485E-001	-8.87259E-005	0.00000E+000	-4.23653E-005	-5.39641E-002	4.77540E-001	3.57160E+000	9	...........
	52	0.706667	4.72122E-001	-8.86696E-005	0.00000E+000	-4.18629E-005	-5.39641E-002	4.72173E-001	3.57160E+000	9	...........
	53	0.72	4.66794E-001	-8.86842E-005	0.00000E+000	-4.13973E-005	-5.39641E-002	4.66845E-001	3.57160E+000	9	...........
	54	0.733333	4.61482E-001	-8.89072E-005	0.00000E+000	-4.10291E-005	-5.39641E-002	4.61529E-001	3.57160E+000	9	...........
	55	0.746667	4.56167E-001	-8.88791E-005	0.00000E+000	-4.05437E-005	-5.39641E-002	4.56212E-001	3.57160E+000	9	...........
	56	0.76	4.50882E-001	-8.86519E-005	0.00000E+000	-3.99715E-005	-5.39641E-002	4.50931E-001	3.57160E+000	9	...........
	57	0.773333	4.45634E-001	-8.87165E-005	0.00000E+000	-3.95351E-005	-5.39641E-002	4.45685E-001	3.57195E+000	9	...........
	58	0.786667	4.40416E-001	-8.86707E-005	0.00000E+000	-3.90520E-005	-5.39641E-002	4.40462E-001	3.57300E+000	9	...........
	59	0.8	4.35208E-001	-8.86301E-005	0.00000E+000	-3.85725E-005	-5.39641E-002	4.35254E-001	3.57300E+000	9	...........
	60	0.813333	4.30018E-001	-8.88280E-005	0.00000E+000	-3.81976E-005	-5.39641E-002	4.30067E-001	3.57300E+000	9	...........
	61	0.826667	4.24835E-001	-8.85061E-005	0.00000E+000	-3.76005E-005	-5.39641E-002	4.24879E-001	3.57300E+000	9	...........
	62	0.84	4.19682E-001	-8.87103E-005	0.00000E+000	-3.72301E-005	-5.39641E-002	4.19720E-001	3.57300E+000	9	...........
	63	0.853333	4.14541E-001	-8.85988E-005	0.00000E+000	-3.67278E-005	-5.39641E-002	4.14582E-001	3.57300E+000	9	...........
	64	0.866667	4.09430E-001	-8.86853E-005	0.00000E+000	-3.63104E-005	-5.39641E-002	4.09465E-001	3.57300E+000	9	...........
	65	0.88	4.04343E-001	-8.88228E-005	0.00000E+000	-3.59149E-005	-5.39641E-002	4.04380E-001	3.57300E+000	9	...........
	66	0.893333	3.99274E-001	-8.84144E-005	0.00000E+000	-3.53015E-005	-5.39641E-002	3.99312E-001	3.57300E+000	9	...........
	67	0.906667	3.94236E-001	-8.87634E-005	0.00000E+000	-3.49937E-005	-5.39641E-002	3.94270E-001	3.57300E+000	9	...........
	68	0.92	3.89202E-001	-8.87009E-005	0.00000E+000	-3.45225E-005	-5.39641E-002	3.89238E-001	3.57300E+000	9	...........
	69	0.933333	3.84202E-001	-8.89020E-005	0.00000E+000	-3.41563E-005	-5.39641E-002	3.84232E-001	3.57300E+000	9	...........
	70	0.946667	3.79235E-001	-8.87634E-005	0.00000E+000	-3.36622E-005	-5.39641E-002	3.79269E-001	3.57300E+000	9	...........
	71	0.96	3.74270E-001	-8.86624E-005	0.00000E+000	-3.31836E-005	-5.39641E-002	3.74305E-001	3.57300E+000	9	...........
	72	0.97333	3.69319E-001	-8.88176E-005	0.00000E+000	-3.28020E-005	-5.39641E-002	3.69348E-001	3.57300E+000	9	...........
	73	0.98667	3.64385E-001	-8.84383E-005	0.00000E+000	-3.22256E-005	-5.39641E-002	3.64424E-001	3.57300E+000	9	...........
	74	1	3.59475E-001	-8.85905E-005	0.00000E+000	-3.18460E-005	-5.39641E-002	3.59512E-001	3.57300E+000	9	...........
	75	1.01333	3.54604E-001	-8.85863E-005	0.00000E+000	-3.14131E-005	-5.39641E-002	3.54640E-001	3.57300E+000	9	...........
	76	1.02667	3.49757E-001	-8.84081E-005	0.00000E+000	-3.09214E-005	-5.39641E-002	3.49792E-001	3.57300E+000	9	...........
	77	1.04	3.44946E-001	-8.87207E-005	0.00000E+000	-3.06038E-005	-5.39641E-002	3.44983E-001	3.57300E+000	9	...........
	78	1.05333	3.40131E-001	-8.86853E-005	0.00000E+000	-3.01646E-005	-5.39641E-002	3.40164E-001	3.57300E+000	9	...........
	79	1.06667	3.35346E-001	-8.84977E-005	0.00000E+000	-2.96773E-005	-5.39641E-002	3.35377E-001	3.57300E+000	9	...........
	80	1.08	3.30585E-001	-8.87072E-005	0.00000E+000	-2.93253E-005	-5.39641E-002	3.30621E-001	3.57300E+000	9	...........
	81	1.09333	3.25833E-001	-8.85988E-005	0.00000E+000	-2.88684E-005	-5.39641E-002	3.25867E-001	3.57300E+000	9	...........
	82	1.10667	3.21115E-001	-8.86894E-005	0.00000E+000	-2.84795E-005	-5.39641E-002	3.21145E-001	3.57300E+000	9	...........
	83	1.12	3.16421E-001	-8.88426E-005	0.00000E+000	-2.81116E-005	-5.39641E-002	3.16452E-001	3.57300E+000	9	...........
	84	1.13333	3.11748E-001	-8.85800E-005	0.00000E+000	-2.76147E-005	-5.39641E-002	3.11778E-001	3.57300E+000	9	...........
	85	1.14667	3.07100E-001	-8.85467E-005	0.00000E+000	-2.71927E-005	-5.39641E-002	3.07129E-001	3.57300E+000	9	...........
	86	1.16	3.02471E-001	-8.90406E-005	0.00000E+000	-2.69321E-005	-5.39641E-002	3.02498E-001	3.57300E+000	9	...........
	87	1.17333	2.97862E-001	-8.86384E-005	0.00000E+000	-2.64020E-005	-5.39641E-002	2.97890E-001	3.57300E+000	9	...........
	88	1.18667	2.93294E-001	-8.86915E-005	0.00000E+000	-2.60127E-005	-5.39641E-002	2.93325E-001	3.57300E+000	9	...........
	89	1.2	2.88724E-001	-8.84644E-005	0.00000E+000	-2.55418E-005	-5.39641E-002	2.88747E-001	3.57300E+000	9	...........
	90	1.21333	2.84160E-001	-8.87311E-005	0.00000E+000	-2.52138E-005	-5.39641E-002	2.84196E-001	3.57300E+000	9	...........
	91	1.22667	2.79622E-001	-8.86634E-005	0.00000E+000	-2.47923E-005	-5.39641E-002	2.79655E-001	3.57300E+000	9	...........
	92	1.24	2.75107E-001	-8.85842E-005	0.00000E+000	-2.43702E-005	-5.39641E-002	2.75135E-001	3.57300E+000	9	...........
	93	1.25333	2.70614E-001	-8.86571E-005	0.00000E+000	-2.39919E-005	-5.39641E-002	2.70640E-001	3.57300E+000	9	...........
	94	1.26667	2.66145E-001	-8.86769E-005	0.00000E+000	-2.36009E-005	-5.39641E-002	2.66178E-001	3.57300E+000	9	...........
	95	1.28	2.61709E-001	-8.86207E-005	0.00000E+000	-2.31929E-005	-5.39641E-002	2.61743E-001	3.57300E+000	9	...........
	96	1.29333	2.57273E-001	-8.86738E-005	0.00000E+000	-2.28134E-005	-5.39641E-002	2.57304E-001	3.57300E+000	9	...........
	97	1.30667	2.52866E-001	-8.87457E-005	0.00000E+000	-2.24408E-005	-5.39641E-002	2.52888E-001	3.57300E+000	9	...........
	98	1.32	2.48491E-001	-8.86613E-005	0.00000E+000	-2.20315E-005	-5.39641E-002	2.48519E-001	3.57300E+000	9	...........
	99	1.33333	2.44144E-001	-8.87843E-005	0.00000E+000	-2.16761E-005	-5.39641E-002	2.44166E-001	3.57300E+000	9	...........
	100	1.34667	2.39816E-001	-8.84561E-005	0.00000E+000	-2.12132E-005	-5.39641E-002	2.39835E-001	3.57300E+000	9	...........
	101	1.36	2.35514E-001	-8.87342E-005	0.00000E+000	-2.08982E-005	-5.39641E-002	2.35534E-001	3.57300E+000	9	...........
	102	1.37333	2.31219E-001	-8.85582E-005	0.00000E+000	-2.04763E-005	-5.39641E-002	2.31236E-001	3.57300E+000	9	...........
	103	1.38667	2.26945E-001	-8.88009E-005	0.00000E+000	-2.01529E-005	-5.39641E-002	2.26963E-001	3.57300E+000	9	...........
	104	1.4	2.22695E-001	-8.87843E-005	0.00000E+000	-1.97718E-005	-5.39641E-002	2.22718E-001	3.57300E+000	9	...........
	105	1.41333	2.18461E-001	-8.86728E-005	0.00000E+000	-1.93715E-005	-5.39641E-002	2.18488E-001	3.57300E+000	9	...........
	106	1.42667	2.14245E-001	-8.88301E-005	0.00000E+000	-1.90314E-005	-5.39641E-002	2.14258E-001	3.57300E+000	9	...........
	107	1.44	2.10058E-001	-8.85259E-005	0.00000E+000	-1.85955E-005	-5.39641E-002	2.10073E-001	3.57300E+000	9	...........
	108	1.45333	2.05880E-001	-8.87936E-005	0.00000E+000	-1.82809E-005	-5.39641E-002	2.05897E-001	3.57300E+000	9	...........
	109	1.46667	2.01712E-001	-8.85488E-005	0.00000E+000	-1.78614E-005	-5.39641E-002	2.01736E-001	3.57300E+000	9	...........
	110	1.48	1.97563E-001	-8.86790E-005	0.00000E+000	-1.75197E-005	-5.39641E-002	1.97580E-001	3.57300E+000	9	...........
	111	1.49333	1.93433E-001	-8.86176E-005	0.00000E+000	-1.71416E-005	-5.39641E-002	1.93451E-001	3.57300E+000	9	...........
	112	1.50667	1.89337E-001	-8.87634E-005	0.00000E+000	-1.68062E-005	-5.39641E-002	1.89360E-001	3.57300E+000	9	...........
	113	1.52	1.85254E-001	-8.88124E-005	0.00000E+000	-1.64529E-005	-5.39641E-002	1.85269E-001	3.57300E+000	9	...........
	114	1.53333	1.81184E-001	-8.88551E-005	0.00000E+000	-1.60991E-005	-5.39641E-002	1.81201E-001	3.57300E+000	9	...........
	115	1.54667	1.77143E-001	-8.84238E-005	0.00000E+000	-1.56637E-005	-5.39641E-002	1.77159E-001	3.57300E+000	9	...........
	116	1.56	1.73123E-001	-8.85675E-005	0.00000E+000	-1.53331E-005	-5.39641E-002	1.73139E-001	3.57300E+000	9	...........
	117	1.57333	1.69117E-001	-8.86082E-005	0.00000E+000	-1.49851E-005	-5.39641E-002	1.69131E-001	3.57300E+000	9	...........
	118	1.58667	1.65125E-001	-8.85498E-005	0.00000E+000	-1.46218E-005	-5.39641E-002	1.65138E-001	3.57300E+000	9	...........
	119	1.6	1.61146E-001	-8.87895E-005	0.00000E+000	-1.43081E-005	-5.39641E-002	1.61158E-001	3.57300E+000	9	...........
	120	1.61333	1.57175E-001	-8.86967E-005	0.00000E+000	-1.39409E-005	-5.39641E-002	1.57183E-001	3.57300E+000	9	...........
	121	1.62667	1.53207E-001	-8.84738E-005	0.00000E+000	-1.35548E-005	-5.39641E-002	1.53218E-001	3.57300E+000	9	...........
	122	1.64	1.49246E-001	-8.88218E-005	0.00000E+000	-1.32563E-005	-5.39641E-002	1.49256E-001	3.57300E+000	9	...........
	123	1.65333	1.45306E-001	-8.85363E-005	0.00000E+000	-1.28649E-005	-5.39641E-002	1.45314E-001	3.57300E+000	9	...........
	124	1.66667	1.41382E-001	-8.87832E-005	0.00000E+000	-1.25523E-005	-5.39641E-002	1.41391E-001	3.57300E+000	9	...........
	125	1.68	1.37479E-001	-8.86426E-005	0.00000E+000	-1.21865E-005	-5.39641E-002	1.37485E-001	3.57300E+000	9	...........
	126	1.69333	1.33588E-001	-8.87499E-005	0.00000E+000	-1.18559E-005	-5.39641E-002	1.33594E-001	3.57300E+000	9	...........
	127	1.70667	1.29715E-001	-8.85936E-005	0.00000E+000	-1.14919E-005	-5.39641E-002	1.29721E-001	3.57300E+000	9	...........
	128	1.72	1.25851E-001	-8.87436E-005	0.00000E+000	-1.11685E-005	-5.39641E-002	1.25856E-001	3.57300E+000	9	...........
	129	1.73333	1.22013E-001	-8.88332E-005	0.00000E+000	-1.08388E-005	-5.39641E-002	1.22019E-001	3.57300E+000	9	...........
	130	1.74667	1.18190E-001	-8.86478E-005	0.00000E+000	-1.04773E-005	-5.39641E-002	1.18200E-001	3.57300E+000	9	...........
	131	1.76	1.14394E-001	-8.88364E-005	0.00000E+000	-1.01624E-005	-5.39641E-002	1.14402E-001	3.57300E+000	9	...........
	132	1.77333	1.10612E-001	-8.88395E-005	0.00000E+000	-9.82673E-006	-5.39641E-002	1.10621E-001	3.57275E+000	9	...........
	133	1.78667	1.06834E-001	-8.86634E-005	0.00000E+000	-9.47223E-006	-5.39641E-002	1.06838E-001	3.57200E+000	9	...........
	134	1.8	1.03081E-001	-8.87467E-005	0.00000E+000	-9.14812E-006	-5.39641E-002	1.03088E-001	3.57200E+000	9	...........
	135	1.81333	9.93333E-002	-8.85967E-005	0.00000E+000	-8.80060E-006	-5.39641E-002	9.93381E-002	3.57200E+000	9	...........
	136	1.82667	9.55986E-002	-8.88739E-005	0.00000E+000	-8.49622E-006	-5.39641E-002	9.56042E-002	3.57200E+000	9	...........
	137	1.84	9.18577E-002	-8.87655E-005	0.00000E+000	-8.15380E-006	-5.39641E-002	9.18655E-002	3.57200E+000	9	...........
	138	1.85333	8.81362E-002	-8.86499E-005	0.00000E+000	-7.81326E-006	-5.39641E-002	8.81462E-002	3.57200E+000	9	...........
	139	1.86667	8.44389E-002	-8.88218E-005	0.00000E+000	-7.50001E-006	-5.39641E-002	8.44459E-002	3.57200E+000	9	...........
	140	1.88	8.07731E-002	-8.88301E-005	0.00000E+000	-7.17509E-006	-5.39641E-002	8.07816E-002	3.57200E+000	9	...........
	141	1.89333	7.71334E-002	-8.84665E-005	0.00000E+000	-6.82372E-006	-5.39641E-002	7.71344E-002	3.57200E+000	9	...........
	142	1.90667	7.34833E-002	-8.87592E-005	0.00000E+000	-6.52233E-006	-5.39641E-002	7.34884E-002	3.57200E+000	9	...........
	143	1.92	6.98605E-002	-8.87853E-005	0.00000E+000	-6.20259E-006	-5.39641E-002	6.98571E-002	3.57200E+000	9	...........
	144	1.93333	6.62500E-002	-8.86561E-005	0.00000E+000	-5.87346E-006	-5.39641E-002	6.62502E-002	3.57200E+000	9	...........
	145	1.94667	6.26583E-002	-8.86426E-005	0.00000E+000	-5.55419E-006	-5.39641E-002	6.26585E-002	3.57200E+000	9	...........
	146	1.96	5.90916E-002	-8.86644E-005	0.00000E+000	-5.23933E-006	-5.39641E-002	5.90875E-002	3.57200E+000	9	...........
	147	1.97333	5.55177E-002	-8.85800E-005	0.00000E+000	-4.91776E-006	-5.39641E-002	5.55166E-002	3.57200E+000	9	...........
	148	1.98667	5.19547E-002	-8.84821E-005	0.00000E+000	-4.59706E-006	-5.39641E-002	5.19513E-002	3.57200E+000	9	...........
	149	2	4.84069E-002	-8.85540E-005	0.00000E+000	-4.28662E-006	-5.39641E-002	4.84105E-002	3.57200E+000	9	...........
	150	2.01333	4.48874E-002	-8.86967E-005	0.00000E+000	-3.98137E-006	-5.39641E-002	4.49000E-002	3.57200E+000	9	...........
	151	2.02667	4.13785E-002	-8.87603E-005	0.00000E+000	-3.67277E-006	-5.39641E-002	4.13873E-002	3.57200E+000	9	...........
	152	2.04	3.78810E-002	-8.88364E-005	0.00000E+000	-3.36521E-006	-5.39641E-002	3.78838E-002	3.57200E+000	9	...........
	153	2.05333	3.43932E-002	-8.88780E-005	0.00000E+000	-3.05680E-006	-5.39641E-002	3.43966E-002	3.57200E+000	9	...........
	154	2.06667	3.09242E-002	-8.85905E-005	0.00000E+000	-2.73959E-006	-5.39641E-002	3.09246E-002	3.57200E+000	9	...........
	155	2.08	2.74881E-002	-8.85154E-005	0.00000E+000	-2.43312E-006	-5.39641E-002	2.74882E-002	3.57200E+000	9	...........
	156	2.09333	2.40797E-002	-8.86457E-005	0.00000E+000	-2.13457E-006	-5.39641E-002	2.40739E-002	3.57200E+000	9	...........
	157	2.10667	2.06732E-002	-8.87384E-005	0.00000E+000	-1.83451E-006	-5.39641E-002	2.06754E-002	3.57200E+000	9	...........
	158	2.12	1.72873E-002	-8.86863E-005	0.00000E+000	-1.53314E-006	-5.39641E-002	1.72839E-002	3.57200E+000	9	...........
	159	2.13333	1.39198E-002	-8.87936E-005	0.00000E+000	-1.23599E-006	-5.39641E-002	1.39146E-002	3.57200E+000	9	...........
	160	2.14667	1.05674E-002	-8.87488E-005	0.00000E+000	-9.37844E-007	-5.39641E-002	1.05631E-002	3.57200E+000	9	...........
	161	2.16	7.22085E-003	-8.88155E-005	0.00000E+000	-6.41323E-007	-5.39641E-002	7.21354E-003	3.57200E+000	9	...........
	162	2.17333	3.91083E-003	-8.87353E-005	0.00000E+000	-3.47028E-007	-5.39641E-002	3.89722E-003	3.57200E+000	9	...........
	163	2.18333	1.02621E-003	-8.88360E-005	0.00000E+000	-9.11647E-008	-5.39641E-002	1.00864E-003	3.57200E+000	9	...........
STARTTIMEOFFSET	QUANT	557.395	Start Time Offset (s)
