EXPLAIN
TAG	PWR800_DISCHARGE
TITLE	LABEL	PWR Cyclic Charge Discharge (Cell) - Discharge Step	Test &Identifier
DATE	LABEL	10-7-2017	Date
TIME	LABEL	16:15:10	Time
NOTES	NOTES	3	&Notes...
	supercap test cell
	0.9mg
	6M KOH
PSTAT	PSTAT	IFC5000-01520	Potentiostat
CAPACITY	QUANT	1.00000E-003	Capacity (A-hr)
CELLTYPE	SELECTOR	1	&Cell Type
WORKINGCONNECTION	SELECTOR	0	&Working Lead
MAXDISCHARGETIME	VARIABLEANDUNITS	1.00000E+002	s	1.00000E+002	second(s)	Max &Discharge Time
DISCHARGEMODE	MULTIPARAM	0	9.00000E-005	&Discharge Mode	Constant Current	Amp(s)
SAMPLETIME	QUANT	1.00000E-002	Sa&mple Period (s)
DISCHARGESTOPAT1	MULTIPARAM	3	0.00000E+000	Discharge Stop At &1	Voltage < Limit	V
DISCHARGESTOPAT2	MULTIPARAM	0	0.00000E+000	Discharge Stop At &2	None	N/A
AESBHCSELECTOR	TOGGLE	F	Save Both Half Cells
IRCOMP	TOGGLE	F	IR &Measure
EOC	QUANT	0	Open Circuit (V)
SEQUENCER	TOGGLE	TRUE	Run as Sequence
PSTATMODEL	IQUANT	53	Pstat Model
PSTATSECTION	LABEL	IFC5000-01520	Pstat Section
PSTATSERIALNO	LABEL	01520	Pstat Serial Number
CTRLMODE	IQUANT	0	Control Mode
ELECTROMETER	IQUANT	1	RE=0 or CS=1
IESTAB	IQUANT	0	I/E Stability
CASPEED	IQUANT	4	Control Amp Speed
CONVENTION	IQUANT	1	Current Convention
ICHRANGE	IQUANT	2	Ich Range
ICHRANGEMODE	TOGGLE	T	Ich Auto Range
ICHOFFSETENABLE	TOGGLE	F	Ich Offset Enable
ICHOFFSET	QUANT	0	Ich Offset (V)
ICHFILTER	IQUANT	1	Ich Filter
VCHRANGE	IQUANT	2	Vch Range
VCHRANGEMODE	TOGGLE	T	Vch Auto Range
VCHOFFSETENABLE	TOGGLE	F	Vch Offset Enable
VCHOFFSET	QUANT	0	Vch Offset (V)
VCHFILTER	IQUANT	1	Vch Filter
IERANGELOWERLIMIT	IQUANT	9	I/E Range Lower Limit
IERANGEMODE	TOGGLE	F	I/E AutoRange
IERANGE	IQUANT	9	I/E Range
ACHSELECT	IQUANT	1	Ach Select
ACHRANGE	IQUANT	2	Ach Range
ACHOFFSETENABLE	TOGGLE	F	Ach Offset Enable
ACHOFFSET	QUANT	0	Ach Offset (V)
ACHFILTER	IQUANT	1	Ach Filter
CABLEID	IQUANT	14	Cable ID
DCCALDATE	LABEL	5-7-2017	DC Calibration Date
ACCALDATE	LABEL	12/3/2015	AC Calibration Date
FRAMEWORKVERSION	QUANT	7.01	Framework Version
INSTRUMENTVERSION	LABEL	4.00	Instrument Version
CURVE	TABLE	147
	Pt	T	Vf	Im	Vu	Pwr	Sig	Ach	Temp	IERange	Over
	#	s	V	A	V	W	V	V	deg C	#	bits
	0	0.013333	8.00499E-001	-8.88082E-005	0.00000E+000	-7.10908E-005	-5.39641E-002	8.00615E-001	3.57310E+000	9	...........
	1	0.026667	7.86181E-001	-8.88947E-005	0.00000E+000	-6.98873E-005	-5.39641E-002	7.86337E-001	3.57310E+000	9	...........
	2	0.04	7.72900E-001	-8.87728E-005	0.00000E+000	-6.86125E-005	-5.39641E-002	7.73031E-001	3.57310E+000	9	...........
	3	0.053333	7.60364E-001	-8.86426E-005	0.00000E+000	-6.74006E-005	-5.39641E-002	7.60526E-001	3.57310E+000	9	...........
	4	0.066667	7.48503E-001	-8.85967E-005	0.00000E+000	-6.63149E-005	-5.39641E-002	7.48620E-001	3.57310E+000	9	...........
	5	0.08	7.37144E-001	-8.86030E-005	0.00000E+000	-6.53131E-005	-5.39641E-002	7.37300E-001	3.57310E+000	9	...........
	6	0.093333	7.26324E-001	-8.88270E-005	0.00000E+000	-6.45171E-005	-5.39641E-002	7.26451E-001	3.57310E+000	9	...........
	7	0.106667	7.15894E-001	-8.84436E-005	0.00000E+000	-6.33162E-005	-5.39641E-002	7.16003E-001	3.57310E+000	9	...........
	8	0.12	7.05824E-001	-8.87968E-005	0.00000E+000	-6.26748E-005	-5.39641E-002	7.05953E-001	3.57310E+000	9	...........
	9	0.133333	6.96116E-001	-8.87280E-005	0.00000E+000	-6.17650E-005	-5.39641E-002	6.96213E-001	3.57310E+000	9	...........
	10	0.146667	6.86688E-001	-8.90166E-005	0.00000E+000	-6.11266E-005	-5.39641E-002	6.86780E-001	3.57310E+000	9	...........
	11	0.16	6.77571E-001	-8.89749E-005	0.00000E+000	-6.02868E-005	-5.39641E-002	6.77649E-001	3.57310E+000	9	...........
	12	0.173333	6.68701E-001	-8.85946E-005	0.00000E+000	-5.92433E-005	-5.39641E-002	6.68779E-001	3.57310E+000	9	...........
	13	0.186667	6.60043E-001	-8.88072E-005	0.00000E+000	-5.86165E-005	-5.39641E-002	6.60124E-001	3.57310E+000	9	...........
	14	0.2	6.51621E-001	-8.88874E-005	0.00000E+000	-5.79209E-005	-5.39641E-002	6.51713E-001	3.57310E+000	9	...........
	15	0.213333	6.43422E-001	-8.89082E-005	0.00000E+000	-5.72055E-005	-5.39641E-002	6.43503E-001	3.57310E+000	9	...........
	16	0.226667	6.35364E-001	-8.90406E-005	0.00000E+000	-5.65731E-005	-5.39641E-002	6.35483E-001	3.57310E+000	9	...........
	17	0.24	6.27535E-001	-8.89228E-005	0.00000E+000	-5.58022E-005	-5.39641E-002	6.27642E-001	3.57310E+000	9	...........
	18	0.253333	6.19902E-001	-8.87092E-005	0.00000E+000	-5.49910E-005	-5.39641E-002	6.19998E-001	3.57310E+000	9	...........
	19	0.266667	6.12340E-001	-8.87092E-005	0.00000E+000	-5.43202E-005	-5.39641E-002	6.12476E-001	3.57310E+000	9	...........
	20	0.28	6.04967E-001	-8.89770E-005	0.00000E+000	-5.38282E-005	-5.39641E-002	6.05126E-001	3.57310E+000	9	...........
	21	0.293333	5.97795E-001	-8.88926E-005	0.00000E+000	-5.31395E-005	-5.39641E-002	5.97920E-001	3.57310E+000	9	...........
	22	0.306667	5.90707E-001	-8.87509E-005	0.00000E+000	-5.24258E-005	-5.39641E-002	5.90847E-001	3.57310E+000	9	...........
	23	0.32	5.83737E-001	-8.85894E-005	0.00000E+000	-5.17129E-005	-5.39641E-002	5.83845E-001	3.57310E+000	9	...........
	24	0.333333	5.76883E-001	-8.88645E-005	0.00000E+000	-5.12644E-005	-5.39641E-002	5.77021E-001	3.57310E+000	9	...........
	25	0.346667	5.70175E-001	-8.90583E-005	0.00000E+000	-5.07788E-005	-5.39641E-002	5.70287E-001	3.57310E+000	9	...........
	26	0.36	5.63533E-001	-8.86780E-005	0.00000E+000	-4.99730E-005	-5.39641E-002	5.63652E-001	3.57310E+000	9	...........
	27	0.373333	5.56989E-001	-8.87499E-005	0.00000E+000	-4.94327E-005	-5.39641E-002	5.57092E-001	3.57310E+000	9	...........
	28	0.386667	5.50577E-001	-8.89364E-005	0.00000E+000	-4.89664E-005	-5.39641E-002	5.50680E-001	3.57310E+000	9	...........
	29	0.4	5.44245E-001	-8.87603E-005	0.00000E+000	-4.83074E-005	-5.39641E-002	5.44352E-001	3.57310E+000	9	...........
	30	0.413333	5.37995E-001	-8.86603E-005	0.00000E+000	-4.76988E-005	-5.39641E-002	5.38110E-001	3.57310E+000	9	...........
	31	0.426667	5.31814E-001	-8.85655E-005	0.00000E+000	-4.71004E-005	-5.39641E-002	5.31922E-001	3.57310E+000	9	...........
	32	0.44	5.25753E-001	-8.88489E-005	0.00000E+000	-4.67126E-005	-5.39641E-002	5.25841E-001	3.57310E+000	9	...........
	33	0.453333	5.19745E-001	-8.86082E-005	0.00000E+000	-4.60536E-005	-5.39641E-002	5.19827E-001	3.57310E+000	9	...........
	34	0.466667	5.13819E-001	-8.89176E-005	0.00000E+000	-4.56875E-005	-5.39641E-002	5.13869E-001	3.57310E+000	9	...........
	35	0.48	5.07872E-001	-8.86665E-005	0.00000E+000	-4.50312E-005	-5.39641E-002	5.07989E-001	3.57310E+000	9	...........
	36	0.493333	5.02043E-001	-8.88822E-005	0.00000E+000	-4.46227E-005	-5.39641E-002	5.02146E-001	3.57310E+000	9	...........
	37	0.506667	4.96295E-001	-8.89520E-005	0.00000E+000	-4.41464E-005	-5.39641E-002	4.96391E-001	3.57310E+000	9	...........
	38	0.52	4.90585E-001	-8.86905E-005	0.00000E+000	-4.35102E-005	-5.39641E-002	4.90665E-001	3.57310E+000	9	...........
	39	0.533333	4.84987E-001	-8.86509E-005	0.00000E+000	-4.29946E-005	-5.39641E-002	4.85052E-001	3.57310E+000	9	...........
	40	0.546667	4.79426E-001	-8.86936E-005	0.00000E+000	-4.25220E-005	-5.39641E-002	4.79493E-001	3.57310E+000	9	...........
	41	0.56	4.73850E-001	-8.87968E-005	0.00000E+000	-4.20763E-005	-5.39641E-002	4.73916E-001	3.57310E+000	9	...........
	42	0.573333	4.68326E-001	-8.85727E-005	0.00000E+000	-4.14809E-005	-5.39641E-002	4.68393E-001	3.57310E+000	9	...........
	43	0.586667	4.62849E-001	-8.87124E-005	0.00000E+000	-4.10604E-005	-5.39641E-002	4.62911E-001	3.57310E+000	9	...........
	44	0.6	4.57413E-001	-8.86947E-005	0.00000E+000	-4.05701E-005	-5.39641E-002	4.57478E-001	3.57310E+000	9	...........
	45	0.613333	4.51998E-001	-8.87509E-005	0.00000E+000	-4.01152E-005	-5.39641E-002	4.52065E-001	3.57310E+000	9	...........
	46	0.626667	4.46621E-001	-8.87665E-005	0.00000E+000	-3.96450E-005	-5.39641E-002	4.46686E-001	3.57310E+000	9	...........
	47	0.64	4.41292E-001	-8.88218E-005	0.00000E+000	-3.91964E-005	-5.39641E-002	4.41354E-001	3.57310E+000	9	...........
	48	0.653333	4.35989E-001	-8.87259E-005	0.00000E+000	-3.86835E-005	-5.39641E-002	4.36050E-001	3.57310E+000	9	...........
	49	0.666667	4.30714E-001	-8.87978E-005	0.00000E+000	-3.82465E-005	-5.39641E-002	4.30771E-001	3.57310E+000	9	...........
	50	0.68	4.25471E-001	-8.89009E-005	0.00000E+000	-3.78248E-005	-5.39641E-002	4.25534E-001	3.57310E+000	9	...........
	51	0.693333	4.20275E-001	-8.88780E-005	0.00000E+000	-3.73532E-005	-5.39641E-002	4.20333E-001	3.57310E+000	9	...........
	52	0.706667	4.15088E-001	-8.88020E-005	0.00000E+000	-3.68606E-005	-5.39641E-002	4.15148E-001	3.57310E+000	9	...........
	53	0.72	4.09933E-001	-8.88030E-005	0.00000E+000	-3.64033E-005	-5.39641E-002	4.09986E-001	3.57310E+000	9	...........
	54	0.733333	4.04803E-001	-8.88572E-005	0.00000E+000	-3.59697E-005	-5.39641E-002	4.04851E-001	3.57310E+000	9	...........
	55	0.746667	3.99706E-001	-8.87426E-005	0.00000E+000	-3.54710E-005	-5.39641E-002	3.99758E-001	3.57310E+000	9	...........
	56	0.76	3.94610E-001	-8.88884E-005	0.00000E+000	-3.50763E-005	-5.39641E-002	3.94662E-001	3.57310E+000	9	...........
	57	0.773333	3.89533E-001	-8.89478E-005	0.00000E+000	-3.46481E-005	-5.39641E-002	3.89580E-001	3.57310E+000	9	...........
	58	0.786667	3.84481E-001	-8.91291E-005	0.00000E+000	-3.42685E-005	-5.39641E-002	3.84528E-001	3.57310E+000	9	...........
	59	0.8	3.79437E-001	-8.87676E-005	0.00000E+000	-3.36817E-005	-5.39641E-002	3.79485E-001	3.57310E+000	9	...........
	60	0.813333	3.74401E-001	-8.89947E-005	0.00000E+000	-3.33197E-005	-5.39641E-002	3.74449E-001	3.57310E+000	9	...........
	61	0.826667	3.69389E-001	-8.87613E-005	0.00000E+000	-3.27875E-005	-5.39641E-002	3.69434E-001	3.57310E+000	9	...........
	62	0.84	3.64393E-001	-8.85936E-005	0.00000E+000	-3.22829E-005	-5.39641E-002	3.64439E-001	3.57310E+000	9	...........
	63	0.853333	3.59415E-001	-8.87238E-005	0.00000E+000	-3.18887E-005	-5.39641E-002	3.59456E-001	3.57310E+000	9	...........
	64	0.866667	3.54438E-001	-8.86467E-005	0.00000E+000	-3.14197E-005	-5.39641E-002	3.54484E-001	3.57310E+000	9	...........
	65	0.88	3.49488E-001	-8.84404E-005	0.00000E+000	-3.09089E-005	-5.39641E-002	3.49531E-001	3.57310E+000	9	...........
	66	0.893333	3.44540E-001	-8.88770E-005	0.00000E+000	-3.06216E-005	-5.39641E-002	3.44592E-001	3.57310E+000	9	...........
	67	0.906667	3.39617E-001	-8.89583E-005	0.00000E+000	-3.02117E-005	-5.39641E-002	3.39658E-001	3.57310E+000	9	...........
	68	0.92	3.34704E-001	-8.87249E-005	0.00000E+000	-2.96966E-005	-5.39641E-002	3.34742E-001	3.57310E+000	9	...........
	69	0.933333	3.29797E-001	-8.88447E-005	0.00000E+000	-2.93007E-005	-5.39641E-002	3.29835E-001	3.57310E+000	9	...........
	70	0.946667	3.24902E-001	-8.90291E-005	0.00000E+000	-2.89258E-005	-5.39641E-002	3.24944E-001	3.57310E+000	9	...........
	71	0.96	3.20027E-001	-8.86999E-005	0.00000E+000	-2.83864E-005	-5.39641E-002	3.20062E-001	3.57310E+000	9	...........
	72	0.97333	3.15157E-001	-8.87311E-005	0.00000E+000	-2.79642E-005	-5.39641E-002	3.15197E-001	3.57340E+000	9	...........
	73	0.98667	3.10305E-001	-8.88561E-005	0.00000E+000	-2.75725E-005	-5.39641E-002	3.10343E-001	3.57340E+000	9	...........
	74	1	3.05462E-001	-8.87738E-005	0.00000E+000	-2.71171E-005	-5.39641E-002	3.05504E-001	3.57340E+000	9	...........
	75	1.01333	3.00626E-001	-8.86842E-005	0.00000E+000	-2.66608E-005	-5.39641E-002	3.00667E-001	3.57340E+000	9	...........
	76	1.02667	2.95805E-001	-8.88124E-005	0.00000E+000	-2.62712E-005	-5.39641E-002	2.95844E-001	3.57340E+000	9	...........
	77	1.04	2.91002E-001	-8.86186E-005	0.00000E+000	-2.57882E-005	-5.39641E-002	2.91035E-001	3.57340E+000	9	...........
	78	1.05333	2.86204E-001	-8.88270E-005	0.00000E+000	-2.54227E-005	-5.39641E-002	2.86248E-001	3.57340E+000	9	...........
	79	1.06667	2.81425E-001	-8.88916E-005	0.00000E+000	-2.50163E-005	-5.39641E-002	2.81467E-001	3.57340E+000	9	...........
	80	1.08	2.76653E-001	-8.86780E-005	0.00000E+000	-2.45330E-005	-5.39641E-002	2.76690E-001	3.57340E+000	9	...........
	81	1.09333	2.71894E-001	-8.87905E-005	0.00000E+000	-2.41416E-005	-5.39641E-002	2.71937E-001	3.57340E+000	9	...........
	82	1.10667	2.67154E-001	-8.88874E-005	0.00000E+000	-2.37466E-005	-5.39641E-002	2.67194E-001	3.57340E+000	9	...........
	83	1.12	2.62422E-001	-8.86509E-005	0.00000E+000	-2.32640E-005	-5.39641E-002	2.62459E-001	3.57340E+000	9	...........
	84	1.13333	2.57706E-001	-8.88103E-005	0.00000E+000	-2.28870E-005	-5.39641E-002	2.57747E-001	3.57340E+000	9	...........
	85	1.14667	2.52997E-001	-8.87259E-005	0.00000E+000	-2.24474E-005	-5.39641E-002	2.53038E-001	3.57340E+000	9	...........
	86	1.16	2.48314E-001	-8.86561E-005	0.00000E+000	-2.20145E-005	-5.39641E-002	2.48349E-001	3.57340E+000	9	...........
	87	1.17333	2.43657E-001	-8.88384E-005	0.00000E+000	-2.16461E-005	-5.39641E-002	2.43688E-001	3.57340E+000	9	...........
	88	1.18667	2.39005E-001	-8.85092E-005	0.00000E+000	-2.11541E-005	-5.39641E-002	2.39031E-001	3.57340E+000	9	...........
	89	1.2	2.34358E-001	-8.87874E-005	0.00000E+000	-2.08080E-005	-5.39641E-002	2.34391E-001	3.57340E+000	9	...........
	90	1.21333	2.29721E-001	-8.88186E-005	0.00000E+000	-2.04035E-005	-5.39641E-002	2.29751E-001	3.57340E+000	9	...........
	91	1.22667	2.25110E-001	-8.89947E-005	0.00000E+000	-2.00336E-005	-5.39641E-002	2.25136E-001	3.57340E+000	9	...........
	92	1.24	2.20503E-001	-8.87353E-005	0.00000E+000	-1.95664E-005	-5.39641E-002	2.20532E-001	3.57340E+000	9	...........
	93	1.25333	2.15906E-001	-8.87624E-005	0.00000E+000	-1.91643E-005	-5.39641E-002	2.15934E-001	3.57340E+000	9	...........
	94	1.26667	2.11341E-001	-8.85988E-005	0.00000E+000	-1.87246E-005	-5.39641E-002	2.11364E-001	3.57340E+000	9	...........
	95	1.28	2.06789E-001	-8.86488E-005	0.00000E+000	-1.83316E-005	-5.39641E-002	2.06813E-001	3.57340E+000	9	...........
	96	1.29333	2.02243E-001	-8.88082E-005	0.00000E+000	-1.79608E-005	-5.39641E-002	2.02272E-001	3.57340E+000	9	...........
	97	1.30667	1.97727E-001	-8.88134E-005	0.00000E+000	-1.75608E-005	-5.39641E-002	1.97751E-001	3.57340E+000	9	...........
	98	1.32	1.93219E-001	-8.88832E-005	0.00000E+000	-1.71740E-005	-5.39641E-002	1.93240E-001	3.57340E+000	9	...........
	99	1.33333	1.88723E-001	-8.88770E-005	0.00000E+000	-1.67731E-005	-5.39641E-002	1.88743E-001	3.57340E+000	9	...........
	100	1.34667	1.84244E-001	-8.86842E-005	0.00000E+000	-1.63395E-005	-5.39641E-002	1.84262E-001	3.57340E+000	9	...........
	101	1.36	1.79785E-001	-8.88936E-005	0.00000E+000	-1.59817E-005	-5.39641E-002	1.79802E-001	3.57340E+000	9	...........
	102	1.37333	1.75360E-001	-8.86519E-005	0.00000E+000	-1.55460E-005	-5.39641E-002	1.75379E-001	3.57340E+000	9	...........
	103	1.38667	1.70961E-001	-8.87072E-005	0.00000E+000	-1.51654E-005	-5.39641E-002	1.70978E-001	3.57340E+000	9	...........
	104	1.4	1.66569E-001	-8.86894E-005	0.00000E+000	-1.47729E-005	-5.39641E-002	1.66582E-001	3.57340E+000	9	...........
	105	1.41333	1.62201E-001	-8.87530E-005	0.00000E+000	-1.43958E-005	-5.39641E-002	1.62212E-001	3.57340E+000	9	...........
	106	1.42667	1.57860E-001	-8.87457E-005	0.00000E+000	-1.40094E-005	-5.39641E-002	1.57862E-001	3.57340E+000	9	...........
	107	1.44	1.53523E-001	-8.88447E-005	0.00000E+000	-1.36397E-005	-5.39641E-002	1.53535E-001	3.57340E+000	9	...........
	108	1.45333	1.49199E-001	-8.86571E-005	0.00000E+000	-1.32276E-005	-5.39641E-002	1.49213E-001	3.57340E+000	9	...........
	109	1.46667	1.44890E-001	-8.89405E-005	0.00000E+000	-1.28866E-005	-5.39641E-002	1.44902E-001	3.57340E+000	9	...........
	110	1.48	1.40610E-001	-8.86530E-005	0.00000E+000	-1.24655E-005	-5.39641E-002	1.40623E-001	3.57340E+000	9	...........
	111	1.49333	1.36339E-001	-8.87342E-005	0.00000E+000	-1.20979E-005	-5.39641E-002	1.36354E-001	3.57340E+000	9	...........
	112	1.50667	1.32090E-001	-8.88249E-005	0.00000E+000	-1.17329E-005	-5.39641E-002	1.32099E-001	3.57340E+000	9	...........
	113	1.52	1.27855E-001	-8.88593E-005	0.00000E+000	-1.13611E-005	-5.39641E-002	1.27869E-001	3.57340E+000	9	...........
	114	1.53333	1.23654E-001	-8.85175E-005	0.00000E+000	-1.09455E-005	-5.39641E-002	1.23667E-001	3.57340E+000	9	...........
	115	1.54667	1.19461E-001	-8.89541E-005	0.00000E+000	-1.06266E-005	-5.39641E-002	1.19477E-001	3.57340E+000	9	...........
	116	1.56	1.15283E-001	-8.89270E-005	0.00000E+000	-1.02517E-005	-5.39641E-002	1.15291E-001	3.57340E+000	9	...........
	117	1.57333	1.11125E-001	-8.86717E-005	0.00000E+000	-9.85361E-006	-5.39641E-002	1.11136E-001	3.57340E+000	9	...........
	118	1.58667	1.06986E-001	-8.89687E-005	0.00000E+000	-9.51840E-006	-5.39641E-002	1.07003E-001	3.57340E+000	9	...........
	119	1.6	1.02871E-001	-8.89947E-005	0.00000E+000	-9.15499E-006	-5.39641E-002	1.02881E-001	3.57340E+000	9	...........
	120	1.61333	9.87761E-002	-8.87144E-005	0.00000E+000	-8.76287E-006	-5.39641E-002	9.87847E-002	3.57340E+000	9	...........
	121	1.62667	9.47063E-002	-8.88603E-005	0.00000E+000	-8.41563E-006	-5.39641E-002	9.47171E-002	3.57340E+000	9	...........
	122	1.64	9.06578E-002	-8.86676E-005	0.00000E+000	-8.03841E-006	-5.39641E-002	9.06659E-002	3.57340E+000	9	...........
	123	1.65333	8.66245E-002	-8.90228E-005	0.00000E+000	-7.71156E-006	-5.39641E-002	8.66334E-002	3.57340E+000	9	...........
	124	1.66667	8.26084E-002	-8.89395E-005	0.00000E+000	-7.34715E-006	-5.39641E-002	8.26182E-002	3.57340E+000	9	...........
	125	1.68	7.86227E-002	-8.89812E-005	0.00000E+000	-6.99594E-006	-5.39641E-002	7.86266E-002	3.57340E+000	9	...........
	126	1.69333	7.46359E-002	-8.88155E-005	0.00000E+000	-6.62882E-006	-5.39641E-002	7.46361E-002	3.57340E+000	9	...........
	127	1.70667	7.06607E-002	-8.88864E-005	0.00000E+000	-6.28077E-006	-5.39641E-002	7.06658E-002	3.57340E+000	9	...........
	128	1.72	6.67134E-002	-8.88593E-005	0.00000E+000	-5.92810E-006	-5.39641E-002	6.67149E-002	3.57340E+000	9	...........
	129	1.73333	6.27799E-002	-8.88728E-005	0.00000E+000	-5.57942E-006	-5.39641E-002	6.27819E-002	3.57340E+000	9	...........
	130	1.74667	5.88702E-002	-8.87363E-005	0.00000E+000	-5.22393E-006	-5.39641E-002	5.88694E-002	3.57340E+000	9	...........
	131	1.76	5.49679E-002	-8.89624E-005	0.00000E+000	-4.89007E-006	-5.39641E-002	5.49685E-002	3.57340E+000	9	...........
	132	1.77333	5.10747E-002	-8.89718E-005	0.00000E+000	-4.54421E-006	-5.39641E-002	5.10779E-002	3.57340E+000	9	...........
	133	1.78667	4.72160E-002	-8.88416E-005	0.00000E+000	-4.19474E-006	-5.39641E-002	4.72302E-002	3.57340E+000	9	...........
	134	1.8	4.33807E-002	-8.90999E-005	0.00000E+000	-3.86522E-006	-5.39641E-002	4.33855E-002	3.57340E+000	9	...........
	135	1.81333	3.95511E-002	-8.88145E-005	0.00000E+000	-3.51271E-006	-5.39641E-002	3.95599E-002	3.57340E+000	9	...........
	136	1.82667	3.57258E-002	-8.90822E-005	0.00000E+000	-3.18253E-006	-5.39641E-002	3.57331E-002	3.57340E+000	9	...........
	137	1.84	3.19209E-002	-8.87134E-005	0.00000E+000	-2.83181E-006	-5.39641E-002	3.19200E-002	3.57340E+000	9	...........
	138	1.85333	2.81429E-002	-8.88353E-005	0.00000E+000	-2.50008E-006	-5.39641E-002	2.81419E-002	3.57340E+000	9	...........
	139	1.86667	2.43840E-002	-8.89020E-005	0.00000E+000	-2.16779E-006	-5.39641E-002	2.43828E-002	3.57340E+000	9	...........
	140	1.88	2.06456E-002	-8.83925E-005	0.00000E+000	-1.82491E-006	-5.39641E-002	2.06424E-002	3.57340E+000	9	...........
	141	1.89333	1.69354E-002	-8.88853E-005	0.00000E+000	-1.50531E-006	-5.39641E-002	1.69285E-002	3.57340E+000	9	...........
	142	1.90667	1.32437E-002	-8.90989E-005	0.00000E+000	-1.18000E-006	-5.39641E-002	1.32391E-002	3.57340E+000	9	...........
	143	1.92	9.57867E-003	-8.88697E-005	0.00000E+000	-8.51254E-007	-5.39641E-002	9.57376E-003	3.57340E+000	9	...........
	144	1.93333	5.93700E-003	-8.86780E-005	0.00000E+000	-5.26481E-007	-5.39641E-002	5.92052E-003	3.57340E+000	9	...........
	145	1.94667	2.30881E-003	-8.88895E-005	0.00000E+000	-2.05229E-007	-5.39641E-002	2.29502E-003	3.57340E+000	9	...........
	146	1.95	5.12721E-005	-8.85998E-005	0.00000E+000	-4.54270E-009	-5.39641E-002	3.68963E-005	3.57340E+000	9	...........
STARTTIMEOFFSET	QUANT	3819.592	Start Time Offset (s)
