EXPLAIN
TAG	PWR800_DISCHARGE
TITLE	LABEL	PWR Cyclic Charge Discharge (Cell) - Discharge Step	Test &Identifier
DATE	LABEL	10-7-2017	Date
TIME	LABEL	15:53:27	Time
NOTES	NOTES	3	&Notes...
	supercap test cell
	0.9mg
	6M KOH
PSTAT	PSTAT	IFC5000-01520	Potentiostat
CAPACITY	QUANT	1.00000E-003	Capacity (A-hr)
CELLTYPE	SELECTOR	1	&Cell Type
WORKINGCONNECTION	SELECTOR	0	&Working Lead
MAXDISCHARGETIME	VARIABLEANDUNITS	1.00000E+002	s	1.00000E+002	second(s)	Max &Discharge Time
DISCHARGEMODE	MULTIPARAM	0	9.00000E-005	&Discharge Mode	Constant Current	Amp(s)
SAMPLETIME	QUANT	1.00000E-002	Sa&mple Period (s)
DISCHARGESTOPAT1	MULTIPARAM	3	0.00000E+000	Discharge Stop At &1	Voltage < Limit	V
DISCHARGESTOPAT2	MULTIPARAM	0	0.00000E+000	Discharge Stop At &2	None	N/A
AESBHCSELECTOR	TOGGLE	F	Save Both Half Cells
IRCOMP	TOGGLE	F	IR &Measure
EOC	QUANT	0	Open Circuit (V)
SEQUENCER	TOGGLE	TRUE	Run as Sequence
PSTATMODEL	IQUANT	53	Pstat Model
PSTATSECTION	LABEL	IFC5000-01520	Pstat Section
PSTATSERIALNO	LABEL	01520	Pstat Serial Number
CTRLMODE	IQUANT	0	Control Mode
ELECTROMETER	IQUANT	1	RE=0 or CS=1
IESTAB	IQUANT	0	I/E Stability
CASPEED	IQUANT	4	Control Amp Speed
CONVENTION	IQUANT	1	Current Convention
ICHRANGE	IQUANT	2	Ich Range
ICHRANGEMODE	TOGGLE	T	Ich Auto Range
ICHOFFSETENABLE	TOGGLE	F	Ich Offset Enable
ICHOFFSET	QUANT	0	Ich Offset (V)
ICHFILTER	IQUANT	1	Ich Filter
VCHRANGE	IQUANT	2	Vch Range
VCHRANGEMODE	TOGGLE	T	Vch Auto Range
VCHOFFSETENABLE	TOGGLE	F	Vch Offset Enable
VCHOFFSET	QUANT	0	Vch Offset (V)
VCHFILTER	IQUANT	1	Vch Filter
IERANGELOWERLIMIT	IQUANT	9	I/E Range Lower Limit
IERANGEMODE	TOGGLE	F	I/E AutoRange
IERANGE	IQUANT	9	I/E Range
ACHSELECT	IQUANT	1	Ach Select
ACHRANGE	IQUANT	2	Ach Range
ACHOFFSETENABLE	TOGGLE	F	Ach Offset Enable
ACHOFFSET	QUANT	0	Ach Offset (V)
ACHFILTER	IQUANT	1	Ach Filter
CABLEID	IQUANT	14	Cable ID
DCCALDATE	LABEL	5-7-2017	DC Calibration Date
ACCALDATE	LABEL	12/3/2015	AC Calibration Date
FRAMEWORKVERSION	QUANT	7.01	Framework Version
INSTRUMENTVERSION	LABEL	4.00	Instrument Version
CURVE	TABLE	150
	Pt	T	Vf	Im	Vu	Pwr	Sig	Ach	Temp	IERange	Over
	#	s	V	A	V	W	V	V	deg C	#	bits
	0	0.013333	8.11184E-001	-8.86884E-005	0.00000E+000	-7.19426E-005	-5.39641E-002	8.11331E-001	3.57260E+000	9	...........
	1	0.026667	7.97317E-001	-8.87301E-005	0.00000E+000	-7.07460E-005	-5.39641E-002	7.97431E-001	3.57260E+000	9	...........
	2	0.04	7.84318E-001	-8.88436E-005	0.00000E+000	-6.96816E-005	-5.39641E-002	7.84439E-001	3.57260E+000	9	...........
	3	0.053333	7.72041E-001	-8.89134E-005	0.00000E+000	-6.86448E-005	-5.39641E-002	7.72170E-001	3.57260E+000	9	...........
	4	0.066667	7.60416E-001	-8.87030E-005	0.00000E+000	-6.74512E-005	-5.39641E-002	7.60517E-001	3.57260E+000	9	...........
	5	0.08	7.49291E-001	-8.87884E-005	0.00000E+000	-6.65284E-005	-5.39641E-002	7.49415E-001	3.57260E+000	9	...........
	6	0.093333	7.38609E-001	-8.86842E-005	0.00000E+000	-6.55030E-005	-5.39641E-002	7.38714E-001	3.57260E+000	9	...........
	7	0.106667	7.28347E-001	-8.88009E-005	0.00000E+000	-6.46779E-005	-5.39641E-002	7.28455E-001	3.57260E+000	9	...........
	8	0.12	7.18424E-001	-8.88541E-005	0.00000E+000	-6.38349E-005	-5.39641E-002	7.18536E-001	3.57260E+000	9	...........
	9	0.133333	7.08800E-001	-8.87009E-005	0.00000E+000	-6.28712E-005	-5.39641E-002	7.08923E-001	3.57260E+000	9	...........
	10	0.146667	6.99487E-001	-8.86728E-005	0.00000E+000	-6.20255E-005	-5.39641E-002	6.99625E-001	3.57260E+000	9	...........
	11	0.16	6.90448E-001	-8.87999E-005	0.00000E+000	-6.13117E-005	-5.39641E-002	6.90583E-001	3.57260E+000	9	...........
	12	0.173333	6.81635E-001	-8.86988E-005	0.00000E+000	-6.04602E-005	-5.39641E-002	6.81783E-001	3.57260E+000	9	...........
	13	0.186667	6.73078E-001	-8.86165E-005	0.00000E+000	-5.96458E-005	-5.39641E-002	6.73242E-001	3.57260E+000	9	...........
	14	0.2	6.64722E-001	-8.86759E-005	0.00000E+000	-5.89448E-005	-5.39641E-002	6.64883E-001	3.57260E+000	9	...........
	15	0.213333	6.56584E-001	-8.88416E-005	0.00000E+000	-5.83320E-005	-5.39641E-002	6.56733E-001	3.57260E+000	9	...........
	16	0.226667	6.48627E-001	-8.87405E-005	0.00000E+000	-5.75595E-005	-5.39641E-002	6.48764E-001	3.57260E+000	9	...........
	17	0.24	6.40856E-001	-8.89030E-005	0.00000E+000	-5.69740E-005	-5.39641E-002	6.40981E-001	3.57260E+000	9	...........
	18	0.253333	6.33232E-001	-8.87134E-005	0.00000E+000	-5.61761E-005	-5.39641E-002	6.33334E-001	3.57260E+000	9	...........
	19	0.266667	6.25795E-001	-8.88228E-005	0.00000E+000	-5.55849E-005	-5.39641E-002	6.25872E-001	3.57260E+000	9	...........
	20	0.28	6.18469E-001	-8.86394E-005	0.00000E+000	-5.48207E-005	-5.39641E-002	6.18536E-001	3.57260E+000	9	...........
	21	0.293333	6.11237E-001	-8.85853E-005	0.00000E+000	-5.41466E-005	-5.39641E-002	6.11317E-001	3.57260E+000	9	...........
	22	0.306667	6.04133E-001	-8.88468E-005	0.00000E+000	-5.36753E-005	-5.39641E-002	6.04220E-001	3.57260E+000	9	...........
	23	0.32	5.97231E-001	-8.89583E-005	0.00000E+000	-5.31286E-005	-5.39641E-002	5.97288E-001	3.57260E+000	9	...........
	24	0.333333	5.90395E-001	-8.88155E-005	0.00000E+000	-5.24362E-005	-5.39641E-002	5.90498E-001	3.57260E+000	9	...........
	25	0.346667	5.83650E-001	-8.86405E-005	0.00000E+000	-5.17350E-005	-5.39641E-002	5.83742E-001	3.57260E+000	9	...........
	26	0.36	5.77057E-001	-8.88791E-005	0.00000E+000	-5.12883E-005	-5.39641E-002	5.77155E-001	3.57260E+000	9	...........
	27	0.373333	5.70559E-001	-8.88478E-005	0.00000E+000	-5.06929E-005	-5.39641E-002	5.70647E-001	3.57260E+000	9	...........
	28	0.386667	5.64115E-001	-8.85457E-005	0.00000E+000	-4.99499E-005	-5.39641E-002	5.64222E-001	3.57260E+000	9	...........
	29	0.4	5.57734E-001	-8.87197E-005	0.00000E+000	-4.94820E-005	-5.39641E-002	5.57841E-001	3.57260E+000	9	...........
	30	0.413333	5.51484E-001	-8.88343E-005	0.00000E+000	-4.89907E-005	-5.39641E-002	5.51584E-001	3.57260E+000	9	...........
	31	0.426667	5.45313E-001	-8.88811E-005	0.00000E+000	-4.84680E-005	-5.39641E-002	5.45395E-001	3.57260E+000	9	...........
	32	0.44	5.39198E-001	-8.87718E-005	0.00000E+000	-4.78656E-005	-5.39641E-002	5.39299E-001	3.57260E+000	9	...........
	33	0.453333	5.33157E-001	-8.88593E-005	0.00000E+000	-4.73760E-005	-5.39641E-002	5.33234E-001	3.57260E+000	9	...........
	34	0.466667	5.27170E-001	-8.87363E-005	0.00000E+000	-4.67791E-005	-5.39641E-002	5.27277E-001	3.57260E+000	9	...........
	35	0.48	5.21284E-001	-8.86894E-005	0.00000E+000	-4.62324E-005	-5.39641E-002	5.21390E-001	3.57260E+000	9	...........
	36	0.493333	5.15478E-001	-8.89260E-005	0.00000E+000	-4.58394E-005	-5.39641E-002	5.15536E-001	3.57260E+000	9	...........
	37	0.506667	5.09659E-001	-8.89697E-005	0.00000E+000	-4.53442E-005	-5.39641E-002	5.09746E-001	3.57260E+000	9	...........
	38	0.52	5.03906E-001	-8.87124E-005	0.00000E+000	-4.47027E-005	-5.39641E-002	5.03999E-001	3.57260E+000	9	...........
	39	0.533333	4.98211E-001	-8.88061E-005	0.00000E+000	-4.42442E-005	-5.39641E-002	4.98340E-001	3.57260E+000	9	...........
	40	0.546667	4.92605E-001	-8.87749E-005	0.00000E+000	-4.37309E-005	-5.39641E-002	4.92690E-001	3.57260E+000	9	...........
	41	0.56	4.87018E-001	-8.86321E-005	0.00000E+000	-4.31654E-005	-5.39641E-002	4.87106E-001	3.57260E+000	9	...........
	42	0.573333	4.81560E-001	-8.86446E-005	0.00000E+000	-4.26877E-005	-5.39641E-002	4.81634E-001	3.57260E+000	9	...........
	43	0.586667	4.76057E-001	-8.89051E-005	0.00000E+000	-4.23239E-005	-5.39641E-002	4.76125E-001	3.57260E+000	9	...........
	44	0.6	4.70582E-001	-8.88770E-005	0.00000E+000	-4.18239E-005	-5.39641E-002	4.70648E-001	3.57260E+000	9	...........
	45	0.613333	4.65137E-001	-8.88030E-005	0.00000E+000	-4.13055E-005	-5.39641E-002	4.65195E-001	3.57260E+000	9	...........
	46	0.626667	4.59732E-001	-8.90072E-005	0.00000E+000	-4.09194E-005	-5.39641E-002	4.59790E-001	3.57260E+000	9	...........
	47	0.64	4.54375E-001	-8.87947E-005	0.00000E+000	-4.03461E-005	-5.39641E-002	4.54434E-001	3.57260E+000	9	...........
	48	0.653333	4.49040E-001	-8.89228E-005	0.00000E+000	-3.99299E-005	-5.39641E-002	4.49099E-001	3.57260E+000	9	...........
	49	0.666667	4.43730E-001	-8.87926E-005	0.00000E+000	-3.94000E-005	-5.39641E-002	4.43794E-001	3.57260E+000	9	...........
	50	0.68	4.38447E-001	-8.85498E-005	0.00000E+000	-3.88244E-005	-5.39641E-002	4.38502E-001	3.57260E+000	9	...........
	51	0.693333	4.33184E-001	-8.88801E-005	0.00000E+000	-3.85014E-005	-5.39641E-002	4.33237E-001	3.57260E+000	9	...........
	52	0.706667	4.27946E-001	-8.90176E-005	0.00000E+000	-3.80947E-005	-5.39641E-002	4.28002E-001	3.57260E+000	9	...........
	53	0.72	4.22743E-001	-8.85905E-005	0.00000E+000	-3.74510E-005	-5.39641E-002	4.22796E-001	3.57260E+000	9	...........
	54	0.733333	4.17545E-001	-8.86874E-005	0.00000E+000	-3.70310E-005	-5.39641E-002	4.17597E-001	3.57260E+000	9	...........
	55	0.746667	4.12370E-001	-8.87061E-005	0.00000E+000	-3.65798E-005	-5.39641E-002	4.12420E-001	3.57312E+000	9	...........
	56	0.76	4.07231E-001	-8.91010E-005	0.00000E+000	-3.62847E-005	-5.39641E-002	4.07280E-001	3.57400E+000	9	...........
	57	0.773333	4.02107E-001	-8.86999E-005	0.00000E+000	-3.56668E-005	-5.39641E-002	4.02157E-001	3.57400E+000	9	...........
	58	0.786667	3.97010E-001	-8.88291E-005	0.00000E+000	-3.52660E-005	-5.39641E-002	3.97059E-001	3.57400E+000	9	...........
	59	0.8	3.91945E-001	-8.86071E-005	0.00000E+000	-3.47291E-005	-5.39641E-002	3.91987E-001	3.57400E+000	9	...........
	60	0.813333	3.86874E-001	-8.86905E-005	0.00000E+000	-3.43121E-005	-5.39641E-002	3.86926E-001	3.57400E+000	9	...........
	61	0.826667	3.81831E-001	-8.88113E-005	0.00000E+000	-3.39109E-005	-5.39641E-002	3.81875E-001	3.57400E+000	9	...........
	62	0.84	3.76783E-001	-8.87947E-005	0.00000E+000	-3.34563E-005	-5.39641E-002	3.76828E-001	3.57400E+000	9	...........
	63	0.853333	3.71752E-001	-8.86301E-005	0.00000E+000	-3.29484E-005	-5.39641E-002	3.71797E-001	3.57400E+000	9	...........
	64	0.866667	3.66731E-001	-8.87457E-005	0.00000E+000	-3.25458E-005	-5.39641E-002	3.66779E-001	3.57400E+000	9	...........
	65	0.88	3.61741E-001	-8.89228E-005	0.00000E+000	-3.21670E-005	-5.39641E-002	3.61782E-001	3.57400E+000	9	...........
	66	0.893333	3.56756E-001	-8.87759E-005	0.00000E+000	-3.16713E-005	-5.39641E-002	3.56799E-001	3.57400E+000	9	...........
	67	0.906667	3.51787E-001	-8.87134E-005	0.00000E+000	-3.12083E-005	-5.39641E-002	3.51830E-001	3.57400E+000	9	...........
	68	0.92	3.46830E-001	-8.88530E-005	0.00000E+000	-3.08169E-005	-5.39641E-002	3.46872E-001	3.57400E+000	9	...........
	69	0.933333	3.41890E-001	-8.89312E-005	0.00000E+000	-3.04046E-005	-5.39641E-002	3.41931E-001	3.57400E+000	9	...........
	70	0.946667	3.36940E-001	-8.87853E-005	0.00000E+000	-2.99153E-005	-5.39641E-002	3.36983E-001	3.57400E+000	9	...........
	71	0.96	3.32016E-001	-8.86561E-005	0.00000E+000	-2.94352E-005	-5.39641E-002	3.32059E-001	3.57400E+000	9	...........
	72	0.97333	3.27122E-001	-8.85321E-005	0.00000E+000	-2.89608E-005	-5.39641E-002	3.27161E-001	3.57400E+000	9	...........
	73	0.98667	3.22235E-001	-8.86676E-005	0.00000E+000	-2.85718E-005	-5.39641E-002	3.22280E-001	3.57400E+000	9	...........
	74	1	3.17373E-001	-8.86926E-005	0.00000E+000	-2.81486E-005	-5.39641E-002	3.17414E-001	3.57400E+000	9	...........
	75	1.01333	3.12517E-001	-8.89332E-005	0.00000E+000	-2.77931E-005	-5.39641E-002	3.12554E-001	3.57400E+000	9	...........
	76	1.02667	3.07661E-001	-8.86894E-005	0.00000E+000	-2.72863E-005	-5.39641E-002	3.07699E-001	3.57400E+000	9	...........
	77	1.04	3.02821E-001	-8.88301E-005	0.00000E+000	-2.68996E-005	-5.39641E-002	3.02858E-001	3.57400E+000	9	...........
	78	1.05333	2.98010E-001	-8.86863E-005	0.00000E+000	-2.64294E-005	-5.39641E-002	2.98043E-001	3.57400E+000	9	...........
	79	1.06667	2.93209E-001	-8.86905E-005	0.00000E+000	-2.60048E-005	-5.39641E-002	2.93252E-001	3.57400E+000	9	...........
	80	1.08	2.88409E-001	-8.86467E-005	0.00000E+000	-2.55665E-005	-5.39641E-002	2.88448E-001	3.57400E+000	9	...........
	81	1.09333	2.83636E-001	-8.90333E-005	0.00000E+000	-2.52530E-005	-5.39641E-002	2.83672E-001	3.57400E+000	9	...........
	82	1.10667	2.78874E-001	-8.88541E-005	0.00000E+000	-2.47791E-005	-5.39641E-002	2.78912E-001	3.57400E+000	9	...........
	83	1.12	2.74122E-001	-8.87217E-005	0.00000E+000	-2.43206E-005	-5.39641E-002	2.74154E-001	3.57400E+000	9	...........
	84	1.13333	2.69391E-001	-8.89801E-005	0.00000E+000	-2.39704E-005	-5.39641E-002	2.69425E-001	3.57400E+000	9	...........
	85	1.14667	2.64672E-001	-8.89051E-005	0.00000E+000	-2.35307E-005	-5.39641E-002	2.64706E-001	3.57400E+000	9	...........
	86	1.16	2.59989E-001	-8.87019E-005	0.00000E+000	-2.30615E-005	-5.39641E-002	2.60022E-001	3.57400E+000	9	...........
	87	1.17333	2.55313E-001	-8.89072E-005	0.00000E+000	-2.26992E-005	-5.39641E-002	2.55351E-001	3.57400E+000	9	...........
	88	1.18667	2.50666E-001	-8.87853E-005	0.00000E+000	-2.22555E-005	-5.39641E-002	2.50697E-001	3.57400E+000	9	...........
	89	1.2	2.46026E-001	-8.87978E-005	0.00000E+000	-2.18466E-005	-5.39641E-002	2.46058E-001	3.57400E+000	9	...........
	90	1.21333	2.41393E-001	-8.89437E-005	0.00000E+000	-2.14704E-005	-5.39641E-002	2.41421E-001	3.57400E+000	9	...........
	91	1.22667	2.36783E-001	-8.88530E-005	0.00000E+000	-2.10389E-005	-5.39641E-002	2.36808E-001	3.57400E+000	9	...........
	92	1.24	2.32193E-001	-8.88343E-005	0.00000E+000	-2.06267E-005	-5.39641E-002	2.32220E-001	3.57400E+000	9	...........
	93	1.25333	2.27627E-001	-8.89562E-005	0.00000E+000	-2.02489E-005	-5.39641E-002	2.27654E-001	3.57400E+000	9	...........
	94	1.26667	2.23065E-001	-8.88270E-005	0.00000E+000	-1.98142E-005	-5.39641E-002	2.23095E-001	3.57400E+000	9	...........
	95	1.28	2.18523E-001	-8.86822E-005	0.00000E+000	-1.93791E-005	-5.39641E-002	2.18549E-001	3.57400E+000	9	...........
	96	1.29333	2.14011E-001	-8.88593E-005	0.00000E+000	-1.90168E-005	-5.39641E-002	2.14035E-001	3.57400E+000	9	...........
	97	1.30667	2.09512E-001	-8.88364E-005	0.00000E+000	-1.86123E-005	-5.39641E-002	2.09534E-001	3.57400E+000	9	...........
	98	1.32	2.05026E-001	-8.86894E-005	0.00000E+000	-1.81836E-005	-5.39641E-002	2.05049E-001	3.57400E+000	9	...........
	99	1.33333	2.00567E-001	-8.90135E-005	0.00000E+000	-1.78531E-005	-5.39641E-002	2.00591E-001	3.57400E+000	9	...........
	100	1.34667	1.96139E-001	-8.88541E-005	0.00000E+000	-1.74278E-005	-5.39641E-002	1.96157E-001	3.57400E+000	9	...........
	101	1.36	1.91718E-001	-8.89374E-005	0.00000E+000	-1.70509E-005	-5.39641E-002	1.91739E-001	3.57400E+000	9	...........
	102	1.37333	1.87321E-001	-8.87384E-005	0.00000E+000	-1.66226E-005	-5.39641E-002	1.87342E-001	3.57400E+000	9	...........
	103	1.38667	1.82948E-001	-8.89114E-005	0.00000E+000	-1.62662E-005	-5.39641E-002	1.82970E-001	3.57400E+000	9	...........
	104	1.4	1.78600E-001	-8.88124E-005	0.00000E+000	-1.58619E-005	-5.39641E-002	1.78620E-001	3.57400E+000	9	...........
	105	1.41333	1.74269E-001	-8.87686E-005	0.00000E+000	-1.54696E-005	-5.39641E-002	1.74285E-001	3.57400E+000	9	...........
	106	1.42667	1.69952E-001	-8.85530E-005	0.00000E+000	-1.50497E-005	-5.39641E-002	1.69969E-001	3.57400E+000	9	...........
	107	1.44	1.65649E-001	-8.88468E-005	0.00000E+000	-1.47174E-005	-5.39641E-002	1.65661E-001	3.57400E+000	9	...........
	108	1.45333	1.61360E-001	-8.87978E-005	0.00000E+000	-1.43284E-005	-5.39641E-002	1.61377E-001	3.57400E+000	9	...........
	109	1.46667	1.57094E-001	-8.86665E-005	0.00000E+000	-1.39290E-005	-5.39641E-002	1.57112E-001	3.57400E+000	9	...........
	110	1.48	1.52850E-001	-8.86426E-005	0.00000E+000	-1.35490E-005	-5.39641E-002	1.52865E-001	3.57400E+000	9	...........
	111	1.49333	1.48638E-001	-8.87072E-005	0.00000E+000	-1.31853E-005	-5.39641E-002	1.48651E-001	3.57400E+000	9	...........
	112	1.50667	1.44437E-001	-8.87957E-005	0.00000E+000	-1.28254E-005	-5.39641E-002	1.44453E-001	3.57400E+000	9	...........
	113	1.52	1.40245E-001	-8.87384E-005	0.00000E+000	-1.24451E-005	-5.39641E-002	1.40257E-001	3.57400E+000	9	...........
	114	1.53333	1.36062E-001	-8.89739E-005	0.00000E+000	-1.21059E-005	-5.39641E-002	1.36070E-001	3.57400E+000	9	...........
	115	1.54667	1.31911E-001	-8.86603E-005	0.00000E+000	-1.16953E-005	-5.39641E-002	1.31920E-001	3.57400E+000	9	...........
	116	1.56	1.27779E-001	-8.87926E-005	0.00000E+000	-1.13459E-005	-5.39641E-002	1.27793E-001	3.57400E+000	9	...........
	117	1.57333	1.23674E-001	-8.88249E-005	0.00000E+000	-1.09853E-005	-5.39641E-002	1.23694E-001	3.57400E+000	9	...........
	118	1.58667	1.19589E-001	-8.89207E-005	0.00000E+000	-1.06340E-005	-5.39641E-002	1.19602E-001	3.57400E+000	9	...........
	119	1.6	1.15519E-001	-8.87947E-005	0.00000E+000	-1.02575E-005	-5.39641E-002	1.15532E-001	3.57400E+000	9	...........
	120	1.61333	1.11484E-001	-8.88770E-005	0.00000E+000	-9.90832E-006	-5.39641E-002	1.11495E-001	3.57400E+000	9	...........
	121	1.62667	1.07458E-001	-8.87582E-005	0.00000E+000	-9.53781E-006	-5.39641E-002	1.07471E-001	3.57400E+000	9	...........
	122	1.64	1.03437E-001	-8.86655E-005	0.00000E+000	-9.17132E-006	-5.39641E-002	1.03445E-001	3.57400E+000	9	...........
	123	1.65333	9.94245E-002	-8.86853E-005	0.00000E+000	-8.81748E-006	-5.39641E-002	9.94348E-002	3.57400E+000	9	...........
	124	1.66667	9.54501E-002	-8.90135E-005	0.00000E+000	-8.49635E-006	-5.39641E-002	9.54538E-002	3.57400E+000	9	...........
	125	1.68	9.14891E-002	-8.87374E-005	0.00000E+000	-8.11850E-006	-5.39641E-002	9.14891E-002	3.57400E+000	9	...........
	126	1.69333	8.75373E-002	-8.87759E-005	0.00000E+000	-7.77121E-006	-5.39641E-002	8.75396E-002	3.57400E+000	9	...........
	127	1.70667	8.36095E-002	-8.86967E-005	0.00000E+000	-7.41589E-006	-5.39641E-002	8.36107E-002	3.57400E+000	9	...........
	128	1.72	7.97043E-002	-8.87103E-005	0.00000E+000	-7.07059E-006	-5.39641E-002	7.97022E-002	3.57400E+000	9	...........
	129	1.73333	7.58135E-002	-8.87457E-005	0.00000E+000	-6.72813E-006	-5.39641E-002	7.58144E-002	3.57400E+000	9	...........
	130	1.74667	7.19381E-002	-8.86030E-005	0.00000E+000	-6.37392E-006	-5.39641E-002	7.19359E-002	3.57362E+000	9	...........
	131	1.76	6.80716E-002	-8.87728E-005	0.00000E+000	-6.04290E-006	-5.39641E-002	6.80713E-002	3.57300E+000	9	...........
	132	1.77333	6.42220E-002	-8.87770E-005	0.00000E+000	-5.70143E-006	-5.39641E-002	6.42165E-002	3.57300E+000	9	...........
	133	1.78667	6.03936E-002	-8.87582E-005	0.00000E+000	-5.36043E-006	-5.39641E-002	6.03923E-002	3.57300E+000	9	...........
	134	1.8	5.65778E-002	-8.88499E-005	0.00000E+000	-5.02693E-006	-5.39641E-002	5.65730E-002	3.57300E+000	9	...........
	135	1.81333	5.27768E-002	-8.88530E-005	0.00000E+000	-4.68938E-006	-5.39641E-002	5.27711E-002	3.57300E+000	9	...........
	136	1.82667	4.90041E-002	-8.89624E-005	0.00000E+000	-4.35953E-006	-5.39641E-002	4.90007E-002	3.57300E+000	9	...........
	137	1.84	4.52462E-002	-8.88322E-005	0.00000E+000	-4.01932E-006	-5.39641E-002	4.52560E-002	3.57300E+000	9	...........
	138	1.85333	4.15090E-002	-8.87447E-005	0.00000E+000	-3.68370E-006	-5.39641E-002	4.15161E-002	3.57300E+000	9	...........
	139	1.86667	3.77884E-002	-8.88447E-005	0.00000E+000	-3.35730E-006	-5.39641E-002	3.77938E-002	3.57300E+000	9	...........
	140	1.88	3.40965E-002	-8.89114E-005	0.00000E+000	-3.03157E-006	-5.39641E-002	3.40952E-002	3.57300E+000	9	...........
	141	1.89333	3.04120E-002	-8.88978E-005	0.00000E+000	-2.70356E-006	-5.39641E-002	3.04108E-002	3.57300E+000	9	...........
	142	1.90667	2.67336E-002	-8.88395E-005	0.00000E+000	-2.37500E-006	-5.39641E-002	2.67329E-002	3.57300E+000	9	...........
	143	1.92	2.30669E-002	-8.89676E-005	0.00000E+000	-2.05220E-006	-5.39641E-002	2.30641E-002	3.57300E+000	9	...........
	144	1.93333	1.94121E-002	-8.87822E-005	0.00000E+000	-1.72345E-006	-5.39641E-002	1.94101E-002	3.57300E+000	9	...........
	145	1.94667	1.57960E-002	-8.85217E-005	0.00000E+000	-1.39829E-006	-5.39641E-002	1.57870E-002	3.57300E+000	9	...........
	146	1.96	1.21911E-002	-8.88811E-005	0.00000E+000	-1.08356E-006	-5.39641E-002	1.21843E-002	3.57300E+000	9	...........
	147	1.97333	8.59998E-003	-8.89447E-005	0.00000E+000	-7.64923E-007	-5.39641E-002	8.59209E-003	3.57300E+000	9	...........
	148	1.98667	5.03346E-003	-8.88561E-005	0.00000E+000	-4.47254E-007	-5.39641E-002	5.01686E-003	3.57300E+000	9	...........
	149	2	1.47783E-003	-8.87520E-005	0.00000E+000	-1.31160E-007	-5.39641E-002	1.46740E-003	3.57300E+000	9	...........
STARTTIMEOFFSET	QUANT	2737.061	Start Time Offset (s)
