EXPLAIN
TAG	PWR800_DISCHARGE
TITLE	LABEL	PWR Cyclic Charge Discharge (Cell) - Discharge Step	Test &Identifier
DATE	LABEL	10-7-2017	Date
TIME	LABEL	15:43:44	Time
NOTES	NOTES	3	&Notes...
	supercap test cell
	0.9mg
	6M KOH
PSTAT	PSTAT	IFC5000-01520	Potentiostat
CAPACITY	QUANT	1.00000E-003	Capacity (A-hr)
CELLTYPE	SELECTOR	1	&Cell Type
WORKINGCONNECTION	SELECTOR	0	&Working Lead
MAXDISCHARGETIME	VARIABLEANDUNITS	1.00000E+002	s	1.00000E+002	second(s)	Max &Discharge Time
DISCHARGEMODE	MULTIPARAM	0	9.00000E-005	&Discharge Mode	Constant Current	Amp(s)
SAMPLETIME	QUANT	1.00000E-002	Sa&mple Period (s)
DISCHARGESTOPAT1	MULTIPARAM	3	0.00000E+000	Discharge Stop At &1	Voltage < Limit	V
DISCHARGESTOPAT2	MULTIPARAM	0	0.00000E+000	Discharge Stop At &2	None	N/A
AESBHCSELECTOR	TOGGLE	F	Save Both Half Cells
IRCOMP	TOGGLE	F	IR &Measure
EOC	QUANT	0	Open Circuit (V)
SEQUENCER	TOGGLE	TRUE	Run as Sequence
PSTATMODEL	IQUANT	53	Pstat Model
PSTATSECTION	LABEL	IFC5000-01520	Pstat Section
PSTATSERIALNO	LABEL	01520	Pstat Serial Number
CTRLMODE	IQUANT	0	Control Mode
ELECTROMETER	IQUANT	1	RE=0 or CS=1
IESTAB	IQUANT	0	I/E Stability
CASPEED	IQUANT	4	Control Amp Speed
CONVENTION	IQUANT	1	Current Convention
ICHRANGE	IQUANT	2	Ich Range
ICHRANGEMODE	TOGGLE	T	Ich Auto Range
ICHOFFSETENABLE	TOGGLE	F	Ich Offset Enable
ICHOFFSET	QUANT	0	Ich Offset (V)
ICHFILTER	IQUANT	1	Ich Filter
VCHRANGE	IQUANT	2	Vch Range
VCHRANGEMODE	TOGGLE	T	Vch Auto Range
VCHOFFSETENABLE	TOGGLE	F	Vch Offset Enable
VCHOFFSET	QUANT	0	Vch Offset (V)
VCHFILTER	IQUANT	1	Vch Filter
IERANGELOWERLIMIT	IQUANT	9	I/E Range Lower Limit
IERANGEMODE	TOGGLE	F	I/E AutoRange
IERANGE	IQUANT	9	I/E Range
ACHSELECT	IQUANT	1	Ach Select
ACHRANGE	IQUANT	2	Ach Range
ACHOFFSETENABLE	TOGGLE	F	Ach Offset Enable
ACHOFFSET	QUANT	0	Ach Offset (V)
ACHFILTER	IQUANT	1	Ach Filter
CABLEID	IQUANT	14	Cable ID
DCCALDATE	LABEL	5-7-2017	DC Calibration Date
ACCALDATE	LABEL	12/3/2015	AC Calibration Date
FRAMEWORKVERSION	QUANT	7.01	Framework Version
INSTRUMENTVERSION	LABEL	4.00	Instrument Version
CURVE	TABLE	152
	Pt	T	Vf	Im	Vu	Pwr	Sig	Ach	Temp	IERange	Over
	#	s	V	A	V	W	V	V	deg C	#	bits
	0	0.013333	8.13002E-001	-8.88249E-005	0.00000E+000	-7.22148E-005	-5.39641E-002	8.13148E-001	3.57260E+000	9	...........
	1	0.026667	7.99429E-001	-8.86967E-005	0.00000E+000	-7.09068E-005	-5.39641E-002	7.99558E-001	3.57260E+000	9	...........
	2	0.04	7.86722E-001	-8.85727E-005	0.00000E+000	-6.96821E-005	-5.39641E-002	7.86874E-001	3.57260E+000	9	...........
	3	0.053333	7.74733E-001	-8.90895E-005	0.00000E+000	-6.90206E-005	-5.39641E-002	7.74891E-001	3.57260E+000	9	...........
	4	0.066667	7.63299E-001	-8.86384E-005	0.00000E+000	-6.76576E-005	-5.39641E-002	7.63464E-001	3.57260E+000	9	...........
	5	0.08	7.52412E-001	-8.88082E-005	0.00000E+000	-6.68204E-005	-5.39641E-002	7.52520E-001	3.57260E+000	9	...........
	6	0.093333	7.41926E-001	-8.86207E-005	0.00000E+000	-6.57500E-005	-5.39641E-002	7.42045E-001	3.57260E+000	9	...........
	7	0.106667	7.31809E-001	-8.87718E-005	0.00000E+000	-6.49640E-005	-5.39641E-002	7.31946E-001	3.57260E+000	9	...........
	8	0.12	7.22103E-001	-8.88541E-005	0.00000E+000	-6.41618E-005	-5.39641E-002	7.22185E-001	3.57260E+000	9	...........
	9	0.133333	7.12592E-001	-8.86603E-005	0.00000E+000	-6.31786E-005	-5.39641E-002	7.12743E-001	3.57260E+000	9	...........
	10	0.146667	7.03484E-001	-8.88270E-005	0.00000E+000	-6.24883E-005	-5.39641E-002	7.03596E-001	3.57260E+000	9	...........
	11	0.16	6.94568E-001	-8.88614E-005	0.00000E+000	-6.17203E-005	-5.39641E-002	6.94688E-001	3.57260E+000	9	...........
	12	0.173333	6.85887E-001	-8.84540E-005	0.00000E+000	-6.06695E-005	-5.39641E-002	6.86022E-001	3.57260E+000	9	...........
	13	0.186667	6.77439E-001	-8.86332E-005	0.00000E+000	-6.00436E-005	-5.39641E-002	6.77570E-001	3.57260E+000	9	...........
	14	0.2	6.69226E-001	-8.85519E-005	0.00000E+000	-5.92613E-005	-5.39641E-002	6.69324E-001	3.57260E+000	9	...........
	15	0.213333	6.61148E-001	-8.91687E-005	0.00000E+000	-5.89537E-005	-5.39641E-002	6.61247E-001	3.57260E+000	9	...........
	16	0.226667	6.53267E-001	-8.89780E-005	0.00000E+000	-5.81264E-005	-5.39641E-002	6.53368E-001	3.57260E+000	9	...........
	17	0.24	6.45581E-001	-8.85717E-005	0.00000E+000	-5.71802E-005	-5.39641E-002	6.45663E-001	3.57260E+000	9	...........
	18	0.253333	6.37996E-001	-8.87988E-005	0.00000E+000	-5.66533E-005	-5.39641E-002	6.38112E-001	3.57260E+000	9	...........
	19	0.266667	6.30620E-001	-8.85811E-005	0.00000E+000	-5.58610E-005	-5.39641E-002	6.30714E-001	3.57260E+000	9	...........
	20	0.28	6.23366E-001	-8.87863E-005	0.00000E+000	-5.53463E-005	-5.39641E-002	6.23477E-001	3.57260E+000	9	...........
	21	0.293333	6.16222E-001	-8.87072E-005	0.00000E+000	-5.46633E-005	-5.39641E-002	6.16354E-001	3.57260E+000	9	...........
	22	0.306667	6.09180E-001	-8.86478E-005	0.00000E+000	-5.40025E-005	-5.39641E-002	6.09317E-001	3.57260E+000	9	...........
	23	0.32	6.02299E-001	-8.88416E-005	0.00000E+000	-5.35092E-005	-5.39641E-002	6.02430E-001	3.57260E+000	9	...........
	24	0.333333	5.95527E-001	-8.87290E-005	0.00000E+000	-5.28405E-005	-5.39641E-002	5.95640E-001	3.57260E+000	9	...........
	25	0.346667	5.88843E-001	-8.89874E-005	0.00000E+000	-5.23996E-005	-5.39641E-002	5.88990E-001	3.57260E+000	9	...........
	26	0.36	5.82248E-001	-8.85363E-005	0.00000E+000	-5.15501E-005	-5.39641E-002	5.82363E-001	3.57260E+000	9	...........
	27	0.373333	5.75765E-001	-8.86467E-005	0.00000E+000	-5.10397E-005	-5.39641E-002	5.75866E-001	3.57260E+000	9	...........
	28	0.386667	5.69377E-001	-8.89145E-005	0.00000E+000	-5.06258E-005	-5.39641E-002	5.69482E-001	3.57260E+000	9	...........
	29	0.4	5.63035E-001	-8.88343E-005	0.00000E+000	-5.00168E-005	-5.39641E-002	5.63161E-001	3.57260E+000	9	...........
	30	0.413333	5.56780E-001	-8.86790E-005	0.00000E+000	-4.93747E-005	-5.39641E-002	5.56910E-001	3.57260E+000	9	...........
	31	0.426667	5.50645E-001	-8.87655E-005	0.00000E+000	-4.88783E-005	-5.39641E-002	5.50751E-001	3.57260E+000	9	...........
	32	0.44	5.44535E-001	-8.86259E-005	0.00000E+000	-4.82599E-005	-5.39641E-002	5.44636E-001	3.57260E+000	9	...........
	33	0.453333	5.38538E-001	-8.88499E-005	0.00000E+000	-4.78490E-005	-5.39641E-002	5.38625E-001	3.57260E+000	9	...........
	34	0.466667	5.32506E-001	-8.89228E-005	0.00000E+000	-4.73519E-005	-5.39641E-002	5.32626E-001	3.57260E+000	9	...........
	35	0.48	5.26639E-001	-8.87457E-005	0.00000E+000	-4.67369E-005	-5.39641E-002	5.26721E-001	3.57260E+000	9	...........
	36	0.493333	5.20789E-001	-8.88843E-005	0.00000E+000	-4.62899E-005	-5.39641E-002	5.20881E-001	3.57260E+000	9	...........
	37	0.506667	5.15017E-001	-8.87040E-005	0.00000E+000	-4.56841E-005	-5.39641E-002	5.15119E-001	3.57260E+000	9	...........
	38	0.52	5.09226E-001	-8.89905E-005	0.00000E+000	-4.53163E-005	-5.39641E-002	5.09363E-001	3.57260E+000	9	...........
	39	0.533333	5.03541E-001	-8.89114E-005	0.00000E+000	-4.47705E-005	-5.39641E-002	5.03675E-001	3.57260E+000	9	...........
	40	0.546667	4.97904E-001	-8.88530E-005	0.00000E+000	-4.42403E-005	-5.39641E-002	4.98021E-001	3.57260E+000	9	...........
	41	0.56	4.92293E-001	-8.85071E-005	0.00000E+000	-4.35715E-005	-5.39641E-002	4.92440E-001	3.57260E+000	9	...........
	42	0.573333	4.86778E-001	-8.90124E-005	0.00000E+000	-4.33293E-005	-5.39641E-002	4.86904E-001	3.57260E+000	9	...........
	43	0.586667	4.81363E-001	-8.88249E-005	0.00000E+000	-4.27570E-005	-5.39641E-002	4.81435E-001	3.57260E+000	9	...........
	44	0.6	4.75890E-001	-8.87686E-005	0.00000E+000	-4.22441E-005	-5.39641E-002	4.75956E-001	3.57260E+000	9	...........
	45	0.613333	4.70452E-001	-8.86905E-005	0.00000E+000	-4.17246E-005	-5.39641E-002	4.70517E-001	3.57260E+000	9	...........
	46	0.626667	4.65036E-001	-8.86269E-005	0.00000E+000	-4.12148E-005	-5.39641E-002	4.65100E-001	3.57260E+000	9	...........
	47	0.64	4.59642E-001	-8.87613E-005	0.00000E+000	-4.07985E-005	-5.39641E-002	4.59706E-001	3.57260E+000	9	...........
	48	0.653333	4.54286E-001	-8.86394E-005	0.00000E+000	-4.02676E-005	-5.39641E-002	4.54344E-001	3.57260E+000	9	...........
	49	0.666667	4.48961E-001	-8.86051E-005	0.00000E+000	-3.97802E-005	-5.39641E-002	4.49021E-001	3.57260E+000	9	...........
	50	0.68	4.43649E-001	-8.87811E-005	0.00000E+000	-3.93877E-005	-5.39641E-002	4.43713E-001	3.57260E+000	9	...........
	51	0.693333	4.38374E-001	-8.84623E-005	0.00000E+000	-3.87796E-005	-5.39641E-002	4.38435E-001	3.57260E+000	9	...........
	52	0.706667	4.33111E-001	-8.87686E-005	0.00000E+000	-3.84467E-005	-5.39641E-002	4.33167E-001	3.57260E+000	9	...........
	53	0.72	4.27877E-001	-8.88822E-005	0.00000E+000	-3.80306E-005	-5.39641E-002	4.27934E-001	3.57260E+000	9	...........
	54	0.733333	4.22657E-001	-8.88322E-005	0.00000E+000	-3.75456E-005	-5.39641E-002	4.22711E-001	3.57260E+000	9	...........
	55	0.746667	4.17468E-001	-8.87655E-005	0.00000E+000	-3.70567E-005	-5.39641E-002	4.17524E-001	3.57260E+000	9	...........
	56	0.76	4.12287E-001	-8.90687E-005	0.00000E+000	-3.67219E-005	-5.39641E-002	4.12340E-001	3.57260E+000	9	...........
	57	0.773333	4.07132E-001	-8.89093E-005	0.00000E+000	-3.61978E-005	-5.39641E-002	4.07186E-001	3.57260E+000	9	...........
	58	0.786667	4.02001E-001	-8.89416E-005	0.00000E+000	-3.57546E-005	-5.39641E-002	4.02050E-001	3.57260E+000	9	...........
	59	0.8	3.96888E-001	-8.88020E-005	0.00000E+000	-3.52444E-005	-5.39641E-002	3.96942E-001	3.57260E+000	9	...........
	60	0.813333	3.91789E-001	-8.88728E-005	0.00000E+000	-3.48194E-005	-5.39641E-002	3.91835E-001	3.57260E+000	9	...........
	61	0.826667	3.86699E-001	-8.88770E-005	0.00000E+000	-3.43686E-005	-5.39641E-002	3.86748E-001	3.57260E+000	9	...........
	62	0.84	3.81636E-001	-8.87259E-005	0.00000E+000	-3.38610E-005	-5.39641E-002	3.81681E-001	3.57260E+000	9	...........
	63	0.853333	3.76586E-001	-8.87249E-005	0.00000E+000	-3.34126E-005	-5.39641E-002	3.76632E-001	3.57260E+000	9	...........
	64	0.866667	3.71582E-001	-8.87655E-005	0.00000E+000	-3.29837E-005	-5.39641E-002	3.71630E-001	3.57260E+000	9	...........
	65	0.88	3.66558E-001	-8.87978E-005	0.00000E+000	-3.25495E-005	-5.39641E-002	3.66606E-001	3.57260E+000	9	...........
	66	0.893333	3.61538E-001	-8.87884E-005	0.00000E+000	-3.21004E-005	-5.39641E-002	3.61588E-001	3.57260E+000	9	...........
	67	0.906667	3.56540E-001	-8.90656E-005	0.00000E+000	-3.17554E-005	-5.39641E-002	3.56593E-001	3.57260E+000	9	...........
	68	0.92	3.51561E-001	-8.87301E-005	0.00000E+000	-3.11941E-005	-5.39641E-002	3.51610E-001	3.57260E+000	9	...........
	69	0.933333	3.46599E-001	-8.90270E-005	0.00000E+000	-3.08567E-005	-5.39641E-002	3.46649E-001	3.57260E+000	9	...........
	70	0.946667	3.41643E-001	-8.91500E-005	0.00000E+000	-3.04574E-005	-5.39641E-002	3.41688E-001	3.57260E+000	9	...........
	71	0.96	3.36712E-001	-8.85925E-005	0.00000E+000	-2.98302E-005	-5.39641E-002	3.36758E-001	3.57260E+000	9	...........
	72	0.97333	3.31807E-001	-8.89197E-005	0.00000E+000	-2.95042E-005	-5.39641E-002	3.31848E-001	3.57260E+000	9	...........
	73	0.98667	3.26902E-001	-8.88686E-005	0.00000E+000	-2.90513E-005	-5.39641E-002	3.26947E-001	3.57260E+000	9	...........
	74	1	3.22035E-001	-8.87051E-005	0.00000E+000	-2.85661E-005	-5.39641E-002	3.22078E-001	3.57260E+000	9	...........
	75	1.01333	3.17175E-001	-8.87728E-005	0.00000E+000	-2.81565E-005	-5.39641E-002	3.17216E-001	3.57260E+000	9	...........
	76	1.02667	3.12325E-001	-8.86769E-005	0.00000E+000	-2.76961E-005	-5.39641E-002	3.12360E-001	3.57260E+000	9	...........
	77	1.04	3.07491E-001	-8.86113E-005	0.00000E+000	-2.72472E-005	-5.39641E-002	3.07532E-001	3.57260E+000	9	...........
	78	1.05333	3.02683E-001	-8.87072E-005	0.00000E+000	-2.68501E-005	-5.39641E-002	3.02722E-001	3.57260E+000	9	...........
	79	1.06667	2.97894E-001	-8.87853E-005	0.00000E+000	-2.64486E-005	-5.39641E-002	2.97934E-001	3.57260E+000	9	...........
	80	1.08	2.93129E-001	-8.88593E-005	0.00000E+000	-2.60472E-005	-5.39641E-002	2.93166E-001	3.57260E+000	9	...........
	81	1.09333	2.88375E-001	-8.88697E-005	0.00000E+000	-2.56278E-005	-5.39641E-002	2.88411E-001	3.57260E+000	9	...........
	82	1.10667	2.83624E-001	-8.87051E-005	0.00000E+000	-2.51589E-005	-5.39641E-002	2.83661E-001	3.57260E+000	9	...........
	83	1.12	2.78879E-001	-8.87092E-005	0.00000E+000	-2.47391E-005	-5.39641E-002	2.78916E-001	3.57260E+000	9	...........
	84	1.13333	2.74165E-001	-8.89280E-005	0.00000E+000	-2.43810E-005	-5.39641E-002	2.74210E-001	3.57260E+000	9	...........
	85	1.14667	2.69464E-001	-8.86155E-005	0.00000E+000	-2.38787E-005	-5.39641E-002	2.69498E-001	3.57260E+000	9	...........
	86	1.16	2.64767E-001	-8.86196E-005	0.00000E+000	-2.34636E-005	-5.39641E-002	2.64807E-001	3.57260E+000	9	...........
	87	1.17333	2.60102E-001	-8.86707E-005	0.00000E+000	-2.30634E-005	-5.39641E-002	2.60132E-001	3.57260E+000	9	...........
	88	1.18667	2.55452E-001	-8.88311E-005	0.00000E+000	-2.26921E-005	-5.39641E-002	2.55487E-001	3.57260E+000	9	...........
	89	1.2	2.50826E-001	-8.88884E-005	0.00000E+000	-2.22955E-005	-5.39641E-002	2.50852E-001	3.57260E+000	9	...........
	90	1.21333	2.46213E-001	-8.87405E-005	0.00000E+000	-2.18490E-005	-5.39641E-002	2.46240E-001	3.57260E+000	9	...........
	91	1.22667	2.41635E-001	-8.87697E-005	0.00000E+000	-2.14498E-005	-5.39641E-002	2.41658E-001	3.57260E+000	9	...........
	92	1.24	2.37076E-001	-8.87707E-005	0.00000E+000	-2.10454E-005	-5.39641E-002	2.37105E-001	3.57260E+000	9	...........
	93	1.25333	2.32539E-001	-8.88843E-005	0.00000E+000	-2.06691E-005	-5.39641E-002	2.32563E-001	3.57260E+000	9	...........
	94	1.26667	2.28012E-001	-8.85113E-005	0.00000E+000	-2.01817E-005	-5.39641E-002	2.28033E-001	3.57260E+000	9	...........
	95	1.28	2.23482E-001	-8.87342E-005	0.00000E+000	-1.98305E-005	-5.39641E-002	2.23505E-001	3.57260E+000	9	...........
	96	1.29333	2.18985E-001	-8.87853E-005	0.00000E+000	-1.94427E-005	-5.39641E-002	2.19004E-001	3.57260E+000	9	...........
	97	1.30667	2.14500E-001	-8.88405E-005	0.00000E+000	-1.90563E-005	-5.39641E-002	2.14511E-001	3.57260E+000	9	...........
	98	1.32	2.10035E-001	-8.86832E-005	0.00000E+000	-1.86266E-005	-5.39641E-002	2.10049E-001	3.57260E+000	9	...........
	99	1.33333	2.05580E-001	-8.88384E-005	0.00000E+000	-1.82634E-005	-5.39641E-002	2.05599E-001	3.57260E+000	9	...........
	100	1.34667	2.01160E-001	-8.86405E-005	0.00000E+000	-1.78309E-005	-5.39641E-002	2.01180E-001	3.57260E+000	9	...........
	101	1.36	1.96769E-001	-8.87509E-005	0.00000E+000	-1.74634E-005	-5.39641E-002	1.96785E-001	3.57260E+000	9	...........
	102	1.37333	1.92398E-001	-8.87957E-005	0.00000E+000	-1.70841E-005	-5.39641E-002	1.92417E-001	3.57260E+000	9	...........
	103	1.38667	1.88049E-001	-8.89030E-005	0.00000E+000	-1.67181E-005	-5.39641E-002	1.88067E-001	3.57260E+000	9	...........
	104	1.4	1.83716E-001	-8.88145E-005	0.00000E+000	-1.63166E-005	-5.39641E-002	1.83743E-001	3.57260E+000	9	...........
	105	1.41333	1.79398E-001	-8.87426E-005	0.00000E+000	-1.59202E-005	-5.39641E-002	1.79424E-001	3.57260E+000	9	...........
	106	1.42667	1.75098E-001	-8.87134E-005	0.00000E+000	-1.55336E-005	-5.39641E-002	1.75123E-001	3.57260E+000	9	...........
	107	1.44	1.70819E-001	-8.89114E-005	0.00000E+000	-1.51877E-005	-5.39641E-002	1.70841E-001	3.57260E+000	9	...........
	108	1.45333	1.66571E-001	-8.85946E-005	0.00000E+000	-1.47573E-005	-5.39641E-002	1.66591E-001	3.57260E+000	9	...........
	109	1.46667	1.62327E-001	-8.86592E-005	0.00000E+000	-1.43918E-005	-5.39641E-002	1.62345E-001	3.57260E+000	9	...........
	110	1.48	1.58111E-001	-8.89405E-005	0.00000E+000	-1.40625E-005	-5.39641E-002	1.58127E-001	3.57260E+000	9	...........
	111	1.49333	1.53916E-001	-8.88041E-005	0.00000E+000	-1.36683E-005	-5.39641E-002	1.53926E-001	3.57260E+000	9	...........
	112	1.50667	1.49717E-001	-8.86978E-005	0.00000E+000	-1.32796E-005	-5.39641E-002	1.49734E-001	3.57260E+000	9	...........
	113	1.52	1.45557E-001	-8.88697E-005	0.00000E+000	-1.29356E-005	-5.39641E-002	1.45567E-001	3.57260E+000	9	...........
	114	1.53333	1.41393E-001	-8.87040E-005	0.00000E+000	-1.25422E-005	-5.39641E-002	1.41407E-001	3.57260E+000	9	...........
	115	1.54667	1.37263E-001	-8.88718E-005	0.00000E+000	-1.21988E-005	-5.39641E-002	1.37277E-001	3.57260E+000	9	...........
	116	1.56	1.33161E-001	-8.89749E-005	0.00000E+000	-1.18480E-005	-5.39641E-002	1.33169E-001	3.57260E+000	9	...........
	117	1.57333	1.29075E-001	-8.87311E-005	0.00000E+000	-1.14530E-005	-5.39641E-002	1.29090E-001	3.57260E+000	9	...........
	118	1.58667	1.25000E-001	-8.87978E-005	0.00000E+000	-1.10997E-005	-5.39641E-002	1.25006E-001	3.57260E+000	9	...........
	119	1.6	1.20936E-001	-8.88041E-005	0.00000E+000	-1.07396E-005	-5.39641E-002	1.20949E-001	3.57260E+000	9	...........
	120	1.61333	1.16897E-001	-8.89541E-005	0.00000E+000	-1.03985E-005	-5.39641E-002	1.16908E-001	3.57260E+000	9	...........
	121	1.62667	1.12874E-001	-8.89270E-005	0.00000E+000	-1.00375E-005	-5.39641E-002	1.12887E-001	3.57260E+000	9	...........
	122	1.64	1.08867E-001	-8.91124E-005	0.00000E+000	-9.70138E-006	-5.39641E-002	1.08874E-001	3.57260E+000	9	...........
	123	1.65333	1.04874E-001	-8.88780E-005	0.00000E+000	-9.32096E-006	-5.39641E-002	1.04887E-001	3.57260E+000	9	...........
	124	1.66667	1.00889E-001	-8.88145E-005	0.00000E+000	-8.96038E-006	-5.39641E-002	1.00902E-001	3.57260E+000	9	...........
	125	1.68	9.69402E-002	-8.88009E-005	0.00000E+000	-8.60838E-006	-5.39641E-002	9.69490E-002	3.57260E+000	9	...........
	126	1.69333	9.30051E-002	-8.89030E-005	0.00000E+000	-8.26844E-006	-5.39641E-002	9.30188E-002	3.57260E+000	9	...........
	127	1.70667	8.90889E-002	-8.88905E-005	0.00000E+000	-7.91916E-006	-5.39641E-002	8.91016E-002	3.57260E+000	9	...........
	128	1.72	8.51961E-002	-8.87134E-005	0.00000E+000	-7.55804E-006	-5.39641E-002	8.52058E-002	3.57260E+000	9	...........
	129	1.73333	8.13114E-002	-8.89332E-005	0.00000E+000	-7.23128E-006	-5.39641E-002	8.13207E-002	3.57260E+000	9	...........
	130	1.74667	7.74500E-002	-8.86280E-005	0.00000E+000	-6.86424E-006	-5.39641E-002	7.74537E-002	3.57260E+000	9	...........
	131	1.76	7.35925E-002	-8.85832E-005	0.00000E+000	-6.51906E-006	-5.39641E-002	7.35974E-002	3.57260E+000	9	...........
	132	1.77333	6.97576E-002	-8.88489E-005	0.00000E+000	-6.19788E-006	-5.39641E-002	6.97637E-002	3.57260E+000	9	...........
	133	1.78667	6.59528E-002	-8.85665E-005	0.00000E+000	-5.84121E-006	-5.39641E-002	6.59518E-002	3.57260E+000	9	...........
	134	1.8	6.21391E-002	-8.89822E-005	0.00000E+000	-5.52927E-006	-5.39641E-002	6.21372E-002	3.57260E+000	9	...........
	135	1.81333	5.83320E-002	-8.84779E-005	0.00000E+000	-5.16110E-006	-5.39641E-002	5.83302E-002	3.57260E+000	9	...........
	136	1.82667	5.45396E-002	-8.85561E-005	0.00000E+000	-4.82981E-006	-5.39641E-002	5.45387E-002	3.57260E+000	9	...........
	137	1.84	5.07713E-002	-8.87905E-005	0.00000E+000	-4.50801E-006	-5.39641E-002	5.07650E-002	3.57260E+000	9	...........
	138	1.85333	4.70297E-002	-8.89020E-005	0.00000E+000	-4.18103E-006	-5.39641E-002	4.70398E-002	3.57260E+000	9	...........
	139	1.86667	4.33066E-002	-8.90010E-005	0.00000E+000	-3.85433E-006	-5.39641E-002	4.33159E-002	3.57260E+000	9	...........
	140	1.88	3.96058E-002	-8.89426E-005	0.00000E+000	-3.52264E-006	-5.39641E-002	3.96093E-002	3.57260E+000	9	...........
	141	1.89333	3.59281E-002	-8.88509E-005	0.00000E+000	-3.19224E-006	-5.39641E-002	3.59336E-002	3.57260E+000	9	...........
	142	1.90667	3.22706E-002	-8.89343E-005	0.00000E+000	-2.86997E-006	-5.39641E-002	3.22758E-002	3.57260E+000	9	...........
	143	1.92	2.86192E-002	-8.87947E-005	0.00000E+000	-2.54123E-006	-5.39641E-002	2.86268E-002	3.57260E+000	9	...........
	144	1.93333	2.49866E-002	-8.86353E-005	0.00000E+000	-2.21469E-006	-5.39641E-002	2.49869E-002	3.57260E+000	9	...........
	145	1.94667	2.13701E-002	-8.89780E-005	0.00000E+000	-1.90147E-006	-5.39641E-002	2.13695E-002	3.57260E+000	9	...........
	146	1.96	1.77660E-002	-8.88218E-005	0.00000E+000	-1.57801E-006	-5.39641E-002	1.77620E-002	3.57260E+000	9	...........
	147	1.97333	1.41801E-002	-8.87551E-005	0.00000E+000	-1.25855E-006	-5.39641E-002	1.41734E-002	3.57260E+000	9	...........
	148	1.98667	1.06062E-002	-8.88905E-005	0.00000E+000	-9.42787E-007	-5.39641E-002	1.05944E-002	3.57260E+000	9	...........
	149	2	7.05535E-003	-8.89207E-005	0.00000E+000	-6.27367E-007	-5.39641E-002	7.03925E-003	3.57260E+000	9	...........
	150	2.01333	3.52175E-003	-8.88614E-005	0.00000E+000	-3.12947E-007	-5.39641E-002	3.50839E-003	3.57260E+000	9	...........
	151	2.02167	6.60614E-004	-8.91149E-005	0.00000E+000	-5.88706E-008	-5.39641E-002	6.49658E-004	3.57260E+000	9	...........
STARTTIMEOFFSET	QUANT	2250.04	Start Time Offset (s)
