EXPLAIN
TAG	PWR800_DISCHARGE
TITLE	LABEL	PWR Cyclic Charge Discharge (Cell) - Discharge Step	Test &Identifier
DATE	LABEL	10-7-2017	Date
TIME	LABEL	15:38:43	Time
NOTES	NOTES	3	&Notes...
	supercap test cell
	0.9mg
	6M KOH
PSTAT	PSTAT	IFC5000-01520	Potentiostat
CAPACITY	QUANT	1.00000E-003	Capacity (A-hr)
CELLTYPE	SELECTOR	1	&Cell Type
WORKINGCONNECTION	SELECTOR	0	&Working Lead
MAXDISCHARGETIME	VARIABLEANDUNITS	1.00000E+002	s	1.00000E+002	second(s)	Max &Discharge Time
DISCHARGEMODE	MULTIPARAM	0	9.00000E-005	&Discharge Mode	Constant Current	Amp(s)
SAMPLETIME	QUANT	1.00000E-002	Sa&mple Period (s)
DISCHARGESTOPAT1	MULTIPARAM	3	0.00000E+000	Discharge Stop At &1	Voltage < Limit	V
DISCHARGESTOPAT2	MULTIPARAM	0	0.00000E+000	Discharge Stop At &2	None	N/A
AESBHCSELECTOR	TOGGLE	F	Save Both Half Cells
IRCOMP	TOGGLE	F	IR &Measure
EOC	QUANT	0	Open Circuit (V)
SEQUENCER	TOGGLE	TRUE	Run as Sequence
PSTATMODEL	IQUANT	53	Pstat Model
PSTATSECTION	LABEL	IFC5000-01520	Pstat Section
PSTATSERIALNO	LABEL	01520	Pstat Serial Number
CTRLMODE	IQUANT	0	Control Mode
ELECTROMETER	IQUANT	1	RE=0 or CS=1
IESTAB	IQUANT	0	I/E Stability
CASPEED	IQUANT	4	Control Amp Speed
CONVENTION	IQUANT	1	Current Convention
ICHRANGE	IQUANT	2	Ich Range
ICHRANGEMODE	TOGGLE	T	Ich Auto Range
ICHOFFSETENABLE	TOGGLE	F	Ich Offset Enable
ICHOFFSET	QUANT	0	Ich Offset (V)
ICHFILTER	IQUANT	1	Ich Filter
VCHRANGE	IQUANT	2	Vch Range
VCHRANGEMODE	TOGGLE	T	Vch Auto Range
VCHOFFSETENABLE	TOGGLE	F	Vch Offset Enable
VCHOFFSET	QUANT	0	Vch Offset (V)
VCHFILTER	IQUANT	1	Vch Filter
IERANGELOWERLIMIT	IQUANT	9	I/E Range Lower Limit
IERANGEMODE	TOGGLE	F	I/E AutoRange
IERANGE	IQUANT	9	I/E Range
ACHSELECT	IQUANT	1	Ach Select
ACHRANGE	IQUANT	2	Ach Range
ACHOFFSETENABLE	TOGGLE	F	Ach Offset Enable
ACHOFFSET	QUANT	0	Ach Offset (V)
ACHFILTER	IQUANT	1	Ach Filter
CABLEID	IQUANT	14	Cable ID
DCCALDATE	LABEL	5-7-2017	DC Calibration Date
ACCALDATE	LABEL	12/3/2015	AC Calibration Date
FRAMEWORKVERSION	QUANT	7.01	Framework Version
INSTRUMENTVERSION	LABEL	4.00	Instrument Version
CURVE	TABLE	153
	Pt	T	Vf	Im	Vu	Pwr	Sig	Ach	Temp	IERange	Over
	#	s	V	A	V	W	V	V	deg C	#	bits
	0	0.013333	8.12372E-001	-8.87853E-005	0.00000E+000	-7.21267E-005	-5.39641E-002	8.12525E-001	3.57250E+000	9	...........
	1	0.026667	7.98984E-001	-8.88457E-005	0.00000E+000	-7.09863E-005	-5.39641E-002	7.99125E-001	3.57250E+000	9	...........
	2	0.04	7.86430E-001	-8.85498E-005	0.00000E+000	-6.96382E-005	-5.39641E-002	7.86574E-001	3.57250E+000	9	...........
	3	0.053333	7.74611E-001	-8.87269E-005	0.00000E+000	-6.87289E-005	-5.39641E-002	7.74772E-001	3.57250E+000	9	...........
	4	0.066667	7.63342E-001	-8.88103E-005	0.00000E+000	-6.77927E-005	-5.39641E-002	7.63482E-001	3.57250E+000	9	...........
	5	0.08	7.52585E-001	-8.88030E-005	0.00000E+000	-6.68318E-005	-5.39641E-002	7.52739E-001	3.57250E+000	9	...........
	6	0.093333	7.42220E-001	-8.86957E-005	0.00000E+000	-6.58317E-005	-5.39641E-002	7.42351E-001	3.57250E+000	9	...........
	7	0.106667	7.32235E-001	-8.90291E-005	0.00000E+000	-6.51902E-005	-5.39641E-002	7.32379E-001	3.57250E+000	9	...........
	8	0.12	7.22617E-001	-8.87228E-005	0.00000E+000	-6.41126E-005	-5.39641E-002	7.22733E-001	3.57250E+000	9	...........
	9	0.133333	7.13249E-001	-8.86499E-005	0.00000E+000	-6.32294E-005	-5.39641E-002	7.13379E-001	3.57250E+000	9	...........
	10	0.146667	7.04209E-001	-8.86988E-005	0.00000E+000	-6.24625E-005	-5.39641E-002	7.04334E-001	3.57250E+000	9	...........
	11	0.16	6.95405E-001	-8.85300E-005	0.00000E+000	-6.15642E-005	-5.39641E-002	6.95535E-001	3.57250E+000	9	...........
	12	0.173333	6.86823E-001	-8.87707E-005	0.00000E+000	-6.09697E-005	-5.39641E-002	6.86935E-001	3.57250E+000	9	...........
	13	0.186667	6.78487E-001	-8.87259E-005	0.00000E+000	-6.01994E-005	-5.39641E-002	6.78594E-001	3.57250E+000	9	...........
	14	0.2	6.70340E-001	-8.86769E-005	0.00000E+000	-5.94437E-005	-5.39641E-002	6.70454E-001	3.57250E+000	9	...........
	15	0.213333	6.62355E-001	-8.87353E-005	0.00000E+000	-5.87743E-005	-5.39641E-002	6.62487E-001	3.57250E+000	9	...........
	16	0.226667	6.54582E-001	-8.88864E-005	0.00000E+000	-5.81834E-005	-5.39641E-002	6.54698E-001	3.57250E+000	9	...........
	17	0.24	6.47003E-001	-8.89437E-005	0.00000E+000	-5.75468E-005	-5.39641E-002	6.47101E-001	3.57250E+000	9	...........
	18	0.253333	6.39527E-001	-8.88176E-005	0.00000E+000	-5.68012E-005	-5.39641E-002	6.39636E-001	3.57250E+000	9	...........
	19	0.266667	6.32183E-001	-8.89457E-005	0.00000E+000	-5.62300E-005	-5.39641E-002	6.32282E-001	3.57250E+000	9	...........
	20	0.28	6.25041E-001	-8.91052E-005	0.00000E+000	-5.56944E-005	-5.39641E-002	6.25098E-001	3.57250E+000	9	...........
	21	0.293333	6.17975E-001	-8.87353E-005	0.00000E+000	-5.48362E-005	-5.39641E-002	6.18067E-001	3.57250E+000	9	...........
	22	0.306667	6.10961E-001	-8.87978E-005	0.00000E+000	-5.42520E-005	-5.39641E-002	6.11086E-001	3.57250E+000	9	...........
	23	0.32	6.04131E-001	-8.88426E-005	0.00000E+000	-5.36726E-005	-5.39641E-002	6.04266E-001	3.57250E+000	9	...........
	24	0.333333	5.97421E-001	-8.90593E-005	0.00000E+000	-5.32059E-005	-5.39641E-002	5.97547E-001	3.57250E+000	9	...........
	25	0.346667	5.90807E-001	-8.86446E-005	0.00000E+000	-5.23719E-005	-5.39641E-002	5.90918E-001	3.57250E+000	9	...........
	26	0.36	5.84237E-001	-8.85311E-005	0.00000E+000	-5.17232E-005	-5.39641E-002	5.84358E-001	3.57250E+000	9	...........
	27	0.373333	5.77825E-001	-8.88541E-005	0.00000E+000	-5.13421E-005	-5.39641E-002	5.77912E-001	3.57250E+000	9	...........
	28	0.386667	5.71474E-001	-8.87947E-005	0.00000E+000	-5.07438E-005	-5.39641E-002	5.71563E-001	3.57250E+000	9	...........
	29	0.4	5.65192E-001	-8.88655E-005	0.00000E+000	-5.02260E-005	-5.39641E-002	5.65291E-001	3.57250E+000	9	...........
	30	0.413333	5.58958E-001	-8.88593E-005	0.00000E+000	-4.96686E-005	-5.39641E-002	5.59056E-001	3.57250E+000	9	...........
	31	0.426667	5.52816E-001	-8.87072E-005	0.00000E+000	-4.90387E-005	-5.39641E-002	5.52949E-001	3.57250E+000	9	...........
	32	0.44	5.46771E-001	-8.85634E-005	0.00000E+000	-4.84239E-005	-5.39641E-002	5.46874E-001	3.57250E+000	9	...........
	33	0.453333	5.40805E-001	-8.86457E-005	0.00000E+000	-4.79400E-005	-5.39641E-002	5.40912E-001	3.57250E+000	9	...........
	34	0.466667	5.34847E-001	-8.88645E-005	0.00000E+000	-4.75289E-005	-5.39641E-002	5.34942E-001	3.57250E+000	9	...........
	35	0.48	5.28981E-001	-8.87655E-005	0.00000E+000	-4.69552E-005	-5.39641E-002	5.29066E-001	3.57250E+000	9	...........
	36	0.493333	5.23161E-001	-8.88426E-005	0.00000E+000	-4.64790E-005	-5.39641E-002	5.23252E-001	3.57250E+000	9	...........
	37	0.506667	5.17441E-001	-8.87301E-005	0.00000E+000	-4.59126E-005	-5.39641E-002	5.17519E-001	3.57250E+000	9	...........
	38	0.52	5.11711E-001	-8.85280E-005	0.00000E+000	-4.53007E-005	-5.39641E-002	5.11774E-001	3.57250E+000	9	...........
	39	0.533333	5.05993E-001	-8.87290E-005	0.00000E+000	-4.48963E-005	-5.39641E-002	5.06129E-001	3.57250E+000	9	...........
	40	0.546667	5.00389E-001	-8.88041E-005	0.00000E+000	-4.44366E-005	-5.39641E-002	5.00496E-001	3.57250E+000	9	...........
	41	0.56	4.94808E-001	-8.87207E-005	0.00000E+000	-4.38997E-005	-5.39641E-002	4.94910E-001	3.57250E+000	9	...........
	42	0.573333	4.89282E-001	-8.88572E-005	0.00000E+000	-4.34762E-005	-5.39641E-002	4.89375E-001	3.57250E+000	9	...........
	43	0.586667	4.83850E-001	-8.85602E-005	0.00000E+000	-4.28499E-005	-5.39641E-002	4.83904E-001	3.57250E+000	9	...........
	44	0.6	4.78391E-001	-8.89312E-005	0.00000E+000	-4.25438E-005	-5.39641E-002	4.78455E-001	3.57250E+000	9	...........
	45	0.613333	4.72941E-001	-8.87520E-005	0.00000E+000	-4.19744E-005	-5.39641E-002	4.73006E-001	3.57250E+000	9	...........
	46	0.626667	4.67532E-001	-8.87572E-005	0.00000E+000	-4.14968E-005	-5.39641E-002	4.67600E-001	3.57250E+000	9	...........
	47	0.64	4.62162E-001	-8.88374E-005	0.00000E+000	-4.10573E-005	-5.39641E-002	4.62223E-001	3.57250E+000	9	...........
	48	0.653333	4.56806E-001	-8.88426E-005	0.00000E+000	-4.05838E-005	-5.39641E-002	4.56870E-001	3.57250E+000	9	...........
	49	0.666667	4.51486E-001	-8.87822E-005	0.00000E+000	-4.00839E-005	-5.39641E-002	4.51551E-001	3.57250E+000	9	...........
	50	0.68	4.46198E-001	-8.88134E-005	0.00000E+000	-3.96284E-005	-5.39641E-002	4.46260E-001	3.57250E+000	9	...........
	51	0.693333	4.40923E-001	-8.89280E-005	0.00000E+000	-3.92104E-005	-5.39641E-002	4.40988E-001	3.57250E+000	9	...........
	52	0.706667	4.35679E-001	-8.86634E-005	0.00000E+000	-3.86287E-005	-5.39641E-002	4.35739E-001	3.57250E+000	9	...........
	53	0.72	4.30460E-001	-8.90041E-005	0.00000E+000	-3.83127E-005	-5.39641E-002	4.30524E-001	3.57250E+000	9	...........
	54	0.733333	4.25267E-001	-8.90364E-005	0.00000E+000	-3.78643E-005	-5.39641E-002	4.25329E-001	3.57250E+000	9	...........
	55	0.746667	4.20088E-001	-8.88322E-005	0.00000E+000	-3.73173E-005	-5.39641E-002	4.20150E-001	3.57250E+000	9	...........
	56	0.76	4.14938E-001	-8.88020E-005	0.00000E+000	-3.68473E-005	-5.39641E-002	4.14994E-001	3.57250E+000	9	...........
	57	0.773333	4.09801E-001	-8.89207E-005	0.00000E+000	-3.64398E-005	-5.39641E-002	4.09852E-001	3.57250E+000	9	...........
	58	0.786667	4.04683E-001	-8.88416E-005	0.00000E+000	-3.59527E-005	-5.39641E-002	4.04731E-001	3.57250E+000	9	...........
	59	0.8	3.99578E-001	-8.88395E-005	0.00000E+000	-3.54983E-005	-5.39641E-002	3.99631E-001	3.57250E+000	9	...........
	60	0.813333	3.94497E-001	-8.86915E-005	0.00000E+000	-3.49886E-005	-5.39641E-002	3.94541E-001	3.57250E+000	9	...........
	61	0.826667	3.89432E-001	-8.88811E-005	0.00000E+000	-3.46131E-005	-5.39641E-002	3.89483E-001	3.57250E+000	9	...........
	62	0.84	3.84373E-001	-8.91572E-005	0.00000E+000	-3.42697E-005	-5.39641E-002	3.84423E-001	3.57250E+000	9	...........
	63	0.853333	3.79342E-001	-8.86769E-005	0.00000E+000	-3.36389E-005	-5.39641E-002	3.79391E-001	3.57250E+000	9	...........
	64	0.866667	3.74325E-001	-8.85832E-005	0.00000E+000	-3.31589E-005	-5.39641E-002	3.74376E-001	3.57250E+000	9	...........
	65	0.88	3.69323E-001	-8.88186E-005	0.00000E+000	-3.28027E-005	-5.39641E-002	3.69367E-001	3.57250E+000	9	...........
	66	0.893333	3.64321E-001	-8.89541E-005	0.00000E+000	-3.24079E-005	-5.39641E-002	3.64367E-001	3.57250E+000	9	...........
	67	0.906667	3.59337E-001	-8.88134E-005	0.00000E+000	-3.19140E-005	-5.39641E-002	3.59384E-001	3.57250E+000	9	...........
	68	0.92	3.54383E-001	-8.88843E-005	0.00000E+000	-3.14991E-005	-5.39641E-002	3.54427E-001	3.57250E+000	9	...........
	69	0.933333	3.49426E-001	-8.88676E-005	0.00000E+000	-3.10527E-005	-5.39641E-002	3.49472E-001	3.57250E+000	9	...........
	70	0.946667	3.44482E-001	-8.86467E-005	0.00000E+000	-3.05372E-005	-5.39641E-002	3.44523E-001	3.57250E+000	9	...........
	71	0.96	3.39565E-001	-8.88843E-005	0.00000E+000	-3.01820E-005	-5.39641E-002	3.39609E-001	3.57250E+000	9	...........
	72	0.97333	3.34665E-001	-8.86967E-005	0.00000E+000	-2.96837E-005	-5.39641E-002	3.34697E-001	3.57250E+000	9	...........
	73	0.98667	3.29763E-001	-8.88166E-005	0.00000E+000	-2.92884E-005	-5.39641E-002	3.29802E-001	3.57250E+000	9	...........
	74	1	3.24892E-001	-8.89176E-005	0.00000E+000	-2.88887E-005	-5.39641E-002	3.24932E-001	3.57250E+000	9	...........
	75	1.01333	3.20045E-001	-8.88593E-005	0.00000E+000	-2.84390E-005	-5.39641E-002	3.20086E-001	3.57250E+000	9	...........
	76	1.02667	3.15194E-001	-8.86259E-005	0.00000E+000	-2.79343E-005	-5.39641E-002	3.15236E-001	3.57250E+000	9	...........
	77	1.04	3.10356E-001	-8.88280E-005	0.00000E+000	-2.75684E-005	-5.39641E-002	3.10396E-001	3.57250E+000	9	...........
	78	1.05333	3.05542E-001	-8.89374E-005	0.00000E+000	-2.71741E-005	-5.39641E-002	3.05581E-001	3.57250E+000	9	...........
	79	1.06667	3.00738E-001	-8.87249E-005	0.00000E+000	-2.66830E-005	-5.39641E-002	3.00772E-001	3.57250E+000	9	...........
	80	1.08	2.95953E-001	-8.87843E-005	0.00000E+000	-2.62759E-005	-5.39641E-002	2.95988E-001	3.57250E+000	9	...........
	81	1.09333	2.91193E-001	-8.86582E-005	0.00000E+000	-2.58167E-005	-5.39641E-002	2.91229E-001	3.57250E+000	9	...........
	82	1.10667	2.86446E-001	-8.88228E-005	0.00000E+000	-2.54429E-005	-5.39641E-002	2.86488E-001	3.57250E+000	9	...........
	83	1.12	2.81722E-001	-8.88520E-005	0.00000E+000	-2.50315E-005	-5.39641E-002	2.81757E-001	3.57250E+000	9	...........
	84	1.13333	2.77022E-001	-8.89218E-005	0.00000E+000	-2.46333E-005	-5.39641E-002	2.77059E-001	3.57250E+000	9	...........
	85	1.14667	2.72335E-001	-8.85884E-005	0.00000E+000	-2.41257E-005	-5.39641E-002	2.72374E-001	3.57250E+000	9	...........
	86	1.16	2.67663E-001	-8.91166E-005	0.00000E+000	-2.38532E-005	-5.39641E-002	2.67701E-001	3.57250E+000	9	...........
	87	1.17333	2.63007E-001	-8.85967E-005	0.00000E+000	-2.33016E-005	-5.39641E-002	2.63049E-001	3.57250E+000	9	...........
	88	1.18667	2.58377E-001	-8.86051E-005	0.00000E+000	-2.28935E-005	-5.39641E-002	2.58414E-001	3.57250E+000	9	...........
	89	1.2	2.53766E-001	-8.86915E-005	0.00000E+000	-2.25069E-005	-5.39641E-002	2.53801E-001	3.57250E+000	9	...........
	90	1.21333	2.49172E-001	-8.88489E-005	0.00000E+000	-2.21387E-005	-5.39641E-002	2.49209E-001	3.57250E+000	9	...........
	91	1.22667	2.44603E-001	-8.85029E-005	0.00000E+000	-2.16480E-005	-5.39641E-002	2.44637E-001	3.57250E+000	9	...........
	92	1.24	2.40052E-001	-8.88968E-005	0.00000E+000	-2.13398E-005	-5.39641E-002	2.40076E-001	3.57250E+000	9	...........
	93	1.25333	2.35520E-001	-8.89072E-005	0.00000E+000	-2.09394E-005	-5.39641E-002	2.35549E-001	3.57250E+000	9	...........
	94	1.26667	2.31018E-001	-8.85717E-005	0.00000E+000	-2.04617E-005	-5.39641E-002	2.31043E-001	3.57250E+000	9	...........
	95	1.28	2.26524E-001	-8.87592E-005	0.00000E+000	-2.01061E-005	-5.39641E-002	2.26554E-001	3.57250E+000	9	...........
	96	1.29333	2.22042E-001	-8.87186E-005	0.00000E+000	-1.96993E-005	-5.39641E-002	2.22065E-001	3.57250E+000	9	...........
	97	1.30667	2.17576E-001	-8.88614E-005	0.00000E+000	-1.93341E-005	-5.39641E-002	2.17600E-001	3.57250E+000	9	...........
	98	1.32	2.13139E-001	-8.88176E-005	0.00000E+000	-1.89305E-005	-5.39641E-002	2.13164E-001	3.57250E+000	9	...........
	99	1.33333	2.08716E-001	-8.91114E-005	0.00000E+000	-1.85990E-005	-5.39641E-002	2.08737E-001	3.57250E+000	9	...........
	100	1.34667	2.04321E-001	-8.85748E-005	0.00000E+000	-1.80977E-005	-5.39641E-002	2.04346E-001	3.57250E+000	9	...........
	101	1.36	1.99951E-001	-8.86603E-005	0.00000E+000	-1.77277E-005	-5.39641E-002	1.99976E-001	3.57250E+000	9	...........
	102	1.37333	1.95609E-001	-8.85748E-005	0.00000E+000	-1.73260E-005	-5.39641E-002	1.95631E-001	3.57250E+000	9	...........
	103	1.38667	1.91281E-001	-8.87249E-005	0.00000E+000	-1.69714E-005	-5.39641E-002	1.91303E-001	3.57250E+000	9	...........
	104	1.4	1.86960E-001	-8.86696E-005	0.00000E+000	-1.65777E-005	-5.39641E-002	1.86983E-001	3.57250E+000	9	...........
	105	1.41333	1.82663E-001	-8.88791E-005	0.00000E+000	-1.62349E-005	-5.39641E-002	1.82687E-001	3.57250E+000	9	...........
	106	1.42667	1.78375E-001	-8.88541E-005	0.00000E+000	-1.58493E-005	-5.39641E-002	1.78405E-001	3.57250E+000	9	...........
	107	1.44	1.74106E-001	-8.86540E-005	0.00000E+000	-1.54352E-005	-5.39641E-002	1.74129E-001	3.57250E+000	9	...........
	108	1.45333	1.69856E-001	-8.87384E-005	0.00000E+000	-1.50728E-005	-5.39641E-002	1.69881E-001	3.57250E+000	9	...........
	109	1.46667	1.65636E-001	-8.86290E-005	0.00000E+000	-1.46801E-005	-5.39641E-002	1.65657E-001	3.57250E+000	9	...........
	110	1.48	1.61447E-001	-8.86915E-005	0.00000E+000	-1.43190E-005	-5.39641E-002	1.61469E-001	3.57250E+000	9	...........
	111	1.49333	1.57283E-001	-8.89374E-005	0.00000E+000	-1.39884E-005	-5.39641E-002	1.57303E-001	3.57250E+000	9	...........
	112	1.50667	1.53137E-001	-8.86228E-005	0.00000E+000	-1.35714E-005	-5.39641E-002	1.53153E-001	3.57250E+000	9	...........
	113	1.52	1.49003E-001	-8.85655E-005	0.00000E+000	-1.31965E-005	-5.39641E-002	1.49016E-001	3.57250E+000	9	...........
	114	1.53333	1.44883E-001	-8.86947E-005	0.00000E+000	-1.28503E-005	-5.39641E-002	1.44899E-001	3.57250E+000	9	...........
	115	1.54667	1.40777E-001	-8.87384E-005	0.00000E+000	-1.24923E-005	-5.39641E-002	1.40798E-001	3.57250E+000	9	...........
	116	1.56	1.36692E-001	-8.86957E-005	0.00000E+000	-1.21240E-005	-5.39641E-002	1.36705E-001	3.57250E+000	9	...........
	117	1.57333	1.32613E-001	-8.91656E-005	0.00000E+000	-1.18245E-005	-5.39641E-002	1.32626E-001	3.57250E+000	9	...........
	118	1.58667	1.28546E-001	-8.89874E-005	0.00000E+000	-1.14390E-005	-5.39641E-002	1.28560E-001	3.57250E+000	9	...........
	119	1.6	1.24504E-001	-8.87499E-005	0.00000E+000	-1.10498E-005	-5.39641E-002	1.24514E-001	3.57250E+000	9	...........
	120	1.61333	1.20485E-001	-8.86446E-005	0.00000E+000	-1.06803E-005	-5.39641E-002	1.20495E-001	3.57250E+000	9	...........
	121	1.62667	1.16478E-001	-8.87478E-005	0.00000E+000	-1.03371E-005	-5.39641E-002	1.16480E-001	3.57250E+000	9	...........
	122	1.64	1.12476E-001	-8.88739E-005	0.00000E+000	-9.99619E-006	-5.39641E-002	1.12485E-001	3.57250E+000	9	...........
	123	1.65333	1.08504E-001	-8.87801E-005	0.00000E+000	-9.63297E-006	-5.39641E-002	1.08507E-001	3.57250E+000	9	...........
	124	1.66667	1.04534E-001	-8.86353E-005	0.00000E+000	-9.26543E-006	-5.39641E-002	1.04539E-001	3.57250E+000	9	...........
	125	1.68	1.00593E-001	-8.88749E-005	0.00000E+000	-8.94019E-006	-5.39641E-002	1.00596E-001	3.57250E+000	9	...........
	126	1.69333	9.66633E-002	-8.91062E-005	0.00000E+000	-8.61330E-006	-5.39641E-002	9.66681E-002	3.57250E+000	9	...........
	127	1.70667	9.27710E-002	-8.87238E-005	0.00000E+000	-8.23100E-006	-5.39641E-002	9.27758E-002	3.57250E+000	9	...........
	128	1.72	8.88887E-002	-8.87124E-005	0.00000E+000	-7.88553E-006	-5.39641E-002	8.88972E-002	3.57250E+000	9	...........
	129	1.73333	8.50225E-002	-8.88728E-005	0.00000E+000	-7.55619E-006	-5.39641E-002	8.50281E-002	3.57250E+000	9	...........
	130	1.74667	8.11732E-002	-8.87228E-005	0.00000E+000	-7.20191E-006	-5.39641E-002	8.11786E-002	3.57250E+000	9	...........
	131	1.76	7.73522E-002	-8.86259E-005	0.00000E+000	-6.85541E-006	-5.39641E-002	7.73491E-002	3.57250E+000	9	...........
	132	1.77333	7.35386E-002	-8.86415E-005	0.00000E+000	-6.51858E-006	-5.39641E-002	7.35416E-002	3.57250E+000	9	...........
	133	1.78667	6.97475E-002	-8.87759E-005	0.00000E+000	-6.19189E-006	-5.39641E-002	6.97488E-002	3.57250E+000	9	...........
	134	1.8	6.59631E-002	-8.86905E-005	0.00000E+000	-5.85030E-006	-5.39641E-002	6.59654E-002	3.57250E+000	9	...........
	135	1.81333	6.21865E-002	-8.88228E-005	0.00000E+000	-5.52358E-006	-5.39641E-002	6.21906E-002	3.57250E+000	9	...........
	136	1.82667	5.84491E-002	-8.87572E-005	0.00000E+000	-5.18778E-006	-5.39641E-002	5.84509E-002	3.57250E+000	9	...........
	137	1.84	5.47215E-002	-8.89239E-005	0.00000E+000	-4.86604E-006	-5.39641E-002	5.47248E-002	3.57250E+000	9	...........
	138	1.85333	5.10063E-002	-8.92000E-005	0.00000E+000	-4.54976E-006	-5.39641E-002	5.10086E-002	3.57250E+000	9	...........
	139	1.86667	4.73130E-002	-8.90093E-005	0.00000E+000	-4.21129E-006	-5.39641E-002	4.73244E-002	3.57250E+000	9	...........
	140	1.88	4.36419E-002	-8.87478E-005	0.00000E+000	-3.87312E-006	-5.39641E-002	4.36552E-002	3.57250E+000	9	...........
	141	1.89333	3.99770E-002	-8.88759E-005	0.00000E+000	-3.55300E-006	-5.39641E-002	3.99846E-002	3.57250E+000	9	...........
	142	1.90667	3.63221E-002	-8.86259E-005	0.00000E+000	-3.21908E-006	-5.39641E-002	3.63296E-002	3.57250E+000	9	...........
	143	1.92	3.26954E-002	-8.88499E-005	0.00000E+000	-2.90498E-006	-5.39641E-002	3.27004E-002	3.57250E+000	9	...........
	144	1.93333	2.90710E-002	-8.87905E-005	0.00000E+000	-2.58123E-006	-5.39641E-002	2.90685E-002	3.57250E+000	9	...........
	145	1.94667	2.54687E-002	-8.87040E-005	0.00000E+000	-2.25918E-006	-5.39641E-002	2.54688E-002	3.57250E+000	9	...........
	146	1.96	2.18880E-002	-8.88624E-005	0.00000E+000	-1.94502E-006	-5.39641E-002	2.18873E-002	3.57250E+000	9	...........
	147	1.97333	1.83169E-002	-8.84446E-005	0.00000E+000	-1.62003E-006	-5.39641E-002	1.83181E-002	3.57250E+000	9	...........
	148	1.98667	1.47789E-002	-8.87624E-005	0.00000E+000	-1.31181E-006	-5.39641E-002	1.47748E-002	3.57250E+000	9	...........
	149	2	1.12570E-002	-8.89801E-005	0.00000E+000	-1.00165E-006	-5.39641E-002	1.12525E-002	3.57250E+000	9	...........
	150	2.01333	7.73310E-003	-8.88207E-005	0.00000E+000	-6.86860E-007	-5.39641E-002	7.72226E-003	3.57250E+000	9	...........
	151	2.02667	4.23441E-003	-8.88197E-005	0.00000E+000	-3.76099E-007	-5.39641E-002	4.22223E-003	3.57250E+000	9	...........
	152	2.03833	9.79374E-004	-8.87308E-005	0.00000E+000	-8.69006E-008	-5.39641E-002	9.66279E-004	3.57250E+000	9	...........
STARTTIMEOFFSET	QUANT	1997.198	Start Time Offset (s)
