EXPLAIN
TAG	PWR800_DISCHARGE
TITLE	LABEL	PWR Cyclic Charge Discharge (Cell) - Discharge Step	Test &Identifier
DATE	LABEL	10-7-2017	Date
TIME	LABEL	15:42:43	Time
NOTES	NOTES	3	&Notes...
	supercap test cell
	0.9mg
	6M KOH
PSTAT	PSTAT	IFC5000-01520	Potentiostat
CAPACITY	QUANT	1.00000E-003	Capacity (A-hr)
CELLTYPE	SELECTOR	1	&Cell Type
WORKINGCONNECTION	SELECTOR	0	&Working Lead
MAXDISCHARGETIME	VARIABLEANDUNITS	1.00000E+002	s	1.00000E+002	second(s)	Max &Discharge Time
DISCHARGEMODE	MULTIPARAM	0	9.00000E-005	&Discharge Mode	Constant Current	Amp(s)
SAMPLETIME	QUANT	1.00000E-002	Sa&mple Period (s)
DISCHARGESTOPAT1	MULTIPARAM	3	0.00000E+000	Discharge Stop At &1	Voltage < Limit	V
DISCHARGESTOPAT2	MULTIPARAM	0	0.00000E+000	Discharge Stop At &2	None	N/A
AESBHCSELECTOR	TOGGLE	F	Save Both Half Cells
IRCOMP	TOGGLE	F	IR &Measure
EOC	QUANT	0	Open Circuit (V)
SEQUENCER	TOGGLE	TRUE	Run as Sequence
PSTATMODEL	IQUANT	53	Pstat Model
PSTATSECTION	LABEL	IFC5000-01520	Pstat Section
PSTATSERIALNO	LABEL	01520	Pstat Serial Number
CTRLMODE	IQUANT	0	Control Mode
ELECTROMETER	IQUANT	1	RE=0 or CS=1
IESTAB	IQUANT	0	I/E Stability
CASPEED	IQUANT	4	Control Amp Speed
CONVENTION	IQUANT	1	Current Convention
ICHRANGE	IQUANT	2	Ich Range
ICHRANGEMODE	TOGGLE	T	Ich Auto Range
ICHOFFSETENABLE	TOGGLE	F	Ich Offset Enable
ICHOFFSET	QUANT	0	Ich Offset (V)
ICHFILTER	IQUANT	1	Ich Filter
VCHRANGE	IQUANT	2	Vch Range
VCHRANGEMODE	TOGGLE	T	Vch Auto Range
VCHOFFSETENABLE	TOGGLE	F	Vch Offset Enable
VCHOFFSET	QUANT	0	Vch Offset (V)
VCHFILTER	IQUANT	1	Vch Filter
IERANGELOWERLIMIT	IQUANT	9	I/E Range Lower Limit
IERANGEMODE	TOGGLE	F	I/E AutoRange
IERANGE	IQUANT	9	I/E Range
ACHSELECT	IQUANT	1	Ach Select
ACHRANGE	IQUANT	2	Ach Range
ACHOFFSETENABLE	TOGGLE	F	Ach Offset Enable
ACHOFFSET	QUANT	0	Ach Offset (V)
ACHFILTER	IQUANT	1	Ach Filter
CABLEID	IQUANT	14	Cable ID
DCCALDATE	LABEL	5-7-2017	DC Calibration Date
ACCALDATE	LABEL	12/3/2015	AC Calibration Date
FRAMEWORKVERSION	QUANT	7.01	Framework Version
INSTRUMENTVERSION	LABEL	4.00	Instrument Version
CURVE	TABLE	152
	Pt	T	Vf	Im	Vu	Pwr	Sig	Ach	Temp	IERange	Over
	#	s	V	A	V	W	V	V	deg C	#	bits
	0	0.013333	8.12478E-001	-8.88447E-005	0.00000E+000	-7.21843E-005	-5.39641E-002	8.12627E-001	3.57250E+000	9	...........
	1	0.026667	7.98959E-001	-8.87936E-005	0.00000E+000	-7.09425E-005	-5.39641E-002	7.99096E-001	3.57250E+000	9	...........
	2	0.04	7.86297E-001	-8.87228E-005	0.00000E+000	-6.97625E-005	-5.39641E-002	7.86395E-001	3.57250E+000	9	...........
	3	0.053333	7.74346E-001	-8.90968E-005	0.00000E+000	-6.89918E-005	-5.39641E-002	7.74469E-001	3.57250E+000	9	...........
	4	0.066667	7.62971E-001	-8.85498E-005	0.00000E+000	-6.75609E-005	-5.39641E-002	7.63091E-001	3.57250E+000	9	...........
	5	0.08	7.52093E-001	-8.84790E-005	0.00000E+000	-6.65444E-005	-5.39641E-002	7.52217E-001	3.57250E+000	9	...........
	6	0.093333	7.41630E-001	-8.87374E-005	0.00000E+000	-6.58103E-005	-5.39641E-002	7.41763E-001	3.57250E+000	9	...........
	7	0.106667	7.31564E-001	-8.89228E-005	0.00000E+000	-6.50528E-005	-5.39641E-002	7.31695E-001	3.57250E+000	9	...........
	8	0.12	7.21872E-001	-8.88864E-005	0.00000E+000	-6.41646E-005	-5.39641E-002	7.21959E-001	3.57250E+000	9	...........
	9	0.133333	7.12430E-001	-8.87259E-005	0.00000E+000	-6.32110E-005	-5.39641E-002	7.12560E-001	3.57250E+000	9	...........
	10	0.146667	7.03325E-001	-8.87228E-005	0.00000E+000	-6.24010E-005	-5.39641E-002	7.03402E-001	3.57250E+000	9	...........
	11	0.16	6.94429E-001	-8.88905E-005	0.00000E+000	-6.17282E-005	-5.39641E-002	6.94518E-001	3.57250E+000	9	...........
	12	0.173333	6.85786E-001	-8.88364E-005	0.00000E+000	-6.09227E-005	-5.39641E-002	6.85869E-001	3.57250E+000	9	...........
	13	0.186667	6.77371E-001	-8.91666E-005	0.00000E+000	-6.03988E-005	-5.39641E-002	6.77464E-001	3.57250E+000	9	...........
	14	0.2	6.69159E-001	-8.86478E-005	0.00000E+000	-5.93194E-005	-5.39641E-002	6.69244E-001	3.57250E+000	9	...........
	15	0.213333	6.61091E-001	-8.88051E-005	0.00000E+000	-5.87082E-005	-5.39641E-002	6.61199E-001	3.57250E+000	9	...........
	16	0.226667	6.53228E-001	-8.87926E-005	0.00000E+000	-5.80018E-005	-5.39641E-002	6.53341E-001	3.57250E+000	9	...........
	17	0.24	6.45527E-001	-8.88468E-005	0.00000E+000	-5.73530E-005	-5.39641E-002	6.45634E-001	3.57250E+000	9	...........
	18	0.253333	6.38016E-001	-8.88937E-005	0.00000E+000	-5.67156E-005	-5.39641E-002	6.38107E-001	3.57250E+000	9	...........
	19	0.266667	6.30623E-001	-8.89072E-005	0.00000E+000	-5.60669E-005	-5.39641E-002	6.30727E-001	3.57250E+000	9	...........
	20	0.28	6.23399E-001	-8.86884E-005	0.00000E+000	-5.52883E-005	-5.39641E-002	6.23456E-001	3.57250E+000	9	...........
	21	0.293333	6.16250E-001	-8.86717E-005	0.00000E+000	-5.46440E-005	-5.39641E-002	6.16362E-001	3.57250E+000	9	...........
	22	0.306667	6.09218E-001	-8.85748E-005	0.00000E+000	-5.39614E-005	-5.39641E-002	6.09346E-001	3.57250E+000	9	...........
	23	0.32	6.02342E-001	-8.86728E-005	0.00000E+000	-5.34113E-005	-5.39641E-002	6.02456E-001	3.57250E+000	9	...........
	24	0.333333	5.95605E-001	-8.87811E-005	0.00000E+000	-5.28785E-005	-5.39641E-002	5.95716E-001	3.57250E+000	9	...........
	25	0.346667	5.88958E-001	-8.87853E-005	0.00000E+000	-5.22908E-005	-5.39641E-002	5.89075E-001	3.57250E+000	9	...........
	26	0.36	5.82399E-001	-8.88520E-005	0.00000E+000	-5.17473E-005	-5.39641E-002	5.82516E-001	3.57250E+000	9	...........
	27	0.373333	5.75934E-001	-8.86019E-005	0.00000E+000	-5.10289E-005	-5.39641E-002	5.76065E-001	3.57250E+000	9	...........
	28	0.386667	5.69588E-001	-8.89051E-005	0.00000E+000	-5.06393E-005	-5.39641E-002	5.69687E-001	3.57250E+000	9	...........
	29	0.4	5.63256E-001	-8.88551E-005	0.00000E+000	-5.00482E-005	-5.39641E-002	5.63381E-001	3.57250E+000	9	...........
	30	0.413333	5.56980E-001	-8.88551E-005	0.00000E+000	-4.94905E-005	-5.39641E-002	5.57089E-001	3.57250E+000	9	...........
	31	0.426667	5.50840E-001	-8.89541E-005	0.00000E+000	-4.89995E-005	-5.39641E-002	5.50960E-001	3.57250E+000	9	...........
	32	0.44	5.44770E-001	-8.87363E-005	0.00000E+000	-4.83409E-005	-5.39641E-002	5.44862E-001	3.57250E+000	9	...........
	33	0.453333	5.38747E-001	-8.88447E-005	0.00000E+000	-4.78648E-005	-5.39641E-002	5.38859E-001	3.57250E+000	9	...........
	34	0.466667	5.32765E-001	-8.89457E-005	0.00000E+000	-4.73871E-005	-5.39641E-002	5.32859E-001	3.57250E+000	9	...........
	35	0.48	5.26871E-001	-8.88676E-005	0.00000E+000	-4.68218E-005	-5.39641E-002	5.26971E-001	3.57250E+000	9	...........
	36	0.493333	5.21034E-001	-8.88072E-005	0.00000E+000	-4.62716E-005	-5.39641E-002	5.21120E-001	3.57250E+000	9	...........
	37	0.506667	5.15283E-001	-8.89062E-005	0.00000E+000	-4.58118E-005	-5.39641E-002	5.15370E-001	3.57250E+000	9	...........
	38	0.52	5.09518E-001	-8.89864E-005	0.00000E+000	-4.53402E-005	-5.39641E-002	5.09625E-001	3.57250E+000	9	...........
	39	0.533333	5.03813E-001	-8.88447E-005	0.00000E+000	-4.47611E-005	-5.39641E-002	5.03939E-001	3.57250E+000	9	...........
	40	0.546667	4.98194E-001	-8.86957E-005	0.00000E+000	-4.41877E-005	-5.39641E-002	4.98304E-001	3.57250E+000	9	...........
	41	0.56	4.92626E-001	-8.88791E-005	0.00000E+000	-4.37841E-005	-5.39641E-002	4.92704E-001	3.57250E+000	9	...........
	42	0.573333	4.87071E-001	-8.90885E-005	0.00000E+000	-4.33924E-005	-5.39641E-002	4.87139E-001	3.57250E+000	9	...........
	43	0.586667	4.81651E-001	-8.86571E-005	0.00000E+000	-4.27018E-005	-5.39641E-002	4.81711E-001	3.57250E+000	9	...........
	44	0.6	4.76170E-001	-8.90249E-005	0.00000E+000	-4.23910E-005	-5.39641E-002	4.76231E-001	3.57250E+000	9	...........
	45	0.613333	4.70730E-001	-8.89593E-005	0.00000E+000	-4.18758E-005	-5.39641E-002	4.70787E-001	3.57250E+000	9	...........
	46	0.626667	4.65309E-001	-8.89895E-005	0.00000E+000	-4.14076E-005	-5.39641E-002	4.65374E-001	3.57250E+000	9	...........
	47	0.64	4.59934E-001	-8.89551E-005	0.00000E+000	-4.09134E-005	-5.39641E-002	4.59996E-001	3.57250E+000	9	...........
	48	0.653333	4.54589E-001	-8.88259E-005	0.00000E+000	-4.03793E-005	-5.39641E-002	4.54649E-001	3.57250E+000	9	...........
	49	0.666667	4.49255E-001	-8.86446E-005	0.00000E+000	-3.98240E-005	-5.39641E-002	4.49318E-001	3.57250E+000	9	...........
	50	0.68	4.43965E-001	-8.89312E-005	0.00000E+000	-3.94823E-005	-5.39641E-002	4.44023E-001	3.57250E+000	9	...........
	51	0.693333	4.38704E-001	-8.86988E-005	0.00000E+000	-3.89126E-005	-5.39641E-002	4.38763E-001	3.57250E+000	9	...........
	52	0.706667	4.33461E-001	-8.89166E-005	0.00000E+000	-3.85419E-005	-5.39641E-002	4.33516E-001	3.57250E+000	9	...........
	53	0.72	4.28234E-001	-8.87582E-005	0.00000E+000	-3.80093E-005	-5.39641E-002	4.28295E-001	3.57250E+000	9	...........
	54	0.733333	4.23037E-001	-8.87895E-005	0.00000E+000	-3.75612E-005	-5.39641E-002	4.23092E-001	3.57250E+000	9	...........
	55	0.746667	4.17849E-001	-8.86749E-005	0.00000E+000	-3.70527E-005	-5.39641E-002	4.17912E-001	3.57250E+000	9	...........
	56	0.76	4.12677E-001	-8.89187E-005	0.00000E+000	-3.66947E-005	-5.39641E-002	4.12734E-001	3.57250E+000	9	...........
	57	0.773333	4.07541E-001	-8.89749E-005	0.00000E+000	-3.62609E-005	-5.39641E-002	4.07597E-001	3.57250E+000	9	...........
	58	0.786667	4.02433E-001	-8.87936E-005	0.00000E+000	-3.57335E-005	-5.39641E-002	4.02482E-001	3.57250E+000	9	...........
	59	0.8	3.97347E-001	-8.87082E-005	0.00000E+000	-3.52480E-005	-5.39641E-002	3.97399E-001	3.57250E+000	9	...........
	60	0.813333	3.92274E-001	-8.87436E-005	0.00000E+000	-3.48118E-005	-5.39641E-002	3.92324E-001	3.57250E+000	9	...........
	61	0.826667	3.87219E-001	-8.86363E-005	0.00000E+000	-3.43217E-005	-5.39641E-002	3.87264E-001	3.57250E+000	9	...........
	62	0.84	3.82179E-001	-8.88280E-005	0.00000E+000	-3.39482E-005	-5.39641E-002	3.82228E-001	3.57250E+000	9	...........
	63	0.853333	3.77162E-001	-8.88905E-005	0.00000E+000	-3.35262E-005	-5.39641E-002	3.77207E-001	3.57250E+000	9	...........
	64	0.866667	3.72144E-001	-8.89332E-005	0.00000E+000	-3.30960E-005	-5.39641E-002	3.72187E-001	3.57250E+000	9	...........
	65	0.88	3.67126E-001	-8.85238E-005	0.00000E+000	-3.24994E-005	-5.39641E-002	3.67173E-001	3.57250E+000	9	...........
	66	0.893333	3.62129E-001	-8.86957E-005	0.00000E+000	-3.21193E-005	-5.39641E-002	3.62174E-001	3.57250E+000	9	...........
	67	0.906667	3.57157E-001	-8.88061E-005	0.00000E+000	-3.17177E-005	-5.39641E-002	3.57203E-001	3.57250E+000	9	...........
	68	0.92	3.52202E-001	-8.87915E-005	0.00000E+000	-3.12726E-005	-5.39641E-002	3.52246E-001	3.57250E+000	9	...........
	69	0.933333	3.47252E-001	-8.91854E-005	0.00000E+000	-3.09698E-005	-5.39641E-002	3.47297E-001	3.57250E+000	9	...........
	70	0.946667	3.42329E-001	-8.87113E-005	0.00000E+000	-3.03685E-005	-5.39641E-002	3.42368E-001	3.57250E+000	9	...........
	71	0.96	3.37413E-001	-8.88822E-005	0.00000E+000	-2.99900E-005	-5.39641E-002	3.37450E-001	3.57250E+000	9	...........
	72	0.97333	3.32504E-001	-8.90072E-005	0.00000E+000	-2.95953E-005	-5.39641E-002	3.32546E-001	3.57250E+000	9	...........
	73	0.98667	3.27625E-001	-8.87144E-005	0.00000E+000	-2.90650E-005	-5.39641E-002	3.27667E-001	3.57250E+000	9	...........
	74	1	3.22763E-001	-8.87259E-005	0.00000E+000	-2.86374E-005	-5.39641E-002	3.22801E-001	3.57250E+000	9	...........
	75	1.01333	3.17902E-001	-8.89510E-005	0.00000E+000	-2.82777E-005	-5.39641E-002	3.17947E-001	3.57250E+000	9	...........
	76	1.02667	3.13065E-001	-8.88457E-005	0.00000E+000	-2.78145E-005	-5.39641E-002	3.13100E-001	3.57250E+000	9	...........
	77	1.04	3.08244E-001	-8.87269E-005	0.00000E+000	-2.73496E-005	-5.39641E-002	3.08277E-001	3.57250E+000	9	...........
	78	1.05333	3.03428E-001	-8.87676E-005	0.00000E+000	-2.69345E-005	-5.39641E-002	3.03465E-001	3.57250E+000	9	...........
	79	1.06667	2.98631E-001	-8.89395E-005	0.00000E+000	-2.65601E-005	-5.39641E-002	2.98671E-001	3.57250E+000	9	...........
	80	1.08	2.93844E-001	-8.87895E-005	0.00000E+000	-2.60902E-005	-5.39641E-002	2.93879E-001	3.57250E+000	9	...........
	81	1.09333	2.89067E-001	-8.88739E-005	0.00000E+000	-2.56905E-005	-5.39641E-002	2.89104E-001	3.57250E+000	9	...........
	82	1.10667	2.84311E-001	-8.85134E-005	0.00000E+000	-2.51653E-005	-5.39641E-002	2.84347E-001	3.57250E+000	9	...........
	83	1.12	2.79577E-001	-8.88228E-005	0.00000E+000	-2.48328E-005	-5.39641E-002	2.79615E-001	3.57250E+000	9	...........
	84	1.13333	2.74869E-001	-8.86634E-005	0.00000E+000	-2.43708E-005	-5.39641E-002	2.74900E-001	3.57250E+000	9	...........
	85	1.14667	2.70151E-001	-8.85321E-005	0.00000E+000	-2.39170E-005	-5.39641E-002	2.70181E-001	3.57250E+000	9	...........
	86	1.16	2.65453E-001	-8.86863E-005	0.00000E+000	-2.35420E-005	-5.39641E-002	2.65484E-001	3.57250E+000	9	...........
	87	1.17333	2.60780E-001	-8.88957E-005	0.00000E+000	-2.31822E-005	-5.39641E-002	2.60813E-001	3.57250E+000	9	...........
	88	1.18667	2.56146E-001	-8.87926E-005	0.00000E+000	-2.27439E-005	-5.39641E-002	2.56177E-001	3.57250E+000	9	...........
	89	1.2	2.51518E-001	-8.89301E-005	0.00000E+000	-2.23676E-005	-5.39641E-002	2.51547E-001	3.57250E+000	9	...........
	90	1.21333	2.46908E-001	-8.88853E-005	0.00000E+000	-2.19465E-005	-5.39641E-002	2.46932E-001	3.57250E+000	9	...........
	91	1.22667	2.42322E-001	-8.86957E-005	0.00000E+000	-2.14930E-005	-5.39641E-002	2.42341E-001	3.57250E+000	9	...........
	92	1.24	2.37753E-001	-8.88124E-005	0.00000E+000	-2.11154E-005	-5.39641E-002	2.37773E-001	3.57250E+000	9	...........
	93	1.25333	2.33203E-001	-8.89072E-005	0.00000E+000	-2.07334E-005	-5.39641E-002	2.33223E-001	3.57250E+000	9	...........
	94	1.26667	2.28673E-001	-8.87447E-005	0.00000E+000	-2.02935E-005	-5.39641E-002	2.28691E-001	3.57250E+000	9	...........
	95	1.28	2.24156E-001	-8.88551E-005	0.00000E+000	-1.99174E-005	-5.39641E-002	2.24179E-001	3.57250E+000	9	...........
	96	1.29333	2.19659E-001	-8.88780E-005	0.00000E+000	-1.95229E-005	-5.39641E-002	2.19684E-001	3.57250E+000	9	...........
	97	1.30667	2.15180E-001	-8.88259E-005	0.00000E+000	-1.91135E-005	-5.39641E-002	2.15201E-001	3.57250E+000	9	...........
	98	1.32	2.10745E-001	-8.85363E-005	0.00000E+000	-1.86586E-005	-5.39641E-002	2.10761E-001	3.57250E+000	9	...........
	99	1.33333	2.06311E-001	-8.90676E-005	0.00000E+000	-1.83756E-005	-5.39641E-002	2.06328E-001	3.57250E+000	9	...........
	100	1.34667	2.01894E-001	-8.86519E-005	0.00000E+000	-1.78983E-005	-5.39641E-002	2.01916E-001	3.57250E+000	9	...........
	101	1.36	1.97496E-001	-8.87249E-005	0.00000E+000	-1.75228E-005	-5.39641E-002	1.97516E-001	3.57250E+000	9	...........
	102	1.37333	1.93124E-001	-8.89322E-005	0.00000E+000	-1.71749E-005	-5.39641E-002	1.93146E-001	3.57250E+000	9	...........
	103	1.38667	1.88786E-001	-8.85852E-005	0.00000E+000	-1.67236E-005	-5.39641E-002	1.88806E-001	3.57250E+000	9	...........
	104	1.4	1.84471E-001	-8.88322E-005	0.00000E+000	-1.63870E-005	-5.39641E-002	1.84491E-001	3.57250E+000	9	...........
	105	1.41333	1.80162E-001	-8.88791E-005	0.00000E+000	-1.60126E-005	-5.39641E-002	1.80189E-001	3.57250E+000	9	...........
	106	1.42667	1.75867E-001	-8.87155E-005	0.00000E+000	-1.56022E-005	-5.39641E-002	1.75884E-001	3.57250E+000	9	...........
	107	1.44	1.71584E-001	-8.88572E-005	0.00000E+000	-1.52465E-005	-5.39641E-002	1.71604E-001	3.57250E+000	9	...........
	108	1.45333	1.67326E-001	-8.86874E-005	0.00000E+000	-1.48397E-005	-5.39641E-002	1.67346E-001	3.57250E+000	9	...........
	109	1.46667	1.63082E-001	-8.88530E-005	0.00000E+000	-1.44903E-005	-5.39641E-002	1.63101E-001	3.57250E+000	9	...........
	110	1.48	1.58858E-001	-8.87655E-005	0.00000E+000	-1.41011E-005	-5.39641E-002	1.58876E-001	3.57250E+000	9	...........
	111	1.49333	1.54666E-001	-8.88436E-005	0.00000E+000	-1.37411E-005	-5.39641E-002	1.54683E-001	3.57250E+000	9	...........
	112	1.50667	1.50482E-001	-8.88509E-005	0.00000E+000	-1.33704E-005	-5.39641E-002	1.50501E-001	3.57250E+000	9	...........
	113	1.52	1.46323E-001	-8.86947E-005	0.00000E+000	-1.29780E-005	-5.39641E-002	1.46341E-001	3.57250E+000	9	...........
	114	1.53333	1.42172E-001	-8.89072E-005	0.00000E+000	-1.26401E-005	-5.39641E-002	1.42190E-001	3.57250E+000	9	...........
	115	1.54667	1.38042E-001	-8.86853E-005	0.00000E+000	-1.22423E-005	-5.39641E-002	1.38061E-001	3.57250E+000	9	...........
	116	1.56	1.33930E-001	-8.88989E-005	0.00000E+000	-1.19062E-005	-5.39641E-002	1.33944E-001	3.57250E+000	9	...........
	117	1.57333	1.29841E-001	-8.88811E-005	0.00000E+000	-1.15404E-005	-5.39641E-002	1.29855E-001	3.57250E+000	9	...........
	118	1.58667	1.25764E-001	-8.88020E-005	0.00000E+000	-1.11681E-005	-5.39641E-002	1.25779E-001	3.57250E+000	9	...........
	119	1.6	1.21711E-001	-8.86311E-005	0.00000E+000	-1.07874E-005	-5.39641E-002	1.21724E-001	3.57250E+000	9	...........
	120	1.61333	1.17675E-001	-8.87863E-005	0.00000E+000	-1.04479E-005	-5.39641E-002	1.17688E-001	3.57250E+000	9	...........
	121	1.62667	1.13647E-001	-8.90583E-005	0.00000E+000	-1.01212E-005	-5.39641E-002	1.13667E-001	3.57250E+000	9	...........
	122	1.64	1.09654E-001	-8.88405E-005	0.00000E+000	-9.74172E-006	-5.39641E-002	1.09663E-001	3.57250E+000	9	...........
	123	1.65333	1.05668E-001	-8.89051E-005	0.00000E+000	-9.39442E-006	-5.39641E-002	1.05681E-001	3.57250E+000	9	...........
	124	1.66667	1.01704E-001	-8.90531E-005	0.00000E+000	-9.05704E-006	-5.39641E-002	1.01719E-001	3.57250E+000	9	...........
	125	1.68	9.77561E-002	-8.87457E-005	0.00000E+000	-8.67543E-006	-5.39641E-002	9.77716E-002	3.57250E+000	9	...........
	126	1.69333	9.38339E-002	-8.87676E-005	0.00000E+000	-8.32941E-006	-5.39641E-002	9.38443E-002	3.57250E+000	9	...........
	127	1.70667	8.99193E-002	-8.87832E-005	0.00000E+000	-7.98332E-006	-5.39641E-002	8.99313E-002	3.57250E+000	9	...........
	128	1.72	8.60227E-002	-8.87749E-005	0.00000E+000	-7.63665E-006	-5.39641E-002	8.60329E-002	3.57250E+000	9	...........
	129	1.73333	8.21422E-002	-8.89218E-005	0.00000E+000	-7.30423E-006	-5.39641E-002	8.21477E-002	3.57250E+000	9	...........
	130	1.74667	7.82788E-002	-8.85863E-005	0.00000E+000	-6.93443E-006	-5.39641E-002	7.82822E-002	3.57250E+000	9	...........
	131	1.76	7.44324E-002	-8.87384E-005	0.00000E+000	-6.60501E-006	-5.39641E-002	7.44305E-002	3.57250E+000	9	...........
	132	1.77333	7.05936E-002	-8.89905E-005	0.00000E+000	-6.28217E-006	-5.39641E-002	7.05940E-002	3.57250E+000	9	...........
	133	1.78667	6.67856E-002	-8.89103E-005	0.00000E+000	-5.93793E-006	-5.39641E-002	6.67843E-002	3.57250E+000	9	...........
	134	1.8	6.30012E-002	-8.87436E-005	0.00000E+000	-5.59095E-006	-5.39641E-002	6.30070E-002	3.57250E+000	9	...........
	135	1.81333	5.92321E-002	-8.88186E-005	0.00000E+000	-5.26092E-006	-5.39641E-002	5.92333E-002	3.57250E+000	9	...........
	136	1.82667	5.54751E-002	-8.90228E-005	0.00000E+000	-4.93855E-006	-5.39641E-002	5.54808E-002	3.57250E+000	9	...........
	137	1.84	5.17451E-002	-8.89562E-005	0.00000E+000	-4.60304E-006	-5.39641E-002	5.17508E-002	3.57250E+000	9	...........
	138	1.85333	4.80319E-002	-8.89551E-005	0.00000E+000	-4.27268E-006	-5.39641E-002	4.80388E-002	3.57250E+000	9	...........
	139	1.86667	4.43227E-002	-8.89082E-005	0.00000E+000	-3.94065E-006	-5.39641E-002	4.43337E-002	3.57250E+000	9	...........
	140	1.88	4.06192E-002	-8.88332E-005	0.00000E+000	-3.60834E-006	-5.39641E-002	4.06312E-002	3.57250E+000	9	...........
	141	1.89333	3.69470E-002	-8.88280E-005	0.00000E+000	-3.28193E-006	-5.39641E-002	3.69558E-002	3.57250E+000	9	...........
	142	1.90667	3.32859E-002	-8.89124E-005	0.00000E+000	-2.95953E-006	-5.39641E-002	3.32901E-002	3.57250E+000	9	...........
	143	1.92	2.96416E-002	-8.85311E-005	0.00000E+000	-2.62421E-006	-5.39641E-002	2.96468E-002	3.57250E+000	9	...........
	144	1.93333	2.60219E-002	-8.87676E-005	0.00000E+000	-2.30990E-006	-5.39641E-002	2.60195E-002	3.57250E+000	9	...........
	145	1.94667	2.24106E-002	-8.87540E-005	0.00000E+000	-1.98903E-006	-5.39641E-002	2.24078E-002	3.57250E+000	9	...........
	146	1.96	1.88091E-002	-8.89937E-005	0.00000E+000	-1.67389E-006	-5.39641E-002	1.88027E-002	3.57250E+000	9	...........
	147	1.97333	1.52190E-002	-8.86978E-005	0.00000E+000	-1.34989E-006	-5.39641E-002	1.52121E-002	3.57250E+000	9	...........
	148	1.98667	1.16567E-002	-8.88134E-005	0.00000E+000	-1.03528E-006	-5.39641E-002	1.16469E-002	3.57250E+000	9	...........
	149	2	8.11423E-003	-8.87342E-005	0.00000E+000	-7.20010E-007	-5.39641E-002	8.10191E-003	3.57250E+000	9	...........
	150	2.01333	4.58467E-003	-8.90489E-005	0.00000E+000	-4.08260E-007	-5.39641E-002	4.57189E-003	3.57250E+000	9	...........
	151	2.025	1.28440E-003	-8.88308E-005	0.00000E+000	-1.14094E-007	-5.39641E-002	1.27466E-003	3.57250E+000	9	...........
STARTTIMEOFFSET	QUANT	2198.808	Start Time Offset (s)
