EXPLAIN
TAG	PWR800_DISCHARGE
TITLE	LABEL	PWR Cyclic Charge Discharge (Cell) - Discharge Step	Test &Identifier
DATE	LABEL	10-7-2017	Date
TIME	LABEL	15:41:58	Time
NOTES	NOTES	3	&Notes...
	supercap test cell
	0.9mg
	6M KOH
PSTAT	PSTAT	IFC5000-01520	Potentiostat
CAPACITY	QUANT	1.00000E-003	Capacity (A-hr)
CELLTYPE	SELECTOR	1	&Cell Type
WORKINGCONNECTION	SELECTOR	0	&Working Lead
MAXDISCHARGETIME	VARIABLEANDUNITS	1.00000E+002	s	1.00000E+002	second(s)	Max &Discharge Time
DISCHARGEMODE	MULTIPARAM	0	9.00000E-005	&Discharge Mode	Constant Current	Amp(s)
SAMPLETIME	QUANT	1.00000E-002	Sa&mple Period (s)
DISCHARGESTOPAT1	MULTIPARAM	3	0.00000E+000	Discharge Stop At &1	Voltage < Limit	V
DISCHARGESTOPAT2	MULTIPARAM	0	0.00000E+000	Discharge Stop At &2	None	N/A
AESBHCSELECTOR	TOGGLE	F	Save Both Half Cells
IRCOMP	TOGGLE	F	IR &Measure
EOC	QUANT	0	Open Circuit (V)
SEQUENCER	TOGGLE	TRUE	Run as Sequence
PSTATMODEL	IQUANT	53	Pstat Model
PSTATSECTION	LABEL	IFC5000-01520	Pstat Section
PSTATSERIALNO	LABEL	01520	Pstat Serial Number
CTRLMODE	IQUANT	0	Control Mode
ELECTROMETER	IQUANT	1	RE=0 or CS=1
IESTAB	IQUANT	0	I/E Stability
CASPEED	IQUANT	4	Control Amp Speed
CONVENTION	IQUANT	1	Current Convention
ICHRANGE	IQUANT	2	Ich Range
ICHRANGEMODE	TOGGLE	T	Ich Auto Range
ICHOFFSETENABLE	TOGGLE	F	Ich Offset Enable
ICHOFFSET	QUANT	0	Ich Offset (V)
ICHFILTER	IQUANT	1	Ich Filter
VCHRANGE	IQUANT	2	Vch Range
VCHRANGEMODE	TOGGLE	T	Vch Auto Range
VCHOFFSETENABLE	TOGGLE	F	Vch Offset Enable
VCHOFFSET	QUANT	0	Vch Offset (V)
VCHFILTER	IQUANT	1	Vch Filter
IERANGELOWERLIMIT	IQUANT	9	I/E Range Lower Limit
IERANGEMODE	TOGGLE	F	I/E AutoRange
IERANGE	IQUANT	9	I/E Range
ACHSELECT	IQUANT	1	Ach Select
ACHRANGE	IQUANT	2	Ach Range
ACHOFFSETENABLE	TOGGLE	F	Ach Offset Enable
ACHOFFSET	QUANT	0	Ach Offset (V)
ACHFILTER	IQUANT	1	Ach Filter
CABLEID	IQUANT	14	Cable ID
DCCALDATE	LABEL	5-7-2017	DC Calibration Date
ACCALDATE	LABEL	12/3/2015	AC Calibration Date
FRAMEWORKVERSION	QUANT	7.01	Framework Version
INSTRUMENTVERSION	LABEL	4.00	Instrument Version
CURVE	TABLE	153
	Pt	T	Vf	Im	Vu	Pwr	Sig	Ach	Temp	IERange	Over
	#	s	V	A	V	W	V	V	deg C	#	bits
	0	0.013333	8.12523E-001	-8.84446E-005	0.00000E+000	-7.18633E-005	-5.39641E-002	8.12671E-001	3.57250E+000	9	...........
	1	0.026667	7.99038E-001	-8.88895E-005	0.00000E+000	-7.10261E-005	-5.39641E-002	7.99152E-001	3.57250E+000	9	...........
	2	0.04	7.86356E-001	-8.85488E-005	0.00000E+000	-6.96309E-005	-5.39641E-002	7.86479E-001	3.57250E+000	9	...........
	3	0.053333	7.74394E-001	-8.90781E-005	0.00000E+000	-6.89815E-005	-5.39641E-002	7.74545E-001	3.57250E+000	9	...........
	4	0.066667	7.63048E-001	-8.87540E-005	0.00000E+000	-6.77236E-005	-5.39641E-002	7.63179E-001	3.57250E+000	9	...........
	5	0.08	7.52163E-001	-8.83883E-005	0.00000E+000	-6.64824E-005	-5.39641E-002	7.52296E-001	3.57250E+000	9	...........
	6	0.093333	7.41717E-001	-8.88426E-005	0.00000E+000	-6.58960E-005	-5.39641E-002	7.41856E-001	3.57250E+000	9	...........
	7	0.106667	7.31662E-001	-8.86071E-005	0.00000E+000	-6.48305E-005	-5.39641E-002	7.31794E-001	3.57250E+000	9	...........
	8	0.12	7.21961E-001	-8.87186E-005	0.00000E+000	-6.40514E-005	-5.39641E-002	7.22074E-001	3.57250E+000	9	...........
	9	0.133333	7.12497E-001	-8.85998E-005	0.00000E+000	-6.31271E-005	-5.39641E-002	7.12643E-001	3.57250E+000	9	...........
	10	0.146667	7.03389E-001	-8.88572E-005	0.00000E+000	-6.25012E-005	-5.39641E-002	7.03520E-001	3.57250E+000	9	...........
	11	0.16	6.94539E-001	-8.87415E-005	0.00000E+000	-6.16345E-005	-5.39641E-002	6.94638E-001	3.57250E+000	9	...........
	12	0.173333	6.85897E-001	-8.87895E-005	0.00000E+000	-6.09005E-005	-5.39641E-002	6.85968E-001	3.57250E+000	9	...........
	13	0.186667	6.77499E-001	-8.89103E-005	0.00000E+000	-6.02367E-005	-5.39641E-002	6.77557E-001	3.57250E+000	9	...........
	14	0.2	6.69285E-001	-8.87228E-005	0.00000E+000	-5.93808E-005	-5.39641E-002	6.69338E-001	3.57250E+000	9	...........
	15	0.213333	6.61253E-001	-8.89374E-005	0.00000E+000	-5.88102E-005	-5.39641E-002	6.61302E-001	3.57250E+000	9	...........
	16	0.226667	6.53433E-001	-8.86405E-005	0.00000E+000	-5.79206E-005	-5.39641E-002	6.53457E-001	3.57250E+000	9	...........
	17	0.24	6.45761E-001	-8.87363E-005	0.00000E+000	-5.73025E-005	-5.39641E-002	6.45802E-001	3.57250E+000	9	...........
	18	0.253333	6.38222E-001	-8.87770E-005	0.00000E+000	-5.66594E-005	-5.39641E-002	6.38308E-001	3.57250E+000	9	...........
	19	0.266667	6.30853E-001	-8.86592E-005	0.00000E+000	-5.59310E-005	-5.39641E-002	6.30951E-001	3.57250E+000	9	...........
	20	0.28	6.23633E-001	-8.87551E-005	0.00000E+000	-5.53506E-005	-5.39641E-002	6.23739E-001	3.57250E+000	9	...........
	21	0.293333	6.16527E-001	-8.89541E-005	0.00000E+000	-5.48426E-005	-5.39641E-002	6.16643E-001	3.57250E+000	9	...........
	22	0.306667	6.09478E-001	-8.88916E-005	0.00000E+000	-5.41775E-005	-5.39641E-002	6.09602E-001	3.57250E+000	9	...........
	23	0.32	6.02640E-001	-8.87822E-005	0.00000E+000	-5.35037E-005	-5.39641E-002	6.02763E-001	3.57250E+000	9	...........
	24	0.333333	5.95900E-001	-8.89958E-005	0.00000E+000	-5.30326E-005	-5.39641E-002	5.96032E-001	3.57250E+000	9	...........
	25	0.346667	5.89234E-001	-8.88916E-005	0.00000E+000	-5.23779E-005	-5.39641E-002	5.89373E-001	3.57250E+000	9	...........
	26	0.36	5.82653E-001	-8.90114E-005	0.00000E+000	-5.18628E-005	-5.39641E-002	5.82791E-001	3.57250E+000	9	...........
	27	0.373333	5.76217E-001	-8.88384E-005	0.00000E+000	-5.11902E-005	-5.39641E-002	5.76332E-001	3.57250E+000	9	...........
	28	0.386667	5.69830E-001	-8.87405E-005	0.00000E+000	-5.05670E-005	-5.39641E-002	5.69972E-001	3.57250E+000	9	...........
	29	0.4	5.63525E-001	-8.84717E-005	0.00000E+000	-4.98560E-005	-5.39641E-002	5.63662E-001	3.57250E+000	9	...........
	30	0.413333	5.57282E-001	-8.85467E-005	0.00000E+000	-4.93455E-005	-5.39641E-002	5.57415E-001	3.57250E+000	9	...........
	31	0.426667	5.51129E-001	-8.87082E-005	0.00000E+000	-4.88896E-005	-5.39641E-002	5.51249E-001	3.57250E+000	9	...........
	32	0.44	5.45034E-001	-8.87999E-005	0.00000E+000	-4.83990E-005	-5.39641E-002	5.45180E-001	3.57250E+000	9	...........
	33	0.453333	5.39026E-001	-8.86790E-005	0.00000E+000	-4.78003E-005	-5.39641E-002	5.39171E-001	3.57250E+000	9	...........
	34	0.466667	5.33035E-001	-8.87363E-005	0.00000E+000	-4.72995E-005	-5.39641E-002	5.33164E-001	3.57250E+000	9	...........
	35	0.48	5.27161E-001	-8.87290E-005	0.00000E+000	-4.67745E-005	-5.39641E-002	5.27282E-001	3.57250E+000	9	...........
	36	0.493333	5.21320E-001	-8.85894E-005	0.00000E+000	-4.61835E-005	-5.39641E-002	5.21420E-001	3.57250E+000	9	...........
	37	0.506667	5.15561E-001	-8.86363E-005	0.00000E+000	-4.56974E-005	-5.39641E-002	5.15667E-001	3.57250E+000	9	...........
	38	0.52	5.09806E-001	-8.86822E-005	0.00000E+000	-4.52107E-005	-5.39641E-002	5.09938E-001	3.57250E+000	9	...........
	39	0.533333	5.04108E-001	-8.87249E-005	0.00000E+000	-4.47269E-005	-5.39641E-002	5.04263E-001	3.57250E+000	9	...........
	40	0.546667	4.98478E-001	-8.88447E-005	0.00000E+000	-4.42871E-005	-5.39641E-002	4.98615E-001	3.57250E+000	9	...........
	41	0.56	4.92890E-001	-8.90062E-005	0.00000E+000	-4.38702E-005	-5.39641E-002	4.93024E-001	3.57250E+000	9	...........
	42	0.573333	4.87348E-001	-8.85842E-005	0.00000E+000	-4.31713E-005	-5.39641E-002	4.87491E-001	3.57250E+000	9	...........
	43	0.586667	4.81943E-001	-8.88780E-005	0.00000E+000	-4.28341E-005	-5.39641E-002	4.82014E-001	3.57250E+000	9	...........
	44	0.6	4.76466E-001	-8.88968E-005	0.00000E+000	-4.23563E-005	-5.39641E-002	4.76531E-001	3.57250E+000	9	...........
	45	0.613333	4.71033E-001	-8.89009E-005	0.00000E+000	-4.18753E-005	-5.39641E-002	4.71102E-001	3.57250E+000	9	...........
	46	0.626667	4.65632E-001	-8.87895E-005	0.00000E+000	-4.13432E-005	-5.39641E-002	4.65693E-001	3.57250E+000	9	...........
	47	0.64	4.60250E-001	-8.88895E-005	0.00000E+000	-4.09114E-005	-5.39641E-002	4.60311E-001	3.57250E+000	9	...........
	48	0.653333	4.54903E-001	-8.86394E-005	0.00000E+000	-4.03223E-005	-5.39641E-002	4.54957E-001	3.57250E+000	9	...........
	49	0.666667	4.49594E-001	-8.86436E-005	0.00000E+000	-3.98536E-005	-5.39641E-002	4.49652E-001	3.57250E+000	9	...........
	50	0.68	4.44296E-001	-8.88322E-005	0.00000E+000	-3.94678E-005	-5.39641E-002	4.44359E-001	3.57250E+000	9	...........
	51	0.693333	4.39031E-001	-8.90103E-005	0.00000E+000	-3.90783E-005	-5.39641E-002	4.39093E-001	3.57250E+000	9	...........
	52	0.706667	4.33783E-001	-8.88291E-005	0.00000E+000	-3.85326E-005	-5.39641E-002	4.33841E-001	3.57250E+000	9	...........
	53	0.72	4.28564E-001	-8.87540E-005	0.00000E+000	-3.80368E-005	-5.39641E-002	4.28619E-001	3.57250E+000	9	...........
	54	0.733333	4.23357E-001	-8.90197E-005	0.00000E+000	-3.76871E-005	-5.39641E-002	4.23412E-001	3.57250E+000	9	...........
	55	0.746667	4.18176E-001	-8.86561E-005	0.00000E+000	-3.70738E-005	-5.39641E-002	4.18233E-001	3.57250E+000	9	...........
	56	0.76	4.13024E-001	-8.86259E-005	0.00000E+000	-3.66046E-005	-5.39641E-002	4.13081E-001	3.57250E+000	9	...........
	57	0.773333	4.07888E-001	-8.86905E-005	0.00000E+000	-3.61758E-005	-5.39641E-002	4.07941E-001	3.57250E+000	9	...........
	58	0.786667	4.02779E-001	-8.87790E-005	0.00000E+000	-3.57583E-005	-5.39641E-002	4.02828E-001	3.57250E+000	9	...........
	59	0.8	3.97689E-001	-8.86769E-005	0.00000E+000	-3.52659E-005	-5.39641E-002	3.97740E-001	3.57250E+000	9	...........
	60	0.813333	3.92597E-001	-8.86301E-005	0.00000E+000	-3.47959E-005	-5.39641E-002	3.92646E-001	3.57250E+000	9	...........
	61	0.826667	3.87508E-001	-8.85811E-005	0.00000E+000	-3.43259E-005	-5.39641E-002	3.87558E-001	3.57250E+000	9	...........
	62	0.84	3.82461E-001	-8.88124E-005	0.00000E+000	-3.39673E-005	-5.39641E-002	3.82506E-001	3.57250E+000	9	...........
	63	0.853333	3.77429E-001	-8.87322E-005	0.00000E+000	-3.34901E-005	-5.39641E-002	3.77473E-001	3.57250E+000	9	...........
	64	0.866667	3.72417E-001	-8.88457E-005	0.00000E+000	-3.30876E-005	-5.39641E-002	3.72456E-001	3.57250E+000	9	...........
	65	0.88	3.67403E-001	-8.85696E-005	0.00000E+000	-3.25407E-005	-5.39641E-002	3.67449E-001	3.57250E+000	9	...........
	66	0.893333	3.62399E-001	-8.86478E-005	0.00000E+000	-3.21258E-005	-5.39641E-002	3.62447E-001	3.57250E+000	9	...........
	67	0.906667	3.57412E-001	-8.87936E-005	0.00000E+000	-3.17360E-005	-5.39641E-002	3.57455E-001	3.57250E+000	9	...........
	68	0.92	3.52442E-001	-8.89062E-005	0.00000E+000	-3.13343E-005	-5.39641E-002	3.52489E-001	3.57250E+000	9	...........
	69	0.933333	3.47499E-001	-8.88186E-005	0.00000E+000	-3.08643E-005	-5.39641E-002	3.47544E-001	3.57250E+000	9	...........
	70	0.946667	3.42573E-001	-8.87290E-005	0.00000E+000	-3.03962E-005	-5.39641E-002	3.42613E-001	3.57250E+000	9	...........
	71	0.96	3.37667E-001	-8.87790E-005	0.00000E+000	-2.99778E-005	-5.39641E-002	3.37707E-001	3.57250E+000	9	...........
	72	0.97333	3.32772E-001	-8.86717E-005	0.00000E+000	-2.95074E-005	-5.39641E-002	3.32812E-001	3.57250E+000	9	...........
	73	0.98667	3.27885E-001	-8.87634E-005	0.00000E+000	-2.91042E-005	-5.39641E-002	3.27923E-001	3.57250E+000	9	...........
	74	1	3.23021E-001	-8.90291E-005	0.00000E+000	-2.87582E-005	-5.39641E-002	3.23066E-001	3.57250E+000	9	...........
	75	1.01333	3.18179E-001	-8.91291E-005	0.00000E+000	-2.83590E-005	-5.39641E-002	3.18224E-001	3.57250E+000	9	...........
	76	1.02667	3.13347E-001	-8.88468E-005	0.00000E+000	-2.78399E-005	-5.39641E-002	3.13387E-001	3.57250E+000	9	...........
	77	1.04	3.08518E-001	-8.88416E-005	0.00000E+000	-2.74092E-005	-5.39641E-002	3.08558E-001	3.57250E+000	9	...........
	78	1.05333	3.03705E-001	-8.87030E-005	0.00000E+000	-2.69395E-005	-5.39641E-002	3.03745E-001	3.57250E+000	9	...........
	79	1.06667	2.98916E-001	-8.90103E-005	0.00000E+000	-2.66066E-005	-5.39641E-002	2.98955E-001	3.57250E+000	9	...........
	80	1.08	2.94132E-001	-8.88051E-005	0.00000E+000	-2.61204E-005	-5.39641E-002	2.94166E-001	3.57250E+000	9	...........
	81	1.09333	2.89354E-001	-8.88447E-005	0.00000E+000	-2.57076E-005	-5.39641E-002	2.89386E-001	3.57250E+000	9	...........
	82	1.10667	2.84600E-001	-8.87613E-005	0.00000E+000	-2.52614E-005	-5.39641E-002	2.84638E-001	3.57250E+000	9	...........
	83	1.12	2.79876E-001	-8.85082E-005	0.00000E+000	-2.47713E-005	-5.39641E-002	2.79905E-001	3.57250E+000	9	...........
	84	1.13333	2.75177E-001	-8.88051E-005	0.00000E+000	-2.44371E-005	-5.39641E-002	2.75217E-001	3.57250E+000	9	...........
	85	1.14667	2.70480E-001	-8.90197E-005	0.00000E+000	-2.40780E-005	-5.39641E-002	2.70511E-001	3.57250E+000	9	...........
	86	1.16	2.65801E-001	-8.87061E-005	0.00000E+000	-2.35782E-005	-5.39641E-002	2.65834E-001	3.57250E+000	9	...........
	87	1.17333	2.61126E-001	-8.89145E-005	0.00000E+000	-2.32179E-005	-5.39641E-002	2.61160E-001	3.57250E+000	9	...........
	88	1.18667	2.56483E-001	-8.87415E-005	0.00000E+000	-2.27607E-005	-5.39641E-002	2.56523E-001	3.57250E+000	9	...........
	89	1.2	2.51873E-001	-8.87249E-005	0.00000E+000	-2.23474E-005	-5.39641E-002	2.51904E-001	3.57250E+000	9	...........
	90	1.21333	2.47269E-001	-8.88009E-005	0.00000E+000	-2.19577E-005	-5.39641E-002	2.47304E-001	3.57250E+000	9	...........
	91	1.22667	2.42694E-001	-8.86019E-005	0.00000E+000	-2.15032E-005	-5.39641E-002	2.42718E-001	3.57250E+000	9	...........
	92	1.24	2.38121E-001	-8.90572E-005	0.00000E+000	-2.12064E-005	-5.39641E-002	2.38150E-001	3.57250E+000	9	...........
	93	1.25333	2.33568E-001	-8.87811E-005	0.00000E+000	-2.07365E-005	-5.39641E-002	2.33597E-001	3.57250E+000	9	...........
	94	1.26667	2.29055E-001	-8.88009E-005	0.00000E+000	-2.03403E-005	-5.39641E-002	2.29077E-001	3.57250E+000	9	...........
	95	1.28	2.24547E-001	-8.85978E-005	0.00000E+000	-1.98944E-005	-5.39641E-002	2.24573E-001	3.57250E+000	9	...........
	96	1.29333	2.20050E-001	-8.87353E-005	0.00000E+000	-1.95262E-005	-5.39641E-002	2.20073E-001	3.57250E+000	9	...........
	97	1.30667	2.15574E-001	-8.86342E-005	0.00000E+000	-1.91072E-005	-5.39641E-002	2.15597E-001	3.57250E+000	9	...........
	98	1.32	2.11119E-001	-8.88311E-005	0.00000E+000	-1.87539E-005	-5.39641E-002	2.11145E-001	3.57250E+000	9	...........
	99	1.33333	2.06685E-001	-8.89051E-005	0.00000E+000	-1.83753E-005	-5.39641E-002	2.06709E-001	3.57250E+000	9	...........
	100	1.34667	2.02282E-001	-8.87019E-005	0.00000E+000	-1.79428E-005	-5.39641E-002	2.02303E-001	3.57250E+000	9	...........
	101	1.36	1.97904E-001	-8.88436E-005	0.00000E+000	-1.75825E-005	-5.39641E-002	1.97928E-001	3.57250E+000	9	...........
	102	1.37333	1.93538E-001	-8.87874E-005	0.00000E+000	-1.71837E-005	-5.39641E-002	1.93561E-001	3.57250E+000	9	...........
	103	1.38667	1.89195E-001	-8.87103E-005	0.00000E+000	-1.67836E-005	-5.39641E-002	1.89214E-001	3.57250E+000	9	...........
	104	1.4	1.84870E-001	-8.88634E-005	0.00000E+000	-1.64282E-005	-5.39641E-002	1.84886E-001	3.57250E+000	9	...........
	105	1.41333	1.80567E-001	-8.88582E-005	0.00000E+000	-1.60449E-005	-5.39641E-002	1.80593E-001	3.57250E+000	9	...........
	106	1.42667	1.76293E-001	-8.87176E-005	0.00000E+000	-1.56403E-005	-5.39641E-002	1.76305E-001	3.57250E+000	9	...........
	107	1.44	1.72024E-001	-8.88801E-005	0.00000E+000	-1.52895E-005	-5.39641E-002	1.72043E-001	3.57250E+000	9	...........
	108	1.45333	1.67772E-001	-8.86947E-005	0.00000E+000	-1.48805E-005	-5.39641E-002	1.67790E-001	3.57250E+000	9	...........
	109	1.46667	1.63551E-001	-8.85873E-005	0.00000E+000	-1.44885E-005	-5.39641E-002	1.63565E-001	3.57250E+000	9	...........
	110	1.48	1.59340E-001	-8.90697E-005	0.00000E+000	-1.41924E-005	-5.39641E-002	1.59354E-001	3.57250E+000	9	...........
	111	1.49333	1.55151E-001	-8.90343E-005	0.00000E+000	-1.38137E-005	-5.39641E-002	1.55162E-001	3.57250E+000	9	...........
	112	1.50667	1.50989E-001	-8.87843E-005	0.00000E+000	-1.34055E-005	-5.39641E-002	1.50998E-001	3.57250E+000	9	...........
	113	1.52	1.46850E-001	-8.88561E-005	0.00000E+000	-1.30485E-005	-5.39641E-002	1.46861E-001	3.57250E+000	9	...........
	114	1.53333	1.42727E-001	-8.85894E-005	0.00000E+000	-1.26441E-005	-5.39641E-002	1.42738E-001	3.57250E+000	9	...........
	115	1.54667	1.38607E-001	-8.88530E-005	0.00000E+000	-1.23157E-005	-5.39641E-002	1.38619E-001	3.57250E+000	9	...........
	116	1.56	1.34518E-001	-8.86301E-005	0.00000E+000	-1.19223E-005	-5.39641E-002	1.34526E-001	3.57250E+000	9	...........
	117	1.57333	1.30436E-001	-8.88895E-005	0.00000E+000	-1.15944E-005	-5.39641E-002	1.30446E-001	3.57250E+000	9	...........
	118	1.58667	1.26366E-001	-8.87395E-005	0.00000E+000	-1.12136E-005	-5.39641E-002	1.26378E-001	3.57250E+000	9	...........
	119	1.6	1.22306E-001	-8.87686E-005	0.00000E+000	-1.08569E-005	-5.39641E-002	1.22319E-001	3.57250E+000	9	...........
	120	1.61333	1.18273E-001	-8.88509E-005	0.00000E+000	-1.05087E-005	-5.39641E-002	1.18280E-001	3.57250E+000	9	...........
	121	1.62667	1.14244E-001	-8.89822E-005	0.00000E+000	-1.01657E-005	-5.39641E-002	1.14253E-001	3.57250E+000	9	...........
	122	1.64	1.10235E-001	-8.88468E-005	0.00000E+000	-9.79407E-006	-5.39641E-002	1.10243E-001	3.57250E+000	9	...........
	123	1.65333	1.06254E-001	-8.88666E-005	0.00000E+000	-9.44240E-006	-5.39641E-002	1.06262E-001	3.57250E+000	9	...........
	124	1.66667	1.02279E-001	-8.86321E-005	0.00000E+000	-9.06521E-006	-5.39641E-002	1.02287E-001	3.57250E+000	9	...........
	125	1.68	9.83253E-002	-8.89801E-005	0.00000E+000	-8.74900E-006	-5.39641E-002	9.83394E-002	3.57250E+000	9	...........
	126	1.69333	9.43994E-002	-8.91250E-005	0.00000E+000	-8.41335E-006	-5.39641E-002	9.44070E-002	3.57250E+000	9	...........
	127	1.70667	9.04804E-002	-8.90030E-005	0.00000E+000	-8.05303E-006	-5.39641E-002	9.04928E-002	3.57250E+000	9	...........
	128	1.72	8.65795E-002	-8.86874E-005	0.00000E+000	-7.67851E-006	-5.39641E-002	8.65881E-002	3.57250E+000	9	...........
	129	1.73333	8.27023E-002	-8.86936E-005	0.00000E+000	-7.33517E-006	-5.39641E-002	8.27078E-002	3.57250E+000	9	...........
	130	1.74667	7.88482E-002	-8.87738E-005	0.00000E+000	-6.99966E-006	-5.39641E-002	7.88532E-002	3.57250E+000	9	...........
	131	1.76	7.50002E-002	-8.91250E-005	0.00000E+000	-6.68439E-006	-5.39641E-002	7.50073E-002	3.57250E+000	9	...........
	132	1.77333	7.11778E-002	-8.86967E-005	0.00000E+000	-6.31324E-006	-5.39641E-002	7.11847E-002	3.57250E+000	9	...........
	133	1.78667	6.73650E-002	-8.88822E-005	0.00000E+000	-5.98755E-006	-5.39641E-002	6.73680E-002	3.57250E+000	9	...........
	134	1.8	6.35715E-002	-8.87843E-005	0.00000E+000	-5.64415E-006	-5.39641E-002	6.35707E-002	3.57250E+000	9	...........
	135	1.81333	5.97887E-002	-8.88384E-005	0.00000E+000	-5.31154E-006	-5.39641E-002	5.97898E-002	3.57250E+000	9	...........
	136	1.82667	5.60285E-002	-8.86363E-005	0.00000E+000	-4.96616E-006	-5.39641E-002	5.60302E-002	3.57250E+000	9	...........
	137	1.84	5.22772E-002	-8.87770E-005	0.00000E+000	-4.64101E-006	-5.39641E-002	5.22792E-002	3.57250E+000	9	...........
	138	1.85333	4.85487E-002	-8.84061E-005	0.00000E+000	-4.29200E-006	-5.39641E-002	4.85497E-002	3.57250E+000	9	...........
	139	1.86667	4.48409E-002	-8.88645E-005	0.00000E+000	-3.98476E-006	-5.39641E-002	4.48510E-002	3.57250E+000	9	...........
	140	1.88	4.11465E-002	-8.86332E-005	0.00000E+000	-3.64694E-006	-5.39641E-002	4.11536E-002	3.57250E+000	9	...........
	141	1.89333	3.74775E-002	-8.89864E-005	0.00000E+000	-3.33498E-006	-5.39641E-002	3.74897E-002	3.57250E+000	9	...........
	142	1.90667	3.38235E-002	-8.85717E-005	0.00000E+000	-2.99581E-006	-5.39641E-002	3.38297E-002	3.57250E+000	9	...........
	143	1.92	3.01945E-002	-8.88343E-005	0.00000E+000	-2.68231E-006	-5.39641E-002	3.01963E-002	3.57250E+000	9	...........
	144	1.93333	2.65765E-002	-8.88822E-005	0.00000E+000	-2.36218E-006	-5.39641E-002	2.65765E-002	3.57250E+000	9	...........
	145	1.94667	2.29721E-002	-8.85686E-005	0.00000E+000	-2.03461E-006	-5.39641E-002	2.29733E-002	3.57250E+000	9	...........
	146	1.96	1.93889E-002	-8.86373E-005	0.00000E+000	-1.71858E-006	-5.39641E-002	1.93854E-002	3.57250E+000	9	...........
	147	1.97333	1.58198E-002	-8.85123E-005	0.00000E+000	-1.40025E-006	-5.39641E-002	1.58091E-002	3.57250E+000	9	...........
	148	1.98667	1.22616E-002	-8.87801E-005	0.00000E+000	-1.08859E-006	-5.39641E-002	1.22541E-002	3.57250E+000	9	...........
	149	2	8.72553E-003	-8.88791E-005	0.00000E+000	-7.75517E-007	-5.39641E-002	8.71926E-003	3.57250E+000	9	...........
	150	2.01333	5.21235E-003	-8.86749E-005	0.00000E+000	-4.62204E-007	-5.39641E-002	5.19855E-003	3.57250E+000	9	...........
	151	2.02667	1.70695E-003	-8.89937E-005	0.00000E+000	-1.51907E-007	-5.39641E-002	1.69634E-003	3.57250E+000	9	...........
	152	2.02833	-2.54315E-004	-8.86915E-005	0.00000E+000	2.25556E-008	-5.39641E-002	-2.65785E-004	3.57250E+000	9	...........
STARTTIMEOFFSET	QUANT	2160.303	Start Time Offset (s)
