EXPLAIN
TAG	PWR800_DISCHARGE
TITLE	LABEL	PWR Cyclic Charge Discharge (Cell) - Discharge Step	Test &Identifier
DATE	LABEL	10-7-2017	Date
TIME	LABEL	15:04:50	Time
NOTES	NOTES	3	&Notes...
	supercap test cell
	0.9mg
	6M KOH
PSTAT	PSTAT	IFC5000-01520	Potentiostat
CAPACITY	QUANT	1.00000E-003	Capacity (A-hr)
CELLTYPE	SELECTOR	1	&Cell Type
WORKINGCONNECTION	SELECTOR	0	&Working Lead
MAXDISCHARGETIME	VARIABLEANDUNITS	1.00000E+002	s	1.00000E+002	second(s)	Max &Discharge Time
DISCHARGEMODE	MULTIPARAM	0	9.00000E-005	&Discharge Mode	Constant Current	Amp(s)
SAMPLETIME	QUANT	1.00000E-002	Sa&mple Period (s)
DISCHARGESTOPAT1	MULTIPARAM	3	0.00000E+000	Discharge Stop At &1	Voltage < Limit	V
DISCHARGESTOPAT2	MULTIPARAM	0	0.00000E+000	Discharge Stop At &2	None	N/A
AESBHCSELECTOR	TOGGLE	F	Save Both Half Cells
IRCOMP	TOGGLE	F	IR &Measure
EOC	QUANT	0	Open Circuit (V)
SEQUENCER	TOGGLE	TRUE	Run as Sequence
PSTATMODEL	IQUANT	53	Pstat Model
PSTATSECTION	LABEL	IFC5000-01520	Pstat Section
PSTATSERIALNO	LABEL	01520	Pstat Serial Number
CTRLMODE	IQUANT	0	Control Mode
ELECTROMETER	IQUANT	1	RE=0 or CS=1
IESTAB	IQUANT	0	I/E Stability
CASPEED	IQUANT	4	Control Amp Speed
CONVENTION	IQUANT	1	Current Convention
ICHRANGE	IQUANT	2	Ich Range
ICHRANGEMODE	TOGGLE	T	Ich Auto Range
ICHOFFSETENABLE	TOGGLE	F	Ich Offset Enable
ICHOFFSET	QUANT	0	Ich Offset (V)
ICHFILTER	IQUANT	1	Ich Filter
VCHRANGE	IQUANT	2	Vch Range
VCHRANGEMODE	TOGGLE	T	Vch Auto Range
VCHOFFSETENABLE	TOGGLE	F	Vch Offset Enable
VCHOFFSET	QUANT	0	Vch Offset (V)
VCHFILTER	IQUANT	1	Vch Filter
IERANGELOWERLIMIT	IQUANT	9	I/E Range Lower Limit
IERANGEMODE	TOGGLE	F	I/E AutoRange
IERANGE	IQUANT	9	I/E Range
ACHSELECT	IQUANT	1	Ach Select
ACHRANGE	IQUANT	2	Ach Range
ACHOFFSETENABLE	TOGGLE	F	Ach Offset Enable
ACHOFFSET	QUANT	0	Ach Offset (V)
ACHFILTER	IQUANT	1	Ach Filter
CABLEID	IQUANT	14	Cable ID
DCCALDATE	LABEL	5-7-2017	DC Calibration Date
ACCALDATE	LABEL	12/3/2015	AC Calibration Date
FRAMEWORKVERSION	QUANT	7.01	Framework Version
INSTRUMENTVERSION	LABEL	4.00	Instrument Version
CURVE	TABLE	169
	Pt	T	Vf	Im	Vu	Pwr	Sig	Ach	Temp	IERange	Over
	#	s	V	A	V	W	V	V	deg C	#	bits
	0	0.013333	8.42407E-001	-8.85238E-005	0.00000E+000	-7.45730E-005	-5.39641E-002	8.42566E-001	3.57120E+000	9	...........
	1	0.026667	8.31242E-001	-8.83956E-005	0.00000E+000	-7.34782E-005	-5.39641E-002	8.31393E-001	3.57130E+000	9	...........
	2	0.04	8.20709E-001	-8.84904E-005	0.00000E+000	-7.26249E-005	-5.39641E-002	8.20837E-001	3.57130E+000	9	...........
	3	0.053333	8.10612E-001	-8.85853E-005	0.00000E+000	-7.18083E-005	-5.39641E-002	8.10751E-001	3.57130E+000	9	...........
	4	0.066667	8.00960E-001	-8.87238E-005	0.00000E+000	-7.10642E-005	-5.39641E-002	8.01040E-001	3.57130E+000	9	...........
	5	0.08	7.91603E-001	-8.86071E-005	0.00000E+000	-7.01417E-005	-5.39641E-002	7.91692E-001	3.57130E+000	9	...........
	6	0.093333	7.82503E-001	-8.85582E-005	0.00000E+000	-6.92970E-005	-5.39641E-002	7.82616E-001	3.57130E+000	9	...........
	7	0.106667	7.73697E-001	-8.87551E-005	0.00000E+000	-6.86696E-005	-5.39641E-002	7.73805E-001	3.57130E+000	9	...........
	8	0.12	7.65088E-001	-8.87655E-005	0.00000E+000	-6.79134E-005	-5.39641E-002	7.65189E-001	3.57130E+000	9	...........
	9	0.133333	7.56706E-001	-8.84383E-005	0.00000E+000	-6.69218E-005	-5.39641E-002	7.56805E-001	3.57130E+000	9	...........
	10	0.146667	7.48521E-001	-8.84967E-005	0.00000E+000	-6.62416E-005	-5.39641E-002	7.48606E-001	3.57130E+000	9	...........
	11	0.16	7.40471E-001	-8.86676E-005	0.00000E+000	-6.56558E-005	-5.39641E-002	7.40571E-001	3.57130E+000	9	...........
	12	0.173333	7.32615E-001	-8.86915E-005	0.00000E+000	-6.49767E-005	-5.39641E-002	7.32728E-001	3.57130E+000	9	...........
	13	0.186667	7.24911E-001	-8.87843E-005	0.00000E+000	-6.43606E-005	-5.39641E-002	7.25034E-001	3.57130E+000	9	...........
	14	0.2	7.17353E-001	-8.85259E-005	0.00000E+000	-6.35043E-005	-5.39641E-002	7.17481E-001	3.57130E+000	9	...........
	15	0.213333	7.09876E-001	-8.85488E-005	0.00000E+000	-6.28587E-005	-5.39641E-002	7.10004E-001	3.57130E+000	9	...........
	16	0.226667	7.02606E-001	-8.86259E-005	0.00000E+000	-6.22691E-005	-5.39641E-002	7.02716E-001	3.57130E+000	9	...........
	17	0.24	6.95418E-001	-8.86978E-005	0.00000E+000	-6.16821E-005	-5.39641E-002	6.95520E-001	3.57130E+000	9	...........
	18	0.253333	6.88327E-001	-8.86176E-005	0.00000E+000	-6.09979E-005	-5.39641E-002	6.88403E-001	3.57130E+000	9	...........
	19	0.266667	6.81332E-001	-8.85602E-005	0.00000E+000	-6.03389E-005	-5.39641E-002	6.81438E-001	3.57130E+000	9	...........
	20	0.28	6.74457E-001	-8.88124E-005	0.00000E+000	-5.99001E-005	-5.39641E-002	6.74524E-001	3.57130E+000	9	...........
	21	0.293333	6.67646E-001	-8.87311E-005	0.00000E+000	-5.92409E-005	-5.39641E-002	6.67767E-001	3.57130E+000	9	...........
	22	0.306667	6.60944E-001	-8.85467E-005	0.00000E+000	-5.85245E-005	-5.39641E-002	6.60993E-001	3.57130E+000	9	...........
	23	0.32	6.54321E-001	-8.86676E-005	0.00000E+000	-5.80170E-005	-5.39641E-002	6.54375E-001	3.57130E+000	9	...........
	24	0.333333	6.47786E-001	-8.83560E-005	0.00000E+000	-5.72358E-005	-5.39641E-002	6.47839E-001	3.57130E+000	9	...........
	25	0.346667	6.41321E-001	-8.87332E-005	0.00000E+000	-5.69065E-005	-5.39641E-002	6.41397E-001	3.57130E+000	9	...........
	26	0.36	6.34889E-001	-8.87582E-005	0.00000E+000	-5.63516E-005	-5.39641E-002	6.34954E-001	3.57130E+000	9	...........
	27	0.373333	6.28567E-001	-8.84071E-005	0.00000E+000	-5.55698E-005	-5.39641E-002	6.28646E-001	3.57130E+000	9	...........
	28	0.386667	6.22295E-001	-8.87613E-005	0.00000E+000	-5.52357E-005	-5.39641E-002	6.22357E-001	3.57130E+000	9	...........
	29	0.4	6.16094E-001	-8.86842E-005	0.00000E+000	-5.46378E-005	-5.39641E-002	6.16148E-001	3.57130E+000	9	...........
	30	0.413333	6.09876E-001	-8.88041E-005	0.00000E+000	-5.41594E-005	-5.39641E-002	6.09986E-001	3.57130E+000	9	...........
	31	0.426667	6.03782E-001	-8.84779E-005	0.00000E+000	-5.34214E-005	-5.39641E-002	6.03890E-001	3.57130E+000	9	...........
	32	0.44	5.97766E-001	-8.86717E-005	0.00000E+000	-5.30050E-005	-5.39641E-002	5.97863E-001	3.57130E+000	9	...........
	33	0.453333	5.91778E-001	-8.88030E-005	0.00000E+000	-5.25516E-005	-5.39641E-002	5.91878E-001	3.57130E+000	9	...........
	34	0.466667	5.85810E-001	-8.86530E-005	0.00000E+000	-5.19338E-005	-5.39641E-002	5.85883E-001	3.57130E+000	9	...........
	35	0.48	5.79896E-001	-8.87176E-005	0.00000E+000	-5.14469E-005	-5.39641E-002	5.79996E-001	3.57130E+000	9	...........
	36	0.493333	5.74057E-001	-8.86488E-005	0.00000E+000	-5.08895E-005	-5.39641E-002	5.74117E-001	3.57130E+000	9	...........
	37	0.506667	5.68246E-001	-8.85811E-005	0.00000E+000	-5.03359E-005	-5.39641E-002	5.68328E-001	3.57130E+000	9	...........
	38	0.52	5.62413E-001	-8.87269E-005	0.00000E+000	-4.99012E-005	-5.39641E-002	5.62521E-001	3.57130E+000	9	...........
	39	0.533333	5.56661E-001	-8.86394E-005	0.00000E+000	-4.93421E-005	-5.39641E-002	5.56771E-001	3.57130E+000	9	...........
	40	0.546667	5.50978E-001	-8.85477E-005	0.00000E+000	-4.87878E-005	-5.39641E-002	5.51035E-001	3.57130E+000	9	...........
	41	0.56	5.45303E-001	-8.86342E-005	0.00000E+000	-4.83325E-005	-5.39641E-002	5.45336E-001	3.57130E+000	9	...........
	42	0.573333	5.39661E-001	-8.87395E-005	0.00000E+000	-4.78892E-005	-5.39641E-002	5.39705E-001	3.57130E+000	9	...........
	43	0.586667	5.33995E-001	-8.87978E-005	0.00000E+000	-4.74176E-005	-5.39641E-002	5.34049E-001	3.57130E+000	9	...........
	44	0.6	5.28409E-001	-8.86988E-005	0.00000E+000	-4.68693E-005	-5.39641E-002	5.28486E-001	3.57130E+000	9	...........
	45	0.613333	5.22855E-001	-8.85832E-005	0.00000E+000	-4.63161E-005	-5.39641E-002	5.22916E-001	3.57130E+000	9	...........
	46	0.626667	5.17321E-001	-8.84946E-005	0.00000E+000	-4.57802E-005	-5.39641E-002	5.17383E-001	3.57130E+000	9	...........
	47	0.64	5.11818E-001	-8.84519E-005	0.00000E+000	-4.52713E-005	-5.39641E-002	5.11879E-001	3.57130E+000	9	...........
	48	0.653333	5.06302E-001	-8.87353E-005	0.00000E+000	-4.49269E-005	-5.39641E-002	5.06424E-001	3.57130E+000	9	...........
	49	0.666667	5.00857E-001	-8.86092E-005	0.00000E+000	-4.43805E-005	-5.39641E-002	5.00930E-001	3.57130E+000	9	...........
	50	0.68	4.95433E-001	-8.84998E-005	0.00000E+000	-4.38458E-005	-5.39641E-002	4.95531E-001	3.57130E+000	9	...........
	51	0.693333	4.90048E-001	-8.83883E-005	0.00000E+000	-4.33145E-005	-5.39641E-002	4.90103E-001	3.57130E+000	9	...........
	52	0.706667	4.84707E-001	-8.86561E-005	0.00000E+000	-4.29722E-005	-5.39641E-002	4.84755E-001	3.57130E+000	9	...........
	53	0.72	4.79355E-001	-8.84102E-005	0.00000E+000	-4.23798E-005	-5.39641E-002	4.79397E-001	3.57130E+000	9	...........
	54	0.733333	4.74007E-001	-8.86248E-005	0.00000E+000	-4.20088E-005	-5.39641E-002	4.74060E-001	3.57130E+000	9	...........
	55	0.746667	4.68697E-001	-8.84092E-005	0.00000E+000	-4.14371E-005	-5.39641E-002	4.68748E-001	3.57130E+000	9	...........
	56	0.76	4.63408E-001	-8.88801E-005	0.00000E+000	-4.11878E-005	-5.39641E-002	4.63454E-001	3.57130E+000	9	...........
	57	0.773333	4.58125E-001	-8.86863E-005	0.00000E+000	-4.06294E-005	-5.39641E-002	4.58175E-001	3.57130E+000	9	...........
	58	0.786667	4.52887E-001	-8.88686E-005	0.00000E+000	-4.02475E-005	-5.39641E-002	4.52936E-001	3.57130E+000	9	...........
	59	0.8	4.47676E-001	-8.86905E-005	0.00000E+000	-3.97046E-005	-5.39641E-002	4.47720E-001	3.57130E+000	9	...........
	60	0.813333	4.42478E-001	-8.87082E-005	0.00000E+000	-3.92514E-005	-5.39641E-002	4.42520E-001	3.57130E+000	9	...........
	61	0.826667	4.37299E-001	-8.86113E-005	0.00000E+000	-3.87497E-005	-5.39641E-002	4.37335E-001	3.57130E+000	9	...........
	62	0.84	4.32135E-001	-8.84238E-005	0.00000E+000	-3.82110E-005	-5.39641E-002	4.32177E-001	3.57130E+000	9	...........
	63	0.853333	4.27012E-001	-8.84779E-005	0.00000E+000	-3.77812E-005	-5.39641E-002	4.27055E-001	3.57130E+000	9	...........
	64	0.866667	4.21907E-001	-8.85300E-005	0.00000E+000	-3.73515E-005	-5.39641E-002	4.21954E-001	3.57130E+000	9	...........
	65	0.88	4.16834E-001	-8.87770E-005	0.00000E+000	-3.70053E-005	-5.39641E-002	4.16879E-001	3.57130E+000	9	...........
	66	0.893333	4.11788E-001	-8.86415E-005	0.00000E+000	-3.65015E-005	-5.39641E-002	4.11830E-001	3.57130E+000	9	...........
	67	0.906667	4.06769E-001	-8.88228E-005	0.00000E+000	-3.61304E-005	-5.39641E-002	4.06806E-001	3.57130E+000	9	...........
	68	0.92	4.01760E-001	-8.84644E-005	0.00000E+000	-3.55414E-005	-5.39641E-002	4.01798E-001	3.57130E+000	9	...........
	69	0.933333	3.96762E-001	-8.87144E-005	0.00000E+000	-3.51985E-005	-5.39641E-002	3.96797E-001	3.57130E+000	9	...........
	70	0.946667	3.91796E-001	-8.87280E-005	0.00000E+000	-3.47633E-005	-5.39641E-002	3.91825E-001	3.57130E+000	9	...........
	71	0.96	3.86861E-001	-8.85561E-005	0.00000E+000	-3.42589E-005	-5.39641E-002	3.86893E-001	3.57130E+000	9	...........
	72	0.97333	3.81945E-001	-8.85186E-005	0.00000E+000	-3.38092E-005	-5.39641E-002	3.81977E-001	3.57130E+000	9	...........
	73	0.98667	3.77047E-001	-8.88009E-005	0.00000E+000	-3.34822E-005	-5.39641E-002	3.77081E-001	3.57130E+000	9	...........
	74	1	3.72166E-001	-8.85415E-005	0.00000E+000	-3.29521E-005	-5.39641E-002	3.72197E-001	3.57130E+000	9	...........
	75	1.01333	3.67317E-001	-8.87186E-005	0.00000E+000	-3.25878E-005	-5.39641E-002	3.67352E-001	3.57130E+000	9	...........
	76	1.02667	3.62482E-001	-8.85571E-005	0.00000E+000	-3.21003E-005	-5.39641E-002	3.62511E-001	3.57120E+000	9	...........
	77	1.04	3.57670E-001	-8.86571E-005	0.00000E+000	-3.17100E-005	-5.39641E-002	3.57695E-001	3.57120E+000	9	...........
	78	1.05333	3.52856E-001	-8.85457E-005	0.00000E+000	-3.12439E-005	-5.39641E-002	3.52883E-001	3.57120E+000	9	...........
	79	1.06667	3.48083E-001	-8.86155E-005	0.00000E+000	-3.08456E-005	-5.39641E-002	3.48111E-001	3.57120E+000	9	...........
	80	1.08	3.43349E-001	-8.86759E-005	0.00000E+000	-3.04467E-005	-5.39641E-002	3.43383E-001	3.57120E+000	9	...........
	81	1.09333	3.38626E-001	-8.86321E-005	0.00000E+000	-3.00131E-005	-5.39641E-002	3.38656E-001	3.57120E+000	9	...........
	82	1.10667	3.33917E-001	-8.85582E-005	0.00000E+000	-2.95711E-005	-5.39641E-002	3.33945E-001	3.57120E+000	9	...........
	83	1.12	3.29247E-001	-8.84456E-005	0.00000E+000	-2.91205E-005	-5.39641E-002	3.29279E-001	3.57120E+000	9	...........
	84	1.13333	3.24586E-001	-8.85727E-005	0.00000E+000	-2.87494E-005	-5.39641E-002	3.24621E-001	3.57120E+000	9	...........
	85	1.14667	3.19955E-001	-8.88051E-005	0.00000E+000	-2.84136E-005	-5.39641E-002	3.19979E-001	3.57120E+000	9	...........
	86	1.16	3.15326E-001	-8.85290E-005	0.00000E+000	-2.79155E-005	-5.39641E-002	3.15361E-001	3.57120E+000	9	...........
	87	1.17333	3.10735E-001	-8.86644E-005	0.00000E+000	-2.75512E-005	-5.39641E-002	3.10756E-001	3.57120E+000	9	...........
	88	1.18667	3.06154E-001	-8.84706E-005	0.00000E+000	-2.70857E-005	-5.39641E-002	3.06183E-001	3.57120E+000	9	...........
	89	1.2	3.01613E-001	-8.87332E-005	0.00000E+000	-2.67631E-005	-5.39641E-002	3.01638E-001	3.57120E+000	9	...........
	90	1.21333	2.97091E-001	-8.87176E-005	0.00000E+000	-2.63572E-005	-5.39641E-002	2.97118E-001	3.57120E+000	9	...........
	91	1.22667	2.92600E-001	-8.86561E-005	0.00000E+000	-2.59407E-005	-5.39641E-002	2.92621E-001	3.57120E+000	9	...........
	92	1.24	2.88133E-001	-8.85696E-005	0.00000E+000	-2.55198E-005	-5.39641E-002	2.88151E-001	3.57120E+000	9	...........
	93	1.25333	2.83694E-001	-8.86426E-005	0.00000E+000	-2.51474E-005	-5.39641E-002	2.83719E-001	3.57120E+000	9	...........
	94	1.26667	2.79271E-001	-8.87572E-005	0.00000E+000	-2.47873E-005	-5.39641E-002	2.79294E-001	3.57120E+000	9	...........
	95	1.28	2.74867E-001	-8.85373E-005	0.00000E+000	-2.43360E-005	-5.39641E-002	2.74897E-001	3.57120E+000	9	...........
	96	1.29333	2.70497E-001	-8.86957E-005	0.00000E+000	-2.39920E-005	-5.39641E-002	2.70523E-001	3.57120E+000	9	...........
	97	1.30667	2.66136E-001	-8.88186E-005	0.00000E+000	-2.36378E-005	-5.39641E-002	2.66161E-001	3.57120E+000	9	...........
	98	1.32	2.61777E-001	-8.84957E-005	0.00000E+000	-2.31661E-005	-5.39641E-002	2.61799E-001	3.57120E+000	9	...........
	99	1.33333	2.57460E-001	-8.86165E-005	0.00000E+000	-2.28152E-005	-5.39641E-002	2.57482E-001	3.57120E+000	9	...........
	100	1.34667	2.53152E-001	-8.86665E-005	0.00000E+000	-2.24461E-005	-5.39641E-002	2.53178E-001	3.57120E+000	9	...........
	101	1.36	2.48868E-001	-8.85769E-005	0.00000E+000	-2.20440E-005	-5.39641E-002	2.48882E-001	3.57120E+000	9	...........
	102	1.37333	2.44606E-001	-8.85946E-005	0.00000E+000	-2.16707E-005	-5.39641E-002	2.44621E-001	3.57120E+000	9	...........
	103	1.38667	2.40374E-001	-8.81956E-005	0.00000E+000	-2.12000E-005	-5.39641E-002	2.40392E-001	3.57120E+000	9	...........
	104	1.4	2.36167E-001	-8.88426E-005	0.00000E+000	-2.09817E-005	-5.39641E-002	2.36184E-001	3.57120E+000	9	...........
	105	1.41333	2.31978E-001	-8.85332E-005	0.00000E+000	-2.05377E-005	-5.39641E-002	2.31992E-001	3.57120E+000	9	...........
	106	1.42667	2.27802E-001	-8.84279E-005	0.00000E+000	-2.01440E-005	-5.39641E-002	2.27816E-001	3.57120E+000	9	...........
	107	1.44	2.23667E-001	-8.87447E-005	0.00000E+000	-1.98492E-005	-5.39641E-002	2.23677E-001	3.57120E+000	9	...........
	108	1.45333	2.19545E-001	-8.88113E-005	0.00000E+000	-1.94981E-005	-5.39641E-002	2.19561E-001	3.57120E+000	9	...........
	109	1.46667	2.15433E-001	-8.86676E-005	0.00000E+000	-1.91019E-005	-5.39641E-002	2.15447E-001	3.57120E+000	9	...........
	110	1.48	2.11320E-001	-8.86957E-005	0.00000E+000	-1.87432E-005	-5.39641E-002	2.11333E-001	3.57120E+000	9	...........
	111	1.49333	2.07229E-001	-8.86123E-005	0.00000E+000	-1.83630E-005	-5.39641E-002	2.07241E-001	3.57120E+000	9	...........
	112	1.50667	2.03144E-001	-8.86446E-005	0.00000E+000	-1.80076E-005	-5.39641E-002	2.03163E-001	3.57120E+000	9	...........
	113	1.52	1.99091E-001	-8.85175E-005	0.00000E+000	-1.76231E-005	-5.39641E-002	1.99108E-001	3.57120E+000	9	...........
	114	1.53333	1.95066E-001	-8.87207E-005	0.00000E+000	-1.73064E-005	-5.39641E-002	1.95081E-001	3.57120E+000	9	...........
	115	1.54667	1.91056E-001	-8.85759E-005	0.00000E+000	-1.69230E-005	-5.39641E-002	1.91069E-001	3.57120E+000	9	...........
	116	1.56	1.87073E-001	-8.84071E-005	0.00000E+000	-1.65386E-005	-5.39641E-002	1.87085E-001	3.57120E+000	9	...........
	117	1.57333	1.83088E-001	-8.85957E-005	0.00000E+000	-1.62208E-005	-5.39641E-002	1.83102E-001	3.57120E+000	9	...........
	118	1.58667	1.79112E-001	-8.86655E-005	0.00000E+000	-1.58810E-005	-5.39641E-002	1.79123E-001	3.57120E+000	9	...........
	119	1.6	1.75149E-001	-8.85550E-005	0.00000E+000	-1.55103E-005	-5.39641E-002	1.75166E-001	3.57120E+000	9	...........
	120	1.61333	1.71210E-001	-8.87467E-005	0.00000E+000	-1.51944E-005	-5.39641E-002	1.71221E-001	3.57120E+000	9	...........
	121	1.62667	1.67291E-001	-8.85102E-005	0.00000E+000	-1.48069E-005	-5.39641E-002	1.67299E-001	3.57120E+000	9	...........
	122	1.64	1.63405E-001	-8.88843E-005	0.00000E+000	-1.45242E-005	-5.39641E-002	1.63408E-001	3.57120E+000	9	...........
	123	1.65333	1.59527E-001	-8.85634E-005	0.00000E+000	-1.41283E-005	-5.39641E-002	1.59532E-001	3.57120E+000	9	...........
	124	1.66667	1.55644E-001	-8.88009E-005	0.00000E+000	-1.38213E-005	-5.39641E-002	1.55649E-001	3.57120E+000	9	...........
	125	1.68	1.51767E-001	-8.86207E-005	0.00000E+000	-1.34497E-005	-5.39641E-002	1.51773E-001	3.57120E+000	9	...........
	126	1.69333	1.47903E-001	-8.85457E-005	0.00000E+000	-1.30961E-005	-5.39641E-002	1.47908E-001	3.57120E+000	9	...........
	127	1.70667	1.44052E-001	-8.85175E-005	0.00000E+000	-1.27511E-005	-5.39641E-002	1.44061E-001	3.57120E+000	9	...........
	128	1.72	1.40226E-001	-8.86019E-005	0.00000E+000	-1.24243E-005	-5.39641E-002	1.40235E-001	3.57120E+000	9	...........
	129	1.73333	1.36427E-001	-8.86603E-005	0.00000E+000	-1.20957E-005	-5.39641E-002	1.36428E-001	3.57120E+000	9	...........
	130	1.74667	1.32620E-001	-8.84696E-005	0.00000E+000	-1.17329E-005	-5.39641E-002	1.32626E-001	3.57120E+000	9	...........
	131	1.76	1.28829E-001	-8.84977E-005	0.00000E+000	-1.14011E-005	-5.39641E-002	1.28833E-001	3.57120E+000	9	...........
	132	1.77333	1.25053E-001	-8.86436E-005	0.00000E+000	-1.10852E-005	-5.39641E-002	1.25057E-001	3.57120E+000	9	...........
	133	1.78667	1.21287E-001	-8.88676E-005	0.00000E+000	-1.07785E-005	-5.39641E-002	1.21290E-001	3.57120E+000	9	...........
	134	1.8	1.17521E-001	-8.87342E-005	0.00000E+000	-1.04281E-005	-5.39641E-002	1.17530E-001	3.57120E+000	9	...........
	135	1.81333	1.13789E-001	-8.85144E-005	0.00000E+000	-1.00719E-005	-5.39641E-002	1.13792E-001	3.57120E+000	9	...........
	136	1.82667	1.10058E-001	-8.85592E-005	0.00000E+000	-9.74665E-006	-5.39641E-002	1.10067E-001	3.57120E+000	9	...........
	137	1.84	1.06346E-001	-8.84196E-005	0.00000E+000	-9.40306E-006	-5.39641E-002	1.06352E-001	3.57120E+000	9	...........
	138	1.85333	1.02640E-001	-8.88311E-005	0.00000E+000	-9.11763E-006	-5.39641E-002	1.02645E-001	3.57120E+000	9	...........
	139	1.86667	9.89508E-002	-8.86707E-005	0.00000E+000	-8.77403E-006	-5.39641E-002	9.89607E-002	3.57120E+000	9	...........
	140	1.88	9.52780E-002	-8.88322E-005	0.00000E+000	-8.46375E-006	-5.39641E-002	9.52846E-002	3.57120E+000	9	...........
	141	1.89333	9.16278E-002	-8.88968E-005	0.00000E+000	-8.14542E-006	-5.39641E-002	9.16363E-002	3.57120E+000	9	...........
	142	1.90667	8.79787E-002	-8.84988E-005	0.00000E+000	-7.78601E-006	-5.39641E-002	8.79830E-002	3.57120E+000	9	...........
	143	1.92	8.43611E-002	-8.86634E-005	0.00000E+000	-7.47974E-006	-5.39641E-002	8.43630E-002	3.57120E+000	9	...........
	144	1.93333	8.07480E-002	-8.85290E-005	0.00000E+000	-7.14854E-006	-5.39641E-002	8.07453E-002	3.57120E+000	9	...........
	145	1.94667	7.71439E-002	-8.86551E-005	0.00000E+000	-6.83920E-006	-5.39641E-002	7.71401E-002	3.57120E+000	9	...........
	146	1.96	7.35837E-002	-8.85988E-005	0.00000E+000	-6.51942E-006	-5.39641E-002	7.35691E-002	3.57120E+000	9	...........
	147	1.97333	7.00304E-002	-8.87124E-005	0.00000E+000	-6.21256E-006	-5.39641E-002	7.00241E-002	3.57120E+000	9	...........
	148	1.98667	6.64884E-002	-8.86436E-005	0.00000E+000	-5.89377E-006	-5.39641E-002	6.64794E-002	3.57120E+000	9	...........
	149	2	6.29563E-002	-8.85321E-005	0.00000E+000	-5.57365E-006	-5.39641E-002	6.29497E-002	3.57120E+000	9	...........
	150	2.01333	5.94394E-002	-8.86113E-005	0.00000E+000	-5.26700E-006	-5.39641E-002	5.94393E-002	3.57120E+000	9	...........
	151	2.02667	5.59313E-002	-8.86613E-005	0.00000E+000	-4.95894E-006	-5.39641E-002	5.59281E-002	3.57180E+000	9	...........
	152	2.04	5.24310E-002	-8.85769E-005	0.00000E+000	-4.64418E-006	-5.39641E-002	5.24299E-002	3.57180E+000	9	...........
	153	2.05333	4.89517E-002	-8.85780E-005	0.00000E+000	-4.33604E-006	-5.39641E-002	4.89468E-002	3.57180E+000	9	...........
	154	2.06667	4.54944E-002	-8.86967E-005	0.00000E+000	-4.03520E-006	-5.39641E-002	4.54993E-002	3.57180E+000	9	...........
	155	2.08	4.20473E-002	-8.88603E-005	0.00000E+000	-3.73633E-006	-5.39641E-002	4.20531E-002	3.57180E+000	9	...........
	156	2.09333	3.86158E-002	-8.88259E-005	0.00000E+000	-3.43009E-006	-5.39641E-002	3.86168E-002	3.57180E+000	9	...........
	157	2.10667	3.51966E-002	-8.88041E-005	0.00000E+000	-3.12560E-006	-5.39641E-002	3.51996E-002	3.57180E+000	9	...........
	158	2.12	3.18011E-002	-8.87738E-005	0.00000E+000	-2.82311E-006	-5.39641E-002	3.18064E-002	3.57180E+000	9	...........
	159	2.13333	2.84168E-002	-8.85780E-005	0.00000E+000	-2.51710E-006	-5.39641E-002	2.84161E-002	3.57180E+000	9	...........
	160	2.14667	2.50652E-002	-8.86509E-005	0.00000E+000	-2.22205E-006	-5.39641E-002	2.50609E-002	3.57180E+000	9	...........
	161	2.16	2.17414E-002	-8.85530E-005	0.00000E+000	-1.92527E-006	-5.39641E-002	2.17362E-002	3.57180E+000	9	...........
	162	2.17333	1.84312E-002	-8.86155E-005	0.00000E+000	-1.63329E-006	-5.39641E-002	1.84262E-002	3.57180E+000	9	...........
	163	2.18667	1.51549E-002	-8.83894E-005	0.00000E+000	-1.33953E-006	-5.39641E-002	1.51455E-002	3.57180E+000	9	...........
	164	2.2	1.18986E-002	-8.86561E-005	0.00000E+000	-1.05488E-006	-5.39641E-002	1.18865E-002	3.57180E+000	9	...........
	165	2.21333	8.64248E-003	-8.87634E-005	0.00000E+000	-7.67136E-007	-5.39641E-002	8.63193E-003	3.57180E+000	9	...........
	166	2.22667	5.40928E-003	-8.88478E-005	0.00000E+000	-4.80602E-007	-5.39641E-002	5.39691E-003	3.57180E+000	9	...........
	167	2.24	2.19237E-003	-8.87603E-005	0.00000E+000	-1.94595E-007	-5.39641E-002	2.17665E-003	3.57180E+000	9	...........
	168	2.24333	1.98234E-004	-8.84915E-005	0.00000E+000	-1.75420E-008	-5.39641E-002	1.76149E-004	3.57180E+000	9	...........
STARTTIMEOFFSET	QUANT	283.6283	Start Time Offset (s)
