EXPLAIN
TAG	PWR800_DISCHARGE
TITLE	LABEL	PWR Cyclic Charge Discharge (Cell) - Discharge Step	Test &Identifier
DATE	LABEL	10-7-2017	Date
TIME	LABEL	16:18:32	Time
NOTES	NOTES	3	&Notes...
	supercap test cell
	0.9mg
	6M KOH
PSTAT	PSTAT	IFC5000-01520	Potentiostat
CAPACITY	QUANT	1.00000E-003	Capacity (A-hr)
CELLTYPE	SELECTOR	1	&Cell Type
WORKINGCONNECTION	SELECTOR	0	&Working Lead
MAXDISCHARGETIME	VARIABLEANDUNITS	1.00000E+002	s	1.00000E+002	second(s)	Max &Discharge Time
DISCHARGEMODE	MULTIPARAM	0	9.00000E-005	&Discharge Mode	Constant Current	Amp(s)
SAMPLETIME	QUANT	1.00000E-002	Sa&mple Period (s)
DISCHARGESTOPAT1	MULTIPARAM	3	0.00000E+000	Discharge Stop At &1	Voltage < Limit	V
DISCHARGESTOPAT2	MULTIPARAM	0	0.00000E+000	Discharge Stop At &2	None	N/A
AESBHCSELECTOR	TOGGLE	F	Save Both Half Cells
IRCOMP	TOGGLE	F	IR &Measure
EOC	QUANT	0	Open Circuit (V)
SEQUENCER	TOGGLE	TRUE	Run as Sequence
PSTATMODEL	IQUANT	53	Pstat Model
PSTATSECTION	LABEL	IFC5000-01520	Pstat Section
PSTATSERIALNO	LABEL	01520	Pstat Serial Number
CTRLMODE	IQUANT	0	Control Mode
ELECTROMETER	IQUANT	1	RE=0 or CS=1
IESTAB	IQUANT	0	I/E Stability
CASPEED	IQUANT	4	Control Amp Speed
CONVENTION	IQUANT	1	Current Convention
ICHRANGE	IQUANT	2	Ich Range
ICHRANGEMODE	TOGGLE	T	Ich Auto Range
ICHOFFSETENABLE	TOGGLE	F	Ich Offset Enable
ICHOFFSET	QUANT	0	Ich Offset (V)
ICHFILTER	IQUANT	1	Ich Filter
VCHRANGE	IQUANT	2	Vch Range
VCHRANGEMODE	TOGGLE	T	Vch Auto Range
VCHOFFSETENABLE	TOGGLE	F	Vch Offset Enable
VCHOFFSET	QUANT	0	Vch Offset (V)
VCHFILTER	IQUANT	1	Vch Filter
IERANGELOWERLIMIT	IQUANT	9	I/E Range Lower Limit
IERANGEMODE	TOGGLE	F	I/E AutoRange
IERANGE	IQUANT	9	I/E Range
ACHSELECT	IQUANT	1	Ach Select
ACHRANGE	IQUANT	2	Ach Range
ACHOFFSETENABLE	TOGGLE	F	Ach Offset Enable
ACHOFFSET	QUANT	0	Ach Offset (V)
ACHFILTER	IQUANT	1	Ach Filter
CABLEID	IQUANT	14	Cable ID
DCCALDATE	LABEL	5-7-2017	DC Calibration Date
ACCALDATE	LABEL	12/3/2015	AC Calibration Date
FRAMEWORKVERSION	QUANT	7.01	Framework Version
INSTRUMENTVERSION	LABEL	4.00	Instrument Version
CURVE	TABLE	147
	Pt	T	Vf	Im	Vu	Pwr	Sig	Ach	Temp	IERange	Over
	#	s	V	A	V	W	V	V	deg C	#	bits
	0	0.013333	8.02946E-001	-8.86915E-005	0.00000E+000	-7.12145E-005	-5.39641E-002	8.03092E-001	3.57280E+000	9	...........
	1	0.026667	7.88534E-001	-8.90197E-005	0.00000E+000	-7.01951E-005	-5.39641E-002	7.88660E-001	3.57280E+000	9	...........
	2	0.04	7.75103E-001	-8.88520E-005	0.00000E+000	-6.88694E-005	-5.39641E-002	7.75236E-001	3.57280E+000	9	...........
	3	0.053333	7.62466E-001	-8.89510E-005	0.00000E+000	-6.78221E-005	-5.39641E-002	7.62589E-001	3.57280E+000	9	...........
	4	0.066667	7.50484E-001	-8.88697E-005	0.00000E+000	-6.66953E-005	-5.39641E-002	7.50619E-001	3.57280E+000	9	...........
	5	0.08	7.39048E-001	-8.88176E-005	0.00000E+000	-6.56405E-005	-5.39641E-002	7.39185E-001	3.57280E+000	9	...........
	6	0.093333	7.28088E-001	-8.86467E-005	0.00000E+000	-6.45426E-005	-5.39641E-002	7.28229E-001	3.57280E+000	9	...........
	7	0.106667	7.17558E-001	-8.86196E-005	0.00000E+000	-6.35897E-005	-5.39641E-002	7.17695E-001	3.57280E+000	9	...........
	8	0.12	7.07365E-001	-8.88124E-005	0.00000E+000	-6.28228E-005	-5.39641E-002	7.07511E-001	3.57280E+000	9	...........
	9	0.133333	6.97571E-001	-8.89072E-005	0.00000E+000	-6.20190E-005	-5.39641E-002	6.97685E-001	3.57280E+000	9	...........
	10	0.146667	6.88067E-001	-8.88322E-005	0.00000E+000	-6.11225E-005	-5.39641E-002	6.88164E-001	3.57280E+000	9	...........
	11	0.16	6.78856E-001	-8.86832E-005	0.00000E+000	-6.02031E-005	-5.39641E-002	6.78937E-001	3.57280E+000	9	...........
	12	0.173333	6.69904E-001	-8.89801E-005	0.00000E+000	-5.96081E-005	-5.39641E-002	6.69979E-001	3.57280E+000	9	...........
	13	0.186667	6.61138E-001	-8.89134E-005	0.00000E+000	-5.87841E-005	-5.39641E-002	6.61237E-001	3.57280E+000	9	...........
	14	0.2	6.52671E-001	-8.87582E-005	0.00000E+000	-5.79299E-005	-5.39641E-002	6.52764E-001	3.57280E+000	9	...........
	15	0.213333	6.44403E-001	-8.89603E-005	0.00000E+000	-5.73263E-005	-5.39641E-002	6.44493E-001	3.57280E+000	9	...........
	16	0.226667	6.36292E-001	-8.86290E-005	0.00000E+000	-5.63939E-005	-5.39641E-002	6.36409E-001	3.57280E+000	9	...........
	17	0.24	6.28406E-001	-8.84363E-005	0.00000E+000	-5.55739E-005	-5.39641E-002	6.28503E-001	3.57280E+000	9	...........
	18	0.253333	6.20692E-001	-8.89051E-005	0.00000E+000	-5.51827E-005	-5.39641E-002	6.20798E-001	3.57280E+000	9	...........
	19	0.266667	6.13063E-001	-8.87332E-005	0.00000E+000	-5.43990E-005	-5.39641E-002	6.13218E-001	3.57282E+000	9	...........
	20	0.28	6.05638E-001	-8.88697E-005	0.00000E+000	-5.38228E-005	-5.39641E-002	6.05800E-001	3.57290E+000	9	...........
	21	0.293333	5.98393E-001	-8.88374E-005	0.00000E+000	-5.31596E-005	-5.39641E-002	5.98512E-001	3.57290E+000	9	...........
	22	0.306667	5.91246E-001	-8.87780E-005	0.00000E+000	-5.24897E-005	-5.39641E-002	5.91415E-001	3.57290E+000	9	...........
	23	0.32	5.84201E-001	-8.89353E-005	0.00000E+000	-5.19561E-005	-5.39641E-002	5.84346E-001	3.57290E+000	9	...........
	24	0.333333	5.77322E-001	-8.87186E-005	0.00000E+000	-5.12192E-005	-5.39641E-002	5.77466E-001	3.57290E+000	9	...........
	25	0.346667	5.70582E-001	-8.89624E-005	0.00000E+000	-5.07604E-005	-5.39641E-002	5.70702E-001	3.57290E+000	9	...........
	26	0.36	5.63922E-001	-8.87718E-005	0.00000E+000	-5.00604E-005	-5.39641E-002	5.64055E-001	3.57290E+000	9	...........
	27	0.373333	5.57362E-001	-8.88395E-005	0.00000E+000	-4.95158E-005	-5.39641E-002	5.57489E-001	3.57290E+000	9	...........
	28	0.386667	5.50931E-001	-8.89937E-005	0.00000E+000	-4.90294E-005	-5.39641E-002	5.51050E-001	3.57290E+000	9	...........
	29	0.4	5.44574E-001	-8.89114E-005	0.00000E+000	-4.84188E-005	-5.39641E-002	5.44682E-001	3.57290E+000	9	...........
	30	0.413333	5.38310E-001	-8.91354E-005	0.00000E+000	-4.79825E-005	-5.39641E-002	5.38437E-001	3.57290E+000	9	...........
	31	0.426667	5.32057E-001	-8.89134E-005	0.00000E+000	-4.73070E-005	-5.39641E-002	5.32194E-001	3.57290E+000	9	...........
	32	0.44	5.25970E-001	-8.89655E-005	0.00000E+000	-4.67932E-005	-5.39641E-002	5.26077E-001	3.57290E+000	9	...........
	33	0.453333	5.19930E-001	-8.87082E-005	0.00000E+000	-4.61220E-005	-5.39641E-002	5.20031E-001	3.57290E+000	9	...........
	34	0.466667	5.13940E-001	-8.87822E-005	0.00000E+000	-4.56287E-005	-5.39641E-002	5.14024E-001	3.57290E+000	9	...........
	35	0.48	5.07950E-001	-8.89676E-005	0.00000E+000	-4.51911E-005	-5.39641E-002	5.08065E-001	3.57290E+000	9	...........
	36	0.493333	5.02088E-001	-8.84686E-005	0.00000E+000	-4.44190E-005	-5.39641E-002	5.02216E-001	3.57290E+000	9	...........
	37	0.506667	4.96301E-001	-8.88259E-005	0.00000E+000	-4.40844E-005	-5.39641E-002	4.96445E-001	3.57290E+000	9	...........
	38	0.52	4.90559E-001	-8.86092E-005	0.00000E+000	-4.34680E-005	-5.39641E-002	4.90683E-001	3.57290E+000	9	...........
	39	0.533333	4.84965E-001	-8.87228E-005	0.00000E+000	-4.30275E-005	-5.39641E-002	4.85064E-001	3.57290E+000	9	...........
	40	0.546667	4.79423E-001	-8.91687E-005	0.00000E+000	-4.27496E-005	-5.39641E-002	4.79495E-001	3.57290E+000	9	...........
	41	0.56	4.73824E-001	-8.89885E-005	0.00000E+000	-4.21648E-005	-5.39641E-002	4.73891E-001	3.57290E+000	9	...........
	42	0.573333	4.68270E-001	-8.88447E-005	0.00000E+000	-4.16033E-005	-5.39641E-002	4.68343E-001	3.57290E+000	9	...........
	43	0.586667	4.62784E-001	-8.89895E-005	0.00000E+000	-4.11829E-005	-5.39641E-002	4.62855E-001	3.57290E+000	9	...........
	44	0.6	4.57318E-001	-8.89395E-005	0.00000E+000	-4.06736E-005	-5.39641E-002	4.57386E-001	3.57290E+000	9	...........
	45	0.613333	4.51898E-001	-8.87978E-005	0.00000E+000	-4.01275E-005	-5.39641E-002	4.51969E-001	3.57290E+000	9	...........
	46	0.626667	4.46522E-001	-8.86509E-005	0.00000E+000	-3.95846E-005	-5.39641E-002	4.46597E-001	3.57290E+000	9	...........
	47	0.64	4.41192E-001	-8.87613E-005	0.00000E+000	-3.91608E-005	-5.39641E-002	4.41256E-001	3.57290E+000	9	...........
	48	0.653333	4.35908E-001	-8.86301E-005	0.00000E+000	-3.86345E-005	-5.39641E-002	4.35972E-001	3.57290E+000	9	...........
	49	0.666667	4.30649E-001	-8.86332E-005	0.00000E+000	-3.81698E-005	-5.39641E-002	4.30708E-001	3.57290E+000	9	...........
	50	0.68	4.25416E-001	-8.89603E-005	0.00000E+000	-3.78451E-005	-5.39641E-002	4.25484E-001	3.57290E+000	9	...........
	51	0.693333	4.20214E-001	-8.89353E-005	0.00000E+000	-3.73719E-005	-5.39641E-002	4.20279E-001	3.57290E+000	9	...........
	52	0.706667	4.15046E-001	-8.84529E-005	0.00000E+000	-3.67121E-005	-5.39641E-002	4.15108E-001	3.57290E+000	9	...........
	53	0.72	4.09911E-001	-8.90124E-005	0.00000E+000	-3.64872E-005	-5.39641E-002	4.09969E-001	3.57290E+000	9	...........
	54	0.733333	4.04774E-001	-8.87801E-005	0.00000E+000	-3.59359E-005	-5.39641E-002	4.04828E-001	3.57290E+000	9	...........
	55	0.746667	3.99650E-001	-8.89760E-005	0.00000E+000	-3.55593E-005	-5.39641E-002	3.99701E-001	3.57290E+000	9	...........
	56	0.76	3.94570E-001	-8.88332E-005	0.00000E+000	-3.50509E-005	-5.39641E-002	3.94622E-001	3.57290E+000	9	...........
	57	0.773333	3.89494E-001	-8.85821E-005	0.00000E+000	-3.45022E-005	-5.39641E-002	3.89545E-001	3.57290E+000	9	...........
	58	0.786667	3.84422E-001	-8.88436E-005	0.00000E+000	-3.41534E-005	-5.39641E-002	3.84472E-001	3.57290E+000	9	...........
	59	0.8	3.79374E-001	-8.87165E-005	0.00000E+000	-3.36567E-005	-5.39641E-002	3.79427E-001	3.57290E+000	9	...........
	60	0.813333	3.74353E-001	-8.85592E-005	0.00000E+000	-3.31524E-005	-5.39641E-002	3.74406E-001	3.57290E+000	9	...........
	61	0.826667	3.69360E-001	-8.87718E-005	0.00000E+000	-3.27888E-005	-5.39641E-002	3.69413E-001	3.57290E+000	9	...........
	62	0.84	3.64371E-001	-8.87103E-005	0.00000E+000	-3.23235E-005	-5.39641E-002	3.64421E-001	3.57290E+000	9	...........
	63	0.853333	3.59393E-001	-8.86228E-005	0.00000E+000	-3.18504E-005	-5.39641E-002	3.59440E-001	3.57290E+000	9	...........
	64	0.866667	3.54431E-001	-8.87363E-005	0.00000E+000	-3.14509E-005	-5.39641E-002	3.54479E-001	3.57290E+000	9	...........
	65	0.88	3.49474E-001	-8.88676E-005	0.00000E+000	-3.10570E-005	-5.39641E-002	3.49522E-001	3.57290E+000	9	...........
	66	0.893333	3.44532E-001	-8.86311E-005	0.00000E+000	-3.05362E-005	-5.39641E-002	3.44577E-001	3.57290E+000	9	...........
	67	0.906667	3.39592E-001	-8.89937E-005	0.00000E+000	-3.02216E-005	-5.39641E-002	3.39639E-001	3.57290E+000	9	...........
	68	0.92	3.34676E-001	-8.86217E-005	0.00000E+000	-2.96596E-005	-5.39641E-002	3.34721E-001	3.57290E+000	9	...........
	69	0.933333	3.29780E-001	-8.88041E-005	0.00000E+000	-2.92858E-005	-5.39641E-002	3.29822E-001	3.57290E+000	9	...........
	70	0.946667	3.24900E-001	-8.87197E-005	0.00000E+000	-2.88251E-005	-5.39641E-002	3.24946E-001	3.57290E+000	9	...........
	71	0.96	3.20044E-001	-8.89687E-005	0.00000E+000	-2.84739E-005	-5.39641E-002	3.20089E-001	3.57290E+000	9	...........
	72	0.97333	3.15201E-001	-8.86092E-005	0.00000E+000	-2.79297E-005	-5.39641E-002	3.15240E-001	3.57290E+000	9	...........
	73	0.98667	3.10348E-001	-8.88832E-005	0.00000E+000	-2.75847E-005	-5.39641E-002	3.10390E-001	3.57290E+000	9	...........
	74	1	3.05502E-001	-8.86707E-005	0.00000E+000	-2.70891E-005	-5.39641E-002	3.05545E-001	3.57290E+000	9	...........
	75	1.01333	3.00669E-001	-8.87634E-005	0.00000E+000	-2.66884E-005	-5.39641E-002	3.00706E-001	3.57290E+000	9	...........
	76	1.02667	2.95855E-001	-8.89103E-005	0.00000E+000	-2.63046E-005	-5.39641E-002	2.95895E-001	3.57290E+000	9	...........
	77	1.04	2.91042E-001	-8.87947E-005	0.00000E+000	-2.58430E-005	-5.39641E-002	2.91084E-001	3.57290E+000	9	...........
	78	1.05333	2.86255E-001	-8.88541E-005	0.00000E+000	-2.54350E-005	-5.39641E-002	2.86304E-001	3.57290E+000	9	...........
	79	1.06667	2.81488E-001	-8.87197E-005	0.00000E+000	-2.49735E-005	-5.39641E-002	2.81532E-001	3.57290E+000	9	...........
	80	1.08	2.76707E-001	-8.88707E-005	0.00000E+000	-2.45911E-005	-5.39641E-002	2.76743E-001	3.57290E+000	9	...........
	81	1.09333	2.71938E-001	-8.85655E-005	0.00000E+000	-2.40844E-005	-5.39641E-002	2.71975E-001	3.57290E+000	9	...........
	82	1.10667	2.67177E-001	-8.87697E-005	0.00000E+000	-2.37172E-005	-5.39641E-002	2.67216E-001	3.57290E+000	9	...........
	83	1.12	2.62445E-001	-8.86634E-005	0.00000E+000	-2.32693E-005	-5.39641E-002	2.62482E-001	3.57290E+000	9	...........
	84	1.13333	2.57725E-001	-8.88770E-005	0.00000E+000	-2.29058E-005	-5.39641E-002	2.57763E-001	3.57290E+000	9	...........
	85	1.14667	2.53020E-001	-8.89968E-005	0.00000E+000	-2.25180E-005	-5.39641E-002	2.53057E-001	3.57290E+000	9	...........
	86	1.16	2.48338E-001	-8.87165E-005	0.00000E+000	-2.20317E-005	-5.39641E-002	2.48366E-001	3.57290E+000	9	...........
	87	1.17333	2.43664E-001	-8.88582E-005	0.00000E+000	-2.16515E-005	-5.39641E-002	2.43694E-001	3.57290E+000	9	...........
	88	1.18667	2.39003E-001	-8.87957E-005	0.00000E+000	-2.12225E-005	-5.39641E-002	2.39033E-001	3.57290E+000	9	...........
	89	1.2	2.34355E-001	-8.88124E-005	0.00000E+000	-2.08136E-005	-5.39641E-002	2.34382E-001	3.57290E+000	9	...........
	90	1.21333	2.29707E-001	-8.89291E-005	0.00000E+000	-2.04277E-005	-5.39641E-002	2.29733E-001	3.57290E+000	9	...........
	91	1.22667	2.25075E-001	-8.85384E-005	0.00000E+000	-1.99278E-005	-5.39641E-002	2.25097E-001	3.57290E+000	9	...........
	92	1.24	2.20464E-001	-8.87790E-005	0.00000E+000	-1.95726E-005	-5.39641E-002	2.20492E-001	3.57290E+000	9	...........
	93	1.25333	2.15878E-001	-8.87488E-005	0.00000E+000	-1.91589E-005	-5.39641E-002	2.15903E-001	3.57290E+000	9	...........
	94	1.26667	2.11302E-001	-8.88041E-005	0.00000E+000	-1.87644E-005	-5.39641E-002	2.11325E-001	3.57290E+000	9	...........
	95	1.28	2.06742E-001	-8.86738E-005	0.00000E+000	-1.83326E-005	-5.39641E-002	2.06764E-001	3.57290E+000	9	...........
	96	1.29333	2.02205E-001	-8.90343E-005	0.00000E+000	-1.80032E-005	-5.39641E-002	2.02233E-001	3.57290E+000	9	...........
	97	1.30667	1.97701E-001	-8.88978E-005	0.00000E+000	-1.75752E-005	-5.39641E-002	1.97728E-001	3.57290E+000	9	...........
	98	1.32	1.93204E-001	-8.86061E-005	0.00000E+000	-1.71190E-005	-5.39641E-002	1.93226E-001	3.57290E+000	9	...........
	99	1.33333	1.88724E-001	-8.87936E-005	0.00000E+000	-1.67575E-005	-5.39641E-002	1.88747E-001	3.57290E+000	9	...........
	100	1.34667	1.84277E-001	-8.86019E-005	0.00000E+000	-1.63273E-005	-5.39641E-002	1.84300E-001	3.57290E+000	9	...........
	101	1.36	1.79837E-001	-8.88541E-005	0.00000E+000	-1.59793E-005	-5.39641E-002	1.79860E-001	3.57290E+000	9	...........
	102	1.37333	1.75413E-001	-8.87968E-005	0.00000E+000	-1.55761E-005	-5.39641E-002	1.75430E-001	3.57290E+000	9	...........
	103	1.38667	1.71022E-001	-8.86082E-005	0.00000E+000	-1.51540E-005	-5.39641E-002	1.71035E-001	3.57290E+000	9	...........
	104	1.4	1.66640E-001	-8.87645E-005	0.00000E+000	-1.47917E-005	-5.39641E-002	1.66656E-001	3.57290E+000	9	...........
	105	1.41333	1.62282E-001	-8.85540E-005	0.00000E+000	-1.43707E-005	-5.39641E-002	1.62290E-001	3.57290E+000	9	...........
	106	1.42667	1.57939E-001	-8.86853E-005	0.00000E+000	-1.40069E-005	-5.39641E-002	1.57951E-001	3.57290E+000	9	...........
	107	1.44	1.53615E-001	-8.87717E-005	0.00000E+000	-1.36367E-005	-5.39641E-002	1.53624E-001	3.57290E+000	9	...........
	108	1.45333	1.49296E-001	-8.89259E-005	0.00000E+000	-1.32763E-005	-5.39641E-002	1.49310E-001	3.57290E+000	9	...........
	109	1.46667	1.44997E-001	-8.85998E-005	0.00000E+000	-1.28467E-005	-5.39641E-002	1.45010E-001	3.57290E+000	9	...........
	110	1.48	1.40714E-001	-8.86196E-005	0.00000E+000	-1.24700E-005	-5.39641E-002	1.40729E-001	3.57290E+000	9	...........
	111	1.49333	1.36444E-001	-8.85852E-005	0.00000E+000	-1.20870E-005	-5.39641E-002	1.36461E-001	3.57290E+000	9	...........
	112	1.50667	1.32203E-001	-8.88999E-005	0.00000E+000	-1.17529E-005	-5.39641E-002	1.32219E-001	3.57290E+000	9	...........
	113	1.52	1.27982E-001	-8.86415E-005	0.00000E+000	-1.13445E-005	-5.39641E-002	1.27994E-001	3.57290E+000	9	...........
	114	1.53333	1.23772E-001	-8.87009E-005	0.00000E+000	-1.09787E-005	-5.39641E-002	1.23783E-001	3.57290E+000	9	...........
	115	1.54667	1.19572E-001	-8.88259E-005	0.00000E+000	-1.06211E-005	-5.39641E-002	1.19589E-001	3.57290E+000	9	...........
	116	1.56	1.15400E-001	-8.89009E-005	0.00000E+000	-1.02592E-005	-5.39641E-002	1.15415E-001	3.57290E+000	9	...........
	117	1.57333	1.11240E-001	-8.87280E-005	0.00000E+000	-9.87013E-006	-5.39641E-002	1.11252E-001	3.57290E+000	9	...........
	118	1.58667	1.07101E-001	-8.88853E-005	0.00000E+000	-9.51974E-006	-5.39641E-002	1.07114E-001	3.57290E+000	9	...........
	119	1.6	1.02979E-001	-8.89155E-005	0.00000E+000	-9.15646E-006	-5.39641E-002	1.02990E-001	3.57290E+000	9	...........
	120	1.61333	9.88653E-002	-8.87936E-005	0.00000E+000	-8.77861E-006	-5.39641E-002	9.88788E-002	3.57290E+000	9	...........
	121	1.62667	9.47916E-002	-8.87280E-005	0.00000E+000	-8.41067E-006	-5.39641E-002	9.48016E-002	3.57290E+000	9	...........
	122	1.64	9.07256E-002	-8.86248E-005	0.00000E+000	-8.04054E-006	-5.39641E-002	9.07391E-002	3.57290E+000	9	...........
	123	1.65333	8.66996E-002	-8.86123E-005	0.00000E+000	-7.68266E-006	-5.39641E-002	8.67051E-002	3.57290E+000	9	...........
	124	1.66667	8.26697E-002	-8.89176E-005	0.00000E+000	-7.35079E-006	-5.39641E-002	8.26749E-002	3.57290E+000	9	...........
	125	1.68	7.86588E-002	-8.89895E-005	0.00000E+000	-6.99981E-006	-5.39641E-002	7.86604E-002	3.57290E+000	9	...........
	126	1.69333	7.46445E-002	-8.88561E-005	0.00000E+000	-6.63262E-006	-5.39641E-002	7.46443E-002	3.57290E+000	9	...........
	127	1.70667	7.06541E-002	-8.88551E-005	0.00000E+000	-6.27797E-006	-5.39641E-002	7.06559E-002	3.57290E+000	9	...........
	128	1.72	6.67004E-002	-8.88082E-005	0.00000E+000	-5.92354E-006	-5.39641E-002	6.66990E-002	3.57290E+000	9	...........
	129	1.73333	6.27397E-002	-8.88176E-005	0.00000E+000	-5.57239E-006	-5.39641E-002	6.27448E-002	3.57290E+000	9	...........
	130	1.74667	5.88176E-002	-8.87176E-005	0.00000E+000	-5.21815E-006	-5.39641E-002	5.88195E-002	3.57290E+000	9	...........
	131	1.76	5.49220E-002	-8.86655E-005	0.00000E+000	-4.86968E-006	-5.39641E-002	5.49181E-002	3.57290E+000	9	...........
	132	1.77333	5.10320E-002	-8.84842E-005	0.00000E+000	-4.51552E-006	-5.39641E-002	5.10313E-002	3.57290E+000	9	...........
	133	1.78667	4.71835E-002	-8.89499E-005	0.00000E+000	-4.19697E-006	-5.39641E-002	4.71859E-002	3.57290E+000	9	...........
	134	1.8	4.33454E-002	-8.90145E-005	0.00000E+000	-3.85837E-006	-5.39641E-002	4.33583E-002	3.57290E+000	9	...........
	135	1.81333	3.95415E-002	-8.88634E-005	0.00000E+000	-3.51380E-006	-5.39641E-002	3.95468E-002	3.57290E+000	9	...........
	136	1.82667	3.57393E-002	-8.90916E-005	0.00000E+000	-3.18408E-006	-5.39641E-002	3.57452E-002	3.57290E+000	9	...........
	137	1.84	3.19552E-002	-8.88624E-005	0.00000E+000	-2.83962E-006	-5.39641E-002	3.19596E-002	3.57290E+000	9	...........
	138	1.85333	2.81827E-002	-8.90406E-005	0.00000E+000	-2.50940E-006	-5.39641E-002	2.81855E-002	3.57290E+000	9	...........
	139	1.86667	2.44296E-002	-8.89468E-005	0.00000E+000	-2.17294E-006	-5.39641E-002	2.44257E-002	3.57290E+000	9	...........
	140	1.88	2.06971E-002	-8.86801E-005	0.00000E+000	-1.83542E-006	-5.39641E-002	2.06948E-002	3.57290E+000	9	...........
	141	1.89333	1.69768E-002	-8.89385E-005	0.00000E+000	-1.50989E-006	-5.39641E-002	1.69710E-002	3.57290E+000	9	...........
	142	1.90667	1.32817E-002	-8.88509E-005	0.00000E+000	-1.18009E-006	-5.39641E-002	1.32789E-002	3.57290E+000	9	...........
	143	1.92	9.62094E-003	-8.88864E-005	0.00000E+000	-8.55171E-007	-5.39641E-002	9.61169E-003	3.57290E+000	9	...........
	144	1.93333	5.96657E-003	-8.87790E-005	0.00000E+000	-5.29706E-007	-5.39641E-002	5.95516E-003	3.57290E+000	9	...........
	145	1.94667	2.32368E-003	-8.87613E-005	0.00000E+000	-2.06253E-007	-5.39641E-002	2.30897E-003	3.57290E+000	9	...........
	146	1.95	6.27347E-005	-8.85415E-005	0.00000E+000	-5.55463E-009	-5.39641E-002	4.54056E-005	3.57290E+000	9	...........
STARTTIMEOFFSET	QUANT	3988.008	Start Time Offset (s)
