EXPLAIN
TAG	PWR800_DISCHARGE
TITLE	LABEL	PWR Cyclic Charge Discharge (Cell) - Discharge Step	Test &Identifier
DATE	LABEL	10-7-2017	Date
TIME	LABEL	16:10:12	Time
NOTES	NOTES	3	&Notes...
	supercap test cell
	0.9mg
	6M KOH
PSTAT	PSTAT	IFC5000-01520	Potentiostat
CAPACITY	QUANT	1.00000E-003	Capacity (A-hr)
CELLTYPE	SELECTOR	1	&Cell Type
WORKINGCONNECTION	SELECTOR	0	&Working Lead
MAXDISCHARGETIME	VARIABLEANDUNITS	1.00000E+002	s	1.00000E+002	second(s)	Max &Discharge Time
DISCHARGEMODE	MULTIPARAM	0	9.00000E-005	&Discharge Mode	Constant Current	Amp(s)
SAMPLETIME	QUANT	1.00000E-002	Sa&mple Period (s)
DISCHARGESTOPAT1	MULTIPARAM	3	0.00000E+000	Discharge Stop At &1	Voltage < Limit	V
DISCHARGESTOPAT2	MULTIPARAM	0	0.00000E+000	Discharge Stop At &2	None	N/A
AESBHCSELECTOR	TOGGLE	F	Save Both Half Cells
IRCOMP	TOGGLE	F	IR &Measure
EOC	QUANT	0	Open Circuit (V)
SEQUENCER	TOGGLE	TRUE	Run as Sequence
PSTATMODEL	IQUANT	53	Pstat Model
PSTATSECTION	LABEL	IFC5000-01520	Pstat Section
PSTATSERIALNO	LABEL	01520	Pstat Serial Number
CTRLMODE	IQUANT	0	Control Mode
ELECTROMETER	IQUANT	1	RE=0 or CS=1
IESTAB	IQUANT	0	I/E Stability
CASPEED	IQUANT	4	Control Amp Speed
CONVENTION	IQUANT	1	Current Convention
ICHRANGE	IQUANT	2	Ich Range
ICHRANGEMODE	TOGGLE	T	Ich Auto Range
ICHOFFSETENABLE	TOGGLE	F	Ich Offset Enable
ICHOFFSET	QUANT	0	Ich Offset (V)
ICHFILTER	IQUANT	1	Ich Filter
VCHRANGE	IQUANT	2	Vch Range
VCHRANGEMODE	TOGGLE	T	Vch Auto Range
VCHOFFSETENABLE	TOGGLE	F	Vch Offset Enable
VCHOFFSET	QUANT	0	Vch Offset (V)
VCHFILTER	IQUANT	1	Vch Filter
IERANGELOWERLIMIT	IQUANT	9	I/E Range Lower Limit
IERANGEMODE	TOGGLE	F	I/E AutoRange
IERANGE	IQUANT	9	I/E Range
ACHSELECT	IQUANT	1	Ach Select
ACHRANGE	IQUANT	2	Ach Range
ACHOFFSETENABLE	TOGGLE	F	Ach Offset Enable
ACHOFFSET	QUANT	0	Ach Offset (V)
ACHFILTER	IQUANT	1	Ach Filter
CABLEID	IQUANT	14	Cable ID
DCCALDATE	LABEL	5-7-2017	DC Calibration Date
ACCALDATE	LABEL	12/3/2015	AC Calibration Date
FRAMEWORKVERSION	QUANT	7.01	Framework Version
INSTRUMENTVERSION	LABEL	4.00	Instrument Version
CURVE	TABLE	147
	Pt	T	Vf	Im	Vu	Pwr	Sig	Ach	Temp	IERange	Over
	#	s	V	A	V	W	V	V	deg C	#	bits
	0	0.013333	7.96978E-001	-8.85300E-005	0.00000E+000	-7.05565E-005	-5.39641E-002	7.97097E-001	3.57280E+000	9	...........
	1	0.026667	7.82855E-001	-8.85342E-005	0.00000E+000	-6.93094E-005	-5.39641E-002	7.83005E-001	3.57280E+000	9	...........
	2	0.04	7.69738E-001	-8.88593E-005	0.00000E+000	-6.83984E-005	-5.39641E-002	7.69875E-001	3.57280E+000	9	...........
	3	0.053333	7.57414E-001	-8.88207E-005	0.00000E+000	-6.72740E-005	-5.39641E-002	7.57535E-001	3.57280E+000	9	...........
	4	0.066667	7.45679E-001	-8.86863E-005	0.00000E+000	-6.61316E-005	-5.39641E-002	7.45806E-001	3.57280E+000	9	...........
	5	0.08	7.34494E-001	-8.86155E-005	0.00000E+000	-6.50875E-005	-5.39641E-002	7.34615E-001	3.57280E+000	9	...........
	6	0.093333	7.23810E-001	-8.88530E-005	0.00000E+000	-6.43127E-005	-5.39641E-002	7.23939E-001	3.57280E+000	9	...........
	7	0.106667	7.13483E-001	-8.87155E-005	0.00000E+000	-6.32970E-005	-5.39641E-002	7.13629E-001	3.57280E+000	9	...........
	8	0.12	7.03579E-001	-8.90218E-005	0.00000E+000	-6.26339E-005	-5.39641E-002	7.03700E-001	3.57280E+000	9	...........
	9	0.133333	6.93993E-001	-8.86415E-005	0.00000E+000	-6.15166E-005	-5.39641E-002	6.94117E-001	3.57280E+000	9	...........
	10	0.146667	6.84697E-001	-8.87280E-005	0.00000E+000	-6.07518E-005	-5.39641E-002	6.84818E-001	3.57280E+000	9	...........
	11	0.16	6.75696E-001	-8.91562E-005	0.00000E+000	-6.02425E-005	-5.39641E-002	6.75833E-001	3.57280E+000	9	...........
	12	0.173333	6.66947E-001	-8.89207E-005	0.00000E+000	-5.93054E-005	-5.39641E-002	6.67053E-001	3.57280E+000	9	...........
	13	0.186667	6.58390E-001	-8.88457E-005	0.00000E+000	-5.84951E-005	-5.39641E-002	6.58500E-001	3.57280E+000	9	...........
	14	0.2	6.50067E-001	-8.88384E-005	0.00000E+000	-5.77509E-005	-5.39641E-002	6.50192E-001	3.57280E+000	9	...........
	15	0.213333	6.41967E-001	-8.88166E-005	0.00000E+000	-5.70173E-005	-5.39641E-002	6.42078E-001	3.57280E+000	9	...........
	16	0.226667	6.34016E-001	-8.88759E-005	0.00000E+000	-5.63487E-005	-5.39641E-002	6.34132E-001	3.57280E+000	9	...........
	17	0.24	6.26272E-001	-8.88947E-005	0.00000E+000	-5.56722E-005	-5.39641E-002	6.26367E-001	3.57280E+000	9	...........
	18	0.253333	6.18689E-001	-8.90562E-005	0.00000E+000	-5.50981E-005	-5.39641E-002	6.18778E-001	3.57280E+000	9	...........
	19	0.266667	6.11186E-001	-8.88822E-005	0.00000E+000	-5.43236E-005	-5.39641E-002	6.11324E-001	3.57280E+000	9	...........
	20	0.28	6.03911E-001	-8.87384E-005	0.00000E+000	-5.35901E-005	-5.39641E-002	6.04051E-001	3.57280E+000	9	...........
	21	0.293333	5.96801E-001	-8.87697E-005	0.00000E+000	-5.29778E-005	-5.39641E-002	5.96905E-001	3.57280E+000	9	...........
	22	0.306667	5.89783E-001	-8.86957E-005	0.00000E+000	-5.23112E-005	-5.39641E-002	5.89898E-001	3.57280E+000	9	...........
	23	0.32	5.82853E-001	-8.88155E-005	0.00000E+000	-5.17664E-005	-5.39641E-002	5.82960E-001	3.57280E+000	9	...........
	24	0.333333	5.76077E-001	-8.87040E-005	0.00000E+000	-5.11003E-005	-5.39641E-002	5.76192E-001	3.57280E+000	9	...........
	25	0.346667	5.69427E-001	-8.88176E-005	0.00000E+000	-5.05751E-005	-5.39641E-002	5.69506E-001	3.57280E+000	9	...........
	26	0.36	5.62852E-001	-8.89635E-005	0.00000E+000	-5.00733E-005	-5.39641E-002	5.62947E-001	3.57280E+000	9	...........
	27	0.373333	5.56361E-001	-8.87540E-005	0.00000E+000	-4.93793E-005	-5.39641E-002	5.56480E-001	3.57280E+000	9	...........
	28	0.386667	5.50012E-001	-8.85394E-005	0.00000E+000	-4.86978E-005	-5.39641E-002	5.50139E-001	3.57280E+000	9	...........
	29	0.4	5.43732E-001	-8.87530E-005	0.00000E+000	-4.82579E-005	-5.39641E-002	5.43836E-001	3.57280E+000	9	...........
	30	0.413333	5.37491E-001	-8.87936E-005	0.00000E+000	-4.77258E-005	-5.39641E-002	5.37630E-001	3.57280E+000	9	...........
	31	0.426667	5.31354E-001	-8.90176E-005	0.00000E+000	-4.72999E-005	-5.39641E-002	5.31469E-001	3.57280E+000	9	...........
	32	0.44	5.25296E-001	-8.91145E-005	0.00000E+000	-4.68115E-005	-5.39641E-002	5.25381E-001	3.57280E+000	9	...........
	33	0.453333	5.19308E-001	-8.89437E-005	0.00000E+000	-4.61892E-005	-5.39641E-002	5.19384E-001	3.57280E+000	9	...........
	34	0.466667	5.13394E-001	-8.88166E-005	0.00000E+000	-4.55979E-005	-5.39641E-002	5.13460E-001	3.57280E+000	9	...........
	35	0.48	5.07463E-001	-8.87947E-005	0.00000E+000	-4.50600E-005	-5.39641E-002	5.07598E-001	3.57280E+000	9	...........
	36	0.493333	5.01702E-001	-8.89916E-005	0.00000E+000	-4.46472E-005	-5.39641E-002	5.01800E-001	3.57280E+000	9	...........
	37	0.506667	4.95958E-001	-8.89030E-005	0.00000E+000	-4.40922E-005	-5.39641E-002	4.96064E-001	3.57280E+000	9	...........
	38	0.52	4.90304E-001	-8.88353E-005	0.00000E+000	-4.35563E-005	-5.39641E-002	4.90395E-001	3.57280E+000	9	...........
	39	0.533333	4.84714E-001	-8.86832E-005	0.00000E+000	-4.29859E-005	-5.39641E-002	4.84778E-001	3.57280E+000	9	...........
	40	0.546667	4.79153E-001	-8.87457E-005	0.00000E+000	-4.25227E-005	-5.39641E-002	4.79224E-001	3.57280E+000	9	...........
	41	0.56	4.73598E-001	-8.88572E-005	0.00000E+000	-4.20826E-005	-5.39641E-002	4.73671E-001	3.57280E+000	9	...........
	42	0.573333	4.68116E-001	-8.91322E-005	0.00000E+000	-4.17242E-005	-5.39641E-002	4.68181E-001	3.57280E+000	9	...........
	43	0.586667	4.62669E-001	-8.88093E-005	0.00000E+000	-4.10893E-005	-5.39641E-002	4.62730E-001	3.57280E+000	9	...........
	44	0.6	4.57237E-001	-8.87884E-005	0.00000E+000	-4.05973E-005	-5.39641E-002	4.57304E-001	3.57280E+000	9	...........
	45	0.613333	4.51843E-001	-8.88322E-005	0.00000E+000	-4.01382E-005	-5.39641E-002	4.51909E-001	3.57280E+000	9	...........
	46	0.626667	4.46484E-001	-8.90927E-005	0.00000E+000	-3.97785E-005	-5.39641E-002	4.46548E-001	3.57280E+000	9	...........
	47	0.64	4.41159E-001	-8.87165E-005	0.00000E+000	-3.91381E-005	-5.39641E-002	4.41220E-001	3.57280E+000	9	...........
	48	0.653333	4.35854E-001	-8.86644E-005	0.00000E+000	-3.86448E-005	-5.39641E-002	4.35917E-001	3.57280E+000	9	...........
	49	0.666667	4.30589E-001	-8.90103E-005	0.00000E+000	-3.83269E-005	-5.39641E-002	4.30647E-001	3.57280E+000	9	...........
	50	0.68	4.25346E-001	-8.87811E-005	0.00000E+000	-3.77627E-005	-5.39641E-002	4.25406E-001	3.57280E+000	9	...........
	51	0.693333	4.20125E-001	-8.87655E-005	0.00000E+000	-3.72926E-005	-5.39641E-002	4.20182E-001	3.57280E+000	9	...........
	52	0.706667	4.14936E-001	-8.85248E-005	0.00000E+000	-3.67322E-005	-5.39641E-002	4.14994E-001	3.57280E+000	9	...........
	53	0.72	4.09778E-001	-8.88416E-005	0.00000E+000	-3.64053E-005	-5.39641E-002	4.09831E-001	3.57280E+000	9	...........
	54	0.733333	4.04633E-001	-8.88926E-005	0.00000E+000	-3.59689E-005	-5.39641E-002	4.04685E-001	3.57280E+000	9	...........
	55	0.746667	3.99519E-001	-8.86176E-005	0.00000E+000	-3.54044E-005	-5.39641E-002	3.99562E-001	3.57280E+000	9	...........
	56	0.76	3.94429E-001	-8.89374E-005	0.00000E+000	-3.50795E-005	-5.39641E-002	3.94476E-001	3.57280E+000	9	...........
	57	0.773333	3.89371E-001	-8.87978E-005	0.00000E+000	-3.45752E-005	-5.39641E-002	3.89420E-001	3.57280E+000	9	...........
	58	0.786667	3.84330E-001	-8.88634E-005	0.00000E+000	-3.41529E-005	-5.39641E-002	3.84376E-001	3.57280E+000	9	...........
	59	0.8	3.79292E-001	-8.86248E-005	0.00000E+000	-3.36147E-005	-5.39641E-002	3.79338E-001	3.57280E+000	9	...........
	60	0.813333	3.74275E-001	-8.87790E-005	0.00000E+000	-3.32277E-005	-5.39641E-002	3.74319E-001	3.57280E+000	9	...........
	61	0.826667	3.69274E-001	-8.87249E-005	0.00000E+000	-3.27638E-005	-5.39641E-002	3.69321E-001	3.57280E+000	9	...........
	62	0.84	3.64283E-001	-8.89072E-005	0.00000E+000	-3.23874E-005	-5.39641E-002	3.64332E-001	3.57280E+000	9	...........
	63	0.853333	3.59293E-001	-8.88905E-005	0.00000E+000	-3.19377E-005	-5.39641E-002	3.59338E-001	3.57280E+000	9	...........
	64	0.866667	3.54314E-001	-8.87134E-005	0.00000E+000	-3.14324E-005	-5.39641E-002	3.54359E-001	3.57280E+000	9	...........
	65	0.88	3.49344E-001	-8.86509E-005	0.00000E+000	-3.09697E-005	-5.39641E-002	3.49385E-001	3.57280E+000	9	...........
	66	0.893333	3.44390E-001	-8.87540E-005	0.00000E+000	-3.05660E-005	-5.39641E-002	3.44431E-001	3.57280E+000	9	...........
	67	0.906667	3.39455E-001	-8.88270E-005	0.00000E+000	-3.01528E-005	-5.39641E-002	3.39497E-001	3.57280E+000	9	...........
	68	0.92	3.34525E-001	-8.88072E-005	0.00000E+000	-2.97082E-005	-5.39641E-002	3.34569E-001	3.57280E+000	9	...........
	69	0.933333	3.29620E-001	-8.88478E-005	0.00000E+000	-2.92860E-005	-5.39641E-002	3.29658E-001	3.57280E+000	9	...........
	70	0.946667	3.24719E-001	-8.87051E-005	0.00000E+000	-2.88042E-005	-5.39641E-002	3.24762E-001	3.57280E+000	9	...........
	71	0.96	3.19829E-001	-8.86999E-005	0.00000E+000	-2.83688E-005	-5.39641E-002	3.19865E-001	3.57280E+000	9	...........
	72	0.97333	3.14943E-001	-8.87342E-005	0.00000E+000	-2.79462E-005	-5.39641E-002	3.14987E-001	3.57280E+000	9	...........
	73	0.98667	3.10070E-001	-8.89676E-005	0.00000E+000	-2.75862E-005	-5.39641E-002	3.10112E-001	3.57280E+000	9	...........
	74	1	3.05214E-001	-8.88572E-005	0.00000E+000	-2.71205E-005	-5.39641E-002	3.05257E-001	3.57280E+000	9	...........
	75	1.01333	3.00391E-001	-8.87082E-005	0.00000E+000	-2.66471E-005	-5.39641E-002	3.00428E-001	3.57280E+000	9	...........
	76	1.02667	2.95575E-001	-8.86603E-005	0.00000E+000	-2.62058E-005	-5.39641E-002	2.95617E-001	3.57280E+000	9	...........
	77	1.04	2.90772E-001	-8.87186E-005	0.00000E+000	-2.57969E-005	-5.39641E-002	2.90815E-001	3.57280E+000	9	...........
	78	1.05333	2.85972E-001	-8.87707E-005	0.00000E+000	-2.53859E-005	-5.39641E-002	2.86011E-001	3.57280E+000	9	...........
	79	1.06667	2.81191E-001	-8.89187E-005	0.00000E+000	-2.50031E-005	-5.39641E-002	2.81227E-001	3.57280E+000	9	...........
	80	1.08	2.76431E-001	-8.87582E-005	0.00000E+000	-2.45355E-005	-5.39641E-002	2.76467E-001	3.57280E+000	9	...........
	81	1.09333	2.71697E-001	-8.87645E-005	0.00000E+000	-2.41171E-005	-5.39641E-002	2.71735E-001	3.57280E+000	9	...........
	82	1.10667	2.66981E-001	-8.89405E-005	0.00000E+000	-2.37455E-005	-5.39641E-002	2.67019E-001	3.57280E+000	9	...........
	83	1.12	2.62273E-001	-8.86332E-005	0.00000E+000	-2.32461E-005	-5.39641E-002	2.62308E-001	3.57280E+000	9	...........
	84	1.13333	2.57580E-001	-8.87155E-005	0.00000E+000	-2.28513E-005	-5.39641E-002	2.57612E-001	3.57280E+000	9	...........
	85	1.14667	2.52893E-001	-8.88051E-005	0.00000E+000	-2.24582E-005	-5.39641E-002	2.52926E-001	3.57280E+000	9	...........
	86	1.16	2.48208E-001	-8.88082E-005	0.00000E+000	-2.20429E-005	-5.39641E-002	2.48243E-001	3.57280E+000	9	...........
	87	1.17333	2.43554E-001	-8.87530E-005	0.00000E+000	-2.16161E-005	-5.39641E-002	2.43580E-001	3.57280E+000	9	...........
	88	1.18667	2.38913E-001	-8.87426E-005	0.00000E+000	-2.12017E-005	-5.39641E-002	2.38940E-001	3.57280E+000	9	...........
	89	1.2	2.34284E-001	-8.86759E-005	0.00000E+000	-2.07754E-005	-5.39641E-002	2.34311E-001	3.57280E+000	9	...........
	90	1.21333	2.29683E-001	-8.87457E-005	0.00000E+000	-2.03834E-005	-5.39641E-002	2.29713E-001	3.57280E+000	9	...........
	91	1.22667	2.25095E-001	-8.86103E-005	0.00000E+000	-1.99457E-005	-5.39641E-002	2.25122E-001	3.57280E+000	9	...........
	92	1.24	2.20515E-001	-8.90614E-005	0.00000E+000	-1.96394E-005	-5.39641E-002	2.20542E-001	3.57280E+000	9	...........
	93	1.25333	2.15948E-001	-8.87957E-005	0.00000E+000	-1.91752E-005	-5.39641E-002	2.15972E-001	3.57280E+000	9	...........
	94	1.26667	2.11399E-001	-8.90249E-005	0.00000E+000	-1.88198E-005	-5.39641E-002	2.11424E-001	3.57280E+000	9	...........
	95	1.28	2.06862E-001	-8.84977E-005	0.00000E+000	-1.83068E-005	-5.39641E-002	2.06881E-001	3.57280E+000	9	...........
	96	1.29333	2.02341E-001	-8.87176E-005	0.00000E+000	-1.79512E-005	-5.39641E-002	2.02363E-001	3.57280E+000	9	...........
	97	1.30667	1.97851E-001	-8.90010E-005	0.00000E+000	-1.76089E-005	-5.39641E-002	1.97869E-001	3.57280E+000	9	...........
	98	1.32	1.93374E-001	-8.88895E-005	0.00000E+000	-1.71889E-005	-5.39641E-002	1.93403E-001	3.57280E+000	9	...........
	99	1.33333	1.88922E-001	-8.89708E-005	0.00000E+000	-1.68086E-005	-5.39641E-002	1.88945E-001	3.57280E+000	9	...........
	100	1.34667	1.84498E-001	-8.90010E-005	0.00000E+000	-1.64205E-005	-5.39641E-002	1.84516E-001	3.57280E+000	9	...........
	101	1.36	1.80079E-001	-8.89468E-005	0.00000E+000	-1.60175E-005	-5.39641E-002	1.80104E-001	3.57280E+000	9	...........
	102	1.37333	1.75693E-001	-8.89301E-005	0.00000E+000	-1.56244E-005	-5.39641E-002	1.75713E-001	3.57280E+000	9	...........
	103	1.38667	1.71312E-001	-8.85978E-005	0.00000E+000	-1.51779E-005	-5.39641E-002	1.71331E-001	3.57280E+000	9	...........
	104	1.4	1.66955E-001	-8.86676E-005	0.00000E+000	-1.48035E-005	-5.39641E-002	1.66976E-001	3.57280E+000	9	...........
	105	1.41333	1.62618E-001	-8.88041E-005	0.00000E+000	-1.44412E-005	-5.39641E-002	1.62637E-001	3.57280E+000	9	...........
	106	1.42667	1.58312E-001	-8.89635E-005	0.00000E+000	-1.40840E-005	-5.39641E-002	1.58323E-001	3.57280E+000	9	...........
	107	1.44	1.54015E-001	-8.89364E-005	0.00000E+000	-1.36976E-005	-5.39641E-002	1.54031E-001	3.57280E+000	9	...........
	108	1.45333	1.49725E-001	-8.89343E-005	0.00000E+000	-1.33157E-005	-5.39641E-002	1.49740E-001	3.57280E+000	9	...........
	109	1.46667	1.45440E-001	-8.87436E-005	0.00000E+000	-1.29068E-005	-5.39641E-002	1.45453E-001	3.57280E+000	9	...........
	110	1.48	1.41188E-001	-8.88676E-005	0.00000E+000	-1.25470E-005	-5.39641E-002	1.41197E-001	3.57280E+000	9	...........
	111	1.49333	1.36956E-001	-8.86530E-005	0.00000E+000	-1.21415E-005	-5.39641E-002	1.36970E-001	3.57280E+000	9	...........
	112	1.50667	1.32748E-001	-8.86863E-005	0.00000E+000	-1.17730E-005	-5.39641E-002	1.32754E-001	3.57280E+000	9	...........
	113	1.52	1.28553E-001	-8.88291E-005	0.00000E+000	-1.14192E-005	-5.39641E-002	1.28559E-001	3.57280E+000	9	...........
	114	1.53333	1.24366E-001	-8.86592E-005	0.00000E+000	-1.10262E-005	-5.39641E-002	1.24375E-001	3.57280E+000	9	...........
	115	1.54667	1.20194E-001	-8.86051E-005	0.00000E+000	-1.06498E-005	-5.39641E-002	1.20208E-001	3.57280E+000	9	...........
	116	1.56	1.16034E-001	-8.84873E-005	0.00000E+000	-1.02675E-005	-5.39641E-002	1.16048E-001	3.57280E+000	9	...........
	117	1.57333	1.11893E-001	-8.89437E-005	0.00000E+000	-9.95222E-006	-5.39641E-002	1.11907E-001	3.57280E+000	9	...........
	118	1.58667	1.07786E-001	-8.89426E-005	0.00000E+000	-9.58678E-006	-5.39641E-002	1.07796E-001	3.57280E+000	9	...........
	119	1.6	1.03703E-001	-8.89593E-005	0.00000E+000	-9.22537E-006	-5.39641E-002	1.03715E-001	3.57280E+000	9	...........
	120	1.61333	9.96320E-002	-8.88291E-005	0.00000E+000	-8.85021E-006	-5.39641E-002	9.96392E-002	3.57280E+000	9	...........
	121	1.62667	9.55675E-002	-8.89958E-005	0.00000E+000	-8.50510E-006	-5.39641E-002	9.55807E-002	3.57280E+000	9	...........
	122	1.64	9.15395E-002	-8.88697E-005	0.00000E+000	-8.13509E-006	-5.39641E-002	9.15498E-002	3.57280E+000	9	...........
	123	1.65333	8.75324E-002	-8.87707E-005	0.00000E+000	-7.77032E-006	-5.39641E-002	8.75411E-002	3.57280E+000	9	...........
	124	1.66667	8.35468E-002	-8.89687E-005	0.00000E+000	-7.43304E-006	-5.39641E-002	8.35468E-002	3.57280E+000	9	...........
	125	1.68	7.95732E-002	-8.87592E-005	0.00000E+000	-7.06286E-006	-5.39641E-002	7.95717E-002	3.57280E+000	9	...........
	126	1.69333	7.56067E-002	-8.89051E-005	0.00000E+000	-6.72182E-006	-5.39641E-002	7.56097E-002	3.57280E+000	9	...........
	127	1.70667	7.16729E-002	-8.87759E-005	0.00000E+000	-6.36283E-006	-5.39641E-002	7.16721E-002	3.57280E+000	9	...........
	128	1.72	6.77525E-002	-8.86790E-005	0.00000E+000	-6.00822E-006	-5.39641E-002	6.77506E-002	3.57280E+000	9	...........
	129	1.73333	6.38468E-002	-8.87415E-005	0.00000E+000	-5.66587E-006	-5.39641E-002	6.38476E-002	3.57280E+000	9	...........
	130	1.74667	5.99566E-002	-8.87572E-005	0.00000E+000	-5.32158E-006	-5.39641E-002	5.99620E-002	3.57280E+000	9	...........
	131	1.76	5.60862E-002	-8.87259E-005	0.00000E+000	-4.97630E-006	-5.39641E-002	5.60785E-002	3.57280E+000	9	...........
	132	1.77333	5.22215E-002	-8.88030E-005	0.00000E+000	-4.63743E-006	-5.39641E-002	5.22249E-002	3.57280E+000	9	...........
	133	1.78667	4.83860E-002	-8.87905E-005	0.00000E+000	-4.29622E-006	-5.39641E-002	4.83865E-002	3.57280E+000	9	...........
	134	1.8	4.45628E-002	-8.88832E-005	0.00000E+000	-3.96089E-006	-5.39641E-002	4.45726E-002	3.57280E+000	9	...........
	135	1.81333	4.07650E-002	-8.88093E-005	0.00000E+000	-3.62031E-006	-5.39641E-002	4.07704E-002	3.57280E+000	9	...........
	136	1.82667	3.69880E-002	-8.88739E-005	0.00000E+000	-3.28727E-006	-5.39641E-002	3.69967E-002	3.57280E+000	9	...........
	137	1.84	3.32294E-002	-8.85123E-005	0.00000E+000	-2.94121E-006	-5.39641E-002	3.32312E-002	3.57280E+000	9	...........
	138	1.85333	2.94780E-002	-8.92177E-005	0.00000E+000	-2.62996E-006	-5.39641E-002	2.94800E-002	3.57280E+000	9	...........
	139	1.86667	2.57519E-002	-8.88457E-005	0.00000E+000	-2.28795E-006	-5.39641E-002	2.57559E-002	3.57280E+000	9	...........
	140	1.88	2.20465E-002	-8.86863E-005	0.00000E+000	-1.95522E-006	-5.39641E-002	2.20457E-002	3.57280E+000	9	...........
	141	1.89333	1.83545E-002	-8.88697E-005	0.00000E+000	-1.63116E-006	-5.39641E-002	1.83529E-002	3.57280E+000	9	...........
	142	1.90667	1.46784E-002	-8.90333E-005	0.00000E+000	-1.30687E-006	-5.39641E-002	1.46680E-002	3.57280E+000	9	...........
	143	1.92	1.10032E-002	-8.88624E-005	0.00000E+000	-9.77768E-007	-5.39641E-002	1.09931E-002	3.57280E+000	9	...........
	144	1.93333	7.35359E-003	-8.88457E-005	0.00000E+000	-6.53336E-007	-5.39641E-002	7.34093E-003	3.57280E+000	9	...........
	145	1.94667	3.71710E-003	-8.88020E-005	0.00000E+000	-3.30086E-007	-5.39641E-002	3.70509E-003	3.57280E+000	9	...........
	146	1.955	7.78824E-004	-8.87665E-005	0.00000E+000	-6.91335E-008	-5.39641E-002	7.58738E-004	3.57280E+000	9	...........
STARTTIMEOFFSET	QUANT	3572.792	Start Time Offset (s)
