EXPLAIN
TAG	PWR800_DISCHARGE
TITLE	LABEL	PWR Cyclic Charge Discharge (Cell) - Discharge Step	Test &Identifier
DATE	LABEL	10-7-2017	Date
TIME	LABEL	15:24:05	Time
NOTES	NOTES	3	&Notes...
	supercap test cell
	0.9mg
	6M KOH
PSTAT	PSTAT	IFC5000-01520	Potentiostat
CAPACITY	QUANT	1.00000E-003	Capacity (A-hr)
CELLTYPE	SELECTOR	1	&Cell Type
WORKINGCONNECTION	SELECTOR	0	&Working Lead
MAXDISCHARGETIME	VARIABLEANDUNITS	1.00000E+002	s	1.00000E+002	second(s)	Max &Discharge Time
DISCHARGEMODE	MULTIPARAM	0	9.00000E-005	&Discharge Mode	Constant Current	Amp(s)
SAMPLETIME	QUANT	1.00000E-002	Sa&mple Period (s)
DISCHARGESTOPAT1	MULTIPARAM	3	0.00000E+000	Discharge Stop At &1	Voltage < Limit	V
DISCHARGESTOPAT2	MULTIPARAM	0	0.00000E+000	Discharge Stop At &2	None	N/A
AESBHCSELECTOR	TOGGLE	F	Save Both Half Cells
IRCOMP	TOGGLE	F	IR &Measure
EOC	QUANT	0	Open Circuit (V)
SEQUENCER	TOGGLE	TRUE	Run as Sequence
PSTATMODEL	IQUANT	53	Pstat Model
PSTATSECTION	LABEL	IFC5000-01520	Pstat Section
PSTATSERIALNO	LABEL	01520	Pstat Serial Number
CTRLMODE	IQUANT	0	Control Mode
ELECTROMETER	IQUANT	1	RE=0 or CS=1
IESTAB	IQUANT	0	I/E Stability
CASPEED	IQUANT	4	Control Amp Speed
CONVENTION	IQUANT	1	Current Convention
ICHRANGE	IQUANT	2	Ich Range
ICHRANGEMODE	TOGGLE	T	Ich Auto Range
ICHOFFSETENABLE	TOGGLE	F	Ich Offset Enable
ICHOFFSET	QUANT	0	Ich Offset (V)
ICHFILTER	IQUANT	1	Ich Filter
VCHRANGE	IQUANT	2	Vch Range
VCHRANGEMODE	TOGGLE	T	Vch Auto Range
VCHOFFSETENABLE	TOGGLE	F	Vch Offset Enable
VCHOFFSET	QUANT	0	Vch Offset (V)
VCHFILTER	IQUANT	1	Vch Filter
IERANGELOWERLIMIT	IQUANT	9	I/E Range Lower Limit
IERANGEMODE	TOGGLE	F	I/E AutoRange
IERANGE	IQUANT	9	I/E Range
ACHSELECT	IQUANT	1	Ach Select
ACHRANGE	IQUANT	2	Ach Range
ACHOFFSETENABLE	TOGGLE	F	Ach Offset Enable
ACHOFFSET	QUANT	0	Ach Offset (V)
ACHFILTER	IQUANT	1	Ach Filter
CABLEID	IQUANT	14	Cable ID
DCCALDATE	LABEL	5-7-2017	DC Calibration Date
ACCALDATE	LABEL	12/3/2015	AC Calibration Date
FRAMEWORKVERSION	QUANT	7.01	Framework Version
INSTRUMENTVERSION	LABEL	4.00	Instrument Version
CURVE	TABLE	157
	Pt	T	Vf	Im	Vu	Pwr	Sig	Ach	Temp	IERange	Over
	#	s	V	A	V	W	V	V	deg C	#	bits
	0	0.013333	8.20601E-001	-8.84977E-005	0.00000E+000	-7.26213E-005	-5.39641E-002	8.20741E-001	3.57270E+000	9	...........
	1	0.026667	8.07769E-001	-8.85405E-005	0.00000E+000	-7.15202E-005	-5.39641E-002	8.07915E-001	3.57270E+000	9	...........
	2	0.04	7.95772E-001	-8.85300E-005	0.00000E+000	-7.04497E-005	-5.39641E-002	7.95856E-001	3.57270E+000	9	...........
	3	0.053333	7.84358E-001	-8.86592E-005	0.00000E+000	-6.95405E-005	-5.39641E-002	7.84439E-001	3.57270E+000	9	...........
	4	0.066667	7.73472E-001	-8.87176E-005	0.00000E+000	-6.86206E-005	-5.39641E-002	7.73557E-001	3.57270E+000	9	...........
	5	0.08	7.63016E-001	-8.86926E-005	0.00000E+000	-6.76738E-005	-5.39641E-002	7.63105E-001	3.57270E+000	9	...........
	6	0.093333	7.52965E-001	-8.88634E-005	0.00000E+000	-6.69110E-005	-5.39641E-002	7.53067E-001	3.57270E+000	9	...........
	7	0.106667	7.43240E-001	-8.87384E-005	0.00000E+000	-6.59539E-005	-5.39641E-002	7.43368E-001	3.57270E+000	9	...........
	8	0.12	7.33839E-001	-8.86613E-005	0.00000E+000	-6.50631E-005	-5.39641E-002	7.33965E-001	3.57270E+000	9	...........
	9	0.133333	7.24758E-001	-8.87426E-005	0.00000E+000	-6.43169E-005	-5.39641E-002	7.24860E-001	3.57270E+000	9	...........
	10	0.146667	7.15875E-001	-8.88645E-005	0.00000E+000	-6.36158E-005	-5.39641E-002	7.15983E-001	3.57270E+000	9	...........
	11	0.16	7.07233E-001	-8.85050E-005	0.00000E+000	-6.25937E-005	-5.39641E-002	7.07355E-001	3.57270E+000	9	...........
	12	0.173333	6.98872E-001	-8.87405E-005	0.00000E+000	-6.20183E-005	-5.39641E-002	6.98967E-001	3.57270E+000	9	...........
	13	0.186667	6.90683E-001	-8.86196E-005	0.00000E+000	-6.12081E-005	-5.39641E-002	6.90784E-001	3.57270E+000	9	...........
	14	0.2	6.82666E-001	-8.88655E-005	0.00000E+000	-6.06655E-005	-5.39641E-002	6.82753E-001	3.57270E+000	9	...........
	15	0.213333	6.74838E-001	-8.87540E-005	0.00000E+000	-5.98946E-005	-5.39641E-002	6.74930E-001	3.57270E+000	9	...........
	16	0.226667	6.67162E-001	-8.87009E-005	0.00000E+000	-5.91779E-005	-5.39641E-002	6.67262E-001	3.57270E+000	9	...........
	17	0.24	6.59601E-001	-8.87603E-005	0.00000E+000	-5.85464E-005	-5.39641E-002	6.59725E-001	3.57270E+000	9	...........
	18	0.253333	6.52237E-001	-8.87551E-005	0.00000E+000	-5.78894E-005	-5.39641E-002	6.52357E-001	3.57270E+000	9	...........
	19	0.266667	6.44996E-001	-8.87290E-005	0.00000E+000	-5.72299E-005	-5.39641E-002	6.45103E-001	3.57270E+000	9	...........
	20	0.28	6.37857E-001	-8.86426E-005	0.00000E+000	-5.65413E-005	-5.39641E-002	6.37941E-001	3.57270E+000	9	...........
	21	0.293333	6.30848E-001	-8.87718E-005	0.00000E+000	-5.60015E-005	-5.39641E-002	6.30949E-001	3.57270E+000	9	...........
	22	0.306667	6.23958E-001	-8.87374E-005	0.00000E+000	-5.53684E-005	-5.39641E-002	6.24052E-001	3.57270E+000	9	...........
	23	0.32	6.17195E-001	-8.86519E-005	0.00000E+000	-5.47155E-005	-5.39641E-002	6.17279E-001	3.57270E+000	9	...........
	24	0.333333	6.10443E-001	-8.85998E-005	0.00000E+000	-5.40852E-005	-5.39641E-002	6.10581E-001	3.57270E+000	9	...........
	25	0.346667	6.03852E-001	-8.87040E-005	0.00000E+000	-5.35641E-005	-5.39641E-002	6.04025E-001	3.57270E+000	9	...........
	26	0.36	5.97401E-001	-8.85519E-005	0.00000E+000	-5.29010E-005	-5.39641E-002	5.97523E-001	3.57270E+000	9	...........
	27	0.373333	5.91014E-001	-8.85967E-005	0.00000E+000	-5.23619E-005	-5.39641E-002	5.91136E-001	3.57270E+000	9	...........
	28	0.386667	5.84662E-001	-8.87290E-005	0.00000E+000	-5.18765E-005	-5.39641E-002	5.84780E-001	3.57270E+000	9	...........
	29	0.4	5.78415E-001	-8.89155E-005	0.00000E+000	-5.14301E-005	-5.39641E-002	5.78518E-001	3.57270E+000	9	...........
	30	0.413333	5.72227E-001	-8.86717E-005	0.00000E+000	-5.07403E-005	-5.39641E-002	5.72312E-001	3.57270E+000	9	...........
	31	0.426667	5.66114E-001	-8.89051E-005	0.00000E+000	-5.03305E-005	-5.39641E-002	5.66208E-001	3.57270E+000	9	...........
	32	0.44	5.60022E-001	-8.85061E-005	0.00000E+000	-4.95654E-005	-5.39641E-002	5.60120E-001	3.57270E+000	9	...........
	33	0.453333	5.54041E-001	-8.87144E-005	0.00000E+000	-4.91515E-005	-5.39641E-002	5.54125E-001	3.57270E+000	9	...........
	34	0.466667	5.48125E-001	-8.87322E-005	0.00000E+000	-4.86363E-005	-5.39641E-002	5.48189E-001	3.57270E+000	9	...........
	35	0.48	5.42233E-001	-8.87655E-005	0.00000E+000	-4.81316E-005	-5.39641E-002	5.42329E-001	3.57270E+000	9	...........
	36	0.493333	5.36398E-001	-8.86228E-005	0.00000E+000	-4.75371E-005	-5.39641E-002	5.36491E-001	3.57270E+000	9	...........
	37	0.506667	5.30614E-001	-8.88926E-005	0.00000E+000	-4.71676E-005	-5.39641E-002	5.30709E-001	3.57270E+000	9	...........
	38	0.52	5.24884E-001	-8.85509E-005	0.00000E+000	-4.64789E-005	-5.39641E-002	5.24966E-001	3.57270E+000	9	...........
	39	0.533333	5.19201E-001	-8.84915E-005	0.00000E+000	-4.59448E-005	-5.39641E-002	5.19267E-001	3.57270E+000	9	...........
	40	0.546667	5.13557E-001	-8.86947E-005	0.00000E+000	-4.55498E-005	-5.39641E-002	5.13638E-001	3.57270E+000	9	...........
	41	0.56	5.07884E-001	-8.85696E-005	0.00000E+000	-4.49831E-005	-5.39641E-002	5.07989E-001	3.57270E+000	9	...........
	42	0.573333	5.02316E-001	-8.87665E-005	0.00000E+000	-4.45888E-005	-5.39641E-002	5.02413E-001	3.57270E+000	9	...........
	43	0.586667	4.96773E-001	-8.87603E-005	0.00000E+000	-4.40937E-005	-5.39641E-002	4.96860E-001	3.57270E+000	9	...........
	44	0.6	4.91264E-001	-8.88228E-005	0.00000E+000	-4.36355E-005	-5.39641E-002	4.91336E-001	3.57270E+000	9	...........
	45	0.613333	4.85805E-001	-8.87072E-005	0.00000E+000	-4.30944E-005	-5.39641E-002	4.85873E-001	3.57270E+000	9	...........
	46	0.626667	4.80395E-001	-8.86769E-005	0.00000E+000	-4.25999E-005	-5.39641E-002	4.80455E-001	3.57270E+000	9	...........
	47	0.64	4.74970E-001	-8.87832E-005	0.00000E+000	-4.21693E-005	-5.39641E-002	4.75029E-001	3.57270E+000	9	...........
	48	0.653333	4.69577E-001	-8.85457E-005	0.00000E+000	-4.15790E-005	-5.39641E-002	4.69637E-001	3.57270E+000	9	...........
	49	0.666667	4.64191E-001	-8.88280E-005	0.00000E+000	-4.12332E-005	-5.39641E-002	4.64252E-001	3.57270E+000	9	...........
	50	0.68	4.58853E-001	-8.85029E-005	0.00000E+000	-4.06099E-005	-5.39641E-002	4.58913E-001	3.57270E+000	9	...........
	51	0.693333	4.53545E-001	-8.89530E-005	0.00000E+000	-4.03443E-005	-5.39641E-002	4.53603E-001	3.57270E+000	9	...........
	52	0.706667	4.48253E-001	-8.87947E-005	0.00000E+000	-3.98025E-005	-5.39641E-002	4.48307E-001	3.57270E+000	9	...........
	53	0.72	4.42975E-001	-8.87228E-005	0.00000E+000	-3.93020E-005	-5.39641E-002	4.43036E-001	3.57270E+000	9	...........
	54	0.733333	4.37736E-001	-8.86947E-005	0.00000E+000	-3.88248E-005	-5.39641E-002	4.37794E-001	3.57270E+000	9	...........
	55	0.746667	4.32506E-001	-8.87655E-005	0.00000E+000	-3.83916E-005	-5.39641E-002	4.32562E-001	3.57270E+000	9	...........
	56	0.76	4.27292E-001	-8.87394E-005	0.00000E+000	-3.79177E-005	-5.39641E-002	4.27354E-001	3.57270E+000	9	...........
	57	0.773333	4.22108E-001	-8.88728E-005	0.00000E+000	-3.75139E-005	-5.39641E-002	4.22163E-001	3.57270E+000	9	...........
	58	0.786667	4.16956E-001	-8.89239E-005	0.00000E+000	-3.70774E-005	-5.39641E-002	4.17007E-001	3.57270E+000	9	...........
	59	0.8	4.11820E-001	-8.84988E-005	0.00000E+000	-3.64456E-005	-5.39641E-002	4.11870E-001	3.57270E+000	9	...........
	60	0.813333	4.06702E-001	-8.90197E-005	0.00000E+000	-3.62045E-005	-5.39641E-002	4.06744E-001	3.57270E+000	9	...........
	61	0.826667	4.01604E-001	-8.85780E-005	0.00000E+000	-3.55733E-005	-5.39641E-002	4.01654E-001	3.57270E+000	9	...........
	62	0.84	3.96508E-001	-8.87082E-005	0.00000E+000	-3.51735E-005	-5.39641E-002	3.96555E-001	3.57270E+000	9	...........
	63	0.853333	3.91427E-001	-8.88978E-005	0.00000E+000	-3.47970E-005	-5.39641E-002	3.91471E-001	3.57270E+000	9	...........
	64	0.866667	3.86363E-001	-8.86394E-005	0.00000E+000	-3.42470E-005	-5.39641E-002	3.86402E-001	3.57326E+000	9	...........
	65	0.88	3.81315E-001	-8.87374E-005	0.00000E+000	-3.38369E-005	-5.39641E-002	3.81356E-001	3.57360E+000	9	...........
	66	0.893333	3.76269E-001	-8.86426E-005	0.00000E+000	-3.33534E-005	-5.39641E-002	3.76314E-001	3.57360E+000	9	...........
	67	0.906667	3.71272E-001	-8.89082E-005	0.00000E+000	-3.30091E-005	-5.39641E-002	3.71306E-001	3.57360E+000	9	...........
	68	0.92	3.66267E-001	-8.89155E-005	0.00000E+000	-3.25668E-005	-5.39641E-002	3.66304E-001	3.57360E+000	9	...........
	69	0.933333	3.61287E-001	-8.87759E-005	0.00000E+000	-3.20736E-005	-5.39641E-002	3.61320E-001	3.57360E+000	9	...........
	70	0.946667	3.56331E-001	-8.87134E-005	0.00000E+000	-3.16113E-005	-5.39641E-002	3.56368E-001	3.57360E+000	9	...........
	71	0.96	3.51393E-001	-8.85394E-005	0.00000E+000	-3.11121E-005	-5.39641E-002	3.51423E-001	3.57360E+000	9	...........
	72	0.97333	3.46461E-001	-8.84769E-005	0.00000E+000	-3.06538E-005	-5.39641E-002	3.46492E-001	3.57360E+000	9	...........
	73	0.98667	3.41547E-001	-8.87405E-005	0.00000E+000	-3.03090E-005	-5.39641E-002	3.41578E-001	3.57360E+000	9	...........
	74	1	3.36645E-001	-8.89301E-005	0.00000E+000	-2.99379E-005	-5.39641E-002	3.36678E-001	3.57360E+000	9	...........
	75	1.01333	3.31756E-001	-8.85196E-005	0.00000E+000	-2.93669E-005	-5.39641E-002	3.31790E-001	3.57360E+000	9	...........
	76	1.02667	3.26902E-001	-8.87092E-005	0.00000E+000	-2.89992E-005	-5.39641E-002	3.26940E-001	3.57360E+000	9	...........
	77	1.04	3.22065E-001	-8.86884E-005	0.00000E+000	-2.85635E-005	-5.39641E-002	3.22102E-001	3.57360E+000	9	...........
	78	1.05333	3.17241E-001	-8.87197E-005	0.00000E+000	-2.81456E-005	-5.39641E-002	3.17273E-001	3.57360E+000	9	...........
	79	1.06667	3.12436E-001	-8.85582E-005	0.00000E+000	-2.76688E-005	-5.39641E-002	3.12474E-001	3.57360E+000	9	...........
	80	1.08	3.07640E-001	-8.86030E-005	0.00000E+000	-2.72579E-005	-5.39641E-002	3.07677E-001	3.57360E+000	9	...........
	81	1.09333	3.02876E-001	-8.85373E-005	0.00000E+000	-2.68158E-005	-5.39641E-002	3.02910E-001	3.57360E+000	9	...........
	82	1.10667	2.98133E-001	-8.86686E-005	0.00000E+000	-2.64350E-005	-5.39641E-002	2.98166E-001	3.57360E+000	9	...........
	83	1.12	2.93416E-001	-8.90228E-005	0.00000E+000	-2.61207E-005	-5.39641E-002	2.93449E-001	3.57360E+000	9	...........
	84	1.13333	2.88742E-001	-8.87405E-005	0.00000E+000	-2.56231E-005	-5.39641E-002	2.88773E-001	3.57360E+000	9	...........
	85	1.14667	2.84052E-001	-8.86696E-005	0.00000E+000	-2.51868E-005	-5.39641E-002	2.84087E-001	3.57360E+000	9	...........
	86	1.16	2.79378E-001	-8.88082E-005	0.00000E+000	-2.48111E-005	-5.39641E-002	2.79410E-001	3.57360E+000	9	...........
	87	1.17333	2.74739E-001	-8.87926E-005	0.00000E+000	-2.43948E-005	-5.39641E-002	2.74771E-001	3.57360E+000	9	...........
	88	1.18667	2.70129E-001	-8.85686E-005	0.00000E+000	-2.39250E-005	-5.39641E-002	2.70165E-001	3.57360E+000	9	...........
	89	1.2	2.65528E-001	-8.88082E-005	0.00000E+000	-2.35811E-005	-5.39641E-002	2.65561E-001	3.57360E+000	9	...........
	90	1.21333	2.60932E-001	-8.88280E-005	0.00000E+000	-2.31781E-005	-5.39641E-002	2.60966E-001	3.57360E+000	9	...........
	91	1.22667	2.56360E-001	-8.89103E-005	0.00000E+000	-2.27931E-005	-5.39641E-002	2.56395E-001	3.57360E+000	9	...........
	92	1.24	2.51813E-001	-8.87103E-005	0.00000E+000	-2.23384E-005	-5.39641E-002	2.51852E-001	3.57360E+000	9	...........
	93	1.25333	2.47303E-001	-8.85082E-005	0.00000E+000	-2.18883E-005	-5.39641E-002	2.47334E-001	3.57360E+000	9	...........
	94	1.26667	2.42816E-001	-8.87947E-005	0.00000E+000	-2.15608E-005	-5.39641E-002	2.42838E-001	3.57360E+000	9	...........
	95	1.28	2.38341E-001	-8.85082E-005	0.00000E+000	-2.10952E-005	-5.39641E-002	2.38364E-001	3.57360E+000	9	...........
	96	1.29333	2.33875E-001	-8.89301E-005	0.00000E+000	-2.07985E-005	-5.39641E-002	2.33901E-001	3.57360E+000	9	...........
	97	1.30667	2.29435E-001	-8.83029E-005	0.00000E+000	-2.02598E-005	-5.39641E-002	2.29455E-001	3.57360E+000	9	...........
	98	1.32	2.25015E-001	-8.89614E-005	0.00000E+000	-2.00177E-005	-5.39641E-002	2.25033E-001	3.57360E+000	9	...........
	99	1.33333	2.20634E-001	-8.87988E-005	0.00000E+000	-1.95920E-005	-5.39641E-002	2.20647E-001	3.57360E+000	9	...........
	100	1.34667	2.16261E-001	-8.86155E-005	0.00000E+000	-1.91641E-005	-5.39641E-002	2.16280E-001	3.57360E+000	9	...........
	101	1.36	2.11920E-001	-8.87301E-005	0.00000E+000	-1.88037E-005	-5.39641E-002	2.11936E-001	3.57360E+000	9	...........
	102	1.37333	2.07591E-001	-8.87613E-005	0.00000E+000	-1.84260E-005	-5.39641E-002	2.07611E-001	3.57360E+000	9	...........
	103	1.38667	2.03288E-001	-8.86530E-005	0.00000E+000	-1.80221E-005	-5.39641E-002	2.03310E-001	3.57360E+000	9	...........
	104	1.4	1.99025E-001	-8.85592E-005	0.00000E+000	-1.76255E-005	-5.39641E-002	1.99049E-001	3.57360E+000	9	...........
	105	1.41333	1.94769E-001	-8.87697E-005	0.00000E+000	-1.72896E-005	-5.39641E-002	1.94793E-001	3.57360E+000	9	...........
	106	1.42667	1.90526E-001	-8.87155E-005	0.00000E+000	-1.69026E-005	-5.39641E-002	1.90549E-001	3.57360E+000	9	...........
	107	1.44	1.86305E-001	-8.88405E-005	0.00000E+000	-1.65515E-005	-5.39641E-002	1.86323E-001	3.57360E+000	9	...........
	108	1.45333	1.82084E-001	-8.86571E-005	0.00000E+000	-1.61431E-005	-5.39641E-002	1.82105E-001	3.57360E+000	9	...........
	109	1.46667	1.77890E-001	-8.86123E-005	0.00000E+000	-1.57632E-005	-5.39641E-002	1.77911E-001	3.57360E+000	9	...........
	110	1.48	1.73703E-001	-8.86582E-005	0.00000E+000	-1.54002E-005	-5.39641E-002	1.73726E-001	3.57360E+000	9	...........
	111	1.49333	1.69560E-001	-8.88405E-005	0.00000E+000	-1.50638E-005	-5.39641E-002	1.69575E-001	3.57360E+000	9	...........
	112	1.50667	1.65428E-001	-8.88718E-005	0.00000E+000	-1.47018E-005	-5.39641E-002	1.65443E-001	3.57360E+000	9	...........
	113	1.52	1.61308E-001	-8.88030E-005	0.00000E+000	-1.43247E-005	-5.39641E-002	1.61324E-001	3.57360E+000	9	...........
	114	1.53333	1.57201E-001	-8.87572E-005	0.00000E+000	-1.39528E-005	-5.39641E-002	1.57215E-001	3.57360E+000	9	...........
	115	1.54667	1.53123E-001	-8.87384E-005	0.00000E+000	-1.35879E-005	-5.39641E-002	1.53136E-001	3.57360E+000	9	...........
	116	1.56	1.49061E-001	-8.89322E-005	0.00000E+000	-1.32563E-005	-5.39641E-002	1.49077E-001	3.57360E+000	9	...........
	117	1.57333	1.45025E-001	-8.85707E-005	0.00000E+000	-1.28450E-005	-5.39641E-002	1.45041E-001	3.57360E+000	9	...........
	118	1.58667	1.41004E-001	-8.86853E-005	0.00000E+000	-1.25050E-005	-5.39641E-002	1.41020E-001	3.57360E+000	9	...........
	119	1.6	1.36994E-001	-8.84425E-005	0.00000E+000	-1.21161E-005	-5.39641E-002	1.37008E-001	3.57360E+000	9	...........
	120	1.61333	1.32993E-001	-8.86967E-005	0.00000E+000	-1.17960E-005	-5.39641E-002	1.33009E-001	3.57360E+000	9	...........
	121	1.62667	1.29018E-001	-8.85727E-005	0.00000E+000	-1.14275E-005	-5.39641E-002	1.29034E-001	3.57360E+000	9	...........
	122	1.64	1.25073E-001	-8.88322E-005	0.00000E+000	-1.11105E-005	-5.39641E-002	1.25081E-001	3.57360E+000	9	...........
	123	1.65333	1.21125E-001	-8.87322E-005	0.00000E+000	-1.07477E-005	-5.39641E-002	1.21142E-001	3.57360E+000	9	...........
	124	1.66667	1.17199E-001	-8.87061E-005	0.00000E+000	-1.03963E-005	-5.39641E-002	1.17211E-001	3.57360E+000	9	...........
	125	1.68	1.13286E-001	-8.86676E-005	0.00000E+000	-1.00448E-005	-5.39641E-002	1.13301E-001	3.57360E+000	9	...........
	126	1.69333	1.09398E-001	-8.88728E-005	0.00000E+000	-9.72247E-006	-5.39641E-002	1.09412E-001	3.57360E+000	9	...........
	127	1.70667	1.05505E-001	-8.89114E-005	0.00000E+000	-9.38055E-006	-5.39641E-002	1.05512E-001	3.57360E+000	9	...........
	128	1.72	1.01625E-001	-8.87999E-005	0.00000E+000	-9.02428E-006	-5.39641E-002	1.01634E-001	3.57360E+000	9	...........
	129	1.73333	9.77625E-002	-8.88718E-005	0.00000E+000	-8.68832E-006	-5.39641E-002	9.77721E-002	3.57360E+000	9	...........
	130	1.74667	9.39187E-002	-8.85842E-005	0.00000E+000	-8.31972E-006	-5.39641E-002	9.39287E-002	3.57360E+000	9	...........
	131	1.76	9.00990E-002	-8.86311E-005	0.00000E+000	-7.98558E-006	-5.39641E-002	9.01065E-002	3.57360E+000	9	...........
	132	1.77333	8.63040E-002	-8.88040E-005	0.00000E+000	-7.66414E-006	-5.39641E-002	8.63145E-002	3.57360E+000	9	...........
	133	1.78667	8.25246E-002	-8.86561E-005	0.00000E+000	-7.31631E-006	-5.39641E-002	8.25260E-002	3.57360E+000	9	...........
	134	1.8	7.87595E-002	-8.87342E-005	0.00000E+000	-6.98867E-006	-5.39641E-002	7.87580E-002	3.57360E+000	9	...........
	135	1.81333	7.49919E-002	-8.85321E-005	0.00000E+000	-6.63919E-006	-5.39641E-002	7.49926E-002	3.57360E+000	9	...........
	136	1.82667	7.12415E-002	-8.86926E-005	0.00000E+000	-6.31859E-006	-5.39641E-002	7.12385E-002	3.57360E+000	9	...........
	137	1.84	6.75231E-002	-8.88541E-005	0.00000E+000	-5.99970E-006	-5.39641E-002	6.75221E-002	3.57360E+000	9	...........
	138	1.85333	6.38167E-002	-8.85738E-005	0.00000E+000	-5.65249E-006	-5.39641E-002	6.38219E-002	3.57360E+000	9	...........
	139	1.86667	6.01273E-002	-8.85853E-005	0.00000E+000	-5.32640E-006	-5.39641E-002	6.01317E-002	3.57297E+000	9	...........
	140	1.88	5.64731E-002	-8.86790E-005	0.00000E+000	-5.00798E-006	-5.39641E-002	5.64693E-002	3.57260E+000	9	...........
	141	1.89333	5.28193E-002	-8.85946E-005	0.00000E+000	-4.67951E-006	-5.39641E-002	5.28224E-002	3.57260E+000	9	...........
	142	1.90667	4.91762E-002	-8.86592E-005	0.00000E+000	-4.35993E-006	-5.39641E-002	4.91793E-002	3.57260E+000	9	...........
	143	1.92	4.55631E-002	-8.87072E-005	0.00000E+000	-4.04177E-006	-5.39641E-002	4.55724E-002	3.57260E+000	9	...........
	144	1.93333	4.19625E-002	-8.86394E-005	0.00000E+000	-3.71954E-006	-5.39641E-002	4.19734E-002	3.57260E+000	9	...........
	145	1.94667	3.83666E-002	-8.86196E-005	0.00000E+000	-3.40003E-006	-5.39641E-002	3.83681E-002	3.57260E+000	9	...........
	146	1.96	3.47786E-002	-8.86394E-005	0.00000E+000	-3.08275E-006	-5.39641E-002	3.47787E-002	3.57260E+000	9	...........
	147	1.97333	3.12081E-002	-8.88301E-005	0.00000E+000	-2.77222E-006	-5.39641E-002	3.12135E-002	3.57260E+000	9	...........
	148	1.98667	2.76507E-002	-8.86248E-005	0.00000E+000	-2.45054E-006	-5.39641E-002	2.76501E-002	3.57260E+000	9	...........
	149	2	2.41011E-002	-8.86780E-005	0.00000E+000	-2.13724E-006	-5.39641E-002	2.41026E-002	3.57260E+000	9	...........
	150	2.01333	2.05911E-002	-8.88999E-005	0.00000E+000	-1.83054E-006	-5.39641E-002	2.05873E-002	3.57260E+000	9	...........
	151	2.02667	1.70835E-002	-8.86540E-005	0.00000E+000	-1.51452E-006	-5.39641E-002	1.70747E-002	3.57260E+000	9	...........
	152	2.04	1.35839E-002	-8.87467E-005	0.00000E+000	-1.20552E-006	-5.39641E-002	1.35783E-002	3.57260E+000	9	...........
	153	2.05333	1.01169E-002	-8.87822E-005	0.00000E+000	-8.98201E-007	-5.39641E-002	1.01032E-002	3.57260E+000	9	...........
	154	2.06667	6.67030E-003	-8.90656E-005	0.00000E+000	-5.94094E-007	-5.39641E-002	6.66039E-003	3.57260E+000	9	...........
	155	2.08	3.23280E-003	-8.87478E-005	0.00000E+000	-2.86904E-007	-5.39641E-002	3.22458E-003	3.57260E+000	9	...........
	156	2.08833	4.56389E-004	-8.88316E-005	0.00000E+000	-4.05417E-008	-5.39641E-002	4.38406E-004	3.57260E+000	9	...........
STARTTIMEOFFSET	QUANT	1259.094	Start Time Offset (s)
