EXPLAIN
TAG	PWR800_DISCHARGE
TITLE	LABEL	PWR Cyclic Charge Discharge (Cell) - Discharge Step	Test &Identifier
DATE	LABEL	10-7-2017	Date
TIME	LABEL	16:15:00	Time
NOTES	NOTES	3	&Notes...
	supercap test cell
	0.9mg
	6M KOH
PSTAT	PSTAT	IFC5000-01520	Potentiostat
CAPACITY	QUANT	1.00000E-003	Capacity (A-hr)
CELLTYPE	SELECTOR	1	&Cell Type
WORKINGCONNECTION	SELECTOR	0	&Working Lead
MAXDISCHARGETIME	VARIABLEANDUNITS	1.00000E+002	s	1.00000E+002	second(s)	Max &Discharge Time
DISCHARGEMODE	MULTIPARAM	0	9.00000E-005	&Discharge Mode	Constant Current	Amp(s)
SAMPLETIME	QUANT	1.00000E-002	Sa&mple Period (s)
DISCHARGESTOPAT1	MULTIPARAM	3	0.00000E+000	Discharge Stop At &1	Voltage < Limit	V
DISCHARGESTOPAT2	MULTIPARAM	0	0.00000E+000	Discharge Stop At &2	None	N/A
AESBHCSELECTOR	TOGGLE	F	Save Both Half Cells
IRCOMP	TOGGLE	F	IR &Measure
EOC	QUANT	0	Open Circuit (V)
SEQUENCER	TOGGLE	TRUE	Run as Sequence
PSTATMODEL	IQUANT	53	Pstat Model
PSTATSECTION	LABEL	IFC5000-01520	Pstat Section
PSTATSERIALNO	LABEL	01520	Pstat Serial Number
CTRLMODE	IQUANT	0	Control Mode
ELECTROMETER	IQUANT	1	RE=0 or CS=1
IESTAB	IQUANT	0	I/E Stability
CASPEED	IQUANT	4	Control Amp Speed
CONVENTION	IQUANT	1	Current Convention
ICHRANGE	IQUANT	2	Ich Range
ICHRANGEMODE	TOGGLE	T	Ich Auto Range
ICHOFFSETENABLE	TOGGLE	F	Ich Offset Enable
ICHOFFSET	QUANT	0	Ich Offset (V)
ICHFILTER	IQUANT	1	Ich Filter
VCHRANGE	IQUANT	2	Vch Range
VCHRANGEMODE	TOGGLE	T	Vch Auto Range
VCHOFFSETENABLE	TOGGLE	F	Vch Offset Enable
VCHOFFSET	QUANT	0	Vch Offset (V)
VCHFILTER	IQUANT	1	Vch Filter
IERANGELOWERLIMIT	IQUANT	9	I/E Range Lower Limit
IERANGEMODE	TOGGLE	F	I/E AutoRange
IERANGE	IQUANT	9	I/E Range
ACHSELECT	IQUANT	1	Ach Select
ACHRANGE	IQUANT	2	Ach Range
ACHOFFSETENABLE	TOGGLE	F	Ach Offset Enable
ACHOFFSET	QUANT	0	Ach Offset (V)
ACHFILTER	IQUANT	1	Ach Filter
CABLEID	IQUANT	14	Cable ID
DCCALDATE	LABEL	5-7-2017	DC Calibration Date
ACCALDATE	LABEL	12/3/2015	AC Calibration Date
FRAMEWORKVERSION	QUANT	7.01	Framework Version
INSTRUMENTVERSION	LABEL	4.00	Instrument Version
CURVE	TABLE	147
	Pt	T	Vf	Im	Vu	Pwr	Sig	Ach	Temp	IERange	Over
	#	s	V	A	V	W	V	V	deg C	#	bits
	0	0.013333	8.00539E-001	-8.90041E-005	0.00000E+000	-7.12512E-005	-5.39641E-002	8.00666E-001	3.57280E+000	9	...........
	1	0.026667	7.86247E-001	-8.86957E-005	0.00000E+000	-6.97367E-005	-5.39641E-002	7.86399E-001	3.57280E+000	9	...........
	2	0.04	7.72943E-001	-8.89853E-005	0.00000E+000	-6.87806E-005	-5.39641E-002	7.73082E-001	3.57280E+000	9	...........
	3	0.053333	7.60409E-001	-8.87884E-005	0.00000E+000	-6.75155E-005	-5.39641E-002	7.60530E-001	3.57280E+000	9	...........
	4	0.066667	7.48537E-001	-8.87009E-005	0.00000E+000	-6.63959E-005	-5.39641E-002	7.48680E-001	3.57280E+000	9	...........
	5	0.08	7.37194E-001	-8.87280E-005	0.00000E+000	-6.54097E-005	-5.39641E-002	7.37344E-001	3.57280E+000	9	...........
	6	0.093333	7.26359E-001	-8.86707E-005	0.00000E+000	-6.44067E-005	-5.39641E-002	7.26474E-001	3.57280E+000	9	...........
	7	0.106667	7.15897E-001	-8.88343E-005	0.00000E+000	-6.35962E-005	-5.39641E-002	7.16033E-001	3.57280E+000	9	...........
	8	0.12	7.05825E-001	-8.86769E-005	0.00000E+000	-6.25904E-005	-5.39641E-002	7.05968E-001	3.57280E+000	9	...........
	9	0.133333	6.96091E-001	-8.88061E-005	0.00000E+000	-6.18172E-005	-5.39641E-002	6.96237E-001	3.57280E+000	9	...........
	10	0.146667	6.86655E-001	-8.88186E-005	0.00000E+000	-6.09878E-005	-5.39641E-002	6.86784E-001	3.57280E+000	9	...........
	11	0.16	6.77508E-001	-8.86134E-005	0.00000E+000	-6.00363E-005	-5.39641E-002	6.77653E-001	3.57280E+000	9	...........
	12	0.173333	6.68629E-001	-8.87374E-005	0.00000E+000	-5.93323E-005	-5.39641E-002	6.68763E-001	3.57280E+000	9	...........
	13	0.186667	6.59958E-001	-8.88572E-005	0.00000E+000	-5.86420E-005	-5.39641E-002	6.60088E-001	3.57280E+000	9	...........
	14	0.2	6.51535E-001	-8.88436E-005	0.00000E+000	-5.78847E-005	-5.39641E-002	6.51657E-001	3.57280E+000	9	...........
	15	0.213333	6.43294E-001	-8.88561E-005	0.00000E+000	-5.71606E-005	-5.39641E-002	6.43428E-001	3.57280E+000	9	...........
	16	0.226667	6.35237E-001	-8.87436E-005	0.00000E+000	-5.63733E-005	-5.39641E-002	6.35366E-001	3.57280E+000	9	...........
	17	0.24	6.27421E-001	-8.88874E-005	0.00000E+000	-5.57698E-005	-5.39641E-002	6.27541E-001	3.57280E+000	9	...........
	18	0.253333	6.19768E-001	-8.88718E-005	0.00000E+000	-5.50799E-005	-5.39641E-002	6.19844E-001	3.57280E+000	9	...........
	19	0.266667	6.12195E-001	-8.86863E-005	0.00000E+000	-5.42933E-005	-5.39641E-002	6.12323E-001	3.57280E+000	9	...........
	20	0.28	6.04799E-001	-8.86269E-005	0.00000E+000	-5.36014E-005	-5.39641E-002	6.04926E-001	3.57280E+000	9	...........
	21	0.293333	5.97587E-001	-8.86926E-005	0.00000E+000	-5.30016E-005	-5.39641E-002	5.97721E-001	3.57280E+000	9	...........
	22	0.306667	5.90490E-001	-8.88968E-005	0.00000E+000	-5.24926E-005	-5.39641E-002	5.90631E-001	3.57280E+000	9	...........
	23	0.32	5.83511E-001	-8.88009E-005	0.00000E+000	-5.18163E-005	-5.39641E-002	5.83617E-001	3.57280E+000	9	...........
	24	0.333333	5.76652E-001	-8.88624E-005	0.00000E+000	-5.12427E-005	-5.39641E-002	5.76765E-001	3.57280E+000	9	...........
	25	0.346667	5.69906E-001	-8.86269E-005	0.00000E+000	-5.05090E-005	-5.39641E-002	5.70007E-001	3.57280E+000	9	...........
	26	0.36	5.63238E-001	-8.86144E-005	0.00000E+000	-4.99110E-005	-5.39641E-002	5.63331E-001	3.57280E+000	9	...........
	27	0.373333	5.56683E-001	-8.87634E-005	0.00000E+000	-4.94131E-005	-5.39641E-002	5.56785E-001	3.57280E+000	9	...........
	28	0.386667	5.50242E-001	-8.88218E-005	0.00000E+000	-4.88735E-005	-5.39641E-002	5.50334E-001	3.57280E+000	9	...........
	29	0.4	5.43909E-001	-8.86707E-005	0.00000E+000	-4.82288E-005	-5.39641E-002	5.44012E-001	3.57280E+000	9	...........
	30	0.413333	5.37656E-001	-8.88280E-005	0.00000E+000	-4.77589E-005	-5.39641E-002	5.37750E-001	3.57280E+000	9	...........
	31	0.426667	5.31474E-001	-8.87676E-005	0.00000E+000	-4.71777E-005	-5.39641E-002	5.31579E-001	3.57280E+000	9	...........
	32	0.44	5.25363E-001	-8.86749E-005	0.00000E+000	-4.65865E-005	-5.39641E-002	5.25476E-001	3.57280E+000	9	...........
	33	0.453333	5.19348E-001	-8.87988E-005	0.00000E+000	-4.61175E-005	-5.39641E-002	5.19446E-001	3.57280E+000	9	...........
	34	0.466667	5.13389E-001	-8.91635E-005	0.00000E+000	-4.57755E-005	-5.39641E-002	5.13489E-001	3.57280E+000	9	...........
	35	0.48	5.07404E-001	-8.89155E-005	0.00000E+000	-4.51161E-005	-5.39641E-002	5.07536E-001	3.57280E+000	9	...........
	36	0.493333	5.01559E-001	-8.87467E-005	0.00000E+000	-4.45118E-005	-5.39641E-002	5.01679E-001	3.57280E+000	9	...........
	37	0.506667	4.95773E-001	-8.85217E-005	0.00000E+000	-4.38867E-005	-5.39641E-002	4.95884E-001	3.57280E+000	9	...........
	38	0.52	4.90068E-001	-8.86415E-005	0.00000E+000	-4.34403E-005	-5.39641E-002	4.90129E-001	3.57280E+000	9	...........
	39	0.533333	4.84441E-001	-8.87988E-005	0.00000E+000	-4.30178E-005	-5.39641E-002	4.84501E-001	3.57280E+000	9	...........
	40	0.546667	4.78848E-001	-8.88051E-005	0.00000E+000	-4.25242E-005	-5.39641E-002	4.78916E-001	3.57280E+000	9	...........
	41	0.56	4.73264E-001	-8.87915E-005	0.00000E+000	-4.20219E-005	-5.39641E-002	4.73328E-001	3.57280E+000	9	...........
	42	0.573333	4.67721E-001	-8.88426E-005	0.00000E+000	-4.15536E-005	-5.39641E-002	4.67786E-001	3.57280E+000	9	...........
	43	0.586667	4.62228E-001	-8.88426E-005	0.00000E+000	-4.10655E-005	-5.39641E-002	4.62284E-001	3.57280E+000	9	...........
	44	0.6	4.56773E-001	-8.90353E-005	0.00000E+000	-4.06689E-005	-5.39641E-002	4.56836E-001	3.57280E+000	9	...........
	45	0.613333	4.51364E-001	-8.88676E-005	0.00000E+000	-4.01116E-005	-5.39641E-002	4.51426E-001	3.57280E+000	9	...........
	46	0.626667	4.45983E-001	-8.88311E-005	0.00000E+000	-3.96171E-005	-5.39641E-002	4.46045E-001	3.57280E+000	9	...........
	47	0.64	4.40645E-001	-8.87467E-005	0.00000E+000	-3.91058E-005	-5.39641E-002	4.40713E-001	3.57280E+000	9	...........
	48	0.653333	4.35344E-001	-8.89145E-005	0.00000E+000	-3.87084E-005	-5.39641E-002	4.35411E-001	3.57280E+000	9	...........
	49	0.666667	4.30077E-001	-8.88291E-005	0.00000E+000	-3.82034E-005	-5.39641E-002	4.30138E-001	3.57280E+000	9	...........
	50	0.68	4.24834E-001	-8.86342E-005	0.00000E+000	-3.76548E-005	-5.39641E-002	4.24893E-001	3.57280E+000	9	...........
	51	0.693333	4.19607E-001	-8.88572E-005	0.00000E+000	-3.72851E-005	-5.39641E-002	4.19667E-001	3.57280E+000	9	...........
	52	0.706667	4.14424E-001	-8.88853E-005	0.00000E+000	-3.68362E-005	-5.39641E-002	4.14479E-001	3.57280E+000	9	...........
	53	0.72	4.09252E-001	-8.88551E-005	0.00000E+000	-3.63641E-005	-5.39641E-002	4.09300E-001	3.57280E+000	9	...........
	54	0.733333	4.04094E-001	-8.87467E-005	0.00000E+000	-3.58620E-005	-5.39641E-002	4.04144E-001	3.57280E+000	9	...........
	55	0.746667	3.98956E-001	-8.86978E-005	0.00000E+000	-3.53865E-005	-5.39641E-002	3.98999E-001	3.57280E+000	9	...........
	56	0.76	3.93833E-001	-8.90603E-005	0.00000E+000	-3.50749E-005	-5.39641E-002	3.93878E-001	3.57280E+000	9	...........
	57	0.773333	3.88739E-001	-8.88478E-005	0.00000E+000	-3.45386E-005	-5.39641E-002	3.88789E-001	3.57280E+000	9	...........
	58	0.786667	3.83666E-001	-8.88041E-005	0.00000E+000	-3.40711E-005	-5.39641E-002	3.83715E-001	3.57280E+000	9	...........
	59	0.8	3.78614E-001	-8.85196E-005	0.00000E+000	-3.35148E-005	-5.39641E-002	3.78661E-001	3.57280E+000	9	...........
	60	0.813333	3.73587E-001	-8.86155E-005	0.00000E+000	-3.31056E-005	-5.39641E-002	3.73638E-001	3.57280E+000	9	...........
	61	0.826667	3.68574E-001	-8.86405E-005	0.00000E+000	-3.26705E-005	-5.39641E-002	3.68623E-001	3.57315E+000	9	...........
	62	0.84	3.63570E-001	-8.88353E-005	0.00000E+000	-3.22979E-005	-5.39641E-002	3.63626E-001	3.57420E+000	9	...........
	63	0.853333	3.58586E-001	-8.89249E-005	0.00000E+000	-3.18872E-005	-5.39641E-002	3.58629E-001	3.57420E+000	9	...........
	64	0.866667	3.53606E-001	-8.89926E-005	0.00000E+000	-3.14683E-005	-5.39641E-002	3.53653E-001	3.57420E+000	9	...........
	65	0.88	3.48649E-001	-8.90041E-005	0.00000E+000	-3.10312E-005	-5.39641E-002	3.48692E-001	3.57420E+000	9	...........
	66	0.893333	3.43695E-001	-8.88509E-005	0.00000E+000	-3.05376E-005	-5.39641E-002	3.43743E-001	3.57420E+000	9	...........
	67	0.906667	3.38746E-001	-8.87134E-005	0.00000E+000	-3.00513E-005	-5.39641E-002	3.38794E-001	3.57420E+000	9	...........
	68	0.92	3.33822E-001	-8.90197E-005	0.00000E+000	-2.97168E-005	-5.39641E-002	3.33867E-001	3.57420E+000	9	...........
	69	0.933333	3.28903E-001	-8.88749E-005	0.00000E+000	-2.92312E-005	-5.39641E-002	3.28944E-001	3.57420E+000	9	...........
	70	0.946667	3.23992E-001	-8.88103E-005	0.00000E+000	-2.87739E-005	-5.39641E-002	3.24033E-001	3.57420E+000	9	...........
	71	0.96	3.19110E-001	-8.85050E-005	0.00000E+000	-2.82428E-005	-5.39641E-002	3.19148E-001	3.57420E+000	9	...........
	72	0.97333	3.14265E-001	-8.87801E-005	0.00000E+000	-2.79005E-005	-5.39641E-002	3.14305E-001	3.57420E+000	9	...........
	73	0.98667	3.09437E-001	-8.88947E-005	0.00000E+000	-2.75073E-005	-5.39641E-002	3.09480E-001	3.57420E+000	9	...........
	74	1	3.04618E-001	-8.88478E-005	0.00000E+000	-2.70647E-005	-5.39641E-002	3.04663E-001	3.57420E+000	9	...........
	75	1.01333	2.99818E-001	-8.88207E-005	0.00000E+000	-2.66301E-005	-5.39641E-002	2.99857E-001	3.57420E+000	9	...........
	76	1.02667	2.95019E-001	-8.89062E-005	0.00000E+000	-2.62290E-005	-5.39641E-002	2.95061E-001	3.57420E+000	9	...........
	77	1.04	2.90236E-001	-8.87624E-005	0.00000E+000	-2.57620E-005	-5.39641E-002	2.90277E-001	3.57420E+000	9	...........
	78	1.05333	2.85437E-001	-8.87874E-005	0.00000E+000	-2.53432E-005	-5.39641E-002	2.85476E-001	3.57420E+000	9	...........
	79	1.06667	2.80654E-001	-8.87280E-005	0.00000E+000	-2.49019E-005	-5.39641E-002	2.80692E-001	3.57420E+000	9	...........
	80	1.08	2.75889E-001	-8.89822E-005	0.00000E+000	-2.45492E-005	-5.39641E-002	2.75928E-001	3.57420E+000	9	...........
	81	1.09333	2.71152E-001	-8.88968E-005	0.00000E+000	-2.41046E-005	-5.39641E-002	2.71186E-001	3.57420E+000	9	...........
	82	1.10667	2.66432E-001	-8.88166E-005	0.00000E+000	-2.36636E-005	-5.39641E-002	2.66465E-001	3.57420E+000	9	...........
	83	1.12	2.61701E-001	-8.85925E-005	0.00000E+000	-2.31847E-005	-5.39641E-002	2.61740E-001	3.57420E+000	9	...........
	84	1.13333	2.57005E-001	-8.87009E-005	0.00000E+000	-2.27965E-005	-5.39641E-002	2.57036E-001	3.57420E+000	9	...........
	85	1.14667	2.52329E-001	-8.87634E-005	0.00000E+000	-2.23976E-005	-5.39641E-002	2.52370E-001	3.57420E+000	9	...........
	86	1.16	2.47661E-001	-8.85998E-005	0.00000E+000	-2.19427E-005	-5.39641E-002	2.47694E-001	3.57420E+000	9	...........
	87	1.17333	2.42999E-001	-8.90166E-005	0.00000E+000	-2.16310E-005	-5.39641E-002	2.43029E-001	3.57420E+000	9	...........
	88	1.18667	2.38359E-001	-8.86780E-005	0.00000E+000	-2.11372E-005	-5.39641E-002	2.38384E-001	3.57420E+000	9	...........
	89	1.2	2.33739E-001	-8.86790E-005	0.00000E+000	-2.07278E-005	-5.39641E-002	2.33762E-001	3.57420E+000	9	...........
	90	1.21333	2.29129E-001	-8.89499E-005	0.00000E+000	-2.03810E-005	-5.39641E-002	2.29152E-001	3.57420E+000	9	...........
	91	1.22667	2.24526E-001	-8.89541E-005	0.00000E+000	-1.99725E-005	-5.39641E-002	2.24553E-001	3.57420E+000	9	...........
	92	1.24	2.19948E-001	-8.90249E-005	0.00000E+000	-1.95808E-005	-5.39641E-002	2.19974E-001	3.57420E+000	9	...........
	93	1.25333	2.15379E-001	-8.88801E-005	0.00000E+000	-1.91430E-005	-5.39641E-002	2.15406E-001	3.57420E+000	9	...........
	94	1.26667	2.10832E-001	-8.88489E-005	0.00000E+000	-1.87322E-005	-5.39641E-002	2.10858E-001	3.57420E+000	9	...........
	95	1.28	2.06304E-001	-8.90583E-005	0.00000E+000	-1.83731E-005	-5.39641E-002	2.06327E-001	3.57420E+000	9	...........
	96	1.29333	2.01785E-001	-8.90041E-005	0.00000E+000	-1.79597E-005	-5.39641E-002	2.01811E-001	3.57420E+000	9	...........
	97	1.30667	1.97284E-001	-8.88103E-005	0.00000E+000	-1.75209E-005	-5.39641E-002	1.97309E-001	3.57420E+000	9	...........
	98	1.32	1.92795E-001	-8.87134E-005	0.00000E+000	-1.71035E-005	-5.39641E-002	1.92825E-001	3.57420E+000	9	...........
	99	1.33333	1.88321E-001	-8.88707E-005	0.00000E+000	-1.67362E-005	-5.39641E-002	1.88342E-001	3.57420E+000	9	...........
	100	1.34667	1.83868E-001	-8.85998E-005	0.00000E+000	-1.62907E-005	-5.39641E-002	1.83894E-001	3.57420E+000	9	...........
	101	1.36	1.79430E-001	-8.88489E-005	0.00000E+000	-1.59422E-005	-5.39641E-002	1.79455E-001	3.57420E+000	9	...........
	102	1.37333	1.75011E-001	-8.87520E-005	0.00000E+000	-1.55326E-005	-5.39641E-002	1.75040E-001	3.57420E+000	9	...........
	103	1.38667	1.70607E-001	-8.89874E-005	0.00000E+000	-1.51819E-005	-5.39641E-002	1.70626E-001	3.57420E+000	9	...........
	104	1.4	1.66220E-001	-8.89228E-005	0.00000E+000	-1.47808E-005	-5.39641E-002	1.66240E-001	3.57420E+000	9	...........
	105	1.41333	1.61851E-001	-8.86926E-005	0.00000E+000	-1.43550E-005	-5.39641E-002	1.61868E-001	3.57420E+000	9	...........
	106	1.42667	1.57507E-001	-8.87551E-005	0.00000E+000	-1.39795E-005	-5.39641E-002	1.57521E-001	3.57420E+000	9	...........
	107	1.44	1.53174E-001	-8.88843E-005	0.00000E+000	-1.36147E-005	-5.39641E-002	1.53187E-001	3.57420E+000	9	...........
	108	1.45333	1.48872E-001	-8.87947E-005	0.00000E+000	-1.32191E-005	-5.39641E-002	1.48889E-001	3.57420E+000	9	...........
	109	1.46667	1.44587E-001	-8.88686E-005	0.00000E+000	-1.28492E-005	-5.39641E-002	1.44599E-001	3.57420E+000	9	...........
	110	1.48	1.40316E-001	-8.90030E-005	0.00000E+000	-1.24885E-005	-5.39641E-002	1.40329E-001	3.57420E+000	9	...........
	111	1.49333	1.36071E-001	-8.90885E-005	0.00000E+000	-1.21223E-005	-5.39641E-002	1.36077E-001	3.57420E+000	9	...........
	112	1.50667	1.31842E-001	-8.86488E-005	0.00000E+000	-1.16876E-005	-5.39641E-002	1.31852E-001	3.57420E+000	9	...........
	113	1.52	1.27624E-001	-8.87374E-005	0.00000E+000	-1.13250E-005	-5.39641E-002	1.27637E-001	3.57420E+000	9	...........
	114	1.53333	1.23426E-001	-8.88218E-005	0.00000E+000	-1.09629E-005	-5.39641E-002	1.23440E-001	3.57420E+000	9	...........
	115	1.54667	1.19247E-001	-8.88947E-005	0.00000E+000	-1.06004E-005	-5.39641E-002	1.19263E-001	3.57420E+000	9	...........
	116	1.56	1.15082E-001	-8.88749E-005	0.00000E+000	-1.02279E-005	-5.39641E-002	1.15091E-001	3.57420E+000	9	...........
	117	1.57333	1.10930E-001	-8.87551E-005	0.00000E+000	-9.84561E-006	-5.39641E-002	1.10940E-001	3.57420E+000	9	...........
	118	1.58667	1.06812E-001	-8.87624E-005	0.00000E+000	-9.48091E-006	-5.39641E-002	1.06821E-001	3.57420E+000	9	...........
	119	1.6	1.02718E-001	-8.89166E-005	0.00000E+000	-9.13329E-006	-5.39641E-002	1.02725E-001	3.57420E+000	9	...........
	120	1.61333	9.86379E-002	-8.89749E-005	0.00000E+000	-8.77630E-006	-5.39641E-002	9.86501E-002	3.57420E+000	9	...........
	121	1.62667	9.45872E-002	-8.89072E-005	0.00000E+000	-8.40948E-006	-5.39641E-002	9.45946E-002	3.57420E+000	9	...........
	122	1.64	9.05581E-002	-8.89666E-005	0.00000E+000	-8.05665E-006	-5.39641E-002	9.05660E-002	3.57420E+000	9	...........
	123	1.65333	8.65341E-002	-8.90666E-005	0.00000E+000	-7.70730E-006	-5.39641E-002	8.65394E-002	3.57420E+000	9	...........
	124	1.66667	8.25304E-002	-8.87863E-005	0.00000E+000	-7.32758E-006	-5.39641E-002	8.25261E-002	3.57420E+000	9	...........
	125	1.68	7.85335E-002	-8.88864E-005	0.00000E+000	-6.98056E-006	-5.39641E-002	7.85356E-002	3.57420E+000	9	...........
	126	1.69333	7.45556E-002	-8.86134E-005	0.00000E+000	-6.60662E-006	-5.39641E-002	7.45557E-002	3.57420E+000	9	...........
	127	1.70667	7.06004E-002	-8.86676E-005	0.00000E+000	-6.25997E-006	-5.39641E-002	7.05971E-002	3.57420E+000	9	...........
	128	1.72	6.66630E-002	-8.88228E-005	0.00000E+000	-5.92119E-006	-5.39641E-002	6.66658E-002	3.57420E+000	9	...........
	129	1.73333	6.27326E-002	-8.88926E-005	0.00000E+000	-5.57646E-006	-5.39641E-002	6.27338E-002	3.57420E+000	9	...........
	130	1.74667	5.88107E-002	-8.92906E-005	0.00000E+000	-5.25124E-006	-5.39641E-002	5.88133E-002	3.57420E+000	9	...........
	131	1.76	5.49077E-002	-8.88666E-005	0.00000E+000	-4.87946E-006	-5.39641E-002	5.49094E-002	3.57420E+000	9	...........
	132	1.77333	5.10411E-002	-8.86592E-005	0.00000E+000	-4.52526E-006	-5.39641E-002	5.10386E-002	3.57420E+000	9	...........
	133	1.78667	4.72031E-002	-8.88718E-005	0.00000E+000	-4.19502E-006	-5.39641E-002	4.72090E-002	3.57420E+000	9	...........
	134	1.8	4.33728E-002	-8.89291E-005	0.00000E+000	-3.85710E-006	-5.39641E-002	4.33840E-002	3.57420E+000	9	...........
	135	1.81333	3.95614E-002	-8.88936E-005	0.00000E+000	-3.51675E-006	-5.39641E-002	3.95693E-002	3.57420E+000	9	...........
	136	1.82667	3.57677E-002	-8.87280E-005	0.00000E+000	-3.17359E-006	-5.39641E-002	3.57708E-002	3.57407E+000	9	...........
	137	1.84	3.20002E-002	-8.89572E-005	0.00000E+000	-2.84665E-006	-5.39641E-002	3.20008E-002	3.57370E+000	9	...........
	138	1.85333	2.82378E-002	-8.87186E-005	0.00000E+000	-2.50522E-006	-5.39641E-002	2.82409E-002	3.57370E+000	9	...........
	139	1.86667	2.45049E-002	-8.88489E-005	0.00000E+000	-2.17723E-006	-5.39641E-002	2.45025E-002	3.57370E+000	9	...........
	140	1.88	2.07794E-002	-8.87790E-005	0.00000E+000	-1.84477E-006	-5.39641E-002	2.07714E-002	3.57370E+000	9	...........
	141	1.89333	1.70672E-002	-8.87467E-005	0.00000E+000	-1.51466E-006	-5.39641E-002	1.70646E-002	3.57370E+000	9	...........
	142	1.90667	1.33824E-002	-8.90426E-005	0.00000E+000	-1.19160E-006	-5.39641E-002	1.33713E-002	3.57370E+000	9	...........
	143	1.92	9.70272E-003	-8.87592E-005	0.00000E+000	-8.61206E-007	-5.39641E-002	9.69221E-003	3.57370E+000	9	...........
	144	1.93333	6.03893E-003	-8.87530E-005	0.00000E+000	-5.35973E-007	-5.39641E-002	6.02773E-003	3.57370E+000	9	...........
	145	1.94667	2.39246E-003	-8.86853E-005	0.00000E+000	-2.12176E-007	-5.39641E-002	2.37769E-003	3.57370E+000	9	...........
	146	1.95	1.19447E-004	-8.85457E-005	0.00000E+000	-1.05765E-008	-5.39641E-002	1.02969E-004	3.57370E+000	9	...........
STARTTIMEOFFSET	QUANT	3811.377	Start Time Offset (s)
