EXPLAIN
TAG	PWR800_DISCHARGE
TITLE	LABEL	PWR Cyclic Charge Discharge (Cell) - Discharge Step	Test &Identifier
DATE	LABEL	10-7-2017	Date
TIME	LABEL	16:05:02	Time
NOTES	NOTES	3	&Notes...
	supercap test cell
	0.9mg
	6M KOH
PSTAT	PSTAT	IFC5000-01520	Potentiostat
CAPACITY	QUANT	1.00000E-003	Capacity (A-hr)
CELLTYPE	SELECTOR	1	&Cell Type
WORKINGCONNECTION	SELECTOR	0	&Working Lead
MAXDISCHARGETIME	VARIABLEANDUNITS	1.00000E+002	s	1.00000E+002	second(s)	Max &Discharge Time
DISCHARGEMODE	MULTIPARAM	0	9.00000E-005	&Discharge Mode	Constant Current	Amp(s)
SAMPLETIME	QUANT	1.00000E-002	Sa&mple Period (s)
DISCHARGESTOPAT1	MULTIPARAM	3	0.00000E+000	Discharge Stop At &1	Voltage < Limit	V
DISCHARGESTOPAT2	MULTIPARAM	0	0.00000E+000	Discharge Stop At &2	None	N/A
AESBHCSELECTOR	TOGGLE	F	Save Both Half Cells
IRCOMP	TOGGLE	F	IR &Measure
EOC	QUANT	0	Open Circuit (V)
SEQUENCER	TOGGLE	TRUE	Run as Sequence
PSTATMODEL	IQUANT	53	Pstat Model
PSTATSECTION	LABEL	IFC5000-01520	Pstat Section
PSTATSERIALNO	LABEL	01520	Pstat Serial Number
CTRLMODE	IQUANT	0	Control Mode
ELECTROMETER	IQUANT	1	RE=0 or CS=1
IESTAB	IQUANT	0	I/E Stability
CASPEED	IQUANT	4	Control Amp Speed
CONVENTION	IQUANT	1	Current Convention
ICHRANGE	IQUANT	2	Ich Range
ICHRANGEMODE	TOGGLE	T	Ich Auto Range
ICHOFFSETENABLE	TOGGLE	F	Ich Offset Enable
ICHOFFSET	QUANT	0	Ich Offset (V)
ICHFILTER	IQUANT	1	Ich Filter
VCHRANGE	IQUANT	2	Vch Range
VCHRANGEMODE	TOGGLE	T	Vch Auto Range
VCHOFFSETENABLE	TOGGLE	F	Vch Offset Enable
VCHOFFSET	QUANT	0	Vch Offset (V)
VCHFILTER	IQUANT	1	Vch Filter
IERANGELOWERLIMIT	IQUANT	9	I/E Range Lower Limit
IERANGEMODE	TOGGLE	F	I/E AutoRange
IERANGE	IQUANT	9	I/E Range
ACHSELECT	IQUANT	1	Ach Select
ACHRANGE	IQUANT	2	Ach Range
ACHOFFSETENABLE	TOGGLE	F	Ach Offset Enable
ACHOFFSET	QUANT	0	Ach Offset (V)
ACHFILTER	IQUANT	1	Ach Filter
CABLEID	IQUANT	14	Cable ID
DCCALDATE	LABEL	5-7-2017	DC Calibration Date
ACCALDATE	LABEL	12/3/2015	AC Calibration Date
FRAMEWORKVERSION	QUANT	7.01	Framework Version
INSTRUMENTVERSION	LABEL	4.00	Instrument Version
CURVE	TABLE	147
	Pt	T	Vf	Im	Vu	Pwr	Sig	Ach	Temp	IERange	Over
	#	s	V	A	V	W	V	V	deg C	#	bits
	0	0.013333	7.89822E-001	-8.85405E-005	0.00000E+000	-6.99312E-005	-5.39641E-002	7.89970E-001	3.57270E+000	9	...........
	1	0.026667	7.75926E-001	-8.87019E-005	0.00000E+000	-6.88261E-005	-5.39641E-002	7.76074E-001	3.57270E+000	9	...........
	2	0.04	7.62983E-001	-8.86842E-005	0.00000E+000	-6.76646E-005	-5.39641E-002	7.63100E-001	3.57270E+000	9	...........
	3	0.053333	7.50838E-001	-8.85446E-005	0.00000E+000	-6.64826E-005	-5.39641E-002	7.50966E-001	3.57270E+000	9	...........
	4	0.066667	7.39308E-001	-8.89395E-005	0.00000E+000	-6.57537E-005	-5.39641E-002	7.39429E-001	3.57270E+000	9	...........
	5	0.08	7.28352E-001	-8.91145E-005	0.00000E+000	-6.49067E-005	-5.39641E-002	7.28451E-001	3.57270E+000	9	...........
	6	0.093333	7.17843E-001	-8.89697E-005	0.00000E+000	-6.38663E-005	-5.39641E-002	7.17929E-001	3.57270E+000	9	...........
	7	0.106667	7.07716E-001	-8.87186E-005	0.00000E+000	-6.27875E-005	-5.39641E-002	7.07836E-001	3.57270E+000	9	...........
	8	0.12	6.97991E-001	-8.87072E-005	0.00000E+000	-6.19168E-005	-5.39641E-002	6.98102E-001	3.57270E+000	9	...........
	9	0.133333	6.88583E-001	-8.84634E-005	0.00000E+000	-6.09144E-005	-5.39641E-002	6.88695E-001	3.57270E+000	9	...........
	10	0.146667	6.79494E-001	-8.87374E-005	0.00000E+000	-6.02965E-005	-5.39641E-002	6.79597E-001	3.57270E+000	9	...........
	11	0.16	6.70656E-001	-8.88041E-005	0.00000E+000	-5.95569E-005	-5.39641E-002	6.70773E-001	3.57270E+000	9	...........
	12	0.173333	6.62011E-001	-8.85363E-005	0.00000E+000	-5.86120E-005	-5.39641E-002	6.62145E-001	3.57270E+000	9	...........
	13	0.186667	6.53674E-001	-8.87155E-005	0.00000E+000	-5.79910E-005	-5.39641E-002	6.53781E-001	3.57270E+000	9	...........
	14	0.2	6.45481E-001	-8.88155E-005	0.00000E+000	-5.73287E-005	-5.39641E-002	6.45594E-001	3.57270E+000	9	...........
	15	0.213333	6.37488E-001	-8.90343E-005	0.00000E+000	-5.67583E-005	-5.39641E-002	6.37606E-001	3.57270E+000	9	...........
	16	0.226667	6.29669E-001	-8.89062E-005	0.00000E+000	-5.59815E-005	-5.39641E-002	6.29796E-001	3.57270E+000	9	...........
	17	0.24	6.22036E-001	-8.89114E-005	0.00000E+000	-5.53061E-005	-5.39641E-002	6.22168E-001	3.57270E+000	9	...........
	18	0.253333	6.14572E-001	-8.89343E-005	0.00000E+000	-5.46566E-005	-5.39641E-002	6.14702E-001	3.57270E+000	9	...........
	19	0.266667	6.07216E-001	-8.86478E-005	0.00000E+000	-5.38283E-005	-5.39641E-002	6.07390E-001	3.57270E+000	9	...........
	20	0.28	6.00068E-001	-8.87134E-005	0.00000E+000	-5.32341E-005	-5.39641E-002	6.00216E-001	3.57270E+000	9	...........
	21	0.293333	5.93043E-001	-8.88061E-005	0.00000E+000	-5.26659E-005	-5.39641E-002	5.93163E-001	3.57270E+000	9	...........
	22	0.306667	5.86129E-001	-8.87457E-005	0.00000E+000	-5.20165E-005	-5.39641E-002	5.86237E-001	3.57270E+000	9	...........
	23	0.32	5.79306E-001	-8.88645E-005	0.00000E+000	-5.14797E-005	-5.39641E-002	5.79420E-001	3.57270E+000	9	...........
	24	0.333333	5.72632E-001	-8.88311E-005	0.00000E+000	-5.08675E-005	-5.39641E-002	5.72727E-001	3.57270E+000	9	...........
	25	0.346667	5.66033E-001	-8.89114E-005	0.00000E+000	-5.03268E-005	-5.39641E-002	5.66151E-001	3.57270E+000	9	...........
	26	0.36	5.59519E-001	-8.86373E-005	0.00000E+000	-4.95943E-005	-5.39641E-002	5.59624E-001	3.57270E+000	9	...........
	27	0.373333	5.53163E-001	-8.88322E-005	0.00000E+000	-4.91387E-005	-5.39641E-002	5.53282E-001	3.57270E+000	9	...........
	28	0.386667	5.46854E-001	-8.90708E-005	0.00000E+000	-4.87087E-005	-5.39641E-002	5.46956E-001	3.57270E+000	9	...........
	29	0.4	5.40621E-001	-8.88395E-005	0.00000E+000	-4.80285E-005	-5.39641E-002	5.40756E-001	3.57270E+000	9	...........
	30	0.413333	5.34440E-001	-8.89687E-005	0.00000E+000	-4.75484E-005	-5.39641E-002	5.34565E-001	3.57270E+000	9	...........
	31	0.426667	5.28380E-001	-8.88093E-005	0.00000E+000	-4.69251E-005	-5.39641E-002	5.28516E-001	3.57270E+000	9	...........
	32	0.44	5.22394E-001	-8.86040E-005	0.00000E+000	-4.62862E-005	-5.39641E-002	5.22505E-001	3.57270E+000	9	...........
	33	0.453333	5.16494E-001	-8.89207E-005	0.00000E+000	-4.59270E-005	-5.39641E-002	5.16577E-001	3.57270E+000	9	...........
	34	0.466667	5.10605E-001	-8.86603E-005	0.00000E+000	-4.52704E-005	-5.39641E-002	5.10711E-001	3.57270E+000	9	...........
	35	0.48	5.04800E-001	-8.87363E-005	0.00000E+000	-4.47941E-005	-5.39641E-002	5.04920E-001	3.57270E+000	9	...........
	36	0.493333	4.99066E-001	-8.87374E-005	0.00000E+000	-4.42858E-005	-5.39641E-002	4.99176E-001	3.57270E+000	9	...........
	37	0.506667	4.93376E-001	-8.87019E-005	0.00000E+000	-4.37634E-005	-5.39641E-002	4.93495E-001	3.57270E+000	9	...........
	38	0.52	4.87744E-001	-8.83425E-005	0.00000E+000	-4.30885E-005	-5.39641E-002	4.87841E-001	3.57270E+000	9	...........
	39	0.533333	4.82268E-001	-8.87415E-005	0.00000E+000	-4.27972E-005	-5.39641E-002	4.82319E-001	3.57270E+000	9	...........
	40	0.546667	4.76724E-001	-8.89030E-005	0.00000E+000	-4.23822E-005	-5.39641E-002	4.76789E-001	3.57270E+000	9	...........
	41	0.56	4.71224E-001	-8.88239E-005	0.00000E+000	-4.18559E-005	-5.39641E-002	4.71294E-001	3.57270E+000	9	...........
	42	0.573333	4.65764E-001	-8.87884E-005	0.00000E+000	-4.13544E-005	-5.39641E-002	4.65826E-001	3.57270E+000	9	...........
	43	0.586667	4.60340E-001	-8.86457E-005	0.00000E+000	-4.08071E-005	-5.39641E-002	4.60398E-001	3.57270E+000	9	...........
	44	0.6	4.54962E-001	-8.87384E-005	0.00000E+000	-4.03726E-005	-5.39641E-002	4.55026E-001	3.57270E+000	9	...........
	45	0.613333	4.49627E-001	-8.86446E-005	0.00000E+000	-3.98571E-005	-5.39641E-002	4.49691E-001	3.57270E+000	9	...........
	46	0.626667	4.44300E-001	-8.88686E-005	0.00000E+000	-3.94843E-005	-5.39641E-002	4.44362E-001	3.57270E+000	9	...........
	47	0.64	4.39007E-001	-8.87624E-005	0.00000E+000	-3.89673E-005	-5.39641E-002	4.39072E-001	3.57393E+000	9	...........
	48	0.653333	4.33780E-001	-8.87853E-005	0.00000E+000	-3.85133E-005	-5.39641E-002	4.33837E-001	3.57410E+000	9	...........
	49	0.666667	4.28565E-001	-8.89134E-005	0.00000E+000	-3.81052E-005	-5.39641E-002	4.28629E-001	3.57410E+000	9	...........
	50	0.68	4.23365E-001	-8.87197E-005	0.00000E+000	-3.75608E-005	-5.39641E-002	4.23427E-001	3.57410E+000	9	...........
	51	0.693333	4.18200E-001	-8.86436E-005	0.00000E+000	-3.70707E-005	-5.39641E-002	4.18256E-001	3.57410E+000	9	...........
	52	0.706667	4.13069E-001	-8.88489E-005	0.00000E+000	-3.67007E-005	-5.39641E-002	4.13122E-001	3.57410E+000	9	...........
	53	0.72	4.07940E-001	-8.87895E-005	0.00000E+000	-3.62208E-005	-5.39641E-002	4.07992E-001	3.57410E+000	9	...........
	54	0.733333	4.02834E-001	-8.87124E-005	0.00000E+000	-3.57363E-005	-5.39641E-002	4.02883E-001	3.57410E+000	9	...........
	55	0.746667	3.97733E-001	-8.88739E-005	0.00000E+000	-3.53481E-005	-5.39641E-002	3.97776E-001	3.57410E+000	9	...........
	56	0.76	3.92654E-001	-8.90103E-005	0.00000E+000	-3.49503E-005	-5.39641E-002	3.92705E-001	3.57410E+000	9	...........
	57	0.773333	3.87591E-001	-8.89645E-005	0.00000E+000	-3.44818E-005	-5.39641E-002	3.87643E-001	3.57410E+000	9	...........
	58	0.786667	3.82541E-001	-8.86936E-005	0.00000E+000	-3.39290E-005	-5.39641E-002	3.82596E-001	3.57410E+000	9	...........
	59	0.8	3.77526E-001	-8.88030E-005	0.00000E+000	-3.35254E-005	-5.39641E-002	3.77573E-001	3.57410E+000	9	...........
	60	0.813333	3.72509E-001	-8.86082E-005	0.00000E+000	-3.30074E-005	-5.39641E-002	3.72554E-001	3.57410E+000	9	...........
	61	0.826667	3.67501E-001	-8.89385E-005	0.00000E+000	-3.26850E-005	-5.39641E-002	3.67550E-001	3.57410E+000	9	...........
	62	0.84	3.62507E-001	-8.88436E-005	0.00000E+000	-3.22065E-005	-5.39641E-002	3.62559E-001	3.57410E+000	9	...........
	63	0.853333	3.57542E-001	-8.90301E-005	0.00000E+000	-3.18320E-005	-5.39641E-002	3.57587E-001	3.57410E+000	9	...........
	64	0.866667	3.52601E-001	-8.88895E-005	0.00000E+000	-3.13425E-005	-5.39641E-002	3.52647E-001	3.57410E+000	9	...........
	65	0.88	3.47674E-001	-8.88072E-005	0.00000E+000	-3.08759E-005	-5.39641E-002	3.47717E-001	3.57410E+000	9	...........
	66	0.893333	3.42736E-001	-8.87697E-005	0.00000E+000	-3.04246E-005	-5.39641E-002	3.42783E-001	3.57410E+000	9	...........
	67	0.906667	3.37812E-001	-8.89041E-005	0.00000E+000	-3.00328E-005	-5.39641E-002	3.37853E-001	3.57410E+000	9	...........
	68	0.92	3.32895E-001	-8.87009E-005	0.00000E+000	-2.95281E-005	-5.39641E-002	3.32940E-001	3.57410E+000	9	...........
	69	0.933333	3.27983E-001	-8.85717E-005	0.00000E+000	-2.90500E-005	-5.39641E-002	3.28020E-001	3.57410E+000	9	...........
	70	0.946667	3.23074E-001	-8.87978E-005	0.00000E+000	-2.86883E-005	-5.39641E-002	3.23115E-001	3.57410E+000	9	...........
	71	0.96	3.18181E-001	-8.86749E-005	0.00000E+000	-2.82146E-005	-5.39641E-002	3.18213E-001	3.57410E+000	9	...........
	72	0.97333	3.13305E-001	-8.89301E-005	0.00000E+000	-2.78623E-005	-5.39641E-002	3.13343E-001	3.57410E+000	9	...........
	73	0.98667	3.08440E-001	-8.89145E-005	0.00000E+000	-2.74248E-005	-5.39641E-002	3.08479E-001	3.57410E+000	9	...........
	74	1	3.03599E-001	-8.90479E-005	0.00000E+000	-2.70348E-005	-5.39641E-002	3.03635E-001	3.57410E+000	9	...........
	75	1.01333	2.98776E-001	-8.88801E-005	0.00000E+000	-2.65552E-005	-5.39641E-002	2.98812E-001	3.57410E+000	9	...........
	76	1.02667	2.93955E-001	-8.89447E-005	0.00000E+000	-2.61457E-005	-5.39641E-002	2.93991E-001	3.57410E+000	9	...........
	77	1.04	2.89165E-001	-8.87759E-005	0.00000E+000	-2.56709E-005	-5.39641E-002	2.89196E-001	3.57410E+000	9	...........
	78	1.05333	2.84398E-001	-8.91052E-005	0.00000E+000	-2.53414E-005	-5.39641E-002	2.84438E-001	3.57410E+000	9	...........
	79	1.06667	2.79635E-001	-8.88384E-005	0.00000E+000	-2.48423E-005	-5.39641E-002	2.79675E-001	3.57410E+000	9	...........
	80	1.08	2.74873E-001	-8.88186E-005	0.00000E+000	-2.44139E-005	-5.39641E-002	2.74912E-001	3.57410E+000	9	...........
	81	1.09333	2.70137E-001	-8.88989E-005	0.00000E+000	-2.40149E-005	-5.39641E-002	2.70174E-001	3.57410E+000	9	...........
	82	1.10667	2.65412E-001	-8.86530E-005	0.00000E+000	-2.35296E-005	-5.39641E-002	2.65452E-001	3.57410E+000	9	...........
	83	1.12	2.60706E-001	-8.86509E-005	0.00000E+000	-2.31118E-005	-5.39641E-002	2.60743E-001	3.57410E+000	9	...........
	84	1.13333	2.56026E-001	-8.87592E-005	0.00000E+000	-2.27247E-005	-5.39641E-002	2.56061E-001	3.57410E+000	9	...........
	85	1.14667	2.51363E-001	-8.88593E-005	0.00000E+000	-2.23359E-005	-5.39641E-002	2.51402E-001	3.57410E+000	9	...........
	86	1.16	2.46716E-001	-8.90260E-005	0.00000E+000	-2.19641E-005	-5.39641E-002	2.46756E-001	3.57410E+000	9	...........
	87	1.17333	2.42092E-001	-8.87030E-005	0.00000E+000	-2.14743E-005	-5.39641E-002	2.42121E-001	3.57410E+000	9	...........
	88	1.18667	2.37466E-001	-8.89301E-005	0.00000E+000	-2.11179E-005	-5.39641E-002	2.37499E-001	3.57410E+000	9	...........
	89	1.2	2.32860E-001	-8.89197E-005	0.00000E+000	-2.07059E-005	-5.39641E-002	2.32895E-001	3.57410E+000	9	...........
	90	1.21333	2.28268E-001	-8.88739E-005	0.00000E+000	-2.02870E-005	-5.39641E-002	2.28294E-001	3.57410E+000	9	...........
	91	1.22667	2.23688E-001	-8.88082E-005	0.00000E+000	-1.98653E-005	-5.39641E-002	2.23716E-001	3.57410E+000	9	...........
	92	1.24	2.19132E-001	-8.87884E-005	0.00000E+000	-1.94564E-005	-5.39641E-002	2.19156E-001	3.57410E+000	9	...........
	93	1.25333	2.14594E-001	-8.89770E-005	0.00000E+000	-1.90940E-005	-5.39641E-002	2.14620E-001	3.57410E+000	9	...........
	94	1.26667	2.10078E-001	-8.88603E-005	0.00000E+000	-1.86676E-005	-5.39641E-002	2.10106E-001	3.57410E+000	9	...........
	95	1.28	2.05569E-001	-8.89468E-005	0.00000E+000	-1.82847E-005	-5.39641E-002	2.05591E-001	3.57410E+000	9	...........
	96	1.29333	2.01075E-001	-8.86801E-005	0.00000E+000	-1.78314E-005	-5.39641E-002	2.01106E-001	3.57410E+000	9	...........
	97	1.30667	1.96603E-001	-8.86967E-005	0.00000E+000	-1.74380E-005	-5.39641E-002	1.96628E-001	3.57410E+000	9	...........
	98	1.32	1.92152E-001	-8.86863E-005	0.00000E+000	-1.70412E-005	-5.39641E-002	1.92176E-001	3.57410E+000	9	...........
	99	1.33333	1.87718E-001	-8.87780E-005	0.00000E+000	-1.66652E-005	-5.39641E-002	1.87744E-001	3.57410E+000	9	...........
	100	1.34667	1.83298E-001	-8.87895E-005	0.00000E+000	-1.62749E-005	-5.39641E-002	1.83323E-001	3.57410E+000	9	...........
	101	1.36	1.78898E-001	-8.87999E-005	0.00000E+000	-1.58861E-005	-5.39641E-002	1.78920E-001	3.57410E+000	9	...........
	102	1.37333	1.74534E-001	-8.86488E-005	0.00000E+000	-1.54723E-005	-5.39641E-002	1.74556E-001	3.57410E+000	9	...........
	103	1.38667	1.70184E-001	-8.90937E-005	0.00000E+000	-1.51623E-005	-5.39641E-002	1.70205E-001	3.57410E+000	9	...........
	104	1.4	1.65850E-001	-8.87926E-005	0.00000E+000	-1.47262E-005	-5.39641E-002	1.65871E-001	3.57410E+000	9	...........
	105	1.41333	1.61546E-001	-8.88936E-005	0.00000E+000	-1.43604E-005	-5.39641E-002	1.61563E-001	3.57410E+000	9	...........
	106	1.42667	1.57253E-001	-8.87072E-005	0.00000E+000	-1.39494E-005	-5.39641E-002	1.57266E-001	3.57410E+000	9	...........
	107	1.44	1.52975E-001	-8.88489E-005	0.00000E+000	-1.35917E-005	-5.39641E-002	1.52990E-001	3.57410E+000	9	...........
	108	1.45333	1.48719E-001	-8.85102E-005	0.00000E+000	-1.31632E-005	-5.39641E-002	1.48730E-001	3.57410E+000	9	...........
	109	1.46667	1.44467E-001	-8.87301E-005	0.00000E+000	-1.28186E-005	-5.39641E-002	1.44486E-001	3.57410E+000	9	...........
	110	1.48	1.40246E-001	-8.87019E-005	0.00000E+000	-1.24401E-005	-5.39641E-002	1.40256E-001	3.57410E+000	9	...........
	111	1.49333	1.36022E-001	-8.88009E-005	0.00000E+000	-1.20789E-005	-5.39641E-002	1.36031E-001	3.57410E+000	9	...........
	112	1.50667	1.31834E-001	-8.87082E-005	0.00000E+000	-1.16948E-005	-5.39641E-002	1.31842E-001	3.57410E+000	9	...........
	113	1.52	1.27657E-001	-8.85894E-005	0.00000E+000	-1.13090E-005	-5.39641E-002	1.27668E-001	3.57410E+000	9	...........
	114	1.53333	1.23520E-001	-8.86874E-005	0.00000E+000	-1.09546E-005	-5.39641E-002	1.23528E-001	3.57410E+000	9	...........
	115	1.54667	1.19389E-001	-8.85436E-005	0.00000E+000	-1.05711E-005	-5.39641E-002	1.19401E-001	3.57410E+000	9	...........
	116	1.56	1.15269E-001	-8.85978E-005	0.00000E+000	-1.02126E-005	-5.39641E-002	1.15278E-001	3.57410E+000	9	...........
	117	1.57333	1.11179E-001	-8.87822E-005	0.00000E+000	-9.87070E-006	-5.39641E-002	1.11185E-001	3.57410E+000	9	...........
	118	1.58667	1.07099E-001	-8.88249E-005	0.00000E+000	-9.51302E-006	-5.39641E-002	1.07105E-001	3.57410E+000	9	...........
	119	1.6	1.03027E-001	-8.88301E-005	0.00000E+000	-9.15188E-006	-5.39641E-002	1.03029E-001	3.57410E+000	9	...........
	120	1.61333	9.89790E-002	-8.86842E-005	0.00000E+000	-8.77788E-006	-5.39641E-002	9.89861E-002	3.57410E+000	9	...........
	121	1.62667	9.49527E-002	-8.90353E-005	0.00000E+000	-8.45415E-006	-5.39641E-002	9.49641E-002	3.57410E+000	9	...........
	122	1.64	9.09471E-002	-8.86207E-005	0.00000E+000	-8.05979E-006	-5.39641E-002	9.09568E-002	3.57322E+000	9	...........
	123	1.65333	8.69498E-002	-8.88739E-005	0.00000E+000	-7.72756E-006	-5.39641E-002	8.69545E-002	3.57310E+000	9	...........
	124	1.66667	8.29687E-002	-8.89405E-005	0.00000E+000	-7.37928E-006	-5.39641E-002	8.29719E-002	3.57310E+000	9	...........
	125	1.68	7.90190E-002	-8.85623E-005	0.00000E+000	-6.99810E-006	-5.39641E-002	7.90184E-002	3.57310E+000	9	...........
	126	1.69333	7.50753E-002	-8.87155E-005	0.00000E+000	-6.66034E-006	-5.39641E-002	7.50716E-002	3.57310E+000	9	...........
	127	1.70667	7.11588E-002	-8.87843E-005	0.00000E+000	-6.31778E-006	-5.39641E-002	7.11582E-002	3.57310E+000	9	...........
	128	1.72	6.72599E-002	-8.87988E-005	0.00000E+000	-5.97260E-006	-5.39641E-002	6.72603E-002	3.57310E+000	9	...........
	129	1.73333	6.33640E-002	-8.86978E-005	0.00000E+000	-5.62025E-006	-5.39641E-002	6.33666E-002	3.57310E+000	9	...........
	130	1.74667	5.94924E-002	-8.87197E-005	0.00000E+000	-5.27815E-006	-5.39641E-002	5.94894E-002	3.57310E+000	9	...........
	131	1.76	5.56518E-002	-8.86947E-005	0.00000E+000	-4.93602E-006	-5.39641E-002	5.56444E-002	3.57310E+000	9	...........
	132	1.77333	5.18167E-002	-8.88332E-005	0.00000E+000	-4.60305E-006	-5.39641E-002	5.18127E-002	3.57310E+000	9	...........
	133	1.78667	4.80153E-002	-8.89166E-005	0.00000E+000	-4.26935E-006	-5.39641E-002	4.80176E-002	3.57310E+000	9	...........
	134	1.8	4.42201E-002	-8.86978E-005	0.00000E+000	-3.92223E-006	-5.39641E-002	4.42335E-002	3.57310E+000	9	...........
	135	1.81333	4.04445E-002	-8.87134E-005	0.00000E+000	-3.58797E-006	-5.39641E-002	4.04523E-002	3.57310E+000	9	...........
	136	1.82667	3.66917E-002	-8.89728E-005	0.00000E+000	-3.26457E-006	-5.39641E-002	3.66960E-002	3.57310E+000	9	...........
	137	1.84	3.29458E-002	-8.91208E-005	0.00000E+000	-2.93615E-006	-5.39641E-002	3.29523E-002	3.57310E+000	9	...........
	138	1.85333	2.92327E-002	-8.89009E-005	0.00000E+000	-2.59882E-006	-5.39641E-002	2.92343E-002	3.57310E+000	9	...........
	139	1.86667	2.55333E-002	-8.89447E-005	0.00000E+000	-2.27105E-006	-5.39641E-002	2.55348E-002	3.57310E+000	9	...........
	140	1.88	2.18563E-002	-8.87311E-005	0.00000E+000	-1.93934E-006	-5.39641E-002	2.18534E-002	3.57310E+000	9	...........
	141	1.89333	1.81978E-002	-8.89728E-005	0.00000E+000	-1.61911E-006	-5.39641E-002	1.81913E-002	3.57310E+000	9	...........
	142	1.90667	1.45584E-002	-8.85863E-005	0.00000E+000	-1.28968E-006	-5.39641E-002	1.45525E-002	3.57310E+000	9	...........
	143	1.92	1.09316E-002	-8.88436E-005	0.00000E+000	-9.71200E-007	-5.39641E-002	1.09219E-002	3.57310E+000	9	...........
	144	1.93333	7.31333E-003	-8.86644E-005	0.00000E+000	-6.48432E-007	-5.39641E-002	7.30603E-003	3.57310E+000	9	...........
	145	1.94667	3.71886E-003	-8.87488E-005	0.00000E+000	-3.30045E-007	-5.39641E-002	3.70509E-003	3.57310E+000	9	...........
	146	1.955	8.13102E-004	-8.85715E-005	0.00000E+000	-7.20176E-008	-5.39641E-002	7.99983E-004	3.57310E+000	9	...........
STARTTIMEOFFSET	QUANT	3316.738	Start Time Offset (s)
