EXPLAIN
TAG	PWR800_DISCHARGE
TITLE	LABEL	PWR Cyclic Charge Discharge (Cell) - Discharge Step	Test &Identifier
DATE	LABEL	10-7-2017	Date
TIME	LABEL	15:01:50	Time
NOTES	NOTES	3	&Notes...
	supercap test cell
	0.9mg
	6M KOH
PSTAT	PSTAT	IFC5000-01520	Potentiostat
CAPACITY	QUANT	1.00000E-003	Capacity (A-hr)
CELLTYPE	SELECTOR	1	&Cell Type
WORKINGCONNECTION	SELECTOR	0	&Working Lead
MAXDISCHARGETIME	VARIABLEANDUNITS	1.00000E+002	s	1.00000E+002	second(s)	Max &Discharge Time
DISCHARGEMODE	MULTIPARAM	0	9.00000E-005	&Discharge Mode	Constant Current	Amp(s)
SAMPLETIME	QUANT	1.00000E-002	Sa&mple Period (s)
DISCHARGESTOPAT1	MULTIPARAM	3	0.00000E+000	Discharge Stop At &1	Voltage < Limit	V
DISCHARGESTOPAT2	MULTIPARAM	0	0.00000E+000	Discharge Stop At &2	None	N/A
AESBHCSELECTOR	TOGGLE	F	Save Both Half Cells
IRCOMP	TOGGLE	F	IR &Measure
EOC	QUANT	0	Open Circuit (V)
SEQUENCER	TOGGLE	TRUE	Run as Sequence
PSTATMODEL	IQUANT	53	Pstat Model
PSTATSECTION	LABEL	IFC5000-01520	Pstat Section
PSTATSERIALNO	LABEL	01520	Pstat Serial Number
CTRLMODE	IQUANT	0	Control Mode
ELECTROMETER	IQUANT	1	RE=0 or CS=1
IESTAB	IQUANT	0	I/E Stability
CASPEED	IQUANT	4	Control Amp Speed
CONVENTION	IQUANT	1	Current Convention
ICHRANGE	IQUANT	2	Ich Range
ICHRANGEMODE	TOGGLE	T	Ich Auto Range
ICHOFFSETENABLE	TOGGLE	F	Ich Offset Enable
ICHOFFSET	QUANT	0	Ich Offset (V)
ICHFILTER	IQUANT	1	Ich Filter
VCHRANGE	IQUANT	2	Vch Range
VCHRANGEMODE	TOGGLE	T	Vch Auto Range
VCHOFFSETENABLE	TOGGLE	F	Vch Offset Enable
VCHOFFSET	QUANT	0	Vch Offset (V)
VCHFILTER	IQUANT	1	Vch Filter
IERANGELOWERLIMIT	IQUANT	9	I/E Range Lower Limit
IERANGEMODE	TOGGLE	F	I/E AutoRange
IERANGE	IQUANT	9	I/E Range
ACHSELECT	IQUANT	1	Ach Select
ACHRANGE	IQUANT	2	Ach Range
ACHOFFSETENABLE	TOGGLE	F	Ach Offset Enable
ACHOFFSET	QUANT	0	Ach Offset (V)
ACHFILTER	IQUANT	1	Ach Filter
CABLEID	IQUANT	14	Cable ID
DCCALDATE	LABEL	5-7-2017	DC Calibration Date
ACCALDATE	LABEL	12/3/2015	AC Calibration Date
FRAMEWORKVERSION	QUANT	7.01	Framework Version
INSTRUMENTVERSION	LABEL	4.00	Instrument Version
CURVE	TABLE	175
	Pt	T	Vf	Im	Vu	Pwr	Sig	Ach	Temp	IERange	Over
	#	s	V	A	V	W	V	V	deg C	#	bits
	0	0.013333	8.50585E-001	-8.85957E-005	0.00000E+000	-7.53581E-005	-5.39641E-002	8.50706E-001	3.57090E+000	9	...........
	1	0.026667	8.40076E-001	-8.84957E-005	0.00000E+000	-7.43430E-005	-5.39641E-002	8.40187E-001	3.57090E+000	9	...........
	2	0.04	8.30128E-001	-8.83685E-005	0.00000E+000	-7.33572E-005	-5.39641E-002	8.30236E-001	3.57090E+000	9	...........
	3	0.053333	8.20606E-001	-8.86071E-005	0.00000E+000	-7.27115E-005	-5.39641E-002	8.20718E-001	3.57090E+000	9	...........
	4	0.066667	8.11435E-001	-8.85498E-005	0.00000E+000	-7.18524E-005	-5.39641E-002	8.11502E-001	3.57090E+000	9	...........
	5	0.08	8.02572E-001	-8.85019E-005	0.00000E+000	-7.10291E-005	-5.39641E-002	8.02633E-001	3.57090E+000	9	...........
	6	0.093333	7.93934E-001	-8.88509E-005	0.00000E+000	-7.05417E-005	-5.39641E-002	7.94010E-001	3.57090E+000	9	...........
	7	0.106667	7.85513E-001	-8.84290E-005	0.00000E+000	-6.94621E-005	-5.39641E-002	7.85577E-001	3.57090E+000	9	...........
	8	0.12	7.77309E-001	-8.86342E-005	0.00000E+000	-6.88962E-005	-5.39641E-002	7.77386E-001	3.57090E+000	9	...........
	9	0.133333	7.69287E-001	-8.85196E-005	0.00000E+000	-6.80970E-005	-5.39641E-002	7.69371E-001	3.57090E+000	9	...........
	10	0.146667	7.61417E-001	-8.85290E-005	0.00000E+000	-6.74074E-005	-5.39641E-002	7.61462E-001	3.57090E+000	9	...........
	11	0.16	7.53695E-001	-8.88561E-005	0.00000E+000	-6.69704E-005	-5.39641E-002	7.53774E-001	3.57090E+000	9	...........
	12	0.173333	7.46132E-001	-8.85134E-005	0.00000E+000	-6.60427E-005	-5.39641E-002	7.46173E-001	3.57090E+000	9	...........
	13	0.186667	7.38669E-001	-8.84915E-005	0.00000E+000	-6.53660E-005	-5.39641E-002	7.38729E-001	3.57090E+000	9	...........
	14	0.2	7.31362E-001	-8.86207E-005	0.00000E+000	-6.48138E-005	-5.39641E-002	7.31430E-001	3.57090E+000	9	...........
	15	0.213333	7.24149E-001	-8.88384E-005	0.00000E+000	-6.43323E-005	-5.39641E-002	7.24223E-001	3.57090E+000	9	...........
	16	0.226667	7.17058E-001	-8.85425E-005	0.00000E+000	-6.34901E-005	-5.39641E-002	7.17144E-001	3.57090E+000	9	...........
	17	0.24	7.10036E-001	-8.85998E-005	0.00000E+000	-6.29091E-005	-5.39641E-002	7.10113E-001	3.57090E+000	9	...........
	18	0.253333	7.03146E-001	-8.85842E-005	0.00000E+000	-6.22877E-005	-5.39641E-002	7.03243E-001	3.57090E+000	9	...........
	19	0.266667	6.96341E-001	-8.87957E-005	0.00000E+000	-6.18321E-005	-5.39641E-002	6.96448E-001	3.57090E+000	9	...........
	20	0.28	6.89615E-001	-8.84654E-005	0.00000E+000	-6.10071E-005	-5.39641E-002	6.89709E-001	3.57090E+000	9	...........
	21	0.293333	6.82981E-001	-8.85623E-005	0.00000E+000	-6.04864E-005	-5.39641E-002	6.83082E-001	3.57090E+000	9	...........
	22	0.306667	6.76414E-001	-8.83248E-005	0.00000E+000	-5.97441E-005	-5.39641E-002	6.76504E-001	3.57090E+000	9	...........
	23	0.32	6.69920E-001	-8.87780E-005	0.00000E+000	-5.94742E-005	-5.39641E-002	6.70012E-001	3.57090E+000	9	...........
	24	0.333333	6.63489E-001	-8.84446E-005	0.00000E+000	-5.86820E-005	-5.39641E-002	6.63568E-001	3.57090E+000	9	...........
	25	0.346667	6.57124E-001	-8.86009E-005	0.00000E+000	-5.82218E-005	-5.39641E-002	6.57209E-001	3.57090E+000	9	...........
	26	0.36	6.50852E-001	-8.83425E-005	0.00000E+000	-5.74979E-005	-5.39641E-002	6.50941E-001	3.57090E+000	9	...........
	27	0.373333	6.44650E-001	-8.85477E-005	0.00000E+000	-5.70823E-005	-5.39641E-002	6.44696E-001	3.57090E+000	9	...........
	28	0.386667	6.38457E-001	-8.83685E-005	0.00000E+000	-5.64195E-005	-5.39641E-002	6.38546E-001	3.57090E+000	9	...........
	29	0.4	6.32338E-001	-8.87926E-005	0.00000E+000	-5.61469E-005	-5.39641E-002	6.32389E-001	3.57090E+000	9	...........
	30	0.413333	6.26278E-001	-8.86196E-005	0.00000E+000	-5.55005E-005	-5.39641E-002	6.26339E-001	3.57090E+000	9	...........
	31	0.426667	6.20267E-001	-8.84748E-005	0.00000E+000	-5.48780E-005	-5.39641E-002	6.20342E-001	3.57090E+000	9	...........
	32	0.44	6.14261E-001	-8.88030E-005	0.00000E+000	-5.45482E-005	-5.39641E-002	6.14377E-001	3.57090E+000	9	...........
	33	0.453333	6.08323E-001	-8.87342E-005	0.00000E+000	-5.39790E-005	-5.39641E-002	6.08423E-001	3.57090E+000	9	...........
	34	0.466667	6.02448E-001	-8.84998E-005	0.00000E+000	-5.33165E-005	-5.39641E-002	6.02530E-001	3.57090E+000	9	...........
	35	0.48	5.96599E-001	-8.85998E-005	0.00000E+000	-5.28586E-005	-5.39641E-002	5.96693E-001	3.57090E+000	9	...........
	36	0.493333	5.90805E-001	-8.84342E-005	0.00000E+000	-5.22473E-005	-5.39641E-002	5.90882E-001	3.57090E+000	9	...........
	37	0.506667	5.84994E-001	-8.84071E-005	0.00000E+000	-5.17176E-005	-5.39641E-002	5.85075E-001	3.57090E+000	9	...........
	38	0.52	5.79254E-001	-8.84706E-005	0.00000E+000	-5.12470E-005	-5.39641E-002	5.79347E-001	3.57090E+000	9	...........
	39	0.533333	5.73560E-001	-8.85873E-005	0.00000E+000	-5.08101E-005	-5.39641E-002	5.73620E-001	3.57090E+000	9	...........
	40	0.546667	5.67891E-001	-8.85800E-005	0.00000E+000	-5.03038E-005	-5.39641E-002	5.67962E-001	3.57090E+000	9	...........
	41	0.56	5.62203E-001	-8.82664E-005	0.00000E+000	-4.96236E-005	-5.39641E-002	5.62300E-001	3.57090E+000	9	...........
	42	0.573333	5.56578E-001	-8.87822E-005	0.00000E+000	-4.94142E-005	-5.39641E-002	5.56664E-001	3.57090E+000	9	...........
	43	0.586667	5.51003E-001	-8.84863E-005	0.00000E+000	-4.87562E-005	-5.39641E-002	5.51085E-001	3.57090E+000	9	...........
	44	0.6	5.45438E-001	-8.86988E-005	0.00000E+000	-4.83797E-005	-5.39641E-002	5.45515E-001	3.57090E+000	9	...........
	45	0.613333	5.39893E-001	-8.87217E-005	0.00000E+000	-4.79003E-005	-5.39641E-002	5.40004E-001	3.57090E+000	9	...........
	46	0.626667	5.34364E-001	-8.82237E-005	0.00000E+000	-4.71436E-005	-5.39641E-002	5.34451E-001	3.57090E+000	9	...........
	47	0.64	5.28863E-001	-8.88426E-005	0.00000E+000	-4.69856E-005	-5.39641E-002	5.28946E-001	3.57090E+000	9	...........
	48	0.653333	5.23424E-001	-8.84644E-005	0.00000E+000	-4.63044E-005	-5.39641E-002	5.23476E-001	3.57090E+000	9	...........
	49	0.666667	5.17995E-001	-8.84488E-005	0.00000E+000	-4.58161E-005	-5.39641E-002	5.18069E-001	3.57090E+000	9	...........
	50	0.68	5.12607E-001	-8.87572E-005	0.00000E+000	-4.54976E-005	-5.39641E-002	5.12656E-001	3.57090E+000	9	...........
	51	0.693333	5.07145E-001	-8.86863E-005	0.00000E+000	-4.49768E-005	-5.39641E-002	5.07268E-001	3.57090E+000	9	...........
	52	0.706667	5.01818E-001	-8.88749E-005	0.00000E+000	-4.45990E-005	-5.39641E-002	5.01896E-001	3.57090E+000	9	...........
	53	0.72	4.96525E-001	-8.87759E-005	0.00000E+000	-4.40795E-005	-5.39641E-002	4.96564E-001	3.57090E+000	9	...........
	54	0.733333	4.91233E-001	-8.83425E-005	0.00000E+000	-4.33967E-005	-5.39641E-002	4.91264E-001	3.57090E+000	9	...........
	55	0.746667	4.85938E-001	-8.84446E-005	0.00000E+000	-4.29786E-005	-5.39641E-002	4.85988E-001	3.57090E+000	9	...........
	56	0.76	4.80685E-001	-8.87478E-005	0.00000E+000	-4.26597E-005	-5.39641E-002	4.80728E-001	3.57090E+000	9	...........
	57	0.773333	4.75444E-001	-8.87155E-005	0.00000E+000	-4.21792E-005	-5.39641E-002	4.75486E-001	3.57090E+000	9	...........
	58	0.786667	4.70217E-001	-8.84852E-005	0.00000E+000	-4.16072E-005	-5.39641E-002	4.70259E-001	3.57195E+000	9	...........
	59	0.8	4.64999E-001	-8.86644E-005	0.00000E+000	-4.12289E-005	-5.39641E-002	4.65037E-001	3.57230E+000	9	...........
	60	0.813333	4.59796E-001	-8.85727E-005	0.00000E+000	-4.07254E-005	-5.39641E-002	4.59831E-001	3.57230E+000	9	...........
	61	0.826667	4.54622E-001	-8.85894E-005	0.00000E+000	-4.02747E-005	-5.39641E-002	4.54660E-001	3.57230E+000	9	...........
	62	0.84	4.49474E-001	-8.85373E-005	0.00000E+000	-3.97953E-005	-5.39641E-002	4.49508E-001	3.57230E+000	9	...........
	63	0.853333	4.44331E-001	-8.87603E-005	0.00000E+000	-3.94389E-005	-5.39641E-002	4.44369E-001	3.57230E+000	9	...........
	64	0.866667	4.39233E-001	-8.87426E-005	0.00000E+000	-3.89787E-005	-5.39641E-002	4.39271E-001	3.57230E+000	9	...........
	65	0.88	4.34162E-001	-8.87290E-005	0.00000E+000	-3.85228E-005	-5.39641E-002	4.34193E-001	3.57230E+000	9	...........
	66	0.893333	4.29106E-001	-8.85884E-005	0.00000E+000	-3.80138E-005	-5.39641E-002	4.29147E-001	3.57230E+000	9	...........
	67	0.906667	4.24091E-001	-8.85894E-005	0.00000E+000	-3.75699E-005	-5.39641E-002	4.24128E-001	3.57230E+000	9	...........
	68	0.92	4.19102E-001	-8.84081E-005	0.00000E+000	-3.70520E-005	-5.39641E-002	4.19135E-001	3.57230E+000	9	...........
	69	0.933333	4.14125E-001	-8.84154E-005	0.00000E+000	-3.66151E-005	-5.39641E-002	4.14163E-001	3.57230E+000	9	...........
	70	0.946667	4.09178E-001	-8.85925E-005	0.00000E+000	-3.62501E-005	-5.39641E-002	4.09210E-001	3.57230E+000	9	...........
	71	0.96	4.04251E-001	-8.85457E-005	0.00000E+000	-3.57947E-005	-5.39641E-002	4.04283E-001	3.57230E+000	9	...........
	72	0.97333	3.99337E-001	-8.88343E-005	0.00000E+000	-3.54748E-005	-5.39641E-002	3.99370E-001	3.57230E+000	9	...........
	73	0.98667	3.94457E-001	-8.84967E-005	0.00000E+000	-3.49081E-005	-5.39641E-002	3.94484E-001	3.57230E+000	9	...........
	74	1	3.89589E-001	-8.86176E-005	0.00000E+000	-3.45244E-005	-5.39641E-002	3.89618E-001	3.57230E+000	9	...........
	75	1.01333	3.84746E-001	-8.87540E-005	0.00000E+000	-3.41478E-005	-5.39641E-002	3.84776E-001	3.57230E+000	9	...........
	76	1.02667	3.79947E-001	-8.85071E-005	0.00000E+000	-3.36280E-005	-5.39641E-002	3.79981E-001	3.57230E+000	9	...........
	77	1.04	3.75165E-001	-8.84800E-005	0.00000E+000	-3.31946E-005	-5.39641E-002	3.75196E-001	3.57230E+000	9	...........
	78	1.05333	3.70408E-001	-8.86613E-005	0.00000E+000	-3.28409E-005	-5.39641E-002	3.70440E-001	3.57230E+000	9	...........
	79	1.06667	3.65682E-001	-8.86238E-005	0.00000E+000	-3.24081E-005	-5.39641E-002	3.65718E-001	3.57230E+000	9	...........
	80	1.08	3.60982E-001	-8.84852E-005	0.00000E+000	-3.19416E-005	-5.39641E-002	3.61013E-001	3.57230E+000	9	...........
	81	1.09333	3.56314E-001	-8.85290E-005	0.00000E+000	-3.15442E-005	-5.39641E-002	3.56346E-001	3.57230E+000	9	...........
	82	1.10667	3.51670E-001	-8.86582E-005	0.00000E+000	-3.11784E-005	-5.39641E-002	3.51702E-001	3.57230E+000	9	...........
	83	1.12	3.47019E-001	-8.85290E-005	0.00000E+000	-3.07213E-005	-5.39641E-002	3.47048E-001	3.57230E+000	9	...........
	84	1.13333	3.42402E-001	-8.87467E-005	0.00000E+000	-3.03871E-005	-5.39641E-002	3.42432E-001	3.57230E+000	9	...........
	85	1.14667	3.37818E-001	-8.85967E-005	0.00000E+000	-2.99296E-005	-5.39641E-002	3.37853E-001	3.57230E+000	9	...........
	86	1.16	3.33271E-001	-8.84071E-005	0.00000E+000	-2.94635E-005	-5.39641E-002	3.33300E-001	3.57230E+000	9	...........
	87	1.17333	3.28728E-001	-8.87019E-005	0.00000E+000	-2.91588E-005	-5.39641E-002	3.28750E-001	3.57230E+000	9	...........
	88	1.18667	3.24206E-001	-8.84144E-005	0.00000E+000	-2.86645E-005	-5.39641E-002	3.24230E-001	3.57230E+000	9	...........
	89	1.2	3.19701E-001	-8.86092E-005	0.00000E+000	-2.83284E-005	-5.39641E-002	3.19720E-001	3.57230E+000	9	...........
	90	1.21333	3.15231E-001	-8.84123E-005	0.00000E+000	-2.78703E-005	-5.39641E-002	3.15253E-001	3.57230E+000	9	...........
	91	1.22667	3.10789E-001	-8.84863E-005	0.00000E+000	-2.75006E-005	-5.39641E-002	3.10814E-001	3.57230E+000	9	...........
	92	1.24	3.06357E-001	-8.85165E-005	0.00000E+000	-2.71176E-005	-5.39641E-002	3.06381E-001	3.57230E+000	9	...........
	93	1.25333	3.01951E-001	-8.83800E-005	0.00000E+000	-2.66865E-005	-5.39641E-002	3.01974E-001	3.57230E+000	9	...........
	94	1.26667	2.97569E-001	-8.84644E-005	0.00000E+000	-2.63243E-005	-5.39641E-002	2.97589E-001	3.57230E+000	9	...........
	95	1.28	2.93197E-001	-8.87717E-005	0.00000E+000	-2.60276E-005	-5.39641E-002	2.93219E-001	3.57230E+000	9	...........
	96	1.29333	2.88836E-001	-8.87030E-005	0.00000E+000	-2.56206E-005	-5.39641E-002	2.88858E-001	3.57230E+000	9	...........
	97	1.30667	2.84496E-001	-8.86040E-005	0.00000E+000	-2.52075E-005	-5.39641E-002	2.84522E-001	3.57230E+000	9	...........
	98	1.32	2.80185E-001	-8.85894E-005	0.00000E+000	-2.48214E-005	-5.39641E-002	2.80209E-001	3.57230E+000	9	...........
	99	1.33333	2.75878E-001	-8.84821E-005	0.00000E+000	-2.44103E-005	-5.39641E-002	2.75899E-001	3.57230E+000	9	...........
	100	1.34667	2.71585E-001	-8.86238E-005	0.00000E+000	-2.40689E-005	-5.39641E-002	2.71609E-001	3.57230E+000	9	...........
	101	1.36	2.67334E-001	-8.84571E-005	0.00000E+000	-2.36476E-005	-5.39641E-002	2.67354E-001	3.57230E+000	9	...........
	102	1.37333	2.63093E-001	-8.86103E-005	0.00000E+000	-2.33127E-005	-5.39641E-002	2.63114E-001	3.57230E+000	9	...........
	103	1.38667	2.58871E-001	-8.86436E-005	0.00000E+000	-2.29473E-005	-5.39641E-002	2.58895E-001	3.57230E+000	9	...........
	104	1.4	2.54685E-001	-8.86092E-005	0.00000E+000	-2.25675E-005	-5.39641E-002	2.54705E-001	3.57230E+000	9	...........
	105	1.41333	2.50528E-001	-8.85352E-005	0.00000E+000	-2.21806E-005	-5.39641E-002	2.50549E-001	3.57230E+000	9	...........
	106	1.42667	2.46397E-001	-8.82852E-005	0.00000E+000	-2.17532E-005	-5.39641E-002	2.46415E-001	3.57230E+000	9	...........
	107	1.44	2.42289E-001	-8.84519E-005	0.00000E+000	-2.14309E-005	-5.39641E-002	2.42309E-001	3.57230E+000	9	...........
	108	1.45333	2.38172E-001	-8.85269E-005	0.00000E+000	-2.10846E-005	-5.39641E-002	2.38192E-001	3.57230E+000	9	...........
	109	1.46667	2.34066E-001	-8.88937E-005	0.00000E+000	-2.08069E-005	-5.39641E-002	2.34085E-001	3.57230E+000	9	...........
	110	1.48	2.29994E-001	-8.86165E-005	0.00000E+000	-2.03813E-005	-5.39641E-002	2.30012E-001	3.57230E+000	9	...........
	111	1.49333	2.25942E-001	-8.85748E-005	0.00000E+000	-2.00128E-005	-5.39641E-002	2.25954E-001	3.57230E+000	9	...........
	112	1.50667	2.21896E-001	-8.87676E-005	0.00000E+000	-1.96972E-005	-5.39641E-002	2.21914E-001	3.57230E+000	9	...........
	113	1.52	2.17849E-001	-8.86123E-005	0.00000E+000	-1.93041E-005	-5.39641E-002	2.17868E-001	3.57230E+000	9	...........
	114	1.53333	2.13812E-001	-8.85217E-005	0.00000E+000	-1.89270E-005	-5.39641E-002	2.13831E-001	3.57230E+000	9	...........
	115	1.54667	2.09811E-001	-8.84904E-005	0.00000E+000	-1.85663E-005	-5.39641E-002	2.09827E-001	3.57230E+000	9	...........
	116	1.56	2.05826E-001	-8.85082E-005	0.00000E+000	-1.82173E-005	-5.39641E-002	2.05845E-001	3.57230E+000	9	...........
	117	1.57333	2.01867E-001	-8.86707E-005	0.00000E+000	-1.78997E-005	-5.39641E-002	2.01888E-001	3.57230E+000	9	...........
	118	1.58667	1.97913E-001	-8.87134E-005	0.00000E+000	-1.75576E-005	-5.39641E-002	1.97933E-001	3.57230E+000	9	...........
	119	1.6	1.93978E-001	-8.88218E-005	0.00000E+000	-1.72295E-005	-5.39641E-002	1.93992E-001	3.57230E+000	9	...........
	120	1.61333	1.90058E-001	-8.86415E-005	0.00000E+000	-1.68470E-005	-5.39641E-002	1.90077E-001	3.57230E+000	9	...........
	121	1.62667	1.86160E-001	-8.85852E-005	0.00000E+000	-1.64910E-005	-5.39641E-002	1.86174E-001	3.57230E+000	9	...........
	122	1.64	1.82278E-001	-8.82654E-005	0.00000E+000	-1.60889E-005	-5.39641E-002	1.82290E-001	3.57230E+000	9	...........
	123	1.65333	1.78398E-001	-8.86332E-005	0.00000E+000	-1.58120E-005	-5.39641E-002	1.78410E-001	3.57230E+000	9	...........
	124	1.66667	1.74541E-001	-8.84321E-005	0.00000E+000	-1.54350E-005	-5.39641E-002	1.74549E-001	3.57230E+000	9	...........
	125	1.68	1.70699E-001	-8.85884E-005	0.00000E+000	-1.51220E-005	-5.39641E-002	1.70702E-001	3.57230E+000	9	...........
	126	1.69333	1.66862E-001	-8.87374E-005	0.00000E+000	-1.48069E-005	-5.39641E-002	1.66869E-001	3.57230E+000	9	...........
	127	1.70667	1.63049E-001	-8.88082E-005	0.00000E+000	-1.44801E-005	-5.39641E-002	1.63055E-001	3.57230E+000	9	...........
	128	1.72	1.59243E-001	-8.87249E-005	0.00000E+000	-1.41288E-005	-5.39641E-002	1.59245E-001	3.57230E+000	9	...........
	129	1.73333	1.55459E-001	-8.86040E-005	0.00000E+000	-1.37743E-005	-5.39641E-002	1.55460E-001	3.57230E+000	9	...........
	130	1.74667	1.51667E-001	-8.88030E-005	0.00000E+000	-1.34684E-005	-5.39641E-002	1.51675E-001	3.57230E+000	9	...........
	131	1.76	1.47899E-001	-8.87488E-005	0.00000E+000	-1.31259E-005	-5.39641E-002	1.47899E-001	3.57230E+000	9	...........
	132	1.77333	1.44141E-001	-8.84811E-005	0.00000E+000	-1.27537E-005	-5.39641E-002	1.44143E-001	3.57230E+000	9	...........
	133	1.78667	1.40400E-001	-8.87332E-005	0.00000E+000	-1.24582E-005	-5.39641E-002	1.40408E-001	3.57223E+000	9	...........
	134	1.8	1.36684E-001	-8.85946E-005	0.00000E+000	-1.21094E-005	-5.39641E-002	1.36681E-001	3.57220E+000	9	...........
	135	1.81333	1.32978E-001	-8.85405E-005	0.00000E+000	-1.17739E-005	-5.39641E-002	1.32978E-001	3.57220E+000	9	...........
	136	1.82667	1.29287E-001	-8.87603E-005	0.00000E+000	-1.14755E-005	-5.39641E-002	1.29289E-001	3.57220E+000	9	...........
	137	1.84	1.25606E-001	-8.86040E-005	0.00000E+000	-1.11292E-005	-5.39641E-002	1.25611E-001	3.57220E+000	9	...........
	138	1.85333	1.21931E-001	-8.90145E-005	0.00000E+000	-1.08537E-005	-5.39641E-002	1.21943E-001	3.57220E+000	9	...........
	139	1.86667	1.18274E-001	-8.85821E-005	0.00000E+000	-1.04770E-005	-5.39641E-002	1.18283E-001	3.57220E+000	9	...........
	140	1.88	1.14639E-001	-8.84904E-005	0.00000E+000	-1.01445E-005	-5.39641E-002	1.14646E-001	3.57220E+000	9	...........
	141	1.89333	1.11003E-001	-8.87822E-005	0.00000E+000	-9.85504E-006	-5.39641E-002	1.11008E-001	3.57220E+000	9	...........
	142	1.90667	1.07374E-001	-8.86373E-005	0.00000E+000	-9.51732E-006	-5.39641E-002	1.07378E-001	3.57220E+000	9	...........
	143	1.92	1.03742E-001	-8.84436E-005	0.00000E+000	-9.17531E-006	-5.39641E-002	1.03753E-001	3.57220E+000	9	...........
	144	1.93333	1.00141E-001	-8.82394E-005	0.00000E+000	-8.83634E-006	-5.39641E-002	1.00145E-001	3.57220E+000	9	...........
	145	1.94667	9.65639E-002	-8.86822E-005	0.00000E+000	-8.56349E-006	-5.39641E-002	9.65695E-002	3.57220E+000	9	...........
	146	1.96	9.29966E-002	-8.83706E-005	0.00000E+000	-8.21817E-006	-5.39641E-002	9.30010E-002	3.57220E+000	9	...........
	147	1.97333	8.94647E-002	-8.84967E-005	0.00000E+000	-7.91733E-006	-5.39641E-002	8.94688E-002	3.57220E+000	9	...........
	148	1.98667	8.59450E-002	-8.85207E-005	0.00000E+000	-7.60791E-006	-5.39641E-002	8.59500E-002	3.57220E+000	9	...........
	149	2	8.24499E-002	-8.83008E-005	0.00000E+000	-7.28039E-006	-5.39641E-002	8.24527E-002	3.57220E+000	9	...........
	150	2.01333	7.89609E-002	-8.87040E-005	0.00000E+000	-7.00415E-006	-5.39641E-002	7.89580E-002	3.57220E+000	9	...........
	151	2.02667	7.54607E-002	-8.86394E-005	0.00000E+000	-6.68879E-006	-5.39641E-002	7.54605E-002	3.57220E+000	9	...........
	152	2.04	7.19970E-002	-8.88291E-005	0.00000E+000	-6.39542E-006	-5.39641E-002	7.19908E-002	3.57220E+000	9	...........
	153	2.05333	6.85513E-002	-8.86509E-005	0.00000E+000	-6.07713E-006	-5.39641E-002	6.85464E-002	3.57220E+000	9	...........
	154	2.06667	6.51057E-002	-8.89187E-005	0.00000E+000	-5.78911E-006	-5.39641E-002	6.51031E-002	3.57220E+000	9	...........
	155	2.08	6.16634E-002	-8.85165E-005	0.00000E+000	-5.45823E-006	-5.39641E-002	6.16599E-002	3.57220E+000	9	...........
	156	2.09333	5.82572E-002	-8.85957E-005	0.00000E+000	-5.16134E-006	-5.39641E-002	5.82536E-002	3.57220E+000	9	...........
	157	2.10667	5.48643E-002	-8.85061E-005	0.00000E+000	-4.85582E-006	-5.39641E-002	5.48616E-002	3.57220E+000	9	...........
	158	2.12	5.14803E-002	-8.86874E-005	0.00000E+000	-4.56565E-006	-5.39641E-002	5.14795E-002	3.57220E+000	9	...........
	159	2.13333	4.81199E-002	-8.83863E-005	0.00000E+000	-4.25313E-006	-5.39641E-002	4.81206E-002	3.57220E+000	9	...........
	160	2.14667	4.47822E-002	-8.86082E-005	0.00000E+000	-3.96806E-006	-5.39641E-002	4.47849E-002	3.57220E+000	9	...........
	161	2.16	4.14576E-002	-8.84998E-005	0.00000E+000	-3.66899E-006	-5.39641E-002	4.14636E-002	3.57220E+000	9	...........
	162	2.17333	3.81555E-002	-8.88780E-005	0.00000E+000	-3.39118E-006	-5.39641E-002	3.81552E-002	3.57220E+000	9	...........
	163	2.18667	3.48649E-002	-8.85279E-005	0.00000E+000	-3.08651E-006	-5.39641E-002	3.48655E-002	3.57220E+000	9	...........
	164	2.2	3.15781E-002	-8.85425E-005	0.00000E+000	-2.79600E-006	-5.39641E-002	3.15812E-002	3.57220E+000	9	...........
	165	2.21333	2.83171E-002	-8.87926E-005	0.00000E+000	-2.51435E-006	-5.39641E-002	2.83160E-002	3.57220E+000	9	...........
	166	2.22667	2.50768E-002	-8.85832E-005	0.00000E+000	-2.22138E-006	-5.39641E-002	2.50727E-002	3.57220E+000	9	...........
	167	2.24	2.18734E-002	-8.86624E-005	0.00000E+000	-1.93935E-006	-5.39641E-002	2.18704E-002	3.57220E+000	9	...........
	168	2.25333	1.86895E-002	-8.84894E-005	0.00000E+000	-1.65382E-006	-5.39641E-002	1.86875E-002	3.57220E+000	9	...........
	169	2.26667	1.55360E-002	-8.85686E-005	0.00000E+000	-1.37600E-006	-5.39641E-002	1.55285E-002	3.57220E+000	9	...........
	170	2.28	1.23853E-002	-8.85561E-005	0.00000E+000	-1.09679E-006	-5.39641E-002	1.23760E-002	3.57220E+000	9	...........
	171	2.29333	9.26073E-003	-8.84738E-005	0.00000E+000	-8.19332E-007	-5.39641E-002	9.25245E-003	3.57220E+000	9	...........
	172	2.30667	6.16221E-003	-8.85332E-005	0.00000E+000	-5.45560E-007	-5.39641E-002	6.14976E-003	3.57220E+000	9	...........
	173	2.32	3.07915E-003	-8.86894E-005	0.00000E+000	-2.73088E-007	-5.39641E-002	3.06809E-003	3.57220E+000	9	...........
	174	2.32833	5.73718E-004	-8.87865E-005	0.00000E+000	-5.09384E-008	-5.39641E-002	5.64405E-004	3.57220E+000	9	...........
STARTTIMEOFFSET	QUANT	130.5783	Start Time Offset (s)
