EXPLAIN
TAG	PWR800_DISCHARGE
TITLE	LABEL	PWR Cyclic Charge Discharge (Cell) - Discharge Step	Test &Identifier
DATE	LABEL	10-7-2017	Date
TIME	LABEL	15:35:12	Time
NOTES	NOTES	3	&Notes...
	supercap test cell
	0.9mg
	6M KOH
PSTAT	PSTAT	IFC5000-01520	Potentiostat
CAPACITY	QUANT	1.00000E-003	Capacity (A-hr)
CELLTYPE	SELECTOR	1	&Cell Type
WORKINGCONNECTION	SELECTOR	0	&Working Lead
MAXDISCHARGETIME	VARIABLEANDUNITS	1.00000E+002	s	1.00000E+002	second(s)	Max &Discharge Time
DISCHARGEMODE	MULTIPARAM	0	9.00000E-005	&Discharge Mode	Constant Current	Amp(s)
SAMPLETIME	QUANT	1.00000E-002	Sa&mple Period (s)
DISCHARGESTOPAT1	MULTIPARAM	3	0.00000E+000	Discharge Stop At &1	Voltage < Limit	V
DISCHARGESTOPAT2	MULTIPARAM	0	0.00000E+000	Discharge Stop At &2	None	N/A
AESBHCSELECTOR	TOGGLE	F	Save Both Half Cells
IRCOMP	TOGGLE	F	IR &Measure
EOC	QUANT	0	Open Circuit (V)
SEQUENCER	TOGGLE	TRUE	Run as Sequence
PSTATMODEL	IQUANT	53	Pstat Model
PSTATSECTION	LABEL	IFC5000-01520	Pstat Section
PSTATSERIALNO	LABEL	01520	Pstat Serial Number
CTRLMODE	IQUANT	0	Control Mode
ELECTROMETER	IQUANT	1	RE=0 or CS=1
IESTAB	IQUANT	0	I/E Stability
CASPEED	IQUANT	4	Control Amp Speed
CONVENTION	IQUANT	1	Current Convention
ICHRANGE	IQUANT	2	Ich Range
ICHRANGEMODE	TOGGLE	T	Ich Auto Range
ICHOFFSETENABLE	TOGGLE	F	Ich Offset Enable
ICHOFFSET	QUANT	0	Ich Offset (V)
ICHFILTER	IQUANT	1	Ich Filter
VCHRANGE	IQUANT	2	Vch Range
VCHRANGEMODE	TOGGLE	T	Vch Auto Range
VCHOFFSETENABLE	TOGGLE	F	Vch Offset Enable
VCHOFFSET	QUANT	0	Vch Offset (V)
VCHFILTER	IQUANT	1	Vch Filter
IERANGELOWERLIMIT	IQUANT	9	I/E Range Lower Limit
IERANGEMODE	TOGGLE	F	I/E AutoRange
IERANGE	IQUANT	9	I/E Range
ACHSELECT	IQUANT	1	Ach Select
ACHRANGE	IQUANT	2	Ach Range
ACHOFFSETENABLE	TOGGLE	F	Ach Offset Enable
ACHOFFSET	QUANT	0	Ach Offset (V)
ACHFILTER	IQUANT	1	Ach Filter
CABLEID	IQUANT	14	Cable ID
DCCALDATE	LABEL	5-7-2017	DC Calibration Date
ACCALDATE	LABEL	12/3/2015	AC Calibration Date
FRAMEWORKVERSION	QUANT	7.01	Framework Version
INSTRUMENTVERSION	LABEL	4.00	Instrument Version
CURVE	TABLE	154
	Pt	T	Vf	Im	Vu	Pwr	Sig	Ach	Temp	IERange	Over
	#	s	V	A	V	W	V	V	deg C	#	bits
	0	0.013333	8.13997E-001	-8.90937E-005	0.00000E+000	-7.25220E-005	-5.39641E-002	8.14146E-001	3.57270E+000	9	...........
	1	0.026667	8.00704E-001	-8.85832E-005	0.00000E+000	-7.09289E-005	-5.39641E-002	8.00838E-001	3.57270E+000	9	...........
	2	0.04	7.88240E-001	-8.85988E-005	0.00000E+000	-6.98371E-005	-5.39641E-002	7.88367E-001	3.57270E+000	9	...........
	3	0.053333	7.76471E-001	-8.85394E-005	0.00000E+000	-6.87483E-005	-5.39641E-002	7.76604E-001	3.57270E+000	9	...........
	4	0.066667	7.65282E-001	-8.85446E-005	0.00000E+000	-6.77616E-005	-5.39641E-002	7.65399E-001	3.57270E+000	9	...........
	5	0.08	7.54572E-001	-8.86478E-005	0.00000E+000	-6.68911E-005	-5.39641E-002	7.54684E-001	3.57270E+000	9	...........
	6	0.093333	7.44280E-001	-8.86061E-005	0.00000E+000	-6.59478E-005	-5.39641E-002	7.44385E-001	3.57270E+000	9	...........
	7	0.106667	7.34320E-001	-8.88791E-005	0.00000E+000	-6.52657E-005	-5.39641E-002	7.34438E-001	3.57270E+000	9	...........
	8	0.12	7.24748E-001	-8.89645E-005	0.00000E+000	-6.44768E-005	-5.39641E-002	7.24834E-001	3.57270E+000	9	...........
	9	0.133333	7.15426E-001	-8.88082E-005	0.00000E+000	-6.35357E-005	-5.39641E-002	7.15539E-001	3.57270E+000	9	...........
	10	0.146667	7.06405E-001	-8.87342E-005	0.00000E+000	-6.26823E-005	-5.39641E-002	7.06511E-001	3.57270E+000	9	...........
	11	0.16	6.97613E-001	-8.89864E-005	0.00000E+000	-6.20781E-005	-5.39641E-002	6.97727E-001	3.57270E+000	9	...........
	12	0.173333	6.89052E-001	-8.86113E-005	0.00000E+000	-6.10578E-005	-5.39641E-002	6.89167E-001	3.57270E+000	9	...........
	13	0.186667	6.80733E-001	-8.88739E-005	0.00000E+000	-6.04994E-005	-5.39641E-002	6.80814E-001	3.57270E+000	9	...........
	14	0.2	6.72584E-001	-8.84946E-005	0.00000E+000	-5.95200E-005	-5.39641E-002	6.72692E-001	3.57263E+000	9	...........
	15	0.213333	6.64600E-001	-8.88145E-005	0.00000E+000	-5.90261E-005	-5.39641E-002	6.64738E-001	3.57250E+000	9	...........
	16	0.226667	6.56825E-001	-8.87645E-005	0.00000E+000	-5.83028E-005	-5.39641E-002	6.56932E-001	3.57250E+000	9	...........
	17	0.24	6.49191E-001	-8.86697E-005	0.00000E+000	-5.75636E-005	-5.39641E-002	6.49298E-001	3.57250E+000	9	...........
	18	0.253333	6.41714E-001	-8.85842E-005	0.00000E+000	-5.68457E-005	-5.39641E-002	6.41841E-001	3.57250E+000	9	...........
	19	0.266667	6.34375E-001	-8.86457E-005	0.00000E+000	-5.62346E-005	-5.39641E-002	6.34489E-001	3.57250E+000	9	...........
	20	0.28	6.27211E-001	-8.87072E-005	0.00000E+000	-5.56381E-005	-5.39641E-002	6.27317E-001	3.57250E+000	9	...........
	21	0.293333	6.20177E-001	-8.86363E-005	0.00000E+000	-5.49702E-005	-5.39641E-002	6.20269E-001	3.57250E+000	9	...........
	22	0.306667	6.13177E-001	-8.86373E-005	0.00000E+000	-5.43504E-005	-5.39641E-002	6.13321E-001	3.57250E+000	9	...........
	23	0.32	6.06327E-001	-8.89166E-005	0.00000E+000	-5.39125E-005	-5.39641E-002	6.06470E-001	3.57250E+000	9	...........
	24	0.333333	5.99606E-001	-8.89364E-005	0.00000E+000	-5.33267E-005	-5.39641E-002	5.99761E-001	3.57250E+000	9	...........
	25	0.346667	5.93003E-001	-8.86207E-005	0.00000E+000	-5.25523E-005	-5.39641E-002	5.93125E-001	3.57250E+000	9	...........
	26	0.36	5.86454E-001	-8.86030E-005	0.00000E+000	-5.19616E-005	-5.39641E-002	5.86578E-001	3.57250E+000	9	...........
	27	0.373333	5.80015E-001	-8.85957E-005	0.00000E+000	-5.13868E-005	-5.39641E-002	5.80121E-001	3.57250E+000	9	...........
	28	0.386667	5.73661E-001	-8.87019E-005	0.00000E+000	-5.08848E-005	-5.39641E-002	5.73752E-001	3.57250E+000	9	...........
	29	0.4	5.67395E-001	-8.89134E-005	0.00000E+000	-5.04490E-005	-5.39641E-002	5.67483E-001	3.57250E+000	9	...........
	30	0.413333	5.61158E-001	-8.86988E-005	0.00000E+000	-4.97740E-005	-5.39641E-002	5.61256E-001	3.57250E+000	9	...........
	31	0.426667	5.55015E-001	-8.87144E-005	0.00000E+000	-4.92379E-005	-5.39641E-002	5.55114E-001	3.57250E+000	9	...........
	32	0.44	5.48958E-001	-8.89426E-005	0.00000E+000	-4.88258E-005	-5.39641E-002	5.49046E-001	3.57250E+000	9	...........
	33	0.453333	5.42952E-001	-8.87415E-005	0.00000E+000	-4.81824E-005	-5.39641E-002	5.43061E-001	3.57250E+000	9	...........
	34	0.466667	5.37000E-001	-8.87499E-005	0.00000E+000	-4.76587E-005	-5.39641E-002	5.37127E-001	3.57250E+000	9	...........
	35	0.48	5.31126E-001	-8.91479E-005	0.00000E+000	-4.73488E-005	-5.39641E-002	5.31255E-001	3.57250E+000	9	...........
	36	0.493333	5.25309E-001	-8.88259E-005	0.00000E+000	-4.66611E-005	-5.39641E-002	5.25426E-001	3.57250E+000	9	...........
	37	0.506667	5.19566E-001	-8.90604E-005	0.00000E+000	-4.62727E-005	-5.39641E-002	5.19642E-001	3.57250E+000	9	...........
	38	0.52	5.13858E-001	-8.88270E-005	0.00000E+000	-4.56444E-005	-5.39641E-002	5.13938E-001	3.57250E+000	9	...........
	39	0.533333	5.08113E-001	-8.88395E-005	0.00000E+000	-4.51405E-005	-5.39641E-002	5.08226E-001	3.57250E+000	9	...........
	40	0.546667	5.02482E-001	-8.87707E-005	0.00000E+000	-4.46057E-005	-5.39641E-002	5.02588E-001	3.57250E+000	9	...........
	41	0.56	4.96900E-001	-8.85384E-005	0.00000E+000	-4.39947E-005	-5.39641E-002	4.96985E-001	3.57250E+000	9	...........
	42	0.573333	4.91351E-001	-8.90906E-005	0.00000E+000	-4.37747E-005	-5.39641E-002	4.91430E-001	3.57250E+000	9	...........
	43	0.586667	4.85901E-001	-8.90447E-005	0.00000E+000	-4.32669E-005	-5.39641E-002	4.85959E-001	3.57250E+000	9	...........
	44	0.6	4.80460E-001	-8.85821E-005	0.00000E+000	-4.25602E-005	-5.39641E-002	4.80520E-001	3.57250E+000	9	...........
	45	0.613333	4.75005E-001	-8.88530E-005	0.00000E+000	-4.22056E-005	-5.39641E-002	4.75068E-001	3.57250E+000	9	...........
	46	0.626667	4.69586E-001	-8.85686E-005	0.00000E+000	-4.15905E-005	-5.39641E-002	4.69647E-001	3.57250E+000	9	...........
	47	0.64	4.64204E-001	-8.88811E-005	0.00000E+000	-4.12590E-005	-5.39641E-002	4.64265E-001	3.57250E+000	9	...........
	48	0.653333	4.58846E-001	-8.88051E-005	0.00000E+000	-4.07478E-005	-5.39641E-002	4.58910E-001	3.57250E+000	9	...........
	49	0.666667	4.53517E-001	-8.89395E-005	0.00000E+000	-4.03355E-005	-5.39641E-002	4.53568E-001	3.57250E+000	9	...........
	50	0.68	4.48207E-001	-8.86853E-005	0.00000E+000	-3.97494E-005	-5.39641E-002	4.48261E-001	3.57250E+000	9	...........
	51	0.693333	4.42956E-001	-8.86905E-005	0.00000E+000	-3.92860E-005	-5.39641E-002	4.43008E-001	3.57250E+000	9	...........
	52	0.706667	4.37722E-001	-8.86749E-005	0.00000E+000	-3.88149E-005	-5.39641E-002	4.37782E-001	3.57250E+000	9	...........
	53	0.72	4.32509E-001	-8.89259E-005	0.00000E+000	-3.84613E-005	-5.39641E-002	4.32564E-001	3.57250E+000	9	...........
	54	0.733333	4.27293E-001	-8.87770E-005	0.00000E+000	-3.79337E-005	-5.39641E-002	4.27350E-001	3.57250E+000	9	...........
	55	0.746667	4.22097E-001	-8.86499E-005	0.00000E+000	-3.74188E-005	-5.39641E-002	4.22162E-001	3.57250E+000	9	...........
	56	0.76	4.16915E-001	-8.87457E-005	0.00000E+000	-3.69994E-005	-5.39641E-002	4.16971E-001	3.57250E+000	9	...........
	57	0.773333	4.11759E-001	-8.86738E-005	0.00000E+000	-3.65122E-005	-5.39641E-002	4.11814E-001	3.57250E+000	9	...........
	58	0.786667	4.06627E-001	-8.86123E-005	0.00000E+000	-3.60322E-005	-5.39641E-002	4.06676E-001	3.57250E+000	9	...........
	59	0.8	4.01503E-001	-8.89510E-005	0.00000E+000	-3.57141E-005	-5.39641E-002	4.01552E-001	3.57250E+000	9	...........
	60	0.813333	3.96405E-001	-8.87488E-005	0.00000E+000	-3.51805E-005	-5.39641E-002	3.96452E-001	3.57250E+000	9	...........
	61	0.826667	3.91336E-001	-8.87884E-005	0.00000E+000	-3.47461E-005	-5.39641E-002	3.91389E-001	3.57250E+000	9	...........
	62	0.84	3.86267E-001	-8.86634E-005	0.00000E+000	-3.42477E-005	-5.39641E-002	3.86322E-001	3.57250E+000	9	...........
	63	0.853333	3.81221E-001	-8.87759E-005	0.00000E+000	-3.38432E-005	-5.39641E-002	3.81274E-001	3.57250E+000	9	...........
	64	0.866667	3.76188E-001	-8.88280E-005	0.00000E+000	-3.34160E-005	-5.39641E-002	3.76237E-001	3.57250E+000	9	...........
	65	0.88	3.71156E-001	-8.87405E-005	0.00000E+000	-3.29366E-005	-5.39641E-002	3.71200E-001	3.57250E+000	9	...........
	66	0.893333	3.66145E-001	-8.90687E-005	0.00000E+000	-3.26121E-005	-5.39641E-002	3.66198E-001	3.57250E+000	9	...........
	67	0.906667	3.61146E-001	-8.87207E-005	0.00000E+000	-3.20411E-005	-5.39641E-002	3.61195E-001	3.57250E+000	9	...........
	68	0.92	3.56166E-001	-8.88061E-005	0.00000E+000	-3.16298E-005	-5.39641E-002	3.56214E-001	3.57250E+000	9	...........
	69	0.933333	3.51210E-001	-8.88249E-005	0.00000E+000	-3.11962E-005	-5.39641E-002	3.51256E-001	3.57250E+000	9	...........
	70	0.946667	3.46257E-001	-8.89374E-005	0.00000E+000	-3.07952E-005	-5.39641E-002	3.46307E-001	3.57250E+000	9	...........
	71	0.96	3.41326E-001	-8.88645E-005	0.00000E+000	-3.03318E-005	-5.39641E-002	3.41368E-001	3.57250E+000	9	...........
	72	0.97333	3.36419E-001	-8.87259E-005	0.00000E+000	-2.98490E-005	-5.39641E-002	3.36462E-001	3.57250E+000	9	...........
	73	0.98667	3.31518E-001	-8.88238E-005	0.00000E+000	-2.94467E-005	-5.39641E-002	3.31558E-001	3.57250E+000	9	...........
	74	1	3.26633E-001	-8.89020E-005	0.00000E+000	-2.90383E-005	-5.39641E-002	3.26674E-001	3.57250E+000	9	...........
	75	1.01333	3.21775E-001	-8.87843E-005	0.00000E+000	-2.85686E-005	-5.39641E-002	3.21813E-001	3.57250E+000	9	...........
	76	1.02667	3.16926E-001	-8.86696E-005	0.00000E+000	-2.81017E-005	-5.39641E-002	3.16964E-001	3.57250E+000	9	...........
	77	1.04	3.12092E-001	-8.86874E-005	0.00000E+000	-2.76786E-005	-5.39641E-002	3.12133E-001	3.57250E+000	9	...........
	78	1.05333	3.07279E-001	-8.85498E-005	0.00000E+000	-2.72095E-005	-5.39641E-002	3.07316E-001	3.57250E+000	9	...........
	79	1.06667	3.02482E-001	-8.87686E-005	0.00000E+000	-2.68509E-005	-5.39641E-002	3.02517E-001	3.57250E+000	9	...........
	80	1.08	2.97696E-001	-8.87686E-005	0.00000E+000	-2.64261E-005	-5.39641E-002	2.97731E-001	3.57250E+000	9	...........
	81	1.09333	2.92927E-001	-8.87353E-005	0.00000E+000	-2.59929E-005	-5.39641E-002	2.92972E-001	3.57250E+000	9	...........
	82	1.10667	2.88191E-001	-8.88572E-005	0.00000E+000	-2.56078E-005	-5.39641E-002	2.88225E-001	3.57250E+000	9	...........
	83	1.12	2.83470E-001	-8.86488E-005	0.00000E+000	-2.51293E-005	-5.39641E-002	2.83510E-001	3.57250E+000	9	...........
	84	1.13333	2.78760E-001	-8.87270E-005	0.00000E+000	-2.47335E-005	-5.39641E-002	2.78797E-001	3.57250E+000	9	...........
	85	1.14667	2.74073E-001	-8.86894E-005	0.00000E+000	-2.43074E-005	-5.39641E-002	2.74110E-001	3.57250E+000	9	...........
	86	1.16	2.69390E-001	-8.87269E-005	0.00000E+000	-2.39022E-005	-5.39641E-002	2.69422E-001	3.57250E+000	9	...........
	87	1.17333	2.64736E-001	-8.88895E-005	0.00000E+000	-2.35323E-005	-5.39641E-002	2.64770E-001	3.57250E+000	9	...........
	88	1.18667	2.60093E-001	-8.87103E-005	0.00000E+000	-2.30730E-005	-5.39641E-002	2.60128E-001	3.57250E+000	9	...........
	89	1.2	2.55475E-001	-8.88238E-005	0.00000E+000	-2.26923E-005	-5.39641E-002	2.55506E-001	3.57246E+000	9	...........
	90	1.21333	2.50869E-001	-8.85790E-005	0.00000E+000	-2.22217E-005	-5.39641E-002	2.50903E-001	3.57240E+000	9	...........
	91	1.22667	2.46300E-001	-8.86769E-005	0.00000E+000	-2.18411E-005	-5.39641E-002	2.46330E-001	3.57240E+000	9	...........
	92	1.24	2.41739E-001	-8.86405E-005	0.00000E+000	-2.14279E-005	-5.39641E-002	2.41768E-001	3.57240E+000	9	...........
	93	1.25333	2.37199E-001	-8.90822E-005	0.00000E+000	-2.11302E-005	-5.39641E-002	2.37223E-001	3.57240E+000	9	...........
	94	1.26667	2.32690E-001	-8.88499E-005	0.00000E+000	-2.06745E-005	-5.39641E-002	2.32717E-001	3.57240E+000	9	...........
	95	1.28	2.28200E-001	-8.89124E-005	0.00000E+000	-2.02898E-005	-5.39641E-002	2.28230E-001	3.57240E+000	9	...........
	96	1.29333	2.23720E-001	-8.87665E-005	0.00000E+000	-1.98588E-005	-5.39641E-002	2.23744E-001	3.57240E+000	9	...........
	97	1.30667	2.19262E-001	-8.87342E-005	0.00000E+000	-1.94560E-005	-5.39641E-002	2.19292E-001	3.57240E+000	9	...........
	98	1.32	2.14830E-001	-8.88843E-005	0.00000E+000	-1.90950E-005	-5.39641E-002	2.14857E-001	3.57240E+000	9	...........
	99	1.33333	2.10415E-001	-8.87832E-005	0.00000E+000	-1.86813E-005	-5.39641E-002	2.10438E-001	3.57240E+000	9	...........
	100	1.34667	2.06008E-001	-8.87999E-005	0.00000E+000	-1.82935E-005	-5.39641E-002	2.06034E-001	3.57240E+000	9	...........
	101	1.36	2.01645E-001	-8.88905E-005	0.00000E+000	-1.79243E-005	-5.39641E-002	2.01669E-001	3.57240E+000	9	...........
	102	1.37333	1.97321E-001	-8.87374E-005	0.00000E+000	-1.75098E-005	-5.39641E-002	1.97342E-001	3.57240E+000	9	...........
	103	1.38667	1.92996E-001	-8.88426E-005	0.00000E+000	-1.71462E-005	-5.39641E-002	1.93023E-001	3.57240E+000	9	...........
	104	1.4	1.88692E-001	-8.86311E-005	0.00000E+000	-1.67240E-005	-5.39641E-002	1.88712E-001	3.57240E+000	9	...........
	105	1.41333	1.84413E-001	-8.86738E-005	0.00000E+000	-1.63526E-005	-5.39641E-002	1.84432E-001	3.57240E+000	9	...........
	106	1.42667	1.80134E-001	-8.87436E-005	0.00000E+000	-1.59858E-005	-5.39641E-002	1.80157E-001	3.57240E+000	9	...........
	107	1.44	1.75871E-001	-8.88374E-005	0.00000E+000	-1.56239E-005	-5.39641E-002	1.75893E-001	3.57240E+000	9	...........
	108	1.45333	1.71624E-001	-8.90166E-005	0.00000E+000	-1.52774E-005	-5.39641E-002	1.71644E-001	3.57240E+000	9	...........
	109	1.46667	1.67409E-001	-8.86613E-005	0.00000E+000	-1.48427E-005	-5.39641E-002	1.67429E-001	3.57240E+000	9	...........
	110	1.48	1.63209E-001	-8.85925E-005	0.00000E+000	-1.44591E-005	-5.39641E-002	1.63229E-001	3.57240E+000	9	...........
	111	1.49333	1.59036E-001	-8.90499E-005	0.00000E+000	-1.41621E-005	-5.39641E-002	1.59053E-001	3.57240E+000	9	...........
	112	1.50667	1.54867E-001	-8.86040E-005	0.00000E+000	-1.37219E-005	-5.39641E-002	1.54883E-001	3.57240E+000	9	...........
	113	1.52	1.50717E-001	-8.87613E-005	0.00000E+000	-1.33779E-005	-5.39641E-002	1.50735E-001	3.57240E+000	9	...........
	114	1.53333	1.46606E-001	-8.84863E-005	0.00000E+000	-1.29726E-005	-5.39641E-002	1.46624E-001	3.57240E+000	9	...........
	115	1.54667	1.42506E-001	-8.88082E-005	0.00000E+000	-1.26557E-005	-5.39641E-002	1.42524E-001	3.57240E+000	9	...........
	116	1.56	1.38420E-001	-8.87770E-005	0.00000E+000	-1.22885E-005	-5.39641E-002	1.38438E-001	3.57240E+000	9	...........
	117	1.57333	1.34347E-001	-8.88207E-005	0.00000E+000	-1.19328E-005	-5.39641E-002	1.34358E-001	3.57240E+000	9	...........
	118	1.58667	1.30295E-001	-8.88697E-005	0.00000E+000	-1.15793E-005	-5.39641E-002	1.30310E-001	3.57240E+000	9	...........
	119	1.6	1.26262E-001	-8.88874E-005	0.00000E+000	-1.12231E-005	-5.39641E-002	1.26273E-001	3.57240E+000	9	...........
	120	1.61333	1.22226E-001	-8.87947E-005	0.00000E+000	-1.08530E-005	-5.39641E-002	1.22241E-001	3.57240E+000	9	...........
	121	1.62667	1.18213E-001	-8.89833E-005	0.00000E+000	-1.05190E-005	-5.39641E-002	1.18225E-001	3.57240E+000	9	...........
	122	1.64	1.14230E-001	-8.88791E-005	0.00000E+000	-1.01526E-005	-5.39641E-002	1.14244E-001	3.57240E+000	9	...........
	123	1.65333	1.10266E-001	-8.86696E-005	0.00000E+000	-9.77723E-006	-5.39641E-002	1.10276E-001	3.57240E+000	9	...........
	124	1.66667	1.06303E-001	-8.87790E-005	0.00000E+000	-9.43744E-006	-5.39641E-002	1.06313E-001	3.57240E+000	9	...........
	125	1.68	1.02369E-001	-8.87655E-005	0.00000E+000	-9.08680E-006	-5.39641E-002	1.02374E-001	3.57240E+000	9	...........
	126	1.69333	9.84464E-002	-8.86874E-005	0.00000E+000	-8.73095E-006	-5.39641E-002	9.84631E-002	3.57240E+000	9	...........
	127	1.70667	9.45577E-002	-8.88166E-005	0.00000E+000	-8.39829E-006	-5.39641E-002	9.45659E-002	3.57240E+000	9	...........
	128	1.72	9.06856E-002	-8.89145E-005	0.00000E+000	-8.06326E-006	-5.39641E-002	9.06978E-002	3.57240E+000	9	...........
	129	1.73333	8.68195E-002	-8.88134E-005	0.00000E+000	-7.71073E-006	-5.39641E-002	8.68312E-002	3.57240E+000	9	...........
	130	1.74667	8.29696E-002	-8.87509E-005	0.00000E+000	-7.36363E-006	-5.39641E-002	8.29841E-002	3.57240E+000	9	...........
	131	1.76	7.91394E-002	-8.87509E-005	0.00000E+000	-7.02370E-006	-5.39641E-002	7.91466E-002	3.57240E+000	9	...........
	132	1.77333	7.53281E-002	-8.86842E-005	0.00000E+000	-6.68041E-006	-5.39641E-002	7.53343E-002	3.57240E+000	9	...........
	133	1.78667	7.15485E-002	-8.89551E-005	0.00000E+000	-6.36461E-006	-5.39641E-002	7.15524E-002	3.57240E+000	9	...........
	134	1.8	6.77754E-002	-8.86884E-005	0.00000E+000	-6.01089E-006	-5.39641E-002	6.77773E-002	3.57240E+000	9	...........
	135	1.81333	6.40012E-002	-8.87207E-005	0.00000E+000	-5.67823E-006	-5.39641E-002	6.40054E-002	3.57240E+000	9	...........
	136	1.82667	6.02427E-002	-8.89687E-005	0.00000E+000	-5.35971E-006	-5.39641E-002	6.02466E-002	3.57240E+000	9	...........
	137	1.84	5.64976E-002	-8.84717E-005	0.00000E+000	-4.99844E-006	-5.39641E-002	5.65059E-002	3.57240E+000	9	...........
	138	1.85333	5.27766E-002	-8.86582E-005	0.00000E+000	-4.67908E-006	-5.39641E-002	5.27746E-002	3.57240E+000	9	...........
	139	1.86667	4.90607E-002	-8.87478E-005	0.00000E+000	-4.35403E-006	-5.39641E-002	4.90696E-002	3.57240E+000	9	...........
	140	1.88	4.53688E-002	-8.86363E-005	0.00000E+000	-4.02132E-006	-5.39641E-002	4.53800E-002	3.57240E+000	9	...........
	141	1.89333	4.16876E-002	-8.89551E-005	0.00000E+000	-3.70832E-006	-5.39641E-002	4.16971E-002	3.57240E+000	9	...........
	142	1.90667	3.80207E-002	-8.89041E-005	0.00000E+000	-3.38020E-006	-5.39641E-002	3.80298E-002	3.57240E+000	9	...........
	143	1.92	3.43671E-002	-8.88749E-005	0.00000E+000	-3.05437E-006	-5.39641E-002	3.43756E-002	3.57240E+000	9	...........
	144	1.93333	3.07451E-002	-8.88145E-005	0.00000E+000	-2.73061E-006	-5.39641E-002	3.07482E-002	3.57240E+000	9	...........
	145	1.94667	2.71332E-002	-8.87082E-005	0.00000E+000	-2.40694E-006	-5.39641E-002	2.71326E-002	3.57240E+000	9	...........
	146	1.96	2.35359E-002	-8.89124E-005	0.00000E+000	-2.09263E-006	-5.39641E-002	2.35358E-002	3.57240E+000	9	...........
	147	1.97333	1.99601E-002	-8.90145E-005	0.00000E+000	-1.77673E-006	-5.39641E-002	1.99579E-002	3.57240E+000	9	...........
	148	1.98667	1.64015E-002	-8.90051E-005	0.00000E+000	-1.45982E-006	-5.39641E-002	1.63962E-002	3.57240E+000	9	...........
	149	2	1.28609E-002	-8.90572E-005	0.00000E+000	-1.14536E-006	-5.39641E-002	1.28563E-002	3.57240E+000	9	...........
	150	2.01333	9.33778E-003	-8.90291E-005	0.00000E+000	-8.31334E-007	-5.39641E-002	9.32992E-003	3.57240E+000	9	...........
	151	2.02667	5.82642E-003	-8.86696E-005	0.00000E+000	-5.16627E-007	-5.39641E-002	5.81758E-003	3.57240E+000	9	...........
	152	2.04	2.33959E-003	-8.87634E-005	0.00000E+000	-2.07670E-007	-5.39641E-002	2.32318E-003	3.57240E+000	9	...........
	153	2.04333	1.69252E-004	-8.87124E-005	0.00000E+000	-1.50148E-008	-5.39641E-002	1.56477E-004	3.57240E+000	9	...........
STARTTIMEOFFSET	QUANT	1820.343	Start Time Offset (s)
