EXPLAIN
TAG	PWR800_DISCHARGE
TITLE	LABEL	PWR Cyclic Charge Discharge (Cell) - Discharge Step	Test &Identifier
DATE	LABEL	10-7-2017	Date
TIME	LABEL	16:23:22	Time
NOTES	NOTES	3	&Notes...
	supercap test cell
	0.9mg
	6M KOH
PSTAT	PSTAT	IFC5000-01520	Potentiostat
CAPACITY	QUANT	1.00000E-003	Capacity (A-hr)
CELLTYPE	SELECTOR	1	&Cell Type
WORKINGCONNECTION	SELECTOR	0	&Working Lead
MAXDISCHARGETIME	VARIABLEANDUNITS	1.00000E+002	s	1.00000E+002	second(s)	Max &Discharge Time
DISCHARGEMODE	MULTIPARAM	0	9.00000E-005	&Discharge Mode	Constant Current	Amp(s)
SAMPLETIME	QUANT	1.00000E-002	Sa&mple Period (s)
DISCHARGESTOPAT1	MULTIPARAM	3	0.00000E+000	Discharge Stop At &1	Voltage < Limit	V
DISCHARGESTOPAT2	MULTIPARAM	0	0.00000E+000	Discharge Stop At &2	None	N/A
AESBHCSELECTOR	TOGGLE	F	Save Both Half Cells
IRCOMP	TOGGLE	F	IR &Measure
EOC	QUANT	0	Open Circuit (V)
SEQUENCER	TOGGLE	TRUE	Run as Sequence
PSTATMODEL	IQUANT	53	Pstat Model
PSTATSECTION	LABEL	IFC5000-01520	Pstat Section
PSTATSERIALNO	LABEL	01520	Pstat Serial Number
CTRLMODE	IQUANT	0	Control Mode
ELECTROMETER	IQUANT	1	RE=0 or CS=1
IESTAB	IQUANT	0	I/E Stability
CASPEED	IQUANT	4	Control Amp Speed
CONVENTION	IQUANT	1	Current Convention
ICHRANGE	IQUANT	2	Ich Range
ICHRANGEMODE	TOGGLE	T	Ich Auto Range
ICHOFFSETENABLE	TOGGLE	F	Ich Offset Enable
ICHOFFSET	QUANT	0	Ich Offset (V)
ICHFILTER	IQUANT	1	Ich Filter
VCHRANGE	IQUANT	2	Vch Range
VCHRANGEMODE	TOGGLE	T	Vch Auto Range
VCHOFFSETENABLE	TOGGLE	F	Vch Offset Enable
VCHOFFSET	QUANT	0	Vch Offset (V)
VCHFILTER	IQUANT	1	Vch Filter
IERANGELOWERLIMIT	IQUANT	9	I/E Range Lower Limit
IERANGEMODE	TOGGLE	F	I/E AutoRange
IERANGE	IQUANT	9	I/E Range
ACHSELECT	IQUANT	1	Ach Select
ACHRANGE	IQUANT	2	Ach Range
ACHOFFSETENABLE	TOGGLE	F	Ach Offset Enable
ACHOFFSET	QUANT	0	Ach Offset (V)
ACHFILTER	IQUANT	1	Ach Filter
CABLEID	IQUANT	14	Cable ID
DCCALDATE	LABEL	5-7-2017	DC Calibration Date
ACCALDATE	LABEL	12/3/2015	AC Calibration Date
FRAMEWORKVERSION	QUANT	7.01	Framework Version
INSTRUMENTVERSION	LABEL	4.00	Instrument Version
CURVE	TABLE	146
	Pt	T	Vf	Im	Vu	Pwr	Sig	Ach	Temp	IERange	Over
	#	s	V	A	V	W	V	V	deg C	#	bits
	0	0.013333	7.97668E-001	-8.87572E-005	0.00000E+000	-7.07987E-005	-5.39641E-002	7.97806E-001	3.57290E+000	9	...........
	1	0.026667	7.83203E-001	-8.86780E-005	0.00000E+000	-6.94529E-005	-5.39641E-002	7.83362E-001	3.57290E+000	9	...........
	2	0.04	7.69767E-001	-8.87801E-005	0.00000E+000	-6.83400E-005	-5.39641E-002	7.69911E-001	3.57290E+000	9	...........
	3	0.053333	7.57121E-001	-8.89385E-005	0.00000E+000	-6.73372E-005	-5.39641E-002	7.57256E-001	3.57290E+000	9	...........
	4	0.066667	7.45133E-001	-8.88749E-005	0.00000E+000	-6.62236E-005	-5.39641E-002	7.45276E-001	3.57290E+000	9	...........
	5	0.08	7.33685E-001	-8.87467E-005	0.00000E+000	-6.51122E-005	-5.39641E-002	7.33844E-001	3.57290E+000	9	...........
	6	0.093333	7.22776E-001	-8.91114E-005	0.00000E+000	-6.44076E-005	-5.39641E-002	7.22889E-001	3.57290E+000	9	...........
	7	0.106667	7.12201E-001	-8.88280E-005	0.00000E+000	-6.32634E-005	-5.39641E-002	7.12351E-001	3.57290E+000	9	...........
	8	0.12	7.02091E-001	-8.88634E-005	0.00000E+000	-6.23902E-005	-5.39641E-002	7.02189E-001	3.57290E+000	9	...........
	9	0.133333	6.92301E-001	-8.87290E-005	0.00000E+000	-6.14272E-005	-5.39641E-002	6.92403E-001	3.57290E+000	9	...........
	10	0.146667	6.82806E-001	-8.87665E-005	0.00000E+000	-6.06103E-005	-5.39641E-002	6.82899E-001	3.57290E+000	9	...........
	11	0.16	6.73639E-001	-8.87019E-005	0.00000E+000	-5.97531E-005	-5.39641E-002	6.73733E-001	3.57290E+000	9	...........
	12	0.173333	6.64701E-001	-8.88457E-005	0.00000E+000	-5.90558E-005	-5.39641E-002	6.64807E-001	3.57290E+000	9	...........
	13	0.186667	6.56008E-001	-8.88968E-005	0.00000E+000	-5.83170E-005	-5.39641E-002	6.56101E-001	3.57290E+000	9	...........
	14	0.2	6.47542E-001	-8.87478E-005	0.00000E+000	-5.74679E-005	-5.39641E-002	6.47642E-001	3.57290E+000	9	...........
	15	0.213333	6.39303E-001	-8.87061E-005	0.00000E+000	-5.67101E-005	-5.39641E-002	6.39383E-001	3.57290E+000	9	...........
	16	0.226667	6.31235E-001	-8.87634E-005	0.00000E+000	-5.60305E-005	-5.39641E-002	6.31331E-001	3.57290E+000	9	...........
	17	0.24	6.23378E-001	-8.88218E-005	0.00000E+000	-5.53695E-005	-5.39641E-002	6.23443E-001	3.57290E+000	9	...........
	18	0.253333	6.15651E-001	-8.89395E-005	0.00000E+000	-5.47557E-005	-5.39641E-002	6.15773E-001	3.57290E+000	9	...........
	19	0.266667	6.08064E-001	-8.86655E-005	0.00000E+000	-5.39142E-005	-5.39641E-002	6.08214E-001	3.57290E+000	9	...........
	20	0.28	6.00672E-001	-8.86394E-005	0.00000E+000	-5.32432E-005	-5.39641E-002	6.00811E-001	3.57290E+000	9	...........
	21	0.293333	5.93442E-001	-8.88155E-005	0.00000E+000	-5.27069E-005	-5.39641E-002	5.93583E-001	3.57290E+000	9	...........
	22	0.306667	5.86321E-001	-8.87467E-005	0.00000E+000	-5.20341E-005	-5.39641E-002	5.86453E-001	3.57290E+000	9	...........
	23	0.32	5.79337E-001	-8.90895E-005	0.00000E+000	-5.16128E-005	-5.39641E-002	5.79468E-001	3.57290E+000	9	...........
	24	0.333333	5.72515E-001	-8.87092E-005	0.00000E+000	-5.07874E-005	-5.39641E-002	5.72566E-001	3.57290E+000	9	...........
	25	0.346667	5.65769E-001	-8.89593E-005	0.00000E+000	-5.03304E-005	-5.39641E-002	5.65845E-001	3.57290E+000	9	...........
	26	0.36	5.59102E-001	-8.86665E-005	0.00000E+000	-4.95736E-005	-5.39641E-002	5.59200E-001	3.57290E+000	9	...........
	27	0.373333	5.52573E-001	-8.89145E-005	0.00000E+000	-4.91318E-005	-5.39641E-002	5.52689E-001	3.57290E+000	9	...........
	28	0.386667	5.46131E-001	-8.88468E-005	0.00000E+000	-4.85220E-005	-5.39641E-002	5.46212E-001	3.57290E+000	9	...........
	29	0.4	5.39761E-001	-8.88645E-005	0.00000E+000	-4.79656E-005	-5.39641E-002	5.39864E-001	3.57290E+000	9	...........
	30	0.413333	5.33475E-001	-8.87436E-005	0.00000E+000	-4.73425E-005	-5.39641E-002	5.33565E-001	3.57290E+000	9	...........
	31	0.426667	5.27254E-001	-8.90718E-005	0.00000E+000	-4.69634E-005	-5.39641E-002	5.27387E-001	3.57290E+000	9	...........
	32	0.44	5.21167E-001	-8.89510E-005	0.00000E+000	-4.63583E-005	-5.39641E-002	5.21265E-001	3.57290E+000	9	...........
	33	0.453333	5.15159E-001	-8.87947E-005	0.00000E+000	-4.57434E-005	-5.39641E-002	5.15256E-001	3.57290E+000	9	...........
	34	0.466667	5.09138E-001	-8.89697E-005	0.00000E+000	-4.52979E-005	-5.39641E-002	5.09250E-001	3.57290E+000	9	...........
	35	0.48	5.03244E-001	-8.86290E-005	0.00000E+000	-4.46020E-005	-5.39641E-002	5.03355E-001	3.57290E+000	9	...........
	36	0.493333	4.97445E-001	-8.87957E-005	0.00000E+000	-4.41710E-005	-5.39641E-002	4.97538E-001	3.57290E+000	9	...........
	37	0.506667	4.91699E-001	-8.88561E-005	0.00000E+000	-4.36905E-005	-5.39641E-002	4.91786E-001	3.57290E+000	9	...........
	38	0.52	4.86023E-001	-8.87884E-005	0.00000E+000	-4.31532E-005	-5.39641E-002	4.86113E-001	3.57290E+000	9	...........
	39	0.533333	4.80457E-001	-8.87228E-005	0.00000E+000	-4.26275E-005	-5.39641E-002	4.80519E-001	3.57290E+000	9	...........
	40	0.546667	4.74841E-001	-8.86488E-005	0.00000E+000	-4.20941E-005	-5.39641E-002	4.74907E-001	3.57290E+000	9	...........
	41	0.56	4.69283E-001	-8.85415E-005	0.00000E+000	-4.15510E-005	-5.39641E-002	4.69345E-001	3.57290E+000	9	...........
	42	0.573333	4.63770E-001	-8.87853E-005	0.00000E+000	-4.11760E-005	-5.39641E-002	4.63838E-001	3.57290E+000	9	...........
	43	0.586667	4.58311E-001	-8.88676E-005	0.00000E+000	-4.07290E-005	-5.39641E-002	4.58372E-001	3.57290E+000	9	...........
	44	0.6	4.52871E-001	-8.87697E-005	0.00000E+000	-4.02012E-005	-5.39641E-002	4.52939E-001	3.57290E+000	9	...........
	45	0.613333	4.47483E-001	-8.86790E-005	0.00000E+000	-3.96823E-005	-5.39641E-002	4.47546E-001	3.57290E+000	9	...........
	46	0.626667	4.42117E-001	-8.89728E-005	0.00000E+000	-3.93364E-005	-5.39641E-002	4.42189E-001	3.57290E+000	9	...........
	47	0.64	4.36802E-001	-8.86467E-005	0.00000E+000	-3.87210E-005	-5.39641E-002	4.36863E-001	3.57290E+000	9	...........
	48	0.653333	4.31510E-001	-8.89499E-005	0.00000E+000	-3.83828E-005	-5.39641E-002	4.31568E-001	3.57290E+000	9	...........
	49	0.666667	4.26244E-001	-8.88853E-005	0.00000E+000	-3.78869E-005	-5.39641E-002	4.26309E-001	3.57290E+000	9	...........
	50	0.68	4.21024E-001	-8.87061E-005	0.00000E+000	-3.73474E-005	-5.39641E-002	4.21086E-001	3.57290E+000	9	...........
	51	0.693333	4.15833E-001	-8.87259E-005	0.00000E+000	-3.68952E-005	-5.39641E-002	4.15897E-001	3.57290E+000	9	...........
	52	0.706667	4.10670E-001	-8.92604E-005	0.00000E+000	-3.66565E-005	-5.39641E-002	4.10726E-001	3.57290E+000	9	...........
	53	0.72	4.05528E-001	-8.87540E-005	0.00000E+000	-3.59923E-005	-5.39641E-002	4.05587E-001	3.57290E+000	9	...........
	54	0.733333	4.00413E-001	-8.85686E-005	0.00000E+000	-3.54641E-005	-5.39641E-002	4.00468E-001	3.57290E+000	9	...........
	55	0.746667	3.95321E-001	-8.89457E-005	0.00000E+000	-3.51621E-005	-5.39641E-002	3.95372E-001	3.57290E+000	9	...........
	56	0.76	3.90239E-001	-8.87259E-005	0.00000E+000	-3.46243E-005	-5.39641E-002	3.90287E-001	3.57290E+000	9	...........
	57	0.773333	3.85164E-001	-8.86967E-005	0.00000E+000	-3.41628E-005	-5.39641E-002	3.85216E-001	3.57290E+000	9	...........
	58	0.786667	3.80110E-001	-8.89895E-005	0.00000E+000	-3.38258E-005	-5.39641E-002	3.80160E-001	3.57290E+000	9	...........
	59	0.8	3.75068E-001	-8.86967E-005	0.00000E+000	-3.32673E-005	-5.39641E-002	3.75116E-001	3.57290E+000	9	...........
	60	0.813333	3.70049E-001	-8.88520E-005	0.00000E+000	-3.28796E-005	-5.39641E-002	3.70094E-001	3.57290E+000	9	...........
	61	0.826667	3.65054E-001	-8.89499E-005	0.00000E+000	-3.24715E-005	-5.39641E-002	3.65108E-001	3.57290E+000	9	...........
	62	0.84	3.60064E-001	-8.87155E-005	0.00000E+000	-3.19433E-005	-5.39641E-002	3.60113E-001	3.57290E+000	9	...........
	63	0.853333	3.55095E-001	-8.85738E-005	0.00000E+000	-3.14521E-005	-5.39641E-002	3.55142E-001	3.57290E+000	9	...........
	64	0.866667	3.50137E-001	-8.88051E-005	0.00000E+000	-3.10940E-005	-5.39641E-002	3.50182E-001	3.57290E+000	9	...........
	65	0.88	3.45193E-001	-8.86144E-005	0.00000E+000	-3.05891E-005	-5.39641E-002	3.45234E-001	3.57290E+000	9	...........
	66	0.893333	3.40253E-001	-8.87040E-005	0.00000E+000	-3.01818E-005	-5.39641E-002	3.40288E-001	3.57290E+000	9	...........
	67	0.906667	3.35344E-001	-8.85186E-005	0.00000E+000	-2.96842E-005	-5.39641E-002	3.35380E-001	3.57290E+000	9	...........
	68	0.92	3.30457E-001	-8.87238E-005	0.00000E+000	-2.93194E-005	-5.39641E-002	3.30496E-001	3.57290E+000	9	...........
	69	0.933333	3.25577E-001	-8.87874E-005	0.00000E+000	-2.89071E-005	-5.39641E-002	3.25617E-001	3.57290E+000	9	...........
	70	0.946667	3.20703E-001	-8.89332E-005	0.00000E+000	-2.85212E-005	-5.39641E-002	3.20738E-001	3.57290E+000	9	...........
	71	0.96	3.15831E-001	-8.86863E-005	0.00000E+000	-2.80099E-005	-5.39641E-002	3.15875E-001	3.57290E+000	9	...........
	72	0.97333	3.10981E-001	-8.88739E-005	0.00000E+000	-2.76381E-005	-5.39641E-002	3.11017E-001	3.57290E+000	9	...........
	73	0.98667	3.06140E-001	-8.88811E-005	0.00000E+000	-2.72101E-005	-5.39641E-002	3.06178E-001	3.57290E+000	9	...........
	74	1	3.01312E-001	-8.85425E-005	0.00000E+000	-2.66790E-005	-5.39641E-002	3.01347E-001	3.57290E+000	9	...........
	75	1.01333	2.96493E-001	-8.86457E-005	0.00000E+000	-2.62828E-005	-5.39641E-002	2.96531E-001	3.57290E+000	9	...........
	76	1.02667	2.91683E-001	-8.88478E-005	0.00000E+000	-2.59154E-005	-5.39641E-002	2.91723E-001	3.57290E+000	9	...........
	77	1.04	2.86881E-001	-8.90708E-005	0.00000E+000	-2.55527E-005	-5.39641E-002	2.86918E-001	3.57290E+000	9	...........
	78	1.05333	2.82081E-001	-8.88124E-005	0.00000E+000	-2.50522E-005	-5.39641E-002	2.82121E-001	3.57290E+000	9	...........
	79	1.06667	2.77303E-001	-8.88259E-005	0.00000E+000	-2.46317E-005	-5.39641E-002	2.77339E-001	3.57290E+000	9	...........
	80	1.08	2.72533E-001	-8.87134E-005	0.00000E+000	-2.41773E-005	-5.39641E-002	2.72572E-001	3.57290E+000	9	...........
	81	1.09333	2.67774E-001	-8.85082E-005	0.00000E+000	-2.37002E-005	-5.39641E-002	2.67808E-001	3.57290E+000	9	...........
	82	1.10667	2.63020E-001	-8.88009E-005	0.00000E+000	-2.33564E-005	-5.39641E-002	2.63060E-001	3.57290E+000	9	...........
	83	1.12	2.58294E-001	-8.90103E-005	0.00000E+000	-2.29909E-005	-5.39641E-002	2.58327E-001	3.57290E+000	9	...........
	84	1.13333	2.53585E-001	-8.87395E-005	0.00000E+000	-2.25030E-005	-5.39641E-002	2.53614E-001	3.57290E+000	9	...........
	85	1.14667	2.48888E-001	-8.89728E-005	0.00000E+000	-2.21443E-005	-5.39641E-002	2.48920E-001	3.57290E+000	9	...........
	86	1.16	2.44209E-001	-8.87853E-005	0.00000E+000	-2.16822E-005	-5.39641E-002	2.44235E-001	3.57290E+000	9	...........
	87	1.17333	2.39531E-001	-8.89666E-005	0.00000E+000	-2.13102E-005	-5.39641E-002	2.39553E-001	3.57290E+000	9	...........
	88	1.18667	2.34865E-001	-8.90124E-005	0.00000E+000	-2.09059E-005	-5.39641E-002	2.34890E-001	3.57290E+000	9	...........
	89	1.2	2.30219E-001	-8.87853E-005	0.00000E+000	-2.04401E-005	-5.39641E-002	2.30243E-001	3.57290E+000	9	...........
	90	1.21333	2.25576E-001	-8.87301E-005	0.00000E+000	-2.00154E-005	-5.39641E-002	2.25607E-001	3.57290E+000	9	...........
	91	1.22667	2.20954E-001	-8.88280E-005	0.00000E+000	-1.96269E-005	-5.39641E-002	2.20980E-001	3.57290E+000	9	...........
	92	1.24	2.16336E-001	-8.87978E-005	0.00000E+000	-1.92102E-005	-5.39641E-002	2.16359E-001	3.57290E+000	9	...........
	93	1.25333	2.11765E-001	-8.88072E-005	0.00000E+000	-1.88062E-005	-5.39641E-002	2.11785E-001	3.57290E+000	9	...........
	94	1.26667	2.07208E-001	-8.87436E-005	0.00000E+000	-1.83884E-005	-5.39641E-002	2.07231E-001	3.57290E+000	9	...........
	95	1.28	2.02662E-001	-8.88280E-005	0.00000E+000	-1.80021E-005	-5.39641E-002	2.02688E-001	3.57290E+000	9	...........
	96	1.29333	1.98146E-001	-8.86311E-005	0.00000E+000	-1.75619E-005	-5.39641E-002	1.98174E-001	3.57290E+000	9	...........
	97	1.30667	1.93643E-001	-8.88530E-005	0.00000E+000	-1.72058E-005	-5.39641E-002	1.93668E-001	3.57290E+000	9	...........
	98	1.32	1.89159E-001	-8.87394E-005	0.00000E+000	-1.67858E-005	-5.39641E-002	1.89183E-001	3.57290E+000	9	...........
	99	1.33333	1.84699E-001	-8.88301E-005	0.00000E+000	-1.64068E-005	-5.39641E-002	1.84721E-001	3.57290E+000	9	...........
	100	1.34667	1.80250E-001	-8.90072E-005	0.00000E+000	-1.60435E-005	-5.39641E-002	1.80275E-001	3.57290E+000	9	...........
	101	1.36	1.75831E-001	-8.87863E-005	0.00000E+000	-1.56114E-005	-5.39641E-002	1.75856E-001	3.57290E+000	9	...........
	102	1.37333	1.71411E-001	-8.88624E-005	0.00000E+000	-1.52320E-005	-5.39641E-002	1.71435E-001	3.57290E+000	9	...........
	103	1.38667	1.67001E-001	-8.88374E-005	0.00000E+000	-1.48359E-005	-5.39641E-002	1.67031E-001	3.57290E+000	9	...........
	104	1.4	1.62620E-001	-8.88395E-005	0.00000E+000	-1.44471E-005	-5.39641E-002	1.62641E-001	3.57290E+000	9	...........
	105	1.41333	1.58246E-001	-8.87988E-005	0.00000E+000	-1.40520E-005	-5.39641E-002	1.58266E-001	3.57290E+000	9	...........
	106	1.42667	1.53897E-001	-8.87592E-005	0.00000E+000	-1.36598E-005	-5.39641E-002	1.53909E-001	3.57290E+000	9	...........
	107	1.44	1.49557E-001	-8.91427E-005	0.00000E+000	-1.33319E-005	-5.39641E-002	1.49575E-001	3.57290E+000	9	...........
	108	1.45333	1.45245E-001	-8.87780E-005	0.00000E+000	-1.28946E-005	-5.39641E-002	1.45263E-001	3.57290E+000	9	...........
	109	1.46667	1.40942E-001	-8.87905E-005	0.00000E+000	-1.25143E-005	-5.39641E-002	1.40957E-001	3.57290E+000	9	...........
	110	1.48	1.36657E-001	-8.88426E-005	0.00000E+000	-1.21409E-005	-5.39641E-002	1.36675E-001	3.57290E+000	9	...........
	111	1.49333	1.32394E-001	-8.88322E-005	0.00000E+000	-1.17609E-005	-5.39641E-002	1.32409E-001	3.57290E+000	9	...........
	112	1.50667	1.28153E-001	-8.88655E-005	0.00000E+000	-1.13884E-005	-5.39641E-002	1.28169E-001	3.57290E+000	9	...........
	113	1.52	1.23934E-001	-8.88989E-005	0.00000E+000	-1.10176E-005	-5.39641E-002	1.23947E-001	3.57290E+000	9	...........
	114	1.53333	1.19731E-001	-8.89312E-005	0.00000E+000	-1.06478E-005	-5.39641E-002	1.19745E-001	3.57290E+000	9	...........
	115	1.54667	1.15543E-001	-8.87603E-005	0.00000E+000	-1.02556E-005	-5.39641E-002	1.15555E-001	3.57290E+000	9	...........
	116	1.56	1.11360E-001	-8.88103E-005	0.00000E+000	-9.88992E-006	-5.39641E-002	1.11371E-001	3.57290E+000	9	...........
	117	1.57333	1.07206E-001	-8.87540E-005	0.00000E+000	-9.51494E-006	-5.39641E-002	1.07218E-001	3.57290E+000	9	...........
	118	1.58667	1.03080E-001	-8.88374E-005	0.00000E+000	-9.15734E-006	-5.39641E-002	1.03090E-001	3.57290E+000	9	...........
	119	1.6	9.89648E-002	-8.91218E-005	0.00000E+000	-8.81992E-006	-5.39641E-002	9.89726E-002	3.57290E+000	9	...........
	120	1.61333	9.48755E-002	-8.88020E-005	0.00000E+000	-8.42513E-006	-5.39641E-002	9.48817E-002	3.57290E+000	9	...........
	121	1.62667	9.08054E-002	-8.88051E-005	0.00000E+000	-8.06398E-006	-5.39641E-002	9.08104E-002	3.57290E+000	9	...........
	122	1.64	8.67523E-002	-8.87384E-005	0.00000E+000	-7.69826E-006	-5.39641E-002	8.67544E-002	3.57290E+000	9	...........
	123	1.65333	8.27116E-002	-8.86874E-005	0.00000E+000	-7.33547E-006	-5.39641E-002	8.27154E-002	3.57290E+000	9	...........
	124	1.66667	7.87086E-002	-8.87707E-005	0.00000E+000	-6.98702E-006	-5.39641E-002	7.87071E-002	3.57290E+000	9	...........
	125	1.68	7.47134E-002	-8.88947E-005	0.00000E+000	-6.64163E-006	-5.39641E-002	7.47158E-002	3.57290E+000	9	...........
	126	1.69333	7.07401E-002	-8.89145E-005	0.00000E+000	-6.28982E-006	-5.39641E-002	7.07348E-002	3.57290E+000	9	...........
	127	1.70667	6.67883E-002	-8.89708E-005	0.00000E+000	-5.94221E-006	-5.39641E-002	6.67852E-002	3.57290E+000	9	...........
	128	1.72	6.28404E-002	-8.87863E-005	0.00000E+000	-5.57937E-006	-5.39641E-002	6.28422E-002	3.57290E+000	9	...........
	129	1.73333	5.89193E-002	-8.89093E-005	0.00000E+000	-5.23847E-006	-5.39641E-002	5.89208E-002	3.57290E+000	9	...........
	130	1.74667	5.50098E-002	-8.88791E-005	0.00000E+000	-4.88922E-006	-5.39641E-002	5.50122E-002	3.57290E+000	9	...........
	131	1.76	5.11347E-002	-8.87040E-005	0.00000E+000	-4.53585E-006	-5.39641E-002	5.11327E-002	3.57290E+000	9	...........
	132	1.77333	4.72850E-002	-8.87853E-005	0.00000E+000	-4.19821E-006	-5.39641E-002	4.72935E-002	3.57290E+000	9	...........
	133	1.78667	4.34404E-002	-8.87353E-005	0.00000E+000	-3.85470E-006	-5.39641E-002	4.34458E-002	3.57290E+000	9	...........
	134	1.8	3.96005E-002	-8.89926E-005	0.00000E+000	-3.52415E-006	-5.39641E-002	3.96063E-002	3.57290E+000	9	...........
	135	1.81333	3.57794E-002	-8.89978E-005	0.00000E+000	-3.18429E-006	-5.39641E-002	3.57817E-002	3.57290E+000	9	...........
	136	1.82667	3.19779E-002	-8.88791E-005	0.00000E+000	-2.84217E-006	-5.39641E-002	3.19798E-002	3.57290E+000	9	...........
	137	1.84	2.81824E-002	-8.89134E-005	0.00000E+000	-2.50579E-006	-5.39641E-002	2.81850E-002	3.57290E+000	9	...........
	138	1.85333	2.44127E-002	-8.87384E-005	0.00000E+000	-2.16634E-006	-5.39641E-002	2.44129E-002	3.57290E+000	9	...........
	139	1.86667	2.06735E-002	-8.88218E-005	0.00000E+000	-1.83626E-006	-5.39641E-002	2.06706E-002	3.57290E+000	9	...........
	140	1.88	1.69601E-002	-8.87405E-005	0.00000E+000	-1.50504E-006	-5.39641E-002	1.69522E-002	3.57290E+000	9	...........
	141	1.89333	1.32649E-002	-8.89322E-005	0.00000E+000	-1.17968E-006	-5.39641E-002	1.32580E-002	3.57290E+000	9	...........
	142	1.90667	9.57885E-003	-8.87311E-005	0.00000E+000	-8.49942E-007	-5.39641E-002	9.56767E-003	3.57290E+000	9	...........
	143	1.92	5.91590E-003	-8.89937E-005	0.00000E+000	-5.26477E-007	-5.39641E-002	5.90170E-003	3.57290E+000	9	...........
	144	1.93333	2.27495E-003	-8.90218E-005	0.00000E+000	-2.02520E-007	-5.39641E-002	2.26236E-003	3.57290E+000	9	...........
	145	1.93667	1.61334E-005	-8.93000E-005	0.00000E+000	-1.44071E-009	-5.39641E-002	-1.29554E-006	3.57290E+000	9	...........
STARTTIMEOFFSET	QUANT	4228.792	Start Time Offset (s)
