EXPLAIN
TAG	PWR800_DISCHARGE
TITLE	LABEL	PWR Cyclic Charge Discharge (Cell) - Discharge Step	Test &Identifier
DATE	LABEL	10-7-2017	Date
TIME	LABEL	15:36:29	Time
NOTES	NOTES	3	&Notes...
	supercap test cell
	0.9mg
	6M KOH
PSTAT	PSTAT	IFC5000-01520	Potentiostat
CAPACITY	QUANT	1.00000E-003	Capacity (A-hr)
CELLTYPE	SELECTOR	1	&Cell Type
WORKINGCONNECTION	SELECTOR	0	&Working Lead
MAXDISCHARGETIME	VARIABLEANDUNITS	1.00000E+002	s	1.00000E+002	second(s)	Max &Discharge Time
DISCHARGEMODE	MULTIPARAM	0	9.00000E-005	&Discharge Mode	Constant Current	Amp(s)
SAMPLETIME	QUANT	1.00000E-002	Sa&mple Period (s)
DISCHARGESTOPAT1	MULTIPARAM	3	0.00000E+000	Discharge Stop At &1	Voltage < Limit	V
DISCHARGESTOPAT2	MULTIPARAM	0	0.00000E+000	Discharge Stop At &2	None	N/A
AESBHCSELECTOR	TOGGLE	F	Save Both Half Cells
IRCOMP	TOGGLE	F	IR &Measure
EOC	QUANT	0	Open Circuit (V)
SEQUENCER	TOGGLE	TRUE	Run as Sequence
PSTATMODEL	IQUANT	53	Pstat Model
PSTATSECTION	LABEL	IFC5000-01520	Pstat Section
PSTATSERIALNO	LABEL	01520	Pstat Serial Number
CTRLMODE	IQUANT	0	Control Mode
ELECTROMETER	IQUANT	1	RE=0 or CS=1
IESTAB	IQUANT	0	I/E Stability
CASPEED	IQUANT	4	Control Amp Speed
CONVENTION	IQUANT	1	Current Convention
ICHRANGE	IQUANT	2	Ich Range
ICHRANGEMODE	TOGGLE	T	Ich Auto Range
ICHOFFSETENABLE	TOGGLE	F	Ich Offset Enable
ICHOFFSET	QUANT	0	Ich Offset (V)
ICHFILTER	IQUANT	1	Ich Filter
VCHRANGE	IQUANT	2	Vch Range
VCHRANGEMODE	TOGGLE	T	Vch Auto Range
VCHOFFSETENABLE	TOGGLE	F	Vch Offset Enable
VCHOFFSET	QUANT	0	Vch Offset (V)
VCHFILTER	IQUANT	1	Vch Filter
IERANGELOWERLIMIT	IQUANT	9	I/E Range Lower Limit
IERANGEMODE	TOGGLE	F	I/E AutoRange
IERANGE	IQUANT	9	I/E Range
ACHSELECT	IQUANT	1	Ach Select
ACHRANGE	IQUANT	2	Ach Range
ACHOFFSETENABLE	TOGGLE	F	Ach Offset Enable
ACHOFFSET	QUANT	0	Ach Offset (V)
ACHFILTER	IQUANT	1	Ach Filter
CABLEID	IQUANT	14	Cable ID
DCCALDATE	LABEL	5-7-2017	DC Calibration Date
ACCALDATE	LABEL	12/3/2015	AC Calibration Date
FRAMEWORKVERSION	QUANT	7.01	Framework Version
INSTRUMENTVERSION	LABEL	4.00	Instrument Version
CURVE	TABLE	154
	Pt	T	Vf	Im	Vu	Pwr	Sig	Ach	Temp	IERange	Over
	#	s	V	A	V	W	V	V	deg C	#	bits
	0	0.013333	8.14266E-001	-8.88249E-005	0.00000E+000	-7.23271E-005	-5.39641E-002	8.14433E-001	3.57240E+000	9	...........
	1	0.026667	8.00922E-001	-8.87905E-005	0.00000E+000	-7.11143E-005	-5.39641E-002	8.01076E-001	3.57240E+000	9	...........
	2	0.04	7.88408E-001	-8.87249E-005	0.00000E+000	-6.99514E-005	-5.39641E-002	7.88555E-001	3.57240E+000	9	...........
	3	0.053333	7.76607E-001	-8.86207E-005	0.00000E+000	-6.88235E-005	-5.39641E-002	7.76729E-001	3.57240E+000	9	...........
	4	0.066667	7.65342E-001	-8.87707E-005	0.00000E+000	-6.79399E-005	-5.39641E-002	7.65487E-001	3.57240E+000	9	...........
	5	0.08	7.54595E-001	-8.86582E-005	0.00000E+000	-6.69010E-005	-5.39641E-002	7.54725E-001	3.57240E+000	9	...........
	6	0.093333	7.44263E-001	-8.87863E-005	0.00000E+000	-6.60804E-005	-5.39641E-002	7.44386E-001	3.57240E+000	9	...........
	7	0.106667	7.34282E-001	-8.88989E-005	0.00000E+000	-6.52768E-005	-5.39641E-002	7.34403E-001	3.57240E+000	9	...........
	8	0.12	7.24657E-001	-8.89749E-005	0.00000E+000	-6.44763E-005	-5.39641E-002	7.24759E-001	3.57240E+000	9	...........
	9	0.133333	7.15303E-001	-8.87332E-005	0.00000E+000	-6.34711E-005	-5.39641E-002	7.15431E-001	3.57240E+000	9	...........
	10	0.146667	7.06240E-001	-8.87947E-005	0.00000E+000	-6.27103E-005	-5.39641E-002	7.06364E-001	3.57240E+000	9	...........
	11	0.16	6.97437E-001	-8.86603E-005	0.00000E+000	-6.18349E-005	-5.39641E-002	6.97560E-001	3.57240E+000	9	...........
	12	0.173333	6.88855E-001	-8.87832E-005	0.00000E+000	-6.11587E-005	-5.39641E-002	6.89000E-001	3.57240E+000	9	...........
	13	0.186667	6.80503E-001	-8.88301E-005	0.00000E+000	-6.04491E-005	-5.39641E-002	6.80629E-001	3.57240E+000	9	...........
	14	0.2	6.72342E-001	-8.84519E-005	0.00000E+000	-5.94700E-005	-5.39641E-002	6.72472E-001	3.57240E+000	9	...........
	15	0.213333	6.64356E-001	-8.88166E-005	0.00000E+000	-5.90058E-005	-5.39641E-002	6.64493E-001	3.57240E+000	9	...........
	16	0.226667	6.56562E-001	-8.88072E-005	0.00000E+000	-5.83074E-005	-5.39641E-002	6.56700E-001	3.57240E+000	9	...........
	17	0.24	6.48941E-001	-8.87030E-005	0.00000E+000	-5.75630E-005	-5.39641E-002	6.49051E-001	3.57240E+000	9	...........
	18	0.253333	6.41452E-001	-8.88436E-005	0.00000E+000	-5.69890E-005	-5.39641E-002	6.41576E-001	3.57240E+000	9	...........
	19	0.266667	6.34118E-001	-8.88530E-005	0.00000E+000	-5.63433E-005	-5.39641E-002	6.34231E-001	3.57240E+000	9	...........
	20	0.28	6.26932E-001	-8.87436E-005	0.00000E+000	-5.56362E-005	-5.39641E-002	6.27034E-001	3.57240E+000	9	...........
	21	0.293333	6.19871E-001	-8.87322E-005	0.00000E+000	-5.50025E-005	-5.39641E-002	6.19962E-001	3.57240E+000	9	...........
	22	0.306667	6.12885E-001	-8.88728E-005	0.00000E+000	-5.44689E-005	-5.39641E-002	6.13022E-001	3.57240E+000	9	...........
	23	0.32	6.06035E-001	-8.84415E-005	0.00000E+000	-5.35987E-005	-5.39641E-002	6.06173E-001	3.57240E+000	9	...........
	24	0.333333	5.99309E-001	-8.85821E-005	0.00000E+000	-5.30881E-005	-5.39641E-002	5.99425E-001	3.57240E+000	9	...........
	25	0.346667	5.92693E-001	-8.87259E-005	0.00000E+000	-5.25872E-005	-5.39641E-002	5.92777E-001	3.57240E+000	9	...........
	26	0.36	5.86122E-001	-8.87040E-005	0.00000E+000	-5.19914E-005	-5.39641E-002	5.86241E-001	3.57240E+000	9	...........
	27	0.373333	5.79687E-001	-8.85925E-005	0.00000E+000	-5.13559E-005	-5.39641E-002	5.79792E-001	3.57240E+000	9	...........
	28	0.386667	5.73337E-001	-8.86832E-005	0.00000E+000	-5.08454E-005	-5.39641E-002	5.73437E-001	3.57240E+000	9	...........
	29	0.4	5.67062E-001	-8.89249E-005	0.00000E+000	-5.04260E-005	-5.39641E-002	5.67133E-001	3.57240E+000	9	...........
	30	0.413333	5.60825E-001	-8.87822E-005	0.00000E+000	-4.97913E-005	-5.39641E-002	5.60906E-001	3.57240E+000	9	...........
	31	0.426667	5.54689E-001	-8.87436E-005	0.00000E+000	-4.92251E-005	-5.39641E-002	5.54785E-001	3.57240E+000	9	...........
	32	0.44	5.48665E-001	-8.88655E-005	0.00000E+000	-4.87574E-005	-5.39641E-002	5.48720E-001	3.57240E+000	9	...........
	33	0.453333	5.42674E-001	-8.88009E-005	0.00000E+000	-4.81900E-005	-5.39641E-002	5.42734E-001	3.57240E+000	9	...........
	34	0.466667	5.36710E-001	-8.86603E-005	0.00000E+000	-4.75848E-005	-5.39641E-002	5.36770E-001	3.57240E+000	9	...........
	35	0.48	5.30801E-001	-8.86519E-005	0.00000E+000	-4.70566E-005	-5.39641E-002	5.30881E-001	3.57240E+000	9	...........
	36	0.493333	5.24955E-001	-8.84738E-005	0.00000E+000	-4.64448E-005	-5.39641E-002	5.25036E-001	3.57240E+000	9	...........
	37	0.506667	5.19203E-001	-8.88666E-005	0.00000E+000	-4.61398E-005	-5.39641E-002	5.19272E-001	3.57240E+000	9	...........
	38	0.52	5.13476E-001	-8.87155E-005	0.00000E+000	-4.55533E-005	-5.39641E-002	5.13534E-001	3.57240E+000	9	...........
	39	0.533333	5.07725E-001	-8.88416E-005	0.00000E+000	-4.51071E-005	-5.39641E-002	5.07843E-001	3.57240E+000	9	...........
	40	0.546667	5.02051E-001	-8.87582E-005	0.00000E+000	-4.45611E-005	-5.39641E-002	5.02179E-001	3.57240E+000	9	...........
	41	0.56	4.96459E-001	-8.88238E-005	0.00000E+000	-4.40974E-005	-5.39641E-002	4.96569E-001	3.57240E+000	9	...........
	42	0.573333	4.90925E-001	-8.88103E-005	0.00000E+000	-4.35992E-005	-5.39641E-002	4.91016E-001	3.57240E+000	9	...........
	43	0.586667	4.85451E-001	-8.88176E-005	0.00000E+000	-4.31166E-005	-5.39641E-002	4.85521E-001	3.57240E+000	9	...........
	44	0.6	4.79988E-001	-8.86426E-005	0.00000E+000	-4.25474E-005	-5.39641E-002	4.80053E-001	3.57240E+000	9	...........
	45	0.613333	4.74518E-001	-8.89728E-005	0.00000E+000	-4.22192E-005	-5.39641E-002	4.74582E-001	3.57240E+000	9	...........
	46	0.626667	4.69081E-001	-8.87915E-005	0.00000E+000	-4.16504E-005	-5.39641E-002	4.69146E-001	3.57240E+000	9	...........
	47	0.64	4.63686E-001	-8.88634E-005	0.00000E+000	-4.12048E-005	-5.39641E-002	4.63747E-001	3.57240E+000	9	...........
	48	0.653333	4.58336E-001	-8.87915E-005	0.00000E+000	-4.06964E-005	-5.39641E-002	4.58399E-001	3.57240E+000	9	...........
	49	0.666667	4.53014E-001	-8.89301E-005	0.00000E+000	-4.02866E-005	-5.39641E-002	4.53077E-001	3.57240E+000	9	...........
	50	0.68	4.47712E-001	-8.85842E-005	0.00000E+000	-3.96602E-005	-5.39641E-002	4.47775E-001	3.57240E+000	9	...........
	51	0.693333	4.42433E-001	-8.86894E-005	0.00000E+000	-3.92391E-005	-5.39641E-002	4.42501E-001	3.57240E+000	9	...........
	52	0.706667	4.37185E-001	-8.87144E-005	0.00000E+000	-3.87846E-005	-5.39641E-002	4.37248E-001	3.57240E+000	9	...........
	53	0.72	4.31960E-001	-8.86290E-005	0.00000E+000	-3.82842E-005	-5.39641E-002	4.32017E-001	3.57240E+000	9	...........
	54	0.733333	4.26754E-001	-8.86884E-005	0.00000E+000	-3.78481E-005	-5.39641E-002	4.26816E-001	3.57240E+000	9	...........
	55	0.746667	4.21579E-001	-8.87092E-005	0.00000E+000	-3.73979E-005	-5.39641E-002	4.21631E-001	3.57240E+000	9	...........
	56	0.76	4.16412E-001	-8.88436E-005	0.00000E+000	-3.69955E-005	-5.39641E-002	4.16470E-001	3.57240E+000	9	...........
	57	0.773333	4.11247E-001	-8.87572E-005	0.00000E+000	-3.65012E-005	-5.39641E-002	4.11301E-001	3.57240E+000	9	...........
	58	0.786667	4.06098E-001	-8.86832E-005	0.00000E+000	-3.60140E-005	-5.39641E-002	4.06141E-001	3.57240E+000	9	...........
	59	0.8	4.00987E-001	-8.86353E-005	0.00000E+000	-3.55416E-005	-5.39641E-002	4.01038E-001	3.57240E+000	9	...........
	60	0.813333	3.95901E-001	-8.88395E-005	0.00000E+000	-3.51716E-005	-5.39641E-002	3.95946E-001	3.57240E+000	9	...........
	61	0.826667	3.90817E-001	-8.86717E-005	0.00000E+000	-3.46544E-005	-5.39641E-002	3.90862E-001	3.57240E+000	9	...........
	62	0.84	3.85746E-001	-8.89583E-005	0.00000E+000	-3.43153E-005	-5.39641E-002	3.85792E-001	3.57240E+000	9	...........
	63	0.853333	3.80692E-001	-8.87613E-005	0.00000E+000	-3.37908E-005	-5.39641E-002	3.80730E-001	3.57240E+000	9	...........
	64	0.866667	3.75661E-001	-8.86092E-005	0.00000E+000	-3.32870E-005	-5.39641E-002	3.75704E-001	3.57240E+000	9	...........
	65	0.88	3.70637E-001	-8.88603E-005	0.00000E+000	-3.29349E-005	-5.39641E-002	3.70671E-001	3.57240E+000	9	...........
	66	0.893333	3.65607E-001	-8.86457E-005	0.00000E+000	-3.24095E-005	-5.39641E-002	3.65654E-001	3.57240E+000	9	...........
	67	0.906667	3.60619E-001	-8.86978E-005	0.00000E+000	-3.19861E-005	-5.39641E-002	3.60660E-001	3.57240E+000	9	...........
	68	0.92	3.55636E-001	-8.88686E-005	0.00000E+000	-3.16049E-005	-5.39641E-002	3.55675E-001	3.57380E+000	9	...........
	69	0.933333	3.50672E-001	-8.88582E-005	0.00000E+000	-3.11601E-005	-5.39641E-002	3.50713E-001	3.57380E+000	9	...........
	70	0.946667	3.45722E-001	-8.87092E-005	0.00000E+000	-3.06687E-005	-5.39641E-002	3.45767E-001	3.57380E+000	9	...........
	71	0.96	3.40799E-001	-8.87144E-005	0.00000E+000	-3.02338E-005	-5.39641E-002	3.40837E-001	3.57380E+000	9	...........
	72	0.97333	3.35891E-001	-8.87811E-005	0.00000E+000	-2.98208E-005	-5.39641E-002	3.35938E-001	3.57380E+000	9	...........
	73	0.98667	3.30988E-001	-8.89989E-005	0.00000E+000	-2.94575E-005	-5.39641E-002	3.31028E-001	3.57380E+000	9	...........
	74	1	3.26098E-001	-8.88530E-005	0.00000E+000	-2.89748E-005	-5.39641E-002	3.26142E-001	3.57380E+000	9	...........
	75	1.01333	3.21237E-001	-8.89093E-005	0.00000E+000	-2.85609E-005	-5.39641E-002	3.21275E-001	3.57380E+000	9	...........
	76	1.02667	3.16375E-001	-8.88655E-005	0.00000E+000	-2.81148E-005	-5.39641E-002	3.16418E-001	3.57380E+000	9	...........
	77	1.04	3.11518E-001	-8.86884E-005	0.00000E+000	-2.76280E-005	-5.39641E-002	3.11559E-001	3.57380E+000	9	...........
	78	1.05333	3.06662E-001	-8.88093E-005	0.00000E+000	-2.72344E-005	-5.39641E-002	3.06701E-001	3.57380E+000	9	...........
	79	1.06667	3.01840E-001	-8.88218E-005	0.00000E+000	-2.68100E-005	-5.39641E-002	3.01875E-001	3.57380E+000	9	...........
	80	1.08	2.97018E-001	-8.87624E-005	0.00000E+000	-2.63640E-005	-5.39641E-002	2.97052E-001	3.57380E+000	9	...........
	81	1.09333	2.92227E-001	-8.87999E-005	0.00000E+000	-2.59497E-005	-5.39641E-002	2.92261E-001	3.57380E+000	9	...........
	82	1.10667	2.87467E-001	-8.87770E-005	0.00000E+000	-2.55204E-005	-5.39641E-002	2.87501E-001	3.57380E+000	9	...........
	83	1.12	2.82717E-001	-8.85134E-005	0.00000E+000	-2.50243E-005	-5.39641E-002	2.82752E-001	3.57380E+000	9	...........
	84	1.13333	2.77974E-001	-8.85853E-005	0.00000E+000	-2.46244E-005	-5.39641E-002	2.78011E-001	3.57380E+000	9	...........
	85	1.14667	2.73252E-001	-8.89760E-005	0.00000E+000	-2.43129E-005	-5.39641E-002	2.73286E-001	3.57380E+000	9	...........
	86	1.16	2.68579E-001	-8.89145E-005	0.00000E+000	-2.38806E-005	-5.39641E-002	2.68619E-001	3.57380E+000	9	...........
	87	1.17333	2.63926E-001	-8.88989E-005	0.00000E+000	-2.34627E-005	-5.39641E-002	2.63958E-001	3.57380E+000	9	...........
	88	1.18667	2.59290E-001	-8.86467E-005	0.00000E+000	-2.29852E-005	-5.39641E-002	2.59327E-001	3.57380E+000	9	...........
	89	1.2	2.54686E-001	-8.86728E-005	0.00000E+000	-2.25837E-005	-5.39641E-002	2.54721E-001	3.57380E+000	9	...........
	90	1.21333	2.50103E-001	-8.87853E-005	0.00000E+000	-2.22055E-005	-5.39641E-002	2.50135E-001	3.57380E+000	9	...........
	91	1.22667	2.45531E-001	-8.87874E-005	0.00000E+000	-2.18000E-005	-5.39641E-002	2.45559E-001	3.57380E+000	9	...........
	92	1.24	2.40987E-001	-8.86999E-005	0.00000E+000	-2.13756E-005	-5.39641E-002	2.41011E-001	3.57380E+000	9	...........
	93	1.25333	2.36468E-001	-8.85561E-005	0.00000E+000	-2.09407E-005	-5.39641E-002	2.36492E-001	3.57380E+000	9	...........
	94	1.26667	2.31969E-001	-8.86634E-005	0.00000E+000	-2.05672E-005	-5.39641E-002	2.31992E-001	3.57380E+000	9	...........
	95	1.28	2.27491E-001	-8.89447E-005	0.00000E+000	-2.02341E-005	-5.39641E-002	2.27512E-001	3.57380E+000	9	...........
	96	1.29333	2.23022E-001	-8.85446E-005	0.00000E+000	-1.97474E-005	-5.39641E-002	2.23047E-001	3.57380E+000	9	...........
	97	1.30667	2.18552E-001	-8.88853E-005	0.00000E+000	-1.94260E-005	-5.39641E-002	2.18574E-001	3.57380E+000	9	...........
	98	1.32	2.14099E-001	-8.86061E-005	0.00000E+000	-1.89705E-005	-5.39641E-002	2.14123E-001	3.57380E+000	9	...........
	99	1.33333	2.09683E-001	-8.89312E-005	0.00000E+000	-1.86474E-005	-5.39641E-002	2.09702E-001	3.57380E+000	9	...........
	100	1.34667	2.05269E-001	-8.87874E-005	0.00000E+000	-1.82253E-005	-5.39641E-002	2.05289E-001	3.57380E+000	9	...........
	101	1.36	2.00876E-001	-8.85884E-005	0.00000E+000	-1.77952E-005	-5.39641E-002	2.00896E-001	3.57380E+000	9	...........
	102	1.37333	1.96520E-001	-8.86238E-005	0.00000E+000	-1.74164E-005	-5.39641E-002	1.96539E-001	3.57380E+000	9	...........
	103	1.38667	1.92172E-001	-8.88978E-005	0.00000E+000	-1.70837E-005	-5.39641E-002	1.92194E-001	3.57380E+000	9	...........
	104	1.4	1.87852E-001	-8.88791E-005	0.00000E+000	-1.66961E-005	-5.39641E-002	1.87866E-001	3.57380E+000	9	...........
	105	1.41333	1.83551E-001	-8.88645E-005	0.00000E+000	-1.63112E-005	-5.39641E-002	1.83564E-001	3.57380E+000	9	...........
	106	1.42667	1.79266E-001	-8.88926E-005	0.00000E+000	-1.59354E-005	-5.39641E-002	1.79282E-001	3.57380E+000	9	...........
	107	1.44	1.75012E-001	-8.88520E-005	0.00000E+000	-1.55502E-005	-5.39641E-002	1.75023E-001	3.57380E+000	9	...........
	108	1.45333	1.70776E-001	-8.86822E-005	0.00000E+000	-1.51448E-005	-5.39641E-002	1.70794E-001	3.57380E+000	9	...........
	109	1.46667	1.66559E-001	-8.86926E-005	0.00000E+000	-1.47726E-005	-5.39641E-002	1.66577E-001	3.57380E+000	9	...........
	110	1.48	1.62360E-001	-8.88916E-005	0.00000E+000	-1.44324E-005	-5.39641E-002	1.62376E-001	3.57380E+000	9	...........
	111	1.49333	1.58185E-001	-8.87467E-005	0.00000E+000	-1.40384E-005	-5.39641E-002	1.58196E-001	3.57380E+000	9	...........
	112	1.50667	1.54025E-001	-8.90395E-005	0.00000E+000	-1.37144E-005	-5.39641E-002	1.54043E-001	3.57380E+000	9	...........
	113	1.52	1.49892E-001	-8.87457E-005	0.00000E+000	-1.33023E-005	-5.39641E-002	1.49906E-001	3.57380E+000	9	...........
	114	1.53333	1.45789E-001	-8.88249E-005	0.00000E+000	-1.29497E-005	-5.39641E-002	1.45800E-001	3.57380E+000	9	...........
	115	1.54667	1.41691E-001	-8.85998E-005	0.00000E+000	-1.25538E-005	-5.39641E-002	1.41704E-001	3.57380E+000	9	...........
	116	1.56	1.37603E-001	-8.86467E-005	0.00000E+000	-1.21980E-005	-5.39641E-002	1.37612E-001	3.57380E+000	9	...........
	117	1.57333	1.33541E-001	-8.89853E-005	0.00000E+000	-1.18832E-005	-5.39641E-002	1.33551E-001	3.57380E+000	9	...........
	118	1.58667	1.29485E-001	-8.88582E-005	0.00000E+000	-1.15058E-005	-5.39641E-002	1.29494E-001	3.57380E+000	9	...........
	119	1.6	1.25436E-001	-8.88759E-005	0.00000E+000	-1.11483E-005	-5.39641E-002	1.25443E-001	3.57380E+000	9	...........
	120	1.61333	1.21424E-001	-8.86384E-005	0.00000E+000	-1.07629E-005	-5.39641E-002	1.21433E-001	3.57380E+000	9	...........
	121	1.62667	1.17427E-001	-8.88343E-005	0.00000E+000	-1.04316E-005	-5.39641E-002	1.17430E-001	3.57380E+000	9	...........
	122	1.64	1.13436E-001	-8.90124E-005	0.00000E+000	-1.00972E-005	-5.39641E-002	1.13447E-001	3.57380E+000	9	...........
	123	1.65333	1.09468E-001	-8.89510E-005	0.00000E+000	-9.73731E-006	-5.39641E-002	1.09480E-001	3.57380E+000	9	...........
	124	1.66667	1.05527E-001	-8.88864E-005	0.00000E+000	-9.37993E-006	-5.39641E-002	1.05537E-001	3.57380E+000	9	...........
	125	1.68	1.01603E-001	-8.86842E-005	0.00000E+000	-9.01061E-006	-5.39641E-002	1.01617E-001	3.57380E+000	9	...........
	126	1.69333	9.76972E-002	-8.86123E-005	0.00000E+000	-8.65717E-006	-5.39641E-002	9.77065E-002	3.57380E+000	9	...........
	127	1.70667	9.38094E-002	-8.89655E-005	0.00000E+000	-8.34581E-006	-5.39641E-002	9.38109E-002	3.57380E+000	9	...........
	128	1.72	8.99229E-002	-8.86832E-005	0.00000E+000	-7.97465E-006	-5.39641E-002	8.99268E-002	3.57380E+000	9	...........
	129	1.73333	8.60595E-002	-8.89218E-005	0.00000E+000	-7.65256E-006	-5.39641E-002	8.60686E-002	3.57380E+000	9	...........
	130	1.74667	8.22164E-002	-8.86551E-005	0.00000E+000	-7.28890E-006	-5.39641E-002	8.22202E-002	3.57380E+000	9	...........
	131	1.76	7.83865E-002	-8.87499E-005	0.00000E+000	-6.95679E-006	-5.39641E-002	7.83868E-002	3.57380E+000	9	...........
	132	1.77333	7.45685E-002	-8.89708E-005	0.00000E+000	-6.63441E-006	-5.39641E-002	7.45687E-002	3.57380E+000	9	...........
	133	1.78667	7.07828E-002	-8.87561E-005	0.00000E+000	-6.28240E-006	-5.39641E-002	7.07811E-002	3.57380E+000	9	...........
	134	1.8	6.70022E-002	-8.89739E-005	0.00000E+000	-5.96145E-006	-5.39641E-002	6.70068E-002	3.57380E+000	9	...........
	135	1.81333	6.32349E-002	-8.87134E-005	0.00000E+000	-5.60979E-006	-5.39641E-002	6.32297E-002	3.57380E+000	9	...........
	136	1.82667	5.94859E-002	-8.88811E-005	0.00000E+000	-5.28718E-006	-5.39641E-002	5.94880E-002	3.57380E+000	9	...........
	137	1.84	5.57459E-002	-8.88197E-005	0.00000E+000	-4.95133E-006	-5.39641E-002	5.57444E-002	3.57380E+000	9	...........
	138	1.85333	5.20251E-002	-8.86405E-005	0.00000E+000	-4.61153E-006	-5.39641E-002	5.20232E-002	3.57380E+000	9	...........
	139	1.86667	4.83191E-002	-8.89447E-005	0.00000E+000	-4.29773E-006	-5.39641E-002	4.83224E-002	3.57380E+000	9	...........
	140	1.88	4.46298E-002	-8.86571E-005	0.00000E+000	-3.95675E-006	-5.39641E-002	4.46396E-002	3.57380E+000	9	...........
	141	1.89333	4.09467E-002	-8.88291E-005	0.00000E+000	-3.63726E-006	-5.39641E-002	4.09512E-002	3.57380E+000	9	...........
	142	1.90667	3.72817E-002	-8.88259E-005	0.00000E+000	-3.31158E-006	-5.39641E-002	3.72918E-002	3.57380E+000	9	...........
	143	1.92	3.36321E-002	-8.89728E-005	0.00000E+000	-2.99235E-006	-5.39641E-002	3.36346E-002	3.57280E+000	9	...........
	144	1.93333	2.99888E-002	-8.88395E-005	0.00000E+000	-2.66419E-006	-5.39641E-002	2.99878E-002	3.57280E+000	9	...........
	145	1.94667	2.63596E-002	-8.88905E-005	0.00000E+000	-2.34311E-006	-5.39641E-002	2.63588E-002	3.57280E+000	9	...........
	146	1.96	2.27727E-002	-8.87780E-005	0.00000E+000	-2.02172E-006	-5.39641E-002	2.27696E-002	3.57280E+000	9	...........
	147	1.97333	1.91920E-002	-8.89843E-005	0.00000E+000	-1.70778E-006	-5.39641E-002	1.91860E-002	3.57280E+000	9	...........
	148	1.98667	1.56173E-002	-8.88436E-005	0.00000E+000	-1.38750E-006	-5.39641E-002	1.56137E-002	3.57280E+000	9	...........
	149	2	1.20682E-002	-8.88155E-005	0.00000E+000	-1.07184E-006	-5.39641E-002	1.20552E-002	3.57280E+000	9	...........
	150	2.01333	8.54618E-003	-8.88853E-005	0.00000E+000	-7.59630E-007	-5.39641E-002	8.53812E-003	3.57280E+000	9	...........
	151	2.02667	5.05301E-003	-8.86686E-005	0.00000E+000	-4.48043E-007	-5.39641E-002	5.04121E-003	3.57280E+000	9	...........
	152	2.04	1.58053E-003	-8.85509E-005	0.00000E+000	-1.39958E-007	-5.39641E-002	1.56782E-003	3.57280E+000	9	...........
	153	2.04167	-3.64436E-004	-8.89666E-005	0.00000E+000	3.24226E-008	-5.39641E-002	-3.74605E-004	3.57280E+000	9	...........
STARTTIMEOFFSET	QUANT	1885.163	Start Time Offset (s)
