EXPLAIN
TAG	PWR800_DISCHARGE
TITLE	LABEL	PWR Cyclic Charge Discharge (Cell) - Discharge Step	Test &Identifier
DATE	LABEL	10-7-2017	Date
TIME	LABEL	16:11:56	Time
NOTES	NOTES	3	&Notes...
	supercap test cell
	0.9mg
	6M KOH
PSTAT	PSTAT	IFC5000-01520	Potentiostat
CAPACITY	QUANT	1.00000E-003	Capacity (A-hr)
CELLTYPE	SELECTOR	1	&Cell Type
WORKINGCONNECTION	SELECTOR	0	&Working Lead
MAXDISCHARGETIME	VARIABLEANDUNITS	1.00000E+002	s	1.00000E+002	second(s)	Max &Discharge Time
DISCHARGEMODE	MULTIPARAM	0	9.00000E-005	&Discharge Mode	Constant Current	Amp(s)
SAMPLETIME	QUANT	1.00000E-002	Sa&mple Period (s)
DISCHARGESTOPAT1	MULTIPARAM	3	0.00000E+000	Discharge Stop At &1	Voltage < Limit	V
DISCHARGESTOPAT2	MULTIPARAM	0	0.00000E+000	Discharge Stop At &2	None	N/A
AESBHCSELECTOR	TOGGLE	F	Save Both Half Cells
IRCOMP	TOGGLE	F	IR &Measure
EOC	QUANT	0	Open Circuit (V)
SEQUENCER	TOGGLE	TRUE	Run as Sequence
PSTATMODEL	IQUANT	53	Pstat Model
PSTATSECTION	LABEL	IFC5000-01520	Pstat Section
PSTATSERIALNO	LABEL	01520	Pstat Serial Number
CTRLMODE	IQUANT	0	Control Mode
ELECTROMETER	IQUANT	1	RE=0 or CS=1
IESTAB	IQUANT	0	I/E Stability
CASPEED	IQUANT	4	Control Amp Speed
CONVENTION	IQUANT	1	Current Convention
ICHRANGE	IQUANT	2	Ich Range
ICHRANGEMODE	TOGGLE	T	Ich Auto Range
ICHOFFSETENABLE	TOGGLE	F	Ich Offset Enable
ICHOFFSET	QUANT	0	Ich Offset (V)
ICHFILTER	IQUANT	1	Ich Filter
VCHRANGE	IQUANT	2	Vch Range
VCHRANGEMODE	TOGGLE	T	Vch Auto Range
VCHOFFSETENABLE	TOGGLE	F	Vch Offset Enable
VCHOFFSET	QUANT	0	Vch Offset (V)
VCHFILTER	IQUANT	1	Vch Filter
IERANGELOWERLIMIT	IQUANT	9	I/E Range Lower Limit
IERANGEMODE	TOGGLE	F	I/E AutoRange
IERANGE	IQUANT	9	I/E Range
ACHSELECT	IQUANT	1	Ach Select
ACHRANGE	IQUANT	2	Ach Range
ACHOFFSETENABLE	TOGGLE	F	Ach Offset Enable
ACHOFFSET	QUANT	0	Ach Offset (V)
ACHFILTER	IQUANT	1	Ach Filter
CABLEID	IQUANT	14	Cable ID
DCCALDATE	LABEL	5-7-2017	DC Calibration Date
ACCALDATE	LABEL	12/3/2015	AC Calibration Date
FRAMEWORKVERSION	QUANT	7.01	Framework Version
INSTRUMENTVERSION	LABEL	4.00	Instrument Version
CURVE	TABLE	147
	Pt	T	Vf	Im	Vu	Pwr	Sig	Ach	Temp	IERange	Over
	#	s	V	A	V	W	V	V	deg C	#	bits
	0	0.013333	7.94919E-001	-8.88426E-005	0.00000E+000	-7.06227E-005	-5.39641E-002	7.95074E-001	3.57280E+000	9	...........
	1	0.026667	7.80773E-001	-8.86009E-005	0.00000E+000	-6.91771E-005	-5.39641E-002	7.80940E-001	3.57280E+000	9	...........
	2	0.04	7.67621E-001	-8.86134E-005	0.00000E+000	-6.80215E-005	-5.39641E-002	7.67795E-001	3.57280E+000	9	...........
	3	0.053333	7.55257E-001	-8.88009E-005	0.00000E+000	-6.70675E-005	-5.39641E-002	7.55415E-001	3.57280E+000	9	...........
	4	0.066667	7.43530E-001	-8.88853E-005	0.00000E+000	-6.60889E-005	-5.39641E-002	7.43710E-001	3.57280E+000	9	...........
	5	0.08	7.32376E-001	-8.90395E-005	0.00000E+000	-6.52104E-005	-5.39641E-002	7.32516E-001	3.57280E+000	9	...........
	6	0.093333	7.21698E-001	-8.88072E-005	0.00000E+000	-6.40920E-005	-5.39641E-002	7.21829E-001	3.57280E+000	9	...........
	7	0.106667	7.11378E-001	-8.88957E-005	0.00000E+000	-6.32385E-005	-5.39641E-002	7.11516E-001	3.57280E+000	9	...........
	8	0.12	7.01477E-001	-8.88020E-005	0.00000E+000	-6.22925E-005	-5.39641E-002	7.01603E-001	3.57280E+000	9	...........
	9	0.133333	6.91898E-001	-8.90718E-005	0.00000E+000	-6.16286E-005	-5.39641E-002	6.92029E-001	3.57280E+000	9	...........
	10	0.146667	6.82611E-001	-8.86290E-005	0.00000E+000	-6.04992E-005	-5.39641E-002	6.82729E-001	3.57280E+000	9	...........
	11	0.16	6.73627E-001	-8.87540E-005	0.00000E+000	-5.97871E-005	-5.39641E-002	6.73719E-001	3.57280E+000	9	...........
	12	0.173333	6.64846E-001	-8.88374E-005	0.00000E+000	-5.90632E-005	-5.39641E-002	6.64994E-001	3.57280E+000	9	...........
	13	0.186667	6.56344E-001	-8.89718E-005	0.00000E+000	-5.83961E-005	-5.39641E-002	6.56453E-001	3.57280E+000	9	...........
	14	0.2	6.48031E-001	-8.89541E-005	0.00000E+000	-5.76450E-005	-5.39641E-002	6.48159E-001	3.57280E+000	9	...........
	15	0.213333	6.39937E-001	-8.88989E-005	0.00000E+000	-5.68896E-005	-5.39641E-002	6.40059E-001	3.57280E+000	9	...........
	16	0.226667	6.31995E-001	-8.89072E-005	0.00000E+000	-5.61889E-005	-5.39641E-002	6.32108E-001	3.57280E+000	9	...........
	17	0.24	6.24276E-001	-8.87040E-005	0.00000E+000	-5.53758E-005	-5.39641E-002	6.24398E-001	3.57280E+000	9	...........
	18	0.253333	6.16741E-001	-8.89374E-005	0.00000E+000	-5.48513E-005	-5.39641E-002	6.16847E-001	3.57280E+000	9	...........
	19	0.266667	6.09275E-001	-8.87249E-005	0.00000E+000	-5.40579E-005	-5.39641E-002	6.09431E-001	3.57280E+000	9	...........
	20	0.28	6.02050E-001	-8.86801E-005	0.00000E+000	-5.33898E-005	-5.39641E-002	6.02195E-001	3.57280E+000	9	...........
	21	0.293333	5.94940E-001	-8.88551E-005	0.00000E+000	-5.28635E-005	-5.39641E-002	5.95061E-001	3.57280E+000	9	...........
	22	0.306667	5.87914E-001	-8.86769E-005	0.00000E+000	-5.21344E-005	-5.39641E-002	5.88078E-001	3.57280E+000	9	...........
	23	0.32	5.81011E-001	-8.86009E-005	0.00000E+000	-5.14781E-005	-5.39641E-002	5.81178E-001	3.57280E+000	9	...........
	24	0.333333	5.74265E-001	-8.91698E-005	0.00000E+000	-5.12071E-005	-5.39641E-002	5.74397E-001	3.57280E+000	9	...........
	25	0.346667	5.67624E-001	-8.89937E-005	0.00000E+000	-5.05149E-005	-5.39641E-002	5.67726E-001	3.57280E+000	9	...........
	26	0.36	5.61011E-001	-8.87520E-005	0.00000E+000	-4.97908E-005	-5.39641E-002	5.61160E-001	3.57280E+000	9	...........
	27	0.373333	5.54563E-001	-8.88999E-005	0.00000E+000	-4.93006E-005	-5.39641E-002	5.54700E-001	3.57280E+000	9	...........
	28	0.386667	5.48240E-001	-8.87009E-005	0.00000E+000	-4.86294E-005	-5.39641E-002	5.48350E-001	3.57280E+000	9	...........
	29	0.4	5.41969E-001	-8.87124E-005	0.00000E+000	-4.80794E-005	-5.39641E-002	5.42077E-001	3.57280E+000	9	...........
	30	0.413333	5.35764E-001	-8.86571E-005	0.00000E+000	-4.74993E-005	-5.39641E-002	5.35862E-001	3.57280E+000	9	...........
	31	0.426667	5.29636E-001	-8.87915E-005	0.00000E+000	-4.70272E-005	-5.39641E-002	5.29762E-001	3.57280E+000	9	...........
	32	0.44	5.23601E-001	-8.88509E-005	0.00000E+000	-4.65225E-005	-5.39641E-002	5.23729E-001	3.57280E+000	9	...........
	33	0.453333	5.17648E-001	-8.86947E-005	0.00000E+000	-4.59126E-005	-5.39641E-002	5.17762E-001	3.57280E+000	9	...........
	34	0.466667	5.11704E-001	-8.90916E-005	0.00000E+000	-4.55886E-005	-5.39641E-002	5.11843E-001	3.57280E+000	9	...........
	35	0.48	5.05815E-001	-8.87426E-005	0.00000E+000	-4.48873E-005	-5.39641E-002	5.05966E-001	3.57280E+000	9	...........
	36	0.493333	5.00041E-001	-8.89124E-005	0.00000E+000	-4.44599E-005	-5.39641E-002	5.00170E-001	3.57280E+000	9	...........
	37	0.506667	4.94327E-001	-8.88874E-005	0.00000E+000	-4.39394E-005	-5.39641E-002	4.94445E-001	3.57280E+000	9	...........
	38	0.52	4.88661E-001	-8.87217E-005	0.00000E+000	-4.33548E-005	-5.39641E-002	4.88776E-001	3.57280E+000	9	...........
	39	0.533333	4.83124E-001	-8.87165E-005	0.00000E+000	-4.28611E-005	-5.39641E-002	4.83186E-001	3.57280E+000	9	...........
	40	0.546667	4.77563E-001	-8.87540E-005	0.00000E+000	-4.23857E-005	-5.39641E-002	4.77640E-001	3.57280E+000	9	...........
	41	0.56	4.72042E-001	-8.87415E-005	0.00000E+000	-4.18897E-005	-5.39641E-002	4.72112E-001	3.57280E+000	9	...........
	42	0.573333	4.66550E-001	-8.88134E-005	0.00000E+000	-4.14359E-005	-5.39641E-002	4.66619E-001	3.57280E+000	9	...........
	43	0.586667	4.61100E-001	-8.88739E-005	0.00000E+000	-4.09798E-005	-5.39641E-002	4.61166E-001	3.57280E+000	9	...........
	44	0.6	4.55689E-001	-8.86134E-005	0.00000E+000	-4.03801E-005	-5.39641E-002	4.55756E-001	3.57280E+000	9	...........
	45	0.613333	4.50310E-001	-8.90687E-005	0.00000E+000	-4.01085E-005	-5.39641E-002	4.50372E-001	3.57280E+000	9	...........
	46	0.626667	4.44973E-001	-8.89134E-005	0.00000E+000	-3.95641E-005	-5.39641E-002	4.45044E-001	3.57280E+000	9	...........
	47	0.64	4.39678E-001	-8.87124E-005	0.00000E+000	-3.90049E-005	-5.39641E-002	4.39739E-001	3.57280E+000	9	...........
	48	0.653333	4.34393E-001	-8.90010E-005	0.00000E+000	-3.86614E-005	-5.39641E-002	4.34457E-001	3.57280E+000	9	...........
	49	0.666667	4.29147E-001	-8.88968E-005	0.00000E+000	-3.81497E-005	-5.39641E-002	4.29202E-001	3.57280E+000	9	...........
	50	0.68	4.23912E-001	-8.86884E-005	0.00000E+000	-3.75960E-005	-5.39641E-002	4.23964E-001	3.57280E+000	9	...........
	51	0.693333	4.18687E-001	-8.86811E-005	0.00000E+000	-3.71296E-005	-5.39641E-002	4.18748E-001	3.57280E+000	9	...........
	52	0.706667	4.13504E-001	-8.87311E-005	0.00000E+000	-3.66907E-005	-5.39641E-002	4.13559E-001	3.57280E+000	9	...........
	53	0.72	4.08348E-001	-8.86738E-005	0.00000E+000	-3.62098E-005	-5.39641E-002	4.08400E-001	3.57280E+000	9	...........
	54	0.733333	4.03206E-001	-8.89499E-005	0.00000E+000	-3.58652E-005	-5.39641E-002	4.03258E-001	3.57280E+000	9	...........
	55	0.746667	3.98092E-001	-8.86176E-005	0.00000E+000	-3.52780E-005	-5.39641E-002	3.98141E-001	3.57385E+000	9	...........
	56	0.76	3.93031E-001	-8.87259E-005	0.00000E+000	-3.48721E-005	-5.39641E-002	3.93077E-001	3.57420E+000	9	...........
	57	0.773333	3.87971E-001	-8.88186E-005	0.00000E+000	-3.44590E-005	-5.39641E-002	3.88019E-001	3.57420E+000	9	...........
	58	0.786667	3.82923E-001	-8.88218E-005	0.00000E+000	-3.40119E-005	-5.39641E-002	3.82972E-001	3.57420E+000	9	...........
	59	0.8	3.77888E-001	-8.89332E-005	0.00000E+000	-3.36068E-005	-5.39641E-002	3.77934E-001	3.57420E+000	9	...........
	60	0.813333	3.72883E-001	-8.88332E-005	0.00000E+000	-3.31244E-005	-5.39641E-002	3.72928E-001	3.57420E+000	9	...........
	61	0.826667	3.67889E-001	-8.88051E-005	0.00000E+000	-3.26704E-005	-5.39641E-002	3.67936E-001	3.57420E+000	9	...........
	62	0.84	3.62913E-001	-8.90176E-005	0.00000E+000	-3.23057E-005	-5.39641E-002	3.62964E-001	3.57420E+000	9	...........
	63	0.853333	3.57951E-001	-8.87968E-005	0.00000E+000	-3.17849E-005	-5.39641E-002	3.57995E-001	3.57420E+000	9	...........
	64	0.866667	3.53006E-001	-8.88843E-005	0.00000E+000	-3.13767E-005	-5.39641E-002	3.53053E-001	3.57420E+000	9	...........
	65	0.88	3.48057E-001	-8.91187E-005	0.00000E+000	-3.10184E-005	-5.39641E-002	3.48103E-001	3.57420E+000	9	...........
	66	0.893333	3.43135E-001	-8.88436E-005	0.00000E+000	-3.04854E-005	-5.39641E-002	3.43183E-001	3.57420E+000	9	...........
	67	0.906667	3.38221E-001	-8.86415E-005	0.00000E+000	-2.99804E-005	-5.39641E-002	3.38269E-001	3.57420E+000	9	...........
	68	0.92	3.33322E-001	-8.89447E-005	0.00000E+000	-2.96473E-005	-5.39641E-002	3.33364E-001	3.57420E+000	9	...........
	69	0.933333	3.28423E-001	-8.92135E-005	0.00000E+000	-2.92998E-005	-5.39641E-002	3.28467E-001	3.57420E+000	9	...........
	70	0.946667	3.23544E-001	-8.89207E-005	0.00000E+000	-2.87698E-005	-5.39641E-002	3.23585E-001	3.57420E+000	9	...........
	71	0.96	3.18675E-001	-8.89197E-005	0.00000E+000	-2.83365E-005	-5.39641E-002	3.18714E-001	3.57420E+000	9	...........
	72	0.97333	3.13825E-001	-8.88051E-005	0.00000E+000	-2.78693E-005	-5.39641E-002	3.13870E-001	3.57420E+000	9	...........
	73	0.98667	3.08998E-001	-8.90656E-005	0.00000E+000	-2.75211E-005	-5.39641E-002	3.09034E-001	3.57420E+000	9	...........
	74	1	3.04158E-001	-8.89218E-005	0.00000E+000	-2.70463E-005	-5.39641E-002	3.04201E-001	3.57420E+000	9	...........
	75	1.01333	2.99349E-001	-8.87634E-005	0.00000E+000	-2.65712E-005	-5.39641E-002	2.99390E-001	3.57420E+000	9	...........
	76	1.02667	2.94555E-001	-8.88051E-005	0.00000E+000	-2.61579E-005	-5.39641E-002	2.94588E-001	3.57420E+000	9	...........
	77	1.04	2.89761E-001	-8.90374E-005	0.00000E+000	-2.57996E-005	-5.39641E-002	2.89800E-001	3.57420E+000	9	...........
	78	1.05333	2.84994E-001	-8.88957E-005	0.00000E+000	-2.53347E-005	-5.39641E-002	2.85032E-001	3.57420E+000	9	...........
	79	1.06667	2.80228E-001	-8.86571E-005	0.00000E+000	-2.48443E-005	-5.39641E-002	2.80263E-001	3.57420E+000	9	...........
	80	1.08	2.75473E-001	-8.87759E-005	0.00000E+000	-2.44554E-005	-5.39641E-002	2.75510E-001	3.57420E+000	9	...........
	81	1.09333	2.70732E-001	-8.89093E-005	0.00000E+000	-2.40706E-005	-5.39641E-002	2.70764E-001	3.57420E+000	9	...........
	82	1.10667	2.66001E-001	-8.88041E-005	0.00000E+000	-2.36220E-005	-5.39641E-002	2.66042E-001	3.57420E+000	9	...........
	83	1.12	2.61296E-001	-8.87874E-005	0.00000E+000	-2.31998E-005	-5.39641E-002	2.61335E-001	3.57420E+000	9	...........
	84	1.13333	2.56590E-001	-8.86988E-005	0.00000E+000	-2.27592E-005	-5.39641E-002	2.56626E-001	3.57420E+000	9	...........
	85	1.14667	2.51908E-001	-8.88780E-005	0.00000E+000	-2.23891E-005	-5.39641E-002	2.51943E-001	3.57420E+000	9	...........
	86	1.16	2.47243E-001	-8.88436E-005	0.00000E+000	-2.19660E-005	-5.39641E-002	2.47276E-001	3.57420E+000	9	...........
	87	1.17333	2.42595E-001	-8.90760E-005	0.00000E+000	-2.16094E-005	-5.39641E-002	2.42623E-001	3.57420E+000	9	...........
	88	1.18667	2.37972E-001	-8.87207E-005	0.00000E+000	-2.11130E-005	-5.39641E-002	2.38002E-001	3.57420E+000	9	...........
	89	1.2	2.33341E-001	-8.87488E-005	0.00000E+000	-2.07087E-005	-5.39641E-002	2.33374E-001	3.57420E+000	9	...........
	90	1.21333	2.28738E-001	-8.90385E-005	0.00000E+000	-2.03665E-005	-5.39641E-002	2.28768E-001	3.57420E+000	9	...........
	91	1.22667	2.24154E-001	-8.87134E-005	0.00000E+000	-1.98855E-005	-5.39641E-002	2.24181E-001	3.57420E+000	9	...........
	92	1.24	2.19571E-001	-8.88676E-005	0.00000E+000	-1.95128E-005	-5.39641E-002	2.19600E-001	3.57420E+000	9	...........
	93	1.25333	2.15016E-001	-8.88207E-005	0.00000E+000	-1.90979E-005	-5.39641E-002	2.15040E-001	3.57420E+000	9	...........
	94	1.26667	2.10482E-001	-8.91625E-005	0.00000E+000	-1.87671E-005	-5.39641E-002	2.10514E-001	3.57420E+000	9	...........
	95	1.28	2.05960E-001	-8.85748E-005	0.00000E+000	-1.82429E-005	-5.39641E-002	2.05984E-001	3.57420E+000	9	...........
	96	1.29333	2.01452E-001	-8.91562E-005	0.00000E+000	-1.79607E-005	-5.39641E-002	2.01474E-001	3.57420E+000	9	...........
	97	1.30667	1.96979E-001	-8.88811E-005	0.00000E+000	-1.75077E-005	-5.39641E-002	1.97004E-001	3.57420E+000	9	...........
	98	1.32	1.92523E-001	-8.87280E-005	0.00000E+000	-1.70822E-005	-5.39641E-002	1.92545E-001	3.57420E+000	9	...........
	99	1.33333	1.88085E-001	-8.85613E-005	0.00000E+000	-1.66570E-005	-5.39641E-002	1.88100E-001	3.57420E+000	9	...........
	100	1.34667	1.83652E-001	-8.88895E-005	0.00000E+000	-1.63248E-005	-5.39641E-002	1.83677E-001	3.57420E+000	9	...........
	101	1.36	1.79241E-001	-8.87478E-005	0.00000E+000	-1.59072E-005	-5.39641E-002	1.79268E-001	3.57420E+000	9	...........
	102	1.37333	1.74852E-001	-8.89895E-005	0.00000E+000	-1.55600E-005	-5.39641E-002	1.74875E-001	3.57420E+000	9	...........
	103	1.38667	1.70482E-001	-8.86311E-005	0.00000E+000	-1.51100E-005	-5.39641E-002	1.70504E-001	3.57420E+000	9	...........
	104	1.4	1.66136E-001	-8.89176E-005	0.00000E+000	-1.47724E-005	-5.39641E-002	1.66158E-001	3.57420E+000	9	...........
	105	1.41333	1.61808E-001	-8.90385E-005	0.00000E+000	-1.44072E-005	-5.39641E-002	1.61822E-001	3.57420E+000	9	...........
	106	1.42667	1.57487E-001	-8.89447E-005	0.00000E+000	-1.40077E-005	-5.39641E-002	1.57507E-001	3.57420E+000	9	...........
	107	1.44	1.53189E-001	-8.86488E-005	0.00000E+000	-1.35800E-005	-5.39641E-002	1.53207E-001	3.57420E+000	9	...........
	108	1.45333	1.48918E-001	-8.87936E-005	0.00000E+000	-1.32230E-005	-5.39641E-002	1.48935E-001	3.57420E+000	9	...........
	109	1.46667	1.44667E-001	-8.88364E-005	0.00000E+000	-1.28517E-005	-5.39641E-002	1.44684E-001	3.57420E+000	9	...........
	110	1.48	1.40428E-001	-8.86540E-005	0.00000E+000	-1.24495E-005	-5.39641E-002	1.40443E-001	3.57420E+000	9	...........
	111	1.49333	1.36215E-001	-8.87592E-005	0.00000E+000	-1.20904E-005	-5.39641E-002	1.36226E-001	3.57420E+000	9	...........
	112	1.50667	1.32007E-001	-8.88707E-005	0.00000E+000	-1.17315E-005	-5.39641E-002	1.32024E-001	3.57420E+000	9	...........
	113	1.52	1.27820E-001	-8.88259E-005	0.00000E+000	-1.13538E-005	-5.39641E-002	1.27837E-001	3.57420E+000	9	...........
	114	1.53333	1.23641E-001	-8.85457E-005	0.00000E+000	-1.09479E-005	-5.39641E-002	1.23653E-001	3.57420E+000	9	...........
	115	1.54667	1.19490E-001	-8.85821E-005	0.00000E+000	-1.05847E-005	-5.39641E-002	1.19506E-001	3.57420E+000	9	...........
	116	1.56	1.15357E-001	-8.87374E-005	0.00000E+000	-1.02365E-005	-5.39641E-002	1.15365E-001	3.57420E+000	9	...........
	117	1.57333	1.11233E-001	-8.90666E-005	0.00000E+000	-9.90718E-006	-5.39641E-002	1.11245E-001	3.57420E+000	9	...........
	118	1.58667	1.07132E-001	-8.84509E-005	0.00000E+000	-9.47589E-006	-5.39641E-002	1.07140E-001	3.57420E+000	9	...........
	119	1.6	1.03057E-001	-8.88468E-005	0.00000E+000	-9.15628E-006	-5.39641E-002	1.03066E-001	3.57420E+000	9	...........
	120	1.61333	9.90002E-002	-8.86686E-005	0.00000E+000	-8.77821E-006	-5.39641E-002	9.90094E-002	3.57420E+000	9	...........
	121	1.62667	9.49563E-002	-8.87801E-005	0.00000E+000	-8.43023E-006	-5.39641E-002	9.49702E-002	3.57420E+000	9	...........
	122	1.64	9.09292E-002	-8.90041E-005	0.00000E+000	-8.09307E-006	-5.39641E-002	9.09375E-002	3.57420E+000	9	...........
	123	1.65333	8.69174E-002	-8.88728E-005	0.00000E+000	-7.72459E-006	-5.39641E-002	8.69316E-002	3.57420E+000	9	...........
	124	1.66667	8.29291E-002	-8.89718E-005	0.00000E+000	-7.37835E-006	-5.39641E-002	8.29376E-002	3.57420E+000	9	...........
	125	1.68	7.89624E-002	-8.88739E-005	0.00000E+000	-7.01769E-006	-5.39641E-002	7.89647E-002	3.57420E+000	9	...........
	126	1.69333	7.50135E-002	-8.86759E-005	0.00000E+000	-6.65189E-006	-5.39641E-002	7.50194E-002	3.57420E+000	9	...........
	127	1.70667	7.10810E-002	-8.87811E-005	0.00000E+000	-6.31065E-006	-5.39641E-002	7.10764E-002	3.57420E+000	9	...........
	128	1.72	6.71507E-002	-8.85790E-005	0.00000E+000	-5.94814E-006	-5.39641E-002	6.71517E-002	3.57420E+000	9	...........
	129	1.73333	6.32470E-002	-8.91687E-005	0.00000E+000	-5.63965E-006	-5.39641E-002	6.32457E-002	3.57420E+000	9	...........
	130	1.74667	5.93607E-002	-8.87988E-005	0.00000E+000	-5.27116E-006	-5.39641E-002	5.93643E-002	3.57345E+000	9	...........
	131	1.76	5.54915E-002	-8.87040E-005	0.00000E+000	-4.92232E-006	-5.39641E-002	5.54921E-002	3.57320E+000	9	...........
	132	1.77333	5.16271E-002	-8.88416E-005	0.00000E+000	-4.58663E-006	-5.39641E-002	5.16319E-002	3.57320E+000	9	...........
	133	1.78667	4.78027E-002	-8.86426E-005	0.00000E+000	-4.23735E-006	-5.39641E-002	4.78069E-002	3.57320E+000	9	...........
	134	1.8	4.39962E-002	-8.86228E-005	0.00000E+000	-3.89907E-006	-5.39641E-002	4.40088E-002	3.57320E+000	9	...........
	135	1.81333	4.01977E-002	-8.88551E-005	0.00000E+000	-3.57177E-006	-5.39641E-002	4.02050E-002	3.57320E+000	9	...........
	136	1.82667	3.64233E-002	-8.89635E-005	0.00000E+000	-3.24035E-006	-5.39641E-002	3.64233E-002	3.57320E+000	9	...........
	137	1.84	3.26505E-002	-8.89739E-005	0.00000E+000	-2.90504E-006	-5.39641E-002	3.26499E-002	3.57320E+000	9	...........
	138	1.85333	2.88996E-002	-8.89270E-005	0.00000E+000	-2.56995E-006	-5.39641E-002	2.89013E-002	3.57320E+000	9	...........
	139	1.86667	2.51749E-002	-8.87790E-005	0.00000E+000	-2.23500E-006	-5.39641E-002	2.51716E-002	3.57320E+000	9	...........
	140	1.88	2.14702E-002	-8.87759E-005	0.00000E+000	-1.90604E-006	-5.39641E-002	2.14706E-002	3.57320E+000	9	...........
	141	1.89333	1.78015E-002	-8.90260E-005	0.00000E+000	-1.58479E-006	-5.39641E-002	1.77958E-002	3.57320E+000	9	...........
	142	1.90667	1.41336E-002	-8.89510E-005	0.00000E+000	-1.25719E-006	-5.39641E-002	1.41250E-002	3.57320E+000	9	...........
	143	1.92	1.04909E-002	-8.87467E-005	0.00000E+000	-9.31033E-007	-5.39641E-002	1.04803E-002	3.57320E+000	9	...........
	144	1.93333	6.85859E-003	-8.88093E-005	0.00000E+000	-6.09106E-007	-5.39641E-002	6.84860E-003	3.57320E+000	9	...........
	145	1.94667	3.23919E-003	-8.89447E-005	0.00000E+000	-2.88108E-007	-5.39641E-002	3.22881E-003	3.57320E+000	9	...........
	146	1.95333	5.41262E-004	-8.92604E-005	0.00000E+000	-4.83133E-008	-5.39641E-002	5.26083E-004	3.57320E+000	9	...........
STARTTIMEOFFSET	QUANT	3659.283	Start Time Offset (s)
