EXPLAIN
TAG	PWR800_DISCHARGE
TITLE	LABEL	PWR Cyclic Charge Discharge (Cell) - Discharge Step	Test &Identifier
DATE	LABEL	10-7-2017	Date
TIME	LABEL	15:45:26	Time
NOTES	NOTES	3	&Notes...
	supercap test cell
	0.9mg
	6M KOH
PSTAT	PSTAT	IFC5000-01520	Potentiostat
CAPACITY	QUANT	1.00000E-003	Capacity (A-hr)
CELLTYPE	SELECTOR	1	&Cell Type
WORKINGCONNECTION	SELECTOR	0	&Working Lead
MAXDISCHARGETIME	VARIABLEANDUNITS	1.00000E+002	s	1.00000E+002	second(s)	Max &Discharge Time
DISCHARGEMODE	MULTIPARAM	0	9.00000E-005	&Discharge Mode	Constant Current	Amp(s)
SAMPLETIME	QUANT	1.00000E-002	Sa&mple Period (s)
DISCHARGESTOPAT1	MULTIPARAM	3	0.00000E+000	Discharge Stop At &1	Voltage < Limit	V
DISCHARGESTOPAT2	MULTIPARAM	0	0.00000E+000	Discharge Stop At &2	None	N/A
AESBHCSELECTOR	TOGGLE	F	Save Both Half Cells
IRCOMP	TOGGLE	F	IR &Measure
EOC	QUANT	0	Open Circuit (V)
SEQUENCER	TOGGLE	TRUE	Run as Sequence
PSTATMODEL	IQUANT	53	Pstat Model
PSTATSECTION	LABEL	IFC5000-01520	Pstat Section
PSTATSERIALNO	LABEL	01520	Pstat Serial Number
CTRLMODE	IQUANT	0	Control Mode
ELECTROMETER	IQUANT	1	RE=0 or CS=1
IESTAB	IQUANT	0	I/E Stability
CASPEED	IQUANT	4	Control Amp Speed
CONVENTION	IQUANT	1	Current Convention
ICHRANGE	IQUANT	2	Ich Range
ICHRANGEMODE	TOGGLE	T	Ich Auto Range
ICHOFFSETENABLE	TOGGLE	F	Ich Offset Enable
ICHOFFSET	QUANT	0	Ich Offset (V)
ICHFILTER	IQUANT	1	Ich Filter
VCHRANGE	IQUANT	2	Vch Range
VCHRANGEMODE	TOGGLE	T	Vch Auto Range
VCHOFFSETENABLE	TOGGLE	F	Vch Offset Enable
VCHOFFSET	QUANT	0	Vch Offset (V)
VCHFILTER	IQUANT	1	Vch Filter
IERANGELOWERLIMIT	IQUANT	9	I/E Range Lower Limit
IERANGEMODE	TOGGLE	F	I/E AutoRange
IERANGE	IQUANT	9	I/E Range
ACHSELECT	IQUANT	1	Ach Select
ACHRANGE	IQUANT	2	Ach Range
ACHOFFSETENABLE	TOGGLE	F	Ach Offset Enable
ACHOFFSET	QUANT	0	Ach Offset (V)
ACHFILTER	IQUANT	1	Ach Filter
CABLEID	IQUANT	14	Cable ID
DCCALDATE	LABEL	5-7-2017	DC Calibration Date
ACCALDATE	LABEL	12/3/2015	AC Calibration Date
FRAMEWORKVERSION	QUANT	7.01	Framework Version
INSTRUMENTVERSION	LABEL	4.00	Instrument Version
CURVE	TABLE	152
	Pt	T	Vf	Im	Vu	Pwr	Sig	Ach	Temp	IERange	Over
	#	s	V	A	V	W	V	V	deg C	#	bits
	0	0.013333	8.11655E-001	-8.89041E-005	0.00000E+000	-7.21594E-005	-5.39641E-002	8.11832E-001	3.57260E+000	9	...........
	1	0.026667	7.98049E-001	-8.88009E-005	0.00000E+000	-7.08675E-005	-5.39641E-002	7.98182E-001	3.57260E+000	9	...........
	2	0.04	7.85295E-001	-8.86301E-005	0.00000E+000	-6.96008E-005	-5.39641E-002	7.85441E-001	3.57260E+000	9	...........
	3	0.053333	7.73287E-001	-8.87718E-005	0.00000E+000	-6.86461E-005	-5.39641E-002	7.73432E-001	3.57260E+000	9	...........
	4	0.066667	7.61832E-001	-8.85186E-005	0.00000E+000	-6.74363E-005	-5.39641E-002	7.61981E-001	3.57260E+000	9	...........
	5	0.08	7.50904E-001	-8.83362E-005	0.00000E+000	-6.63320E-005	-5.39641E-002	7.51026E-001	3.57260E+000	9	...........
	6	0.093333	7.40384E-001	-8.87155E-005	0.00000E+000	-6.56835E-005	-5.39641E-002	7.40513E-001	3.57260E+000	9	...........
	7	0.106667	7.30254E-001	-8.87176E-005	0.00000E+000	-6.47863E-005	-5.39641E-002	7.30390E-001	3.57260E+000	9	...........
	8	0.12	7.20499E-001	-8.87863E-005	0.00000E+000	-6.39705E-005	-5.39641E-002	7.20635E-001	3.57260E+000	9	...........
	9	0.133333	7.11013E-001	-8.87311E-005	0.00000E+000	-6.30890E-005	-5.39641E-002	7.11143E-001	3.57260E+000	9	...........
	10	0.146667	7.01848E-001	-8.85634E-005	0.00000E+000	-6.21581E-005	-5.39641E-002	7.01985E-001	3.57260E+000	9	...........
	11	0.16	6.92963E-001	-8.85915E-005	0.00000E+000	-6.13906E-005	-5.39641E-002	6.93089E-001	3.57260E+000	9	...........
	12	0.173333	6.84283E-001	-8.86905E-005	0.00000E+000	-6.06894E-005	-5.39641E-002	6.84405E-001	3.57260E+000	9	...........
	13	0.186667	6.75850E-001	-8.88603E-005	0.00000E+000	-6.00562E-005	-5.39641E-002	6.75972E-001	3.57260E+000	9	...........
	14	0.2	6.67584E-001	-8.90312E-005	0.00000E+000	-5.94358E-005	-5.39641E-002	6.67710E-001	3.57260E+000	9	...........
	15	0.213333	6.59519E-001	-8.87968E-005	0.00000E+000	-5.85631E-005	-5.39641E-002	6.59618E-001	3.57260E+000	9	...........
	16	0.226667	6.51644E-001	-8.89103E-005	0.00000E+000	-5.79378E-005	-5.39641E-002	6.51764E-001	3.57260E+000	9	...........
	17	0.24	6.43984E-001	-8.88520E-005	0.00000E+000	-5.72193E-005	-5.39641E-002	6.44082E-001	3.57260E+000	9	...........
	18	0.253333	6.36428E-001	-8.87728E-005	0.00000E+000	-5.64975E-005	-5.39641E-002	6.36539E-001	3.57260E+000	9	...........
	19	0.266667	6.29056E-001	-8.85780E-005	0.00000E+000	-5.57205E-005	-5.39641E-002	6.29151E-001	3.57260E+000	9	...........
	20	0.28	6.21820E-001	-8.88020E-005	0.00000E+000	-5.52188E-005	-5.39641E-002	6.21906E-001	3.57260E+000	9	...........
	21	0.293333	6.14674E-001	-8.88572E-005	0.00000E+000	-5.46182E-005	-5.39641E-002	6.14774E-001	3.57260E+000	9	...........
	22	0.306667	6.07643E-001	-8.86092E-005	0.00000E+000	-5.38428E-005	-5.39641E-002	6.07766E-001	3.57260E+000	9	...........
	23	0.32	6.00798E-001	-8.87676E-005	0.00000E+000	-5.33314E-005	-5.39641E-002	6.00897E-001	3.57260E+000	9	...........
	24	0.333333	5.94021E-001	-8.88207E-005	0.00000E+000	-5.27614E-005	-5.39641E-002	5.94145E-001	3.57260E+000	9	...........
	25	0.346667	5.87342E-001	-8.87363E-005	0.00000E+000	-5.21186E-005	-5.39641E-002	5.87457E-001	3.57260E+000	9	...........
	26	0.36	5.80745E-001	-8.87968E-005	0.00000E+000	-5.15683E-005	-5.39641E-002	5.80863E-001	3.57260E+000	9	...........
	27	0.373333	5.74277E-001	-8.86009E-005	0.00000E+000	-5.08815E-005	-5.39641E-002	5.74397E-001	3.57260E+000	9	...........
	28	0.386667	5.67895E-001	-8.88822E-005	0.00000E+000	-5.04758E-005	-5.39641E-002	5.68006E-001	3.57260E+000	9	...........
	29	0.4	5.61548E-001	-8.85477E-005	0.00000E+000	-4.97238E-005	-5.39641E-002	5.61701E-001	3.57260E+000	9	...........
	30	0.413333	5.55320E-001	-8.88853E-005	0.00000E+000	-4.93598E-005	-5.39641E-002	5.55457E-001	3.57260E+000	9	...........
	31	0.426667	5.49188E-001	-8.90645E-005	0.00000E+000	-4.89132E-005	-5.39641E-002	5.49302E-001	3.57260E+000	9	...........
	32	0.44	5.43115E-001	-8.87280E-005	0.00000E+000	-4.81895E-005	-5.39641E-002	5.43230E-001	3.57260E+000	9	...........
	33	0.453333	5.37077E-001	-8.87092E-005	0.00000E+000	-4.76437E-005	-5.39641E-002	5.37211E-001	3.57260E+000	9	...........
	34	0.466667	5.31099E-001	-8.87926E-005	0.00000E+000	-4.71576E-005	-5.39641E-002	5.31222E-001	3.57260E+000	9	...........
	35	0.48	5.25206E-001	-8.89249E-005	0.00000E+000	-4.67039E-005	-5.39641E-002	5.25311E-001	3.57260E+000	9	...........
	36	0.493333	5.19352E-001	-8.85342E-005	0.00000E+000	-4.59804E-005	-5.39641E-002	5.19437E-001	3.57260E+000	9	...........
	37	0.506667	5.13613E-001	-8.86717E-005	0.00000E+000	-4.55429E-005	-5.39641E-002	5.13664E-001	3.57260E+000	9	...........
	38	0.52	5.07797E-001	-8.87217E-005	0.00000E+000	-4.50526E-005	-5.39641E-002	5.07916E-001	3.57260E+000	9	...........
	39	0.533333	5.02137E-001	-8.86176E-005	0.00000E+000	-4.44982E-005	-5.39641E-002	5.02221E-001	3.57260E+000	9	...........
	40	0.546667	4.96509E-001	-8.89499E-005	0.00000E+000	-4.41644E-005	-5.39641E-002	4.96571E-001	3.57260E+000	9	...........
	41	0.56	4.90930E-001	-8.88489E-005	0.00000E+000	-4.36186E-005	-5.39641E-002	4.91014E-001	3.57260E+000	9	...........
	42	0.573333	4.85415E-001	-8.88749E-005	0.00000E+000	-4.31412E-005	-5.39641E-002	4.85499E-001	3.57260E+000	9	...........
	43	0.586667	4.79972E-001	-8.85467E-005	0.00000E+000	-4.24999E-005	-5.39641E-002	4.80041E-001	3.57260E+000	9	...........
	44	0.6	4.74495E-001	-8.90291E-005	0.00000E+000	-4.22439E-005	-5.39641E-002	4.74557E-001	3.57260E+000	9	...........
	45	0.613333	4.69061E-001	-8.87645E-005	0.00000E+000	-4.16360E-005	-5.39641E-002	4.69126E-001	3.57260E+000	9	...........
	46	0.626667	4.63658E-001	-8.86655E-005	0.00000E+000	-4.11105E-005	-5.39641E-002	4.63721E-001	3.57260E+000	9	...........
	47	0.64	4.58284E-001	-8.89405E-005	0.00000E+000	-4.07600E-005	-5.39641E-002	4.58350E-001	3.57260E+000	9	...........
	48	0.653333	4.52945E-001	-8.88468E-005	0.00000E+000	-4.02427E-005	-5.39641E-002	4.53007E-001	3.57260E+000	9	...........
	49	0.666667	4.47648E-001	-8.88884E-005	0.00000E+000	-3.97908E-005	-5.39641E-002	4.47711E-001	3.57260E+000	9	...........
	50	0.68	4.42393E-001	-8.88405E-005	0.00000E+000	-3.93024E-005	-5.39641E-002	4.42457E-001	3.57260E+000	9	...........
	51	0.693333	4.37138E-001	-8.89478E-005	0.00000E+000	-3.88825E-005	-5.39641E-002	4.37205E-001	3.57260E+000	9	...........
	52	0.706667	4.31910E-001	-8.89687E-005	0.00000E+000	-3.84264E-005	-5.39641E-002	4.31969E-001	3.57260E+000	9	...........
	53	0.72	4.26705E-001	-8.89687E-005	0.00000E+000	-3.79633E-005	-5.39641E-002	4.26765E-001	3.57260E+000	9	...........
	54	0.733333	4.21522E-001	-8.87780E-005	0.00000E+000	-3.74219E-005	-5.39641E-002	4.21585E-001	3.57260E+000	9	...........
	55	0.746667	4.16339E-001	-8.86696E-005	0.00000E+000	-3.69166E-005	-5.39641E-002	4.16398E-001	3.57260E+000	9	...........
	56	0.76	4.11181E-001	-8.87749E-005	0.00000E+000	-3.65025E-005	-5.39641E-002	4.11236E-001	3.57260E+000	9	...........
	57	0.773333	4.06049E-001	-8.86280E-005	0.00000E+000	-3.59873E-005	-5.39641E-002	4.06105E-001	3.57260E+000	9	...........
	58	0.786667	4.00930E-001	-8.87822E-005	0.00000E+000	-3.55955E-005	-5.39641E-002	4.00981E-001	3.57260E+000	9	...........
	59	0.8	3.95818E-001	-8.88832E-005	0.00000E+000	-3.51816E-005	-5.39641E-002	3.95867E-001	3.57260E+000	9	...........
	60	0.813333	3.90730E-001	-8.89655E-005	0.00000E+000	-3.47615E-005	-5.39641E-002	3.90774E-001	3.57260E+000	9	...........
	61	0.826667	3.85650E-001	-8.89510E-005	0.00000E+000	-3.43039E-005	-5.39641E-002	3.85698E-001	3.57260E+000	9	...........
	62	0.84	3.80605E-001	-8.88655E-005	0.00000E+000	-3.38226E-005	-5.39641E-002	3.80653E-001	3.57260E+000	9	...........
	63	0.853333	3.75575E-001	-8.86613E-005	0.00000E+000	-3.32989E-005	-5.39641E-002	3.75624E-001	3.57260E+000	9	...........
	64	0.866667	3.70565E-001	-8.89541E-005	0.00000E+000	-3.29633E-005	-5.39641E-002	3.70613E-001	3.57260E+000	9	...........
	65	0.88	3.65578E-001	-8.86603E-005	0.00000E+000	-3.24122E-005	-5.39641E-002	3.65619E-001	3.57260E+000	9	...........
	66	0.893333	3.60589E-001	-8.85623E-005	0.00000E+000	-3.19346E-005	-5.39641E-002	3.60632E-001	3.57260E+000	9	...........
	67	0.906667	3.55627E-001	-8.89780E-005	0.00000E+000	-3.16430E-005	-5.39641E-002	3.55670E-001	3.57260E+000	9	...........
	68	0.92	3.50677E-001	-8.87374E-005	0.00000E+000	-3.11182E-005	-5.39641E-002	3.50720E-001	3.57400E+000	9	...........
	69	0.933333	3.45720E-001	-8.88655E-005	0.00000E+000	-3.07226E-005	-5.39641E-002	3.45764E-001	3.57400E+000	9	...........
	70	0.946667	3.40774E-001	-8.90385E-005	0.00000E+000	-3.03420E-005	-5.39641E-002	3.40814E-001	3.57400E+000	9	...........
	71	0.96	3.35845E-001	-8.88759E-005	0.00000E+000	-2.98485E-005	-5.39641E-002	3.35884E-001	3.57400E+000	9	...........
	72	0.97333	3.30930E-001	-8.88686E-005	0.00000E+000	-2.94093E-005	-5.39641E-002	3.30972E-001	3.57400E+000	9	...........
	73	0.98667	3.26046E-001	-8.88718E-005	0.00000E+000	-2.89763E-005	-5.39641E-002	3.26086E-001	3.57400E+000	9	...........
	74	1	3.21177E-001	-8.88103E-005	0.00000E+000	-2.85239E-005	-5.39641E-002	3.21212E-001	3.57400E+000	9	...........
	75	1.01333	3.16308E-001	-8.86884E-005	0.00000E+000	-2.80529E-005	-5.39641E-002	3.16343E-001	3.57400E+000	9	...........
	76	1.02667	3.11447E-001	-8.87155E-005	0.00000E+000	-2.76302E-005	-5.39641E-002	3.11483E-001	3.57400E+000	9	...........
	77	1.04	3.06609E-001	-8.89968E-005	0.00000E+000	-2.72872E-005	-5.39641E-002	3.06643E-001	3.57400E+000	9	...........
	78	1.05333	3.01779E-001	-8.88884E-005	0.00000E+000	-2.68247E-005	-5.39641E-002	3.01820E-001	3.57400E+000	9	...........
	79	1.06667	2.96955E-001	-8.89937E-005	0.00000E+000	-2.64271E-005	-5.39641E-002	2.96989E-001	3.57400E+000	9	...........
	80	1.08	2.92142E-001	-8.88093E-005	0.00000E+000	-2.59449E-005	-5.39641E-002	2.92178E-001	3.57400E+000	9	...........
	81	1.09333	2.87354E-001	-8.86030E-005	0.00000E+000	-2.54604E-005	-5.39641E-002	2.87389E-001	3.57400E+000	9	...........
	82	1.10667	2.82576E-001	-8.88916E-005	0.00000E+000	-2.51186E-005	-5.39641E-002	2.82615E-001	3.57400E+000	9	...........
	83	1.12	2.77823E-001	-8.86707E-005	0.00000E+000	-2.46347E-005	-5.39641E-002	2.77855E-001	3.57400E+000	9	...........
	84	1.13333	2.73098E-001	-8.88655E-005	0.00000E+000	-2.42690E-005	-5.39641E-002	2.73131E-001	3.57400E+000	9	...........
	85	1.14667	2.68399E-001	-8.85769E-005	0.00000E+000	-2.37740E-005	-5.39641E-002	2.68435E-001	3.57400E+000	9	...........
	86	1.16	2.63706E-001	-8.87144E-005	0.00000E+000	-2.33945E-005	-5.39641E-002	2.63742E-001	3.57400E+000	9	...........
	87	1.17333	2.59046E-001	-8.91843E-005	0.00000E+000	-2.31028E-005	-5.39641E-002	2.59077E-001	3.57400E+000	9	...........
	88	1.18667	2.54405E-001	-8.89353E-005	0.00000E+000	-2.26256E-005	-5.39641E-002	2.54435E-001	3.57400E+000	9	...........
	89	1.2	2.49775E-001	-8.86842E-005	0.00000E+000	-2.21511E-005	-5.39641E-002	2.49809E-001	3.57400E+000	9	...........
	90	1.21333	2.45163E-001	-8.87895E-005	0.00000E+000	-2.17679E-005	-5.39641E-002	2.45192E-001	3.57400E+000	9	...........
	91	1.22667	2.40569E-001	-8.87530E-005	0.00000E+000	-2.13512E-005	-5.39641E-002	2.40597E-001	3.57400E+000	9	...........
	92	1.24	2.36002E-001	-8.89530E-005	0.00000E+000	-2.09931E-005	-5.39641E-002	2.36029E-001	3.57400E+000	9	...........
	93	1.25333	2.31451E-001	-8.87113E-005	0.00000E+000	-2.05323E-005	-5.39641E-002	2.31475E-001	3.57400E+000	9	...........
	94	1.26667	2.26895E-001	-8.88364E-005	0.00000E+000	-2.01565E-005	-5.39641E-002	2.26924E-001	3.57400E+000	9	...........
	95	1.28	2.22379E-001	-8.88457E-005	0.00000E+000	-1.97574E-005	-5.39641E-002	2.22405E-001	3.57400E+000	9	...........
	96	1.29333	2.17886E-001	-8.86540E-005	0.00000E+000	-1.93164E-005	-5.39641E-002	2.17906E-001	3.57400E+000	9	...........
	97	1.30667	2.13407E-001	-8.87707E-005	0.00000E+000	-1.89443E-005	-5.39641E-002	2.13429E-001	3.57400E+000	9	...........
	98	1.32	2.08947E-001	-8.87113E-005	0.00000E+000	-1.85360E-005	-5.39641E-002	2.08966E-001	3.57400E+000	9	...........
	99	1.33333	2.04515E-001	-8.87582E-005	0.00000E+000	-1.81524E-005	-5.39641E-002	2.04542E-001	3.57400E+000	9	...........
	100	1.34667	2.00103E-001	-8.87405E-005	0.00000E+000	-1.77572E-005	-5.39641E-002	2.00125E-001	3.57400E+000	9	...........
	101	1.36	1.95703E-001	-8.86426E-005	0.00000E+000	-1.73476E-005	-5.39641E-002	1.95725E-001	3.57400E+000	9	...........
	102	1.37333	1.91331E-001	-8.87395E-005	0.00000E+000	-1.69786E-005	-5.39641E-002	1.91350E-001	3.57400E+000	9	...........
	103	1.38667	1.86971E-001	-8.87676E-005	0.00000E+000	-1.65970E-005	-5.39641E-002	1.86988E-001	3.57400E+000	9	...........
	104	1.4	1.82627E-001	-8.87832E-005	0.00000E+000	-1.62142E-005	-5.39641E-002	1.82647E-001	3.57400E+000	9	...........
	105	1.41333	1.78303E-001	-8.87009E-005	0.00000E+000	-1.58156E-005	-5.39641E-002	1.78329E-001	3.57400E+000	9	...........
	106	1.42667	1.73990E-001	-8.88468E-005	0.00000E+000	-1.54584E-005	-5.39641E-002	1.74011E-001	3.57400E+000	9	...........
	107	1.44	1.69698E-001	-8.85019E-005	0.00000E+000	-1.50186E-005	-5.39641E-002	1.69720E-001	3.57400E+000	9	...........
	108	1.45333	1.65415E-001	-8.85759E-005	0.00000E+000	-1.46517E-005	-5.39641E-002	1.65438E-001	3.57400E+000	9	...........
	109	1.46667	1.61147E-001	-8.87853E-005	0.00000E+000	-1.43075E-005	-5.39641E-002	1.61159E-001	3.57400E+000	9	...........
	110	1.48	1.56902E-001	-8.86467E-005	0.00000E+000	-1.39088E-005	-5.39641E-002	1.56914E-001	3.57400E+000	9	...........
	111	1.49333	1.52681E-001	-8.88082E-005	0.00000E+000	-1.35593E-005	-5.39641E-002	1.52698E-001	3.57400E+000	9	...........
	112	1.50667	1.48490E-001	-8.88270E-005	0.00000E+000	-1.31899E-005	-5.39641E-002	1.48503E-001	3.57400E+000	9	...........
	113	1.52	1.44297E-001	-8.86207E-005	0.00000E+000	-1.27877E-005	-5.39641E-002	1.44316E-001	3.57400E+000	9	...........
	114	1.53333	1.40143E-001	-8.87207E-005	0.00000E+000	-1.24336E-005	-5.39641E-002	1.40156E-001	3.57400E+000	9	...........
	115	1.54667	1.35998E-001	-8.88593E-005	0.00000E+000	-1.20847E-005	-5.39641E-002	1.36014E-001	3.57400E+000	9	...........
	116	1.56	1.31894E-001	-8.87759E-005	0.00000E+000	-1.17090E-005	-5.39641E-002	1.31906E-001	3.57400E+000	9	...........
	117	1.57333	1.27805E-001	-8.87113E-005	0.00000E+000	-1.13378E-005	-5.39641E-002	1.27819E-001	3.57400E+000	9	...........
	118	1.58667	1.23736E-001	-8.88478E-005	0.00000E+000	-1.09937E-005	-5.39641E-002	1.23749E-001	3.57400E+000	9	...........
	119	1.6	1.19671E-001	-8.90520E-005	0.00000E+000	-1.06570E-005	-5.39641E-002	1.19682E-001	3.57400E+000	9	...........
	120	1.61333	1.15627E-001	-8.87561E-005	0.00000E+000	-1.02626E-005	-5.39641E-002	1.15634E-001	3.57400E+000	9	...........
	121	1.62667	1.11581E-001	-8.88030E-005	0.00000E+000	-9.90870E-006	-5.39641E-002	1.11591E-001	3.57400E+000	9	...........
	122	1.64	1.07559E-001	-8.87853E-005	0.00000E+000	-9.54970E-006	-5.39641E-002	1.07569E-001	3.57400E+000	9	...........
	123	1.65333	1.03563E-001	-8.87509E-005	0.00000E+000	-9.19129E-006	-5.39641E-002	1.03579E-001	3.57400E+000	9	...........
	124	1.66667	9.95956E-002	-8.88561E-005	0.00000E+000	-8.84968E-006	-5.39641E-002	9.96075E-002	3.57400E+000	9	...........
	125	1.68	9.56407E-002	-8.87655E-005	0.00000E+000	-8.48959E-006	-5.39641E-002	9.56541E-002	3.57400E+000	9	...........
	126	1.69333	9.17081E-002	-8.88093E-005	0.00000E+000	-8.14453E-006	-5.39641E-002	9.17174E-002	3.57400E+000	9	...........
	127	1.70667	8.77827E-002	-8.87488E-005	0.00000E+000	-7.79061E-006	-5.39641E-002	8.77973E-002	3.57400E+000	9	...........
	128	1.72	8.38767E-002	-8.87634E-005	0.00000E+000	-7.44519E-006	-5.39641E-002	8.38851E-002	3.57400E+000	9	...........
	129	1.73333	7.99932E-002	-8.87280E-005	0.00000E+000	-7.09764E-006	-5.39641E-002	7.99997E-002	3.57400E+000	9	...........
	130	1.74667	7.61356E-002	-8.88395E-005	0.00000E+000	-6.76385E-006	-5.39641E-002	7.61418E-002	3.57400E+000	9	...........
	131	1.76	7.22837E-002	-8.86749E-005	0.00000E+000	-6.40974E-006	-5.39641E-002	7.22834E-002	3.57400E+000	9	...........
	132	1.77333	6.84546E-002	-8.89551E-005	0.00000E+000	-6.08939E-006	-5.39641E-002	6.84615E-002	3.57400E+000	9	...........
	133	1.78667	6.46428E-002	-8.86634E-005	0.00000E+000	-5.73145E-006	-5.39641E-002	6.46442E-002	3.57400E+000	9	...........
	134	1.8	6.08322E-002	-8.88989E-005	0.00000E+000	-5.40791E-006	-5.39641E-002	6.08356E-002	3.57400E+000	9	...........
	135	1.81333	5.70534E-002	-8.87697E-005	0.00000E+000	-5.06461E-006	-5.39641E-002	5.70548E-002	3.57400E+000	9	...........
	136	1.82667	5.32915E-002	-8.88561E-005	0.00000E+000	-4.73528E-006	-5.39641E-002	5.32942E-002	3.57400E+000	9	...........
	137	1.84	4.95590E-002	-8.87978E-005	0.00000E+000	-4.40073E-006	-5.39641E-002	4.95586E-002	3.57400E+000	9	...........
	138	1.85333	4.58328E-002	-8.87280E-005	0.00000E+000	-4.06665E-006	-5.39641E-002	4.58424E-002	3.57400E+000	9	...........
	139	1.86667	4.21130E-002	-8.86915E-005	0.00000E+000	-3.73507E-006	-5.39641E-002	4.21204E-002	3.57400E+000	9	...........
	140	1.88	3.84081E-002	-8.90239E-005	0.00000E+000	-3.41924E-006	-5.39641E-002	3.84132E-002	3.57400E+000	9	...........
	141	1.89333	3.47224E-002	-8.87905E-005	0.00000E+000	-3.08302E-006	-5.39641E-002	3.47241E-002	3.57400E+000	9	...........
	142	1.90667	3.10491E-002	-8.88343E-005	0.00000E+000	-2.75823E-006	-5.39641E-002	3.10496E-002	3.57400E+000	9	...........
	143	1.92	2.73870E-002	-8.89020E-005	0.00000E+000	-2.43476E-006	-5.39641E-002	2.73901E-002	3.57310E+000	9	...........
	144	1.93333	2.37434E-002	-8.85821E-005	0.00000E+000	-2.10324E-006	-5.39641E-002	2.37437E-002	3.57310E+000	9	...........
	145	1.94667	2.01077E-002	-8.88124E-005	0.00000E+000	-1.78581E-006	-5.39641E-002	2.01045E-002	3.57310E+000	9	...........
	146	1.96	1.64969E-002	-8.88770E-005	0.00000E+000	-1.46620E-006	-5.39641E-002	1.64915E-002	3.57310E+000	9	...........
	147	1.97333	1.29139E-002	-8.87415E-005	0.00000E+000	-1.14600E-006	-5.39641E-002	1.29049E-002	3.57310E+000	9	...........
	148	1.98667	9.35062E-003	-8.87009E-005	0.00000E+000	-8.29409E-007	-5.39641E-002	9.33775E-003	3.57310E+000	9	...........
	149	2	5.79928E-003	-8.88416E-005	0.00000E+000	-5.15217E-007	-5.39641E-002	5.78885E-003	3.57310E+000	9	...........
	150	2.01333	2.26414E-003	-8.88895E-005	0.00000E+000	-2.01258E-007	-5.39641E-002	2.24996E-003	3.57310E+000	9	...........
	151	2.01667	6.35356E-005	-8.87624E-005	0.00000E+000	-5.63957E-009	-5.39641E-002	4.35536E-005	3.57310E+000	9	...........
STARTTIMEOFFSET	QUANT	2335.158	Start Time Offset (s)
