EXPLAIN
TAG	PWR800_DISCHARGE
TITLE	LABEL	PWR Cyclic Charge Discharge (Cell) - Discharge Step	Test &Identifier
DATE	LABEL	10-7-2017	Date
TIME	LABEL	15:44:45	Time
NOTES	NOTES	3	&Notes...
	supercap test cell
	0.9mg
	6M KOH
PSTAT	PSTAT	IFC5000-01520	Potentiostat
CAPACITY	QUANT	1.00000E-003	Capacity (A-hr)
CELLTYPE	SELECTOR	1	&Cell Type
WORKINGCONNECTION	SELECTOR	0	&Working Lead
MAXDISCHARGETIME	VARIABLEANDUNITS	1.00000E+002	s	1.00000E+002	second(s)	Max &Discharge Time
DISCHARGEMODE	MULTIPARAM	0	9.00000E-005	&Discharge Mode	Constant Current	Amp(s)
SAMPLETIME	QUANT	1.00000E-002	Sa&mple Period (s)
DISCHARGESTOPAT1	MULTIPARAM	3	0.00000E+000	Discharge Stop At &1	Voltage < Limit	V
DISCHARGESTOPAT2	MULTIPARAM	0	0.00000E+000	Discharge Stop At &2	None	N/A
AESBHCSELECTOR	TOGGLE	F	Save Both Half Cells
IRCOMP	TOGGLE	F	IR &Measure
EOC	QUANT	0	Open Circuit (V)
SEQUENCER	TOGGLE	TRUE	Run as Sequence
PSTATMODEL	IQUANT	53	Pstat Model
PSTATSECTION	LABEL	IFC5000-01520	Pstat Section
PSTATSERIALNO	LABEL	01520	Pstat Serial Number
CTRLMODE	IQUANT	0	Control Mode
ELECTROMETER	IQUANT	1	RE=0 or CS=1
IESTAB	IQUANT	0	I/E Stability
CASPEED	IQUANT	4	Control Amp Speed
CONVENTION	IQUANT	1	Current Convention
ICHRANGE	IQUANT	2	Ich Range
ICHRANGEMODE	TOGGLE	T	Ich Auto Range
ICHOFFSETENABLE	TOGGLE	F	Ich Offset Enable
ICHOFFSET	QUANT	0	Ich Offset (V)
ICHFILTER	IQUANT	1	Ich Filter
VCHRANGE	IQUANT	2	Vch Range
VCHRANGEMODE	TOGGLE	T	Vch Auto Range
VCHOFFSETENABLE	TOGGLE	F	Vch Offset Enable
VCHOFFSET	QUANT	0	Vch Offset (V)
VCHFILTER	IQUANT	1	Vch Filter
IERANGELOWERLIMIT	IQUANT	9	I/E Range Lower Limit
IERANGEMODE	TOGGLE	F	I/E AutoRange
IERANGE	IQUANT	9	I/E Range
ACHSELECT	IQUANT	1	Ach Select
ACHRANGE	IQUANT	2	Ach Range
ACHOFFSETENABLE	TOGGLE	F	Ach Offset Enable
ACHOFFSET	QUANT	0	Ach Offset (V)
ACHFILTER	IQUANT	1	Ach Filter
CABLEID	IQUANT	14	Cable ID
DCCALDATE	LABEL	5-7-2017	DC Calibration Date
ACCALDATE	LABEL	12/3/2015	AC Calibration Date
FRAMEWORKVERSION	QUANT	7.01	Framework Version
INSTRUMENTVERSION	LABEL	4.00	Instrument Version
CURVE	TABLE	151
	Pt	T	Vf	Im	Vu	Pwr	Sig	Ach	Temp	IERange	Over
	#	s	V	A	V	W	V	V	deg C	#	bits
	0	0.013333	7.95237E-001	-8.87290E-005	0.00000E+000	-7.05606E-005	-5.39641E-002	7.95368E-001	3.57260E+000	9	...........
	1	0.026667	7.81860E-001	-8.85634E-005	0.00000E+000	-6.92442E-005	-5.39641E-002	7.81984E-001	3.57260E+000	9	...........
	2	0.04	7.69337E-001	-8.90239E-005	0.00000E+000	-6.84894E-005	-5.39641E-002	7.69501E-001	3.57260E+000	9	...........
	3	0.053333	7.57613E-001	-8.86478E-005	0.00000E+000	-6.71607E-005	-5.39641E-002	7.57746E-001	3.57260E+000	9	...........
	4	0.066667	7.46476E-001	-8.88291E-005	0.00000E+000	-6.63088E-005	-5.39641E-002	7.46606E-001	3.57260E+000	9	...........
	5	0.08	7.35821E-001	-8.87280E-005	0.00000E+000	-6.52879E-005	-5.39641E-002	7.35946E-001	3.57260E+000	9	...........
	6	0.093333	7.25635E-001	-8.88624E-005	0.00000E+000	-6.44816E-005	-5.39641E-002	7.25756E-001	3.57260E+000	9	...........
	7	0.106667	7.15793E-001	-8.87197E-005	0.00000E+000	-6.35050E-005	-5.39641E-002	7.15921E-001	3.57260E+000	9	...........
	8	0.12	7.06277E-001	-8.87613E-005	0.00000E+000	-6.26901E-005	-5.39641E-002	7.06415E-001	3.57260E+000	9	...........
	9	0.133333	6.97103E-001	-8.86321E-005	0.00000E+000	-6.17857E-005	-5.39641E-002	6.97219E-001	3.57260E+000	9	...........
	10	0.146667	6.88176E-001	-8.88655E-005	0.00000E+000	-6.11551E-005	-5.39641E-002	6.88328E-001	3.57260E+000	9	...........
	11	0.16	6.79535E-001	-8.88020E-005	0.00000E+000	-6.03441E-005	-5.39641E-002	6.79665E-001	3.57260E+000	9	...........
	12	0.173333	6.71141E-001	-8.86311E-005	0.00000E+000	-5.94839E-005	-5.39641E-002	6.71245E-001	3.57260E+000	9	...........
	13	0.186667	6.62899E-001	-8.86426E-005	0.00000E+000	-5.87611E-005	-5.39641E-002	6.63022E-001	3.57260E+000	9	...........
	14	0.2	6.54902E-001	-8.86207E-005	0.00000E+000	-5.80379E-005	-5.39641E-002	6.55001E-001	3.57260E+000	9	...........
	15	0.213333	6.47077E-001	-8.87822E-005	0.00000E+000	-5.74489E-005	-5.39641E-002	6.47163E-001	3.57260E+000	9	...........
	16	0.226667	6.39425E-001	-8.89374E-005	0.00000E+000	-5.68688E-005	-5.39641E-002	6.39524E-001	3.57260E+000	9	...........
	17	0.24	6.31938E-001	-8.89030E-005	0.00000E+000	-5.61812E-005	-5.39641E-002	6.31993E-001	3.57260E+000	9	...........
	18	0.253333	6.24622E-001	-8.89968E-005	0.00000E+000	-5.55894E-005	-5.39641E-002	6.24622E-001	3.57260E+000	9	...........
	19	0.266667	6.17425E-001	-8.86405E-005	0.00000E+000	-5.47288E-005	-5.39641E-002	6.17456E-001	3.57260E+000	9	...........
	20	0.28	6.10278E-001	-8.86551E-005	0.00000E+000	-5.41043E-005	-5.39641E-002	6.10362E-001	3.57260E+000	9	...........
	21	0.293333	6.03329E-001	-8.88686E-005	0.00000E+000	-5.36171E-005	-5.39641E-002	6.03433E-001	3.57260E+000	9	...........
	22	0.306667	5.96516E-001	-8.86832E-005	0.00000E+000	-5.29009E-005	-5.39641E-002	5.96598E-001	3.57260E+000	9	...........
	23	0.32	5.89797E-001	-8.87238E-005	0.00000E+000	-5.23290E-005	-5.39641E-002	5.89871E-001	3.57260E+000	9	...........
	24	0.333333	5.83119E-001	-8.87728E-005	0.00000E+000	-5.17651E-005	-5.39641E-002	5.83216E-001	3.57260E+000	9	...........
	25	0.346667	5.76600E-001	-8.90030E-005	0.00000E+000	-5.13191E-005	-5.39641E-002	5.76710E-001	3.57260E+000	9	...........
	26	0.36	5.70200E-001	-8.87197E-005	0.00000E+000	-5.05879E-005	-5.39641E-002	5.70258E-001	3.57260E+000	9	...........
	27	0.373333	5.63820E-001	-8.87665E-005	0.00000E+000	-5.00483E-005	-5.39641E-002	5.63957E-001	3.57260E+000	9	...........
	28	0.386667	5.57548E-001	-8.88759E-005	0.00000E+000	-4.95526E-005	-5.39641E-002	5.57665E-001	3.57260E+000	9	...........
	29	0.4	5.51388E-001	-8.86050E-005	0.00000E+000	-4.88557E-005	-5.39641E-002	5.51486E-001	3.57260E+000	9	...........
	30	0.413333	5.45273E-001	-8.88291E-005	0.00000E+000	-4.84361E-005	-5.39641E-002	5.45377E-001	3.57260E+000	9	...........
	31	0.426667	5.39257E-001	-8.86113E-005	0.00000E+000	-4.77843E-005	-5.39641E-002	5.39356E-001	3.57260E+000	9	...........
	32	0.44	5.33253E-001	-8.85957E-005	0.00000E+000	-4.72440E-005	-5.39641E-002	5.33367E-001	3.57260E+000	9	...........
	33	0.453333	5.27359E-001	-8.87426E-005	0.00000E+000	-4.67992E-005	-5.39641E-002	5.27461E-001	3.57260E+000	9	...........
	34	0.466667	5.21477E-001	-8.88457E-005	0.00000E+000	-4.63310E-005	-5.39641E-002	5.21600E-001	3.57260E+000	9	...........
	35	0.48	5.15688E-001	-8.89760E-005	0.00000E+000	-4.58839E-005	-5.39641E-002	5.15796E-001	3.57260E+000	9	...........
	36	0.493333	5.09895E-001	-8.87561E-005	0.00000E+000	-4.52563E-005	-5.39641E-002	5.10046E-001	3.57264E+000	9	...........
	37	0.506667	5.04174E-001	-8.88384E-005	0.00000E+000	-4.47900E-005	-5.39641E-002	5.04315E-001	3.57270E+000	9	...........
	38	0.52	4.98538E-001	-8.87019E-005	0.00000E+000	-4.42213E-005	-5.39641E-002	4.98666E-001	3.57270E+000	9	...........
	39	0.533333	4.92961E-001	-8.87843E-005	0.00000E+000	-4.37672E-005	-5.39641E-002	4.93071E-001	3.57270E+000	9	...........
	40	0.546667	4.87403E-001	-8.86759E-005	0.00000E+000	-4.32209E-005	-5.39641E-002	4.87536E-001	3.57270E+000	9	...........
	41	0.56	4.81980E-001	-8.87499E-005	0.00000E+000	-4.27757E-005	-5.39641E-002	4.82051E-001	3.57270E+000	9	...........
	42	0.573333	4.76483E-001	-8.86113E-005	0.00000E+000	-4.22218E-005	-5.39641E-002	4.76549E-001	3.57270E+000	9	...........
	43	0.586667	4.71025E-001	-8.89103E-005	0.00000E+000	-4.18789E-005	-5.39641E-002	4.71086E-001	3.57270E+000	9	...........
	44	0.6	4.65603E-001	-8.89739E-005	0.00000E+000	-4.14265E-005	-5.39641E-002	4.65662E-001	3.57270E+000	9	...........
	45	0.613333	4.60224E-001	-8.87415E-005	0.00000E+000	-4.08410E-005	-5.39641E-002	4.60286E-001	3.57270E+000	9	...........
	46	0.626667	4.54866E-001	-8.87676E-005	0.00000E+000	-4.03774E-005	-5.39641E-002	4.54930E-001	3.57270E+000	9	...........
	47	0.64	4.49537E-001	-8.87478E-005	0.00000E+000	-3.98955E-005	-5.39641E-002	4.49598E-001	3.57270E+000	9	...........
	48	0.653333	4.44230E-001	-8.88218E-005	0.00000E+000	-3.94573E-005	-5.39641E-002	4.44286E-001	3.57270E+000	9	...........
	49	0.666667	4.38963E-001	-8.87269E-005	0.00000E+000	-3.89479E-005	-5.39641E-002	4.39013E-001	3.57270E+000	9	...........
	50	0.68	4.33715E-001	-8.87290E-005	0.00000E+000	-3.84831E-005	-5.39641E-002	4.33767E-001	3.57270E+000	9	...........
	51	0.693333	4.28504E-001	-8.86363E-005	0.00000E+000	-3.79810E-005	-5.39641E-002	4.28556E-001	3.57270E+000	9	...........
	52	0.706667	4.23297E-001	-8.88791E-005	0.00000E+000	-3.76222E-005	-5.39641E-002	4.23351E-001	3.57270E+000	9	...........
	53	0.72	4.18128E-001	-8.85457E-005	0.00000E+000	-3.70234E-005	-5.39641E-002	4.18182E-001	3.57270E+000	9	...........
	54	0.733333	4.12971E-001	-8.87301E-005	0.00000E+000	-3.66429E-005	-5.39641E-002	4.13024E-001	3.57270E+000	9	...........
	55	0.746667	4.07845E-001	-8.87665E-005	0.00000E+000	-3.62030E-005	-5.39641E-002	4.07894E-001	3.57270E+000	9	...........
	56	0.76	4.02746E-001	-8.88520E-005	0.00000E+000	-3.57848E-005	-5.39641E-002	4.02794E-001	3.57270E+000	9	...........
	57	0.773333	3.97670E-001	-8.89020E-005	0.00000E+000	-3.53536E-005	-5.39641E-002	3.97715E-001	3.57270E+000	9	...........
	58	0.786667	3.92621E-001	-8.85707E-005	0.00000E+000	-3.47747E-005	-5.39641E-002	3.92660E-001	3.57270E+000	9	...........
	59	0.8	3.87577E-001	-8.88645E-005	0.00000E+000	-3.44418E-005	-5.39641E-002	3.87626E-001	3.57270E+000	9	...........
	60	0.813333	3.82548E-001	-8.89864E-005	0.00000E+000	-3.40416E-005	-5.39641E-002	3.82592E-001	3.57270E+000	9	...........
	61	0.826667	3.77527E-001	-8.85957E-005	0.00000E+000	-3.34472E-005	-5.39641E-002	3.77574E-001	3.57270E+000	9	...........
	62	0.84	3.72513E-001	-8.87488E-005	0.00000E+000	-3.30601E-005	-5.39641E-002	3.72557E-001	3.57270E+000	9	...........
	63	0.853333	3.67525E-001	-8.89093E-005	0.00000E+000	-3.26764E-005	-5.39641E-002	3.67568E-001	3.57270E+000	9	...........
	64	0.866667	3.62535E-001	-8.86144E-005	0.00000E+000	-3.21258E-005	-5.39641E-002	3.62583E-001	3.57270E+000	9	...........
	65	0.88	3.57573E-001	-8.87332E-005	0.00000E+000	-3.17286E-005	-5.39641E-002	3.57616E-001	3.57270E+000	9	...........
	66	0.893333	3.52629E-001	-8.87478E-005	0.00000E+000	-3.12950E-005	-5.39641E-002	3.52674E-001	3.57270E+000	9	...........
	67	0.906667	3.47702E-001	-8.87311E-005	0.00000E+000	-3.08520E-005	-5.39641E-002	3.47738E-001	3.57270E+000	9	...........
	68	0.92	3.42778E-001	-8.88989E-005	0.00000E+000	-3.04726E-005	-5.39641E-002	3.42824E-001	3.57270E+000	9	...........
	69	0.933333	3.37882E-001	-8.86811E-005	0.00000E+000	-2.99638E-005	-5.39641E-002	3.37925E-001	3.57270E+000	9	...........
	70	0.946667	3.32989E-001	-8.86499E-005	0.00000E+000	-2.95194E-005	-5.39641E-002	3.33032E-001	3.57270E+000	9	...........
	71	0.96	3.28105E-001	-8.88061E-005	0.00000E+000	-2.91377E-005	-5.39641E-002	3.28147E-001	3.57270E+000	9	...........
	72	0.97333	3.23226E-001	-8.87499E-005	0.00000E+000	-2.86862E-005	-5.39641E-002	3.23267E-001	3.57270E+000	9	...........
	73	0.98667	3.18366E-001	-8.89655E-005	0.00000E+000	-2.83236E-005	-5.39641E-002	3.18407E-001	3.57270E+000	9	...........
	74	1	3.13520E-001	-8.89280E-005	0.00000E+000	-2.78808E-005	-5.39641E-002	3.13558E-001	3.57270E+000	9	...........
	75	1.01333	3.08702E-001	-8.86936E-005	0.00000E+000	-2.73799E-005	-5.39641E-002	3.08737E-001	3.57270E+000	9	...........
	76	1.02667	3.03907E-001	-8.84665E-005	0.00000E+000	-2.68856E-005	-5.39641E-002	3.03944E-001	3.57270E+000	9	...........
	77	1.04	2.99121E-001	-8.91270E-005	0.00000E+000	-2.66597E-005	-5.39641E-002	2.99155E-001	3.57270E+000	9	...........
	78	1.05333	2.94344E-001	-8.87874E-005	0.00000E+000	-2.61340E-005	-5.39641E-002	2.94379E-001	3.57270E+000	9	...........
	79	1.06667	2.89594E-001	-8.88468E-005	0.00000E+000	-2.57295E-005	-5.39641E-002	2.89624E-001	3.57270E+000	9	...........
	80	1.08	2.84841E-001	-8.88343E-005	0.00000E+000	-2.53036E-005	-5.39641E-002	2.84877E-001	3.57270E+000	9	...........
	81	1.09333	2.80114E-001	-8.86978E-005	0.00000E+000	-2.48455E-005	-5.39641E-002	2.80149E-001	3.57270E+000	9	...........
	82	1.10667	2.75412E-001	-8.88041E-005	0.00000E+000	-2.44577E-005	-5.39641E-002	2.75440E-001	3.57270E+000	9	...........
	83	1.12	2.70713E-001	-8.86478E-005	0.00000E+000	-2.39981E-005	-5.39641E-002	2.70739E-001	3.57270E+000	9	...........
	84	1.13333	2.66033E-001	-8.86728E-005	0.00000E+000	-2.35898E-005	-5.39641E-002	2.66068E-001	3.57270E+000	9	...........
	85	1.14667	2.61378E-001	-8.83842E-005	0.00000E+000	-2.31017E-005	-5.39641E-002	2.61411E-001	3.57270E+000	9	...........
	86	1.16	2.56738E-001	-8.86311E-005	0.00000E+000	-2.27549E-005	-5.39641E-002	2.56771E-001	3.57270E+000	9	...........
	87	1.17333	2.52120E-001	-8.88593E-005	0.00000E+000	-2.24032E-005	-5.39641E-002	2.52152E-001	3.57270E+000	9	...........
	88	1.18667	2.47513E-001	-8.87926E-005	0.00000E+000	-2.19773E-005	-5.39641E-002	2.47543E-001	3.57270E+000	9	...........
	89	1.2	2.42928E-001	-8.88853E-005	0.00000E+000	-2.15927E-005	-5.39641E-002	2.42956E-001	3.57270E+000	9	...........
	90	1.21333	2.38361E-001	-8.86957E-005	0.00000E+000	-2.11416E-005	-5.39641E-002	2.38382E-001	3.57270E+000	9	...........
	91	1.22667	2.33819E-001	-8.89437E-005	0.00000E+000	-2.07967E-005	-5.39641E-002	2.33841E-001	3.57270E+000	9	...........
	92	1.24	2.29298E-001	-8.86707E-005	0.00000E+000	-2.03320E-005	-5.39641E-002	2.29321E-001	3.57270E+000	9	...........
	93	1.25333	2.24792E-001	-8.88739E-005	0.00000E+000	-1.99781E-005	-5.39641E-002	2.24817E-001	3.57270E+000	9	...........
	94	1.26667	2.20297E-001	-8.87822E-005	0.00000E+000	-1.95584E-005	-5.39641E-002	2.20317E-001	3.57270E+000	9	...........
	95	1.28	2.15820E-001	-8.86082E-005	0.00000E+000	-1.91235E-005	-5.39641E-002	2.15847E-001	3.57270E+000	9	...........
	96	1.29333	2.11373E-001	-8.88249E-005	0.00000E+000	-1.87752E-005	-5.39641E-002	2.11393E-001	3.57270E+000	9	...........
	97	1.30667	2.06955E-001	-8.84727E-005	0.00000E+000	-1.83099E-005	-5.39641E-002	2.06978E-001	3.57270E+000	9	...........
	98	1.32	2.02554E-001	-8.89332E-005	0.00000E+000	-1.80137E-005	-5.39641E-002	2.02583E-001	3.57270E+000	9	...........
	99	1.33333	1.98155E-001	-8.88614E-005	0.00000E+000	-1.76084E-005	-5.39641E-002	1.98180E-001	3.57270E+000	9	...........
	100	1.34667	1.93792E-001	-8.88405E-005	0.00000E+000	-1.72166E-005	-5.39641E-002	1.93816E-001	3.57270E+000	9	...........
	101	1.36	1.89441E-001	-8.86071E-005	0.00000E+000	-1.67858E-005	-5.39641E-002	1.89462E-001	3.57270E+000	9	...........
	102	1.37333	1.85103E-001	-8.88489E-005	0.00000E+000	-1.64462E-005	-5.39641E-002	1.85121E-001	3.57270E+000	9	...........
	103	1.38667	1.80802E-001	-8.86134E-005	0.00000E+000	-1.60215E-005	-5.39641E-002	1.80820E-001	3.57270E+000	9	...........
	104	1.4	1.76518E-001	-8.85842E-005	0.00000E+000	-1.56367E-005	-5.39641E-002	1.76537E-001	3.57270E+000	9	...........
	105	1.41333	1.72244E-001	-8.87603E-005	0.00000E+000	-1.52884E-005	-5.39641E-002	1.72263E-001	3.57270E+000	9	...........
	106	1.42667	1.67996E-001	-8.88207E-005	0.00000E+000	-1.49215E-005	-5.39641E-002	1.68011E-001	3.57270E+000	9	...........
	107	1.44	1.63760E-001	-8.88686E-005	0.00000E+000	-1.45531E-005	-5.39641E-002	1.63774E-001	3.57270E+000	9	...........
	108	1.45333	1.59539E-001	-8.85227E-005	0.00000E+000	-1.41228E-005	-5.39641E-002	1.59553E-001	3.57270E+000	9	...........
	109	1.46667	1.55347E-001	-8.90489E-005	0.00000E+000	-1.38335E-005	-5.39641E-002	1.55364E-001	3.57270E+000	9	...........
	110	1.48	1.51188E-001	-8.88311E-005	0.00000E+000	-1.34302E-005	-5.39641E-002	1.51196E-001	3.57270E+000	9	...........
	111	1.49333	1.47043E-001	-8.88697E-005	0.00000E+000	-1.30676E-005	-5.39641E-002	1.47054E-001	3.57263E+000	9	...........
	112	1.50667	1.42904E-001	-8.89687E-005	0.00000E+000	-1.27140E-005	-5.39641E-002	1.42919E-001	3.57250E+000	9	...........
	113	1.52	1.38778E-001	-8.86165E-005	0.00000E+000	-1.22980E-005	-5.39641E-002	1.38786E-001	3.57250E+000	9	...........
	114	1.53333	1.34670E-001	-8.90687E-005	0.00000E+000	-1.19949E-005	-5.39641E-002	1.34685E-001	3.57250E+000	9	...........
	115	1.54667	1.30581E-001	-8.86332E-005	0.00000E+000	-1.15738E-005	-5.39641E-002	1.30591E-001	3.57250E+000	9	...........
	116	1.56	1.26501E-001	-8.87447E-005	0.00000E+000	-1.12263E-005	-5.39641E-002	1.26514E-001	3.57250E+000	9	...........
	117	1.57333	1.22447E-001	-8.89489E-005	0.00000E+000	-1.08915E-005	-5.39641E-002	1.22457E-001	3.57250E+000	9	...........
	118	1.58667	1.18419E-001	-8.89687E-005	0.00000E+000	-1.05356E-005	-5.39641E-002	1.18433E-001	3.57250E+000	9	...........
	119	1.6	1.14411E-001	-8.87384E-005	0.00000E+000	-1.01526E-005	-5.39641E-002	1.14422E-001	3.57250E+000	9	...........
	120	1.61333	1.10422E-001	-8.87426E-005	0.00000E+000	-9.79913E-006	-5.39641E-002	1.10432E-001	3.57250E+000	9	...........
	121	1.62667	1.06442E-001	-8.88572E-005	0.00000E+000	-9.45815E-006	-5.39641E-002	1.06453E-001	3.57250E+000	9	...........
	122	1.64	1.02481E-001	-8.91677E-005	0.00000E+000	-9.13795E-006	-5.39641E-002	1.02491E-001	3.57250E+000	9	...........
	123	1.65333	9.85342E-002	-8.88614E-005	0.00000E+000	-8.75588E-006	-5.39641E-002	9.85436E-002	3.57250E+000	9	...........
	124	1.66667	9.46082E-002	-8.88541E-005	0.00000E+000	-8.40632E-006	-5.39641E-002	9.46176E-002	3.57250E+000	9	...........
	125	1.68	9.07071E-002	-8.87269E-005	0.00000E+000	-8.04816E-006	-5.39641E-002	9.07148E-002	3.57250E+000	9	...........
	126	1.69333	8.68160E-002	-8.88447E-005	0.00000E+000	-7.71314E-006	-5.39641E-002	8.68262E-002	3.57250E+000	9	...........
	127	1.70667	8.29328E-002	-8.86321E-005	0.00000E+000	-7.35051E-006	-5.39641E-002	8.29399E-002	3.57250E+000	9	...........
	128	1.72	7.90780E-002	-8.87124E-005	0.00000E+000	-7.01520E-006	-5.39641E-002	7.90776E-002	3.57250E+000	9	...........
	129	1.73333	7.52364E-002	-8.91666E-005	0.00000E+000	-6.70858E-006	-5.39641E-002	7.52365E-002	3.57250E+000	9	...........
	130	1.74667	7.14017E-002	-8.88197E-005	0.00000E+000	-6.34188E-006	-5.39641E-002	7.13999E-002	3.57250E+000	9	...........
	131	1.76	6.75836E-002	-8.88124E-005	0.00000E+000	-6.00226E-006	-5.39641E-002	6.75827E-002	3.57250E+000	9	...........
	132	1.77333	6.37989E-002	-8.90739E-005	0.00000E+000	-5.68282E-006	-5.39641E-002	6.37950E-002	3.57250E+000	9	...........
	133	1.78667	6.00086E-002	-8.88447E-005	0.00000E+000	-5.33145E-006	-5.39641E-002	6.00097E-002	3.57250E+000	9	...........
	134	1.8	5.62212E-002	-8.87645E-005	0.00000E+000	-4.99045E-006	-5.39641E-002	5.62181E-002	3.57250E+000	9	...........
	135	1.81333	5.24566E-002	-8.87572E-005	0.00000E+000	-4.65589E-006	-5.39641E-002	5.24505E-002	3.57250E+000	9	...........
	136	1.82667	4.87309E-002	-8.90270E-005	0.00000E+000	-4.33837E-006	-5.39641E-002	4.87289E-002	3.57250E+000	9	...........
	137	1.84	4.50244E-002	-8.89207E-005	0.00000E+000	-4.00361E-006	-5.39641E-002	4.50322E-002	3.57250E+000	9	...........
	138	1.85333	4.13279E-002	-8.86592E-005	0.00000E+000	-3.66410E-006	-5.39641E-002	4.13382E-002	3.57250E+000	9	...........
	139	1.86667	3.76509E-002	-8.89843E-005	0.00000E+000	-3.35034E-006	-5.39641E-002	3.76568E-002	3.57250E+000	9	...........
	140	1.88	3.39906E-002	-8.88270E-005	0.00000E+000	-3.01928E-006	-5.39641E-002	3.39950E-002	3.57250E+000	9	...........
	141	1.89333	3.03481E-002	-8.91041E-005	0.00000E+000	-2.70414E-006	-5.39641E-002	3.03492E-002	3.57250E+000	9	...........
	142	1.90667	2.67340E-002	-8.89332E-005	0.00000E+000	-2.37754E-006	-5.39641E-002	2.67357E-002	3.57250E+000	9	...........
	143	1.92	2.31315E-002	-8.86467E-005	0.00000E+000	-2.05053E-006	-5.39641E-002	2.31290E-002	3.57250E+000	9	...........
	144	1.93333	1.95333E-002	-8.87447E-005	0.00000E+000	-1.73347E-006	-5.39641E-002	1.95272E-002	3.57250E+000	9	...........
	145	1.94667	1.59528E-002	-8.89062E-005	0.00000E+000	-1.41830E-006	-5.39641E-002	1.59481E-002	3.57250E+000	9	...........
	146	1.96	1.23895E-002	-8.86822E-005	0.00000E+000	-1.09873E-006	-5.39641E-002	1.23860E-002	3.57250E+000	9	...........
	147	1.97333	8.83629E-003	-8.87363E-005	0.00000E+000	-7.84100E-007	-5.39641E-002	8.82310E-003	3.57250E+000	9	...........
	148	1.98667	5.28320E-003	-8.87488E-005	0.00000E+000	-4.68878E-007	-5.39641E-002	5.26934E-003	3.57250E+000	9	...........
	149	2	1.76226E-003	-8.89426E-005	0.00000E+000	-1.56740E-007	-5.39641E-002	1.75009E-003	3.57250E+000	9	...........
	150	2.00167	-2.07863E-004	-8.90666E-005	0.00000E+000	1.85137E-008	-5.39641E-002	-2.25041E-004	3.57250E+000	9	...........
STARTTIMEOFFSET	QUANT	2301.15	Start Time Offset (s)
