EXPLAIN
TAG	PWR800_DISCHARGE
TITLE	LABEL	PWR Cyclic Charge Discharge (Cell) - Discharge Step	Test &Identifier
DATE	LABEL	10-7-2017	Date
TIME	LABEL	16:17:52	Time
NOTES	NOTES	3	&Notes...
	supercap test cell
	0.9mg
	6M KOH
PSTAT	PSTAT	IFC5000-01520	Potentiostat
CAPACITY	QUANT	1.00000E-003	Capacity (A-hr)
CELLTYPE	SELECTOR	1	&Cell Type
WORKINGCONNECTION	SELECTOR	0	&Working Lead
MAXDISCHARGETIME	VARIABLEANDUNITS	1.00000E+002	s	1.00000E+002	second(s)	Max &Discharge Time
DISCHARGEMODE	MULTIPARAM	0	9.00000E-005	&Discharge Mode	Constant Current	Amp(s)
SAMPLETIME	QUANT	1.00000E-002	Sa&mple Period (s)
DISCHARGESTOPAT1	MULTIPARAM	3	0.00000E+000	Discharge Stop At &1	Voltage < Limit	V
DISCHARGESTOPAT2	MULTIPARAM	0	0.00000E+000	Discharge Stop At &2	None	N/A
AESBHCSELECTOR	TOGGLE	F	Save Both Half Cells
IRCOMP	TOGGLE	F	IR &Measure
EOC	QUANT	0	Open Circuit (V)
SEQUENCER	TOGGLE	TRUE	Run as Sequence
PSTATMODEL	IQUANT	53	Pstat Model
PSTATSECTION	LABEL	IFC5000-01520	Pstat Section
PSTATSERIALNO	LABEL	01520	Pstat Serial Number
CTRLMODE	IQUANT	0	Control Mode
ELECTROMETER	IQUANT	1	RE=0 or CS=1
IESTAB	IQUANT	0	I/E Stability
CASPEED	IQUANT	4	Control Amp Speed
CONVENTION	IQUANT	1	Current Convention
ICHRANGE	IQUANT	2	Ich Range
ICHRANGEMODE	TOGGLE	T	Ich Auto Range
ICHOFFSETENABLE	TOGGLE	F	Ich Offset Enable
ICHOFFSET	QUANT	0	Ich Offset (V)
ICHFILTER	IQUANT	1	Ich Filter
VCHRANGE	IQUANT	2	Vch Range
VCHRANGEMODE	TOGGLE	T	Vch Auto Range
VCHOFFSETENABLE	TOGGLE	F	Vch Offset Enable
VCHOFFSET	QUANT	0	Vch Offset (V)
VCHFILTER	IQUANT	1	Vch Filter
IERANGELOWERLIMIT	IQUANT	9	I/E Range Lower Limit
IERANGEMODE	TOGGLE	F	I/E AutoRange
IERANGE	IQUANT	9	I/E Range
ACHSELECT	IQUANT	1	Ach Select
ACHRANGE	IQUANT	2	Ach Range
ACHOFFSETENABLE	TOGGLE	F	Ach Offset Enable
ACHOFFSET	QUANT	0	Ach Offset (V)
ACHFILTER	IQUANT	1	Ach Filter
CABLEID	IQUANT	14	Cable ID
DCCALDATE	LABEL	5-7-2017	DC Calibration Date
ACCALDATE	LABEL	12/3/2015	AC Calibration Date
FRAMEWORKVERSION	QUANT	7.01	Framework Version
INSTRUMENTVERSION	LABEL	4.00	Instrument Version
CURVE	TABLE	147
	Pt	T	Vf	Im	Vu	Pwr	Sig	Ach	Temp	IERange	Over
	#	s	V	A	V	W	V	V	deg C	#	bits
	0	0.013333	8.02844E-001	-8.86905E-005	0.00000E+000	-7.12047E-005	-5.39641E-002	8.02997E-001	3.57280E+000	9	...........
	1	0.026667	7.88444E-001	-8.88155E-005	0.00000E+000	-7.00261E-005	-5.39641E-002	7.88620E-001	3.57280E+000	9	...........
	2	0.04	7.75069E-001	-8.86113E-005	0.00000E+000	-6.86799E-005	-5.39641E-002	7.75209E-001	3.57280E+000	9	...........
	3	0.053333	7.62452E-001	-8.87353E-005	0.00000E+000	-6.76564E-005	-5.39641E-002	7.62601E-001	3.57280E+000	9	...........
	4	0.066667	7.50496E-001	-8.86363E-005	0.00000E+000	-6.65212E-005	-5.39641E-002	7.50656E-001	3.57280E+000	9	...........
	5	0.08	7.39058E-001	-8.89291E-005	0.00000E+000	-6.57238E-005	-5.39641E-002	7.39210E-001	3.57280E+000	9	...........
	6	0.093333	7.28148E-001	-8.88478E-005	0.00000E+000	-6.46944E-005	-5.39641E-002	7.28273E-001	3.57280E+000	9	...........
	7	0.106667	7.17639E-001	-8.87999E-005	0.00000E+000	-6.37263E-005	-5.39641E-002	7.17739E-001	3.57280E+000	9	...........
	8	0.12	7.07483E-001	-8.83863E-005	0.00000E+000	-6.25318E-005	-5.39641E-002	7.07601E-001	3.57280E+000	9	...........
	9	0.133333	6.97713E-001	-8.87457E-005	0.00000E+000	-6.19190E-005	-5.39641E-002	6.97804E-001	3.57280E+000	9	...........
	10	0.146667	6.88228E-001	-8.87863E-005	0.00000E+000	-6.11053E-005	-5.39641E-002	6.88327E-001	3.57280E+000	9	...........
	11	0.16	6.79046E-001	-8.87665E-005	0.00000E+000	-6.02766E-005	-5.39641E-002	6.79143E-001	3.57280E+000	9	...........
	12	0.173333	6.70130E-001	-8.84279E-005	0.00000E+000	-5.92582E-005	-5.39641E-002	6.70217E-001	3.57280E+000	9	...........
	13	0.186667	6.61426E-001	-8.86113E-005	0.00000E+000	-5.86098E-005	-5.39641E-002	6.61522E-001	3.57280E+000	9	...........
	14	0.2	6.52970E-001	-8.89572E-005	0.00000E+000	-5.80864E-005	-5.39641E-002	6.53066E-001	3.57280E+000	9	...........
	15	0.213333	6.44707E-001	-8.84998E-005	0.00000E+000	-5.70565E-005	-5.39641E-002	6.44818E-001	3.57280E+000	9	...........
	16	0.226667	6.36608E-001	-8.89937E-005	0.00000E+000	-5.66541E-005	-5.39641E-002	6.36719E-001	3.57280E+000	9	...........
	17	0.24	6.28771E-001	-8.88718E-005	0.00000E+000	-5.58800E-005	-5.39641E-002	6.28866E-001	3.57280E+000	9	...........
	18	0.253333	6.21091E-001	-8.88093E-005	0.00000E+000	-5.51586E-005	-5.39641E-002	6.21188E-001	3.57280E+000	9	...........
	19	0.266667	6.13527E-001	-8.90479E-005	0.00000E+000	-5.46333E-005	-5.39641E-002	6.13647E-001	3.57280E+000	9	...........
	20	0.28	6.06127E-001	-8.88561E-005	0.00000E+000	-5.38581E-005	-5.39641E-002	6.06248E-001	3.57280E+000	9	...........
	21	0.293333	5.98884E-001	-8.87863E-005	0.00000E+000	-5.31727E-005	-5.39641E-002	5.99007E-001	3.57280E+000	9	...........
	22	0.306667	5.91793E-001	-8.88082E-005	0.00000E+000	-5.25560E-005	-5.39641E-002	5.91902E-001	3.57280E+000	9	...........
	23	0.32	5.84781E-001	-8.89895E-005	0.00000E+000	-5.20394E-005	-5.39641E-002	5.84897E-001	3.57280E+000	9	...........
	24	0.333333	5.77913E-001	-8.88384E-005	0.00000E+000	-5.13408E-005	-5.39641E-002	5.78046E-001	3.57280E+000	9	...........
	25	0.346667	5.71198E-001	-8.88739E-005	0.00000E+000	-5.07645E-005	-5.39641E-002	5.71286E-001	3.57280E+000	9	...........
	26	0.36	5.64558E-001	-8.89176E-005	0.00000E+000	-5.01991E-005	-5.39641E-002	5.64651E-001	3.57280E+000	9	...........
	27	0.373333	5.58001E-001	-8.88593E-005	0.00000E+000	-4.95836E-005	-5.39641E-002	5.58119E-001	3.57280E+000	9	...........
	28	0.386667	5.51593E-001	-8.85978E-005	0.00000E+000	-4.88699E-005	-5.39641E-002	5.51690E-001	3.57280E+000	9	...........
	29	0.4	5.45255E-001	-8.89833E-005	0.00000E+000	-4.85186E-005	-5.39641E-002	5.45319E-001	3.57280E+000	9	...........
	30	0.413333	5.39014E-001	-8.89635E-005	0.00000E+000	-4.79526E-005	-5.39641E-002	5.39117E-001	3.57280E+000	9	...........
	31	0.426667	5.32828E-001	-8.89103E-005	0.00000E+000	-4.73739E-005	-5.39641E-002	5.32900E-001	3.57280E+000	9	...........
	32	0.44	5.26731E-001	-8.86499E-005	0.00000E+000	-4.66946E-005	-5.39641E-002	5.26829E-001	3.57280E+000	9	...........
	33	0.453333	5.20705E-001	-8.88197E-005	0.00000E+000	-4.62489E-005	-5.39641E-002	5.20777E-001	3.57280E+000	9	...........
	34	0.466667	5.14728E-001	-8.88134E-005	0.00000E+000	-4.57148E-005	-5.39641E-002	5.14805E-001	3.57280E+000	9	...........
	35	0.48	5.08776E-001	-8.88530E-005	0.00000E+000	-4.52063E-005	-5.39641E-002	5.08909E-001	3.57290E+000	9	...........
	36	0.493333	5.02944E-001	-8.86457E-005	0.00000E+000	-4.45838E-005	-5.39641E-002	5.03055E-001	3.57290E+000	9	...........
	37	0.506667	4.97164E-001	-8.88395E-005	0.00000E+000	-4.41678E-005	-5.39641E-002	4.97298E-001	3.57290E+000	9	...........
	38	0.52	4.91462E-001	-8.87342E-005	0.00000E+000	-4.36095E-005	-5.39641E-002	4.91585E-001	3.57290E+000	9	...........
	39	0.533333	4.85839E-001	-8.87374E-005	0.00000E+000	-4.31121E-005	-5.39641E-002	4.85941E-001	3.57290E+000	9	...........
	40	0.546667	4.80299E-001	-8.89009E-005	0.00000E+000	-4.26991E-005	-5.39641E-002	4.80368E-001	3.57290E+000	9	...........
	41	0.56	4.74717E-001	-8.86749E-005	0.00000E+000	-4.20954E-005	-5.39641E-002	4.74790E-001	3.57290E+000	9	...........
	42	0.573333	4.69202E-001	-8.88707E-005	0.00000E+000	-4.16983E-005	-5.39641E-002	4.69270E-001	3.57290E+000	9	...........
	43	0.586667	4.63715E-001	-8.85623E-005	0.00000E+000	-4.10677E-005	-5.39641E-002	4.63779E-001	3.57290E+000	9	...........
	44	0.6	4.58265E-001	-8.89905E-005	0.00000E+000	-4.07813E-005	-5.39641E-002	4.58331E-001	3.57290E+000	9	...........
	45	0.613333	4.52847E-001	-8.90739E-005	0.00000E+000	-4.03369E-005	-5.39641E-002	4.52914E-001	3.57290E+000	9	...........
	46	0.626667	4.47478E-001	-8.87655E-005	0.00000E+000	-3.97206E-005	-5.39641E-002	4.47532E-001	3.57290E+000	9	...........
	47	0.64	4.42131E-001	-8.87051E-005	0.00000E+000	-3.92193E-005	-5.39641E-002	4.42195E-001	3.57290E+000	9	...........
	48	0.653333	4.36821E-001	-8.89072E-005	0.00000E+000	-3.88365E-005	-5.39641E-002	4.36877E-001	3.57290E+000	9	...........
	49	0.666667	4.31537E-001	-8.88478E-005	0.00000E+000	-3.83411E-005	-5.39641E-002	4.31603E-001	3.57290E+000	9	...........
	50	0.68	4.26287E-001	-8.90437E-005	0.00000E+000	-3.79582E-005	-5.39641E-002	4.26348E-001	3.57290E+000	9	...........
	51	0.693333	4.21066E-001	-8.88270E-005	0.00000E+000	-3.74020E-005	-5.39641E-002	4.21129E-001	3.57290E+000	9	...........
	52	0.706667	4.15871E-001	-8.84706E-005	0.00000E+000	-3.67924E-005	-5.39641E-002	4.15930E-001	3.57290E+000	9	...........
	53	0.72	4.10689E-001	-8.89082E-005	0.00000E+000	-3.65136E-005	-5.39641E-002	4.10746E-001	3.57290E+000	9	...........
	54	0.733333	4.05540E-001	-8.89051E-005	0.00000E+000	-3.60546E-005	-5.39641E-002	4.05594E-001	3.57290E+000	9	...........
	55	0.746667	4.00423E-001	-8.88103E-005	0.00000E+000	-3.55617E-005	-5.39641E-002	4.00477E-001	3.57290E+000	9	...........
	56	0.76	3.95320E-001	-8.85759E-005	0.00000E+000	-3.50158E-005	-5.39641E-002	3.95373E-001	3.57290E+000	9	...........
	57	0.773333	3.90220E-001	-8.88030E-005	0.00000E+000	-3.46527E-005	-5.39641E-002	3.90271E-001	3.57290E+000	9	...........
	58	0.786667	3.85144E-001	-8.91239E-005	0.00000E+000	-3.43255E-005	-5.39641E-002	3.85195E-001	3.57290E+000	9	...........
	59	0.8	3.80105E-001	-8.89135E-005	0.00000E+000	-3.37964E-005	-5.39641E-002	3.80158E-001	3.57290E+000	9	...........
	60	0.813333	3.75074E-001	-8.88197E-005	0.00000E+000	-3.33139E-005	-5.39641E-002	3.75123E-001	3.57290E+000	9	...........
	61	0.826667	3.70060E-001	-8.86936E-005	0.00000E+000	-3.28219E-005	-5.39641E-002	3.70108E-001	3.57290E+000	9	...........
	62	0.84	3.65062E-001	-8.90916E-005	0.00000E+000	-3.25240E-005	-5.39641E-002	3.65111E-001	3.57290E+000	9	...........
	63	0.853333	3.60088E-001	-8.87092E-005	0.00000E+000	-3.19431E-005	-5.39641E-002	3.60137E-001	3.57290E+000	9	...........
	64	0.866667	3.55135E-001	-8.85509E-005	0.00000E+000	-3.14475E-005	-5.39641E-002	3.55180E-001	3.57290E+000	9	...........
	65	0.88	3.50194E-001	-8.89541E-005	0.00000E+000	-3.11512E-005	-5.39641E-002	3.50235E-001	3.57290E+000	9	...........
	66	0.893333	3.45258E-001	-8.87884E-005	0.00000E+000	-3.06549E-005	-5.39641E-002	3.45302E-001	3.57290E+000	9	...........
	67	0.906667	3.40341E-001	-8.85978E-005	0.00000E+000	-3.01535E-005	-5.39641E-002	3.40383E-001	3.57290E+000	9	...........
	68	0.92	3.35440E-001	-8.89322E-005	0.00000E+000	-2.98314E-005	-5.39641E-002	3.35484E-001	3.57290E+000	9	...........
	69	0.933333	3.30545E-001	-8.88582E-005	0.00000E+000	-2.93717E-005	-5.39641E-002	3.30586E-001	3.57290E+000	9	...........
	70	0.946667	3.25655E-001	-8.87895E-005	0.00000E+000	-2.89147E-005	-5.39641E-002	3.25698E-001	3.57290E+000	9	...........
	71	0.96	3.20784E-001	-8.89541E-005	0.00000E+000	-2.85351E-005	-5.39641E-002	3.20825E-001	3.57290E+000	9	...........
	72	0.97333	3.15913E-001	-8.85759E-005	0.00000E+000	-2.79823E-005	-5.39641E-002	3.15961E-001	3.57290E+000	9	...........
	73	0.98667	3.11050E-001	-8.86446E-005	0.00000E+000	-2.75729E-005	-5.39641E-002	3.11094E-001	3.57290E+000	9	...........
	74	1	3.06193E-001	-8.89187E-005	0.00000E+000	-2.72262E-005	-5.39641E-002	3.06240E-001	3.57290E+000	9	...........
	75	1.01333	3.01369E-001	-8.86009E-005	0.00000E+000	-2.67016E-005	-5.39641E-002	3.01406E-001	3.57290E+000	9	...........
	76	1.02667	2.96552E-001	-8.89353E-005	0.00000E+000	-2.63739E-005	-5.39641E-002	2.96590E-001	3.57290E+000	9	...........
	77	1.04	2.91743E-001	-8.88291E-005	0.00000E+000	-2.59153E-005	-5.39641E-002	2.91785E-001	3.57290E+000	9	...........
	78	1.05333	2.86960E-001	-8.88020E-005	0.00000E+000	-2.54826E-005	-5.39641E-002	2.87003E-001	3.57290E+000	9	...........
	79	1.06667	2.82194E-001	-8.86040E-005	0.00000E+000	-2.50035E-005	-5.39641E-002	2.82232E-001	3.57290E+000	9	...........
	80	1.08	2.77441E-001	-8.86384E-005	0.00000E+000	-2.45919E-005	-5.39641E-002	2.77479E-001	3.57290E+000	9	...........
	81	1.09333	2.72706E-001	-8.87780E-005	0.00000E+000	-2.42103E-005	-5.39641E-002	2.72744E-001	3.57290E+000	9	...........
	82	1.10667	2.67985E-001	-8.87978E-005	0.00000E+000	-2.37964E-005	-5.39641E-002	2.68022E-001	3.57290E+000	9	...........
	83	1.12	2.63274E-001	-8.87207E-005	0.00000E+000	-2.33578E-005	-5.39641E-002	2.63318E-001	3.57290E+000	9	...........
	84	1.13333	2.58587E-001	-8.85029E-005	0.00000E+000	-2.28857E-005	-5.39641E-002	2.58623E-001	3.57290E+000	9	...........
	85	1.14667	2.53905E-001	-8.88655E-005	0.00000E+000	-2.25634E-005	-5.39641E-002	2.53941E-001	3.57290E+000	9	...........
	86	1.16	2.49252E-001	-8.88645E-005	0.00000E+000	-2.21497E-005	-5.39641E-002	2.49284E-001	3.57290E+000	9	...........
	87	1.17333	2.44589E-001	-8.88280E-005	0.00000E+000	-2.17264E-005	-5.39641E-002	2.44623E-001	3.57290E+000	9	...........
	88	1.18667	2.39944E-001	-8.87686E-005	0.00000E+000	-2.12995E-005	-5.39641E-002	2.39979E-001	3.57290E+000	9	...........
	89	1.2	2.35317E-001	-8.84665E-005	0.00000E+000	-2.08177E-005	-5.39641E-002	2.35346E-001	3.57290E+000	9	...........
	90	1.21333	2.30688E-001	-8.87676E-005	0.00000E+000	-2.04776E-005	-5.39641E-002	2.30718E-001	3.57290E+000	9	...........
	91	1.22667	2.26089E-001	-8.87092E-005	0.00000E+000	-2.00562E-005	-5.39641E-002	2.26114E-001	3.57290E+000	9	...........
	92	1.24	2.21497E-001	-8.89864E-005	0.00000E+000	-1.97102E-005	-5.39641E-002	2.21520E-001	3.57290E+000	9	...........
	93	1.25333	2.16937E-001	-8.87186E-005	0.00000E+000	-1.92464E-005	-5.39641E-002	2.16964E-001	3.57290E+000	9	...........
	94	1.26667	2.12407E-001	-8.88405E-005	0.00000E+000	-1.88703E-005	-5.39641E-002	2.12428E-001	3.57290E+000	9	...........
	95	1.28	2.07887E-001	-8.87186E-005	0.00000E+000	-1.84435E-005	-5.39641E-002	2.07910E-001	3.57290E+000	9	...........
	96	1.29333	2.03390E-001	-8.84967E-005	0.00000E+000	-1.79994E-005	-5.39641E-002	2.03414E-001	3.57290E+000	9	...........
	97	1.30667	1.98912E-001	-8.90760E-005	0.00000E+000	-1.77183E-005	-5.39641E-002	1.98929E-001	3.57290E+000	9	...........
	98	1.32	1.94437E-001	-8.85832E-005	0.00000E+000	-1.72238E-005	-5.39641E-002	1.94456E-001	3.57290E+000	9	...........
	99	1.33333	1.89974E-001	-8.86582E-005	0.00000E+000	-1.68427E-005	-5.39641E-002	1.89989E-001	3.57290E+000	9	...........
	100	1.34667	1.85520E-001	-8.87197E-005	0.00000E+000	-1.64593E-005	-5.39641E-002	1.85539E-001	3.57290E+000	9	...........
	101	1.36	1.81079E-001	-8.88582E-005	0.00000E+000	-1.60904E-005	-5.39641E-002	1.81096E-001	3.57290E+000	9	...........
	102	1.37333	1.76671E-001	-8.88603E-005	0.00000E+000	-1.56990E-005	-5.39641E-002	1.76689E-001	3.57290E+000	9	...........
	103	1.38667	1.72277E-001	-8.87436E-005	0.00000E+000	-1.52885E-005	-5.39641E-002	1.72297E-001	3.57290E+000	9	...........
	104	1.4	1.67919E-001	-8.88259E-005	0.00000E+000	-1.49155E-005	-5.39641E-002	1.67935E-001	3.57290E+000	9	...........
	105	1.41333	1.63577E-001	-8.86217E-005	0.00000E+000	-1.44964E-005	-5.39641E-002	1.63594E-001	3.57290E+000	9	...........
	106	1.42667	1.59246E-001	-8.87197E-005	0.00000E+000	-1.41282E-005	-5.39641E-002	1.59268E-001	3.57290E+000	9	...........
	107	1.44	1.54937E-001	-8.87259E-005	0.00000E+000	-1.37469E-005	-5.39641E-002	1.54953E-001	3.57290E+000	9	...........
	108	1.45333	1.50632E-001	-8.90124E-005	0.00000E+000	-1.34081E-005	-5.39641E-002	1.50644E-001	3.57290E+000	9	...........
	109	1.46667	1.46340E-001	-8.87665E-005	0.00000E+000	-1.29901E-005	-5.39641E-002	1.46353E-001	3.57290E+000	9	...........
	110	1.48	1.42071E-001	-8.89301E-005	0.00000E+000	-1.26344E-005	-5.39641E-002	1.42083E-001	3.57280E+000	9	...........
	111	1.49333	1.37820E-001	-8.88603E-005	0.00000E+000	-1.22467E-005	-5.39641E-002	1.37835E-001	3.57280E+000	9	...........
	112	1.50667	1.33565E-001	-8.87968E-005	0.00000E+000	-1.18602E-005	-5.39641E-002	1.33581E-001	3.57280E+000	9	...........
	113	1.52	1.29343E-001	-8.87488E-005	0.00000E+000	-1.14791E-005	-5.39641E-002	1.29355E-001	3.57280E+000	9	...........
	114	1.53333	1.25133E-001	-8.87113E-005	0.00000E+000	-1.11007E-005	-5.39641E-002	1.25148E-001	3.57280E+000	9	...........
	115	1.54667	1.20939E-001	-8.86519E-005	0.00000E+000	-1.07215E-005	-5.39641E-002	1.20957E-001	3.57280E+000	9	...........
	116	1.56	1.16775E-001	-8.88134E-005	0.00000E+000	-1.03712E-005	-5.39641E-002	1.16786E-001	3.57280E+000	9	...........
	117	1.57333	1.12619E-001	-8.85550E-005	0.00000E+000	-9.97296E-006	-5.39641E-002	1.12635E-001	3.57280E+000	9	...........
	118	1.58667	1.08480E-001	-8.86499E-005	0.00000E+000	-9.61672E-006	-5.39641E-002	1.08496E-001	3.57280E+000	9	...........
	119	1.6	1.04354E-001	-8.87624E-005	0.00000E+000	-9.26271E-006	-5.39641E-002	1.04372E-001	3.57280E+000	9	...........
	120	1.61333	1.00251E-001	-8.87634E-005	0.00000E+000	-8.89860E-006	-5.39641E-002	1.00272E-001	3.57280E+000	9	...........
	121	1.62667	9.61874E-002	-8.87197E-005	0.00000E+000	-8.53371E-006	-5.39641E-002	9.61921E-002	3.57280E+000	9	...........
	122	1.64	9.21327E-002	-8.89541E-005	0.00000E+000	-8.19558E-006	-5.39641E-002	9.21458E-002	3.57280E+000	9	...........
	123	1.65333	8.80953E-002	-8.90645E-005	0.00000E+000	-7.84617E-006	-5.39641E-002	8.81088E-002	3.57280E+000	9	...........
	124	1.66667	8.40712E-002	-8.89739E-005	0.00000E+000	-7.48014E-006	-5.39641E-002	8.40830E-002	3.57280E+000	9	...........
	125	1.68	8.00645E-002	-8.88593E-005	0.00000E+000	-7.11448E-006	-5.39641E-002	8.00687E-002	3.57280E+000	9	...........
	126	1.69333	7.60740E-002	-8.89374E-005	0.00000E+000	-6.76582E-006	-5.39641E-002	7.60792E-002	3.57280E+000	9	...........
	127	1.70667	7.21142E-002	-8.85196E-005	0.00000E+000	-6.38352E-006	-5.39641E-002	7.21177E-002	3.57280E+000	9	...........
	128	1.72	6.81608E-002	-8.88853E-005	0.00000E+000	-6.05849E-006	-5.39641E-002	6.81612E-002	3.57280E+000	9	...........
	129	1.73333	6.42138E-002	-8.91666E-005	0.00000E+000	-5.72573E-006	-5.39641E-002	6.42124E-002	3.57280E+000	9	...........
	130	1.74667	6.02833E-002	-8.88916E-005	0.00000E+000	-5.35868E-006	-5.39641E-002	6.02795E-002	3.57280E+000	9	...........
	131	1.76	5.63793E-002	-8.88082E-005	0.00000E+000	-5.00695E-006	-5.39641E-002	5.63810E-002	3.57280E+000	9	...........
	132	1.77333	5.25036E-002	-8.87301E-005	0.00000E+000	-4.65865E-006	-5.39641E-002	5.25049E-002	3.57280E+000	9	...........
	133	1.78667	4.86483E-002	-8.89239E-005	0.00000E+000	-4.32599E-006	-5.39641E-002	4.86499E-002	3.57280E+000	9	...........
	134	1.8	4.48233E-002	-8.86655E-005	0.00000E+000	-3.97428E-006	-5.39641E-002	4.48340E-002	3.57280E+000	9	...........
	135	1.81333	4.10078E-002	-8.87634E-005	0.00000E+000	-3.64000E-006	-5.39641E-002	4.10131E-002	3.57280E+000	9	...........
	136	1.82667	3.71951E-002	-8.88249E-005	0.00000E+000	-3.30385E-006	-5.39641E-002	3.71960E-002	3.57280E+000	9	...........
	137	1.84	3.33922E-002	-8.90093E-005	0.00000E+000	-2.97222E-006	-5.39641E-002	3.33961E-002	3.57280E+000	9	...........
	138	1.85333	2.96267E-002	-8.86394E-005	0.00000E+000	-2.62610E-006	-5.39641E-002	2.96267E-002	3.57280E+000	9	...........
	139	1.86667	2.58838E-002	-8.86665E-005	0.00000E+000	-2.29503E-006	-5.39641E-002	2.58830E-002	3.57280E+000	9	...........
	140	1.88	2.21485E-002	-8.89457E-005	0.00000E+000	-1.97001E-006	-5.39641E-002	2.21459E-002	3.57280E+000	9	...........
	141	1.89333	1.84236E-002	-8.87717E-005	0.00000E+000	-1.63549E-006	-5.39641E-002	1.84176E-002	3.57280E+000	9	...........
	142	1.90667	1.47138E-002	-8.90083E-005	0.00000E+000	-1.30965E-006	-5.39641E-002	1.47076E-002	3.57280E+000	9	...........
	143	1.92	1.10453E-002	-8.87988E-005	0.00000E+000	-9.80807E-007	-5.39641E-002	1.10372E-002	3.57280E+000	9	...........
	144	1.93333	7.39135E-003	-8.88270E-005	0.00000E+000	-6.56551E-007	-5.39641E-002	7.37833E-003	3.57280E+000	9	...........
	145	1.94667	3.75557E-003	-8.88030E-005	0.00000E+000	-3.33506E-007	-5.39641E-002	3.74027E-003	3.57280E+000	9	...........
	146	1.955	8.18588E-004	-8.86765E-005	0.00000E+000	-7.25895E-008	-5.39641E-002	8.04788E-004	3.57280E+000	9	...........
STARTTIMEOFFSET	QUANT	3955.165	Start Time Offset (s)
