EXPLAIN
TAG	PWR800_DISCHARGE
TITLE	LABEL	PWR Cyclic Charge Discharge (Cell) - Discharge Step	Test &Identifier
DATE	LABEL	10-7-2017	Date
TIME	LABEL	16:11:21	Time
NOTES	NOTES	3	&Notes...
	supercap test cell
	0.9mg
	6M KOH
PSTAT	PSTAT	IFC5000-01520	Potentiostat
CAPACITY	QUANT	1.00000E-003	Capacity (A-hr)
CELLTYPE	SELECTOR	1	&Cell Type
WORKINGCONNECTION	SELECTOR	0	&Working Lead
MAXDISCHARGETIME	VARIABLEANDUNITS	1.00000E+002	s	1.00000E+002	second(s)	Max &Discharge Time
DISCHARGEMODE	MULTIPARAM	0	9.00000E-005	&Discharge Mode	Constant Current	Amp(s)
SAMPLETIME	QUANT	1.00000E-002	Sa&mple Period (s)
DISCHARGESTOPAT1	MULTIPARAM	3	0.00000E+000	Discharge Stop At &1	Voltage < Limit	V
DISCHARGESTOPAT2	MULTIPARAM	0	0.00000E+000	Discharge Stop At &2	None	N/A
AESBHCSELECTOR	TOGGLE	F	Save Both Half Cells
IRCOMP	TOGGLE	F	IR &Measure
EOC	QUANT	0	Open Circuit (V)
SEQUENCER	TOGGLE	TRUE	Run as Sequence
PSTATMODEL	IQUANT	53	Pstat Model
PSTATSECTION	LABEL	IFC5000-01520	Pstat Section
PSTATSERIALNO	LABEL	01520	Pstat Serial Number
CTRLMODE	IQUANT	0	Control Mode
ELECTROMETER	IQUANT	1	RE=0 or CS=1
IESTAB	IQUANT	0	I/E Stability
CASPEED	IQUANT	4	Control Amp Speed
CONVENTION	IQUANT	1	Current Convention
ICHRANGE	IQUANT	2	Ich Range
ICHRANGEMODE	TOGGLE	T	Ich Auto Range
ICHOFFSETENABLE	TOGGLE	F	Ich Offset Enable
ICHOFFSET	QUANT	0	Ich Offset (V)
ICHFILTER	IQUANT	1	Ich Filter
VCHRANGE	IQUANT	2	Vch Range
VCHRANGEMODE	TOGGLE	T	Vch Auto Range
VCHOFFSETENABLE	TOGGLE	F	Vch Offset Enable
VCHOFFSET	QUANT	0	Vch Offset (V)
VCHFILTER	IQUANT	1	Vch Filter
IERANGELOWERLIMIT	IQUANT	9	I/E Range Lower Limit
IERANGEMODE	TOGGLE	F	I/E AutoRange
IERANGE	IQUANT	9	I/E Range
ACHSELECT	IQUANT	1	Ach Select
ACHRANGE	IQUANT	2	Ach Range
ACHOFFSETENABLE	TOGGLE	F	Ach Offset Enable
ACHOFFSET	QUANT	0	Ach Offset (V)
ACHFILTER	IQUANT	1	Ach Filter
CABLEID	IQUANT	14	Cable ID
DCCALDATE	LABEL	5-7-2017	DC Calibration Date
ACCALDATE	LABEL	12/3/2015	AC Calibration Date
FRAMEWORKVERSION	QUANT	7.01	Framework Version
INSTRUMENTVERSION	LABEL	4.00	Instrument Version
CURVE	TABLE	147
	Pt	T	Vf	Im	Vu	Pwr	Sig	Ach	Temp	IERange	Over
	#	s	V	A	V	W	V	V	deg C	#	bits
	0	0.013333	8.02658E-001	-8.88697E-005	0.00000E+000	-7.13320E-005	-5.39641E-002	8.02766E-001	3.57350E+000	9	...........
	1	0.026667	7.88392E-001	-8.86842E-005	0.00000E+000	-6.99179E-005	-5.39641E-002	7.88510E-001	3.57350E+000	9	...........
	2	0.04	7.75115E-001	-8.88697E-005	0.00000E+000	-6.88843E-005	-5.39641E-002	7.75246E-001	3.57350E+000	9	...........
	3	0.053333	7.62606E-001	-8.86801E-005	0.00000E+000	-6.76279E-005	-5.39641E-002	7.62742E-001	3.57350E+000	9	...........
	4	0.066667	7.50754E-001	-8.86874E-005	0.00000E+000	-6.65824E-005	-5.39641E-002	7.50909E-001	3.57350E+000	9	...........
	5	0.08	7.39440E-001	-8.89447E-005	0.00000E+000	-6.57693E-005	-5.39641E-002	7.39598E-001	3.57350E+000	9	...........
	6	0.093333	7.28618E-001	-8.88697E-005	0.00000E+000	-6.47521E-005	-5.39641E-002	7.28759E-001	3.57350E+000	9	...........
	7	0.106667	7.18193E-001	-8.87134E-005	0.00000E+000	-6.37134E-005	-5.39641E-002	7.18335E-001	3.57350E+000	9	...........
	8	0.12	7.08106E-001	-8.86613E-005	0.00000E+000	-6.27816E-005	-5.39641E-002	7.08248E-001	3.57350E+000	9	...........
	9	0.133333	6.98420E-001	-8.87488E-005	0.00000E+000	-6.19839E-005	-5.39641E-002	6.98540E-001	3.57350E+000	9	...........
	10	0.146667	6.89009E-001	-8.85905E-005	0.00000E+000	-6.10396E-005	-5.39641E-002	6.89135E-001	3.57350E+000	9	...........
	11	0.16	6.79860E-001	-8.87030E-005	0.00000E+000	-6.03056E-005	-5.39641E-002	6.80022E-001	3.57350E+000	9	...........
	12	0.173333	6.71018E-001	-8.86790E-005	0.00000E+000	-5.95052E-005	-5.39641E-002	6.71142E-001	3.57350E+000	9	...........
	13	0.186667	6.62352E-001	-8.85957E-005	0.00000E+000	-5.86816E-005	-5.39641E-002	6.62485E-001	3.57350E+000	9	...........
	14	0.2	6.53939E-001	-8.85144E-005	0.00000E+000	-5.78831E-005	-5.39641E-002	6.54063E-001	3.57350E+000	9	...........
	15	0.213333	6.45714E-001	-8.89062E-005	0.00000E+000	-5.74079E-005	-5.39641E-002	6.45827E-001	3.57350E+000	9	...........
	16	0.226667	6.37697E-001	-8.86342E-005	0.00000E+000	-5.65218E-005	-5.39641E-002	6.37802E-001	3.57350E+000	9	...........
	17	0.24	6.29854E-001	-8.90155E-005	0.00000E+000	-5.60668E-005	-5.39641E-002	6.29943E-001	3.57350E+000	9	...........
	18	0.253333	6.22205E-001	-8.87155E-005	0.00000E+000	-5.51992E-005	-5.39641E-002	6.22297E-001	3.57350E+000	9	...........
	19	0.266667	6.14681E-001	-8.86040E-005	0.00000E+000	-5.44632E-005	-5.39641E-002	6.14784E-001	3.57350E+000	9	...........
	20	0.28	6.07282E-001	-8.89437E-005	0.00000E+000	-5.40139E-005	-5.39641E-002	6.07427E-001	3.57350E+000	9	...........
	21	0.293333	6.00049E-001	-8.87072E-005	0.00000E+000	-5.32287E-005	-5.39641E-002	6.00210E-001	3.57350E+000	9	...........
	22	0.306667	5.92996E-001	-8.87509E-005	0.00000E+000	-5.26289E-005	-5.39641E-002	5.93126E-001	3.57350E+000	9	...........
	23	0.32	5.86002E-001	-8.88509E-005	0.00000E+000	-5.20668E-005	-5.39641E-002	5.86125E-001	3.57350E+000	9	...........
	24	0.333333	5.79174E-001	-8.89676E-005	0.00000E+000	-5.15278E-005	-5.39641E-002	5.79275E-001	3.57350E+000	9	...........
	25	0.346667	5.72462E-001	-8.89260E-005	0.00000E+000	-5.09067E-005	-5.39641E-002	5.72560E-001	3.57350E+000	9	...........
	26	0.36	5.65854E-001	-8.88666E-005	0.00000E+000	-5.02855E-005	-5.39641E-002	5.65932E-001	3.57350E+000	9	...........
	27	0.373333	5.59284E-001	-8.86509E-005	0.00000E+000	-4.95811E-005	-5.39641E-002	5.59402E-001	3.57350E+000	9	...........
	28	0.386667	5.52876E-001	-8.87665E-005	0.00000E+000	-4.90769E-005	-5.39641E-002	5.52981E-001	3.57350E+000	9	...........
	29	0.4	5.46506E-001	-8.87176E-005	0.00000E+000	-4.84847E-005	-5.39641E-002	5.46630E-001	3.57350E+000	9	...........
	30	0.413333	5.40225E-001	-8.88686E-005	0.00000E+000	-4.80090E-005	-5.39641E-002	5.40327E-001	3.57350E+000	9	...........
	31	0.426667	5.33993E-001	-8.88051E-005	0.00000E+000	-4.74213E-005	-5.39641E-002	5.34122E-001	3.57350E+000	9	...........
	32	0.44	5.27910E-001	-8.88447E-005	0.00000E+000	-4.69020E-005	-5.39641E-002	5.28022E-001	3.57350E+000	9	...........
	33	0.453333	5.21887E-001	-8.88426E-005	0.00000E+000	-4.63658E-005	-5.39641E-002	5.21981E-001	3.57350E+000	9	...........
	34	0.466667	5.15941E-001	-8.86415E-005	0.00000E+000	-4.57338E-005	-5.39641E-002	5.16004E-001	3.57350E+000	9	...........
	35	0.48	5.10029E-001	-8.88603E-005	0.00000E+000	-4.53213E-005	-5.39641E-002	5.10126E-001	3.57350E+000	9	...........
	36	0.493333	5.04164E-001	-8.85061E-005	0.00000E+000	-4.46216E-005	-5.39641E-002	5.04288E-001	3.57350E+000	9	...........
	37	0.506667	4.98382E-001	-8.86644E-005	0.00000E+000	-4.41887E-005	-5.39641E-002	4.98493E-001	3.57350E+000	9	...........
	38	0.52	4.92672E-001	-8.90604E-005	0.00000E+000	-4.38776E-005	-5.39641E-002	4.92759E-001	3.57350E+000	9	...........
	39	0.533333	4.87009E-001	-8.87269E-005	0.00000E+000	-4.32109E-005	-5.39641E-002	4.87085E-001	3.57350E+000	9	...........
	40	0.546667	4.81458E-001	-8.88051E-005	0.00000E+000	-4.27559E-005	-5.39641E-002	4.81523E-001	3.57350E+000	9	...........
	41	0.56	4.75881E-001	-8.89708E-005	0.00000E+000	-4.23395E-005	-5.39641E-002	4.75946E-001	3.57350E+000	9	...........
	42	0.573333	4.70349E-001	-8.85707E-005	0.00000E+000	-4.16591E-005	-5.39641E-002	4.70416E-001	3.57350E+000	9	...........
	43	0.586667	4.64856E-001	-8.89124E-005	0.00000E+000	-4.13315E-005	-5.39641E-002	4.64922E-001	3.57313E+000	9	...........
	44	0.6	4.59398E-001	-8.86655E-005	0.00000E+000	-4.07327E-005	-5.39641E-002	4.59463E-001	3.57280E+000	9	...........
	45	0.613333	4.53964E-001	-8.87551E-005	0.00000E+000	-4.02916E-005	-5.39641E-002	4.54022E-001	3.57280E+000	9	...........
	46	0.626667	4.48569E-001	-8.90999E-005	0.00000E+000	-3.99675E-005	-5.39641E-002	4.48631E-001	3.57280E+000	9	...........
	47	0.64	4.43205E-001	-8.87488E-005	0.00000E+000	-3.93339E-005	-5.39641E-002	4.43264E-001	3.57280E+000	9	...........
	48	0.653333	4.37883E-001	-8.86540E-005	0.00000E+000	-3.88201E-005	-5.39641E-002	4.37940E-001	3.57280E+000	9	...........
	49	0.666667	4.32580E-001	-8.87540E-005	0.00000E+000	-3.83933E-005	-5.39641E-002	4.32637E-001	3.57280E+000	9	...........
	50	0.68	4.27308E-001	-8.85425E-005	0.00000E+000	-3.78349E-005	-5.39641E-002	4.27366E-001	3.57280E+000	9	...........
	51	0.693333	4.22071E-001	-8.86363E-005	0.00000E+000	-3.74108E-005	-5.39641E-002	4.22129E-001	3.57280E+000	9	...........
	52	0.706667	4.16865E-001	-8.88270E-005	0.00000E+000	-3.70289E-005	-5.39641E-002	4.16924E-001	3.57280E+000	9	...........
	53	0.72	4.11692E-001	-8.85842E-005	0.00000E+000	-3.64694E-005	-5.39641E-002	4.11747E-001	3.57280E+000	9	...........
	54	0.733333	4.06529E-001	-8.87978E-005	0.00000E+000	-3.60988E-005	-5.39641E-002	4.06590E-001	3.57280E+000	9	...........
	55	0.746667	4.01373E-001	-8.89405E-005	0.00000E+000	-3.56984E-005	-5.39641E-002	4.01429E-001	3.57280E+000	9	...........
	56	0.76	3.96245E-001	-8.87551E-005	0.00000E+000	-3.51687E-005	-5.39641E-002	3.96292E-001	3.57280E+000	9	...........
	57	0.773333	3.91141E-001	-8.87530E-005	0.00000E+000	-3.47149E-005	-5.39641E-002	3.91189E-001	3.57280E+000	9	...........
	58	0.786667	3.86059E-001	-8.87467E-005	0.00000E+000	-3.42615E-005	-5.39641E-002	3.86106E-001	3.57280E+000	9	...........
	59	0.8	3.80996E-001	-8.88614E-005	0.00000E+000	-3.38558E-005	-5.39641E-002	3.81043E-001	3.57280E+000	9	...........
	60	0.813333	3.75937E-001	-8.88759E-005	0.00000E+000	-3.34117E-005	-5.39641E-002	3.75980E-001	3.57280E+000	9	...........
	61	0.826667	3.70894E-001	-8.88874E-005	0.00000E+000	-3.29678E-005	-5.39641E-002	3.70941E-001	3.57280E+000	9	...........
	62	0.84	3.65893E-001	-8.90406E-005	0.00000E+000	-3.25793E-005	-5.39641E-002	3.65932E-001	3.57280E+000	9	...........
	63	0.853333	3.60883E-001	-8.87811E-005	0.00000E+000	-3.20396E-005	-5.39641E-002	3.60930E-001	3.57280E+000	9	...........
	64	0.866667	3.55889E-001	-8.87072E-005	0.00000E+000	-3.15699E-005	-5.39641E-002	3.55933E-001	3.57280E+000	9	...........
	65	0.88	3.50928E-001	-8.86290E-005	0.00000E+000	-3.11024E-005	-5.39641E-002	3.50967E-001	3.57280E+000	9	...........
	66	0.893333	3.45979E-001	-8.86613E-005	0.00000E+000	-3.06750E-005	-5.39641E-002	3.46025E-001	3.57280E+000	9	...........
	67	0.906667	3.41032E-001	-8.89312E-005	0.00000E+000	-3.03284E-005	-5.39641E-002	3.41080E-001	3.57280E+000	9	...........
	68	0.92	3.36114E-001	-8.88916E-005	0.00000E+000	-2.98777E-005	-5.39641E-002	3.36157E-001	3.57280E+000	9	...........
	69	0.933333	3.31202E-001	-8.85655E-005	0.00000E+000	-2.93330E-005	-5.39641E-002	3.31242E-001	3.57280E+000	9	...........
	70	0.946667	3.26288E-001	-8.88791E-005	0.00000E+000	-2.90002E-005	-5.39641E-002	3.26326E-001	3.57280E+000	9	...........
	71	0.96	3.21399E-001	-8.88874E-005	0.00000E+000	-2.85683E-005	-5.39641E-002	3.21431E-001	3.57280E+000	9	...........
	72	0.97333	3.16522E-001	-8.86863E-005	0.00000E+000	-2.80712E-005	-5.39641E-002	3.16563E-001	3.57280E+000	9	...........
	73	0.98667	3.11649E-001	-8.88051E-005	0.00000E+000	-2.76760E-005	-5.39641E-002	3.11687E-001	3.57280E+000	9	...........
	74	1	3.06778E-001	-8.87072E-005	0.00000E+000	-2.72134E-005	-5.39641E-002	3.06817E-001	3.57280E+000	9	...........
	75	1.01333	3.01928E-001	-8.89603E-005	0.00000E+000	-2.68597E-005	-5.39641E-002	3.01964E-001	3.57280E+000	9	...........
	76	1.02667	2.97090E-001	-8.86519E-005	0.00000E+000	-2.63376E-005	-5.39641E-002	2.97125E-001	3.57280E+000	9	...........
	77	1.04	2.92263E-001	-8.86832E-005	0.00000E+000	-2.59188E-005	-5.39641E-002	2.92294E-001	3.57280E+000	9	...........
	78	1.05333	2.87445E-001	-8.86050E-005	0.00000E+000	-2.54691E-005	-5.39641E-002	2.87484E-001	3.57280E+000	9	...........
	79	1.06667	2.82634E-001	-8.88207E-005	0.00000E+000	-2.51037E-005	-5.39641E-002	2.82672E-001	3.57280E+000	9	...........
	80	1.08	2.77839E-001	-8.87874E-005	0.00000E+000	-2.46686E-005	-5.39641E-002	2.77872E-001	3.57280E+000	9	...........
	81	1.09333	2.73055E-001	-8.84175E-005	0.00000E+000	-2.41429E-005	-5.39641E-002	2.73091E-001	3.57280E+000	9	...........
	82	1.10667	2.68299E-001	-8.87947E-005	0.00000E+000	-2.38235E-005	-5.39641E-002	2.68331E-001	3.57280E+000	9	...........
	83	1.12	2.63540E-001	-8.89166E-005	0.00000E+000	-2.34331E-005	-5.39641E-002	2.63575E-001	3.57280E+000	9	...........
	84	1.13333	2.58805E-001	-8.89155E-005	0.00000E+000	-2.30118E-005	-5.39641E-002	2.58837E-001	3.57280E+000	9	...........
	85	1.14667	2.54084E-001	-8.87561E-005	0.00000E+000	-2.25515E-005	-5.39641E-002	2.54113E-001	3.57280E+000	9	...........
	86	1.16	2.49376E-001	-8.87936E-005	0.00000E+000	-2.21430E-005	-5.39641E-002	2.49411E-001	3.57280E+000	9	...........
	87	1.17333	2.44693E-001	-8.88936E-005	0.00000E+000	-2.17516E-005	-5.39641E-002	2.44725E-001	3.57280E+000	9	...........
	88	1.18667	2.40025E-001	-8.85530E-005	0.00000E+000	-2.12549E-005	-5.39641E-002	2.40051E-001	3.57280E+000	9	...........
	89	1.2	2.35381E-001	-8.86978E-005	0.00000E+000	-2.08778E-005	-5.39641E-002	2.35402E-001	3.57280E+000	9	...........
	90	1.21333	2.30736E-001	-8.88061E-005	0.00000E+000	-2.04908E-005	-5.39641E-002	2.30756E-001	3.57280E+000	9	...........
	91	1.22667	2.26104E-001	-8.89437E-005	0.00000E+000	-2.01106E-005	-5.39641E-002	2.26125E-001	3.57280E+000	9	...........
	92	1.24	2.21504E-001	-8.87019E-005	0.00000E+000	-1.96479E-005	-5.39641E-002	2.21529E-001	3.57280E+000	9	...........
	93	1.25333	2.16928E-001	-8.89510E-005	0.00000E+000	-1.92959E-005	-5.39641E-002	2.16946E-001	3.57280E+000	9	...........
	94	1.26667	2.12370E-001	-8.87447E-005	0.00000E+000	-1.88467E-005	-5.39641E-002	2.12393E-001	3.57280E+000	9	...........
	95	1.28	2.07821E-001	-8.86248E-005	0.00000E+000	-1.84181E-005	-5.39641E-002	2.07845E-001	3.57280E+000	9	...........
	96	1.29333	2.03275E-001	-8.87978E-005	0.00000E+000	-1.80504E-005	-5.39641E-002	2.03298E-001	3.57280E+000	9	...........
	97	1.30667	1.98767E-001	-8.87113E-005	0.00000E+000	-1.76329E-005	-5.39641E-002	1.98784E-001	3.57280E+000	9	...........
	98	1.32	1.94276E-001	-8.87436E-005	0.00000E+000	-1.72408E-005	-5.39641E-002	1.94294E-001	3.57280E+000	9	...........
	99	1.33333	1.89790E-001	-8.89562E-005	0.00000E+000	-1.68830E-005	-5.39641E-002	1.89808E-001	3.57280E+000	9	...........
	100	1.34667	1.85330E-001	-8.87530E-005	0.00000E+000	-1.64486E-005	-5.39641E-002	1.85345E-001	3.57280E+000	9	...........
	101	1.36	1.80881E-001	-8.88030E-005	0.00000E+000	-1.60628E-005	-5.39641E-002	1.80901E-001	3.57280E+000	9	...........
	102	1.37333	1.76464E-001	-8.87592E-005	0.00000E+000	-1.56628E-005	-5.39641E-002	1.76487E-001	3.57280E+000	9	...........
	103	1.38667	1.72085E-001	-8.88426E-005	0.00000E+000	-1.52885E-005	-5.39641E-002	1.72105E-001	3.57280E+000	9	...........
	104	1.4	1.67727E-001	-8.87530E-005	0.00000E+000	-1.48863E-005	-5.39641E-002	1.67740E-001	3.57280E+000	9	...........
	105	1.41333	1.63378E-001	-8.87478E-005	0.00000E+000	-1.44994E-005	-5.39641E-002	1.63393E-001	3.57280E+000	9	...........
	106	1.42667	1.59043E-001	-8.87311E-005	0.00000E+000	-1.41121E-005	-5.39641E-002	1.59054E-001	3.57280E+000	9	...........
	107	1.44	1.54717E-001	-8.89062E-005	0.00000E+000	-1.37553E-005	-5.39641E-002	1.54729E-001	3.57280E+000	9	...........
	108	1.45333	1.50418E-001	-8.86655E-005	0.00000E+000	-1.33369E-005	-5.39641E-002	1.50429E-001	3.57280E+000	9	...........
	109	1.46667	1.46118E-001	-8.88343E-005	0.00000E+000	-1.29803E-005	-5.39641E-002	1.46133E-001	3.57280E+000	9	...........
	110	1.48	1.41848E-001	-8.86311E-005	0.00000E+000	-1.25722E-005	-5.39641E-002	1.41857E-001	3.57280E+000	9	...........
	111	1.49333	1.37594E-001	-8.88207E-005	0.00000E+000	-1.22212E-005	-5.39641E-002	1.37602E-001	3.57280E+000	9	...........
	112	1.50667	1.33353E-001	-8.89822E-005	0.00000E+000	-1.18661E-005	-5.39641E-002	1.33367E-001	3.57280E+000	9	...........
	113	1.52	1.29143E-001	-8.89239E-005	0.00000E+000	-1.14839E-005	-5.39641E-002	1.29157E-001	3.57280E+000	9	...........
	114	1.53333	1.24963E-001	-8.90114E-005	0.00000E+000	-1.11231E-005	-5.39641E-002	1.24964E-001	3.57280E+000	9	...........
	115	1.54667	1.20792E-001	-8.88343E-005	0.00000E+000	-1.07305E-005	-5.39641E-002	1.20806E-001	3.57280E+000	9	...........
	116	1.56	1.16633E-001	-8.86394E-005	0.00000E+000	-1.03383E-005	-5.39641E-002	1.16641E-001	3.57280E+000	9	...........
	117	1.57333	1.12497E-001	-8.86436E-005	0.00000E+000	-9.97210E-006	-5.39641E-002	1.12510E-001	3.57280E+000	9	...........
	118	1.58667	1.08378E-001	-8.87478E-005	0.00000E+000	-9.61827E-006	-5.39641E-002	1.08384E-001	3.57322E+000	9	...........
	119	1.6	1.04254E-001	-8.85488E-005	0.00000E+000	-9.23159E-006	-5.39641E-002	1.04262E-001	3.57360E+000	9	...........
	120	1.61333	1.00156E-001	-8.89114E-005	0.00000E+000	-8.90498E-006	-5.39641E-002	1.00164E-001	3.57360E+000	9	...........
	121	1.62667	9.60836E-002	-8.88332E-005	0.00000E+000	-8.53541E-006	-5.39641E-002	9.60812E-002	3.57360E+000	9	...........
	122	1.64	9.20097E-002	-8.88603E-005	0.00000E+000	-8.17601E-006	-5.39641E-002	9.20129E-002	3.57360E+000	9	...........
	123	1.65333	8.79612E-002	-8.86624E-005	0.00000E+000	-7.79885E-006	-5.39641E-002	8.79570E-002	3.57360E+000	9	...........
	124	1.66667	8.39271E-002	-8.88353E-005	0.00000E+000	-7.45569E-006	-5.39641E-002	8.39257E-002	3.57360E+000	9	...........
	125	1.68	7.99178E-002	-8.90895E-005	0.00000E+000	-7.11984E-006	-5.39641E-002	7.99148E-002	3.57360E+000	9	...........
	126	1.69333	7.59519E-002	-8.86884E-005	0.00000E+000	-6.73605E-006	-5.39641E-002	7.59458E-002	3.57360E+000	9	...........
	127	1.70667	7.20005E-002	-8.87332E-005	0.00000E+000	-6.38883E-006	-5.39641E-002	7.19994E-002	3.57360E+000	9	...........
	128	1.72	6.80707E-002	-8.88176E-005	0.00000E+000	-6.04588E-006	-5.39641E-002	6.80696E-002	3.57360E+000	9	...........
	129	1.73333	6.41493E-002	-8.87947E-005	0.00000E+000	-5.69612E-006	-5.39641E-002	6.41461E-002	3.57360E+000	9	...........
	130	1.74667	6.02402E-002	-8.88103E-005	0.00000E+000	-5.34995E-006	-5.39641E-002	6.02430E-002	3.57360E+000	9	...........
	131	1.76	5.63422E-002	-8.85957E-005	0.00000E+000	-4.99167E-006	-5.39641E-002	5.63428E-002	3.57360E+000	9	...........
	132	1.77333	5.24699E-002	-8.87238E-005	0.00000E+000	-4.65533E-006	-5.39641E-002	5.24699E-002	3.57360E+000	9	...........
	133	1.78667	4.86205E-002	-8.86988E-005	0.00000E+000	-4.31258E-006	-5.39641E-002	4.86204E-002	3.57360E+000	9	...........
	134	1.8	4.47880E-002	-8.87467E-005	0.00000E+000	-3.97479E-006	-5.39641E-002	4.47962E-002	3.57360E+000	9	...........
	135	1.81333	4.09678E-002	-8.88832E-005	0.00000E+000	-3.64135E-006	-5.39641E-002	4.09739E-002	3.57360E+000	9	...........
	136	1.82667	3.71522E-002	-8.87572E-005	0.00000E+000	-3.29753E-006	-5.39641E-002	3.71579E-002	3.57360E+000	9	...........
	137	1.84	3.33717E-002	-8.89468E-005	0.00000E+000	-2.96831E-006	-5.39641E-002	3.33725E-002	3.57360E+000	9	...........
	138	1.85333	2.96096E-002	-8.88645E-005	0.00000E+000	-2.63124E-006	-5.39641E-002	2.96103E-002	3.57360E+000	9	...........
	139	1.86667	2.58474E-002	-8.88968E-005	0.00000E+000	-2.29775E-006	-5.39641E-002	2.58480E-002	3.57360E+000	9	...........
	140	1.88	2.21170E-002	-8.86978E-005	0.00000E+000	-1.96173E-006	-5.39641E-002	2.21071E-002	3.57360E+000	9	...........
	141	1.89333	1.83996E-002	-8.90187E-005	0.00000E+000	-1.63790E-006	-5.39641E-002	1.84015E-002	3.57360E+000	9	...........
	142	1.90667	1.47150E-002	-8.87301E-005	0.00000E+000	-1.30566E-006	-5.39641E-002	1.47073E-002	3.57360E+000	9	...........
	143	1.92	1.10565E-002	-8.88666E-005	0.00000E+000	-9.82549E-007	-5.39641E-002	1.10459E-002	3.57360E+000	9	...........
	144	1.93333	7.41994E-003	-8.87582E-005	0.00000E+000	-6.58581E-007	-5.39641E-002	7.40632E-003	3.57360E+000	9	...........
	145	1.94667	3.79634E-003	-8.86707E-005	0.00000E+000	-3.36624E-007	-5.39641E-002	3.77996E-003	3.57360E+000	9	...........
	146	1.955	8.73528E-004	-8.87649E-005	0.00000E+000	-7.75386E-008	-5.39641E-002	8.57526E-004	3.57360E+000	9	...........
STARTTIMEOFFSET	QUANT	3630.47	Start Time Offset (s)
