EXPLAIN
TAG	PWR800_DISCHARGE
TITLE	LABEL	PWR Cyclic Charge Discharge (Cell) - Discharge Step	Test &Identifier
DATE	LABEL	10-7-2017	Date
TIME	LABEL	16:18:36	Time
NOTES	NOTES	3	&Notes...
	supercap test cell
	0.9mg
	6M KOH
PSTAT	PSTAT	IFC5000-01520	Potentiostat
CAPACITY	QUANT	1.00000E-003	Capacity (A-hr)
CELLTYPE	SELECTOR	1	&Cell Type
WORKINGCONNECTION	SELECTOR	0	&Working Lead
MAXDISCHARGETIME	VARIABLEANDUNITS	1.00000E+002	s	1.00000E+002	second(s)	Max &Discharge Time
DISCHARGEMODE	MULTIPARAM	0	9.00000E-005	&Discharge Mode	Constant Current	Amp(s)
SAMPLETIME	QUANT	1.00000E-002	Sa&mple Period (s)
DISCHARGESTOPAT1	MULTIPARAM	3	0.00000E+000	Discharge Stop At &1	Voltage < Limit	V
DISCHARGESTOPAT2	MULTIPARAM	0	0.00000E+000	Discharge Stop At &2	None	N/A
AESBHCSELECTOR	TOGGLE	F	Save Both Half Cells
IRCOMP	TOGGLE	F	IR &Measure
EOC	QUANT	0	Open Circuit (V)
SEQUENCER	TOGGLE	TRUE	Run as Sequence
PSTATMODEL	IQUANT	53	Pstat Model
PSTATSECTION	LABEL	IFC5000-01520	Pstat Section
PSTATSERIALNO	LABEL	01520	Pstat Serial Number
CTRLMODE	IQUANT	0	Control Mode
ELECTROMETER	IQUANT	1	RE=0 or CS=1
IESTAB	IQUANT	0	I/E Stability
CASPEED	IQUANT	4	Control Amp Speed
CONVENTION	IQUANT	1	Current Convention
ICHRANGE	IQUANT	2	Ich Range
ICHRANGEMODE	TOGGLE	T	Ich Auto Range
ICHOFFSETENABLE	TOGGLE	F	Ich Offset Enable
ICHOFFSET	QUANT	0	Ich Offset (V)
ICHFILTER	IQUANT	1	Ich Filter
VCHRANGE	IQUANT	2	Vch Range
VCHRANGEMODE	TOGGLE	T	Vch Auto Range
VCHOFFSETENABLE	TOGGLE	F	Vch Offset Enable
VCHOFFSET	QUANT	0	Vch Offset (V)
VCHFILTER	IQUANT	1	Vch Filter
IERANGELOWERLIMIT	IQUANT	9	I/E Range Lower Limit
IERANGEMODE	TOGGLE	F	I/E AutoRange
IERANGE	IQUANT	9	I/E Range
ACHSELECT	IQUANT	1	Ach Select
ACHRANGE	IQUANT	2	Ach Range
ACHOFFSETENABLE	TOGGLE	F	Ach Offset Enable
ACHOFFSET	QUANT	0	Ach Offset (V)
ACHFILTER	IQUANT	1	Ach Filter
CABLEID	IQUANT	14	Cable ID
DCCALDATE	LABEL	5-7-2017	DC Calibration Date
ACCALDATE	LABEL	12/3/2015	AC Calibration Date
FRAMEWORKVERSION	QUANT	7.01	Framework Version
INSTRUMENTVERSION	LABEL	4.00	Instrument Version
CURVE	TABLE	147
	Pt	T	Vf	Im	Vu	Pwr	Sig	Ach	Temp	IERange	Over
	#	s	V	A	V	W	V	V	deg C	#	bits
	0	0.013333	8.03056E-001	-8.86519E-005	0.00000E+000	-7.11924E-005	-5.39641E-002	8.03193E-001	3.57350E+000	9	...........
	1	0.026667	7.88637E-001	-8.88009E-005	0.00000E+000	-7.00317E-005	-5.39641E-002	7.88782E-001	3.57350E+000	9	...........
	2	0.04	7.75218E-001	-8.85623E-005	0.00000E+000	-6.86551E-005	-5.39641E-002	7.75362E-001	3.57350E+000	9	...........
	3	0.053333	7.62587E-001	-8.89583E-005	0.00000E+000	-6.78384E-005	-5.39641E-002	7.62715E-001	3.57350E+000	9	...........
	4	0.066667	7.50563E-001	-8.87353E-005	0.00000E+000	-6.66014E-005	-5.39641E-002	7.50714E-001	3.57350E+000	9	...........
	5	0.08	7.39122E-001	-8.86301E-005	0.00000E+000	-6.55084E-005	-5.39641E-002	7.39265E-001	3.57350E+000	9	...........
	6	0.093333	7.28167E-001	-8.86082E-005	0.00000E+000	-6.45215E-005	-5.39641E-002	7.28288E-001	3.57350E+000	9	...........
	7	0.106667	7.17578E-001	-8.87061E-005	0.00000E+000	-6.36535E-005	-5.39641E-002	7.17730E-001	3.57350E+000	9	...........
	8	0.12	7.07423E-001	-8.88364E-005	0.00000E+000	-6.28449E-005	-5.39641E-002	7.07540E-001	3.57350E+000	9	...........
	9	0.133333	6.97617E-001	-8.87436E-005	0.00000E+000	-6.19090E-005	-5.39641E-002	6.97705E-001	3.57350E+000	9	...........
	10	0.146667	6.88098E-001	-8.89114E-005	0.00000E+000	-6.11798E-005	-5.39641E-002	6.88200E-001	3.57350E+000	9	...........
	11	0.16	6.78869E-001	-8.86957E-005	0.00000E+000	-6.02127E-005	-5.39641E-002	6.78983E-001	3.57350E+000	9	...........
	12	0.173333	6.69924E-001	-8.88822E-005	0.00000E+000	-5.95443E-005	-5.39641E-002	6.70023E-001	3.57350E+000	9	...........
	13	0.186667	6.61178E-001	-8.85561E-005	0.00000E+000	-5.85514E-005	-5.39641E-002	6.61274E-001	3.57350E+000	9	...........
	14	0.2	6.52698E-001	-8.89259E-005	0.00000E+000	-5.80418E-005	-5.39641E-002	6.52792E-001	3.57350E+000	9	...........
	15	0.213333	6.44405E-001	-8.88259E-005	0.00000E+000	-5.72398E-005	-5.39641E-002	6.44517E-001	3.57350E+000	9	...........
	16	0.226667	6.36307E-001	-8.89072E-005	0.00000E+000	-5.65722E-005	-5.39641E-002	6.36401E-001	3.57350E+000	9	...........
	17	0.24	6.28402E-001	-8.88572E-005	0.00000E+000	-5.58381E-005	-5.39641E-002	6.28507E-001	3.57350E+000	9	...........
	18	0.253333	6.20695E-001	-8.88353E-005	0.00000E+000	-5.51396E-005	-5.39641E-002	6.20761E-001	3.57350E+000	9	...........
	19	0.266667	6.13064E-001	-8.86301E-005	0.00000E+000	-5.43359E-005	-5.39641E-002	6.13221E-001	3.57350E+000	9	...........
	20	0.28	6.05664E-001	-8.89530E-005	0.00000E+000	-5.38757E-005	-5.39641E-002	6.05797E-001	3.57350E+000	9	...........
	21	0.293333	5.98400E-001	-8.88749E-005	0.00000E+000	-5.31827E-005	-5.39641E-002	5.98518E-001	3.57350E+000	9	...........
	22	0.306667	5.91289E-001	-8.88634E-005	0.00000E+000	-5.25439E-005	-5.39641E-002	5.91418E-001	3.57350E+000	9	...........
	23	0.32	5.84256E-001	-8.90458E-005	0.00000E+000	-5.20255E-005	-5.39641E-002	5.84392E-001	3.57350E+000	9	...........
	24	0.333333	5.77394E-001	-8.89072E-005	0.00000E+000	-5.13344E-005	-5.39641E-002	5.77526E-001	3.57350E+000	9	...........
	25	0.346667	5.70664E-001	-8.87290E-005	0.00000E+000	-5.06344E-005	-5.39641E-002	5.70775E-001	3.57350E+000	9	...........
	26	0.36	5.63990E-001	-8.88468E-005	0.00000E+000	-5.01087E-005	-5.39641E-002	5.64130E-001	3.57350E+000	9	...........
	27	0.373333	5.57416E-001	-8.87780E-005	0.00000E+000	-4.94863E-005	-5.39641E-002	5.57531E-001	3.57350E+000	9	...........
	28	0.386667	5.50945E-001	-8.87613E-005	0.00000E+000	-4.89026E-005	-5.39641E-002	5.51071E-001	3.57297E+000	9	...........
	29	0.4	5.44595E-001	-8.88926E-005	0.00000E+000	-4.84105E-005	-5.39641E-002	5.44694E-001	3.57290E+000	9	...........
	30	0.413333	5.38309E-001	-8.88739E-005	0.00000E+000	-4.78416E-005	-5.39641E-002	5.38420E-001	3.57290E+000	9	...........
	31	0.426667	5.32084E-001	-8.90479E-005	0.00000E+000	-4.73810E-005	-5.39641E-002	5.32190E-001	3.57290E+000	9	...........
	32	0.44	5.25963E-001	-8.88384E-005	0.00000E+000	-4.67258E-005	-5.39641E-002	5.26080E-001	3.57290E+000	9	...........
	33	0.453333	5.19924E-001	-8.85384E-005	0.00000E+000	-4.60332E-005	-5.39641E-002	5.20039E-001	3.57290E+000	9	...........
	34	0.466667	5.13959E-001	-8.87019E-005	0.00000E+000	-4.55892E-005	-5.39641E-002	5.14058E-001	3.57290E+000	9	...........
	35	0.48	5.07982E-001	-8.88791E-005	0.00000E+000	-4.51489E-005	-5.39641E-002	5.08143E-001	3.57290E+000	9	...........
	36	0.493333	5.02155E-001	-8.88895E-005	0.00000E+000	-4.46363E-005	-5.39641E-002	5.02298E-001	3.57290E+000	9	...........
	37	0.506667	4.96397E-001	-8.87290E-005	0.00000E+000	-4.40449E-005	-5.39641E-002	4.96543E-001	3.57290E+000	9	...........
	38	0.52	4.90692E-001	-8.89614E-005	0.00000E+000	-4.36526E-005	-5.39641E-002	4.90798E-001	3.57290E+000	9	...........
	39	0.533333	4.85056E-001	-8.87228E-005	0.00000E+000	-4.30355E-005	-5.39641E-002	4.85142E-001	3.57290E+000	9	...........
	40	0.546667	4.79475E-001	-8.88478E-005	0.00000E+000	-4.26003E-005	-5.39641E-002	4.79549E-001	3.57290E+000	9	...........
	41	0.56	4.73889E-001	-8.91281E-005	0.00000E+000	-4.22368E-005	-5.39641E-002	4.73955E-001	3.57290E+000	9	...........
	42	0.573333	4.68348E-001	-8.86571E-005	0.00000E+000	-4.15224E-005	-5.39641E-002	4.68415E-001	3.57290E+000	9	...........
	43	0.586667	4.62856E-001	-8.84404E-005	0.00000E+000	-4.09352E-005	-5.39641E-002	4.62924E-001	3.57290E+000	9	...........
	44	0.6	4.57396E-001	-8.87957E-005	0.00000E+000	-4.06148E-005	-5.39641E-002	4.57465E-001	3.57290E+000	9	...........
	45	0.613333	4.51977E-001	-8.87072E-005	0.00000E+000	-4.00936E-005	-5.39641E-002	4.52042E-001	3.57290E+000	9	...........
	46	0.626667	4.46599E-001	-8.88364E-005	0.00000E+000	-3.96742E-005	-5.39641E-002	4.46666E-001	3.57290E+000	9	...........
	47	0.64	4.41253E-001	-8.88697E-005	0.00000E+000	-3.92140E-005	-5.39641E-002	4.41317E-001	3.57290E+000	9	...........
	48	0.653333	4.35943E-001	-8.87467E-005	0.00000E+000	-3.86885E-005	-5.39641E-002	4.36006E-001	3.57290E+000	9	...........
	49	0.666667	4.30658E-001	-8.85936E-005	0.00000E+000	-3.81535E-005	-5.39641E-002	4.30719E-001	3.57290E+000	9	...........
	50	0.68	4.25407E-001	-8.89020E-005	0.00000E+000	-3.78195E-005	-5.39641E-002	4.25463E-001	3.57290E+000	9	...........
	51	0.693333	4.20186E-001	-8.89197E-005	0.00000E+000	-3.73628E-005	-5.39641E-002	4.20245E-001	3.57290E+000	9	...........
	52	0.706667	4.14992E-001	-8.86353E-005	0.00000E+000	-3.67829E-005	-5.39641E-002	4.15052E-001	3.57290E+000	9	...........
	53	0.72	4.09813E-001	-8.87040E-005	0.00000E+000	-3.63521E-005	-5.39641E-002	4.09867E-001	3.57290E+000	9	...........
	54	0.733333	4.04666E-001	-8.88905E-005	0.00000E+000	-3.59710E-005	-5.39641E-002	4.04720E-001	3.57290E+000	9	...........
	55	0.746667	3.99538E-001	-8.86988E-005	0.00000E+000	-3.54386E-005	-5.39641E-002	3.99591E-001	3.57290E+000	9	...........
	56	0.76	3.94432E-001	-8.86405E-005	0.00000E+000	-3.49626E-005	-5.39641E-002	3.94482E-001	3.57290E+000	9	...........
	57	0.773333	3.89346E-001	-8.88614E-005	0.00000E+000	-3.45979E-005	-5.39641E-002	3.89395E-001	3.57290E+000	9	...........
	58	0.786667	3.84286E-001	-8.86269E-005	0.00000E+000	-3.40581E-005	-5.39641E-002	3.84334E-001	3.57290E+000	9	...........
	59	0.8	3.79246E-001	-8.87374E-005	0.00000E+000	-3.36533E-005	-5.39641E-002	3.79297E-001	3.57290E+000	9	...........
	60	0.813333	3.74225E-001	-8.87103E-005	0.00000E+000	-3.31976E-005	-5.39641E-002	3.74270E-001	3.57290E+000	9	...........
	61	0.826667	3.69206E-001	-8.88186E-005	0.00000E+000	-3.27924E-005	-5.39641E-002	3.69256E-001	3.57290E+000	9	...........
	62	0.84	3.64208E-001	-8.87290E-005	0.00000E+000	-3.23158E-005	-5.39641E-002	3.64258E-001	3.57290E+000	9	...........
	63	0.853333	3.59237E-001	-8.87540E-005	0.00000E+000	-3.18837E-005	-5.39641E-002	3.59283E-001	3.57290E+000	9	...........
	64	0.866667	3.54279E-001	-8.87915E-005	0.00000E+000	-3.14570E-005	-5.39641E-002	3.54320E-001	3.57290E+000	9	...........
	65	0.88	3.49325E-001	-8.86582E-005	0.00000E+000	-3.09705E-005	-5.39641E-002	3.49371E-001	3.57290E+000	9	...........
	66	0.893333	3.44397E-001	-8.88853E-005	0.00000E+000	-3.06118E-005	-5.39641E-002	3.44438E-001	3.57290E+000	9	...........
	67	0.906667	3.39469E-001	-8.88499E-005	0.00000E+000	-3.01618E-005	-5.39641E-002	3.39510E-001	3.57290E+000	9	...........
	68	0.92	3.34558E-001	-8.84904E-005	0.00000E+000	-2.96052E-005	-5.39641E-002	3.34600E-001	3.57290E+000	9	...........
	69	0.933333	3.29657E-001	-8.91604E-005	0.00000E+000	-2.93924E-005	-5.39641E-002	3.29697E-001	3.57290E+000	9	...........
	70	0.946667	3.24774E-001	-8.85394E-005	0.00000E+000	-2.87553E-005	-5.39641E-002	3.24824E-001	3.57290E+000	9	...........
	71	0.96	3.19896E-001	-8.87332E-005	0.00000E+000	-2.83854E-005	-5.39641E-002	3.19944E-001	3.57290E+000	9	...........
	72	0.97333	3.15039E-001	-8.86582E-005	0.00000E+000	-2.79307E-005	-5.39641E-002	3.15079E-001	3.57290E+000	9	...........
	73	0.98667	3.10185E-001	-8.88666E-005	0.00000E+000	-2.75651E-005	-5.39641E-002	3.10232E-001	3.57290E+000	9	...........
	74	1	3.05353E-001	-8.88332E-005	0.00000E+000	-2.71255E-005	-5.39641E-002	3.05393E-001	3.57290E+000	9	...........
	75	1.01333	3.00533E-001	-8.88989E-005	0.00000E+000	-2.67171E-005	-5.39641E-002	3.00571E-001	3.57290E+000	9	...........
	76	1.02667	2.95729E-001	-8.87905E-005	0.00000E+000	-2.62579E-005	-5.39641E-002	2.95769E-001	3.57290E+000	9	...........
	77	1.04	2.90928E-001	-8.87363E-005	0.00000E+000	-2.58158E-005	-5.39641E-002	2.90971E-001	3.57290E+000	9	...........
	78	1.05333	2.86151E-001	-8.86384E-005	0.00000E+000	-2.53640E-005	-5.39641E-002	2.86188E-001	3.57290E+000	9	...........
	79	1.06667	2.81372E-001	-8.89624E-005	0.00000E+000	-2.50315E-005	-5.39641E-002	2.81415E-001	3.57290E+000	9	...........
	80	1.08	2.76609E-001	-8.85415E-005	0.00000E+000	-2.44914E-005	-5.39641E-002	2.76654E-001	3.57290E+000	9	...........
	81	1.09333	2.71863E-001	-8.88749E-005	0.00000E+000	-2.41618E-005	-5.39641E-002	2.71904E-001	3.57290E+000	9	...........
	82	1.10667	2.67136E-001	-8.88832E-005	0.00000E+000	-2.37439E-005	-5.39641E-002	2.67179E-001	3.57290E+000	9	...........
	83	1.12	2.62432E-001	-8.87249E-005	0.00000E+000	-2.32842E-005	-5.39641E-002	2.62479E-001	3.57290E+000	9	...........
	84	1.13333	2.57735E-001	-8.88759E-005	0.00000E+000	-2.29064E-005	-5.39641E-002	2.57771E-001	3.57290E+000	9	...........
	85	1.14667	2.53048E-001	-8.89728E-005	0.00000E+000	-2.25144E-005	-5.39641E-002	2.53083E-001	3.57290E+000	9	...........
	86	1.16	2.48365E-001	-8.87540E-005	0.00000E+000	-2.20434E-005	-5.39641E-002	2.48400E-001	3.57290E+000	9	...........
	87	1.17333	2.43701E-001	-8.86665E-005	0.00000E+000	-2.16081E-005	-5.39641E-002	2.43729E-001	3.57290E+000	9	...........
	88	1.18667	2.39043E-001	-8.88666E-005	0.00000E+000	-2.12429E-005	-5.39641E-002	2.39071E-001	3.57290E+000	9	...........
	89	1.2	2.34397E-001	-8.87738E-005	0.00000E+000	-2.08084E-005	-5.39641E-002	2.34429E-001	3.57290E+000	9	...........
	90	1.21333	2.29766E-001	-8.89437E-005	0.00000E+000	-2.04362E-005	-5.39641E-002	2.29791E-001	3.57290E+000	9	...........
	91	1.22667	2.25130E-001	-8.86978E-005	0.00000E+000	-1.99686E-005	-5.39641E-002	2.25159E-001	3.57290E+000	9	...........
	92	1.24	2.20507E-001	-8.90114E-005	0.00000E+000	-1.96276E-005	-5.39641E-002	2.20534E-001	3.57290E+000	9	...........
	93	1.25333	2.15903E-001	-8.88957E-005	0.00000E+000	-1.91929E-005	-5.39641E-002	2.15931E-001	3.57290E+000	9	...........
	94	1.26667	2.11328E-001	-8.87457E-005	0.00000E+000	-1.87545E-005	-5.39641E-002	2.11352E-001	3.57290E+000	9	...........
	95	1.28	2.06763E-001	-8.87832E-005	0.00000E+000	-1.83571E-005	-5.39641E-002	2.06789E-001	3.57290E+000	9	...........
	96	1.29333	2.02217E-001	-8.89864E-005	0.00000E+000	-1.79945E-005	-5.39641E-002	2.02244E-001	3.57290E+000	9	...........
	97	1.30667	1.97700E-001	-8.86759E-005	0.00000E+000	-1.75312E-005	-5.39641E-002	1.97723E-001	3.57290E+000	9	...........
	98	1.32	1.93194E-001	-8.89218E-005	0.00000E+000	-1.71791E-005	-5.39641E-002	1.93215E-001	3.57290E+000	9	...........
	99	1.33333	1.88717E-001	-8.87019E-005	0.00000E+000	-1.67396E-005	-5.39641E-002	1.88733E-001	3.57290E+000	9	...........
	100	1.34667	1.84248E-001	-8.85644E-005	0.00000E+000	-1.63178E-005	-5.39641E-002	1.84264E-001	3.57290E+000	9	...........
	101	1.36	1.79789E-001	-8.85540E-005	0.00000E+000	-1.59210E-005	-5.39641E-002	1.79813E-001	3.57290E+000	9	...........
	102	1.37333	1.75353E-001	-8.89041E-005	0.00000E+000	-1.55896E-005	-5.39641E-002	1.75375E-001	3.57290E+000	9	...........
	103	1.38667	1.70945E-001	-8.88728E-005	0.00000E+000	-1.51924E-005	-5.39641E-002	1.70964E-001	3.57290E+000	9	...........
	104	1.4	1.66553E-001	-8.89260E-005	0.00000E+000	-1.48109E-005	-5.39641E-002	1.66571E-001	3.57290E+000	9	...........
	105	1.41333	1.62172E-001	-8.89624E-005	0.00000E+000	-1.44272E-005	-5.39641E-002	1.62187E-001	3.57290E+000	9	...........
	106	1.42667	1.57800E-001	-8.86519E-005	0.00000E+000	-1.39893E-005	-5.39641E-002	1.57819E-001	3.57290E+000	9	...........
	107	1.44	1.53462E-001	-8.89999E-005	0.00000E+000	-1.36581E-005	-5.39641E-002	1.53475E-001	3.57290E+000	9	...........
	108	1.45333	1.49133E-001	-8.90239E-005	0.00000E+000	-1.32764E-005	-5.39641E-002	1.49147E-001	3.57290E+000	9	...........
	109	1.46667	1.44836E-001	-8.87374E-005	0.00000E+000	-1.28524E-005	-5.39641E-002	1.44848E-001	3.57290E+000	9	...........
	110	1.48	1.40560E-001	-8.87447E-005	0.00000E+000	-1.24740E-005	-5.39641E-002	1.40571E-001	3.57290E+000	9	...........
	111	1.49333	1.36299E-001	-8.88739E-005	0.00000E+000	-1.21134E-005	-5.39641E-002	1.36312E-001	3.57290E+000	9	...........
	112	1.50667	1.32051E-001	-8.87916E-005	0.00000E+000	-1.17250E-005	-5.39641E-002	1.32065E-001	3.57290E+000	9	...........
	113	1.52	1.27828E-001	-8.87030E-005	0.00000E+000	-1.13387E-005	-5.39641E-002	1.27840E-001	3.57290E+000	9	...........
	114	1.53333	1.23613E-001	-8.87520E-005	0.00000E+000	-1.09709E-005	-5.39641E-002	1.23627E-001	3.57290E+000	9	...........
	115	1.54667	1.19423E-001	-8.87895E-005	0.00000E+000	-1.06035E-005	-5.39641E-002	1.19436E-001	3.57290E+000	9	...........
	116	1.56	1.15242E-001	-8.88093E-005	0.00000E+000	-1.02345E-005	-5.39641E-002	1.15253E-001	3.57290E+000	9	...........
	117	1.57333	1.11086E-001	-8.88572E-005	0.00000E+000	-9.87077E-006	-5.39641E-002	1.11098E-001	3.57290E+000	9	...........
	118	1.58667	1.06954E-001	-8.86603E-005	0.00000E+000	-9.48255E-006	-5.39641E-002	1.06967E-001	3.57290E+000	9	...........
	119	1.6	1.02836E-001	-8.89635E-005	0.00000E+000	-9.14867E-006	-5.39641E-002	1.02853E-001	3.57290E+000	9	...........
	120	1.61333	9.87295E-002	-8.87301E-005	0.00000E+000	-8.76027E-006	-5.39641E-002	9.87397E-002	3.57290E+000	9	...........
	121	1.62667	9.46485E-002	-8.89176E-005	0.00000E+000	-8.41592E-006	-5.39641E-002	9.46543E-002	3.57290E+000	9	...........
	122	1.64	9.05949E-002	-8.88561E-005	0.00000E+000	-8.04991E-006	-5.39641E-002	9.06020E-002	3.57290E+000	9	...........
	123	1.65333	8.65603E-002	-8.87811E-005	0.00000E+000	-7.68492E-006	-5.39641E-002	8.65734E-002	3.57290E+000	9	...........
	124	1.66667	8.25438E-002	-8.89676E-005	0.00000E+000	-7.34373E-006	-5.39641E-002	8.25470E-002	3.57290E+000	9	...........
	125	1.68	7.85565E-002	-8.87072E-005	0.00000E+000	-6.96852E-006	-5.39641E-002	7.85642E-002	3.57290E+000	9	...........
	126	1.69333	7.45818E-002	-8.90239E-005	0.00000E+000	-6.63956E-006	-5.39641E-002	7.45874E-002	3.57290E+000	9	...........
	127	1.70667	7.06152E-002	-8.87822E-005	0.00000E+000	-6.26937E-006	-5.39641E-002	7.06172E-002	3.57290E+000	9	...........
	128	1.72	6.66691E-002	-8.89041E-005	0.00000E+000	-5.92716E-006	-5.39641E-002	6.66699E-002	3.57290E+000	9	...........
	129	1.73333	6.27270E-002	-8.90468E-005	0.00000E+000	-5.58564E-006	-5.39641E-002	6.27270E-002	3.57290E+000	9	...........
	130	1.74667	5.88076E-002	-8.89405E-005	0.00000E+000	-5.23038E-006	-5.39641E-002	5.88059E-002	3.57290E+000	9	...........
	131	1.76	5.49058E-002	-8.87603E-005	0.00000E+000	-4.87346E-006	-5.39641E-002	5.48990E-002	3.57290E+000	9	...........
	132	1.77333	5.10250E-002	-8.89416E-005	0.00000E+000	-4.53824E-006	-5.39641E-002	5.10279E-002	3.57290E+000	9	...........
	133	1.78667	4.71865E-002	-8.89176E-005	0.00000E+000	-4.19571E-006	-5.39641E-002	4.71961E-002	3.57290E+000	9	...........
	134	1.8	4.33461E-002	-8.85165E-005	0.00000E+000	-3.83684E-006	-5.39641E-002	4.33571E-002	3.57290E+000	9	...........
	135	1.81333	3.95162E-002	-8.88666E-005	0.00000E+000	-3.51167E-006	-5.39641E-002	3.95205E-002	3.57290E+000	9	...........
	136	1.82667	3.57078E-002	-8.87520E-005	0.00000E+000	-3.16914E-006	-5.39641E-002	3.57117E-002	3.57290E+000	9	...........
	137	1.84	3.19184E-002	-8.89030E-005	0.00000E+000	-2.83765E-006	-5.39641E-002	3.19185E-002	3.57290E+000	9	...........
	138	1.85333	2.81475E-002	-8.88874E-005	0.00000E+000	-2.50196E-006	-5.39641E-002	2.81462E-002	3.57290E+000	9	...........
	139	1.86667	2.43829E-002	-8.90906E-005	0.00000E+000	-2.17229E-006	-5.39641E-002	2.43828E-002	3.57290E+000	9	...........
	140	1.88	2.06403E-002	-8.88603E-005	0.00000E+000	-1.83410E-006	-5.39641E-002	2.06391E-002	3.57290E+000	9	...........
	141	1.89333	1.69210E-002	-8.89614E-005	0.00000E+000	-1.50531E-006	-5.39641E-002	1.69170E-002	3.57290E+000	9	...........
	142	1.90667	1.32220E-002	-8.88499E-005	0.00000E+000	-1.17477E-006	-5.39641E-002	1.32184E-002	3.57290E+000	9	...........
	143	1.92	9.54179E-003	-8.88332E-005	0.00000E+000	-8.47628E-007	-5.39641E-002	9.53234E-003	3.57290E+000	9	...........
	144	1.93333	5.88864E-003	-8.87499E-005	0.00000E+000	-5.22616E-007	-5.39641E-002	5.88008E-003	3.57290E+000	9	...........
	145	1.94667	2.25214E-003	-8.88530E-005	0.00000E+000	-2.00109E-007	-5.39641E-002	2.24069E-003	3.57290E+000	9	...........
	146	1.95	-1.16472E-005	-8.88999E-005	0.00000E+000	1.03544E-009	-5.39641E-002	-1.89649E-005	3.57290E+000	9	...........
STARTTIMEOFFSET	QUANT	3992.109	Start Time Offset (s)
