EXPLAIN
TAG	PWR800_DISCHARGE
TITLE	LABEL	PWR Cyclic Charge Discharge (Cell) - Discharge Step	Test &Identifier
DATE	LABEL	10-7-2017	Date
TIME	LABEL	15:04:27	Time
NOTES	NOTES	3	&Notes...
	supercap test cell
	0.9mg
	6M KOH
PSTAT	PSTAT	IFC5000-01520	Potentiostat
CAPACITY	QUANT	1.00000E-003	Capacity (A-hr)
CELLTYPE	SELECTOR	1	&Cell Type
WORKINGCONNECTION	SELECTOR	0	&Working Lead
MAXDISCHARGETIME	VARIABLEANDUNITS	1.00000E+002	s	1.00000E+002	second(s)	Max &Discharge Time
DISCHARGEMODE	MULTIPARAM	0	9.00000E-005	&Discharge Mode	Constant Current	Amp(s)
SAMPLETIME	QUANT	1.00000E-002	Sa&mple Period (s)
DISCHARGESTOPAT1	MULTIPARAM	3	0.00000E+000	Discharge Stop At &1	Voltage < Limit	V
DISCHARGESTOPAT2	MULTIPARAM	0	0.00000E+000	Discharge Stop At &2	None	N/A
AESBHCSELECTOR	TOGGLE	F	Save Both Half Cells
IRCOMP	TOGGLE	F	IR &Measure
EOC	QUANT	0	Open Circuit (V)
SEQUENCER	TOGGLE	TRUE	Run as Sequence
PSTATMODEL	IQUANT	53	Pstat Model
PSTATSECTION	LABEL	IFC5000-01520	Pstat Section
PSTATSERIALNO	LABEL	01520	Pstat Serial Number
CTRLMODE	IQUANT	0	Control Mode
ELECTROMETER	IQUANT	1	RE=0 or CS=1
IESTAB	IQUANT	0	I/E Stability
CASPEED	IQUANT	4	Control Amp Speed
CONVENTION	IQUANT	1	Current Convention
ICHRANGE	IQUANT	2	Ich Range
ICHRANGEMODE	TOGGLE	T	Ich Auto Range
ICHOFFSETENABLE	TOGGLE	F	Ich Offset Enable
ICHOFFSET	QUANT	0	Ich Offset (V)
ICHFILTER	IQUANT	1	Ich Filter
VCHRANGE	IQUANT	2	Vch Range
VCHRANGEMODE	TOGGLE	T	Vch Auto Range
VCHOFFSETENABLE	TOGGLE	F	Vch Offset Enable
VCHOFFSET	QUANT	0	Vch Offset (V)
VCHFILTER	IQUANT	1	Vch Filter
IERANGELOWERLIMIT	IQUANT	9	I/E Range Lower Limit
IERANGEMODE	TOGGLE	F	I/E AutoRange
IERANGE	IQUANT	9	I/E Range
ACHSELECT	IQUANT	1	Ach Select
ACHRANGE	IQUANT	2	Ach Range
ACHOFFSETENABLE	TOGGLE	F	Ach Offset Enable
ACHOFFSET	QUANT	0	Ach Offset (V)
ACHFILTER	IQUANT	1	Ach Filter
CABLEID	IQUANT	14	Cable ID
DCCALDATE	LABEL	5-7-2017	DC Calibration Date
ACCALDATE	LABEL	12/3/2015	AC Calibration Date
FRAMEWORKVERSION	QUANT	7.01	Framework Version
INSTRUMENTVERSION	LABEL	4.00	Instrument Version
CURVE	TABLE	170
	Pt	T	Vf	Im	Vu	Pwr	Sig	Ach	Temp	IERange	Over
	#	s	V	A	V	W	V	V	deg C	#	bits
	0	0.013333	8.45083E-001	-8.86759E-005	0.00000E+000	-7.49385E-005	-5.39641E-002	8.45176E-001	3.57110E+000	9	...........
	1	0.026667	8.33955E-001	-8.86790E-005	0.00000E+000	-7.39543E-005	-5.39641E-002	8.34060E-001	3.57110E+000	9	...........
	2	0.04	8.23439E-001	-8.85509E-005	0.00000E+000	-7.29163E-005	-5.39641E-002	8.23551E-001	3.57110E+000	9	...........
	3	0.053333	8.13381E-001	-8.86228E-005	0.00000E+000	-7.20841E-005	-5.39641E-002	8.13481E-001	3.57110E+000	9	...........
	4	0.066667	8.03751E-001	-8.85467E-005	0.00000E+000	-7.11695E-005	-5.39641E-002	8.03838E-001	3.57110E+000	9	...........
	5	0.08	7.94406E-001	-8.87217E-005	0.00000E+000	-7.04811E-005	-5.39641E-002	7.94488E-001	3.57110E+000	9	...........
	6	0.093333	7.85329E-001	-8.84290E-005	0.00000E+000	-6.94459E-005	-5.39641E-002	7.85417E-001	3.57110E+000	9	...........
	7	0.106667	7.76511E-001	-8.85457E-005	0.00000E+000	-6.87567E-005	-5.39641E-002	7.76589E-001	3.57110E+000	9	...........
	8	0.12	7.67928E-001	-8.86926E-005	0.00000E+000	-6.81095E-005	-5.39641E-002	7.67991E-001	3.57110E+000	9	...........
	9	0.133333	7.59582E-001	-8.86947E-005	0.00000E+000	-6.73709E-005	-5.39641E-002	7.59609E-001	3.57110E+000	9	...........
	10	0.146667	7.51368E-001	-8.86571E-005	0.00000E+000	-6.66141E-005	-5.39641E-002	7.51430E-001	3.57110E+000	9	...........
	11	0.16	7.43362E-001	-8.84759E-005	0.00000E+000	-6.57696E-005	-5.39641E-002	7.43435E-001	3.57110E+000	9	...........
	12	0.173333	7.35518E-001	-8.82383E-005	0.00000E+000	-6.49009E-005	-5.39641E-002	7.35590E-001	3.57110E+000	9	...........
	13	0.186667	7.27818E-001	-8.85040E-005	0.00000E+000	-6.44148E-005	-5.39641E-002	7.27900E-001	3.57110E+000	9	...........
	14	0.2	7.20299E-001	-8.86478E-005	0.00000E+000	-6.38529E-005	-5.39641E-002	7.20361E-001	3.57110E+000	9	...........
	15	0.213333	7.12816E-001	-8.85915E-005	0.00000E+000	-6.31495E-005	-5.39641E-002	7.12930E-001	3.57110E+000	9	...........
	16	0.226667	7.05522E-001	-8.85540E-005	0.00000E+000	-6.24768E-005	-5.39641E-002	7.05634E-001	3.57110E+000	9	...........
	17	0.24	6.98348E-001	-8.84133E-005	0.00000E+000	-6.17433E-005	-5.39641E-002	6.98439E-001	3.57110E+000	9	...........
	18	0.253333	6.91263E-001	-8.86228E-005	0.00000E+000	-6.12616E-005	-5.39641E-002	6.91362E-001	3.57110E+000	9	...........
	19	0.266667	6.84296E-001	-8.85769E-005	0.00000E+000	-6.06128E-005	-5.39641E-002	6.84387E-001	3.57110E+000	9	...........
	20	0.28	6.77439E-001	-8.86311E-005	0.00000E+000	-6.00422E-005	-5.39641E-002	6.77514E-001	3.57110E+000	9	...........
	21	0.293333	6.70647E-001	-8.86353E-005	0.00000E+000	-5.94430E-005	-5.39641E-002	6.70718E-001	3.57110E+000	9	...........
	22	0.306667	6.63924E-001	-8.85561E-005	0.00000E+000	-5.87945E-005	-5.39641E-002	6.63998E-001	3.57110E+000	9	...........
	23	0.32	6.57304E-001	-8.84696E-005	0.00000E+000	-5.81515E-005	-5.39641E-002	6.57379E-001	3.57110E+000	9	...........
	24	0.333333	6.50768E-001	-8.85196E-005	0.00000E+000	-5.76057E-005	-5.39641E-002	6.50844E-001	3.57110E+000	9	...........
	25	0.346667	6.44301E-001	-8.86050E-005	0.00000E+000	-5.70883E-005	-5.39641E-002	6.44402E-001	3.57110E+000	9	...........
	26	0.36	6.37892E-001	-8.87936E-005	0.00000E+000	-5.66408E-005	-5.39641E-002	6.37993E-001	3.57110E+000	9	...........
	27	0.373333	6.31575E-001	-8.87801E-005	0.00000E+000	-5.60713E-005	-5.39641E-002	6.31657E-001	3.57110E+000	9	...........
	28	0.386667	6.25315E-001	-8.84811E-005	0.00000E+000	-5.53285E-005	-5.39641E-002	6.25386E-001	3.57110E+000	9	...........
	29	0.4	6.19115E-001	-8.85988E-005	0.00000E+000	-5.48529E-005	-5.39641E-002	6.19193E-001	3.57110E+000	9	...........
	30	0.413333	6.12922E-001	-8.86384E-005	0.00000E+000	-5.43284E-005	-5.39641E-002	6.13039E-001	3.57110E+000	9	...........
	31	0.426667	6.06822E-001	-8.83810E-005	0.00000E+000	-5.36316E-005	-5.39641E-002	6.06934E-001	3.57110E+000	9	...........
	32	0.44	6.00802E-001	-8.87728E-005	0.00000E+000	-5.33349E-005	-5.39641E-002	6.00893E-001	3.57110E+000	9	...........
	33	0.453333	5.94839E-001	-8.84238E-005	0.00000E+000	-5.25979E-005	-5.39641E-002	5.94915E-001	3.57110E+000	9	...........
	34	0.466667	5.88885E-001	-8.85842E-005	0.00000E+000	-5.21659E-005	-5.39641E-002	5.88982E-001	3.57110E+000	9	...........
	35	0.48	5.82977E-001	-8.85550E-005	0.00000E+000	-5.16255E-005	-5.39641E-002	5.83063E-001	3.57110E+000	9	...........
	36	0.493333	5.77135E-001	-8.87936E-005	0.00000E+000	-5.12459E-005	-5.39641E-002	5.77218E-001	3.57110E+000	9	...........
	37	0.506667	5.71333E-001	-8.85342E-005	0.00000E+000	-5.05825E-005	-5.39641E-002	5.71382E-001	3.57110E+000	9	...........
	38	0.52	5.65553E-001	-8.85675E-005	0.00000E+000	-5.00896E-005	-5.39641E-002	5.65609E-001	3.57110E+000	9	...........
	39	0.533333	5.59767E-001	-8.84863E-005	0.00000E+000	-4.95317E-005	-5.39641E-002	5.59874E-001	3.57110E+000	9	...........
	40	0.546667	5.54085E-001	-8.84696E-005	0.00000E+000	-4.90197E-005	-5.39641E-002	5.54182E-001	3.57110E+000	9	...........
	41	0.56	5.48405E-001	-8.86894E-005	0.00000E+000	-4.86378E-005	-5.39641E-002	5.48477E-001	3.57110E+000	9	...........
	42	0.573333	5.42783E-001	-8.84936E-005	0.00000E+000	-4.80328E-005	-5.39641E-002	5.42837E-001	3.57110E+000	9	...........
	43	0.586667	5.37161E-001	-8.84894E-005	0.00000E+000	-4.75331E-005	-5.39641E-002	5.37244E-001	3.57110E+000	9	...........
	44	0.6	5.31535E-001	-8.83675E-005	0.00000E+000	-4.69705E-005	-5.39641E-002	5.31627E-001	3.57110E+000	9	...........
	45	0.613333	5.25985E-001	-8.85311E-005	0.00000E+000	-4.65660E-005	-5.39641E-002	5.26077E-001	3.57110E+000	9	...........
	46	0.626667	5.20456E-001	-8.85498E-005	0.00000E+000	-4.60863E-005	-5.39641E-002	5.20534E-001	3.57110E+000	9	...........
	47	0.64	5.14964E-001	-8.87603E-005	0.00000E+000	-4.57084E-005	-5.39641E-002	5.15008E-001	3.57110E+000	9	...........
	48	0.653333	5.09451E-001	-8.85082E-005	0.00000E+000	-4.50906E-005	-5.39641E-002	5.09520E-001	3.57110E+000	9	...........
	49	0.666667	5.03979E-001	-8.84206E-005	0.00000E+000	-4.45621E-005	-5.39641E-002	5.04064E-001	3.57110E+000	9	...........
	50	0.68	4.98564E-001	-8.87874E-005	0.00000E+000	-4.42662E-005	-5.39641E-002	4.98653E-001	3.57110E+000	9	...........
	51	0.693333	4.93180E-001	-8.85134E-005	0.00000E+000	-4.36530E-005	-5.39641E-002	4.93259E-001	3.57110E+000	9	...........
	52	0.706667	4.87815E-001	-8.86134E-005	0.00000E+000	-4.32270E-005	-5.39641E-002	4.87878E-001	3.57110E+000	9	...........
	53	0.72	4.82530E-001	-8.88301E-005	0.00000E+000	-4.28632E-005	-5.39641E-002	4.82566E-001	3.57110E+000	9	...........
	54	0.733333	4.77209E-001	-8.85592E-005	0.00000E+000	-4.22612E-005	-5.39641E-002	4.77257E-001	3.57127E+000	9	...........
	55	0.746667	4.71912E-001	-8.84863E-005	0.00000E+000	-4.17577E-005	-5.39641E-002	4.71961E-001	3.57250E+000	9	...........
	56	0.76	4.66635E-001	-8.84561E-005	0.00000E+000	-4.12767E-005	-5.39641E-002	4.66682E-001	3.57250E+000	9	...........
	57	0.773333	4.61382E-001	-8.87572E-005	0.00000E+000	-4.09510E-005	-5.39641E-002	4.61430E-001	3.57250E+000	9	...........
	58	0.786667	4.56155E-001	-8.86947E-005	0.00000E+000	-4.04585E-005	-5.39641E-002	4.56199E-001	3.57250E+000	9	...........
	59	0.8	4.50927E-001	-8.88061E-005	0.00000E+000	-4.00451E-005	-5.39641E-002	4.50973E-001	3.57250E+000	9	...........
	60	0.813333	4.45729E-001	-8.83696E-005	0.00000E+000	-3.93889E-005	-5.39641E-002	4.45777E-001	3.57250E+000	9	...........
	61	0.826667	4.40556E-001	-8.89270E-005	0.00000E+000	-3.91773E-005	-5.39641E-002	4.40601E-001	3.57250E+000	9	...........
	62	0.84	4.35409E-001	-8.87311E-005	0.00000E+000	-3.86344E-005	-5.39641E-002	4.35449E-001	3.57250E+000	9	...........
	63	0.853333	4.30277E-001	-8.88301E-005	0.00000E+000	-3.82215E-005	-5.39641E-002	4.30319E-001	3.57250E+000	9	...........
	64	0.866667	4.25180E-001	-8.86863E-005	0.00000E+000	-3.77077E-005	-5.39641E-002	4.25220E-001	3.57250E+000	9	...........
	65	0.88	4.20101E-001	-8.87863E-005	0.00000E+000	-3.72992E-005	-5.39641E-002	4.20143E-001	3.57250E+000	9	...........
	66	0.893333	4.15043E-001	-8.82946E-005	0.00000E+000	-3.66460E-005	-5.39641E-002	4.15087E-001	3.57250E+000	9	...........
	67	0.906667	4.10018E-001	-8.86790E-005	0.00000E+000	-3.63600E-005	-5.39641E-002	4.10055E-001	3.57250E+000	9	...........
	68	0.92	4.05033E-001	-8.85811E-005	0.00000E+000	-3.58783E-005	-5.39641E-002	4.05067E-001	3.57250E+000	9	...........
	69	0.933333	4.00028E-001	-8.85352E-005	0.00000E+000	-3.54166E-005	-5.39641E-002	4.00070E-001	3.57250E+000	9	...........
	70	0.946667	3.95041E-001	-8.85634E-005	0.00000E+000	-3.49862E-005	-5.39641E-002	3.95080E-001	3.57250E+000	9	...........
	71	0.96	3.90081E-001	-8.84769E-005	0.00000E+000	-3.45132E-005	-5.39641E-002	3.90118E-001	3.57250E+000	9	...........
	72	0.97333	3.85151E-001	-8.84925E-005	0.00000E+000	-3.40830E-005	-5.39641E-002	3.85181E-001	3.57250E+000	9	...........
	73	0.98667	3.80250E-001	-8.88093E-005	0.00000E+000	-3.37697E-005	-5.39641E-002	3.80274E-001	3.57250E+000	9	...........
	74	1	3.75366E-001	-8.83758E-005	0.00000E+000	-3.31732E-005	-5.39641E-002	3.75392E-001	3.57250E+000	9	...........
	75	1.01333	3.70494E-001	-8.87009E-005	0.00000E+000	-3.28631E-005	-5.39641E-002	3.70526E-001	3.57250E+000	9	...........
	76	1.02667	3.65644E-001	-8.84748E-005	0.00000E+000	-3.23503E-005	-5.39641E-002	3.65674E-001	3.57250E+000	9	...........
	77	1.04	3.60811E-001	-8.85644E-005	0.00000E+000	-3.19550E-005	-5.39641E-002	3.60845E-001	3.57250E+000	9	...........
	78	1.05333	3.56012E-001	-8.84623E-005	0.00000E+000	-3.14937E-005	-5.39641E-002	3.56047E-001	3.57250E+000	9	...........
	79	1.06667	3.51251E-001	-8.86509E-005	0.00000E+000	-3.11387E-005	-5.39641E-002	3.51273E-001	3.57250E+000	9	...........
	80	1.08	3.46499E-001	-8.85707E-005	0.00000E+000	-3.06896E-005	-5.39641E-002	3.46532E-001	3.57250E+000	9	...........
	81	1.09333	3.41771E-001	-8.88124E-005	0.00000E+000	-3.03535E-005	-5.39641E-002	3.41805E-001	3.57250E+000	9	...........
	82	1.10667	3.37066E-001	-8.88072E-005	0.00000E+000	-2.99339E-005	-5.39641E-002	3.37093E-001	3.57250E+000	9	...........
	83	1.12	3.32376E-001	-8.84811E-005	0.00000E+000	-2.94090E-005	-5.39641E-002	3.32413E-001	3.57250E+000	9	...........
	84	1.13333	3.27722E-001	-8.87030E-005	0.00000E+000	-2.90699E-005	-5.39641E-002	3.27753E-001	3.57250E+000	9	...........
	85	1.14667	3.23091E-001	-8.85748E-005	0.00000E+000	-2.86178E-005	-5.39641E-002	3.23121E-001	3.57250E+000	9	...........
	86	1.16	3.18474E-001	-8.84946E-005	0.00000E+000	-2.81833E-005	-5.39641E-002	3.18503E-001	3.57250E+000	9	...........
	87	1.17333	3.13888E-001	-8.87072E-005	0.00000E+000	-2.78441E-005	-5.39641E-002	3.13912E-001	3.57250E+000	9	...........
	88	1.18667	3.09332E-001	-8.85488E-005	0.00000E+000	-2.73910E-005	-5.39641E-002	3.09363E-001	3.57250E+000	9	...........
	89	1.2	3.04779E-001	-8.86676E-005	0.00000E+000	-2.70240E-005	-5.39641E-002	3.04806E-001	3.57250E+000	9	...........
	90	1.21333	3.00240E-001	-8.83779E-005	0.00000E+000	-2.65346E-005	-5.39641E-002	3.00269E-001	3.57250E+000	9	...........
	91	1.22667	2.95736E-001	-8.85582E-005	0.00000E+000	-2.61898E-005	-5.39641E-002	2.95766E-001	3.57250E+000	9	...........
	92	1.24	2.91267E-001	-8.87113E-005	0.00000E+000	-2.58387E-005	-5.39641E-002	2.91293E-001	3.57250E+000	9	...........
	93	1.25333	2.86813E-001	-8.83206E-005	0.00000E+000	-2.53315E-005	-5.39641E-002	2.86841E-001	3.57250E+000	9	...........
	94	1.26667	2.82364E-001	-8.84269E-005	0.00000E+000	-2.49685E-005	-5.39641E-002	2.82391E-001	3.57250E+000	9	...........
	95	1.28	2.77939E-001	-8.86363E-005	0.00000E+000	-2.46355E-005	-5.39641E-002	2.77966E-001	3.57250E+000	9	...........
	96	1.29333	2.73547E-001	-8.86280E-005	0.00000E+000	-2.42439E-005	-5.39641E-002	2.73575E-001	3.57250E+000	9	...........
	97	1.30667	2.69170E-001	-8.85832E-005	0.00000E+000	-2.38439E-005	-5.39641E-002	2.69197E-001	3.57250E+000	9	...........
	98	1.32	2.64827E-001	-8.88728E-005	0.00000E+000	-2.35359E-005	-5.39641E-002	2.64854E-001	3.57250E+000	9	...........
	99	1.33333	2.60504E-001	-8.86499E-005	0.00000E+000	-2.30936E-005	-5.39641E-002	2.60528E-001	3.57250E+000	9	...........
	100	1.34667	2.56215E-001	-8.84383E-005	0.00000E+000	-2.26592E-005	-5.39641E-002	2.56239E-001	3.57250E+000	9	...........
	101	1.36	2.51928E-001	-8.85540E-005	0.00000E+000	-2.23092E-005	-5.39641E-002	2.51957E-001	3.57250E+000	9	...........
	102	1.37333	2.47687E-001	-8.82904E-005	0.00000E+000	-2.18683E-005	-5.39641E-002	2.47708E-001	3.57250E+000	9	...........
	103	1.38667	2.43465E-001	-8.85863E-005	0.00000E+000	-2.15676E-005	-5.39641E-002	2.43483E-001	3.57250E+000	9	...........
	104	1.4	2.39273E-001	-8.86498E-005	0.00000E+000	-2.12115E-005	-5.39641E-002	2.39289E-001	3.57250E+000	9	...........
	105	1.41333	2.35088E-001	-8.86373E-005	0.00000E+000	-2.08376E-005	-5.39641E-002	2.35098E-001	3.57250E+000	9	...........
	106	1.42667	2.30907E-001	-8.83946E-005	0.00000E+000	-2.04109E-005	-5.39641E-002	2.30918E-001	3.57250E+000	9	...........
	107	1.44	2.26714E-001	-8.85717E-005	0.00000E+000	-2.00804E-005	-5.39641E-002	2.26731E-001	3.57250E+000	9	...........
	108	1.45333	2.22553E-001	-8.86634E-005	0.00000E+000	-1.97323E-005	-5.39641E-002	2.22573E-001	3.57250E+000	9	...........
	109	1.46667	2.18428E-001	-8.84852E-005	0.00000E+000	-1.93277E-005	-5.39641E-002	2.18448E-001	3.57250E+000	9	...........
	110	1.48	2.14324E-001	-8.86259E-005	0.00000E+000	-1.89946E-005	-5.39641E-002	2.14339E-001	3.57250E+000	9	...........
	111	1.49333	2.10230E-001	-8.83706E-005	0.00000E+000	-1.85781E-005	-5.39641E-002	2.10244E-001	3.57250E+000	9	...........
	112	1.50667	2.06139E-001	-8.85821E-005	0.00000E+000	-1.82602E-005	-5.39641E-002	2.06154E-001	3.57250E+000	9	...........
	113	1.52	2.02070E-001	-8.86144E-005	0.00000E+000	-1.79063E-005	-5.39641E-002	2.02082E-001	3.57250E+000	9	...........
	114	1.53333	1.98019E-001	-8.84675E-005	0.00000E+000	-1.75182E-005	-5.39641E-002	1.98038E-001	3.57250E+000	9	...........
	115	1.54667	1.93988E-001	-8.85384E-005	0.00000E+000	-1.71753E-005	-5.39641E-002	1.94004E-001	3.57250E+000	9	...........
	116	1.56	1.89973E-001	-8.85467E-005	0.00000E+000	-1.68215E-005	-5.39641E-002	1.89991E-001	3.57250E+000	9	...........
	117	1.57333	1.85980E-001	-8.86499E-005	0.00000E+000	-1.64871E-005	-5.39641E-002	1.85992E-001	3.57250E+000	9	...........
	118	1.58667	1.81983E-001	-8.84706E-005	0.00000E+000	-1.61002E-005	-5.39641E-002	1.81998E-001	3.57250E+000	9	...........
	119	1.6	1.78018E-001	-8.85498E-005	0.00000E+000	-1.57635E-005	-5.39641E-002	1.78036E-001	3.57250E+000	9	...........
	120	1.61333	1.74058E-001	-8.84581E-005	0.00000E+000	-1.53969E-005	-5.39641E-002	1.74073E-001	3.57250E+000	9	...........
	121	1.62667	1.70115E-001	-8.84894E-005	0.00000E+000	-1.50534E-005	-5.39641E-002	1.70129E-001	3.57250E+000	9	...........
	122	1.64	1.66197E-001	-8.86769E-005	0.00000E+000	-1.47378E-005	-5.39641E-002	1.66207E-001	3.57250E+000	9	...........
	123	1.65333	1.62302E-001	-8.84988E-005	0.00000E+000	-1.43636E-005	-5.39641E-002	1.62317E-001	3.57250E+000	9	...........
	124	1.66667	1.58419E-001	-8.83842E-005	0.00000E+000	-1.40018E-005	-5.39641E-002	1.58429E-001	3.57250E+000	9	...........
	125	1.68	1.54552E-001	-8.86040E-005	0.00000E+000	-1.36939E-005	-5.39641E-002	1.54560E-001	3.57250E+000	9	...........
	126	1.69333	1.50688E-001	-8.85415E-005	0.00000E+000	-1.33422E-005	-5.39641E-002	1.50694E-001	3.57250E+000	9	...........
	127	1.70667	1.46854E-001	-8.83227E-005	0.00000E+000	-1.29705E-005	-5.39641E-002	1.46861E-001	3.57250E+000	9	...........
	128	1.72	1.43041E-001	-8.85978E-005	0.00000E+000	-1.26732E-005	-5.39641E-002	1.43050E-001	3.57250E+000	9	...........
	129	1.73333	1.39228E-001	-8.85790E-005	0.00000E+000	-1.23327E-005	-5.39641E-002	1.39230E-001	3.57239E+000	9	...........
	130	1.74667	1.35431E-001	-8.84967E-005	0.00000E+000	-1.19852E-005	-5.39641E-002	1.35437E-001	3.57160E+000	9	...........
	131	1.76	1.31641E-001	-8.84904E-005	0.00000E+000	-1.16490E-005	-5.39641E-002	1.31643E-001	3.57160E+000	9	...........
	132	1.77333	1.27865E-001	-8.86050E-005	0.00000E+000	-1.13295E-005	-5.39641E-002	1.27872E-001	3.57160E+000	9	...........
	133	1.78667	1.24098E-001	-8.85675E-005	0.00000E+000	-1.09911E-005	-5.39641E-002	1.24107E-001	3.57160E+000	9	...........
	134	1.8	1.20361E-001	-8.86207E-005	0.00000E+000	-1.06665E-005	-5.39641E-002	1.20370E-001	3.57160E+000	9	...........
	135	1.81333	1.16633E-001	-8.84863E-005	0.00000E+000	-1.03204E-005	-5.39641E-002	1.16641E-001	3.57160E+000	9	...........
	136	1.82667	1.12917E-001	-8.85852E-005	0.00000E+000	-1.00028E-005	-5.39641E-002	1.12924E-001	3.57160E+000	9	...........
	137	1.84	1.09230E-001	-8.86832E-005	0.00000E+000	-9.68688E-006	-5.39641E-002	1.09237E-001	3.57160E+000	9	...........
	138	1.85333	1.05543E-001	-8.87165E-005	0.00000E+000	-9.36341E-006	-5.39641E-002	1.05543E-001	3.57160E+000	9	...........
	139	1.86667	1.01871E-001	-8.86728E-005	0.00000E+000	-9.03322E-006	-5.39641E-002	1.01875E-001	3.57160E+000	9	...........
	140	1.88	9.82028E-002	-8.87624E-005	0.00000E+000	-8.71671E-006	-5.39641E-002	9.82113E-002	3.57160E+000	9	...........
	141	1.89333	9.45649E-002	-8.88249E-005	0.00000E+000	-8.39972E-006	-5.39641E-002	9.45657E-002	3.57160E+000	9	...........
	142	1.90667	9.09656E-002	-8.88582E-005	0.00000E+000	-8.08305E-006	-5.39641E-002	9.09631E-002	3.57160E+000	9	...........
	143	1.92	8.73477E-002	-8.87311E-005	0.00000E+000	-7.75046E-006	-5.39641E-002	8.73474E-002	3.57160E+000	9	...........
	144	1.93333	8.37275E-002	-8.86655E-005	0.00000E+000	-7.42374E-006	-5.39641E-002	8.37220E-002	3.57160E+000	9	...........
	145	1.94667	8.01213E-002	-8.87051E-005	0.00000E+000	-7.10717E-006	-5.39641E-002	8.01177E-002	3.57160E+000	9	...........
	146	1.96	7.65540E-002	-8.85665E-005	0.00000E+000	-6.78012E-006	-5.39641E-002	7.65420E-002	3.57160E+000	9	...........
	147	1.97333	7.29991E-002	-8.87561E-005	0.00000E+000	-6.47912E-006	-5.39641E-002	7.29950E-002	3.57160E+000	9	...........
	148	1.98667	6.94623E-002	-8.87790E-005	0.00000E+000	-6.16679E-006	-5.39641E-002	6.94492E-002	3.57160E+000	9	...........
	149	2	6.59240E-002	-8.82487E-005	0.00000E+000	-5.81771E-006	-5.39641E-002	6.59140E-002	3.57160E+000	9	...........
	150	2.01333	6.23822E-002	-8.85373E-005	0.00000E+000	-5.52316E-006	-5.39641E-002	6.23681E-002	3.57160E+000	9	...........
	151	2.02667	5.88561E-002	-8.88041E-005	0.00000E+000	-5.22666E-006	-5.39641E-002	5.88473E-002	3.57160E+000	9	...........
	152	2.04	5.53614E-002	-8.88155E-005	0.00000E+000	-4.91695E-006	-5.39641E-002	5.53539E-002	3.57160E+000	9	...........
	153	2.05333	5.18774E-002	-8.87530E-005	0.00000E+000	-4.60428E-006	-5.39641E-002	5.18752E-002	3.57160E+000	9	...........
	154	2.06667	4.84279E-002	-8.86665E-005	0.00000E+000	-4.29393E-006	-5.39641E-002	4.84314E-002	3.57160E+000	9	...........
	155	2.08	4.49964E-002	-8.89833E-005	0.00000E+000	-4.00392E-006	-5.39641E-002	4.49998E-002	3.57160E+000	9	...........
	156	2.09333	4.15692E-002	-8.86988E-005	0.00000E+000	-3.68714E-006	-5.39641E-002	4.15723E-002	3.57160E+000	9	...........
	157	2.10667	3.81660E-002	-8.87155E-005	0.00000E+000	-3.38591E-006	-5.39641E-002	3.81703E-002	3.57160E+000	9	...........
	158	2.12	3.47762E-002	-8.88322E-005	0.00000E+000	-3.08924E-006	-5.39641E-002	3.47758E-002	3.57160E+000	9	...........
	159	2.13333	3.13951E-002	-8.88624E-005	0.00000E+000	-2.78984E-006	-5.39641E-002	3.13934E-002	3.57160E+000	9	...........
	160	2.14667	2.80321E-002	-8.87572E-005	0.00000E+000	-2.48805E-006	-5.39641E-002	2.80295E-002	3.57160E+000	9	...........
	161	2.16	2.46879E-002	-8.85352E-005	0.00000E+000	-2.18575E-006	-5.39641E-002	2.46888E-002	3.57160E+000	9	...........
	162	2.17333	2.13705E-002	-8.86957E-005	0.00000E+000	-1.89547E-006	-5.39641E-002	2.13686E-002	3.57160E+000	9	...........
	163	2.18667	1.80825E-002	-8.85175E-005	0.00000E+000	-1.60062E-006	-5.39641E-002	1.80775E-002	3.57160E+000	9	...........
	164	2.2	1.47963E-002	-8.84321E-005	0.00000E+000	-1.30846E-006	-5.39641E-002	1.47920E-002	3.57160E+000	9	...........
	165	2.21333	1.15443E-002	-8.84540E-005	0.00000E+000	-1.02114E-006	-5.39641E-002	1.15357E-002	3.57160E+000	9	...........
	166	2.22667	8.31042E-003	-8.87124E-005	0.00000E+000	-7.37237E-007	-5.39641E-002	8.30320E-003	3.57160E+000	9	...........
	167	2.24	5.09250E-003	-8.83727E-005	0.00000E+000	-4.50038E-007	-5.39641E-002	5.07994E-003	3.57160E+000	9	...........
	168	2.25333	1.89089E-003	-8.87103E-005	0.00000E+000	-1.67741E-007	-5.39641E-002	1.87959E-003	3.57160E+000	9	...........
	169	2.25667	-9.91937E-005	-8.85207E-005	0.00000E+000	8.78069E-009	-5.39641E-002	-1.13519E-004	3.57160E+000	9	...........
STARTTIMEOFFSET	QUANT	264.24	Start Time Offset (s)
