EXPLAIN
TAG	PWR800_DISCHARGE
TITLE	LABEL	PWR Cyclic Charge Discharge (Cell) - Discharge Step	Test &Identifier
DATE	LABEL	10-7-2017	Date
TIME	LABEL	15:59:56	Time
NOTES	NOTES	3	&Notes...
	supercap test cell
	0.9mg
	6M KOH
PSTAT	PSTAT	IFC5000-01520	Potentiostat
CAPACITY	QUANT	1.00000E-003	Capacity (A-hr)
CELLTYPE	SELECTOR	1	&Cell Type
WORKINGCONNECTION	SELECTOR	0	&Working Lead
MAXDISCHARGETIME	VARIABLEANDUNITS	1.00000E+002	s	1.00000E+002	second(s)	Max &Discharge Time
DISCHARGEMODE	MULTIPARAM	0	9.00000E-005	&Discharge Mode	Constant Current	Amp(s)
SAMPLETIME	QUANT	1.00000E-002	Sa&mple Period (s)
DISCHARGESTOPAT1	MULTIPARAM	3	0.00000E+000	Discharge Stop At &1	Voltage < Limit	V
DISCHARGESTOPAT2	MULTIPARAM	0	0.00000E+000	Discharge Stop At &2	None	N/A
AESBHCSELECTOR	TOGGLE	F	Save Both Half Cells
IRCOMP	TOGGLE	F	IR &Measure
EOC	QUANT	0	Open Circuit (V)
SEQUENCER	TOGGLE	TRUE	Run as Sequence
PSTATMODEL	IQUANT	53	Pstat Model
PSTATSECTION	LABEL	IFC5000-01520	Pstat Section
PSTATSERIALNO	LABEL	01520	Pstat Serial Number
CTRLMODE	IQUANT	0	Control Mode
ELECTROMETER	IQUANT	1	RE=0 or CS=1
IESTAB	IQUANT	0	I/E Stability
CASPEED	IQUANT	4	Control Amp Speed
CONVENTION	IQUANT	1	Current Convention
ICHRANGE	IQUANT	2	Ich Range
ICHRANGEMODE	TOGGLE	T	Ich Auto Range
ICHOFFSETENABLE	TOGGLE	F	Ich Offset Enable
ICHOFFSET	QUANT	0	Ich Offset (V)
ICHFILTER	IQUANT	1	Ich Filter
VCHRANGE	IQUANT	2	Vch Range
VCHRANGEMODE	TOGGLE	T	Vch Auto Range
VCHOFFSETENABLE	TOGGLE	F	Vch Offset Enable
VCHOFFSET	QUANT	0	Vch Offset (V)
VCHFILTER	IQUANT	1	Vch Filter
IERANGELOWERLIMIT	IQUANT	9	I/E Range Lower Limit
IERANGEMODE	TOGGLE	F	I/E AutoRange
IERANGE	IQUANT	9	I/E Range
ACHSELECT	IQUANT	1	Ach Select
ACHRANGE	IQUANT	2	Ach Range
ACHOFFSETENABLE	TOGGLE	F	Ach Offset Enable
ACHOFFSET	QUANT	0	Ach Offset (V)
ACHFILTER	IQUANT	1	Ach Filter
CABLEID	IQUANT	14	Cable ID
DCCALDATE	LABEL	5-7-2017	DC Calibration Date
ACCALDATE	LABEL	12/3/2015	AC Calibration Date
FRAMEWORKVERSION	QUANT	7.01	Framework Version
INSTRUMENTVERSION	LABEL	4.00	Instrument Version
CURVE	TABLE	149
	Pt	T	Vf	Im	Vu	Pwr	Sig	Ach	Temp	IERange	Over
	#	s	V	A	V	W	V	V	deg C	#	bits
	0	0.013333	8.05004E-001	-8.87780E-005	0.00000E+000	-7.14666E-005	-5.39641E-002	8.05193E-001	3.57280E+000	9	...........
	1	0.026667	7.91018E-001	-8.87040E-005	0.00000E+000	-7.01664E-005	-5.39641E-002	7.91137E-001	3.57280E+000	9	...........
	2	0.04	7.77956E-001	-8.86519E-005	0.00000E+000	-6.89673E-005	-5.39641E-002	7.78087E-001	3.57280E+000	9	...........
	3	0.053333	7.65633E-001	-8.88405E-005	0.00000E+000	-6.80192E-005	-5.39641E-002	7.65759E-001	3.57280E+000	9	...........
	4	0.066667	7.53961E-001	-8.85019E-005	0.00000E+000	-6.67270E-005	-5.39641E-002	7.54084E-001	3.57280E+000	9	...........
	5	0.08	7.42803E-001	-8.87259E-005	0.00000E+000	-6.59059E-005	-5.39641E-002	7.42919E-001	3.57280E+000	9	...........
	6	0.093333	7.32057E-001	-8.86905E-005	0.00000E+000	-6.49265E-005	-5.39641E-002	7.32169E-001	3.57280E+000	9	...........
	7	0.106667	7.21771E-001	-8.88207E-005	0.00000E+000	-6.41082E-005	-5.39641E-002	7.21869E-001	3.57280E+000	9	...........
	8	0.12	7.11767E-001	-8.89708E-005	0.00000E+000	-6.33264E-005	-5.39641E-002	7.11899E-001	3.57280E+000	9	...........
	9	0.133333	7.02180E-001	-8.87061E-005	0.00000E+000	-6.22876E-005	-5.39641E-002	7.02289E-001	3.57280E+000	9	...........
	10	0.146667	6.92836E-001	-8.89239E-005	0.00000E+000	-6.16097E-005	-5.39641E-002	6.92957E-001	3.57280E+000	9	...........
	11	0.16	6.83810E-001	-8.88916E-005	0.00000E+000	-6.07850E-005	-5.39641E-002	6.83900E-001	3.57280E+000	9	...........
	12	0.173333	6.75027E-001	-8.88176E-005	0.00000E+000	-5.99543E-005	-5.39641E-002	6.75119E-001	3.57280E+000	9	...........
	13	0.186667	6.66449E-001	-8.89405E-005	0.00000E+000	-5.92743E-005	-5.39641E-002	6.66554E-001	3.57280E+000	9	...........
	14	0.2	6.58102E-001	-8.88103E-005	0.00000E+000	-5.84463E-005	-5.39641E-002	6.58202E-001	3.57280E+000	9	...........
	15	0.213333	6.49953E-001	-8.88082E-005	0.00000E+000	-5.77212E-005	-5.39641E-002	6.50081E-001	3.57280E+000	9	...........
	16	0.226667	6.42029E-001	-8.85675E-005	0.00000E+000	-5.68629E-005	-5.39641E-002	6.42131E-001	3.57280E+000	9	...........
	17	0.24	6.34205E-001	-8.85727E-005	0.00000E+000	-5.61732E-005	-5.39641E-002	6.34344E-001	3.57280E+000	9	...........
	18	0.253333	6.26609E-001	-8.88478E-005	0.00000E+000	-5.56729E-005	-5.39641E-002	6.26709E-001	3.57280E+000	9	...........
	19	0.266667	6.19159E-001	-8.88416E-005	0.00000E+000	-5.50071E-005	-5.39641E-002	6.19258E-001	3.57280E+000	9	...........
	20	0.28	6.11779E-001	-8.88707E-005	0.00000E+000	-5.43692E-005	-5.39641E-002	6.11922E-001	3.57280E+000	9	...........
	21	0.293333	6.04574E-001	-8.88364E-005	0.00000E+000	-5.37081E-005	-5.39641E-002	6.04703E-001	3.57280E+000	9	...........
	22	0.306667	5.97526E-001	-8.87759E-005	0.00000E+000	-5.30459E-005	-5.39641E-002	5.97633E-001	3.57280E+000	9	...........
	23	0.32	5.90562E-001	-8.87624E-005	0.00000E+000	-5.24197E-005	-5.39641E-002	5.90697E-001	3.57276E+000	9	...........
	24	0.333333	5.83712E-001	-8.87801E-005	0.00000E+000	-5.18220E-005	-5.39641E-002	5.83855E-001	3.57270E+000	9	...........
	25	0.346667	5.77002E-001	-8.88749E-005	0.00000E+000	-5.12810E-005	-5.39641E-002	5.77138E-001	3.57270E+000	9	...........
	26	0.36	5.70386E-001	-8.88280E-005	0.00000E+000	-5.06663E-005	-5.39641E-002	5.70530E-001	3.57270E+000	9	...........
	27	0.373333	5.63885E-001	-8.90604E-005	0.00000E+000	-5.02198E-005	-5.39641E-002	5.63999E-001	3.57270E+000	9	...........
	28	0.386667	5.57419E-001	-8.90010E-005	0.00000E+000	-4.96108E-005	-5.39641E-002	5.57546E-001	3.57270E+000	9	...........
	29	0.4	5.51089E-001	-8.86040E-005	0.00000E+000	-4.88287E-005	-5.39641E-002	5.51227E-001	3.57270E+000	9	...........
	30	0.413333	5.44828E-001	-8.86373E-005	0.00000E+000	-4.82921E-005	-5.39641E-002	5.44951E-001	3.57270E+000	9	...........
	31	0.426667	5.38654E-001	-8.87499E-005	0.00000E+000	-4.78055E-005	-5.39641E-002	5.38782E-001	3.57270E+000	9	...........
	32	0.44	5.32566E-001	-8.85248E-005	0.00000E+000	-4.71453E-005	-5.39641E-002	5.32664E-001	3.57270E+000	9	...........
	33	0.453333	5.26541E-001	-8.89343E-005	0.00000E+000	-4.68276E-005	-5.39641E-002	5.26627E-001	3.57270E+000	9	...........
	34	0.466667	5.20574E-001	-8.88936E-005	0.00000E+000	-4.62757E-005	-5.39641E-002	5.20635E-001	3.57270E+000	9	...........
	35	0.48	5.14655E-001	-8.87009E-005	0.00000E+000	-4.56504E-005	-5.39641E-002	5.14714E-001	3.57270E+000	9	...........
	36	0.493333	5.08767E-001	-8.90708E-005	0.00000E+000	-4.53163E-005	-5.39641E-002	5.08858E-001	3.57270E+000	9	...........
	37	0.506667	5.02985E-001	-8.88603E-005	0.00000E+000	-4.46954E-005	-5.39641E-002	5.03078E-001	3.57270E+000	9	...........
	38	0.52	4.97268E-001	-8.86936E-005	0.00000E+000	-4.41045E-005	-5.39641E-002	4.97369E-001	3.57270E+000	9	...........
	39	0.533333	4.91611E-001	-8.87124E-005	0.00000E+000	-4.36119E-005	-5.39641E-002	4.91704E-001	3.57270E+000	9	...........
	40	0.546667	4.86024E-001	-8.88134E-005	0.00000E+000	-4.31654E-005	-5.39641E-002	4.86099E-001	3.57270E+000	9	...........
	41	0.56	4.80518E-001	-8.87374E-005	0.00000E+000	-4.26399E-005	-5.39641E-002	4.80581E-001	3.57270E+000	9	...........
	42	0.573333	4.74979E-001	-8.88124E-005	0.00000E+000	-4.21840E-005	-5.39641E-002	4.75042E-001	3.57270E+000	9	...........
	43	0.586667	4.69466E-001	-8.87728E-005	0.00000E+000	-4.16758E-005	-5.39641E-002	4.69532E-001	3.57270E+000	9	...........
	44	0.6	4.63998E-001	-8.87811E-005	0.00000E+000	-4.11942E-005	-5.39641E-002	4.64057E-001	3.57270E+000	9	...........
	45	0.613333	4.58585E-001	-8.87103E-005	0.00000E+000	-4.06812E-005	-5.39641E-002	4.58652E-001	3.57270E+000	9	...........
	46	0.626667	4.53186E-001	-8.86144E-005	0.00000E+000	-4.01588E-005	-5.39641E-002	4.53249E-001	3.57270E+000	9	...........
	47	0.64	4.47809E-001	-8.85134E-005	0.00000E+000	-3.96371E-005	-5.39641E-002	4.47877E-001	3.57270E+000	9	...........
	48	0.653333	4.42469E-001	-8.87009E-005	0.00000E+000	-3.92474E-005	-5.39641E-002	4.42530E-001	3.57270E+000	9	...........
	49	0.666667	4.37165E-001	-8.88291E-005	0.00000E+000	-3.88329E-005	-5.39641E-002	4.37228E-001	3.57270E+000	9	...........
	50	0.68	4.31896E-001	-8.86342E-005	0.00000E+000	-3.82807E-005	-5.39641E-002	4.31956E-001	3.57270E+000	9	...........
	51	0.693333	4.26658E-001	-8.89197E-005	0.00000E+000	-3.79383E-005	-5.39641E-002	4.26714E-001	3.57270E+000	9	...........
	52	0.706667	4.21438E-001	-8.88926E-005	0.00000E+000	-3.74627E-005	-5.39641E-002	4.21492E-001	3.57270E+000	9	...........
	53	0.72	4.16236E-001	-8.88686E-005	0.00000E+000	-3.69903E-005	-5.39641E-002	4.16292E-001	3.57270E+000	9	...........
	54	0.733333	4.11073E-001	-8.86790E-005	0.00000E+000	-3.64536E-005	-5.39641E-002	4.11124E-001	3.57270E+000	9	...........
	55	0.746667	4.05937E-001	-8.86269E-005	0.00000E+000	-3.59770E-005	-5.39641E-002	4.05992E-001	3.57270E+000	9	...........
	56	0.76	4.00816E-001	-8.87926E-005	0.00000E+000	-3.55895E-005	-5.39641E-002	4.00864E-001	3.57270E+000	9	...........
	57	0.773333	3.95701E-001	-8.88030E-005	0.00000E+000	-3.51394E-005	-5.39641E-002	3.95752E-001	3.57270E+000	9	...........
	58	0.786667	3.90594E-001	-8.87457E-005	0.00000E+000	-3.46635E-005	-5.39641E-002	3.90644E-001	3.57270E+000	9	...........
	59	0.8	3.85510E-001	-8.88384E-005	0.00000E+000	-3.42481E-005	-5.39641E-002	3.85563E-001	3.57270E+000	9	...........
	60	0.813333	3.80439E-001	-8.86655E-005	0.00000E+000	-3.37318E-005	-5.39641E-002	3.80493E-001	3.57270E+000	9	...........
	61	0.826667	3.75393E-001	-8.87634E-005	0.00000E+000	-3.33211E-005	-5.39641E-002	3.75438E-001	3.57270E+000	9	...........
	62	0.84	3.70350E-001	-8.87926E-005	0.00000E+000	-3.28843E-005	-5.39641E-002	3.70394E-001	3.57270E+000	9	...........
	63	0.853333	3.65330E-001	-8.87863E-005	0.00000E+000	-3.24363E-005	-5.39641E-002	3.65378E-001	3.57270E+000	9	...........
	64	0.866667	3.60342E-001	-8.89551E-005	0.00000E+000	-3.20542E-005	-5.39641E-002	3.60387E-001	3.57270E+000	9	...........
	65	0.88	3.55357E-001	-8.87249E-005	0.00000E+000	-3.15290E-005	-5.39641E-002	3.55398E-001	3.57270E+000	9	...........
	66	0.893333	3.50393E-001	-8.87905E-005	0.00000E+000	-3.11115E-005	-5.39641E-002	3.50430E-001	3.57270E+000	9	...........
	67	0.906667	3.45432E-001	-8.87655E-005	0.00000E+000	-3.06624E-005	-5.39641E-002	3.45476E-001	3.57270E+000	9	...........
	68	0.92	3.40473E-001	-8.89114E-005	0.00000E+000	-3.02719E-005	-5.39641E-002	3.40513E-001	3.57270E+000	9	...........
	69	0.933333	3.35546E-001	-8.86936E-005	0.00000E+000	-2.97608E-005	-5.39641E-002	3.35582E-001	3.57270E+000	9	...........
	70	0.946667	3.30632E-001	-8.86749E-005	0.00000E+000	-2.93187E-005	-5.39641E-002	3.30673E-001	3.57270E+000	9	...........
	71	0.96	3.25722E-001	-8.88864E-005	0.00000E+000	-2.89523E-005	-5.39641E-002	3.25762E-001	3.57270E+000	9	...........
	72	0.97333	3.20834E-001	-8.86707E-005	0.00000E+000	-2.84486E-005	-5.39641E-002	3.20871E-001	3.57270E+000	9	...........
	73	0.98667	3.15955E-001	-8.88353E-005	0.00000E+000	-2.80679E-005	-5.39641E-002	3.15993E-001	3.57270E+000	9	...........
	74	1	3.11085E-001	-8.88759E-005	0.00000E+000	-2.76480E-005	-5.39641E-002	3.11118E-001	3.57270E+000	9	...........
	75	1.01333	3.06228E-001	-8.90551E-005	0.00000E+000	-2.72712E-005	-5.39641E-002	3.06267E-001	3.57270E+000	9	...........
	76	1.02667	3.01401E-001	-8.86092E-005	0.00000E+000	-2.67069E-005	-5.39641E-002	3.01434E-001	3.57270E+000	9	...........
	77	1.04	2.96583E-001	-8.87540E-005	0.00000E+000	-2.63230E-005	-5.39641E-002	2.96616E-001	3.57270E+000	9	...........
	78	1.05333	2.91786E-001	-8.88655E-005	0.00000E+000	-2.59297E-005	-5.39641E-002	2.91816E-001	3.57270E+000	9	...........
	79	1.06667	2.86999E-001	-8.87717E-005	0.00000E+000	-2.54774E-005	-5.39641E-002	2.87032E-001	3.57270E+000	9	...........
	80	1.08	2.82219E-001	-8.86780E-005	0.00000E+000	-2.50266E-005	-5.39641E-002	2.82254E-001	3.57270E+000	9	...........
	81	1.09333	2.77450E-001	-8.89249E-005	0.00000E+000	-2.46722E-005	-5.39641E-002	2.77483E-001	3.57270E+000	9	...........
	82	1.10667	2.72693E-001	-8.85321E-005	0.00000E+000	-2.41421E-005	-5.39641E-002	2.72730E-001	3.57270E+000	9	...........
	83	1.12	2.67966E-001	-8.85582E-005	0.00000E+000	-2.37305E-005	-5.39641E-002	2.68000E-001	3.57270E+000	9	...........
	84	1.13333	2.63242E-001	-8.87280E-005	0.00000E+000	-2.33570E-005	-5.39641E-002	2.63284E-001	3.57270E+000	9	...........
	85	1.14667	2.58545E-001	-8.87530E-005	0.00000E+000	-2.29467E-005	-5.39641E-002	2.58581E-001	3.57270E+000	9	...........
	86	1.16	2.53866E-001	-8.87592E-005	0.00000E+000	-2.25329E-005	-5.39641E-002	2.53901E-001	3.57270E+000	9	...........
	87	1.17333	2.49201E-001	-8.90499E-005	0.00000E+000	-2.21914E-005	-5.39641E-002	2.49237E-001	3.57270E+000	9	...........
	88	1.18667	2.44556E-001	-8.87603E-005	0.00000E+000	-2.17069E-005	-5.39641E-002	2.44582E-001	3.57270E+000	9	...........
	89	1.2	2.39920E-001	-8.87749E-005	0.00000E+000	-2.12988E-005	-5.39641E-002	2.39946E-001	3.57270E+000	9	...........
	90	1.21333	2.35297E-001	-8.88093E-005	0.00000E+000	-2.08966E-005	-5.39641E-002	2.35321E-001	3.57270E+000	9	...........
	91	1.22667	2.30691E-001	-8.86832E-005	0.00000E+000	-2.04584E-005	-5.39641E-002	2.30712E-001	3.57270E+000	9	...........
	92	1.24	2.26108E-001	-8.88207E-005	0.00000E+000	-2.00831E-005	-5.39641E-002	2.26133E-001	3.57270E+000	9	...........
	93	1.25333	2.21541E-001	-8.86780E-005	0.00000E+000	-1.96458E-005	-5.39641E-002	2.21571E-001	3.57270E+000	9	...........
	94	1.26667	2.16998E-001	-8.89478E-005	0.00000E+000	-1.93015E-005	-5.39641E-002	2.17027E-001	3.57270E+000	9	...........
	95	1.28	2.12470E-001	-8.86842E-005	0.00000E+000	-1.88427E-005	-5.39641E-002	2.12492E-001	3.57270E+000	9	...........
	96	1.29333	2.07957E-001	-8.87270E-005	0.00000E+000	-1.84514E-005	-5.39641E-002	2.07979E-001	3.57270E+000	9	...........
	97	1.30667	2.03460E-001	-8.89541E-005	0.00000E+000	-1.80986E-005	-5.39641E-002	2.03489E-001	3.57270E+000	9	...........
	98	1.32	1.98984E-001	-8.89666E-005	0.00000E+000	-1.77029E-005	-5.39641E-002	1.99011E-001	3.57285E+000	9	...........
	99	1.33333	1.94533E-001	-8.87217E-005	0.00000E+000	-1.72593E-005	-5.39641E-002	1.94548E-001	3.57310E+000	9	...........
	100	1.34667	1.90089E-001	-8.85592E-005	0.00000E+000	-1.68341E-005	-5.39641E-002	1.90116E-001	3.57310E+000	9	...........
	101	1.36	1.85675E-001	-8.89051E-005	0.00000E+000	-1.65074E-005	-5.39641E-002	1.85695E-001	3.57310E+000	9	...........
	102	1.37333	1.81271E-001	-8.88947E-005	0.00000E+000	-1.61140E-005	-5.39641E-002	1.81300E-001	3.57310E+000	9	...........
	103	1.38667	1.76893E-001	-8.89520E-005	0.00000E+000	-1.57350E-005	-5.39641E-002	1.76912E-001	3.57310E+000	9	...........
	104	1.4	1.72520E-001	-8.88363E-005	0.00000E+000	-1.53260E-005	-5.39641E-002	1.72540E-001	3.57310E+000	9	...........
	105	1.41333	1.68167E-001	-8.89416E-005	0.00000E+000	-1.49571E-005	-5.39641E-002	1.68191E-001	3.57310E+000	9	...........
	106	1.42667	1.63844E-001	-8.91468E-005	0.00000E+000	-1.46062E-005	-5.39641E-002	1.63861E-001	3.57310E+000	9	...........
	107	1.44	1.59535E-001	-8.86384E-005	0.00000E+000	-1.41409E-005	-5.39641E-002	1.59560E-001	3.57310E+000	9	...........
	108	1.45333	1.55247E-001	-8.89822E-005	0.00000E+000	-1.38142E-005	-5.39641E-002	1.55264E-001	3.57310E+000	9	...........
	109	1.46667	1.50978E-001	-8.87217E-005	0.00000E+000	-1.33950E-005	-5.39641E-002	1.50996E-001	3.57310E+000	9	...........
	110	1.48	1.46726E-001	-8.88374E-005	0.00000E+000	-1.30347E-005	-5.39641E-002	1.46737E-001	3.57310E+000	9	...........
	111	1.49333	1.42482E-001	-8.86988E-005	0.00000E+000	-1.26380E-005	-5.39641E-002	1.42492E-001	3.57310E+000	9	...........
	112	1.50667	1.38273E-001	-8.86926E-005	0.00000E+000	-1.22637E-005	-5.39641E-002	1.38289E-001	3.57310E+000	9	...........
	113	1.52	1.34086E-001	-8.87843E-005	0.00000E+000	-1.19047E-005	-5.39641E-002	1.34090E-001	3.57310E+000	9	...........
	114	1.53333	1.29902E-001	-8.88478E-005	0.00000E+000	-1.15415E-005	-5.39641E-002	1.29917E-001	3.57310E+000	9	...........
	115	1.54667	1.25755E-001	-8.87613E-005	0.00000E+000	-1.11622E-005	-5.39641E-002	1.25765E-001	3.57310E+000	9	...........
	116	1.56	1.21668E-001	-8.90468E-005	0.00000E+000	-1.08341E-005	-5.39641E-002	1.21674E-001	3.57310E+000	9	...........
	117	1.57333	1.17574E-001	-8.85894E-005	0.00000E+000	-1.04159E-005	-5.39641E-002	1.17584E-001	3.57310E+000	9	...........
	118	1.58667	1.13491E-001	-8.88655E-005	0.00000E+000	-1.00855E-005	-5.39641E-002	1.13503E-001	3.57310E+000	9	...........
	119	1.6	1.09430E-001	-8.86071E-005	0.00000E+000	-9.69624E-006	-5.39641E-002	1.09441E-001	3.57310E+000	9	...........
	120	1.61333	1.05385E-001	-8.88895E-005	0.00000E+000	-9.36759E-006	-5.39641E-002	1.05393E-001	3.57310E+000	9	...........
	121	1.62667	1.01364E-001	-8.88082E-005	0.00000E+000	-9.00195E-006	-5.39641E-002	1.01375E-001	3.57310E+000	9	...........
	122	1.64	9.73552E-002	-8.86947E-005	0.00000E+000	-8.63488E-006	-5.39641E-002	9.73624E-002	3.57310E+000	9	...........
	123	1.65333	9.33574E-002	-8.89051E-005	0.00000E+000	-8.29995E-006	-5.39641E-002	9.33639E-002	3.57310E+000	9	...........
	124	1.66667	8.93758E-002	-8.86551E-005	0.00000E+000	-7.92362E-006	-5.39641E-002	8.93832E-002	3.57310E+000	9	...........
	125	1.68	8.54140E-002	-8.87426E-005	0.00000E+000	-7.57986E-006	-5.39641E-002	8.54304E-002	3.57310E+000	9	...........
	126	1.69333	8.14819E-002	-8.86186E-005	0.00000E+000	-7.22081E-006	-5.39641E-002	8.14853E-002	3.57310E+000	9	...........
	127	1.70667	7.75681E-002	-8.87572E-005	0.00000E+000	-6.88472E-006	-5.39641E-002	7.75690E-002	3.57310E+000	9	...........
	128	1.72	7.36692E-002	-8.87968E-005	0.00000E+000	-6.54159E-006	-5.39641E-002	7.36700E-002	3.57310E+000	9	...........
	129	1.73333	6.97902E-002	-8.86165E-005	0.00000E+000	-6.18457E-006	-5.39641E-002	6.97917E-002	3.57310E+000	9	...........
	130	1.74667	6.59294E-002	-8.87072E-005	0.00000E+000	-5.84841E-006	-5.39641E-002	6.59345E-002	3.57310E+000	9	...........
	131	1.76	6.20857E-002	-8.87249E-005	0.00000E+000	-5.50854E-006	-5.39641E-002	6.20834E-002	3.57310E+000	9	...........
	132	1.77333	5.82333E-002	-8.87874E-005	0.00000E+000	-5.17038E-006	-5.39641E-002	5.82339E-002	3.57310E+000	9	...........
	133	1.78667	5.43956E-002	-8.89374E-005	0.00000E+000	-4.83780E-006	-5.39641E-002	5.43920E-002	3.57310E+000	9	...........
	134	1.8	5.05825E-002	-8.88686E-005	0.00000E+000	-4.49520E-006	-5.39641E-002	5.05829E-002	3.57310E+000	9	...........
	135	1.81333	4.68106E-002	-8.87301E-005	0.00000E+000	-4.15351E-006	-5.39641E-002	4.68158E-002	3.57310E+000	9	...........
	136	1.82667	4.30350E-002	-8.87801E-005	0.00000E+000	-3.82065E-006	-5.39641E-002	4.30422E-002	3.57310E+000	9	...........
	137	1.84	3.92686E-002	-8.88311E-005	0.00000E+000	-3.48827E-006	-5.39641E-002	3.92778E-002	3.57310E+000	9	...........
	138	1.85333	3.55331E-002	-8.87572E-005	0.00000E+000	-3.15382E-006	-5.39641E-002	3.55357E-002	3.57310E+000	9	...........
	139	1.86667	3.18134E-002	-8.86363E-005	0.00000E+000	-2.81982E-006	-5.39641E-002	3.18136E-002	3.57310E+000	9	...........
	140	1.88	2.81210E-002	-8.89447E-005	0.00000E+000	-2.50121E-006	-5.39641E-002	2.81216E-002	3.57310E+000	9	...........
	141	1.89333	2.44658E-002	-8.86196E-005	0.00000E+000	-2.16815E-006	-5.39641E-002	2.44585E-002	3.57310E+000	9	...........
	142	1.90667	2.08092E-002	-8.89270E-005	0.00000E+000	-1.85050E-006	-5.39641E-002	2.08029E-002	3.57310E+000	9	...........
	143	1.92	1.71685E-002	-8.89958E-005	0.00000E+000	-1.52792E-006	-5.39641E-002	1.71641E-002	3.57310E+000	9	...........
	144	1.93333	1.35472E-002	-8.87124E-005	0.00000E+000	-1.20181E-006	-5.39641E-002	1.35392E-002	3.57310E+000	9	...........
	145	1.94667	9.93393E-003	-8.87884E-005	0.00000E+000	-8.82018E-007	-5.39641E-002	9.92301E-003	3.57310E+000	9	...........
	146	1.96	6.32798E-003	-8.87801E-005	0.00000E+000	-5.61798E-007	-5.39641E-002	6.31540E-003	3.57310E+000	9	...........
	147	1.97333	2.74543E-003	-8.87999E-005	0.00000E+000	-2.43794E-007	-5.39641E-002	2.72842E-003	3.57310E+000	9	...........
	148	1.97833	2.83578E-004	-8.90277E-005	0.00000E+000	-2.52463E-008	-5.39641E-002	2.68200E-004	3.57310E+000	9	...........
STARTTIMEOFFSET	QUANT	3063.253	Start Time Offset (s)
