EXPLAIN
TAG	PWR800_DISCHARGE
TITLE	LABEL	PWR Cyclic Charge Discharge (Cell) - Discharge Step	Test &Identifier
DATE	LABEL	10-7-2017	Date
TIME	LABEL	16:24:26	Time
NOTES	NOTES	3	&Notes...
	supercap test cell
	0.9mg
	6M KOH
PSTAT	PSTAT	IFC5000-01520	Potentiostat
CAPACITY	QUANT	1.00000E-003	Capacity (A-hr)
CELLTYPE	SELECTOR	1	&Cell Type
WORKINGCONNECTION	SELECTOR	0	&Working Lead
MAXDISCHARGETIME	VARIABLEANDUNITS	1.00000E+002	s	1.00000E+002	second(s)	Max &Discharge Time
DISCHARGEMODE	MULTIPARAM	0	9.00000E-005	&Discharge Mode	Constant Current	Amp(s)
SAMPLETIME	QUANT	1.00000E-002	Sa&mple Period (s)
DISCHARGESTOPAT1	MULTIPARAM	3	0.00000E+000	Discharge Stop At &1	Voltage < Limit	V
DISCHARGESTOPAT2	MULTIPARAM	0	0.00000E+000	Discharge Stop At &2	None	N/A
AESBHCSELECTOR	TOGGLE	F	Save Both Half Cells
IRCOMP	TOGGLE	F	IR &Measure
EOC	QUANT	0	Open Circuit (V)
SEQUENCER	TOGGLE	TRUE	Run as Sequence
PSTATMODEL	IQUANT	53	Pstat Model
PSTATSECTION	LABEL	IFC5000-01520	Pstat Section
PSTATSERIALNO	LABEL	01520	Pstat Serial Number
CTRLMODE	IQUANT	0	Control Mode
ELECTROMETER	IQUANT	1	RE=0 or CS=1
IESTAB	IQUANT	0	I/E Stability
CASPEED	IQUANT	4	Control Amp Speed
CONVENTION	IQUANT	1	Current Convention
ICHRANGE	IQUANT	2	Ich Range
ICHRANGEMODE	TOGGLE	T	Ich Auto Range
ICHOFFSETENABLE	TOGGLE	F	Ich Offset Enable
ICHOFFSET	QUANT	0	Ich Offset (V)
ICHFILTER	IQUANT	1	Ich Filter
VCHRANGE	IQUANT	2	Vch Range
VCHRANGEMODE	TOGGLE	T	Vch Auto Range
VCHOFFSETENABLE	TOGGLE	F	Vch Offset Enable
VCHOFFSET	QUANT	0	Vch Offset (V)
VCHFILTER	IQUANT	1	Vch Filter
IERANGELOWERLIMIT	IQUANT	9	I/E Range Lower Limit
IERANGEMODE	TOGGLE	F	I/E AutoRange
IERANGE	IQUANT	9	I/E Range
ACHSELECT	IQUANT	1	Ach Select
ACHRANGE	IQUANT	2	Ach Range
ACHOFFSETENABLE	TOGGLE	F	Ach Offset Enable
ACHOFFSET	QUANT	0	Ach Offset (V)
ACHFILTER	IQUANT	1	Ach Filter
CABLEID	IQUANT	14	Cable ID
DCCALDATE	LABEL	5-7-2017	DC Calibration Date
ACCALDATE	LABEL	12/3/2015	AC Calibration Date
FRAMEWORKVERSION	QUANT	7.01	Framework Version
INSTRUMENTVERSION	LABEL	4.00	Instrument Version
CURVE	TABLE	146
	Pt	T	Vf	Im	Vu	Pwr	Sig	Ach	Temp	IERange	Over
	#	s	V	A	V	W	V	V	deg C	#	bits
	0	0.013333	8.00161E-001	-8.88436E-005	0.00000E+000	-7.10892E-005	-5.39641E-002	8.00292E-001	3.57370E+000	9	...........
	1	0.026667	7.85701E-001	-8.87228E-005	0.00000E+000	-6.97095E-005	-5.39641E-002	7.85824E-001	3.57370E+000	9	...........
	2	0.04	7.72219E-001	-8.87165E-005	0.00000E+000	-6.85086E-005	-5.39641E-002	7.72359E-001	3.57370E+000	9	...........
	3	0.053333	7.59541E-001	-8.86853E-005	0.00000E+000	-6.73601E-005	-5.39641E-002	7.59667E-001	3.57370E+000	9	...........
	4	0.066667	7.47523E-001	-8.87103E-005	0.00000E+000	-6.63129E-005	-5.39641E-002	7.47640E-001	3.57370E+000	9	...........
	5	0.08	7.36018E-001	-8.88343E-005	0.00000E+000	-6.53837E-005	-5.39641E-002	7.36123E-001	3.57370E+000	9	...........
	6	0.093333	7.25028E-001	-8.86978E-005	0.00000E+000	-6.43084E-005	-5.39641E-002	7.25131E-001	3.57370E+000	9	...........
	7	0.106667	7.14442E-001	-8.89020E-005	0.00000E+000	-6.35153E-005	-5.39641E-002	7.14555E-001	3.57370E+000	9	...........
	8	0.12	7.04215E-001	-8.88603E-005	0.00000E+000	-6.25768E-005	-5.39641E-002	7.04353E-001	3.57320E+000	9	...........
	9	0.133333	6.94384E-001	-8.88343E-005	0.00000E+000	-6.16851E-005	-5.39641E-002	6.94524E-001	3.57290E+000	9	...........
	10	0.146667	6.84857E-001	-8.89374E-005	0.00000E+000	-6.09094E-005	-5.39641E-002	6.84998E-001	3.57290E+000	9	...........
	11	0.16	6.75616E-001	-8.86363E-005	0.00000E+000	-5.98841E-005	-5.39641E-002	6.75755E-001	3.57290E+000	9	...........
	12	0.173333	6.66652E-001	-8.86530E-005	0.00000E+000	-5.91006E-005	-5.39641E-002	6.66764E-001	3.57290E+000	9	...........
	13	0.186667	6.57892E-001	-8.88145E-005	0.00000E+000	-5.84303E-005	-5.39641E-002	6.58003E-001	3.57290E+000	9	...........
	14	0.2	6.49385E-001	-8.86790E-005	0.00000E+000	-5.75868E-005	-5.39641E-002	6.49489E-001	3.57290E+000	9	...........
	15	0.213333	6.41086E-001	-8.86519E-005	0.00000E+000	-5.68335E-005	-5.39641E-002	6.41224E-001	3.57290E+000	9	...........
	16	0.226667	6.32968E-001	-8.86353E-005	0.00000E+000	-5.61033E-005	-5.39641E-002	6.33088E-001	3.57290E+000	9	...........
	17	0.24	6.25087E-001	-8.88697E-005	0.00000E+000	-5.55513E-005	-5.39641E-002	6.25174E-001	3.57290E+000	9	...........
	18	0.253333	6.17381E-001	-8.88843E-005	0.00000E+000	-5.48755E-005	-5.39641E-002	6.17488E-001	3.57290E+000	9	...........
	19	0.266667	6.09729E-001	-8.86582E-005	0.00000E+000	-5.40575E-005	-5.39641E-002	6.09892E-001	3.57290E+000	9	...........
	20	0.28	6.02344E-001	-8.88822E-005	0.00000E+000	-5.35377E-005	-5.39641E-002	6.02473E-001	3.57290E+000	9	...........
	21	0.293333	5.95099E-001	-8.91229E-005	0.00000E+000	-5.30369E-005	-5.39641E-002	5.95225E-001	3.57290E+000	9	...........
	22	0.306667	5.87956E-001	-8.88614E-005	0.00000E+000	-5.22466E-005	-5.39641E-002	5.88073E-001	3.57290E+000	9	...........
	23	0.32	5.80914E-001	-8.87051E-005	0.00000E+000	-5.15300E-005	-5.39641E-002	5.81051E-001	3.57290E+000	9	...........
	24	0.333333	5.74045E-001	-8.88864E-005	0.00000E+000	-5.10248E-005	-5.39641E-002	5.74165E-001	3.57290E+000	9	...........
	25	0.346667	5.67297E-001	-8.85061E-005	0.00000E+000	-5.02093E-005	-5.39641E-002	5.67397E-001	3.57290E+000	9	...........
	26	0.36	5.60587E-001	-8.89822E-005	0.00000E+000	-4.98823E-005	-5.39641E-002	5.60697E-001	3.57290E+000	9	...........
	27	0.373333	5.54035E-001	-8.86853E-005	0.00000E+000	-4.91347E-005	-5.39641E-002	5.54149E-001	3.57290E+000	9	...........
	28	0.386667	5.47565E-001	-8.88655E-005	0.00000E+000	-4.86597E-005	-5.39641E-002	5.47676E-001	3.57290E+000	9	...........
	29	0.4	5.41204E-001	-8.87717E-005	0.00000E+000	-4.80436E-005	-5.39641E-002	5.41310E-001	3.57290E+000	9	...........
	30	0.413333	5.34902E-001	-8.85748E-005	0.00000E+000	-4.73788E-005	-5.39641E-002	5.34999E-001	3.57290E+000	9	...........
	31	0.426667	5.28666E-001	-8.84748E-005	0.00000E+000	-4.67736E-005	-5.39641E-002	5.28789E-001	3.57290E+000	9	...........
	32	0.44	5.22570E-001	-8.87863E-005	0.00000E+000	-4.63970E-005	-5.39641E-002	5.22671E-001	3.57290E+000	9	...........
	33	0.453333	5.16542E-001	-8.87988E-005	0.00000E+000	-4.58684E-005	-5.39641E-002	5.16632E-001	3.57290E+000	9	...........
	34	0.466667	5.10528E-001	-8.86686E-005	0.00000E+000	-4.52678E-005	-5.39641E-002	5.10635E-001	3.57290E+000	9	...........
	35	0.48	5.04608E-001	-8.89457E-005	0.00000E+000	-4.48827E-005	-5.39641E-002	5.04738E-001	3.57290E+000	9	...........
	36	0.493333	4.98789E-001	-8.89343E-005	0.00000E+000	-4.43595E-005	-5.39641E-002	4.98886E-001	3.57290E+000	9	...........
	37	0.506667	4.93000E-001	-8.87999E-005	0.00000E+000	-4.37783E-005	-5.39641E-002	4.93109E-001	3.57290E+000	9	...........
	38	0.52	4.87303E-001	-8.87947E-005	0.00000E+000	-4.32699E-005	-5.39641E-002	4.87378E-001	3.57290E+000	9	...........
	39	0.533333	4.81708E-001	-8.88916E-005	0.00000E+000	-4.28198E-005	-5.39641E-002	4.81771E-001	3.57290E+000	9	...........
	40	0.546667	4.76082E-001	-8.89416E-005	0.00000E+000	-4.23435E-005	-5.39641E-002	4.76154E-001	3.57290E+000	9	...........
	41	0.56	4.70519E-001	-8.86999E-005	0.00000E+000	-4.17349E-005	-5.39641E-002	4.70582E-001	3.57290E+000	9	...........
	42	0.573333	4.64991E-001	-8.87217E-005	0.00000E+000	-4.12548E-005	-5.39641E-002	4.65057E-001	3.57290E+000	9	...........
	43	0.586667	4.59500E-001	-8.89447E-005	0.00000E+000	-4.08701E-005	-5.39641E-002	4.59566E-001	3.57290E+000	9	...........
	44	0.6	4.54054E-001	-8.89655E-005	0.00000E+000	-4.03952E-005	-5.39641E-002	4.54112E-001	3.57290E+000	9	...........
	45	0.613333	4.48648E-001	-8.86071E-005	0.00000E+000	-3.97534E-005	-5.39641E-002	4.48715E-001	3.57290E+000	9	...........
	46	0.626667	4.43295E-001	-8.86978E-005	0.00000E+000	-3.93193E-005	-5.39641E-002	4.43354E-001	3.57290E+000	9	...........
	47	0.64	4.37938E-001	-8.89645E-005	0.00000E+000	-3.89609E-005	-5.39641E-002	4.37999E-001	3.57290E+000	9	...........
	48	0.653333	4.32619E-001	-8.87113E-005	0.00000E+000	-3.83782E-005	-5.39641E-002	4.32680E-001	3.57290E+000	9	...........
	49	0.666667	4.27328E-001	-8.89968E-005	0.00000E+000	-3.80308E-005	-5.39641E-002	4.27384E-001	3.57290E+000	9	...........
	50	0.68	4.22059E-001	-8.89801E-005	0.00000E+000	-3.75548E-005	-5.39641E-002	4.22117E-001	3.57290E+000	9	...........
	51	0.693333	4.16823E-001	-8.89583E-005	0.00000E+000	-3.70798E-005	-5.39641E-002	4.16890E-001	3.57290E+000	9	...........
	52	0.706667	4.11626E-001	-8.86144E-005	0.00000E+000	-3.64760E-005	-5.39641E-002	4.11685E-001	3.57290E+000	9	...........
	53	0.72	4.06444E-001	-8.87884E-005	0.00000E+000	-3.60875E-005	-5.39641E-002	4.06501E-001	3.57290E+000	9	...........
	54	0.733333	4.01288E-001	-8.86801E-005	0.00000E+000	-3.55862E-005	-5.39641E-002	4.01344E-001	3.57290E+000	9	...........
	55	0.746667	3.96162E-001	-8.89520E-005	0.00000E+000	-3.52394E-005	-5.39641E-002	3.96218E-001	3.57290E+000	9	...........
	56	0.76	3.91059E-001	-8.88926E-005	0.00000E+000	-3.47623E-005	-5.39641E-002	3.91108E-001	3.57290E+000	9	...........
	57	0.773333	3.85963E-001	-8.88634E-005	0.00000E+000	-3.42980E-005	-5.39641E-002	3.86012E-001	3.57290E+000	9	...........
	58	0.786667	3.80892E-001	-8.88707E-005	0.00000E+000	-3.38502E-005	-5.39641E-002	3.80940E-001	3.57290E+000	9	...........
	59	0.8	3.75850E-001	-8.88353E-005	0.00000E+000	-3.33888E-005	-5.39641E-002	3.75898E-001	3.57290E+000	9	...........
	60	0.813333	3.70823E-001	-8.89864E-005	0.00000E+000	-3.29982E-005	-5.39641E-002	3.70870E-001	3.57290E+000	9	...........
	61	0.826667	3.65796E-001	-8.88332E-005	0.00000E+000	-3.24948E-005	-5.39641E-002	3.65849E-001	3.57290E+000	9	...........
	62	0.84	3.60783E-001	-8.87613E-005	0.00000E+000	-3.20236E-005	-5.39641E-002	3.60831E-001	3.57290E+000	9	...........
	63	0.853333	3.55794E-001	-8.88020E-005	0.00000E+000	-3.15952E-005	-5.39641E-002	3.55839E-001	3.57290E+000	9	...........
	64	0.866667	3.50817E-001	-8.89833E-005	0.00000E+000	-3.12168E-005	-5.39641E-002	3.50862E-001	3.57290E+000	9	...........
	65	0.88	3.45862E-001	-8.88301E-005	0.00000E+000	-3.07229E-005	-5.39641E-002	3.45907E-001	3.57290E+000	9	...........
	66	0.893333	3.40922E-001	-8.88916E-005	0.00000E+000	-3.03051E-005	-5.39641E-002	3.40965E-001	3.57290E+000	9	...........
	67	0.906667	3.35988E-001	-8.87988E-005	0.00000E+000	-2.98353E-005	-5.39641E-002	3.36029E-001	3.57290E+000	9	...........
	68	0.92	3.31082E-001	-8.88822E-005	0.00000E+000	-2.94273E-005	-5.39641E-002	3.31123E-001	3.57290E+000	9	...........
	69	0.933333	3.26174E-001	-8.88020E-005	0.00000E+000	-2.89649E-005	-5.39641E-002	3.26216E-001	3.57290E+000	9	...........
	70	0.946667	3.21285E-001	-8.89228E-005	0.00000E+000	-2.85696E-005	-5.39641E-002	3.21325E-001	3.57290E+000	9	...........
	71	0.96	3.16414E-001	-8.88113E-005	0.00000E+000	-2.81011E-005	-5.39641E-002	3.16457E-001	3.57290E+000	9	...........
	72	0.97333	3.11557E-001	-8.87801E-005	0.00000E+000	-2.76600E-005	-5.39641E-002	3.11598E-001	3.57290E+000	9	...........
	73	0.98667	3.06700E-001	-8.83529E-005	0.00000E+000	-2.70979E-005	-5.39641E-002	3.06740E-001	3.57290E+000	9	...........
	74	1	3.01883E-001	-8.86863E-005	0.00000E+000	-2.67729E-005	-5.39641E-002	3.01924E-001	3.57290E+000	9	...........
	75	1.01333	2.97077E-001	-8.87249E-005	0.00000E+000	-2.63581E-005	-5.39641E-002	2.97112E-001	3.57290E+000	9	...........
	76	1.02667	2.92271E-001	-8.84904E-005	0.00000E+000	-2.58632E-005	-5.39641E-002	2.92308E-001	3.57290E+000	9	...........
	77	1.04	2.87457E-001	-8.88322E-005	0.00000E+000	-2.55355E-005	-5.39641E-002	2.87492E-001	3.57290E+000	9	...........
	78	1.05333	2.82653E-001	-8.89551E-005	0.00000E+000	-2.51434E-005	-5.39641E-002	2.82689E-001	3.57290E+000	9	...........
	79	1.06667	2.77854E-001	-8.88457E-005	0.00000E+000	-2.46861E-005	-5.39641E-002	2.77883E-001	3.57290E+000	9	...........
	80	1.08	2.73068E-001	-8.88280E-005	0.00000E+000	-2.42561E-005	-5.39641E-002	2.73102E-001	3.57290E+000	9	...........
	81	1.09333	2.68290E-001	-8.87603E-005	0.00000E+000	-2.38135E-005	-5.39641E-002	2.68326E-001	3.57290E+000	9	...........
	82	1.10667	2.63533E-001	-8.88374E-005	0.00000E+000	-2.34116E-005	-5.39641E-002	2.63568E-001	3.57290E+000	9	...........
	83	1.12	2.58789E-001	-8.89989E-005	0.00000E+000	-2.30319E-005	-5.39641E-002	2.58820E-001	3.57290E+000	9	...........
	84	1.13333	2.54058E-001	-8.89530E-005	0.00000E+000	-2.25992E-005	-5.39641E-002	2.54093E-001	3.57290E+000	9	...........
	85	1.14667	2.49340E-001	-8.87676E-005	0.00000E+000	-2.21333E-005	-5.39641E-002	2.49372E-001	3.57290E+000	9	...........
	86	1.16	2.44636E-001	-8.87238E-005	0.00000E+000	-2.17051E-005	-5.39641E-002	2.44672E-001	3.57290E+000	9	...........
	87	1.17333	2.39955E-001	-8.86415E-005	0.00000E+000	-2.12699E-005	-5.39641E-002	2.39986E-001	3.57290E+000	9	...........
	88	1.18667	2.35278E-001	-8.88686E-005	0.00000E+000	-2.09088E-005	-5.39641E-002	2.35306E-001	3.57290E+000	9	...........
	89	1.2	2.30617E-001	-8.89228E-005	0.00000E+000	-2.05071E-005	-5.39641E-002	2.30644E-001	3.57290E+000	9	...........
	90	1.21333	2.25978E-001	-8.88155E-005	0.00000E+000	-2.00704E-005	-5.39641E-002	2.26007E-001	3.57290E+000	9	...........
	91	1.22667	2.21364E-001	-8.88666E-005	0.00000E+000	-1.96719E-005	-5.39641E-002	2.21391E-001	3.57290E+000	9	...........
	92	1.24	2.16767E-001	-8.88874E-005	0.00000E+000	-1.92678E-005	-5.39641E-002	2.16786E-001	3.57290E+000	9	...........
	93	1.25333	2.12190E-001	-8.87676E-005	0.00000E+000	-1.88356E-005	-5.39641E-002	2.12210E-001	3.57290E+000	9	...........
	94	1.26667	2.07618E-001	-8.86582E-005	0.00000E+000	-1.84070E-005	-5.39641E-002	2.07636E-001	3.57290E+000	9	...........
	95	1.28	2.03052E-001	-8.87124E-005	0.00000E+000	-1.80132E-005	-5.39641E-002	2.03078E-001	3.57290E+000	9	...........
	96	1.29333	1.98509E-001	-8.87384E-005	0.00000E+000	-1.76154E-005	-5.39641E-002	1.98529E-001	3.57290E+000	9	...........
	97	1.30667	1.93983E-001	-8.89530E-005	0.00000E+000	-1.72554E-005	-5.39641E-002	1.94004E-001	3.57290E+000	9	...........
	98	1.32	1.89478E-001	-8.88166E-005	0.00000E+000	-1.68288E-005	-5.39641E-002	1.89498E-001	3.57290E+000	9	...........
	99	1.33333	1.84984E-001	-8.87686E-005	0.00000E+000	-1.64208E-005	-5.39641E-002	1.85004E-001	3.57290E+000	9	...........
	100	1.34667	1.80518E-001	-8.89207E-005	0.00000E+000	-1.60518E-005	-5.39641E-002	1.80541E-001	3.57290E+000	9	...........
	101	1.36	1.76074E-001	-8.89082E-005	0.00000E+000	-1.56544E-005	-5.39641E-002	1.76091E-001	3.57290E+000	9	...........
	102	1.37333	1.71634E-001	-8.85769E-005	0.00000E+000	-1.52028E-005	-5.39641E-002	1.71653E-001	3.57290E+000	9	...........
	103	1.38667	1.67217E-001	-8.86446E-005	0.00000E+000	-1.48229E-005	-5.39641E-002	1.67230E-001	3.57290E+000	9	...........
	104	1.4	1.62806E-001	-8.89749E-005	0.00000E+000	-1.44857E-005	-5.39641E-002	1.62819E-001	3.57290E+000	9	...........
	105	1.41333	1.58407E-001	-8.89051E-005	0.00000E+000	-1.40832E-005	-5.39641E-002	1.58428E-001	3.57290E+000	9	...........
	106	1.42667	1.54046E-001	-8.89207E-005	0.00000E+000	-1.36979E-005	-5.39641E-002	1.54057E-001	3.57290E+000	9	...........
	107	1.44	1.49691E-001	-8.86134E-005	0.00000E+000	-1.32647E-005	-5.39641E-002	1.49703E-001	3.57290E+000	9	...........
	108	1.45333	1.45346E-001	-8.88884E-005	0.00000E+000	-1.29195E-005	-5.39641E-002	1.45357E-001	3.57290E+000	9	...........
	109	1.46667	1.41028E-001	-8.88874E-005	0.00000E+000	-1.25356E-005	-5.39641E-002	1.41044E-001	3.57290E+000	9	...........
	110	1.48	1.36737E-001	-8.88301E-005	0.00000E+000	-1.21463E-005	-5.39641E-002	1.36748E-001	3.57290E+000	9	...........
	111	1.49333	1.32457E-001	-8.87790E-005	0.00000E+000	-1.17594E-005	-5.39641E-002	1.32467E-001	3.57290E+000	9	...........
	112	1.50667	1.28206E-001	-8.88978E-005	0.00000E+000	-1.13972E-005	-5.39641E-002	1.28219E-001	3.57290E+000	9	...........
	113	1.52	1.23983E-001	-8.87269E-005	0.00000E+000	-1.10007E-005	-5.39641E-002	1.23990E-001	3.57290E+000	9	...........
	114	1.53333	1.19774E-001	-8.89791E-005	0.00000E+000	-1.06574E-005	-5.39641E-002	1.19786E-001	3.57290E+000	9	...........
	115	1.54667	1.15571E-001	-8.88728E-005	0.00000E+000	-1.02711E-005	-5.39641E-002	1.15582E-001	3.57290E+000	9	...........
	116	1.56	1.11385E-001	-8.86811E-005	0.00000E+000	-9.87772E-006	-5.39641E-002	1.11399E-001	3.57290E+000	9	...........
	117	1.57333	1.07219E-001	-8.86832E-005	0.00000E+000	-9.50852E-006	-5.39641E-002	1.07228E-001	3.57290E+000	9	...........
	118	1.58667	1.03061E-001	-8.87613E-005	0.00000E+000	-9.14781E-006	-5.39641E-002	1.03073E-001	3.57290E+000	9	...........
	119	1.6	9.89131E-002	-8.87207E-005	0.00000E+000	-8.77564E-006	-5.39641E-002	9.89208E-002	3.57290E+000	9	...........
	120	1.61333	9.47977E-002	-8.88739E-005	0.00000E+000	-8.42504E-006	-5.39641E-002	9.48060E-002	3.57290E+000	9	...........
	121	1.62667	9.07018E-002	-8.90364E-005	0.00000E+000	-8.07576E-006	-5.39641E-002	9.07110E-002	3.57290E+000	9	...........
	122	1.64	8.66250E-002	-8.89843E-005	0.00000E+000	-7.70826E-006	-5.39641E-002	8.66363E-002	3.57290E+000	9	...........
	123	1.65333	8.25756E-002	-8.87197E-005	0.00000E+000	-7.32608E-006	-5.39641E-002	8.25804E-002	3.57290E+000	9	...........
	124	1.66667	7.85525E-002	-8.89478E-005	0.00000E+000	-6.98708E-006	-5.39641E-002	7.85562E-002	3.57290E+000	9	...........
	125	1.68	7.45458E-002	-8.86040E-005	0.00000E+000	-6.60506E-006	-5.39641E-002	7.45464E-002	3.57290E+000	9	...........
	126	1.69333	7.05623E-002	-8.89072E-005	0.00000E+000	-6.27349E-006	-5.39641E-002	7.05648E-002	3.57290E+000	9	...........
	127	1.70667	6.66003E-002	-8.89218E-005	0.00000E+000	-5.92222E-006	-5.39641E-002	6.65975E-002	3.57290E+000	9	...........
	128	1.72	6.26464E-002	-8.87884E-005	0.00000E+000	-5.56228E-006	-5.39641E-002	6.26517E-002	3.57290E+000	9	...........
	129	1.73333	5.87220E-002	-8.88009E-005	0.00000E+000	-5.21457E-006	-5.39641E-002	5.87197E-002	3.57290E+000	9	...........
	130	1.74667	5.48050E-002	-8.88113E-005	0.00000E+000	-4.86731E-006	-5.39641E-002	5.48031E-002	3.57290E+000	9	...........
	131	1.76	5.09061E-002	-8.87249E-005	0.00000E+000	-4.51664E-006	-5.39641E-002	5.09041E-002	3.57290E+000	9	...........
	132	1.77333	4.70441E-002	-8.87499E-005	0.00000E+000	-4.17515E-006	-5.39641E-002	4.70471E-002	3.57290E+000	9	...........
	133	1.78667	4.31903E-002	-8.86519E-005	0.00000E+000	-3.82890E-006	-5.39641E-002	4.31987E-002	3.57290E+000	9	...........
	134	1.8	3.93589E-002	-8.87332E-005	0.00000E+000	-3.49244E-006	-5.39641E-002	3.93644E-002	3.57290E+000	9	...........
	135	1.81333	3.55317E-002	-8.88416E-005	0.00000E+000	-3.15669E-006	-5.39641E-002	3.55325E-002	3.57290E+000	9	...........
	136	1.82667	3.17137E-002	-8.90343E-005	0.00000E+000	-2.82361E-006	-5.39641E-002	3.17150E-002	3.57290E+000	9	...........
	137	1.84	2.79121E-002	-8.86936E-005	0.00000E+000	-2.47562E-006	-5.39641E-002	2.79101E-002	3.57290E+000	9	...........
	138	1.85333	2.41391E-002	-8.87436E-005	0.00000E+000	-2.14219E-006	-5.39641E-002	2.41334E-002	3.57290E+000	9	...........
	139	1.86667	2.03731E-002	-8.90333E-005	0.00000E+000	-1.81388E-006	-5.39641E-002	2.03717E-002	3.57290E+000	9	...........
	140	1.88	1.66390E-002	-8.86717E-005	0.00000E+000	-1.47541E-006	-5.39641E-002	1.66311E-002	3.57290E+000	9	...........
	141	1.89333	1.29433E-002	-8.89874E-005	0.00000E+000	-1.15179E-006	-5.39641E-002	1.29297E-002	3.57290E+000	9	...........
	142	1.90667	9.25943E-003	-8.93177E-005	0.00000E+000	-8.27031E-007	-5.39641E-002	9.24706E-003	3.57290E+000	9	...........
	143	1.92	5.58248E-003	-8.86988E-005	0.00000E+000	-4.95159E-007	-5.39641E-002	5.57269E-003	3.57290E+000	9	...........
	144	1.93333	1.95011E-003	-8.88124E-005	0.00000E+000	-1.73194E-007	-5.39641E-002	1.93229E-003	3.57290E+000	9	...........
	145	1.935	-9.00336E-005	-8.85748E-005	0.00000E+000	7.97471E-009	-5.39641E-002	-9.98035E-005	3.57290E+000	9	...........
STARTTIMEOFFSET	QUANT	4281.714	Start Time Offset (s)
