EXPLAIN
TAG	PWR800_DISCHARGE
TITLE	LABEL	PWR Cyclic Charge Discharge (Cell) - Discharge Step	Test &Identifier
DATE	LABEL	10-7-2017	Date
TIME	LABEL	15:59:02	Time
NOTES	NOTES	3	&Notes...
	supercap test cell
	0.9mg
	6M KOH
PSTAT	PSTAT	IFC5000-01520	Potentiostat
CAPACITY	QUANT	1.00000E-003	Capacity (A-hr)
CELLTYPE	SELECTOR	1	&Cell Type
WORKINGCONNECTION	SELECTOR	0	&Working Lead
MAXDISCHARGETIME	VARIABLEANDUNITS	1.00000E+002	s	1.00000E+002	second(s)	Max &Discharge Time
DISCHARGEMODE	MULTIPARAM	0	9.00000E-005	&Discharge Mode	Constant Current	Amp(s)
SAMPLETIME	QUANT	1.00000E-002	Sa&mple Period (s)
DISCHARGESTOPAT1	MULTIPARAM	3	0.00000E+000	Discharge Stop At &1	Voltage < Limit	V
DISCHARGESTOPAT2	MULTIPARAM	0	0.00000E+000	Discharge Stop At &2	None	N/A
AESBHCSELECTOR	TOGGLE	F	Save Both Half Cells
IRCOMP	TOGGLE	F	IR &Measure
EOC	QUANT	0	Open Circuit (V)
SEQUENCER	TOGGLE	TRUE	Run as Sequence
PSTATMODEL	IQUANT	53	Pstat Model
PSTATSECTION	LABEL	IFC5000-01520	Pstat Section
PSTATSERIALNO	LABEL	01520	Pstat Serial Number
CTRLMODE	IQUANT	0	Control Mode
ELECTROMETER	IQUANT	1	RE=0 or CS=1
IESTAB	IQUANT	0	I/E Stability
CASPEED	IQUANT	4	Control Amp Speed
CONVENTION	IQUANT	1	Current Convention
ICHRANGE	IQUANT	2	Ich Range
ICHRANGEMODE	TOGGLE	T	Ich Auto Range
ICHOFFSETENABLE	TOGGLE	F	Ich Offset Enable
ICHOFFSET	QUANT	0	Ich Offset (V)
ICHFILTER	IQUANT	1	Ich Filter
VCHRANGE	IQUANT	2	Vch Range
VCHRANGEMODE	TOGGLE	T	Vch Auto Range
VCHOFFSETENABLE	TOGGLE	F	Vch Offset Enable
VCHOFFSET	QUANT	0	Vch Offset (V)
VCHFILTER	IQUANT	1	Vch Filter
IERANGELOWERLIMIT	IQUANT	9	I/E Range Lower Limit
IERANGEMODE	TOGGLE	F	I/E AutoRange
IERANGE	IQUANT	9	I/E Range
ACHSELECT	IQUANT	1	Ach Select
ACHRANGE	IQUANT	2	Ach Range
ACHOFFSETENABLE	TOGGLE	F	Ach Offset Enable
ACHOFFSET	QUANT	0	Ach Offset (V)
ACHFILTER	IQUANT	1	Ach Filter
CABLEID	IQUANT	14	Cable ID
DCCALDATE	LABEL	5-7-2017	DC Calibration Date
ACCALDATE	LABEL	12/3/2015	AC Calibration Date
FRAMEWORKVERSION	QUANT	7.01	Framework Version
INSTRUMENTVERSION	LABEL	4.00	Instrument Version
CURVE	TABLE	149
	Pt	T	Vf	Im	Vu	Pwr	Sig	Ach	Temp	IERange	Over
	#	s	V	A	V	W	V	V	deg C	#	bits
	0	0.013333	8.06757E-001	-8.87155E-005	0.00000E+000	-7.15718E-005	-5.39641E-002	8.06855E-001	3.57270E+000	9	...........
	1	0.026667	7.92768E-001	-8.87863E-005	0.00000E+000	-7.03870E-005	-5.39641E-002	7.92859E-001	3.57270E+000	9	...........
	2	0.04	7.79721E-001	-8.86603E-005	0.00000E+000	-6.91303E-005	-5.39641E-002	7.79831E-001	3.57270E+000	9	...........
	3	0.053333	7.67414E-001	-8.84602E-005	0.00000E+000	-6.78856E-005	-5.39641E-002	7.67530E-001	3.57349E+000	9	...........
	4	0.066667	7.55731E-001	-8.88457E-005	0.00000E+000	-6.71434E-005	-5.39641E-002	7.55821E-001	3.57360E+000	9	...........
	5	0.08	7.44544E-001	-8.88957E-005	0.00000E+000	-6.61868E-005	-5.39641E-002	7.44653E-001	3.57360E+000	9	...........
	6	0.093333	7.33824E-001	-8.88989E-005	0.00000E+000	-6.52361E-005	-5.39641E-002	7.33939E-001	3.57360E+000	9	...........
	7	0.106667	7.23550E-001	-8.89728E-005	0.00000E+000	-6.43763E-005	-5.39641E-002	7.23629E-001	3.57360E+000	9	...........
	8	0.12	7.13589E-001	-8.84248E-005	0.00000E+000	-6.30990E-005	-5.39641E-002	7.13693E-001	3.57360E+000	9	...........
	9	0.133333	7.03957E-001	-8.87144E-005	0.00000E+000	-6.24511E-005	-5.39641E-002	7.04053E-001	3.57360E+000	9	...........
	10	0.146667	6.94679E-001	-8.88572E-005	0.00000E+000	-6.17273E-005	-5.39641E-002	6.94767E-001	3.57360E+000	9	...........
	11	0.16	6.85609E-001	-8.90176E-005	0.00000E+000	-6.10313E-005	-5.39641E-002	6.85670E-001	3.57360E+000	9	...........
	12	0.173333	6.76799E-001	-8.87374E-005	0.00000E+000	-6.00574E-005	-5.39641E-002	6.76894E-001	3.57360E+000	9	...........
	13	0.186667	6.68240E-001	-8.86176E-005	0.00000E+000	-5.92178E-005	-5.39641E-002	6.68329E-001	3.57360E+000	9	...........
	14	0.2	6.59867E-001	-8.89166E-005	0.00000E+000	-5.86731E-005	-5.39641E-002	6.59924E-001	3.57360E+000	9	...........
	15	0.213333	6.51726E-001	-8.89187E-005	0.00000E+000	-5.79506E-005	-5.39641E-002	6.51804E-001	3.57360E+000	9	...........
	16	0.226667	6.43752E-001	-8.88489E-005	0.00000E+000	-5.71966E-005	-5.39641E-002	6.43837E-001	3.57360E+000	9	...........
	17	0.24	6.35929E-001	-8.87822E-005	0.00000E+000	-5.64592E-005	-5.39641E-002	6.36037E-001	3.57360E+000	9	...........
	18	0.253333	6.28320E-001	-8.86051E-005	0.00000E+000	-5.56723E-005	-5.39641E-002	6.28426E-001	3.57360E+000	9	...........
	19	0.266667	6.20837E-001	-8.88780E-005	0.00000E+000	-5.51788E-005	-5.39641E-002	6.20957E-001	3.57360E+000	9	...........
	20	0.28	6.13484E-001	-8.84196E-005	0.00000E+000	-5.42440E-005	-5.39641E-002	6.13628E-001	3.57360E+000	9	...........
	21	0.293333	6.06264E-001	-8.89947E-005	0.00000E+000	-5.39543E-005	-5.39641E-002	6.06431E-001	3.57360E+000	9	...........
	22	0.306667	5.99220E-001	-8.87072E-005	0.00000E+000	-5.31551E-005	-5.39641E-002	5.99376E-001	3.57360E+000	9	...........
	23	0.32	5.92292E-001	-8.87530E-005	0.00000E+000	-5.25677E-005	-5.39641E-002	5.92423E-001	3.57360E+000	9	...........
	24	0.333333	5.85449E-001	-8.88030E-005	0.00000E+000	-5.19896E-005	-5.39641E-002	5.85573E-001	3.57360E+000	9	...........
	25	0.346667	5.78762E-001	-8.87269E-005	0.00000E+000	-5.13517E-005	-5.39641E-002	5.78878E-001	3.57360E+000	9	...........
	26	0.36	5.72174E-001	-8.88895E-005	0.00000E+000	-5.08603E-005	-5.39641E-002	5.72255E-001	3.57360E+000	9	...........
	27	0.373333	5.65649E-001	-8.90260E-005	0.00000E+000	-5.03575E-005	-5.39641E-002	5.65780E-001	3.57360E+000	9	...........
	28	0.386667	5.59173E-001	-8.88270E-005	0.00000E+000	-4.96697E-005	-5.39641E-002	5.59276E-001	3.57360E+000	9	...........
	29	0.4	5.52864E-001	-8.88270E-005	0.00000E+000	-4.91093E-005	-5.39641E-002	5.52970E-001	3.57360E+000	9	...........
	30	0.413333	5.46611E-001	-8.90187E-005	0.00000E+000	-4.86586E-005	-5.39641E-002	5.46699E-001	3.57360E+000	9	...........
	31	0.426667	5.40439E-001	-8.88530E-005	0.00000E+000	-4.80196E-005	-5.39641E-002	5.40534E-001	3.57360E+000	9	...........
	32	0.44	5.34276E-001	-8.86478E-005	0.00000E+000	-4.73624E-005	-5.39641E-002	5.34414E-001	3.57360E+000	9	...........
	33	0.453333	5.28240E-001	-8.88561E-005	0.00000E+000	-4.69374E-005	-5.39641E-002	5.28362E-001	3.57360E+000	9	...........
	34	0.466667	5.22293E-001	-8.86426E-005	0.00000E+000	-4.62974E-005	-5.39641E-002	5.22372E-001	3.57360E+000	9	...........
	35	0.48	5.16399E-001	-8.87832E-005	0.00000E+000	-4.58475E-005	-5.39641E-002	5.16526E-001	3.57360E+000	9	...........
	36	0.493333	5.10545E-001	-8.87134E-005	0.00000E+000	-4.52922E-005	-5.39641E-002	5.10651E-001	3.57360E+000	9	...........
	37	0.506667	5.04758E-001	-8.88791E-005	0.00000E+000	-4.48624E-005	-5.39641E-002	5.04885E-001	3.57360E+000	9	...........
	38	0.52	4.99010E-001	-8.89801E-005	0.00000E+000	-4.44019E-005	-5.39641E-002	4.99161E-001	3.57360E+000	9	...........
	39	0.533333	4.93339E-001	-8.88739E-005	0.00000E+000	-4.38449E-005	-5.39641E-002	4.93458E-001	3.57360E+000	9	...........
	40	0.546667	4.87722E-001	-8.88155E-005	0.00000E+000	-4.33172E-005	-5.39641E-002	4.87836E-001	3.57360E+000	9	...........
	41	0.56	4.82276E-001	-8.87759E-005	0.00000E+000	-4.28145E-005	-5.39641E-002	4.82326E-001	3.57360E+000	9	...........
	42	0.573333	4.76727E-001	-8.86988E-005	0.00000E+000	-4.22851E-005	-5.39641E-002	4.76790E-001	3.57360E+000	9	...........
	43	0.586667	4.71220E-001	-8.87197E-005	0.00000E+000	-4.18064E-005	-5.39641E-002	4.71285E-001	3.57360E+000	9	...........
	44	0.6	4.65757E-001	-8.86373E-005	0.00000E+000	-4.12835E-005	-5.39641E-002	4.65819E-001	3.57360E+000	9	...........
	45	0.613333	4.60314E-001	-8.88051E-005	0.00000E+000	-4.08782E-005	-5.39641E-002	4.60376E-001	3.57360E+000	9	...........
	46	0.626667	4.54919E-001	-8.87301E-005	0.00000E+000	-4.03650E-005	-5.39641E-002	4.54981E-001	3.57360E+000	9	...........
	47	0.64	4.49551E-001	-8.85832E-005	0.00000E+000	-3.98227E-005	-5.39641E-002	4.49608E-001	3.57360E+000	9	...........
	48	0.653333	4.44225E-001	-8.86780E-005	0.00000E+000	-3.93929E-005	-5.39641E-002	4.44284E-001	3.57360E+000	9	...........
	49	0.666667	4.38927E-001	-8.86967E-005	0.00000E+000	-3.89314E-005	-5.39641E-002	4.38986E-001	3.57360E+000	9	...........
	50	0.68	4.33644E-001	-8.87665E-005	0.00000E+000	-3.84931E-005	-5.39641E-002	4.33700E-001	3.57360E+000	9	...........
	51	0.693333	4.28385E-001	-8.87905E-005	0.00000E+000	-3.80366E-005	-5.39641E-002	4.28445E-001	3.57360E+000	9	...........
	52	0.706667	4.23162E-001	-8.85988E-005	0.00000E+000	-3.74916E-005	-5.39641E-002	4.23215E-001	3.57360E+000	9	...........
	53	0.72	4.17949E-001	-8.83800E-005	0.00000E+000	-3.69383E-005	-5.39641E-002	4.18010E-001	3.57360E+000	9	...........
	54	0.733333	4.12759E-001	-8.87884E-005	0.00000E+000	-3.66482E-005	-5.39641E-002	4.12814E-001	3.57360E+000	9	...........
	55	0.746667	4.07610E-001	-8.86853E-005	0.00000E+000	-3.61490E-005	-5.39641E-002	4.07662E-001	3.57360E+000	9	...........
	56	0.76	4.02514E-001	-8.87269E-005	0.00000E+000	-3.57138E-005	-5.39641E-002	4.02561E-001	3.57360E+000	9	...........
	57	0.773333	3.97432E-001	-8.85582E-005	0.00000E+000	-3.51958E-005	-5.39641E-002	3.97483E-001	3.57360E+000	9	...........
	58	0.786667	3.92367E-001	-8.89551E-005	0.00000E+000	-3.49031E-005	-5.39641E-002	3.92413E-001	3.57360E+000	9	...........
	59	0.8	3.87306E-001	-8.91343E-005	0.00000E+000	-3.45223E-005	-5.39641E-002	3.87354E-001	3.57360E+000	9	...........
	60	0.813333	3.82262E-001	-8.88822E-005	0.00000E+000	-3.39763E-005	-5.39641E-002	3.82305E-001	3.57360E+000	9	...........
	61	0.826667	3.77221E-001	-8.88374E-005	0.00000E+000	-3.35113E-005	-5.39641E-002	3.77268E-001	3.57360E+000	9	...........
	62	0.84	3.72207E-001	-8.86717E-005	0.00000E+000	-3.30042E-005	-5.39641E-002	3.72252E-001	3.57360E+000	9	...........
	63	0.853333	3.67198E-001	-8.88603E-005	0.00000E+000	-3.26293E-005	-5.39641E-002	3.67248E-001	3.57360E+000	9	...........
	64	0.866667	3.62209E-001	-8.88436E-005	0.00000E+000	-3.21799E-005	-5.39641E-002	3.62255E-001	3.57360E+000	9	...........
	65	0.88	3.57234E-001	-8.88989E-005	0.00000E+000	-3.17577E-005	-5.39641E-002	3.57280E-001	3.57360E+000	9	...........
	66	0.893333	3.52276E-001	-8.87249E-005	0.00000E+000	-3.12556E-005	-5.39641E-002	3.52319E-001	3.57360E+000	9	...........
	67	0.906667	3.47335E-001	-8.86019E-005	0.00000E+000	-3.07746E-005	-5.39641E-002	3.47379E-001	3.57360E+000	9	...........
	68	0.92	3.42385E-001	-8.87790E-005	0.00000E+000	-3.03966E-005	-5.39641E-002	3.42426E-001	3.57360E+000	9	...........
	69	0.933333	3.37451E-001	-8.87936E-005	0.00000E+000	-2.99635E-005	-5.39641E-002	3.37492E-001	3.57360E+000	9	...........
	70	0.946667	3.32539E-001	-8.87124E-005	0.00000E+000	-2.95003E-005	-5.39641E-002	3.32581E-001	3.57360E+000	9	...........
	71	0.96	3.27657E-001	-8.87509E-005	0.00000E+000	-2.90799E-005	-5.39641E-002	3.27695E-001	3.57360E+000	9	...........
	72	0.97333	3.22797E-001	-8.86749E-005	0.00000E+000	-2.86239E-005	-5.39641E-002	3.22837E-001	3.57360E+000	9	...........
	73	0.98667	3.17940E-001	-8.87561E-005	0.00000E+000	-2.82192E-005	-5.39641E-002	3.17981E-001	3.57360E+000	9	...........
	74	1	3.13093E-001	-8.90364E-005	0.00000E+000	-2.78767E-005	-5.39641E-002	3.13131E-001	3.57360E+000	9	...........
	75	1.01333	3.08251E-001	-8.88749E-005	0.00000E+000	-2.73958E-005	-5.39641E-002	3.08289E-001	3.57360E+000	9	...........
	76	1.02667	3.03413E-001	-8.89332E-005	0.00000E+000	-2.69835E-005	-5.39641E-002	3.03452E-001	3.57360E+000	9	...........
	77	1.04	2.98598E-001	-8.87322E-005	0.00000E+000	-2.64953E-005	-5.39641E-002	2.98636E-001	3.57360E+000	9	...........
	78	1.05333	2.93784E-001	-8.87332E-005	0.00000E+000	-2.60684E-005	-5.39641E-002	2.93819E-001	3.57377E+000	9	...........
	79	1.06667	2.88995E-001	-8.88593E-005	0.00000E+000	-2.56799E-005	-5.39641E-002	2.89028E-001	3.57380E+000	9	...........
	80	1.08	2.84233E-001	-8.88155E-005	0.00000E+000	-2.52443E-005	-5.39641E-002	2.84271E-001	3.57380E+000	9	...........
	81	1.09333	2.79475E-001	-8.85488E-005	0.00000E+000	-2.47472E-005	-5.39641E-002	2.79514E-001	3.57380E+000	9	...........
	82	1.10667	2.74724E-001	-8.87613E-005	0.00000E+000	-2.43848E-005	-5.39641E-002	2.74763E-001	3.57380E+000	9	...........
	83	1.12	2.69982E-001	-8.87072E-005	0.00000E+000	-2.39493E-005	-5.39641E-002	2.70021E-001	3.57380E+000	9	...........
	84	1.13333	2.65250E-001	-8.88030E-005	0.00000E+000	-2.35550E-005	-5.39641E-002	2.65286E-001	3.57380E+000	9	...........
	85	1.14667	2.60548E-001	-8.88113E-005	0.00000E+000	-2.31396E-005	-5.39641E-002	2.60578E-001	3.57380E+000	9	...........
	86	1.16	2.55876E-001	-8.88624E-005	0.00000E+000	-2.27378E-005	-5.39641E-002	2.55910E-001	3.57380E+000	9	...........
	87	1.17333	2.51230E-001	-8.89134E-005	0.00000E+000	-2.23377E-005	-5.39641E-002	2.51264E-001	3.57380E+000	9	...........
	88	1.18667	2.46583E-001	-8.87509E-005	0.00000E+000	-2.18845E-005	-5.39641E-002	2.46614E-001	3.57380E+000	9	...........
	89	1.2	2.41950E-001	-8.89885E-005	0.00000E+000	-2.15307E-005	-5.39641E-002	2.41981E-001	3.57380E+000	9	...........
	90	1.21333	2.37331E-001	-8.88624E-005	0.00000E+000	-2.10898E-005	-5.39641E-002	2.37363E-001	3.57380E+000	9	...........
	91	1.22667	2.32747E-001	-8.86780E-005	0.00000E+000	-2.06396E-005	-5.39641E-002	2.32780E-001	3.57380E+000	9	...........
	92	1.24	2.28190E-001	-8.90541E-005	0.00000E+000	-2.03213E-005	-5.39641E-002	2.28217E-001	3.57380E+000	9	...........
	93	1.25333	2.23634E-001	-8.89530E-005	0.00000E+000	-1.98930E-005	-5.39641E-002	2.23667E-001	3.57380E+000	9	...........
	94	1.26667	2.19090E-001	-8.86551E-005	0.00000E+000	-1.94234E-005	-5.39641E-002	2.19119E-001	3.57380E+000	9	...........
	95	1.28	2.14553E-001	-8.89020E-005	0.00000E+000	-1.90742E-005	-5.39641E-002	2.14580E-001	3.57380E+000	9	...........
	96	1.29333	2.10039E-001	-8.85790E-005	0.00000E+000	-1.86050E-005	-5.39641E-002	2.10065E-001	3.57380E+000	9	...........
	97	1.30667	2.05527E-001	-8.87926E-005	0.00000E+000	-1.82493E-005	-5.39641E-002	2.05553E-001	3.57380E+000	9	...........
	98	1.32	2.01028E-001	-8.87353E-005	0.00000E+000	-1.78382E-005	-5.39641E-002	2.01054E-001	3.57380E+000	9	...........
	99	1.33333	1.96564E-001	-8.87697E-005	0.00000E+000	-1.74489E-005	-5.39641E-002	1.96584E-001	3.57380E+000	9	...........
	100	1.34667	1.92121E-001	-8.87051E-005	0.00000E+000	-1.70421E-005	-5.39641E-002	1.92142E-001	3.57380E+000	9	...........
	101	1.36	1.87697E-001	-8.87395E-005	0.00000E+000	-1.66562E-005	-5.39641E-002	1.87720E-001	3.57380E+000	9	...........
	102	1.37333	1.83289E-001	-8.87676E-005	0.00000E+000	-1.62701E-005	-5.39641E-002	1.83312E-001	3.57380E+000	9	...........
	103	1.38667	1.78917E-001	-8.87082E-005	0.00000E+000	-1.58714E-005	-5.39641E-002	1.78941E-001	3.57380E+000	9	...........
	104	1.4	1.74564E-001	-8.88436E-005	0.00000E+000	-1.55089E-005	-5.39641E-002	1.74584E-001	3.57380E+000	9	...........
	105	1.41333	1.70229E-001	-8.88853E-005	0.00000E+000	-1.51309E-005	-5.39641E-002	1.70250E-001	3.57380E+000	9	...........
	106	1.42667	1.65918E-001	-8.87718E-005	0.00000E+000	-1.47288E-005	-5.39641E-002	1.65938E-001	3.57380E+000	9	...........
	107	1.44	1.61626E-001	-8.88499E-005	0.00000E+000	-1.43604E-005	-5.39641E-002	1.61642E-001	3.57380E+000	9	...........
	108	1.45333	1.57345E-001	-8.87509E-005	0.00000E+000	-1.39645E-005	-5.39641E-002	1.57356E-001	3.57380E+000	9	...........
	109	1.46667	1.53060E-001	-8.90979E-005	0.00000E+000	-1.36373E-005	-5.39641E-002	1.53073E-001	3.57380E+000	9	...........
	110	1.48	1.48810E-001	-8.87843E-005	0.00000E+000	-1.32120E-005	-5.39641E-002	1.48825E-001	3.57380E+000	9	...........
	111	1.49333	1.44575E-001	-8.87238E-005	0.00000E+000	-1.28273E-005	-5.39641E-002	1.44588E-001	3.57380E+000	9	...........
	112	1.50667	1.40374E-001	-8.88551E-005	0.00000E+000	-1.24729E-005	-5.39641E-002	1.40387E-001	3.57380E+000	9	...........
	113	1.52	1.36193E-001	-8.88884E-005	0.00000E+000	-1.21060E-005	-5.39641E-002	1.36212E-001	3.57380E+000	9	...........
	114	1.53333	1.32024E-001	-8.88780E-005	0.00000E+000	-1.17341E-005	-5.39641E-002	1.32037E-001	3.57380E+000	9	...........
	115	1.54667	1.27875E-001	-8.86571E-005	0.00000E+000	-1.13371E-005	-5.39641E-002	1.27885E-001	3.57380E+000	9	...........
	116	1.56	1.23739E-001	-8.87249E-005	0.00000E+000	-1.09788E-005	-5.39641E-002	1.23752E-001	3.57380E+000	9	...........
	117	1.57333	1.19618E-001	-8.87499E-005	0.00000E+000	-1.06160E-005	-5.39641E-002	1.19631E-001	3.57380E+000	9	...........
	118	1.58667	1.15508E-001	-8.88780E-005	0.00000E+000	-1.02661E-005	-5.39641E-002	1.15523E-001	3.57380E+000	9	...........
	119	1.6	1.11407E-001	-8.89218E-005	0.00000E+000	-9.90648E-006	-5.39641E-002	1.11423E-001	3.57380E+000	9	...........
	120	1.61333	1.07331E-001	-8.87019E-005	0.00000E+000	-9.52048E-006	-5.39641E-002	1.07342E-001	3.57380E+000	9	...........
	121	1.62667	1.03271E-001	-8.88384E-005	0.00000E+000	-9.17443E-006	-5.39641E-002	1.03280E-001	3.57380E+000	9	...........
	122	1.64	9.92158E-002	-8.86446E-005	0.00000E+000	-8.79495E-006	-5.39641E-002	9.92271E-002	3.57380E+000	9	...........
	123	1.65333	9.51731E-002	-8.87832E-005	0.00000E+000	-8.44977E-006	-5.39641E-002	9.51764E-002	3.57380E+000	9	...........
	124	1.66667	9.11505E-002	-8.88166E-005	0.00000E+000	-8.09567E-006	-5.39641E-002	9.11557E-002	3.57380E+000	9	...........
	125	1.68	8.71578E-002	-8.85217E-005	0.00000E+000	-7.71536E-006	-5.39641E-002	8.71631E-002	3.57380E+000	9	...........
	126	1.69333	8.31816E-002	-8.89478E-005	0.00000E+000	-7.39883E-006	-5.39641E-002	8.31924E-002	3.57380E+000	9	...........
	127	1.70667	7.92446E-002	-8.86426E-005	0.00000E+000	-7.02444E-006	-5.39641E-002	7.92403E-002	3.57380E+000	9	...........
	128	1.72	7.53206E-002	-8.88186E-005	0.00000E+000	-6.68987E-006	-5.39641E-002	7.53208E-002	3.57380E+000	9	...........
	129	1.73333	7.14151E-002	-8.88520E-005	0.00000E+000	-6.34537E-006	-5.39641E-002	7.14171E-002	3.57380E+000	9	...........
	130	1.74667	6.75270E-002	-8.88770E-005	0.00000E+000	-6.00159E-006	-5.39641E-002	6.75282E-002	3.57380E+000	9	...........
	131	1.76	6.36450E-002	-8.89322E-005	0.00000E+000	-5.66009E-006	-5.39641E-002	6.36437E-002	3.57380E+000	9	...........
	132	1.77333	5.97737E-002	-8.89603E-005	0.00000E+000	-5.31749E-006	-5.39641E-002	5.97715E-002	3.57380E+000	9	...........
	133	1.78667	5.59225E-002	-8.87436E-005	0.00000E+000	-4.96277E-006	-5.39641E-002	5.59210E-002	3.57380E+000	9	...........
	134	1.8	5.20998E-002	-8.86978E-005	0.00000E+000	-4.62114E-006	-5.39641E-002	5.21003E-002	3.57380E+000	9	...........
	135	1.81333	4.83064E-002	-8.90322E-005	0.00000E+000	-4.30083E-006	-5.39641E-002	4.83087E-002	3.57380E+000	9	...........
	136	1.82667	4.45279E-002	-8.88395E-005	0.00000E+000	-3.95583E-006	-5.39641E-002	4.45404E-002	3.57380E+000	9	...........
	137	1.84	4.07418E-002	-8.88447E-005	0.00000E+000	-3.61969E-006	-5.39641E-002	4.07488E-002	3.57380E+000	9	...........
	138	1.85333	3.69708E-002	-8.87176E-005	0.00000E+000	-3.27996E-006	-5.39641E-002	3.69683E-002	3.57380E+000	9	...........
	139	1.86667	3.32222E-002	-8.87061E-005	0.00000E+000	-2.94701E-006	-5.39641E-002	3.32246E-002	3.57380E+000	9	...........
	140	1.88	2.94928E-002	-8.86332E-005	0.00000E+000	-2.61404E-006	-5.39641E-002	2.94893E-002	3.57380E+000	9	...........
	141	1.89333	2.57794E-002	-8.85436E-005	0.00000E+000	-2.28260E-006	-5.39641E-002	2.57761E-002	3.57380E+000	9	...........
	142	1.90667	2.20971E-002	-8.89103E-005	0.00000E+000	-1.96466E-006	-5.39641E-002	2.20939E-002	3.57380E+000	9	...........
	143	1.92	1.84322E-002	-8.88020E-005	0.00000E+000	-1.63682E-006	-5.39641E-002	1.84247E-002	3.57380E+000	9	...........
	144	1.93333	1.47944E-002	-8.86811E-005	0.00000E+000	-1.31198E-006	-5.39641E-002	1.47807E-002	3.57380E+000	9	...........
	145	1.94667	1.11655E-002	-8.88697E-005	0.00000E+000	-9.92276E-007	-5.39641E-002	1.11580E-002	3.57380E+000	9	...........
	146	1.96	7.55990E-003	-8.90208E-005	0.00000E+000	-6.72988E-007	-5.39641E-002	7.54874E-003	3.57380E+000	9	...........
	147	1.97333	3.96217E-003	-8.90749E-005	0.00000E+000	-3.52930E-007	-5.39641E-002	3.94785E-003	3.57380E+000	9	...........
	148	1.98333	8.32466E-004	-8.87082E-005	0.00000E+000	-7.38466E-008	-5.39641E-002	8.22307E-004	3.57380E+000	9	...........
STARTTIMEOFFSET	QUANT	3017.404	Start Time Offset (s)
