EXPLAIN
TAG	PWR800_DISCHARGE
TITLE	LABEL	PWR Cyclic Charge Discharge (Cell) - Discharge Step	Test &Identifier
DATE	LABEL	10-7-2017	Date
TIME	LABEL	15:22:51	Time
NOTES	NOTES	3	&Notes...
	supercap test cell
	0.9mg
	6M KOH
PSTAT	PSTAT	IFC5000-01520	Potentiostat
CAPACITY	QUANT	1.00000E-003	Capacity (A-hr)
CELLTYPE	SELECTOR	1	&Cell Type
WORKINGCONNECTION	SELECTOR	0	&Working Lead
MAXDISCHARGETIME	VARIABLEANDUNITS	1.00000E+002	s	1.00000E+002	second(s)	Max &Discharge Time
DISCHARGEMODE	MULTIPARAM	0	9.00000E-005	&Discharge Mode	Constant Current	Amp(s)
SAMPLETIME	QUANT	1.00000E-002	Sa&mple Period (s)
DISCHARGESTOPAT1	MULTIPARAM	3	0.00000E+000	Discharge Stop At &1	Voltage < Limit	V
DISCHARGESTOPAT2	MULTIPARAM	0	0.00000E+000	Discharge Stop At &2	None	N/A
AESBHCSELECTOR	TOGGLE	F	Save Both Half Cells
IRCOMP	TOGGLE	F	IR &Measure
EOC	QUANT	0	Open Circuit (V)
SEQUENCER	TOGGLE	TRUE	Run as Sequence
PSTATMODEL	IQUANT	53	Pstat Model
PSTATSECTION	LABEL	IFC5000-01520	Pstat Section
PSTATSERIALNO	LABEL	01520	Pstat Serial Number
CTRLMODE	IQUANT	0	Control Mode
ELECTROMETER	IQUANT	1	RE=0 or CS=1
IESTAB	IQUANT	0	I/E Stability
CASPEED	IQUANT	4	Control Amp Speed
CONVENTION	IQUANT	1	Current Convention
ICHRANGE	IQUANT	2	Ich Range
ICHRANGEMODE	TOGGLE	T	Ich Auto Range
ICHOFFSETENABLE	TOGGLE	F	Ich Offset Enable
ICHOFFSET	QUANT	0	Ich Offset (V)
ICHFILTER	IQUANT	1	Ich Filter
VCHRANGE	IQUANT	2	Vch Range
VCHRANGEMODE	TOGGLE	T	Vch Auto Range
VCHOFFSETENABLE	TOGGLE	F	Vch Offset Enable
VCHOFFSET	QUANT	0	Vch Offset (V)
VCHFILTER	IQUANT	1	Vch Filter
IERANGELOWERLIMIT	IQUANT	9	I/E Range Lower Limit
IERANGEMODE	TOGGLE	F	I/E AutoRange
IERANGE	IQUANT	9	I/E Range
ACHSELECT	IQUANT	1	Ach Select
ACHRANGE	IQUANT	2	Ach Range
ACHOFFSETENABLE	TOGGLE	F	Ach Offset Enable
ACHOFFSET	QUANT	0	Ach Offset (V)
ACHFILTER	IQUANT	1	Ach Filter
CABLEID	IQUANT	14	Cable ID
DCCALDATE	LABEL	5-7-2017	DC Calibration Date
ACCALDATE	LABEL	12/3/2015	AC Calibration Date
FRAMEWORKVERSION	QUANT	7.01	Framework Version
INSTRUMENTVERSION	LABEL	4.00	Instrument Version
CURVE	TABLE	157
	Pt	T	Vf	Im	Vu	Pwr	Sig	Ach	Temp	IERange	Over
	#	s	V	A	V	W	V	V	deg C	#	bits
	0	0.013333	8.20555E-001	-8.83206E-005	0.00000E+000	-7.24719E-005	-5.39641E-002	8.20741E-001	3.57290E+000	9	...........
	1	0.026667	8.07795E-001	-8.88374E-005	0.00000E+000	-7.17624E-005	-5.39641E-002	8.07947E-001	3.57290E+000	9	...........
	2	0.04	7.95858E-001	-8.87936E-005	0.00000E+000	-7.06671E-005	-5.39641E-002	7.95990E-001	3.57290E+000	9	...........
	3	0.053333	7.84499E-001	-8.86363E-005	0.00000E+000	-6.95351E-005	-5.39641E-002	7.84645E-001	3.57290E+000	9	...........
	4	0.066667	7.73699E-001	-8.87363E-005	0.00000E+000	-6.86552E-005	-5.39641E-002	7.73812E-001	3.57290E+000	9	...........
	5	0.08	7.63315E-001	-8.87801E-005	0.00000E+000	-6.77671E-005	-5.39641E-002	7.63431E-001	3.57290E+000	9	...........
	6	0.093333	7.53350E-001	-8.87811E-005	0.00000E+000	-6.68833E-005	-5.39641E-002	7.53432E-001	3.57290E+000	9	...........
	7	0.106667	7.43703E-001	-8.85759E-005	0.00000E+000	-6.58741E-005	-5.39641E-002	7.43800E-001	3.57290E+000	9	...........
	8	0.12	7.34350E-001	-8.87645E-005	0.00000E+000	-6.51842E-005	-5.39641E-002	7.34451E-001	3.57290E+000	9	...........
	9	0.133333	7.25311E-001	-8.87019E-005	0.00000E+000	-6.43365E-005	-5.39641E-002	7.25400E-001	3.57290E+000	9	...........
	10	0.146667	7.16492E-001	-8.87686E-005	0.00000E+000	-6.36020E-005	-5.39641E-002	7.16594E-001	3.57290E+000	9	...........
	11	0.16	7.07896E-001	-8.86603E-005	0.00000E+000	-6.27622E-005	-5.39641E-002	7.08000E-001	3.57290E+000	9	...........
	12	0.173333	6.99565E-001	-8.87988E-005	0.00000E+000	-6.21206E-005	-5.39641E-002	6.99638E-001	3.57290E+000	9	...........
	13	0.186667	6.91399E-001	-8.85832E-005	0.00000E+000	-6.12464E-005	-5.39641E-002	6.91493E-001	3.57290E+000	9	...........
	14	0.2	6.83434E-001	-8.87488E-005	0.00000E+000	-6.06540E-005	-5.39641E-002	6.83505E-001	3.57290E+000	9	...........
	15	0.213333	6.75694E-001	-8.86624E-005	0.00000E+000	-5.99086E-005	-5.39641E-002	6.75752E-001	3.57290E+000	9	...........
	16	0.226667	6.68046E-001	-8.87811E-005	0.00000E+000	-5.93099E-005	-5.39641E-002	6.68137E-001	3.57290E+000	9	...........
	17	0.24	6.60537E-001	-8.87645E-005	0.00000E+000	-5.86322E-005	-5.39641E-002	6.60628E-001	3.57290E+000	9	...........
	18	0.253333	6.53177E-001	-8.86342E-005	0.00000E+000	-5.78938E-005	-5.39641E-002	6.53278E-001	3.57290E+000	9	...........
	19	0.266667	6.45980E-001	-8.86686E-005	0.00000E+000	-5.72782E-005	-5.39641E-002	6.46073E-001	3.57290E+000	9	...........
	20	0.28	6.38863E-001	-8.88666E-005	0.00000E+000	-5.67735E-005	-5.39641E-002	6.38963E-001	3.57290E+000	9	...........
	21	0.293333	6.31887E-001	-8.85321E-005	0.00000E+000	-5.59423E-005	-5.39641E-002	6.31979E-001	3.57290E+000	9	...........
	22	0.306667	6.25029E-001	-8.87884E-005	0.00000E+000	-5.54953E-005	-5.39641E-002	6.25133E-001	3.57290E+000	9	...........
	23	0.32	6.18280E-001	-8.89968E-005	0.00000E+000	-5.50249E-005	-5.39641E-002	6.18373E-001	3.57290E+000	9	...........
	24	0.333333	6.11569E-001	-8.87572E-005	0.00000E+000	-5.42811E-005	-5.39641E-002	6.11686E-001	3.57290E+000	9	...........
	25	0.346667	6.05006E-001	-8.90062E-005	0.00000E+000	-5.38493E-005	-5.39641E-002	6.05141E-001	3.57290E+000	9	...........
	26	0.36	5.98545E-001	-8.85738E-005	0.00000E+000	-5.30154E-005	-5.39641E-002	5.98643E-001	3.57290E+000	9	...........
	27	0.373333	5.92159E-001	-8.86780E-005	0.00000E+000	-5.25115E-005	-5.39641E-002	5.92271E-001	3.57290E+000	9	...........
	28	0.386667	5.85824E-001	-8.89134E-005	0.00000E+000	-5.20876E-005	-5.39641E-002	5.85935E-001	3.57290E+000	9	...........
	29	0.4	5.79572E-001	-8.86196E-005	0.00000E+000	-5.13615E-005	-5.39641E-002	5.79700E-001	3.57270E+000	9	...........
	30	0.413333	5.73403E-001	-8.86030E-005	0.00000E+000	-5.08052E-005	-5.39641E-002	5.73502E-001	3.57210E+000	9	...........
	31	0.426667	5.67320E-001	-8.88082E-005	0.00000E+000	-5.03827E-005	-5.39641E-002	5.67419E-001	3.57210E+000	9	...........
	32	0.44	5.61261E-001	-8.87051E-005	0.00000E+000	-4.97867E-005	-5.39641E-002	5.61367E-001	3.57210E+000	9	...........
	33	0.453333	5.55319E-001	-8.87228E-005	0.00000E+000	-4.92695E-005	-5.39641E-002	5.55392E-001	3.57210E+000	9	...........
	34	0.466667	5.49374E-001	-8.91948E-005	0.00000E+000	-4.90013E-005	-5.39641E-002	5.49444E-001	3.57210E+000	9	...........
	35	0.48	5.43506E-001	-8.86499E-005	0.00000E+000	-4.81817E-005	-5.39641E-002	5.43589E-001	3.57210E+000	9	...........
	36	0.493333	5.37666E-001	-8.85530E-005	0.00000E+000	-4.76119E-005	-5.39641E-002	5.37746E-001	3.57210E+000	9	...........
	37	0.506667	5.31853E-001	-8.87395E-005	0.00000E+000	-4.71963E-005	-5.39641E-002	5.31969E-001	3.57210E+000	9	...........
	38	0.52	5.26151E-001	-8.89801E-005	0.00000E+000	-4.68170E-005	-5.39641E-002	5.26232E-001	3.57210E+000	9	...........
	39	0.533333	5.20441E-001	-8.88030E-005	0.00000E+000	-4.62168E-005	-5.39641E-002	5.20531E-001	3.57210E+000	9	...........
	40	0.546667	5.14804E-001	-8.86676E-005	0.00000E+000	-4.56464E-005	-5.39641E-002	5.14880E-001	3.57210E+000	9	...........
	41	0.56	5.09121E-001	-8.88520E-005	0.00000E+000	-4.52364E-005	-5.39641E-002	5.09209E-001	3.57210E+000	9	...........
	42	0.573333	5.03507E-001	-8.88957E-005	0.00000E+000	-4.47597E-005	-5.39641E-002	5.03628E-001	3.57210E+000	9	...........
	43	0.586667	4.98003E-001	-8.88155E-005	0.00000E+000	-4.42304E-005	-5.39641E-002	4.98113E-001	3.57210E+000	9	...........
	44	0.6	4.92531E-001	-8.89749E-005	0.00000E+000	-4.38229E-005	-5.39641E-002	4.92594E-001	3.57210E+000	9	...........
	45	0.613333	4.87079E-001	-8.86321E-005	0.00000E+000	-4.31709E-005	-5.39641E-002	4.87129E-001	3.57210E+000	9	...........
	46	0.626667	4.81689E-001	-8.86790E-005	0.00000E+000	-4.27158E-005	-5.39641E-002	4.81751E-001	3.57210E+000	9	...........
	47	0.64	4.76291E-001	-8.86353E-005	0.00000E+000	-4.22162E-005	-5.39641E-002	4.76346E-001	3.57210E+000	9	...........
	48	0.653333	4.70911E-001	-8.86738E-005	0.00000E+000	-4.17574E-005	-5.39641E-002	4.70970E-001	3.57210E+000	9	...........
	49	0.666667	4.65547E-001	-8.88374E-005	0.00000E+000	-4.13580E-005	-5.39641E-002	4.65598E-001	3.57210E+000	9	...........
	50	0.68	4.60212E-001	-8.87176E-005	0.00000E+000	-4.08289E-005	-5.39641E-002	4.60269E-001	3.57210E+000	9	...........
	51	0.693333	4.54908E-001	-8.86217E-005	0.00000E+000	-4.03147E-005	-5.39641E-002	4.54968E-001	3.57210E+000	9	...........
	52	0.706667	4.49618E-001	-8.88374E-005	0.00000E+000	-3.99429E-005	-5.39641E-002	4.49678E-001	3.57210E+000	9	...........
	53	0.72	4.44357E-001	-8.89103E-005	0.00000E+000	-3.95079E-005	-5.39641E-002	4.44414E-001	3.57210E+000	9	...........
	54	0.733333	4.39104E-001	-8.87978E-005	0.00000E+000	-3.89915E-005	-5.39641E-002	4.39164E-001	3.57210E+000	9	...........
	55	0.746667	4.33864E-001	-8.87999E-005	0.00000E+000	-3.85270E-005	-5.39641E-002	4.33923E-001	3.57210E+000	9	...........
	56	0.76	4.28651E-001	-8.84217E-005	0.00000E+000	-3.79021E-005	-5.39641E-002	4.28709E-001	3.57210E+000	9	...........
	57	0.773333	4.23462E-001	-8.86290E-005	0.00000E+000	-3.75311E-005	-5.39641E-002	4.23526E-001	3.57210E+000	9	...........
	58	0.786667	4.18290E-001	-8.86801E-005	0.00000E+000	-3.70940E-005	-5.39641E-002	4.18344E-001	3.57210E+000	9	...........
	59	0.8	4.13137E-001	-8.88103E-005	0.00000E+000	-3.66909E-005	-5.39641E-002	4.13190E-001	3.57210E+000	9	...........
	60	0.813333	4.08003E-001	-8.86749E-005	0.00000E+000	-3.61796E-005	-5.39641E-002	4.08048E-001	3.57210E+000	9	...........
	61	0.826667	4.02882E-001	-8.86290E-005	0.00000E+000	-3.57070E-005	-5.39641E-002	4.02925E-001	3.57210E+000	9	...........
	62	0.84	3.97786E-001	-8.86874E-005	0.00000E+000	-3.52786E-005	-5.39641E-002	3.97830E-001	3.57210E+000	9	...........
	63	0.853333	3.92729E-001	-8.86082E-005	0.00000E+000	-3.47990E-005	-5.39641E-002	3.92768E-001	3.57210E+000	9	...........
	64	0.866667	3.87659E-001	-8.85873E-005	0.00000E+000	-3.43417E-005	-5.39641E-002	3.87706E-001	3.57210E+000	9	...........
	65	0.88	3.82612E-001	-8.83738E-005	0.00000E+000	-3.38129E-005	-5.39641E-002	3.82654E-001	3.57210E+000	9	...........
	66	0.893333	3.77570E-001	-8.85707E-005	0.00000E+000	-3.34416E-005	-5.39641E-002	3.77615E-001	3.57210E+000	9	...........
	67	0.906667	3.72555E-001	-8.88009E-005	0.00000E+000	-3.30832E-005	-5.39641E-002	3.72598E-001	3.57210E+000	9	...........
	68	0.92	3.67558E-001	-8.88249E-005	0.00000E+000	-3.26483E-005	-5.39641E-002	3.67597E-001	3.57210E+000	9	...........
	69	0.933333	3.62581E-001	-8.84665E-005	0.00000E+000	-3.20762E-005	-5.39641E-002	3.62622E-001	3.57210E+000	9	...........
	70	0.946667	3.57621E-001	-8.87311E-005	0.00000E+000	-3.17321E-005	-5.39641E-002	3.57665E-001	3.57210E+000	9	...........
	71	0.96	3.52702E-001	-8.84738E-005	0.00000E+000	-3.12049E-005	-5.39641E-002	3.52744E-001	3.57210E+000	9	...........
	72	0.97333	3.47796E-001	-8.85936E-005	0.00000E+000	-3.08125E-005	-5.39641E-002	3.47838E-001	3.57210E+000	9	...........
	73	0.98667	3.42894E-001	-8.87009E-005	0.00000E+000	-3.04150E-005	-5.39641E-002	3.42937E-001	3.57210E+000	9	...........
	74	1	3.38013E-001	-8.86394E-005	0.00000E+000	-2.99613E-005	-5.39641E-002	3.38050E-001	3.57210E+000	9	...........
	75	1.01333	3.33139E-001	-8.88166E-005	0.00000E+000	-2.95883E-005	-5.39641E-002	3.33177E-001	3.57210E+000	9	...........
	76	1.02667	3.28294E-001	-8.87228E-005	0.00000E+000	-2.91271E-005	-5.39641E-002	3.28331E-001	3.57210E+000	9	...........
	77	1.04	3.23483E-001	-8.85259E-005	0.00000E+000	-2.86366E-005	-5.39641E-002	3.23522E-001	3.57210E+000	9	...........
	78	1.05333	3.18679E-001	-8.87144E-005	0.00000E+000	-2.82714E-005	-5.39641E-002	3.18718E-001	3.57210E+000	9	...........
	79	1.06667	3.13888E-001	-8.86384E-005	0.00000E+000	-2.78225E-005	-5.39641E-002	3.13927E-001	3.57210E+000	9	...........
	80	1.08	3.09107E-001	-8.83508E-005	0.00000E+000	-2.73099E-005	-5.39641E-002	3.09146E-001	3.57210E+000	9	...........
	81	1.09333	3.04342E-001	-8.90426E-005	0.00000E+000	-2.70994E-005	-5.39641E-002	3.04382E-001	3.57210E+000	9	...........
	82	1.10667	2.99589E-001	-8.88457E-005	0.00000E+000	-2.66172E-005	-5.39641E-002	2.99624E-001	3.57210E+000	9	...........
	83	1.12	2.94869E-001	-8.91093E-005	0.00000E+000	-2.62756E-005	-5.39641E-002	2.94905E-001	3.57210E+000	9	...........
	84	1.13333	2.90171E-001	-8.88478E-005	0.00000E+000	-2.57810E-005	-5.39641E-002	2.90202E-001	3.57210E+000	9	...........
	85	1.14667	2.85481E-001	-8.85988E-005	0.00000E+000	-2.52933E-005	-5.39641E-002	2.85517E-001	3.57210E+000	9	...........
	86	1.16	2.80816E-001	-8.86592E-005	0.00000E+000	-2.48969E-005	-5.39641E-002	2.80854E-001	3.57210E+000	9	...........
	87	1.17333	2.76183E-001	-8.86999E-005	0.00000E+000	-2.44974E-005	-5.39641E-002	2.76223E-001	3.57210E+000	9	...........
	88	1.18667	2.71577E-001	-8.88457E-005	0.00000E+000	-2.41284E-005	-5.39641E-002	2.71605E-001	3.57210E+000	9	...........
	89	1.2	2.66976E-001	-8.86196E-005	0.00000E+000	-2.36593E-005	-5.39641E-002	2.67009E-001	3.57210E+000	9	...........
	90	1.21333	2.62408E-001	-8.86988E-005	0.00000E+000	-2.32753E-005	-5.39641E-002	2.62441E-001	3.57210E+000	9	...........
	91	1.22667	2.57871E-001	-8.86915E-005	0.00000E+000	-2.28710E-005	-5.39641E-002	2.57898E-001	3.57210E+000	9	...........
	92	1.24	2.53354E-001	-8.86999E-005	0.00000E+000	-2.24725E-005	-5.39641E-002	2.53386E-001	3.57210E+000	9	...........
	93	1.25333	2.48853E-001	-8.89989E-005	0.00000E+000	-2.21477E-005	-5.39641E-002	2.48882E-001	3.57210E+000	9	...........
	94	1.26667	2.44361E-001	-8.88009E-005	0.00000E+000	-2.16995E-005	-5.39641E-002	2.44381E-001	3.57210E+000	9	...........
	95	1.28	2.39872E-001	-8.88030E-005	0.00000E+000	-2.13013E-005	-5.39641E-002	2.39895E-001	3.57210E+000	9	...........
	96	1.29333	2.35447E-001	-8.88978E-005	0.00000E+000	-2.09308E-005	-5.39641E-002	2.35469E-001	3.57210E+000	9	...........
	97	1.30667	2.31031E-001	-8.90614E-005	0.00000E+000	-2.05759E-005	-5.39641E-002	2.31060E-001	3.57210E+000	9	...........
	98	1.32	2.26625E-001	-8.89457E-005	0.00000E+000	-2.01574E-005	-5.39641E-002	2.26653E-001	3.57210E+000	9	...........
	99	1.33333	2.22228E-001	-8.87655E-005	0.00000E+000	-1.97262E-005	-5.39641E-002	2.22252E-001	3.57210E+000	9	...........
	100	1.34667	2.17845E-001	-8.85884E-005	0.00000E+000	-1.92985E-005	-5.39641E-002	2.17865E-001	3.57210E+000	9	...........
	101	1.36	2.13487E-001	-8.87676E-005	0.00000E+000	-1.89507E-005	-5.39641E-002	2.13516E-001	3.57210E+000	9	...........
	102	1.37333	2.09160E-001	-8.89645E-005	0.00000E+000	-1.86078E-005	-5.39641E-002	2.09177E-001	3.57210E+000	9	...........
	103	1.38667	2.04860E-001	-8.87301E-005	0.00000E+000	-1.81772E-005	-5.39641E-002	2.04881E-001	3.57210E+000	9	...........
	104	1.4	2.00574E-001	-8.87395E-005	0.00000E+000	-1.77988E-005	-5.39641E-002	2.00600E-001	3.57212E+000	9	...........
	105	1.41333	1.96320E-001	-8.88582E-005	0.00000E+000	-1.74446E-005	-5.39641E-002	1.96342E-001	3.57220E+000	9	...........
	106	1.42667	1.92080E-001	-8.87363E-005	0.00000E+000	-1.70444E-005	-5.39641E-002	1.92101E-001	3.57220E+000	9	...........
	107	1.44	1.87868E-001	-8.86467E-005	0.00000E+000	-1.66539E-005	-5.39641E-002	1.87893E-001	3.57220E+000	9	...........
	108	1.45333	1.83690E-001	-8.89541E-005	0.00000E+000	-1.63400E-005	-5.39641E-002	1.83713E-001	3.57220E+000	9	...........
	109	1.46667	1.79511E-001	-8.87822E-005	0.00000E+000	-1.59374E-005	-5.39641E-002	1.79526E-001	3.57220E+000	9	...........
	110	1.48	1.75337E-001	-8.87676E-005	0.00000E+000	-1.55642E-005	-5.39641E-002	1.75356E-001	3.57220E+000	9	...........
	111	1.49333	1.71167E-001	-8.87238E-005	0.00000E+000	-1.51866E-005	-5.39641E-002	1.71185E-001	3.57220E+000	9	...........
	112	1.50667	1.67030E-001	-8.89947E-005	0.00000E+000	-1.48648E-005	-5.39641E-002	1.67044E-001	3.57220E+000	9	...........
	113	1.52	1.62904E-001	-8.86978E-005	0.00000E+000	-1.44493E-005	-5.39641E-002	1.62916E-001	3.57220E+000	9	...........
	114	1.53333	1.58800E-001	-8.85436E-005	0.00000E+000	-1.40607E-005	-5.39641E-002	1.58815E-001	3.57220E+000	9	...........
	115	1.54667	1.54717E-001	-8.85634E-005	0.00000E+000	-1.37022E-005	-5.39641E-002	1.54730E-001	3.57220E+000	9	...........
	116	1.56	1.50653E-001	-8.87874E-005	0.00000E+000	-1.33761E-005	-5.39641E-002	1.50664E-001	3.57220E+000	9	...........
	117	1.57333	1.46598E-001	-8.87603E-005	0.00000E+000	-1.30121E-005	-5.39641E-002	1.46609E-001	3.57220E+000	9	...........
	118	1.58667	1.42569E-001	-8.87676E-005	0.00000E+000	-1.26555E-005	-5.39641E-002	1.42579E-001	3.57220E+000	9	...........
	119	1.6	1.38563E-001	-8.87582E-005	0.00000E+000	-1.22986E-005	-5.39641E-002	1.38574E-001	3.57220E+000	9	...........
	120	1.61333	1.34580E-001	-8.87780E-005	0.00000E+000	-1.19478E-005	-5.39641E-002	1.34592E-001	3.57220E+000	9	...........
	121	1.62667	1.30624E-001	-8.88676E-005	0.00000E+000	-1.16082E-005	-5.39641E-002	1.30635E-001	3.57220E+000	9	...........
	122	1.64	1.26664E-001	-8.86082E-005	0.00000E+000	-1.12235E-005	-5.39641E-002	1.26677E-001	3.57220E+000	9	...........
	123	1.65333	1.22712E-001	-8.86342E-005	0.00000E+000	-1.08765E-005	-5.39641E-002	1.22726E-001	3.57220E+000	9	...........
	124	1.66667	1.18777E-001	-8.85207E-005	0.00000E+000	-1.05142E-005	-5.39641E-002	1.18790E-001	3.57220E+000	9	...........
	125	1.68	1.14868E-001	-8.86103E-005	0.00000E+000	-1.01785E-005	-5.39641E-002	1.14880E-001	3.57220E+000	9	...........
	126	1.69333	1.10967E-001	-8.87488E-005	0.00000E+000	-9.84818E-006	-5.39641E-002	1.10979E-001	3.57220E+000	9	...........
	127	1.70667	1.07077E-001	-8.86134E-005	0.00000E+000	-9.48843E-006	-5.39641E-002	1.07084E-001	3.57220E+000	9	...........
	128	1.72	1.03206E-001	-8.89510E-005	0.00000E+000	-9.18024E-006	-5.39641E-002	1.03213E-001	3.57220E+000	9	...........
	129	1.73333	9.93562E-002	-8.87092E-005	0.00000E+000	-8.81381E-006	-5.39641E-002	9.93602E-002	3.57220E+000	9	...........
	130	1.74667	9.55193E-002	-8.86186E-005	0.00000E+000	-8.46479E-006	-5.39641E-002	9.55249E-002	3.57220E+000	9	...........
	131	1.76	9.16849E-002	-8.86769E-005	0.00000E+000	-8.13033E-006	-5.39641E-002	9.16876E-002	3.57220E+000	9	...........
	132	1.77333	8.78673E-002	-8.86759E-005	0.00000E+000	-7.79171E-006	-5.39641E-002	8.78783E-002	3.57220E+000	9	...........
	133	1.78667	8.40785E-002	-8.84467E-005	0.00000E+000	-7.43646E-006	-5.39641E-002	8.40828E-002	3.57220E+000	9	...........
	134	1.8	8.02953E-002	-8.88436E-005	0.00000E+000	-7.13373E-006	-5.39641E-002	8.02916E-002	3.57220E+000	9	...........
	135	1.81333	7.65213E-002	-8.87926E-005	0.00000E+000	-6.79452E-006	-5.39641E-002	7.65226E-002	3.57220E+000	9	...........
	136	1.82667	7.27630E-002	-8.85488E-005	0.00000E+000	-6.44307E-006	-5.39641E-002	7.27629E-002	3.57220E+000	9	...........
	137	1.84	6.90211E-002	-8.88718E-005	0.00000E+000	-6.13403E-006	-5.39641E-002	6.90230E-002	3.57220E+000	9	...........
	138	1.85333	6.52963E-002	-8.85759E-005	0.00000E+000	-5.78368E-006	-5.39641E-002	6.52974E-002	3.57220E+000	9	...........
	139	1.86667	6.15892E-002	-8.87978E-005	0.00000E+000	-5.46899E-006	-5.39641E-002	6.15877E-002	3.57220E+000	9	...........
	140	1.88	5.78970E-002	-8.88405E-005	0.00000E+000	-5.14360E-006	-5.39641E-002	5.78994E-002	3.57220E+000	9	...........
	141	1.89333	5.42297E-002	-8.87457E-005	0.00000E+000	-4.81266E-006	-5.39641E-002	5.42260E-002	3.57220E+000	9	...........
	142	1.90667	5.05912E-002	-8.88843E-005	0.00000E+000	-4.49676E-006	-5.39641E-002	5.05910E-002	3.57220E+000	9	...........
	143	1.92	4.69835E-002	-8.86353E-005	0.00000E+000	-4.16439E-006	-5.39641E-002	4.69892E-002	3.57220E+000	9	...........
	144	1.93333	4.33735E-002	-8.89051E-005	0.00000E+000	-3.85613E-006	-5.39641E-002	4.33825E-002	3.57220E+000	9	...........
	145	1.94667	3.97832E-002	-8.86488E-005	0.00000E+000	-3.52673E-006	-5.39641E-002	3.97873E-002	3.57220E+000	9	...........
	146	1.96	3.62067E-002	-8.88686E-005	0.00000E+000	-3.21764E-006	-5.39641E-002	3.62109E-002	3.57220E+000	9	...........
	147	1.97333	3.26443E-002	-8.86488E-005	0.00000E+000	-2.89388E-006	-5.39641E-002	3.26468E-002	3.57220E+000	9	...........
	148	1.98667	2.90764E-002	-8.86624E-005	0.00000E+000	-2.57798E-006	-5.39641E-002	2.90775E-002	3.57220E+000	9	...........
	149	2	2.55216E-002	-8.87374E-005	0.00000E+000	-2.26472E-006	-5.39641E-002	2.55233E-002	3.57220E+000	9	...........
	150	2.01333	2.19876E-002	-8.86686E-005	0.00000E+000	-1.94961E-006	-5.39641E-002	2.19820E-002	3.57220E+000	9	...........
	151	2.02667	1.84686E-002	-8.90218E-005	0.00000E+000	-1.64411E-006	-5.39641E-002	1.84644E-002	3.57220E+000	9	...........
	152	2.04	1.49659E-002	-8.85488E-005	0.00000E+000	-1.32521E-006	-5.39641E-002	1.49608E-002	3.57220E+000	9	...........
	153	2.05333	1.14898E-002	-8.87947E-005	0.00000E+000	-1.02023E-006	-5.39641E-002	1.14777E-002	3.57220E+000	9	...........
	154	2.06667	8.01036E-003	-8.88509E-005	0.00000E+000	-7.11728E-007	-5.39641E-002	8.00672E-003	3.57220E+000	9	...........
	155	2.08	4.56423E-003	-8.90093E-005	0.00000E+000	-4.06259E-007	-5.39641E-002	4.54757E-003	3.57220E+000	9	...........
	156	2.09333	1.13071E-003	-8.88072E-005	0.00000E+000	-1.00415E-007	-5.39641E-002	1.11460E-003	3.57220E+000	9	...........
STARTTIMEOFFSET	QUANT	1197.135	Start Time Offset (s)
