EXPLAIN
TAG	PWR800_DISCHARGE
TITLE	LABEL	PWR Cyclic Charge Discharge (Cell) - Discharge Step	Test &Identifier
DATE	LABEL	10-7-2017	Date
TIME	LABEL	15:29:04	Time
NOTES	NOTES	3	&Notes...
	supercap test cell
	0.9mg
	6M KOH
PSTAT	PSTAT	IFC5000-01520	Potentiostat
CAPACITY	QUANT	1.00000E-003	Capacity (A-hr)
CELLTYPE	SELECTOR	1	&Cell Type
WORKINGCONNECTION	SELECTOR	0	&Working Lead
MAXDISCHARGETIME	VARIABLEANDUNITS	1.00000E+002	s	1.00000E+002	second(s)	Max &Discharge Time
DISCHARGEMODE	MULTIPARAM	0	9.00000E-005	&Discharge Mode	Constant Current	Amp(s)
SAMPLETIME	QUANT	1.00000E-002	Sa&mple Period (s)
DISCHARGESTOPAT1	MULTIPARAM	3	0.00000E+000	Discharge Stop At &1	Voltage < Limit	V
DISCHARGESTOPAT2	MULTIPARAM	0	0.00000E+000	Discharge Stop At &2	None	N/A
AESBHCSELECTOR	TOGGLE	F	Save Both Half Cells
IRCOMP	TOGGLE	F	IR &Measure
EOC	QUANT	0	Open Circuit (V)
SEQUENCER	TOGGLE	TRUE	Run as Sequence
PSTATMODEL	IQUANT	53	Pstat Model
PSTATSECTION	LABEL	IFC5000-01520	Pstat Section
PSTATSERIALNO	LABEL	01520	Pstat Serial Number
CTRLMODE	IQUANT	0	Control Mode
ELECTROMETER	IQUANT	1	RE=0 or CS=1
IESTAB	IQUANT	0	I/E Stability
CASPEED	IQUANT	4	Control Amp Speed
CONVENTION	IQUANT	1	Current Convention
ICHRANGE	IQUANT	2	Ich Range
ICHRANGEMODE	TOGGLE	T	Ich Auto Range
ICHOFFSETENABLE	TOGGLE	F	Ich Offset Enable
ICHOFFSET	QUANT	0	Ich Offset (V)
ICHFILTER	IQUANT	1	Ich Filter
VCHRANGE	IQUANT	2	Vch Range
VCHRANGEMODE	TOGGLE	T	Vch Auto Range
VCHOFFSETENABLE	TOGGLE	F	Vch Offset Enable
VCHOFFSET	QUANT	0	Vch Offset (V)
VCHFILTER	IQUANT	1	Vch Filter
IERANGELOWERLIMIT	IQUANT	9	I/E Range Lower Limit
IERANGEMODE	TOGGLE	F	I/E AutoRange
IERANGE	IQUANT	9	I/E Range
ACHSELECT	IQUANT	1	Ach Select
ACHRANGE	IQUANT	2	Ach Range
ACHOFFSETENABLE	TOGGLE	F	Ach Offset Enable
ACHOFFSET	QUANT	0	Ach Offset (V)
ACHFILTER	IQUANT	1	Ach Filter
CABLEID	IQUANT	14	Cable ID
DCCALDATE	LABEL	5-7-2017	DC Calibration Date
ACCALDATE	LABEL	12/3/2015	AC Calibration Date
FRAMEWORKVERSION	QUANT	7.01	Framework Version
INSTRUMENTVERSION	LABEL	4.00	Instrument Version
CURVE	TABLE	157
	Pt	T	Vf	Im	Vu	Pwr	Sig	Ach	Temp	IERange	Over
	#	s	V	A	V	W	V	V	deg C	#	bits
	0	0.013333	8.15839E-001	-8.89395E-005	0.00000E+000	-7.25603E-005	-5.39641E-002	8.16022E-001	3.57220E+000	9	...........
	1	0.026667	8.02836E-001	-8.86738E-005	0.00000E+000	-7.11905E-005	-5.39641E-002	8.02993E-001	3.57220E+000	9	...........
	2	0.04	7.90639E-001	-8.85655E-005	0.00000E+000	-7.00233E-005	-5.39641E-002	7.90787E-001	3.57220E+000	9	...........
	3	0.053333	7.79121E-001	-8.88739E-005	0.00000E+000	-6.92435E-005	-5.39641E-002	7.79270E-001	3.57220E+000	9	...........
	4	0.066667	7.68162E-001	-8.88593E-005	0.00000E+000	-6.82583E-005	-5.39641E-002	7.68306E-001	3.57220E+000	9	...........
	5	0.08	7.57650E-001	-8.87717E-005	0.00000E+000	-6.72579E-005	-5.39641E-002	7.57780E-001	3.57220E+000	9	...........
	6	0.093333	7.47560E-001	-8.85832E-005	0.00000E+000	-6.62213E-005	-5.39641E-002	7.47678E-001	3.57220E+000	9	...........
	7	0.106667	7.37799E-001	-8.87415E-005	0.00000E+000	-6.54734E-005	-5.39641E-002	7.37920E-001	3.57220E+000	9	...........
	8	0.12	7.28404E-001	-8.88561E-005	0.00000E+000	-6.47232E-005	-5.39641E-002	7.28504E-001	3.57220E+000	9	...........
	9	0.133333	7.19275E-001	-8.86863E-005	0.00000E+000	-6.37898E-005	-5.39641E-002	7.19389E-001	3.57220E+000	9	...........
	10	0.146667	7.10387E-001	-8.85925E-005	0.00000E+000	-6.29350E-005	-5.39641E-002	7.10506E-001	3.57220E+000	9	...........
	11	0.16	7.01783E-001	-8.87332E-005	0.00000E+000	-6.22715E-005	-5.39641E-002	7.01879E-001	3.57220E+000	9	...........
	12	0.173333	6.93384E-001	-8.87395E-005	0.00000E+000	-6.15305E-005	-5.39641E-002	6.93530E-001	3.57228E+000	9	...........
	13	0.186667	6.85201E-001	-8.87603E-005	0.00000E+000	-6.08186E-005	-5.39641E-002	6.85333E-001	3.57250E+000	9	...........
	14	0.2	6.77249E-001	-8.86457E-005	0.00000E+000	-6.00352E-005	-5.39641E-002	6.77350E-001	3.57250E+000	9	...........
	15	0.213333	6.69444E-001	-8.85623E-005	0.00000E+000	-5.92875E-005	-5.39641E-002	6.69532E-001	3.57250E+000	9	...........
	16	0.226667	6.61768E-001	-8.87770E-005	0.00000E+000	-5.87498E-005	-5.39641E-002	6.61879E-001	3.57250E+000	9	...........
	17	0.24	6.54281E-001	-8.87717E-005	0.00000E+000	-5.80816E-005	-5.39641E-002	6.54371E-001	3.57250E+000	9	...........
	18	0.253333	6.46915E-001	-8.85790E-005	0.00000E+000	-5.73031E-005	-5.39641E-002	6.47018E-001	3.57250E+000	9	...........
	19	0.266667	6.39705E-001	-8.86050E-005	0.00000E+000	-5.66811E-005	-5.39641E-002	6.39792E-001	3.57250E+000	9	...........
	20	0.28	6.32618E-001	-8.85894E-005	0.00000E+000	-5.60432E-005	-5.39641E-002	6.32696E-001	3.57250E+000	9	...........
	21	0.293333	6.25648E-001	-8.85134E-005	0.00000E+000	-5.53782E-005	-5.39641E-002	6.25719E-001	3.57250E+000	9	...........
	22	0.306667	6.18821E-001	-8.88551E-005	0.00000E+000	-5.49854E-005	-5.39641E-002	6.18896E-001	3.57250E+000	9	...........
	23	0.32	6.12015E-001	-8.89697E-005	0.00000E+000	-5.44508E-005	-5.39641E-002	6.12138E-001	3.57250E+000	9	...........
	24	0.333333	6.05366E-001	-8.86676E-005	0.00000E+000	-5.36764E-005	-5.39641E-002	6.05478E-001	3.57250E+000	9	...........
	25	0.346667	5.98823E-001	-8.86790E-005	0.00000E+000	-5.31030E-005	-5.39641E-002	5.98932E-001	3.57250E+000	9	...........
	26	0.36	5.92370E-001	-8.88603E-005	0.00000E+000	-5.26382E-005	-5.39641E-002	5.92495E-001	3.57250E+000	9	...........
	27	0.373333	5.85999E-001	-8.85530E-005	0.00000E+000	-5.18920E-005	-5.39641E-002	5.86111E-001	3.57250E+000	9	...........
	28	0.386667	5.79719E-001	-8.89635E-005	0.00000E+000	-5.15738E-005	-5.39641E-002	5.79846E-001	3.57250E+000	9	...........
	29	0.4	5.73592E-001	-8.86936E-005	0.00000E+000	-5.08740E-005	-5.39641E-002	5.73693E-001	3.57250E+000	9	...........
	30	0.413333	5.67472E-001	-8.87311E-005	0.00000E+000	-5.03525E-005	-5.39641E-002	5.67576E-001	3.57250E+000	9	...........
	31	0.426667	5.61398E-001	-8.87165E-005	0.00000E+000	-4.98053E-005	-5.39641E-002	5.61513E-001	3.57250E+000	9	...........
	32	0.44	5.55438E-001	-8.89489E-005	0.00000E+000	-4.94056E-005	-5.39641E-002	5.55527E-001	3.57250E+000	9	...........
	33	0.453333	5.49540E-001	-8.90749E-005	0.00000E+000	-4.89502E-005	-5.39641E-002	5.49610E-001	3.57250E+000	9	...........
	34	0.466667	5.43710E-001	-8.87176E-005	0.00000E+000	-4.82366E-005	-5.39641E-002	5.43784E-001	3.57250E+000	9	...........
	35	0.48	5.37894E-001	-8.85582E-005	0.00000E+000	-4.76349E-005	-5.39641E-002	5.37982E-001	3.57250E+000	9	...........
	36	0.493333	5.32123E-001	-8.89499E-005	0.00000E+000	-4.73323E-005	-5.39641E-002	5.32210E-001	3.57250E+000	9	...........
	37	0.506667	5.26443E-001	-8.89801E-005	0.00000E+000	-4.68430E-005	-5.39641E-002	5.26524E-001	3.57250E+000	9	...........
	38	0.52	5.20801E-001	-8.85644E-005	0.00000E+000	-4.61245E-005	-5.39641E-002	5.20879E-001	3.57250E+000	9	...........
	39	0.533333	5.15206E-001	-8.86405E-005	0.00000E+000	-4.56681E-005	-5.39641E-002	5.15304E-001	3.57250E+000	9	...........
	40	0.546667	5.09606E-001	-8.87749E-005	0.00000E+000	-4.52402E-005	-5.39641E-002	5.09751E-001	3.57250E+000	9	...........
	41	0.56	5.04084E-001	-8.87874E-005	0.00000E+000	-4.47563E-005	-5.39641E-002	5.04215E-001	3.57250E+000	9	...........
	42	0.573333	4.98614E-001	-8.87415E-005	0.00000E+000	-4.42478E-005	-5.39641E-002	4.98733E-001	3.57250E+000	9	...........
	43	0.586667	4.93195E-001	-8.86103E-005	0.00000E+000	-4.37021E-005	-5.39641E-002	4.93316E-001	3.57250E+000	9	...........
	44	0.6	4.87803E-001	-8.88322E-005	0.00000E+000	-4.33326E-005	-5.39641E-002	4.87909E-001	3.57250E+000	9	...........
	45	0.613333	4.82509E-001	-8.88207E-005	0.00000E+000	-4.28568E-005	-5.39641E-002	4.82560E-001	3.57250E+000	9	...........
	46	0.626667	4.77149E-001	-8.87676E-005	0.00000E+000	-4.23554E-005	-5.39641E-002	4.77213E-001	3.57250E+000	9	...........
	47	0.64	4.71812E-001	-8.88791E-005	0.00000E+000	-4.19342E-005	-5.39641E-002	4.71874E-001	3.57250E+000	9	...........
	48	0.653333	4.66511E-001	-8.86634E-005	0.00000E+000	-4.13624E-005	-5.39641E-002	4.66569E-001	3.57250E+000	9	...........
	49	0.666667	4.61231E-001	-8.85050E-005	0.00000E+000	-4.08212E-005	-5.39641E-002	4.61291E-001	3.57250E+000	9	...........
	50	0.68	4.55970E-001	-8.88301E-005	0.00000E+000	-4.05038E-005	-5.39641E-002	4.56023E-001	3.57250E+000	9	...........
	51	0.693333	4.50744E-001	-8.87822E-005	0.00000E+000	-4.00180E-005	-5.39641E-002	4.50799E-001	3.57250E+000	9	...........
	52	0.706667	4.45546E-001	-8.88697E-005	0.00000E+000	-3.95956E-005	-5.39641E-002	4.45602E-001	3.57250E+000	9	...........
	53	0.72	4.40368E-001	-8.86228E-005	0.00000E+000	-3.90266E-005	-5.39641E-002	4.40425E-001	3.57250E+000	9	...........
	54	0.733333	4.35205E-001	-8.88499E-005	0.00000E+000	-3.86679E-005	-5.39641E-002	4.35262E-001	3.57250E+000	9	...........
	55	0.746667	4.30059E-001	-8.87332E-005	0.00000E+000	-3.81605E-005	-5.39641E-002	4.30112E-001	3.57250E+000	9	...........
	56	0.76	4.24924E-001	-8.90155E-005	0.00000E+000	-3.78249E-005	-5.39641E-002	4.24975E-001	3.57250E+000	9	...........
	57	0.773333	4.19803E-001	-8.86603E-005	0.00000E+000	-3.72199E-005	-5.39641E-002	4.19858E-001	3.57250E+000	9	...........
	58	0.786667	4.14702E-001	-8.84842E-005	0.00000E+000	-3.66945E-005	-5.39641E-002	4.14753E-001	3.57250E+000	9	...........
	59	0.8	4.09620E-001	-8.86707E-005	0.00000E+000	-3.63213E-005	-5.39641E-002	4.09670E-001	3.57250E+000	9	...........
	60	0.813333	4.04564E-001	-8.86332E-005	0.00000E+000	-3.58578E-005	-5.39641E-002	4.04611E-001	3.57250E+000	9	...........
	61	0.826667	3.99528E-001	-8.86707E-005	0.00000E+000	-3.54264E-005	-5.39641E-002	3.99570E-001	3.57250E+000	9	...........
	62	0.84	3.94485E-001	-8.86999E-005	0.00000E+000	-3.49908E-005	-5.39641E-002	3.94529E-001	3.57250E+000	9	...........
	63	0.853333	3.89488E-001	-8.87520E-005	0.00000E+000	-3.45678E-005	-5.39641E-002	3.89533E-001	3.57250E+000	9	...........
	64	0.866667	3.84502E-001	-8.86436E-005	0.00000E+000	-3.40836E-005	-5.39641E-002	3.84546E-001	3.57250E+000	9	...........
	65	0.88	3.79530E-001	-8.89655E-005	0.00000E+000	-3.37651E-005	-5.39641E-002	3.79578E-001	3.57250E+000	9	...........
	66	0.893333	3.74564E-001	-8.86530E-005	0.00000E+000	-3.32062E-005	-5.39641E-002	3.74607E-001	3.57250E+000	9	...........
	67	0.906667	3.69604E-001	-8.88655E-005	0.00000E+000	-3.28450E-005	-5.39641E-002	3.69648E-001	3.57250E+000	9	...........
	68	0.92	3.64674E-001	-8.87509E-005	0.00000E+000	-3.23652E-005	-5.39641E-002	3.64722E-001	3.57250E+000	9	...........
	69	0.933333	3.59780E-001	-8.86394E-005	0.00000E+000	-3.18907E-005	-5.39641E-002	3.59829E-001	3.57250E+000	9	...........
	70	0.946667	3.54899E-001	-8.86780E-005	0.00000E+000	-3.14717E-005	-5.39641E-002	3.54944E-001	3.57250E+000	9	...........
	71	0.96	3.50006E-001	-8.88374E-005	0.00000E+000	-3.10936E-005	-5.39641E-002	3.50044E-001	3.57250E+000	9	...........
	72	0.97333	3.45140E-001	-8.88770E-005	0.00000E+000	-3.06750E-005	-5.39641E-002	3.45177E-001	3.57250E+000	9	...........
	73	0.98667	3.40284E-001	-8.87770E-005	0.00000E+000	-3.02094E-005	-5.39641E-002	3.40321E-001	3.57250E+000	9	...........
	74	1	3.35454E-001	-8.87384E-005	0.00000E+000	-2.97677E-005	-5.39641E-002	3.35491E-001	3.57250E+000	9	...........
	75	1.01333	3.30645E-001	-8.88489E-005	0.00000E+000	-2.93774E-005	-5.39641E-002	3.30681E-001	3.57250E+000	9	...........
	76	1.02667	3.25845E-001	-8.84967E-005	0.00000E+000	-2.88362E-005	-5.39641E-002	3.25881E-001	3.57250E+000	9	...........
	77	1.04	3.21061E-001	-8.91041E-005	0.00000E+000	-2.86079E-005	-5.39641E-002	3.21098E-001	3.57250E+000	9	...........
	78	1.05333	3.16305E-001	-8.86822E-005	0.00000E+000	-2.80506E-005	-5.39641E-002	3.16339E-001	3.57250E+000	9	...........
	79	1.06667	3.11562E-001	-8.87030E-005	0.00000E+000	-2.76365E-005	-5.39641E-002	3.11601E-001	3.57250E+000	9	...........
	80	1.08	3.06861E-001	-8.88520E-005	0.00000E+000	-2.72652E-005	-5.39641E-002	3.06900E-001	3.57250E+000	9	...........
	81	1.09333	3.02171E-001	-8.88843E-005	0.00000E+000	-2.68582E-005	-5.39641E-002	3.02211E-001	3.57250E+000	9	...........
	82	1.10667	2.97469E-001	-8.89072E-005	0.00000E+000	-2.64472E-005	-5.39641E-002	2.97504E-001	3.57250E+000	9	...........
	83	1.12	2.92792E-001	-8.85915E-005	0.00000E+000	-2.59388E-005	-5.39641E-002	2.92834E-001	3.57250E+000	9	...........
	84	1.13333	2.88142E-001	-8.87322E-005	0.00000E+000	-2.55675E-005	-5.39641E-002	2.88180E-001	3.57250E+000	9	...........
	85	1.14667	2.83513E-001	-8.86103E-005	0.00000E+000	-2.51221E-005	-5.39641E-002	2.83554E-001	3.57250E+000	9	...........
	86	1.16	2.78909E-001	-8.87551E-005	0.00000E+000	-2.47546E-005	-5.39641E-002	2.78941E-001	3.57250E+000	9	...........
	87	1.17333	2.74313E-001	-8.88384E-005	0.00000E+000	-2.43696E-005	-5.39641E-002	2.74346E-001	3.57257E+000	9	...........
	88	1.18667	2.69726E-001	-8.87561E-005	0.00000E+000	-2.39399E-005	-5.39641E-002	2.69758E-001	3.57280E+000	9	...........
	89	1.2	2.65154E-001	-8.86749E-005	0.00000E+000	-2.35125E-005	-5.39641E-002	2.65190E-001	3.57280E+000	9	...........
	90	1.21333	2.60607E-001	-8.88009E-005	0.00000E+000	-2.31421E-005	-5.39641E-002	2.60638E-001	3.57280E+000	9	...........
	91	1.22667	2.56075E-001	-8.86696E-005	0.00000E+000	-2.27061E-005	-5.39641E-002	2.56110E-001	3.57280E+000	9	...........
	92	1.24	2.51555E-001	-8.86165E-005	0.00000E+000	-2.22919E-005	-5.39641E-002	2.51587E-001	3.57280E+000	9	...........
	93	1.25333	2.47064E-001	-8.85561E-005	0.00000E+000	-2.18790E-005	-5.39641E-002	2.47092E-001	3.57280E+000	9	...........
	94	1.26667	2.42602E-001	-8.88739E-005	0.00000E+000	-2.15610E-005	-5.39641E-002	2.42625E-001	3.57280E+000	9	...........
	95	1.28	2.38150E-001	-8.85373E-005	0.00000E+000	-2.10852E-005	-5.39641E-002	2.38168E-001	3.57280E+000	9	...........
	96	1.29333	2.33721E-001	-8.86947E-005	0.00000E+000	-2.07298E-005	-5.39641E-002	2.33743E-001	3.57280E+000	9	...........
	97	1.30667	2.29321E-001	-8.87030E-005	0.00000E+000	-2.03415E-005	-5.39641E-002	2.29338E-001	3.57280E+000	9	...........
	98	1.32	2.24949E-001	-8.86165E-005	0.00000E+000	-1.99342E-005	-5.39641E-002	2.24966E-001	3.57280E+000	9	...........
	99	1.33333	2.20579E-001	-8.88895E-005	0.00000E+000	-1.96072E-005	-5.39641E-002	2.20598E-001	3.57280E+000	9	...........
	100	1.34667	2.16233E-001	-8.87759E-005	0.00000E+000	-1.91963E-005	-5.39641E-002	2.16259E-001	3.57280E+000	9	...........
	101	1.36	2.11911E-001	-8.85415E-005	0.00000E+000	-1.87629E-005	-5.39641E-002	2.11933E-001	3.57280E+000	9	...........
	102	1.37333	2.07598E-001	-8.88322E-005	0.00000E+000	-1.84414E-005	-5.39641E-002	2.07619E-001	3.57280E+000	9	...........
	103	1.38667	2.03297E-001	-8.87728E-005	0.00000E+000	-1.80473E-005	-5.39641E-002	2.03322E-001	3.57280E+000	9	...........
	104	1.4	1.99024E-001	-8.85811E-005	0.00000E+000	-1.76297E-005	-5.39641E-002	1.99049E-001	3.57280E+000	9	...........
	105	1.41333	1.94764E-001	-8.88134E-005	0.00000E+000	-1.72977E-005	-5.39641E-002	1.94784E-001	3.57280E+000	9	...........
	106	1.42667	1.90519E-001	-8.87322E-005	0.00000E+000	-1.69051E-005	-5.39641E-002	1.90539E-001	3.57280E+000	9	...........
	107	1.44	1.86331E-001	-8.88249E-005	0.00000E+000	-1.65508E-005	-5.39641E-002	1.86353E-001	3.57280E+000	9	...........
	108	1.45333	1.82167E-001	-8.86207E-005	0.00000E+000	-1.61437E-005	-5.39641E-002	1.82189E-001	3.57280E+000	9	...........
	109	1.46667	1.78007E-001	-8.86019E-005	0.00000E+000	-1.57717E-005	-5.39641E-002	1.78028E-001	3.57280E+000	9	...........
	110	1.48	1.73860E-001	-8.87290E-005	0.00000E+000	-1.54265E-005	-5.39641E-002	1.73877E-001	3.57280E+000	9	...........
	111	1.49333	1.69725E-001	-8.87634E-005	0.00000E+000	-1.50654E-005	-5.39641E-002	1.69743E-001	3.57280E+000	9	...........
	112	1.50667	1.65618E-001	-8.87467E-005	0.00000E+000	-1.46981E-005	-5.39641E-002	1.65637E-001	3.57280E+000	9	...........
	113	1.52	1.61532E-001	-8.87801E-005	0.00000E+000	-1.43408E-005	-5.39641E-002	1.61538E-001	3.57280E+000	9	...........
	114	1.53333	1.57454E-001	-8.85186E-005	0.00000E+000	-1.39376E-005	-5.39641E-002	1.57462E-001	3.57280E+000	9	...........
	115	1.54667	1.53406E-001	-8.88301E-005	0.00000E+000	-1.36270E-005	-5.39641E-002	1.53415E-001	3.57280E+000	9	...........
	116	1.56	1.49371E-001	-8.88134E-005	0.00000E+000	-1.32661E-005	-5.39641E-002	1.49378E-001	3.57280E+000	9	...........
	117	1.57333	1.45352E-001	-8.87592E-005	0.00000E+000	-1.29013E-005	-5.39641E-002	1.45360E-001	3.57280E+000	9	...........
	118	1.58667	1.41339E-001	-8.87895E-005	0.00000E+000	-1.25494E-005	-5.39641E-002	1.41349E-001	3.57280E+000	9	...........
	119	1.6	1.37353E-001	-8.86519E-005	0.00000E+000	-1.21766E-005	-5.39641E-002	1.37366E-001	3.57280E+000	9	...........
	120	1.61333	1.33368E-001	-8.88249E-005	0.00000E+000	-1.18464E-005	-5.39641E-002	1.33377E-001	3.57280E+000	9	...........
	121	1.62667	1.29403E-001	-8.88645E-005	0.00000E+000	-1.14993E-005	-5.39641E-002	1.29411E-001	3.57280E+000	9	...........
	122	1.64	1.25446E-001	-8.86728E-005	0.00000E+000	-1.11237E-005	-5.39641E-002	1.25457E-001	3.57280E+000	9	...........
	123	1.65333	1.21510E-001	-8.86415E-005	0.00000E+000	-1.07709E-005	-5.39641E-002	1.21521E-001	3.57280E+000	9	...........
	124	1.66667	1.17590E-001	-8.87832E-005	0.00000E+000	-1.04400E-005	-5.39641E-002	1.17601E-001	3.57280E+000	9	...........
	125	1.68	1.13682E-001	-8.87738E-005	0.00000E+000	-1.00920E-005	-5.39641E-002	1.13694E-001	3.57280E+000	9	...........
	126	1.69333	1.09803E-001	-8.85686E-005	0.00000E+000	-9.72508E-006	-5.39641E-002	1.09817E-001	3.57280E+000	9	...........
	127	1.70667	1.05931E-001	-8.86144E-005	0.00000E+000	-9.38702E-006	-5.39641E-002	1.05945E-001	3.57280E+000	9	...........
	128	1.72	1.02064E-001	-8.89155E-005	0.00000E+000	-9.07511E-006	-5.39641E-002	1.02075E-001	3.57280E+000	9	...........
	129	1.73333	9.82299E-002	-8.88301E-005	0.00000E+000	-8.72577E-006	-5.39641E-002	9.82429E-002	3.57280E+000	9	...........
	130	1.74667	9.44220E-002	-8.87259E-005	0.00000E+000	-8.37767E-006	-5.39641E-002	9.44311E-002	3.57280E+000	9	...........
	131	1.76	9.06216E-002	-8.88009E-005	0.00000E+000	-8.04729E-006	-5.39641E-002	9.06334E-002	3.57280E+000	9	...........
	132	1.77333	8.68275E-002	-8.87301E-005	0.00000E+000	-7.70421E-006	-5.39641E-002	8.68380E-002	3.57280E+000	9	...........
	133	1.78667	8.30329E-002	-8.89926E-005	0.00000E+000	-7.38932E-006	-5.39641E-002	8.30395E-002	3.57280E+000	9	...........
	134	1.8	7.92522E-002	-8.88593E-005	0.00000E+000	-7.04230E-006	-5.39641E-002	7.92563E-002	3.57280E+000	9	...........
	135	1.81333	7.54816E-002	-8.87155E-005	0.00000E+000	-6.69638E-006	-5.39641E-002	7.54816E-002	3.57280E+000	9	...........
	136	1.82667	7.17157E-002	-8.86207E-005	0.00000E+000	-6.35549E-006	-5.39641E-002	7.17225E-002	3.57280E+000	9	...........
	137	1.84	6.79618E-002	-8.85227E-005	0.00000E+000	-6.01616E-006	-5.39641E-002	6.79620E-002	3.57280E+000	9	...........
	138	1.85333	6.42335E-002	-8.87572E-005	0.00000E+000	-5.70118E-006	-5.39641E-002	6.42344E-002	3.57280E+000	9	...........
	139	1.86667	6.05161E-002	-8.86446E-005	0.00000E+000	-5.36443E-006	-5.39641E-002	6.05142E-002	3.57280E+000	9	...........
	140	1.88	5.68204E-002	-8.89603E-005	0.00000E+000	-5.05476E-006	-5.39641E-002	5.68243E-002	3.57280E+000	9	...........
	141	1.89333	5.31713E-002	-8.88238E-005	0.00000E+000	-4.72288E-006	-5.39641E-002	5.31648E-002	3.57280E+000	9	...........
	142	1.90667	4.95381E-002	-8.89385E-005	0.00000E+000	-4.40584E-006	-5.39641E-002	4.95408E-002	3.57280E+000	9	...........
	143	1.92	4.59235E-002	-8.89218E-005	0.00000E+000	-4.08360E-006	-5.39641E-002	4.59334E-002	3.57280E+000	9	...........
	144	1.93333	4.22982E-002	-8.88197E-005	0.00000E+000	-3.75691E-006	-5.39641E-002	4.23064E-002	3.57280E+000	9	...........
	145	1.94667	3.86981E-002	-8.89312E-005	0.00000E+000	-3.44147E-006	-5.39641E-002	3.87022E-002	3.57280E+000	9	...........
	146	1.96	3.51059E-002	-8.89780E-005	0.00000E+000	-3.12365E-006	-5.39641E-002	3.51090E-002	3.57280E+000	9	...........
	147	1.97333	3.15286E-002	-8.87770E-005	0.00000E+000	-2.79901E-006	-5.39641E-002	3.15343E-002	3.57280E+000	9	...........
	148	1.98667	2.79710E-002	-8.86186E-005	0.00000E+000	-2.47875E-006	-5.39641E-002	2.79727E-002	3.57280E+000	9	...........
	149	2	2.44164E-002	-8.90468E-005	0.00000E+000	-2.17420E-006	-5.39641E-002	2.44150E-002	3.57280E+000	9	...........
	150	2.01333	2.08767E-002	-8.89499E-005	0.00000E+000	-1.85698E-006	-5.39641E-002	2.08722E-002	3.57280E+000	9	...........
	151	2.02667	1.73633E-002	-8.89228E-005	0.00000E+000	-1.54399E-006	-5.39641E-002	1.73495E-002	3.57280E+000	9	...........
	152	2.04	1.38570E-002	-8.85769E-005	0.00000E+000	-1.22741E-006	-5.39641E-002	1.38498E-002	3.57280E+000	9	...........
	153	2.05333	1.03869E-002	-8.89280E-005	0.00000E+000	-9.23686E-007	-5.39641E-002	1.03802E-002	3.57280E+000	9	...........
	154	2.06667	6.93720E-003	-8.88009E-005	0.00000E+000	-6.16030E-007	-5.39641E-002	6.92682E-003	3.57280E+000	9	...........
	155	2.08	3.49343E-003	-8.88686E-005	0.00000E+000	-3.10456E-007	-5.39641E-002	3.48535E-003	3.57280E+000	9	...........
	156	2.08833	7.13612E-004	-8.85348E-005	0.00000E+000	-6.31795E-008	-5.39641E-002	7.01875E-004	3.57280E+000	9	...........
STARTTIMEOFFSET	QUANT	1510.816	Start Time Offset (s)
