EXPLAIN
TAG	PWR800_DISCHARGE
TITLE	LABEL	PWR Cyclic Charge Discharge (Cell) - Discharge Step	Test &Identifier
DATE	LABEL	10-7-2017	Date
TIME	LABEL	15:02:49	Time
NOTES	NOTES	3	&Notes...
	supercap test cell
	0.9mg
	6M KOH
PSTAT	PSTAT	IFC5000-01520	Potentiostat
CAPACITY	QUANT	1.00000E-003	Capacity (A-hr)
CELLTYPE	SELECTOR	1	&Cell Type
WORKINGCONNECTION	SELECTOR	0	&Working Lead
MAXDISCHARGETIME	VARIABLEANDUNITS	1.00000E+002	s	1.00000E+002	second(s)	Max &Discharge Time
DISCHARGEMODE	MULTIPARAM	0	9.00000E-005	&Discharge Mode	Constant Current	Amp(s)
SAMPLETIME	QUANT	1.00000E-002	Sa&mple Period (s)
DISCHARGESTOPAT1	MULTIPARAM	3	0.00000E+000	Discharge Stop At &1	Voltage < Limit	V
DISCHARGESTOPAT2	MULTIPARAM	0	0.00000E+000	Discharge Stop At &2	None	N/A
AESBHCSELECTOR	TOGGLE	F	Save Both Half Cells
IRCOMP	TOGGLE	F	IR &Measure
EOC	QUANT	0	Open Circuit (V)
SEQUENCER	TOGGLE	TRUE	Run as Sequence
PSTATMODEL	IQUANT	53	Pstat Model
PSTATSECTION	LABEL	IFC5000-01520	Pstat Section
PSTATSERIALNO	LABEL	01520	Pstat Serial Number
CTRLMODE	IQUANT	0	Control Mode
ELECTROMETER	IQUANT	1	RE=0 or CS=1
IESTAB	IQUANT	0	I/E Stability
CASPEED	IQUANT	4	Control Amp Speed
CONVENTION	IQUANT	1	Current Convention
ICHRANGE	IQUANT	2	Ich Range
ICHRANGEMODE	TOGGLE	T	Ich Auto Range
ICHOFFSETENABLE	TOGGLE	F	Ich Offset Enable
ICHOFFSET	QUANT	0	Ich Offset (V)
ICHFILTER	IQUANT	1	Ich Filter
VCHRANGE	IQUANT	2	Vch Range
VCHRANGEMODE	TOGGLE	T	Vch Auto Range
VCHOFFSETENABLE	TOGGLE	F	Vch Offset Enable
VCHOFFSET	QUANT	0	Vch Offset (V)
VCHFILTER	IQUANT	1	Vch Filter
IERANGELOWERLIMIT	IQUANT	9	I/E Range Lower Limit
IERANGEMODE	TOGGLE	F	I/E AutoRange
IERANGE	IQUANT	9	I/E Range
ACHSELECT	IQUANT	1	Ach Select
ACHRANGE	IQUANT	2	Ach Range
ACHOFFSETENABLE	TOGGLE	F	Ach Offset Enable
ACHOFFSET	QUANT	0	Ach Offset (V)
ACHFILTER	IQUANT	1	Ach Filter
CABLEID	IQUANT	14	Cable ID
DCCALDATE	LABEL	5-7-2017	DC Calibration Date
ACCALDATE	LABEL	12/3/2015	AC Calibration Date
FRAMEWORKVERSION	QUANT	7.01	Framework Version
INSTRUMENTVERSION	LABEL	4.00	Instrument Version
CURVE	TABLE	173
	Pt	T	Vf	Im	Vu	Pwr	Sig	Ach	Temp	IERange	Over
	#	s	V	A	V	W	V	V	deg C	#	bits
	0	0.013333	8.48825E-001	-8.85405E-005	0.00000E+000	-7.51554E-005	-5.39641E-002	8.48956E-001	3.57100E+000	9	...........
	1	0.026667	8.38007E-001	-8.83790E-005	0.00000E+000	-7.40622E-005	-5.39641E-002	8.38137E-001	3.57100E+000	9	...........
	2	0.04	8.27826E-001	-8.85477E-005	0.00000E+000	-7.33021E-005	-5.39641E-002	8.27920E-001	3.57100E+000	9	...........
	3	0.053333	8.18069E-001	-8.86103E-005	0.00000E+000	-7.24893E-005	-5.39641E-002	8.18176E-001	3.57100E+000	9	...........
	4	0.066667	8.08674E-001	-8.84696E-005	0.00000E+000	-7.15431E-005	-5.39641E-002	8.08780E-001	3.57100E+000	9	...........
	5	0.08	7.99617E-001	-8.85738E-005	0.00000E+000	-7.08251E-005	-5.39641E-002	7.99672E-001	3.57100E+000	9	...........
	6	0.093333	7.90764E-001	-8.85405E-005	0.00000E+000	-7.00146E-005	-5.39641E-002	7.90841E-001	3.57100E+000	9	...........
	7	0.106667	7.82184E-001	-8.84821E-005	0.00000E+000	-6.92093E-005	-5.39641E-002	7.82242E-001	3.57100E+000	9	...........
	8	0.12	7.73797E-001	-8.85884E-005	0.00000E+000	-6.85495E-005	-5.39641E-002	7.73854E-001	3.57100E+000	9	...........
	9	0.133333	7.65601E-001	-8.88093E-005	0.00000E+000	-6.79924E-005	-5.39641E-002	7.65672E-001	3.57100E+000	9	...........
	10	0.146667	7.57625E-001	-8.85665E-005	0.00000E+000	-6.71002E-005	-5.39641E-002	7.57685E-001	3.57100E+000	9	...........
	11	0.16	7.49767E-001	-8.86363E-005	0.00000E+000	-6.64566E-005	-5.39641E-002	7.49811E-001	3.57100E+000	9	...........
	12	0.173333	7.42051E-001	-8.85259E-005	0.00000E+000	-6.56907E-005	-5.39641E-002	7.42121E-001	3.57100E+000	9	...........
	13	0.186667	7.34480E-001	-8.84436E-005	0.00000E+000	-6.49601E-005	-5.39641E-002	7.34556E-001	3.57100E+000	9	...........
	14	0.2	7.27068E-001	-8.87103E-005	0.00000E+000	-6.44984E-005	-5.39641E-002	7.27135E-001	3.57100E+000	9	...........
	15	0.213333	7.19790E-001	-8.86071E-005	0.00000E+000	-6.37785E-005	-5.39641E-002	7.19846E-001	3.57100E+000	9	...........
	16	0.226667	7.12556E-001	-8.85821E-005	0.00000E+000	-6.31197E-005	-5.39641E-002	7.12640E-001	3.57100E+000	9	...........
	17	0.24	7.05487E-001	-8.86488E-005	0.00000E+000	-6.25406E-005	-5.39641E-002	7.05550E-001	3.57100E+000	9	...........
	18	0.253333	6.98507E-001	-8.84113E-005	0.00000E+000	-6.17559E-005	-5.39641E-002	6.98577E-001	3.57100E+000	9	...........
	19	0.266667	6.91623E-001	-8.86540E-005	0.00000E+000	-6.13152E-005	-5.39641E-002	6.91685E-001	3.57100E+000	9	...........
	20	0.28	6.84832E-001	-8.87447E-005	0.00000E+000	-6.07752E-005	-5.39641E-002	6.84892E-001	3.57100E+000	9	...........
	21	0.293333	6.78116E-001	-8.87134E-005	0.00000E+000	-6.01580E-005	-5.39641E-002	6.78174E-001	3.57100E+000	9	...........
	22	0.306667	6.71491E-001	-8.88124E-005	0.00000E+000	-5.96367E-005	-5.39641E-002	6.71542E-001	3.57100E+000	9	...........
	23	0.32	6.64935E-001	-8.86113E-005	0.00000E+000	-5.89207E-005	-5.39641E-002	6.64989E-001	3.57100E+000	9	...........
	24	0.333333	6.58460E-001	-8.84717E-005	0.00000E+000	-5.82550E-005	-5.39641E-002	6.58478E-001	3.57100E+000	9	...........
	25	0.346667	6.52047E-001	-8.86676E-005	0.00000E+000	-5.78155E-005	-5.39641E-002	6.52088E-001	3.57100E+000	9	...........
	26	0.36	6.45709E-001	-8.83696E-005	0.00000E+000	-5.70610E-005	-5.39641E-002	6.45748E-001	3.57100E+000	9	...........
	27	0.373333	6.39448E-001	-8.84571E-005	0.00000E+000	-5.65637E-005	-5.39641E-002	6.39474E-001	3.57100E+000	9	...........
	28	0.386667	6.33234E-001	-8.87269E-005	0.00000E+000	-5.61849E-005	-5.39641E-002	6.33254E-001	3.57100E+000	9	...........
	29	0.4	6.27099E-001	-8.85071E-005	0.00000E+000	-5.55028E-005	-5.39641E-002	6.27132E-001	3.57100E+000	9	...........
	30	0.413333	6.21030E-001	-8.87228E-005	0.00000E+000	-5.50995E-005	-5.39641E-002	6.21051E-001	3.57100E+000	9	...........
	31	0.426667	6.14957E-001	-8.87155E-005	0.00000E+000	-5.45563E-005	-5.39641E-002	6.15023E-001	3.57100E+000	9	...........
	32	0.44	6.08899E-001	-8.85227E-005	0.00000E+000	-5.39014E-005	-5.39641E-002	6.09007E-001	3.57100E+000	9	...........
	33	0.453333	6.02958E-001	-8.83758E-005	0.00000E+000	-5.32869E-005	-5.39641E-002	6.03063E-001	3.57100E+000	9	...........
	34	0.466667	5.97053E-001	-8.87363E-005	0.00000E+000	-5.29803E-005	-5.39641E-002	5.97130E-001	3.57100E+000	9	...........
	35	0.48	5.91170E-001	-8.85269E-005	0.00000E+000	-5.23344E-005	-5.39641E-002	5.91251E-001	3.57100E+000	9	...........
	36	0.493333	5.85326E-001	-8.88238E-005	0.00000E+000	-5.19909E-005	-5.39641E-002	5.85415E-001	3.57100E+000	9	...........
	37	0.506667	5.79542E-001	-8.83935E-005	0.00000E+000	-5.12278E-005	-5.39641E-002	5.79623E-001	3.57100E+000	9	...........
	38	0.52	5.73812E-001	-8.84467E-005	0.00000E+000	-5.07518E-005	-5.39641E-002	5.73891E-001	3.57100E+000	9	...........
	39	0.533333	5.68105E-001	-8.86457E-005	0.00000E+000	-5.03601E-005	-5.39641E-002	5.68192E-001	3.57100E+000	9	...........
	40	0.546667	5.62372E-001	-8.84842E-005	0.00000E+000	-4.97610E-005	-5.39641E-002	5.62481E-001	3.57100E+000	9	...........
	41	0.56	5.56678E-001	-8.86863E-005	0.00000E+000	-4.93698E-005	-5.39641E-002	5.56767E-001	3.57100E+000	9	...........
	42	0.573333	5.51078E-001	-8.84727E-005	0.00000E+000	-4.87553E-005	-5.39641E-002	5.51147E-001	3.57100E+000	9	...........
	43	0.586667	5.45474E-001	-8.83175E-005	0.00000E+000	-4.81749E-005	-5.39641E-002	5.45537E-001	3.57100E+000	9	...........
	44	0.6	5.39896E-001	-8.86478E-005	0.00000E+000	-4.78606E-005	-5.39641E-002	5.39972E-001	3.57100E+000	9	...........
	45	0.613333	5.34290E-001	-8.85894E-005	0.00000E+000	-4.73325E-005	-5.39641E-002	5.34371E-001	3.57100E+000	9	...........
	46	0.626667	5.28789E-001	-8.84811E-005	0.00000E+000	-4.67878E-005	-5.39641E-002	5.28869E-001	3.57100E+000	9	...........
	47	0.64	5.23282E-001	-8.83613E-005	0.00000E+000	-4.62379E-005	-5.39641E-002	5.23375E-001	3.57100E+000	9	...........
	48	0.653333	5.17832E-001	-8.85227E-005	0.00000E+000	-4.58399E-005	-5.39641E-002	5.17920E-001	3.57100E+000	9	...........
	49	0.666667	5.12411E-001	-8.85988E-005	0.00000E+000	-4.53990E-005	-5.39641E-002	5.12473E-001	3.57100E+000	9	...........
	50	0.68	5.06940E-001	-8.86790E-005	0.00000E+000	-4.49549E-005	-5.39641E-002	5.07064E-001	3.57100E+000	9	...........
	51	0.693333	5.01546E-001	-8.84206E-005	0.00000E+000	-4.43470E-005	-5.39641E-002	5.01628E-001	3.57100E+000	9	...........
	52	0.706667	4.96181E-001	-8.84540E-005	0.00000E+000	-4.38892E-005	-5.39641E-002	4.96270E-001	3.57100E+000	9	...........
	53	0.72	4.90852E-001	-8.85852E-005	0.00000E+000	-4.34822E-005	-5.39641E-002	4.90926E-001	3.57100E+000	9	...........
	54	0.733333	4.85524E-001	-8.84154E-005	0.00000E+000	-4.29279E-005	-5.39641E-002	4.85597E-001	3.57100E+000	9	...........
	55	0.746667	4.80262E-001	-8.86624E-005	0.00000E+000	-4.25812E-005	-5.39641E-002	4.80303E-001	3.57100E+000	9	...........
	56	0.76	4.74997E-001	-8.86353E-005	0.00000E+000	-4.21015E-005	-5.39641E-002	4.75040E-001	3.57100E+000	9	...........
	57	0.773333	4.69748E-001	-8.86936E-005	0.00000E+000	-4.16636E-005	-5.39641E-002	4.69786E-001	3.57100E+000	9	...........
	58	0.786667	4.64507E-001	-8.85530E-005	0.00000E+000	-4.11335E-005	-5.39641E-002	4.64553E-001	3.57100E+000	9	...........
	59	0.8	4.59291E-001	-8.87238E-005	0.00000E+000	-4.07500E-005	-5.39641E-002	4.59337E-001	3.57100E+000	9	...........
	60	0.813333	4.54107E-001	-8.85488E-005	0.00000E+000	-4.02106E-005	-5.39641E-002	4.54147E-001	3.57100E+000	9	...........
	61	0.826667	4.48942E-001	-8.81143E-005	0.00000E+000	-3.95582E-005	-5.39641E-002	4.48982E-001	3.57100E+000	9	...........
	62	0.84	4.43784E-001	-8.83967E-005	0.00000E+000	-3.92290E-005	-5.39641E-002	4.43826E-001	3.57100E+000	9	...........
	63	0.853333	4.38653E-001	-8.86332E-005	0.00000E+000	-3.88792E-005	-5.39641E-002	4.38699E-001	3.57100E+000	9	...........
	64	0.866667	4.33557E-001	-8.84623E-005	0.00000E+000	-3.83534E-005	-5.39641E-002	4.33595E-001	3.57100E+000	9	...........
	65	0.88	4.28457E-001	-8.87572E-005	0.00000E+000	-3.80286E-005	-5.39641E-002	4.28505E-001	3.57100E+000	9	...........
	66	0.893333	4.23388E-001	-8.86853E-005	0.00000E+000	-3.75483E-005	-5.39641E-002	4.23428E-001	3.57100E+000	9	...........
	67	0.906667	4.18341E-001	-8.87655E-005	0.00000E+000	-3.71342E-005	-5.39641E-002	4.18384E-001	3.57100E+000	9	...........
	68	0.92	4.13321E-001	-8.85696E-005	0.00000E+000	-3.66077E-005	-5.39641E-002	4.13360E-001	3.57100E+000	9	...........
	69	0.933333	4.08338E-001	-8.85217E-005	0.00000E+000	-3.61468E-005	-5.39641E-002	4.08374E-001	3.57100E+000	9	...........
	70	0.946667	4.03385E-001	-8.86853E-005	0.00000E+000	-3.57743E-005	-5.39641E-002	4.03418E-001	3.57100E+000	9	...........
	71	0.96	3.98461E-001	-8.86207E-005	0.00000E+000	-3.53119E-005	-5.39641E-002	3.98493E-001	3.57100E+000	9	...........
	72	0.97333	3.93563E-001	-8.85384E-005	0.00000E+000	-3.48454E-005	-5.39641E-002	3.93591E-001	3.57100E+000	9	...........
	73	0.98667	3.88675E-001	-8.85238E-005	0.00000E+000	-3.44069E-005	-5.39641E-002	3.88708E-001	3.57100E+000	9	...........
	74	1	3.83807E-001	-8.87082E-005	0.00000E+000	-3.40469E-005	-5.39641E-002	3.83836E-001	3.57100E+000	9	...........
	75	1.01333	3.78949E-001	-8.87697E-005	0.00000E+000	-3.36392E-005	-5.39641E-002	3.78982E-001	3.57100E+000	9	...........
	76	1.02667	3.74128E-001	-8.85530E-005	0.00000E+000	-3.31302E-005	-5.39641E-002	3.74157E-001	3.57100E+000	9	...........
	77	1.04	3.69334E-001	-8.84196E-005	0.00000E+000	-3.26563E-005	-5.39641E-002	3.69358E-001	3.57100E+000	9	...........
	78	1.05333	3.64578E-001	-8.85873E-005	0.00000E+000	-3.22970E-005	-5.39641E-002	3.64603E-001	3.57100E+000	9	...........
	79	1.06667	3.59842E-001	-8.83508E-005	0.00000E+000	-3.17924E-005	-5.39641E-002	3.59867E-001	3.57100E+000	9	...........
	80	1.08	3.55124E-001	-8.86415E-005	0.00000E+000	-3.14787E-005	-5.39641E-002	3.55151E-001	3.57100E+000	9	...........
	81	1.09333	3.50435E-001	-8.86853E-005	0.00000E+000	-3.10784E-005	-5.39641E-002	3.50457E-001	3.57100E+000	9	...........
	82	1.10667	3.45764E-001	-8.86967E-005	0.00000E+000	-3.06682E-005	-5.39641E-002	3.45789E-001	3.57100E+000	9	...........
	83	1.12	3.41123E-001	-8.86832E-005	0.00000E+000	-3.02519E-005	-5.39641E-002	3.41151E-001	3.57100E+000	9	...........
	84	1.13333	3.36515E-001	-8.86478E-005	0.00000E+000	-2.98313E-005	-5.39641E-002	3.36542E-001	3.57100E+000	9	...........
	85	1.14667	3.31912E-001	-8.87342E-005	0.00000E+000	-2.94519E-005	-5.39641E-002	3.31937E-001	3.57100E+000	9	...........
	86	1.16	3.27336E-001	-8.86061E-005	0.00000E+000	-2.90040E-005	-5.39641E-002	3.27368E-001	3.57100E+000	9	...........
	87	1.17333	3.22782E-001	-8.86540E-005	0.00000E+000	-2.86159E-005	-5.39641E-002	3.22808E-001	3.57100E+000	9	...........
	88	1.18667	3.18243E-001	-8.88957E-005	0.00000E+000	-2.82904E-005	-5.39641E-002	3.18270E-001	3.57100E+000	9	...........
	89	1.2	3.13729E-001	-8.86176E-005	0.00000E+000	-2.78019E-005	-5.39641E-002	3.13759E-001	3.57100E+000	9	...........
	90	1.21333	3.09231E-001	-8.85477E-005	0.00000E+000	-2.73817E-005	-5.39641E-002	3.09256E-001	3.57100E+000	9	...........
	91	1.22667	3.04744E-001	-8.84311E-005	0.00000E+000	-2.69488E-005	-5.39641E-002	3.04773E-001	3.57100E+000	9	...........
	92	1.24	3.00291E-001	-8.86738E-005	0.00000E+000	-2.66280E-005	-5.39641E-002	3.00318E-001	3.57100E+000	9	...........
	93	1.25333	2.95874E-001	-8.86301E-005	0.00000E+000	-2.62234E-005	-5.39641E-002	2.95896E-001	3.57100E+000	9	...........
	94	1.26667	2.91467E-001	-8.87207E-005	0.00000E+000	-2.58592E-005	-5.39641E-002	2.91488E-001	3.57100E+000	9	...........
	95	1.28	2.87070E-001	-8.87259E-005	0.00000E+000	-2.54705E-005	-5.39641E-002	2.87092E-001	3.57100E+000	9	...........
	96	1.29333	2.82701E-001	-8.85998E-005	0.00000E+000	-2.50473E-005	-5.39641E-002	2.82724E-001	3.57100E+000	9	...........
	97	1.30667	2.78357E-001	-8.86280E-005	0.00000E+000	-2.46702E-005	-5.39641E-002	2.78375E-001	3.57100E+000	9	...........
	98	1.32	2.74025E-001	-8.88228E-005	0.00000E+000	-2.43397E-005	-5.39641E-002	2.74049E-001	3.57100E+000	9	...........
	99	1.33333	2.69716E-001	-8.83102E-005	0.00000E+000	-2.38187E-005	-5.39641E-002	2.69739E-001	3.57100E+000	9	...........
	100	1.34667	2.65423E-001	-8.84946E-005	0.00000E+000	-2.34885E-005	-5.39641E-002	2.65442E-001	3.57100E+000	9	...........
	101	1.36	2.61155E-001	-8.85467E-005	0.00000E+000	-2.31244E-005	-5.39641E-002	2.61171E-001	3.57100E+000	9	...........
	102	1.37333	2.56901E-001	-8.86134E-005	0.00000E+000	-2.27649E-005	-5.39641E-002	2.56923E-001	3.57100E+000	9	...........
	103	1.38667	2.52682E-001	-8.86342E-005	0.00000E+000	-2.23962E-005	-5.39641E-002	2.52706E-001	3.57100E+000	9	...........
	104	1.4	2.48491E-001	-8.85196E-005	0.00000E+000	-2.19963E-005	-5.39641E-002	2.48509E-001	3.57100E+000	9	...........
	105	1.41333	2.44315E-001	-8.85717E-005	0.00000E+000	-2.16394E-005	-5.39641E-002	2.44329E-001	3.57100E+000	9	...........
	106	1.42667	2.40156E-001	-8.86342E-005	0.00000E+000	-2.12860E-005	-5.39641E-002	2.40176E-001	3.57100E+000	9	...........
	107	1.44	2.36026E-001	-8.84800E-005	0.00000E+000	-2.08836E-005	-5.39641E-002	2.36041E-001	3.57100E+000	9	...........
	108	1.45333	2.31897E-001	-8.85550E-005	0.00000E+000	-2.05357E-005	-5.39641E-002	2.31912E-001	3.57100E+000	9	...........
	109	1.46667	2.27778E-001	-8.85978E-005	0.00000E+000	-2.01806E-005	-5.39641E-002	2.27790E-001	3.57100E+000	9	...........
	110	1.48	2.23683E-001	-8.86676E-005	0.00000E+000	-1.98334E-005	-5.39641E-002	2.23699E-001	3.57100E+000	9	...........
	111	1.49333	2.19601E-001	-8.85238E-005	0.00000E+000	-1.94399E-005	-5.39641E-002	2.19615E-001	3.57100E+000	9	...........
	112	1.50667	2.15538E-001	-8.87759E-005	0.00000E+000	-1.91346E-005	-5.39641E-002	2.15548E-001	3.57100E+000	9	...........
	113	1.52	2.11477E-001	-8.85009E-005	0.00000E+000	-1.87159E-005	-5.39641E-002	2.11490E-001	3.57100E+000	9	...........
	114	1.53333	2.07443E-001	-8.87186E-005	0.00000E+000	-1.84041E-005	-5.39641E-002	2.07456E-001	3.57100E+000	9	...........
	115	1.54667	2.03432E-001	-8.89155E-005	0.00000E+000	-1.80883E-005	-5.39641E-002	2.03444E-001	3.57100E+000	9	...........
	116	1.56	1.99449E-001	-8.87613E-005	0.00000E+000	-1.77033E-005	-5.39641E-002	1.99466E-001	3.57100E+000	9	...........
	117	1.57333	1.95481E-001	-8.87072E-005	0.00000E+000	-1.73405E-005	-5.39641E-002	1.95495E-001	3.57100E+000	9	...........
	118	1.58667	1.91531E-001	-8.85925E-005	0.00000E+000	-1.69682E-005	-5.39641E-002	1.91542E-001	3.57100E+000	9	...........
	119	1.6	1.87598E-001	-8.86353E-005	0.00000E+000	-1.66278E-005	-5.39641E-002	1.87613E-001	3.57100E+000	9	...........
	120	1.61333	1.83668E-001	-8.86624E-005	0.00000E+000	-1.62844E-005	-5.39641E-002	1.83683E-001	3.57100E+000	9	...........
	121	1.62667	1.79751E-001	-8.86196E-005	0.00000E+000	-1.59295E-005	-5.39641E-002	1.79766E-001	3.57100E+000	9	...........
	122	1.64	1.75847E-001	-8.86103E-005	0.00000E+000	-1.55818E-005	-5.39641E-002	1.75865E-001	3.57100E+000	9	...........
	123	1.65333	1.71950E-001	-8.88593E-005	0.00000E+000	-1.52793E-005	-5.39641E-002	1.71967E-001	3.57100E+000	9	...........
	124	1.66667	1.68081E-001	-8.87509E-005	0.00000E+000	-1.49174E-005	-5.39641E-002	1.68096E-001	3.57100E+000	9	...........
	125	1.68	1.64238E-001	-8.86259E-005	0.00000E+000	-1.45557E-005	-5.39641E-002	1.64250E-001	3.57100E+000	9	...........
	126	1.69333	1.60402E-001	-8.86113E-005	0.00000E+000	-1.42134E-005	-5.39641E-002	1.60412E-001	3.57100E+000	9	...........
	127	1.70667	1.56571E-001	-8.85550E-005	0.00000E+000	-1.38651E-005	-5.39641E-002	1.56577E-001	3.57100E+000	9	...........
	128	1.72	1.52749E-001	-8.86061E-005	0.00000E+000	-1.35345E-005	-5.39641E-002	1.52761E-001	3.57100E+000	9	...........
	129	1.73333	1.48956E-001	-8.84654E-005	0.00000E+000	-1.31775E-005	-5.39641E-002	1.48967E-001	3.57100E+000	9	...........
	130	1.74667	1.45171E-001	-8.86801E-005	0.00000E+000	-1.28738E-005	-5.39641E-002	1.45178E-001	3.57100E+000	9	...........
	131	1.76	1.41397E-001	-8.88322E-005	0.00000E+000	-1.25606E-005	-5.39641E-002	1.41406E-001	3.57100E+000	9	...........
	132	1.77333	1.37642E-001	-8.85561E-005	0.00000E+000	-1.21891E-005	-5.39641E-002	1.37649E-001	3.57100E+000	9	...........
	133	1.78667	1.33883E-001	-8.84998E-005	0.00000E+000	-1.18486E-005	-5.39641E-002	1.33891E-001	3.57100E+000	9	...........
	134	1.8	1.30146E-001	-8.85915E-005	0.00000E+000	-1.15298E-005	-5.39641E-002	1.30150E-001	3.57100E+000	9	...........
	135	1.81333	1.26406E-001	-8.85748E-005	0.00000E+000	-1.11964E-005	-5.39641E-002	1.26414E-001	3.57100E+000	9	...........
	136	1.82667	1.22686E-001	-8.86405E-005	0.00000E+000	-1.08750E-005	-5.39641E-002	1.22698E-001	3.57100E+000	9	...........
	137	1.84	1.18987E-001	-8.84925E-005	0.00000E+000	-1.05295E-005	-5.39641E-002	1.18996E-001	3.57100E+000	9	...........
	138	1.85333	1.15311E-001	-8.84227E-005	0.00000E+000	-1.01961E-005	-5.39641E-002	1.15317E-001	3.57100E+000	9	...........
	139	1.86667	1.11629E-001	-8.82998E-005	0.00000E+000	-9.85682E-006	-5.39641E-002	1.11635E-001	3.57100E+000	9	...........
	140	1.88	1.07967E-001	-8.84957E-005	0.00000E+000	-9.55463E-006	-5.39641E-002	1.07979E-001	3.57100E+000	9	...........
	141	1.89333	1.04313E-001	-8.87207E-005	0.00000E+000	-9.25476E-006	-5.39641E-002	1.04319E-001	3.57100E+000	9	...........
	142	1.90667	1.00661E-001	-8.86353E-005	0.00000E+000	-8.92213E-006	-5.39641E-002	1.00665E-001	3.57100E+000	9	...........
	143	1.92	9.70121E-002	-8.86363E-005	0.00000E+000	-8.59879E-006	-5.39641E-002	9.70151E-002	3.57100E+000	9	...........
	144	1.93333	9.33846E-002	-8.87082E-005	0.00000E+000	-8.28398E-006	-5.39641E-002	9.33888E-002	3.57100E+000	9	...........
	145	1.94667	8.97841E-002	-8.85550E-005	0.00000E+000	-7.95083E-006	-5.39641E-002	8.97856E-002	3.57100E+000	9	...........
	146	1.96	8.61880E-002	-8.84884E-005	0.00000E+000	-7.62664E-006	-5.39641E-002	8.61891E-002	3.57100E+000	9	...........
	147	1.97333	8.26360E-002	-8.85852E-005	0.00000E+000	-7.32033E-006	-5.39641E-002	8.26324E-002	3.57100E+000	9	...........
	148	1.98667	7.91034E-002	-8.86092E-005	0.00000E+000	-7.00929E-006	-5.39641E-002	7.90993E-002	3.57100E+000	9	...........
	149	2	7.55856E-002	-8.87030E-005	0.00000E+000	-6.70467E-006	-5.39641E-002	7.55828E-002	3.57100E+000	9	...........
	150	2.01333	7.20630E-002	-8.86863E-005	0.00000E+000	-6.39100E-006	-5.39641E-002	7.20590E-002	3.57100E+000	9	...........
	151	2.02667	6.85608E-002	-8.83560E-005	0.00000E+000	-6.05776E-006	-5.39641E-002	6.85614E-002	3.57100E+000	9	...........
	152	2.04	6.50896E-002	-8.85405E-005	0.00000E+000	-5.76306E-006	-5.39641E-002	6.50881E-002	3.57100E+000	9	...........
	153	2.05333	6.16287E-002	-8.88978E-005	0.00000E+000	-5.47866E-006	-5.39641E-002	6.16231E-002	3.57100E+000	9	...........
	154	2.06667	5.81620E-002	-8.85967E-005	0.00000E+000	-5.15296E-006	-5.39641E-002	5.81603E-002	3.57100E+000	9	...........
	155	2.08	5.47044E-002	-8.88489E-005	0.00000E+000	-4.86043E-006	-5.39641E-002	5.47044E-002	3.57100E+000	9	...........
	156	2.09333	5.12765E-002	-8.86644E-005	0.00000E+000	-4.54640E-006	-5.39641E-002	5.12749E-002	3.57100E+000	9	...........
	157	2.10667	4.78812E-002	-8.86248E-005	0.00000E+000	-4.24347E-006	-5.39641E-002	4.78837E-002	3.57100E+000	9	...........
	158	2.12	4.44962E-002	-8.86082E-005	0.00000E+000	-3.94273E-006	-5.39641E-002	4.45074E-002	3.57100E+000	9	...........
	159	2.13333	4.11308E-002	-8.86051E-005	0.00000E+000	-3.64440E-006	-5.39641E-002	4.11338E-002	3.57100E+000	9	...........
	160	2.14667	3.77810E-002	-8.88280E-005	0.00000E+000	-3.35601E-006	-5.39641E-002	3.77877E-002	3.57100E+000	9	...........
	161	2.16	3.44391E-002	-8.84238E-005	0.00000E+000	-3.04523E-006	-5.39641E-002	3.44426E-002	3.57100E+000	9	...........
	162	2.17333	3.11192E-002	-8.87530E-005	0.00000E+000	-2.76192E-006	-5.39641E-002	3.11197E-002	3.57100E+000	9	...........
	163	2.18667	2.78159E-002	-8.85686E-005	0.00000E+000	-2.46361E-006	-5.39641E-002	2.78133E-002	3.57100E+000	9	...........
	164	2.2	2.45676E-002	-8.86738E-005	0.00000E+000	-2.17850E-006	-5.39641E-002	2.45613E-002	3.57100E+000	9	...........
	165	2.21333	2.13208E-002	-8.87634E-005	0.00000E+000	-1.89250E-006	-5.39641E-002	2.13144E-002	3.57100E+000	9	...........
	166	2.22667	1.80871E-002	-8.86707E-005	0.00000E+000	-1.60380E-006	-5.39641E-002	1.80787E-002	3.57100E+000	9	...........
	167	2.24	1.48490E-002	-8.85342E-005	0.00000E+000	-1.31464E-006	-5.39641E-002	1.48429E-002	3.57100E+000	9	...........
	168	2.25333	1.16398E-002	-8.85842E-005	0.00000E+000	-1.03110E-006	-5.39641E-002	1.16287E-002	3.57100E+000	9	...........
	169	2.26667	8.44157E-003	-8.82206E-005	0.00000E+000	-7.44720E-007	-5.39641E-002	8.42545E-003	3.57100E+000	9	...........
	170	2.28	5.26951E-003	-8.85509E-005	0.00000E+000	-4.66620E-007	-5.39641E-002	5.25443E-003	3.57100E+000	9	...........
	171	2.29333	2.12130E-003	-8.85946E-005	0.00000E+000	-1.87936E-007	-5.39641E-002	2.10510E-003	3.57100E+000	9	...........
	172	2.29667	1.59041E-004	-8.86498E-005	0.00000E+000	-1.40989E-008	-5.39641E-002	1.44815E-004	3.57100E+000	9	...........
STARTTIMEOFFSET	QUANT	180.7383	Start Time Offset (s)
