EXPLAIN
TAG	PWR800_DISCHARGE
TITLE	LABEL	PWR Cyclic Charge Discharge (Cell) - Discharge Step	Test &Identifier
DATE	LABEL	10-7-2017	Date
TIME	LABEL	15:25:13	Time
NOTES	NOTES	3	&Notes...
	supercap test cell
	0.9mg
	6M KOH
PSTAT	PSTAT	IFC5000-01520	Potentiostat
CAPACITY	QUANT	1.00000E-003	Capacity (A-hr)
CELLTYPE	SELECTOR	1	&Cell Type
WORKINGCONNECTION	SELECTOR	0	&Working Lead
MAXDISCHARGETIME	VARIABLEANDUNITS	1.00000E+002	s	1.00000E+002	second(s)	Max &Discharge Time
DISCHARGEMODE	MULTIPARAM	0	9.00000E-005	&Discharge Mode	Constant Current	Amp(s)
SAMPLETIME	QUANT	1.00000E-002	Sa&mple Period (s)
DISCHARGESTOPAT1	MULTIPARAM	3	0.00000E+000	Discharge Stop At &1	Voltage < Limit	V
DISCHARGESTOPAT2	MULTIPARAM	0	0.00000E+000	Discharge Stop At &2	None	N/A
AESBHCSELECTOR	TOGGLE	F	Save Both Half Cells
IRCOMP	TOGGLE	F	IR &Measure
EOC	QUANT	0	Open Circuit (V)
SEQUENCER	TOGGLE	TRUE	Run as Sequence
PSTATMODEL	IQUANT	53	Pstat Model
PSTATSECTION	LABEL	IFC5000-01520	Pstat Section
PSTATSERIALNO	LABEL	01520	Pstat Serial Number
CTRLMODE	IQUANT	0	Control Mode
ELECTROMETER	IQUANT	1	RE=0 or CS=1
IESTAB	IQUANT	0	I/E Stability
CASPEED	IQUANT	4	Control Amp Speed
CONVENTION	IQUANT	1	Current Convention
ICHRANGE	IQUANT	2	Ich Range
ICHRANGEMODE	TOGGLE	T	Ich Auto Range
ICHOFFSETENABLE	TOGGLE	F	Ich Offset Enable
ICHOFFSET	QUANT	0	Ich Offset (V)
ICHFILTER	IQUANT	1	Ich Filter
VCHRANGE	IQUANT	2	Vch Range
VCHRANGEMODE	TOGGLE	T	Vch Auto Range
VCHOFFSETENABLE	TOGGLE	F	Vch Offset Enable
VCHOFFSET	QUANT	0	Vch Offset (V)
VCHFILTER	IQUANT	1	Vch Filter
IERANGELOWERLIMIT	IQUANT	9	I/E Range Lower Limit
IERANGEMODE	TOGGLE	F	I/E AutoRange
IERANGE	IQUANT	9	I/E Range
ACHSELECT	IQUANT	1	Ach Select
ACHRANGE	IQUANT	2	Ach Range
ACHOFFSETENABLE	TOGGLE	F	Ach Offset Enable
ACHOFFSET	QUANT	0	Ach Offset (V)
ACHFILTER	IQUANT	1	Ach Filter
CABLEID	IQUANT	14	Cable ID
DCCALDATE	LABEL	5-7-2017	DC Calibration Date
ACCALDATE	LABEL	12/3/2015	AC Calibration Date
FRAMEWORKVERSION	QUANT	7.01	Framework Version
INSTRUMENTVERSION	LABEL	4.00	Instrument Version
CURVE	TABLE	157
	Pt	T	Vf	Im	Vu	Pwr	Sig	Ach	Temp	IERange	Over
	#	s	V	A	V	W	V	V	deg C	#	bits
	0	0.013333	8.19494E-001	-8.85009E-005	0.00000E+000	-7.25260E-005	-5.39641E-002	8.19636E-001	3.57220E+000	9	...........
	1	0.026667	8.06599E-001	-8.86811E-005	0.00000E+000	-7.15301E-005	-5.39641E-002	8.06716E-001	3.57220E+000	9	...........
	2	0.04	7.94536E-001	-8.87290E-005	0.00000E+000	-7.04984E-005	-5.39641E-002	7.94665E-001	3.57220E+000	9	...........
	3	0.053333	7.83113E-001	-8.86509E-005	0.00000E+000	-6.94237E-005	-5.39641E-002	7.83224E-001	3.57220E+000	9	...........
	4	0.066667	7.72218E-001	-8.88489E-005	0.00000E+000	-6.86107E-005	-5.39641E-002	7.72331E-001	3.57220E+000	9	...........
	5	0.08	7.61752E-001	-8.87790E-005	0.00000E+000	-6.76276E-005	-5.39641E-002	7.61872E-001	3.57220E+000	9	...........
	6	0.093333	7.51725E-001	-8.86207E-005	0.00000E+000	-6.66184E-005	-5.39641E-002	7.51855E-001	3.57220E+000	9	...........
	7	0.106667	7.42039E-001	-8.86769E-005	0.00000E+000	-6.58018E-005	-5.39641E-002	7.42160E-001	3.57220E+000	9	...........
	8	0.12	7.32653E-001	-8.87738E-005	0.00000E+000	-6.50405E-005	-5.39641E-002	7.32764E-001	3.57220E+000	9	...........
	9	0.133333	7.23559E-001	-8.87988E-005	0.00000E+000	-6.42512E-005	-5.39641E-002	7.23635E-001	3.57220E+000	9	...........
	10	0.146667	7.14644E-001	-8.86290E-005	0.00000E+000	-6.33382E-005	-5.39641E-002	7.14775E-001	3.57220E+000	9	...........
	11	0.16	7.06076E-001	-8.87009E-005	0.00000E+000	-6.26296E-005	-5.39641E-002	7.06184E-001	3.57220E+000	9	...........
	12	0.173333	6.97683E-001	-8.87217E-005	0.00000E+000	-6.18996E-005	-5.39641E-002	6.97790E-001	3.57220E+000	9	...........
	13	0.186667	6.89470E-001	-8.88239E-005	0.00000E+000	-6.12414E-005	-5.39641E-002	6.89612E-001	3.57220E+000	9	...........
	14	0.2	6.81505E-001	-8.84946E-005	0.00000E+000	-6.03095E-005	-5.39641E-002	6.81610E-001	3.57220E+000	9	...........
	15	0.213333	6.73679E-001	-8.86436E-005	0.00000E+000	-5.97173E-005	-5.39641E-002	6.73783E-001	3.57220E+000	9	...........
	16	0.226667	6.66026E-001	-8.86082E-005	0.00000E+000	-5.90154E-005	-5.39641E-002	6.66122E-001	3.57220E+000	9	...........
	17	0.24	6.58535E-001	-8.86769E-005	0.00000E+000	-5.83969E-005	-5.39641E-002	6.58614E-001	3.57220E+000	9	...........
	18	0.253333	6.51183E-001	-8.86894E-005	0.00000E+000	-5.77531E-005	-5.39641E-002	6.51268E-001	3.57220E+000	9	...........
	19	0.266667	6.43958E-001	-8.88134E-005	0.00000E+000	-5.71921E-005	-5.39641E-002	6.44031E-001	3.57220E+000	9	...........
	20	0.28	6.36836E-001	-8.90583E-005	0.00000E+000	-5.67155E-005	-5.39641E-002	6.36917E-001	3.57220E+000	9	...........
	21	0.293333	6.29862E-001	-8.87603E-005	0.00000E+000	-5.59067E-005	-5.39641E-002	6.29962E-001	3.57220E+000	9	...........
	22	0.306667	6.23015E-001	-8.87217E-005	0.00000E+000	-5.52750E-005	-5.39641E-002	6.23099E-001	3.57220E+000	9	...........
	23	0.32	6.16254E-001	-8.86978E-005	0.00000E+000	-5.46604E-005	-5.39641E-002	6.16377E-001	3.57220E+000	9	...........
	24	0.333333	6.09529E-001	-8.89239E-005	0.00000E+000	-5.42017E-005	-5.39641E-002	6.09703E-001	3.57220E+000	9	...........
	25	0.346667	6.02977E-001	-8.87561E-005	0.00000E+000	-5.35179E-005	-5.39641E-002	6.03155E-001	3.57220E+000	9	...........
	26	0.36	5.96504E-001	-8.88249E-005	0.00000E+000	-5.29844E-005	-5.39641E-002	5.96657E-001	3.57220E+000	9	...........
	27	0.373333	5.90135E-001	-8.84977E-005	0.00000E+000	-5.22256E-005	-5.39641E-002	5.90268E-001	3.57220E+000	9	...........
	28	0.386667	5.83777E-001	-8.87415E-005	0.00000E+000	-5.18053E-005	-5.39641E-002	5.83902E-001	3.57220E+000	9	...........
	29	0.4	5.77532E-001	-8.85978E-005	0.00000E+000	-5.11681E-005	-5.39641E-002	5.77668E-001	3.57220E+000	9	...........
	30	0.413333	5.71394E-001	-8.88322E-005	0.00000E+000	-5.07582E-005	-5.39641E-002	5.71486E-001	3.57220E+000	9	...........
	31	0.426667	5.65304E-001	-8.86790E-005	0.00000E+000	-5.01306E-005	-5.39641E-002	5.65411E-001	3.57220E+000	9	...........
	32	0.44	5.59258E-001	-8.87999E-005	0.00000E+000	-4.96621E-005	-5.39641E-002	5.59347E-001	3.57220E+000	9	...........
	33	0.453333	5.53290E-001	-8.86967E-005	0.00000E+000	-4.90750E-005	-5.39641E-002	5.53382E-001	3.57220E+000	9	...........
	34	0.466667	5.47380E-001	-8.86373E-005	0.00000E+000	-4.85183E-005	-5.39641E-002	5.47462E-001	3.57220E+000	9	...........
	35	0.48	5.41520E-001	-8.87686E-005	0.00000E+000	-4.80700E-005	-5.39641E-002	5.41601E-001	3.57220E+000	9	...........
	36	0.493333	5.35712E-001	-8.89385E-005	0.00000E+000	-4.76454E-005	-5.39641E-002	5.35777E-001	3.57220E+000	9	...........
	37	0.506667	5.29941E-001	-8.85832E-005	0.00000E+000	-4.69439E-005	-5.39641E-002	5.30015E-001	3.57220E+000	9	...........
	38	0.52	5.24250E-001	-8.89562E-005	0.00000E+000	-4.66353E-005	-5.39641E-002	5.24322E-001	3.57220E+000	9	...........
	39	0.533333	5.18607E-001	-8.88551E-005	0.00000E+000	-4.60809E-005	-5.39641E-002	5.18642E-001	3.57220E+000	9	...........
	40	0.546667	5.12959E-001	-8.86332E-005	0.00000E+000	-4.54651E-005	-5.39641E-002	5.13040E-001	3.57220E+000	9	...........
	41	0.56	5.07309E-001	-8.87540E-005	0.00000E+000	-4.50257E-005	-5.39641E-002	5.07431E-001	3.57220E+000	9	...........
	42	0.573333	5.01804E-001	-8.86613E-005	0.00000E+000	-4.44906E-005	-5.39641E-002	5.01901E-001	3.57220E+000	9	...........
	43	0.586667	4.96304E-001	-8.87040E-005	0.00000E+000	-4.40241E-005	-5.39641E-002	4.96388E-001	3.57220E+000	9	...........
	44	0.6	4.90844E-001	-8.85759E-005	0.00000E+000	-4.34769E-005	-5.39641E-002	4.90924E-001	3.57220E+000	9	...........
	45	0.613333	4.85445E-001	-8.89749E-005	0.00000E+000	-4.31925E-005	-5.39641E-002	4.85532E-001	3.57220E+000	9	...........
	46	0.626667	4.80093E-001	-8.86665E-005	0.00000E+000	-4.25682E-005	-5.39641E-002	4.80159E-001	3.57220E+000	9	...........
	47	0.64	4.74698E-001	-8.88405E-005	0.00000E+000	-4.21724E-005	-5.39641E-002	4.74756E-001	3.57220E+000	9	...........
	48	0.653333	4.69312E-001	-8.86394E-005	0.00000E+000	-4.15996E-005	-5.39641E-002	4.69369E-001	3.57220E+000	9	...........
	49	0.666667	4.63967E-001	-8.87040E-005	0.00000E+000	-4.11558E-005	-5.39641E-002	4.64024E-001	3.57220E+000	9	...........
	50	0.68	4.58649E-001	-8.85457E-005	0.00000E+000	-4.06114E-005	-5.39641E-002	4.58714E-001	3.57220E+000	9	...........
	51	0.693333	4.53362E-001	-8.87926E-005	0.00000E+000	-4.02552E-005	-5.39641E-002	4.53419E-001	3.57220E+000	9	...........
	52	0.706667	4.48088E-001	-8.86509E-005	0.00000E+000	-3.97234E-005	-5.39641E-002	4.48143E-001	3.57220E+000	9	...........
	53	0.72	4.42864E-001	-8.89135E-005	0.00000E+000	-3.93765E-005	-5.39641E-002	4.42921E-001	3.57220E+000	9	...........
	54	0.733333	4.37650E-001	-8.88499E-005	0.00000E+000	-3.88852E-005	-5.39641E-002	4.37706E-001	3.57220E+000	9	...........
	55	0.746667	4.32456E-001	-8.90312E-005	0.00000E+000	-3.85021E-005	-5.39641E-002	4.32514E-001	3.57220E+000	9	...........
	56	0.76	4.27273E-001	-8.87124E-005	0.00000E+000	-3.79044E-005	-5.39641E-002	4.27333E-001	3.57220E+000	9	...........
	57	0.773333	4.22101E-001	-8.89739E-005	0.00000E+000	-3.75560E-005	-5.39641E-002	4.22152E-001	3.57220E+000	9	...........
	58	0.786667	4.16952E-001	-8.86947E-005	0.00000E+000	-3.69814E-005	-5.39641E-002	4.17005E-001	3.57220E+000	9	...........
	59	0.8	4.11829E-001	-8.86644E-005	0.00000E+000	-3.65146E-005	-5.39641E-002	4.11878E-001	3.57220E+000	9	...........
	60	0.813333	4.06728E-001	-8.86155E-005	0.00000E+000	-3.60424E-005	-5.39641E-002	4.06774E-001	3.57220E+000	9	...........
	61	0.826667	4.01638E-001	-8.89697E-005	0.00000E+000	-3.57336E-005	-5.39641E-002	4.01678E-001	3.57220E+000	9	...........
	62	0.84	3.96549E-001	-8.86863E-005	0.00000E+000	-3.51684E-005	-5.39641E-002	3.96592E-001	3.57220E+000	9	...........
	63	0.853333	3.91487E-001	-8.89301E-005	0.00000E+000	-3.48150E-005	-5.39641E-002	3.91527E-001	3.57220E+000	9	...........
	64	0.866667	3.86442E-001	-8.88697E-005	0.00000E+000	-3.43429E-005	-5.39641E-002	3.86487E-001	3.57220E+000	9	...........
	65	0.88	3.81425E-001	-8.85436E-005	0.00000E+000	-3.37727E-005	-5.39641E-002	3.81469E-001	3.57220E+000	9	...........
	66	0.893333	3.76420E-001	-8.89666E-005	0.00000E+000	-3.34888E-005	-5.39641E-002	3.76463E-001	3.57220E+000	9	...........
	67	0.906667	3.71421E-001	-8.85248E-005	0.00000E+000	-3.28800E-005	-5.39641E-002	3.71456E-001	3.57220E+000	9	...........
	68	0.92	3.66442E-001	-8.86999E-005	0.00000E+000	-3.25033E-005	-5.39641E-002	3.66488E-001	3.57220E+000	9	...........
	69	0.933333	3.61492E-001	-8.82581E-005	0.00000E+000	-3.19046E-005	-5.39641E-002	3.61535E-001	3.57220E+000	9	...........
	70	0.946667	3.56554E-001	-8.85978E-005	0.00000E+000	-3.15899E-005	-5.39641E-002	3.56594E-001	3.57220E+000	9	...........
	71	0.96	3.51622E-001	-8.88343E-005	0.00000E+000	-3.12361E-005	-5.39641E-002	3.51661E-001	3.57220E+000	9	...........
	72	0.97333	3.46704E-001	-8.88791E-005	0.00000E+000	-3.08147E-005	-5.39641E-002	3.46751E-001	3.57220E+000	9	...........
	73	0.98667	3.41820E-001	-8.86551E-005	0.00000E+000	-3.03041E-005	-5.39641E-002	3.41859E-001	3.57220E+000	9	...........
	74	1	3.36948E-001	-8.90030E-005	0.00000E+000	-2.99894E-005	-5.39641E-002	3.36980E-001	3.57220E+000	9	...........
	75	1.01333	3.32076E-001	-8.88791E-005	0.00000E+000	-2.95146E-005	-5.39641E-002	3.32116E-001	3.57220E+000	9	...........
	76	1.02667	3.27222E-001	-8.87374E-005	0.00000E+000	-2.90368E-005	-5.39641E-002	3.27256E-001	3.57220E+000	9	...........
	77	1.04	3.22400E-001	-8.84904E-005	0.00000E+000	-2.85293E-005	-5.39641E-002	3.22443E-001	3.57220E+000	9	...........
	78	1.05333	3.17580E-001	-8.88666E-005	0.00000E+000	-2.82223E-005	-5.39641E-002	3.17618E-001	3.57220E+000	9	...........
	79	1.06667	3.12787E-001	-8.88030E-005	0.00000E+000	-2.77764E-005	-5.39641E-002	3.12825E-001	3.57220E+000	9	...........
	80	1.08	3.08005E-001	-8.88905E-005	0.00000E+000	-2.73787E-005	-5.39641E-002	3.08043E-001	3.57220E+000	9	...........
	81	1.09333	3.03233E-001	-8.88541E-005	0.00000E+000	-2.69435E-005	-5.39641E-002	3.03272E-001	3.57220E+000	9	...........
	82	1.10667	2.98479E-001	-8.89145E-005	0.00000E+000	-2.65391E-005	-5.39641E-002	2.98516E-001	3.57220E+000	9	...........
	83	1.12	2.93763E-001	-8.88655E-005	0.00000E+000	-2.61054E-005	-5.39641E-002	2.93800E-001	3.57220E+000	9	...........
	84	1.13333	2.89070E-001	-8.88572E-005	0.00000E+000	-2.56859E-005	-5.39641E-002	2.89102E-001	3.57220E+000	9	...........
	85	1.14667	2.84397E-001	-8.87686E-005	0.00000E+000	-2.52456E-005	-5.39641E-002	2.84425E-001	3.57220E+000	9	...........
	86	1.16	2.79740E-001	-8.86707E-005	0.00000E+000	-2.48047E-005	-5.39641E-002	2.79772E-001	3.57220E+000	9	...........
	87	1.17333	2.75090E-001	-8.89593E-005	0.00000E+000	-2.44719E-005	-5.39641E-002	2.75125E-001	3.57220E+000	9	...........
	88	1.18667	2.70479E-001	-8.87863E-005	0.00000E+000	-2.40149E-005	-5.39641E-002	2.70504E-001	3.57220E+000	9	...........
	89	1.2	2.65891E-001	-8.85113E-005	0.00000E+000	-2.35343E-005	-5.39641E-002	2.65921E-001	3.57220E+000	9	...........
	90	1.21333	2.61339E-001	-8.88905E-005	0.00000E+000	-2.32305E-005	-5.39641E-002	2.61369E-001	3.57220E+000	9	...........
	91	1.22667	2.56807E-001	-8.87978E-005	0.00000E+000	-2.28039E-005	-5.39641E-002	2.56833E-001	3.57220E+000	9	...........
	92	1.24	2.52273E-001	-8.87269E-005	0.00000E+000	-2.23835E-005	-5.39641E-002	2.52297E-001	3.57220E+000	9	...........
	93	1.25333	2.47764E-001	-8.85800E-005	0.00000E+000	-2.19470E-005	-5.39641E-002	2.47791E-001	3.57220E+000	9	...........
	94	1.26667	2.43267E-001	-8.86738E-005	0.00000E+000	-2.15714E-005	-5.39641E-002	2.43287E-001	3.57220E+000	9	...........
	95	1.28	2.38793E-001	-8.87874E-005	0.00000E+000	-2.12018E-005	-5.39641E-002	2.38812E-001	3.57220E+000	9	...........
	96	1.29333	2.34341E-001	-8.88322E-005	0.00000E+000	-2.08170E-005	-5.39641E-002	2.34359E-001	3.57220E+000	9	...........
	97	1.30667	2.29917E-001	-8.86519E-005	0.00000E+000	-2.03826E-005	-5.39641E-002	2.29936E-001	3.57220E+000	9	...........
	98	1.32	2.25531E-001	-8.87395E-005	0.00000E+000	-2.00135E-005	-5.39641E-002	2.25555E-001	3.57220E+000	9	...........
	99	1.33333	2.21170E-001	-8.89082E-005	0.00000E+000	-1.96638E-005	-5.39641E-002	2.21191E-001	3.57220E+000	9	...........
	100	1.34667	2.16802E-001	-8.87613E-005	0.00000E+000	-1.92436E-005	-5.39641E-002	2.16827E-001	3.57220E+000	9	...........
	101	1.36	2.12457E-001	-8.87592E-005	0.00000E+000	-1.88575E-005	-5.39641E-002	2.12479E-001	3.57220E+000	9	...........
	102	1.37333	2.08141E-001	-8.88624E-005	0.00000E+000	-1.84959E-005	-5.39641E-002	2.08158E-001	3.57220E+000	9	...........
	103	1.38667	2.03854E-001	-8.87853E-005	0.00000E+000	-1.80993E-005	-5.39641E-002	2.03868E-001	3.57220E+000	9	...........
	104	1.4	1.99555E-001	-8.87144E-005	0.00000E+000	-1.77034E-005	-5.39641E-002	1.99577E-001	3.57220E+000	9	...........
	105	1.41333	1.95260E-001	-8.87363E-005	0.00000E+000	-1.73267E-005	-5.39641E-002	1.95278E-001	3.57220E+000	9	...........
	106	1.42667	1.90994E-001	-8.86582E-005	0.00000E+000	-1.69332E-005	-5.39641E-002	1.91015E-001	3.57220E+000	9	...........
	107	1.44	1.86747E-001	-8.84936E-005	0.00000E+000	-1.65259E-005	-5.39641E-002	1.86764E-001	3.57220E+000	9	...........
	108	1.45333	1.82532E-001	-8.87134E-005	0.00000E+000	-1.61930E-005	-5.39641E-002	1.82548E-001	3.57220E+000	9	...........
	109	1.46667	1.78350E-001	-8.89749E-005	0.00000E+000	-1.58686E-005	-5.39641E-002	1.78368E-001	3.57220E+000	9	...........
	110	1.48	1.74177E-001	-8.86957E-005	0.00000E+000	-1.54488E-005	-5.39641E-002	1.74193E-001	3.57220E+000	9	...........
	111	1.49333	1.70017E-001	-8.87395E-005	0.00000E+000	-1.50872E-005	-5.39641E-002	1.70037E-001	3.57220E+000	9	...........
	112	1.50667	1.65883E-001	-8.85665E-005	0.00000E+000	-1.46917E-005	-5.39641E-002	1.65907E-001	3.57220E+000	9	...........
	113	1.52	1.61781E-001	-8.86999E-005	0.00000E+000	-1.43500E-005	-5.39641E-002	1.61796E-001	3.57220E+000	9	...........
	114	1.53333	1.57702E-001	-8.88645E-005	0.00000E+000	-1.40141E-005	-5.39641E-002	1.57717E-001	3.57220E+000	9	...........
	115	1.54667	1.53640E-001	-8.89114E-005	0.00000E+000	-1.36603E-005	-5.39641E-002	1.53653E-001	3.57220E+000	9	...........
	116	1.56	1.49577E-001	-8.84967E-005	0.00000E+000	-1.32371E-005	-5.39641E-002	1.49597E-001	3.57220E+000	9	...........
	117	1.57333	1.45521E-001	-8.88186E-005	0.00000E+000	-1.29250E-005	-5.39641E-002	1.45533E-001	3.57245E+000	9	...........
	118	1.58667	1.41490E-001	-8.87780E-005	0.00000E+000	-1.25612E-005	-5.39641E-002	1.41504E-001	3.57260E+000	9	...........
	119	1.6	1.37491E-001	-8.87426E-005	0.00000E+000	-1.22013E-005	-5.39641E-002	1.37499E-001	3.57260E+000	9	...........
	120	1.61333	1.33509E-001	-8.87155E-005	0.00000E+000	-1.18443E-005	-5.39641E-002	1.33520E-001	3.57260E+000	9	...........
	121	1.62667	1.29557E-001	-8.86957E-005	0.00000E+000	-1.14912E-005	-5.39641E-002	1.29576E-001	3.57260E+000	9	...........
	122	1.64	1.25632E-001	-8.88239E-005	0.00000E+000	-1.11592E-005	-5.39641E-002	1.25645E-001	3.57260E+000	9	...........
	123	1.65333	1.21702E-001	-8.86405E-005	0.00000E+000	-1.07878E-005	-5.39641E-002	1.21717E-001	3.57260E+000	9	...........
	124	1.66667	1.17791E-001	-8.86103E-005	0.00000E+000	-1.04375E-005	-5.39641E-002	1.17803E-001	3.57260E+000	9	...........
	125	1.68	1.13897E-001	-8.87634E-005	0.00000E+000	-1.01099E-005	-5.39641E-002	1.13916E-001	3.57260E+000	9	...........
	126	1.69333	1.10014E-001	-8.89332E-005	0.00000E+000	-9.78389E-006	-5.39641E-002	1.10029E-001	3.57260E+000	9	...........
	127	1.70667	1.06137E-001	-8.86686E-005	0.00000E+000	-9.41106E-006	-5.39641E-002	1.06148E-001	3.57260E+000	9	...........
	128	1.72	1.02291E-001	-8.87499E-005	0.00000E+000	-9.07830E-006	-5.39641E-002	1.02305E-001	3.57260E+000	9	...........
	129	1.73333	9.84599E-002	-8.88218E-005	0.00000E+000	-8.74538E-006	-5.39641E-002	9.84713E-002	3.57260E+000	9	...........
	130	1.74667	9.46331E-002	-8.85363E-005	0.00000E+000	-8.37846E-006	-5.39641E-002	9.46357E-002	3.57260E+000	9	...........
	131	1.76	9.08238E-002	-8.87395E-005	0.00000E+000	-8.05965E-006	-5.39641E-002	9.08373E-002	3.57260E+000	9	...........
	132	1.77333	8.70406E-002	-8.86884E-005	0.00000E+000	-7.71949E-006	-5.39641E-002	8.70442E-002	3.57260E+000	9	...........
	133	1.78667	8.32721E-002	-8.86509E-005	0.00000E+000	-7.38214E-006	-5.39641E-002	8.32800E-002	3.57260E+000	9	...........
	134	1.8	7.95205E-002	-8.86103E-005	0.00000E+000	-7.04634E-006	-5.39641E-002	7.95259E-002	3.57260E+000	9	...........
	135	1.81333	7.57743E-002	-8.88572E-005	0.00000E+000	-6.73309E-006	-5.39641E-002	7.57782E-002	3.57260E+000	9	...........
	136	1.82667	7.20246E-002	-8.88197E-005	0.00000E+000	-6.39720E-006	-5.39641E-002	7.20259E-002	3.57260E+000	9	...........
	137	1.84	6.83229E-002	-8.88801E-005	0.00000E+000	-6.07254E-006	-5.39641E-002	6.83277E-002	3.57260E+000	9	...........
	138	1.85333	6.46403E-002	-8.87217E-005	0.00000E+000	-5.73500E-006	-5.39641E-002	6.46433E-002	3.57260E+000	9	...........
	139	1.86667	6.09545E-002	-8.85998E-005	0.00000E+000	-5.40056E-006	-5.39641E-002	6.09569E-002	3.57260E+000	9	...........
	140	1.88	5.72764E-002	-8.88989E-005	0.00000E+000	-5.09181E-006	-5.39641E-002	5.72762E-002	3.57260E+000	9	...........
	141	1.89333	5.36074E-002	-8.85050E-005	0.00000E+000	-4.74453E-006	-5.39641E-002	5.36100E-002	3.57260E+000	9	...........
	142	1.90667	4.99523E-002	-8.87801E-005	0.00000E+000	-4.43477E-006	-5.39641E-002	4.99523E-002	3.57260E+000	9	...........
	143	1.92	4.63447E-002	-8.87197E-005	0.00000E+000	-4.11168E-006	-5.39641E-002	4.63539E-002	3.57260E+000	9	...........
	144	1.93333	4.27287E-002	-8.84717E-005	0.00000E+000	-3.78028E-006	-5.39641E-002	4.27354E-002	3.57260E+000	9	...........
	145	1.94667	3.91222E-002	-8.87165E-005	0.00000E+000	-3.47079E-006	-5.39641E-002	3.91256E-002	3.57260E+000	9	...........
	146	1.96	3.55292E-002	-8.85873E-005	0.00000E+000	-3.14744E-006	-5.39641E-002	3.55358E-002	3.57260E+000	9	...........
	147	1.97333	3.19671E-002	-8.87426E-005	0.00000E+000	-2.83684E-006	-5.39641E-002	3.19711E-002	3.57260E+000	9	...........
	148	1.98667	2.84210E-002	-8.87217E-005	0.00000E+000	-2.52156E-006	-5.39641E-002	2.84198E-002	3.57260E+000	9	...........
	149	2	2.48755E-002	-8.86155E-005	0.00000E+000	-2.20435E-006	-5.39641E-002	2.48796E-002	3.57260E+000	9	...........
	150	2.01333	2.13630E-002	-8.87978E-005	0.00000E+000	-1.89698E-006	-5.39641E-002	2.13591E-002	3.57260E+000	9	...........
	151	2.02667	1.78506E-002	-8.87290E-005	0.00000E+000	-1.58387E-006	-5.39641E-002	1.78470E-002	3.57260E+000	9	...........
	152	2.04	1.43527E-002	-8.87061E-005	0.00000E+000	-1.27318E-006	-5.39641E-002	1.43469E-002	3.57260E+000	9	...........
	153	2.05333	1.08676E-002	-8.88551E-005	0.00000E+000	-9.65640E-007	-5.39641E-002	1.08587E-002	3.57260E+000	9	...........
	154	2.06667	7.40209E-003	-8.86509E-005	0.00000E+000	-6.56202E-007	-5.39641E-002	7.39595E-003	3.57260E+000	9	...........
	155	2.08	3.96367E-003	-8.85019E-005	0.00000E+000	-3.50792E-007	-5.39641E-002	3.95339E-003	3.57260E+000	9	...........
	156	2.09	9.55185E-004	-8.87429E-005	0.00000E+000	-8.47659E-008	-5.39641E-002	9.46026E-004	3.57260E+000	9	...........
STARTTIMEOFFSET	QUANT	1316.566	Start Time Offset (s)
