EXPLAIN
TAG	PWR800_DISCHARGE
TITLE	LABEL	PWR Cyclic Charge Discharge (Cell) - Discharge Step	Test &Identifier
DATE	LABEL	10-7-2017	Date
TIME	LABEL	15:39:19	Time
NOTES	NOTES	3	&Notes...
	supercap test cell
	0.9mg
	6M KOH
PSTAT	PSTAT	IFC5000-01520	Potentiostat
CAPACITY	QUANT	1.00000E-003	Capacity (A-hr)
CELLTYPE	SELECTOR	1	&Cell Type
WORKINGCONNECTION	SELECTOR	0	&Working Lead
MAXDISCHARGETIME	VARIABLEANDUNITS	1.00000E+002	s	1.00000E+002	second(s)	Max &Discharge Time
DISCHARGEMODE	MULTIPARAM	0	9.00000E-005	&Discharge Mode	Constant Current	Amp(s)
SAMPLETIME	QUANT	1.00000E-002	Sa&mple Period (s)
DISCHARGESTOPAT1	MULTIPARAM	3	0.00000E+000	Discharge Stop At &1	Voltage < Limit	V
DISCHARGESTOPAT2	MULTIPARAM	0	0.00000E+000	Discharge Stop At &2	None	N/A
AESBHCSELECTOR	TOGGLE	F	Save Both Half Cells
IRCOMP	TOGGLE	F	IR &Measure
EOC	QUANT	0	Open Circuit (V)
SEQUENCER	TOGGLE	TRUE	Run as Sequence
PSTATMODEL	IQUANT	53	Pstat Model
PSTATSECTION	LABEL	IFC5000-01520	Pstat Section
PSTATSERIALNO	LABEL	01520	Pstat Serial Number
CTRLMODE	IQUANT	0	Control Mode
ELECTROMETER	IQUANT	1	RE=0 or CS=1
IESTAB	IQUANT	0	I/E Stability
CASPEED	IQUANT	4	Control Amp Speed
CONVENTION	IQUANT	1	Current Convention
ICHRANGE	IQUANT	2	Ich Range
ICHRANGEMODE	TOGGLE	T	Ich Auto Range
ICHOFFSETENABLE	TOGGLE	F	Ich Offset Enable
ICHOFFSET	QUANT	0	Ich Offset (V)
ICHFILTER	IQUANT	1	Ich Filter
VCHRANGE	IQUANT	2	Vch Range
VCHRANGEMODE	TOGGLE	T	Vch Auto Range
VCHOFFSETENABLE	TOGGLE	F	Vch Offset Enable
VCHOFFSET	QUANT	0	Vch Offset (V)
VCHFILTER	IQUANT	1	Vch Filter
IERANGELOWERLIMIT	IQUANT	9	I/E Range Lower Limit
IERANGEMODE	TOGGLE	F	I/E AutoRange
IERANGE	IQUANT	9	I/E Range
ACHSELECT	IQUANT	1	Ach Select
ACHRANGE	IQUANT	2	Ach Range
ACHOFFSETENABLE	TOGGLE	F	Ach Offset Enable
ACHOFFSET	QUANT	0	Ach Offset (V)
ACHFILTER	IQUANT	1	Ach Filter
CABLEID	IQUANT	14	Cable ID
DCCALDATE	LABEL	5-7-2017	DC Calibration Date
ACCALDATE	LABEL	12/3/2015	AC Calibration Date
FRAMEWORKVERSION	QUANT	7.01	Framework Version
INSTRUMENTVERSION	LABEL	4.00	Instrument Version
CURVE	TABLE	153
	Pt	T	Vf	Im	Vu	Pwr	Sig	Ach	Temp	IERange	Over
	#	s	V	A	V	W	V	V	deg C	#	bits
	0	0.013333	8.08121E-001	-8.87030E-005	0.00000E+000	-7.16828E-005	-5.39641E-002	8.08267E-001	3.57310E+000	9	...........
	1	0.026667	7.94756E-001	-8.87655E-005	0.00000E+000	-7.05470E-005	-5.39641E-002	7.94887E-001	3.57310E+000	9	...........
	2	0.04	7.82244E-001	-8.86749E-005	0.00000E+000	-6.93654E-005	-5.39641E-002	7.82382E-001	3.57310E+000	9	...........
	3	0.053333	7.70461E-001	-8.87457E-005	0.00000E+000	-6.83751E-005	-5.39641E-002	7.70619E-001	3.57310E+000	9	...........
	4	0.066667	7.59240E-001	-8.88582E-005	0.00000E+000	-6.74647E-005	-5.39641E-002	7.59376E-001	3.57310E+000	9	...........
	5	0.08	7.48519E-001	-8.89051E-005	0.00000E+000	-6.65472E-005	-5.39641E-002	7.48649E-001	3.57310E+000	9	...........
	6	0.093333	7.38214E-001	-8.88051E-005	0.00000E+000	-6.55572E-005	-5.39641E-002	7.38354E-001	3.57310E+000	9	...........
	7	0.106667	7.28322E-001	-8.85019E-005	0.00000E+000	-6.44579E-005	-5.39641E-002	7.28441E-001	3.57310E+000	9	...........
	8	0.12	7.18742E-001	-8.88937E-005	0.00000E+000	-6.38916E-005	-5.39641E-002	7.18848E-001	3.57310E+000	9	...........
	9	0.133333	7.09406E-001	-8.88082E-005	0.00000E+000	-6.30011E-005	-5.39641E-002	7.09558E-001	3.57310E+000	9	...........
	10	0.146667	7.00443E-001	-8.87009E-005	0.00000E+000	-6.21299E-005	-5.39641E-002	7.00557E-001	3.57310E+000	9	...........
	11	0.16	6.91693E-001	-8.87801E-005	0.00000E+000	-6.14086E-005	-5.39641E-002	6.91838E-001	3.57310E+000	9	...........
	12	0.173333	6.83178E-001	-8.89134E-005	0.00000E+000	-6.07437E-005	-5.39641E-002	6.83307E-001	3.57310E+000	9	...........
	13	0.186667	6.74902E-001	-8.87968E-005	0.00000E+000	-5.99291E-005	-5.39641E-002	6.75024E-001	3.57310E+000	9	...........
	14	0.2	6.66789E-001	-8.88020E-005	0.00000E+000	-5.92122E-005	-5.39641E-002	6.66917E-001	3.57310E+000	9	...........
	15	0.213333	6.58866E-001	-8.87801E-005	0.00000E+000	-5.84942E-005	-5.39641E-002	6.59008E-001	3.57310E+000	9	...........
	16	0.226667	6.51126E-001	-8.87520E-005	0.00000E+000	-5.77887E-005	-5.39641E-002	6.51279E-001	3.57310E+000	9	...........
	17	0.24	6.43578E-001	-8.87197E-005	0.00000E+000	-5.70980E-005	-5.39641E-002	6.43701E-001	3.57310E+000	9	...........
	18	0.253333	6.36103E-001	-8.87186E-005	0.00000E+000	-5.64342E-005	-5.39641E-002	6.36252E-001	3.57250E+000	9	...........
	19	0.266667	6.28843E-001	-8.87249E-005	0.00000E+000	-5.57940E-005	-5.39641E-002	6.28958E-001	3.57250E+000	9	...........
	20	0.28	6.21681E-001	-8.87332E-005	0.00000E+000	-5.51638E-005	-5.39641E-002	6.21806E-001	3.57250E+000	9	...........
	21	0.293333	6.14641E-001	-8.86103E-005	0.00000E+000	-5.44635E-005	-5.39641E-002	6.14769E-001	3.57250E+000	9	...........
	22	0.306667	6.07692E-001	-8.89843E-005	0.00000E+000	-5.40751E-005	-5.39641E-002	6.07847E-001	3.57250E+000	9	...........
	23	0.32	6.00902E-001	-8.90562E-005	0.00000E+000	-5.35141E-005	-5.39641E-002	6.01075E-001	3.57250E+000	9	...........
	24	0.333333	5.94246E-001	-8.86176E-005	0.00000E+000	-5.26606E-005	-5.39641E-002	5.94383E-001	3.57250E+000	9	...........
	25	0.346667	5.87635E-001	-8.89301E-005	0.00000E+000	-5.22584E-005	-5.39641E-002	5.87785E-001	3.57250E+000	9	...........
	26	0.36	5.81130E-001	-8.90228E-005	0.00000E+000	-5.17338E-005	-5.39641E-002	5.81237E-001	3.57250E+000	9	...........
	27	0.373333	5.74723E-001	-8.88697E-005	0.00000E+000	-5.10754E-005	-5.39641E-002	5.74822E-001	3.57250E+000	9	...........
	28	0.386667	5.68415E-001	-8.87176E-005	0.00000E+000	-5.04284E-005	-5.39641E-002	5.68490E-001	3.57250E+000	9	...........
	29	0.4	5.62132E-001	-8.88530E-005	0.00000E+000	-4.99471E-005	-5.39641E-002	5.62265E-001	3.57250E+000	9	...........
	30	0.413333	5.55944E-001	-8.90729E-005	0.00000E+000	-4.95196E-005	-5.39641E-002	5.56072E-001	3.57250E+000	9	...........
	31	0.426667	5.49862E-001	-8.88051E-005	0.00000E+000	-4.88306E-005	-5.39641E-002	5.49952E-001	3.57250E+000	9	...........
	32	0.44	5.43836E-001	-8.87634E-005	0.00000E+000	-4.82728E-005	-5.39641E-002	5.43907E-001	3.57250E+000	9	...........
	33	0.453333	5.37840E-001	-8.90770E-005	0.00000E+000	-4.79092E-005	-5.39641E-002	5.37916E-001	3.57250E+000	9	...........
	34	0.466667	5.31886E-001	-8.88384E-005	0.00000E+000	-4.72519E-005	-5.39641E-002	5.31986E-001	3.57250E+000	9	...........
	35	0.48	5.26056E-001	-8.89072E-005	0.00000E+000	-4.67701E-005	-5.39641E-002	5.26130E-001	3.57250E+000	9	...........
	36	0.493333	5.20275E-001	-8.88874E-005	0.00000E+000	-4.62459E-005	-5.39641E-002	5.20337E-001	3.57250E+000	9	...........
	37	0.506667	5.14525E-001	-8.85373E-005	0.00000E+000	-4.55547E-005	-5.39641E-002	5.14611E-001	3.57250E+000	9	...........
	38	0.52	5.08759E-001	-8.87019E-005	0.00000E+000	-4.51279E-005	-5.39641E-002	5.08868E-001	3.57250E+000	9	...........
	39	0.533333	5.03122E-001	-8.89051E-005	0.00000E+000	-4.47301E-005	-5.39641E-002	5.03215E-001	3.57250E+000	9	...........
	40	0.546667	4.97519E-001	-8.88499E-005	0.00000E+000	-4.42045E-005	-5.39641E-002	4.97624E-001	3.57250E+000	9	...........
	41	0.56	4.91951E-001	-8.86936E-005	0.00000E+000	-4.36329E-005	-5.39641E-002	4.92026E-001	3.57250E+000	9	...........
	42	0.573333	4.86441E-001	-8.87895E-005	0.00000E+000	-4.31909E-005	-5.39641E-002	4.86495E-001	3.57250E+000	9	...........
	43	0.586667	4.81028E-001	-8.85082E-005	0.00000E+000	-4.25749E-005	-5.39641E-002	4.81088E-001	3.57250E+000	9	...........
	44	0.6	4.75574E-001	-8.89041E-005	0.00000E+000	-4.22804E-005	-5.39641E-002	4.75630E-001	3.57250E+000	9	...........
	45	0.613333	4.70149E-001	-8.87353E-005	0.00000E+000	-4.17188E-005	-5.39641E-002	4.70210E-001	3.57250E+000	9	...........
	46	0.626667	4.64750E-001	-8.90468E-005	0.00000E+000	-4.13845E-005	-5.39641E-002	4.64812E-001	3.57250E+000	9	...........
	47	0.64	4.59387E-001	-8.88311E-005	0.00000E+000	-4.08079E-005	-5.39641E-002	4.59446E-001	3.57250E+000	9	...........
	48	0.653333	4.54051E-001	-8.88197E-005	0.00000E+000	-4.03287E-005	-5.39641E-002	4.54112E-001	3.57250E+000	9	...........
	49	0.666667	4.48754E-001	-8.89353E-005	0.00000E+000	-3.99100E-005	-5.39641E-002	4.48811E-001	3.57250E+000	9	...........
	50	0.68	4.43480E-001	-8.88113E-005	0.00000E+000	-3.93861E-005	-5.39641E-002	4.43537E-001	3.57250E+000	9	...........
	51	0.693333	4.38219E-001	-8.88113E-005	0.00000E+000	-3.89188E-005	-5.39641E-002	4.38282E-001	3.57250E+000	9	...........
	52	0.706667	4.32983E-001	-8.86321E-005	0.00000E+000	-3.83762E-005	-5.39641E-002	4.33041E-001	3.57250E+000	9	...........
	53	0.72	4.27752E-001	-8.87895E-005	0.00000E+000	-3.79799E-005	-5.39641E-002	4.27812E-001	3.57250E+000	9	...........
	54	0.733333	4.22557E-001	-8.87311E-005	0.00000E+000	-3.74940E-005	-5.39641E-002	4.22617E-001	3.57250E+000	9	...........
	55	0.746667	4.17377E-001	-8.88530E-005	0.00000E+000	-3.70852E-005	-5.39641E-002	4.17439E-001	3.57250E+000	9	...........
	56	0.76	4.12233E-001	-8.88561E-005	0.00000E+000	-3.66294E-005	-5.39641E-002	4.12287E-001	3.57250E+000	9	...........
	57	0.773333	4.07113E-001	-8.87749E-005	0.00000E+000	-3.61414E-005	-5.39641E-002	4.07163E-001	3.57250E+000	9	...........
	58	0.786667	4.01996E-001	-8.89218E-005	0.00000E+000	-3.57462E-005	-5.39641E-002	4.02046E-001	3.57250E+000	9	...........
	59	0.8	3.96902E-001	-8.87603E-005	0.00000E+000	-3.52292E-005	-5.39641E-002	3.96948E-001	3.57250E+000	9	...........
	60	0.813333	3.91815E-001	-8.89312E-005	0.00000E+000	-3.48446E-005	-5.39641E-002	3.91858E-001	3.57250E+000	9	...........
	61	0.826667	3.86747E-001	-8.87124E-005	0.00000E+000	-3.43093E-005	-5.39641E-002	3.86795E-001	3.57250E+000	9	...........
	62	0.84	3.81704E-001	-8.87645E-005	0.00000E+000	-3.38818E-005	-5.39641E-002	3.81748E-001	3.57250E+000	9	...........
	63	0.853333	3.76678E-001	-8.87697E-005	0.00000E+000	-3.34376E-005	-5.39641E-002	3.76723E-001	3.57250E+000	9	...........
	64	0.866667	3.71658E-001	-8.85352E-005	0.00000E+000	-3.29049E-005	-5.39641E-002	3.71700E-001	3.57250E+000	9	...........
	65	0.88	3.66640E-001	-8.88499E-005	0.00000E+000	-3.25759E-005	-5.39641E-002	3.66692E-001	3.57250E+000	9	...........
	66	0.893333	3.61670E-001	-8.87936E-005	0.00000E+000	-3.21140E-005	-5.39641E-002	3.61716E-001	3.57250E+000	9	...........
	67	0.906667	3.56708E-001	-8.89124E-005	0.00000E+000	-3.17157E-005	-5.39641E-002	3.56752E-001	3.57250E+000	9	...........
	68	0.92	3.51748E-001	-8.88322E-005	0.00000E+000	-3.12465E-005	-5.39641E-002	3.51789E-001	3.57250E+000	9	...........
	69	0.933333	3.46799E-001	-8.87551E-005	0.00000E+000	-3.07801E-005	-5.39641E-002	3.46842E-001	3.57250E+000	9	...........
	70	0.946667	3.41883E-001	-8.89072E-005	0.00000E+000	-3.03959E-005	-5.39641E-002	3.41919E-001	3.57250E+000	9	...........
	71	0.96	3.36984E-001	-8.87655E-005	0.00000E+000	-2.99125E-005	-5.39641E-002	3.37027E-001	3.57250E+000	9	...........
	72	0.97333	3.32105E-001	-8.87561E-005	0.00000E+000	-2.94763E-005	-5.39641E-002	3.32139E-001	3.57250E+000	9	...........
	73	0.98667	3.27229E-001	-8.86853E-005	0.00000E+000	-2.90204E-005	-5.39641E-002	3.27269E-001	3.57250E+000	9	...........
	74	1	3.22362E-001	-8.88103E-005	0.00000E+000	-2.86291E-005	-5.39641E-002	3.22400E-001	3.57250E+000	9	...........
	75	1.01333	3.17512E-001	-8.89739E-005	0.00000E+000	-2.82503E-005	-5.39641E-002	3.17542E-001	3.57250E+000	9	...........
	76	1.02667	3.12665E-001	-8.88895E-005	0.00000E+000	-2.77926E-005	-5.39641E-002	3.12709E-001	3.57250E+000	9	...........
	77	1.04	3.07844E-001	-8.88364E-005	0.00000E+000	-2.73477E-005	-5.39641E-002	3.07888E-001	3.57250E+000	9	...........
	78	1.05333	3.03051E-001	-8.88051E-005	0.00000E+000	-2.69125E-005	-5.39641E-002	3.03088E-001	3.57250E+000	9	...........
	79	1.06667	2.98274E-001	-8.89343E-005	0.00000E+000	-2.65268E-005	-5.39641E-002	2.98311E-001	3.57250E+000	9	...........
	80	1.08	2.93522E-001	-8.85686E-005	0.00000E+000	-2.59968E-005	-5.39641E-002	2.93554E-001	3.57250E+000	9	...........
	81	1.09333	2.88767E-001	-8.86957E-005	0.00000E+000	-2.56124E-005	-5.39641E-002	2.88802E-001	3.57250E+000	9	...........
	82	1.10667	2.84041E-001	-8.89770E-005	0.00000E+000	-2.52731E-005	-5.39641E-002	2.84083E-001	3.57250E+000	9	...........
	83	1.12	2.79341E-001	-8.88291E-005	0.00000E+000	-2.48136E-005	-5.39641E-002	2.79379E-001	3.57250E+000	9	...........
	84	1.13333	2.74655E-001	-8.88707E-005	0.00000E+000	-2.44088E-005	-5.39641E-002	2.74692E-001	3.57250E+000	9	...........
	85	1.14667	2.69990E-001	-8.87301E-005	0.00000E+000	-2.39562E-005	-5.39641E-002	2.70024E-001	3.57250E+000	9	...........
	86	1.16	2.65345E-001	-8.86842E-005	0.00000E+000	-2.35320E-005	-5.39641E-002	2.65386E-001	3.57250E+000	9	...........
	87	1.17333	2.60719E-001	-8.87884E-005	0.00000E+000	-2.31488E-005	-5.39641E-002	2.60753E-001	3.57250E+000	9	...........
	88	1.18667	2.56115E-001	-8.87457E-005	0.00000E+000	-2.27291E-005	-5.39641E-002	2.56147E-001	3.57250E+000	9	...........
	89	1.2	2.51529E-001	-8.87707E-005	0.00000E+000	-2.23284E-005	-5.39641E-002	2.51560E-001	3.57250E+000	9	...........
	90	1.21333	2.46963E-001	-8.90291E-005	0.00000E+000	-2.19869E-005	-5.39641E-002	2.46996E-001	3.57250E+000	9	...........
	91	1.22667	2.42411E-001	-8.87978E-005	0.00000E+000	-2.15256E-005	-5.39641E-002	2.42436E-001	3.57250E+000	9	...........
	92	1.24	2.37878E-001	-8.87895E-005	0.00000E+000	-2.11210E-005	-5.39641E-002	2.37903E-001	3.57250E+000	9	...........
	93	1.25333	2.33351E-001	-8.88103E-005	0.00000E+000	-2.07240E-005	-5.39641E-002	2.33376E-001	3.57250E+000	9	...........
	94	1.26667	2.28845E-001	-8.87811E-005	0.00000E+000	-2.03171E-005	-5.39641E-002	2.28865E-001	3.57250E+000	9	...........
	95	1.28	2.24365E-001	-8.89874E-005	0.00000E+000	-1.99657E-005	-5.39641E-002	2.24387E-001	3.57250E+000	9	...........
	96	1.29333	2.19899E-001	-8.89207E-005	0.00000E+000	-1.95536E-005	-5.39641E-002	2.19916E-001	3.57250E+000	9	...........
	97	1.30667	2.15458E-001	-8.89843E-005	0.00000E+000	-1.91724E-005	-5.39641E-002	2.15486E-001	3.57250E+000	9	...........
	98	1.32	2.11052E-001	-8.88364E-005	0.00000E+000	-1.87491E-005	-5.39641E-002	2.11076E-001	3.57250E+000	9	...........
	99	1.33333	2.06651E-001	-8.87072E-005	0.00000E+000	-1.83314E-005	-5.39641E-002	2.06673E-001	3.57250E+000	9	...........
	100	1.34667	2.02267E-001	-8.90874E-005	0.00000E+000	-1.80194E-005	-5.39641E-002	2.02297E-001	3.57250E+000	9	...........
	101	1.36	1.97895E-001	-8.86519E-005	0.00000E+000	-1.75438E-005	-5.39641E-002	1.97921E-001	3.57250E+000	9	...........
	102	1.37333	1.93555E-001	-8.91458E-005	0.00000E+000	-1.72546E-005	-5.39641E-002	1.93577E-001	3.57250E+000	9	...........
	103	1.38667	1.89243E-001	-8.91062E-005	0.00000E+000	-1.68627E-005	-5.39641E-002	1.89260E-001	3.57250E+000	9	...........
	104	1.4	1.84947E-001	-8.87238E-005	0.00000E+000	-1.64092E-005	-5.39641E-002	1.84960E-001	3.57250E+000	9	...........
	105	1.41333	1.80656E-001	-8.88218E-005	0.00000E+000	-1.60462E-005	-5.39641E-002	1.80675E-001	3.57250E+000	9	...........
	106	1.42667	1.76400E-001	-8.84977E-005	0.00000E+000	-1.56110E-005	-5.39641E-002	1.76419E-001	3.57250E+000	9	...........
	107	1.44	1.72152E-001	-8.88270E-005	0.00000E+000	-1.52917E-005	-5.39641E-002	1.72174E-001	3.57250E+000	9	...........
	108	1.45333	1.67926E-001	-8.87540E-005	0.00000E+000	-1.49041E-005	-5.39641E-002	1.67945E-001	3.57250E+000	9	...........
	109	1.46667	1.63716E-001	-8.86478E-005	0.00000E+000	-1.45131E-005	-5.39641E-002	1.63731E-001	3.57250E+000	9	...........
	110	1.48	1.59519E-001	-8.87988E-005	0.00000E+000	-1.41651E-005	-5.39641E-002	1.59533E-001	3.57250E+000	9	...........
	111	1.49333	1.55352E-001	-8.87801E-005	0.00000E+000	-1.37921E-005	-5.39641E-002	1.55367E-001	3.57250E+000	9	...........
	112	1.50667	1.51200E-001	-8.87363E-005	0.00000E+000	-1.34169E-005	-5.39641E-002	1.51215E-001	3.57250E+000	9	...........
	113	1.52	1.47065E-001	-8.88916E-005	0.00000E+000	-1.30729E-005	-5.39641E-002	1.47084E-001	3.57250E+000	9	...........
	114	1.53333	1.42950E-001	-8.89478E-005	0.00000E+000	-1.27151E-005	-5.39641E-002	1.42963E-001	3.57250E+000	9	...........
	115	1.54667	1.38838E-001	-8.89103E-005	0.00000E+000	-1.23441E-005	-5.39641E-002	1.38854E-001	3.57250E+000	9	...........
	116	1.56	1.34753E-001	-8.88916E-005	0.00000E+000	-1.19784E-005	-5.39641E-002	1.34771E-001	3.57250E+000	9	...........
	117	1.57333	1.30690E-001	-8.88811E-005	0.00000E+000	-1.16159E-005	-5.39641E-002	1.30706E-001	3.57250E+000	9	...........
	118	1.58667	1.26639E-001	-8.86551E-005	0.00000E+000	-1.12272E-005	-5.39641E-002	1.26653E-001	3.57250E+000	9	...........
	119	1.6	1.22597E-001	-8.87988E-005	0.00000E+000	-1.08865E-005	-5.39641E-002	1.22615E-001	3.57250E+000	9	...........
	120	1.61333	1.18577E-001	-8.89280E-005	0.00000E+000	-1.05448E-005	-5.39641E-002	1.18593E-001	3.57250E+000	9	...........
	121	1.62667	1.14584E-001	-8.88884E-005	0.00000E+000	-1.01852E-005	-5.39641E-002	1.14594E-001	3.57250E+000	9	...........
	122	1.64	1.10588E-001	-8.87582E-005	0.00000E+000	-9.81558E-006	-5.39641E-002	1.10603E-001	3.57250E+000	9	...........
	123	1.65333	1.06615E-001	-8.87478E-005	0.00000E+000	-9.46182E-006	-5.39641E-002	1.06625E-001	3.57250E+000	9	...........
	124	1.66667	1.02654E-001	-8.88791E-005	0.00000E+000	-9.12376E-006	-5.39641E-002	1.02667E-001	3.57250E+000	9	...........
	125	1.68	9.87052E-002	-8.87551E-005	0.00000E+000	-8.76059E-006	-5.39641E-002	9.87187E-002	3.57250E+000	9	...........
	126	1.69333	9.47853E-002	-8.89624E-005	0.00000E+000	-8.43233E-006	-5.39641E-002	9.47971E-002	3.57250E+000	9	...........
	127	1.70667	9.08923E-002	-8.87447E-005	0.00000E+000	-8.06621E-006	-5.39641E-002	9.09028E-002	3.57250E+000	9	...........
	128	1.72	8.70095E-002	-8.87457E-005	0.00000E+000	-7.72172E-006	-5.39641E-002	8.70234E-002	3.57250E+000	9	...........
	129	1.73333	8.31587E-002	-8.88843E-005	0.00000E+000	-7.39150E-006	-5.39641E-002	8.31691E-002	3.57250E+000	9	...........
	130	1.74667	7.93190E-002	-8.87915E-005	0.00000E+000	-7.04286E-006	-5.39641E-002	7.93233E-002	3.57250E+000	9	...........
	131	1.76	7.54847E-002	-8.90208E-005	0.00000E+000	-6.71970E-006	-5.39641E-002	7.54865E-002	3.57250E+000	9	...........
	132	1.77333	7.16675E-002	-8.88843E-005	0.00000E+000	-6.37011E-006	-5.39641E-002	7.16683E-002	3.57250E+000	9	...........
	133	1.78667	6.78661E-002	-8.85832E-005	0.00000E+000	-6.01179E-006	-5.39641E-002	6.78706E-002	3.57250E+000	9	...........
	134	1.8	6.40946E-002	-8.88572E-005	0.00000E+000	-5.69527E-006	-5.39641E-002	6.40940E-002	3.57250E+000	9	...........
	135	1.81333	6.03374E-002	-8.87749E-005	0.00000E+000	-5.35644E-006	-5.39641E-002	6.03353E-002	3.57250E+000	9	...........
	136	1.82667	5.65932E-002	-8.86686E-005	0.00000E+000	-5.01804E-006	-5.39641E-002	5.65941E-002	3.57250E+000	9	...........
	137	1.84	5.28772E-002	-8.92875E-005	0.00000E+000	-4.72127E-006	-5.39641E-002	5.28754E-002	3.57250E+000	9	...........
	138	1.85333	4.91793E-002	-8.88874E-005	0.00000E+000	-4.37142E-006	-5.39641E-002	4.91826E-002	3.57250E+000	9	...........
	139	1.86667	4.55070E-002	-8.89187E-005	0.00000E+000	-4.04643E-006	-5.39641E-002	4.55208E-002	3.57250E+000	9	...........
	140	1.88	4.18416E-002	-8.88051E-005	0.00000E+000	-3.71575E-006	-5.39641E-002	4.18452E-002	3.57250E+000	9	...........
	141	1.89333	3.81897E-002	-8.88374E-005	0.00000E+000	-3.39267E-006	-5.39641E-002	3.81940E-002	3.57250E+000	9	...........
	142	1.90667	3.45515E-002	-8.86749E-005	0.00000E+000	-3.06385E-006	-5.39641E-002	3.45521E-002	3.57250E+000	9	...........
	143	1.92	3.09150E-002	-8.88728E-005	0.00000E+000	-2.74750E-006	-5.39641E-002	3.09191E-002	3.57250E+000	9	...........
	144	1.93333	2.73156E-002	-8.89510E-005	0.00000E+000	-2.42975E-006	-5.39641E-002	2.73085E-002	3.57250E+000	9	...........
	145	1.94667	2.37189E-002	-8.87124E-005	0.00000E+000	-2.10416E-006	-5.39641E-002	2.37188E-002	3.57250E+000	9	...........
	146	1.96	2.01539E-002	-8.86540E-005	0.00000E+000	-1.78672E-006	-5.39641E-002	2.01508E-002	3.57250E+000	9	...........
	147	1.97333	1.65888E-002	-8.87874E-005	0.00000E+000	-1.47287E-006	-5.39641E-002	1.65820E-002	3.57250E+000	9	...........
	148	1.98667	1.30362E-002	-8.91239E-005	0.00000E+000	-1.16184E-006	-5.39641E-002	1.30285E-002	3.57250E+000	9	...........
	149	2	9.49853E-003	-8.89645E-005	0.00000E+000	-8.45032E-007	-5.39641E-002	9.48682E-003	3.57250E+000	9	...........
	150	2.01333	5.98411E-003	-8.88457E-005	0.00000E+000	-5.31663E-007	-5.39641E-002	5.97126E-003	3.57250E+000	9	...........
	151	2.02667	2.49527E-003	-8.86811E-005	0.00000E+000	-2.21283E-007	-5.39641E-002	2.47897E-003	3.57250E+000	9	...........
	152	2.03167	1.12790E-004	-8.88666E-005	0.00000E+000	-1.00233E-008	-5.39641E-002	9.68454E-005	3.57250E+000	9	...........
STARTTIMEOFFSET	QUANT	2027.348	Start Time Offset (s)
