EXPLAIN
TAG	PWR800_DISCHARGE
TITLE	LABEL	PWR Cyclic Charge Discharge (Cell) - Discharge Step	Test &Identifier
DATE	LABEL	10-7-2017	Date
TIME	LABEL	15:42:33	Time
NOTES	NOTES	3	&Notes...
	supercap test cell
	0.9mg
	6M KOH
PSTAT	PSTAT	IFC5000-01520	Potentiostat
CAPACITY	QUANT	1.00000E-003	Capacity (A-hr)
CELLTYPE	SELECTOR	1	&Cell Type
WORKINGCONNECTION	SELECTOR	0	&Working Lead
MAXDISCHARGETIME	VARIABLEANDUNITS	1.00000E+002	s	1.00000E+002	second(s)	Max &Discharge Time
DISCHARGEMODE	MULTIPARAM	0	9.00000E-005	&Discharge Mode	Constant Current	Amp(s)
SAMPLETIME	QUANT	1.00000E-002	Sa&mple Period (s)
DISCHARGESTOPAT1	MULTIPARAM	3	0.00000E+000	Discharge Stop At &1	Voltage < Limit	V
DISCHARGESTOPAT2	MULTIPARAM	0	0.00000E+000	Discharge Stop At &2	None	N/A
AESBHCSELECTOR	TOGGLE	F	Save Both Half Cells
IRCOMP	TOGGLE	F	IR &Measure
EOC	QUANT	0	Open Circuit (V)
SEQUENCER	TOGGLE	TRUE	Run as Sequence
PSTATMODEL	IQUANT	53	Pstat Model
PSTATSECTION	LABEL	IFC5000-01520	Pstat Section
PSTATSERIALNO	LABEL	01520	Pstat Serial Number
CTRLMODE	IQUANT	0	Control Mode
ELECTROMETER	IQUANT	1	RE=0 or CS=1
IESTAB	IQUANT	0	I/E Stability
CASPEED	IQUANT	4	Control Amp Speed
CONVENTION	IQUANT	1	Current Convention
ICHRANGE	IQUANT	2	Ich Range
ICHRANGEMODE	TOGGLE	T	Ich Auto Range
ICHOFFSETENABLE	TOGGLE	F	Ich Offset Enable
ICHOFFSET	QUANT	0	Ich Offset (V)
ICHFILTER	IQUANT	1	Ich Filter
VCHRANGE	IQUANT	2	Vch Range
VCHRANGEMODE	TOGGLE	T	Vch Auto Range
VCHOFFSETENABLE	TOGGLE	F	Vch Offset Enable
VCHOFFSET	QUANT	0	Vch Offset (V)
VCHFILTER	IQUANT	1	Vch Filter
IERANGELOWERLIMIT	IQUANT	9	I/E Range Lower Limit
IERANGEMODE	TOGGLE	F	I/E AutoRange
IERANGE	IQUANT	9	I/E Range
ACHSELECT	IQUANT	1	Ach Select
ACHRANGE	IQUANT	2	Ach Range
ACHOFFSETENABLE	TOGGLE	F	Ach Offset Enable
ACHOFFSET	QUANT	0	Ach Offset (V)
ACHFILTER	IQUANT	1	Ach Filter
CABLEID	IQUANT	14	Cable ID
DCCALDATE	LABEL	5-7-2017	DC Calibration Date
ACCALDATE	LABEL	12/3/2015	AC Calibration Date
FRAMEWORKVERSION	QUANT	7.01	Framework Version
INSTRUMENTVERSION	LABEL	4.00	Instrument Version
CURVE	TABLE	153
	Pt	T	Vf	Im	Vu	Pwr	Sig	Ach	Temp	IERange	Over
	#	s	V	A	V	W	V	V	deg C	#	bits
	0	0.013333	8.12500E-001	-8.85905E-005	0.00000E+000	-7.19798E-005	-5.39641E-002	8.12685E-001	3.57340E+000	9	...........
	1	0.026667	7.99019E-001	-8.88343E-005	0.00000E+000	-7.09803E-005	-5.39641E-002	7.99166E-001	3.57340E+000	9	...........
	2	0.04	7.86330E-001	-8.86499E-005	0.00000E+000	-6.97080E-005	-5.39641E-002	7.86496E-001	3.57340E+000	9	...........
	3	0.053333	7.74408E-001	-8.88238E-005	0.00000E+000	-6.87859E-005	-5.39641E-002	7.74555E-001	3.57340E+000	9	...........
	4	0.066667	7.63041E-001	-8.89020E-005	0.00000E+000	-6.78358E-005	-5.39641E-002	7.63194E-001	3.57340E+000	9	...........
	5	0.08	7.52182E-001	-8.87467E-005	0.00000E+000	-6.67537E-005	-5.39641E-002	7.52315E-001	3.57340E+000	9	...........
	6	0.093333	7.41734E-001	-8.87040E-005	0.00000E+000	-6.57948E-005	-5.39641E-002	7.41874E-001	3.57340E+000	9	...........
	7	0.106667	7.31653E-001	-8.86936E-005	0.00000E+000	-6.48930E-005	-5.39641E-002	7.31799E-001	3.57340E+000	9	...........
	8	0.12	7.21934E-001	-8.86874E-005	0.00000E+000	-6.40265E-005	-5.39641E-002	7.22061E-001	3.57340E+000	9	...........
	9	0.133333	7.12469E-001	-8.87426E-005	0.00000E+000	-6.32263E-005	-5.39641E-002	7.12618E-001	3.57340E+000	9	...........
	10	0.146667	7.03340E-001	-8.88020E-005	0.00000E+000	-6.24580E-005	-5.39641E-002	7.03487E-001	3.57340E+000	9	...........
	11	0.16	6.94482E-001	-8.88916E-005	0.00000E+000	-6.17336E-005	-5.39641E-002	6.94614E-001	3.57340E+000	9	...........
	12	0.173333	6.85827E-001	-8.87697E-005	0.00000E+000	-6.08807E-005	-5.39641E-002	6.85955E-001	3.57340E+000	9	...........
	13	0.186667	6.77444E-001	-8.88926E-005	0.00000E+000	-6.02198E-005	-5.39641E-002	6.77553E-001	3.57340E+000	9	...........
	14	0.2	6.69231E-001	-8.86634E-005	0.00000E+000	-5.93363E-005	-5.39641E-002	6.69338E-001	3.57340E+000	9	...........
	15	0.213333	6.61162E-001	-8.88030E-005	0.00000E+000	-5.87132E-005	-5.39641E-002	6.61290E-001	3.57340E+000	9	...........
	16	0.226667	6.53313E-001	-8.86863E-005	0.00000E+000	-5.79399E-005	-5.39641E-002	6.53431E-001	3.57340E+000	9	...........
	17	0.24	6.45643E-001	-8.87290E-005	0.00000E+000	-5.72872E-005	-5.39641E-002	6.45739E-001	3.57340E+000	9	...........
	18	0.253333	6.38129E-001	-8.87988E-005	0.00000E+000	-5.66651E-005	-5.39641E-002	6.38228E-001	3.57340E+000	9	...........
	19	0.266667	6.30727E-001	-8.91916E-005	0.00000E+000	-5.62556E-005	-5.39641E-002	6.30826E-001	3.57340E+000	9	...........
	20	0.28	6.23493E-001	-8.87249E-005	0.00000E+000	-5.53193E-005	-5.39641E-002	6.23578E-001	3.57340E+000	9	...........
	21	0.293333	6.16369E-001	-8.88311E-005	0.00000E+000	-5.47528E-005	-5.39641E-002	6.16467E-001	3.57340E+000	9	...........
	22	0.306667	6.09297E-001	-8.87332E-005	0.00000E+000	-5.40648E-005	-5.39641E-002	6.09412E-001	3.57340E+000	9	...........
	23	0.32	6.02419E-001	-8.89187E-005	0.00000E+000	-5.35663E-005	-5.39641E-002	6.02561E-001	3.57340E+000	9	...........
	24	0.333333	5.95670E-001	-8.88093E-005	0.00000E+000	-5.29010E-005	-5.39641E-002	5.95802E-001	3.57340E+000	9	...........
	25	0.346667	5.88989E-001	-8.90416E-005	0.00000E+000	-5.24445E-005	-5.39641E-002	5.89136E-001	3.57340E+000	9	...........
	26	0.36	5.82424E-001	-8.88739E-005	0.00000E+000	-5.17623E-005	-5.39641E-002	5.82547E-001	3.57340E+000	9	...........
	27	0.373333	5.75938E-001	-8.87082E-005	0.00000E+000	-5.10904E-005	-5.39641E-002	5.76066E-001	3.57340E+000	9	...........
	28	0.386667	5.69554E-001	-8.87228E-005	0.00000E+000	-5.05325E-005	-5.39641E-002	5.69647E-001	3.57340E+000	9	...........
	29	0.4	5.63217E-001	-8.86644E-005	0.00000E+000	-4.99373E-005	-5.39641E-002	5.63320E-001	3.57340E+000	9	...........
	30	0.413333	5.56955E-001	-8.89968E-005	0.00000E+000	-4.95672E-005	-5.39641E-002	5.57075E-001	3.57340E+000	9	...........
	31	0.426667	5.50792E-001	-8.89207E-005	0.00000E+000	-4.89769E-005	-5.39641E-002	5.50886E-001	3.57340E+000	9	...........
	32	0.44	5.44678E-001	-8.87947E-005	0.00000E+000	-4.83645E-005	-5.39641E-002	5.44794E-001	3.57340E+000	9	...........
	33	0.453333	5.38677E-001	-8.88978E-005	0.00000E+000	-4.78872E-005	-5.39641E-002	5.38795E-001	3.57340E+000	9	...........
	34	0.466667	5.32693E-001	-8.86123E-005	0.00000E+000	-4.72032E-005	-5.39641E-002	5.32825E-001	3.57340E+000	9	...........
	35	0.48	5.26802E-001	-8.86707E-005	0.00000E+000	-4.67119E-005	-5.39641E-002	5.26927E-001	3.57340E+000	9	...........
	36	0.493333	5.20948E-001	-8.89166E-005	0.00000E+000	-4.63209E-005	-5.39641E-002	5.21086E-001	3.57340E+000	9	...........
	37	0.506667	5.15179E-001	-8.85769E-005	0.00000E+000	-4.56330E-005	-5.39641E-002	5.15294E-001	3.57340E+000	9	...........
	38	0.52	5.09433E-001	-8.89374E-005	0.00000E+000	-4.53077E-005	-5.39641E-002	5.09550E-001	3.57340E+000	9	...........
	39	0.533333	5.03761E-001	-8.86384E-005	0.00000E+000	-4.46526E-005	-5.39641E-002	5.03880E-001	3.57340E+000	9	...........
	40	0.546667	4.98126E-001	-8.89343E-005	0.00000E+000	-4.43004E-005	-5.39641E-002	4.98256E-001	3.57340E+000	9	...........
	41	0.56	4.92550E-001	-8.87311E-005	0.00000E+000	-4.37045E-005	-5.39641E-002	4.92651E-001	3.57340E+000	9	...........
	42	0.573333	4.87014E-001	-8.89416E-005	0.00000E+000	-4.33158E-005	-5.39641E-002	4.87103E-001	3.57340E+000	9	...........
	43	0.586667	4.81570E-001	-8.89739E-005	0.00000E+000	-4.28472E-005	-5.39641E-002	4.81641E-001	3.57340E+000	9	...........
	44	0.6	4.76093E-001	-8.89291E-005	0.00000E+000	-4.23385E-005	-5.39641E-002	4.76158E-001	3.57340E+000	9	...........
	45	0.613333	4.70651E-001	-8.87592E-005	0.00000E+000	-4.17746E-005	-5.39641E-002	4.70716E-001	3.57340E+000	9	...........
	46	0.626667	4.65252E-001	-8.86759E-005	0.00000E+000	-4.12566E-005	-5.39641E-002	4.65312E-001	3.57340E+000	9	...........
	47	0.64	4.59877E-001	-8.89155E-005	0.00000E+000	-4.08902E-005	-5.39641E-002	4.59936E-001	3.57340E+000	9	...........
	48	0.653333	4.54536E-001	-8.87582E-005	0.00000E+000	-4.03438E-005	-5.39641E-002	4.54591E-001	3.57386E+000	9	...........
	49	0.666667	4.49232E-001	-8.86134E-005	0.00000E+000	-3.98080E-005	-5.39641E-002	4.49301E-001	3.57390E+000	9	...........
	50	0.68	4.43958E-001	-8.89322E-005	0.00000E+000	-3.94821E-005	-5.39641E-002	4.44018E-001	3.57390E+000	9	...........
	51	0.693333	4.38714E-001	-8.87019E-005	0.00000E+000	-3.89148E-005	-5.39641E-002	4.38774E-001	3.57390E+000	9	...........
	52	0.706667	4.33493E-001	-8.87457E-005	0.00000E+000	-3.84706E-005	-5.39641E-002	4.33554E-001	3.57390E+000	9	...........
	53	0.72	4.28299E-001	-8.90520E-005	0.00000E+000	-3.81409E-005	-5.39641E-002	4.28359E-001	3.57390E+000	9	...........
	54	0.733333	4.23110E-001	-8.88624E-005	0.00000E+000	-3.75985E-005	-5.39641E-002	4.23166E-001	3.57390E+000	9	...........
	55	0.746667	4.17937E-001	-8.85925E-005	0.00000E+000	-3.70261E-005	-5.39641E-002	4.17996E-001	3.57390E+000	9	...........
	56	0.76	4.12776E-001	-8.84342E-005	0.00000E+000	-3.65035E-005	-5.39641E-002	4.12834E-001	3.57390E+000	9	...........
	57	0.773333	4.07634E-001	-8.87707E-005	0.00000E+000	-3.61860E-005	-5.39641E-002	4.07683E-001	3.57390E+000	9	...........
	58	0.786667	4.02510E-001	-8.86905E-005	0.00000E+000	-3.56988E-005	-5.39641E-002	4.02565E-001	3.57390E+000	9	...........
	59	0.8	3.97402E-001	-8.90499E-005	0.00000E+000	-3.53886E-005	-5.39641E-002	3.97454E-001	3.57390E+000	9	...........
	60	0.813333	3.92323E-001	-8.88718E-005	0.00000E+000	-3.48665E-005	-5.39641E-002	3.92369E-001	3.57390E+000	9	...........
	61	0.826667	3.87248E-001	-8.87134E-005	0.00000E+000	-3.43541E-005	-5.39641E-002	3.87298E-001	3.57390E+000	9	...........
	62	0.84	3.82193E-001	-8.86863E-005	0.00000E+000	-3.38953E-005	-5.39641E-002	3.82240E-001	3.57390E+000	9	...........
	63	0.853333	3.77139E-001	-8.87655E-005	0.00000E+000	-3.34769E-005	-5.39641E-002	3.77186E-001	3.57390E+000	9	...........
	64	0.866667	3.72130E-001	-8.87072E-005	0.00000E+000	-3.30106E-005	-5.39641E-002	3.72178E-001	3.57390E+000	9	...........
	65	0.88	3.67132E-001	-8.86978E-005	0.00000E+000	-3.25638E-005	-5.39641E-002	3.67180E-001	3.57390E+000	9	...........
	66	0.893333	3.62146E-001	-8.87342E-005	0.00000E+000	-3.21347E-005	-5.39641E-002	3.62192E-001	3.57390E+000	9	...........
	67	0.906667	3.57147E-001	-8.88218E-005	0.00000E+000	-3.17225E-005	-5.39641E-002	3.57194E-001	3.57390E+000	9	...........
	68	0.92	3.52177E-001	-8.86853E-005	0.00000E+000	-3.12329E-005	-5.39641E-002	3.52218E-001	3.57390E+000	9	...........
	69	0.933333	3.47235E-001	-8.87582E-005	0.00000E+000	-3.08199E-005	-5.39641E-002	3.47280E-001	3.57390E+000	9	...........
	70	0.946667	3.42314E-001	-8.87238E-005	0.00000E+000	-3.03714E-005	-5.39641E-002	3.42356E-001	3.57390E+000	9	...........
	71	0.96	3.37411E-001	-8.88238E-005	0.00000E+000	-2.99701E-005	-5.39641E-002	3.37450E-001	3.57390E+000	9	...........
	72	0.97333	3.32518E-001	-8.86853E-005	0.00000E+000	-2.94894E-005	-5.39641E-002	3.32556E-001	3.57390E+000	9	...........
	73	0.98667	3.27660E-001	-8.87728E-005	0.00000E+000	-2.90873E-005	-5.39641E-002	3.27704E-001	3.57390E+000	9	...........
	74	1	3.22807E-001	-8.87092E-005	0.00000E+000	-2.86360E-005	-5.39641E-002	3.22850E-001	3.57390E+000	9	...........
	75	1.01333	3.17959E-001	-8.89093E-005	0.00000E+000	-2.82696E-005	-5.39641E-002	3.17997E-001	3.57390E+000	9	...........
	76	1.02667	3.13132E-001	-8.88041E-005	0.00000E+000	-2.78074E-005	-5.39641E-002	3.13171E-001	3.57390E+000	9	...........
	77	1.04	3.08320E-001	-8.88332E-005	0.00000E+000	-2.73891E-005	-5.39641E-002	3.08359E-001	3.57390E+000	9	...........
	78	1.05333	3.03521E-001	-8.91666E-005	0.00000E+000	-2.70639E-005	-5.39641E-002	3.03560E-001	3.57390E+000	9	...........
	79	1.06667	2.98722E-001	-8.88280E-005	0.00000E+000	-2.65349E-005	-5.39641E-002	2.98764E-001	3.57390E+000	9	...........
	80	1.08	2.93934E-001	-8.89009E-005	0.00000E+000	-2.61310E-005	-5.39641E-002	2.93971E-001	3.57390E+000	9	...........
	81	1.09333	2.89165E-001	-8.87436E-005	0.00000E+000	-2.56616E-005	-5.39641E-002	2.89203E-001	3.57390E+000	9	...........
	82	1.10667	2.84417E-001	-8.88218E-005	0.00000E+000	-2.52625E-005	-5.39641E-002	2.84455E-001	3.57390E+000	9	...........
	83	1.12	2.79688E-001	-8.86426E-005	0.00000E+000	-2.47922E-005	-5.39641E-002	2.79726E-001	3.57390E+000	9	...........
	84	1.13333	2.74975E-001	-8.86144E-005	0.00000E+000	-2.43667E-005	-5.39641E-002	2.75008E-001	3.57390E+000	9	...........
	85	1.14667	2.70275E-001	-8.90770E-005	0.00000E+000	-2.40753E-005	-5.39641E-002	2.70306E-001	3.57390E+000	9	...........
	86	1.16	2.65589E-001	-8.87863E-005	0.00000E+000	-2.35806E-005	-5.39641E-002	2.65626E-001	3.57390E+000	9	...........
	87	1.17333	2.60922E-001	-8.88426E-005	0.00000E+000	-2.31810E-005	-5.39641E-002	2.60964E-001	3.57390E+000	9	...........
	88	1.18667	2.56291E-001	-8.87624E-005	0.00000E+000	-2.27490E-005	-5.39641E-002	2.56334E-001	3.57390E+000	9	...........
	89	1.2	2.51662E-001	-8.90999E-005	0.00000E+000	-2.24231E-005	-5.39641E-002	2.51698E-001	3.57390E+000	9	...........
	90	1.21333	2.47049E-001	-8.87905E-005	0.00000E+000	-2.19356E-005	-5.39641E-002	2.47078E-001	3.57390E+000	9	...........
	91	1.22667	2.42460E-001	-8.88645E-005	0.00000E+000	-2.15461E-005	-5.39641E-002	2.42487E-001	3.57390E+000	9	...........
	92	1.24	2.37909E-001	-8.85269E-005	0.00000E+000	-2.10613E-005	-5.39641E-002	2.37934E-001	3.57390E+000	9	...........
	93	1.25333	2.33370E-001	-8.88874E-005	0.00000E+000	-2.07436E-005	-5.39641E-002	2.33396E-001	3.57390E+000	9	...........
	94	1.26667	2.28844E-001	-8.89885E-005	0.00000E+000	-2.03645E-005	-5.39641E-002	2.28873E-001	3.57390E+000	9	...........
	95	1.28	2.24336E-001	-8.87030E-005	0.00000E+000	-1.98992E-005	-5.39641E-002	2.24364E-001	3.57390E+000	9	...........
	96	1.29333	2.19852E-001	-8.88530E-005	0.00000E+000	-1.95345E-005	-5.39641E-002	2.19874E-001	3.57390E+000	9	...........
	97	1.30667	2.15373E-001	-8.87051E-005	0.00000E+000	-1.91046E-005	-5.39641E-002	2.15397E-001	3.57390E+000	9	...........
	98	1.32	2.10930E-001	-8.86082E-005	0.00000E+000	-1.86902E-005	-5.39641E-002	2.10951E-001	3.57390E+000	9	...........
	99	1.33333	2.06511E-001	-8.88228E-005	0.00000E+000	-1.83429E-005	-5.39641E-002	2.06535E-001	3.57390E+000	9	...........
	100	1.34667	2.02112E-001	-8.89749E-005	0.00000E+000	-1.79829E-005	-5.39641E-002	2.02135E-001	3.57390E+000	9	...........
	101	1.36	1.97723E-001	-8.85175E-005	0.00000E+000	-1.75020E-005	-5.39641E-002	1.97747E-001	3.57390E+000	9	...........
	102	1.37333	1.93370E-001	-8.88478E-005	0.00000E+000	-1.71805E-005	-5.39641E-002	1.93392E-001	3.57390E+000	9	...........
	103	1.38667	1.89025E-001	-8.90551E-005	0.00000E+000	-1.68337E-005	-5.39641E-002	1.89042E-001	3.57390E+000	9	...........
	104	1.4	1.84694E-001	-8.89551E-005	0.00000E+000	-1.64295E-005	-5.39641E-002	1.84716E-001	3.57390E+000	9	...........
	105	1.41333	1.80377E-001	-8.89280E-005	0.00000E+000	-1.60406E-005	-5.39641E-002	1.80398E-001	3.57390E+000	9	...........
	106	1.42667	1.76102E-001	-8.89739E-005	0.00000E+000	-1.56684E-005	-5.39641E-002	1.76119E-001	3.57390E+000	9	...........
	107	1.44	1.71847E-001	-8.86926E-005	0.00000E+000	-1.52416E-005	-5.39641E-002	1.71869E-001	3.57390E+000	9	...........
	108	1.45333	1.67606E-001	-8.88218E-005	0.00000E+000	-1.48871E-005	-5.39641E-002	1.67629E-001	3.57390E+000	9	...........
	109	1.46667	1.63395E-001	-8.89801E-005	0.00000E+000	-1.45389E-005	-5.39641E-002	1.63416E-001	3.57390E+000	9	...........
	110	1.48	1.59188E-001	-8.87822E-005	0.00000E+000	-1.41331E-005	-5.39641E-002	1.59208E-001	3.57390E+000	9	...........
	111	1.49333	1.54986E-001	-8.86446E-005	0.00000E+000	-1.37387E-005	-5.39641E-002	1.55002E-001	3.57390E+000	9	...........
	112	1.50667	1.50795E-001	-8.87926E-005	0.00000E+000	-1.33895E-005	-5.39641E-002	1.50811E-001	3.57390E+000	9	...........
	113	1.52	1.46641E-001	-8.88197E-005	0.00000E+000	-1.30246E-005	-5.39641E-002	1.46654E-001	3.57390E+000	9	...........
	114	1.53333	1.42509E-001	-8.86978E-005	0.00000E+000	-1.26402E-005	-5.39641E-002	1.42523E-001	3.57390E+000	9	...........
	115	1.54667	1.38403E-001	-8.86384E-005	0.00000E+000	-1.22678E-005	-5.39641E-002	1.38414E-001	3.57390E+000	9	...........
	116	1.56	1.34299E-001	-8.87790E-005	0.00000E+000	-1.19230E-005	-5.39641E-002	1.34313E-001	3.57390E+000	9	...........
	117	1.57333	1.30224E-001	-8.88926E-005	0.00000E+000	-1.15760E-005	-5.39641E-002	1.30235E-001	3.57390E+000	9	...........
	118	1.58667	1.26175E-001	-8.88051E-005	0.00000E+000	-1.12050E-005	-5.39641E-002	1.26186E-001	3.57390E+000	9	...........
	119	1.6	1.22143E-001	-8.87540E-005	0.00000E+000	-1.08407E-005	-5.39641E-002	1.22152E-001	3.57390E+000	9	...........
	120	1.61333	1.18107E-001	-8.88728E-005	0.00000E+000	-1.04965E-005	-5.39641E-002	1.18119E-001	3.57390E+000	9	...........
	121	1.62667	1.14101E-001	-8.88676E-005	0.00000E+000	-1.01399E-005	-5.39641E-002	1.14111E-001	3.57390E+000	9	...........
	122	1.64	1.10127E-001	-8.89645E-005	0.00000E+000	-9.79739E-006	-5.39641E-002	1.10133E-001	3.57390E+000	9	...........
	123	1.65333	1.06165E-001	-8.84779E-005	0.00000E+000	-9.39322E-006	-5.39641E-002	1.06174E-001	3.57297E+000	9	...........
	124	1.66667	1.02220E-001	-8.88895E-005	0.00000E+000	-9.08632E-006	-5.39641E-002	1.02230E-001	3.57290E+000	9	...........
	125	1.68	9.82863E-002	-8.88186E-005	0.00000E+000	-8.72966E-006	-5.39641E-002	9.82959E-002	3.57290E+000	9	...........
	126	1.69333	9.43738E-002	-8.88520E-005	0.00000E+000	-8.38530E-006	-5.39641E-002	9.43780E-002	3.57290E+000	9	...........
	127	1.70667	9.04660E-002	-8.87634E-005	0.00000E+000	-8.03007E-006	-5.39641E-002	9.04766E-002	3.57290E+000	9	...........
	128	1.72	8.65764E-002	-8.88457E-005	0.00000E+000	-7.69195E-006	-5.39641E-002	8.65836E-002	3.57290E+000	9	...........
	129	1.73333	8.27188E-002	-8.86967E-005	0.00000E+000	-7.33689E-006	-5.39641E-002	8.27188E-002	3.57290E+000	9	...........
	130	1.74667	7.88841E-002	-8.87092E-005	0.00000E+000	-6.99775E-006	-5.39641E-002	7.88871E-002	3.57290E+000	9	...........
	131	1.76	7.50528E-002	-8.90593E-005	0.00000E+000	-6.68415E-006	-5.39641E-002	7.50578E-002	3.57290E+000	9	...........
	132	1.77333	7.12521E-002	-8.86957E-005	0.00000E+000	-6.31975E-006	-5.39641E-002	7.12535E-002	3.57290E+000	9	...........
	133	1.78667	6.74482E-002	-8.87176E-005	0.00000E+000	-5.98384E-006	-5.39641E-002	6.74537E-002	3.57290E+000	9	...........
	134	1.8	6.36607E-002	-8.87572E-005	0.00000E+000	-5.65035E-006	-5.39641E-002	6.36602E-002	3.57290E+000	9	...........
	135	1.81333	5.99029E-002	-8.85644E-005	0.00000E+000	-5.30527E-006	-5.39641E-002	5.99034E-002	3.57290E+000	9	...........
	136	1.82667	5.61657E-002	-8.87457E-005	0.00000E+000	-4.98446E-006	-5.39641E-002	5.61677E-002	3.57290E+000	9	...........
	137	1.84	5.24400E-002	-8.86926E-005	0.00000E+000	-4.65104E-006	-5.39641E-002	5.24404E-002	3.57290E+000	9	...........
	138	1.85333	4.87211E-002	-8.90437E-005	0.00000E+000	-4.33830E-006	-5.39641E-002	4.87252E-002	3.57290E+000	9	...........
	139	1.86667	4.50346E-002	-8.88864E-005	0.00000E+000	-4.00296E-006	-5.39641E-002	4.50417E-002	3.57290E+000	9	...........
	140	1.88	4.13448E-002	-8.88280E-005	0.00000E+000	-3.67257E-006	-5.39641E-002	4.13485E-002	3.57290E+000	9	...........
	141	1.89333	3.76649E-002	-8.86446E-005	0.00000E+000	-3.33880E-006	-5.39641E-002	3.76724E-002	3.57290E+000	9	...........
	142	1.90667	3.40062E-002	-8.88197E-005	0.00000E+000	-3.02042E-006	-5.39641E-002	3.40126E-002	3.57290E+000	9	...........
	143	1.92	3.03758E-002	-8.90135E-005	0.00000E+000	-2.70386E-006	-5.39641E-002	3.03804E-002	3.57290E+000	9	...........
	144	1.93333	2.67552E-002	-8.87863E-005	0.00000E+000	-2.37550E-006	-5.39641E-002	2.67549E-002	3.57290E+000	9	...........
	145	1.94667	2.31399E-002	-8.88989E-005	0.00000E+000	-2.05711E-006	-5.39641E-002	2.31409E-002	3.57290E+000	9	...........
	146	1.96	1.95620E-002	-8.87457E-005	0.00000E+000	-1.73605E-006	-5.39641E-002	1.95593E-002	3.57290E+000	9	...........
	147	1.97333	1.59857E-002	-8.88937E-005	0.00000E+000	-1.42102E-006	-5.39641E-002	1.59841E-002	3.57290E+000	9	...........
	148	1.98667	1.24388E-002	-8.88426E-005	0.00000E+000	-1.10510E-006	-5.39641E-002	1.24303E-002	3.57290E+000	9	...........
	149	2	8.90060E-003	-8.90478E-005	0.00000E+000	-7.92579E-007	-5.39641E-002	8.89524E-003	3.57290E+000	9	...........
	150	2.01333	5.37934E-003	-8.87249E-005	0.00000E+000	-4.77282E-007	-5.39641E-002	5.36670E-003	3.57290E+000	9	...........
	151	2.02667	1.87879E-003	-8.90624E-005	0.00000E+000	-1.67329E-007	-5.39641E-002	1.86255E-003	3.57290E+000	9	...........
	152	2.02833	-7.67189E-005	-8.80831E-005	0.00000E+000	6.75764E-009	-5.39641E-002	-1.05209E-004	3.57290E+000	9	...........
STARTTIMEOFFSET	QUANT	2190.256	Start Time Offset (s)
