EXPLAIN
TAG	PWR800_DISCHARGE
TITLE	LABEL	PWR Cyclic Charge Discharge (Cell) - Discharge Step	Test &Identifier
DATE	LABEL	10-7-2017	Date
TIME	LABEL	15:50:35	Time
NOTES	NOTES	3	&Notes...
	supercap test cell
	0.9mg
	6M KOH
PSTAT	PSTAT	IFC5000-01520	Potentiostat
CAPACITY	QUANT	1.00000E-003	Capacity (A-hr)
CELLTYPE	SELECTOR	1	&Cell Type
WORKINGCONNECTION	SELECTOR	0	&Working Lead
MAXDISCHARGETIME	VARIABLEANDUNITS	1.00000E+002	s	1.00000E+002	second(s)	Max &Discharge Time
DISCHARGEMODE	MULTIPARAM	0	9.00000E-005	&Discharge Mode	Constant Current	Amp(s)
SAMPLETIME	QUANT	1.00000E-002	Sa&mple Period (s)
DISCHARGESTOPAT1	MULTIPARAM	3	0.00000E+000	Discharge Stop At &1	Voltage < Limit	V
DISCHARGESTOPAT2	MULTIPARAM	0	0.00000E+000	Discharge Stop At &2	None	N/A
AESBHCSELECTOR	TOGGLE	F	Save Both Half Cells
IRCOMP	TOGGLE	F	IR &Measure
EOC	QUANT	0	Open Circuit (V)
SEQUENCER	TOGGLE	TRUE	Run as Sequence
PSTATMODEL	IQUANT	53	Pstat Model
PSTATSECTION	LABEL	IFC5000-01520	Pstat Section
PSTATSERIALNO	LABEL	01520	Pstat Serial Number
CTRLMODE	IQUANT	0	Control Mode
ELECTROMETER	IQUANT	1	RE=0 or CS=1
IESTAB	IQUANT	0	I/E Stability
CASPEED	IQUANT	4	Control Amp Speed
CONVENTION	IQUANT	1	Current Convention
ICHRANGE	IQUANT	2	Ich Range
ICHRANGEMODE	TOGGLE	T	Ich Auto Range
ICHOFFSETENABLE	TOGGLE	F	Ich Offset Enable
ICHOFFSET	QUANT	0	Ich Offset (V)
ICHFILTER	IQUANT	1	Ich Filter
VCHRANGE	IQUANT	2	Vch Range
VCHRANGEMODE	TOGGLE	T	Vch Auto Range
VCHOFFSETENABLE	TOGGLE	F	Vch Offset Enable
VCHOFFSET	QUANT	0	Vch Offset (V)
VCHFILTER	IQUANT	1	Vch Filter
IERANGELOWERLIMIT	IQUANT	9	I/E Range Lower Limit
IERANGEMODE	TOGGLE	F	I/E AutoRange
IERANGE	IQUANT	9	I/E Range
ACHSELECT	IQUANT	1	Ach Select
ACHRANGE	IQUANT	2	Ach Range
ACHOFFSETENABLE	TOGGLE	F	Ach Offset Enable
ACHOFFSET	QUANT	0	Ach Offset (V)
ACHFILTER	IQUANT	1	Ach Filter
CABLEID	IQUANT	14	Cable ID
DCCALDATE	LABEL	5-7-2017	DC Calibration Date
ACCALDATE	LABEL	12/3/2015	AC Calibration Date
FRAMEWORKVERSION	QUANT	7.01	Framework Version
INSTRUMENTVERSION	LABEL	4.00	Instrument Version
CURVE	TABLE	151
	Pt	T	Vf	Im	Vu	Pwr	Sig	Ach	Temp	IERange	Over
	#	s	V	A	V	W	V	V	deg C	#	bits
	0	0.013333	8.10238E-001	-8.88603E-005	0.00000E+000	-7.19980E-005	-5.39641E-002	8.10397E-001	3.57260E+000	9	...........
	1	0.026667	7.96471E-001	-8.88916E-005	0.00000E+000	-7.07995E-005	-5.39641E-002	7.96605E-001	3.57260E+000	9	...........
	2	0.04	7.83574E-001	-8.90041E-005	0.00000E+000	-6.97412E-005	-5.39641E-002	7.83691E-001	3.57260E+000	9	...........
	3	0.053333	7.71419E-001	-8.88124E-005	0.00000E+000	-6.85116E-005	-5.39641E-002	7.71551E-001	3.57260E+000	9	...........
	4	0.066667	7.59882E-001	-8.87197E-005	0.00000E+000	-6.74165E-005	-5.39641E-002	7.59996E-001	3.57260E+000	9	...........
	5	0.08	7.48821E-001	-8.87092E-005	0.00000E+000	-6.64273E-005	-5.39641E-002	7.48923E-001	3.57260E+000	9	...........
	6	0.093333	7.38209E-001	-8.85623E-005	0.00000E+000	-6.53775E-005	-5.39641E-002	7.38315E-001	3.57260E+000	9	...........
	7	0.106667	7.28025E-001	-8.89218E-005	0.00000E+000	-6.47373E-005	-5.39641E-002	7.28125E-001	3.57260E+000	9	...........
	8	0.12	7.18164E-001	-8.86280E-005	0.00000E+000	-6.36495E-005	-5.39641E-002	7.18294E-001	3.57260E+000	9	...........
	9	0.133333	7.08612E-001	-8.86301E-005	0.00000E+000	-6.28043E-005	-5.39641E-002	7.08734E-001	3.57260E+000	9	...........
	10	0.146667	6.99389E-001	-8.87270E-005	0.00000E+000	-6.20546E-005	-5.39641E-002	6.99493E-001	3.57260E+000	9	...........
	11	0.16	6.90438E-001	-8.86207E-005	0.00000E+000	-6.11871E-005	-5.39641E-002	6.90540E-001	3.57260E+000	9	...........
	12	0.173333	6.81722E-001	-8.85467E-005	0.00000E+000	-6.03642E-005	-5.39641E-002	6.81818E-001	3.57260E+000	9	...........
	13	0.186667	6.73207E-001	-8.89395E-005	0.00000E+000	-5.98746E-005	-5.39641E-002	6.73298E-001	3.57260E+000	9	...........
	14	0.2	6.64863E-001	-8.87217E-005	0.00000E+000	-5.89878E-005	-5.39641E-002	6.65003E-001	3.57260E+000	9	...........
	15	0.213333	6.56759E-001	-8.88509E-005	0.00000E+000	-5.83537E-005	-5.39641E-002	6.56878E-001	3.57260E+000	9	...........
	16	0.226667	6.48819E-001	-8.86561E-005	0.00000E+000	-5.75217E-005	-5.39641E-002	6.48953E-001	3.57260E+000	9	...........
	17	0.24	6.41096E-001	-8.89937E-005	0.00000E+000	-5.70535E-005	-5.39641E-002	6.41226E-001	3.57260E+000	9	...........
	18	0.253333	6.33477E-001	-8.85571E-005	0.00000E+000	-5.60989E-005	-5.39641E-002	6.33587E-001	3.57260E+000	9	...........
	19	0.266667	6.26032E-001	-8.85207E-005	0.00000E+000	-5.54167E-005	-5.39641E-002	6.26139E-001	3.57260E+000	9	...........
	20	0.28	6.18751E-001	-8.87968E-005	0.00000E+000	-5.49431E-005	-5.39641E-002	6.18847E-001	3.57260E+000	9	...........
	21	0.293333	6.11534E-001	-8.87624E-005	0.00000E+000	-5.42812E-005	-5.39641E-002	6.11697E-001	3.57260E+000	9	...........
	22	0.306667	6.04517E-001	-8.86634E-005	0.00000E+000	-5.35986E-005	-5.39641E-002	6.04677E-001	3.57260E+000	9	...........
	23	0.32	5.97621E-001	-8.89603E-005	0.00000E+000	-5.31646E-005	-5.39641E-002	5.97743E-001	3.57260E+000	9	...........
	24	0.333333	5.90814E-001	-8.87499E-005	0.00000E+000	-5.24346E-005	-5.39641E-002	5.90947E-001	3.57260E+000	9	...........
	25	0.346667	5.84070E-001	-8.87353E-005	0.00000E+000	-5.18276E-005	-5.39641E-002	5.84192E-001	3.57260E+000	9	...........
	26	0.36	5.77481E-001	-8.85915E-005	0.00000E+000	-5.11599E-005	-5.39641E-002	5.77578E-001	3.57260E+000	9	...........
	27	0.373333	5.70985E-001	-8.85634E-005	0.00000E+000	-5.05684E-005	-5.39641E-002	5.71083E-001	3.57260E+000	9	...........
	28	0.386667	5.64548E-001	-8.89530E-005	0.00000E+000	-5.02182E-005	-5.39641E-002	5.64637E-001	3.57260E+000	9	...........
	29	0.4	5.58193E-001	-8.88509E-005	0.00000E+000	-4.95959E-005	-5.39641E-002	5.58244E-001	3.57312E+000	9	...........
	30	0.413333	5.51954E-001	-8.87884E-005	0.00000E+000	-4.90071E-005	-5.39641E-002	5.52034E-001	3.57330E+000	9	...........
	31	0.426667	5.45779E-001	-8.88155E-005	0.00000E+000	-4.84737E-005	-5.39641E-002	5.45844E-001	3.57330E+000	9	...........
	32	0.44	5.39665E-001	-8.87790E-005	0.00000E+000	-4.79109E-005	-5.39641E-002	5.39767E-001	3.57330E+000	9	...........
	33	0.453333	5.33599E-001	-8.86811E-005	0.00000E+000	-4.73201E-005	-5.39641E-002	5.33697E-001	3.57330E+000	9	...........
	34	0.466667	5.27639E-001	-8.87718E-005	0.00000E+000	-4.68394E-005	-5.39641E-002	5.27734E-001	3.57330E+000	9	...........
	35	0.48	5.21728E-001	-8.89020E-005	0.00000E+000	-4.63827E-005	-5.39641E-002	5.21821E-001	3.57330E+000	9	...........
	36	0.493333	5.15877E-001	-8.87269E-005	0.00000E+000	-4.57722E-005	-5.39641E-002	5.16002E-001	3.57330E+000	9	...........
	37	0.506667	5.10054E-001	-8.88739E-005	0.00000E+000	-4.53304E-005	-5.39641E-002	5.10191E-001	3.57330E+000	9	...........
	38	0.52	5.04288E-001	-8.87092E-005	0.00000E+000	-4.47350E-005	-5.39641E-002	5.04445E-001	3.57330E+000	9	...........
	39	0.533333	4.98578E-001	-8.86050E-005	0.00000E+000	-4.41765E-005	-5.39641E-002	4.98749E-001	3.57330E+000	9	...........
	40	0.546667	4.92942E-001	-8.89603E-005	0.00000E+000	-4.38523E-005	-5.39641E-002	4.93065E-001	3.57330E+000	9	...........
	41	0.56	4.87360E-001	-8.86509E-005	0.00000E+000	-4.32049E-005	-5.39641E-002	4.87475E-001	3.57330E+000	9	...........
	42	0.573333	4.81910E-001	-8.89187E-005	0.00000E+000	-4.28508E-005	-5.39641E-002	4.81982E-001	3.57330E+000	9	...........
	43	0.586667	4.76383E-001	-8.85842E-005	0.00000E+000	-4.22000E-005	-5.39641E-002	4.76451E-001	3.57330E+000	9	...........
	44	0.6	4.70913E-001	-8.87686E-005	0.00000E+000	-4.18023E-005	-5.39641E-002	4.70976E-001	3.57330E+000	9	...........
	45	0.613333	4.65468E-001	-8.89364E-005	0.00000E+000	-4.13970E-005	-5.39641E-002	4.65536E-001	3.57330E+000	9	...........
	46	0.626667	4.60063E-001	-8.87019E-005	0.00000E+000	-4.08085E-005	-5.39641E-002	4.60128E-001	3.57330E+000	9	...........
	47	0.64	4.54685E-001	-8.88749E-005	0.00000E+000	-4.04101E-005	-5.39641E-002	4.54746E-001	3.57330E+000	9	...........
	48	0.653333	4.49351E-001	-8.85488E-005	0.00000E+000	-3.97894E-005	-5.39641E-002	4.49414E-001	3.57330E+000	9	...........
	49	0.666667	4.44027E-001	-8.86853E-005	0.00000E+000	-3.93786E-005	-5.39641E-002	4.44091E-001	3.57330E+000	9	...........
	50	0.68	4.38734E-001	-8.87884E-005	0.00000E+000	-3.89545E-005	-5.39641E-002	4.38800E-001	3.57330E+000	9	...........
	51	0.693333	4.33474E-001	-8.88280E-005	0.00000E+000	-3.85047E-005	-5.39641E-002	4.33534E-001	3.57330E+000	9	...........
	52	0.706667	4.28231E-001	-8.88645E-005	0.00000E+000	-3.80546E-005	-5.39641E-002	4.28291E-001	3.57330E+000	9	...........
	53	0.72	4.23026E-001	-8.88145E-005	0.00000E+000	-3.75708E-005	-5.39641E-002	4.23080E-001	3.57330E+000	9	...........
	54	0.733333	4.17827E-001	-8.89718E-005	0.00000E+000	-3.71748E-005	-5.39641E-002	4.17887E-001	3.57330E+000	9	...........
	55	0.746667	4.12649E-001	-8.86738E-005	0.00000E+000	-3.65912E-005	-5.39641E-002	4.12703E-001	3.57330E+000	9	...........
	56	0.76	4.07515E-001	-8.88009E-005	0.00000E+000	-3.61877E-005	-5.39641E-002	4.07566E-001	3.57330E+000	9	...........
	57	0.773333	4.02392E-001	-8.89155E-005	0.00000E+000	-3.57789E-005	-5.39641E-002	4.02447E-001	3.57330E+000	9	...........
	58	0.786667	3.97277E-001	-8.88238E-005	0.00000E+000	-3.52877E-005	-5.39641E-002	3.97325E-001	3.57330E+000	9	...........
	59	0.8	3.92193E-001	-8.85029E-005	0.00000E+000	-3.47102E-005	-5.39641E-002	3.92240E-001	3.57330E+000	9	...........
	60	0.813333	3.87134E-001	-8.88697E-005	0.00000E+000	-3.44045E-005	-5.39641E-002	3.87185E-001	3.57330E+000	9	...........
	61	0.826667	3.82086E-001	-8.88218E-005	0.00000E+000	-3.39376E-005	-5.39641E-002	3.82135E-001	3.57330E+000	9	...........
	62	0.84	3.77047E-001	-8.88468E-005	0.00000E+000	-3.34994E-005	-5.39641E-002	3.77093E-001	3.57330E+000	9	...........
	63	0.853333	3.72041E-001	-8.88436E-005	0.00000E+000	-3.30535E-005	-5.39641E-002	3.72081E-001	3.57330E+000	9	...........
	64	0.866667	3.67049E-001	-8.87530E-005	0.00000E+000	-3.25767E-005	-5.39641E-002	3.67091E-001	3.57330E+000	9	...........
	65	0.88	3.62079E-001	-8.88936E-005	0.00000E+000	-3.21865E-005	-5.39641E-002	3.62122E-001	3.57330E+000	9	...........
	66	0.893333	3.57116E-001	-8.86394E-005	0.00000E+000	-3.16545E-005	-5.39641E-002	3.57154E-001	3.57330E+000	9	...........
	67	0.906667	3.52162E-001	-8.85842E-005	0.00000E+000	-3.11960E-005	-5.39641E-002	3.52201E-001	3.57330E+000	9	...........
	68	0.92	3.47207E-001	-8.86103E-005	0.00000E+000	-3.07661E-005	-5.39641E-002	3.47252E-001	3.57330E+000	9	...........
	69	0.933333	3.42278E-001	-8.84977E-005	0.00000E+000	-3.02908E-005	-5.39641E-002	3.42317E-001	3.57330E+000	9	...........
	70	0.946667	3.37354E-001	-8.86676E-005	0.00000E+000	-2.99124E-005	-5.39641E-002	3.37393E-001	3.57330E+000	9	...........
	71	0.96	3.32452E-001	-8.90416E-005	0.00000E+000	-2.96020E-005	-5.39641E-002	3.32489E-001	3.57330E+000	9	...........
	72	0.97333	3.27562E-001	-8.88426E-005	0.00000E+000	-2.91015E-005	-5.39641E-002	3.27604E-001	3.57330E+000	9	...........
	73	0.98667	3.22680E-001	-8.87811E-005	0.00000E+000	-2.86479E-005	-5.39641E-002	3.22721E-001	3.57330E+000	9	...........
	74	1	3.17819E-001	-8.86738E-005	0.00000E+000	-2.81823E-005	-5.39641E-002	3.17859E-001	3.57330E+000	9	...........
	75	1.01333	3.12972E-001	-8.90072E-005	0.00000E+000	-2.78568E-005	-5.39641E-002	3.13011E-001	3.57330E+000	9	...........
	76	1.02667	3.08145E-001	-8.89135E-005	0.00000E+000	-2.73982E-005	-5.39641E-002	3.08180E-001	3.57330E+000	9	...........
	77	1.04	3.03320E-001	-8.89176E-005	0.00000E+000	-2.69705E-005	-5.39641E-002	3.03363E-001	3.57330E+000	9	...........
	78	1.05333	2.98511E-001	-8.89124E-005	0.00000E+000	-2.65413E-005	-5.39641E-002	2.98552E-001	3.57330E+000	9	...........
	79	1.06667	2.93709E-001	-8.87488E-005	0.00000E+000	-2.60663E-005	-5.39641E-002	2.93749E-001	3.57330E+000	9	...........
	80	1.08	2.88941E-001	-8.86999E-005	0.00000E+000	-2.56291E-005	-5.39641E-002	2.88974E-001	3.57330E+000	9	...........
	81	1.09333	2.84165E-001	-8.86926E-005	0.00000E+000	-2.52034E-005	-5.39641E-002	2.84202E-001	3.57330E+000	9	...........
	82	1.10667	2.79423E-001	-8.87947E-005	0.00000E+000	-2.48112E-005	-5.39641E-002	2.79460E-001	3.57330E+000	9	...........
	83	1.12	2.74702E-001	-8.89343E-005	0.00000E+000	-2.44304E-005	-5.39641E-002	2.74736E-001	3.57330E+000	9	...........
	84	1.13333	2.69989E-001	-8.89551E-005	0.00000E+000	-2.40169E-005	-5.39641E-002	2.70021E-001	3.57330E+000	9	...........
	85	1.14667	2.65286E-001	-8.88332E-005	0.00000E+000	-2.35662E-005	-5.39641E-002	2.65319E-001	3.57330E+000	9	...........
	86	1.16	2.60598E-001	-8.89280E-005	0.00000E+000	-2.31745E-005	-5.39641E-002	2.60634E-001	3.57330E+000	9	...........
	87	1.17333	2.55956E-001	-8.84311E-005	0.00000E+000	-2.26345E-005	-5.39641E-002	2.55989E-001	3.57330E+000	9	...........
	88	1.18667	2.51313E-001	-8.88436E-005	0.00000E+000	-2.23276E-005	-5.39641E-002	2.51349E-001	3.57330E+000	9	...........
	89	1.2	2.46696E-001	-8.88291E-005	0.00000E+000	-2.19138E-005	-5.39641E-002	2.46725E-001	3.57330E+000	9	...........
	90	1.21333	2.42098E-001	-8.88343E-005	0.00000E+000	-2.15066E-005	-5.39641E-002	2.42127E-001	3.57330E+000	9	...........
	91	1.22667	2.37506E-001	-8.87061E-005	0.00000E+000	-2.10682E-005	-5.39641E-002	2.37536E-001	3.57330E+000	9	...........
	92	1.24	2.32927E-001	-8.88811E-005	0.00000E+000	-2.07028E-005	-5.39641E-002	2.32954E-001	3.57330E+000	9	...........
	93	1.25333	2.28352E-001	-8.86009E-005	0.00000E+000	-2.02322E-005	-5.39641E-002	2.28379E-001	3.57330E+000	9	...........
	94	1.26667	2.23790E-001	-8.86853E-005	0.00000E+000	-1.98469E-005	-5.39641E-002	2.23813E-001	3.57330E+000	9	...........
	95	1.28	2.19261E-001	-8.88259E-005	0.00000E+000	-1.94761E-005	-5.39641E-002	2.19285E-001	3.57330E+000	9	...........
	96	1.29333	2.14758E-001	-8.88489E-005	0.00000E+000	-1.90810E-005	-5.39641E-002	2.14782E-001	3.57330E+000	9	...........
	97	1.30667	2.10274E-001	-8.87863E-005	0.00000E+000	-1.86694E-005	-5.39641E-002	2.10292E-001	3.57330E+000	9	...........
	98	1.32	2.05819E-001	-8.87676E-005	0.00000E+000	-1.82701E-005	-5.39641E-002	2.05845E-001	3.57330E+000	9	...........
	99	1.33333	2.01375E-001	-8.88072E-005	0.00000E+000	-1.78835E-005	-5.39641E-002	2.01400E-001	3.57330E+000	9	...........
	100	1.34667	1.96954E-001	-8.89395E-005	0.00000E+000	-1.75170E-005	-5.39641E-002	1.96979E-001	3.57330E+000	9	...........
	101	1.36	1.92553E-001	-8.86947E-005	0.00000E+000	-1.70785E-005	-5.39641E-002	1.92580E-001	3.57330E+000	9	...........
	102	1.37333	1.88173E-001	-8.87301E-005	0.00000E+000	-1.66966E-005	-5.39641E-002	1.88196E-001	3.57330E+000	9	...........
	103	1.38667	1.83799E-001	-8.86686E-005	0.00000E+000	-1.62972E-005	-5.39641E-002	1.83823E-001	3.57330E+000	9	...........
	104	1.4	1.79451E-001	-8.86676E-005	0.00000E+000	-1.59114E-005	-5.39641E-002	1.79474E-001	3.57353E+000	9	...........
	105	1.41333	1.75129E-001	-8.86655E-005	0.00000E+000	-1.55279E-005	-5.39641E-002	1.75148E-001	3.57360E+000	9	...........
	106	1.42667	1.70814E-001	-8.89041E-005	0.00000E+000	-1.51860E-005	-5.39641E-002	1.70835E-001	3.57360E+000	9	...........
	107	1.44	1.66525E-001	-8.86342E-005	0.00000E+000	-1.47598E-005	-5.39641E-002	1.66541E-001	3.57360E+000	9	...........
	108	1.45333	1.62256E-001	-8.84988E-005	0.00000E+000	-1.43595E-005	-5.39641E-002	1.62269E-001	3.57360E+000	9	...........
	109	1.46667	1.58005E-001	-8.87759E-005	0.00000E+000	-1.40270E-005	-5.39641E-002	1.58016E-001	3.57360E+000	9	...........
	110	1.48	1.53773E-001	-8.86915E-005	0.00000E+000	-1.36384E-005	-5.39641E-002	1.53786E-001	3.57360E+000	9	...........
	111	1.49333	1.49563E-001	-8.89239E-005	0.00000E+000	-1.32997E-005	-5.39641E-002	1.49576E-001	3.57360E+000	9	...........
	112	1.50667	1.45375E-001	-8.86603E-005	0.00000E+000	-1.28890E-005	-5.39641E-002	1.45384E-001	3.57360E+000	9	...........
	113	1.52	1.41179E-001	-8.86394E-005	0.00000E+000	-1.25140E-005	-5.39641E-002	1.41190E-001	3.57360E+000	9	...........
	114	1.53333	1.37016E-001	-8.87915E-005	0.00000E+000	-1.21658E-005	-5.39641E-002	1.37026E-001	3.57360E+000	9	...........
	115	1.54667	1.32873E-001	-8.87582E-005	0.00000E+000	-1.17936E-005	-5.39641E-002	1.32884E-001	3.57360E+000	9	...........
	116	1.56	1.28754E-001	-8.85988E-005	0.00000E+000	-1.14074E-005	-5.39641E-002	1.28771E-001	3.57360E+000	9	...........
	117	1.57333	1.24653E-001	-8.88259E-005	0.00000E+000	-1.10724E-005	-5.39641E-002	1.24660E-001	3.57360E+000	9	...........
	118	1.58667	1.20569E-001	-8.89082E-005	0.00000E+000	-1.07196E-005	-5.39641E-002	1.20583E-001	3.57360E+000	9	...........
	119	1.6	1.16502E-001	-8.86394E-005	0.00000E+000	-1.03267E-005	-5.39641E-002	1.16515E-001	3.57360E+000	9	...........
	120	1.61333	1.12452E-001	-8.90020E-005	0.00000E+000	-1.00085E-005	-5.39641E-002	1.12465E-001	3.57360E+000	9	...........
	121	1.62667	1.08415E-001	-8.88332E-005	0.00000E+000	-9.63089E-006	-5.39641E-002	1.08427E-001	3.57360E+000	9	...........
	122	1.64	1.04394E-001	-8.89187E-005	0.00000E+000	-9.28259E-006	-5.39641E-002	1.04407E-001	3.57360E+000	9	...........
	123	1.65333	1.00401E-001	-8.89374E-005	0.00000E+000	-8.92937E-006	-5.39641E-002	1.00410E-001	3.57360E+000	9	...........
	124	1.66667	9.64158E-002	-8.86655E-005	0.00000E+000	-8.54875E-006	-5.39641E-002	9.64313E-002	3.57360E+000	9	...........
	125	1.68	9.24615E-002	-8.86717E-005	0.00000E+000	-8.19872E-006	-5.39641E-002	9.24747E-002	3.57360E+000	9	...........
	126	1.69333	8.85165E-002	-8.89103E-005	0.00000E+000	-7.87003E-006	-5.39641E-002	8.85326E-002	3.57360E+000	9	...........
	127	1.70667	8.45875E-002	-8.86634E-005	0.00000E+000	-7.49981E-006	-5.39641E-002	8.45973E-002	3.57360E+000	9	...........
	128	1.72	8.06815E-002	-8.90218E-005	0.00000E+000	-7.18241E-006	-5.39641E-002	8.06909E-002	3.57360E+000	9	...........
	129	1.73333	7.67904E-002	-8.86040E-005	0.00000E+000	-6.80394E-006	-5.39641E-002	7.67923E-002	3.57360E+000	9	...........
	130	1.74667	7.29271E-002	-8.85936E-005	0.00000E+000	-6.46087E-006	-5.39641E-002	7.29295E-002	3.57360E+000	9	...........
	131	1.76	6.90843E-002	-8.88155E-005	0.00000E+000	-6.13575E-006	-5.39641E-002	6.90827E-002	3.57360E+000	9	...........
	132	1.77333	6.52482E-002	-8.87415E-005	0.00000E+000	-5.79022E-006	-5.39641E-002	6.52455E-002	3.57360E+000	9	...........
	133	1.78667	6.14165E-002	-8.88843E-005	0.00000E+000	-5.45896E-006	-5.39641E-002	6.14175E-002	3.57360E+000	9	...........
	134	1.8	5.76111E-002	-8.88374E-005	0.00000E+000	-5.11802E-006	-5.39641E-002	5.76095E-002	3.57360E+000	9	...........
	135	1.81333	5.38180E-002	-8.87770E-005	0.00000E+000	-4.77780E-006	-5.39641E-002	5.38174E-002	3.57360E+000	9	...........
	136	1.82667	5.00352E-002	-8.87842E-005	0.00000E+000	-4.44233E-006	-5.39641E-002	5.00324E-002	3.57360E+000	9	...........
	137	1.84	4.62702E-002	-8.87853E-005	0.00000E+000	-4.10812E-006	-5.39641E-002	4.62808E-002	3.57360E+000	9	...........
	138	1.85333	4.25308E-002	-8.88926E-005	0.00000E+000	-3.78067E-006	-5.39641E-002	4.25396E-002	3.57360E+000	9	...........
	139	1.86667	3.87966E-002	-8.88645E-005	0.00000E+000	-3.44764E-006	-5.39641E-002	3.88039E-002	3.57360E+000	9	...........
	140	1.88	3.50868E-002	-8.88624E-005	0.00000E+000	-3.11790E-006	-5.39641E-002	3.50878E-002	3.57360E+000	9	...........
	141	1.89333	3.14120E-002	-8.87676E-005	0.00000E+000	-2.78836E-006	-5.39641E-002	3.14204E-002	3.57360E+000	9	...........
	142	1.90667	2.77555E-002	-8.88238E-005	0.00000E+000	-2.46535E-006	-5.39641E-002	2.77577E-002	3.57360E+000	9	...........
	143	1.92	2.41102E-002	-8.88041E-005	0.00000E+000	-2.14109E-006	-5.39641E-002	2.41103E-002	3.57360E+000	9	...........
	144	1.93333	2.04907E-002	-8.87926E-005	0.00000E+000	-1.81942E-006	-5.39641E-002	2.04861E-002	3.57360E+000	9	...........
	145	1.94667	1.68745E-002	-8.88666E-005	0.00000E+000	-1.49958E-006	-5.39641E-002	1.68743E-002	3.57360E+000	9	...........
	146	1.96	1.32797E-002	-8.88541E-005	0.00000E+000	-1.17995E-006	-5.39641E-002	1.32741E-002	3.57360E+000	9	...........
	147	1.97333	9.72453E-003	-8.90791E-005	0.00000E+000	-8.66253E-007	-5.39641E-002	9.71694E-003	3.57360E+000	9	...........
	148	1.98667	6.18733E-003	-8.87488E-005	0.00000E+000	-5.49119E-007	-5.39641E-002	6.17382E-003	3.57360E+000	9	...........
	149	2	2.65888E-003	-8.89082E-005	0.00000E+000	-2.36397E-007	-5.39641E-002	2.64694E-003	3.57360E+000	9	...........
	150	2.005	2.39396E-004	-8.88082E-005	0.00000E+000	-2.12603E-008	-5.39641E-002	2.26187E-004	3.57360E+000	9	...........
STARTTIMEOFFSET	QUANT	2593.789	Start Time Offset (s)
