EXPLAIN
TAG	PWR800_DISCHARGE
TITLE	LABEL	PWR Cyclic Charge Discharge (Cell) - Discharge Step	Test &Identifier
DATE	LABEL	10-7-2017	Date
TIME	LABEL	15:15:34	Time
NOTES	NOTES	3	&Notes...
	supercap test cell
	0.9mg
	6M KOH
PSTAT	PSTAT	IFC5000-01520	Potentiostat
CAPACITY	QUANT	1.00000E-003	Capacity (A-hr)
CELLTYPE	SELECTOR	1	&Cell Type
WORKINGCONNECTION	SELECTOR	0	&Working Lead
MAXDISCHARGETIME	VARIABLEANDUNITS	1.00000E+002	s	1.00000E+002	second(s)	Max &Discharge Time
DISCHARGEMODE	MULTIPARAM	0	9.00000E-005	&Discharge Mode	Constant Current	Amp(s)
SAMPLETIME	QUANT	1.00000E-002	Sa&mple Period (s)
DISCHARGESTOPAT1	MULTIPARAM	3	0.00000E+000	Discharge Stop At &1	Voltage < Limit	V
DISCHARGESTOPAT2	MULTIPARAM	0	0.00000E+000	Discharge Stop At &2	None	N/A
AESBHCSELECTOR	TOGGLE	F	Save Both Half Cells
IRCOMP	TOGGLE	F	IR &Measure
EOC	QUANT	0	Open Circuit (V)
SEQUENCER	TOGGLE	TRUE	Run as Sequence
PSTATMODEL	IQUANT	53	Pstat Model
PSTATSECTION	LABEL	IFC5000-01520	Pstat Section
PSTATSERIALNO	LABEL	01520	Pstat Serial Number
CTRLMODE	IQUANT	0	Control Mode
ELECTROMETER	IQUANT	1	RE=0 or CS=1
IESTAB	IQUANT	0	I/E Stability
CASPEED	IQUANT	4	Control Amp Speed
CONVENTION	IQUANT	1	Current Convention
ICHRANGE	IQUANT	2	Ich Range
ICHRANGEMODE	TOGGLE	T	Ich Auto Range
ICHOFFSETENABLE	TOGGLE	F	Ich Offset Enable
ICHOFFSET	QUANT	0	Ich Offset (V)
ICHFILTER	IQUANT	1	Ich Filter
VCHRANGE	IQUANT	2	Vch Range
VCHRANGEMODE	TOGGLE	T	Vch Auto Range
VCHOFFSETENABLE	TOGGLE	F	Vch Offset Enable
VCHOFFSET	QUANT	0	Vch Offset (V)
VCHFILTER	IQUANT	1	Vch Filter
IERANGELOWERLIMIT	IQUANT	9	I/E Range Lower Limit
IERANGEMODE	TOGGLE	F	I/E AutoRange
IERANGE	IQUANT	9	I/E Range
ACHSELECT	IQUANT	1	Ach Select
ACHRANGE	IQUANT	2	Ach Range
ACHOFFSETENABLE	TOGGLE	F	Ach Offset Enable
ACHOFFSET	QUANT	0	Ach Offset (V)
ACHFILTER	IQUANT	1	Ach Filter
CABLEID	IQUANT	14	Cable ID
DCCALDATE	LABEL	5-7-2017	DC Calibration Date
ACCALDATE	LABEL	12/3/2015	AC Calibration Date
FRAMEWORKVERSION	QUANT	7.01	Framework Version
INSTRUMENTVERSION	LABEL	4.00	Instrument Version
CURVE	TABLE	162
	Pt	T	Vf	Im	Vu	Pwr	Sig	Ach	Temp	IERange	Over
	#	s	V	A	V	W	V	V	deg C	#	bits
	0	0.013333	8.28563E-001	-8.87978E-005	0.00000E+000	-7.35745E-005	-5.39641E-002	8.28738E-001	3.57198E+000	9	...........
	1	0.026667	8.16209E-001	-8.88468E-005	0.00000E+000	-7.25176E-005	-5.39641E-002	8.16387E-001	3.57180E+000	9	...........
	2	0.04	8.04628E-001	-8.86561E-005	0.00000E+000	-7.13351E-005	-5.39641E-002	8.04751E-001	3.57180E+000	9	...........
	3	0.053333	7.93615E-001	-8.88218E-005	0.00000E+000	-7.04903E-005	-5.39641E-002	7.93727E-001	3.57180E+000	9	...........
	4	0.066667	7.83068E-001	-8.88947E-005	0.00000E+000	-6.96106E-005	-5.39641E-002	7.83199E-001	3.57180E+000	9	...........
	5	0.08	7.72953E-001	-8.84873E-005	0.00000E+000	-6.83966E-005	-5.39641E-002	7.73069E-001	3.57180E+000	9	...........
	6	0.093333	7.63180E-001	-8.85280E-005	0.00000E+000	-6.75627E-005	-5.39641E-002	7.63289E-001	3.57180E+000	9	...........
	7	0.106667	7.53739E-001	-8.83894E-005	0.00000E+000	-6.66225E-005	-5.39641E-002	7.53873E-001	3.57180E+000	9	...........
	8	0.12	7.44589E-001	-8.86301E-005	0.00000E+000	-6.59930E-005	-5.39641E-002	7.44691E-001	3.57180E+000	9	...........
	9	0.133333	7.35667E-001	-8.87238E-005	0.00000E+000	-6.52712E-005	-5.39641E-002	7.35755E-001	3.57180E+000	9	...........
	10	0.146667	7.27030E-001	-8.86957E-005	0.00000E+000	-6.44844E-005	-5.39641E-002	7.27106E-001	3.57180E+000	9	...........
	11	0.16	7.18577E-001	-8.86082E-005	0.00000E+000	-6.36718E-005	-5.39641E-002	7.18670E-001	3.57180E+000	9	...........
	12	0.173333	7.10318E-001	-8.86759E-005	0.00000E+000	-6.29881E-005	-5.39641E-002	7.10414E-001	3.57180E+000	9	...........
	13	0.186667	7.02285E-001	-8.87030E-005	0.00000E+000	-6.22948E-005	-5.39641E-002	7.02384E-001	3.57180E+000	9	...........
	14	0.2	6.94372E-001	-8.87915E-005	0.00000E+000	-6.16543E-005	-5.39641E-002	6.94473E-001	3.57180E+000	9	...........
	15	0.213333	6.86630E-001	-8.87780E-005	0.00000E+000	-6.09577E-005	-5.39641E-002	6.86724E-001	3.57180E+000	9	...........
	16	0.226667	6.79097E-001	-8.86582E-005	0.00000E+000	-6.02075E-005	-5.39641E-002	6.79183E-001	3.57180E+000	9	...........
	17	0.24	6.71683E-001	-8.87207E-005	0.00000E+000	-5.95922E-005	-5.39641E-002	6.71769E-001	3.57180E+000	9	...........
	18	0.253333	6.64386E-001	-8.86582E-005	0.00000E+000	-5.89032E-005	-5.39641E-002	6.64490E-001	3.57180E+000	9	...........
	19	0.266667	6.57246E-001	-8.86405E-005	0.00000E+000	-5.82586E-005	-5.39641E-002	6.57324E-001	3.57180E+000	9	...........
	20	0.28	6.50190E-001	-8.86446E-005	0.00000E+000	-5.76359E-005	-5.39641E-002	6.50287E-001	3.57180E+000	9	...........
	21	0.293333	6.43297E-001	-8.85894E-005	0.00000E+000	-5.69893E-005	-5.39641E-002	6.43386E-001	3.57180E+000	9	...........
	22	0.306667	6.36464E-001	-8.87228E-005	0.00000E+000	-5.64689E-005	-5.39641E-002	6.36553E-001	3.57180E+000	9	...........
	23	0.32	6.29767E-001	-8.86394E-005	0.00000E+000	-5.58222E-005	-5.39641E-002	6.29864E-001	3.57180E+000	9	...........
	24	0.333333	6.23167E-001	-8.87530E-005	0.00000E+000	-5.53079E-005	-5.39641E-002	6.23253E-001	3.57180E+000	9	...........
	25	0.346667	6.16646E-001	-8.88030E-005	0.00000E+000	-5.47600E-005	-5.39641E-002	6.16764E-001	3.57180E+000	9	...........
	26	0.36	6.10154E-001	-8.88270E-005	0.00000E+000	-5.41982E-005	-5.39641E-002	6.10304E-001	3.57180E+000	9	...........
	27	0.373333	6.03786E-001	-8.84633E-005	0.00000E+000	-5.34129E-005	-5.39641E-002	6.03933E-001	3.57180E+000	9	...........
	28	0.386667	5.97505E-001	-8.85665E-005	0.00000E+000	-5.29189E-005	-5.39641E-002	5.97626E-001	3.57180E+000	9	...........
	29	0.4	5.91310E-001	-8.88124E-005	0.00000E+000	-5.25156E-005	-5.39641E-002	5.91421E-001	3.57180E+000	9	...........
	30	0.413333	5.85125E-001	-8.85009E-005	0.00000E+000	-5.17841E-005	-5.39641E-002	5.85257E-001	3.57180E+000	9	...........
	31	0.426667	5.79047E-001	-8.85602E-005	0.00000E+000	-5.12805E-005	-5.39641E-002	5.79201E-001	3.57180E+000	9	...........
	32	0.44	5.73072E-001	-8.87655E-005	0.00000E+000	-5.08690E-005	-5.39641E-002	5.73177E-001	3.57180E+000	9	...........
	33	0.453333	5.67107E-001	-8.85946E-005	0.00000E+000	-5.02427E-005	-5.39641E-002	5.67202E-001	3.57180E+000	9	...........
	34	0.466667	5.61158E-001	-8.87405E-005	0.00000E+000	-4.97974E-005	-5.39641E-002	5.61272E-001	3.57180E+000	9	...........
	35	0.48	5.55304E-001	-8.84394E-005	0.00000E+000	-4.91108E-005	-5.39641E-002	5.55416E-001	3.57180E+000	9	...........
	36	0.493333	5.49522E-001	-8.87072E-005	0.00000E+000	-4.87465E-005	-5.39641E-002	5.49600E-001	3.57180E+000	9	...........
	37	0.506667	5.43779E-001	-8.88291E-005	0.00000E+000	-4.83033E-005	-5.39641E-002	5.43859E-001	3.57180E+000	9	...........
	38	0.52	5.38052E-001	-8.87238E-005	0.00000E+000	-4.77380E-005	-5.39641E-002	5.38147E-001	3.57180E+000	9	...........
	39	0.533333	5.32351E-001	-8.84592E-005	0.00000E+000	-4.70913E-005	-5.39641E-002	5.32450E-001	3.57180E+000	9	...........
	40	0.546667	5.26746E-001	-8.87040E-005	0.00000E+000	-4.67245E-005	-5.39641E-002	5.26835E-001	3.57180E+000	9	...........
	41	0.56	5.21133E-001	-8.85905E-005	0.00000E+000	-4.61674E-005	-5.39641E-002	5.21237E-001	3.57180E+000	9	...........
	42	0.573333	5.15581E-001	-8.86259E-005	0.00000E+000	-4.56938E-005	-5.39641E-002	5.15667E-001	3.57180E+000	9	...........
	43	0.586667	5.10037E-001	-8.86144E-005	0.00000E+000	-4.51967E-005	-5.39641E-002	5.10140E-001	3.57180E+000	9	...........
	44	0.6	5.04525E-001	-8.84894E-005	0.00000E+000	-4.46451E-005	-5.39641E-002	5.04623E-001	3.57180E+000	9	...........
	45	0.613333	4.99063E-001	-8.86123E-005	0.00000E+000	-4.42232E-005	-5.39641E-002	4.99138E-001	3.57180E+000	9	...........
	46	0.626667	4.93629E-001	-8.86301E-005	0.00000E+000	-4.37504E-005	-5.39641E-002	4.93718E-001	3.57180E+000	9	...........
	47	0.64	4.88254E-001	-8.85905E-005	0.00000E+000	-4.32547E-005	-5.39641E-002	4.88313E-001	3.57180E+000	9	...........
	48	0.653333	4.82921E-001	-8.87790E-005	0.00000E+000	-4.28733E-005	-5.39641E-002	4.82970E-001	3.57180E+000	9	...........
	49	0.666667	4.77574E-001	-8.87603E-005	0.00000E+000	-4.23896E-005	-5.39641E-002	4.77630E-001	3.57180E+000	9	...........
	50	0.68	4.72253E-001	-8.84967E-005	0.00000E+000	-4.17928E-005	-5.39641E-002	4.72308E-001	3.57180E+000	9	...........
	51	0.693333	4.66959E-001	-8.87613E-005	0.00000E+000	-4.14479E-005	-5.39641E-002	4.67016E-001	3.57180E+000	9	...........
	52	0.706667	4.61694E-001	-8.87915E-005	0.00000E+000	-4.09945E-005	-5.39641E-002	4.61748E-001	3.57180E+000	9	...........
	53	0.72	4.56448E-001	-8.86384E-005	0.00000E+000	-4.04588E-005	-5.39641E-002	4.56504E-001	3.57180E+000	9	...........
	54	0.733333	4.51226E-001	-8.87113E-005	0.00000E+000	-4.00289E-005	-5.39641E-002	4.51284E-001	3.57180E+000	9	...........
	55	0.746667	4.46006E-001	-8.86488E-005	0.00000E+000	-3.95379E-005	-5.39641E-002	4.46059E-001	3.57180E+000	9	...........
	56	0.76	4.40804E-001	-8.90281E-005	0.00000E+000	-3.92439E-005	-5.39641E-002	4.40860E-001	3.57180E+000	9	...........
	57	0.773333	4.35636E-001	-8.87717E-005	0.00000E+000	-3.86722E-005	-5.39641E-002	4.35693E-001	3.57180E+000	9	...........
	58	0.786667	4.30498E-001	-8.86165E-005	0.00000E+000	-3.81492E-005	-5.39641E-002	4.30549E-001	3.57180E+000	9	...........
	59	0.8	4.25364E-001	-8.88634E-005	0.00000E+000	-3.77993E-005	-5.39641E-002	4.25419E-001	3.57180E+000	9	...........
	60	0.813333	4.20252E-001	-8.83540E-005	0.00000E+000	-3.71309E-005	-5.39641E-002	4.20301E-001	3.57180E+000	9	...........
	61	0.826667	4.15155E-001	-8.84227E-005	0.00000E+000	-3.67091E-005	-5.39641E-002	4.15206E-001	3.57180E+000	9	...........
	62	0.84	4.10053E-001	-8.85227E-005	0.00000E+000	-3.62990E-005	-5.39641E-002	4.10096E-001	3.57180E+000	9	...........
	63	0.853333	4.04967E-001	-8.84394E-005	0.00000E+000	-3.58150E-005	-5.39641E-002	4.05011E-001	3.57180E+000	9	...........
	64	0.866667	3.99886E-001	-8.88082E-005	0.00000E+000	-3.55132E-005	-5.39641E-002	3.99933E-001	3.57180E+000	9	...........
	65	0.88	3.94852E-001	-8.87957E-005	0.00000E+000	-3.50611E-005	-5.39641E-002	3.94890E-001	3.57180E+000	9	...........
	66	0.893333	3.89850E-001	-8.88728E-005	0.00000E+000	-3.46471E-005	-5.39641E-002	3.89880E-001	3.57180E+000	9	...........
	67	0.906667	3.84855E-001	-8.88134E-005	0.00000E+000	-3.41803E-005	-5.39641E-002	3.84893E-001	3.57180E+000	9	...........
	68	0.92	3.79882E-001	-8.88666E-005	0.00000E+000	-3.37588E-005	-5.39641E-002	3.79922E-001	3.57180E+000	9	...........
	69	0.933333	3.74929E-001	-8.86540E-005	0.00000E+000	-3.32390E-005	-5.39641E-002	3.74965E-001	3.57180E+000	9	...........
	70	0.946667	3.69975E-001	-8.83988E-005	0.00000E+000	-3.27054E-005	-5.39641E-002	3.70018E-001	3.57180E+000	9	...........
	71	0.96	3.65057E-001	-8.91406E-005	0.00000E+000	-3.25414E-005	-5.39641E-002	3.65097E-001	3.57180E+000	9	...........
	72	0.97333	3.60168E-001	-8.86342E-005	0.00000E+000	-3.19232E-005	-5.39641E-002	3.60206E-001	3.57180E+000	9	...........
	73	0.98667	3.55295E-001	-8.89072E-005	0.00000E+000	-3.15883E-005	-5.39641E-002	3.55333E-001	3.57180E+000	9	...........
	74	1	3.50453E-001	-8.86332E-005	0.00000E+000	-3.10618E-005	-5.39641E-002	3.50490E-001	3.57180E+000	9	...........
	75	1.01333	3.45609E-001	-8.86999E-005	0.00000E+000	-3.06555E-005	-5.39641E-002	3.45646E-001	3.57181E+000	9	...........
	76	1.02667	3.40786E-001	-8.86957E-005	0.00000E+000	-3.02263E-005	-5.39641E-002	3.40824E-001	3.57190E+000	9	...........
	77	1.04	3.35994E-001	-8.84196E-005	0.00000E+000	-2.97084E-005	-5.39641E-002	3.36028E-001	3.57190E+000	9	...........
	78	1.05333	3.31227E-001	-8.86384E-005	0.00000E+000	-2.93594E-005	-5.39641E-002	3.31259E-001	3.57190E+000	9	...........
	79	1.06667	3.26474E-001	-8.86217E-005	0.00000E+000	-2.89327E-005	-5.39641E-002	3.26515E-001	3.57190E+000	9	...........
	80	1.08	3.21741E-001	-8.86207E-005	0.00000E+000	-2.85129E-005	-5.39641E-002	3.21774E-001	3.57190E+000	9	...........
	81	1.09333	3.17018E-001	-8.86446E-005	0.00000E+000	-2.81020E-005	-5.39641E-002	3.17053E-001	3.57190E+000	9	...........
	82	1.10667	3.12321E-001	-8.87072E-005	0.00000E+000	-2.77051E-005	-5.39641E-002	3.12348E-001	3.57190E+000	9	...........
	83	1.12	3.07664E-001	-8.87499E-005	0.00000E+000	-2.73052E-005	-5.39641E-002	3.07696E-001	3.57190E+000	9	...........
	84	1.13333	3.03055E-001	-8.86061E-005	0.00000E+000	-2.68525E-005	-5.39641E-002	3.03082E-001	3.57190E+000	9	...........
	85	1.14667	2.98441E-001	-8.88134E-005	0.00000E+000	-2.65056E-005	-5.39641E-002	2.98470E-001	3.57190E+000	9	...........
	86	1.16	2.93838E-001	-8.88770E-005	0.00000E+000	-2.61154E-005	-5.39641E-002	2.93864E-001	3.57190E+000	9	...........
	87	1.17333	2.89246E-001	-8.88436E-005	0.00000E+000	-2.56976E-005	-5.39641E-002	2.89274E-001	3.57190E+000	9	...........
	88	1.18667	2.84690E-001	-8.87645E-005	0.00000E+000	-2.52703E-005	-5.39641E-002	2.84725E-001	3.57190E+000	9	...........
	89	1.2	2.80162E-001	-8.88707E-005	0.00000E+000	-2.48982E-005	-5.39641E-002	2.80194E-001	3.57190E+000	9	...........
	90	1.21333	2.75638E-001	-8.88353E-005	0.00000E+000	-2.44864E-005	-5.39641E-002	2.75668E-001	3.57190E+000	9	...........
	91	1.22667	2.71143E-001	-8.85530E-005	0.00000E+000	-2.40105E-005	-5.39641E-002	2.71174E-001	3.57190E+000	9	...........
	92	1.24	2.66650E-001	-8.89114E-005	0.00000E+000	-2.37083E-005	-5.39641E-002	2.66683E-001	3.57190E+000	9	...........
	93	1.25333	2.62198E-001	-8.86978E-005	0.00000E+000	-2.32564E-005	-5.39641E-002	2.62232E-001	3.57190E+000	9	...........
	94	1.26667	2.57764E-001	-8.88832E-005	0.00000E+000	-2.29109E-005	-5.39641E-002	2.57793E-001	3.57190E+000	9	...........
	95	1.28	2.53332E-001	-8.85540E-005	0.00000E+000	-2.24336E-005	-5.39641E-002	2.53360E-001	3.57190E+000	9	...........
	96	1.29333	2.48905E-001	-8.86551E-005	0.00000E+000	-2.20666E-005	-5.39641E-002	2.48931E-001	3.57190E+000	9	...........
	97	1.30667	2.44541E-001	-8.88238E-005	0.00000E+000	-2.17211E-005	-5.39641E-002	2.44564E-001	3.57190E+000	9	...........
	98	1.32	2.40217E-001	-8.85019E-005	0.00000E+000	-2.12597E-005	-5.39641E-002	2.40235E-001	3.57190E+000	9	...........
	99	1.33333	2.35895E-001	-8.86176E-005	0.00000E+000	-2.09044E-005	-5.39641E-002	2.35919E-001	3.57190E+000	9	...........
	100	1.34667	2.31597E-001	-8.86759E-005	0.00000E+000	-2.05371E-005	-5.39641E-002	2.31612E-001	3.57190E+000	9	...........
	101	1.36	2.27317E-001	-8.89093E-005	0.00000E+000	-2.02106E-005	-5.39641E-002	2.27335E-001	3.57190E+000	9	...........
	102	1.37333	2.23059E-001	-8.88436E-005	0.00000E+000	-1.98174E-005	-5.39641E-002	2.23075E-001	3.57190E+000	9	...........
	103	1.38667	2.18810E-001	-8.86749E-005	0.00000E+000	-1.94030E-005	-5.39641E-002	2.18829E-001	3.57190E+000	9	...........
	104	1.4	2.14576E-001	-8.87540E-005	0.00000E+000	-1.90445E-005	-5.39641E-002	2.14596E-001	3.57190E+000	9	...........
	105	1.41333	2.10358E-001	-8.87697E-005	0.00000E+000	-1.86734E-005	-5.39641E-002	2.10380E-001	3.57190E+000	9	...........
	106	1.42667	2.06171E-001	-8.87540E-005	0.00000E+000	-1.82985E-005	-5.39641E-002	2.06186E-001	3.57190E+000	9	...........
	107	1.44	2.01972E-001	-8.87072E-005	0.00000E+000	-1.79164E-005	-5.39641E-002	2.01996E-001	3.57190E+000	9	...........
	108	1.45333	1.97808E-001	-8.87176E-005	0.00000E+000	-1.75491E-005	-5.39641E-002	1.97827E-001	3.57190E+000	9	...........
	109	1.46667	1.93649E-001	-8.87197E-005	0.00000E+000	-1.71804E-005	-5.39641E-002	1.93664E-001	3.57190E+000	9	...........
	110	1.48	1.89533E-001	-8.87832E-005	0.00000E+000	-1.68273E-005	-5.39641E-002	1.89553E-001	3.57190E+000	9	...........
	111	1.49333	1.85445E-001	-8.85123E-005	0.00000E+000	-1.64142E-005	-5.39641E-002	1.85461E-001	3.57190E+000	9	...........
	112	1.50667	1.81347E-001	-8.87019E-005	0.00000E+000	-1.60858E-005	-5.39641E-002	1.81369E-001	3.57190E+000	9	...........
	113	1.52	1.77271E-001	-8.88447E-005	0.00000E+000	-1.57495E-005	-5.39641E-002	1.77288E-001	3.57190E+000	9	...........
	114	1.53333	1.73209E-001	-8.86582E-005	0.00000E+000	-1.53564E-005	-5.39641E-002	1.73231E-001	3.57190E+000	9	...........
	115	1.54667	1.69160E-001	-8.89082E-005	0.00000E+000	-1.50397E-005	-5.39641E-002	1.69179E-001	3.57190E+000	9	...........
	116	1.56	1.65137E-001	-8.86446E-005	0.00000E+000	-1.46386E-005	-5.39641E-002	1.65156E-001	3.57190E+000	9	...........
	117	1.57333	1.61137E-001	-8.87363E-005	0.00000E+000	-1.42987E-005	-5.39641E-002	1.61150E-001	3.57190E+000	9	...........
	118	1.58667	1.57151E-001	-8.87863E-005	0.00000E+000	-1.39529E-005	-5.39641E-002	1.57161E-001	3.57190E+000	9	...........
	119	1.6	1.53162E-001	-8.84967E-005	0.00000E+000	-1.35543E-005	-5.39641E-002	1.53174E-001	3.57190E+000	9	...........
	120	1.61333	1.49189E-001	-8.86780E-005	0.00000E+000	-1.32298E-005	-5.39641E-002	1.49202E-001	3.57190E+000	9	...........
	121	1.62667	1.45225E-001	-8.87374E-005	0.00000E+000	-1.28868E-005	-5.39641E-002	1.45234E-001	3.57190E+000	9	...........
	122	1.64	1.41271E-001	-8.85425E-005	0.00000E+000	-1.25085E-005	-5.39641E-002	1.41283E-001	3.57190E+000	9	...........
	123	1.65333	1.37332E-001	-8.86540E-005	0.00000E+000	-1.21751E-005	-5.39641E-002	1.37349E-001	3.57190E+000	9	...........
	124	1.66667	1.33413E-001	-8.88593E-005	0.00000E+000	-1.18550E-005	-5.39641E-002	1.33425E-001	3.57190E+000	9	...........
	125	1.68	1.29525E-001	-8.88363E-005	0.00000E+000	-1.15065E-005	-5.39641E-002	1.29534E-001	3.57190E+000	9	...........
	126	1.69333	1.25651E-001	-8.88478E-005	0.00000E+000	-1.11638E-005	-5.39641E-002	1.25662E-001	3.57190E+000	9	...........
	127	1.70667	1.21809E-001	-8.87124E-005	0.00000E+000	-1.08060E-005	-5.39641E-002	1.21820E-001	3.57190E+000	9	...........
	128	1.72	1.17957E-001	-8.86863E-005	0.00000E+000	-1.04612E-005	-5.39641E-002	1.17970E-001	3.57190E+000	9	...........
	129	1.73333	1.14102E-001	-8.86571E-005	0.00000E+000	-1.01160E-005	-5.39641E-002	1.14110E-001	3.57190E+000	9	...........
	130	1.74667	1.10273E-001	-8.87144E-005	0.00000E+000	-9.78278E-006	-5.39641E-002	1.10286E-001	3.57190E+000	9	...........
	131	1.76	1.06460E-001	-8.87665E-005	0.00000E+000	-9.45013E-006	-5.39641E-002	1.06473E-001	3.57190E+000	9	...........
	132	1.77333	1.02672E-001	-8.88405E-005	0.00000E+000	-9.12147E-006	-5.39641E-002	1.02686E-001	3.57190E+000	9	...........
	133	1.78667	9.89074E-002	-8.85467E-005	0.00000E+000	-8.75792E-006	-5.39641E-002	9.89219E-002	3.57190E+000	9	...........
	134	1.8	9.51635E-002	-8.89124E-005	0.00000E+000	-8.46121E-006	-5.39641E-002	9.51735E-002	3.57190E+000	9	...........
	135	1.81333	9.14388E-002	-8.87540E-005	0.00000E+000	-8.11556E-006	-5.39641E-002	9.14516E-002	3.57190E+000	9	...........
	136	1.82667	8.77122E-002	-8.88905E-005	0.00000E+000	-7.79678E-006	-5.39641E-002	8.77228E-002	3.57190E+000	9	...........
	137	1.84	8.39916E-002	-8.89801E-005	0.00000E+000	-7.47358E-006	-5.39641E-002	8.39960E-002	3.57190E+000	9	...........
	138	1.85333	8.02888E-002	-8.88374E-005	0.00000E+000	-7.13265E-006	-5.39641E-002	8.02898E-002	3.57190E+000	9	...........
	139	1.86667	7.65994E-002	-8.85123E-005	0.00000E+000	-6.78000E-006	-5.39641E-002	7.66043E-002	3.57190E+000	9	...........
	140	1.88	7.29143E-002	-8.86707E-005	0.00000E+000	-6.46536E-006	-5.39641E-002	7.29148E-002	3.57190E+000	9	...........
	141	1.89333	6.92457E-002	-8.90197E-005	0.00000E+000	-6.16424E-006	-5.39641E-002	6.92473E-002	3.57190E+000	9	...........
	142	1.90667	6.55853E-002	-8.88374E-005	0.00000E+000	-5.82642E-006	-5.39641E-002	6.55893E-002	3.57190E+000	9	...........
	143	1.92	6.19313E-002	-8.87582E-005	0.00000E+000	-5.49691E-006	-5.39641E-002	6.19305E-002	3.57190E+000	9	...........
	144	1.93333	5.82899E-002	-8.86874E-005	0.00000E+000	-5.16957E-006	-5.39641E-002	5.82912E-002	3.57190E+000	9	...........
	145	1.94667	5.46704E-002	-8.86749E-005	0.00000E+000	-4.84789E-006	-5.39641E-002	5.46640E-002	3.57190E+000	9	...........
	146	1.96	5.10551E-002	-8.87759E-005	0.00000E+000	-4.53246E-006	-5.39641E-002	5.10519E-002	3.57190E+000	9	...........
	147	1.97333	4.74743E-002	-8.86613E-005	0.00000E+000	-4.20914E-006	-5.39641E-002	4.74764E-002	3.57190E+000	9	...........
	148	1.98667	4.39075E-002	-8.85957E-005	0.00000E+000	-3.89002E-006	-5.39641E-002	4.39151E-002	3.57190E+000	9	...........
	149	2	4.03430E-002	-8.87624E-005	0.00000E+000	-3.58094E-006	-5.39641E-002	4.03475E-002	3.57190E+000	9	...........
	150	2.01333	3.67900E-002	-8.86780E-005	0.00000E+000	-3.26246E-006	-5.39641E-002	3.67930E-002	3.57194E+000	9	...........
	151	2.02667	3.32519E-002	-8.87280E-005	0.00000E+000	-2.95038E-006	-5.39641E-002	3.32549E-002	3.57220E+000	9	...........
	152	2.04	2.97430E-002	-8.87728E-005	0.00000E+000	-2.64037E-006	-5.39641E-002	2.97433E-002	3.57220E+000	9	...........
	153	2.05333	2.62611E-002	-8.85832E-005	0.00000E+000	-2.32629E-006	-5.39641E-002	2.62601E-002	3.57220E+000	9	...........
	154	2.06667	2.28048E-002	-8.86999E-005	0.00000E+000	-2.02278E-006	-5.39641E-002	2.28037E-002	3.57220E+000	9	...........
	155	2.08	1.93557E-002	-8.85019E-005	0.00000E+000	-1.71302E-006	-5.39641E-002	1.93526E-002	3.57220E+000	9	...........
	156	2.09333	1.59215E-002	-8.86217E-005	0.00000E+000	-1.41099E-006	-5.39641E-002	1.59162E-002	3.57220E+000	9	...........
	157	2.10667	1.24969E-002	-8.85457E-005	0.00000E+000	-1.10655E-006	-5.39641E-002	1.24877E-002	3.57220E+000	9	...........
	158	2.12	9.08851E-003	-8.84186E-005	0.00000E+000	-8.03593E-007	-5.39641E-002	9.07808E-003	3.57220E+000	9	...........
	159	2.13333	5.71548E-003	-8.87999E-005	0.00000E+000	-5.07534E-007	-5.39641E-002	5.70173E-003	3.57220E+000	9	...........
	160	2.14667	2.36286E-003	-8.87947E-005	0.00000E+000	-2.09809E-007	-5.39641E-002	2.35279E-003	3.57220E+000	9	...........
	161	2.15167	7.34132E-005	-8.85082E-005	0.00000E+000	-6.49767E-009	-5.39641E-002	5.99048E-005	3.57220E+000	9	...........
STARTTIMEOFFSET	QUANT	828.5682	Start Time Offset (s)
