EXPLAIN
TAG	PWR800_DISCHARGE
TITLE	LABEL	PWR Cyclic Charge Discharge (Cell) - Discharge Step	Test &Identifier
DATE	LABEL	10-7-2017	Date
TIME	LABEL	15:46:38	Time
NOTES	NOTES	3	&Notes...
	supercap test cell
	0.9mg
	6M KOH
PSTAT	PSTAT	IFC5000-01520	Potentiostat
CAPACITY	QUANT	1.00000E-003	Capacity (A-hr)
CELLTYPE	SELECTOR	1	&Cell Type
WORKINGCONNECTION	SELECTOR	0	&Working Lead
MAXDISCHARGETIME	VARIABLEANDUNITS	1.00000E+002	s	1.00000E+002	second(s)	Max &Discharge Time
DISCHARGEMODE	MULTIPARAM	0	9.00000E-005	&Discharge Mode	Constant Current	Amp(s)
SAMPLETIME	QUANT	1.00000E-002	Sa&mple Period (s)
DISCHARGESTOPAT1	MULTIPARAM	3	0.00000E+000	Discharge Stop At &1	Voltage < Limit	V
DISCHARGESTOPAT2	MULTIPARAM	0	0.00000E+000	Discharge Stop At &2	None	N/A
AESBHCSELECTOR	TOGGLE	F	Save Both Half Cells
IRCOMP	TOGGLE	F	IR &Measure
EOC	QUANT	0	Open Circuit (V)
SEQUENCER	TOGGLE	TRUE	Run as Sequence
PSTATMODEL	IQUANT	53	Pstat Model
PSTATSECTION	LABEL	IFC5000-01520	Pstat Section
PSTATSERIALNO	LABEL	01520	Pstat Serial Number
CTRLMODE	IQUANT	0	Control Mode
ELECTROMETER	IQUANT	1	RE=0 or CS=1
IESTAB	IQUANT	0	I/E Stability
CASPEED	IQUANT	4	Control Amp Speed
CONVENTION	IQUANT	1	Current Convention
ICHRANGE	IQUANT	2	Ich Range
ICHRANGEMODE	TOGGLE	T	Ich Auto Range
ICHOFFSETENABLE	TOGGLE	F	Ich Offset Enable
ICHOFFSET	QUANT	0	Ich Offset (V)
ICHFILTER	IQUANT	1	Ich Filter
VCHRANGE	IQUANT	2	Vch Range
VCHRANGEMODE	TOGGLE	T	Vch Auto Range
VCHOFFSETENABLE	TOGGLE	F	Vch Offset Enable
VCHOFFSET	QUANT	0	Vch Offset (V)
VCHFILTER	IQUANT	1	Vch Filter
IERANGELOWERLIMIT	IQUANT	9	I/E Range Lower Limit
IERANGEMODE	TOGGLE	F	I/E AutoRange
IERANGE	IQUANT	9	I/E Range
ACHSELECT	IQUANT	1	Ach Select
ACHRANGE	IQUANT	2	Ach Range
ACHOFFSETENABLE	TOGGLE	F	Ach Offset Enable
ACHOFFSET	QUANT	0	Ach Offset (V)
ACHFILTER	IQUANT	1	Ach Filter
CABLEID	IQUANT	14	Cable ID
DCCALDATE	LABEL	5-7-2017	DC Calibration Date
ACCALDATE	LABEL	12/3/2015	AC Calibration Date
FRAMEWORKVERSION	QUANT	7.01	Framework Version
INSTRUMENTVERSION	LABEL	4.00	Instrument Version
CURVE	TABLE	152
	Pt	T	Vf	Im	Vu	Pwr	Sig	Ach	Temp	IERange	Over
	#	s	V	A	V	W	V	V	deg C	#	bits
	0	0.013333	8.12129E-001	-8.86082E-005	0.00000E+000	-7.19613E-005	-5.39641E-002	8.12250E-001	3.57310E+000	9	...........
	1	0.026667	7.98467E-001	-8.89124E-005	0.00000E+000	-7.09936E-005	-5.39641E-002	7.98594E-001	3.57310E+000	9	...........
	2	0.04	7.85653E-001	-8.89728E-005	0.00000E+000	-6.99018E-005	-5.39641E-002	7.85789E-001	3.57310E+000	9	...........
	3	0.053333	7.73600E-001	-8.86707E-005	0.00000E+000	-6.85956E-005	-5.39641E-002	7.73741E-001	3.57310E+000	9	...........
	4	0.066667	7.62116E-001	-8.87843E-005	0.00000E+000	-6.76639E-005	-5.39641E-002	7.62239E-001	3.57310E+000	9	...........
	5	0.08	7.51154E-001	-8.88145E-005	0.00000E+000	-6.67133E-005	-5.39641E-002	7.51266E-001	3.57310E+000	9	...........
	6	0.093333	7.40621E-001	-8.90103E-005	0.00000E+000	-6.59230E-005	-5.39641E-002	7.40708E-001	3.57310E+000	9	...........
	7	0.106667	7.30458E-001	-8.89124E-005	0.00000E+000	-6.49467E-005	-5.39641E-002	7.30556E-001	3.57310E+000	9	...........
	8	0.12	7.20667E-001	-8.87968E-005	0.00000E+000	-6.39929E-005	-5.39641E-002	7.20754E-001	3.57310E+000	9	...........
	9	0.133333	7.11142E-001	-8.86957E-005	0.00000E+000	-6.30752E-005	-5.39641E-002	7.11241E-001	3.57310E+000	9	...........
	10	0.146667	7.01942E-001	-8.88478E-005	0.00000E+000	-6.23660E-005	-5.39641E-002	7.02061E-001	3.57310E+000	9	...........
	11	0.16	6.93004E-001	-8.87624E-005	0.00000E+000	-6.15127E-005	-5.39641E-002	6.93143E-001	3.57310E+000	9	...........
	12	0.173333	6.84349E-001	-8.87186E-005	0.00000E+000	-6.07145E-005	-5.39641E-002	6.84467E-001	3.57310E+000	9	...........
	13	0.186667	6.75884E-001	-8.89103E-005	0.00000E+000	-6.00930E-005	-5.39641E-002	6.75999E-001	3.57310E+000	9	...........
	14	0.2	6.67641E-001	-8.87968E-005	0.00000E+000	-5.92843E-005	-5.39641E-002	6.67764E-001	3.57310E+000	9	...........
	15	0.213333	6.59545E-001	-8.88061E-005	0.00000E+000	-5.85717E-005	-5.39641E-002	6.59659E-001	3.57310E+000	9	...........
	16	0.226667	6.51662E-001	-8.90437E-005	0.00000E+000	-5.80264E-005	-5.39641E-002	6.51774E-001	3.57310E+000	9	...........
	17	0.24	6.43943E-001	-8.86103E-005	0.00000E+000	-5.70600E-005	-5.39641E-002	6.44062E-001	3.57310E+000	9	...........
	18	0.253333	6.36340E-001	-8.86259E-005	0.00000E+000	-5.63962E-005	-5.39641E-002	6.36466E-001	3.57272E+000	9	...........
	19	0.266667	6.28924E-001	-8.88238E-005	0.00000E+000	-5.58634E-005	-5.39641E-002	6.29049E-001	3.57260E+000	9	...........
	20	0.28	6.21660E-001	-8.86947E-005	0.00000E+000	-5.51379E-005	-5.39641E-002	6.21768E-001	3.57260E+000	9	...........
	21	0.293333	6.14509E-001	-8.88551E-005	0.00000E+000	-5.46022E-005	-5.39641E-002	6.14651E-001	3.57260E+000	9	...........
	22	0.306667	6.07480E-001	-8.90426E-005	0.00000E+000	-5.40916E-005	-5.39641E-002	6.07626E-001	3.57260E+000	9	...........
	23	0.32	6.00603E-001	-8.88572E-005	0.00000E+000	-5.33679E-005	-5.39641E-002	6.00743E-001	3.57260E+000	9	...........
	24	0.333333	5.93836E-001	-8.88676E-005	0.00000E+000	-5.27728E-005	-5.39641E-002	5.93975E-001	3.57260E+000	9	...........
	25	0.346667	5.87168E-001	-8.87936E-005	0.00000E+000	-5.21368E-005	-5.39641E-002	5.87298E-001	3.57260E+000	9	...........
	26	0.36	5.80582E-001	-8.87676E-005	0.00000E+000	-5.15369E-005	-5.39641E-002	5.80695E-001	3.57260E+000	9	...........
	27	0.373333	5.74097E-001	-8.87030E-005	0.00000E+000	-5.09242E-005	-5.39641E-002	5.74200E-001	3.57260E+000	9	...........
	28	0.386667	5.67711E-001	-8.89176E-005	0.00000E+000	-5.04795E-005	-5.39641E-002	5.67804E-001	3.57260E+000	9	...........
	29	0.4	5.61391E-001	-8.88384E-005	0.00000E+000	-4.98731E-005	-5.39641E-002	5.61534E-001	3.57260E+000	9	...........
	30	0.413333	5.55183E-001	-8.88572E-005	0.00000E+000	-4.93320E-005	-5.39641E-002	5.55300E-001	3.57260E+000	9	...........
	31	0.426667	5.49052E-001	-8.88145E-005	0.00000E+000	-4.87637E-005	-5.39641E-002	5.49150E-001	3.57260E+000	9	...........
	32	0.44	5.42952E-001	-8.86728E-005	0.00000E+000	-4.81451E-005	-5.39641E-002	5.43086E-001	3.57260E+000	9	...........
	33	0.453333	5.36927E-001	-8.89947E-005	0.00000E+000	-4.77837E-005	-5.39641E-002	5.37057E-001	3.57260E+000	9	...........
	34	0.466667	5.30976E-001	-8.89207E-005	0.00000E+000	-4.72148E-005	-5.39641E-002	5.31085E-001	3.57260E+000	9	...........
	35	0.48	5.25093E-001	-8.87238E-005	0.00000E+000	-4.65883E-005	-5.39641E-002	5.25187E-001	3.57260E+000	9	...........
	36	0.493333	5.19270E-001	-8.89780E-005	0.00000E+000	-4.62036E-005	-5.39641E-002	5.19361E-001	3.57260E+000	9	...........
	37	0.506667	5.13510E-001	-8.87624E-005	0.00000E+000	-4.55804E-005	-5.39641E-002	5.13608E-001	3.57260E+000	9	...........
	38	0.52	5.07707E-001	-8.88061E-005	0.00000E+000	-4.50875E-005	-5.39641E-002	5.07854E-001	3.57260E+000	9	...........
	39	0.533333	5.02063E-001	-8.87499E-005	0.00000E+000	-4.45580E-005	-5.39641E-002	5.02176E-001	3.57260E+000	9	...........
	40	0.546667	4.96452E-001	-8.87697E-005	0.00000E+000	-4.40699E-005	-5.39641E-002	4.96591E-001	3.57260E+000	9	...........
	41	0.56	4.90924E-001	-8.89666E-005	0.00000E+000	-4.36758E-005	-5.39641E-002	4.91011E-001	3.57260E+000	9	...........
	42	0.573333	4.85398E-001	-8.87290E-005	0.00000E+000	-4.30689E-005	-5.39641E-002	4.85508E-001	3.57260E+000	9	...........
	43	0.586667	4.79957E-001	-8.86874E-005	0.00000E+000	-4.25661E-005	-5.39641E-002	4.80018E-001	3.57260E+000	9	...........
	44	0.6	4.74477E-001	-8.89447E-005	0.00000E+000	-4.22022E-005	-5.39641E-002	4.74544E-001	3.57260E+000	9	...........
	45	0.613333	4.69042E-001	-8.88864E-005	0.00000E+000	-4.16914E-005	-5.39641E-002	4.69107E-001	3.57260E+000	9	...........
	46	0.626667	4.63645E-001	-8.90906E-005	0.00000E+000	-4.13064E-005	-5.39641E-002	4.63708E-001	3.57260E+000	9	...........
	47	0.64	4.58283E-001	-8.87926E-005	0.00000E+000	-4.06922E-005	-5.39641E-002	4.58350E-001	3.57260E+000	9	...........
	48	0.653333	4.52953E-001	-8.87905E-005	0.00000E+000	-4.02179E-005	-5.39641E-002	4.53014E-001	3.57260E+000	9	...........
	49	0.666667	4.47652E-001	-8.90249E-005	0.00000E+000	-3.98521E-005	-5.39641E-002	4.47709E-001	3.57260E+000	9	...........
	50	0.68	4.42360E-001	-8.86842E-005	0.00000E+000	-3.92303E-005	-5.39641E-002	4.42423E-001	3.57260E+000	9	...........
	51	0.693333	4.37109E-001	-8.85509E-005	0.00000E+000	-3.87064E-005	-5.39641E-002	4.37171E-001	3.57260E+000	9	...........
	52	0.706667	4.31867E-001	-8.88072E-005	0.00000E+000	-3.83529E-005	-5.39641E-002	4.31923E-001	3.57260E+000	9	...........
	53	0.72	4.26640E-001	-8.89082E-005	0.00000E+000	-3.79318E-005	-5.39641E-002	4.26701E-001	3.57260E+000	9	...........
	54	0.733333	4.21459E-001	-8.85727E-005	0.00000E+000	-3.73298E-005	-5.39641E-002	4.21519E-001	3.57260E+000	9	...........
	55	0.746667	4.16316E-001	-8.90395E-005	0.00000E+000	-3.70686E-005	-5.39641E-002	4.16371E-001	3.57260E+000	9	...........
	56	0.76	4.11171E-001	-8.87113E-005	0.00000E+000	-3.64755E-005	-5.39641E-002	4.11229E-001	3.57260E+000	9	...........
	57	0.773333	4.06029E-001	-8.88707E-005	0.00000E+000	-3.60841E-005	-5.39641E-002	4.06083E-001	3.57260E+000	9	...........
	58	0.786667	4.00922E-001	-8.86311E-005	0.00000E+000	-3.55342E-005	-5.39641E-002	4.00972E-001	3.57260E+000	9	...........
	59	0.8	3.95819E-001	-8.86571E-005	0.00000E+000	-3.50922E-005	-5.39641E-002	3.95868E-001	3.57260E+000	9	...........
	60	0.813333	3.90718E-001	-8.85602E-005	0.00000E+000	-3.46021E-005	-5.39641E-002	3.90770E-001	3.57260E+000	9	...........
	61	0.826667	3.85652E-001	-8.86665E-005	0.00000E+000	-3.41944E-005	-5.39641E-002	3.85693E-001	3.57260E+000	9	...........
	62	0.84	3.80621E-001	-8.89239E-005	0.00000E+000	-3.38463E-005	-5.39641E-002	3.80670E-001	3.57260E+000	9	...........
	63	0.853333	3.75615E-001	-8.87030E-005	0.00000E+000	-3.33182E-005	-5.39641E-002	3.75660E-001	3.57260E+000	9	...........
	64	0.866667	3.70613E-001	-8.88238E-005	0.00000E+000	-3.29192E-005	-5.39641E-002	3.70657E-001	3.57260E+000	9	...........
	65	0.88	3.65626E-001	-8.89676E-005	0.00000E+000	-3.25288E-005	-5.39641E-002	3.65676E-001	3.57260E+000	9	...........
	66	0.893333	3.60654E-001	-8.88082E-005	0.00000E+000	-3.20291E-005	-5.39641E-002	3.60697E-001	3.57260E+000	9	...........
	67	0.906667	3.55694E-001	-8.88551E-005	0.00000E+000	-3.16052E-005	-5.39641E-002	3.55739E-001	3.57260E+000	9	...........
	68	0.92	3.50746E-001	-8.87749E-005	0.00000E+000	-3.11374E-005	-5.39641E-002	3.50787E-001	3.57260E+000	9	...........
	69	0.933333	3.45809E-001	-8.86905E-005	0.00000E+000	-3.06700E-005	-5.39641E-002	3.45856E-001	3.57260E+000	9	...........
	70	0.946667	3.40906E-001	-8.86894E-005	0.00000E+000	-3.02347E-005	-5.39641E-002	3.40949E-001	3.57260E+000	9	...........
	71	0.96	3.36003E-001	-8.89562E-005	0.00000E+000	-2.98895E-005	-5.39641E-002	3.36051E-001	3.57260E+000	9	...........
	72	0.97333	3.31114E-001	-8.89770E-005	0.00000E+000	-2.94616E-005	-5.39641E-002	3.31160E-001	3.57260E+000	9	...........
	73	0.98667	3.26247E-001	-8.88145E-005	0.00000E+000	-2.89755E-005	-5.39641E-002	3.26290E-001	3.57260E+000	9	...........
	74	1	3.21383E-001	-8.89614E-005	0.00000E+000	-2.85906E-005	-5.39641E-002	3.21423E-001	3.57260E+000	9	...........
	75	1.01333	3.16524E-001	-8.88739E-005	0.00000E+000	-2.81307E-005	-5.39641E-002	3.16564E-001	3.57260E+000	9	...........
	76	1.02667	3.11685E-001	-8.88718E-005	0.00000E+000	-2.77000E-005	-5.39641E-002	3.11729E-001	3.57260E+000	9	...........
	77	1.04	3.06868E-001	-8.88811E-005	0.00000E+000	-2.72747E-005	-5.39641E-002	3.06905E-001	3.57260E+000	9	...........
	78	1.05333	3.02065E-001	-8.87978E-005	0.00000E+000	-2.68227E-005	-5.39641E-002	3.02109E-001	3.57260E+000	9	...........
	79	1.06667	2.97276E-001	-8.86863E-005	0.00000E+000	-2.63643E-005	-5.39641E-002	2.97313E-001	3.57260E+000	9	...........
	80	1.08	2.92503E-001	-8.88478E-005	0.00000E+000	-2.59882E-005	-5.39641E-002	2.92545E-001	3.57260E+000	9	...........
	81	1.09333	2.87755E-001	-8.83206E-005	0.00000E+000	-2.54147E-005	-5.39641E-002	2.87785E-001	3.57260E+000	9	...........
	82	1.10667	2.83000E-001	-8.88228E-005	0.00000E+000	-2.51369E-005	-5.39641E-002	2.83042E-001	3.57260E+000	9	...........
	83	1.12	2.78284E-001	-8.88957E-005	0.00000E+000	-2.47383E-005	-5.39641E-002	2.78320E-001	3.57260E+000	9	...........
	84	1.13333	2.73564E-001	-8.89520E-005	0.00000E+000	-2.43340E-005	-5.39641E-002	2.73600E-001	3.57260E+000	9	...........
	85	1.14667	2.68866E-001	-8.86790E-005	0.00000E+000	-2.38427E-005	-5.39641E-002	2.68902E-001	3.57260E+000	9	...........
	86	1.16	2.64180E-001	-8.88957E-005	0.00000E+000	-2.34845E-005	-5.39641E-002	2.64218E-001	3.57260E+000	9	...........
	87	1.17333	2.59519E-001	-8.89749E-005	0.00000E+000	-2.30907E-005	-5.39641E-002	2.59558E-001	3.57260E+000	9	...........
	88	1.18667	2.54878E-001	-8.86832E-005	0.00000E+000	-2.26034E-005	-5.39641E-002	2.54919E-001	3.57260E+000	9	...........
	89	1.2	2.50246E-001	-8.87728E-005	0.00000E+000	-2.22151E-005	-5.39641E-002	2.50279E-001	3.57260E+000	9	...........
	90	1.21333	2.45635E-001	-8.87624E-005	0.00000E+000	-2.18032E-005	-5.39641E-002	2.45663E-001	3.57260E+000	9	...........
	91	1.22667	2.41072E-001	-8.86624E-005	0.00000E+000	-2.13740E-005	-5.39641E-002	2.41094E-001	3.57260E+000	9	...........
	92	1.24	2.36491E-001	-8.87895E-005	0.00000E+000	-2.09979E-005	-5.39641E-002	2.36517E-001	3.57260E+000	9	...........
	93	1.25333	2.31940E-001	-8.89499E-005	0.00000E+000	-2.06310E-005	-5.39641E-002	2.31966E-001	3.57268E+000	9	...........
	94	1.26667	2.27411E-001	-8.87124E-005	0.00000E+000	-2.01742E-005	-5.39641E-002	2.27440E-001	3.57270E+000	9	...........
	95	1.28	2.22889E-001	-8.89551E-005	0.00000E+000	-1.98271E-005	-5.39641E-002	2.22919E-001	3.57270E+000	9	...........
	96	1.29333	2.18383E-001	-8.88134E-005	0.00000E+000	-1.93953E-005	-5.39641E-002	2.18414E-001	3.57270E+000	9	...........
	97	1.30667	2.13906E-001	-8.84425E-005	0.00000E+000	-1.89184E-005	-5.39641E-002	2.13932E-001	3.57270E+000	9	...........
	98	1.32	2.09442E-001	-8.90145E-005	0.00000E+000	-1.86433E-005	-5.39641E-002	2.09467E-001	3.57270E+000	9	...........
	99	1.33333	2.04998E-001	-8.87968E-005	0.00000E+000	-1.82032E-005	-5.39641E-002	2.05022E-001	3.57270E+000	9	...........
	100	1.34667	2.00577E-001	-8.88936E-005	0.00000E+000	-1.78301E-005	-5.39641E-002	2.00603E-001	3.57270E+000	9	...........
	101	1.36	1.96182E-001	-8.89593E-005	0.00000E+000	-1.74522E-005	-5.39641E-002	1.96206E-001	3.57270E+000	9	...........
	102	1.37333	1.91801E-001	-8.89478E-005	0.00000E+000	-1.70602E-005	-5.39641E-002	1.91820E-001	3.57270E+000	9	...........
	103	1.38667	1.87435E-001	-8.88989E-005	0.00000E+000	-1.66628E-005	-5.39641E-002	1.87458E-001	3.57270E+000	9	...........
	104	1.4	1.83087E-001	-8.89510E-005	0.00000E+000	-1.62857E-005	-5.39641E-002	1.83107E-001	3.57270E+000	9	...........
	105	1.41333	1.78765E-001	-8.89009E-005	0.00000E+000	-1.58924E-005	-5.39641E-002	1.78784E-001	3.57270E+000	9	...........
	106	1.42667	1.74441E-001	-8.88166E-005	0.00000E+000	-1.54933E-005	-5.39641E-002	1.74461E-001	3.57270E+000	9	...........
	107	1.44	1.70131E-001	-8.87895E-005	0.00000E+000	-1.51058E-005	-5.39641E-002	1.70150E-001	3.57270E+000	9	...........
	108	1.45333	1.65847E-001	-8.85769E-005	0.00000E+000	-1.46903E-005	-5.39641E-002	1.65867E-001	3.57270E+000	9	...........
	109	1.46667	1.61599E-001	-8.87718E-005	0.00000E+000	-1.43454E-005	-5.39641E-002	1.61619E-001	3.57270E+000	9	...........
	110	1.48	1.57364E-001	-8.91208E-005	0.00000E+000	-1.40244E-005	-5.39641E-002	1.57384E-001	3.57270E+000	9	...........
	111	1.49333	1.53149E-001	-8.89780E-005	0.00000E+000	-1.36269E-005	-5.39641E-002	1.53159E-001	3.57270E+000	9	...........
	112	1.50667	1.48944E-001	-8.87249E-005	0.00000E+000	-1.32150E-005	-5.39641E-002	1.48959E-001	3.57270E+000	9	...........
	113	1.52	1.44767E-001	-8.89312E-005	0.00000E+000	-1.28743E-005	-5.39641E-002	1.44783E-001	3.57270E+000	9	...........
	114	1.53333	1.40611E-001	-8.88541E-005	0.00000E+000	-1.24939E-005	-5.39641E-002	1.40632E-001	3.57270E+000	9	...........
	115	1.54667	1.36468E-001	-8.90155E-005	0.00000E+000	-1.21478E-005	-5.39641E-002	1.36484E-001	3.57270E+000	9	...........
	116	1.56	1.32349E-001	-8.86978E-005	0.00000E+000	-1.17390E-005	-5.39641E-002	1.32358E-001	3.57270E+000	9	...........
	117	1.57333	1.28242E-001	-8.87978E-005	0.00000E+000	-1.13876E-005	-5.39641E-002	1.28257E-001	3.57270E+000	9	...........
	118	1.58667	1.24151E-001	-8.86842E-005	0.00000E+000	-1.10103E-005	-5.39641E-002	1.24158E-001	3.57270E+000	9	...........
	119	1.6	1.20077E-001	-8.87978E-005	0.00000E+000	-1.06626E-005	-5.39641E-002	1.20090E-001	3.57270E+000	9	...........
	120	1.61333	1.16031E-001	-8.87270E-005	0.00000E+000	-1.02951E-005	-5.39641E-002	1.16043E-001	3.57270E+000	9	...........
	121	1.62667	1.11999E-001	-8.87843E-005	0.00000E+000	-9.94377E-006	-5.39641E-002	1.12013E-001	3.57270E+000	9	...........
	122	1.64	1.07975E-001	-8.88801E-005	0.00000E+000	-9.59686E-006	-5.39641E-002	1.07992E-001	3.57270E+000	9	...........
	123	1.65333	1.03986E-001	-8.87728E-005	0.00000E+000	-9.23115E-006	-5.39641E-002	1.03990E-001	3.57270E+000	9	...........
	124	1.66667	1.00006E-001	-8.89416E-005	0.00000E+000	-8.89473E-006	-5.39641E-002	1.00018E-001	3.57270E+000	9	...........
	125	1.68	9.60459E-002	-8.87582E-005	0.00000E+000	-8.52486E-006	-5.39641E-002	9.60593E-002	3.57270E+000	9	...........
	126	1.69333	9.20989E-002	-8.91427E-005	0.00000E+000	-8.20994E-006	-5.39641E-002	9.21073E-002	3.57270E+000	9	...........
	127	1.70667	8.81795E-002	-8.86915E-005	0.00000E+000	-7.82077E-006	-5.39641E-002	8.81767E-002	3.57270E+000	9	...........
	128	1.72	8.42816E-002	-8.85978E-005	0.00000E+000	-7.46716E-006	-5.39641E-002	8.42870E-002	3.57270E+000	9	...........
	129	1.73333	8.04103E-002	-8.87655E-005	0.00000E+000	-7.13766E-006	-5.39641E-002	8.04082E-002	3.57270E+000	9	...........
	130	1.74667	7.65360E-002	-8.88364E-005	0.00000E+000	-6.79918E-006	-5.39641E-002	7.65347E-002	3.57270E+000	9	...........
	131	1.76	7.26664E-002	-8.86217E-005	0.00000E+000	-6.43982E-006	-5.39641E-002	7.26702E-002	3.57270E+000	9	...........
	132	1.77333	6.88298E-002	-8.85780E-005	0.00000E+000	-6.09681E-006	-5.39641E-002	6.88316E-002	3.57270E+000	9	...........
	133	1.78667	6.50220E-002	-8.89322E-005	0.00000E+000	-5.78255E-006	-5.39641E-002	6.50157E-002	3.57270E+000	9	...........
	134	1.8	6.12161E-002	-8.87603E-005	0.00000E+000	-5.43356E-006	-5.39641E-002	6.12162E-002	3.57270E+000	9	...........
	135	1.81333	5.74208E-002	-8.90228E-005	0.00000E+000	-5.11176E-006	-5.39641E-002	5.74246E-002	3.57270E+000	9	...........
	136	1.82667	5.36546E-002	-8.88041E-005	0.00000E+000	-4.76475E-006	-5.39641E-002	5.36524E-002	3.57270E+000	9	...........
	137	1.84	4.99048E-002	-8.85519E-005	0.00000E+000	-4.41916E-006	-5.39641E-002	4.98972E-002	3.57270E+000	9	...........
	138	1.85333	4.61829E-002	-8.89155E-005	0.00000E+000	-4.10637E-006	-5.39641E-002	4.61941E-002	3.57270E+000	9	...........
	139	1.86667	4.24627E-002	-8.89145E-005	0.00000E+000	-3.77555E-006	-5.39641E-002	4.24736E-002	3.57270E+000	9	...........
	140	1.88	3.87655E-002	-8.87061E-005	0.00000E+000	-3.43874E-006	-5.39641E-002	3.87723E-002	3.57270E+000	9	...........
	141	1.89333	3.50905E-002	-8.85092E-005	0.00000E+000	-3.10583E-006	-5.39641E-002	3.50933E-002	3.57270E+000	9	...........
	142	1.90667	3.14440E-002	-8.88405E-005	0.00000E+000	-2.79350E-006	-5.39641E-002	3.14445E-002	3.57270E+000	9	...........
	143	1.92	2.77986E-002	-8.89718E-005	0.00000E+000	-2.47329E-006	-5.39641E-002	2.78026E-002	3.57270E+000	9	...........
	144	1.93333	2.41680E-002	-8.85800E-005	0.00000E+000	-2.14080E-006	-5.39641E-002	2.41701E-002	3.57270E+000	9	...........
	145	1.94667	2.05565E-002	-8.88249E-005	0.00000E+000	-1.82593E-006	-5.39641E-002	2.05503E-002	3.57270E+000	9	...........
	146	1.96	1.69584E-002	-8.87363E-005	0.00000E+000	-1.50483E-006	-5.39641E-002	1.69518E-002	3.57270E+000	9	...........
	147	1.97333	1.33801E-002	-8.87395E-005	0.00000E+000	-1.18734E-006	-5.39641E-002	1.33703E-002	3.57270E+000	9	...........
	148	1.98667	9.79669E-003	-8.87342E-005	0.00000E+000	-8.69302E-007	-5.39641E-002	9.79070E-003	3.57270E+000	9	...........
	149	2	6.23882E-003	-8.90333E-005	0.00000E+000	-5.55462E-007	-5.39641E-002	6.22778E-003	3.57270E+000	9	...........
	150	2.01333	2.67593E-003	-8.88832E-005	0.00000E+000	-2.37845E-007	-5.39641E-002	2.66017E-003	3.57270E+000	9	...........
	151	2.01833	2.44268E-004	-8.85859E-005	0.00000E+000	-2.16387E-008	-5.39641E-002	2.29591E-004	3.57270E+000	9	...........
STARTTIMEOFFSET	QUANT	2394.625	Start Time Offset (s)
