EXPLAIN
TAG	PWR800_DISCHARGE
TITLE	LABEL	PWR Cyclic Charge Discharge (Cell) - Discharge Step	Test &Identifier
DATE	LABEL	10-7-2017	Date
TIME	LABEL	15:46:58	Time
NOTES	NOTES	3	&Notes...
	supercap test cell
	0.9mg
	6M KOH
PSTAT	PSTAT	IFC5000-01520	Potentiostat
CAPACITY	QUANT	1.00000E-003	Capacity (A-hr)
CELLTYPE	SELECTOR	1	&Cell Type
WORKINGCONNECTION	SELECTOR	0	&Working Lead
MAXDISCHARGETIME	VARIABLEANDUNITS	1.00000E+002	s	1.00000E+002	second(s)	Max &Discharge Time
DISCHARGEMODE	MULTIPARAM	0	9.00000E-005	&Discharge Mode	Constant Current	Amp(s)
SAMPLETIME	QUANT	1.00000E-002	Sa&mple Period (s)
DISCHARGESTOPAT1	MULTIPARAM	3	0.00000E+000	Discharge Stop At &1	Voltage < Limit	V
DISCHARGESTOPAT2	MULTIPARAM	0	0.00000E+000	Discharge Stop At &2	None	N/A
AESBHCSELECTOR	TOGGLE	F	Save Both Half Cells
IRCOMP	TOGGLE	F	IR &Measure
EOC	QUANT	0	Open Circuit (V)
SEQUENCER	TOGGLE	TRUE	Run as Sequence
PSTATMODEL	IQUANT	53	Pstat Model
PSTATSECTION	LABEL	IFC5000-01520	Pstat Section
PSTATSERIALNO	LABEL	01520	Pstat Serial Number
CTRLMODE	IQUANT	0	Control Mode
ELECTROMETER	IQUANT	1	RE=0 or CS=1
IESTAB	IQUANT	0	I/E Stability
CASPEED	IQUANT	4	Control Amp Speed
CONVENTION	IQUANT	1	Current Convention
ICHRANGE	IQUANT	2	Ich Range
ICHRANGEMODE	TOGGLE	T	Ich Auto Range
ICHOFFSETENABLE	TOGGLE	F	Ich Offset Enable
ICHOFFSET	QUANT	0	Ich Offset (V)
ICHFILTER	IQUANT	1	Ich Filter
VCHRANGE	IQUANT	2	Vch Range
VCHRANGEMODE	TOGGLE	T	Vch Auto Range
VCHOFFSETENABLE	TOGGLE	F	Vch Offset Enable
VCHOFFSET	QUANT	0	Vch Offset (V)
VCHFILTER	IQUANT	1	Vch Filter
IERANGELOWERLIMIT	IQUANT	9	I/E Range Lower Limit
IERANGEMODE	TOGGLE	F	I/E AutoRange
IERANGE	IQUANT	9	I/E Range
ACHSELECT	IQUANT	1	Ach Select
ACHRANGE	IQUANT	2	Ach Range
ACHOFFSETENABLE	TOGGLE	F	Ach Offset Enable
ACHOFFSET	QUANT	0	Ach Offset (V)
ACHFILTER	IQUANT	1	Ach Filter
CABLEID	IQUANT	14	Cable ID
DCCALDATE	LABEL	5-7-2017	DC Calibration Date
ACCALDATE	LABEL	12/3/2015	AC Calibration Date
FRAMEWORKVERSION	QUANT	7.01	Framework Version
INSTRUMENTVERSION	LABEL	4.00	Instrument Version
CURVE	TABLE	151
	Pt	T	Vf	Im	Vu	Pwr	Sig	Ach	Temp	IERange	Over
	#	s	V	A	V	W	V	V	deg C	#	bits
	0	0.013333	8.11334E-001	-8.86259E-005	0.00000E+000	-7.19052E-005	-5.39641E-002	8.11497E-001	3.57300E+000	9	...........
	1	0.026667	7.97671E-001	-8.86874E-005	0.00000E+000	-7.07434E-005	-5.39641E-002	7.97791E-001	3.57300E+000	9	...........
	2	0.04	7.84863E-001	-8.88936E-005	0.00000E+000	-6.97693E-005	-5.39641E-002	7.84995E-001	3.57300E+000	9	...........
	3	0.053333	7.72767E-001	-8.87822E-005	0.00000E+000	-6.86079E-005	-5.39641E-002	7.72924E-001	3.57300E+000	9	...........
	4	0.066667	7.61274E-001	-8.88426E-005	0.00000E+000	-6.76336E-005	-5.39641E-002	7.61421E-001	3.57300E+000	9	...........
	5	0.08	7.50306E-001	-8.89385E-005	0.00000E+000	-6.67311E-005	-5.39641E-002	7.50460E-001	3.57300E+000	9	...........
	6	0.093333	7.39782E-001	-8.85832E-005	0.00000E+000	-6.55323E-005	-5.39641E-002	7.39904E-001	3.57300E+000	9	...........
	7	0.106667	7.29639E-001	-8.85561E-005	0.00000E+000	-6.46139E-005	-5.39641E-002	7.29741E-001	3.57300E+000	9	...........
	8	0.12	7.19817E-001	-8.86394E-005	0.00000E+000	-6.38042E-005	-5.39641E-002	7.19949E-001	3.57300E+000	9	...........
	9	0.133333	7.10325E-001	-8.87874E-005	0.00000E+000	-6.30679E-005	-5.39641E-002	7.10444E-001	3.57300E+000	9	...........
	10	0.146667	7.01139E-001	-8.88103E-005	0.00000E+000	-6.22684E-005	-5.39641E-002	7.01240E-001	3.57300E+000	9	...........
	11	0.16	6.92206E-001	-8.85727E-005	0.00000E+000	-6.13106E-005	-5.39641E-002	6.92302E-001	3.57300E+000	9	...........
	12	0.173333	6.83498E-001	-8.86884E-005	0.00000E+000	-6.06183E-005	-5.39641E-002	6.83594E-001	3.57300E+000	9	...........
	13	0.186667	6.75032E-001	-8.87238E-005	0.00000E+000	-5.98914E-005	-5.39641E-002	6.75115E-001	3.57300E+000	9	...........
	14	0.2	6.66753E-001	-8.88645E-005	0.00000E+000	-5.92506E-005	-5.39641E-002	6.66882E-001	3.57300E+000	9	...........
	15	0.213333	6.58667E-001	-8.88166E-005	0.00000E+000	-5.85006E-005	-5.39641E-002	6.58762E-001	3.57300E+000	9	...........
	16	0.226667	6.50757E-001	-8.88718E-005	0.00000E+000	-5.78339E-005	-5.39641E-002	6.50862E-001	3.57300E+000	9	...........
	17	0.24	6.43042E-001	-8.89645E-005	0.00000E+000	-5.72079E-005	-5.39641E-002	6.43153E-001	3.57300E+000	9	...........
	18	0.253333	6.35431E-001	-8.84977E-005	0.00000E+000	-5.62342E-005	-5.39641E-002	6.35547E-001	3.57300E+000	9	...........
	19	0.266667	6.28022E-001	-8.86123E-005	0.00000E+000	-5.56505E-005	-5.39641E-002	6.28131E-001	3.57300E+000	9	...........
	20	0.28	6.20765E-001	-8.86571E-005	0.00000E+000	-5.50352E-005	-5.39641E-002	6.20847E-001	3.57300E+000	9	...........
	21	0.293333	6.13573E-001	-8.89009E-005	0.00000E+000	-5.45472E-005	-5.39641E-002	6.13712E-001	3.57300E+000	9	...........
	22	0.306667	6.06528E-001	-8.87311E-005	0.00000E+000	-5.38179E-005	-5.39641E-002	6.06670E-001	3.57300E+000	9	...........
	23	0.32	5.99646E-001	-8.87624E-005	0.00000E+000	-5.32260E-005	-5.39641E-002	5.99750E-001	3.57300E+000	9	...........
	24	0.333333	5.92879E-001	-8.91447E-005	0.00000E+000	-5.28521E-005	-5.39641E-002	5.92985E-001	3.57300E+000	9	...........
	25	0.346667	5.86188E-001	-8.90145E-005	0.00000E+000	-5.21792E-005	-5.39641E-002	5.86273E-001	3.57300E+000	9	...........
	26	0.36	5.79596E-001	-8.85707E-005	0.00000E+000	-5.13352E-005	-5.39641E-002	5.79696E-001	3.57300E+000	9	...........
	27	0.373333	5.73125E-001	-8.86957E-005	0.00000E+000	-5.08337E-005	-5.39641E-002	5.73182E-001	3.57300E+000	9	...........
	28	0.386667	5.66727E-001	-8.87884E-005	0.00000E+000	-5.03188E-005	-5.39641E-002	5.66810E-001	3.57300E+000	9	...........
	29	0.4	5.60341E-001	-8.88145E-005	0.00000E+000	-4.97664E-005	-5.39641E-002	5.60480E-001	3.57300E+000	9	...........
	30	0.413333	5.54110E-001	-8.88332E-005	0.00000E+000	-4.92234E-005	-5.39641E-002	5.54229E-001	3.57300E+000	9	...........
	31	0.426667	5.47966E-001	-8.88436E-005	0.00000E+000	-4.86833E-005	-5.39641E-002	5.48069E-001	3.57300E+000	9	...........
	32	0.44	5.41883E-001	-8.85884E-005	0.00000E+000	-4.80045E-005	-5.39641E-002	5.42007E-001	3.57300E+000	9	...........
	33	0.453333	5.35861E-001	-8.86790E-005	0.00000E+000	-4.75196E-005	-5.39641E-002	5.35956E-001	3.57300E+000	9	...........
	34	0.466667	5.29870E-001	-8.86999E-005	0.00000E+000	-4.69994E-005	-5.39641E-002	5.29996E-001	3.57300E+000	9	...........
	35	0.48	5.23974E-001	-8.88072E-005	0.00000E+000	-4.65326E-005	-5.39641E-002	5.24062E-001	3.57300E+000	9	...........
	36	0.493333	5.18137E-001	-8.88457E-005	0.00000E+000	-4.60342E-005	-5.39641E-002	5.18231E-001	3.57300E+000	9	...........
	37	0.506667	5.12338E-001	-8.85988E-005	0.00000E+000	-4.53926E-005	-5.39641E-002	5.12406E-001	3.57300E+000	9	...........
	38	0.52	5.06525E-001	-8.86926E-005	0.00000E+000	-4.49250E-005	-5.39641E-002	5.06650E-001	3.57300E+000	9	...........
	39	0.533333	5.00830E-001	-8.88416E-005	0.00000E+000	-4.44945E-005	-5.39641E-002	5.00939E-001	3.57300E+000	9	...........
	40	0.546667	4.95187E-001	-8.84863E-005	0.00000E+000	-4.38173E-005	-5.39641E-002	4.95308E-001	3.57300E+000	9	...........
	41	0.56	4.89577E-001	-8.86863E-005	0.00000E+000	-4.34188E-005	-5.39641E-002	4.89689E-001	3.57300E+000	9	...........
	42	0.573333	4.84079E-001	-8.86363E-005	0.00000E+000	-4.29070E-005	-5.39641E-002	4.84173E-001	3.57300E+000	9	...........
	43	0.586667	4.78598E-001	-8.90145E-005	0.00000E+000	-4.26022E-005	-5.39641E-002	4.78663E-001	3.57300E+000	9	...........
	44	0.6	4.73112E-001	-8.89999E-005	0.00000E+000	-4.21069E-005	-5.39641E-002	4.73172E-001	3.57300E+000	9	...........
	45	0.613333	4.67674E-001	-8.89228E-005	0.00000E+000	-4.15869E-005	-5.39641E-002	4.67737E-001	3.57300E+000	9	...........
	46	0.626667	4.62273E-001	-8.88416E-005	0.00000E+000	-4.10691E-005	-5.39641E-002	4.62329E-001	3.57300E+000	9	...........
	47	0.64	4.56896E-001	-8.87603E-005	0.00000E+000	-4.05542E-005	-5.39641E-002	4.56955E-001	3.57300E+000	9	...........
	48	0.653333	4.51551E-001	-8.89822E-005	0.00000E+000	-4.01800E-005	-5.39641E-002	4.51607E-001	3.57300E+000	9	...........
	49	0.666667	4.46228E-001	-8.88103E-005	0.00000E+000	-3.96296E-005	-5.39641E-002	4.46287E-001	3.57300E+000	9	...........
	50	0.68	4.40928E-001	-8.88676E-005	0.00000E+000	-3.91842E-005	-5.39641E-002	4.40989E-001	3.57300E+000	9	...........
	51	0.693333	4.35671E-001	-8.88728E-005	0.00000E+000	-3.87193E-005	-5.39641E-002	4.35728E-001	3.57300E+000	9	...........
	52	0.706667	4.30425E-001	-8.88270E-005	0.00000E+000	-3.82333E-005	-5.39641E-002	4.30476E-001	3.57300E+000	9	...........
	53	0.72	4.25194E-001	-8.86488E-005	0.00000E+000	-3.76930E-005	-5.39641E-002	4.25250E-001	3.57300E+000	9	...........
	54	0.733333	4.20004E-001	-8.86176E-005	0.00000E+000	-3.72197E-005	-5.39641E-002	4.20058E-001	3.57300E+000	9	...........
	55	0.746667	4.14823E-001	-8.87978E-005	0.00000E+000	-3.68353E-005	-5.39641E-002	4.14882E-001	3.57300E+000	9	...........
	56	0.76	4.09671E-001	-8.87103E-005	0.00000E+000	-3.63420E-005	-5.39641E-002	4.09719E-001	3.57300E+000	9	...........
	57	0.773333	4.04536E-001	-8.89405E-005	0.00000E+000	-3.59796E-005	-5.39641E-002	4.04583E-001	3.57300E+000	9	...........
	58	0.786667	3.99409E-001	-8.88218E-005	0.00000E+000	-3.54762E-005	-5.39641E-002	3.99462E-001	3.57300E+000	9	...........
	59	0.8	3.94303E-001	-8.88916E-005	0.00000E+000	-3.50502E-005	-5.39641E-002	3.94350E-001	3.57300E+000	9	...........
	60	0.813333	3.89203E-001	-8.89676E-005	0.00000E+000	-3.46265E-005	-5.39641E-002	3.89258E-001	3.57300E+000	9	...........
	61	0.826667	3.84141E-001	-8.88416E-005	0.00000E+000	-3.41276E-005	-5.39641E-002	3.84190E-001	3.57300E+000	9	...........
	62	0.84	3.79106E-001	-8.86290E-005	0.00000E+000	-3.35998E-005	-5.39641E-002	3.79152E-001	3.57300E+000	9	...........
	63	0.853333	3.74071E-001	-8.90885E-005	0.00000E+000	-3.33254E-005	-5.39641E-002	3.74116E-001	3.57300E+000	9	...........
	64	0.866667	3.69052E-001	-8.86467E-005	0.00000E+000	-3.27152E-005	-5.39641E-002	3.69103E-001	3.57300E+000	9	...........
	65	0.88	3.64047E-001	-8.88947E-005	0.00000E+000	-3.23619E-005	-5.39641E-002	3.64096E-001	3.57300E+000	9	...........
	66	0.893333	3.59054E-001	-8.87874E-005	0.00000E+000	-3.18794E-005	-5.39641E-002	3.59101E-001	3.57300E+000	9	...........
	67	0.906667	3.54087E-001	-8.86051E-005	0.00000E+000	-3.13739E-005	-5.39641E-002	3.54135E-001	3.57300E+000	9	...........
	68	0.92	3.49140E-001	-8.86207E-005	0.00000E+000	-3.09410E-005	-5.39641E-002	3.49188E-001	3.57300E+000	9	...........
	69	0.933333	3.44196E-001	-8.91031E-005	0.00000E+000	-3.06689E-005	-5.39641E-002	3.44248E-001	3.57300E+000	9	...........
	70	0.946667	3.39276E-001	-8.87540E-005	0.00000E+000	-3.01121E-005	-5.39641E-002	3.39317E-001	3.57300E+000	9	...........
	71	0.96	3.34362E-001	-8.87384E-005	0.00000E+000	-2.96707E-005	-5.39641E-002	3.34405E-001	3.57300E+000	9	...........
	72	0.97333	3.29473E-001	-8.88207E-005	0.00000E+000	-2.92640E-005	-5.39641E-002	3.29514E-001	3.57300E+000	9	...........
	73	0.98667	3.24608E-001	-8.85113E-005	0.00000E+000	-2.87315E-005	-5.39641E-002	3.24650E-001	3.57300E+000	9	...........
	74	1	3.19740E-001	-8.88259E-005	0.00000E+000	-2.84012E-005	-5.39641E-002	3.19782E-001	3.57260E+000	9	...........
	75	1.01333	3.14864E-001	-8.87697E-005	0.00000E+000	-2.79504E-005	-5.39641E-002	3.14908E-001	3.57260E+000	9	...........
	76	1.02667	3.10009E-001	-8.87384E-005	0.00000E+000	-2.75097E-005	-5.39641E-002	3.10056E-001	3.57260E+000	9	...........
	77	1.04	3.05194E-001	-8.89510E-005	0.00000E+000	-2.71473E-005	-5.39641E-002	3.05239E-001	3.57260E+000	9	...........
	78	1.05333	3.00398E-001	-8.88228E-005	0.00000E+000	-2.66822E-005	-5.39641E-002	3.00435E-001	3.57260E+000	9	...........
	79	1.06667	2.95607E-001	-8.91427E-005	0.00000E+000	-2.63512E-005	-5.39641E-002	2.95649E-001	3.57260E+000	9	...........
	80	1.08	2.90829E-001	-8.87134E-005	0.00000E+000	-2.58004E-005	-5.39641E-002	2.90872E-001	3.57260E+000	9	...........
	81	1.09333	2.86069E-001	-8.88759E-005	0.00000E+000	-2.54246E-005	-5.39641E-002	2.86110E-001	3.57260E+000	9	...........
	82	1.10667	2.81320E-001	-8.87707E-005	0.00000E+000	-2.49730E-005	-5.39641E-002	2.81355E-001	3.57260E+000	9	...........
	83	1.12	2.76586E-001	-8.89937E-005	0.00000E+000	-2.46144E-005	-5.39641E-002	2.76621E-001	3.57260E+000	9	...........
	84	1.13333	2.71865E-001	-8.86134E-005	0.00000E+000	-2.40909E-005	-5.39641E-002	2.71896E-001	3.57260E+000	9	...........
	85	1.14667	2.67167E-001	-8.87832E-005	0.00000E+000	-2.37200E-005	-5.39641E-002	2.67200E-001	3.57260E+000	9	...........
	86	1.16	2.62497E-001	-8.88811E-005	0.00000E+000	-2.33310E-005	-5.39641E-002	2.62533E-001	3.57260E+000	9	...........
	87	1.17333	2.57841E-001	-8.88957E-005	0.00000E+000	-2.29210E-005	-5.39641E-002	2.57874E-001	3.57260E+000	9	...........
	88	1.18667	2.53203E-001	-8.89280E-005	0.00000E+000	-2.25168E-005	-5.39641E-002	2.53243E-001	3.57260E+000	9	...........
	89	1.2	2.48586E-001	-8.90051E-005	0.00000E+000	-2.21255E-005	-5.39641E-002	2.48619E-001	3.57260E+000	9	...........
	90	1.21333	2.43986E-001	-8.89134E-005	0.00000E+000	-2.16936E-005	-5.39641E-002	2.44007E-001	3.57260E+000	9	...........
	91	1.22667	2.39372E-001	-8.87874E-005	0.00000E+000	-2.12532E-005	-5.39641E-002	2.39397E-001	3.57260E+000	9	...........
	92	1.24	2.34773E-001	-8.86905E-005	0.00000E+000	-2.08221E-005	-5.39641E-002	2.34805E-001	3.57260E+000	9	...........
	93	1.25333	2.30206E-001	-8.88113E-005	0.00000E+000	-2.04449E-005	-5.39641E-002	2.30233E-001	3.57260E+000	9	...........
	94	1.26667	2.25657E-001	-8.86509E-005	0.00000E+000	-2.00047E-005	-5.39641E-002	2.25680E-001	3.57260E+000	9	...........
	95	1.28	2.21126E-001	-8.89124E-005	0.00000E+000	-1.96609E-005	-5.39641E-002	2.21154E-001	3.57260E+000	9	...........
	96	1.29333	2.16622E-001	-8.87019E-005	0.00000E+000	-1.92148E-005	-5.39641E-002	2.16643E-001	3.57260E+000	9	...........
	97	1.30667	2.12144E-001	-8.85696E-005	0.00000E+000	-1.87895E-005	-5.39641E-002	2.12161E-001	3.57260E+000	9	...........
	98	1.32	2.07680E-001	-8.89885E-005	0.00000E+000	-1.84811E-005	-5.39641E-002	2.07701E-001	3.57260E+000	9	...........
	99	1.33333	2.03221E-001	-8.86634E-005	0.00000E+000	-1.80183E-005	-5.39641E-002	2.03245E-001	3.57260E+000	9	...........
	100	1.34667	1.98786E-001	-8.90551E-005	0.00000E+000	-1.77030E-005	-5.39641E-002	1.98805E-001	3.57260E+000	9	...........
	101	1.36	1.94382E-001	-8.87947E-005	0.00000E+000	-1.72601E-005	-5.39641E-002	1.94407E-001	3.57260E+000	9	...........
	102	1.37333	1.90010E-001	-8.90312E-005	0.00000E+000	-1.69168E-005	-5.39641E-002	1.90026E-001	3.57260E+000	9	...........
	103	1.38667	1.85640E-001	-8.87144E-005	0.00000E+000	-1.64689E-005	-5.39641E-002	1.85660E-001	3.57260E+000	9	...........
	104	1.4	1.81289E-001	-8.88353E-005	0.00000E+000	-1.61049E-005	-5.39641E-002	1.81316E-001	3.57260E+000	9	...........
	105	1.41333	1.76961E-001	-8.88280E-005	0.00000E+000	-1.57191E-005	-5.39641E-002	1.76983E-001	3.57260E+000	9	...........
	106	1.42667	1.72651E-001	-8.85248E-005	0.00000E+000	-1.52839E-005	-5.39641E-002	1.72672E-001	3.57260E+000	9	...........
	107	1.44	1.68352E-001	-8.87884E-005	0.00000E+000	-1.49477E-005	-5.39641E-002	1.68377E-001	3.57260E+000	9	...........
	108	1.45333	1.64085E-001	-8.87978E-005	0.00000E+000	-1.45704E-005	-5.39641E-002	1.64106E-001	3.57260E+000	9	...........
	109	1.46667	1.59831E-001	-8.87780E-005	0.00000E+000	-1.41895E-005	-5.39641E-002	1.59857E-001	3.57260E+000	9	...........
	110	1.48	1.55584E-001	-8.88864E-005	0.00000E+000	-1.38293E-005	-5.39641E-002	1.55607E-001	3.57260E+000	9	...........
	111	1.49333	1.51361E-001	-8.89457E-005	0.00000E+000	-1.34629E-005	-5.39641E-002	1.51377E-001	3.57260E+000	9	...........
	112	1.50667	1.47166E-001	-8.89082E-005	0.00000E+000	-1.30843E-005	-5.39641E-002	1.47177E-001	3.57260E+000	9	...........
	113	1.52	1.42987E-001	-8.88113E-005	0.00000E+000	-1.26989E-005	-5.39641E-002	1.42993E-001	3.57260E+000	9	...........
	114	1.53333	1.38828E-001	-8.88364E-005	0.00000E+000	-1.23330E-005	-5.39641E-002	1.38841E-001	3.57260E+000	9	...........
	115	1.54667	1.34698E-001	-8.91354E-005	0.00000E+000	-1.20064E-005	-5.39641E-002	1.34711E-001	3.57260E+000	9	...........
	116	1.56	1.30583E-001	-8.86519E-005	0.00000E+000	-1.15764E-005	-5.39641E-002	1.30594E-001	3.57260E+000	9	...........
	117	1.57333	1.26495E-001	-8.87207E-005	0.00000E+000	-1.12227E-005	-5.39641E-002	1.26507E-001	3.57260E+000	9	...........
	118	1.58667	1.22426E-001	-8.85707E-005	0.00000E+000	-1.08434E-005	-5.39641E-002	1.22439E-001	3.57260E+000	9	...........
	119	1.6	1.18366E-001	-8.88041E-005	0.00000E+000	-1.05114E-005	-5.39641E-002	1.18382E-001	3.57260E+000	9	...........
	120	1.61333	1.14315E-001	-8.89791E-005	0.00000E+000	-1.01716E-005	-5.39641E-002	1.14325E-001	3.57260E+000	9	...........
	121	1.62667	1.10274E-001	-8.89124E-005	0.00000E+000	-9.80471E-006	-5.39641E-002	1.10287E-001	3.57260E+000	9	...........
	122	1.64	1.06252E-001	-8.85811E-005	0.00000E+000	-9.41191E-006	-5.39641E-002	1.06265E-001	3.57260E+000	9	...........
	123	1.65333	1.02247E-001	-8.86123E-005	0.00000E+000	-9.06032E-006	-5.39641E-002	1.02256E-001	3.57260E+000	9	...........
	124	1.66667	9.82502E-002	-8.89562E-005	0.00000E+000	-8.73996E-006	-5.39641E-002	9.82620E-002	3.57260E+000	9	...........
	125	1.68	9.42927E-002	-8.88530E-005	0.00000E+000	-8.37820E-006	-5.39641E-002	9.42973E-002	3.57260E+000	9	...........
	126	1.69333	9.03460E-002	-8.88968E-005	0.00000E+000	-8.03146E-006	-5.39641E-002	9.03577E-002	3.57260E+000	9	...........
	127	1.70667	8.64171E-002	-8.86030E-005	0.00000E+000	-7.65681E-006	-5.39641E-002	8.64236E-002	3.57260E+000	9	...........
	128	1.72	8.25033E-002	-8.90103E-005	0.00000E+000	-7.34365E-006	-5.39641E-002	8.25072E-002	3.57260E+000	9	...........
	129	1.73333	7.86119E-002	-8.89260E-005	0.00000E+000	-6.99064E-006	-5.39641E-002	7.86118E-002	3.57260E+000	9	...........
	130	1.74667	7.47246E-002	-8.89041E-005	0.00000E+000	-6.64332E-006	-5.39641E-002	7.47226E-002	3.57260E+000	9	...........
	131	1.76	7.08643E-002	-8.88103E-005	0.00000E+000	-6.29348E-006	-5.39641E-002	7.08676E-002	3.57260E+000	9	...........
	132	1.77333	6.70221E-002	-8.88113E-005	0.00000E+000	-5.95232E-006	-5.39641E-002	6.70211E-002	3.57260E+000	9	...........
	133	1.78667	6.31948E-002	-8.88624E-005	0.00000E+000	-5.61564E-006	-5.39641E-002	6.31922E-002	3.57260E+000	9	...........
	134	1.8	5.93857E-002	-8.88499E-005	0.00000E+000	-5.27641E-006	-5.39641E-002	5.93867E-002	3.57260E+000	9	...........
	135	1.81333	5.55917E-002	-8.88426E-005	0.00000E+000	-4.93891E-006	-5.39641E-002	5.55907E-002	3.57260E+000	9	...........
	136	1.82667	5.18192E-002	-8.87957E-005	0.00000E+000	-4.60133E-006	-5.39641E-002	5.18209E-002	3.57260E+000	9	...........
	137	1.84	4.80733E-002	-8.88520E-005	0.00000E+000	-4.27141E-006	-5.39641E-002	4.80820E-002	3.57260E+000	9	...........
	138	1.85333	4.43451E-002	-8.85800E-005	0.00000E+000	-3.92809E-006	-5.39641E-002	4.43555E-002	3.57260E+000	9	...........
	139	1.86667	4.06203E-002	-8.87749E-005	0.00000E+000	-3.60606E-006	-5.39641E-002	4.06253E-002	3.57260E+000	9	...........
	140	1.88	3.69092E-002	-8.87884E-005	0.00000E+000	-3.27711E-006	-5.39641E-002	3.69151E-002	3.57260E+000	9	...........
	141	1.89333	3.32190E-002	-8.86332E-005	0.00000E+000	-2.94431E-006	-5.39641E-002	3.32235E-002	3.57260E+000	9	...........
	142	1.90667	2.95510E-002	-8.87686E-005	0.00000E+000	-2.62320E-006	-5.39641E-002	2.95530E-002	3.57260E+000	9	...........
	143	1.92	2.58989E-002	-8.87905E-005	0.00000E+000	-2.29958E-006	-5.39641E-002	2.58990E-002	3.57260E+000	9	...........
	144	1.93333	2.22596E-002	-8.87155E-005	0.00000E+000	-1.97477E-006	-5.39641E-002	2.22587E-002	3.57260E+000	9	...........
	145	1.94667	1.86445E-002	-8.88499E-005	0.00000E+000	-1.65656E-006	-5.39641E-002	1.86396E-002	3.57260E+000	9	...........
	146	1.96	1.50364E-002	-8.86842E-005	0.00000E+000	-1.33349E-006	-5.39641E-002	1.50347E-002	3.57260E+000	9	...........
	147	1.97333	1.14541E-002	-8.86603E-005	0.00000E+000	-1.01552E-006	-5.39641E-002	1.14461E-002	3.57260E+000	9	...........
	148	1.98667	7.90366E-003	-8.86644E-005	0.00000E+000	-7.00774E-007	-5.39641E-002	7.89097E-003	3.57260E+000	9	...........
	149	2	4.35778E-003	-8.87968E-005	0.00000E+000	-3.86957E-007	-5.39641E-002	4.34534E-003	3.57370E+000	9	...........
	150	2.01167	1.04186E-003	-8.86106E-005	0.00000E+000	-9.23195E-008	-5.39641E-002	1.03254E-003	3.57370E+000	9	...........
STARTTIMEOFFSET	QUANT	2411.609	Start Time Offset (s)
