EXPLAIN
TAG	PWR800_DISCHARGE
TITLE	LABEL	PWR Cyclic Charge Discharge (Cell) - Discharge Step	Test &Identifier
DATE	LABEL	10-7-2017	Date
TIME	LABEL	15:11:40	Time
NOTES	NOTES	3	&Notes...
	supercap test cell
	0.9mg
	6M KOH
PSTAT	PSTAT	IFC5000-01520	Potentiostat
CAPACITY	QUANT	1.00000E-003	Capacity (A-hr)
CELLTYPE	SELECTOR	1	&Cell Type
WORKINGCONNECTION	SELECTOR	0	&Working Lead
MAXDISCHARGETIME	VARIABLEANDUNITS	1.00000E+002	s	1.00000E+002	second(s)	Max &Discharge Time
DISCHARGEMODE	MULTIPARAM	0	9.00000E-005	&Discharge Mode	Constant Current	Amp(s)
SAMPLETIME	QUANT	1.00000E-002	Sa&mple Period (s)
DISCHARGESTOPAT1	MULTIPARAM	3	0.00000E+000	Discharge Stop At &1	Voltage < Limit	V
DISCHARGESTOPAT2	MULTIPARAM	0	0.00000E+000	Discharge Stop At &2	None	N/A
AESBHCSELECTOR	TOGGLE	F	Save Both Half Cells
IRCOMP	TOGGLE	F	IR &Measure
EOC	QUANT	0	Open Circuit (V)
SEQUENCER	TOGGLE	TRUE	Run as Sequence
PSTATMODEL	IQUANT	53	Pstat Model
PSTATSECTION	LABEL	IFC5000-01520	Pstat Section
PSTATSERIALNO	LABEL	01520	Pstat Serial Number
CTRLMODE	IQUANT	0	Control Mode
ELECTROMETER	IQUANT	1	RE=0 or CS=1
IESTAB	IQUANT	0	I/E Stability
CASPEED	IQUANT	4	Control Amp Speed
CONVENTION	IQUANT	1	Current Convention
ICHRANGE	IQUANT	2	Ich Range
ICHRANGEMODE	TOGGLE	T	Ich Auto Range
ICHOFFSETENABLE	TOGGLE	F	Ich Offset Enable
ICHOFFSET	QUANT	0	Ich Offset (V)
ICHFILTER	IQUANT	1	Ich Filter
VCHRANGE	IQUANT	2	Vch Range
VCHRANGEMODE	TOGGLE	T	Vch Auto Range
VCHOFFSETENABLE	TOGGLE	F	Vch Offset Enable
VCHOFFSET	QUANT	0	Vch Offset (V)
VCHFILTER	IQUANT	1	Vch Filter
IERANGELOWERLIMIT	IQUANT	9	I/E Range Lower Limit
IERANGEMODE	TOGGLE	F	I/E AutoRange
IERANGE	IQUANT	9	I/E Range
ACHSELECT	IQUANT	1	Ach Select
ACHRANGE	IQUANT	2	Ach Range
ACHOFFSETENABLE	TOGGLE	F	Ach Offset Enable
ACHOFFSET	QUANT	0	Ach Offset (V)
ACHFILTER	IQUANT	1	Ach Filter
CABLEID	IQUANT	14	Cable ID
DCCALDATE	LABEL	5-7-2017	DC Calibration Date
ACCALDATE	LABEL	12/3/2015	AC Calibration Date
FRAMEWORKVERSION	QUANT	7.01	Framework Version
INSTRUMENTVERSION	LABEL	4.00	Instrument Version
CURVE	TABLE	164
	Pt	T	Vf	Im	Vu	Pwr	Sig	Ach	Temp	IERange	Over
	#	s	V	A	V	W	V	V	deg C	#	bits
	0	0.013333	8.32258E-001	-8.87207E-005	0.00000E+000	-7.38385E-005	-5.39641E-002	8.32376E-001	3.57170E+000	9	...........
	1	0.026667	8.20217E-001	-8.85738E-005	0.00000E+000	-7.26497E-005	-5.39641E-002	8.20353E-001	3.57170E+000	9	...........
	2	0.04	8.08872E-001	-8.87426E-005	0.00000E+000	-7.17814E-005	-5.39641E-002	8.09005E-001	3.57170E+000	9	...........
	3	0.053333	7.98105E-001	-8.86248E-005	0.00000E+000	-7.07319E-005	-5.39641E-002	7.98242E-001	3.57170E+000	9	...........
	4	0.066667	7.87775E-001	-8.86071E-005	0.00000E+000	-6.98025E-005	-5.39641E-002	7.87885E-001	3.57170E+000	9	...........
	5	0.08	7.77841E-001	-8.84331E-005	0.00000E+000	-6.87870E-005	-5.39641E-002	7.77969E-001	3.57170E+000	9	...........
	6	0.093333	7.68238E-001	-8.85863E-005	0.00000E+000	-6.80553E-005	-5.39641E-002	7.68337E-001	3.57170E+000	9	...........
	7	0.106667	7.58962E-001	-8.84717E-005	0.00000E+000	-6.71466E-005	-5.39641E-002	7.59041E-001	3.57170E+000	9	...........
	8	0.12	7.49960E-001	-8.87103E-005	0.00000E+000	-6.65291E-005	-5.39641E-002	7.50045E-001	3.57170E+000	9	...........
	9	0.133333	7.41197E-001	-8.85425E-005	0.00000E+000	-6.56274E-005	-5.39641E-002	7.41271E-001	3.57170E+000	9	...........
	10	0.146667	7.32647E-001	-8.87405E-005	0.00000E+000	-6.50155E-005	-5.39641E-002	7.32733E-001	3.57170E+000	9	...........
	11	0.16	7.24333E-001	-8.86342E-005	0.00000E+000	-6.42007E-005	-5.39641E-002	7.24418E-001	3.57170E+000	9	...........
	12	0.173333	7.16176E-001	-8.89905E-005	0.00000E+000	-6.37329E-005	-5.39641E-002	7.16266E-001	3.57170E+000	9	...........
	13	0.186667	7.08196E-001	-8.85113E-005	0.00000E+000	-6.26833E-005	-5.39641E-002	7.08295E-001	3.57170E+000	9	...........
	14	0.2	7.00440E-001	-8.89739E-005	0.00000E+000	-6.23209E-005	-5.39641E-002	7.00499E-001	3.57170E+000	9	...........
	15	0.213333	6.92782E-001	-8.87415E-005	0.00000E+000	-6.14786E-005	-5.39641E-002	6.92848E-001	3.57170E+000	9	...........
	16	0.226667	6.85286E-001	-8.89176E-005	0.00000E+000	-6.09340E-005	-5.39641E-002	6.85357E-001	3.57170E+000	9	...........
	17	0.24	6.77957E-001	-8.87686E-005	0.00000E+000	-6.01813E-005	-5.39641E-002	6.78010E-001	3.57170E+000	9	...........
	18	0.253333	6.70743E-001	-8.87478E-005	0.00000E+000	-5.95270E-005	-5.39641E-002	6.70810E-001	3.57170E+000	9	...........
	19	0.266667	6.63608E-001	-8.86592E-005	0.00000E+000	-5.88350E-005	-5.39641E-002	6.63699E-001	3.57170E+000	9	...........
	20	0.28	6.56629E-001	-8.86248E-005	0.00000E+000	-5.81937E-005	-5.39641E-002	6.56708E-001	3.57170E+000	9	...........
	21	0.293333	6.49732E-001	-8.86394E-005	0.00000E+000	-5.75918E-005	-5.39641E-002	6.49811E-001	3.57170E+000	9	...........
	22	0.306667	6.42945E-001	-8.85894E-005	0.00000E+000	-5.69581E-005	-5.39641E-002	6.43027E-001	3.57170E+000	9	...........
	23	0.32	6.36199E-001	-8.86165E-005	0.00000E+000	-5.63777E-005	-5.39641E-002	6.36283E-001	3.57170E+000	9	...........
	24	0.333333	6.29624E-001	-8.86436E-005	0.00000E+000	-5.58121E-005	-5.39641E-002	6.29703E-001	3.57170E+000	9	...........
	25	0.346667	6.23136E-001	-8.86499E-005	0.00000E+000	-5.52409E-005	-5.39641E-002	6.23201E-001	3.57170E+000	9	...........
	26	0.36	6.16724E-001	-8.87332E-005	0.00000E+000	-5.47239E-005	-5.39641E-002	6.16796E-001	3.57170E+000	9	...........
	27	0.373333	6.10297E-001	-8.85769E-005	0.00000E+000	-5.40582E-005	-5.39641E-002	6.10442E-001	3.57170E+000	9	...........
	28	0.386667	6.04023E-001	-8.86019E-005	0.00000E+000	-5.35176E-005	-5.39641E-002	6.04167E-001	3.57170E+000	9	...........
	29	0.4	5.97831E-001	-8.88436E-005	0.00000E+000	-5.31135E-005	-5.39641E-002	5.97936E-001	3.57170E+000	9	...........
	30	0.413333	5.91683E-001	-8.86530E-005	0.00000E+000	-5.24544E-005	-5.39641E-002	5.91781E-001	3.57165E+000	9	...........
	31	0.426667	5.85564E-001	-8.88228E-005	0.00000E+000	-5.20114E-005	-5.39641E-002	5.85667E-001	3.57160E+000	9	...........
	32	0.44	5.79548E-001	-8.86144E-005	0.00000E+000	-5.13563E-005	-5.39641E-002	5.79646E-001	3.57160E+000	9	...........
	33	0.453333	5.73592E-001	-8.85457E-005	0.00000E+000	-5.07891E-005	-5.39641E-002	5.73647E-001	3.57160E+000	9	...........
	34	0.466667	5.67684E-001	-8.87290E-005	0.00000E+000	-5.03700E-005	-5.39641E-002	5.67736E-001	3.57160E+000	9	...........
	35	0.48	5.61788E-001	-8.90062E-005	0.00000E+000	-5.00026E-005	-5.39641E-002	5.61885E-001	3.57160E+000	9	...........
	36	0.493333	5.55967E-001	-8.86780E-005	0.00000E+000	-4.93020E-005	-5.39641E-002	5.56072E-001	3.57160E+000	9	...........
	37	0.506667	5.50190E-001	-8.85165E-005	0.00000E+000	-4.87009E-005	-5.39641E-002	5.50275E-001	3.57160E+000	9	...........
	38	0.52	5.44438E-001	-8.88832E-005	0.00000E+000	-4.83914E-005	-5.39641E-002	5.44531E-001	3.57160E+000	9	...........
	39	0.533333	5.38752E-001	-8.86050E-005	0.00000E+000	-4.77361E-005	-5.39641E-002	5.38816E-001	3.57160E+000	9	...........
	40	0.546667	5.33033E-001	-8.86592E-005	0.00000E+000	-4.72583E-005	-5.39641E-002	5.33119E-001	3.57160E+000	9	...........
	41	0.56	5.27431E-001	-8.84811E-005	0.00000E+000	-4.66677E-005	-5.39641E-002	5.27510E-001	3.57160E+000	9	...........
	42	0.573333	5.21861E-001	-8.85165E-005	0.00000E+000	-4.61933E-005	-5.39641E-002	5.21936E-001	3.57160E+000	9	...........
	43	0.586667	5.16325E-001	-8.85582E-005	0.00000E+000	-4.57248E-005	-5.39641E-002	5.16383E-001	3.57160E+000	9	...........
	44	0.6	5.10770E-001	-8.85998E-005	0.00000E+000	-4.52542E-005	-5.39641E-002	5.10844E-001	3.57160E+000	9	...........
	45	0.613333	5.05248E-001	-8.85884E-005	0.00000E+000	-4.47591E-005	-5.39641E-002	5.05346E-001	3.57160E+000	9	...........
	46	0.626667	4.99776E-001	-8.85842E-005	0.00000E+000	-4.42723E-005	-5.39641E-002	4.99884E-001	3.57160E+000	9	...........
	47	0.64	4.94354E-001	-8.86676E-005	0.00000E+000	-4.38332E-005	-5.39641E-002	4.94410E-001	3.57160E+000	9	...........
	48	0.653333	4.88945E-001	-8.87509E-005	0.00000E+000	-4.33943E-005	-5.39641E-002	4.89026E-001	3.57160E+000	9	...........
	49	0.666667	4.83616E-001	-8.86405E-005	0.00000E+000	-4.28679E-005	-5.39641E-002	4.83659E-001	3.57160E+000	9	...........
	50	0.68	4.78251E-001	-8.86894E-005	0.00000E+000	-4.24158E-005	-5.39641E-002	4.78306E-001	3.57160E+000	9	...........
	51	0.693333	4.72894E-001	-8.85290E-005	0.00000E+000	-4.18648E-005	-5.39641E-002	4.72947E-001	3.57160E+000	9	...........
	52	0.706667	4.67559E-001	-8.87603E-005	0.00000E+000	-4.15007E-005	-5.39641E-002	4.67611E-001	3.57160E+000	9	...........
	53	0.72	4.62244E-001	-8.86311E-005	0.00000E+000	-4.09692E-005	-5.39641E-002	4.62292E-001	3.57160E+000	9	...........
	54	0.733333	4.56953E-001	-8.87019E-005	0.00000E+000	-4.05326E-005	-5.39641E-002	4.57009E-001	3.57160E+000	9	...........
	55	0.746667	4.51698E-001	-8.85415E-005	0.00000E+000	-3.99940E-005	-5.39641E-002	4.51746E-001	3.57160E+000	9	...........
	56	0.76	4.46459E-001	-8.84446E-005	0.00000E+000	-3.94869E-005	-5.39641E-002	4.46512E-001	3.57160E+000	9	...........
	57	0.773333	4.41261E-001	-8.86561E-005	0.00000E+000	-3.91205E-005	-5.39641E-002	4.41305E-001	3.57160E+000	9	...........
	58	0.786667	4.36074E-001	-8.84915E-005	0.00000E+000	-3.85888E-005	-5.39641E-002	4.36119E-001	3.57160E+000	9	...........
	59	0.8	4.30897E-001	-8.86769E-005	0.00000E+000	-3.82106E-005	-5.39641E-002	4.30947E-001	3.57160E+000	9	...........
	60	0.813333	4.25750E-001	-8.86050E-005	0.00000E+000	-3.77236E-005	-5.39641E-002	4.25800E-001	3.57160E+000	9	...........
	61	0.826667	4.20626E-001	-8.87478E-005	0.00000E+000	-3.73296E-005	-5.39641E-002	4.20675E-001	3.57160E+000	9	...........
	62	0.84	4.15503E-001	-8.87520E-005	0.00000E+000	-3.68767E-005	-5.39641E-002	4.15549E-001	3.57160E+000	9	...........
	63	0.853333	4.10419E-001	-8.85884E-005	0.00000E+000	-3.63584E-005	-5.39641E-002	4.10457E-001	3.57160E+000	9	...........
	64	0.866667	4.05347E-001	-8.85925E-005	0.00000E+000	-3.59107E-005	-5.39641E-002	4.05383E-001	3.57160E+000	9	...........
	65	0.88	4.00294E-001	-8.87801E-005	0.00000E+000	-3.55381E-005	-5.39641E-002	4.00331E-001	3.57160E+000	9	...........
	66	0.893333	3.95265E-001	-8.87447E-005	0.00000E+000	-3.50777E-005	-5.39641E-002	3.95304E-001	3.57160E+000	9	...........
	67	0.906667	3.90257E-001	-8.87311E-005	0.00000E+000	-3.46279E-005	-5.39641E-002	3.90294E-001	3.57160E+000	9	...........
	68	0.92	3.85264E-001	-8.84394E-005	0.00000E+000	-3.40725E-005	-5.39641E-002	3.85304E-001	3.57160E+000	9	...........
	69	0.933333	3.80281E-001	-8.87801E-005	0.00000E+000	-3.37614E-005	-5.39641E-002	3.80323E-001	3.57160E+000	9	...........
	70	0.946667	3.75340E-001	-8.86644E-005	0.00000E+000	-3.32793E-005	-5.39641E-002	3.75381E-001	3.57160E+000	9	...........
	71	0.96	3.70414E-001	-8.85477E-005	0.00000E+000	-3.27993E-005	-5.39641E-002	3.70447E-001	3.57160E+000	9	...........
	72	0.97333	3.65481E-001	-8.86113E-005	0.00000E+000	-3.23857E-005	-5.39641E-002	3.65522E-001	3.57160E+000	9	...........
	73	0.98667	3.60565E-001	-8.86488E-005	0.00000E+000	-3.19637E-005	-5.39641E-002	3.60596E-001	3.57160E+000	9	...........
	74	1	3.55667E-001	-8.87176E-005	0.00000E+000	-3.15539E-005	-5.39641E-002	3.55703E-001	3.57160E+000	9	...........
	75	1.01333	3.50829E-001	-8.87415E-005	0.00000E+000	-3.11331E-005	-5.39641E-002	3.50858E-001	3.57160E+000	9	...........
	76	1.02667	3.45975E-001	-8.84842E-005	0.00000E+000	-3.06134E-005	-5.39641E-002	3.46013E-001	3.57160E+000	9	...........
	77	1.04	3.41142E-001	-8.86113E-005	0.00000E+000	-3.02290E-005	-5.39641E-002	3.41181E-001	3.57160E+000	9	...........
	78	1.05333	3.36366E-001	-8.86665E-005	0.00000E+000	-2.98244E-005	-5.39641E-002	3.36397E-001	3.57160E+000	9	...........
	79	1.06667	3.31594E-001	-8.86176E-005	0.00000E+000	-2.93850E-005	-5.39641E-002	3.31621E-001	3.57160E+000	9	...........
	80	1.08	3.26837E-001	-8.87342E-005	0.00000E+000	-2.90016E-005	-5.39641E-002	3.26871E-001	3.57160E+000	9	...........
	81	1.09333	3.22109E-001	-8.87676E-005	0.00000E+000	-2.85929E-005	-5.39641E-002	3.22134E-001	3.57160E+000	9	...........
	82	1.10667	3.17409E-001	-8.89030E-005	0.00000E+000	-2.82186E-005	-5.39641E-002	3.17439E-001	3.57160E+000	9	...........
	83	1.12	3.12718E-001	-8.85154E-005	0.00000E+000	-2.76804E-005	-5.39641E-002	3.12755E-001	3.57160E+000	9	...........
	84	1.13333	3.08048E-001	-8.85696E-005	0.00000E+000	-2.72837E-005	-5.39641E-002	3.08079E-001	3.57160E+000	9	...........
	85	1.14667	3.03382E-001	-8.86540E-005	0.00000E+000	-2.68960E-005	-5.39641E-002	3.03413E-001	3.57160E+000	9	...........
	86	1.16	2.98739E-001	-8.89124E-005	0.00000E+000	-2.65616E-005	-5.39641E-002	2.98769E-001	3.57160E+000	9	...........
	87	1.17333	2.94132E-001	-8.87728E-005	0.00000E+000	-2.61109E-005	-5.39641E-002	2.94159E-001	3.57160E+000	9	...........
	88	1.18667	2.89566E-001	-8.89624E-005	0.00000E+000	-2.57605E-005	-5.39641E-002	2.89588E-001	3.57160E+000	9	...........
	89	1.2	2.85021E-001	-8.85780E-005	0.00000E+000	-2.52466E-005	-5.39641E-002	2.85055E-001	3.57160E+000	9	...........
	90	1.21333	2.80515E-001	-8.87645E-005	0.00000E+000	-2.48997E-005	-5.39641E-002	2.80543E-001	3.57160E+000	9	...........
	91	1.22667	2.76007E-001	-8.88478E-005	0.00000E+000	-2.45226E-005	-5.39641E-002	2.76032E-001	3.57160E+000	9	...........
	92	1.24	2.71507E-001	-8.85415E-005	0.00000E+000	-2.40396E-005	-5.39641E-002	2.71534E-001	3.57160E+000	9	...........
	93	1.25333	2.67036E-001	-8.86113E-005	0.00000E+000	-2.36624E-005	-5.39641E-002	2.67064E-001	3.57160E+000	9	...........
	94	1.26667	2.62589E-001	-8.86790E-005	0.00000E+000	-2.32862E-005	-5.39641E-002	2.62615E-001	3.57160E+000	9	...........
	95	1.28	2.58186E-001	-8.86488E-005	0.00000E+000	-2.28879E-005	-5.39641E-002	2.58210E-001	3.57160E+000	9	...........
	96	1.29333	2.53803E-001	-8.84436E-005	0.00000E+000	-2.24473E-005	-5.39641E-002	2.53832E-001	3.57160E+000	9	...........
	97	1.30667	2.49437E-001	-8.85957E-005	0.00000E+000	-2.20990E-005	-5.39641E-002	2.49463E-001	3.57160E+000	9	...........
	98	1.32	2.45092E-001	-8.86415E-005	0.00000E+000	-2.17253E-005	-5.39641E-002	2.45118E-001	3.57160E+000	9	...........
	99	1.33333	2.40758E-001	-8.87999E-005	0.00000E+000	-2.13793E-005	-5.39641E-002	2.40781E-001	3.57160E+000	9	...........
	100	1.34667	2.36421E-001	-8.86822E-005	0.00000E+000	-2.09663E-005	-5.39641E-002	2.36446E-001	3.57160E+000	9	...........
	101	1.36	2.32106E-001	-8.86269E-005	0.00000E+000	-2.05709E-005	-5.39641E-002	2.32126E-001	3.57160E+000	9	...........
	102	1.37333	2.27810E-001	-8.85800E-005	0.00000E+000	-2.01795E-005	-5.39641E-002	2.27827E-001	3.57160E+000	9	...........
	103	1.38667	2.23543E-001	-8.86738E-005	0.00000E+000	-1.98224E-005	-5.39641E-002	2.23563E-001	3.57160E+000	9	...........
	104	1.4	2.19294E-001	-8.86613E-005	0.00000E+000	-1.94429E-005	-5.39641E-002	2.19318E-001	3.57160E+000	9	...........
	105	1.41333	2.15055E-001	-8.87780E-005	0.00000E+000	-1.90921E-005	-5.39641E-002	2.15075E-001	3.57165E+000	9	...........
	106	1.42667	2.10847E-001	-8.86280E-005	0.00000E+000	-1.86869E-005	-5.39641E-002	2.10867E-001	3.57170E+000	9	...........
	107	1.44	2.06676E-001	-8.87207E-005	0.00000E+000	-1.83364E-005	-5.39641E-002	2.06696E-001	3.57170E+000	9	...........
	108	1.45333	2.02530E-001	-8.84602E-005	0.00000E+000	-1.79159E-005	-5.39641E-002	2.02550E-001	3.57170E+000	9	...........
	109	1.46667	1.98385E-001	-8.84832E-005	0.00000E+000	-1.75537E-005	-5.39641E-002	1.98405E-001	3.57170E+000	9	...........
	110	1.48	1.94257E-001	-8.87363E-005	0.00000E+000	-1.72376E-005	-5.39641E-002	1.94274E-001	3.57170E+000	9	...........
	111	1.49333	1.90138E-001	-8.85227E-005	0.00000E+000	-1.68315E-005	-5.39641E-002	1.90152E-001	3.57170E+000	9	...........
	112	1.50667	1.86044E-001	-8.87457E-005	0.00000E+000	-1.65106E-005	-5.39641E-002	1.86062E-001	3.57170E+000	9	...........
	113	1.52	1.81957E-001	-8.86176E-005	0.00000E+000	-1.61246E-005	-5.39641E-002	1.81972E-001	3.57170E+000	9	...........
	114	1.53333	1.77905E-001	-8.85790E-005	0.00000E+000	-1.57586E-005	-5.39641E-002	1.77918E-001	3.57170E+000	9	...........
	115	1.54667	1.73867E-001	-8.87915E-005	0.00000E+000	-1.54380E-005	-5.39641E-002	1.73882E-001	3.57170E+000	9	...........
	116	1.56	1.69834E-001	-8.83008E-005	0.00000E+000	-1.49965E-005	-5.39641E-002	1.69849E-001	3.57170E+000	9	...........
	117	1.57333	1.65825E-001	-8.85811E-005	0.00000E+000	-1.46890E-005	-5.39641E-002	1.65841E-001	3.57170E+000	9	...........
	118	1.58667	1.61849E-001	-8.88593E-005	0.00000E+000	-1.43818E-005	-5.39641E-002	1.61863E-001	3.57170E+000	9	...........
	119	1.6	1.57890E-001	-8.89989E-005	0.00000E+000	-1.40520E-005	-5.39641E-002	1.57904E-001	3.57170E+000	9	...........
	120	1.61333	1.53929E-001	-8.86405E-005	0.00000E+000	-1.36444E-005	-5.39641E-002	1.53940E-001	3.57170E+000	9	...........
	121	1.62667	1.49993E-001	-8.89301E-005	0.00000E+000	-1.33389E-005	-5.39641E-002	1.50006E-001	3.57170E+000	9	...........
	122	1.64	1.46076E-001	-8.85498E-005	0.00000E+000	-1.29350E-005	-5.39641E-002	1.46088E-001	3.57170E+000	9	...........
	123	1.65333	1.42157E-001	-8.86822E-005	0.00000E+000	-1.26067E-005	-5.39641E-002	1.42170E-001	3.57170E+000	9	...........
	124	1.66667	1.38268E-001	-8.87749E-005	0.00000E+000	-1.22747E-005	-5.39641E-002	1.38278E-001	3.57170E+000	9	...........
	125	1.68	1.34409E-001	-8.86051E-005	0.00000E+000	-1.19093E-005	-5.39641E-002	1.34415E-001	3.57170E+000	9	...........
	126	1.69333	1.30583E-001	-8.86019E-005	0.00000E+000	-1.15699E-005	-5.39641E-002	1.30582E-001	3.57170E+000	9	...........
	127	1.70667	1.26768E-001	-8.86519E-005	0.00000E+000	-1.12382E-005	-5.39641E-002	1.26767E-001	3.57170E+000	9	...........
	128	1.72	1.22958E-001	-8.86446E-005	0.00000E+000	-1.08996E-005	-5.39641E-002	1.22957E-001	3.57170E+000	9	...........
	129	1.73333	1.19143E-001	-8.86071E-005	0.00000E+000	-1.05569E-005	-5.39641E-002	1.19154E-001	3.57170E+000	9	...........
	130	1.74667	1.15329E-001	-8.89416E-005	0.00000E+000	-1.02576E-005	-5.39641E-002	1.15343E-001	3.57170E+000	9	...........
	131	1.76	1.11555E-001	-8.85821E-005	0.00000E+000	-9.88178E-006	-5.39641E-002	1.11561E-001	3.57170E+000	9	...........
	132	1.77333	1.07801E-001	-8.84331E-005	0.00000E+000	-9.53320E-006	-5.39641E-002	1.07804E-001	3.57170E+000	9	...........
	133	1.78667	1.04047E-001	-8.85998E-005	0.00000E+000	-9.21858E-006	-5.39641E-002	1.04055E-001	3.57170E+000	9	...........
	134	1.8	1.00321E-001	-8.85123E-005	0.00000E+000	-8.87966E-006	-5.39641E-002	1.00329E-001	3.57170E+000	9	...........
	135	1.81333	9.66099E-002	-8.85696E-005	0.00000E+000	-8.55671E-006	-5.39641E-002	9.66172E-002	3.57170E+000	9	...........
	136	1.82667	9.28997E-002	-8.88270E-005	0.00000E+000	-8.25200E-006	-5.39641E-002	9.29059E-002	3.57170E+000	9	...........
	137	1.84	8.92093E-002	-8.88134E-005	0.00000E+000	-7.92298E-006	-5.39641E-002	8.92122E-002	3.57170E+000	9	...........
	138	1.85333	8.55242E-002	-8.88124E-005	0.00000E+000	-7.59561E-006	-5.39641E-002	8.55318E-002	3.57170E+000	9	...........
	139	1.86667	8.18584E-002	-8.89457E-005	0.00000E+000	-7.28095E-006	-5.39641E-002	8.18607E-002	3.57170E+000	9	...........
	140	1.88	7.81849E-002	-8.87207E-005	0.00000E+000	-6.93662E-006	-5.39641E-002	7.81881E-002	3.57170E+000	9	...........
	141	1.89333	7.45309E-002	-8.84498E-005	0.00000E+000	-6.59225E-006	-5.39641E-002	7.45291E-002	3.57170E+000	9	...........
	142	1.90667	7.09262E-002	-8.85165E-005	0.00000E+000	-6.27814E-006	-5.39641E-002	7.09171E-002	3.57170E+000	9	...........
	143	1.92	6.73293E-002	-8.85811E-005	0.00000E+000	-5.96410E-006	-5.39641E-002	6.73234E-002	3.57170E+000	9	...........
	144	1.93333	6.37492E-002	-8.85967E-005	0.00000E+000	-5.64797E-006	-5.39641E-002	6.37411E-002	3.57170E+000	9	...........
	145	1.94667	6.01702E-002	-8.87384E-005	0.00000E+000	-5.33941E-006	-5.39641E-002	6.01645E-002	3.57170E+000	9	...........
	146	1.96	5.66027E-002	-8.88718E-005	0.00000E+000	-5.03038E-006	-5.39641E-002	5.66012E-002	3.57170E+000	9	...........
	147	1.97333	5.30403E-002	-8.85853E-005	0.00000E+000	-4.69859E-006	-5.39641E-002	5.30382E-002	3.57170E+000	9	...........
	148	1.98667	4.94911E-002	-8.86238E-005	0.00000E+000	-4.38609E-006	-5.39641E-002	4.94885E-002	3.57170E+000	9	...........
	149	2	4.59637E-002	-8.87217E-005	0.00000E+000	-4.07798E-006	-5.39641E-002	4.59773E-002	3.57170E+000	9	...........
	150	2.01333	4.24367E-002	-8.88113E-005	0.00000E+000	-3.76886E-006	-5.39641E-002	4.24443E-002	3.57170E+000	9	...........
	151	2.02667	3.89276E-002	-8.83956E-005	0.00000E+000	-3.44103E-006	-5.39641E-002	3.89363E-002	3.57170E+000	9	...........
	152	2.04	3.54373E-002	-8.88270E-005	0.00000E+000	-3.14778E-006	-5.39641E-002	3.54432E-002	3.57170E+000	9	...........
	153	2.05333	3.19724E-002	-8.86019E-005	0.00000E+000	-2.83282E-006	-5.39641E-002	3.19711E-002	3.57170E+000	9	...........
	154	2.06667	2.85205E-002	-8.86269E-005	0.00000E+000	-2.52768E-006	-5.39641E-002	2.85218E-002	3.57170E+000	9	...........
	155	2.08	2.50872E-002	-8.86561E-005	0.00000E+000	-2.22414E-006	-5.39641E-002	2.50850E-002	3.57170E+000	9	...........
	156	2.09333	2.16742E-002	-8.85446E-005	0.00000E+000	-1.91913E-006	-5.39641E-002	2.16726E-002	3.57170E+000	9	...........
	157	2.10667	1.82845E-002	-8.85832E-005	0.00000E+000	-1.61970E-006	-5.39641E-002	1.82777E-002	3.57170E+000	9	...........
	158	2.12	1.49143E-002	-8.87582E-005	0.00000E+000	-1.32377E-006	-5.39641E-002	1.49116E-002	3.57170E+000	9	...........
	159	2.13333	1.15495E-002	-8.88707E-005	0.00000E+000	-1.02641E-006	-5.39641E-002	1.15430E-002	3.57170E+000	9	...........
	160	2.14667	8.19575E-003	-8.88322E-005	0.00000E+000	-7.28046E-007	-5.39641E-002	8.18928E-003	3.57170E+000	9	...........
	161	2.16	4.86826E-003	-8.87488E-005	0.00000E+000	-4.32052E-007	-5.39641E-002	4.85967E-003	3.57170E+000	9	...........
	162	2.17333	1.54946E-003	-8.86332E-005	0.00000E+000	-1.37334E-007	-5.39641E-002	1.53511E-003	3.57170E+000	9	...........
	163	2.175	-3.09475E-004	-8.87915E-005	0.00000E+000	2.74788E-008	-5.39641E-002	-3.26752E-004	3.57170E+000	9	...........
STARTTIMEOFFSET	QUANT	631.4583	Start Time Offset (s)
