EXPLAIN
TAG	PWR800_DISCHARGE
TITLE	LABEL	PWR Cyclic Charge Discharge (Cell) - Discharge Step	Test &Identifier
DATE	LABEL	10-7-2017	Date
TIME	LABEL	15:01:26	Time
NOTES	NOTES	3	&Notes...
	supercap test cell
	0.9mg
	6M KOH
PSTAT	PSTAT	IFC5000-01520	Potentiostat
CAPACITY	QUANT	1.00000E-003	Capacity (A-hr)
CELLTYPE	SELECTOR	1	&Cell Type
WORKINGCONNECTION	SELECTOR	0	&Working Lead
MAXDISCHARGETIME	VARIABLEANDUNITS	1.00000E+002	s	1.00000E+002	second(s)	Max &Discharge Time
DISCHARGEMODE	MULTIPARAM	0	9.00000E-005	&Discharge Mode	Constant Current	Amp(s)
SAMPLETIME	QUANT	1.00000E-002	Sa&mple Period (s)
DISCHARGESTOPAT1	MULTIPARAM	3	0.00000E+000	Discharge Stop At &1	Voltage < Limit	V
DISCHARGESTOPAT2	MULTIPARAM	0	0.00000E+000	Discharge Stop At &2	None	N/A
AESBHCSELECTOR	TOGGLE	F	Save Both Half Cells
IRCOMP	TOGGLE	F	IR &Measure
EOC	QUANT	0	Open Circuit (V)
SEQUENCER	TOGGLE	TRUE	Run as Sequence
PSTATMODEL	IQUANT	53	Pstat Model
PSTATSECTION	LABEL	IFC5000-01520	Pstat Section
PSTATSERIALNO	LABEL	01520	Pstat Serial Number
CTRLMODE	IQUANT	0	Control Mode
ELECTROMETER	IQUANT	1	RE=0 or CS=1
IESTAB	IQUANT	0	I/E Stability
CASPEED	IQUANT	4	Control Amp Speed
CONVENTION	IQUANT	1	Current Convention
ICHRANGE	IQUANT	2	Ich Range
ICHRANGEMODE	TOGGLE	T	Ich Auto Range
ICHOFFSETENABLE	TOGGLE	F	Ich Offset Enable
ICHOFFSET	QUANT	0	Ich Offset (V)
ICHFILTER	IQUANT	1	Ich Filter
VCHRANGE	IQUANT	2	Vch Range
VCHRANGEMODE	TOGGLE	T	Vch Auto Range
VCHOFFSETENABLE	TOGGLE	F	Vch Offset Enable
VCHOFFSET	QUANT	0	Vch Offset (V)
VCHFILTER	IQUANT	1	Vch Filter
IERANGELOWERLIMIT	IQUANT	9	I/E Range Lower Limit
IERANGEMODE	TOGGLE	F	I/E AutoRange
IERANGE	IQUANT	9	I/E Range
ACHSELECT	IQUANT	1	Ach Select
ACHRANGE	IQUANT	2	Ach Range
ACHOFFSETENABLE	TOGGLE	F	Ach Offset Enable
ACHOFFSET	QUANT	0	Ach Offset (V)
ACHFILTER	IQUANT	1	Ach Filter
CABLEID	IQUANT	14	Cable ID
DCCALDATE	LABEL	5-7-2017	DC Calibration Date
ACCALDATE	LABEL	12/3/2015	AC Calibration Date
FRAMEWORKVERSION	QUANT	7.01	Framework Version
INSTRUMENTVERSION	LABEL	4.00	Instrument Version
CURVE	TABLE	177
	Pt	T	Vf	Im	Vu	Pwr	Sig	Ach	Temp	IERange	Over
	#	s	V	A	V	W	V	V	deg C	#	bits
	0	0.013333	8.53847E-001	-8.84602E-005	0.00000E+000	-7.55315E-005	-5.39641E-002	8.54023E-001	3.57080E+000	9	...........
	1	0.026667	8.43469E-001	-8.85248E-005	0.00000E+000	-7.46680E-005	-5.39641E-002	8.43633E-001	3.57080E+000	9	...........
	2	0.04	8.33625E-001	-8.85873E-005	0.00000E+000	-7.38486E-005	-5.39641E-002	8.33770E-001	3.57080E+000	9	...........
	3	0.053333	8.24212E-001	-8.85873E-005	0.00000E+000	-7.30148E-005	-5.39641E-002	8.24345E-001	3.57080E+000	9	...........
	4	0.066667	8.15120E-001	-8.85071E-005	0.00000E+000	-7.21439E-005	-5.39641E-002	8.15242E-001	3.57080E+000	9	...........
	5	0.08	8.06333E-001	-8.84706E-005	0.00000E+000	-7.13368E-005	-5.39641E-002	8.06445E-001	3.57080E+000	9	...........
	6	0.093333	7.97806E-001	-8.85925E-005	0.00000E+000	-7.06797E-005	-5.39641E-002	7.97895E-001	3.57080E+000	9	...........
	7	0.106667	7.89441E-001	-8.85311E-005	0.00000E+000	-6.98900E-005	-5.39641E-002	7.89536E-001	3.57080E+000	9	...........
	8	0.12	7.81301E-001	-8.86019E-005	0.00000E+000	-6.92248E-005	-5.39641E-002	7.81397E-001	3.57080E+000	9	...........
	9	0.133333	7.73366E-001	-8.86832E-005	0.00000E+000	-6.85846E-005	-5.39641E-002	7.73421E-001	3.57080E+000	9	...........
	10	0.146667	7.65543E-001	-8.86134E-005	0.00000E+000	-6.78374E-005	-5.39641E-002	7.65630E-001	3.57080E+000	9	...........
	11	0.16	7.57897E-001	-8.87311E-005	0.00000E+000	-6.72490E-005	-5.39641E-002	7.57954E-001	3.57080E+000	9	...........
	12	0.173333	7.50363E-001	-8.85196E-005	0.00000E+000	-6.64218E-005	-5.39641E-002	7.50426E-001	3.57080E+000	9	...........
	13	0.186667	7.42979E-001	-8.85696E-005	0.00000E+000	-6.58053E-005	-5.39641E-002	7.43054E-001	3.57080E+000	9	...........
	14	0.2	7.35702E-001	-8.85446E-005	0.00000E+000	-6.51425E-005	-5.39641E-002	7.35759E-001	3.57080E+000	9	...........
	15	0.213333	7.28553E-001	-8.86728E-005	0.00000E+000	-6.46028E-005	-5.39641E-002	7.28610E-001	3.57080E+000	9	...........
	16	0.226667	7.21517E-001	-8.86790E-005	0.00000E+000	-6.39834E-005	-5.39641E-002	7.21558E-001	3.57080E+000	9	...........
	17	0.24	7.14492E-001	-8.86176E-005	0.00000E+000	-6.33165E-005	-5.39641E-002	7.14563E-001	3.57080E+000	9	...........
	18	0.253333	7.07613E-001	-8.86040E-005	0.00000E+000	-6.26973E-005	-5.39641E-002	7.07705E-001	3.57080E+000	9	...........
	19	0.266667	7.00832E-001	-8.85728E-005	0.00000E+000	-6.20746E-005	-5.39641E-002	7.00893E-001	3.57080E+000	9	...........
	20	0.28	6.94135E-001	-8.85227E-005	0.00000E+000	-6.14468E-005	-5.39641E-002	6.94194E-001	3.57080E+000	9	...........
	21	0.293333	6.87484E-001	-8.85071E-005	0.00000E+000	-6.08472E-005	-5.39641E-002	6.87548E-001	3.57080E+000	9	...........
	22	0.306667	6.80966E-001	-8.89020E-005	0.00000E+000	-6.05392E-005	-5.39641E-002	6.81028E-001	3.57080E+000	9	...........
	23	0.32	6.74494E-001	-8.87092E-005	0.00000E+000	-5.98339E-005	-5.39641E-002	6.74550E-001	3.57080E+000	9	...........
	24	0.333333	6.68096E-001	-8.87551E-005	0.00000E+000	-5.92969E-005	-5.39641E-002	6.68172E-001	3.57080E+000	9	...........
	25	0.346667	6.61736E-001	-8.86446E-005	0.00000E+000	-5.86594E-005	-5.39641E-002	6.61798E-001	3.57080E+000	9	...........
	26	0.36	6.55472E-001	-8.86905E-005	0.00000E+000	-5.81342E-005	-5.39641E-002	6.55514E-001	3.57080E+000	9	...........
	27	0.373333	6.49239E-001	-8.86217E-005	0.00000E+000	-5.75367E-005	-5.39641E-002	6.49288E-001	3.57080E+000	9	...........
	28	0.386667	6.43110E-001	-8.86353E-005	0.00000E+000	-5.70023E-005	-5.39641E-002	6.43154E-001	3.57080E+000	9	...........
	29	0.4	6.36974E-001	-8.84352E-005	0.00000E+000	-5.63310E-005	-5.39641E-002	6.37029E-001	3.57080E+000	9	...........
	30	0.413333	6.30928E-001	-8.86613E-005	0.00000E+000	-5.59389E-005	-5.39641E-002	6.30989E-001	3.57080E+000	9	...........
	31	0.426667	6.24931E-001	-8.85457E-005	0.00000E+000	-5.53349E-005	-5.39641E-002	6.24968E-001	3.57080E+000	9	...........
	32	0.44	6.18966E-001	-8.86363E-005	0.00000E+000	-5.48629E-005	-5.39641E-002	6.18997E-001	3.57080E+000	9	...........
	33	0.453333	6.12988E-001	-8.86884E-005	0.00000E+000	-5.43649E-005	-5.39641E-002	6.13063E-001	3.57080E+000	9	...........
	34	0.466667	6.07093E-001	-8.85925E-005	0.00000E+000	-5.37839E-005	-5.39641E-002	6.07175E-001	3.57080E+000	9	...........
	35	0.48	6.01262E-001	-8.87853E-005	0.00000E+000	-5.33833E-005	-5.39641E-002	6.01360E-001	3.57080E+000	9	...........
	36	0.493333	5.95459E-001	-8.83633E-005	0.00000E+000	-5.26167E-005	-5.39641E-002	5.95520E-001	3.57080E+000	9	...........
	37	0.506667	5.89684E-001	-8.83613E-005	0.00000E+000	-5.21052E-005	-5.39641E-002	5.89763E-001	3.57080E+000	9	...........
	38	0.52	5.83921E-001	-8.89364E-005	0.00000E+000	-5.19318E-005	-5.39641E-002	5.84006E-001	3.57080E+000	9	...........
	39	0.533333	5.78213E-001	-8.82644E-005	0.00000E+000	-5.10356E-005	-5.39641E-002	5.78317E-001	3.57080E+000	9	...........
	40	0.546667	5.72566E-001	-8.87072E-005	0.00000E+000	-5.07907E-005	-5.39641E-002	5.72627E-001	3.57080E+000	9	...........
	41	0.56	5.66941E-001	-8.85186E-005	0.00000E+000	-5.01848E-005	-5.39641E-002	5.67017E-001	3.57080E+000	9	...........
	42	0.573333	5.61273E-001	-8.86363E-005	0.00000E+000	-4.97491E-005	-5.39641E-002	5.61390E-001	3.57080E+000	9	...........
	43	0.586667	5.55696E-001	-8.85259E-005	0.00000E+000	-4.91934E-005	-5.39641E-002	5.55789E-001	3.57080E+000	9	...........
	44	0.6	5.50150E-001	-8.84654E-005	0.00000E+000	-4.86692E-005	-5.39641E-002	5.50250E-001	3.57080E+000	9	...........
	45	0.613333	5.44645E-001	-8.86811E-005	0.00000E+000	-4.82997E-005	-5.39641E-002	5.44715E-001	3.57080E+000	9	...........
	46	0.626667	5.39152E-001	-8.85998E-005	0.00000E+000	-4.77688E-005	-5.39641E-002	5.39211E-001	3.57080E+000	9	...........
	47	0.64	5.33642E-001	-8.84186E-005	0.00000E+000	-4.71839E-005	-5.39641E-002	5.33680E-001	3.57080E+000	9	...........
	48	0.653333	5.28180E-001	-8.86926E-005	0.00000E+000	-4.68457E-005	-5.39641E-002	5.28252E-001	3.57080E+000	9	...........
	49	0.666667	5.22720E-001	-8.85071E-005	0.00000E+000	-4.62644E-005	-5.39641E-002	5.22797E-001	3.57115E+000	9	...........
	50	0.68	5.17349E-001	-8.86999E-005	0.00000E+000	-4.58888E-005	-5.39641E-002	5.17405E-001	3.57220E+000	9	...........
	51	0.693333	5.11967E-001	-8.87165E-005	0.00000E+000	-4.54199E-005	-5.39641E-002	5.12025E-001	3.57220E+000	9	...........
	52	0.706667	5.06540E-001	-8.85342E-005	0.00000E+000	-4.48461E-005	-5.39641E-002	5.06629E-001	3.57220E+000	9	...........
	53	0.72	5.01200E-001	-8.85925E-005	0.00000E+000	-4.44026E-005	-5.39641E-002	5.01281E-001	3.57220E+000	9	...........
	54	0.733333	4.95907E-001	-8.89041E-005	0.00000E+000	-4.40882E-005	-5.39641E-002	4.95968E-001	3.57220E+000	9	...........
	55	0.746667	4.90604E-001	-8.86040E-005	0.00000E+000	-4.34695E-005	-5.39641E-002	4.90674E-001	3.57220E+000	9	...........
	56	0.76	4.85354E-001	-8.87926E-005	0.00000E+000	-4.30958E-005	-5.39641E-002	4.85418E-001	3.57220E+000	9	...........
	57	0.773333	4.80102E-001	-8.86415E-005	0.00000E+000	-4.25569E-005	-5.39641E-002	4.80149E-001	3.57220E+000	9	...........
	58	0.786667	4.74887E-001	-8.83946E-005	0.00000E+000	-4.19774E-005	-5.39641E-002	4.74933E-001	3.57220E+000	9	...........
	59	0.8	4.69677E-001	-8.87155E-005	0.00000E+000	-4.16676E-005	-5.39641E-002	4.69728E-001	3.57220E+000	9	...........
	60	0.813333	4.64497E-001	-8.83300E-005	0.00000E+000	-4.10290E-005	-5.39641E-002	4.64540E-001	3.57220E+000	9	...........
	61	0.826667	4.59330E-001	-8.83123E-005	0.00000E+000	-4.05645E-005	-5.39641E-002	4.59377E-001	3.57220E+000	9	...........
	62	0.84	4.54184E-001	-8.84884E-005	0.00000E+000	-4.01900E-005	-5.39641E-002	4.54222E-001	3.57220E+000	9	...........
	63	0.853333	4.49055E-001	-8.86384E-005	0.00000E+000	-3.98035E-005	-5.39641E-002	4.49103E-001	3.57220E+000	9	...........
	64	0.866667	4.43958E-001	-8.84654E-005	0.00000E+000	-3.92750E-005	-5.39641E-002	4.44000E-001	3.57220E+000	9	...........
	65	0.88	4.38895E-001	-8.88499E-005	0.00000E+000	-3.89958E-005	-5.39641E-002	4.38935E-001	3.57220E+000	9	...........
	66	0.893333	4.33832E-001	-8.86728E-005	0.00000E+000	-3.84691E-005	-5.39641E-002	4.33870E-001	3.57220E+000	9	...........
	67	0.906667	4.28799E-001	-8.87103E-005	0.00000E+000	-3.80389E-005	-5.39641E-002	4.28842E-001	3.57220E+000	9	...........
	68	0.92	4.23796E-001	-8.84144E-005	0.00000E+000	-3.74697E-005	-5.39641E-002	4.23834E-001	3.57220E+000	9	...........
	69	0.933333	4.18822E-001	-8.83821E-005	0.00000E+000	-3.70164E-005	-5.39641E-002	4.18856E-001	3.57220E+000	9	...........
	70	0.946667	4.13864E-001	-8.88874E-005	0.00000E+000	-3.67873E-005	-5.39641E-002	4.13898E-001	3.57220E+000	9	...........
	71	0.96	4.08928E-001	-8.86915E-005	0.00000E+000	-3.62684E-005	-5.39641E-002	4.08957E-001	3.57220E+000	9	...........
	72	0.97333	4.04028E-001	-8.85530E-005	0.00000E+000	-3.57779E-005	-5.39641E-002	4.04061E-001	3.57220E+000	9	...........
	73	0.98667	3.99158E-001	-8.83831E-005	0.00000E+000	-3.52789E-005	-5.39641E-002	3.99193E-001	3.57220E+000	9	...........
	74	1	3.94331E-001	-8.85853E-005	0.00000E+000	-3.49320E-005	-5.39641E-002	3.94360E-001	3.57220E+000	9	...........
	75	1.01333	3.89510E-001	-8.85759E-005	0.00000E+000	-3.45012E-005	-5.39641E-002	3.89539E-001	3.57220E+000	9	...........
	76	1.02667	3.84702E-001	-8.84915E-005	0.00000E+000	-3.40428E-005	-5.39641E-002	3.84737E-001	3.57220E+000	9	...........
	77	1.04	3.79914E-001	-8.85259E-005	0.00000E+000	-3.36322E-005	-5.39641E-002	3.79946E-001	3.57220E+000	9	...........
	78	1.05333	3.75146E-001	-8.87217E-005	0.00000E+000	-3.32836E-005	-5.39641E-002	3.75180E-001	3.57220E+000	9	...........
	79	1.06667	3.70423E-001	-8.86228E-005	0.00000E+000	-3.28279E-005	-5.39641E-002	3.70445E-001	3.57220E+000	9	...........
	80	1.08	3.65724E-001	-8.86811E-005	0.00000E+000	-3.24328E-005	-5.39641E-002	3.65758E-001	3.57220E+000	9	...........
	81	1.09333	3.61060E-001	-8.84686E-005	0.00000E+000	-3.19425E-005	-5.39641E-002	3.61095E-001	3.57220E+000	9	...........
	82	1.10667	3.56423E-001	-8.87843E-005	0.00000E+000	-3.16447E-005	-5.39641E-002	3.56453E-001	3.57220E+000	9	...........
	83	1.12	3.51788E-001	-8.85863E-005	0.00000E+000	-3.11636E-005	-5.39641E-002	3.51818E-001	3.57220E+000	9	...........
	84	1.13333	3.47179E-001	-8.84571E-005	0.00000E+000	-3.07104E-005	-5.39641E-002	3.47212E-001	3.57220E+000	9	...........
	85	1.14667	3.42600E-001	-8.87488E-005	0.00000E+000	-3.04054E-005	-5.39641E-002	3.42626E-001	3.57220E+000	9	...........
	86	1.16	3.38027E-001	-8.86967E-005	0.00000E+000	-2.99819E-005	-5.39641E-002	3.38049E-001	3.57220E+000	9	...........
	87	1.17333	3.33475E-001	-8.87238E-005	0.00000E+000	-2.95872E-005	-5.39641E-002	3.33493E-001	3.57220E+000	9	...........
	88	1.18667	3.28955E-001	-8.87384E-005	0.00000E+000	-2.91910E-005	-5.39641E-002	3.28981E-001	3.57220E+000	9	...........
	89	1.2	3.24477E-001	-8.85550E-005	0.00000E+000	-2.87341E-005	-5.39641E-002	3.24500E-001	3.57220E+000	9	...........
	90	1.21333	3.20014E-001	-8.85415E-005	0.00000E+000	-2.83345E-005	-5.39641E-002	3.20038E-001	3.57220E+000	9	...........
	91	1.22667	3.15547E-001	-8.88020E-005	0.00000E+000	-2.80212E-005	-5.39641E-002	3.15575E-001	3.57220E+000	9	...........
	92	1.24	3.11123E-001	-8.87520E-005	0.00000E+000	-2.76128E-005	-5.39641E-002	3.11145E-001	3.57220E+000	9	...........
	93	1.25333	3.06743E-001	-8.85561E-005	0.00000E+000	-2.71640E-005	-5.39641E-002	3.06767E-001	3.57220E+000	9	...........
	94	1.26667	3.02398E-001	-8.85123E-005	0.00000E+000	-2.67659E-005	-5.39641E-002	3.02421E-001	3.57220E+000	9	...........
	95	1.28	2.98051E-001	-8.83175E-005	0.00000E+000	-2.63231E-005	-5.39641E-002	2.98073E-001	3.57220E+000	9	...........
	96	1.29333	2.93713E-001	-8.85936E-005	0.00000E+000	-2.60211E-005	-5.39641E-002	2.93740E-001	3.57220E+000	9	...........
	97	1.30667	2.89384E-001	-8.86123E-005	0.00000E+000	-2.56430E-005	-5.39641E-002	2.89410E-001	3.57220E+000	9	...........
	98	1.32	2.85096E-001	-8.84238E-005	0.00000E+000	-2.52092E-005	-5.39641E-002	2.85125E-001	3.57220E+000	9	...........
	99	1.33333	2.80840E-001	-8.84592E-005	0.00000E+000	-2.48429E-005	-5.39641E-002	2.80866E-001	3.57220E+000	9	...........
	100	1.34667	2.76592E-001	-8.82831E-005	0.00000E+000	-2.44184E-005	-5.39641E-002	2.76617E-001	3.57220E+000	9	...........
	101	1.36	2.72346E-001	-8.84967E-005	0.00000E+000	-2.41018E-005	-5.39641E-002	2.72372E-001	3.57220E+000	9	...........
	102	1.37333	2.68123E-001	-8.86446E-005	0.00000E+000	-2.37677E-005	-5.39641E-002	2.68145E-001	3.57220E+000	9	...........
	103	1.38667	2.63916E-001	-8.85769E-005	0.00000E+000	-2.33768E-005	-5.39641E-002	2.63942E-001	3.57220E+000	9	...........
	104	1.4	2.59752E-001	-8.86863E-005	0.00000E+000	-2.30364E-005	-5.39641E-002	2.59778E-001	3.57220E+000	9	...........
	105	1.41333	2.55603E-001	-8.87895E-005	0.00000E+000	-2.26949E-005	-5.39641E-002	2.55621E-001	3.57220E+000	9	...........
	106	1.42667	2.51483E-001	-8.87853E-005	0.00000E+000	-2.23280E-005	-5.39641E-002	2.51499E-001	3.57220E+000	9	...........
	107	1.44	2.47361E-001	-8.85811E-005	0.00000E+000	-2.19115E-005	-5.39641E-002	2.47380E-001	3.57220E+000	9	...........
	108	1.45333	2.43283E-001	-8.85352E-005	0.00000E+000	-2.15391E-005	-5.39641E-002	2.43301E-001	3.57220E+000	9	...........
	109	1.46667	2.39205E-001	-8.84988E-005	0.00000E+000	-2.11693E-005	-5.39641E-002	2.39219E-001	3.57220E+000	9	...........
	110	1.48	2.35143E-001	-8.86832E-005	0.00000E+000	-2.08532E-005	-5.39641E-002	2.35151E-001	3.57220E+000	9	...........
	111	1.49333	2.31095E-001	-8.84686E-005	0.00000E+000	-2.04446E-005	-5.39641E-002	2.31110E-001	3.57220E+000	9	...........
	112	1.50667	2.27068E-001	-8.85769E-005	0.00000E+000	-2.01130E-005	-5.39641E-002	2.27075E-001	3.57220E+000	9	...........
	113	1.52	2.23061E-001	-8.87707E-005	0.00000E+000	-1.98012E-005	-5.39641E-002	2.23080E-001	3.57220E+000	9	...........
	114	1.53333	2.19075E-001	-8.87926E-005	0.00000E+000	-1.94523E-005	-5.39641E-002	2.19094E-001	3.57220E+000	9	...........
	115	1.54667	2.15127E-001	-8.86603E-005	0.00000E+000	-1.90733E-005	-5.39641E-002	2.15134E-001	3.57220E+000	9	...........
	116	1.56	2.11202E-001	-8.84581E-005	0.00000E+000	-1.86825E-005	-5.39641E-002	2.11217E-001	3.57220E+000	9	...........
	117	1.57333	2.07288E-001	-8.86832E-005	0.00000E+000	-1.83830E-005	-5.39641E-002	2.07294E-001	3.57220E+000	9	...........
	118	1.58667	2.03350E-001	-8.88739E-005	0.00000E+000	-1.80725E-005	-5.39641E-002	2.03369E-001	3.57220E+000	9	...........
	119	1.6	1.99423E-001	-8.85602E-005	0.00000E+000	-1.76610E-005	-5.39641E-002	1.99433E-001	3.57220E+000	9	...........
	120	1.61333	1.95514E-001	-8.88676E-005	0.00000E+000	-1.73748E-005	-5.39641E-002	1.95526E-001	3.57220E+000	9	...........
	121	1.62667	1.91636E-001	-8.84061E-005	0.00000E+000	-1.69418E-005	-5.39641E-002	1.91653E-001	3.57220E+000	9	...........
	122	1.64	1.87776E-001	-8.85144E-005	0.00000E+000	-1.66208E-005	-5.39641E-002	1.87787E-001	3.57220E+000	9	...........
	123	1.65333	1.83930E-001	-8.85363E-005	0.00000E+000	-1.62845E-005	-5.39641E-002	1.83941E-001	3.57220E+000	9	...........
	124	1.66667	1.80080E-001	-8.86009E-005	0.00000E+000	-1.59552E-005	-5.39641E-002	1.80090E-001	3.57185E+000	9	...........
	125	1.68	1.76233E-001	-8.84529E-005	0.00000E+000	-1.55883E-005	-5.39641E-002	1.76248E-001	3.57080E+000	9	...........
	126	1.69333	1.72392E-001	-8.87061E-005	0.00000E+000	-1.52922E-005	-5.39641E-002	1.72406E-001	3.57080E+000	9	...........
	127	1.70667	1.68593E-001	-8.88884E-005	0.00000E+000	-1.49859E-005	-5.39641E-002	1.68598E-001	3.57080E+000	9	...........
	128	1.72	1.64803E-001	-8.85540E-005	0.00000E+000	-1.45940E-005	-5.39641E-002	1.64811E-001	3.57080E+000	9	...........
	129	1.73333	1.61016E-001	-8.86457E-005	0.00000E+000	-1.42733E-005	-5.39641E-002	1.61025E-001	3.57080E+000	9	...........
	130	1.74667	1.57240E-001	-8.87040E-005	0.00000E+000	-1.39478E-005	-5.39641E-002	1.57246E-001	3.57080E+000	9	...........
	131	1.76	1.53479E-001	-8.87082E-005	0.00000E+000	-1.36149E-005	-5.39641E-002	1.53486E-001	3.57080E+000	9	...........
	132	1.77333	1.49747E-001	-8.85613E-005	0.00000E+000	-1.32618E-005	-5.39641E-002	1.49751E-001	3.57080E+000	9	...........
	133	1.78667	1.46036E-001	-8.87395E-005	0.00000E+000	-1.29591E-005	-5.39641E-002	1.46038E-001	3.57080E+000	9	...........
	134	1.8	1.42322E-001	-8.86613E-005	0.00000E+000	-1.26184E-005	-5.39641E-002	1.42327E-001	3.57080E+000	9	...........
	135	1.81333	1.38614E-001	-8.85498E-005	0.00000E+000	-1.22742E-005	-5.39641E-002	1.38619E-001	3.57080E+000	9	...........
	136	1.82667	1.34917E-001	-8.85446E-005	0.00000E+000	-1.19462E-005	-5.39641E-002	1.34926E-001	3.57080E+000	9	...........
	137	1.84	1.31234E-001	-8.84446E-005	0.00000E+000	-1.16069E-005	-5.39641E-002	1.31240E-001	3.57080E+000	9	...........
	138	1.85333	1.27577E-001	-8.86936E-005	0.00000E+000	-1.13152E-005	-5.39641E-002	1.27580E-001	3.57080E+000	9	...........
	139	1.86667	1.23916E-001	-8.85780E-005	0.00000E+000	-1.09762E-005	-5.39641E-002	1.23919E-001	3.57080E+000	9	...........
	140	1.88	1.20271E-001	-8.85550E-005	0.00000E+000	-1.06506E-005	-5.39641E-002	1.20278E-001	3.57080E+000	9	...........
	141	1.89333	1.16652E-001	-8.84842E-005	0.00000E+000	-1.03219E-005	-5.39641E-002	1.16660E-001	3.57080E+000	9	...........
	142	1.90667	1.13061E-001	-8.85550E-005	0.00000E+000	-1.00121E-005	-5.39641E-002	1.13066E-001	3.57080E+000	9	...........
	143	1.92	1.09482E-001	-8.84540E-005	0.00000E+000	-9.68411E-006	-5.39641E-002	1.09488E-001	3.57080E+000	9	...........
	144	1.93333	1.05910E-001	-8.84613E-005	0.00000E+000	-9.36892E-006	-5.39641E-002	1.05919E-001	3.57080E+000	9	...........
	145	1.94667	1.02366E-001	-8.87593E-005	0.00000E+000	-9.08591E-006	-5.39641E-002	1.02368E-001	3.57080E+000	9	...........
	146	1.96	9.88299E-002	-8.84977E-005	0.00000E+000	-8.74622E-006	-5.39641E-002	9.88318E-002	3.57080E+000	9	...........
	147	1.97333	9.53108E-002	-8.87895E-005	0.00000E+000	-8.46260E-006	-5.39641E-002	9.53145E-002	3.57080E+000	9	...........
	148	1.98667	9.17889E-002	-8.85207E-005	0.00000E+000	-8.12522E-006	-5.39641E-002	9.17925E-002	3.57080E+000	9	...........
	149	2	8.82713E-002	-8.87520E-005	0.00000E+000	-7.83425E-006	-5.39641E-002	8.82745E-002	3.57080E+000	9	...........
	150	2.01333	8.47463E-002	-8.86134E-005	0.00000E+000	-7.50966E-006	-5.39641E-002	8.47574E-002	3.57080E+000	9	...........
	151	2.02667	8.12767E-002	-8.86071E-005	0.00000E+000	-7.20170E-006	-5.39641E-002	8.12710E-002	3.57080E+000	9	...........
	152	2.04	7.77969E-002	-8.85280E-005	0.00000E+000	-6.88720E-006	-5.39641E-002	7.77934E-002	3.57080E+000	9	...........
	153	2.05333	7.43036E-002	-8.85852E-005	0.00000E+000	-6.58221E-006	-5.39641E-002	7.43046E-002	3.57080E+000	9	...........
	154	2.06667	7.08483E-002	-8.85873E-005	0.00000E+000	-6.27626E-006	-5.39641E-002	7.08430E-002	3.57080E+000	9	...........
	155	2.08	6.74180E-002	-8.84686E-005	0.00000E+000	-5.96437E-006	-5.39641E-002	6.74090E-002	3.57080E+000	9	...........
	156	2.09333	6.40053E-002	-8.86436E-005	0.00000E+000	-5.67366E-006	-5.39641E-002	6.39971E-002	3.57080E+000	9	...........
	157	2.10667	6.05791E-002	-8.84769E-005	0.00000E+000	-5.35986E-006	-5.39641E-002	6.05756E-002	3.57080E+000	9	...........
	158	2.12	5.71856E-002	-8.84769E-005	0.00000E+000	-5.05961E-006	-5.39641E-002	5.71753E-002	3.57080E+000	9	...........
	159	2.13333	5.38360E-002	-8.85019E-005	0.00000E+000	-4.76459E-006	-5.39641E-002	5.38260E-002	3.57080E+000	9	...........
	160	2.14667	5.05051E-002	-8.85915E-005	0.00000E+000	-4.47432E-006	-5.39641E-002	5.04950E-002	3.57080E+000	9	...........
	161	2.16	4.71976E-002	-8.85394E-005	0.00000E+000	-4.17885E-006	-5.39641E-002	4.72013E-002	3.57080E+000	9	...........
	162	2.17333	4.38977E-002	-8.86863E-005	0.00000E+000	-3.89312E-006	-5.39641E-002	4.39036E-002	3.57080E+000	9	...........
	163	2.18667	4.05906E-002	-8.86853E-005	0.00000E+000	-3.59979E-006	-5.39641E-002	4.05898E-002	3.57080E+000	9	...........
	164	2.2	3.73037E-002	-8.86571E-005	0.00000E+000	-3.30724E-006	-5.39641E-002	3.73057E-002	3.57080E+000	9	...........
	165	2.21333	3.40360E-002	-8.87363E-005	0.00000E+000	-3.02023E-006	-5.39641E-002	3.40385E-002	3.57080E+000	9	...........
	166	2.22667	3.07898E-002	-8.84175E-005	0.00000E+000	-2.72236E-006	-5.39641E-002	3.07882E-002	3.57080E+000	9	...........
	167	2.24	2.75615E-002	-8.83894E-005	0.00000E+000	-2.43615E-006	-5.39641E-002	2.75570E-002	3.57080E+000	9	...........
	168	2.25333	2.43508E-002	-8.85884E-005	0.00000E+000	-2.15720E-006	-5.39641E-002	2.43480E-002	3.57080E+000	9	...........
	169	2.26667	2.11593E-002	-8.85894E-005	0.00000E+000	-1.87449E-006	-5.39641E-002	2.11538E-002	3.57080E+000	9	...........
	170	2.28	1.79864E-002	-8.86071E-005	0.00000E+000	-1.59373E-006	-5.39641E-002	1.79832E-002	3.57080E+000	9	...........
	171	2.29333	1.48574E-002	-8.88270E-005	0.00000E+000	-1.31974E-006	-5.39641E-002	1.48496E-002	3.57080E+000	9	...........
	172	2.30667	1.17475E-002	-8.87728E-005	0.00000E+000	-1.04286E-006	-5.39641E-002	1.17376E-002	3.57080E+000	9	...........
	173	2.32	8.68145E-003	-8.86176E-005	0.00000E+000	-7.69329E-007	-5.39641E-002	8.66571E-003	3.57080E+000	9	...........
	174	2.33333	5.62649E-003	-8.86176E-005	0.00000E+000	-4.98606E-007	-5.39641E-002	5.61576E-003	3.57080E+000	9	...........
	175	2.34667	2.58400E-003	-8.88405E-005	0.00000E+000	-2.29564E-007	-5.39641E-002	2.56977E-003	3.57080E+000	9	...........
	176	2.35333	3.10258E-004	-8.87290E-005	0.00000E+000	-2.75289E-008	-5.39641E-002	2.92101E-004	3.57080E+000	9	...........
STARTTIMEOFFSET	QUANT	110.1583	Start Time Offset (s)
