EXPLAIN
TAG	PWR800_DISCHARGE
TITLE	LABEL	PWR Cyclic Charge Discharge (Cell) - Discharge Step	Test &Identifier
DATE	LABEL	10-7-2017	Date
TIME	LABEL	15:09:07	Time
NOTES	NOTES	3	&Notes...
	supercap test cell
	0.9mg
	6M KOH
PSTAT	PSTAT	IFC5000-01520	Potentiostat
CAPACITY	QUANT	1.00000E-003	Capacity (A-hr)
CELLTYPE	SELECTOR	1	&Cell Type
WORKINGCONNECTION	SELECTOR	0	&Working Lead
MAXDISCHARGETIME	VARIABLEANDUNITS	1.00000E+002	s	1.00000E+002	second(s)	Max &Discharge Time
DISCHARGEMODE	MULTIPARAM	0	9.00000E-005	&Discharge Mode	Constant Current	Amp(s)
SAMPLETIME	QUANT	1.00000E-002	Sa&mple Period (s)
DISCHARGESTOPAT1	MULTIPARAM	3	0.00000E+000	Discharge Stop At &1	Voltage < Limit	V
DISCHARGESTOPAT2	MULTIPARAM	0	0.00000E+000	Discharge Stop At &2	None	N/A
AESBHCSELECTOR	TOGGLE	F	Save Both Half Cells
IRCOMP	TOGGLE	F	IR &Measure
EOC	QUANT	0	Open Circuit (V)
SEQUENCER	TOGGLE	TRUE	Run as Sequence
PSTATMODEL	IQUANT	53	Pstat Model
PSTATSECTION	LABEL	IFC5000-01520	Pstat Section
PSTATSERIALNO	LABEL	01520	Pstat Serial Number
CTRLMODE	IQUANT	0	Control Mode
ELECTROMETER	IQUANT	1	RE=0 or CS=1
IESTAB	IQUANT	0	I/E Stability
CASPEED	IQUANT	4	Control Amp Speed
CONVENTION	IQUANT	1	Current Convention
ICHRANGE	IQUANT	2	Ich Range
ICHRANGEMODE	TOGGLE	T	Ich Auto Range
ICHOFFSETENABLE	TOGGLE	F	Ich Offset Enable
ICHOFFSET	QUANT	0	Ich Offset (V)
ICHFILTER	IQUANT	1	Ich Filter
VCHRANGE	IQUANT	2	Vch Range
VCHRANGEMODE	TOGGLE	T	Vch Auto Range
VCHOFFSETENABLE	TOGGLE	F	Vch Offset Enable
VCHOFFSET	QUANT	0	Vch Offset (V)
VCHFILTER	IQUANT	1	Vch Filter
IERANGELOWERLIMIT	IQUANT	9	I/E Range Lower Limit
IERANGEMODE	TOGGLE	F	I/E AutoRange
IERANGE	IQUANT	9	I/E Range
ACHSELECT	IQUANT	1	Ach Select
ACHRANGE	IQUANT	2	Ach Range
ACHOFFSETENABLE	TOGGLE	F	Ach Offset Enable
ACHOFFSET	QUANT	0	Ach Offset (V)
ACHFILTER	IQUANT	1	Ach Filter
CABLEID	IQUANT	14	Cable ID
DCCALDATE	LABEL	5-7-2017	DC Calibration Date
ACCALDATE	LABEL	12/3/2015	AC Calibration Date
FRAMEWORKVERSION	QUANT	7.01	Framework Version
INSTRUMENTVERSION	LABEL	4.00	Instrument Version
CURVE	TABLE	165
	Pt	T	Vf	Im	Vu	Pwr	Sig	Ach	Temp	IERange	Over
	#	s	V	A	V	W	V	V	deg C	#	bits
	0	0.013333	8.36584E-001	-8.84800E-005	0.00000E+000	-7.40210E-005	-5.39641E-002	8.36745E-001	3.57220E+000	9	...........
	1	0.026667	8.24824E-001	-8.87582E-005	0.00000E+000	-7.32099E-005	-5.39641E-002	8.24970E-001	3.57220E+000	9	...........
	2	0.04	8.13696E-001	-8.86884E-005	0.00000E+000	-7.21654E-005	-5.39641E-002	8.13847E-001	3.57220E+000	9	...........
	3	0.053333	8.03136E-001	-8.85644E-005	0.00000E+000	-7.11293E-005	-5.39641E-002	8.03260E-001	3.57220E+000	9	...........
	4	0.066667	7.92996E-001	-8.86196E-005	0.00000E+000	-7.02750E-005	-5.39641E-002	7.93122E-001	3.57220E+000	9	...........
	5	0.08	7.83197E-001	-8.87311E-005	0.00000E+000	-6.94940E-005	-5.39641E-002	7.83334E-001	3.57220E+000	9	...........
	6	0.093333	7.73759E-001	-8.86811E-005	0.00000E+000	-6.86178E-005	-5.39641E-002	7.73870E-001	3.57220E+000	9	...........
	7	0.106667	7.64571E-001	-8.86697E-005	0.00000E+000	-6.77943E-005	-5.39641E-002	7.64697E-001	3.57220E+000	9	...........
	8	0.12	7.55658E-001	-8.86269E-005	0.00000E+000	-6.69717E-005	-5.39641E-002	7.55764E-001	3.57220E+000	9	...........
	9	0.133333	7.46985E-001	-8.86790E-005	0.00000E+000	-6.62419E-005	-5.39641E-002	7.47105E-001	3.57220E+000	9	...........
	10	0.146667	7.38503E-001	-8.86811E-005	0.00000E+000	-6.54913E-005	-5.39641E-002	7.38608E-001	3.57220E+000	9	...........
	11	0.16	7.30236E-001	-8.85165E-005	0.00000E+000	-6.46380E-005	-5.39641E-002	7.30315E-001	3.57220E+000	9	...........
	12	0.173333	7.22175E-001	-8.88832E-005	0.00000E+000	-6.41892E-005	-5.39641E-002	7.22238E-001	3.57220E+000	9	...........
	13	0.186667	7.14202E-001	-8.86676E-005	0.00000E+000	-6.33265E-005	-5.39641E-002	7.14301E-001	3.57220E+000	9	...........
	14	0.2	7.06463E-001	-8.86801E-005	0.00000E+000	-6.26491E-005	-5.39641E-002	7.06551E-001	3.57220E+000	9	...........
	15	0.213333	6.98863E-001	-8.84790E-005	0.00000E+000	-6.18347E-005	-5.39641E-002	6.98940E-001	3.57220E+000	9	...........
	16	0.226667	6.91394E-001	-8.87968E-005	0.00000E+000	-6.13936E-005	-5.39641E-002	6.91478E-001	3.57220E+000	9	...........
	17	0.24	6.84072E-001	-8.85592E-005	0.00000E+000	-6.05809E-005	-5.39641E-002	6.84148E-001	3.57220E+000	9	...........
	18	0.253333	6.76867E-001	-8.86655E-005	0.00000E+000	-6.00147E-005	-5.39641E-002	6.76964E-001	3.57220E+000	9	...........
	19	0.266667	6.69785E-001	-8.83289E-005	0.00000E+000	-5.91614E-005	-5.39641E-002	6.69873E-001	3.57220E+000	9	...........
	20	0.28	6.62783E-001	-8.89228E-005	0.00000E+000	-5.89365E-005	-5.39641E-002	6.62864E-001	3.57220E+000	9	...........
	21	0.293333	6.55916E-001	-8.87363E-005	0.00000E+000	-5.82036E-005	-5.39641E-002	6.56007E-001	3.57220E+000	9	...........
	22	0.306667	6.49123E-001	-8.88749E-005	0.00000E+000	-5.76907E-005	-5.39641E-002	6.49234E-001	3.57220E+000	9	...........
	23	0.32	6.42459E-001	-8.85467E-005	0.00000E+000	-5.68876E-005	-5.39641E-002	6.42551E-001	3.57220E+000	9	...........
	24	0.333333	6.35804E-001	-8.86665E-005	0.00000E+000	-5.63745E-005	-5.39641E-002	6.35917E-001	3.57220E+000	9	...........
	25	0.346667	6.29308E-001	-8.84509E-005	0.00000E+000	-5.56628E-005	-5.39641E-002	6.29406E-001	3.57220E+000	9	...........
	26	0.36	6.22868E-001	-8.83956E-005	0.00000E+000	-5.50588E-005	-5.39641E-002	6.22954E-001	3.57220E+000	9	...........
	27	0.373333	6.16517E-001	-8.85352E-005	0.00000E+000	-5.45835E-005	-5.39641E-002	6.16593E-001	3.57220E+000	9	...........
	28	0.386667	6.10156E-001	-8.87124E-005	0.00000E+000	-5.41284E-005	-5.39641E-002	6.10267E-001	3.57220E+000	9	...........
	29	0.4	6.03936E-001	-8.86498E-005	0.00000E+000	-5.35388E-005	-5.39641E-002	6.04056E-001	3.57220E+000	9	...........
	30	0.413333	5.97776E-001	-8.83717E-005	0.00000E+000	-5.28265E-005	-5.39641E-002	5.97886E-001	3.57220E+000	9	...........
	31	0.426667	5.91703E-001	-8.90010E-005	0.00000E+000	-5.26621E-005	-5.39641E-002	5.91808E-001	3.57220E+000	9	...........
	32	0.44	5.85630E-001	-8.85196E-005	0.00000E+000	-5.18398E-005	-5.39641E-002	5.85760E-001	3.57220E+000	9	...........
	33	0.453333	5.79652E-001	-8.88093E-005	0.00000E+000	-5.14785E-005	-5.39641E-002	5.79758E-001	3.57220E+000	9	...........
	34	0.466667	5.73736E-001	-8.86540E-005	0.00000E+000	-5.08640E-005	-5.39641E-002	5.73822E-001	3.57220E+000	9	...........
	35	0.48	5.67843E-001	-8.86717E-005	0.00000E+000	-5.03516E-005	-5.39641E-002	5.67925E-001	3.57220E+000	9	...........
	36	0.493333	5.61944E-001	-8.87634E-005	0.00000E+000	-4.98801E-005	-5.39641E-002	5.62031E-001	3.57208E+000	9	...........
	37	0.506667	5.56123E-001	-8.87238E-005	0.00000E+000	-4.93414E-005	-5.39641E-002	5.56199E-001	3.57160E+000	9	...........
	38	0.52	5.50371E-001	-8.86707E-005	0.00000E+000	-4.88018E-005	-5.39641E-002	5.50437E-001	3.57160E+000	9	...........
	39	0.533333	5.44653E-001	-8.85780E-005	0.00000E+000	-4.82442E-005	-5.39641E-002	5.44704E-001	3.57160E+000	9	...........
	40	0.546667	5.38937E-001	-8.85352E-005	0.00000E+000	-4.77149E-005	-5.39641E-002	5.39025E-001	3.57160E+000	9	...........
	41	0.56	5.33238E-001	-8.88145E-005	0.00000E+000	-4.73593E-005	-5.39641E-002	5.33317E-001	3.57160E+000	9	...........
	42	0.573333	5.27604E-001	-8.87353E-005	0.00000E+000	-4.68171E-005	-5.39641E-002	5.27679E-001	3.57160E+000	9	...........
	43	0.586667	5.22024E-001	-8.87561E-005	0.00000E+000	-4.63329E-005	-5.39641E-002	5.22085E-001	3.57160E+000	9	...........
	44	0.6	5.16475E-001	-8.88426E-005	0.00000E+000	-4.58850E-005	-5.39641E-002	5.16548E-001	3.57160E+000	9	...........
	45	0.613333	5.10911E-001	-8.84133E-005	0.00000E+000	-4.51714E-005	-5.39641E-002	5.10994E-001	3.57160E+000	9	...........
	46	0.626667	5.05389E-001	-8.88864E-005	0.00000E+000	-4.49222E-005	-5.39641E-002	5.05495E-001	3.57160E+000	9	...........
	47	0.64	4.99917E-001	-8.87176E-005	0.00000E+000	-4.43515E-005	-5.39641E-002	4.99988E-001	3.57160E+000	9	...........
	48	0.653333	4.94482E-001	-8.86040E-005	0.00000E+000	-4.38131E-005	-5.39641E-002	4.94554E-001	3.57160E+000	9	...........
	49	0.666667	4.89078E-001	-8.86759E-005	0.00000E+000	-4.33695E-005	-5.39641E-002	4.89149E-001	3.57160E+000	9	...........
	50	0.68	4.83714E-001	-8.86957E-005	0.00000E+000	-4.29034E-005	-5.39641E-002	4.83768E-001	3.57160E+000	9	...........
	51	0.693333	4.78345E-001	-8.86123E-005	0.00000E+000	-4.23873E-005	-5.39641E-002	4.78395E-001	3.57160E+000	9	...........
	52	0.706667	4.72993E-001	-8.86592E-005	0.00000E+000	-4.19352E-005	-5.39641E-002	4.73039E-001	3.57160E+000	9	...........
	53	0.72	4.67653E-001	-8.88416E-005	0.00000E+000	-4.15470E-005	-5.39641E-002	4.67703E-001	3.57160E+000	9	...........
	54	0.733333	4.62335E-001	-8.86655E-005	0.00000E+000	-4.09932E-005	-5.39641E-002	4.62387E-001	3.57160E+000	9	...........
	55	0.746667	4.57031E-001	-8.87947E-005	0.00000E+000	-4.05819E-005	-5.39641E-002	4.57078E-001	3.57160E+000	9	...........
	56	0.76	4.51755E-001	-8.86446E-005	0.00000E+000	-4.00457E-005	-5.39641E-002	4.51802E-001	3.57160E+000	9	...........
	57	0.773333	4.46504E-001	-8.87467E-005	0.00000E+000	-3.96258E-005	-5.39641E-002	4.46553E-001	3.57160E+000	9	...........
	58	0.786667	4.41271E-001	-8.85665E-005	0.00000E+000	-3.90819E-005	-5.39641E-002	4.41322E-001	3.57160E+000	9	...........
	59	0.8	4.36055E-001	-8.85592E-005	0.00000E+000	-3.86167E-005	-5.39641E-002	4.36102E-001	3.57160E+000	9	...........
	60	0.813333	4.30852E-001	-8.86384E-005	0.00000E+000	-3.81900E-005	-5.39641E-002	4.30900E-001	3.57160E+000	9	...........
	61	0.826667	4.25658E-001	-8.85738E-005	0.00000E+000	-3.77022E-005	-5.39641E-002	4.25703E-001	3.57160E+000	9	...........
	62	0.84	4.20494E-001	-8.89103E-005	0.00000E+000	-3.73862E-005	-5.39641E-002	4.20532E-001	3.57160E+000	9	...........
	63	0.853333	4.15345E-001	-8.85644E-005	0.00000E+000	-3.67847E-005	-5.39641E-002	4.15386E-001	3.57160E+000	9	...........
	64	0.866667	4.10235E-001	-8.85238E-005	0.00000E+000	-3.63155E-005	-5.39641E-002	4.10278E-001	3.57160E+000	9	...........
	65	0.88	4.05152E-001	-8.86978E-005	0.00000E+000	-3.59360E-005	-5.39641E-002	4.05193E-001	3.57160E+000	9	...........
	66	0.893333	4.00070E-001	-8.86874E-005	0.00000E+000	-3.54812E-005	-5.39641E-002	4.00107E-001	3.57160E+000	9	...........
	67	0.906667	3.95012E-001	-8.84863E-005	0.00000E+000	-3.49531E-005	-5.39641E-002	3.95052E-001	3.57160E+000	9	...........
	68	0.92	3.90001E-001	-8.86999E-005	0.00000E+000	-3.45930E-005	-5.39641E-002	3.90034E-001	3.57160E+000	9	...........
	69	0.933333	3.85004E-001	-8.87155E-005	0.00000E+000	-3.41558E-005	-5.39641E-002	3.85045E-001	3.57160E+000	9	...........
	70	0.946667	3.80042E-001	-8.85488E-005	0.00000E+000	-3.36522E-005	-5.39641E-002	3.80076E-001	3.57160E+000	9	...........
	71	0.96	3.75090E-001	-8.86113E-005	0.00000E+000	-3.32372E-005	-5.39641E-002	3.75132E-001	3.57160E+000	9	...........
	72	0.97333	3.70147E-001	-8.87332E-005	0.00000E+000	-3.28443E-005	-5.39641E-002	3.70181E-001	3.57160E+000	9	...........
	73	0.98667	3.65206E-001	-8.89520E-005	0.00000E+000	-3.24858E-005	-5.39641E-002	3.65243E-001	3.57160E+000	9	...........
	74	1	3.60319E-001	-8.87676E-005	0.00000E+000	-3.19846E-005	-5.39641E-002	3.60351E-001	3.57160E+000	9	...........
	75	1.01333	3.55458E-001	-8.87311E-005	0.00000E+000	-3.15402E-005	-5.39641E-002	3.55488E-001	3.57160E+000	9	...........
	76	1.02667	3.50618E-001	-8.89843E-005	0.00000E+000	-3.11995E-005	-5.39641E-002	3.50651E-001	3.57160E+000	9	...........
	77	1.04	3.45791E-001	-8.85592E-005	0.00000E+000	-3.06229E-005	-5.39641E-002	3.45824E-001	3.57160E+000	9	...........
	78	1.05333	3.40970E-001	-8.86082E-005	0.00000E+000	-3.02128E-005	-5.39641E-002	3.41003E-001	3.57160E+000	9	...........
	79	1.06667	3.36177E-001	-8.85519E-005	0.00000E+000	-2.97691E-005	-5.39641E-002	3.36213E-001	3.57160E+000	9	...........
	80	1.08	3.31413E-001	-8.87217E-005	0.00000E+000	-2.94035E-005	-5.39641E-002	3.31440E-001	3.57160E+000	9	...........
	81	1.09333	3.26684E-001	-8.90030E-005	0.00000E+000	-2.90759E-005	-5.39641E-002	3.26716E-001	3.57160E+000	9	...........
	82	1.10667	3.21976E-001	-8.89030E-005	0.00000E+000	-2.86247E-005	-5.39641E-002	3.22004E-001	3.57160E+000	9	...........
	83	1.12	3.17275E-001	-8.87540E-005	0.00000E+000	-2.81594E-005	-5.39641E-002	3.17306E-001	3.57160E+000	9	...........
	84	1.13333	3.12595E-001	-8.86082E-005	0.00000E+000	-2.76985E-005	-5.39641E-002	3.12628E-001	3.57160E+000	9	...........
	85	1.14667	3.07932E-001	-8.85019E-005	0.00000E+000	-2.72526E-005	-5.39641E-002	3.07961E-001	3.57160E+000	9	...........
	86	1.16	3.03303E-001	-8.87280E-005	0.00000E+000	-2.69115E-005	-5.39641E-002	3.03335E-001	3.57160E+000	9	...........
	87	1.17333	2.98688E-001	-8.86634E-005	0.00000E+000	-2.64827E-005	-5.39641E-002	2.98717E-001	3.57160E+000	9	...........
	88	1.18667	2.94117E-001	-8.85842E-005	0.00000E+000	-2.60542E-005	-5.39641E-002	2.94149E-001	3.57160E+000	9	...........
	89	1.2	2.89570E-001	-8.87488E-005	0.00000E+000	-2.56990E-005	-5.39641E-002	2.89601E-001	3.57160E+000	9	...........
	90	1.21333	2.85046E-001	-8.86832E-005	0.00000E+000	-2.52788E-005	-5.39641E-002	2.85076E-001	3.57160E+000	9	...........
	91	1.22667	2.80557E-001	-8.85675E-005	0.00000E+000	-2.48482E-005	-5.39641E-002	2.80586E-001	3.57160E+000	9	...........
	92	1.24	2.76066E-001	-8.86290E-005	0.00000E+000	-2.44675E-005	-5.39641E-002	2.76097E-001	3.57160E+000	9	...........
	93	1.25333	2.71595E-001	-8.88447E-005	0.00000E+000	-2.41297E-005	-5.39641E-002	2.71630E-001	3.57160E+000	9	...........
	94	1.26667	2.67143E-001	-8.87457E-005	0.00000E+000	-2.37078E-005	-5.39641E-002	2.67176E-001	3.57160E+000	9	...........
	95	1.28	2.62714E-001	-8.87592E-005	0.00000E+000	-2.33183E-005	-5.39641E-002	2.62746E-001	3.57160E+000	9	...........
	96	1.29333	2.58302E-001	-8.88718E-005	0.00000E+000	-2.29557E-005	-5.39641E-002	2.58329E-001	3.57160E+000	9	...........
	97	1.30667	2.53925E-001	-8.85405E-005	0.00000E+000	-2.24826E-005	-5.39641E-002	2.53958E-001	3.57160E+000	9	...........
	98	1.32	2.49575E-001	-8.86207E-005	0.00000E+000	-2.21175E-005	-5.39641E-002	2.49607E-001	3.57160E+000	9	...........
	99	1.33333	2.45257E-001	-8.85134E-005	0.00000E+000	-2.17085E-005	-5.39641E-002	2.45281E-001	3.57160E+000	9	...........
	100	1.34667	2.40938E-001	-8.87926E-005	0.00000E+000	-2.13935E-005	-5.39641E-002	2.40957E-001	3.57160E+000	9	...........
	101	1.36	2.36649E-001	-8.85748E-005	0.00000E+000	-2.09611E-005	-5.39641E-002	2.36666E-001	3.57160E+000	9	...........
	102	1.37333	2.32380E-001	-8.86759E-005	0.00000E+000	-2.06065E-005	-5.39641E-002	2.32401E-001	3.57160E+000	9	...........
	103	1.38667	2.28121E-001	-8.84915E-005	0.00000E+000	-2.01868E-005	-5.39641E-002	2.28143E-001	3.57160E+000	9	...........
	104	1.4	2.23879E-001	-8.87853E-005	0.00000E+000	-1.98771E-005	-5.39641E-002	2.23899E-001	3.57160E+000	9	...........
	105	1.41333	2.19659E-001	-8.86582E-005	0.00000E+000	-1.94746E-005	-5.39641E-002	2.19679E-001	3.57160E+000	9	...........
	106	1.42667	2.15469E-001	-8.84008E-005	0.00000E+000	-1.90476E-005	-5.39641E-002	2.15488E-001	3.57160E+000	9	...........
	107	1.44	2.11294E-001	-8.88103E-005	0.00000E+000	-1.87651E-005	-5.39641E-002	2.11312E-001	3.57160E+000	9	...........
	108	1.45333	2.07134E-001	-8.87113E-005	0.00000E+000	-1.83751E-005	-5.39641E-002	2.07146E-001	3.57160E+000	9	...........
	109	1.46667	2.02984E-001	-8.86269E-005	0.00000E+000	-1.79899E-005	-5.39641E-002	2.03005E-001	3.57160E+000	9	...........
	110	1.48	1.98868E-001	-8.86301E-005	0.00000E+000	-1.76257E-005	-5.39641E-002	1.98886E-001	3.57160E+000	9	...........
	111	1.49333	1.94753E-001	-8.86832E-005	0.00000E+000	-1.72713E-005	-5.39641E-002	1.94771E-001	3.57166E+000	9	...........
	112	1.50667	1.90652E-001	-8.87926E-005	0.00000E+000	-1.69285E-005	-5.39641E-002	1.90668E-001	3.57190E+000	9	...........
	113	1.52	1.86569E-001	-8.86019E-005	0.00000E+000	-1.65304E-005	-5.39641E-002	1.86581E-001	3.57190E+000	9	...........
	114	1.53333	1.82490E-001	-8.88218E-005	0.00000E+000	-1.62090E-005	-5.39641E-002	1.82503E-001	3.57190E+000	9	...........
	115	1.54667	1.78438E-001	-8.84790E-005	0.00000E+000	-1.57880E-005	-5.39641E-002	1.78452E-001	3.57190E+000	9	...........
	116	1.56	1.74397E-001	-8.87113E-005	0.00000E+000	-1.54710E-005	-5.39641E-002	1.74414E-001	3.57190E+000	9	...........
	117	1.57333	1.70398E-001	-8.89666E-005	0.00000E+000	-1.51597E-005	-5.39641E-002	1.70409E-001	3.57190E+000	9	...........
	118	1.58667	1.66398E-001	-8.87790E-005	0.00000E+000	-1.47727E-005	-5.39641E-002	1.66411E-001	3.57190E+000	9	...........
	119	1.6	1.62408E-001	-8.88707E-005	0.00000E+000	-1.44333E-005	-5.39641E-002	1.62418E-001	3.57190E+000	9	...........
	120	1.61333	1.58448E-001	-8.86123E-005	0.00000E+000	-1.40405E-005	-5.39641E-002	1.58458E-001	3.57190E+000	9	...........
	121	1.62667	1.54498E-001	-8.89030E-005	0.00000E+000	-1.37354E-005	-5.39641E-002	1.54508E-001	3.57190E+000	9	...........
	122	1.64	1.50545E-001	-8.85998E-005	0.00000E+000	-1.33382E-005	-5.39641E-002	1.50559E-001	3.57190E+000	9	...........
	123	1.65333	1.46613E-001	-8.84477E-005	0.00000E+000	-1.29676E-005	-5.39641E-002	1.46617E-001	3.57190E+000	9	...........
	124	1.66667	1.42697E-001	-8.87686E-005	0.00000E+000	-1.26670E-005	-5.39641E-002	1.42706E-001	3.57190E+000	9	...........
	125	1.68	1.38801E-001	-8.88811E-005	0.00000E+000	-1.23368E-005	-5.39641E-002	1.38806E-001	3.57190E+000	9	...........
	126	1.69333	1.34925E-001	-8.86196E-005	0.00000E+000	-1.19570E-005	-5.39641E-002	1.34928E-001	3.57190E+000	9	...........
	127	1.70667	1.31075E-001	-8.86426E-005	0.00000E+000	-1.16188E-005	-5.39641E-002	1.31079E-001	3.57190E+000	9	...........
	128	1.72	1.27231E-001	-8.89322E-005	0.00000E+000	-1.13149E-005	-5.39641E-002	1.27236E-001	3.57190E+000	9	...........
	129	1.73333	1.23401E-001	-8.85592E-005	0.00000E+000	-1.09283E-005	-5.39641E-002	1.23407E-001	3.57190E+000	9	...........
	130	1.74667	1.19608E-001	-8.86332E-005	0.00000E+000	-1.06012E-005	-5.39641E-002	1.19609E-001	3.57190E+000	9	...........
	131	1.76	1.15807E-001	-8.84946E-005	0.00000E+000	-1.02483E-005	-5.39641E-002	1.15811E-001	3.57190E+000	9	...........
	132	1.77333	1.12023E-001	-8.84634E-005	0.00000E+000	-9.90993E-006	-5.39641E-002	1.12033E-001	3.57190E+000	9	...........
	133	1.78667	1.08241E-001	-8.86665E-005	0.00000E+000	-9.59735E-006	-5.39641E-002	1.08244E-001	3.57190E+000	9	...........
	134	1.8	1.04472E-001	-8.88770E-005	0.00000E+000	-9.28517E-006	-5.39641E-002	1.04481E-001	3.57190E+000	9	...........
	135	1.81333	1.00732E-001	-8.86634E-005	0.00000E+000	-8.93123E-006	-5.39641E-002	1.00741E-001	3.57190E+000	9	...........
	136	1.82667	9.70208E-002	-8.86113E-005	0.00000E+000	-8.59714E-006	-5.39641E-002	9.70242E-002	3.57190E+000	9	...........
	137	1.84	9.33382E-002	-8.88270E-005	0.00000E+000	-8.29095E-006	-5.39641E-002	9.33373E-002	3.57190E+000	9	...........
	138	1.85333	8.96547E-002	-8.87113E-005	0.00000E+000	-7.95339E-006	-5.39641E-002	8.96591E-002	3.57190E+000	9	...........
	139	1.86667	8.59841E-002	-8.86499E-005	0.00000E+000	-7.62248E-006	-5.39641E-002	8.59908E-002	3.57190E+000	9	...........
	140	1.88	8.23236E-002	-8.85821E-005	0.00000E+000	-7.29240E-006	-5.39641E-002	8.23224E-002	3.57190E+000	9	...........
	141	1.89333	7.86751E-002	-8.88353E-005	0.00000E+000	-6.98913E-006	-5.39641E-002	7.86730E-002	3.57190E+000	9	...........
	142	1.90667	7.50265E-002	-8.87374E-005	0.00000E+000	-6.65766E-006	-5.39641E-002	7.50232E-002	3.57190E+000	9	...........
	143	1.92	7.13923E-002	-8.86155E-005	0.00000E+000	-6.32646E-006	-5.39641E-002	7.13905E-002	3.57190E+000	9	...........
	144	1.93333	6.77642E-002	-8.86530E-005	0.00000E+000	-6.00750E-006	-5.39641E-002	6.77673E-002	3.57190E+000	9	...........
	145	1.94667	6.41563E-002	-8.86936E-005	0.00000E+000	-5.69025E-006	-5.39641E-002	6.41506E-002	3.57190E+000	9	...........
	146	1.96	6.05688E-002	-8.84331E-005	0.00000E+000	-5.35629E-006	-5.39641E-002	6.05714E-002	3.57190E+000	9	...........
	147	1.97333	5.70029E-002	-8.88697E-005	0.00000E+000	-5.06583E-006	-5.39641E-002	5.69995E-002	3.57190E+000	9	...........
	148	1.98667	5.34395E-002	-8.86707E-005	0.00000E+000	-4.73851E-006	-5.39641E-002	5.34365E-002	3.57190E+000	9	...........
	149	2	4.98999E-002	-8.87092E-005	0.00000E+000	-4.42658E-006	-5.39641E-002	4.98944E-002	3.57190E+000	9	...........
	150	2.01333	4.63695E-002	-8.88082E-005	0.00000E+000	-4.11799E-006	-5.39641E-002	4.63813E-002	3.57190E+000	9	...........
	151	2.02667	4.28455E-002	-8.86092E-005	0.00000E+000	-3.79651E-006	-5.39641E-002	4.28517E-002	3.57190E+000	9	...........
	152	2.04	3.93383E-002	-8.87290E-005	0.00000E+000	-3.49045E-006	-5.39641E-002	3.93443E-002	3.57190E+000	9	...........
	153	2.05333	3.58604E-002	-8.86967E-005	0.00000E+000	-3.18070E-006	-5.39641E-002	3.58647E-002	3.57190E+000	9	...........
	154	2.06667	3.23960E-002	-8.84884E-005	0.00000E+000	-2.86667E-006	-5.39641E-002	3.23963E-002	3.57190E+000	9	...........
	155	2.08	2.89327E-002	-8.87217E-005	0.00000E+000	-2.56696E-006	-5.39641E-002	2.89304E-002	3.57190E+000	9	...........
	156	2.09333	2.54910E-002	-8.86217E-005	0.00000E+000	-2.25906E-006	-5.39641E-002	2.54878E-002	3.57190E+000	9	...........
	157	2.10667	2.20655E-002	-8.89301E-005	0.00000E+000	-1.96228E-006	-5.39641E-002	2.20612E-002	3.57190E+000	9	...........
	158	2.12	1.86659E-002	-8.84040E-005	0.00000E+000	-1.65014E-006	-5.39641E-002	1.86602E-002	3.57190E+000	9	...........
	159	2.13333	1.52895E-002	-8.84727E-005	0.00000E+000	-1.35271E-006	-5.39641E-002	1.52814E-002	3.57190E+000	9	...........
	160	2.14667	1.19322E-002	-8.89166E-005	0.00000E+000	-1.06097E-006	-5.39641E-002	1.19223E-002	3.57190E+000	9	...........
	161	2.16	8.57594E-003	-8.87009E-005	0.00000E+000	-7.60694E-007	-5.39641E-002	8.56412E-003	3.57190E+000	9	...........
	162	2.17333	5.23549E-003	-8.87697E-005	0.00000E+000	-4.64752E-007	-5.39641E-002	5.22537E-003	3.57190E+000	9	...........
	163	2.18667	1.92664E-003	-8.86436E-005	0.00000E+000	-1.70784E-007	-5.39641E-002	1.91173E-003	3.57190E+000	9	...........
	164	2.19	-1.28526E-004	-8.81914E-005	0.00000E+000	1.13349E-008	-5.39641E-002	-1.44152E-004	3.57190E+000	9	...........
STARTTIMEOFFSET	QUANT	501.4884	Start Time Offset (s)
