EXPLAIN
TAG	PWR800_DISCHARGE
TITLE	LABEL	PWR Cyclic Charge Discharge (Cell) - Discharge Step	Test &Identifier
DATE	LABEL	10-7-2017	Date
TIME	LABEL	15:17:16	Time
NOTES	NOTES	3	&Notes...
	supercap test cell
	0.9mg
	6M KOH
PSTAT	PSTAT	IFC5000-01520	Potentiostat
CAPACITY	QUANT	1.00000E-003	Capacity (A-hr)
CELLTYPE	SELECTOR	1	&Cell Type
WORKINGCONNECTION	SELECTOR	0	&Working Lead
MAXDISCHARGETIME	VARIABLEANDUNITS	1.00000E+002	s	1.00000E+002	second(s)	Max &Discharge Time
DISCHARGEMODE	MULTIPARAM	0	9.00000E-005	&Discharge Mode	Constant Current	Amp(s)
SAMPLETIME	QUANT	1.00000E-002	Sa&mple Period (s)
DISCHARGESTOPAT1	MULTIPARAM	3	0.00000E+000	Discharge Stop At &1	Voltage < Limit	V
DISCHARGESTOPAT2	MULTIPARAM	0	0.00000E+000	Discharge Stop At &2	None	N/A
AESBHCSELECTOR	TOGGLE	F	Save Both Half Cells
IRCOMP	TOGGLE	F	IR &Measure
EOC	QUANT	0	Open Circuit (V)
SEQUENCER	TOGGLE	TRUE	Run as Sequence
PSTATMODEL	IQUANT	53	Pstat Model
PSTATSECTION	LABEL	IFC5000-01520	Pstat Section
PSTATSERIALNO	LABEL	01520	Pstat Serial Number
CTRLMODE	IQUANT	0	Control Mode
ELECTROMETER	IQUANT	1	RE=0 or CS=1
IESTAB	IQUANT	0	I/E Stability
CASPEED	IQUANT	4	Control Amp Speed
CONVENTION	IQUANT	1	Current Convention
ICHRANGE	IQUANT	2	Ich Range
ICHRANGEMODE	TOGGLE	T	Ich Auto Range
ICHOFFSETENABLE	TOGGLE	F	Ich Offset Enable
ICHOFFSET	QUANT	0	Ich Offset (V)
ICHFILTER	IQUANT	1	Ich Filter
VCHRANGE	IQUANT	2	Vch Range
VCHRANGEMODE	TOGGLE	T	Vch Auto Range
VCHOFFSETENABLE	TOGGLE	F	Vch Offset Enable
VCHOFFSET	QUANT	0	Vch Offset (V)
VCHFILTER	IQUANT	1	Vch Filter
IERANGELOWERLIMIT	IQUANT	9	I/E Range Lower Limit
IERANGEMODE	TOGGLE	F	I/E AutoRange
IERANGE	IQUANT	9	I/E Range
ACHSELECT	IQUANT	1	Ach Select
ACHRANGE	IQUANT	2	Ach Range
ACHOFFSETENABLE	TOGGLE	F	Ach Offset Enable
ACHOFFSET	QUANT	0	Ach Offset (V)
ACHFILTER	IQUANT	1	Ach Filter
CABLEID	IQUANT	14	Cable ID
DCCALDATE	LABEL	5-7-2017	DC Calibration Date
ACCALDATE	LABEL	12/3/2015	AC Calibration Date
FRAMEWORKVERSION	QUANT	7.01	Framework Version
INSTRUMENTVERSION	LABEL	4.00	Instrument Version
CURVE	TABLE	161
	Pt	T	Vf	Im	Vu	Pwr	Sig	Ach	Temp	IERange	Over
	#	s	V	A	V	W	V	V	deg C	#	bits
	0	0.013333	8.25094E-001	-8.88082E-005	0.00000E+000	-7.32751E-005	-5.39641E-002	8.25223E-001	3.57200E+000	9	...........
	1	0.026667	8.12649E-001	-8.86321E-005	0.00000E+000	-7.20268E-005	-5.39641E-002	8.12772E-001	3.57200E+000	9	...........
	2	0.04	8.00980E-001	-8.86311E-005	0.00000E+000	-7.09917E-005	-5.39641E-002	8.01083E-001	3.57200E+000	9	...........
	3	0.053333	7.89848E-001	-8.87061E-005	0.00000E+000	-7.00644E-005	-5.39641E-002	7.89980E-001	3.57200E+000	9	...........
	4	0.066667	7.79261E-001	-8.88759E-005	0.00000E+000	-6.92575E-005	-5.39641E-002	7.79395E-001	3.57200E+000	9	...........
	5	0.08	7.69103E-001	-8.88197E-005	0.00000E+000	-6.83115E-005	-5.39641E-002	7.69227E-001	3.57200E+000	9	...........
	6	0.093333	7.59292E-001	-8.88697E-005	0.00000E+000	-6.74781E-005	-5.39641E-002	7.59399E-001	3.57200E+000	9	...........
	7	0.106667	7.49835E-001	-8.89249E-005	0.00000E+000	-6.66790E-005	-5.39641E-002	7.49923E-001	3.57200E+000	9	...........
	8	0.12	7.40626E-001	-8.86644E-005	0.00000E+000	-6.56672E-005	-5.39641E-002	7.40735E-001	3.57200E+000	9	...........
	9	0.133333	7.31703E-001	-8.87197E-005	0.00000E+000	-6.49165E-005	-5.39641E-002	7.31808E-001	3.57200E+000	9	...........
	10	0.146667	7.23049E-001	-8.85040E-005	0.00000E+000	-6.39927E-005	-5.39641E-002	7.23146E-001	3.57200E+000	9	...........
	11	0.16	7.14564E-001	-8.85884E-005	0.00000E+000	-6.33021E-005	-5.39641E-002	7.14660E-001	3.57200E+000	9	...........
	12	0.173333	7.06329E-001	-8.86186E-005	0.00000E+000	-6.25939E-005	-5.39641E-002	7.06432E-001	3.57200E+000	9	...........
	13	0.186667	6.98273E-001	-8.88739E-005	0.00000E+000	-6.20582E-005	-5.39641E-002	6.98387E-001	3.57200E+000	9	...........
	14	0.2	6.90408E-001	-8.85384E-005	0.00000E+000	-6.11276E-005	-5.39641E-002	6.90517E-001	3.57200E+000	9	...........
	15	0.213333	6.82689E-001	-8.84925E-005	0.00000E+000	-6.04129E-005	-5.39641E-002	6.82803E-001	3.57200E+000	9	...........
	16	0.226667	6.75135E-001	-8.84832E-005	0.00000E+000	-5.97380E-005	-5.39641E-002	6.75244E-001	3.57200E+000	9	...........
	17	0.24	6.67723E-001	-8.88009E-005	0.00000E+000	-5.92944E-005	-5.39641E-002	6.67828E-001	3.57200E+000	9	...........
	18	0.253333	6.60417E-001	-8.88353E-005	0.00000E+000	-5.86683E-005	-5.39641E-002	6.60509E-001	3.57200E+000	9	...........
	19	0.266667	6.53250E-001	-8.87155E-005	0.00000E+000	-5.79534E-005	-5.39641E-002	6.53363E-001	3.57200E+000	9	...........
	20	0.28	6.46217E-001	-8.86988E-005	0.00000E+000	-5.73186E-005	-5.39641E-002	6.46297E-001	3.57200E+000	9	...........
	21	0.293333	6.39305E-001	-8.85321E-005	0.00000E+000	-5.65990E-005	-5.39641E-002	6.39418E-001	3.57200E+000	9	...........
	22	0.306667	6.32489E-001	-8.87134E-005	0.00000E+000	-5.61102E-005	-5.39641E-002	6.32579E-001	3.57200E+000	9	...........
	23	0.32	6.25813E-001	-8.87551E-005	0.00000E+000	-5.55441E-005	-5.39641E-002	6.25879E-001	3.57200E+000	9	...........
	24	0.333333	6.19202E-001	-8.86717E-005	0.00000E+000	-5.49057E-005	-5.39641E-002	6.19277E-001	3.57200E+000	9	...........
	25	0.346667	6.12648E-001	-8.86863E-005	0.00000E+000	-5.43335E-005	-5.39641E-002	6.12756E-001	3.57200E+000	9	...........
	26	0.36	6.06184E-001	-8.87822E-005	0.00000E+000	-5.38184E-005	-5.39641E-002	6.06317E-001	3.57200E+000	9	...........
	27	0.373333	5.99853E-001	-8.87582E-005	0.00000E+000	-5.32419E-005	-5.39641E-002	5.99972E-001	3.57200E+000	9	...........
	28	0.386667	5.93586E-001	-8.84258E-005	0.00000E+000	-5.24883E-005	-5.39641E-002	5.93701E-001	3.57200E+000	9	...........
	29	0.4	5.87355E-001	-8.88020E-005	0.00000E+000	-5.21583E-005	-5.39641E-002	5.87433E-001	3.57200E+000	9	...........
	30	0.413333	5.81231E-001	-8.85092E-005	0.00000E+000	-5.14443E-005	-5.39641E-002	5.81325E-001	3.57200E+000	9	...........
	31	0.426667	5.75186E-001	-8.86665E-005	0.00000E+000	-5.09998E-005	-5.39641E-002	5.75241E-001	3.57200E+000	9	...........
	32	0.44	5.69166E-001	-8.87061E-005	0.00000E+000	-5.04885E-005	-5.39641E-002	5.69221E-001	3.57200E+000	9	...........
	33	0.453333	5.63182E-001	-8.88499E-005	0.00000E+000	-5.00387E-005	-5.39641E-002	5.63286E-001	3.57200E+000	9	...........
	34	0.466667	5.57260E-001	-8.85280E-005	0.00000E+000	-4.93331E-005	-5.39641E-002	5.57380E-001	3.57200E+000	9	...........
	35	0.48	5.51421E-001	-8.88978E-005	0.00000E+000	-4.90202E-005	-5.39641E-002	5.51519E-001	3.57200E+000	9	...........
	36	0.493333	5.45637E-001	-8.84102E-005	0.00000E+000	-4.82399E-005	-5.39641E-002	5.45737E-001	3.57200E+000	9	...........
	37	0.506667	5.39908E-001	-8.84050E-005	0.00000E+000	-4.77306E-005	-5.39641E-002	5.40017E-001	3.57200E+000	9	...........
	38	0.52	5.34198E-001	-8.86384E-005	0.00000E+000	-4.73504E-005	-5.39641E-002	5.34291E-001	3.57200E+000	9	...........
	39	0.533333	5.28552E-001	-8.88780E-005	0.00000E+000	-4.69766E-005	-5.39641E-002	5.28655E-001	3.57200E+000	9	...........
	40	0.546667	5.22916E-001	-8.84998E-005	0.00000E+000	-4.62780E-005	-5.39641E-002	5.23034E-001	3.57200E+000	9	...........
	41	0.56	5.17370E-001	-8.86030E-005	0.00000E+000	-4.58405E-005	-5.39641E-002	5.17461E-001	3.57200E+000	9	...........
	42	0.573333	5.11821E-001	-8.86488E-005	0.00000E+000	-4.53723E-005	-5.39641E-002	5.11899E-001	3.57200E+000	9	...........
	43	0.586667	5.06266E-001	-8.85696E-005	0.00000E+000	-4.48398E-005	-5.39641E-002	5.06368E-001	3.57200E+000	9	...........
	44	0.6	5.00782E-001	-8.86519E-005	0.00000E+000	-4.43953E-005	-5.39641E-002	5.00869E-001	3.57200E+000	9	...........
	45	0.613333	4.95341E-001	-8.86269E-005	0.00000E+000	-4.39005E-005	-5.39641E-002	4.95435E-001	3.57200E+000	9	...........
	46	0.626667	4.89916E-001	-8.88093E-005	0.00000E+000	-4.35091E-005	-5.39641E-002	4.90010E-001	3.57200E+000	9	...........
	47	0.64	4.84542E-001	-8.86248E-005	0.00000E+000	-4.29425E-005	-5.39641E-002	4.84624E-001	3.57200E+000	9	...........
	48	0.653333	4.79198E-001	-8.85217E-005	0.00000E+000	-4.24194E-005	-5.39641E-002	4.79256E-001	3.57200E+000	9	...........
	49	0.666667	4.73857E-001	-8.86519E-005	0.00000E+000	-4.20084E-005	-5.39641E-002	4.73917E-001	3.57200E+000	9	...........
	50	0.68	4.68543E-001	-8.84925E-005	0.00000E+000	-4.14626E-005	-5.39641E-002	4.68596E-001	3.57200E+000	9	...........
	51	0.693333	4.63263E-001	-8.86030E-005	0.00000E+000	-4.10465E-005	-5.39641E-002	4.63317E-001	3.57200E+000	9	...........
	52	0.706667	4.58012E-001	-8.88072E-005	0.00000E+000	-4.06748E-005	-5.39641E-002	4.58062E-001	3.57200E+000	9	...........
	53	0.72	4.52780E-001	-8.88093E-005	0.00000E+000	-4.02111E-005	-5.39641E-002	4.52830E-001	3.57314E+000	9	...........
	54	0.733333	4.47568E-001	-8.89655E-005	0.00000E+000	-3.98181E-005	-5.39641E-002	4.47619E-001	3.57330E+000	9	...........
	55	0.746667	4.42381E-001	-8.85978E-005	0.00000E+000	-3.91940E-005	-5.39641E-002	4.42433E-001	3.57330E+000	9	...........
	56	0.76	4.37216E-001	-8.88968E-005	0.00000E+000	-3.88671E-005	-5.39641E-002	4.37264E-001	3.57330E+000	9	...........
	57	0.773333	4.32056E-001	-8.85373E-005	0.00000E+000	-3.82531E-005	-5.39641E-002	4.32099E-001	3.57330E+000	9	...........
	58	0.786667	4.26920E-001	-8.86769E-005	0.00000E+000	-3.78580E-005	-5.39641E-002	4.26968E-001	3.57330E+000	9	...........
	59	0.8	4.21786E-001	-8.88749E-005	0.00000E+000	-3.74862E-005	-5.39641E-002	4.21830E-001	3.57330E+000	9	...........
	60	0.813333	4.16679E-001	-8.88666E-005	0.00000E+000	-3.70288E-005	-5.39641E-002	4.16730E-001	3.57330E+000	9	...........
	61	0.826667	4.11564E-001	-8.87655E-005	0.00000E+000	-3.65327E-005	-5.39641E-002	4.11612E-001	3.57330E+000	9	...........
	62	0.84	4.06471E-001	-8.90041E-005	0.00000E+000	-3.61776E-005	-5.39641E-002	4.06512E-001	3.57330E+000	9	...........
	63	0.853333	4.01389E-001	-8.88311E-005	0.00000E+000	-3.56558E-005	-5.39641E-002	4.01430E-001	3.57330E+000	9	...........
	64	0.866667	3.96323E-001	-8.86353E-005	0.00000E+000	-3.51282E-005	-5.39641E-002	3.96369E-001	3.57330E+000	9	...........
	65	0.88	3.91277E-001	-8.88416E-005	0.00000E+000	-3.47616E-005	-5.39641E-002	3.91315E-001	3.57330E+000	9	...........
	66	0.893333	3.86265E-001	-8.87801E-005	0.00000E+000	-3.42927E-005	-5.39641E-002	3.86305E-001	3.57330E+000	9	...........
	67	0.906667	3.81275E-001	-8.89322E-005	0.00000E+000	-3.39076E-005	-5.39641E-002	3.81310E-001	3.57330E+000	9	...........
	68	0.92	3.76291E-001	-8.92177E-005	0.00000E+000	-3.35718E-005	-5.39641E-002	3.76326E-001	3.57330E+000	9	...........
	69	0.933333	3.71322E-001	-8.89207E-005	0.00000E+000	-3.30182E-005	-5.39641E-002	3.71362E-001	3.57330E+000	9	...........
	70	0.946667	3.66384E-001	-8.86207E-005	0.00000E+000	-3.24692E-005	-5.39641E-002	3.66423E-001	3.57330E+000	9	...........
	71	0.96	3.61444E-001	-8.88593E-005	0.00000E+000	-3.21176E-005	-5.39641E-002	3.61486E-001	3.57330E+000	9	...........
	72	0.97333	3.56532E-001	-8.90291E-005	0.00000E+000	-3.17418E-005	-5.39641E-002	3.56569E-001	3.57330E+000	9	...........
	73	0.98667	3.51636E-001	-8.85123E-005	0.00000E+000	-3.11241E-005	-5.39641E-002	3.51670E-001	3.57330E+000	9	...........
	74	1	3.46762E-001	-8.87759E-005	0.00000E+000	-3.07841E-005	-5.39641E-002	3.46796E-001	3.57330E+000	9	...........
	75	1.01333	3.41919E-001	-8.88374E-005	0.00000E+000	-3.03752E-005	-5.39641E-002	3.41952E-001	3.57330E+000	9	...........
	76	1.02667	3.37086E-001	-8.88322E-005	0.00000E+000	-2.99441E-005	-5.39641E-002	3.37123E-001	3.57330E+000	9	...........
	77	1.04	3.32280E-001	-8.85925E-005	0.00000E+000	-2.94375E-005	-5.39641E-002	3.32313E-001	3.57330E+000	9	...........
	78	1.05333	3.27493E-001	-8.88405E-005	0.00000E+000	-2.90947E-005	-5.39641E-002	3.27526E-001	3.57330E+000	9	...........
	79	1.06667	3.22734E-001	-8.86822E-005	0.00000E+000	-2.86207E-005	-5.39641E-002	3.22769E-001	3.57330E+000	9	...........
	80	1.08	3.18006E-001	-8.89374E-005	0.00000E+000	-2.82826E-005	-5.39641E-002	3.18042E-001	3.57330E+000	9	...........
	81	1.09333	3.13293E-001	-8.84852E-005	0.00000E+000	-2.77218E-005	-5.39641E-002	3.13330E-001	3.57330E+000	9	...........
	82	1.10667	3.08591E-001	-8.87884E-005	0.00000E+000	-2.73993E-005	-5.39641E-002	3.08626E-001	3.57330E+000	9	...........
	83	1.12	3.03918E-001	-8.89728E-005	0.00000E+000	-2.70405E-005	-5.39641E-002	3.03952E-001	3.57330E+000	9	...........
	84	1.13333	2.99259E-001	-8.88916E-005	0.00000E+000	-2.66016E-005	-5.39641E-002	2.99290E-001	3.57330E+000	9	...........
	85	1.14667	2.94620E-001	-8.89218E-005	0.00000E+000	-2.61981E-005	-5.39641E-002	2.94654E-001	3.57330E+000	9	...........
	86	1.16	2.90013E-001	-8.85134E-005	0.00000E+000	-2.56701E-005	-5.39641E-002	2.90044E-001	3.57330E+000	9	...........
	87	1.17333	2.85424E-001	-8.87634E-005	0.00000E+000	-2.53352E-005	-5.39641E-002	2.85461E-001	3.57330E+000	9	...........
	88	1.18667	2.80856E-001	-8.85978E-005	0.00000E+000	-2.48832E-005	-5.39641E-002	2.80890E-001	3.57330E+000	9	...........
	89	1.2	2.76308E-001	-8.86728E-005	0.00000E+000	-2.45010E-005	-5.39641E-002	2.76342E-001	3.57330E+000	9	...........
	90	1.21333	2.71784E-001	-8.84998E-005	0.00000E+000	-2.40528E-005	-5.39641E-002	2.71818E-001	3.57330E+000	9	...........
	91	1.22667	2.67276E-001	-8.90072E-005	0.00000E+000	-2.37895E-005	-5.39641E-002	2.67306E-001	3.57330E+000	9	...........
	92	1.24	2.62786E-001	-8.84904E-005	0.00000E+000	-2.32541E-005	-5.39641E-002	2.62819E-001	3.57330E+000	9	...........
	93	1.25333	2.58304E-001	-8.86280E-005	0.00000E+000	-2.28930E-005	-5.39641E-002	2.58336E-001	3.57330E+000	9	...........
	94	1.26667	2.53862E-001	-8.85415E-005	0.00000E+000	-2.24773E-005	-5.39641E-002	2.53889E-001	3.57330E+000	9	...........
	95	1.28	2.49441E-001	-8.86082E-005	0.00000E+000	-2.21025E-005	-5.39641E-002	2.49467E-001	3.57330E+000	9	...........
	96	1.29333	2.45041E-001	-8.87447E-005	0.00000E+000	-2.17461E-005	-5.39641E-002	2.45066E-001	3.57330E+000	9	...........
	97	1.30667	2.40656E-001	-8.86207E-005	0.00000E+000	-2.13271E-005	-5.39641E-002	2.40678E-001	3.57330E+000	9	...........
	98	1.32	2.36284E-001	-8.87040E-005	0.00000E+000	-2.09593E-005	-5.39641E-002	2.36303E-001	3.57330E+000	9	...........
	99	1.33333	2.31932E-001	-8.88989E-005	0.00000E+000	-2.06185E-005	-5.39641E-002	2.31950E-001	3.57330E+000	9	...........
	100	1.34667	2.27612E-001	-8.87051E-005	0.00000E+000	-2.01904E-005	-5.39641E-002	2.27623E-001	3.57330E+000	9	...........
	101	1.36	2.23315E-001	-8.88103E-005	0.00000E+000	-1.98327E-005	-5.39641E-002	2.23329E-001	3.57330E+000	9	...........
	102	1.37333	2.19026E-001	-8.88041E-005	0.00000E+000	-1.94504E-005	-5.39641E-002	2.19039E-001	3.57330E+000	9	...........
	103	1.38667	2.14755E-001	-8.86769E-005	0.00000E+000	-1.90438E-005	-5.39641E-002	2.14770E-001	3.57330E+000	9	...........
	104	1.4	2.10503E-001	-8.87801E-005	0.00000E+000	-1.86884E-005	-5.39641E-002	2.10524E-001	3.57330E+000	9	...........
	105	1.41333	2.06276E-001	-8.88676E-005	0.00000E+000	-1.83313E-005	-5.39641E-002	2.06290E-001	3.57330E+000	9	...........
	106	1.42667	2.02044E-001	-8.84540E-005	0.00000E+000	-1.78716E-005	-5.39641E-002	2.02068E-001	3.57330E+000	9	...........
	107	1.44	1.97843E-001	-8.87863E-005	0.00000E+000	-1.75657E-005	-5.39641E-002	1.97861E-001	3.57330E+000	9	...........
	108	1.45333	1.93678E-001	-8.86832E-005	0.00000E+000	-1.71760E-005	-5.39641E-002	1.93694E-001	3.57330E+000	9	...........
	109	1.46667	1.89521E-001	-8.87592E-005	0.00000E+000	-1.68217E-005	-5.39641E-002	1.89535E-001	3.57330E+000	9	...........
	110	1.48	1.85366E-001	-8.87540E-005	0.00000E+000	-1.64520E-005	-5.39641E-002	1.85385E-001	3.57330E+000	9	...........
	111	1.49333	1.81229E-001	-8.89082E-005	0.00000E+000	-1.61127E-005	-5.39641E-002	1.81252E-001	3.57330E+000	9	...........
	112	1.50667	1.77106E-001	-8.85978E-005	0.00000E+000	-1.56912E-005	-5.39641E-002	1.77122E-001	3.57330E+000	9	...........
	113	1.52	1.72992E-001	-8.87113E-005	0.00000E+000	-1.53463E-005	-5.39641E-002	1.73009E-001	3.57330E+000	9	...........
	114	1.53333	1.68925E-001	-8.86248E-005	0.00000E+000	-1.49710E-005	-5.39641E-002	1.68940E-001	3.57330E+000	9	...........
	115	1.54667	1.64864E-001	-8.84998E-005	0.00000E+000	-1.45905E-005	-5.39641E-002	1.64876E-001	3.57330E+000	9	...........
	116	1.56	1.60823E-001	-8.87415E-005	0.00000E+000	-1.42717E-005	-5.39641E-002	1.60832E-001	3.57330E+000	9	...........
	117	1.57333	1.56807E-001	-8.85998E-005	0.00000E+000	-1.38931E-005	-5.39641E-002	1.56819E-001	3.57330E+000	9	...........
	118	1.58667	1.52789E-001	-8.85842E-005	0.00000E+000	-1.35347E-005	-5.39641E-002	1.52800E-001	3.57330E+000	9	...........
	119	1.6	1.48805E-001	-8.85280E-005	0.00000E+000	-1.31734E-005	-5.39641E-002	1.48811E-001	3.57330E+000	9	...........
	120	1.61333	1.44830E-001	-8.87853E-005	0.00000E+000	-1.28587E-005	-5.39641E-002	1.44843E-001	3.57330E+000	9	...........
	121	1.62667	1.40876E-001	-8.86884E-005	0.00000E+000	-1.24941E-005	-5.39641E-002	1.40884E-001	3.57330E+000	9	...........
	122	1.64	1.36932E-001	-8.84759E-005	0.00000E+000	-1.21152E-005	-5.39641E-002	1.36937E-001	3.57330E+000	9	...........
	123	1.65333	1.33016E-001	-8.91395E-005	0.00000E+000	-1.18569E-005	-5.39641E-002	1.33023E-001	3.57330E+000	9	...........
	124	1.66667	1.29108E-001	-8.87936E-005	0.00000E+000	-1.14640E-005	-5.39641E-002	1.29116E-001	3.57330E+000	9	...........
	125	1.68	1.25207E-001	-8.84623E-005	0.00000E+000	-1.10761E-005	-5.39641E-002	1.25215E-001	3.57330E+000	9	...........
	126	1.69333	1.21343E-001	-8.89905E-005	0.00000E+000	-1.07984E-005	-5.39641E-002	1.21348E-001	3.57330E+000	9	...........
	127	1.70667	1.17501E-001	-8.86894E-005	0.00000E+000	-1.04211E-005	-5.39641E-002	1.17510E-001	3.57330E+000	9	...........
	128	1.72	1.13655E-001	-8.88864E-005	0.00000E+000	-1.01023E-005	-5.39641E-002	1.13662E-001	3.57242E+000	9	...........
	129	1.73333	1.09814E-001	-8.88197E-005	0.00000E+000	-9.75367E-006	-5.39641E-002	1.09821E-001	3.57230E+000	9	...........
	130	1.74667	1.05968E-001	-8.85509E-005	0.00000E+000	-9.38354E-006	-5.39641E-002	1.05976E-001	3.57230E+000	9	...........
	131	1.76	1.02148E-001	-8.86790E-005	0.00000E+000	-9.05840E-006	-5.39641E-002	1.02160E-001	3.57230E+000	9	...........
	132	1.77333	9.83500E-002	-8.88780E-005	0.00000E+000	-8.74115E-006	-5.39641E-002	9.83645E-002	3.57230E+000	9	...........
	133	1.78667	9.45792E-002	-8.87207E-005	0.00000E+000	-8.39113E-006	-5.39641E-002	9.45942E-002	3.57230E+000	9	...........
	134	1.8	9.08149E-002	-8.88249E-005	0.00000E+000	-8.06662E-006	-5.39641E-002	9.08240E-002	3.57230E+000	9	...........
	135	1.81333	8.70567E-002	-8.87592E-005	0.00000E+000	-7.72709E-006	-5.39641E-002	8.70658E-002	3.57230E+000	9	...........
	136	1.82667	8.33061E-002	-8.86467E-005	0.00000E+000	-7.38481E-006	-5.39641E-002	8.33129E-002	3.57230E+000	9	...........
	137	1.84	7.95777E-002	-8.85852E-005	0.00000E+000	-7.04941E-006	-5.39641E-002	7.95825E-002	3.57230E+000	9	...........
	138	1.85333	7.58797E-002	-8.85446E-005	0.00000E+000	-6.71874E-006	-5.39641E-002	7.58826E-002	3.57230E+000	9	...........
	139	1.86667	7.22119E-002	-8.88093E-005	0.00000E+000	-6.41308E-006	-5.39641E-002	7.22127E-002	3.57230E+000	9	...........
	140	1.88	6.85522E-002	-8.86988E-005	0.00000E+000	-6.08050E-006	-5.39641E-002	6.85571E-002	3.57230E+000	9	...........
	141	1.89333	6.48994E-002	-8.87436E-005	0.00000E+000	-5.75941E-006	-5.39641E-002	6.49011E-002	3.57230E+000	9	...........
	142	1.90667	6.12735E-002	-8.86311E-005	0.00000E+000	-5.43074E-006	-5.39641E-002	6.12759E-002	3.57230E+000	9	...........
	143	1.92	5.76661E-002	-8.87374E-005	0.00000E+000	-5.11713E-006	-5.39641E-002	5.76596E-002	3.57230E+000	9	...........
	144	1.93333	5.40556E-002	-8.86405E-005	0.00000E+000	-4.79152E-006	-5.39641E-002	5.40531E-002	3.57230E+000	9	...........
	145	1.94667	5.04617E-002	-8.88999E-005	0.00000E+000	-4.48604E-006	-5.39641E-002	5.04623E-002	3.57230E+000	9	...........
	146	1.96	4.68911E-002	-8.85477E-005	0.00000E+000	-4.15210E-006	-5.39641E-002	4.69001E-002	3.57230E+000	9	...........
	147	1.97333	4.33448E-002	-8.83956E-005	0.00000E+000	-3.83150E-006	-5.39641E-002	4.33522E-002	3.57230E+000	9	...........
	148	1.98667	3.98032E-002	-8.87269E-005	0.00000E+000	-3.53162E-006	-5.39641E-002	3.98036E-002	3.57230E+000	9	...........
	149	2	3.62656E-002	-8.87269E-005	0.00000E+000	-3.21774E-006	-5.39641E-002	3.62728E-002	3.57230E+000	9	...........
	150	2.01333	3.27693E-002	-8.85738E-005	0.00000E+000	-2.90250E-006	-5.39641E-002	3.27712E-002	3.57230E+000	9	...........
	151	2.02667	2.92785E-002	-8.86426E-005	0.00000E+000	-2.59532E-006	-5.39641E-002	2.92793E-002	3.57230E+000	9	...........
	152	2.04	2.58109E-002	-8.88301E-005	0.00000E+000	-2.29278E-006	-5.39641E-002	2.58084E-002	3.57230E+000	9	...........
	153	2.05333	2.23603E-002	-8.85780E-005	0.00000E+000	-1.98063E-006	-5.39641E-002	2.23556E-002	3.57230E+000	9	...........
	154	2.06667	1.89260E-002	-8.88509E-005	0.00000E+000	-1.68159E-006	-5.39641E-002	1.89190E-002	3.57230E+000	9	...........
	155	2.08	1.55069E-002	-8.88009E-005	0.00000E+000	-1.37702E-006	-5.39641E-002	1.55035E-002	3.57230E+000	9	...........
	156	2.09333	1.21110E-002	-8.87363E-005	0.00000E+000	-1.07469E-006	-5.39641E-002	1.21033E-002	3.57230E+000	9	...........
	157	2.10667	8.71914E-003	-8.87457E-005	0.00000E+000	-7.73786E-007	-5.39641E-002	8.71035E-003	3.57230E+000	9	...........
	158	2.12	5.33685E-003	-8.90239E-005	0.00000E+000	-4.75107E-007	-5.39641E-002	5.32322E-003	3.57230E+000	9	...........
	159	2.13333	1.97647E-003	-8.87905E-005	0.00000E+000	-1.75492E-007	-5.39641E-002	1.96487E-003	3.57230E+000	9	...........
	160	2.13667	-1.05351E-004	-8.85540E-005	0.00000E+000	9.32921E-009	-5.39641E-002	-1.20176E-004	3.57230E+000	9	...........
STARTTIMEOFFSET	QUANT	915.028	Start Time Offset (s)
