EXPLAIN
TAG	PWR800_DISCHARGE
TITLE	LABEL	PWR Cyclic Charge Discharge (Cell) - Discharge Step	Test &Identifier
DATE	LABEL	10-7-2017	Date
TIME	LABEL	15:18:58	Time
NOTES	NOTES	3	&Notes...
	supercap test cell
	0.9mg
	6M KOH
PSTAT	PSTAT	IFC5000-01520	Potentiostat
CAPACITY	QUANT	1.00000E-003	Capacity (A-hr)
CELLTYPE	SELECTOR	1	&Cell Type
WORKINGCONNECTION	SELECTOR	0	&Working Lead
MAXDISCHARGETIME	VARIABLEANDUNITS	1.00000E+002	s	1.00000E+002	second(s)	Max &Discharge Time
DISCHARGEMODE	MULTIPARAM	0	9.00000E-005	&Discharge Mode	Constant Current	Amp(s)
SAMPLETIME	QUANT	1.00000E-002	Sa&mple Period (s)
DISCHARGESTOPAT1	MULTIPARAM	3	0.00000E+000	Discharge Stop At &1	Voltage < Limit	V
DISCHARGESTOPAT2	MULTIPARAM	0	0.00000E+000	Discharge Stop At &2	None	N/A
AESBHCSELECTOR	TOGGLE	F	Save Both Half Cells
IRCOMP	TOGGLE	F	IR &Measure
EOC	QUANT	0	Open Circuit (V)
SEQUENCER	TOGGLE	TRUE	Run as Sequence
PSTATMODEL	IQUANT	53	Pstat Model
PSTATSECTION	LABEL	IFC5000-01520	Pstat Section
PSTATSERIALNO	LABEL	01520	Pstat Serial Number
CTRLMODE	IQUANT	0	Control Mode
ELECTROMETER	IQUANT	1	RE=0 or CS=1
IESTAB	IQUANT	0	I/E Stability
CASPEED	IQUANT	4	Control Amp Speed
CONVENTION	IQUANT	1	Current Convention
ICHRANGE	IQUANT	2	Ich Range
ICHRANGEMODE	TOGGLE	T	Ich Auto Range
ICHOFFSETENABLE	TOGGLE	F	Ich Offset Enable
ICHOFFSET	QUANT	0	Ich Offset (V)
ICHFILTER	IQUANT	1	Ich Filter
VCHRANGE	IQUANT	2	Vch Range
VCHRANGEMODE	TOGGLE	T	Vch Auto Range
VCHOFFSETENABLE	TOGGLE	F	Vch Offset Enable
VCHOFFSET	QUANT	0	Vch Offset (V)
VCHFILTER	IQUANT	1	Vch Filter
IERANGELOWERLIMIT	IQUANT	9	I/E Range Lower Limit
IERANGEMODE	TOGGLE	F	I/E AutoRange
IERANGE	IQUANT	9	I/E Range
ACHSELECT	IQUANT	1	Ach Select
ACHRANGE	IQUANT	2	Ach Range
ACHOFFSETENABLE	TOGGLE	F	Ach Offset Enable
ACHOFFSET	QUANT	0	Ach Offset (V)
ACHFILTER	IQUANT	1	Ach Filter
CABLEID	IQUANT	14	Cable ID
DCCALDATE	LABEL	5-7-2017	DC Calibration Date
ACCALDATE	LABEL	12/3/2015	AC Calibration Date
FRAMEWORKVERSION	QUANT	7.01	Framework Version
INSTRUMENTVERSION	LABEL	4.00	Instrument Version
CURVE	TABLE	160
	Pt	T	Vf	Im	Vu	Pwr	Sig	Ach	Temp	IERange	Over
	#	s	V	A	V	W	V	V	deg C	#	bits
	0	0.013333	8.26438E-001	-8.86332E-005	0.00000E+000	-7.32498E-005	-5.39641E-002	8.26623E-001	3.57220E+000	9	...........
	1	0.026667	8.13841E-001	-8.86499E-005	0.00000E+000	-7.21469E-005	-5.39641E-002	8.14016E-001	3.57220E+000	9	...........
	2	0.04	8.02025E-001	-8.84946E-005	0.00000E+000	-7.09749E-005	-5.39641E-002	8.02153E-001	3.57220E+000	9	...........
	3	0.053333	7.90792E-001	-8.87780E-005	0.00000E+000	-7.02050E-005	-5.39641E-002	7.90947E-001	3.57220E+000	9	...........
	4	0.066667	7.80045E-001	-8.88332E-005	0.00000E+000	-6.92939E-005	-5.39641E-002	7.80210E-001	3.57250E+000	9	...........
	5	0.08	7.69776E-001	-8.85936E-005	0.00000E+000	-6.81972E-005	-5.39641E-002	7.69909E-001	3.57250E+000	9	...........
	6	0.093333	7.59846E-001	-8.87509E-005	0.00000E+000	-6.74370E-005	-5.39641E-002	7.59972E-001	3.57250E+000	9	...........
	7	0.106667	7.50257E-001	-8.86248E-005	0.00000E+000	-6.64914E-005	-5.39641E-002	7.50365E-001	3.57250E+000	9	...........
	8	0.12	7.40960E-001	-8.87197E-005	0.00000E+000	-6.57377E-005	-5.39641E-002	7.41065E-001	3.57250E+000	9	...........
	9	0.133333	7.31929E-001	-8.88134E-005	0.00000E+000	-6.50052E-005	-5.39641E-002	7.32044E-001	3.57250E+000	9	...........
	10	0.146667	7.23177E-001	-8.85467E-005	0.00000E+000	-6.40350E-005	-5.39641E-002	7.23268E-001	3.57250E+000	9	...........
	11	0.16	7.14594E-001	-8.86144E-005	0.00000E+000	-6.33234E-005	-5.39641E-002	7.14685E-001	3.57250E+000	9	...........
	12	0.173333	7.06252E-001	-8.86697E-005	0.00000E+000	-6.26232E-005	-5.39641E-002	7.06338E-001	3.57250E+000	9	...........
	13	0.186667	6.98104E-001	-8.85363E-005	0.00000E+000	-6.18076E-005	-5.39641E-002	6.98204E-001	3.57250E+000	9	...........
	14	0.2	6.90119E-001	-8.84133E-005	0.00000E+000	-6.10157E-005	-5.39641E-002	6.90219E-001	3.57250E+000	9	...........
	15	0.213333	6.82342E-001	-8.87259E-005	0.00000E+000	-6.05414E-005	-5.39641E-002	6.82442E-001	3.57250E+000	9	...........
	16	0.226667	6.74708E-001	-8.87499E-005	0.00000E+000	-5.98803E-005	-5.39641E-002	6.74805E-001	3.57250E+000	9	...........
	17	0.24	6.67213E-001	-8.85592E-005	0.00000E+000	-5.90879E-005	-5.39641E-002	6.67314E-001	3.57250E+000	9	...........
	18	0.253333	6.59835E-001	-8.85748E-005	0.00000E+000	-5.84448E-005	-5.39641E-002	6.59938E-001	3.57250E+000	9	...........
	19	0.266667	6.52645E-001	-8.86196E-005	0.00000E+000	-5.78372E-005	-5.39641E-002	6.52721E-001	3.57250E+000	9	...........
	20	0.28	6.45528E-001	-8.89489E-005	0.00000E+000	-5.74189E-005	-5.39641E-002	6.45629E-001	3.57250E+000	9	...........
	21	0.293333	6.38555E-001	-8.87436E-005	0.00000E+000	-5.66677E-005	-5.39641E-002	6.38667E-001	3.57250E+000	9	...........
	22	0.306667	6.31675E-001	-8.87478E-005	0.00000E+000	-5.60597E-005	-5.39641E-002	6.31766E-001	3.57250E+000	9	...........
	23	0.32	6.24910E-001	-8.86999E-005	0.00000E+000	-5.54294E-005	-5.39641E-002	6.24996E-001	3.57250E+000	9	...........
	24	0.333333	6.18272E-001	-8.90030E-005	0.00000E+000	-5.50281E-005	-5.39641E-002	6.18358E-001	3.57250E+000	9	...........
	25	0.346667	6.11661E-001	-8.87811E-005	0.00000E+000	-5.43040E-005	-5.39641E-002	6.11766E-001	3.57250E+000	9	...........
	26	0.36	6.05166E-001	-8.88291E-005	0.00000E+000	-5.37564E-005	-5.39641E-002	6.05282E-001	3.57250E+000	9	...........
	27	0.373333	5.98769E-001	-8.86478E-005	0.00000E+000	-5.30795E-005	-5.39641E-002	5.98878E-001	3.57250E+000	9	...........
	28	0.386667	5.92459E-001	-8.88666E-005	0.00000E+000	-5.26498E-005	-5.39641E-002	5.92567E-001	3.57250E+000	9	...........
	29	0.4	5.86183E-001	-8.87134E-005	0.00000E+000	-5.20023E-005	-5.39641E-002	5.86316E-001	3.57250E+000	9	...........
	30	0.413333	5.80001E-001	-8.86603E-005	0.00000E+000	-5.14230E-005	-5.39641E-002	5.80147E-001	3.57250E+000	9	...........
	31	0.426667	5.73910E-001	-8.86759E-005	0.00000E+000	-5.08920E-005	-5.39641E-002	5.74033E-001	3.57250E+000	9	...........
	32	0.44	5.67863E-001	-8.86030E-005	0.00000E+000	-5.03143E-005	-5.39641E-002	5.67970E-001	3.57250E+000	9	...........
	33	0.453333	5.61869E-001	-8.83165E-005	0.00000E+000	-4.96223E-005	-5.39641E-002	5.62019E-001	3.57250E+000	9	...........
	34	0.466667	5.55921E-001	-8.87259E-005	0.00000E+000	-4.93246E-005	-5.39641E-002	5.56027E-001	3.57250E+000	9	...........
	35	0.48	5.50043E-001	-8.85332E-005	0.00000E+000	-4.86971E-005	-5.39641E-002	5.50157E-001	3.57250E+000	9	...........
	36	0.493333	5.44208E-001	-8.83290E-005	0.00000E+000	-4.80693E-005	-5.39641E-002	5.44331E-001	3.57250E+000	9	...........
	37	0.506667	5.38447E-001	-8.87780E-005	0.00000E+000	-4.78022E-005	-5.39641E-002	5.38557E-001	3.57250E+000	9	...........
	38	0.52	5.32681E-001	-8.87905E-005	0.00000E+000	-4.72970E-005	-5.39641E-002	5.32800E-001	3.57250E+000	9	...........
	39	0.533333	5.27009E-001	-8.86780E-005	0.00000E+000	-4.67341E-005	-5.39641E-002	5.27114E-001	3.57250E+000	9	...........
	40	0.546667	5.21369E-001	-8.88311E-005	0.00000E+000	-4.63138E-005	-5.39641E-002	5.21464E-001	3.57250E+000	9	...........
	41	0.56	5.15780E-001	-8.86738E-005	0.00000E+000	-4.57361E-005	-5.39641E-002	5.15858E-001	3.57250E+000	9	...........
	42	0.573333	5.10172E-001	-8.88457E-005	0.00000E+000	-4.53266E-005	-5.39641E-002	5.10254E-001	3.57250E+000	9	...........
	43	0.586667	5.04580E-001	-8.86113E-005	0.00000E+000	-4.47115E-005	-5.39641E-002	5.04706E-001	3.57250E+000	9	...........
	44	0.6	4.99072E-001	-8.84946E-005	0.00000E+000	-4.41652E-005	-5.39641E-002	4.99179E-001	3.57250E+000	9	...........
	45	0.613333	4.93611E-001	-8.86988E-005	0.00000E+000	-4.37827E-005	-5.39641E-002	4.93701E-001	3.57250E+000	9	...........
	46	0.626667	4.88186E-001	-8.87551E-005	0.00000E+000	-4.33290E-005	-5.39641E-002	4.88276E-001	3.57250E+000	9	...........
	47	0.64	4.82828E-001	-8.87176E-005	0.00000E+000	-4.28353E-005	-5.39641E-002	4.82892E-001	3.57250E+000	9	...........
	48	0.653333	4.77458E-001	-8.88113E-005	0.00000E+000	-4.24037E-005	-5.39641E-002	4.77523E-001	3.57250E+000	9	...........
	49	0.666667	4.72111E-001	-8.85363E-005	0.00000E+000	-4.17990E-005	-5.39641E-002	4.72174E-001	3.57250E+000	9	...........
	50	0.68	4.66798E-001	-8.84696E-005	0.00000E+000	-4.12975E-005	-5.39641E-002	4.66862E-001	3.57250E+000	9	...........
	51	0.693333	4.61497E-001	-8.88166E-005	0.00000E+000	-4.09886E-005	-5.39641E-002	4.61554E-001	3.57250E+000	9	...........
	52	0.706667	4.56220E-001	-8.86426E-005	0.00000E+000	-4.04405E-005	-5.39641E-002	4.56282E-001	3.57250E+000	9	...........
	53	0.72	4.50970E-001	-8.85821E-005	0.00000E+000	-3.99478E-005	-5.39641E-002	4.51030E-001	3.57250E+000	9	...........
	54	0.733333	4.45710E-001	-8.86321E-005	0.00000E+000	-3.95043E-005	-5.39641E-002	4.45766E-001	3.57250E+000	9	...........
	55	0.746667	4.40471E-001	-8.87759E-005	0.00000E+000	-3.91032E-005	-5.39641E-002	4.40532E-001	3.57250E+000	9	...........
	56	0.76	4.35264E-001	-8.88009E-005	0.00000E+000	-3.86518E-005	-5.39641E-002	4.35323E-001	3.57250E+000	9	...........
	57	0.773333	4.30059E-001	-8.87447E-005	0.00000E+000	-3.81655E-005	-5.39641E-002	4.30117E-001	3.57250E+000	9	...........
	58	0.786667	4.24892E-001	-8.87447E-005	0.00000E+000	-3.77069E-005	-5.39641E-002	4.24947E-001	3.57250E+000	9	...........
	59	0.8	4.19763E-001	-8.84196E-005	0.00000E+000	-3.71152E-005	-5.39641E-002	4.19815E-001	3.57250E+000	9	...........
	60	0.813333	4.14648E-001	-8.85134E-005	0.00000E+000	-3.67019E-005	-5.39641E-002	4.14700E-001	3.57250E+000	9	...........
	61	0.826667	4.09543E-001	-8.87593E-005	0.00000E+000	-3.63507E-005	-5.39641E-002	4.09586E-001	3.57250E+000	9	...........
	62	0.84	4.04451E-001	-8.84873E-005	0.00000E+000	-3.57888E-005	-5.39641E-002	4.04493E-001	3.57250E+000	9	...........
	63	0.853333	3.99378E-001	-8.87665E-005	0.00000E+000	-3.54514E-005	-5.39641E-002	3.99424E-001	3.57250E+000	9	...........
	64	0.866667	3.94321E-001	-8.87665E-005	0.00000E+000	-3.50025E-005	-5.39641E-002	3.94366E-001	3.57250E+000	9	...........
	65	0.88	3.89266E-001	-8.86509E-005	0.00000E+000	-3.45088E-005	-5.39641E-002	3.89310E-001	3.57250E+000	9	...........
	66	0.893333	3.84247E-001	-8.89426E-005	0.00000E+000	-3.41759E-005	-5.39641E-002	3.84287E-001	3.57250E+000	9	...........
	67	0.906667	3.79259E-001	-8.86446E-005	0.00000E+000	-3.36193E-005	-5.39641E-002	3.79304E-001	3.57250E+000	9	...........
	68	0.92	3.74278E-001	-8.87936E-005	0.00000E+000	-3.32335E-005	-5.39641E-002	3.74319E-001	3.57250E+000	9	...........
	69	0.933333	3.69307E-001	-8.87853E-005	0.00000E+000	-3.27891E-005	-5.39641E-002	3.69349E-001	3.57250E+000	9	...........
	70	0.946667	3.64362E-001	-8.87113E-005	0.00000E+000	-3.23231E-005	-5.39641E-002	3.64405E-001	3.57250E+000	9	...........
	71	0.96	3.59447E-001	-8.87624E-005	0.00000E+000	-3.19054E-005	-5.39641E-002	3.59488E-001	3.57250E+000	9	...........
	72	0.97333	3.54541E-001	-8.85457E-005	0.00000E+000	-3.13930E-005	-5.39641E-002	3.54576E-001	3.57250E+000	9	...........
	73	0.98667	3.49644E-001	-8.84946E-005	0.00000E+000	-3.09416E-005	-5.39641E-002	3.49683E-001	3.57250E+000	9	...........
	74	1	3.44771E-001	-8.88582E-005	0.00000E+000	-3.06357E-005	-5.39641E-002	3.44810E-001	3.57250E+000	9	...........
	75	1.01333	3.39913E-001	-8.84967E-005	0.00000E+000	-3.00812E-005	-5.39641E-002	3.39958E-001	3.57250E+000	9	...........
	76	1.02667	3.35092E-001	-8.86582E-005	0.00000E+000	-2.97086E-005	-5.39641E-002	3.35130E-001	3.57250E+000	9	...........
	77	1.04	3.30275E-001	-8.89635E-005	0.00000E+000	-2.93824E-005	-5.39641E-002	3.30310E-001	3.57250E+000	9	...........
	78	1.05333	3.25467E-001	-8.87634E-005	0.00000E+000	-2.88896E-005	-5.39641E-002	3.25504E-001	3.57250E+000	9	...........
	79	1.06667	3.20686E-001	-8.85884E-005	0.00000E+000	-2.84091E-005	-5.39641E-002	3.20724E-001	3.57270E+000	9	...........
	80	1.08	3.15940E-001	-8.86061E-005	0.00000E+000	-2.79942E-005	-5.39641E-002	3.15976E-001	3.57270E+000	9	...........
	81	1.09333	3.11224E-001	-8.87249E-005	0.00000E+000	-2.76133E-005	-5.39641E-002	3.11261E-001	3.57270E+000	9	...........
	82	1.10667	3.06508E-001	-8.88468E-005	0.00000E+000	-2.72322E-005	-5.39641E-002	3.06544E-001	3.57270E+000	9	...........
	83	1.12	3.01829E-001	-8.85800E-005	0.00000E+000	-2.67360E-005	-5.39641E-002	3.01865E-001	3.57270E+000	9	...........
	84	1.13333	2.97177E-001	-8.88364E-005	0.00000E+000	-2.64001E-005	-5.39641E-002	2.97208E-001	3.57270E+000	9	...........
	85	1.14667	2.92533E-001	-8.84186E-005	0.00000E+000	-2.58653E-005	-5.39641E-002	2.92571E-001	3.57270E+000	9	...........
	86	1.16	2.87927E-001	-8.87176E-005	0.00000E+000	-2.55442E-005	-5.39641E-002	2.87958E-001	3.57270E+000	9	...........
	87	1.17333	2.83335E-001	-8.85988E-005	0.00000E+000	-2.51031E-005	-5.39641E-002	2.83365E-001	3.57270E+000	9	...........
	88	1.18667	2.78748E-001	-8.85842E-005	0.00000E+000	-2.46926E-005	-5.39641E-002	2.78777E-001	3.57270E+000	9	...........
	89	1.2	2.74176E-001	-8.87082E-005	0.00000E+000	-2.43217E-005	-5.39641E-002	2.74206E-001	3.57270E+000	9	...........
	90	1.21333	2.69647E-001	-8.88530E-005	0.00000E+000	-2.39590E-005	-5.39641E-002	2.69674E-001	3.57270E+000	9	...........
	91	1.22667	2.65127E-001	-8.90020E-005	0.00000E+000	-2.35968E-005	-5.39641E-002	2.65156E-001	3.57270E+000	9	...........
	92	1.24	2.60630E-001	-8.87207E-005	0.00000E+000	-2.31232E-005	-5.39641E-002	2.60654E-001	3.57270E+000	9	...........
	93	1.25333	2.56148E-001	-8.87415E-005	0.00000E+000	-2.27310E-005	-5.39641E-002	2.56178E-001	3.57270E+000	9	...........
	94	1.26667	2.51713E-001	-8.87134E-005	0.00000E+000	-2.23303E-005	-5.39641E-002	2.51741E-001	3.57270E+000	9	...........
	95	1.28	2.47278E-001	-8.88791E-005	0.00000E+000	-2.19778E-005	-5.39641E-002	2.47302E-001	3.57270E+000	9	...........
	96	1.29333	2.42864E-001	-8.85894E-005	0.00000E+000	-2.15151E-005	-5.39641E-002	2.42881E-001	3.57270E+000	9	...........
	97	1.30667	2.38466E-001	-8.87718E-005	0.00000E+000	-2.11690E-005	-5.39641E-002	2.38483E-001	3.57270E+000	9	...........
	98	1.32	2.34097E-001	-8.86238E-005	0.00000E+000	-2.07466E-005	-5.39641E-002	2.34119E-001	3.57270E+000	9	...........
	99	1.33333	2.29752E-001	-8.85196E-005	0.00000E+000	-2.03376E-005	-5.39641E-002	2.29776E-001	3.57270E+000	9	...........
	100	1.34667	2.25403E-001	-8.87124E-005	0.00000E+000	-1.99960E-005	-5.39641E-002	2.25429E-001	3.57270E+000	9	...........
	101	1.36	2.21087E-001	-8.89280E-005	0.00000E+000	-1.96608E-005	-5.39641E-002	2.21110E-001	3.57270E+000	9	...........
	102	1.37333	2.16785E-001	-8.87040E-005	0.00000E+000	-1.92297E-005	-5.39641E-002	2.16804E-001	3.57270E+000	9	...........
	103	1.38667	2.12487E-001	-8.85644E-005	0.00000E+000	-1.88188E-005	-5.39641E-002	2.12508E-001	3.57270E+000	9	...........
	104	1.4	2.08224E-001	-8.88937E-005	0.00000E+000	-1.85098E-005	-5.39641E-002	2.08242E-001	3.57270E+000	9	...........
	105	1.41333	2.03970E-001	-8.89218E-005	0.00000E+000	-1.81373E-005	-5.39641E-002	2.03987E-001	3.57270E+000	9	...........
	106	1.42667	1.99744E-001	-8.87988E-005	0.00000E+000	-1.77370E-005	-5.39641E-002	1.99767E-001	3.57270E+000	9	...........
	107	1.44	1.95540E-001	-8.87405E-005	0.00000E+000	-1.73523E-005	-5.39641E-002	1.95565E-001	3.57270E+000	9	...........
	108	1.45333	1.91368E-001	-8.86155E-005	0.00000E+000	-1.69582E-005	-5.39641E-002	1.91390E-001	3.57270E+000	9	...........
	109	1.46667	1.87214E-001	-8.86123E-005	0.00000E+000	-1.65895E-005	-5.39641E-002	1.87233E-001	3.57270E+000	9	...........
	110	1.48	1.83071E-001	-8.88551E-005	0.00000E+000	-1.62668E-005	-5.39641E-002	1.83093E-001	3.57270E+000	9	...........
	111	1.49333	1.78964E-001	-8.85477E-005	0.00000E+000	-1.58469E-005	-5.39641E-002	1.78983E-001	3.57270E+000	9	...........
	112	1.50667	1.74859E-001	-8.87009E-005	0.00000E+000	-1.55102E-005	-5.39641E-002	1.74882E-001	3.57270E+000	9	...........
	113	1.52	1.70768E-001	-8.88311E-005	0.00000E+000	-1.51696E-005	-5.39641E-002	1.70786E-001	3.57270E+000	9	...........
	114	1.53333	1.66700E-001	-8.88041E-005	0.00000E+000	-1.48037E-005	-5.39641E-002	1.66716E-001	3.57270E+000	9	...........
	115	1.54667	1.62656E-001	-8.88489E-005	0.00000E+000	-1.44518E-005	-5.39641E-002	1.62671E-001	3.57270E+000	9	...........
	116	1.56	1.58617E-001	-8.88864E-005	0.00000E+000	-1.40989E-005	-5.39641E-002	1.58633E-001	3.57270E+000	9	...........
	117	1.57333	1.54613E-001	-8.87207E-005	0.00000E+000	-1.37174E-005	-5.39641E-002	1.54622E-001	3.57270E+000	9	...........
	118	1.58667	1.50613E-001	-8.85550E-005	0.00000E+000	-1.33376E-005	-5.39641E-002	1.50625E-001	3.57270E+000	9	...........
	119	1.6	1.46630E-001	-8.88166E-005	0.00000E+000	-1.30231E-005	-5.39641E-002	1.46639E-001	3.57270E+000	9	...........
	120	1.61333	1.42652E-001	-8.85811E-005	0.00000E+000	-1.26363E-005	-5.39641E-002	1.42661E-001	3.57270E+000	9	...........
	121	1.62667	1.38686E-001	-8.88614E-005	0.00000E+000	-1.23238E-005	-5.39641E-002	1.38696E-001	3.57270E+000	9	...........
	122	1.64	1.34724E-001	-8.86644E-005	0.00000E+000	-1.19453E-005	-5.39641E-002	1.34733E-001	3.57270E+000	9	...........
	123	1.65333	1.30779E-001	-8.87186E-005	0.00000E+000	-1.16025E-005	-5.39641E-002	1.30790E-001	3.57270E+000	9	...........
	124	1.66667	1.26846E-001	-8.86332E-005	0.00000E+000	-1.12428E-005	-5.39641E-002	1.26856E-001	3.57270E+000	9	...........
	125	1.68	1.22936E-001	-8.87488E-005	0.00000E+000	-1.09104E-005	-5.39641E-002	1.22947E-001	3.57270E+000	9	...........
	126	1.69333	1.19057E-001	-8.89187E-005	0.00000E+000	-1.05864E-005	-5.39641E-002	1.19066E-001	3.57270E+000	9	...........
	127	1.70667	1.15198E-001	-8.88228E-005	0.00000E+000	-1.02322E-005	-5.39641E-002	1.15210E-001	3.57270E+000	9	...........
	128	1.72	1.11344E-001	-8.86894E-005	0.00000E+000	-9.87501E-006	-5.39641E-002	1.11354E-001	3.57270E+000	9	...........
	129	1.73333	1.07495E-001	-8.85998E-005	0.00000E+000	-9.52405E-006	-5.39641E-002	1.07503E-001	3.57270E+000	9	...........
	130	1.74667	1.03681E-001	-8.86676E-005	0.00000E+000	-9.19310E-006	-5.39641E-002	1.03689E-001	3.57270E+000	9	...........
	131	1.76	9.98771E-002	-8.88186E-005	0.00000E+000	-8.87095E-006	-5.39641E-002	9.98828E-002	3.57270E+000	9	...........
	132	1.77333	9.60739E-002	-8.89999E-005	0.00000E+000	-8.55057E-006	-5.39641E-002	9.60866E-002	3.57270E+000	9	...........
	133	1.78667	9.22982E-002	-8.88739E-005	0.00000E+000	-8.20289E-006	-5.39641E-002	9.23044E-002	3.57270E+000	9	...........
	134	1.8	8.85372E-002	-8.86217E-005	0.00000E+000	-7.84632E-006	-5.39641E-002	8.85432E-002	3.57270E+000	9	...........
	135	1.81333	8.47966E-002	-8.86769E-005	0.00000E+000	-7.51950E-006	-5.39641E-002	8.48030E-002	3.57270E+000	9	...........
	136	1.82667	8.10777E-002	-8.88697E-005	0.00000E+000	-7.20535E-006	-5.39641E-002	8.10786E-002	3.57270E+000	9	...........
	137	1.84	7.73737E-002	-8.88624E-005	0.00000E+000	-6.87561E-006	-5.39641E-002	7.73730E-002	3.57270E+000	9	...........
	138	1.85333	7.36821E-002	-8.86123E-005	0.00000E+000	-6.52914E-006	-5.39641E-002	7.36791E-002	3.57270E+000	9	...........
	139	1.86667	6.99872E-002	-8.86582E-005	0.00000E+000	-6.20494E-006	-5.39641E-002	6.99899E-002	3.57270E+000	9	...........
	140	1.88	6.63169E-002	-8.87895E-005	0.00000E+000	-5.88824E-006	-5.39641E-002	6.63178E-002	3.57270E+000	9	...........
	141	1.89333	6.26554E-002	-8.85852E-005	0.00000E+000	-5.55035E-006	-5.39641E-002	6.26547E-002	3.57270E+000	9	...........
	142	1.90667	5.90197E-002	-8.88770E-005	0.00000E+000	-5.24549E-006	-5.39641E-002	5.90208E-002	3.57270E+000	9	...........
	143	1.92	5.54047E-002	-8.86582E-005	0.00000E+000	-4.91208E-006	-5.39641E-002	5.53991E-002	3.57270E+000	9	...........
	144	1.93333	5.17778E-002	-8.88238E-005	0.00000E+000	-4.59911E-006	-5.39641E-002	5.17785E-002	3.57270E+000	9	...........
	145	1.94667	4.81675E-002	-8.87780E-005	0.00000E+000	-4.27621E-006	-5.39641E-002	4.81687E-002	3.57270E+000	9	...........
	146	1.96	4.45653E-002	-8.88186E-005	0.00000E+000	-3.95823E-006	-5.39641E-002	4.45751E-002	3.57270E+000	9	...........
	147	1.97333	4.09893E-002	-8.85644E-005	0.00000E+000	-3.63019E-006	-5.39641E-002	4.09908E-002	3.57270E+000	9	...........
	148	1.98667	3.74329E-002	-8.87728E-005	0.00000E+000	-3.32302E-006	-5.39641E-002	3.74359E-002	3.57270E+000	9	...........
	149	2	3.38772E-002	-8.86790E-005	0.00000E+000	-3.00420E-006	-5.39641E-002	3.38801E-002	3.57270E+000	9	...........
	150	2.01333	3.03243E-002	-8.87863E-005	0.00000E+000	-2.69239E-006	-5.39641E-002	3.03251E-002	3.57270E+000	9	...........
	151	2.02667	2.67965E-002	-8.85946E-005	0.00000E+000	-2.37402E-006	-5.39641E-002	2.67943E-002	3.57270E+000	9	...........
	152	2.04	2.32912E-002	-8.88999E-005	0.00000E+000	-2.07058E-006	-5.39641E-002	2.32885E-002	3.57270E+000	9	...........
	153	2.05333	1.98093E-002	-8.87478E-005	0.00000E+000	-1.75803E-006	-5.39641E-002	1.97996E-002	3.57270E+000	9	...........
	154	2.06667	1.63318E-002	-8.86957E-005	0.00000E+000	-1.44856E-006	-5.39641E-002	1.63247E-002	3.57230E+000	9	...........
	155	2.08	1.28829E-002	-8.90041E-005	0.00000E+000	-1.14663E-006	-5.39641E-002	1.28743E-002	3.57230E+000	9	...........
	156	2.09333	9.46008E-003	-8.86363E-005	0.00000E+000	-8.38506E-007	-5.39641E-002	9.45137E-003	3.57230E+000	9	...........
	157	2.10667	6.04181E-003	-8.86749E-005	0.00000E+000	-5.35757E-007	-5.39641E-002	6.02798E-003	3.57230E+000	9	...........
	158	2.12	2.64509E-003	-8.88061E-005	0.00000E+000	-2.34900E-007	-5.39641E-002	2.63511E-003	3.57230E+000	9	...........
	159	2.125	3.24857E-004	-8.88666E-005	0.00000E+000	-2.88689E-008	-5.39641E-002	3.09779E-004	3.57230E+000	9	...........
STARTTIMEOFFSET	QUANT	1000.963	Start Time Offset (s)
