EXPLAIN
TAG	PWR800_DISCHARGE
TITLE	LABEL	PWR Cyclic Charge Discharge (Cell) - Discharge Step	Test &Identifier
DATE	LABEL	10-7-2017	Date
TIME	LABEL	15:02:14	Time
NOTES	NOTES	3	&Notes...
	supercap test cell
	0.9mg
	6M KOH
PSTAT	PSTAT	IFC5000-01520	Potentiostat
CAPACITY	QUANT	1.00000E-003	Capacity (A-hr)
CELLTYPE	SELECTOR	1	&Cell Type
WORKINGCONNECTION	SELECTOR	0	&Working Lead
MAXDISCHARGETIME	VARIABLEANDUNITS	1.00000E+002	s	1.00000E+002	second(s)	Max &Discharge Time
DISCHARGEMODE	MULTIPARAM	0	9.00000E-005	&Discharge Mode	Constant Current	Amp(s)
SAMPLETIME	QUANT	1.00000E-002	Sa&mple Period (s)
DISCHARGESTOPAT1	MULTIPARAM	3	0.00000E+000	Discharge Stop At &1	Voltage < Limit	V
DISCHARGESTOPAT2	MULTIPARAM	0	0.00000E+000	Discharge Stop At &2	None	N/A
AESBHCSELECTOR	TOGGLE	F	Save Both Half Cells
IRCOMP	TOGGLE	F	IR &Measure
EOC	QUANT	0	Open Circuit (V)
SEQUENCER	TOGGLE	TRUE	Run as Sequence
PSTATMODEL	IQUANT	53	Pstat Model
PSTATSECTION	LABEL	IFC5000-01520	Pstat Section
PSTATSERIALNO	LABEL	01520	Pstat Serial Number
CTRLMODE	IQUANT	0	Control Mode
ELECTROMETER	IQUANT	1	RE=0 or CS=1
IESTAB	IQUANT	0	I/E Stability
CASPEED	IQUANT	4	Control Amp Speed
CONVENTION	IQUANT	1	Current Convention
ICHRANGE	IQUANT	2	Ich Range
ICHRANGEMODE	TOGGLE	T	Ich Auto Range
ICHOFFSETENABLE	TOGGLE	F	Ich Offset Enable
ICHOFFSET	QUANT	0	Ich Offset (V)
ICHFILTER	IQUANT	1	Ich Filter
VCHRANGE	IQUANT	2	Vch Range
VCHRANGEMODE	TOGGLE	T	Vch Auto Range
VCHOFFSETENABLE	TOGGLE	F	Vch Offset Enable
VCHOFFSET	QUANT	0	Vch Offset (V)
VCHFILTER	IQUANT	1	Vch Filter
IERANGELOWERLIMIT	IQUANT	9	I/E Range Lower Limit
IERANGEMODE	TOGGLE	F	I/E AutoRange
IERANGE	IQUANT	9	I/E Range
ACHSELECT	IQUANT	1	Ach Select
ACHRANGE	IQUANT	2	Ach Range
ACHOFFSETENABLE	TOGGLE	F	Ach Offset Enable
ACHOFFSET	QUANT	0	Ach Offset (V)
ACHFILTER	IQUANT	1	Ach Filter
CABLEID	IQUANT	14	Cable ID
DCCALDATE	LABEL	5-7-2017	DC Calibration Date
ACCALDATE	LABEL	12/3/2015	AC Calibration Date
FRAMEWORKVERSION	QUANT	7.01	Framework Version
INSTRUMENTVERSION	LABEL	4.00	Instrument Version
CURVE	TABLE	172
	Pt	T	Vf	Im	Vu	Pwr	Sig	Ach	Temp	IERange	Over
	#	s	V	A	V	W	V	V	deg C	#	bits
	0	0.013333	8.50552E-001	-8.85217E-005	0.00000E+000	-7.52923E-005	-5.39641E-002	8.50674E-001	3.57090E+000	9	...........
	1	0.026667	8.39874E-001	-8.85884E-005	0.00000E+000	-7.44031E-005	-5.39641E-002	8.40007E-001	3.57090E+000	9	...........
	2	0.04	8.29794E-001	-8.84144E-005	0.00000E+000	-7.33658E-005	-5.39641E-002	8.29922E-001	3.57090E+000	9	...........
	3	0.053333	8.20173E-001	-8.88353E-005	0.00000E+000	-7.28603E-005	-5.39641E-002	8.20257E-001	3.57090E+000	9	...........
	4	0.066667	8.10812E-001	-8.85290E-005	0.00000E+000	-7.17804E-005	-5.39641E-002	8.10927E-001	3.57090E+000	9	...........
	5	0.08	8.01858E-001	-8.86697E-005	0.00000E+000	-7.11004E-005	-5.39641E-002	8.01930E-001	3.57090E+000	9	...........
	6	0.093333	7.93102E-001	-8.83581E-005	0.00000E+000	-7.00770E-005	-5.39641E-002	7.93189E-001	3.57090E+000	9	...........
	7	0.106667	7.84594E-001	-8.86321E-005	0.00000E+000	-6.95402E-005	-5.39641E-002	7.84656E-001	3.57090E+000	9	...........
	8	0.12	7.76263E-001	-8.86603E-005	0.00000E+000	-6.88237E-005	-5.39641E-002	7.76356E-001	3.57090E+000	9	...........
	9	0.133333	7.68138E-001	-8.84654E-005	0.00000E+000	-6.79536E-005	-5.39641E-002	7.68194E-001	3.57090E+000	9	...........
	10	0.146667	7.60199E-001	-8.87624E-005	0.00000E+000	-6.74770E-005	-5.39641E-002	7.60206E-001	3.57090E+000	9	...........
	11	0.16	7.52358E-001	-8.84706E-005	0.00000E+000	-6.65616E-005	-5.39641E-002	7.52426E-001	3.57090E+000	9	...........
	12	0.173333	7.44738E-001	-8.87530E-005	0.00000E+000	-6.60977E-005	-5.39641E-002	7.44791E-001	3.57090E+000	9	...........
	13	0.186667	7.37209E-001	-8.84092E-005	0.00000E+000	-6.51760E-005	-5.39641E-002	7.37251E-001	3.57090E+000	9	...........
	14	0.2	7.29820E-001	-8.87061E-005	0.00000E+000	-6.47395E-005	-5.39641E-002	7.29879E-001	3.57090E+000	9	...........
	15	0.213333	7.22553E-001	-8.86301E-005	0.00000E+000	-6.40400E-005	-5.39641E-002	7.22600E-001	3.57090E+000	9	...........
	16	0.226667	7.15336E-001	-8.86394E-005	0.00000E+000	-6.34070E-005	-5.39641E-002	7.15406E-001	3.57090E+000	9	...........
	17	0.24	7.08258E-001	-8.85509E-005	0.00000E+000	-6.27169E-005	-5.39641E-002	7.08335E-001	3.57090E+000	9	...........
	18	0.253333	7.01316E-001	-8.85071E-005	0.00000E+000	-6.20714E-005	-5.39641E-002	7.01379E-001	3.57090E+000	9	...........
	19	0.266667	6.94437E-001	-8.85352E-005	0.00000E+000	-6.14821E-005	-5.39641E-002	6.94520E-001	3.57090E+000	9	...........
	20	0.28	6.87646E-001	-8.85571E-005	0.00000E+000	-6.08959E-005	-5.39641E-002	6.87733E-001	3.57090E+000	9	...........
	21	0.293333	6.80966E-001	-8.86957E-005	0.00000E+000	-6.03987E-005	-5.39641E-002	6.81045E-001	3.57090E+000	9	...........
	22	0.306667	6.74346E-001	-8.88332E-005	0.00000E+000	-5.99043E-005	-5.39641E-002	6.74432E-001	3.57090E+000	9	...........
	23	0.32	6.67816E-001	-8.85290E-005	0.00000E+000	-5.91211E-005	-5.39641E-002	6.67878E-001	3.57090E+000	9	...........
	24	0.333333	6.61283E-001	-8.85373E-005	0.00000E+000	-5.85483E-005	-5.39641E-002	6.61352E-001	3.57090E+000	9	...........
	25	0.346667	6.54866E-001	-8.87811E-005	0.00000E+000	-5.81397E-005	-5.39641E-002	6.54942E-001	3.57090E+000	9	...........
	26	0.36	6.48507E-001	-8.85644E-005	0.00000E+000	-5.74347E-005	-5.39641E-002	6.48571E-001	3.57090E+000	9	...........
	27	0.373333	6.42238E-001	-8.88238E-005	0.00000E+000	-5.70460E-005	-5.39641E-002	6.42291E-001	3.57090E+000	9	...........
	28	0.386667	6.35950E-001	-8.87728E-005	0.00000E+000	-5.64551E-005	-5.39641E-002	6.36013E-001	3.57090E+000	9	...........
	29	0.4	6.29793E-001	-8.84769E-005	0.00000E+000	-5.57221E-005	-5.39641E-002	6.29838E-001	3.57090E+000	9	...........
	30	0.413333	6.23688E-001	-8.86540E-005	0.00000E+000	-5.52925E-005	-5.39641E-002	6.23682E-001	3.57090E+000	9	...........
	31	0.426667	6.17620E-001	-8.84717E-005	0.00000E+000	-5.46419E-005	-5.39641E-002	6.17633E-001	3.57090E+000	9	...........
	32	0.44	6.11522E-001	-8.87395E-005	0.00000E+000	-5.42662E-005	-5.39641E-002	6.11592E-001	3.57090E+000	9	...........
	33	0.453333	6.05553E-001	-8.85342E-005	0.00000E+000	-5.36121E-005	-5.39641E-002	6.05620E-001	3.57090E+000	9	...........
	34	0.466667	5.99633E-001	-8.86874E-005	0.00000E+000	-5.31799E-005	-5.39641E-002	5.99680E-001	3.57090E+000	9	...........
	35	0.48	5.93721E-001	-8.82779E-005	0.00000E+000	-5.24124E-005	-5.39641E-002	5.93788E-001	3.57090E+000	9	...........
	36	0.493333	5.87859E-001	-8.86707E-005	0.00000E+000	-5.21258E-005	-5.39641E-002	5.87938E-001	3.57090E+000	9	...........
	37	0.506667	5.82020E-001	-8.86019E-005	0.00000E+000	-5.15681E-005	-5.39641E-002	5.82100E-001	3.57090E+000	9	...........
	38	0.52	5.76216E-001	-8.87113E-005	0.00000E+000	-5.11168E-005	-5.39641E-002	5.76302E-001	3.57090E+000	9	...........
	39	0.533333	5.70449E-001	-8.85811E-005	0.00000E+000	-5.05310E-005	-5.39641E-002	5.70520E-001	3.57090E+000	9	...........
	40	0.546667	5.64710E-001	-8.86467E-005	0.00000E+000	-5.00597E-005	-5.39641E-002	5.64786E-001	3.57090E+000	9	...........
	41	0.56	5.58997E-001	-8.85352E-005	0.00000E+000	-4.94909E-005	-5.39641E-002	5.59075E-001	3.57090E+000	9	...........
	42	0.573333	5.53341E-001	-8.86467E-005	0.00000E+000	-4.90519E-005	-5.39641E-002	5.53427E-001	3.57090E+000	9	...........
	43	0.586667	5.47735E-001	-8.86842E-005	0.00000E+000	-4.85755E-005	-5.39641E-002	5.47801E-001	3.57090E+000	9	...........
	44	0.6	5.42112E-001	-8.84748E-005	0.00000E+000	-4.79632E-005	-5.39641E-002	5.42205E-001	3.57090E+000	9	...........
	45	0.613333	5.36535E-001	-8.85905E-005	0.00000E+000	-4.75319E-005	-5.39641E-002	5.36617E-001	3.57090E+000	9	...........
	46	0.626667	5.30984E-001	-8.85988E-005	0.00000E+000	-4.70445E-005	-5.39641E-002	5.31035E-001	3.57090E+000	9	...........
	47	0.64	5.25467E-001	-8.84884E-005	0.00000E+000	-4.64977E-005	-5.39641E-002	5.25524E-001	3.57090E+000	9	...........
	48	0.653333	5.19967E-001	-8.85602E-005	0.00000E+000	-4.60484E-005	-5.39641E-002	5.19992E-001	3.57090E+000	9	...........
	49	0.666667	5.14480E-001	-8.88447E-005	0.00000E+000	-4.57088E-005	-5.39641E-002	5.14501E-001	3.57090E+000	9	...........
	50	0.68	5.08972E-001	-8.84415E-005	0.00000E+000	-4.50142E-005	-5.39641E-002	5.09040E-001	3.57090E+000	9	...........
	51	0.693333	5.03545E-001	-8.83915E-005	0.00000E+000	-4.45091E-005	-5.39641E-002	5.03610E-001	3.57090E+000	9	...........
	52	0.706667	4.98182E-001	-8.88259E-005	0.00000E+000	-4.42515E-005	-5.39641E-002	4.98239E-001	3.57090E+000	9	...........
	53	0.72	4.92815E-001	-8.84623E-005	0.00000E+000	-4.35955E-005	-5.39641E-002	4.92858E-001	3.57090E+000	9	...........
	54	0.733333	4.87460E-001	-8.84561E-005	0.00000E+000	-4.31188E-005	-5.39641E-002	4.87513E-001	3.57090E+000	9	...........
	55	0.746667	4.82138E-001	-8.86467E-005	0.00000E+000	-4.27399E-005	-5.39641E-002	4.82188E-001	3.57090E+000	9	...........
	56	0.76	4.76811E-001	-8.85134E-005	0.00000E+000	-4.22041E-005	-5.39641E-002	4.76858E-001	3.57090E+000	9	...........
	57	0.773333	4.71512E-001	-8.85050E-005	0.00000E+000	-4.17312E-005	-5.39641E-002	4.71557E-001	3.57090E+000	9	...........
	58	0.786667	4.66246E-001	-8.86353E-005	0.00000E+000	-4.13259E-005	-5.39641E-002	4.66289E-001	3.57090E+000	9	...........
	59	0.8	4.60994E-001	-8.85352E-005	0.00000E+000	-4.08142E-005	-5.39641E-002	4.61035E-001	3.57090E+000	9	...........
	60	0.813333	4.55777E-001	-8.85352E-005	0.00000E+000	-4.03523E-005	-5.39641E-002	4.55817E-001	3.57090E+000	9	...........
	61	0.826667	4.50565E-001	-8.83904E-005	0.00000E+000	-3.98257E-005	-5.39641E-002	4.50611E-001	3.57090E+000	9	...........
	62	0.84	4.45376E-001	-8.86707E-005	0.00000E+000	-3.94918E-005	-5.39641E-002	4.45416E-001	3.57090E+000	9	...........
	63	0.853333	4.40234E-001	-8.84998E-005	0.00000E+000	-3.89606E-005	-5.39641E-002	4.40277E-001	3.57090E+000	9	...........
	64	0.866667	4.35099E-001	-8.87488E-005	0.00000E+000	-3.86145E-005	-5.39641E-002	4.35142E-001	3.57090E+000	9	...........
	65	0.88	4.29982E-001	-8.87155E-005	0.00000E+000	-3.81461E-005	-5.39641E-002	4.30021E-001	3.57090E+000	9	...........
	66	0.893333	4.24883E-001	-8.86123E-005	0.00000E+000	-3.76499E-005	-5.39641E-002	4.24925E-001	3.57090E+000	9	...........
	67	0.906667	4.19814E-001	-8.86790E-005	0.00000E+000	-3.72287E-005	-5.39641E-002	4.19852E-001	3.57090E+000	9	...........
	68	0.92	4.14776E-001	-8.86426E-005	0.00000E+000	-3.67668E-005	-5.39641E-002	4.14811E-001	3.57090E+000	9	...........
	69	0.933333	4.09781E-001	-8.87467E-005	0.00000E+000	-3.63667E-005	-5.39641E-002	4.09806E-001	3.57090E+000	9	...........
	70	0.946667	4.04791E-001	-8.87342E-005	0.00000E+000	-3.59188E-005	-5.39641E-002	4.04822E-001	3.57090E+000	9	...........
	71	0.96	3.99817E-001	-8.87280E-005	0.00000E+000	-3.54749E-005	-5.39641E-002	3.99841E-001	3.57090E+000	9	...........
	72	0.97333	3.94861E-001	-8.86009E-005	0.00000E+000	-3.49851E-005	-5.39641E-002	3.94889E-001	3.57090E+000	9	...........
	73	0.98667	3.89929E-001	-8.85727E-005	0.00000E+000	-3.45371E-005	-5.39641E-002	3.89961E-001	3.57090E+000	9	...........
	74	1	3.85025E-001	-8.87551E-005	0.00000E+000	-3.41729E-005	-5.39641E-002	3.85054E-001	3.57090E+000	9	...........
	75	1.01333	3.80143E-001	-8.86301E-005	0.00000E+000	-3.36921E-005	-5.39641E-002	3.80170E-001	3.57090E+000	9	...........
	76	1.02667	3.75297E-001	-8.85727E-005	0.00000E+000	-3.32411E-005	-5.39641E-002	3.75320E-001	3.57090E+000	9	...........
	77	1.04	3.70473E-001	-8.85332E-005	0.00000E+000	-3.27991E-005	-5.39641E-002	3.70500E-001	3.57090E+000	9	...........
	78	1.05333	3.65664E-001	-8.84425E-005	0.00000E+000	-3.23403E-005	-5.39641E-002	3.65695E-001	3.57090E+000	9	...........
	79	1.06667	3.60889E-001	-8.87665E-005	0.00000E+000	-3.20349E-005	-5.39641E-002	3.60919E-001	3.57090E+000	9	...........
	80	1.08	3.56128E-001	-8.87759E-005	0.00000E+000	-3.16156E-005	-5.39641E-002	3.56157E-001	3.57090E+000	9	...........
	81	1.09333	3.51401E-001	-8.85978E-005	0.00000E+000	-3.11334E-005	-5.39641E-002	3.51432E-001	3.57090E+000	9	...........
	82	1.10667	3.46693E-001	-8.82987E-005	0.00000E+000	-3.06125E-005	-5.39641E-002	3.46724E-001	3.57090E+000	9	...........
	83	1.12	3.41997E-001	-8.84925E-005	0.00000E+000	-3.02642E-005	-5.39641E-002	3.42025E-001	3.57090E+000	9	...........
	84	1.13333	3.37334E-001	-8.85071E-005	0.00000E+000	-2.98564E-005	-5.39641E-002	3.37365E-001	3.57090E+000	9	...........
	85	1.14667	3.32692E-001	-8.88395E-005	0.00000E+000	-2.95562E-005	-5.39641E-002	3.32725E-001	3.57090E+000	9	...........
	86	1.16	3.28080E-001	-8.86373E-005	0.00000E+000	-2.90801E-005	-5.39641E-002	3.28104E-001	3.57090E+000	9	...........
	87	1.17333	3.23495E-001	-8.84654E-005	0.00000E+000	-2.86181E-005	-5.39641E-002	3.23520E-001	3.57090E+000	9	...........
	88	1.18667	3.18925E-001	-8.84436E-005	0.00000E+000	-2.82068E-005	-5.39641E-002	3.18949E-001	3.57090E+000	9	...........
	89	1.2	3.14374E-001	-8.85519E-005	0.00000E+000	-2.78384E-005	-5.39641E-002	3.14404E-001	3.57090E+000	9	...........
	90	1.21333	3.09859E-001	-8.84227E-005	0.00000E+000	-2.73986E-005	-5.39641E-002	3.09880E-001	3.57090E+000	9	...........
	91	1.22667	3.05361E-001	-8.86592E-005	0.00000E+000	-2.70730E-005	-5.39641E-002	3.05382E-001	3.57090E+000	9	...........
	92	1.24	3.00862E-001	-8.85967E-005	0.00000E+000	-2.66554E-005	-5.39641E-002	3.00887E-001	3.57090E+000	9	...........
	93	1.25333	2.96399E-001	-8.88728E-005	0.00000E+000	-2.63418E-005	-5.39641E-002	2.96424E-001	3.57090E+000	9	...........
	94	1.26667	2.91958E-001	-8.86384E-005	0.00000E+000	-2.58787E-005	-5.39641E-002	2.91983E-001	3.57090E+000	9	...........
	95	1.28	2.87534E-001	-8.85155E-005	0.00000E+000	-2.54512E-005	-5.39641E-002	2.87563E-001	3.57090E+000	9	...........
	96	1.29333	2.83141E-001	-8.85717E-005	0.00000E+000	-2.50783E-005	-5.39641E-002	2.83167E-001	3.57090E+000	9	...........
	97	1.30667	2.78769E-001	-8.85592E-005	0.00000E+000	-2.46876E-005	-5.39641E-002	2.78799E-001	3.57090E+000	9	...........
	98	1.32	2.74424E-001	-8.84946E-005	0.00000E+000	-2.42851E-005	-5.39641E-002	2.74455E-001	3.57090E+000	9	...........
	99	1.33333	2.70097E-001	-8.88541E-005	0.00000E+000	-2.39992E-005	-5.39641E-002	2.70126E-001	3.57090E+000	9	...........
	100	1.34667	2.65793E-001	-8.86092E-005	0.00000E+000	-2.35517E-005	-5.39641E-002	2.65819E-001	3.57090E+000	9	...........
	101	1.36	2.61507E-001	-8.86519E-005	0.00000E+000	-2.31831E-005	-5.39641E-002	2.61530E-001	3.57090E+000	9	...........
	102	1.37333	2.57236E-001	-8.85925E-005	0.00000E+000	-2.27892E-005	-5.39641E-002	2.57254E-001	3.57090E+000	9	...........
	103	1.38667	2.52982E-001	-8.86405E-005	0.00000E+000	-2.24245E-005	-5.39641E-002	2.53006E-001	3.57090E+000	9	...........
	104	1.4	2.48756E-001	-8.87186E-005	0.00000E+000	-2.20693E-005	-5.39641E-002	2.48774E-001	3.57090E+000	9	...........
	105	1.41333	2.44532E-001	-8.85998E-005	0.00000E+000	-2.16655E-005	-5.39641E-002	2.44552E-001	3.57090E+000	9	...........
	106	1.42667	2.40332E-001	-8.84383E-005	0.00000E+000	-2.12545E-005	-5.39641E-002	2.40353E-001	3.57090E+000	9	...........
	107	1.44	2.36148E-001	-8.86603E-005	0.00000E+000	-2.09370E-005	-5.39641E-002	2.36168E-001	3.57090E+000	9	...........
	108	1.45333	2.31980E-001	-8.87572E-005	0.00000E+000	-2.05899E-005	-5.39641E-002	2.31996E-001	3.57090E+000	9	...........
	109	1.46667	2.27833E-001	-8.84665E-005	0.00000E+000	-2.01556E-005	-5.39641E-002	2.27847E-001	3.57090E+000	9	...........
	110	1.48	2.23724E-001	-8.84884E-005	0.00000E+000	-1.97970E-005	-5.39641E-002	2.23739E-001	3.57090E+000	9	...........
	111	1.49333	2.19636E-001	-8.84821E-005	0.00000E+000	-1.94338E-005	-5.39641E-002	2.19648E-001	3.57090E+000	9	...........
	112	1.50667	2.15554E-001	-8.84706E-005	0.00000E+000	-1.90702E-005	-5.39641E-002	2.15566E-001	3.57090E+000	9	...........
	113	1.52	2.11456E-001	-8.83602E-005	0.00000E+000	-1.86843E-005	-5.39641E-002	2.11471E-001	3.57090E+000	9	...........
	114	1.53333	2.07400E-001	-8.86478E-005	0.00000E+000	-1.83855E-005	-5.39641E-002	2.07410E-001	3.57090E+000	9	...........
	115	1.54667	2.03352E-001	-8.85550E-005	0.00000E+000	-1.80078E-005	-5.39641E-002	2.03370E-001	3.57090E+000	9	...........
	116	1.56	1.99313E-001	-8.88145E-005	0.00000E+000	-1.77019E-005	-5.39641E-002	1.99329E-001	3.57090E+000	9	...........
	117	1.57333	1.95305E-001	-8.86842E-005	0.00000E+000	-1.73205E-005	-5.39641E-002	1.95317E-001	3.57090E+000	9	...........
	118	1.58667	1.91322E-001	-8.87217E-005	0.00000E+000	-1.69744E-005	-5.39641E-002	1.91336E-001	3.57090E+000	9	...........
	119	1.6	1.87339E-001	-8.85613E-005	0.00000E+000	-1.65910E-005	-5.39641E-002	1.87358E-001	3.57090E+000	9	...........
	120	1.61333	1.83391E-001	-8.86311E-005	0.00000E+000	-1.62542E-005	-5.39641E-002	1.83408E-001	3.57090E+000	9	...........
	121	1.62667	1.79457E-001	-8.84342E-005	0.00000E+000	-1.58701E-005	-5.39641E-002	1.79467E-001	3.57090E+000	9	...........
	122	1.64	1.75513E-001	-8.84884E-005	0.00000E+000	-1.55308E-005	-5.39641E-002	1.75526E-001	3.57090E+000	9	...........
	123	1.65333	1.71601E-001	-8.85623E-005	0.00000E+000	-1.51974E-005	-5.39641E-002	1.71610E-001	3.57090E+000	9	...........
	124	1.66667	1.67704E-001	-8.84852E-005	0.00000E+000	-1.48393E-005	-5.39641E-002	1.67714E-001	3.57090E+000	9	...........
	125	1.68	1.63812E-001	-8.85540E-005	0.00000E+000	-1.45062E-005	-5.39641E-002	1.63823E-001	3.57090E+000	9	...........
	126	1.69333	1.59931E-001	-8.86707E-005	0.00000E+000	-1.41812E-005	-5.39641E-002	1.59943E-001	3.57090E+000	9	...........
	127	1.70667	1.56073E-001	-8.84602E-005	0.00000E+000	-1.38063E-005	-5.39641E-002	1.56080E-001	3.57090E+000	9	...........
	128	1.72	1.52222E-001	-8.86217E-005	0.00000E+000	-1.34902E-005	-5.39641E-002	1.52232E-001	3.57090E+000	9	...........
	129	1.73333	1.48388E-001	-8.87217E-005	0.00000E+000	-1.31652E-005	-5.39641E-002	1.48393E-001	3.57090E+000	9	...........
	130	1.74667	1.44572E-001	-8.90020E-005	0.00000E+000	-1.28672E-005	-5.39641E-002	1.44576E-001	3.57090E+000	9	...........
	131	1.76	1.40773E-001	-8.86571E-005	0.00000E+000	-1.24805E-005	-5.39641E-002	1.40779E-001	3.57090E+000	9	...........
	132	1.77333	1.36984E-001	-8.84706E-005	0.00000E+000	-1.21191E-005	-5.39641E-002	1.36998E-001	3.57090E+000	9	...........
	133	1.78667	1.33218E-001	-8.88395E-005	0.00000E+000	-1.18350E-005	-5.39641E-002	1.33224E-001	3.57090E+000	9	...........
	134	1.8	1.29455E-001	-8.83425E-005	0.00000E+000	-1.14364E-005	-5.39641E-002	1.29464E-001	3.57090E+000	9	...........
	135	1.81333	1.25702E-001	-8.89770E-005	0.00000E+000	-1.11846E-005	-5.39641E-002	1.25712E-001	3.57090E+000	9	...........
	136	1.82667	1.21961E-001	-8.86624E-005	0.00000E+000	-1.08133E-005	-5.39641E-002	1.21969E-001	3.57090E+000	9	...........
	137	1.84	1.18236E-001	-8.87415E-005	0.00000E+000	-1.04924E-005	-5.39641E-002	1.18244E-001	3.57090E+000	9	...........
	138	1.85333	1.14525E-001	-8.83550E-005	0.00000E+000	-1.01188E-005	-5.39641E-002	1.14525E-001	3.57090E+000	9	...........
	139	1.86667	1.10823E-001	-8.86551E-005	0.00000E+000	-9.82500E-006	-5.39641E-002	1.10826E-001	3.57090E+000	9	...........
	140	1.88	1.07149E-001	-8.85363E-005	0.00000E+000	-9.48658E-006	-5.39641E-002	1.07154E-001	3.57090E+000	9	...........
	141	1.89333	1.03474E-001	-8.83831E-005	0.00000E+000	-9.14537E-006	-5.39641E-002	1.03478E-001	3.57090E+000	9	...........
	142	1.90667	9.98125E-002	-8.85769E-005	0.00000E+000	-8.84108E-006	-5.39641E-002	9.98105E-002	3.57090E+000	9	...........
	143	1.92	9.61649E-002	-8.87332E-005	0.00000E+000	-8.53302E-006	-5.39641E-002	9.61669E-002	3.57090E+000	9	...........
	144	1.93333	9.25361E-002	-8.85686E-005	0.00000E+000	-8.19579E-006	-5.39641E-002	9.25382E-002	3.57090E+000	9	...........
	145	1.94667	8.89175E-002	-8.85592E-005	0.00000E+000	-7.87446E-006	-5.39641E-002	8.89232E-002	3.57090E+000	9	...........
	146	1.96	8.53072E-002	-8.82946E-005	0.00000E+000	-7.53216E-006	-5.39641E-002	8.53157E-002	3.57090E+000	9	...........
	147	1.97333	8.17253E-002	-8.83779E-005	0.00000E+000	-7.22271E-006	-5.39641E-002	8.17214E-002	3.57090E+000	9	...........
	148	1.98667	7.81635E-002	-8.88030E-005	0.00000E+000	-6.94115E-006	-5.39641E-002	7.81606E-002	3.57090E+000	9	...........
	149	2	7.45943E-002	-8.82195E-005	0.00000E+000	-6.58068E-006	-5.39641E-002	7.45978E-002	3.57090E+000	9	...........
	150	2.01333	7.10646E-002	-8.83394E-005	0.00000E+000	-6.27780E-006	-5.39641E-002	7.10582E-002	3.57090E+000	9	...........
	151	2.02667	6.75650E-002	-8.84717E-005	0.00000E+000	-5.97759E-006	-5.39641E-002	6.75606E-002	3.57090E+000	9	...........
	152	2.04	6.40698E-002	-8.85196E-005	0.00000E+000	-5.67143E-006	-5.39641E-002	6.40693E-002	3.57090E+000	9	...........
	153	2.05333	6.05724E-002	-8.86957E-005	0.00000E+000	-5.37251E-006	-5.39641E-002	6.05720E-002	3.57090E+000	9	...........
	154	2.06667	5.71076E-002	-8.87488E-005	0.00000E+000	-5.06823E-006	-5.39641E-002	5.70991E-002	3.57090E+000	9	...........
	155	2.08	5.36499E-002	-8.85311E-005	0.00000E+000	-4.74968E-006	-5.39641E-002	5.36453E-002	3.57090E+000	9	...........
	156	2.09333	5.01979E-002	-8.85446E-005	0.00000E+000	-4.44475E-006	-5.39641E-002	5.01878E-002	3.57090E+000	9	...........
	157	2.10667	4.67503E-002	-8.85800E-005	0.00000E+000	-4.14114E-006	-5.39641E-002	4.67579E-002	3.57090E+000	9	...........
	158	2.12	4.33338E-002	-8.86957E-005	0.00000E+000	-3.84352E-006	-5.39641E-002	4.33372E-002	3.57090E+000	9	...........
	159	2.13333	3.99245E-002	-8.85571E-005	0.00000E+000	-3.53560E-006	-5.39641E-002	3.99332E-002	3.57090E+000	9	...........
	160	2.14667	3.65318E-002	-8.86905E-005	0.00000E+000	-3.24003E-006	-5.39641E-002	3.65374E-002	3.57090E+000	9	...........
	161	2.16	3.31552E-002	-8.84519E-005	0.00000E+000	-2.93264E-006	-5.39641E-002	3.31561E-002	3.57090E+000	9	...........
	162	2.17333	2.98141E-002	-8.88843E-005	0.00000E+000	-2.65001E-006	-5.39641E-002	2.98129E-002	3.57090E+000	9	...........
	163	2.18667	2.65067E-002	-8.87572E-005	0.00000E+000	-2.35266E-006	-5.39641E-002	2.65034E-002	3.57090E+000	9	...........
	164	2.2	2.32181E-002	-8.85029E-005	0.00000E+000	-2.05487E-006	-5.39641E-002	2.32122E-002	3.57090E+000	9	...........
	165	2.21333	1.99352E-002	-8.86196E-005	0.00000E+000	-1.76665E-006	-5.39641E-002	1.99257E-002	3.57090E+000	9	...........
	166	2.22667	1.66957E-002	-8.85863E-005	0.00000E+000	-1.47901E-006	-5.39641E-002	1.66873E-002	3.57090E+000	9	...........
	167	2.24	1.34845E-002	-8.84467E-005	0.00000E+000	-1.19266E-006	-5.39641E-002	1.34804E-002	3.57090E+000	9	...........
	168	2.25333	1.02881E-002	-8.86926E-005	0.00000E+000	-9.12477E-007	-5.39641E-002	1.02771E-002	3.57090E+000	9	...........
	169	2.26667	7.10326E-003	-8.84081E-005	0.00000E+000	-6.27986E-007	-5.39641E-002	7.09276E-003	3.57090E+000	9	...........
	170	2.28	3.92781E-003	-8.84456E-005	0.00000E+000	-3.47397E-007	-5.39641E-002	3.91447E-003	3.57090E+000	9	...........
	171	2.29167	9.86524E-004	-8.84808E-005	0.00000E+000	-8.72884E-008	-5.39641E-002	9.70770E-004	3.57090E+000	9	...........
STARTTIMEOFFSET	QUANT	150.745	Start Time Offset (s)
