EXPLAIN
TAG	PWR800_DISCHARGE
TITLE	LABEL	PWR Cyclic Charge Discharge (Cell) - Discharge Step	Test &Identifier
DATE	LABEL	10-7-2017	Date
TIME	LABEL	15:47:08	Time
NOTES	NOTES	3	&Notes...
	supercap test cell
	0.9mg
	6M KOH
PSTAT	PSTAT	IFC5000-01520	Potentiostat
CAPACITY	QUANT	1.00000E-003	Capacity (A-hr)
CELLTYPE	SELECTOR	1	&Cell Type
WORKINGCONNECTION	SELECTOR	0	&Working Lead
MAXDISCHARGETIME	VARIABLEANDUNITS	1.00000E+002	s	1.00000E+002	second(s)	Max &Discharge Time
DISCHARGEMODE	MULTIPARAM	0	9.00000E-005	&Discharge Mode	Constant Current	Amp(s)
SAMPLETIME	QUANT	1.00000E-002	Sa&mple Period (s)
DISCHARGESTOPAT1	MULTIPARAM	3	0.00000E+000	Discharge Stop At &1	Voltage < Limit	V
DISCHARGESTOPAT2	MULTIPARAM	0	0.00000E+000	Discharge Stop At &2	None	N/A
AESBHCSELECTOR	TOGGLE	F	Save Both Half Cells
IRCOMP	TOGGLE	F	IR &Measure
EOC	QUANT	0	Open Circuit (V)
SEQUENCER	TOGGLE	TRUE	Run as Sequence
PSTATMODEL	IQUANT	53	Pstat Model
PSTATSECTION	LABEL	IFC5000-01520	Pstat Section
PSTATSERIALNO	LABEL	01520	Pstat Serial Number
CTRLMODE	IQUANT	0	Control Mode
ELECTROMETER	IQUANT	1	RE=0 or CS=1
IESTAB	IQUANT	0	I/E Stability
CASPEED	IQUANT	4	Control Amp Speed
CONVENTION	IQUANT	1	Current Convention
ICHRANGE	IQUANT	2	Ich Range
ICHRANGEMODE	TOGGLE	T	Ich Auto Range
ICHOFFSETENABLE	TOGGLE	F	Ich Offset Enable
ICHOFFSET	QUANT	0	Ich Offset (V)
ICHFILTER	IQUANT	1	Ich Filter
VCHRANGE	IQUANT	2	Vch Range
VCHRANGEMODE	TOGGLE	T	Vch Auto Range
VCHOFFSETENABLE	TOGGLE	F	Vch Offset Enable
VCHOFFSET	QUANT	0	Vch Offset (V)
VCHFILTER	IQUANT	1	Vch Filter
IERANGELOWERLIMIT	IQUANT	9	I/E Range Lower Limit
IERANGEMODE	TOGGLE	F	I/E AutoRange
IERANGE	IQUANT	9	I/E Range
ACHSELECT	IQUANT	1	Ach Select
ACHRANGE	IQUANT	2	Ach Range
ACHOFFSETENABLE	TOGGLE	F	Ach Offset Enable
ACHOFFSET	QUANT	0	Ach Offset (V)
ACHFILTER	IQUANT	1	Ach Filter
CABLEID	IQUANT	14	Cable ID
DCCALDATE	LABEL	5-7-2017	DC Calibration Date
ACCALDATE	LABEL	12/3/2015	AC Calibration Date
FRAMEWORKVERSION	QUANT	7.01	Framework Version
INSTRUMENTVERSION	LABEL	4.00	Instrument Version
CURVE	TABLE	151
	Pt	T	Vf	Im	Vu	Pwr	Sig	Ach	Temp	IERange	Over
	#	s	V	A	V	W	V	V	deg C	#	bits
	0	0.013333	8.10441E-001	-8.87301E-005	0.00000E+000	-7.19105E-005	-5.39641E-002	8.10590E-001	3.57340E+000	9	...........
	1	0.026667	7.96793E-001	-8.88093E-005	0.00000E+000	-7.07626E-005	-5.39641E-002	7.96907E-001	3.57340E+000	9	...........
	2	0.04	7.84022E-001	-8.87843E-005	0.00000E+000	-6.96088E-005	-5.39641E-002	7.84155E-001	3.57340E+000	9	...........
	3	0.053333	7.71971E-001	-8.85748E-005	0.00000E+000	-6.83772E-005	-5.39641E-002	7.72117E-001	3.57340E+000	9	...........
	4	0.066667	7.60519E-001	-8.85175E-005	0.00000E+000	-6.73192E-005	-5.39641E-002	7.60627E-001	3.57340E+000	9	...........
	5	0.08	7.49545E-001	-8.84873E-005	0.00000E+000	-6.63252E-005	-5.39641E-002	7.49680E-001	3.57340E+000	9	...........
	6	0.093333	7.39027E-001	-8.89989E-005	0.00000E+000	-6.57726E-005	-5.39641E-002	7.39173E-001	3.57340E+000	9	...........
	7	0.106667	7.28923E-001	-8.88218E-005	0.00000E+000	-6.47443E-005	-5.39641E-002	7.29038E-001	3.57340E+000	9	...........
	8	0.12	7.19138E-001	-8.88582E-005	0.00000E+000	-6.39014E-005	-5.39641E-002	7.19290E-001	3.57340E+000	9	...........
	9	0.133333	7.09644E-001	-8.88166E-005	0.00000E+000	-6.30281E-005	-5.39641E-002	7.09801E-001	3.57340E+000	9	...........
	10	0.146667	7.00495E-001	-8.86894E-005	0.00000E+000	-6.21265E-005	-5.39641E-002	7.00631E-001	3.57340E+000	9	...........
	11	0.16	6.91586E-001	-8.89395E-005	0.00000E+000	-6.15093E-005	-5.39641E-002	6.91727E-001	3.57340E+000	9	...........
	12	0.173333	6.82903E-001	-8.87926E-005	0.00000E+000	-6.06367E-005	-5.39641E-002	6.83052E-001	3.57340E+000	9	...........
	13	0.186667	6.74474E-001	-8.86634E-005	0.00000E+000	-5.98012E-005	-5.39641E-002	6.74602E-001	3.57340E+000	9	...........
	14	0.2	6.66228E-001	-8.86665E-005	0.00000E+000	-5.90721E-005	-5.39641E-002	6.66384E-001	3.57340E+000	9	...........
	15	0.213333	6.58195E-001	-8.86697E-005	0.00000E+000	-5.83619E-005	-5.39641E-002	6.58299E-001	3.57340E+000	9	...........
	16	0.226667	6.50302E-001	-8.88436E-005	0.00000E+000	-5.77752E-005	-5.39641E-002	6.50432E-001	3.57340E+000	9	...........
	17	0.24	6.42606E-001	-8.88999E-005	0.00000E+000	-5.71276E-005	-5.39641E-002	6.42718E-001	3.57340E+000	9	...........
	18	0.253333	6.35012E-001	-8.85238E-005	0.00000E+000	-5.62137E-005	-5.39641E-002	6.35136E-001	3.57340E+000	9	...........
	19	0.266667	6.27655E-001	-8.87530E-005	0.00000E+000	-5.57062E-005	-5.39641E-002	6.27777E-001	3.57340E+000	9	...........
	20	0.28	6.20399E-001	-8.88259E-005	0.00000E+000	-5.51076E-005	-5.39641E-002	6.20513E-001	3.57340E+000	9	...........
	21	0.293333	6.13236E-001	-8.88009E-005	0.00000E+000	-5.44559E-005	-5.39641E-002	6.13361E-001	3.57340E+000	9	...........
	22	0.306667	6.06236E-001	-8.86384E-005	0.00000E+000	-5.37357E-005	-5.39641E-002	6.06340E-001	3.57340E+000	9	...........
	23	0.32	5.99360E-001	-8.89322E-005	0.00000E+000	-5.33024E-005	-5.39641E-002	5.99440E-001	3.57340E+000	9	...........
	24	0.333333	5.92583E-001	-8.88416E-005	0.00000E+000	-5.26460E-005	-5.39641E-002	5.92677E-001	3.57340E+000	9	...........
	25	0.346667	5.85907E-001	-8.88134E-005	0.00000E+000	-5.20364E-005	-5.39641E-002	5.85992E-001	3.57340E+000	9	...........
	26	0.36	5.79328E-001	-8.89718E-005	0.00000E+000	-5.15439E-005	-5.39641E-002	5.79418E-001	3.57340E+000	9	...........
	27	0.373333	5.72864E-001	-8.88259E-005	0.00000E+000	-5.08852E-005	-5.39641E-002	5.72922E-001	3.57340E+000	9	...........
	28	0.386667	5.66493E-001	-8.86634E-005	0.00000E+000	-5.02272E-005	-5.39641E-002	5.66552E-001	3.57340E+000	9	...........
	29	0.4	5.60127E-001	-8.89082E-005	0.00000E+000	-4.97999E-005	-5.39641E-002	5.60210E-001	3.57340E+000	9	...........
	30	0.413333	5.53912E-001	-8.84300E-005	0.00000E+000	-4.89825E-005	-5.39641E-002	5.53985E-001	3.57340E+000	9	...........
	31	0.426667	5.47753E-001	-8.85467E-005	0.00000E+000	-4.85017E-005	-5.39641E-002	5.47830E-001	3.57340E+000	9	...........
	32	0.44	5.41670E-001	-8.86519E-005	0.00000E+000	-4.80201E-005	-5.39641E-002	5.41745E-001	3.57340E+000	9	...........
	33	0.453333	5.35621E-001	-8.84561E-005	0.00000E+000	-4.73789E-005	-5.39641E-002	5.35707E-001	3.57340E+000	9	...........
	34	0.466667	5.29648E-001	-8.87457E-005	0.00000E+000	-4.70040E-005	-5.39641E-002	5.29765E-001	3.57340E+000	9	...........
	35	0.48	5.23753E-001	-8.86790E-005	0.00000E+000	-4.64459E-005	-5.39641E-002	5.23874E-001	3.57340E+000	9	...........
	36	0.493333	5.17922E-001	-8.90426E-005	0.00000E+000	-4.61171E-005	-5.39641E-002	5.18043E-001	3.57340E+000	9	...........
	37	0.506667	5.12107E-001	-8.85196E-005	0.00000E+000	-4.53315E-005	-5.39641E-002	5.12246E-001	3.57340E+000	9	...........
	38	0.52	5.06322E-001	-8.86540E-005	0.00000E+000	-4.48875E-005	-5.39641E-002	5.06466E-001	3.57340E+000	9	...........
	39	0.533333	5.00616E-001	-8.88353E-005	0.00000E+000	-4.44724E-005	-5.39641E-002	5.00744E-001	3.57340E+000	9	...........
	40	0.546667	4.94977E-001	-8.88718E-005	0.00000E+000	-4.39895E-005	-5.39641E-002	4.95093E-001	3.57340E+000	9	...........
	41	0.56	4.89371E-001	-8.87072E-005	0.00000E+000	-4.34107E-005	-5.39641E-002	4.89500E-001	3.57340E+000	9	...........
	42	0.573333	4.83902E-001	-8.88520E-005	0.00000E+000	-4.29956E-005	-5.39641E-002	4.83972E-001	3.57340E+000	9	...........
	43	0.586667	4.78406E-001	-8.88864E-005	0.00000E+000	-4.25237E-005	-5.39641E-002	4.78474E-001	3.57340E+000	9	...........
	44	0.6	4.72932E-001	-8.88957E-005	0.00000E+000	-4.20416E-005	-5.39641E-002	4.72992E-001	3.57340E+000	9	...........
	45	0.613333	4.67481E-001	-8.86113E-005	0.00000E+000	-4.14241E-005	-5.39641E-002	4.67543E-001	3.57340E+000	9	...........
	46	0.626667	4.62060E-001	-8.87467E-005	0.00000E+000	-4.10064E-005	-5.39641E-002	4.62124E-001	3.57340E+000	9	...........
	47	0.64	4.56676E-001	-8.90124E-005	0.00000E+000	-4.06499E-005	-5.39641E-002	4.56740E-001	3.57340E+000	9	...........
	48	0.653333	4.51334E-001	-8.89239E-005	0.00000E+000	-4.01343E-005	-5.39641E-002	4.51393E-001	3.57340E+000	9	...........
	49	0.666667	4.46018E-001	-8.90301E-005	0.00000E+000	-3.97090E-005	-5.39641E-002	4.46081E-001	3.57340E+000	9	...........
	50	0.68	4.40727E-001	-8.87467E-005	0.00000E+000	-3.91131E-005	-5.39641E-002	4.40789E-001	3.57340E+000	9	...........
	51	0.693333	4.35459E-001	-8.89583E-005	0.00000E+000	-3.87377E-005	-5.39641E-002	4.35520E-001	3.57340E+000	9	...........
	52	0.706667	4.30225E-001	-8.87895E-005	0.00000E+000	-3.81994E-005	-5.39641E-002	4.30283E-001	3.57340E+000	9	...........
	53	0.72	4.25014E-001	-8.86436E-005	0.00000E+000	-3.76748E-005	-5.39641E-002	4.25073E-001	3.57340E+000	9	...........
	54	0.733333	4.19838E-001	-8.87874E-005	0.00000E+000	-3.72763E-005	-5.39641E-002	4.19892E-001	3.57340E+000	9	...........
	55	0.746667	4.14656E-001	-8.87353E-005	0.00000E+000	-3.67947E-005	-5.39641E-002	4.14723E-001	3.57340E+000	9	...........
	56	0.76	4.09515E-001	-8.87832E-005	0.00000E+000	-3.63581E-005	-5.39641E-002	4.09561E-001	3.57340E+000	9	...........
	57	0.773333	4.04378E-001	-8.88499E-005	0.00000E+000	-3.59290E-005	-5.39641E-002	4.04426E-001	3.57340E+000	9	...........
	58	0.786667	3.99263E-001	-8.88457E-005	0.00000E+000	-3.54728E-005	-5.39641E-002	3.99313E-001	3.57340E+000	9	...........
	59	0.8	3.94155E-001	-8.87426E-005	0.00000E+000	-3.49783E-005	-5.39641E-002	3.94205E-001	3.57340E+000	9	...........
	60	0.813333	3.89056E-001	-8.86613E-005	0.00000E+000	-3.44942E-005	-5.39641E-002	3.89106E-001	3.57348E+000	9	...........
	61	0.826667	3.83962E-001	-8.89312E-005	0.00000E+000	-3.41462E-005	-5.39641E-002	3.84004E-001	3.57400E+000	9	...........
	62	0.84	3.78890E-001	-8.86592E-005	0.00000E+000	-3.35921E-005	-5.39641E-002	3.78938E-001	3.57400E+000	9	...........
	63	0.853333	3.73842E-001	-8.86832E-005	0.00000E+000	-3.31535E-005	-5.39641E-002	3.73885E-001	3.57400E+000	9	...........
	64	0.866667	3.68810E-001	-8.87353E-005	0.00000E+000	-3.27264E-005	-5.39641E-002	3.68848E-001	3.57400E+000	9	...........
	65	0.88	3.63787E-001	-8.89155E-005	0.00000E+000	-3.23464E-005	-5.39641E-002	3.63827E-001	3.57400E+000	9	...........
	66	0.893333	3.58775E-001	-8.85978E-005	0.00000E+000	-3.17866E-005	-5.39641E-002	3.58814E-001	3.57400E+000	9	...........
	67	0.906667	3.53779E-001	-8.90343E-005	0.00000E+000	-3.14985E-005	-5.39641E-002	3.53824E-001	3.57400E+000	9	...........
	68	0.92	3.48802E-001	-8.89134E-005	0.00000E+000	-3.10132E-005	-5.39641E-002	3.48848E-001	3.57400E+000	9	...........
	69	0.933333	3.43840E-001	-8.87197E-005	0.00000E+000	-3.05054E-005	-5.39641E-002	3.43881E-001	3.57400E+000	9	...........
	70	0.946667	3.38892E-001	-8.88176E-005	0.00000E+000	-3.00995E-005	-5.39641E-002	3.38932E-001	3.57400E+000	9	...........
	71	0.96	3.33962E-001	-8.87655E-005	0.00000E+000	-2.96443E-005	-5.39641E-002	3.33999E-001	3.57400E+000	9	...........
	72	0.97333	3.29040E-001	-8.86822E-005	0.00000E+000	-2.91800E-005	-5.39641E-002	3.29081E-001	3.57400E+000	9	...........
	73	0.98667	3.24145E-001	-8.89426E-005	0.00000E+000	-2.88303E-005	-5.39641E-002	3.24190E-001	3.57400E+000	9	...........
	74	1	3.19262E-001	-8.88395E-005	0.00000E+000	-2.83631E-005	-5.39641E-002	3.19307E-001	3.57400E+000	9	...........
	75	1.01333	3.14400E-001	-8.87822E-005	0.00000E+000	-2.79131E-005	-5.39641E-002	3.14441E-001	3.57400E+000	9	...........
	76	1.02667	3.09545E-001	-8.89228E-005	0.00000E+000	-2.75256E-005	-5.39641E-002	3.09589E-001	3.57400E+000	9	...........
	77	1.04	3.04700E-001	-8.86707E-005	0.00000E+000	-2.70180E-005	-5.39641E-002	3.04744E-001	3.57400E+000	9	...........
	78	1.05333	2.99869E-001	-8.89426E-005	0.00000E+000	-2.66711E-005	-5.39641E-002	2.99916E-001	3.57400E+000	9	...........
	79	1.06667	2.95058E-001	-8.87561E-005	0.00000E+000	-2.61882E-005	-5.39641E-002	2.95099E-001	3.57400E+000	9	...........
	80	1.08	2.90255E-001	-8.86613E-005	0.00000E+000	-2.57344E-005	-5.39641E-002	2.90288E-001	3.57400E+000	9	...........
	81	1.09333	2.85454E-001	-8.88020E-005	0.00000E+000	-2.53489E-005	-5.39641E-002	2.85498E-001	3.57400E+000	9	...........
	82	1.10667	2.80688E-001	-8.86769E-005	0.00000E+000	-2.48905E-005	-5.39641E-002	2.80726E-001	3.57400E+000	9	...........
	83	1.12	2.75956E-001	-8.89551E-005	0.00000E+000	-2.45477E-005	-5.39641E-002	2.75994E-001	3.57400E+000	9	...........
	84	1.13333	2.71230E-001	-8.87509E-005	0.00000E+000	-2.40719E-005	-5.39641E-002	2.71269E-001	3.57400E+000	9	...........
	85	1.14667	2.66514E-001	-8.85175E-005	0.00000E+000	-2.35912E-005	-5.39641E-002	2.66546E-001	3.57400E+000	9	...........
	86	1.16	2.61808E-001	-8.88280E-005	0.00000E+000	-2.32559E-005	-5.39641E-002	2.61843E-001	3.57400E+000	9	...........
	87	1.17333	2.57112E-001	-8.88572E-005	0.00000E+000	-2.28463E-005	-5.39641E-002	2.57151E-001	3.57400E+000	9	...........
	88	1.18667	2.52450E-001	-8.87926E-005	0.00000E+000	-2.24157E-005	-5.39641E-002	2.52485E-001	3.57400E+000	9	...........
	89	1.2	2.47808E-001	-8.86915E-005	0.00000E+000	-2.19784E-005	-5.39641E-002	2.47842E-001	3.57400E+000	9	...........
	90	1.21333	2.43197E-001	-8.90312E-005	0.00000E+000	-2.16521E-005	-5.39641E-002	2.43230E-001	3.57400E+000	9	...........
	91	1.22667	2.38606E-001	-8.88624E-005	0.00000E+000	-2.12031E-005	-5.39641E-002	2.38631E-001	3.57400E+000	9	...........
	92	1.24	2.34006E-001	-8.89478E-005	0.00000E+000	-2.08143E-005	-5.39641E-002	2.34034E-001	3.57400E+000	9	...........
	93	1.25333	2.29436E-001	-8.89895E-005	0.00000E+000	-2.04174E-005	-5.39641E-002	2.29463E-001	3.57400E+000	9	...........
	94	1.26667	2.24886E-001	-8.89385E-005	0.00000E+000	-2.00010E-005	-5.39641E-002	2.24915E-001	3.57400E+000	9	...........
	95	1.28	2.20361E-001	-8.89801E-005	0.00000E+000	-1.96078E-005	-5.39641E-002	2.20393E-001	3.57400E+000	9	...........
	96	1.29333	2.15858E-001	-8.86780E-005	0.00000E+000	-1.91418E-005	-5.39641E-002	2.15884E-001	3.57400E+000	9	...........
	97	1.30667	2.11369E-001	-8.87592E-005	0.00000E+000	-1.87609E-005	-5.39641E-002	2.11392E-001	3.57400E+000	9	...........
	98	1.32	2.06889E-001	-8.88978E-005	0.00000E+000	-1.83920E-005	-5.39641E-002	2.06911E-001	3.57400E+000	9	...........
	99	1.33333	2.02438E-001	-8.88457E-005	0.00000E+000	-1.79857E-005	-5.39641E-002	2.02468E-001	3.57400E+000	9	...........
	100	1.34667	1.98004E-001	-8.90343E-005	0.00000E+000	-1.76291E-005	-5.39641E-002	1.98025E-001	3.57400E+000	9	...........
	101	1.36	1.93583E-001	-8.86603E-005	0.00000E+000	-1.71631E-005	-5.39641E-002	1.93602E-001	3.57400E+000	9	...........
	102	1.37333	1.89192E-001	-8.86696E-005	0.00000E+000	-1.67756E-005	-5.39641E-002	1.89216E-001	3.57400E+000	9	...........
	103	1.38667	1.84853E-001	-8.88155E-005	0.00000E+000	-1.64178E-005	-5.39641E-002	1.84877E-001	3.57400E+000	9	...........
	104	1.4	1.80532E-001	-8.86769E-005	0.00000E+000	-1.60090E-005	-5.39641E-002	1.80560E-001	3.57400E+000	9	...........
	105	1.41333	1.76232E-001	-8.87999E-005	0.00000E+000	-1.56494E-005	-5.39641E-002	1.76255E-001	3.57400E+000	9	...........
	106	1.42667	1.71942E-001	-8.89447E-005	0.00000E+000	-1.52933E-005	-5.39641E-002	1.71967E-001	3.57400E+000	9	...........
	107	1.44	1.67671E-001	-8.86978E-005	0.00000E+000	-1.48720E-005	-5.39641E-002	1.67690E-001	3.57400E+000	9	...........
	108	1.45333	1.63412E-001	-8.87072E-005	0.00000E+000	-1.44958E-005	-5.39641E-002	1.63434E-001	3.57400E+000	9	...........
	109	1.46667	1.59179E-001	-8.88197E-005	0.00000E+000	-1.41382E-005	-5.39641E-002	1.59196E-001	3.57400E+000	9	...........
	110	1.48	1.54965E-001	-8.90301E-005	0.00000E+000	-1.37965E-005	-5.39641E-002	1.54982E-001	3.57400E+000	9	...........
	111	1.49333	1.50766E-001	-8.86905E-005	0.00000E+000	-1.33715E-005	-5.39641E-002	1.50780E-001	3.57400E+000	9	...........
	112	1.50667	1.46576E-001	-8.89562E-005	0.00000E+000	-1.30388E-005	-5.39641E-002	1.46591E-001	3.57400E+000	9	...........
	113	1.52	1.42416E-001	-8.85655E-005	0.00000E+000	-1.26131E-005	-5.39641E-002	1.42433E-001	3.57400E+000	9	...........
	114	1.53333	1.38272E-001	-8.89760E-005	0.00000E+000	-1.23029E-005	-5.39641E-002	1.38293E-001	3.57400E+000	9	...........
	115	1.54667	1.34156E-001	-8.85988E-005	0.00000E+000	-1.18860E-005	-5.39641E-002	1.34171E-001	3.57400E+000	9	...........
	116	1.56	1.30041E-001	-8.85477E-005	0.00000E+000	-1.15149E-005	-5.39641E-002	1.30051E-001	3.57400E+000	9	...........
	117	1.57333	1.25932E-001	-8.88436E-005	0.00000E+000	-1.11882E-005	-5.39641E-002	1.25946E-001	3.57400E+000	9	...........
	118	1.58667	1.21839E-001	-8.86144E-005	0.00000E+000	-1.07967E-005	-5.39641E-002	1.21853E-001	3.57400E+000	9	...........
	119	1.6	1.17774E-001	-8.89145E-005	0.00000E+000	-1.04719E-005	-5.39641E-002	1.17787E-001	3.57400E+000	9	...........
	120	1.61333	1.13742E-001	-8.88113E-005	0.00000E+000	-1.01016E-005	-5.39641E-002	1.13756E-001	3.57400E+000	9	...........
	121	1.62667	1.09720E-001	-8.87207E-005	0.00000E+000	-9.73447E-006	-5.39641E-002	1.09730E-001	3.57400E+000	9	...........
	122	1.64	1.05716E-001	-8.86415E-005	0.00000E+000	-9.37083E-006	-5.39641E-002	1.05725E-001	3.57400E+000	9	...........
	123	1.65333	1.01720E-001	-8.88624E-005	0.00000E+000	-9.03909E-006	-5.39641E-002	1.01733E-001	3.57400E+000	9	...........
	124	1.66667	9.77499E-002	-8.89426E-005	0.00000E+000	-8.69414E-006	-5.39641E-002	9.77602E-002	3.57400E+000	9	...........
	125	1.68	9.37934E-002	-8.90749E-005	0.00000E+000	-8.35464E-006	-5.39641E-002	9.37965E-002	3.57400E+000	9	...........
	126	1.69333	8.98481E-002	-8.88134E-005	0.00000E+000	-7.97972E-006	-5.39641E-002	8.98530E-002	3.57400E+000	9	...........
	127	1.70667	8.59237E-002	-8.86863E-005	0.00000E+000	-7.62026E-006	-5.39641E-002	8.59327E-002	3.57400E+000	9	...........
	128	1.72	8.20122E-002	-8.88811E-005	0.00000E+000	-7.28934E-006	-5.39641E-002	8.20124E-002	3.57400E+000	9	...........
	129	1.73333	7.81178E-002	-8.87676E-005	0.00000E+000	-6.93433E-006	-5.39641E-002	7.81208E-002	3.57400E+000	9	...........
	130	1.74667	7.42306E-002	-8.89635E-005	0.00000E+000	-6.60381E-006	-5.39641E-002	7.42284E-002	3.57400E+000	9	...........
	131	1.76	7.03685E-002	-8.91072E-005	0.00000E+000	-6.27034E-006	-5.39641E-002	7.03688E-002	3.57400E+000	9	...........
	132	1.77333	6.65227E-002	-8.87645E-005	0.00000E+000	-5.90485E-006	-5.39641E-002	6.65221E-002	3.57400E+000	9	...........
	133	1.78667	6.26743E-002	-8.85446E-005	0.00000E+000	-5.54947E-006	-5.39641E-002	6.26729E-002	3.57400E+000	9	...........
	134	1.8	5.88429E-002	-8.89562E-005	0.00000E+000	-5.23443E-006	-5.39641E-002	5.88394E-002	3.57400E+000	9	...........
	135	1.81333	5.50275E-002	-8.89093E-005	0.00000E+000	-4.89246E-006	-5.39641E-002	5.50324E-002	3.57387E+000	9	...........
	136	1.82667	5.12471E-002	-8.87645E-005	0.00000E+000	-4.54892E-006	-5.39641E-002	5.12451E-002	3.57300E+000	9	...........
	137	1.84	4.74828E-002	-8.87551E-005	0.00000E+000	-4.21434E-006	-5.39641E-002	4.74927E-002	3.57300E+000	9	...........
	138	1.85333	4.37290E-002	-8.88416E-005	0.00000E+000	-3.88496E-006	-5.39641E-002	4.37382E-002	3.57300E+000	9	...........
	139	1.86667	3.99896E-002	-8.87613E-005	0.00000E+000	-3.54953E-006	-5.39641E-002	3.99936E-002	3.57300E+000	9	...........
	140	1.88	3.62729E-002	-8.88186E-005	0.00000E+000	-3.22171E-006	-5.39641E-002	3.62761E-002	3.57300E+000	9	...........
	141	1.89333	3.25714E-002	-8.87874E-005	0.00000E+000	-2.89193E-006	-5.39641E-002	3.25738E-002	3.57300E+000	9	...........
	142	1.90667	2.88961E-002	-8.86728E-005	0.00000E+000	-2.56230E-006	-5.39641E-002	2.88965E-002	3.57300E+000	9	...........
	143	1.92	2.52280E-002	-8.89260E-005	0.00000E+000	-2.24342E-006	-5.39641E-002	2.52278E-002	3.57300E+000	9	...........
	144	1.93333	2.15801E-002	-8.89489E-005	0.00000E+000	-1.91952E-006	-5.39641E-002	2.15760E-002	3.57300E+000	9	...........
	145	1.94667	1.79539E-002	-8.89218E-005	0.00000E+000	-1.59649E-006	-5.39641E-002	1.79454E-002	3.57300E+000	9	...........
	146	1.96	1.43397E-002	-8.86832E-005	0.00000E+000	-1.27169E-006	-5.39641E-002	1.43368E-002	3.57300E+000	9	...........
	147	1.97333	1.07328E-002	-8.90187E-005	0.00000E+000	-9.55417E-007	-5.39641E-002	1.07267E-002	3.57300E+000	9	...........
	148	1.98667	7.16315E-003	-8.88186E-005	0.00000E+000	-6.36221E-007	-5.39641E-002	7.15341E-003	3.57300E+000	9	...........
	149	2	3.62236E-003	-8.87947E-005	0.00000E+000	-3.21646E-007	-5.39641E-002	3.60869E-003	3.57300E+000	9	...........
	150	2.00833	7.49452E-004	-8.87982E-005	0.00000E+000	-6.65500E-008	-5.39641E-002	7.36914E-004	3.57300E+000	9	...........
STARTTIMEOFFSET	QUANT	2420.097	Start Time Offset (s)
