EXPLAIN
TAG	PWR800_DISCHARGE
TITLE	LABEL	PWR Cyclic Charge Discharge (Cell) - Discharge Step	Test &Identifier
DATE	LABEL	10-7-2017	Date
TIME	LABEL	15:28:37	Time
NOTES	NOTES	3	&Notes...
	supercap test cell
	0.9mg
	6M KOH
PSTAT	PSTAT	IFC5000-01520	Potentiostat
CAPACITY	QUANT	1.00000E-003	Capacity (A-hr)
CELLTYPE	SELECTOR	1	&Cell Type
WORKINGCONNECTION	SELECTOR	0	&Working Lead
MAXDISCHARGETIME	VARIABLEANDUNITS	1.00000E+002	s	1.00000E+002	second(s)	Max &Discharge Time
DISCHARGEMODE	MULTIPARAM	0	9.00000E-005	&Discharge Mode	Constant Current	Amp(s)
SAMPLETIME	QUANT	1.00000E-002	Sa&mple Period (s)
DISCHARGESTOPAT1	MULTIPARAM	3	0.00000E+000	Discharge Stop At &1	Voltage < Limit	V
DISCHARGESTOPAT2	MULTIPARAM	0	0.00000E+000	Discharge Stop At &2	None	N/A
AESBHCSELECTOR	TOGGLE	F	Save Both Half Cells
IRCOMP	TOGGLE	F	IR &Measure
EOC	QUANT	0	Open Circuit (V)
SEQUENCER	TOGGLE	TRUE	Run as Sequence
PSTATMODEL	IQUANT	53	Pstat Model
PSTATSECTION	LABEL	IFC5000-01520	Pstat Section
PSTATSERIALNO	LABEL	01520	Pstat Serial Number
CTRLMODE	IQUANT	0	Control Mode
ELECTROMETER	IQUANT	1	RE=0 or CS=1
IESTAB	IQUANT	0	I/E Stability
CASPEED	IQUANT	4	Control Amp Speed
CONVENTION	IQUANT	1	Current Convention
ICHRANGE	IQUANT	2	Ich Range
ICHRANGEMODE	TOGGLE	T	Ich Auto Range
ICHOFFSETENABLE	TOGGLE	F	Ich Offset Enable
ICHOFFSET	QUANT	0	Ich Offset (V)
ICHFILTER	IQUANT	1	Ich Filter
VCHRANGE	IQUANT	2	Vch Range
VCHRANGEMODE	TOGGLE	T	Vch Auto Range
VCHOFFSETENABLE	TOGGLE	F	Vch Offset Enable
VCHOFFSET	QUANT	0	Vch Offset (V)
VCHFILTER	IQUANT	1	Vch Filter
IERANGELOWERLIMIT	IQUANT	9	I/E Range Lower Limit
IERANGEMODE	TOGGLE	F	I/E AutoRange
IERANGE	IQUANT	9	I/E Range
ACHSELECT	IQUANT	1	Ach Select
ACHRANGE	IQUANT	2	Ach Range
ACHOFFSETENABLE	TOGGLE	F	Ach Offset Enable
ACHOFFSET	QUANT	0	Ach Offset (V)
ACHFILTER	IQUANT	1	Ach Filter
CABLEID	IQUANT	14	Cable ID
DCCALDATE	LABEL	5-7-2017	DC Calibration Date
ACCALDATE	LABEL	12/3/2015	AC Calibration Date
FRAMEWORKVERSION	QUANT	7.01	Framework Version
INSTRUMENTVERSION	LABEL	4.00	Instrument Version
CURVE	TABLE	157
	Pt	T	Vf	Im	Vu	Pwr	Sig	Ach	Temp	IERange	Over
	#	s	V	A	V	W	V	V	deg C	#	bits
	0	0.013333	8.15407E-001	-8.86571E-005	0.00000E+000	-7.22916E-005	-5.39641E-002	8.15577E-001	3.57290E+000	9	...........
	1	0.026667	8.02432E-001	-8.86811E-005	0.00000E+000	-7.11605E-005	-5.39641E-002	8.02537E-001	3.57290E+000	9	...........
	2	0.04	7.90236E-001	-8.85488E-005	0.00000E+000	-6.99744E-005	-5.39641E-002	7.90355E-001	3.57290E+000	9	...........
	3	0.053333	7.78710E-001	-8.88468E-005	0.00000E+000	-6.91859E-005	-5.39641E-002	7.78824E-001	3.57290E+000	9	...........
	4	0.066667	7.67740E-001	-8.87957E-005	0.00000E+000	-6.81720E-005	-5.39641E-002	7.67847E-001	3.57290E+000	9	...........
	5	0.08	7.57270E-001	-8.84050E-005	0.00000E+000	-6.69465E-005	-5.39641E-002	7.57347E-001	3.57290E+000	9	...........
	6	0.093333	7.47163E-001	-8.84936E-005	0.00000E+000	-6.61191E-005	-5.39641E-002	7.47279E-001	3.57290E+000	9	...........
	7	0.106667	7.37399E-001	-8.86947E-005	0.00000E+000	-6.54033E-005	-5.39641E-002	7.37515E-001	3.57290E+000	9	...........
	8	0.12	7.28028E-001	-8.86759E-005	0.00000E+000	-6.45585E-005	-5.39641E-002	7.28108E-001	3.57290E+000	9	...........
	9	0.133333	7.18908E-001	-8.87540E-005	0.00000E+000	-6.38060E-005	-5.39641E-002	7.19013E-001	3.57290E+000	9	...........
	10	0.146667	7.10024E-001	-8.85571E-005	0.00000E+000	-6.28777E-005	-5.39641E-002	7.10124E-001	3.57290E+000	9	...........
	11	0.16	7.01398E-001	-8.84675E-005	0.00000E+000	-6.20510E-005	-5.39641E-002	7.01489E-001	3.57290E+000	9	...........
	12	0.173333	6.93020E-001	-8.87269E-005	0.00000E+000	-6.14896E-005	-5.39641E-002	6.93104E-001	3.57290E+000	9	...........
	13	0.186667	6.84811E-001	-8.88864E-005	0.00000E+000	-6.08703E-005	-5.39641E-002	6.84903E-001	3.57290E+000	9	...........
	14	0.2	6.76835E-001	-8.84425E-005	0.00000E+000	-5.98610E-005	-5.39641E-002	6.76932E-001	3.57290E+000	9	...........
	15	0.213333	6.69036E-001	-8.87197E-005	0.00000E+000	-5.93567E-005	-5.39641E-002	6.69154E-001	3.57290E+000	9	...........
	16	0.226667	6.61361E-001	-8.89510E-005	0.00000E+000	-5.88287E-005	-5.39641E-002	6.61473E-001	3.57290E+000	9	...........
	17	0.24	6.53891E-001	-8.86613E-005	0.00000E+000	-5.79748E-005	-5.39641E-002	6.53993E-001	3.57290E+000	9	...........
	18	0.253333	6.46554E-001	-8.89582E-005	0.00000E+000	-5.75163E-005	-5.39641E-002	6.46649E-001	3.57290E+000	9	...........
	19	0.266667	6.39326E-001	-8.86342E-005	0.00000E+000	-5.66662E-005	-5.39641E-002	6.39439E-001	3.57290E+000	9	...........
	20	0.28	6.32251E-001	-8.87863E-005	0.00000E+000	-5.61353E-005	-5.39641E-002	6.32363E-001	3.57290E+000	9	...........
	21	0.293333	6.25319E-001	-8.86186E-005	0.00000E+000	-5.54149E-005	-5.39641E-002	6.25407E-001	3.57290E+000	9	...........
	22	0.306667	6.18514E-001	-8.86207E-005	0.00000E+000	-5.48131E-005	-5.39641E-002	6.18597E-001	3.57290E+000	9	...........
	23	0.32	6.11740E-001	-8.86082E-005	0.00000E+000	-5.42052E-005	-5.39641E-002	6.11881E-001	3.57290E+000	9	...........
	24	0.333333	6.05100E-001	-8.88718E-005	0.00000E+000	-5.37763E-005	-5.39641E-002	6.05211E-001	3.57290E+000	9	...........
	25	0.346667	5.98550E-001	-8.84915E-005	0.00000E+000	-5.29666E-005	-5.39641E-002	5.98681E-001	3.57272E+000	9	...........
	26	0.36	5.92110E-001	-8.88259E-005	0.00000E+000	-5.25947E-005	-5.39641E-002	5.92231E-001	3.57220E+000	9	...........
	27	0.373333	5.85700E-001	-8.87176E-005	0.00000E+000	-5.19619E-005	-5.39641E-002	5.85838E-001	3.57220E+000	9	...........
	28	0.386667	5.79428E-001	-8.88864E-005	0.00000E+000	-5.15033E-005	-5.39641E-002	5.79546E-001	3.57220E+000	9	...........
	29	0.4	5.73253E-001	-8.89155E-005	0.00000E+000	-5.09711E-005	-5.39641E-002	5.73350E-001	3.57220E+000	9	...........
	30	0.413333	5.67132E-001	-8.85467E-005	0.00000E+000	-5.02177E-005	-5.39641E-002	5.67244E-001	3.57220E+000	9	...........
	31	0.426667	5.61043E-001	-8.85457E-005	0.00000E+000	-4.96779E-005	-5.39641E-002	5.61185E-001	3.57220E+000	9	...........
	32	0.44	5.55049E-001	-8.87540E-005	0.00000E+000	-4.92628E-005	-5.39641E-002	5.55156E-001	3.57220E+000	9	...........
	33	0.453333	5.49096E-001	-8.88166E-005	0.00000E+000	-4.87688E-005	-5.39641E-002	5.49211E-001	3.57220E+000	9	...........
	34	0.466667	5.43221E-001	-8.86738E-005	0.00000E+000	-4.81695E-005	-5.39641E-002	5.43329E-001	3.57220E+000	9	...........
	35	0.48	5.37390E-001	-8.89833E-005	0.00000E+000	-4.78187E-005	-5.39641E-002	5.37490E-001	3.57220E+000	9	...........
	36	0.493333	5.31613E-001	-8.87915E-005	0.00000E+000	-4.72027E-005	-5.39641E-002	5.31695E-001	3.57220E+000	9	...........
	37	0.506667	5.25885E-001	-8.85061E-005	0.00000E+000	-4.65440E-005	-5.39641E-002	5.25991E-001	3.57220E+000	9	...........
	38	0.52	5.20217E-001	-8.84581E-005	0.00000E+000	-4.60175E-005	-5.39641E-002	5.20302E-001	3.57220E+000	9	...........
	39	0.533333	5.14588E-001	-8.85769E-005	0.00000E+000	-4.55806E-005	-5.39641E-002	5.14653E-001	3.57220E+000	9	...........
	40	0.546667	5.08952E-001	-8.87832E-005	0.00000E+000	-4.51864E-005	-5.39641E-002	5.09061E-001	3.57220E+000	9	...........
	41	0.56	5.03407E-001	-8.84352E-005	0.00000E+000	-4.45190E-005	-5.39641E-002	5.03513E-001	3.57220E+000	9	...........
	42	0.573333	4.97942E-001	-8.87009E-005	0.00000E+000	-4.41679E-005	-5.39641E-002	4.98015E-001	3.57220E+000	9	...........
	43	0.586667	4.92471E-001	-8.87051E-005	0.00000E+000	-4.36847E-005	-5.39641E-002	4.92564E-001	3.57220E+000	9	...........
	44	0.6	4.87046E-001	-8.87780E-005	0.00000E+000	-4.32389E-005	-5.39641E-002	4.87119E-001	3.57220E+000	9	...........
	45	0.613333	4.81723E-001	-8.84936E-005	0.00000E+000	-4.26294E-005	-5.39641E-002	4.81789E-001	3.57220E+000	9	...........
	46	0.626667	4.76348E-001	-8.89145E-005	0.00000E+000	-4.23542E-005	-5.39641E-002	4.76411E-001	3.57220E+000	9	...........
	47	0.64	4.71006E-001	-8.88384E-005	0.00000E+000	-4.18434E-005	-5.39641E-002	4.71068E-001	3.57220E+000	9	...........
	48	0.653333	4.65676E-001	-8.89322E-005	0.00000E+000	-4.14136E-005	-5.39641E-002	4.65734E-001	3.57220E+000	9	...........
	49	0.666667	4.60364E-001	-8.86697E-005	0.00000E+000	-4.08203E-005	-5.39641E-002	4.60422E-001	3.57220E+000	9	...........
	50	0.68	4.55093E-001	-8.90322E-005	0.00000E+000	-4.05180E-005	-5.39641E-002	4.55152E-001	3.57220E+000	9	...........
	51	0.693333	4.49848E-001	-8.88124E-005	0.00000E+000	-3.99521E-005	-5.39641E-002	4.49909E-001	3.57220E+000	9	...........
	52	0.706667	4.44635E-001	-8.86478E-005	0.00000E+000	-3.94159E-005	-5.39641E-002	4.44695E-001	3.57220E+000	9	...........
	53	0.72	4.39427E-001	-8.86123E-005	0.00000E+000	-3.89387E-005	-5.39641E-002	4.39486E-001	3.57220E+000	9	...........
	54	0.733333	4.34258E-001	-8.87384E-005	0.00000E+000	-3.85353E-005	-5.39641E-002	4.34318E-001	3.57220E+000	9	...........
	55	0.746667	4.29104E-001	-8.87738E-005	0.00000E+000	-3.80932E-005	-5.39641E-002	4.29163E-001	3.57220E+000	9	...........
	56	0.76	4.23975E-001	-8.89989E-005	0.00000E+000	-3.77333E-005	-5.39641E-002	4.24033E-001	3.57220E+000	9	...........
	57	0.773333	4.18857E-001	-8.86509E-005	0.00000E+000	-3.71321E-005	-5.39641E-002	4.18911E-001	3.57220E+000	9	...........
	58	0.786667	4.13765E-001	-8.88697E-005	0.00000E+000	-3.67712E-005	-5.39641E-002	4.13819E-001	3.57220E+000	9	...........
	59	0.8	4.08698E-001	-8.85519E-005	0.00000E+000	-3.61910E-005	-5.39641E-002	4.08757E-001	3.57220E+000	9	...........
	60	0.813333	4.03644E-001	-8.87947E-005	0.00000E+000	-3.58415E-005	-5.39641E-002	4.03694E-001	3.57220E+000	9	...........
	61	0.826667	3.98601E-001	-8.90968E-005	0.00000E+000	-3.55141E-005	-5.39641E-002	3.98647E-001	3.57220E+000	9	...........
	62	0.84	3.93589E-001	-8.87040E-005	0.00000E+000	-3.49130E-005	-5.39641E-002	3.93634E-001	3.57220E+000	9	...........
	63	0.853333	3.88587E-001	-8.86759E-005	0.00000E+000	-3.44583E-005	-5.39641E-002	3.88631E-001	3.57220E+000	9	...........
	64	0.866667	3.83590E-001	-8.88895E-005	0.00000E+000	-3.40971E-005	-5.39641E-002	3.83636E-001	3.57220E+000	9	...........
	65	0.88	3.78610E-001	-8.87072E-005	0.00000E+000	-3.35854E-005	-5.39641E-002	3.78655E-001	3.57220E+000	9	...........
	66	0.893333	3.73652E-001	-8.88311E-005	0.00000E+000	-3.31919E-005	-5.39641E-002	3.73695E-001	3.57220E+000	9	...........
	67	0.906667	3.68712E-001	-8.88301E-005	0.00000E+000	-3.27527E-005	-5.39641E-002	3.68754E-001	3.57220E+000	9	...........
	68	0.92	3.63789E-001	-8.86665E-005	0.00000E+000	-3.22559E-005	-5.39641E-002	3.63831E-001	3.57220E+000	9	...........
	69	0.933333	3.58867E-001	-8.88124E-005	0.00000E+000	-3.18719E-005	-5.39641E-002	3.58915E-001	3.57220E+000	9	...........
	70	0.946667	3.53956E-001	-8.86123E-005	0.00000E+000	-3.13649E-005	-5.39641E-002	3.53998E-001	3.57220E+000	9	...........
	71	0.96	3.49070E-001	-8.86728E-005	0.00000E+000	-3.09530E-005	-5.39641E-002	3.49114E-001	3.57220E+000	9	...........
	72	0.97333	3.44201E-001	-8.89082E-005	0.00000E+000	-3.06023E-005	-5.39641E-002	3.44247E-001	3.57220E+000	9	...........
	73	0.98667	3.39362E-001	-8.87144E-005	0.00000E+000	-3.01063E-005	-5.39641E-002	3.39402E-001	3.57220E+000	9	...........
	74	1	3.34544E-001	-8.87155E-005	0.00000E+000	-2.96793E-005	-5.39641E-002	3.34587E-001	3.57220E+000	9	...........
	75	1.01333	3.29735E-001	-8.86155E-005	0.00000E+000	-2.92196E-005	-5.39641E-002	3.29772E-001	3.57220E+000	9	...........
	76	1.02667	3.24934E-001	-8.89530E-005	0.00000E+000	-2.89039E-005	-5.39641E-002	3.24972E-001	3.57220E+000	9	...........
	77	1.04	3.20143E-001	-8.89114E-005	0.00000E+000	-2.84644E-005	-5.39641E-002	3.20182E-001	3.57220E+000	9	...........
	78	1.05333	3.15363E-001	-8.87801E-005	0.00000E+000	-2.79980E-005	-5.39641E-002	3.15406E-001	3.57220E+000	9	...........
	79	1.06667	3.10601E-001	-8.86957E-005	0.00000E+000	-2.75490E-005	-5.39641E-002	3.10639E-001	3.57220E+000	9	...........
	80	1.08	3.05849E-001	-8.86978E-005	0.00000E+000	-2.71281E-005	-5.39641E-002	3.05885E-001	3.57220E+000	9	...........
	81	1.09333	3.01120E-001	-8.89280E-005	0.00000E+000	-2.67780E-005	-5.39641E-002	3.01152E-001	3.57220E+000	9	...........
	82	1.10667	2.96413E-001	-8.85425E-005	0.00000E+000	-2.62451E-005	-5.39641E-002	2.96454E-001	3.57220E+000	9	...........
	83	1.12	2.91739E-001	-8.87082E-005	0.00000E+000	-2.58797E-005	-5.39641E-002	2.91777E-001	3.57220E+000	9	...........
	84	1.13333	2.87087E-001	-8.87290E-005	0.00000E+000	-2.54730E-005	-5.39641E-002	2.87124E-001	3.57220E+000	9	...........
	85	1.14667	2.82450E-001	-8.88051E-005	0.00000E+000	-2.50830E-005	-5.39641E-002	2.82484E-001	3.57220E+000	9	...........
	86	1.16	2.77836E-001	-8.87478E-005	0.00000E+000	-2.46573E-005	-5.39641E-002	2.77868E-001	3.57220E+000	9	...........
	87	1.17333	2.73232E-001	-8.87936E-005	0.00000E+000	-2.42613E-005	-5.39641E-002	2.73270E-001	3.57220E+000	9	...........
	88	1.18667	2.68636E-001	-8.85957E-005	0.00000E+000	-2.38000E-005	-5.39641E-002	2.68670E-001	3.57220E+000	9	...........
	89	1.2	2.64032E-001	-8.85686E-005	0.00000E+000	-2.33849E-005	-5.39641E-002	2.64067E-001	3.57220E+000	9	...........
	90	1.21333	2.59471E-001	-8.86728E-005	0.00000E+000	-2.30080E-005	-5.39641E-002	2.59509E-001	3.57220E+000	9	...........
	91	1.22667	2.54942E-001	-8.85988E-005	0.00000E+000	-2.25875E-005	-5.39641E-002	2.54976E-001	3.57220E+000	9	...........
	92	1.24	2.50425E-001	-8.86613E-005	0.00000E+000	-2.22031E-005	-5.39641E-002	2.50461E-001	3.57220E+000	9	...........
	93	1.25333	2.45941E-001	-8.86134E-005	0.00000E+000	-2.17936E-005	-5.39641E-002	2.45971E-001	3.57220E+000	9	...........
	94	1.26667	2.41484E-001	-8.87103E-005	0.00000E+000	-2.14221E-005	-5.39641E-002	2.41509E-001	3.57220E+000	9	...........
	95	1.28	2.37021E-001	-8.85071E-005	0.00000E+000	-2.09780E-005	-5.39641E-002	2.37046E-001	3.57220E+000	9	...........
	96	1.29333	2.32578E-001	-8.88801E-005	0.00000E+000	-2.06715E-005	-5.39641E-002	2.32600E-001	3.57220E+000	9	...........
	97	1.30667	2.28160E-001	-8.88541E-005	0.00000E+000	-2.02729E-005	-5.39641E-002	2.28183E-001	3.57220E+000	9	...........
	98	1.32	2.23774E-001	-8.87290E-005	0.00000E+000	-1.98553E-005	-5.39641E-002	2.23801E-001	3.57220E+000	9	...........
	99	1.33333	2.19398E-001	-8.83696E-005	0.00000E+000	-1.93881E-005	-5.39641E-002	2.19426E-001	3.57220E+000	9	...........
	100	1.34667	2.15043E-001	-8.89791E-005	0.00000E+000	-1.91343E-005	-5.39641E-002	2.15063E-001	3.57220E+000	9	...........
	101	1.36	2.10706E-001	-8.85873E-005	0.00000E+000	-1.86659E-005	-5.39641E-002	2.10734E-001	3.57220E+000	9	...........
	102	1.37333	2.06399E-001	-8.88082E-005	0.00000E+000	-1.83299E-005	-5.39641E-002	2.06418E-001	3.57220E+000	9	...........
	103	1.38667	2.02088E-001	-8.88270E-005	0.00000E+000	-1.79509E-005	-5.39641E-002	2.02110E-001	3.57220E+000	9	...........
	104	1.4	1.97804E-001	-8.87853E-005	0.00000E+000	-1.75620E-005	-5.39641E-002	1.97822E-001	3.57220E+000	9	...........
	105	1.41333	1.93537E-001	-8.87832E-005	0.00000E+000	-1.71828E-005	-5.39641E-002	1.93562E-001	3.57220E+000	9	...........
	106	1.42667	1.89316E-001	-8.86863E-005	0.00000E+000	-1.67898E-005	-5.39641E-002	1.89334E-001	3.57220E+000	9	...........
	107	1.44	1.85099E-001	-8.87249E-005	0.00000E+000	-1.64229E-005	-5.39641E-002	1.85125E-001	3.57220E+000	9	...........
	108	1.45333	1.80903E-001	-8.85686E-005	0.00000E+000	-1.60223E-005	-5.39641E-002	1.80931E-001	3.57220E+000	9	...........
	109	1.46667	1.76738E-001	-8.86665E-005	0.00000E+000	-1.56707E-005	-5.39641E-002	1.76759E-001	3.57220E+000	9	...........
	110	1.48	1.72594E-001	-8.87884E-005	0.00000E+000	-1.53243E-005	-5.39641E-002	1.72616E-001	3.57220E+000	9	...........
	111	1.49333	1.68456E-001	-8.88051E-005	0.00000E+000	-1.49597E-005	-5.39641E-002	1.68477E-001	3.57220E+000	9	...........
	112	1.50667	1.64341E-001	-8.86436E-005	0.00000E+000	-1.45678E-005	-5.39641E-002	1.64354E-001	3.57220E+000	9	...........
	113	1.52	1.60247E-001	-8.87895E-005	0.00000E+000	-1.42282E-005	-5.39641E-002	1.60265E-001	3.57220E+000	9	...........
	114	1.53333	1.56171E-001	-8.87551E-005	0.00000E+000	-1.38609E-005	-5.39641E-002	1.56182E-001	3.57220E+000	9	...........
	115	1.54667	1.52111E-001	-8.86509E-005	0.00000E+000	-1.34848E-005	-5.39641E-002	1.52126E-001	3.57220E+000	9	...........
	116	1.56	1.48054E-001	-8.88811E-005	0.00000E+000	-1.31592E-005	-5.39641E-002	1.48070E-001	3.57220E+000	9	...........
	117	1.57333	1.44016E-001	-8.86030E-005	0.00000E+000	-1.27603E-005	-5.39641E-002	1.44028E-001	3.57220E+000	9	...........
	118	1.58667	1.40012E-001	-8.88561E-005	0.00000E+000	-1.24409E-005	-5.39641E-002	1.40026E-001	3.57220E+000	9	...........
	119	1.6	1.36020E-001	-8.87488E-005	0.00000E+000	-1.20716E-005	-5.39641E-002	1.36026E-001	3.57220E+000	9	...........
	120	1.61333	1.32024E-001	-8.88384E-005	0.00000E+000	-1.17288E-005	-5.39641E-002	1.32026E-001	3.57220E+000	9	...........
	121	1.62667	1.28047E-001	-8.86832E-005	0.00000E+000	-1.13556E-005	-5.39641E-002	1.28057E-001	3.57220E+000	9	...........
	122	1.64	1.24085E-001	-8.86707E-005	0.00000E+000	-1.10027E-005	-5.39641E-002	1.24093E-001	3.57220E+000	9	...........
	123	1.65333	1.20136E-001	-8.86394E-005	0.00000E+000	-1.06488E-005	-5.39641E-002	1.20145E-001	3.57220E+000	9	...........
	124	1.66667	1.16200E-001	-8.89218E-005	0.00000E+000	-1.03327E-005	-5.39641E-002	1.16210E-001	3.57220E+000	9	...........
	125	1.68	1.12283E-001	-8.87457E-005	0.00000E+000	-9.96462E-006	-5.39641E-002	1.12296E-001	3.57220E+000	9	...........
	126	1.69333	1.08398E-001	-8.86874E-005	0.00000E+000	-9.61357E-006	-5.39641E-002	1.08412E-001	3.57220E+000	9	...........
	127	1.70667	1.04531E-001	-8.89885E-005	0.00000E+000	-9.30201E-006	-5.39641E-002	1.04544E-001	3.57220E+000	9	...........
	128	1.72	1.00676E-001	-8.86353E-005	0.00000E+000	-8.92343E-006	-5.39641E-002	1.00692E-001	3.57220E+000	9	...........
	129	1.73333	9.68400E-002	-8.88093E-005	0.00000E+000	-8.60029E-006	-5.39641E-002	9.68537E-002	3.57220E+000	9	...........
	130	1.74667	9.30133E-002	-8.89666E-005	0.00000E+000	-8.27507E-006	-5.39641E-002	9.30259E-002	3.57220E+000	9	...........
	131	1.76	8.92009E-002	-8.87759E-005	0.00000E+000	-7.91890E-006	-5.39641E-002	8.92108E-002	3.57220E+000	9	...........
	132	1.77333	8.54049E-002	-8.84529E-005	0.00000E+000	-7.55431E-006	-5.39641E-002	8.54125E-002	3.57220E+000	9	...........
	133	1.78667	8.16243E-002	-8.85780E-005	0.00000E+000	-7.23012E-006	-5.39641E-002	8.16240E-002	3.57220E+000	9	...........
	134	1.8	7.78507E-002	-8.88874E-005	0.00000E+000	-6.91994E-006	-5.39641E-002	7.78506E-002	3.57220E+000	9	...........
	135	1.81333	7.40995E-002	-8.87540E-005	0.00000E+000	-6.57663E-006	-5.39641E-002	7.40955E-002	3.57220E+000	9	...........
	136	1.82667	7.03500E-002	-8.88301E-005	0.00000E+000	-6.24920E-006	-5.39641E-002	7.03523E-002	3.57220E+000	9	...........
	137	1.84	6.66251E-002	-8.87332E-005	0.00000E+000	-5.91186E-006	-5.39641E-002	6.66221E-002	3.57220E+000	9	...........
	138	1.85333	6.29309E-002	-8.87488E-005	0.00000E+000	-5.58504E-006	-5.39641E-002	6.29314E-002	3.57220E+000	9	...........
	139	1.86667	5.92498E-002	-8.89405E-005	0.00000E+000	-5.26970E-006	-5.39641E-002	5.92567E-002	3.57220E+000	9	...........
	140	1.88	5.55933E-002	-8.88384E-005	0.00000E+000	-4.93882E-006	-5.39641E-002	5.55952E-002	3.57220E+000	9	...........
	141	1.89333	5.19447E-002	-8.90687E-005	0.00000E+000	-4.62665E-006	-5.39641E-002	5.19453E-002	3.57220E+000	9	...........
	142	1.90667	4.83116E-002	-8.90551E-005	0.00000E+000	-4.30240E-006	-5.39641E-002	4.83112E-002	3.57220E+000	9	...........
	143	1.92	4.46976E-002	-8.88791E-005	0.00000E+000	-3.97268E-006	-5.39641E-002	4.47037E-002	3.57220E+000	9	...........
	144	1.93333	4.11140E-002	-8.87426E-005	0.00000E+000	-3.64856E-006	-5.39641E-002	4.11195E-002	3.57220E+000	9	...........
	145	1.94667	3.75453E-002	-8.89812E-005	0.00000E+000	-3.34082E-006	-5.39641E-002	3.75470E-002	3.57220E+000	9	...........
	146	1.96	3.39923E-002	-8.84988E-005	0.00000E+000	-3.00827E-006	-5.39641E-002	3.39957E-002	3.57220E+000	9	...........
	147	1.97333	3.04572E-002	-8.89364E-005	0.00000E+000	-2.70875E-006	-5.39641E-002	3.04586E-002	3.57220E+000	9	...........
	148	1.98667	2.69244E-002	-8.87499E-005	0.00000E+000	-2.38954E-006	-5.39641E-002	2.69271E-002	3.57220E+000	9	...........
	149	2	2.33961E-002	-8.86717E-005	0.00000E+000	-2.07457E-006	-5.39641E-002	2.34026E-002	3.57220E+000	9	...........
	150	2.01333	1.98871E-002	-8.88259E-005	0.00000E+000	-1.76649E-006	-5.39641E-002	1.98860E-002	3.57220E+000	9	...........
	151	2.02667	1.63874E-002	-8.86613E-005	0.00000E+000	-1.45293E-006	-5.39641E-002	1.63783E-002	3.57220E+000	9	...........
	152	2.04	1.28856E-002	-8.88030E-005	0.00000E+000	-1.14428E-006	-5.39641E-002	1.28785E-002	3.57220E+000	9	...........
	153	2.05333	9.39717E-003	-8.88582E-005	0.00000E+000	-8.35016E-007	-5.39641E-002	9.39236E-003	3.57220E+000	9	...........
	154	2.06667	5.92917E-003	-8.89134E-005	0.00000E+000	-5.27183E-007	-5.39641E-002	5.91878E-003	3.57220E+000	9	...........
	155	2.08	2.48664E-003	-8.87415E-005	0.00000E+000	-2.20669E-007	-5.39641E-002	2.47522E-003	3.57220E+000	9	...........
	156	2.085	1.22400E-004	-8.88249E-005	0.00000E+000	-1.08722E-008	-5.39641E-002	1.08158E-004	3.57220E+000	9	...........
STARTTIMEOFFSET	QUANT	1488.704	Start Time Offset (s)
