EXPLAIN
TAG	PWR800_DISCHARGE
TITLE	LABEL	PWR Cyclic Charge Discharge (Cell) - Discharge Step	Test &Identifier
DATE	LABEL	10-7-2017	Date
TIME	LABEL	15:53:01	Time
NOTES	NOTES	3	&Notes...
	supercap test cell
	0.9mg
	6M KOH
PSTAT	PSTAT	IFC5000-01520	Potentiostat
CAPACITY	QUANT	1.00000E-003	Capacity (A-hr)
CELLTYPE	SELECTOR	1	&Cell Type
WORKINGCONNECTION	SELECTOR	0	&Working Lead
MAXDISCHARGETIME	VARIABLEANDUNITS	1.00000E+002	s	1.00000E+002	second(s)	Max &Discharge Time
DISCHARGEMODE	MULTIPARAM	0	9.00000E-005	&Discharge Mode	Constant Current	Amp(s)
SAMPLETIME	QUANT	1.00000E-002	Sa&mple Period (s)
DISCHARGESTOPAT1	MULTIPARAM	3	0.00000E+000	Discharge Stop At &1	Voltage < Limit	V
DISCHARGESTOPAT2	MULTIPARAM	0	0.00000E+000	Discharge Stop At &2	None	N/A
AESBHCSELECTOR	TOGGLE	F	Save Both Half Cells
IRCOMP	TOGGLE	F	IR &Measure
EOC	QUANT	0	Open Circuit (V)
SEQUENCER	TOGGLE	TRUE	Run as Sequence
PSTATMODEL	IQUANT	53	Pstat Model
PSTATSECTION	LABEL	IFC5000-01520	Pstat Section
PSTATSERIALNO	LABEL	01520	Pstat Serial Number
CTRLMODE	IQUANT	0	Control Mode
ELECTROMETER	IQUANT	1	RE=0 or CS=1
IESTAB	IQUANT	0	I/E Stability
CASPEED	IQUANT	4	Control Amp Speed
CONVENTION	IQUANT	1	Current Convention
ICHRANGE	IQUANT	2	Ich Range
ICHRANGEMODE	TOGGLE	T	Ich Auto Range
ICHOFFSETENABLE	TOGGLE	F	Ich Offset Enable
ICHOFFSET	QUANT	0	Ich Offset (V)
ICHFILTER	IQUANT	1	Ich Filter
VCHRANGE	IQUANT	2	Vch Range
VCHRANGEMODE	TOGGLE	T	Vch Auto Range
VCHOFFSETENABLE	TOGGLE	F	Vch Offset Enable
VCHOFFSET	QUANT	0	Vch Offset (V)
VCHFILTER	IQUANT	1	Vch Filter
IERANGELOWERLIMIT	IQUANT	9	I/E Range Lower Limit
IERANGEMODE	TOGGLE	F	I/E AutoRange
IERANGE	IQUANT	9	I/E Range
ACHSELECT	IQUANT	1	Ach Select
ACHRANGE	IQUANT	2	Ach Range
ACHOFFSETENABLE	TOGGLE	F	Ach Offset Enable
ACHOFFSET	QUANT	0	Ach Offset (V)
ACHFILTER	IQUANT	1	Ach Filter
CABLEID	IQUANT	14	Cable ID
DCCALDATE	LABEL	5-7-2017	DC Calibration Date
ACCALDATE	LABEL	12/3/2015	AC Calibration Date
FRAMEWORKVERSION	QUANT	7.01	Framework Version
INSTRUMENTVERSION	LABEL	4.00	Instrument Version
CURVE	TABLE	150
	Pt	T	Vf	Im	Vu	Pwr	Sig	Ach	Temp	IERange	Over
	#	s	V	A	V	W	V	V	deg C	#	bits
	0	0.013333	8.08538E-001	-8.87936E-005	0.00000E+000	-7.17930E-005	-5.39641E-002	8.08673E-001	3.57260E+000	9	...........
	1	0.026667	7.94708E-001	-8.85092E-005	0.00000E+000	-7.03389E-005	-5.39641E-002	7.94830E-001	3.57260E+000	9	...........
	2	0.04	7.81777E-001	-8.89051E-005	0.00000E+000	-6.95039E-005	-5.39641E-002	7.81896E-001	3.57260E+000	9	...........
	3	0.053333	7.69581E-001	-8.87582E-005	0.00000E+000	-6.83066E-005	-5.39641E-002	7.69727E-001	3.57260E+000	9	...........
	4	0.066667	7.57998E-001	-8.88061E-005	0.00000E+000	-6.73149E-005	-5.39641E-002	7.58146E-001	3.57260E+000	9	...........
	5	0.08	7.46921E-001	-8.86290E-005	0.00000E+000	-6.61989E-005	-5.39641E-002	7.47052E-001	3.57260E+000	9	...........
	6	0.093333	7.36287E-001	-8.89187E-005	0.00000E+000	-6.54697E-005	-5.39641E-002	7.36405E-001	3.57260E+000	9	...........
	7	0.106667	7.26086E-001	-8.85978E-005	0.00000E+000	-6.43296E-005	-5.39641E-002	7.26184E-001	3.57260E+000	9	...........
	8	0.12	7.16184E-001	-8.86082E-005	0.00000E+000	-6.34597E-005	-5.39641E-002	7.16323E-001	3.57260E+000	9	...........
	9	0.133333	7.06634E-001	-8.87582E-005	0.00000E+000	-6.27196E-005	-5.39641E-002	7.06771E-001	3.57260E+000	9	...........
	10	0.146667	6.97383E-001	-8.88551E-005	0.00000E+000	-6.19660E-005	-5.39641E-002	6.97520E-001	3.57260E+000	9	...........
	11	0.16	6.88385E-001	-8.87467E-005	0.00000E+000	-6.10919E-005	-5.39641E-002	6.88509E-001	3.57260E+000	9	...........
	12	0.173333	6.79661E-001	-8.86061E-005	0.00000E+000	-6.02221E-005	-5.39641E-002	6.79785E-001	3.57260E+000	9	...........
	13	0.186667	6.71164E-001	-8.88707E-005	0.00000E+000	-5.96469E-005	-5.39641E-002	6.71290E-001	3.57260E+000	9	...........
	14	0.2	6.62834E-001	-8.85832E-005	0.00000E+000	-5.87159E-005	-5.39641E-002	6.62977E-001	3.57260E+000	9	...........
	15	0.213333	6.54725E-001	-8.88603E-005	0.00000E+000	-5.81790E-005	-5.39641E-002	6.54876E-001	3.57260E+000	9	...........
	16	0.226667	6.46815E-001	-8.89124E-005	0.00000E+000	-5.75099E-005	-5.39641E-002	6.46926E-001	3.57260E+000	9	...........
	17	0.24	6.39048E-001	-8.87853E-005	0.00000E+000	-5.67380E-005	-5.39641E-002	6.39186E-001	3.57260E+000	9	...........
	18	0.253333	6.31459E-001	-8.87874E-005	0.00000E+000	-5.60655E-005	-5.39641E-002	6.31563E-001	3.57260E+000	9	...........
	19	0.266667	6.24040E-001	-8.87759E-005	0.00000E+000	-5.53997E-005	-5.39641E-002	6.24118E-001	3.57260E+000	9	...........
	20	0.28	6.16719E-001	-8.87030E-005	0.00000E+000	-5.47049E-005	-5.39641E-002	6.16827E-001	3.57260E+000	9	...........
	21	0.293333	6.09514E-001	-8.89968E-005	0.00000E+000	-5.42448E-005	-5.39641E-002	6.09653E-001	3.57260E+000	9	...........
	22	0.306667	6.02465E-001	-8.84946E-005	0.00000E+000	-5.33149E-005	-5.39641E-002	6.02627E-001	3.57260E+000	9	...........
	23	0.32	5.95577E-001	-8.88447E-005	0.00000E+000	-5.29138E-005	-5.39641E-002	5.95735E-001	3.57260E+000	9	...........
	24	0.333333	5.88774E-001	-8.84946E-005	0.00000E+000	-5.21033E-005	-5.39641E-002	5.88908E-001	3.57260E+000	9	...........
	25	0.346667	5.82067E-001	-8.85936E-005	0.00000E+000	-5.15674E-005	-5.39641E-002	5.82190E-001	3.57260E+000	9	...........
	26	0.36	5.75482E-001	-8.89385E-005	0.00000E+000	-5.11824E-005	-5.39641E-002	5.75593E-001	3.57260E+000	9	...........
	27	0.373333	5.69009E-001	-8.85842E-005	0.00000E+000	-5.04052E-005	-5.39641E-002	5.69093E-001	3.57260E+000	9	...........
	28	0.386667	5.62554E-001	-8.89947E-005	0.00000E+000	-5.00644E-005	-5.39641E-002	5.62643E-001	3.57260E+000	9	...........
	29	0.4	5.56186E-001	-8.87478E-005	0.00000E+000	-4.93603E-005	-5.39641E-002	5.56291E-001	3.57260E+000	9	...........
	30	0.413333	5.49956E-001	-8.86759E-005	0.00000E+000	-4.87678E-005	-5.39641E-002	5.50020E-001	3.57260E+000	9	...........
	31	0.426667	5.43786E-001	-8.88145E-005	0.00000E+000	-4.82961E-005	-5.39641E-002	5.43846E-001	3.57260E+000	9	...........
	32	0.44	5.37658E-001	-8.88728E-005	0.00000E+000	-4.77831E-005	-5.39641E-002	5.37761E-001	3.57274E+000	9	...........
	33	0.453333	5.31629E-001	-8.87467E-005	0.00000E+000	-4.71804E-005	-5.39641E-002	5.31707E-001	3.57310E+000	9	...........
	34	0.466667	5.25689E-001	-8.87228E-005	0.00000E+000	-4.66406E-005	-5.39641E-002	5.25757E-001	3.57310E+000	9	...........
	35	0.48	5.19802E-001	-8.88989E-005	0.00000E+000	-4.62098E-005	-5.39641E-002	5.19892E-001	3.57310E+000	9	...........
	36	0.493333	5.13949E-001	-8.86738E-005	0.00000E+000	-4.55738E-005	-5.39641E-002	5.14040E-001	3.57310E+000	9	...........
	37	0.506667	5.08087E-001	-8.89822E-005	0.00000E+000	-4.52107E-005	-5.39641E-002	5.08233E-001	3.57310E+000	9	...........
	38	0.52	5.02358E-001	-8.87780E-005	0.00000E+000	-4.45984E-005	-5.39641E-002	5.02488E-001	3.57310E+000	9	...........
	39	0.533333	4.96702E-001	-8.87926E-005	0.00000E+000	-4.41035E-005	-5.39641E-002	4.96804E-001	3.57310E+000	9	...........
	40	0.546667	4.91070E-001	-8.89082E-005	0.00000E+000	-4.36602E-005	-5.39641E-002	4.91171E-001	3.57310E+000	9	...........
	41	0.56	4.85529E-001	-8.87915E-005	0.00000E+000	-4.31109E-005	-5.39641E-002	4.85605E-001	3.57310E+000	9	...........
	42	0.573333	4.80065E-001	-8.87895E-005	0.00000E+000	-4.26247E-005	-5.39641E-002	4.80130E-001	3.57310E+000	9	...........
	43	0.586667	4.74587E-001	-8.87322E-005	0.00000E+000	-4.21111E-005	-5.39641E-002	4.74648E-001	3.57310E+000	9	...........
	44	0.6	4.69140E-001	-8.87499E-005	0.00000E+000	-4.16362E-005	-5.39641E-002	4.69204E-001	3.57310E+000	9	...........
	45	0.613333	4.63727E-001	-8.88832E-005	0.00000E+000	-4.12176E-005	-5.39641E-002	4.63785E-001	3.57310E+000	9	...........
	46	0.626667	4.58343E-001	-8.89385E-005	0.00000E+000	-4.07643E-005	-5.39641E-002	4.58403E-001	3.57310E+000	9	...........
	47	0.64	4.52992E-001	-8.87634E-005	0.00000E+000	-4.02091E-005	-5.39641E-002	4.53053E-001	3.57310E+000	9	...........
	48	0.653333	4.47672E-001	-8.89978E-005	0.00000E+000	-3.98419E-005	-5.39641E-002	4.47730E-001	3.57310E+000	9	...........
	49	0.666667	4.42372E-001	-8.88926E-005	0.00000E+000	-3.93236E-005	-5.39641E-002	4.42426E-001	3.57310E+000	9	...........
	50	0.68	4.37090E-001	-8.88645E-005	0.00000E+000	-3.88417E-005	-5.39641E-002	4.37148E-001	3.57310E+000	9	...........
	51	0.693333	4.31845E-001	-8.89176E-005	0.00000E+000	-3.83986E-005	-5.39641E-002	4.31899E-001	3.57310E+000	9	...........
	52	0.706667	4.26621E-001	-8.87905E-005	0.00000E+000	-3.78799E-005	-5.39641E-002	4.26676E-001	3.57310E+000	9	...........
	53	0.72	4.21432E-001	-8.88676E-005	0.00000E+000	-3.74516E-005	-5.39641E-002	4.21486E-001	3.57310E+000	9	...........
	54	0.733333	4.16258E-001	-8.87207E-005	0.00000E+000	-3.69307E-005	-5.39641E-002	4.16316E-001	3.57310E+000	9	...........
	55	0.746667	4.11104E-001	-8.86894E-005	0.00000E+000	-3.64606E-005	-5.39641E-002	4.11157E-001	3.57310E+000	9	...........
	56	0.76	4.05969E-001	-8.87197E-005	0.00000E+000	-3.60175E-005	-5.39641E-002	4.06013E-001	3.57310E+000	9	...........
	57	0.773333	4.00852E-001	-8.90593E-005	0.00000E+000	-3.56996E-005	-5.39641E-002	4.00894E-001	3.57310E+000	9	...........
	58	0.786667	3.95738E-001	-8.88645E-005	0.00000E+000	-3.51670E-005	-5.39641E-002	3.95780E-001	3.57310E+000	9	...........
	59	0.8	3.90655E-001	-8.88530E-005	0.00000E+000	-3.47109E-005	-5.39641E-002	3.90698E-001	3.57310E+000	9	...........
	60	0.813333	3.85597E-001	-8.88989E-005	0.00000E+000	-3.42792E-005	-5.39641E-002	3.85638E-001	3.57310E+000	9	...........
	61	0.826667	3.80538E-001	-8.89145E-005	0.00000E+000	-3.38353E-005	-5.39641E-002	3.80582E-001	3.57310E+000	9	...........
	62	0.84	3.75494E-001	-8.87363E-005	0.00000E+000	-3.33200E-005	-5.39641E-002	3.75535E-001	3.57310E+000	9	...........
	63	0.853333	3.70465E-001	-8.86384E-005	0.00000E+000	-3.28374E-005	-5.39641E-002	3.70504E-001	3.57310E+000	9	...........
	64	0.866667	3.65447E-001	-8.87457E-005	0.00000E+000	-3.24319E-005	-5.39641E-002	3.65487E-001	3.57310E+000	9	...........
	65	0.88	3.60454E-001	-8.90020E-005	0.00000E+000	-3.20811E-005	-5.39641E-002	3.60495E-001	3.57310E+000	9	...........
	66	0.893333	3.55475E-001	-8.88405E-005	0.00000E+000	-3.15806E-005	-5.39641E-002	3.55512E-001	3.57310E+000	9	...........
	67	0.906667	3.50501E-001	-8.87728E-005	0.00000E+000	-3.11150E-005	-5.39641E-002	3.50540E-001	3.57310E+000	9	...........
	68	0.92	3.45551E-001	-8.91041E-005	0.00000E+000	-3.07900E-005	-5.39641E-002	3.45591E-001	3.57310E+000	9	...........
	69	0.933333	3.40604E-001	-8.88686E-005	0.00000E+000	-3.02690E-005	-5.39641E-002	3.40647E-001	3.57310E+000	9	...........
	70	0.946667	3.35663E-001	-8.88145E-005	0.00000E+000	-2.98117E-005	-5.39641E-002	3.35706E-001	3.57310E+000	9	...........
	71	0.96	3.30738E-001	-8.87395E-005	0.00000E+000	-2.93496E-005	-5.39641E-002	3.30781E-001	3.57310E+000	9	...........
	72	0.97333	3.25848E-001	-8.90624E-005	0.00000E+000	-2.90208E-005	-5.39641E-002	3.25889E-001	3.57310E+000	9	...........
	73	0.98667	3.20967E-001	-8.88478E-005	0.00000E+000	-2.85172E-005	-5.39641E-002	3.21010E-001	3.57310E+000	9	...........
	74	1	3.16094E-001	-8.86321E-005	0.00000E+000	-2.80161E-005	-5.39641E-002	3.16137E-001	3.57310E+000	9	...........
	75	1.01333	3.11238E-001	-8.87082E-005	0.00000E+000	-2.76093E-005	-5.39641E-002	3.11275E-001	3.57310E+000	9	...........
	76	1.02667	3.06389E-001	-8.87717E-005	0.00000E+000	-2.71987E-005	-5.39641E-002	3.06425E-001	3.57310E+000	9	...........
	77	1.04	3.01558E-001	-8.87311E-005	0.00000E+000	-2.67576E-005	-5.39641E-002	3.01596E-001	3.57310E+000	9	...........
	78	1.05333	2.96747E-001	-8.86696E-005	0.00000E+000	-2.63125E-005	-5.39641E-002	2.96782E-001	3.57310E+000	9	...........
	79	1.06667	2.91940E-001	-8.87936E-005	0.00000E+000	-2.59224E-005	-5.39641E-002	2.91975E-001	3.57310E+000	9	...........
	80	1.08	2.87149E-001	-8.88478E-005	0.00000E+000	-2.55126E-005	-5.39641E-002	2.87180E-001	3.57310E+000	9	...........
	81	1.09333	2.82365E-001	-8.87613E-005	0.00000E+000	-2.50631E-005	-5.39641E-002	2.82404E-001	3.57310E+000	9	...........
	82	1.10667	2.77611E-001	-8.86978E-005	0.00000E+000	-2.46235E-005	-5.39641E-002	2.77648E-001	3.57310E+000	9	...........
	83	1.12	2.72868E-001	-8.88843E-005	0.00000E+000	-2.42537E-005	-5.39641E-002	2.72904E-001	3.57310E+000	9	...........
	84	1.13333	2.68143E-001	-8.88478E-005	0.00000E+000	-2.38239E-005	-5.39641E-002	2.68175E-001	3.57310E+000	9	...........
	85	1.14667	2.63426E-001	-8.87874E-005	0.00000E+000	-2.33889E-005	-5.39641E-002	2.63461E-001	3.57310E+000	9	...........
	86	1.16	2.58734E-001	-8.87217E-005	0.00000E+000	-2.29553E-005	-5.39641E-002	2.58765E-001	3.57310E+000	9	...........
	87	1.17333	2.54066E-001	-8.89562E-005	0.00000E+000	-2.26007E-005	-5.39641E-002	2.54099E-001	3.57310E+000	9	...........
	88	1.18667	2.49409E-001	-8.87269E-005	0.00000E+000	-2.21293E-005	-5.39641E-002	2.49439E-001	3.57310E+000	9	...........
	89	1.2	2.44772E-001	-8.87322E-005	0.00000E+000	-2.17192E-005	-5.39641E-002	2.44797E-001	3.57310E+000	9	...........
	90	1.21333	2.40143E-001	-8.87009E-005	0.00000E+000	-2.13009E-005	-5.39641E-002	2.40170E-001	3.57310E+000	9	...........
	91	1.22667	2.35535E-001	-8.87176E-005	0.00000E+000	-2.08961E-005	-5.39641E-002	2.35560E-001	3.57310E+000	9	...........
	92	1.24	2.30954E-001	-8.89124E-005	0.00000E+000	-2.05347E-005	-5.39641E-002	2.30970E-001	3.57310E+000	9	...........
	93	1.25333	2.26368E-001	-8.86228E-005	0.00000E+000	-2.00614E-005	-5.39641E-002	2.26391E-001	3.57310E+000	9	...........
	94	1.26667	2.21812E-001	-8.90572E-005	0.00000E+000	-1.97539E-005	-5.39641E-002	2.21836E-001	3.57310E+000	9	...........
	95	1.28	2.17299E-001	-8.87436E-005	0.00000E+000	-1.92839E-005	-5.39641E-002	2.17320E-001	3.57310E+000	9	...........
	96	1.29333	2.12790E-001	-8.87030E-005	0.00000E+000	-1.88751E-005	-5.39641E-002	2.12814E-001	3.57310E+000	9	...........
	97	1.30667	2.08309E-001	-8.88603E-005	0.00000E+000	-1.85104E-005	-5.39641E-002	2.08328E-001	3.57310E+000	9	...........
	98	1.32	2.03839E-001	-8.88978E-005	0.00000E+000	-1.81209E-005	-5.39641E-002	2.03861E-001	3.57310E+000	9	...........
	99	1.33333	1.99393E-001	-8.87551E-005	0.00000E+000	-1.76971E-005	-5.39641E-002	1.99406E-001	3.57310E+000	9	...........
	100	1.34667	1.94961E-001	-8.88697E-005	0.00000E+000	-1.73261E-005	-5.39641E-002	1.94974E-001	3.57310E+000	9	...........
	101	1.36	1.90542E-001	-8.85530E-005	0.00000E+000	-1.68731E-005	-5.39641E-002	1.90562E-001	3.57310E+000	9	...........
	102	1.37333	1.86177E-001	-8.88228E-005	0.00000E+000	-1.65368E-005	-5.39641E-002	1.86186E-001	3.57310E+000	9	...........
	103	1.38667	1.81815E-001	-8.87072E-005	0.00000E+000	-1.61283E-005	-5.39641E-002	1.81831E-001	3.57310E+000	9	...........
	104	1.4	1.77470E-001	-8.87447E-005	0.00000E+000	-1.57495E-005	-5.39641E-002	1.77492E-001	3.57310E+000	9	...........
	105	1.41333	1.73143E-001	-8.88718E-005	0.00000E+000	-1.53875E-005	-5.39641E-002	1.73165E-001	3.57310E+000	9	...........
	106	1.42667	1.68844E-001	-8.88645E-005	0.00000E+000	-1.50043E-005	-5.39641E-002	1.68860E-001	3.57310E+000	9	...........
	107	1.44	1.64549E-001	-8.85102E-005	0.00000E+000	-1.45643E-005	-5.39641E-002	1.64563E-001	3.57307E+000	9	...........
	108	1.45333	1.60276E-001	-8.88603E-005	0.00000E+000	-1.42422E-005	-5.39641E-002	1.60285E-001	3.57300E+000	9	...........
	109	1.46667	1.56010E-001	-8.86717E-005	0.00000E+000	-1.38337E-005	-5.39641E-002	1.56016E-001	3.57300E+000	9	...........
	110	1.48	1.51754E-001	-8.87582E-005	0.00000E+000	-1.34694E-005	-5.39641E-002	1.51765E-001	3.57300E+000	9	...........
	111	1.49333	1.47519E-001	-8.89416E-005	0.00000E+000	-1.31206E-005	-5.39641E-002	1.47526E-001	3.57300E+000	9	...........
	112	1.50667	1.43299E-001	-8.86561E-005	0.00000E+000	-1.27043E-005	-5.39641E-002	1.43305E-001	3.57300E+000	9	...........
	113	1.52	1.39093E-001	-8.86415E-005	0.00000E+000	-1.23294E-005	-5.39641E-002	1.39103E-001	3.57300E+000	9	...........
	114	1.53333	1.34913E-001	-8.89666E-005	0.00000E+000	-1.20027E-005	-5.39641E-002	1.34925E-001	3.57300E+000	9	...........
	115	1.54667	1.30764E-001	-8.88645E-005	0.00000E+000	-1.16203E-005	-5.39641E-002	1.30771E-001	3.57300E+000	9	...........
	116	1.56	1.26641E-001	-8.86405E-005	0.00000E+000	-1.12255E-005	-5.39641E-002	1.26650E-001	3.57300E+000	9	...........
	117	1.57333	1.22538E-001	-8.87426E-005	0.00000E+000	-1.08743E-005	-5.39641E-002	1.22544E-001	3.57300E+000	9	...........
	118	1.58667	1.18446E-001	-8.87832E-005	0.00000E+000	-1.05160E-005	-5.39641E-002	1.18458E-001	3.57300E+000	9	...........
	119	1.6	1.14373E-001	-8.86436E-005	0.00000E+000	-1.01384E-005	-5.39641E-002	1.14386E-001	3.57300E+000	9	...........
	120	1.61333	1.10308E-001	-8.86426E-005	0.00000E+000	-9.77796E-006	-5.39641E-002	1.10320E-001	3.57300E+000	9	...........
	121	1.62667	1.06255E-001	-8.86884E-005	0.00000E+000	-9.42358E-006	-5.39641E-002	1.06269E-001	3.57300E+000	9	...........
	122	1.64	1.02226E-001	-8.89353E-005	0.00000E+000	-9.09152E-006	-5.39641E-002	1.02234E-001	3.57300E+000	9	...........
	123	1.65333	9.82196E-002	-8.90551E-005	0.00000E+000	-8.74696E-006	-5.39641E-002	9.82276E-002	3.57300E+000	9	...........
	124	1.66667	9.42415E-002	-8.89249E-005	0.00000E+000	-8.38041E-006	-5.39641E-002	9.42490E-002	3.57300E+000	9	...........
	125	1.68	9.02660E-002	-8.89249E-005	0.00000E+000	-8.02690E-006	-5.39641E-002	9.02809E-002	3.57300E+000	9	...........
	126	1.69333	8.63155E-002	-8.87853E-005	0.00000E+000	-7.66355E-006	-5.39641E-002	8.63209E-002	3.57300E+000	9	...........
	127	1.70667	8.23715E-002	-8.88624E-005	0.00000E+000	-7.31973E-006	-5.39641E-002	8.23778E-002	3.57300E+000	9	...........
	128	1.72	7.84552E-002	-8.90135E-005	0.00000E+000	-6.98357E-006	-5.39641E-002	7.84535E-002	3.57300E+000	9	...........
	129	1.73333	7.45454E-002	-8.87530E-005	0.00000E+000	-6.61613E-006	-5.39641E-002	7.45445E-002	3.57300E+000	9	...........
	130	1.74667	7.06583E-002	-8.89270E-005	0.00000E+000	-6.28343E-006	-5.39641E-002	7.06582E-002	3.57300E+000	9	...........
	131	1.76	6.67923E-002	-8.87259E-005	0.00000E+000	-5.92621E-006	-5.39641E-002	6.67932E-002	3.57300E+000	9	...........
	132	1.77333	6.29454E-002	-8.86603E-005	0.00000E+000	-5.58075E-006	-5.39641E-002	6.29507E-002	3.57300E+000	9	...........
	133	1.78667	5.91249E-002	-8.89385E-005	0.00000E+000	-5.25848E-006	-5.39641E-002	5.91231E-002	3.57300E+000	9	...........
	134	1.8	5.53181E-002	-8.89176E-005	0.00000E+000	-4.91875E-006	-5.39641E-002	5.53184E-002	3.57300E+000	9	...........
	135	1.81333	5.15200E-002	-8.87457E-005	0.00000E+000	-4.57218E-006	-5.39641E-002	5.15176E-002	3.57300E+000	9	...........
	136	1.82667	4.77453E-002	-8.87509E-005	0.00000E+000	-4.23744E-006	-5.39641E-002	4.77479E-002	3.57300E+000	9	...........
	137	1.84	4.39844E-002	-8.89739E-005	0.00000E+000	-3.91346E-006	-5.39641E-002	4.39964E-002	3.57300E+000	9	...........
	138	1.85333	4.02436E-002	-8.87738E-005	0.00000E+000	-3.57258E-006	-5.39641E-002	4.02511E-002	3.57300E+000	9	...........
	139	1.86667	3.65254E-002	-8.90510E-005	0.00000E+000	-3.25262E-006	-5.39641E-002	3.65272E-002	3.57300E+000	9	...........
	140	1.88	3.28199E-002	-8.90687E-005	0.00000E+000	-2.92322E-006	-5.39641E-002	3.28211E-002	3.57300E+000	9	...........
	141	1.89333	2.91479E-002	-8.87947E-005	0.00000E+000	-2.58818E-006	-5.39641E-002	2.91483E-002	3.57300E+000	9	...........
	142	1.90667	2.54752E-002	-8.87676E-005	0.00000E+000	-2.26137E-006	-5.39641E-002	2.54710E-002	3.57300E+000	9	...........
	143	1.92	2.18168E-002	-8.88228E-005	0.00000E+000	-1.93783E-006	-5.39641E-002	2.18143E-002	3.57300E+000	9	...........
	144	1.93333	1.81984E-002	-8.90270E-005	0.00000E+000	-1.62015E-006	-5.39641E-002	1.81944E-002	3.57300E+000	9	...........
	145	1.94667	1.46037E-002	-8.87342E-005	0.00000E+000	-1.29585E-006	-5.39641E-002	1.45932E-002	3.57300E+000	9	...........
	146	1.96	1.10301E-002	-8.87488E-005	0.00000E+000	-9.78906E-007	-5.39641E-002	1.10217E-002	3.57300E+000	9	...........
	147	1.97333	7.47120E-003	-8.89999E-005	0.00000E+000	-6.64936E-007	-5.39641E-002	7.46080E-003	3.57300E+000	9	...........
	148	1.98667	3.93832E-003	-8.87447E-005	0.00000E+000	-3.49505E-007	-5.39641E-002	3.92067E-003	3.57300E+000	9	...........
	149	1.99667	8.47166E-004	-8.84873E-005	0.00000E+000	-7.49634E-008	-5.39641E-002	8.37708E-004	3.57300E+000	9	...........
STARTTIMEOFFSET	QUANT	2716.082	Start Time Offset (s)
