EXPLAIN
TAG	PWR800_DISCHARGE
TITLE	LABEL	PWR Cyclic Charge Discharge (Cell) - Discharge Step	Test &Identifier
DATE	LABEL	10-7-2017	Date
TIME	LABEL	15:24:31	Time
NOTES	NOTES	3	&Notes...
	supercap test cell
	0.9mg
	6M KOH
PSTAT	PSTAT	IFC5000-01520	Potentiostat
CAPACITY	QUANT	1.00000E-003	Capacity (A-hr)
CELLTYPE	SELECTOR	1	&Cell Type
WORKINGCONNECTION	SELECTOR	0	&Working Lead
MAXDISCHARGETIME	VARIABLEANDUNITS	1.00000E+002	s	1.00000E+002	second(s)	Max &Discharge Time
DISCHARGEMODE	MULTIPARAM	0	9.00000E-005	&Discharge Mode	Constant Current	Amp(s)
SAMPLETIME	QUANT	1.00000E-002	Sa&mple Period (s)
DISCHARGESTOPAT1	MULTIPARAM	3	0.00000E+000	Discharge Stop At &1	Voltage < Limit	V
DISCHARGESTOPAT2	MULTIPARAM	0	0.00000E+000	Discharge Stop At &2	None	N/A
AESBHCSELECTOR	TOGGLE	F	Save Both Half Cells
IRCOMP	TOGGLE	F	IR &Measure
EOC	QUANT	0	Open Circuit (V)
SEQUENCER	TOGGLE	TRUE	Run as Sequence
PSTATMODEL	IQUANT	53	Pstat Model
PSTATSECTION	LABEL	IFC5000-01520	Pstat Section
PSTATSERIALNO	LABEL	01520	Pstat Serial Number
CTRLMODE	IQUANT	0	Control Mode
ELECTROMETER	IQUANT	1	RE=0 or CS=1
IESTAB	IQUANT	0	I/E Stability
CASPEED	IQUANT	4	Control Amp Speed
CONVENTION	IQUANT	1	Current Convention
ICHRANGE	IQUANT	2	Ich Range
ICHRANGEMODE	TOGGLE	T	Ich Auto Range
ICHOFFSETENABLE	TOGGLE	F	Ich Offset Enable
ICHOFFSET	QUANT	0	Ich Offset (V)
ICHFILTER	IQUANT	1	Ich Filter
VCHRANGE	IQUANT	2	Vch Range
VCHRANGEMODE	TOGGLE	T	Vch Auto Range
VCHOFFSETENABLE	TOGGLE	F	Vch Offset Enable
VCHOFFSET	QUANT	0	Vch Offset (V)
VCHFILTER	IQUANT	1	Vch Filter
IERANGELOWERLIMIT	IQUANT	9	I/E Range Lower Limit
IERANGEMODE	TOGGLE	F	I/E AutoRange
IERANGE	IQUANT	9	I/E Range
ACHSELECT	IQUANT	1	Ach Select
ACHRANGE	IQUANT	2	Ach Range
ACHOFFSETENABLE	TOGGLE	F	Ach Offset Enable
ACHOFFSET	QUANT	0	Ach Offset (V)
ACHFILTER	IQUANT	1	Ach Filter
CABLEID	IQUANT	14	Cable ID
DCCALDATE	LABEL	5-7-2017	DC Calibration Date
ACCALDATE	LABEL	12/3/2015	AC Calibration Date
FRAMEWORKVERSION	QUANT	7.01	Framework Version
INSTRUMENTVERSION	LABEL	4.00	Instrument Version
CURVE	TABLE	157
	Pt	T	Vf	Im	Vu	Pwr	Sig	Ach	Temp	IERange	Over
	#	s	V	A	V	W	V	V	deg C	#	bits
	0	0.013333	8.22202E-001	-8.87686E-005	0.00000E+000	-7.29857E-005	-5.39641E-002	8.22320E-001	3.57220E+000	9	...........
	1	0.026667	8.09274E-001	-8.86603E-005	0.00000E+000	-7.17505E-005	-5.39641E-002	8.09416E-001	3.57220E+000	9	...........
	2	0.04	7.97249E-001	-8.88676E-005	0.00000E+000	-7.08496E-005	-5.39641E-002	7.97320E-001	3.57220E+000	9	...........
	3	0.053333	7.85752E-001	-8.88624E-005	0.00000E+000	-6.98238E-005	-5.39641E-002	7.85867E-001	3.57220E+000	9	...........
	4	0.066667	7.74820E-001	-8.87749E-005	0.00000E+000	-6.87846E-005	-5.39641E-002	7.74922E-001	3.57220E+000	9	...........
	5	0.08	7.64338E-001	-8.85832E-005	0.00000E+000	-6.77074E-005	-5.39641E-002	7.64460E-001	3.57220E+000	9	...........
	6	0.093333	7.54268E-001	-8.86165E-005	0.00000E+000	-6.68406E-005	-5.39641E-002	7.54376E-001	3.57220E+000	9	...........
	7	0.106667	7.44529E-001	-8.87238E-005	0.00000E+000	-6.60575E-005	-5.39641E-002	7.44649E-001	3.57220E+000	9	...........
	8	0.12	7.35096E-001	-8.87822E-005	0.00000E+000	-6.52634E-005	-5.39641E-002	7.35209E-001	3.57220E+000	9	...........
	9	0.133333	7.25955E-001	-8.87051E-005	0.00000E+000	-6.43959E-005	-5.39641E-002	7.26081E-001	3.57220E+000	9	...........
	10	0.146667	7.17069E-001	-8.86655E-005	0.00000E+000	-6.35793E-005	-5.39641E-002	7.17205E-001	3.57220E+000	9	...........
	11	0.16	7.08412E-001	-8.85363E-005	0.00000E+000	-6.27202E-005	-5.39641E-002	7.08531E-001	3.57220E+000	9	...........
	12	0.173333	6.99986E-001	-8.89760E-005	0.00000E+000	-6.22820E-005	-5.39641E-002	7.00114E-001	3.57220E+000	9	...........
	13	0.186667	6.91765E-001	-8.88134E-005	0.00000E+000	-6.14380E-005	-5.39641E-002	6.91885E-001	3.57220E+000	9	...........
	14	0.2	6.83728E-001	-8.88593E-005	0.00000E+000	-6.07556E-005	-5.39641E-002	6.83845E-001	3.57220E+000	9	...........
	15	0.213333	6.75901E-001	-8.88447E-005	0.00000E+000	-6.00502E-005	-5.39641E-002	6.76000E-001	3.57220E+000	9	...........
	16	0.226667	6.68211E-001	-8.87436E-005	0.00000E+000	-5.92995E-005	-5.39641E-002	6.68307E-001	3.57220E+000	9	...........
	17	0.24	6.60638E-001	-8.87780E-005	0.00000E+000	-5.86501E-005	-5.39641E-002	6.60742E-001	3.57220E+000	9	...........
	18	0.253333	6.53254E-001	-8.85488E-005	0.00000E+000	-5.78449E-005	-5.39641E-002	6.53333E-001	3.57220E+000	9	...........
	19	0.266667	6.45971E-001	-8.89260E-005	0.00000E+000	-5.74436E-005	-5.39641E-002	6.46092E-001	3.57220E+000	9	...........
	20	0.28	6.38840E-001	-8.86717E-005	0.00000E+000	-5.66471E-005	-5.39641E-002	6.38931E-001	3.57220E+000	9	...........
	21	0.293333	6.31794E-001	-8.86009E-005	0.00000E+000	-5.59775E-005	-5.39641E-002	6.31876E-001	3.57220E+000	9	...........
	22	0.306667	6.24895E-001	-8.87759E-005	0.00000E+000	-5.54756E-005	-5.39641E-002	6.25007E-001	3.57220E+000	9	...........
	23	0.32	6.18096E-001	-8.86290E-005	0.00000E+000	-5.47812E-005	-5.39641E-002	6.18172E-001	3.57220E+000	9	...........
	24	0.333333	6.11330E-001	-8.87728E-005	0.00000E+000	-5.42695E-005	-5.39641E-002	6.11467E-001	3.57220E+000	9	...........
	25	0.346667	6.04722E-001	-8.86811E-005	0.00000E+000	-5.36275E-005	-5.39641E-002	6.04855E-001	3.57220E+000	9	...........
	26	0.36	5.98216E-001	-8.88207E-005	0.00000E+000	-5.31340E-005	-5.39641E-002	5.98345E-001	3.57220E+000	9	...........
	27	0.373333	5.91799E-001	-8.86936E-005	0.00000E+000	-5.24888E-005	-5.39641E-002	5.91922E-001	3.57220E+000	9	...........
	28	0.386667	5.85413E-001	-8.88332E-005	0.00000E+000	-5.20041E-005	-5.39641E-002	5.85541E-001	3.57220E+000	9	...........
	29	0.4	5.79153E-001	-8.89718E-005	0.00000E+000	-5.15283E-005	-5.39641E-002	5.79275E-001	3.57220E+000	9	...........
	30	0.413333	5.72966E-001	-8.86050E-005	0.00000E+000	-5.07677E-005	-5.39641E-002	5.73081E-001	3.57220E+000	9	...........
	31	0.426667	5.66825E-001	-8.87072E-005	0.00000E+000	-5.02814E-005	-5.39641E-002	5.66939E-001	3.57220E+000	9	...........
	32	0.44	5.60721E-001	-8.87467E-005	0.00000E+000	-4.97622E-005	-5.39641E-002	5.60870E-001	3.57220E+000	9	...........
	33	0.453333	5.54721E-001	-8.86707E-005	0.00000E+000	-4.91875E-005	-5.39641E-002	5.54840E-001	3.57220E+000	9	...........
	34	0.466667	5.48748E-001	-8.87697E-005	0.00000E+000	-4.87122E-005	-5.39641E-002	5.48870E-001	3.57220E+000	9	...........
	35	0.48	5.42828E-001	-8.87436E-005	0.00000E+000	-4.81726E-005	-5.39641E-002	5.42949E-001	3.57220E+000	9	...........
	36	0.493333	5.36969E-001	-8.87384E-005	0.00000E+000	-4.76497E-005	-5.39641E-002	5.37086E-001	3.57220E+000	9	...........
	37	0.506667	5.31146E-001	-8.87603E-005	0.00000E+000	-4.71447E-005	-5.39641E-002	5.31291E-001	3.57220E+000	9	...........
	38	0.52	5.25422E-001	-8.85884E-005	0.00000E+000	-4.65463E-005	-5.39641E-002	5.25514E-001	3.57220E+000	9	...........
	39	0.533333	5.19750E-001	-8.88124E-005	0.00000E+000	-4.61602E-005	-5.39641E-002	5.19846E-001	3.57220E+000	9	...........
	40	0.546667	5.14105E-001	-8.85488E-005	0.00000E+000	-4.55234E-005	-5.39641E-002	5.14171E-001	3.57220E+000	9	...........
	41	0.56	5.08413E-001	-8.89603E-005	0.00000E+000	-4.52286E-005	-5.39641E-002	5.08540E-001	3.57220E+000	9	...........
	42	0.573333	5.02819E-001	-8.87645E-005	0.00000E+000	-4.46324E-005	-5.39641E-002	5.02941E-001	3.57220E+000	9	...........
	43	0.586667	4.97268E-001	-8.86071E-005	0.00000E+000	-4.40615E-005	-5.39641E-002	4.97395E-001	3.57220E+000	9	...........
	44	0.6	4.91787E-001	-8.89624E-005	0.00000E+000	-4.37506E-005	-5.39641E-002	4.91891E-001	3.57220E+000	9	...........
	45	0.613333	4.86351E-001	-8.86717E-005	0.00000E+000	-4.31256E-005	-5.39641E-002	4.86440E-001	3.57220E+000	9	...........
	46	0.626667	4.80989E-001	-8.88676E-005	0.00000E+000	-4.27443E-005	-5.39641E-002	4.81053E-001	3.57220E+000	9	...........
	47	0.64	4.75549E-001	-8.88666E-005	0.00000E+000	-4.22604E-005	-5.39641E-002	4.75616E-001	3.57220E+000	9	...........
	48	0.653333	4.70164E-001	-8.86676E-005	0.00000E+000	-4.16883E-005	-5.39641E-002	4.70226E-001	3.57317E+000	9	...........
	49	0.666667	4.64808E-001	-8.89259E-005	0.00000E+000	-4.13335E-005	-5.39641E-002	4.64862E-001	3.57350E+000	9	...........
	50	0.68	4.59473E-001	-8.86957E-005	0.00000E+000	-4.07533E-005	-5.39641E-002	4.59528E-001	3.57350E+000	9	...........
	51	0.693333	4.54155E-001	-8.88843E-005	0.00000E+000	-4.03672E-005	-5.39641E-002	4.54207E-001	3.57350E+000	9	...........
	52	0.706667	4.48862E-001	-8.87645E-005	0.00000E+000	-3.98430E-005	-5.39641E-002	4.48921E-001	3.57350E+000	9	...........
	53	0.72	4.43604E-001	-8.86499E-005	0.00000E+000	-3.93254E-005	-5.39641E-002	4.43663E-001	3.57350E+000	9	...........
	54	0.733333	4.38359E-001	-8.87363E-005	0.00000E+000	-3.88983E-005	-5.39641E-002	4.38412E-001	3.57350E+000	9	...........
	55	0.746667	4.33125E-001	-8.87103E-005	0.00000E+000	-3.84226E-005	-5.39641E-002	4.33181E-001	3.57350E+000	9	...........
	56	0.76	4.27904E-001	-8.88999E-005	0.00000E+000	-3.80406E-005	-5.39641E-002	4.27958E-001	3.57350E+000	9	...........
	57	0.773333	4.22707E-001	-8.85029E-005	0.00000E+000	-3.74108E-005	-5.39641E-002	4.22756E-001	3.57350E+000	9	...........
	58	0.786667	4.17529E-001	-8.87113E-005	0.00000E+000	-3.70395E-005	-5.39641E-002	4.17583E-001	3.57350E+000	9	...........
	59	0.8	4.12375E-001	-8.87540E-005	0.00000E+000	-3.65999E-005	-5.39641E-002	4.12425E-001	3.57350E+000	9	...........
	60	0.813333	4.07224E-001	-8.88270E-005	0.00000E+000	-3.61724E-005	-5.39641E-002	4.07269E-001	3.57350E+000	9	...........
	61	0.826667	4.02102E-001	-8.88238E-005	0.00000E+000	-3.57163E-005	-5.39641E-002	4.02146E-001	3.57350E+000	9	...........
	62	0.84	3.96995E-001	-8.84790E-005	0.00000E+000	-3.51257E-005	-5.39641E-002	3.97036E-001	3.57350E+000	9	...........
	63	0.853333	3.91904E-001	-8.85696E-005	0.00000E+000	-3.47108E-005	-5.39641E-002	3.91943E-001	3.57350E+000	9	...........
	64	0.866667	3.86831E-001	-8.88624E-005	0.00000E+000	-3.43747E-005	-5.39641E-002	3.86876E-001	3.57350E+000	9	...........
	65	0.88	3.81777E-001	-8.88759E-005	0.00000E+000	-3.39308E-005	-5.39641E-002	3.81821E-001	3.57350E+000	9	...........
	66	0.893333	3.76719E-001	-8.87801E-005	0.00000E+000	-3.34451E-005	-5.39641E-002	3.76769E-001	3.57350E+000	9	...........
	67	0.906667	3.71683E-001	-8.88353E-005	0.00000E+000	-3.30186E-005	-5.39641E-002	3.71730E-001	3.57350E+000	9	...........
	68	0.92	3.66669E-001	-8.87561E-005	0.00000E+000	-3.25441E-005	-5.39641E-002	3.66712E-001	3.57350E+000	9	...........
	69	0.933333	3.61667E-001	-8.89051E-005	0.00000E+000	-3.21541E-005	-5.39641E-002	3.61709E-001	3.57350E+000	9	...........
	70	0.946667	3.56707E-001	-8.85602E-005	0.00000E+000	-3.15901E-005	-5.39641E-002	3.56748E-001	3.57350E+000	9	...........
	71	0.96	3.51754E-001	-8.88166E-005	0.00000E+000	-3.12416E-005	-5.39641E-002	3.51796E-001	3.57350E+000	9	...........
	72	0.97333	3.46801E-001	-8.88405E-005	0.00000E+000	-3.08100E-005	-5.39641E-002	3.46842E-001	3.57350E+000	9	...........
	73	0.98667	3.41879E-001	-8.90510E-005	0.00000E+000	-3.04447E-005	-5.39641E-002	3.41915E-001	3.57350E+000	9	...........
	74	1	3.36971E-001	-8.87311E-005	0.00000E+000	-2.98999E-005	-5.39641E-002	3.37012E-001	3.57350E+000	9	...........
	75	1.01333	3.32090E-001	-8.84561E-005	0.00000E+000	-2.93754E-005	-5.39641E-002	3.32126E-001	3.57350E+000	9	...........
	76	1.02667	3.27220E-001	-8.88218E-005	0.00000E+000	-2.90643E-005	-5.39641E-002	3.27261E-001	3.57350E+000	9	...........
	77	1.04	3.22375E-001	-8.88718E-005	0.00000E+000	-2.86500E-005	-5.39641E-002	3.22408E-001	3.57350E+000	9	...........
	78	1.05333	3.17569E-001	-8.86571E-005	0.00000E+000	-2.81548E-005	-5.39641E-002	3.17611E-001	3.57350E+000	9	...........
	79	1.06667	3.12782E-001	-8.88728E-005	0.00000E+000	-2.77978E-005	-5.39641E-002	3.12825E-001	3.57350E+000	9	...........
	80	1.08	3.08014E-001	-8.88551E-005	0.00000E+000	-2.73686E-005	-5.39641E-002	3.08050E-001	3.57350E+000	9	...........
	81	1.09333	3.03260E-001	-8.87843E-005	0.00000E+000	-2.69247E-005	-5.39641E-002	3.03299E-001	3.57350E+000	9	...........
	82	1.10667	2.98512E-001	-8.86853E-005	0.00000E+000	-2.64736E-005	-5.39641E-002	2.98547E-001	3.57350E+000	9	...........
	83	1.12	2.93806E-001	-8.88666E-005	0.00000E+000	-2.61095E-005	-5.39641E-002	2.93843E-001	3.57350E+000	9	...........
	84	1.13333	2.89127E-001	-8.85550E-005	0.00000E+000	-2.56036E-005	-5.39641E-002	2.89153E-001	3.57350E+000	9	...........
	85	1.14667	2.84449E-001	-8.86644E-005	0.00000E+000	-2.52205E-005	-5.39641E-002	2.84486E-001	3.57350E+000	9	...........
	86	1.16	2.79786E-001	-8.86905E-005	0.00000E+000	-2.48144E-005	-5.39641E-002	2.79823E-001	3.57350E+000	9	...........
	87	1.17333	2.75123E-001	-8.87905E-005	0.00000E+000	-2.44283E-005	-5.39641E-002	2.75159E-001	3.57350E+000	9	...........
	88	1.18667	2.70506E-001	-8.85342E-005	0.00000E+000	-2.39490E-005	-5.39641E-002	2.70537E-001	3.57350E+000	9	...........
	89	1.2	2.65917E-001	-8.87957E-005	0.00000E+000	-2.36123E-005	-5.39641E-002	2.65951E-001	3.57350E+000	9	...........
	90	1.21333	2.61324E-001	-8.86176E-005	0.00000E+000	-2.31579E-005	-5.39641E-002	2.61354E-001	3.57350E+000	9	...........
	91	1.22667	2.56745E-001	-8.87770E-005	0.00000E+000	-2.27931E-005	-5.39641E-002	2.56774E-001	3.57350E+000	9	...........
	92	1.24	2.52194E-001	-8.85300E-005	0.00000E+000	-2.23267E-005	-5.39641E-002	2.52224E-001	3.57350E+000	9	...........
	93	1.25333	2.47684E-001	-8.86196E-005	0.00000E+000	-2.19497E-005	-5.39641E-002	2.47713E-001	3.57350E+000	9	...........
	94	1.26667	2.43196E-001	-8.84936E-005	0.00000E+000	-2.15213E-005	-5.39641E-002	2.43224E-001	3.57350E+000	9	...........
	95	1.28	2.38769E-001	-8.87843E-005	0.00000E+000	-2.11990E-005	-5.39641E-002	2.38791E-001	3.57350E+000	9	...........
	96	1.29333	2.34333E-001	-8.89468E-005	0.00000E+000	-2.08432E-005	-5.39641E-002	2.34357E-001	3.57350E+000	9	...........
	97	1.30667	2.29932E-001	-8.86478E-005	0.00000E+000	-2.03829E-005	-5.39641E-002	2.29955E-001	3.57350E+000	9	...........
	98	1.32	2.25539E-001	-8.86040E-005	0.00000E+000	-1.99837E-005	-5.39641E-002	2.25560E-001	3.57350E+000	9	...........
	99	1.33333	2.21162E-001	-8.88113E-005	0.00000E+000	-1.96417E-005	-5.39641E-002	2.21187E-001	3.57350E+000	9	...........
	100	1.34667	2.16802E-001	-8.89718E-005	0.00000E+000	-1.92893E-005	-5.39641E-002	2.16819E-001	3.57350E+000	9	...........
	101	1.36	2.12448E-001	-8.88509E-005	0.00000E+000	-1.88762E-005	-5.39641E-002	2.12470E-001	3.57350E+000	9	...........
	102	1.37333	2.08115E-001	-8.87082E-005	0.00000E+000	-1.84615E-005	-5.39641E-002	2.08141E-001	3.57350E+000	9	...........
	103	1.38667	2.03830E-001	-8.88311E-005	0.00000E+000	-1.81064E-005	-5.39641E-002	2.03855E-001	3.57350E+000	9	...........
	104	1.4	1.99571E-001	-8.88603E-005	0.00000E+000	-1.77339E-005	-5.39641E-002	1.99593E-001	3.57350E+000	9	...........
	105	1.41333	1.95312E-001	-8.86936E-005	0.00000E+000	-1.73229E-005	-5.39641E-002	1.95330E-001	3.57350E+000	9	...........
	106	1.42667	1.91080E-001	-8.84488E-005	0.00000E+000	-1.69008E-005	-5.39641E-002	1.91097E-001	3.57350E+000	9	...........
	107	1.44	1.86864E-001	-8.90510E-005	0.00000E+000	-1.66404E-005	-5.39641E-002	1.86880E-001	3.57350E+000	9	...........
	108	1.45333	1.82672E-001	-8.88895E-005	0.00000E+000	-1.62376E-005	-5.39641E-002	1.82686E-001	3.57350E+000	9	...........
	109	1.46667	1.78477E-001	-8.89614E-005	0.00000E+000	-1.58776E-005	-5.39641E-002	1.78494E-001	3.57350E+000	9	...........
	110	1.48	1.74306E-001	-8.86259E-005	0.00000E+000	-1.54480E-005	-5.39641E-002	1.74327E-001	3.57350E+000	9	...........
	111	1.49333	1.70142E-001	-8.87728E-005	0.00000E+000	-1.51040E-005	-5.39641E-002	1.70161E-001	3.57350E+000	9	...........
	112	1.50667	1.66019E-001	-8.87811E-005	0.00000E+000	-1.47393E-005	-5.39641E-002	1.66027E-001	3.57350E+000	9	...........
	113	1.52	1.61904E-001	-8.86290E-005	0.00000E+000	-1.43494E-005	-5.39641E-002	1.61915E-001	3.57350E+000	9	...........
	114	1.53333	1.57804E-001	-8.88947E-005	0.00000E+000	-1.40279E-005	-5.39641E-002	1.57815E-001	3.57350E+000	9	...........
	115	1.54667	1.53731E-001	-8.87759E-005	0.00000E+000	-1.36476E-005	-5.39641E-002	1.53741E-001	3.57350E+000	9	...........
	116	1.56	1.49653E-001	-8.85894E-005	0.00000E+000	-1.32577E-005	-5.39641E-002	1.49668E-001	3.57350E+000	9	...........
	117	1.57333	1.45588E-001	-8.87749E-005	0.00000E+000	-1.29246E-005	-5.39641E-002	1.45595E-001	3.57350E+000	9	...........
	118	1.58667	1.41523E-001	-8.88989E-005	0.00000E+000	-1.25812E-005	-5.39641E-002	1.41533E-001	3.57350E+000	9	...........
	119	1.6	1.37499E-001	-8.86269E-005	0.00000E+000	-1.21862E-005	-5.39641E-002	1.37504E-001	3.57350E+000	9	...........
	120	1.61333	1.33494E-001	-8.88457E-005	0.00000E+000	-1.18604E-005	-5.39641E-002	1.33505E-001	3.57350E+000	9	...........
	121	1.62667	1.29500E-001	-8.90322E-005	0.00000E+000	-1.15297E-005	-5.39641E-002	1.29508E-001	3.57350E+000	9	...........
	122	1.64	1.25544E-001	-8.85342E-005	0.00000E+000	-1.11149E-005	-5.39641E-002	1.25551E-001	3.57350E+000	9	...........
	123	1.65333	1.21593E-001	-8.87447E-005	0.00000E+000	-1.07907E-005	-5.39641E-002	1.21608E-001	3.57282E+000	9	...........
	124	1.66667	1.17665E-001	-8.89145E-005	0.00000E+000	-1.04621E-005	-5.39641E-002	1.17674E-001	3.57260E+000	9	...........
	125	1.68	1.13735E-001	-8.86488E-005	0.00000E+000	-1.00825E-005	-5.39641E-002	1.13749E-001	3.57260E+000	9	...........
	126	1.69333	1.09834E-001	-8.87895E-005	0.00000E+000	-9.75214E-006	-5.39641E-002	1.09845E-001	3.57260E+000	9	...........
	127	1.70667	1.05944E-001	-8.87790E-005	0.00000E+000	-9.40557E-006	-5.39641E-002	1.05952E-001	3.57260E+000	9	...........
	128	1.72	1.02058E-001	-8.86790E-005	0.00000E+000	-9.05041E-006	-5.39641E-002	1.02067E-001	3.57260E+000	9	...........
	129	1.73333	9.82006E-002	-8.89082E-005	0.00000E+000	-8.73084E-006	-5.39641E-002	9.82113E-002	3.57260E+000	9	...........
	130	1.74667	9.43787E-002	-8.88582E-005	0.00000E+000	-8.38632E-006	-5.39641E-002	9.43834E-002	3.57260E+000	9	...........
	131	1.76	9.05730E-002	-8.87415E-005	0.00000E+000	-8.03759E-006	-5.39641E-002	9.05822E-002	3.57260E+000	9	...........
	132	1.77333	8.67811E-002	-8.85415E-005	0.00000E+000	-7.68372E-006	-5.39641E-002	8.67891E-002	3.57260E+000	9	...........
	133	1.78667	8.29792E-002	-8.84925E-005	0.00000E+000	-7.34304E-006	-5.39641E-002	8.29906E-002	3.57260E+000	9	...........
	134	1.8	7.92070E-002	-8.88780E-005	0.00000E+000	-7.03976E-006	-5.39641E-002	7.92088E-002	3.57260E+000	9	...........
	135	1.81333	7.54398E-002	-8.88280E-005	0.00000E+000	-6.70117E-006	-5.39641E-002	7.54418E-002	3.57260E+000	9	...........
	136	1.82667	7.16928E-002	-8.89249E-005	0.00000E+000	-6.37527E-006	-5.39641E-002	7.16942E-002	3.57260E+000	9	...........
	137	1.84	6.79682E-002	-8.87936E-005	0.00000E+000	-6.03515E-006	-5.39641E-002	6.79737E-002	3.57260E+000	9	...........
	138	1.85333	6.42439E-002	-8.89916E-005	0.00000E+000	-5.71716E-006	-5.39641E-002	6.42458E-002	3.57260E+000	9	...........
	139	1.86667	6.05331E-002	-8.87009E-005	0.00000E+000	-5.36934E-006	-5.39641E-002	6.05371E-002	3.57260E+000	9	...........
	140	1.88	5.68383E-002	-8.86644E-005	0.00000E+000	-5.03953E-006	-5.39641E-002	5.68377E-002	3.57260E+000	9	...........
	141	1.89333	5.31653E-002	-8.87811E-005	0.00000E+000	-4.72007E-006	-5.39641E-002	5.31644E-002	3.57260E+000	9	...........
	142	1.90667	4.95044E-002	-8.85415E-005	0.00000E+000	-4.38320E-006	-5.39641E-002	4.95031E-002	3.57260E+000	9	...........
	143	1.92	4.58648E-002	-8.87478E-005	0.00000E+000	-4.07040E-006	-5.39641E-002	4.58684E-002	3.57260E+000	9	...........
	144	1.93333	4.22307E-002	-8.85425E-005	0.00000E+000	-3.73921E-006	-5.39641E-002	4.22320E-002	3.57260E+000	9	...........
	145	1.94667	3.86164E-002	-8.88884E-005	0.00000E+000	-3.43255E-006	-5.39641E-002	3.86243E-002	3.57260E+000	9	...........
	146	1.96	3.50338E-002	-8.86176E-005	0.00000E+000	-3.10461E-006	-5.39641E-002	3.50300E-002	3.57260E+000	9	...........
	147	1.97333	3.14534E-002	-8.84154E-005	0.00000E+000	-2.78097E-006	-5.39641E-002	3.14536E-002	3.57260E+000	9	...........
	148	1.98667	2.78921E-002	-8.88436E-005	0.00000E+000	-2.47804E-006	-5.39641E-002	2.78922E-002	3.57260E+000	9	...........
	149	2	2.43371E-002	-8.88989E-005	0.00000E+000	-2.16354E-006	-5.39641E-002	2.43356E-002	3.57260E+000	9	...........
	150	2.01333	2.08268E-002	-8.88020E-005	0.00000E+000	-1.84946E-006	-5.39641E-002	2.08228E-002	3.57260E+000	9	...........
	151	2.02667	1.73226E-002	-8.87895E-005	0.00000E+000	-1.53807E-006	-5.39641E-002	1.73228E-002	3.57260E+000	9	...........
	152	2.04	1.38295E-002	-8.86009E-005	0.00000E+000	-1.22531E-006	-5.39641E-002	1.38242E-002	3.57260E+000	9	...........
	153	2.05333	1.03537E-002	-8.90333E-005	0.00000E+000	-9.21824E-007	-5.39641E-002	1.03430E-002	3.57260E+000	9	...........
	154	2.06667	6.90890E-003	-8.87978E-005	0.00000E+000	-6.13496E-007	-5.39641E-002	6.89469E-003	3.57260E+000	9	...........
	155	2.08	3.44829E-003	-8.88416E-005	0.00000E+000	-3.06352E-007	-5.39641E-002	3.43612E-003	3.57260E+000	9	...........
	156	2.08833	6.41733E-004	-8.86915E-005	0.00000E+000	-5.69163E-008	-5.39641E-002	6.26513E-004	3.57260E+000	9	...........
STARTTIMEOFFSET	QUANT	1281.184	Start Time Offset (s)
