EXPLAIN
TAG	PWR800_DISCHARGE
TITLE	LABEL	PWR Cyclic Charge Discharge (Cell) - Discharge Step	Test &Identifier
DATE	LABEL	10-7-2017	Date
TIME	LABEL	15:08:18	Time
NOTES	NOTES	3	&Notes...
	supercap test cell
	0.9mg
	6M KOH
PSTAT	PSTAT	IFC5000-01520	Potentiostat
CAPACITY	QUANT	1.00000E-003	Capacity (A-hr)
CELLTYPE	SELECTOR	1	&Cell Type
WORKINGCONNECTION	SELECTOR	0	&Working Lead
MAXDISCHARGETIME	VARIABLEANDUNITS	1.00000E+002	s	1.00000E+002	second(s)	Max &Discharge Time
DISCHARGEMODE	MULTIPARAM	0	9.00000E-005	&Discharge Mode	Constant Current	Amp(s)
SAMPLETIME	QUANT	1.00000E-002	Sa&mple Period (s)
DISCHARGESTOPAT1	MULTIPARAM	3	0.00000E+000	Discharge Stop At &1	Voltage < Limit	V
DISCHARGESTOPAT2	MULTIPARAM	0	0.00000E+000	Discharge Stop At &2	None	N/A
AESBHCSELECTOR	TOGGLE	F	Save Both Half Cells
IRCOMP	TOGGLE	F	IR &Measure
EOC	QUANT	0	Open Circuit (V)
SEQUENCER	TOGGLE	TRUE	Run as Sequence
PSTATMODEL	IQUANT	53	Pstat Model
PSTATSECTION	LABEL	IFC5000-01520	Pstat Section
PSTATSERIALNO	LABEL	01520	Pstat Serial Number
CTRLMODE	IQUANT	0	Control Mode
ELECTROMETER	IQUANT	1	RE=0 or CS=1
IESTAB	IQUANT	0	I/E Stability
CASPEED	IQUANT	4	Control Amp Speed
CONVENTION	IQUANT	1	Current Convention
ICHRANGE	IQUANT	2	Ich Range
ICHRANGEMODE	TOGGLE	T	Ich Auto Range
ICHOFFSETENABLE	TOGGLE	F	Ich Offset Enable
ICHOFFSET	QUANT	0	Ich Offset (V)
ICHFILTER	IQUANT	1	Ich Filter
VCHRANGE	IQUANT	2	Vch Range
VCHRANGEMODE	TOGGLE	T	Vch Auto Range
VCHOFFSETENABLE	TOGGLE	F	Vch Offset Enable
VCHOFFSET	QUANT	0	Vch Offset (V)
VCHFILTER	IQUANT	1	Vch Filter
IERANGELOWERLIMIT	IQUANT	9	I/E Range Lower Limit
IERANGEMODE	TOGGLE	F	I/E AutoRange
IERANGE	IQUANT	9	I/E Range
ACHSELECT	IQUANT	1	Ach Select
ACHRANGE	IQUANT	2	Ach Range
ACHOFFSETENABLE	TOGGLE	F	Ach Offset Enable
ACHOFFSET	QUANT	0	Ach Offset (V)
ACHFILTER	IQUANT	1	Ach Filter
CABLEID	IQUANT	14	Cable ID
DCCALDATE	LABEL	5-7-2017	DC Calibration Date
ACCALDATE	LABEL	12/3/2015	AC Calibration Date
FRAMEWORKVERSION	QUANT	7.01	Framework Version
INSTRUMENTVERSION	LABEL	4.00	Instrument Version
CURVE	TABLE	165
	Pt	T	Vf	Im	Vu	Pwr	Sig	Ach	Temp	IERange	Over
	#	s	V	A	V	W	V	V	deg C	#	bits
	0	0.013333	8.39899E-001	-8.86707E-005	0.00000E+000	-7.44745E-005	-5.39641E-002	8.40051E-001	3.57200E+000	9	...........
	1	0.026667	8.28207E-001	-8.85769E-005	0.00000E+000	-7.33601E-005	-5.39641E-002	8.28342E-001	3.57200E+000	9	...........
	2	0.04	8.17213E-001	-8.85561E-005	0.00000E+000	-7.23692E-005	-5.39641E-002	8.17322E-001	3.57200E+000	9	...........
	3	0.053333	8.06702E-001	-8.86947E-005	0.00000E+000	-7.15502E-005	-5.39641E-002	8.06812E-001	3.57200E+000	9	...........
	4	0.066667	7.96606E-001	-8.86176E-005	0.00000E+000	-7.05933E-005	-5.39641E-002	7.96700E-001	3.57200E+000	9	...........
	5	0.08	7.86855E-001	-8.85894E-005	0.00000E+000	-6.97070E-005	-5.39641E-002	7.86956E-001	3.57200E+000	9	...........
	6	0.093333	7.77444E-001	-8.87238E-005	0.00000E+000	-6.89778E-005	-5.39641E-002	7.77517E-001	3.57200E+000	9	...........
	7	0.106667	7.68268E-001	-8.86186E-005	0.00000E+000	-6.80828E-005	-5.39641E-002	7.68359E-001	3.57200E+000	9	...........
	8	0.12	7.59373E-001	-8.86624E-005	0.00000E+000	-6.73278E-005	-5.39641E-002	7.59457E-001	3.57200E+000	9	...........
	9	0.133333	7.50705E-001	-8.85800E-005	0.00000E+000	-6.64975E-005	-5.39641E-002	7.50780E-001	3.57162E+000	9	...........
	10	0.146667	7.42247E-001	-8.86853E-005	0.00000E+000	-6.58264E-005	-5.39641E-002	7.42340E-001	3.57140E+000	9	...........
	11	0.16	7.33989E-001	-8.87092E-005	0.00000E+000	-6.51116E-005	-5.39641E-002	7.34076E-001	3.57140E+000	9	...........
	12	0.173333	7.25898E-001	-8.85832E-005	0.00000E+000	-6.43024E-005	-5.39641E-002	7.25989E-001	3.57140E+000	9	...........
	13	0.186667	7.17998E-001	-8.85102E-005	0.00000E+000	-6.35502E-005	-5.39641E-002	7.18118E-001	3.57140E+000	9	...........
	14	0.2	7.10190E-001	-8.86186E-005	0.00000E+000	-6.29361E-005	-5.39641E-002	7.10298E-001	3.57140E+000	9	...........
	15	0.213333	7.02590E-001	-8.84998E-005	0.00000E+000	-6.21791E-005	-5.39641E-002	7.02670E-001	3.57140E+000	9	...........
	16	0.226667	6.95101E-001	-8.84748E-005	0.00000E+000	-6.14989E-005	-5.39641E-002	6.95229E-001	3.57140E+000	9	...........
	17	0.24	6.87734E-001	-8.87999E-005	0.00000E+000	-6.10707E-005	-5.39641E-002	6.87857E-001	3.57140E+000	9	...........
	18	0.253333	6.80509E-001	-8.84498E-005	0.00000E+000	-6.01909E-005	-5.39641E-002	6.80632E-001	3.57140E+000	9	...........
	19	0.266667	6.73394E-001	-8.87186E-005	0.00000E+000	-5.97426E-005	-5.39641E-002	6.73507E-001	3.57140E+000	9	...........
	20	0.28	6.66383E-001	-8.86947E-005	0.00000E+000	-5.91046E-005	-5.39641E-002	6.66493E-001	3.57140E+000	9	...........
	21	0.293333	6.59440E-001	-8.83925E-005	0.00000E+000	-5.82896E-005	-5.39641E-002	6.59529E-001	3.57140E+000	9	...........
	22	0.306667	6.52633E-001	-8.87582E-005	0.00000E+000	-5.79265E-005	-5.39641E-002	6.52733E-001	3.57140E+000	9	...........
	23	0.32	6.45891E-001	-8.88166E-005	0.00000E+000	-5.73658E-005	-5.39641E-002	6.46016E-001	3.57140E+000	9	...........
	24	0.333333	6.39268E-001	-8.86384E-005	0.00000E+000	-5.66637E-005	-5.39641E-002	6.39402E-001	3.57140E+000	9	...........
	25	0.346667	6.32720E-001	-8.86571E-005	0.00000E+000	-5.60952E-005	-5.39641E-002	6.32831E-001	3.57140E+000	9	...........
	26	0.36	6.26269E-001	-8.87832E-005	0.00000E+000	-5.56022E-005	-5.39641E-002	6.26374E-001	3.57140E+000	9	...........
	27	0.373333	6.19869E-001	-8.87978E-005	0.00000E+000	-5.50430E-005	-5.39641E-002	6.19941E-001	3.57140E+000	9	...........
	28	0.386667	6.13511E-001	-8.86717E-005	0.00000E+000	-5.44011E-005	-5.39641E-002	6.13599E-001	3.57140E+000	9	...........
	29	0.4	6.07207E-001	-8.83883E-005	0.00000E+000	-5.36700E-005	-5.39641E-002	6.07350E-001	3.57140E+000	9	...........
	30	0.413333	6.01056E-001	-8.85436E-005	0.00000E+000	-5.32197E-005	-5.39641E-002	6.01176E-001	3.57140E+000	9	...........
	31	0.426667	5.94910E-001	-8.87530E-005	0.00000E+000	-5.28000E-005	-5.39641E-002	5.95026E-001	3.57140E+000	9	...........
	32	0.44	5.88814E-001	-8.85946E-005	0.00000E+000	-5.21658E-005	-5.39641E-002	5.88932E-001	3.57140E+000	9	...........
	33	0.453333	5.82778E-001	-8.86009E-005	0.00000E+000	-5.16346E-005	-5.39641E-002	5.82885E-001	3.57140E+000	9	...........
	34	0.466667	5.76786E-001	-8.86155E-005	0.00000E+000	-5.11122E-005	-5.39641E-002	5.76930E-001	3.57140E+000	9	...........
	35	0.48	5.70869E-001	-8.86342E-005	0.00000E+000	-5.05985E-005	-5.39641E-002	5.70996E-001	3.57140E+000	9	...........
	36	0.493333	5.65001E-001	-8.85623E-005	0.00000E+000	-5.00378E-005	-5.39641E-002	5.65142E-001	3.57140E+000	9	...........
	37	0.506667	5.59133E-001	-8.86988E-005	0.00000E+000	-4.95944E-005	-5.39641E-002	5.59261E-001	3.57140E+000	9	...........
	38	0.52	5.53368E-001	-8.87999E-005	0.00000E+000	-4.91391E-005	-5.39641E-002	5.53472E-001	3.57140E+000	9	...........
	39	0.533333	5.47641E-001	-8.85029E-005	0.00000E+000	-4.84679E-005	-5.39641E-002	5.47729E-001	3.57140E+000	9	...........
	40	0.546667	5.41948E-001	-8.86488E-005	0.00000E+000	-4.80430E-005	-5.39641E-002	5.42021E-001	3.57140E+000	9	...........
	41	0.56	5.36238E-001	-8.85780E-005	0.00000E+000	-4.74989E-005	-5.39641E-002	5.36321E-001	3.57140E+000	9	...........
	42	0.573333	5.30601E-001	-8.84988E-005	0.00000E+000	-4.69576E-005	-5.39641E-002	5.30664E-001	3.57140E+000	9	...........
	43	0.586667	5.24959E-001	-8.86915E-005	0.00000E+000	-4.65594E-005	-5.39641E-002	5.25050E-001	3.57140E+000	9	...........
	44	0.6	5.19375E-001	-8.84592E-005	0.00000E+000	-4.59435E-005	-5.39641E-002	5.19417E-001	3.57140E+000	9	...........
	45	0.613333	5.13805E-001	-8.85175E-005	0.00000E+000	-4.54808E-005	-5.39641E-002	5.13864E-001	3.57140E+000	9	...........
	46	0.626667	5.08179E-001	-8.86342E-005	0.00000E+000	-4.50421E-005	-5.39641E-002	5.08315E-001	3.57140E+000	9	...........
	47	0.64	5.02667E-001	-8.88853E-005	0.00000E+000	-4.46797E-005	-5.39641E-002	5.02765E-001	3.57140E+000	9	...........
	48	0.653333	4.97184E-001	-8.87488E-005	0.00000E+000	-4.41245E-005	-5.39641E-002	4.97309E-001	3.57140E+000	9	...........
	49	0.666667	4.91736E-001	-8.84790E-005	0.00000E+000	-4.35083E-005	-5.39641E-002	4.91825E-001	3.57140E+000	9	...........
	50	0.68	4.86323E-001	-8.86655E-005	0.00000E+000	-4.31201E-005	-5.39641E-002	4.86400E-001	3.57140E+000	9	...........
	51	0.693333	4.80965E-001	-8.88947E-005	0.00000E+000	-4.27552E-005	-5.39641E-002	4.81015E-001	3.57140E+000	9	...........
	52	0.706667	4.75595E-001	-8.84988E-005	0.00000E+000	-4.20896E-005	-5.39641E-002	4.75647E-001	3.57140E+000	9	...........
	53	0.72	4.70259E-001	-8.86811E-005	0.00000E+000	-4.17031E-005	-5.39641E-002	4.70306E-001	3.57140E+000	9	...........
	54	0.733333	4.64908E-001	-8.88259E-005	0.00000E+000	-4.12959E-005	-5.39641E-002	4.64952E-001	3.57140E+000	9	...........
	55	0.746667	4.59591E-001	-8.87415E-005	0.00000E+000	-4.07848E-005	-5.39641E-002	4.59638E-001	3.57140E+000	9	...........
	56	0.76	4.54320E-001	-8.85477E-005	0.00000E+000	-4.02290E-005	-5.39641E-002	4.54366E-001	3.57140E+000	9	...........
	57	0.773333	4.49064E-001	-8.87301E-005	0.00000E+000	-3.98455E-005	-5.39641E-002	4.49113E-001	3.57140E+000	9	...........
	58	0.786667	4.43851E-001	-8.86853E-005	0.00000E+000	-3.93630E-005	-5.39641E-002	4.43891E-001	3.57140E+000	9	...........
	59	0.8	4.38662E-001	-8.85571E-005	0.00000E+000	-3.88467E-005	-5.39641E-002	4.38704E-001	3.57140E+000	9	...........
	60	0.813333	4.33486E-001	-8.84269E-005	0.00000E+000	-3.83318E-005	-5.39641E-002	4.33529E-001	3.57140E+000	9	...........
	61	0.826667	4.28316E-001	-8.83831E-005	0.00000E+000	-3.78559E-005	-5.39641E-002	4.28358E-001	3.57140E+000	9	...........
	62	0.84	4.23174E-001	-8.86499E-005	0.00000E+000	-3.75143E-005	-5.39641E-002	4.23216E-001	3.57140E+000	9	...........
	63	0.853333	4.18038E-001	-8.87249E-005	0.00000E+000	-3.70904E-005	-5.39641E-002	4.18079E-001	3.57140E+000	9	...........
	64	0.866667	4.12904E-001	-8.89416E-005	0.00000E+000	-3.67244E-005	-5.39641E-002	4.12948E-001	3.57140E+000	9	...........
	65	0.88	4.07787E-001	-8.86999E-005	0.00000E+000	-3.61706E-005	-5.39641E-002	4.07831E-001	3.57140E+000	9	...........
	66	0.893333	4.02680E-001	-8.85738E-005	0.00000E+000	-3.56669E-005	-5.39641E-002	4.02708E-001	3.57140E+000	9	...........
	67	0.906667	3.97604E-001	-8.87863E-005	0.00000E+000	-3.53018E-005	-5.39641E-002	3.97648E-001	3.57140E+000	9	...........
	68	0.92	3.92566E-001	-8.85154E-005	0.00000E+000	-3.47482E-005	-5.39641E-002	3.92601E-001	3.57140E+000	9	...........
	69	0.933333	3.87544E-001	-8.85092E-005	0.00000E+000	-3.43012E-005	-5.39641E-002	3.87578E-001	3.57140E+000	9	...........
	70	0.946667	3.82536E-001	-8.88041E-005	0.00000E+000	-3.39708E-005	-5.39641E-002	3.82560E-001	3.57140E+000	9	...........
	71	0.96	3.77551E-001	-8.85957E-005	0.00000E+000	-3.34494E-005	-5.39641E-002	3.77583E-001	3.57140E+000	9	...........
	72	0.97333	3.72577E-001	-8.86644E-005	0.00000E+000	-3.30343E-005	-5.39641E-002	3.72606E-001	3.57140E+000	9	...........
	73	0.98667	3.67653E-001	-8.85082E-005	0.00000E+000	-3.25403E-005	-5.39641E-002	3.67676E-001	3.57140E+000	9	...........
	74	1	3.62749E-001	-8.85405E-005	0.00000E+000	-3.21179E-005	-5.39641E-002	3.62780E-001	3.57140E+000	9	...........
	75	1.01333	3.57864E-001	-8.86207E-005	0.00000E+000	-3.17141E-005	-5.39641E-002	3.57895E-001	3.57140E+000	9	...........
	76	1.02667	3.52996E-001	-8.86040E-005	0.00000E+000	-3.12769E-005	-5.39641E-002	3.53029E-001	3.57140E+000	9	...........
	77	1.04	3.48135E-001	-8.87749E-005	0.00000E+000	-3.09056E-005	-5.39641E-002	3.48167E-001	3.57140E+000	9	...........
	78	1.05333	3.43295E-001	-8.87019E-005	0.00000E+000	-3.04510E-005	-5.39641E-002	3.43327E-001	3.57140E+000	9	...........
	79	1.06667	3.38471E-001	-8.87613E-005	0.00000E+000	-3.00432E-005	-5.39641E-002	3.38500E-001	3.57140E+000	9	...........
	80	1.08	3.33673E-001	-8.85696E-005	0.00000E+000	-2.95533E-005	-5.39641E-002	3.33698E-001	3.57140E+000	9	...........
	81	1.09333	3.28892E-001	-8.87540E-005	0.00000E+000	-2.91905E-005	-5.39641E-002	3.28923E-001	3.57140E+000	9	...........
	82	1.10667	3.24154E-001	-8.86665E-005	0.00000E+000	-2.87416E-005	-5.39641E-002	3.24183E-001	3.57140E+000	9	...........
	83	1.12	3.19452E-001	-8.88676E-005	0.00000E+000	-2.83890E-005	-5.39641E-002	3.19477E-001	3.57140E+000	9	...........
	84	1.13333	3.14772E-001	-8.87718E-005	0.00000E+000	-2.79429E-005	-5.39641E-002	3.14800E-001	3.57152E+000	9	...........
	85	1.14667	3.10115E-001	-8.86446E-005	0.00000E+000	-2.74901E-005	-5.39641E-002	3.10142E-001	3.57160E+000	9	...........
	86	1.16	3.05481E-001	-8.87686E-005	0.00000E+000	-2.71171E-005	-5.39641E-002	3.05509E-001	3.57160E+000	9	...........
	87	1.17333	3.00867E-001	-8.87665E-005	0.00000E+000	-2.67070E-005	-5.39641E-002	3.00895E-001	3.57160E+000	9	...........
	88	1.18667	2.96281E-001	-8.86176E-005	0.00000E+000	-2.62557E-005	-5.39641E-002	2.96308E-001	3.57160E+000	9	...........
	89	1.2	2.91721E-001	-8.85425E-005	0.00000E+000	-2.58297E-005	-5.39641E-002	2.91743E-001	3.57160E+000	9	...........
	90	1.21333	2.87168E-001	-8.87905E-005	0.00000E+000	-2.54978E-005	-5.39641E-002	2.87191E-001	3.57160E+000	9	...........
	91	1.22667	2.82636E-001	-8.90249E-005	0.00000E+000	-2.51617E-005	-5.39641E-002	2.82660E-001	3.57160E+000	9	...........
	92	1.24	2.78132E-001	-8.87947E-005	0.00000E+000	-2.46966E-005	-5.39641E-002	2.78155E-001	3.57160E+000	9	...........
	93	1.25333	2.73664E-001	-8.86884E-005	0.00000E+000	-2.42708E-005	-5.39641E-002	2.73689E-001	3.57160E+000	9	...........
	94	1.26667	2.69200E-001	-8.87061E-005	0.00000E+000	-2.38797E-005	-5.39641E-002	2.69222E-001	3.57160E+000	9	...........
	95	1.28	2.64740E-001	-8.86738E-005	0.00000E+000	-2.34756E-005	-5.39641E-002	2.64766E-001	3.57160E+000	9	...........
	96	1.29333	2.60294E-001	-8.85082E-005	0.00000E+000	-2.30382E-005	-5.39641E-002	2.60317E-001	3.57160E+000	9	...........
	97	1.30667	2.55874E-001	-8.87686E-005	0.00000E+000	-2.27136E-005	-5.39641E-002	2.55894E-001	3.57160E+000	9	...........
	98	1.32	2.51478E-001	-8.87040E-005	0.00000E+000	-2.23071E-005	-5.39641E-002	2.51501E-001	3.57160E+000	9	...........
	99	1.33333	2.47107E-001	-8.87030E-005	0.00000E+000	-2.19191E-005	-5.39641E-002	2.47126E-001	3.57160E+000	9	...........
	100	1.34667	2.42757E-001	-8.87009E-005	0.00000E+000	-2.15327E-005	-5.39641E-002	2.42778E-001	3.57160E+000	9	...........
	101	1.36	2.38439E-001	-8.86415E-005	0.00000E+000	-2.11356E-005	-5.39641E-002	2.38459E-001	3.57160E+000	9	...........
	102	1.37333	2.34143E-001	-8.85196E-005	0.00000E+000	-2.07263E-005	-5.39641E-002	2.34167E-001	3.57160E+000	9	...........
	103	1.38667	2.29878E-001	-8.87467E-005	0.00000E+000	-2.04009E-005	-5.39641E-002	2.29901E-001	3.57160E+000	9	...........
	104	1.4	2.25618E-001	-8.86999E-005	0.00000E+000	-2.00123E-005	-5.39641E-002	2.25638E-001	3.57160E+000	9	...........
	105	1.41333	2.21382E-001	-8.86009E-005	0.00000E+000	-1.96146E-005	-5.39641E-002	2.21402E-001	3.57160E+000	9	...........
	106	1.42667	2.17177E-001	-8.87978E-005	0.00000E+000	-1.92849E-005	-5.39641E-002	2.17193E-001	3.57160E+000	9	...........
	107	1.44	2.12985E-001	-8.86217E-005	0.00000E+000	-1.88751E-005	-5.39641E-002	2.13002E-001	3.57160E+000	9	...........
	108	1.45333	2.08804E-001	-8.86676E-005	0.00000E+000	-1.85141E-005	-5.39641E-002	2.08817E-001	3.57160E+000	9	...........
	109	1.46667	2.04637E-001	-8.84217E-005	0.00000E+000	-1.80944E-005	-5.39641E-002	2.04655E-001	3.57160E+000	9	...........
	110	1.48	2.00515E-001	-8.85853E-005	0.00000E+000	-1.77627E-005	-5.39641E-002	2.00531E-001	3.57160E+000	9	...........
	111	1.49333	1.96394E-001	-8.86967E-005	0.00000E+000	-1.74195E-005	-5.39641E-002	1.96407E-001	3.57160E+000	9	...........
	112	1.50667	1.92280E-001	-8.87884E-005	0.00000E+000	-1.70722E-005	-5.39641E-002	1.92296E-001	3.57160E+000	9	...........
	113	1.52	1.88187E-001	-8.87113E-005	0.00000E+000	-1.66943E-005	-5.39641E-002	1.88205E-001	3.57160E+000	9	...........
	114	1.53333	1.84107E-001	-8.85509E-005	0.00000E+000	-1.63028E-005	-5.39641E-002	1.84118E-001	3.57160E+000	9	...........
	115	1.54667	1.80043E-001	-8.88811E-005	0.00000E+000	-1.60024E-005	-5.39641E-002	1.80054E-001	3.57160E+000	9	...........
	116	1.56	1.75997E-001	-8.87374E-005	0.00000E+000	-1.56176E-005	-5.39641E-002	1.76011E-001	3.57160E+000	9	...........
	117	1.57333	1.71978E-001	-8.87280E-005	0.00000E+000	-1.52593E-005	-5.39641E-002	1.71991E-001	3.57160E+000	9	...........
	118	1.58667	1.67970E-001	-8.86457E-005	0.00000E+000	-1.48898E-005	-5.39641E-002	1.67984E-001	3.57160E+000	9	...........
	119	1.6	1.63982E-001	-8.86196E-005	0.00000E+000	-1.45321E-005	-5.39641E-002	1.63992E-001	3.57160E+000	9	...........
	120	1.61333	1.60008E-001	-8.87447E-005	0.00000E+000	-1.41998E-005	-5.39641E-002	1.60015E-001	3.57160E+000	9	...........
	121	1.62667	1.56056E-001	-8.86665E-005	0.00000E+000	-1.38370E-005	-5.39641E-002	1.56064E-001	3.57160E+000	9	...........
	122	1.64	1.52106E-001	-8.83613E-005	0.00000E+000	-1.34403E-005	-5.39641E-002	1.52113E-001	3.57160E+000	9	...........
	123	1.65333	1.48164E-001	-8.87332E-005	0.00000E+000	-1.31471E-005	-5.39641E-002	1.48172E-001	3.57160E+000	9	...........
	124	1.66667	1.44241E-001	-8.85415E-005	0.00000E+000	-1.27713E-005	-5.39641E-002	1.44250E-001	3.57160E+000	9	...........
	125	1.68	1.40328E-001	-8.85373E-005	0.00000E+000	-1.24243E-005	-5.39641E-002	1.40333E-001	3.57160E+000	9	...........
	126	1.69333	1.36433E-001	-8.87478E-005	0.00000E+000	-1.21081E-005	-5.39641E-002	1.36438E-001	3.57160E+000	9	...........
	127	1.70667	1.32545E-001	-8.86957E-005	0.00000E+000	-1.17562E-005	-5.39641E-002	1.32553E-001	3.57160E+000	9	...........
	128	1.72	1.28681E-001	-8.85207E-005	0.00000E+000	-1.13909E-005	-5.39641E-002	1.28685E-001	3.57160E+000	9	...........
	129	1.73333	1.24835E-001	-8.88395E-005	0.00000E+000	-1.10903E-005	-5.39641E-002	1.24838E-001	3.57160E+000	9	...........
	130	1.74667	1.20989E-001	-8.88436E-005	0.00000E+000	-1.07491E-005	-5.39641E-002	1.20991E-001	3.57160E+000	9	...........
	131	1.76	1.17163E-001	-8.87165E-005	0.00000E+000	-1.03943E-005	-5.39641E-002	1.17164E-001	3.57160E+000	9	...........
	132	1.77333	1.13354E-001	-8.87582E-005	0.00000E+000	-1.00611E-005	-5.39641E-002	1.13355E-001	3.57160E+000	9	...........
	133	1.78667	1.09561E-001	-8.85759E-005	0.00000E+000	-9.70447E-006	-5.39641E-002	1.09560E-001	3.57160E+000	9	...........
	134	1.8	1.05782E-001	-8.86905E-005	0.00000E+000	-9.38188E-006	-5.39641E-002	1.05781E-001	3.57160E+000	9	...........
	135	1.81333	1.02004E-001	-8.87269E-005	0.00000E+000	-9.05049E-006	-5.39641E-002	1.02006E-001	3.57160E+000	9	...........
	136	1.82667	9.82398E-002	-8.86582E-005	0.00000E+000	-8.70976E-006	-5.39641E-002	9.82475E-002	3.57160E+000	9	...........
	137	1.84	9.45128E-002	-8.87634E-005	0.00000E+000	-8.38928E-006	-5.39641E-002	9.45189E-002	3.57160E+000	9	...........
	138	1.85333	9.07863E-002	-8.83831E-005	0.00000E+000	-8.02397E-006	-5.39641E-002	9.07899E-002	3.57160E+000	9	...........
	139	1.86667	8.70664E-002	-8.85123E-005	0.00000E+000	-7.70645E-006	-5.39641E-002	8.70651E-002	3.57160E+000	9	...........
	140	1.88	8.33846E-002	-8.85311E-005	0.00000E+000	-7.38213E-006	-5.39641E-002	8.33909E-002	3.57160E+000	9	...........
	141	1.89333	7.97412E-002	-8.86113E-005	0.00000E+000	-7.06597E-006	-5.39641E-002	7.97432E-002	3.57160E+000	9	...........
	142	1.90667	7.60820E-002	-8.86759E-005	0.00000E+000	-6.74664E-006	-5.39641E-002	7.60831E-002	3.57160E+000	9	...........
	143	1.92	7.24418E-002	-8.88176E-005	0.00000E+000	-6.43410E-006	-5.39641E-002	7.24425E-002	3.57160E+000	9	...........
	144	1.93333	6.88119E-002	-8.85602E-005	0.00000E+000	-6.09400E-006	-5.39641E-002	6.88039E-002	3.57160E+000	9	...........
	145	1.94667	6.52039E-002	-8.85759E-005	0.00000E+000	-5.77549E-006	-5.39641E-002	6.51990E-002	3.57160E+000	9	...........
	146	1.96	6.16032E-002	-8.85467E-005	0.00000E+000	-5.45476E-006	-5.39641E-002	6.15996E-002	3.57160E+000	9	...........
	147	1.97333	5.80077E-002	-8.88270E-005	0.00000E+000	-5.15265E-006	-5.39641E-002	5.80142E-002	3.57160E+000	9	...........
	148	1.98667	5.44182E-002	-8.84383E-005	0.00000E+000	-4.81266E-006	-5.39641E-002	5.44186E-002	3.57160E+000	9	...........
	149	2	5.08656E-002	-8.87467E-005	0.00000E+000	-4.51416E-006	-5.39641E-002	5.08606E-002	3.57160E+000	9	...........
	150	2.01333	4.73414E-002	-8.87155E-005	0.00000E+000	-4.19992E-006	-5.39641E-002	4.73471E-002	3.57160E+000	9	...........
	151	2.02667	4.38205E-002	-8.86905E-005	0.00000E+000	-3.88646E-006	-5.39641E-002	4.38310E-002	3.57160E+000	9	...........
	152	2.04	4.03345E-002	-8.88436E-005	0.00000E+000	-3.58346E-006	-5.39641E-002	4.03398E-002	3.57160E+000	9	...........
	153	2.05333	3.68612E-002	-8.88926E-005	0.00000E+000	-3.27669E-006	-5.39641E-002	3.68682E-002	3.57160E+000	9	...........
	154	2.06667	3.33953E-002	-8.85530E-005	0.00000E+000	-2.95725E-006	-5.39641E-002	3.33950E-002	3.57160E+000	9	...........
	155	2.08	2.99603E-002	-8.86290E-005	0.00000E+000	-2.65535E-006	-5.39641E-002	2.99605E-002	3.57160E+000	9	...........
	156	2.09333	2.65331E-002	-8.85759E-005	0.00000E+000	-2.35019E-006	-5.39641E-002	2.65296E-002	3.57160E+000	9	...........
	157	2.10667	2.31289E-002	-8.86863E-005	0.00000E+000	-2.05122E-006	-5.39641E-002	2.31247E-002	3.57160E+000	9	...........
	158	2.12	1.97369E-002	-8.86582E-005	0.00000E+000	-1.74983E-006	-5.39641E-002	1.97380E-002	3.57160E+000	9	...........
	159	2.13333	1.63819E-002	-8.87082E-005	0.00000E+000	-1.45321E-006	-5.39641E-002	1.63748E-002	3.57173E+000	9	...........
	160	2.14667	1.30375E-002	-8.86749E-005	0.00000E+000	-1.15610E-006	-5.39641E-002	1.30337E-002	3.57180E+000	9	...........
	161	2.16	9.70042E-003	-8.86540E-005	0.00000E+000	-8.59981E-007	-5.39641E-002	9.69401E-003	3.57180E+000	9	...........
	162	2.17333	6.37236E-003	-8.85717E-005	0.00000E+000	-5.64411E-007	-5.39641E-002	6.36460E-003	3.57180E+000	9	...........
	163	2.18667	3.07756E-003	-8.85988E-005	0.00000E+000	-2.72668E-007	-5.39641E-002	3.06086E-003	3.57180E+000	9	...........
	164	2.195	4.18387E-004	-8.90066E-005	0.00000E+000	-3.72392E-008	-5.39641E-002	4.01086E-004	3.57180E+000	9	...........
STARTTIMEOFFSET	QUANT	459.355	Start Time Offset (s)
