EXPLAIN
TAG	PWR800_DISCHARGE
TITLE	LABEL	PWR Cyclic Charge Discharge (Cell) - Discharge Step	Test &Identifier
DATE	LABEL	10-7-2017	Date
TIME	LABEL	16:09:32	Time
NOTES	NOTES	3	&Notes...
	supercap test cell
	0.9mg
	6M KOH
PSTAT	PSTAT	IFC5000-01520	Potentiostat
CAPACITY	QUANT	1.00000E-003	Capacity (A-hr)
CELLTYPE	SELECTOR	1	&Cell Type
WORKINGCONNECTION	SELECTOR	0	&Working Lead
MAXDISCHARGETIME	VARIABLEANDUNITS	1.00000E+002	s	1.00000E+002	second(s)	Max &Discharge Time
DISCHARGEMODE	MULTIPARAM	0	9.00000E-005	&Discharge Mode	Constant Current	Amp(s)
SAMPLETIME	QUANT	1.00000E-002	Sa&mple Period (s)
DISCHARGESTOPAT1	MULTIPARAM	3	0.00000E+000	Discharge Stop At &1	Voltage < Limit	V
DISCHARGESTOPAT2	MULTIPARAM	0	0.00000E+000	Discharge Stop At &2	None	N/A
AESBHCSELECTOR	TOGGLE	F	Save Both Half Cells
IRCOMP	TOGGLE	F	IR &Measure
EOC	QUANT	0	Open Circuit (V)
SEQUENCER	TOGGLE	TRUE	Run as Sequence
PSTATMODEL	IQUANT	53	Pstat Model
PSTATSECTION	LABEL	IFC5000-01520	Pstat Section
PSTATSERIALNO	LABEL	01520	Pstat Serial Number
CTRLMODE	IQUANT	0	Control Mode
ELECTROMETER	IQUANT	1	RE=0 or CS=1
IESTAB	IQUANT	0	I/E Stability
CASPEED	IQUANT	4	Control Amp Speed
CONVENTION	IQUANT	1	Current Convention
ICHRANGE	IQUANT	2	Ich Range
ICHRANGEMODE	TOGGLE	T	Ich Auto Range
ICHOFFSETENABLE	TOGGLE	F	Ich Offset Enable
ICHOFFSET	QUANT	0	Ich Offset (V)
ICHFILTER	IQUANT	1	Ich Filter
VCHRANGE	IQUANT	2	Vch Range
VCHRANGEMODE	TOGGLE	T	Vch Auto Range
VCHOFFSETENABLE	TOGGLE	F	Vch Offset Enable
VCHOFFSET	QUANT	0	Vch Offset (V)
VCHFILTER	IQUANT	1	Vch Filter
IERANGELOWERLIMIT	IQUANT	9	I/E Range Lower Limit
IERANGEMODE	TOGGLE	F	I/E AutoRange
IERANGE	IQUANT	9	I/E Range
ACHSELECT	IQUANT	1	Ach Select
ACHRANGE	IQUANT	2	Ach Range
ACHOFFSETENABLE	TOGGLE	F	Ach Offset Enable
ACHOFFSET	QUANT	0	Ach Offset (V)
ACHFILTER	IQUANT	1	Ach Filter
CABLEID	IQUANT	14	Cable ID
DCCALDATE	LABEL	5-7-2017	DC Calibration Date
ACCALDATE	LABEL	12/3/2015	AC Calibration Date
FRAMEWORKVERSION	QUANT	7.01	Framework Version
INSTRUMENTVERSION	LABEL	4.00	Instrument Version
CURVE	TABLE	148
	Pt	T	Vf	Im	Vu	Pwr	Sig	Ach	Temp	IERange	Over
	#	s	V	A	V	W	V	V	deg C	#	bits
	0	0.013333	8.01965E-001	-8.85821E-005	0.00000E+000	-7.10398E-005	-5.39641E-002	8.02095E-001	3.57275E+000	9	...........
	1	0.026667	7.87828E-001	-8.89072E-005	0.00000E+000	-7.00435E-005	-5.39641E-002	7.87916E-001	3.57290E+000	9	...........
	2	0.04	7.74637E-001	-8.89687E-005	0.00000E+000	-6.89184E-005	-5.39641E-002	7.74725E-001	3.57290E+000	9	...........
	3	0.053333	7.62194E-001	-8.89937E-005	0.00000E+000	-6.78305E-005	-5.39641E-002	7.62277E-001	3.57290E+000	9	...........
	4	0.066667	7.50416E-001	-8.88770E-005	0.00000E+000	-6.66947E-005	-5.39641E-002	7.50499E-001	3.57290E+000	9	...........
	5	0.08	7.39150E-001	-8.88926E-005	0.00000E+000	-6.57049E-005	-5.39641E-002	7.39250E-001	3.57290E+000	9	...........
	6	0.093333	7.28367E-001	-8.88384E-005	0.00000E+000	-6.47070E-005	-5.39641E-002	7.28461E-001	3.57290E+000	9	...........
	7	0.106667	7.17992E-001	-8.87269E-005	0.00000E+000	-6.37052E-005	-5.39641E-002	7.18123E-001	3.57290E+000	9	...........
	8	0.12	7.07986E-001	-8.88655E-005	0.00000E+000	-6.29155E-005	-5.39641E-002	7.08113E-001	3.57290E+000	9	...........
	9	0.133333	6.98328E-001	-8.87269E-005	0.00000E+000	-6.19605E-005	-5.39641E-002	6.98448E-001	3.57290E+000	9	...........
	10	0.146667	6.88959E-001	-8.88186E-005	0.00000E+000	-6.11924E-005	-5.39641E-002	6.89067E-001	3.57290E+000	9	...........
	11	0.16	6.79881E-001	-8.87947E-005	0.00000E+000	-6.03698E-005	-5.39641E-002	6.79989E-001	3.57290E+000	9	...........
	12	0.173333	6.71049E-001	-8.88895E-005	0.00000E+000	-5.96492E-005	-5.39641E-002	6.71153E-001	3.57290E+000	9	...........
	13	0.186667	6.62417E-001	-8.87759E-005	0.00000E+000	-5.88067E-005	-5.39641E-002	6.62530E-001	3.57290E+000	9	...........
	14	0.2	6.54026E-001	-8.86113E-005	0.00000E+000	-5.79541E-005	-5.39641E-002	6.54129E-001	3.57290E+000	9	...........
	15	0.213333	6.45855E-001	-8.87061E-005	0.00000E+000	-5.72913E-005	-5.39641E-002	6.45964E-001	3.57290E+000	9	...........
	16	0.226667	6.37841E-001	-8.87488E-005	0.00000E+000	-5.66076E-005	-5.39641E-002	6.37952E-001	3.57290E+000	9	...........
	17	0.24	6.30029E-001	-8.85894E-005	0.00000E+000	-5.58139E-005	-5.39641E-002	6.30121E-001	3.57290E+000	9	...........
	18	0.253333	6.22405E-001	-8.89843E-005	0.00000E+000	-5.53843E-005	-5.39641E-002	6.22473E-001	3.57290E+000	9	...........
	19	0.266667	6.14896E-001	-8.85946E-005	0.00000E+000	-5.44765E-005	-5.39641E-002	6.14969E-001	3.57290E+000	9	...........
	20	0.28	6.07532E-001	-8.88718E-005	0.00000E+000	-5.39925E-005	-5.39641E-002	6.07623E-001	3.57290E+000	9	...........
	21	0.293333	6.00328E-001	-8.86269E-005	0.00000E+000	-5.32053E-005	-5.39641E-002	6.00431E-001	3.57290E+000	9	...........
	22	0.306667	5.93281E-001	-8.85915E-005	0.00000E+000	-5.25596E-005	-5.39641E-002	5.93380E-001	3.57290E+000	9	...........
	23	0.32	5.86313E-001	-8.88416E-005	0.00000E+000	-5.20890E-005	-5.39641E-002	5.86441E-001	3.57290E+000	9	...........
	24	0.333333	5.79487E-001	-8.88457E-005	0.00000E+000	-5.14849E-005	-5.39641E-002	5.79588E-001	3.57290E+000	9	...........
	25	0.346667	5.72796E-001	-8.86832E-005	0.00000E+000	-5.07973E-005	-5.39641E-002	5.72863E-001	3.57290E+000	9	...........
	26	0.36	5.66194E-001	-8.88395E-005	0.00000E+000	-5.03004E-005	-5.39641E-002	5.66274E-001	3.57290E+000	9	...........
	27	0.373333	5.59611E-001	-8.86457E-005	0.00000E+000	-4.96071E-005	-5.39641E-002	5.59725E-001	3.57290E+000	9	...........
	28	0.386667	5.53215E-001	-8.87676E-005	0.00000E+000	-4.91075E-005	-5.39641E-002	5.53319E-001	3.57290E+000	9	...........
	29	0.4	5.46897E-001	-8.88468E-005	0.00000E+000	-4.85901E-005	-5.39641E-002	5.46985E-001	3.57290E+000	9	...........
	30	0.413333	5.40668E-001	-8.87561E-005	0.00000E+000	-4.79876E-005	-5.39641E-002	5.40777E-001	3.57290E+000	9	...........
	31	0.426667	5.34460E-001	-8.88124E-005	0.00000E+000	-4.74667E-005	-5.39641E-002	5.34586E-001	3.57290E+000	9	...........
	32	0.44	5.28387E-001	-8.88718E-005	0.00000E+000	-4.69587E-005	-5.39641E-002	5.28509E-001	3.57290E+000	9	...........
	33	0.453333	5.22362E-001	-8.85561E-005	0.00000E+000	-4.62583E-005	-5.39641E-002	5.22473E-001	3.57290E+000	9	...........
	34	0.466667	5.16445E-001	-8.89645E-005	0.00000E+000	-4.59453E-005	-5.39641E-002	5.16497E-001	3.57290E+000	9	...........
	35	0.48	5.10514E-001	-8.89593E-005	0.00000E+000	-4.54149E-005	-5.39641E-002	5.10609E-001	3.57290E+000	9	...........
	36	0.493333	5.04668E-001	-8.87051E-005	0.00000E+000	-4.47666E-005	-5.39641E-002	5.04761E-001	3.57290E+000	9	...........
	37	0.506667	4.98895E-001	-8.89270E-005	0.00000E+000	-4.43652E-005	-5.39641E-002	4.98975E-001	3.57290E+000	9	...........
	38	0.52	4.93171E-001	-8.87238E-005	0.00000E+000	-4.37560E-005	-5.39641E-002	4.93245E-001	3.57290E+000	9	...........
	39	0.533333	4.87488E-001	-8.89041E-005	0.00000E+000	-4.33396E-005	-5.39641E-002	4.87581E-001	3.57290E+000	9	...........
	40	0.546667	4.81977E-001	-8.87509E-005	0.00000E+000	-4.27759E-005	-5.39641E-002	4.82034E-001	3.57290E+000	9	...........
	41	0.56	4.76406E-001	-8.88916E-005	0.00000E+000	-4.23484E-005	-5.39641E-002	4.76470E-001	3.57290E+000	9	...........
	42	0.573333	4.70875E-001	-8.88541E-005	0.00000E+000	-4.18391E-005	-5.39641E-002	4.70936E-001	3.57290E+000	9	...........
	43	0.586667	4.65398E-001	-8.86999E-005	0.00000E+000	-4.12808E-005	-5.39641E-002	4.65462E-001	3.57290E+000	9	...........
	44	0.6	4.59962E-001	-8.88864E-005	0.00000E+000	-4.08843E-005	-5.39641E-002	4.60027E-001	3.57290E+000	9	...........
	45	0.613333	4.54574E-001	-8.89124E-005	0.00000E+000	-4.04172E-005	-5.39641E-002	4.54636E-001	3.57290E+000	9	...........
	46	0.626667	4.49212E-001	-8.88363E-005	0.00000E+000	-3.99064E-005	-5.39641E-002	4.49279E-001	3.57290E+000	9	...........
	47	0.64	4.43880E-001	-8.84040E-005	0.00000E+000	-3.92408E-005	-5.39641E-002	4.43944E-001	3.57290E+000	9	...........
	48	0.653333	4.38574E-001	-8.90187E-005	0.00000E+000	-3.90413E-005	-5.39641E-002	4.38634E-001	3.57290E+000	9	...........
	49	0.666667	4.33299E-001	-8.88332E-005	0.00000E+000	-3.84914E-005	-5.39641E-002	4.33362E-001	3.57290E+000	9	...........
	50	0.68	4.28046E-001	-8.87853E-005	0.00000E+000	-3.80042E-005	-5.39641E-002	4.28103E-001	3.57290E+000	9	...........
	51	0.693333	4.22821E-001	-8.86634E-005	0.00000E+000	-3.74887E-005	-5.39641E-002	4.22878E-001	3.57290E+000	9	...........
	52	0.706667	4.17617E-001	-8.87905E-005	0.00000E+000	-3.70804E-005	-5.39641E-002	4.17675E-001	3.57290E+000	9	...........
	53	0.72	4.12454E-001	-8.89708E-005	0.00000E+000	-3.66963E-005	-5.39641E-002	4.12508E-001	3.57290E+000	9	...........
	54	0.733333	4.07295E-001	-8.87645E-005	0.00000E+000	-3.61533E-005	-5.39641E-002	4.07350E-001	3.57290E+000	9	...........
	55	0.746667	4.02158E-001	-8.87082E-005	0.00000E+000	-3.56747E-005	-5.39641E-002	4.02210E-001	3.57290E+000	9	...........
	56	0.76	3.97040E-001	-8.90604E-005	0.00000E+000	-3.53605E-005	-5.39641E-002	3.97092E-001	3.57290E+000	9	...........
	57	0.773333	3.91939E-001	-8.88572E-005	0.00000E+000	-3.48266E-005	-5.39641E-002	3.91983E-001	3.57290E+000	9	...........
	58	0.786667	3.86866E-001	-8.88718E-005	0.00000E+000	-3.43814E-005	-5.39641E-002	3.86911E-001	3.57290E+000	9	...........
	59	0.8	3.81802E-001	-8.88509E-005	0.00000E+000	-3.39235E-005	-5.39641E-002	3.81847E-001	3.57290E+000	9	...........
	60	0.813333	3.76758E-001	-8.88864E-005	0.00000E+000	-3.34886E-005	-5.39641E-002	3.76795E-001	3.57290E+000	9	...........
	61	0.826667	3.71720E-001	-8.89489E-005	0.00000E+000	-3.30640E-005	-5.39641E-002	3.71765E-001	3.57290E+000	9	...........
	62	0.84	3.66704E-001	-8.87853E-005	0.00000E+000	-3.25579E-005	-5.39641E-002	3.66746E-001	3.57290E+000	9	...........
	63	0.853333	3.61695E-001	-8.88634E-005	0.00000E+000	-3.21414E-005	-5.39641E-002	3.61740E-001	3.57290E+000	9	...........
	64	0.866667	3.56704E-001	-8.88791E-005	0.00000E+000	-3.17036E-005	-5.39641E-002	3.56750E-001	3.57290E+000	9	...........
	65	0.88	3.51741E-001	-8.88124E-005	0.00000E+000	-3.12390E-005	-5.39641E-002	3.51790E-001	3.57290E+000	9	...........
	66	0.893333	3.46794E-001	-8.88103E-005	0.00000E+000	-3.07989E-005	-5.39641E-002	3.46840E-001	3.57290E+000	9	...........
	67	0.906667	3.41851E-001	-8.90197E-005	0.00000E+000	-3.04315E-005	-5.39641E-002	3.41896E-001	3.57290E+000	9	...........
	68	0.92	3.36927E-001	-8.86082E-005	0.00000E+000	-2.98545E-005	-5.39641E-002	3.36975E-001	3.57290E+000	9	...........
	69	0.933333	3.32008E-001	-8.88666E-005	0.00000E+000	-2.95044E-005	-5.39641E-002	3.32055E-001	3.57290E+000	9	...........
	70	0.946667	3.27091E-001	-8.86061E-005	0.00000E+000	-2.89823E-005	-5.39641E-002	3.27134E-001	3.57290E+000	9	...........
	71	0.96	3.22206E-001	-8.86363E-005	0.00000E+000	-2.85592E-005	-5.39641E-002	3.22245E-001	3.57290E+000	9	...........
	72	0.97333	3.17318E-001	-8.85832E-005	0.00000E+000	-2.81091E-005	-5.39641E-002	3.17362E-001	3.57290E+000	9	...........
	73	0.98667	3.12448E-001	-8.86749E-005	0.00000E+000	-2.77063E-005	-5.39641E-002	3.12490E-001	3.57290E+000	9	...........
	74	1	3.07599E-001	-8.87176E-005	0.00000E+000	-2.72894E-005	-5.39641E-002	3.07640E-001	3.57290E+000	9	...........
	75	1.01333	3.02747E-001	-8.86561E-005	0.00000E+000	-2.68404E-005	-5.39641E-002	3.02789E-001	3.57295E+000	9	...........
	76	1.02667	2.97924E-001	-8.86769E-005	0.00000E+000	-2.64190E-005	-5.39641E-002	2.97967E-001	3.57310E+000	9	...........
	77	1.04	2.93102E-001	-8.86707E-005	0.00000E+000	-2.59896E-005	-5.39641E-002	2.93141E-001	3.57310E+000	9	...........
	78	1.05333	2.88301E-001	-8.87207E-005	0.00000E+000	-2.55783E-005	-5.39641E-002	2.88335E-001	3.57310E+000	9	...........
	79	1.06667	2.83506E-001	-8.88936E-005	0.00000E+000	-2.52019E-005	-5.39641E-002	2.83545E-001	3.57310E+000	9	...........
	80	1.08	2.78724E-001	-8.89082E-005	0.00000E+000	-2.47809E-005	-5.39641E-002	2.78761E-001	3.57310E+000	9	...........
	81	1.09333	2.73959E-001	-8.87843E-005	0.00000E+000	-2.43232E-005	-5.39641E-002	2.73994E-001	3.57310E+000	9	...........
	82	1.10667	2.69220E-001	-8.86842E-005	0.00000E+000	-2.38756E-005	-5.39641E-002	2.69261E-001	3.57310E+000	9	...........
	83	1.12	2.64483E-001	-8.89343E-005	0.00000E+000	-2.35216E-005	-5.39641E-002	2.64525E-001	3.57310E+000	9	...........
	84	1.13333	2.59760E-001	-8.88426E-005	0.00000E+000	-2.30778E-005	-5.39641E-002	2.59796E-001	3.57310E+000	9	...........
	85	1.14667	2.55064E-001	-8.86884E-005	0.00000E+000	-2.26213E-005	-5.39641E-002	2.55100E-001	3.57310E+000	9	...........
	86	1.16	2.50380E-001	-8.88624E-005	0.00000E+000	-2.22494E-005	-5.39641E-002	2.50420E-001	3.57310E+000	9	...........
	87	1.17333	2.45697E-001	-8.88770E-005	0.00000E+000	-2.18368E-005	-5.39641E-002	2.45734E-001	3.57310E+000	9	...........
	88	1.18667	2.41043E-001	-8.87915E-005	0.00000E+000	-2.14026E-005	-5.39641E-002	2.41073E-001	3.57310E+000	9	...........
	89	1.2	2.36397E-001	-8.86530E-005	0.00000E+000	-2.09573E-005	-5.39641E-002	2.36426E-001	3.57310E+000	9	...........
	90	1.21333	2.31766E-001	-8.85978E-005	0.00000E+000	-2.05340E-005	-5.39641E-002	2.31791E-001	3.57310E+000	9	...........
	91	1.22667	2.27152E-001	-8.88280E-005	0.00000E+000	-2.01775E-005	-5.39641E-002	2.27178E-001	3.57310E+000	9	...........
	92	1.24	2.22561E-001	-8.86019E-005	0.00000E+000	-1.97194E-005	-5.39641E-002	2.22591E-001	3.57310E+000	9	...........
	93	1.25333	2.17992E-001	-8.90176E-005	0.00000E+000	-1.94051E-005	-5.39641E-002	2.18020E-001	3.57310E+000	9	...........
	94	1.26667	2.13430E-001	-8.86311E-005	0.00000E+000	-1.89165E-005	-5.39641E-002	2.13451E-001	3.57310E+000	9	...........
	95	1.28	2.08868E-001	-8.86155E-005	0.00000E+000	-1.85089E-005	-5.39641E-002	2.08890E-001	3.57310E+000	9	...........
	96	1.29333	2.04328E-001	-8.90030E-005	0.00000E+000	-1.81858E-005	-5.39641E-002	2.04352E-001	3.57310E+000	9	...........
	97	1.30667	1.99817E-001	-8.88541E-005	0.00000E+000	-1.77546E-005	-5.39641E-002	1.99839E-001	3.57310E+000	9	...........
	98	1.32	1.95324E-001	-8.88363E-005	0.00000E+000	-1.73518E-005	-5.39641E-002	1.95348E-001	3.57310E+000	9	...........
	99	1.33333	1.90854E-001	-8.86061E-005	0.00000E+000	-1.69108E-005	-5.39641E-002	1.90873E-001	3.57310E+000	9	...........
	100	1.34667	1.86394E-001	-8.86801E-005	0.00000E+000	-1.65294E-005	-5.39641E-002	1.86413E-001	3.57310E+000	9	...........
	101	1.36	1.81944E-001	-8.87759E-005	0.00000E+000	-1.61522E-005	-5.39641E-002	1.81957E-001	3.57310E+000	9	...........
	102	1.37333	1.77523E-001	-8.84175E-005	0.00000E+000	-1.56961E-005	-5.39641E-002	1.77534E-001	3.57310E+000	9	...........
	103	1.38667	1.73128E-001	-8.86436E-005	0.00000E+000	-1.53467E-005	-5.39641E-002	1.73138E-001	3.57310E+000	9	...........
	104	1.4	1.68769E-001	-8.91010E-005	0.00000E+000	-1.50375E-005	-5.39641E-002	1.68780E-001	3.57310E+000	9	...........
	105	1.41333	1.64454E-001	-8.85884E-005	0.00000E+000	-1.45687E-005	-5.39641E-002	1.64464E-001	3.57310E+000	9	...........
	106	1.42667	1.60156E-001	-8.88468E-005	0.00000E+000	-1.42293E-005	-5.39641E-002	1.60165E-001	3.57310E+000	9	...........
	107	1.44	1.55876E-001	-8.87186E-005	0.00000E+000	-1.38291E-005	-5.39641E-002	1.55888E-001	3.57310E+000	9	...........
	108	1.45333	1.51606E-001	-8.88426E-005	0.00000E+000	-1.34691E-005	-5.39641E-002	1.51610E-001	3.57310E+000	9	...........
	109	1.46667	1.47327E-001	-8.89218E-005	0.00000E+000	-1.31006E-005	-5.39641E-002	1.47338E-001	3.57310E+000	9	...........
	110	1.48	1.43060E-001	-8.87124E-005	0.00000E+000	-1.26912E-005	-5.39641E-002	1.43068E-001	3.57310E+000	9	...........
	111	1.49333	1.38809E-001	-8.85790E-005	0.00000E+000	-1.22955E-005	-5.39641E-002	1.38823E-001	3.57310E+000	9	...........
	112	1.50667	1.34569E-001	-8.89020E-005	0.00000E+000	-1.19635E-005	-5.39641E-002	1.34581E-001	3.57310E+000	9	...........
	113	1.52	1.30351E-001	-8.85415E-005	0.00000E+000	-1.15415E-005	-5.39641E-002	1.30364E-001	3.57310E+000	9	...........
	114	1.53333	1.26160E-001	-8.86426E-005	0.00000E+000	-1.11832E-005	-5.39641E-002	1.26172E-001	3.57310E+000	9	...........
	115	1.54667	1.21985E-001	-8.88238E-005	0.00000E+000	-1.08351E-005	-5.39641E-002	1.21997E-001	3.57310E+000	9	...........
	116	1.56	1.17834E-001	-8.88489E-005	0.00000E+000	-1.04694E-005	-5.39641E-002	1.17843E-001	3.57310E+000	9	...........
	117	1.57333	1.13700E-001	-8.86280E-005	0.00000E+000	-1.00770E-005	-5.39641E-002	1.13712E-001	3.57310E+000	9	...........
	118	1.58667	1.09591E-001	-8.88999E-005	0.00000E+000	-9.74266E-006	-5.39641E-002	1.09602E-001	3.57310E+000	9	...........
	119	1.6	1.05491E-001	-8.88353E-005	0.00000E+000	-9.37133E-006	-5.39641E-002	1.05500E-001	3.57310E+000	9	...........
	120	1.61333	1.01397E-001	-8.87582E-005	0.00000E+000	-8.99983E-006	-5.39641E-002	1.01409E-001	3.57310E+000	9	...........
	121	1.62667	9.73237E-002	-8.85540E-005	0.00000E+000	-8.61840E-006	-5.39641E-002	9.73343E-002	3.57310E+000	9	...........
	122	1.64	9.32738E-002	-8.87311E-005	0.00000E+000	-8.27629E-006	-5.39641E-002	9.32775E-002	3.57310E+000	9	...........
	123	1.65333	8.92341E-002	-8.88009E-005	0.00000E+000	-7.92407E-006	-5.39641E-002	8.92449E-002	3.57310E+000	9	...........
	124	1.66667	8.52290E-002	-8.88051E-005	0.00000E+000	-7.56877E-006	-5.39641E-002	8.52379E-002	3.57310E+000	9	...........
	125	1.68	8.12483E-002	-8.87592E-005	0.00000E+000	-7.21154E-006	-5.39641E-002	8.12540E-002	3.57310E+000	9	...........
	126	1.69333	7.72865E-002	-8.88416E-005	0.00000E+000	-6.86626E-006	-5.39641E-002	7.72924E-002	3.57310E+000	9	...........
	127	1.70667	7.33478E-002	-8.88030E-005	0.00000E+000	-6.51350E-006	-5.39641E-002	7.33484E-002	3.57310E+000	9	...........
	128	1.72	6.94210E-002	-8.89978E-005	0.00000E+000	-6.17832E-006	-5.39641E-002	6.94265E-002	3.57310E+000	9	...........
	129	1.73333	6.55016E-002	-8.87749E-005	0.00000E+000	-5.81490E-006	-5.39641E-002	6.55022E-002	3.57310E+000	9	...........
	130	1.74667	6.15945E-002	-8.87301E-005	0.00000E+000	-5.46528E-006	-5.39641E-002	6.16041E-002	3.57310E+000	9	...........
	131	1.76	5.77206E-002	-8.88780E-005	0.00000E+000	-5.13009E-006	-5.39641E-002	5.77231E-002	3.57310E+000	9	...........
	132	1.77333	5.38690E-002	-8.86248E-005	0.00000E+000	-4.77413E-006	-5.39641E-002	5.38630E-002	3.57310E+000	9	...........
	133	1.78667	5.00091E-002	-8.89009E-005	0.00000E+000	-4.44585E-006	-5.39641E-002	5.00083E-002	3.57310E+000	9	...........
	134	1.8	4.61818E-002	-8.87822E-005	0.00000E+000	-4.10012E-006	-5.39641E-002	4.61887E-002	3.57310E+000	9	...........
	135	1.81333	4.23635E-002	-8.88030E-005	0.00000E+000	-3.76201E-006	-5.39641E-002	4.23692E-002	3.57310E+000	9	...........
	136	1.82667	3.85666E-002	-8.88384E-005	0.00000E+000	-3.42619E-006	-5.39641E-002	3.85684E-002	3.57310E+000	9	...........
	137	1.84	3.47802E-002	-8.88061E-005	0.00000E+000	-3.08870E-006	-5.39641E-002	3.47818E-002	3.57310E+000	9	...........
	138	1.85333	3.10178E-002	-8.86947E-005	0.00000E+000	-2.75111E-006	-5.39641E-002	3.10186E-002	3.57310E+000	9	...........
	139	1.86667	2.72686E-002	-8.90833E-005	0.00000E+000	-2.42918E-006	-5.39641E-002	2.72704E-002	3.57310E+000	9	...........
	140	1.88	2.35420E-002	-8.87801E-005	0.00000E+000	-2.09006E-006	-5.39641E-002	2.35377E-002	3.57310E+000	9	...........
	141	1.89333	1.98301E-002	-8.88968E-005	0.00000E+000	-1.76283E-006	-5.39641E-002	1.98213E-002	3.57310E+000	9	...........
	142	1.90667	1.61424E-002	-8.86290E-005	0.00000E+000	-1.43069E-006	-5.39641E-002	1.61371E-002	3.57310E+000	9	...........
	143	1.92	1.24738E-002	-8.88072E-005	0.00000E+000	-1.10776E-006	-5.39641E-002	1.24682E-002	3.57310E+000	9	...........
	144	1.93333	8.81667E-003	-8.89072E-005	0.00000E+000	-7.83865E-007	-5.39641E-002	8.80745E-003	3.57310E+000	9	...........
	145	1.94667	5.18253E-003	-8.86373E-005	0.00000E+000	-4.59365E-007	-5.39641E-002	5.17226E-003	3.57310E+000	9	...........
	146	1.96	1.56925E-003	-8.87999E-005	0.00000E+000	-1.39349E-007	-5.39641E-002	1.55585E-003	3.57310E+000	9	...........
	147	1.96167	-4.50831E-004	-8.87915E-005	0.00000E+000	4.00300E-008	-5.39641E-002	-4.66806E-004	3.57310E+000	9	...........
STARTTIMEOFFSET	QUANT	3539.769	Start Time Offset (s)
