EXPLAIN
TAG	PWR800_DISCHARGE
TITLE	LABEL	PWR Cyclic Charge Discharge (Cell) - Discharge Step	Test &Identifier
DATE	LABEL	10-7-2017	Date
TIME	LABEL	16:04:32	Time
NOTES	NOTES	3	&Notes...
	supercap test cell
	0.9mg
	6M KOH
PSTAT	PSTAT	IFC5000-01520	Potentiostat
CAPACITY	QUANT	1.00000E-003	Capacity (A-hr)
CELLTYPE	SELECTOR	1	&Cell Type
WORKINGCONNECTION	SELECTOR	0	&Working Lead
MAXDISCHARGETIME	VARIABLEANDUNITS	1.00000E+002	s	1.00000E+002	second(s)	Max &Discharge Time
DISCHARGEMODE	MULTIPARAM	0	9.00000E-005	&Discharge Mode	Constant Current	Amp(s)
SAMPLETIME	QUANT	1.00000E-002	Sa&mple Period (s)
DISCHARGESTOPAT1	MULTIPARAM	3	0.00000E+000	Discharge Stop At &1	Voltage < Limit	V
DISCHARGESTOPAT2	MULTIPARAM	0	0.00000E+000	Discharge Stop At &2	None	N/A
AESBHCSELECTOR	TOGGLE	F	Save Both Half Cells
IRCOMP	TOGGLE	F	IR &Measure
EOC	QUANT	0	Open Circuit (V)
SEQUENCER	TOGGLE	TRUE	Run as Sequence
PSTATMODEL	IQUANT	53	Pstat Model
PSTATSECTION	LABEL	IFC5000-01520	Pstat Section
PSTATSERIALNO	LABEL	01520	Pstat Serial Number
CTRLMODE	IQUANT	0	Control Mode
ELECTROMETER	IQUANT	1	RE=0 or CS=1
IESTAB	IQUANT	0	I/E Stability
CASPEED	IQUANT	4	Control Amp Speed
CONVENTION	IQUANT	1	Current Convention
ICHRANGE	IQUANT	2	Ich Range
ICHRANGEMODE	TOGGLE	T	Ich Auto Range
ICHOFFSETENABLE	TOGGLE	F	Ich Offset Enable
ICHOFFSET	QUANT	0	Ich Offset (V)
ICHFILTER	IQUANT	1	Ich Filter
VCHRANGE	IQUANT	2	Vch Range
VCHRANGEMODE	TOGGLE	T	Vch Auto Range
VCHOFFSETENABLE	TOGGLE	F	Vch Offset Enable
VCHOFFSET	QUANT	0	Vch Offset (V)
VCHFILTER	IQUANT	1	Vch Filter
IERANGELOWERLIMIT	IQUANT	9	I/E Range Lower Limit
IERANGEMODE	TOGGLE	F	I/E AutoRange
IERANGE	IQUANT	9	I/E Range
ACHSELECT	IQUANT	1	Ach Select
ACHRANGE	IQUANT	2	Ach Range
ACHOFFSETENABLE	TOGGLE	F	Ach Offset Enable
ACHOFFSET	QUANT	0	Ach Offset (V)
ACHFILTER	IQUANT	1	Ach Filter
CABLEID	IQUANT	14	Cable ID
DCCALDATE	LABEL	5-7-2017	DC Calibration Date
ACCALDATE	LABEL	12/3/2015	AC Calibration Date
FRAMEWORKVERSION	QUANT	7.01	Framework Version
INSTRUMENTVERSION	LABEL	4.00	Instrument Version
CURVE	TABLE	148
	Pt	T	Vf	Im	Vu	Pwr	Sig	Ach	Temp	IERange	Over
	#	s	V	A	V	W	V	V	deg C	#	bits
	0	0.013333	8.01635E-001	-8.87436E-005	0.00000E+000	-7.11400E-005	-5.39641E-002	8.01760E-001	3.57270E+000	9	...........
	1	0.026667	7.87583E-001	-8.89520E-005	0.00000E+000	-7.00570E-005	-5.39641E-002	7.87664E-001	3.57270E+000	9	...........
	2	0.04	7.74456E-001	-8.87322E-005	0.00000E+000	-6.87192E-005	-5.39641E-002	7.74562E-001	3.57270E+000	9	...........
	3	0.053333	7.62107E-001	-8.86749E-005	0.00000E+000	-6.75797E-005	-5.39641E-002	7.62227E-001	3.57270E+000	9	...........
	4	0.066667	7.50420E-001	-8.87999E-005	0.00000E+000	-6.66372E-005	-5.39641E-002	7.50533E-001	3.57270E+000	9	...........
	5	0.08	7.39230E-001	-8.87520E-005	0.00000E+000	-6.56081E-005	-5.39641E-002	7.39344E-001	3.57270E+000	9	...........
	6	0.093333	7.28534E-001	-8.88728E-005	0.00000E+000	-6.47469E-005	-5.39641E-002	7.28648E-001	3.57270E+000	9	...........
	7	0.106667	7.18268E-001	-8.89593E-005	0.00000E+000	-6.38966E-005	-5.39641E-002	7.18373E-001	3.57270E+000	9	...........
	8	0.12	7.08331E-001	-8.88395E-005	0.00000E+000	-6.29277E-005	-5.39641E-002	7.08465E-001	3.57270E+000	9	...........
	9	0.133333	6.98775E-001	-8.87113E-005	0.00000E+000	-6.19892E-005	-5.39641E-002	6.98880E-001	3.57270E+000	9	...........
	10	0.146667	6.89467E-001	-8.88405E-005	0.00000E+000	-6.12526E-005	-5.39641E-002	6.89599E-001	3.57270E+000	9	...........
	11	0.16	6.80460E-001	-8.88978E-005	0.00000E+000	-6.04914E-005	-5.39641E-002	6.80560E-001	3.57270E+000	9	...........
	12	0.173333	6.71688E-001	-8.87030E-005	0.00000E+000	-5.95808E-005	-5.39641E-002	6.71805E-001	3.57270E+000	9	...........
	13	0.186667	6.63118E-001	-8.87843E-005	0.00000E+000	-5.88744E-005	-5.39641E-002	6.63254E-001	3.57270E+000	9	...........
	14	0.2	6.54806E-001	-8.88666E-005	0.00000E+000	-5.81904E-005	-5.39641E-002	6.54927E-001	3.57270E+000	9	...........
	15	0.213333	6.46658E-001	-8.86467E-005	0.00000E+000	-5.73241E-005	-5.39641E-002	6.46783E-001	3.57270E+000	9	...........
	16	0.226667	6.38684E-001	-8.87988E-005	0.00000E+000	-5.67144E-005	-5.39641E-002	6.38817E-001	3.57270E+000	9	...........
	17	0.24	6.30920E-001	-8.88322E-005	0.00000E+000	-5.60460E-005	-5.39641E-002	6.31052E-001	3.57270E+000	9	...........
	18	0.253333	6.23341E-001	-8.87051E-005	0.00000E+000	-5.52935E-005	-5.39641E-002	6.23458E-001	3.57270E+000	9	...........
	19	0.266667	6.15892E-001	-8.88186E-005	0.00000E+000	-5.47026E-005	-5.39641E-002	6.16019E-001	3.57270E+000	9	...........
	20	0.28	6.08531E-001	-8.87259E-005	0.00000E+000	-5.39925E-005	-5.39641E-002	6.08701E-001	3.57270E+000	9	...........
	21	0.293333	6.01359E-001	-8.85592E-005	0.00000E+000	-5.32558E-005	-5.39641E-002	6.01531E-001	3.57270E+000	9	...........
	22	0.306667	5.94351E-001	-8.89082E-005	0.00000E+000	-5.28427E-005	-5.39641E-002	5.94498E-001	3.57270E+000	9	...........
	23	0.32	5.87441E-001	-8.88780E-005	0.00000E+000	-5.22106E-005	-5.39641E-002	5.87561E-001	3.57270E+000	9	...........
	24	0.333333	5.80615E-001	-8.88916E-005	0.00000E+000	-5.16118E-005	-5.39641E-002	5.80743E-001	3.57270E+000	9	...........
	25	0.346667	5.73949E-001	-8.88489E-005	0.00000E+000	-5.09947E-005	-5.39641E-002	5.74056E-001	3.57270E+000	9	...........
	26	0.36	5.67344E-001	-8.87936E-005	0.00000E+000	-5.03765E-005	-5.39641E-002	5.67464E-001	3.57270E+000	9	...........
	27	0.373333	5.60816E-001	-8.87176E-005	0.00000E+000	-4.97543E-005	-5.39641E-002	5.60945E-001	3.57270E+000	9	...........
	28	0.386667	5.54413E-001	-8.88780E-005	0.00000E+000	-4.92751E-005	-5.39641E-002	5.54510E-001	3.57270E+000	9	...........
	29	0.4	5.48089E-001	-8.86665E-005	0.00000E+000	-4.85971E-005	-5.39641E-002	5.48196E-001	3.57270E+000	9	...........
	30	0.413333	5.41880E-001	-8.86634E-005	0.00000E+000	-4.80450E-005	-5.39641E-002	5.41979E-001	3.57270E+000	9	...........
	31	0.426667	5.35696E-001	-8.88207E-005	0.00000E+000	-4.75809E-005	-5.39641E-002	5.35809E-001	3.57270E+000	9	...........
	32	0.44	5.29615E-001	-8.86842E-005	0.00000E+000	-4.69685E-005	-5.39641E-002	5.29726E-001	3.57270E+000	9	...........
	33	0.453333	5.23592E-001	-8.89468E-005	0.00000E+000	-4.65719E-005	-5.39641E-002	5.23722E-001	3.57270E+000	9	...........
	34	0.466667	5.17663E-001	-8.87915E-005	0.00000E+000	-4.59641E-005	-5.39641E-002	5.17790E-001	3.57270E+000	9	...........
	35	0.48	5.11768E-001	-8.88822E-005	0.00000E+000	-4.54871E-005	-5.39641E-002	5.11880E-001	3.57270E+000	9	...........
	36	0.493333	5.05923E-001	-8.88759E-005	0.00000E+000	-4.49644E-005	-5.39641E-002	5.06054E-001	3.57270E+000	9	...........
	37	0.506667	5.00155E-001	-8.88874E-005	0.00000E+000	-4.44575E-005	-5.39641E-002	5.00308E-001	3.57270E+000	9	...........
	38	0.52	4.94464E-001	-8.86863E-005	0.00000E+000	-4.38522E-005	-5.39641E-002	4.94594E-001	3.57270E+000	9	...........
	39	0.533333	4.88831E-001	-8.87353E-005	0.00000E+000	-4.33765E-005	-5.39641E-002	4.88928E-001	3.57270E+000	9	...........
	40	0.546667	4.83288E-001	-8.87676E-005	0.00000E+000	-4.29003E-005	-5.39641E-002	4.83366E-001	3.57270E+000	9	...........
	41	0.56	4.77736E-001	-8.86123E-005	0.00000E+000	-4.23333E-005	-5.39641E-002	4.77805E-001	3.57270E+000	9	...........
	42	0.573333	4.72211E-001	-8.90562E-005	0.00000E+000	-4.20533E-005	-5.39641E-002	4.72277E-001	3.57270E+000	9	...........
	43	0.586667	4.66719E-001	-8.89395E-005	0.00000E+000	-4.15098E-005	-5.39641E-002	4.66782E-001	3.57270E+000	9	...........
	44	0.6	4.61276E-001	-8.87582E-005	0.00000E+000	-4.09421E-005	-5.39641E-002	4.61336E-001	3.57270E+000	9	...........
	45	0.613333	4.55853E-001	-8.83435E-005	0.00000E+000	-4.02716E-005	-5.39641E-002	4.55911E-001	3.57270E+000	9	...........
	46	0.626667	4.50480E-001	-8.88832E-005	0.00000E+000	-4.00401E-005	-5.39641E-002	4.50536E-001	3.57454E+000	9	...........
	47	0.64	4.45138E-001	-8.87801E-005	0.00000E+000	-3.95194E-005	-5.39641E-002	4.45200E-001	3.57480E+000	9	...........
	48	0.653333	4.39819E-001	-8.87780E-005	0.00000E+000	-3.90462E-005	-5.39641E-002	4.39873E-001	3.57480E+000	9	...........
	49	0.666667	4.34535E-001	-8.87947E-005	0.00000E+000	-3.85844E-005	-5.39641E-002	4.34594E-001	3.57480E+000	9	...........
	50	0.68	4.29291E-001	-8.87645E-005	0.00000E+000	-3.81058E-005	-5.39641E-002	4.29349E-001	3.57480E+000	9	...........
	51	0.693333	4.24058E-001	-8.86988E-005	0.00000E+000	-3.76134E-005	-5.39641E-002	4.24122E-001	3.57480E+000	9	...........
	52	0.706667	4.18842E-001	-8.87916E-005	0.00000E+000	-3.71896E-005	-5.39641E-002	4.18897E-001	3.57480E+000	9	...........
	53	0.72	4.13646E-001	-8.88020E-005	0.00000E+000	-3.67326E-005	-5.39641E-002	4.13701E-001	3.57480E+000	9	...........
	54	0.733333	4.08477E-001	-8.86457E-005	0.00000E+000	-3.62097E-005	-5.39641E-002	4.08532E-001	3.57480E+000	9	...........
	55	0.746667	4.03331E-001	-8.87968E-005	0.00000E+000	-3.58145E-005	-5.39641E-002	4.03377E-001	3.57480E+000	9	...........
	56	0.76	3.98235E-001	-8.87249E-005	0.00000E+000	-3.53333E-005	-5.39641E-002	3.98280E-001	3.57480E+000	9	...........
	57	0.773333	3.93185E-001	-8.87280E-005	0.00000E+000	-3.48865E-005	-5.39641E-002	3.93229E-001	3.57480E+000	9	...........
	58	0.786667	3.88149E-001	-8.89916E-005	0.00000E+000	-3.45420E-005	-5.39641E-002	3.88197E-001	3.57480E+000	9	...........
	59	0.8	3.83130E-001	-8.86926E-005	0.00000E+000	-3.39808E-005	-5.39641E-002	3.83175E-001	3.57480E+000	9	...........
	60	0.813333	3.78110E-001	-8.87613E-005	0.00000E+000	-3.35616E-005	-5.39641E-002	3.78153E-001	3.57480E+000	9	...........
	61	0.826667	3.73092E-001	-8.87353E-005	0.00000E+000	-3.31065E-005	-5.39641E-002	3.73138E-001	3.57480E+000	9	...........
	62	0.84	3.68088E-001	-8.87770E-005	0.00000E+000	-3.26778E-005	-5.39641E-002	3.68137E-001	3.57480E+000	9	...........
	63	0.853333	3.63077E-001	-8.88020E-005	0.00000E+000	-3.22420E-005	-5.39641E-002	3.63125E-001	3.57480E+000	9	...........
	64	0.866667	3.58089E-001	-8.86050E-005	0.00000E+000	-3.17285E-005	-5.39641E-002	3.58131E-001	3.57480E+000	9	...........
	65	0.88	3.53119E-001	-8.89489E-005	0.00000E+000	-3.14096E-005	-5.39641E-002	3.53164E-001	3.57480E+000	9	...........
	66	0.893333	3.48160E-001	-8.88238E-005	0.00000E+000	-3.09249E-005	-5.39641E-002	3.48201E-001	3.57480E+000	9	...........
	67	0.906667	3.43212E-001	-8.88416E-005	0.00000E+000	-3.04915E-005	-5.39641E-002	3.43252E-001	3.57480E+000	9	...........
	68	0.92	3.38294E-001	-8.87634E-005	0.00000E+000	-3.00281E-005	-5.39641E-002	3.38337E-001	3.57480E+000	9	...........
	69	0.933333	3.33392E-001	-8.86426E-005	0.00000E+000	-2.95528E-005	-5.39641E-002	3.33434E-001	3.57480E+000	9	...........
	70	0.946667	3.28494E-001	-8.85613E-005	0.00000E+000	-2.90919E-005	-5.39641E-002	3.28535E-001	3.57480E+000	9	...........
	71	0.96	3.23604E-001	-8.88874E-005	0.00000E+000	-2.87643E-005	-5.39641E-002	3.23643E-001	3.57480E+000	9	...........
	72	0.97333	3.18733E-001	-8.87645E-005	0.00000E+000	-2.82922E-005	-5.39641E-002	3.18776E-001	3.57480E+000	9	...........
	73	0.98667	3.13864E-001	-8.89426E-005	0.00000E+000	-2.79159E-005	-5.39641E-002	3.13905E-001	3.57480E+000	9	...........
	74	1	3.09011E-001	-8.90114E-005	0.00000E+000	-2.75055E-005	-5.39641E-002	3.09049E-001	3.57480E+000	9	...........
	75	1.01333	3.04162E-001	-8.86957E-005	0.00000E+000	-2.69778E-005	-5.39641E-002	3.04207E-001	3.57480E+000	9	...........
	76	1.02667	2.99339E-001	-8.87249E-005	0.00000E+000	-2.65588E-005	-5.39641E-002	2.99375E-001	3.57480E+000	9	...........
	77	1.04	2.94521E-001	-8.90093E-005	0.00000E+000	-2.62151E-005	-5.39641E-002	2.94562E-001	3.57480E+000	9	...........
	78	1.05333	2.89699E-001	-8.89833E-005	0.00000E+000	-2.57783E-005	-5.39641E-002	2.89738E-001	3.57480E+000	9	...........
	79	1.06667	2.84892E-001	-8.89114E-005	0.00000E+000	-2.53301E-005	-5.39641E-002	2.84932E-001	3.57480E+000	9	...........
	80	1.08	2.80105E-001	-8.91072E-005	0.00000E+000	-2.49594E-005	-5.39641E-002	2.80148E-001	3.57480E+000	9	...........
	81	1.09333	2.75330E-001	-8.88864E-005	0.00000E+000	-2.44731E-005	-5.39641E-002	2.75373E-001	3.57480E+000	9	...........
	82	1.10667	2.70559E-001	-8.89041E-005	0.00000E+000	-2.40538E-005	-5.39641E-002	2.70599E-001	3.57480E+000	9	...........
	83	1.12	2.65823E-001	-8.87561E-005	0.00000E+000	-2.35934E-005	-5.39641E-002	2.65859E-001	3.57480E+000	9	...........
	84	1.13333	2.61097E-001	-8.88686E-005	0.00000E+000	-2.32034E-005	-5.39641E-002	2.61131E-001	3.57480E+000	9	...........
	85	1.14667	2.56376E-001	-8.88322E-005	0.00000E+000	-2.27744E-005	-5.39641E-002	2.56413E-001	3.57480E+000	9	...........
	86	1.16	2.51680E-001	-8.87832E-005	0.00000E+000	-2.23450E-005	-5.39641E-002	2.51713E-001	3.57480E+000	9	...........
	87	1.17333	2.47010E-001	-8.88218E-005	0.00000E+000	-2.19398E-005	-5.39641E-002	2.47038E-001	3.57480E+000	9	...........
	88	1.18667	2.42351E-001	-8.87092E-005	0.00000E+000	-2.14988E-005	-5.39641E-002	2.42381E-001	3.57480E+000	9	...........
	89	1.2	2.37719E-001	-8.85873E-005	0.00000E+000	-2.10589E-005	-5.39641E-002	2.37748E-001	3.57480E+000	9	...........
	90	1.21333	2.33095E-001	-8.87040E-005	0.00000E+000	-2.06765E-005	-5.39641E-002	2.33117E-001	3.57480E+000	9	...........
	91	1.22667	2.28486E-001	-8.88728E-005	0.00000E+000	-2.03062E-005	-5.39641E-002	2.28506E-001	3.57480E+000	9	...........
	92	1.24	2.23896E-001	-8.87603E-005	0.00000E+000	-1.98731E-005	-5.39641E-002	2.23916E-001	3.57480E+000	9	...........
	93	1.25333	2.19321E-001	-8.87790E-005	0.00000E+000	-1.94711E-005	-5.39641E-002	2.19345E-001	3.57480E+000	9	...........
	94	1.26667	2.14767E-001	-8.87738E-005	0.00000E+000	-1.90657E-005	-5.39641E-002	2.14788E-001	3.57480E+000	9	...........
	95	1.28	2.10241E-001	-8.88884E-005	0.00000E+000	-1.86880E-005	-5.39641E-002	2.10258E-001	3.57480E+000	9	...........
	96	1.29333	2.05733E-001	-8.87978E-005	0.00000E+000	-1.82686E-005	-5.39641E-002	2.05752E-001	3.57480E+000	9	...........
	97	1.30667	2.01230E-001	-8.88759E-005	0.00000E+000	-1.78845E-005	-5.39641E-002	2.01255E-001	3.57480E+000	9	...........
	98	1.32	1.96745E-001	-8.88749E-005	0.00000E+000	-1.74857E-005	-5.39641E-002	1.96766E-001	3.57480E+000	9	...........
	99	1.33333	1.92269E-001	-8.87843E-005	0.00000E+000	-1.70705E-005	-5.39641E-002	1.92292E-001	3.57480E+000	9	...........
	100	1.34667	1.87821E-001	-8.88801E-005	0.00000E+000	-1.66935E-005	-5.39641E-002	1.87844E-001	3.57480E+000	9	...........
	101	1.36	1.83396E-001	-8.89520E-005	0.00000E+000	-1.63135E-005	-5.39641E-002	1.83417E-001	3.57480E+000	9	...........
	102	1.37333	1.78991E-001	-8.89801E-005	0.00000E+000	-1.59266E-005	-5.39641E-002	1.79011E-001	3.57480E+000	9	...........
	103	1.38667	1.74593E-001	-8.90666E-005	0.00000E+000	-1.55504E-005	-5.39641E-002	1.74612E-001	3.57480E+000	9	...........
	104	1.4	1.70216E-001	-8.88166E-005	0.00000E+000	-1.51180E-005	-5.39641E-002	1.70236E-001	3.57480E+000	9	...........
	105	1.41333	1.65855E-001	-8.87957E-005	0.00000E+000	-1.47272E-005	-5.39641E-002	1.65874E-001	3.57480E+000	9	...........
	106	1.42667	1.61523E-001	-8.87988E-005	0.00000E+000	-1.43430E-005	-5.39641E-002	1.61541E-001	3.57480E+000	9	...........
	107	1.44	1.57215E-001	-8.88937E-005	0.00000E+000	-1.39754E-005	-5.39641E-002	1.57230E-001	3.57480E+000	9	...........
	108	1.45333	1.52923E-001	-8.88207E-005	0.00000E+000	-1.35827E-005	-5.39641E-002	1.52933E-001	3.57480E+000	9	...........
	109	1.46667	1.48651E-001	-8.89937E-005	0.00000E+000	-1.32290E-005	-5.39641E-002	1.48669E-001	3.57480E+000	9	...........
	110	1.48	1.44398E-001	-8.87863E-005	0.00000E+000	-1.28206E-005	-5.39641E-002	1.44410E-001	3.57480E+000	9	...........
	111	1.49333	1.40149E-001	-8.87134E-005	0.00000E+000	-1.24331E-005	-5.39641E-002	1.40161E-001	3.57480E+000	9	...........
	112	1.50667	1.35922E-001	-8.87780E-005	0.00000E+000	-1.20669E-005	-5.39641E-002	1.35937E-001	3.57480E+000	9	...........
	113	1.52	1.31724E-001	-8.87488E-005	0.00000E+000	-1.16904E-005	-5.39641E-002	1.31738E-001	3.57480E+000	9	...........
	114	1.53333	1.27541E-001	-8.87134E-005	0.00000E+000	-1.13146E-005	-5.39641E-002	1.27561E-001	3.57480E+000	9	...........
	115	1.54667	1.23376E-001	-8.86415E-005	0.00000E+000	-1.09362E-005	-5.39641E-002	1.23393E-001	3.57480E+000	9	...........
	116	1.56	1.19241E-001	-8.87488E-005	0.00000E+000	-1.05825E-005	-5.39641E-002	1.19256E-001	3.57480E+000	9	...........
	117	1.57333	1.15125E-001	-8.85894E-005	0.00000E+000	-1.01988E-005	-5.39641E-002	1.15136E-001	3.57480E+000	9	...........
	118	1.58667	1.11019E-001	-8.86967E-005	0.00000E+000	-9.84701E-006	-5.39641E-002	1.11037E-001	3.57480E+000	9	...........
	119	1.6	1.06956E-001	-8.88561E-005	0.00000E+000	-9.50370E-006	-5.39641E-002	1.06967E-001	3.57480E+000	9	...........
	120	1.61333	1.02897E-001	-8.87582E-005	0.00000E+000	-9.13296E-006	-5.39641E-002	1.02908E-001	3.57480E+000	9	...........
	121	1.62667	9.88476E-002	-8.87332E-005	0.00000E+000	-8.77106E-006	-5.39641E-002	9.88621E-002	3.57392E+000	9	...........
	122	1.64	9.48245E-002	-8.89114E-005	0.00000E+000	-8.43097E-006	-5.39641E-002	9.48324E-002	3.57380E+000	9	...........
	123	1.65333	9.08116E-002	-8.85196E-005	0.00000E+000	-8.03861E-006	-5.39641E-002	9.08213E-002	3.57380E+000	9	...........
	124	1.66667	8.68251E-002	-8.89249E-005	0.00000E+000	-7.72091E-006	-5.39641E-002	8.68367E-002	3.57380E+000	9	...........
	125	1.68	8.28383E-002	-8.87978E-005	0.00000E+000	-7.35586E-006	-5.39641E-002	8.28447E-002	3.57380E+000	9	...........
	126	1.69333	7.88741E-002	-8.89697E-005	0.00000E+000	-7.01741E-006	-5.39641E-002	7.88763E-002	3.57380E+000	9	...........
	127	1.70667	7.49282E-002	-8.90249E-005	0.00000E+000	-6.67048E-006	-5.39641E-002	7.49304E-002	3.57380E+000	9	...........
	128	1.72	7.10072E-002	-8.89530E-005	0.00000E+000	-6.31630E-006	-5.39641E-002	7.10023E-002	3.57380E+000	9	...........
	129	1.73333	6.71004E-002	-8.85863E-005	0.00000E+000	-5.94418E-006	-5.39641E-002	6.70970E-002	3.57380E+000	9	...........
	130	1.74667	6.32094E-002	-8.90520E-005	0.00000E+000	-5.62893E-006	-5.39641E-002	6.32069E-002	3.57380E+000	9	...........
	131	1.76	5.93366E-002	-8.88207E-005	0.00000E+000	-5.27032E-006	-5.39641E-002	5.93364E-002	3.57380E+000	9	...........
	132	1.77333	5.54832E-002	-8.89009E-005	0.00000E+000	-4.93251E-006	-5.39641E-002	5.54831E-002	3.57380E+000	9	...........
	133	1.78667	5.16479E-002	-8.88968E-005	0.00000E+000	-4.59133E-006	-5.39641E-002	5.16455E-002	3.57380E+000	9	...........
	134	1.8	4.78357E-002	-8.89655E-005	0.00000E+000	-4.25573E-006	-5.39641E-002	4.78406E-002	3.57380E+000	9	...........
	135	1.81333	4.40470E-002	-8.86311E-005	0.00000E+000	-3.90393E-006	-5.39641E-002	4.40532E-002	3.57380E+000	9	...........
	136	1.82667	4.02556E-002	-8.88041E-005	0.00000E+000	-3.57486E-006	-5.39641E-002	4.02610E-002	3.57380E+000	9	...........
	137	1.84	3.64765E-002	-8.89374E-005	0.00000E+000	-3.24413E-006	-5.39641E-002	3.64809E-002	3.57380E+000	9	...........
	138	1.85333	3.27105E-002	-8.90322E-005	0.00000E+000	-2.91229E-006	-5.39641E-002	3.27160E-002	3.57380E+000	9	...........
	139	1.86667	2.89730E-002	-8.87353E-005	0.00000E+000	-2.57093E-006	-5.39641E-002	2.89689E-002	3.57380E+000	9	...........
	140	1.88	2.52495E-002	-8.90260E-005	0.00000E+000	-2.24786E-006	-5.39641E-002	2.52489E-002	3.57380E+000	9	...........
	141	1.89333	2.15434E-002	-8.86092E-005	0.00000E+000	-1.90894E-006	-5.39641E-002	2.15400E-002	3.57380E+000	9	...........
	142	1.90667	1.78558E-002	-8.89958E-005	0.00000E+000	-1.58909E-006	-5.39641E-002	1.78508E-002	3.57380E+000	9	...........
	143	1.92	1.41921E-002	-8.89739E-005	0.00000E+000	-1.26273E-006	-5.39641E-002	1.41855E-002	3.57380E+000	9	...........
	144	1.93333	1.05545E-002	-8.87822E-005	0.00000E+000	-9.37051E-007	-5.39641E-002	1.05495E-002	3.57380E+000	9	...........
	145	1.94667	6.93787E-003	-8.88124E-005	0.00000E+000	-6.16169E-007	-5.39641E-002	6.92796E-003	3.57380E+000	9	...........
	146	1.96	3.34518E-003	-8.87968E-005	0.00000E+000	-2.97041E-007	-5.39641E-002	3.33162E-003	3.57380E+000	9	...........
	147	1.96667	6.66300E-004	-8.85832E-005	0.00000E+000	-5.90230E-008	-5.39641E-002	6.52446E-004	3.57380E+000	9	...........
STARTTIMEOFFSET	QUANT	3291.87	Start Time Offset (s)
