EXPLAIN
TAG	PWR800_DISCHARGE
TITLE	LABEL	PWR Cyclic Charge Discharge (Cell) - Discharge Step	Test &Identifier
DATE	LABEL	10-7-2017	Date
TIME	LABEL	15:02:26	Time
NOTES	NOTES	3	&Notes...
	supercap test cell
	0.9mg
	6M KOH
PSTAT	PSTAT	IFC5000-01520	Potentiostat
CAPACITY	QUANT	1.00000E-003	Capacity (A-hr)
CELLTYPE	SELECTOR	1	&Cell Type
WORKINGCONNECTION	SELECTOR	0	&Working Lead
MAXDISCHARGETIME	VARIABLEANDUNITS	1.00000E+002	s	1.00000E+002	second(s)	Max &Discharge Time
DISCHARGEMODE	MULTIPARAM	0	9.00000E-005	&Discharge Mode	Constant Current	Amp(s)
SAMPLETIME	QUANT	1.00000E-002	Sa&mple Period (s)
DISCHARGESTOPAT1	MULTIPARAM	3	0.00000E+000	Discharge Stop At &1	Voltage < Limit	V
DISCHARGESTOPAT2	MULTIPARAM	0	0.00000E+000	Discharge Stop At &2	None	N/A
AESBHCSELECTOR	TOGGLE	F	Save Both Half Cells
IRCOMP	TOGGLE	F	IR &Measure
EOC	QUANT	0	Open Circuit (V)
SEQUENCER	TOGGLE	TRUE	Run as Sequence
PSTATMODEL	IQUANT	53	Pstat Model
PSTATSECTION	LABEL	IFC5000-01520	Pstat Section
PSTATSERIALNO	LABEL	01520	Pstat Serial Number
CTRLMODE	IQUANT	0	Control Mode
ELECTROMETER	IQUANT	1	RE=0 or CS=1
IESTAB	IQUANT	0	I/E Stability
CASPEED	IQUANT	4	Control Amp Speed
CONVENTION	IQUANT	1	Current Convention
ICHRANGE	IQUANT	2	Ich Range
ICHRANGEMODE	TOGGLE	T	Ich Auto Range
ICHOFFSETENABLE	TOGGLE	F	Ich Offset Enable
ICHOFFSET	QUANT	0	Ich Offset (V)
ICHFILTER	IQUANT	1	Ich Filter
VCHRANGE	IQUANT	2	Vch Range
VCHRANGEMODE	TOGGLE	T	Vch Auto Range
VCHOFFSETENABLE	TOGGLE	F	Vch Offset Enable
VCHOFFSET	QUANT	0	Vch Offset (V)
VCHFILTER	IQUANT	1	Vch Filter
IERANGELOWERLIMIT	IQUANT	9	I/E Range Lower Limit
IERANGEMODE	TOGGLE	F	I/E AutoRange
IERANGE	IQUANT	9	I/E Range
ACHSELECT	IQUANT	1	Ach Select
ACHRANGE	IQUANT	2	Ach Range
ACHOFFSETENABLE	TOGGLE	F	Ach Offset Enable
ACHOFFSET	QUANT	0	Ach Offset (V)
ACHFILTER	IQUANT	1	Ach Filter
CABLEID	IQUANT	14	Cable ID
DCCALDATE	LABEL	5-7-2017	DC Calibration Date
ACCALDATE	LABEL	12/3/2015	AC Calibration Date
FRAMEWORKVERSION	QUANT	7.01	Framework Version
INSTRUMENTVERSION	LABEL	4.00	Instrument Version
CURVE	TABLE	173
	Pt	T	Vf	Im	Vu	Pwr	Sig	Ach	Temp	IERange	Over
	#	s	V	A	V	W	V	V	deg C	#	bits
	0	0.013333	8.47146E-001	-8.86926E-005	0.00000E+000	-7.51355E-005	-5.39641E-002	8.47266E-001	3.57130E+000	9	...........
	1	0.026667	8.36462E-001	-8.86655E-005	0.00000E+000	-7.41653E-005	-5.39641E-002	8.36585E-001	3.57130E+000	9	...........
	2	0.04	8.26369E-001	-8.85832E-005	0.00000E+000	-7.32024E-005	-5.39641E-002	8.26486E-001	3.57130E+000	9	...........
	3	0.053333	8.16711E-001	-8.84404E-005	0.00000E+000	-7.22303E-005	-5.39641E-002	8.16827E-001	3.57130E+000	9	...........
	4	0.066667	8.07382E-001	-8.88051E-005	0.00000E+000	-7.16997E-005	-5.39641E-002	8.07478E-001	3.57130E+000	9	...........
	5	0.08	7.98390E-001	-8.84634E-005	0.00000E+000	-7.06283E-005	-5.39641E-002	7.98483E-001	3.57130E+000	9	...........
	6	0.093333	7.89614E-001	-8.84967E-005	0.00000E+000	-6.98783E-005	-5.39641E-002	7.89707E-001	3.57130E+000	9	...........
	7	0.106667	7.81101E-001	-8.87509E-005	0.00000E+000	-6.93235E-005	-5.39641E-002	7.81204E-001	3.57130E+000	9	...........
	8	0.12	7.72790E-001	-8.85196E-005	0.00000E+000	-6.84070E-005	-5.39641E-002	7.72907E-001	3.57130E+000	9	...........
	9	0.133333	7.64678E-001	-8.87051E-005	0.00000E+000	-6.78308E-005	-5.39641E-002	7.64769E-001	3.57130E+000	9	...........
	10	0.146667	7.56727E-001	-8.87665E-005	0.00000E+000	-6.71721E-005	-5.39641E-002	7.56846E-001	3.57130E+000	9	...........
	11	0.16	7.48953E-001	-8.85998E-005	0.00000E+000	-6.63571E-005	-5.39641E-002	7.49024E-001	3.57130E+000	9	...........
	12	0.173333	7.41303E-001	-8.87290E-005	0.00000E+000	-6.57751E-005	-5.39641E-002	7.41386E-001	3.57130E+000	9	...........
	13	0.186667	7.33788E-001	-8.84331E-005	0.00000E+000	-6.48911E-005	-5.39641E-002	7.33869E-001	3.57130E+000	9	...........
	14	0.2	7.26424E-001	-8.86207E-005	0.00000E+000	-6.43762E-005	-5.39641E-002	7.26493E-001	3.57130E+000	9	...........
	15	0.213333	7.19185E-001	-8.83623E-005	0.00000E+000	-6.35488E-005	-5.39641E-002	7.19246E-001	3.57130E+000	9	...........
	16	0.226667	7.12002E-001	-8.86071E-005	0.00000E+000	-6.30885E-005	-5.39641E-002	7.12081E-001	3.57130E+000	9	...........
	17	0.24	7.04961E-001	-8.84873E-005	0.00000E+000	-6.23801E-005	-5.39641E-002	7.05043E-001	3.57130E+000	9	...........
	18	0.253333	6.98043E-001	-8.86978E-005	0.00000E+000	-6.19149E-005	-5.39641E-002	6.98119E-001	3.57130E+000	9	...........
	19	0.266667	6.91198E-001	-8.86978E-005	0.00000E+000	-6.13077E-005	-5.39641E-002	6.91257E-001	3.57130E+000	9	...........
	20	0.28	6.84434E-001	-8.84706E-005	0.00000E+000	-6.05524E-005	-5.39641E-002	6.84494E-001	3.57130E+000	9	...........
	21	0.293333	6.77784E-001	-8.84811E-005	0.00000E+000	-5.99711E-005	-5.39641E-002	6.77828E-001	3.57130E+000	9	...........
	22	0.306667	6.71194E-001	-8.87936E-005	0.00000E+000	-5.95978E-005	-5.39641E-002	6.71244E-001	3.57130E+000	9	...........
	23	0.32	6.64638E-001	-8.86738E-005	0.00000E+000	-5.89360E-005	-5.39641E-002	6.64745E-001	3.57130E+000	9	...........
	24	0.333333	6.58210E-001	-8.83258E-005	0.00000E+000	-5.81369E-005	-5.39641E-002	6.58289E-001	3.57130E+000	9	...........
	25	0.346667	6.51831E-001	-8.85811E-005	0.00000E+000	-5.77399E-005	-5.39641E-002	6.51922E-001	3.57130E+000	9	...........
	26	0.36	6.45525E-001	-8.85405E-005	0.00000E+000	-5.71551E-005	-5.39641E-002	6.45619E-001	3.57130E+000	9	...........
	27	0.373333	6.39280E-001	-8.86446E-005	0.00000E+000	-5.66688E-005	-5.39641E-002	6.39377E-001	3.57130E+000	9	...........
	28	0.386667	6.33083E-001	-8.84040E-005	0.00000E+000	-5.59670E-005	-5.39641E-002	6.33188E-001	3.57130E+000	9	...........
	29	0.4	6.26968E-001	-8.88051E-005	0.00000E+000	-5.56780E-005	-5.39641E-002	6.27039E-001	3.57130E+000	9	...........
	30	0.413333	6.20877E-001	-8.84852E-005	0.00000E+000	-5.49385E-005	-5.39641E-002	6.20968E-001	3.57130E+000	9	...........
	31	0.426667	6.14829E-001	-8.87520E-005	0.00000E+000	-5.45672E-005	-5.39641E-002	6.14918E-001	3.57130E+000	9	...........
	32	0.44	6.08779E-001	-8.85467E-005	0.00000E+000	-5.39054E-005	-5.39641E-002	6.08891E-001	3.57130E+000	9	...........
	33	0.453333	6.02860E-001	-8.85217E-005	0.00000E+000	-5.33662E-005	-5.39641E-002	6.02985E-001	3.57130E+000	9	...........
	34	0.466667	5.96953E-001	-8.87457E-005	0.00000E+000	-5.29770E-005	-5.39641E-002	5.97045E-001	3.57130E+000	9	...........
	35	0.48	5.91125E-001	-8.83779E-005	0.00000E+000	-5.22424E-005	-5.39641E-002	5.91201E-001	3.57130E+000	9	...........
	36	0.493333	5.85256E-001	-8.84779E-005	0.00000E+000	-5.17823E-005	-5.39641E-002	5.85377E-001	3.57130E+000	9	...........
	37	0.506667	5.79489E-001	-8.86217E-005	0.00000E+000	-5.13553E-005	-5.39641E-002	5.79596E-001	3.57130E+000	9	...........
	38	0.52	5.73766E-001	-8.86373E-005	0.00000E+000	-5.08571E-005	-5.39641E-002	5.73853E-001	3.57130E+000	9	...........
	39	0.533333	5.68060E-001	-8.84206E-005	0.00000E+000	-5.02282E-005	-5.39641E-002	5.68171E-001	3.57130E+000	9	...........
	40	0.546667	5.62382E-001	-8.87520E-005	0.00000E+000	-4.99125E-005	-5.39641E-002	5.62482E-001	3.57130E+000	9	...........
	41	0.56	5.56721E-001	-8.86749E-005	0.00000E+000	-4.93672E-005	-5.39641E-002	5.56834E-001	3.57130E+000	9	...........
	42	0.573333	5.51128E-001	-8.85571E-005	0.00000E+000	-4.88063E-005	-5.39641E-002	5.51212E-001	3.57130E+000	9	...........
	43	0.586667	5.45543E-001	-8.86217E-005	0.00000E+000	-4.83470E-005	-5.39641E-002	5.45612E-001	3.57130E+000	9	...........
	44	0.6	5.39997E-001	-8.85123E-005	0.00000E+000	-4.77964E-005	-5.39641E-002	5.40089E-001	3.57130E+000	9	...........
	45	0.613333	5.34430E-001	-8.86790E-005	0.00000E+000	-4.73927E-005	-5.39641E-002	5.34509E-001	3.57130E+000	9	...........
	46	0.626667	5.28933E-001	-8.85811E-005	0.00000E+000	-4.68535E-005	-5.39641E-002	5.29002E-001	3.57130E+000	9	...........
	47	0.64	5.23462E-001	-8.83133E-005	0.00000E+000	-4.62287E-005	-5.39641E-002	5.23517E-001	3.57130E+000	9	...........
	48	0.653333	5.18004E-001	-8.86196E-005	0.00000E+000	-4.59053E-005	-5.39641E-002	5.18077E-001	3.57130E+000	9	...........
	49	0.666667	5.12570E-001	-8.86957E-005	0.00000E+000	-4.54627E-005	-5.39641E-002	5.12646E-001	3.57130E+000	9	...........
	50	0.68	5.07099E-001	-8.85780E-005	0.00000E+000	-4.49178E-005	-5.39641E-002	5.07243E-001	3.57130E+000	9	...........
	51	0.693333	5.01753E-001	-8.82956E-005	0.00000E+000	-4.43026E-005	-5.39641E-002	5.01848E-001	3.57130E+000	9	...........
	52	0.706667	4.96387E-001	-8.86019E-005	0.00000E+000	-4.39809E-005	-5.39641E-002	4.96488E-001	3.57130E+000	9	...........
	53	0.72	4.91067E-001	-8.87113E-005	0.00000E+000	-4.35632E-005	-5.39641E-002	4.91140E-001	3.57130E+000	9	...........
	54	0.733333	4.85764E-001	-8.87603E-005	0.00000E+000	-4.31166E-005	-5.39641E-002	4.85843E-001	3.57130E+000	9	...........
	55	0.746667	4.80493E-001	-8.88416E-005	0.00000E+000	-4.26878E-005	-5.39641E-002	4.80541E-001	3.57130E+000	9	...........
	56	0.76	4.75202E-001	-8.82466E-005	0.00000E+000	-4.19350E-005	-5.39641E-002	4.75244E-001	3.57130E+000	9	...........
	57	0.773333	4.69921E-001	-8.84831E-005	0.00000E+000	-4.15801E-005	-5.39641E-002	4.69968E-001	3.57130E+000	9	...........
	58	0.786667	4.64675E-001	-8.85467E-005	0.00000E+000	-4.11455E-005	-5.39641E-002	4.64724E-001	3.57130E+000	9	...........
	59	0.8	4.59472E-001	-8.86280E-005	0.00000E+000	-4.07221E-005	-5.39641E-002	4.59519E-001	3.57130E+000	9	...........
	60	0.813333	4.54280E-001	-8.86905E-005	0.00000E+000	-4.02904E-005	-5.39641E-002	4.54326E-001	3.57130E+000	9	...........
	61	0.826667	4.49117E-001	-8.86321E-005	0.00000E+000	-3.98062E-005	-5.39641E-002	4.49160E-001	3.57218E+000	9	...........
	62	0.84	4.43993E-001	-8.85300E-005	0.00000E+000	-3.93067E-005	-5.39641E-002	4.44032E-001	3.57230E+000	9	...........
	63	0.853333	4.38890E-001	-8.86551E-005	0.00000E+000	-3.89098E-005	-5.39641E-002	4.38927E-001	3.57230E+000	9	...........
	64	0.866667	4.33797E-001	-8.86540E-005	0.00000E+000	-3.84578E-005	-5.39641E-002	4.33838E-001	3.57230E+000	9	...........
	65	0.88	4.28722E-001	-8.85290E-005	0.00000E+000	-3.79543E-005	-5.39641E-002	4.28760E-001	3.57230E+000	9	...........
	66	0.893333	4.23653E-001	-8.86363E-005	0.00000E+000	-3.75511E-005	-5.39641E-002	4.23690E-001	3.57230E+000	9	...........
	67	0.906667	4.18617E-001	-8.84686E-005	0.00000E+000	-3.70344E-005	-5.39641E-002	4.18655E-001	3.57230E+000	9	...........
	68	0.92	4.13622E-001	-8.85290E-005	0.00000E+000	-3.66175E-005	-5.39641E-002	4.13659E-001	3.57230E+000	9	...........
	69	0.933333	4.08642E-001	-8.86217E-005	0.00000E+000	-3.62145E-005	-5.39641E-002	4.08678E-001	3.57230E+000	9	...........
	70	0.946667	4.03690E-001	-8.86019E-005	0.00000E+000	-3.57677E-005	-5.39641E-002	4.03724E-001	3.57230E+000	9	...........
	71	0.96	3.98758E-001	-8.82946E-005	0.00000E+000	-3.52081E-005	-5.39641E-002	3.98792E-001	3.57230E+000	9	...........
	72	0.97333	3.93854E-001	-8.85446E-005	0.00000E+000	-3.48737E-005	-5.39641E-002	3.93888E-001	3.57230E+000	9	...........
	73	0.98667	3.88968E-001	-8.86186E-005	0.00000E+000	-3.44698E-005	-5.39641E-002	3.89001E-001	3.57230E+000	9	...........
	74	1	3.84089E-001	-8.87217E-005	0.00000E+000	-3.40770E-005	-5.39641E-002	3.84118E-001	3.57230E+000	9	...........
	75	1.01333	3.79250E-001	-8.87186E-005	0.00000E+000	-3.36465E-005	-5.39641E-002	3.79284E-001	3.57230E+000	9	...........
	76	1.02667	3.74424E-001	-8.84446E-005	0.00000E+000	-3.31158E-005	-5.39641E-002	3.74454E-001	3.57230E+000	9	...........
	77	1.04	3.69621E-001	-8.87332E-005	0.00000E+000	-3.27977E-005	-5.39641E-002	3.69651E-001	3.57230E+000	9	...........
	78	1.05333	3.64857E-001	-8.86811E-005	0.00000E+000	-3.23559E-005	-5.39641E-002	3.64886E-001	3.57230E+000	9	...........
	79	1.06667	3.60117E-001	-8.84581E-005	0.00000E+000	-3.18553E-005	-5.39641E-002	3.60143E-001	3.57230E+000	9	...........
	80	1.08	3.55390E-001	-8.86905E-005	0.00000E+000	-3.15197E-005	-5.39641E-002	3.55420E-001	3.57230E+000	9	...........
	81	1.09333	3.50683E-001	-8.87290E-005	0.00000E+000	-3.11157E-005	-5.39641E-002	3.50711E-001	3.57230E+000	9	...........
	82	1.10667	3.45991E-001	-8.85394E-005	0.00000E+000	-3.06338E-005	-5.39641E-002	3.46024E-001	3.57230E+000	9	...........
	83	1.12	3.41340E-001	-8.84717E-005	0.00000E+000	-3.01989E-005	-5.39641E-002	3.41364E-001	3.57230E+000	9	...........
	84	1.13333	3.36735E-001	-8.86092E-005	0.00000E+000	-2.98378E-005	-5.39641E-002	3.36759E-001	3.57230E+000	9	...........
	85	1.14667	3.32135E-001	-8.86155E-005	0.00000E+000	-2.94323E-005	-5.39641E-002	3.32162E-001	3.57230E+000	9	...........
	86	1.16	3.27547E-001	-8.84446E-005	0.00000E+000	-2.89698E-005	-5.39641E-002	3.27572E-001	3.57230E+000	9	...........
	87	1.17333	3.22988E-001	-8.86686E-005	0.00000E+000	-2.86389E-005	-5.39641E-002	3.23013E-001	3.57230E+000	9	...........
	88	1.18667	3.18448E-001	-8.82602E-005	0.00000E+000	-2.81063E-005	-5.39641E-002	3.18476E-001	3.57230E+000	9	...........
	89	1.2	3.13939E-001	-8.84279E-005	0.00000E+000	-2.77609E-005	-5.39641E-002	3.13967E-001	3.57230E+000	9	...........
	90	1.21333	3.09456E-001	-8.87978E-005	0.00000E+000	-2.74790E-005	-5.39641E-002	3.09477E-001	3.57230E+000	9	...........
	91	1.22667	3.04981E-001	-8.87217E-005	0.00000E+000	-2.70585E-005	-5.39641E-002	3.05006E-001	3.57230E+000	9	...........
	92	1.24	3.00521E-001	-8.83717E-005	0.00000E+000	-2.65575E-005	-5.39641E-002	3.00544E-001	3.57230E+000	9	...........
	93	1.25333	2.96085E-001	-8.88686E-005	0.00000E+000	-2.63127E-005	-5.39641E-002	2.96109E-001	3.57230E+000	9	...........
	94	1.26667	2.91688E-001	-8.85102E-005	0.00000E+000	-2.58174E-005	-5.39641E-002	2.91706E-001	3.57230E+000	9	...........
	95	1.28	2.87323E-001	-8.86697E-005	0.00000E+000	-2.54768E-005	-5.39641E-002	2.87346E-001	3.57230E+000	9	...........
	96	1.29333	2.82973E-001	-8.85957E-005	0.00000E+000	-2.50702E-005	-5.39641E-002	2.83000E-001	3.57230E+000	9	...........
	97	1.30667	2.78642E-001	-8.85842E-005	0.00000E+000	-2.46832E-005	-5.39641E-002	2.78664E-001	3.57230E+000	9	...........
	98	1.32	2.74320E-001	-8.86926E-005	0.00000E+000	-2.43302E-005	-5.39641E-002	2.74347E-001	3.57230E+000	9	...........
	99	1.33333	2.70038E-001	-8.88468E-005	0.00000E+000	-2.39920E-005	-5.39641E-002	2.70062E-001	3.57230E+000	9	...........
	100	1.34667	2.65760E-001	-8.86217E-005	0.00000E+000	-2.35521E-005	-5.39641E-002	2.65784E-001	3.57230E+000	9	...........
	101	1.36	2.61516E-001	-8.87780E-005	0.00000E+000	-2.32168E-005	-5.39641E-002	2.61534E-001	3.57230E+000	9	...........
	102	1.37333	2.57293E-001	-8.87551E-005	0.00000E+000	-2.28360E-005	-5.39641E-002	2.57312E-001	3.57230E+000	9	...........
	103	1.38667	2.53079E-001	-8.86332E-005	0.00000E+000	-2.24312E-005	-5.39641E-002	2.53099E-001	3.57230E+000	9	...........
	104	1.4	2.48889E-001	-8.86019E-005	0.00000E+000	-2.20520E-005	-5.39641E-002	2.48903E-001	3.57230E+000	9	...........
	105	1.41333	2.44727E-001	-8.87780E-005	0.00000E+000	-2.17264E-005	-5.39641E-002	2.44741E-001	3.57230E+000	9	...........
	106	1.42667	2.40597E-001	-8.87832E-005	0.00000E+000	-2.13610E-005	-5.39641E-002	2.40608E-001	3.57230E+000	9	...........
	107	1.44	2.36461E-001	-8.85613E-005	0.00000E+000	-2.09413E-005	-5.39641E-002	2.36474E-001	3.57230E+000	9	...........
	108	1.45333	2.32335E-001	-8.86832E-005	0.00000E+000	-2.06042E-005	-5.39641E-002	2.32347E-001	3.57230E+000	9	...........
	109	1.46667	2.28217E-001	-8.86009E-005	0.00000E+000	-2.02202E-005	-5.39641E-002	2.28235E-001	3.57230E+000	9	...........
	110	1.48	2.24114E-001	-8.81591E-005	0.00000E+000	-1.97577E-005	-5.39641E-002	2.24127E-001	3.57230E+000	9	...........
	111	1.49333	2.20047E-001	-8.88239E-005	0.00000E+000	-1.95454E-005	-5.39641E-002	2.20059E-001	3.57230E+000	9	...........
	112	1.50667	2.16007E-001	-8.85946E-005	0.00000E+000	-1.91370E-005	-5.39641E-002	2.16019E-001	3.57230E+000	9	...........
	113	1.52	2.11964E-001	-8.85800E-005	0.00000E+000	-1.87758E-005	-5.39641E-002	2.11982E-001	3.57230E+000	9	...........
	114	1.53333	2.07945E-001	-8.88009E-005	0.00000E+000	-1.84657E-005	-5.39641E-002	2.07958E-001	3.57230E+000	9	...........
	115	1.54667	2.03932E-001	-8.86519E-005	0.00000E+000	-1.80790E-005	-5.39641E-002	2.03950E-001	3.57230E+000	9	...........
	116	1.56	1.99940E-001	-8.85415E-005	0.00000E+000	-1.77030E-005	-5.39641E-002	1.99956E-001	3.57230E+000	9	...........
	117	1.57333	1.95963E-001	-8.86978E-005	0.00000E+000	-1.73815E-005	-5.39641E-002	1.95980E-001	3.57230E+000	9	...........
	118	1.58667	1.92010E-001	-8.84644E-005	0.00000E+000	-1.69860E-005	-5.39641E-002	1.92026E-001	3.57230E+000	9	...........
	119	1.6	1.88059E-001	-8.87884E-005	0.00000E+000	-1.66975E-005	-5.39641E-002	1.88075E-001	3.57230E+000	9	...........
	120	1.61333	1.84134E-001	-8.86613E-005	0.00000E+000	-1.63255E-005	-5.39641E-002	1.84148E-001	3.57230E+000	9	...........
	121	1.62667	1.80230E-001	-8.83779E-005	0.00000E+000	-1.59284E-005	-5.39641E-002	1.80241E-001	3.57230E+000	9	...........
	122	1.64	1.76342E-001	-8.85946E-005	0.00000E+000	-1.56229E-005	-5.39641E-002	1.76359E-001	3.57230E+000	9	...........
	123	1.65333	1.72478E-001	-8.85780E-005	0.00000E+000	-1.52777E-005	-5.39641E-002	1.72490E-001	3.57230E+000	9	...........
	124	1.66667	1.68617E-001	-8.84383E-005	0.00000E+000	-1.49122E-005	-5.39641E-002	1.68624E-001	3.57230E+000	9	...........
	125	1.68	1.64768E-001	-8.85602E-005	0.00000E+000	-1.45919E-005	-5.39641E-002	1.64777E-001	3.57230E+000	9	...........
	126	1.69333	1.60940E-001	-8.86665E-005	0.00000E+000	-1.42700E-005	-5.39641E-002	1.60950E-001	3.57230E+000	9	...........
	127	1.70667	1.57103E-001	-8.85300E-005	0.00000E+000	-1.39083E-005	-5.39641E-002	1.57117E-001	3.57230E+000	9	...........
	128	1.72	1.53288E-001	-8.85613E-005	0.00000E+000	-1.35754E-005	-5.39641E-002	1.53294E-001	3.57230E+000	9	...........
	129	1.73333	1.49469E-001	-8.84863E-005	0.00000E+000	-1.32259E-005	-5.39641E-002	1.49479E-001	3.57230E+000	9	...........
	130	1.74667	1.45697E-001	-8.85884E-005	0.00000E+000	-1.29070E-005	-5.39641E-002	1.45704E-001	3.57230E+000	9	...........
	131	1.76	1.41936E-001	-8.88509E-005	0.00000E+000	-1.26112E-005	-5.39641E-002	1.41947E-001	3.57230E+000	9	...........
	132	1.77333	1.38186E-001	-8.86019E-005	0.00000E+000	-1.22436E-005	-5.39641E-002	1.38194E-001	3.57230E+000	9	...........
	133	1.78667	1.34439E-001	-8.85217E-005	0.00000E+000	-1.19008E-005	-5.39641E-002	1.34445E-001	3.57230E+000	9	...........
	134	1.8	1.30693E-001	-8.86176E-005	0.00000E+000	-1.15817E-005	-5.39641E-002	1.30703E-001	3.57230E+000	9	...........
	135	1.81333	1.26963E-001	-8.85457E-005	0.00000E+000	-1.12420E-005	-5.39641E-002	1.26960E-001	3.57230E+000	9	...........
	136	1.82667	1.23225E-001	-8.86603E-005	0.00000E+000	-1.09252E-005	-5.39641E-002	1.23228E-001	3.57151E+000	9	...........
	137	1.84	1.19531E-001	-8.86738E-005	0.00000E+000	-1.05992E-005	-5.39641E-002	1.19535E-001	3.57140E+000	9	...........
	138	1.85333	1.15849E-001	-8.88603E-005	0.00000E+000	-1.02944E-005	-5.39641E-002	1.15853E-001	3.57140E+000	9	...........
	139	1.86667	1.12194E-001	-8.87926E-005	0.00000E+000	-9.96199E-006	-5.39641E-002	1.12199E-001	3.57140E+000	9	...........
	140	1.88	1.08569E-001	-8.86530E-005	0.00000E+000	-9.62496E-006	-5.39641E-002	1.08573E-001	3.57140E+000	9	...........
	141	1.89333	1.04935E-001	-8.85477E-005	0.00000E+000	-9.29173E-006	-5.39641E-002	1.04942E-001	3.57140E+000	9	...........
	142	1.90667	1.01305E-001	-8.84811E-005	0.00000E+000	-8.96361E-006	-5.39641E-002	1.01310E-001	3.57140E+000	9	...........
	143	1.92	9.76640E-002	-8.85998E-005	0.00000E+000	-8.65302E-006	-5.39641E-002	9.76708E-002	3.57140E+000	9	...........
	144	1.93333	9.40453E-002	-8.87499E-005	0.00000E+000	-8.34651E-006	-5.39641E-002	9.40548E-002	3.57140E+000	9	...........
	145	1.94667	9.04448E-002	-8.86811E-005	0.00000E+000	-8.02074E-006	-5.39641E-002	9.04489E-002	3.57140E+000	9	...........
	146	1.96	8.68631E-002	-8.86530E-005	0.00000E+000	-7.70067E-006	-5.39641E-002	8.68674E-002	3.57140E+000	9	...........
	147	1.97333	8.33015E-002	-8.86624E-005	0.00000E+000	-7.38570E-006	-5.39641E-002	8.33037E-002	3.57140E+000	9	...........
	148	1.98667	7.97573E-002	-8.85352E-005	0.00000E+000	-7.06133E-006	-5.39641E-002	7.97634E-002	3.57140E+000	9	...........
	149	2	7.62091E-002	-8.84957E-005	0.00000E+000	-6.74417E-006	-5.39641E-002	7.62132E-002	3.57140E+000	9	...........
	150	2.01333	7.26818E-002	-8.87811E-005	0.00000E+000	-6.45277E-006	-5.39641E-002	7.26865E-002	3.57140E+000	9	...........
	151	2.02667	6.91744E-002	-8.86040E-005	0.00000E+000	-6.12913E-006	-5.39641E-002	6.91796E-002	3.57140E+000	9	...........
	152	2.04	6.56885E-002	-8.88332E-005	0.00000E+000	-5.83532E-006	-5.39641E-002	6.56928E-002	3.57140E+000	9	...........
	153	2.05333	6.22240E-002	-8.84654E-005	0.00000E+000	-5.50467E-006	-5.39641E-002	6.22207E-002	3.57140E+000	9	...........
	154	2.06667	5.87754E-002	-8.84258E-005	0.00000E+000	-5.19727E-006	-5.39641E-002	5.87742E-002	3.57140E+000	9	...........
	155	2.08	5.53449E-002	-8.85832E-005	0.00000E+000	-4.90262E-006	-5.39641E-002	5.53447E-002	3.57140E+000	9	...........
	156	2.09333	5.19226E-002	-8.84946E-005	0.00000E+000	-4.59487E-006	-5.39641E-002	5.19160E-002	3.57140E+000	9	...........
	157	2.10667	4.85085E-002	-8.84936E-005	0.00000E+000	-4.29269E-006	-5.39641E-002	4.85126E-002	3.57140E+000	9	...........
	158	2.12	4.51200E-002	-8.87249E-005	0.00000E+000	-4.00327E-006	-5.39641E-002	4.51241E-002	3.57140E+000	9	...........
	159	2.13333	4.17428E-002	-8.86936E-005	0.00000E+000	-3.70232E-006	-5.39641E-002	4.17478E-002	3.57140E+000	9	...........
	160	2.14667	3.84001E-002	-8.85811E-005	0.00000E+000	-3.40152E-006	-5.39641E-002	3.84061E-002	3.57140E+000	9	...........
	161	2.16	3.50878E-002	-8.87843E-005	0.00000E+000	-3.11525E-006	-5.39641E-002	3.50877E-002	3.57140E+000	9	...........
	162	2.17333	3.17559E-002	-8.88353E-005	0.00000E+000	-2.82105E-006	-5.39641E-002	3.17559E-002	3.57140E+000	9	...........
	163	2.18667	2.84347E-002	-8.85373E-005	0.00000E+000	-2.51753E-006	-5.39641E-002	2.84365E-002	3.57140E+000	9	...........
	164	2.2	2.51542E-002	-8.83456E-005	0.00000E+000	-2.22226E-006	-5.39641E-002	2.51517E-002	3.57140E+000	9	...........
	165	2.21333	2.19102E-002	-8.88009E-005	0.00000E+000	-1.94565E-006	-5.39641E-002	2.19074E-002	3.57140E+000	9	...........
	166	2.22667	1.86597E-002	-8.89270E-005	0.00000E+000	-1.65935E-006	-5.39641E-002	1.86534E-002	3.57140E+000	9	...........
	167	2.24	1.54420E-002	-8.87645E-005	0.00000E+000	-1.37070E-006	-5.39641E-002	1.54382E-002	3.57140E+000	9	...........
	168	2.25333	1.22402E-002	-8.85863E-005	0.00000E+000	-1.08431E-006	-5.39641E-002	1.22289E-002	3.57140E+000	9	...........
	169	2.26667	9.03952E-003	-8.88739E-005	0.00000E+000	-8.03377E-007	-5.39641E-002	9.02895E-003	3.57140E+000	9	...........
	170	2.28	5.86155E-003	-8.84779E-005	0.00000E+000	-5.18618E-007	-5.39641E-002	5.85063E-003	3.57140E+000	9	...........
	171	2.29333	2.72967E-003	-8.82904E-005	0.00000E+000	-2.41004E-007	-5.39641E-002	2.71598E-003	3.57140E+000	9	...........
	172	2.3	4.02509E-004	-8.87165E-005	0.00000E+000	-3.57092E-008	-5.39641E-002	3.87180E-004	3.57140E+000	9	...........
STARTTIMEOFFSET	QUANT	160.7717	Start Time Offset (s)
