EXPLAIN
TAG	PWR800_DISCHARGE
TITLE	LABEL	PWR Cyclic Charge Discharge (Cell) - Discharge Step	Test &Identifier
DATE	LABEL	10-7-2017	Date
TIME	LABEL	16:02:02	Time
NOTES	NOTES	3	&Notes...
	supercap test cell
	0.9mg
	6M KOH
PSTAT	PSTAT	IFC5000-01520	Potentiostat
CAPACITY	QUANT	1.00000E-003	Capacity (A-hr)
CELLTYPE	SELECTOR	1	&Cell Type
WORKINGCONNECTION	SELECTOR	0	&Working Lead
MAXDISCHARGETIME	VARIABLEANDUNITS	1.00000E+002	s	1.00000E+002	second(s)	Max &Discharge Time
DISCHARGEMODE	MULTIPARAM	0	9.00000E-005	&Discharge Mode	Constant Current	Amp(s)
SAMPLETIME	QUANT	1.00000E-002	Sa&mple Period (s)
DISCHARGESTOPAT1	MULTIPARAM	3	0.00000E+000	Discharge Stop At &1	Voltage < Limit	V
DISCHARGESTOPAT2	MULTIPARAM	0	0.00000E+000	Discharge Stop At &2	None	N/A
AESBHCSELECTOR	TOGGLE	F	Save Both Half Cells
IRCOMP	TOGGLE	F	IR &Measure
EOC	QUANT	0	Open Circuit (V)
SEQUENCER	TOGGLE	TRUE	Run as Sequence
PSTATMODEL	IQUANT	53	Pstat Model
PSTATSECTION	LABEL	IFC5000-01520	Pstat Section
PSTATSERIALNO	LABEL	01520	Pstat Serial Number
CTRLMODE	IQUANT	0	Control Mode
ELECTROMETER	IQUANT	1	RE=0 or CS=1
IESTAB	IQUANT	0	I/E Stability
CASPEED	IQUANT	4	Control Amp Speed
CONVENTION	IQUANT	1	Current Convention
ICHRANGE	IQUANT	2	Ich Range
ICHRANGEMODE	TOGGLE	T	Ich Auto Range
ICHOFFSETENABLE	TOGGLE	F	Ich Offset Enable
ICHOFFSET	QUANT	0	Ich Offset (V)
ICHFILTER	IQUANT	1	Ich Filter
VCHRANGE	IQUANT	2	Vch Range
VCHRANGEMODE	TOGGLE	T	Vch Auto Range
VCHOFFSETENABLE	TOGGLE	F	Vch Offset Enable
VCHOFFSET	QUANT	0	Vch Offset (V)
VCHFILTER	IQUANT	1	Vch Filter
IERANGELOWERLIMIT	IQUANT	9	I/E Range Lower Limit
IERANGEMODE	TOGGLE	F	I/E AutoRange
IERANGE	IQUANT	9	I/E Range
ACHSELECT	IQUANT	1	Ach Select
ACHRANGE	IQUANT	2	Ach Range
ACHOFFSETENABLE	TOGGLE	F	Ach Offset Enable
ACHOFFSET	QUANT	0	Ach Offset (V)
ACHFILTER	IQUANT	1	Ach Filter
CABLEID	IQUANT	14	Cable ID
DCCALDATE	LABEL	5-7-2017	DC Calibration Date
ACCALDATE	LABEL	12/3/2015	AC Calibration Date
FRAMEWORKVERSION	QUANT	7.01	Framework Version
INSTRUMENTVERSION	LABEL	4.00	Instrument Version
CURVE	TABLE	149
	Pt	T	Vf	Im	Vu	Pwr	Sig	Ach	Temp	IERange	Over
	#	s	V	A	V	W	V	V	deg C	#	bits
	0	0.013333	8.03258E-001	-8.87019E-005	0.00000E+000	-7.12506E-005	-5.39641E-002	8.03376E-001	3.57260E+000	9	...........
	1	0.026667	7.89244E-001	-8.88270E-005	0.00000E+000	-7.01062E-005	-5.39641E-002	7.89374E-001	3.57260E+000	9	...........
	2	0.04	7.76183E-001	-8.86353E-005	0.00000E+000	-6.87972E-005	-5.39641E-002	7.76311E-001	3.57260E+000	9	...........
	3	0.053333	7.63860E-001	-8.86509E-005	0.00000E+000	-6.77169E-005	-5.39641E-002	7.63999E-001	3.57260E+000	9	...........
	4	0.066667	7.52166E-001	-8.85634E-005	0.00000E+000	-6.66143E-005	-5.39641E-002	7.52319E-001	3.57260E+000	9	...........
	5	0.08	7.41013E-001	-8.87165E-005	0.00000E+000	-6.57401E-005	-5.39641E-002	7.41119E-001	3.57260E+000	9	...........
	6	0.093333	7.30328E-001	-8.85415E-005	0.00000E+000	-6.46643E-005	-5.39641E-002	7.30441E-001	3.57260E+000	9	...........
	7	0.106667	7.20061E-001	-8.88509E-005	0.00000E+000	-6.39781E-005	-5.39641E-002	7.20140E-001	3.57260E+000	9	...........
	8	0.12	7.10094E-001	-8.87488E-005	0.00000E+000	-6.30200E-005	-5.39641E-002	7.10215E-001	3.57260E+000	9	...........
	9	0.133333	7.00525E-001	-8.88311E-005	0.00000E+000	-6.22285E-005	-5.39641E-002	7.00629E-001	3.57260E+000	9	...........
	10	0.146667	6.91239E-001	-8.87874E-005	0.00000E+000	-6.13733E-005	-5.39641E-002	6.91350E-001	3.57260E+000	9	...........
	11	0.16	6.82207E-001	-8.88249E-005	0.00000E+000	-6.05970E-005	-5.39641E-002	6.82340E-001	3.57260E+000	9	...........
	12	0.173333	6.73472E-001	-8.88728E-005	0.00000E+000	-5.98533E-005	-5.39641E-002	6.73587E-001	3.57260E+000	9	...........
	13	0.186667	6.64921E-001	-8.86519E-005	0.00000E+000	-5.89465E-005	-5.39641E-002	6.65048E-001	3.57260E+000	9	...........
	14	0.2	6.56620E-001	-8.86749E-005	0.00000E+000	-5.82257E-005	-5.39641E-002	6.56738E-001	3.57260E+000	9	...........
	15	0.213333	6.48496E-001	-8.88603E-005	0.00000E+000	-5.76256E-005	-5.39641E-002	6.48632E-001	3.57260E+000	9	...........
	16	0.226667	6.40571E-001	-8.85300E-005	0.00000E+000	-5.67097E-005	-5.39641E-002	6.40702E-001	3.57260E+000	9	...........
	17	0.24	6.32810E-001	-8.86009E-005	0.00000E+000	-5.60676E-005	-5.39641E-002	6.32944E-001	3.57260E+000	9	...........
	18	0.253333	6.25231E-001	-8.86894E-005	0.00000E+000	-5.54514E-005	-5.39641E-002	6.25354E-001	3.57260E+000	9	...........
	19	0.266667	6.17829E-001	-8.88697E-005	0.00000E+000	-5.49062E-005	-5.39641E-002	6.17927E-001	3.57260E+000	9	...........
	20	0.28	6.10472E-001	-8.89093E-005	0.00000E+000	-5.42766E-005	-5.39641E-002	6.10610E-001	3.57260E+000	9	...........
	21	0.293333	6.03327E-001	-8.89853E-005	0.00000E+000	-5.36873E-005	-5.39641E-002	6.03482E-001	3.57260E+000	9	...........
	22	0.306667	5.96313E-001	-8.88541E-005	0.00000E+000	-5.29848E-005	-5.39641E-002	5.96455E-001	3.57260E+000	9	...........
	23	0.32	5.89413E-001	-8.86999E-005	0.00000E+000	-5.22809E-005	-5.39641E-002	5.89550E-001	3.57260E+000	9	...........
	24	0.333333	5.82615E-001	-8.85425E-005	0.00000E+000	-5.15863E-005	-5.39641E-002	5.82743E-001	3.57260E+000	9	...........
	25	0.346667	5.75958E-001	-8.88051E-005	0.00000E+000	-5.11480E-005	-5.39641E-002	5.76056E-001	3.57260E+000	9	...........
	26	0.36	5.69409E-001	-8.87811E-005	0.00000E+000	-5.05528E-005	-5.39641E-002	5.69497E-001	3.57260E+000	9	...........
	27	0.373333	5.62897E-001	-8.88520E-005	0.00000E+000	-5.00145E-005	-5.39641E-002	5.63017E-001	3.57260E+000	9	...........
	28	0.386667	5.56506E-001	-8.88489E-005	0.00000E+000	-4.94449E-005	-5.39641E-002	5.56605E-001	3.57260E+000	9	...........
	29	0.4	5.50214E-001	-8.85936E-005	0.00000E+000	-4.87454E-005	-5.39641E-002	5.50291E-001	3.57260E+000	9	...........
	30	0.413333	5.44017E-001	-8.86082E-005	0.00000E+000	-4.82044E-005	-5.39641E-002	5.44087E-001	3.57260E+000	9	...........
	31	0.426667	5.37884E-001	-8.87301E-005	0.00000E+000	-4.77265E-005	-5.39641E-002	5.37931E-001	3.57260E+000	9	...........
	32	0.44	5.31783E-001	-8.88238E-005	0.00000E+000	-4.72350E-005	-5.39641E-002	5.31830E-001	3.57260E+000	9	...........
	33	0.453333	5.25791E-001	-8.87916E-005	0.00000E+000	-4.66858E-005	-5.39641E-002	5.25816E-001	3.57260E+000	9	...........
	34	0.466667	5.19869E-001	-8.87322E-005	0.00000E+000	-4.61291E-005	-5.39641E-002	5.19900E-001	3.57260E+000	9	...........
	35	0.48	5.14039E-001	-8.88103E-005	0.00000E+000	-4.56520E-005	-5.39641E-002	5.14078E-001	3.57260E+000	9	...........
	36	0.493333	5.08154E-001	-8.84644E-005	0.00000E+000	-4.49536E-005	-5.39641E-002	5.08263E-001	3.57260E+000	9	...........
	37	0.506667	5.02415E-001	-8.89583E-005	0.00000E+000	-4.46939E-005	-5.39641E-002	5.02515E-001	3.57260E+000	9	...........
	38	0.52	4.96740E-001	-8.89583E-005	0.00000E+000	-4.41891E-005	-5.39641E-002	4.96870E-001	3.57260E+000	9	...........
	39	0.533333	4.91123E-001	-8.86321E-005	0.00000E+000	-4.35293E-005	-5.39641E-002	4.91228E-001	3.57260E+000	9	...........
	40	0.546667	4.85568E-001	-8.85957E-005	0.00000E+000	-4.30193E-005	-5.39641E-002	4.85641E-001	3.57260E+000	9	...........
	41	0.56	4.80105E-001	-8.84342E-005	0.00000E+000	-4.24577E-005	-5.39641E-002	4.80174E-001	3.57260E+000	9	...........
	42	0.573333	4.74605E-001	-8.86165E-005	0.00000E+000	-4.20578E-005	-5.39641E-002	4.74670E-001	3.57260E+000	9	...........
	43	0.586667	4.69142E-001	-8.88864E-005	0.00000E+000	-4.17003E-005	-5.39641E-002	4.69211E-001	3.57260E+000	9	...........
	44	0.6	4.63731E-001	-8.88811E-005	0.00000E+000	-4.12170E-005	-5.39641E-002	4.63790E-001	3.57260E+000	9	...........
	45	0.613333	4.58347E-001	-8.86603E-005	0.00000E+000	-4.06372E-005	-5.39641E-002	4.58408E-001	3.57260E+000	9	...........
	46	0.626667	4.52998E-001	-8.89562E-005	0.00000E+000	-4.02970E-005	-5.39641E-002	4.53062E-001	3.57260E+000	9	...........
	47	0.64	4.47685E-001	-8.89489E-005	0.00000E+000	-3.98211E-005	-5.39641E-002	4.47747E-001	3.57260E+000	9	...........
	48	0.653333	4.42407E-001	-8.88353E-005	0.00000E+000	-3.93013E-005	-5.39641E-002	4.42463E-001	3.57260E+000	9	...........
	49	0.666667	4.37136E-001	-8.85644E-005	0.00000E+000	-3.87147E-005	-5.39641E-002	4.37199E-001	3.57260E+000	9	...........
	50	0.68	4.31911E-001	-8.88051E-005	0.00000E+000	-3.83559E-005	-5.39641E-002	4.31971E-001	3.57260E+000	9	...........
	51	0.693333	4.26702E-001	-8.89249E-005	0.00000E+000	-3.79445E-005	-5.39641E-002	4.26762E-001	3.57260E+000	9	...........
	52	0.706667	4.21530E-001	-8.86030E-005	0.00000E+000	-3.73488E-005	-5.39641E-002	4.21585E-001	3.57260E+000	9	...........
	53	0.72	4.16377E-001	-8.87613E-005	0.00000E+000	-3.69582E-005	-5.39641E-002	4.16437E-001	3.57260E+000	9	...........
	54	0.733333	4.11256E-001	-8.88207E-005	0.00000E+000	-3.65281E-005	-5.39641E-002	4.11308E-001	3.57260E+000	9	...........
	55	0.746667	4.06138E-001	-8.89145E-005	0.00000E+000	-3.61116E-005	-5.39641E-002	4.06189E-001	3.57260E+000	9	...........
	56	0.76	4.01027E-001	-8.87238E-005	0.00000E+000	-3.55806E-005	-5.39641E-002	4.01080E-001	3.57260E+000	9	...........
	57	0.773333	3.95937E-001	-8.86780E-005	0.00000E+000	-3.51109E-005	-5.39641E-002	3.95981E-001	3.57260E+000	9	...........
	58	0.786667	3.90858E-001	-8.88655E-005	0.00000E+000	-3.47338E-005	-5.39641E-002	3.90901E-001	3.57260E+000	9	...........
	59	0.8	3.85803E-001	-8.88718E-005	0.00000E+000	-3.42870E-005	-5.39641E-002	3.85851E-001	3.57260E+000	9	...........
	60	0.813333	3.80755E-001	-8.89916E-005	0.00000E+000	-3.38840E-005	-5.39641E-002	3.80802E-001	3.57260E+000	9	...........
	61	0.826667	3.75743E-001	-8.89207E-005	0.00000E+000	-3.34114E-005	-5.39641E-002	3.75791E-001	3.57260E+000	9	...........
	62	0.84	3.70743E-001	-8.88739E-005	0.00000E+000	-3.29493E-005	-5.39641E-002	3.70782E-001	3.57260E+000	9	...........
	63	0.853333	3.65755E-001	-8.86759E-005	0.00000E+000	-3.24337E-005	-5.39641E-002	3.65803E-001	3.57260E+000	9	...........
	64	0.866667	3.60795E-001	-8.89280E-005	0.00000E+000	-3.20848E-005	-5.39641E-002	3.60841E-001	3.57260E+000	9	...........
	65	0.88	3.55840E-001	-8.85405E-005	0.00000E+000	-3.15062E-005	-5.39641E-002	3.55881E-001	3.57260E+000	9	...........
	66	0.893333	3.50878E-001	-8.87332E-005	0.00000E+000	-3.11345E-005	-5.39641E-002	3.50916E-001	3.57260E+000	9	...........
	67	0.906667	3.45934E-001	-8.88728E-005	0.00000E+000	-3.07441E-005	-5.39641E-002	3.45977E-001	3.57260E+000	9	...........
	68	0.92	3.41022E-001	-8.89134E-005	0.00000E+000	-3.03214E-005	-5.39641E-002	3.41063E-001	3.57260E+000	9	...........
	69	0.933333	3.36105E-001	-8.89114E-005	0.00000E+000	-2.98836E-005	-5.39641E-002	3.36146E-001	3.57260E+000	9	...........
	70	0.946667	3.31193E-001	-8.88311E-005	0.00000E+000	-2.94202E-005	-5.39641E-002	3.31233E-001	3.57260E+000	9	...........
	71	0.96	3.26313E-001	-8.87374E-005	0.00000E+000	-2.89562E-005	-5.39641E-002	3.26355E-001	3.57260E+000	9	...........
	72	0.97333	3.21451E-001	-8.86665E-005	0.00000E+000	-2.85020E-005	-5.39641E-002	3.21489E-001	3.57260E+000	9	...........
	73	0.98667	3.16589E-001	-8.83581E-005	0.00000E+000	-2.79732E-005	-5.39641E-002	3.16633E-001	3.57260E+000	9	...........
	74	1	3.11747E-001	-8.88082E-005	0.00000E+000	-2.76857E-005	-5.39641E-002	3.11788E-001	3.57260E+000	9	...........
	75	1.01333	3.06926E-001	-8.88728E-005	0.00000E+000	-2.72774E-005	-5.39641E-002	3.06965E-001	3.57260E+000	9	...........
	76	1.02667	3.02110E-001	-8.88884E-005	0.00000E+000	-2.68541E-005	-5.39641E-002	3.02145E-001	3.57260E+000	9	...........
	77	1.04	2.97306E-001	-8.87478E-005	0.00000E+000	-2.63852E-005	-5.39641E-002	2.97342E-001	3.57260E+000	9	...........
	78	1.05333	2.92522E-001	-8.86978E-005	0.00000E+000	-2.59460E-005	-5.39641E-002	2.92563E-001	3.57260E+000	9	...........
	79	1.06667	2.87759E-001	-8.86811E-005	0.00000E+000	-2.55188E-005	-5.39641E-002	2.87799E-001	3.57260E+000	9	...........
	80	1.08	2.83002E-001	-8.88614E-005	0.00000E+000	-2.51480E-005	-5.39641E-002	2.83041E-001	3.57260E+000	9	...........
	81	1.09333	2.78258E-001	-8.88645E-005	0.00000E+000	-2.47272E-005	-5.39641E-002	2.78296E-001	3.57260E+000	9	...........
	82	1.10667	2.73525E-001	-8.86280E-005	0.00000E+000	-2.42419E-005	-5.39641E-002	2.73561E-001	3.57260E+000	9	...........
	83	1.12	2.68797E-001	-8.89228E-005	0.00000E+000	-2.39022E-005	-5.39641E-002	2.68832E-001	3.57260E+000	9	...........
	84	1.13333	2.64086E-001	-8.89562E-005	0.00000E+000	-2.34921E-005	-5.39641E-002	2.64121E-001	3.57260E+000	9	...........
	85	1.14667	2.59408E-001	-8.88353E-005	0.00000E+000	-2.30446E-005	-5.39641E-002	2.59440E-001	3.57260E+000	9	...........
	86	1.16	2.54742E-001	-8.90312E-005	0.00000E+000	-2.26800E-005	-5.39641E-002	2.54775E-001	3.57260E+000	9	...........
	87	1.17333	2.50076E-001	-8.88103E-005	0.00000E+000	-2.22094E-005	-5.39641E-002	2.50114E-001	3.57265E+000	9	...........
	88	1.18667	2.45433E-001	-8.85405E-005	0.00000E+000	-2.17307E-005	-5.39641E-002	2.45464E-001	3.57270E+000	9	...........
	89	1.2	2.40805E-001	-8.87863E-005	0.00000E+000	-2.13802E-005	-5.39641E-002	2.40831E-001	3.57270E+000	9	...........
	90	1.21333	2.36184E-001	-8.86571E-005	0.00000E+000	-2.09394E-005	-5.39641E-002	2.36218E-001	3.57270E+000	9	...........
	91	1.22667	2.31584E-001	-8.88166E-005	0.00000E+000	-2.05685E-005	-5.39641E-002	2.31613E-001	3.57270E+000	9	...........
	92	1.24	2.27013E-001	-8.88343E-005	0.00000E+000	-2.01665E-005	-5.39641E-002	2.27042E-001	3.57270E+000	9	...........
	93	1.25333	2.22466E-001	-8.87759E-005	0.00000E+000	-1.97496E-005	-5.39641E-002	2.22494E-001	3.57270E+000	9	...........
	94	1.26667	2.17930E-001	-8.86676E-005	0.00000E+000	-1.93233E-005	-5.39641E-002	2.17957E-001	3.57270E+000	9	...........
	95	1.28	2.13402E-001	-8.86686E-005	0.00000E+000	-1.89220E-005	-5.39641E-002	2.13426E-001	3.57270E+000	9	...........
	96	1.29333	2.08895E-001	-8.88364E-005	0.00000E+000	-1.85575E-005	-5.39641E-002	2.08916E-001	3.57270E+000	9	...........
	97	1.30667	2.04391E-001	-8.89958E-005	0.00000E+000	-1.81900E-005	-5.39641E-002	2.04418E-001	3.57270E+000	9	...........
	98	1.32	1.99920E-001	-8.86280E-005	0.00000E+000	-1.77185E-005	-5.39641E-002	1.99944E-001	3.57270E+000	9	...........
	99	1.33333	1.95474E-001	-8.90155E-005	0.00000E+000	-1.74003E-005	-5.39641E-002	1.95494E-001	3.57270E+000	9	...........
	100	1.34667	1.91050E-001	-8.89322E-005	0.00000E+000	-1.69905E-005	-5.39641E-002	1.91073E-001	3.57270E+000	9	...........
	101	1.36	1.86639E-001	-8.89072E-005	0.00000E+000	-1.65935E-005	-5.39641E-002	1.86660E-001	3.57270E+000	9	...........
	102	1.37333	1.82249E-001	-8.88884E-005	0.00000E+000	-1.61999E-005	-5.39641E-002	1.82273E-001	3.57270E+000	9	...........
	103	1.38667	1.77877E-001	-8.84936E-005	0.00000E+000	-1.57410E-005	-5.39641E-002	1.77901E-001	3.57270E+000	9	...........
	104	1.4	1.73521E-001	-8.88270E-005	0.00000E+000	-1.54134E-005	-5.39641E-002	1.73539E-001	3.57270E+000	9	...........
	105	1.41333	1.69174E-001	-8.88176E-005	0.00000E+000	-1.50256E-005	-5.39641E-002	1.69194E-001	3.57270E+000	9	...........
	106	1.42667	1.64854E-001	-8.88874E-005	0.00000E+000	-1.46534E-005	-5.39641E-002	1.64869E-001	3.57270E+000	9	...........
	107	1.44	1.60555E-001	-8.90520E-005	0.00000E+000	-1.42978E-005	-5.39641E-002	1.60574E-001	3.57270E+000	9	...........
	108	1.45333	1.56282E-001	-8.85748E-005	0.00000E+000	-1.38427E-005	-5.39641E-002	1.56294E-001	3.57270E+000	9	...........
	109	1.46667	1.52012E-001	-8.87561E-005	0.00000E+000	-1.34920E-005	-5.39641E-002	1.52025E-001	3.57270E+000	9	...........
	110	1.48	1.47776E-001	-8.87051E-005	0.00000E+000	-1.31085E-005	-5.39641E-002	1.47785E-001	3.57270E+000	9	...........
	111	1.49333	1.43552E-001	-8.89093E-005	0.00000E+000	-1.27631E-005	-5.39641E-002	1.43559E-001	3.57270E+000	9	...........
	112	1.50667	1.39350E-001	-8.90781E-005	0.00000E+000	-1.24130E-005	-5.39641E-002	1.39359E-001	3.57270E+000	9	...........
	113	1.52	1.35173E-001	-8.87676E-005	0.00000E+000	-1.19990E-005	-5.39641E-002	1.35180E-001	3.57270E+000	9	...........
	114	1.53333	1.31000E-001	-8.87124E-005	0.00000E+000	-1.16214E-005	-5.39641E-002	1.31007E-001	3.57270E+000	9	...........
	115	1.54667	1.26839E-001	-8.88145E-005	0.00000E+000	-1.12652E-005	-5.39641E-002	1.26851E-001	3.57270E+000	9	...........
	116	1.56	1.22693E-001	-8.90510E-005	0.00000E+000	-1.09259E-005	-5.39641E-002	1.22706E-001	3.57270E+000	9	...........
	117	1.57333	1.18571E-001	-8.87332E-005	0.00000E+000	-1.05212E-005	-5.39641E-002	1.18584E-001	3.57270E+000	9	...........
	118	1.58667	1.14463E-001	-8.87134E-005	0.00000E+000	-1.01544E-005	-5.39641E-002	1.14477E-001	3.57270E+000	9	...........
	119	1.6	1.10392E-001	-8.88759E-005	0.00000E+000	-9.81122E-006	-5.39641E-002	1.10405E-001	3.57270E+000	9	...........
	120	1.61333	1.06330E-001	-8.85227E-005	0.00000E+000	-9.41259E-006	-5.39641E-002	1.06344E-001	3.57270E+000	9	...........
	121	1.62667	1.02281E-001	-8.87707E-005	0.00000E+000	-9.07955E-006	-5.39641E-002	1.02291E-001	3.57270E+000	9	...........
	122	1.64	9.82564E-002	-8.88166E-005	0.00000E+000	-8.72680E-006	-5.39641E-002	9.82646E-002	3.57270E+000	9	...........
	123	1.65333	9.42533E-002	-8.87895E-005	0.00000E+000	-8.36870E-006	-5.39641E-002	9.42580E-002	3.57270E+000	9	...........
	124	1.66667	9.02617E-002	-8.88478E-005	0.00000E+000	-8.01955E-006	-5.39641E-002	9.02696E-002	3.57270E+000	9	...........
	125	1.68	8.62909E-002	-8.87853E-005	0.00000E+000	-7.66136E-006	-5.39641E-002	8.63030E-002	3.57270E+000	9	...........
	126	1.69333	8.23242E-002	-8.87947E-005	0.00000E+000	-7.30995E-006	-5.39641E-002	8.23279E-002	3.57270E+000	9	...........
	127	1.70667	7.83809E-002	-8.89739E-005	0.00000E+000	-6.97385E-006	-5.39641E-002	7.83863E-002	3.57270E+000	9	...........
	128	1.72	7.44756E-002	-8.85644E-005	0.00000E+000	-6.59589E-006	-5.39641E-002	7.44743E-002	3.57270E+000	9	...........
	129	1.73333	7.05701E-002	-8.90270E-005	0.00000E+000	-6.28265E-006	-5.39641E-002	7.05681E-002	3.57270E+000	9	...........
	130	1.74667	6.66835E-002	-8.87124E-005	0.00000E+000	-5.91565E-006	-5.39641E-002	6.66813E-002	3.57270E+000	9	...........
	131	1.76	6.28165E-002	-8.90927E-005	0.00000E+000	-5.59649E-006	-5.39641E-002	6.28190E-002	3.57270E+000	9	...........
	132	1.77333	5.89626E-002	-8.87520E-005	0.00000E+000	-5.23304E-006	-5.39641E-002	5.89626E-002	3.57270E+000	9	...........
	133	1.78667	5.51342E-002	-8.87353E-005	0.00000E+000	-4.89235E-006	-5.39641E-002	5.51322E-002	3.57270E+000	9	...........
	134	1.8	5.13275E-002	-8.86217E-005	0.00000E+000	-4.54873E-006	-5.39641E-002	5.13267E-002	3.57270E+000	9	...........
	135	1.81333	4.75513E-002	-8.90041E-005	0.00000E+000	-4.23226E-006	-5.39641E-002	4.75589E-002	3.57270E+000	9	...........
	136	1.82667	4.37935E-002	-8.87624E-005	0.00000E+000	-3.88721E-006	-5.39641E-002	4.38048E-002	3.57270E+000	9	...........
	137	1.84	4.00357E-002	-8.87155E-005	0.00000E+000	-3.55178E-006	-5.39641E-002	4.00417E-002	3.57270E+000	9	...........
	138	1.85333	3.62908E-002	-8.86905E-005	0.00000E+000	-3.21865E-006	-5.39641E-002	3.62986E-002	3.57270E+000	9	...........
	139	1.86667	3.25489E-002	-8.89749E-005	0.00000E+000	-2.89603E-006	-5.39641E-002	3.25510E-002	3.57270E+000	9	...........
	140	1.88	2.88317E-002	-8.88561E-005	0.00000E+000	-2.56188E-006	-5.39641E-002	2.88302E-002	3.57270E+000	9	...........
	141	1.89333	2.51505E-002	-8.89062E-005	0.00000E+000	-2.23604E-006	-5.39641E-002	2.51526E-002	3.57270E+000	9	...........
	142	1.90667	2.14952E-002	-8.86426E-005	0.00000E+000	-1.90539E-006	-5.39641E-002	2.14906E-002	3.57270E+000	9	...........
	143	1.92	1.78507E-002	-8.88280E-005	0.00000E+000	-1.58564E-006	-5.39641E-002	1.78422E-002	3.57270E+000	9	...........
	144	1.93333	1.42238E-002	-8.86446E-005	0.00000E+000	-1.26087E-006	-5.39641E-002	1.42130E-002	3.57270E+000	9	...........
	145	1.94667	1.06049E-002	-8.87947E-005	0.00000E+000	-9.41656E-007	-5.39641E-002	1.05951E-002	3.57270E+000	9	...........
	146	1.96	7.00323E-003	-8.88926E-005	0.00000E+000	-6.22536E-007	-5.39641E-002	6.98877E-003	3.57270E+000	9	...........
	147	1.97333	3.42221E-003	-8.88072E-005	0.00000E+000	-3.03917E-007	-5.39641E-002	3.40863E-003	3.57270E+000	9	...........
	148	1.98167	5.31632E-004	-8.88482E-005	0.00000E+000	-4.72345E-008	-5.39641E-002	5.15291E-004	3.57270E+000	9	...........
STARTTIMEOFFSET	QUANT	3167.411	Start Time Offset (s)
