EXPLAIN
TAG	PWR800_DISCHARGE
TITLE	LABEL	PWR Cyclic Charge Discharge (Cell) - Discharge Step	Test &Identifier
DATE	LABEL	10-7-2017	Date
TIME	LABEL	16:22:28	Time
NOTES	NOTES	3	&Notes...
	supercap test cell
	0.9mg
	6M KOH
PSTAT	PSTAT	IFC5000-01520	Potentiostat
CAPACITY	QUANT	1.00000E-003	Capacity (A-hr)
CELLTYPE	SELECTOR	1	&Cell Type
WORKINGCONNECTION	SELECTOR	0	&Working Lead
MAXDISCHARGETIME	VARIABLEANDUNITS	1.00000E+002	s	1.00000E+002	second(s)	Max &Discharge Time
DISCHARGEMODE	MULTIPARAM	0	9.00000E-005	&Discharge Mode	Constant Current	Amp(s)
SAMPLETIME	QUANT	1.00000E-002	Sa&mple Period (s)
DISCHARGESTOPAT1	MULTIPARAM	3	0.00000E+000	Discharge Stop At &1	Voltage < Limit	V
DISCHARGESTOPAT2	MULTIPARAM	0	0.00000E+000	Discharge Stop At &2	None	N/A
AESBHCSELECTOR	TOGGLE	F	Save Both Half Cells
IRCOMP	TOGGLE	F	IR &Measure
EOC	QUANT	0	Open Circuit (V)
SEQUENCER	TOGGLE	TRUE	Run as Sequence
PSTATMODEL	IQUANT	53	Pstat Model
PSTATSECTION	LABEL	IFC5000-01520	Pstat Section
PSTATSERIALNO	LABEL	01520	Pstat Serial Number
CTRLMODE	IQUANT	0	Control Mode
ELECTROMETER	IQUANT	1	RE=0 or CS=1
IESTAB	IQUANT	0	I/E Stability
CASPEED	IQUANT	4	Control Amp Speed
CONVENTION	IQUANT	1	Current Convention
ICHRANGE	IQUANT	2	Ich Range
ICHRANGEMODE	TOGGLE	T	Ich Auto Range
ICHOFFSETENABLE	TOGGLE	F	Ich Offset Enable
ICHOFFSET	QUANT	0	Ich Offset (V)
ICHFILTER	IQUANT	1	Ich Filter
VCHRANGE	IQUANT	2	Vch Range
VCHRANGEMODE	TOGGLE	T	Vch Auto Range
VCHOFFSETENABLE	TOGGLE	F	Vch Offset Enable
VCHOFFSET	QUANT	0	Vch Offset (V)
VCHFILTER	IQUANT	1	Vch Filter
IERANGELOWERLIMIT	IQUANT	9	I/E Range Lower Limit
IERANGEMODE	TOGGLE	F	I/E AutoRange
IERANGE	IQUANT	9	I/E Range
ACHSELECT	IQUANT	1	Ach Select
ACHRANGE	IQUANT	2	Ach Range
ACHOFFSETENABLE	TOGGLE	F	Ach Offset Enable
ACHOFFSET	QUANT	0	Ach Offset (V)
ACHFILTER	IQUANT	1	Ach Filter
CABLEID	IQUANT	14	Cable ID
DCCALDATE	LABEL	5-7-2017	DC Calibration Date
ACCALDATE	LABEL	12/3/2015	AC Calibration Date
FRAMEWORKVERSION	QUANT	7.01	Framework Version
INSTRUMENTVERSION	LABEL	4.00	Instrument Version
CURVE	TABLE	146
	Pt	T	Vf	Im	Vu	Pwr	Sig	Ach	Temp	IERange	Over
	#	s	V	A	V	W	V	V	deg C	#	bits
	0	0.013333	8.01248E-001	-8.86613E-005	0.00000E+000	-7.10397E-005	-5.39641E-002	8.01373E-001	3.57350E+000	9	...........
	1	0.026667	7.86748E-001	-8.89291E-005	0.00000E+000	-6.99648E-005	-5.39641E-002	7.86880E-001	3.57350E+000	9	...........
	2	0.04	7.73268E-001	-8.89780E-005	0.00000E+000	-6.88039E-005	-5.39641E-002	7.73399E-001	3.57350E+000	9	...........
	3	0.053333	7.60569E-001	-8.88489E-005	0.00000E+000	-6.75757E-005	-5.39641E-002	7.60691E-001	3.57350E+000	9	...........
	4	0.066667	7.48537E-001	-8.86676E-005	0.00000E+000	-6.63709E-005	-5.39641E-002	7.48658E-001	3.57350E+000	9	...........
	5	0.08	7.37028E-001	-8.89510E-005	0.00000E+000	-6.55593E-005	-5.39641E-002	7.37155E-001	3.57350E+000	9	...........
	6	0.093333	7.26057E-001	-8.87884E-005	0.00000E+000	-6.44655E-005	-5.39641E-002	7.26131E-001	3.57350E+000	9	...........
	7	0.106667	7.15442E-001	-8.87447E-005	0.00000E+000	-6.34917E-005	-5.39641E-002	7.15541E-001	3.57350E+000	9	...........
	8	0.12	7.05242E-001	-8.89457E-005	0.00000E+000	-6.27283E-005	-5.39641E-002	7.05344E-001	3.57350E+000	9	...........
	9	0.133333	6.95408E-001	-8.87311E-005	0.00000E+000	-6.17044E-005	-5.39641E-002	6.95513E-001	3.57350E+000	9	...........
	10	0.146667	6.85846E-001	-8.89114E-005	0.00000E+000	-6.09795E-005	-5.39641E-002	6.85970E-001	3.57350E+000	9	...........
	11	0.16	6.76625E-001	-8.87072E-005	0.00000E+000	-6.00215E-005	-5.39641E-002	6.76734E-001	3.57350E+000	9	...........
	12	0.173333	6.67643E-001	-8.89343E-005	0.00000E+000	-5.93764E-005	-5.39641E-002	6.67757E-001	3.57350E+000	9	...........
	13	0.186667	6.58874E-001	-8.87061E-005	0.00000E+000	-5.84461E-005	-5.39641E-002	6.58992E-001	3.57350E+000	9	...........
	14	0.2	6.50343E-001	-8.88593E-005	0.00000E+000	-5.77890E-005	-5.39641E-002	6.50489E-001	3.57350E+000	9	...........
	15	0.213333	6.42045E-001	-8.86551E-005	0.00000E+000	-5.69205E-005	-5.39641E-002	6.42176E-001	3.57350E+000	9	...........
	16	0.226667	6.33924E-001	-8.87186E-005	0.00000E+000	-5.62409E-005	-5.39641E-002	6.34049E-001	3.57350E+000	9	...........
	17	0.24	6.26017E-001	-8.89114E-005	0.00000E+000	-5.56600E-005	-5.39641E-002	6.26138E-001	3.57350E+000	9	...........
	18	0.253333	6.18305E-001	-8.86551E-005	0.00000E+000	-5.48159E-005	-5.39641E-002	6.18402E-001	3.57350E+000	9	...........
	19	0.266667	6.10661E-001	-8.87665E-005	0.00000E+000	-5.42063E-005	-5.39641E-002	6.10813E-001	3.57350E+000	9	...........
	20	0.28	6.03226E-001	-8.88332E-005	0.00000E+000	-5.35865E-005	-5.39641E-002	6.03360E-001	3.57350E+000	9	...........
	21	0.293333	5.95943E-001	-8.89353E-005	0.00000E+000	-5.30004E-005	-5.39641E-002	5.96057E-001	3.57350E+000	9	...........
	22	0.306667	5.88820E-001	-8.89541E-005	0.00000E+000	-5.23780E-005	-5.39641E-002	5.88930E-001	3.57350E+000	9	...........
	23	0.32	5.81754E-001	-8.88238E-005	0.00000E+000	-5.16736E-005	-5.39641E-002	5.81892E-001	3.57350E+000	9	...........
	24	0.333333	5.74875E-001	-8.88457E-005	0.00000E+000	-5.10752E-005	-5.39641E-002	5.75002E-001	3.57350E+000	9	...........
	25	0.346667	5.68104E-001	-8.87759E-005	0.00000E+000	-5.04339E-005	-5.39641E-002	5.68221E-001	3.57350E+000	9	...........
	26	0.36	5.61418E-001	-8.87415E-005	0.00000E+000	-4.98211E-005	-5.39641E-002	5.61547E-001	3.57350E+000	9	...........
	27	0.373333	5.54813E-001	-8.89687E-005	0.00000E+000	-4.93610E-005	-5.39641E-002	5.54949E-001	3.57350E+000	9	...........
	28	0.386667	5.48345E-001	-8.87957E-005	0.00000E+000	-4.86907E-005	-5.39641E-002	5.48471E-001	3.57350E+000	9	...........
	29	0.4	5.41964E-001	-8.88739E-005	0.00000E+000	-4.81665E-005	-5.39641E-002	5.42101E-001	3.57350E+000	9	...........
	30	0.413333	5.35672E-001	-8.87853E-005	0.00000E+000	-4.75598E-005	-5.39641E-002	5.35805E-001	3.57350E+000	9	...........
	31	0.426667	5.29453E-001	-8.87770E-005	0.00000E+000	-4.70033E-005	-5.39641E-002	5.29554E-001	3.57350E+000	9	...........
	32	0.44	5.23332E-001	-8.89207E-005	0.00000E+000	-4.65351E-005	-5.39641E-002	5.23419E-001	3.57350E+000	9	...........
	33	0.453333	5.17278E-001	-8.90103E-005	0.00000E+000	-4.60431E-005	-5.39641E-002	5.17351E-001	3.57350E+000	9	...........
	34	0.466667	5.11263E-001	-8.86582E-005	0.00000E+000	-4.53276E-005	-5.39641E-002	5.11355E-001	3.57350E+000	9	...........
	35	0.48	5.05307E-001	-8.86571E-005	0.00000E+000	-4.47991E-005	-5.39641E-002	5.05440E-001	3.57350E+000	9	...........
	36	0.493333	4.99486E-001	-8.88311E-005	0.00000E+000	-4.43699E-005	-5.39641E-002	4.99609E-001	3.57350E+000	9	...........
	37	0.506667	4.93718E-001	-8.87770E-005	0.00000E+000	-4.38308E-005	-5.39641E-002	4.93839E-001	3.57350E+000	9	...........
	38	0.52	4.88019E-001	-8.86832E-005	0.00000E+000	-4.32791E-005	-5.39641E-002	4.88139E-001	3.57350E+000	9	...........
	39	0.533333	4.82445E-001	-8.89374E-005	0.00000E+000	-4.29074E-005	-5.39641E-002	4.82502E-001	3.57350E+000	9	...........
	40	0.546667	4.76810E-001	-8.88634E-005	0.00000E+000	-4.23710E-005	-5.39641E-002	4.76874E-001	3.57350E+000	9	...........
	41	0.56	4.71211E-001	-8.88968E-005	0.00000E+000	-4.18892E-005	-5.39641E-002	4.71275E-001	3.57350E+000	9	...........
	42	0.573333	4.65672E-001	-8.88197E-005	0.00000E+000	-4.13609E-005	-5.39641E-002	4.65737E-001	3.57350E+000	9	...........
	43	0.586667	4.60188E-001	-8.88238E-005	0.00000E+000	-4.08757E-005	-5.39641E-002	4.60248E-001	3.57350E+000	9	...........
	44	0.6	4.54732E-001	-8.88166E-005	0.00000E+000	-4.03877E-005	-5.39641E-002	4.54794E-001	3.57350E+000	9	...........
	45	0.613333	4.49321E-001	-8.88041E-005	0.00000E+000	-3.99015E-005	-5.39641E-002	4.49387E-001	3.57350E+000	9	...........
	46	0.626667	4.43951E-001	-8.87624E-005	0.00000E+000	-3.94062E-005	-5.39641E-002	4.44011E-001	3.57350E+000	9	...........
	47	0.64	4.38606E-001	-8.87645E-005	0.00000E+000	-3.89326E-005	-5.39641E-002	4.38665E-001	3.57350E+000	9	...........
	48	0.653333	4.33291E-001	-8.89103E-005	0.00000E+000	-3.85240E-005	-5.39641E-002	4.33350E-001	3.57350E+000	9	...........
	49	0.666667	4.28011E-001	-8.89082E-005	0.00000E+000	-3.80537E-005	-5.39641E-002	4.28067E-001	3.57350E+000	9	...........
	50	0.68	4.22752E-001	-8.89030E-005	0.00000E+000	-3.75839E-005	-5.39641E-002	4.22807E-001	3.57350E+000	9	...........
	51	0.693333	4.17518E-001	-8.89760E-005	0.00000E+000	-3.71490E-005	-5.39641E-002	4.17571E-001	3.57350E+000	9	...........
	52	0.706667	4.12327E-001	-8.88499E-005	0.00000E+000	-3.66352E-005	-5.39641E-002	4.12378E-001	3.57350E+000	9	...........
	53	0.72	4.07163E-001	-8.87624E-005	0.00000E+000	-3.61407E-005	-5.39641E-002	4.07212E-001	3.57350E+000	9	...........
	54	0.733333	4.02019E-001	-8.89166E-005	0.00000E+000	-3.57461E-005	-5.39641E-002	4.02067E-001	3.57350E+000	9	...........
	55	0.746667	3.96894E-001	-8.88041E-005	0.00000E+000	-3.52458E-005	-5.39641E-002	3.96943E-001	3.57350E+000	9	...........
	56	0.76	3.91801E-001	-8.87884E-005	0.00000E+000	-3.47874E-005	-5.39641E-002	3.91851E-001	3.57350E+000	9	...........
	57	0.773333	3.86726E-001	-8.86936E-005	0.00000E+000	-3.43001E-005	-5.39641E-002	3.86772E-001	3.57350E+000	9	...........
	58	0.786667	3.81667E-001	-8.84436E-005	0.00000E+000	-3.37560E-005	-5.39641E-002	3.81716E-001	3.57350E+000	9	...........
	59	0.8	3.76628E-001	-8.87040E-005	0.00000E+000	-3.34084E-005	-5.39641E-002	3.76674E-001	3.57350E+000	9	...........
	60	0.813333	3.71604E-001	-8.87395E-005	0.00000E+000	-3.29759E-005	-5.39641E-002	3.71654E-001	3.57350E+000	9	...........
	61	0.826667	3.66612E-001	-8.86676E-005	0.00000E+000	-3.25066E-005	-5.39641E-002	3.66661E-001	3.57350E+000	9	...........
	62	0.84	3.61623E-001	-8.87686E-005	0.00000E+000	-3.21008E-005	-5.39641E-002	3.61672E-001	3.57350E+000	9	...........
	63	0.853333	3.56648E-001	-8.88718E-005	0.00000E+000	-3.16959E-005	-5.39641E-002	3.56692E-001	3.57350E+000	9	...........
	64	0.866667	3.51670E-001	-8.85957E-005	0.00000E+000	-3.11564E-005	-5.39641E-002	3.51718E-001	3.57350E+000	9	...........
	65	0.88	3.46720E-001	-8.84842E-005	0.00000E+000	-3.06792E-005	-5.39641E-002	3.46763E-001	3.57350E+000	9	...........
	66	0.893333	3.41780E-001	-8.89447E-005	0.00000E+000	-3.03995E-005	-5.39641E-002	3.41818E-001	3.57350E+000	9	...........
	67	0.906667	3.36865E-001	-8.89833E-005	0.00000E+000	-2.99753E-005	-5.39641E-002	3.36903E-001	3.57350E+000	9	...........
	68	0.92	3.31962E-001	-8.87697E-005	0.00000E+000	-2.94682E-005	-5.39641E-002	3.32004E-001	3.57350E+000	9	...........
	69	0.933333	3.27073E-001	-8.90374E-005	0.00000E+000	-2.91217E-005	-5.39641E-002	3.27107E-001	3.57350E+000	9	...........
	70	0.946667	3.22184E-001	-8.88780E-005	0.00000E+000	-2.86351E-005	-5.39641E-002	3.22222E-001	3.57350E+000	9	...........
	71	0.96	3.17311E-001	-8.89270E-005	0.00000E+000	-2.82175E-005	-5.39641E-002	3.17351E-001	3.57350E+000	9	...........
	72	0.97333	3.12430E-001	-8.86874E-005	0.00000E+000	-2.77086E-005	-5.39641E-002	3.12471E-001	3.57350E+000	9	...........
	73	0.98667	3.07570E-001	-8.85394E-005	0.00000E+000	-2.72321E-005	-5.39641E-002	3.07609E-001	3.57350E+000	9	...........
	74	1	3.02718E-001	-8.87780E-005	0.00000E+000	-2.68747E-005	-5.39641E-002	3.02755E-001	3.57355E+000	9	...........
	75	1.01333	2.97867E-001	-8.87572E-005	0.00000E+000	-2.64379E-005	-5.39641E-002	2.97906E-001	3.57370E+000	9	...........
	76	1.02667	2.93025E-001	-8.87655E-005	0.00000E+000	-2.60105E-005	-5.39641E-002	2.93059E-001	3.57370E+000	9	...........
	77	1.04	2.88217E-001	-8.86311E-005	0.00000E+000	-2.55450E-005	-5.39641E-002	2.88247E-001	3.57370E+000	9	...........
	78	1.05333	2.83416E-001	-8.88645E-005	0.00000E+000	-2.51857E-005	-5.39641E-002	2.83454E-001	3.57370E+000	9	...........
	79	1.06667	2.78629E-001	-8.87311E-005	0.00000E+000	-2.47231E-005	-5.39641E-002	2.78668E-001	3.57370E+000	9	...........
	80	1.08	2.73857E-001	-8.87478E-005	0.00000E+000	-2.43042E-005	-5.39641E-002	2.73895E-001	3.57370E+000	9	...........
	81	1.09333	2.69103E-001	-8.89030E-005	0.00000E+000	-2.39241E-005	-5.39641E-002	2.69138E-001	3.57370E+000	9	...........
	82	1.10667	2.64350E-001	-8.90572E-005	0.00000E+000	-2.35423E-005	-5.39641E-002	2.64388E-001	3.57370E+000	9	...........
	83	1.12	2.59615E-001	-8.85165E-005	0.00000E+000	-2.29802E-005	-5.39641E-002	2.59657E-001	3.57370E+000	9	...........
	84	1.13333	2.54894E-001	-8.87947E-005	0.00000E+000	-2.26333E-005	-5.39641E-002	2.54929E-001	3.57370E+000	9	...........
	85	1.14667	2.50182E-001	-8.87832E-005	0.00000E+000	-2.22119E-005	-5.39641E-002	2.50217E-001	3.57370E+000	9	...........
	86	1.16	2.45497E-001	-8.87936E-005	0.00000E+000	-2.17986E-005	-5.39641E-002	2.45527E-001	3.57370E+000	9	...........
	87	1.17333	2.40831E-001	-8.87874E-005	0.00000E+000	-2.13828E-005	-5.39641E-002	2.40855E-001	3.57370E+000	9	...........
	88	1.18667	2.36166E-001	-8.91458E-005	0.00000E+000	-2.10532E-005	-5.39641E-002	2.36189E-001	3.57370E+000	9	...........
	89	1.2	2.31527E-001	-8.86728E-005	0.00000E+000	-2.05301E-005	-5.39641E-002	2.31549E-001	3.57370E+000	9	...........
	90	1.21333	2.26894E-001	-8.86353E-005	0.00000E+000	-2.01108E-005	-5.39641E-002	2.26919E-001	3.57370E+000	9	...........
	91	1.22667	2.22275E-001	-8.86811E-005	0.00000E+000	-1.97116E-005	-5.39641E-002	2.22307E-001	3.57370E+000	9	...........
	92	1.24	2.17665E-001	-8.89541E-005	0.00000E+000	-1.93622E-005	-5.39641E-002	2.17695E-001	3.57370E+000	9	...........
	93	1.25333	2.13086E-001	-8.85748E-005	0.00000E+000	-1.88741E-005	-5.39641E-002	2.13111E-001	3.57370E+000	9	...........
	94	1.26667	2.08530E-001	-8.88186E-005	0.00000E+000	-1.85213E-005	-5.39641E-002	2.08556E-001	3.57370E+000	9	...........
	95	1.28	2.03977E-001	-8.86103E-005	0.00000E+000	-1.80745E-005	-5.39641E-002	2.04005E-001	3.57370E+000	9	...........
	96	1.29333	1.99449E-001	-8.88103E-005	0.00000E+000	-1.77131E-005	-5.39641E-002	1.99479E-001	3.57370E+000	9	...........
	97	1.30667	1.94948E-001	-8.88238E-005	0.00000E+000	-1.73160E-005	-5.39641E-002	1.94973E-001	3.57370E+000	9	...........
	98	1.32	1.90465E-001	-8.88624E-005	0.00000E+000	-1.69252E-005	-5.39641E-002	1.90485E-001	3.57370E+000	9	...........
	99	1.33333	1.85997E-001	-8.90343E-005	0.00000E+000	-1.65601E-005	-5.39641E-002	1.86015E-001	3.57370E+000	9	...........
	100	1.34667	1.81537E-001	-8.89218E-005	0.00000E+000	-1.61426E-005	-5.39641E-002	1.81558E-001	3.57370E+000	9	...........
	101	1.36	1.77106E-001	-8.88770E-005	0.00000E+000	-1.57406E-005	-5.39641E-002	1.77127E-001	3.57370E+000	9	...........
	102	1.37333	1.72687E-001	-8.87467E-005	0.00000E+000	-1.53254E-005	-5.39641E-002	1.72706E-001	3.57370E+000	9	...........
	103	1.38667	1.68270E-001	-8.88468E-005	0.00000E+000	-1.49503E-005	-5.39641E-002	1.68288E-001	3.57370E+000	9	...........
	104	1.4	1.63873E-001	-8.88249E-005	0.00000E+000	-1.45560E-005	-5.39641E-002	1.63887E-001	3.57370E+000	9	...........
	105	1.41333	1.59490E-001	-8.86759E-005	0.00000E+000	-1.41429E-005	-5.39641E-002	1.59506E-001	3.57370E+000	9	...........
	106	1.42667	1.55144E-001	-8.88051E-005	0.00000E+000	-1.37776E-005	-5.39641E-002	1.55163E-001	3.57370E+000	9	...........
	107	1.44	1.50814E-001	-8.90343E-005	0.00000E+000	-1.34276E-005	-5.39641E-002	1.50825E-001	3.57370E+000	9	...........
	108	1.45333	1.46498E-001	-8.88436E-005	0.00000E+000	-1.30154E-005	-5.39641E-002	1.46511E-001	3.57370E+000	9	...........
	109	1.46667	1.42197E-001	-8.89739E-005	0.00000E+000	-1.26518E-005	-5.39641E-002	1.42215E-001	3.57370E+000	9	...........
	110	1.48	1.37903E-001	-8.87624E-005	0.00000E+000	-1.22406E-005	-5.39641E-002	1.37917E-001	3.57370E+000	9	...........
	111	1.49333	1.33625E-001	-8.87749E-005	0.00000E+000	-1.18625E-005	-5.39641E-002	1.33641E-001	3.57370E+000	9	...........
	112	1.50667	1.29372E-001	-8.89228E-005	0.00000E+000	-1.15041E-005	-5.39641E-002	1.29387E-001	3.57370E+000	9	...........
	113	1.52	1.25139E-001	-8.89353E-005	0.00000E+000	-1.11293E-005	-5.39641E-002	1.25150E-001	3.57370E+000	9	...........
	114	1.53333	1.20923E-001	-8.87999E-005	0.00000E+000	-1.07379E-005	-5.39641E-002	1.20940E-001	3.57370E+000	9	...........
	115	1.54667	1.16734E-001	-8.85446E-005	0.00000E+000	-1.03362E-005	-5.39641E-002	1.16746E-001	3.57370E+000	9	...........
	116	1.56	1.12564E-001	-8.86624E-005	0.00000E+000	-9.98017E-006	-5.39641E-002	1.12575E-001	3.57370E+000	9	...........
	117	1.57333	1.08419E-001	-8.89603E-005	0.00000E+000	-9.64496E-006	-5.39641E-002	1.08430E-001	3.57370E+000	9	...........
	118	1.58667	1.04298E-001	-8.86884E-005	0.00000E+000	-9.25000E-006	-5.39641E-002	1.04306E-001	3.57370E+000	9	...........
	119	1.6	1.00184E-001	-8.90562E-005	0.00000E+000	-8.92198E-006	-5.39641E-002	1.00189E-001	3.57370E+000	9	...........
	120	1.61333	9.60758E-002	-8.86342E-005	0.00000E+000	-8.51561E-006	-5.39641E-002	9.60891E-002	3.57370E+000	9	...........
	121	1.62667	9.20030E-002	-8.85988E-005	0.00000E+000	-8.15135E-006	-5.39641E-002	9.20054E-002	3.57370E+000	9	...........
	122	1.64	8.79432E-002	-8.90145E-005	0.00000E+000	-7.82822E-006	-5.39641E-002	8.79509E-002	3.57370E+000	9	...........
	123	1.65333	8.38949E-002	-8.86426E-005	0.00000E+000	-7.43665E-006	-5.39641E-002	8.39021E-002	3.57370E+000	9	...........
	124	1.66667	7.98658E-002	-8.88884E-005	0.00000E+000	-7.09914E-006	-5.39641E-002	7.98687E-002	3.57370E+000	9	...........
	125	1.68	7.58499E-002	-8.89082E-005	0.00000E+000	-6.74368E-006	-5.39641E-002	7.58516E-002	3.57370E+000	9	...........
	126	1.69333	7.18729E-002	-8.89801E-005	0.00000E+000	-6.39526E-006	-5.39641E-002	7.18671E-002	3.57370E+000	9	...........
	127	1.70667	6.79013E-002	-8.89260E-005	0.00000E+000	-6.03819E-006	-5.39641E-002	6.79032E-002	3.57370E+000	9	...........
	128	1.72	6.39539E-002	-8.85217E-005	0.00000E+000	-5.66131E-006	-5.39641E-002	6.39517E-002	3.57370E+000	9	...........
	129	1.73333	6.00161E-002	-8.88166E-005	0.00000E+000	-5.33043E-006	-5.39641E-002	6.00204E-002	3.57370E+000	9	...........
	130	1.74667	5.61079E-002	-8.90280E-005	0.00000E+000	-4.99518E-006	-5.39641E-002	5.61026E-002	3.57370E+000	9	...........
	131	1.76	5.22145E-002	-8.89134E-005	0.00000E+000	-4.64257E-006	-5.39641E-002	5.22208E-002	3.57370E+000	9	...........
	132	1.77333	4.83531E-002	-8.87707E-005	0.00000E+000	-4.29234E-006	-5.39641E-002	4.83541E-002	3.57370E+000	9	...........
	133	1.78667	4.45037E-002	-8.86332E-005	0.00000E+000	-3.94450E-006	-5.39641E-002	4.45081E-002	3.57370E+000	9	...........
	134	1.8	4.06591E-002	-8.87061E-005	0.00000E+000	-3.60671E-006	-5.39641E-002	4.06644E-002	3.57370E+000	9	...........
	135	1.81333	3.68412E-002	-8.88614E-005	0.00000E+000	-3.27376E-006	-5.39641E-002	3.68442E-002	3.57370E+000	9	...........
	136	1.82667	3.30375E-002	-8.88853E-005	0.00000E+000	-2.93655E-006	-5.39641E-002	3.30434E-002	3.57370E+000	9	...........
	137	1.84	2.92563E-002	-8.89187E-005	0.00000E+000	-2.60143E-006	-5.39641E-002	2.92551E-002	3.57370E+000	9	...........
	138	1.85333	2.54858E-002	-8.89739E-005	0.00000E+000	-2.26757E-006	-5.39641E-002	2.54859E-002	3.57370E+000	9	...........
	139	1.86667	2.17346E-002	-8.89218E-005	0.00000E+000	-1.93268E-006	-5.39641E-002	2.17339E-002	3.57370E+000	9	...........
	140	1.88	1.80041E-002	-8.88103E-005	0.00000E+000	-1.59895E-006	-5.39641E-002	1.79986E-002	3.57370E+000	9	...........
	141	1.89333	1.42878E-002	-8.88009E-005	0.00000E+000	-1.26877E-006	-5.39641E-002	1.42822E-002	3.57370E+000	9	...........
	142	1.90667	1.05946E-002	-8.88239E-005	0.00000E+000	-9.41049E-007	-5.39641E-002	1.05878E-002	3.57370E+000	9	...........
	143	1.92	6.92813E-003	-8.88457E-005	0.00000E+000	-6.15534E-007	-5.39641E-002	6.91768E-003	3.57370E+000	9	...........
	144	1.93333	3.27392E-003	-8.88572E-005	0.00000E+000	-2.90912E-007	-5.39641E-002	3.25929E-003	3.57370E+000	9	...........
	145	1.94	5.49371E-004	-8.84519E-005	0.00000E+000	-4.85929E-008	-5.39641E-002	5.34967E-004	3.57370E+000	9	...........
STARTTIMEOFFSET	QUANT	4183.952	Start Time Offset (s)
