EXPLAIN
TAG	PWR800_DISCHARGE
TITLE	LABEL	PWR Cyclic Charge Discharge (Cell) - Discharge Step	Test &Identifier
DATE	LABEL	10-7-2017	Date
TIME	LABEL	15:15:50	Time
NOTES	NOTES	3	&Notes...
	supercap test cell
	0.9mg
	6M KOH
PSTAT	PSTAT	IFC5000-01520	Potentiostat
CAPACITY	QUANT	1.00000E-003	Capacity (A-hr)
CELLTYPE	SELECTOR	1	&Cell Type
WORKINGCONNECTION	SELECTOR	0	&Working Lead
MAXDISCHARGETIME	VARIABLEANDUNITS	1.00000E+002	s	1.00000E+002	second(s)	Max &Discharge Time
DISCHARGEMODE	MULTIPARAM	0	9.00000E-005	&Discharge Mode	Constant Current	Amp(s)
SAMPLETIME	QUANT	1.00000E-002	Sa&mple Period (s)
DISCHARGESTOPAT1	MULTIPARAM	3	0.00000E+000	Discharge Stop At &1	Voltage < Limit	V
DISCHARGESTOPAT2	MULTIPARAM	0	0.00000E+000	Discharge Stop At &2	None	N/A
AESBHCSELECTOR	TOGGLE	F	Save Both Half Cells
IRCOMP	TOGGLE	F	IR &Measure
EOC	QUANT	0	Open Circuit (V)
SEQUENCER	TOGGLE	TRUE	Run as Sequence
PSTATMODEL	IQUANT	53	Pstat Model
PSTATSECTION	LABEL	IFC5000-01520	Pstat Section
PSTATSERIALNO	LABEL	01520	Pstat Serial Number
CTRLMODE	IQUANT	0	Control Mode
ELECTROMETER	IQUANT	1	RE=0 or CS=1
IESTAB	IQUANT	0	I/E Stability
CASPEED	IQUANT	4	Control Amp Speed
CONVENTION	IQUANT	1	Current Convention
ICHRANGE	IQUANT	2	Ich Range
ICHRANGEMODE	TOGGLE	T	Ich Auto Range
ICHOFFSETENABLE	TOGGLE	F	Ich Offset Enable
ICHOFFSET	QUANT	0	Ich Offset (V)
ICHFILTER	IQUANT	1	Ich Filter
VCHRANGE	IQUANT	2	Vch Range
VCHRANGEMODE	TOGGLE	T	Vch Auto Range
VCHOFFSETENABLE	TOGGLE	F	Vch Offset Enable
VCHOFFSET	QUANT	0	Vch Offset (V)
VCHFILTER	IQUANT	1	Vch Filter
IERANGELOWERLIMIT	IQUANT	9	I/E Range Lower Limit
IERANGEMODE	TOGGLE	F	I/E AutoRange
IERANGE	IQUANT	9	I/E Range
ACHSELECT	IQUANT	1	Ach Select
ACHRANGE	IQUANT	2	Ach Range
ACHOFFSETENABLE	TOGGLE	F	Ach Offset Enable
ACHOFFSET	QUANT	0	Ach Offset (V)
ACHFILTER	IQUANT	1	Ach Filter
CABLEID	IQUANT	14	Cable ID
DCCALDATE	LABEL	5-7-2017	DC Calibration Date
ACCALDATE	LABEL	12/3/2015	AC Calibration Date
FRAMEWORKVERSION	QUANT	7.01	Framework Version
INSTRUMENTVERSION	LABEL	4.00	Instrument Version
CURVE	TABLE	162
	Pt	T	Vf	Im	Vu	Pwr	Sig	Ach	Temp	IERange	Over
	#	s	V	A	V	W	V	V	deg C	#	bits
	0	0.013333	8.26800E-001	-8.85186E-005	0.00000E+000	-7.31871E-005	-5.39641E-002	8.26925E-001	3.57180E+000	9	...........
	1	0.026667	8.14457E-001	-8.87061E-005	0.00000E+000	-7.22474E-005	-5.39641E-002	8.14576E-001	3.57180E+000	9	...........
	2	0.04	8.02863E-001	-8.86259E-005	0.00000E+000	-7.11545E-005	-5.39641E-002	8.02946E-001	3.57180E+000	9	...........
	3	0.053333	7.91860E-001	-8.88707E-005	0.00000E+000	-7.03732E-005	-5.39641E-002	7.91939E-001	3.57180E+000	9	...........
	4	0.066667	7.81301E-001	-8.85644E-005	0.00000E+000	-6.91955E-005	-5.39641E-002	7.81392E-001	3.57180E+000	9	...........
	5	0.08	7.71183E-001	-8.87822E-005	0.00000E+000	-6.84673E-005	-5.39641E-002	7.71272E-001	3.57180E+000	9	...........
	6	0.093333	7.61440E-001	-8.88155E-005	0.00000E+000	-6.76277E-005	-5.39641E-002	7.61507E-001	3.57180E+000	9	...........
	7	0.106667	7.52019E-001	-8.84321E-005	0.00000E+000	-6.65027E-005	-5.39641E-002	7.52079E-001	3.57180E+000	9	...........
	8	0.12	7.42867E-001	-8.87082E-005	0.00000E+000	-6.58984E-005	-5.39641E-002	7.42958E-001	3.57180E+000	9	...........
	9	0.133333	7.33993E-001	-8.86988E-005	0.00000E+000	-6.51043E-005	-5.39641E-002	7.34083E-001	3.57180E+000	9	...........
	10	0.146667	7.25373E-001	-8.85175E-005	0.00000E+000	-6.42083E-005	-5.39641E-002	7.25439E-001	3.57180E+000	9	...........
	11	0.16	7.16926E-001	-8.86321E-005	0.00000E+000	-6.35427E-005	-5.39641E-002	7.16993E-001	3.57180E+000	9	...........
	12	0.173333	7.08673E-001	-8.87853E-005	0.00000E+000	-6.29198E-005	-5.39641E-002	7.08764E-001	3.57180E+000	9	...........
	13	0.186667	7.00664E-001	-8.84894E-005	0.00000E+000	-6.20014E-005	-5.39641E-002	7.00745E-001	3.57180E+000	9	...........
	14	0.2	6.92804E-001	-8.87801E-005	0.00000E+000	-6.15072E-005	-5.39641E-002	6.92875E-001	3.57180E+000	9	...........
	15	0.213333	6.85081E-001	-8.88395E-005	0.00000E+000	-6.08622E-005	-5.39641E-002	6.85177E-001	3.57180E+000	9	...........
	16	0.226667	6.77537E-001	-8.89926E-005	0.00000E+000	-6.02958E-005	-5.39641E-002	6.77627E-001	3.57180E+000	9	...........
	17	0.24	6.70127E-001	-8.88853E-005	0.00000E+000	-5.95644E-005	-5.39641E-002	6.70217E-001	3.57180E+000	9	...........
	18	0.253333	6.62829E-001	-8.90666E-005	0.00000E+000	-5.90359E-005	-5.39641E-002	6.62929E-001	3.57180E+000	9	...........
	19	0.266667	6.55675E-001	-8.86905E-005	0.00000E+000	-5.81521E-005	-5.39641E-002	6.55787E-001	3.57180E+000	9	...........
	20	0.28	6.48642E-001	-8.86988E-005	0.00000E+000	-5.75338E-005	-5.39641E-002	6.48763E-001	3.57180E+000	9	...........
	21	0.293333	6.41746E-001	-8.84540E-005	0.00000E+000	-5.67650E-005	-5.39641E-002	6.41858E-001	3.57180E+000	9	...........
	22	0.306667	6.34917E-001	-8.87561E-005	0.00000E+000	-5.63528E-005	-5.39641E-002	6.35028E-001	3.57180E+000	9	...........
	23	0.32	6.28246E-001	-8.86561E-005	0.00000E+000	-5.56979E-005	-5.39641E-002	6.28352E-001	3.57180E+000	9	...........
	24	0.333333	6.21652E-001	-8.85821E-005	0.00000E+000	-5.50673E-005	-5.39641E-002	6.21772E-001	3.57180E+000	9	...........
	25	0.346667	6.15128E-001	-8.83623E-005	0.00000E+000	-5.43541E-005	-5.39641E-002	6.15262E-001	3.57180E+000	9	...........
	26	0.36	6.08669E-001	-8.87811E-005	0.00000E+000	-5.40383E-005	-5.39641E-002	6.08822E-001	3.57180E+000	9	...........
	27	0.373333	6.02318E-001	-8.86769E-005	0.00000E+000	-5.34117E-005	-5.39641E-002	6.02468E-001	3.57180E+000	9	...........
	28	0.386667	5.96072E-001	-8.87311E-005	0.00000E+000	-5.28901E-005	-5.39641E-002	5.96183E-001	3.57180E+000	9	...........
	29	0.4	5.89867E-001	-8.86280E-005	0.00000E+000	-5.22787E-005	-5.39641E-002	5.89996E-001	3.57180E+000	9	...........
	30	0.413333	5.83697E-001	-8.85540E-005	0.00000E+000	-5.16887E-005	-5.39641E-002	5.83833E-001	3.57180E+000	9	...........
	31	0.426667	5.77644E-001	-8.87228E-005	0.00000E+000	-5.12502E-005	-5.39641E-002	5.77776E-001	3.57180E+000	9	...........
	32	0.44	5.71644E-001	-8.85957E-005	0.00000E+000	-5.06452E-005	-5.39641E-002	5.71750E-001	3.57180E+000	9	...........
	33	0.453333	5.65731E-001	-8.86582E-005	0.00000E+000	-5.01566E-005	-5.39641E-002	5.65830E-001	3.57180E+000	9	...........
	34	0.466667	5.59811E-001	-8.89166E-005	0.00000E+000	-4.97765E-005	-5.39641E-002	5.59936E-001	3.57180E+000	9	...........
	35	0.48	5.53986E-001	-8.87530E-005	0.00000E+000	-4.91679E-005	-5.39641E-002	5.54104E-001	3.57180E+000	9	...........
	36	0.493333	5.48231E-001	-8.84519E-005	0.00000E+000	-4.84921E-005	-5.39641E-002	5.48307E-001	3.57180E+000	9	...........
	37	0.506667	5.42514E-001	-8.86697E-005	0.00000E+000	-4.81046E-005	-5.39641E-002	5.42596E-001	3.57180E+000	9	...........
	38	0.52	5.36812E-001	-8.86394E-005	0.00000E+000	-4.75827E-005	-5.39641E-002	5.36892E-001	3.57180E+000	9	...........
	39	0.533333	5.31130E-001	-8.85925E-005	0.00000E+000	-4.70542E-005	-5.39641E-002	5.31221E-001	3.57180E+000	9	...........
	40	0.546667	5.25517E-001	-8.87561E-005	0.00000E+000	-4.66428E-005	-5.39641E-002	5.25624E-001	3.57180E+000	9	...........
	41	0.56	5.19951E-001	-8.88645E-005	0.00000E+000	-4.62052E-005	-5.39641E-002	5.19996E-001	3.57180E+000	9	...........
	42	0.573333	5.14399E-001	-8.85488E-005	0.00000E+000	-4.55494E-005	-5.39641E-002	5.14463E-001	3.57180E+000	9	...........
	43	0.586667	5.08831E-001	-8.86217E-005	0.00000E+000	-4.50935E-005	-5.39641E-002	5.08955E-001	3.57180E+000	9	...........
	44	0.6	5.03369E-001	-8.84904E-005	0.00000E+000	-4.45433E-005	-5.39641E-002	5.03481E-001	3.57180E+000	9	...........
	45	0.613333	4.97942E-001	-8.84977E-005	0.00000E+000	-4.40667E-005	-5.39641E-002	4.98031E-001	3.57180E+000	9	...........
	46	0.626667	4.92510E-001	-8.87290E-005	0.00000E+000	-4.36999E-005	-5.39641E-002	4.92614E-001	3.57180E+000	9	...........
	47	0.64	4.87139E-001	-8.86498E-005	0.00000E+000	-4.31848E-005	-5.39641E-002	4.87229E-001	3.57180E+000	9	...........
	48	0.653333	4.81836E-001	-8.87707E-005	0.00000E+000	-4.27729E-005	-5.39641E-002	4.81890E-001	3.57180E+000	9	...........
	49	0.666667	4.76475E-001	-8.87165E-005	0.00000E+000	-4.22712E-005	-5.39641E-002	4.76533E-001	3.57180E+000	9	...........
	50	0.68	4.71125E-001	-8.88009E-005	0.00000E+000	-4.18363E-005	-5.39641E-002	4.71183E-001	3.57180E+000	9	...........
	51	0.693333	4.65809E-001	-8.86978E-005	0.00000E+000	-4.13162E-005	-5.39641E-002	4.65865E-001	3.57180E+000	9	...........
	52	0.706667	4.60540E-001	-8.86644E-005	0.00000E+000	-4.08335E-005	-5.39641E-002	4.60594E-001	3.57180E+000	9	...........
	53	0.72	4.55294E-001	-8.84061E-005	0.00000E+000	-4.02507E-005	-5.39641E-002	4.55347E-001	3.57180E+000	9	...........
	54	0.733333	4.50048E-001	-8.87968E-005	0.00000E+000	-3.99628E-005	-5.39641E-002	4.50103E-001	3.57180E+000	9	...........
	55	0.746667	4.44825E-001	-8.88447E-005	0.00000E+000	-3.95203E-005	-5.39641E-002	4.44881E-001	3.57180E+000	9	...........
	56	0.76	4.39622E-001	-8.87301E-005	0.00000E+000	-3.90077E-005	-5.39641E-002	4.39671E-001	3.57180E+000	9	...........
	57	0.773333	4.34435E-001	-8.89041E-005	0.00000E+000	-3.86231E-005	-5.39641E-002	4.34489E-001	3.57238E+000	9	...........
	58	0.786667	4.29267E-001	-8.83894E-005	0.00000E+000	-3.79426E-005	-5.39641E-002	4.29317E-001	3.57320E+000	9	...........
	59	0.8	4.24119E-001	-8.88749E-005	0.00000E+000	-3.76935E-005	-5.39641E-002	4.24171E-001	3.57320E+000	9	...........
	60	0.813333	4.19001E-001	-8.87999E-005	0.00000E+000	-3.72073E-005	-5.39641E-002	4.19050E-001	3.57320E+000	9	...........
	61	0.826667	4.13921E-001	-8.87655E-005	0.00000E+000	-3.67419E-005	-5.39641E-002	4.13973E-001	3.57320E+000	9	...........
	62	0.84	4.08864E-001	-8.87155E-005	0.00000E+000	-3.62725E-005	-5.39641E-002	4.08910E-001	3.57320E+000	9	...........
	63	0.853333	4.03817E-001	-8.89593E-005	0.00000E+000	-3.59233E-005	-5.39641E-002	4.03860E-001	3.57320E+000	9	...........
	64	0.866667	3.98791E-001	-8.86092E-005	0.00000E+000	-3.53365E-005	-5.39641E-002	3.98837E-001	3.57320E+000	9	...........
	65	0.88	3.93798E-001	-8.88478E-005	0.00000E+000	-3.49881E-005	-5.39641E-002	3.93835E-001	3.57320E+000	9	...........
	66	0.893333	3.88796E-001	-8.87134E-005	0.00000E+000	-3.44915E-005	-5.39641E-002	3.88836E-001	3.57320E+000	9	...........
	67	0.906667	3.83823E-001	-8.90041E-005	0.00000E+000	-3.41618E-005	-5.39641E-002	3.83866E-001	3.57320E+000	9	...........
	68	0.92	3.78866E-001	-8.86009E-005	0.00000E+000	-3.35678E-005	-5.39641E-002	3.78903E-001	3.57320E+000	9	...........
	69	0.933333	3.73892E-001	-8.88113E-005	0.00000E+000	-3.32058E-005	-5.39641E-002	3.73936E-001	3.57320E+000	9	...........
	70	0.946667	3.68920E-001	-8.89457E-005	0.00000E+000	-3.28138E-005	-5.39641E-002	3.68963E-001	3.57320E+000	9	...........
	71	0.96	3.63987E-001	-8.87301E-005	0.00000E+000	-3.22966E-005	-5.39641E-002	3.64028E-001	3.57320E+000	9	...........
	72	0.97333	3.59080E-001	-8.87353E-005	0.00000E+000	-3.18631E-005	-5.39641E-002	3.59122E-001	3.57320E+000	9	...........
	73	0.98667	3.54199E-001	-8.88457E-005	0.00000E+000	-3.14690E-005	-5.39641E-002	3.54240E-001	3.57320E+000	9	...........
	74	1	3.49342E-001	-8.87301E-005	0.00000E+000	-3.09971E-005	-5.39641E-002	3.49385E-001	3.57320E+000	9	...........
	75	1.01333	3.44537E-001	-8.86957E-005	0.00000E+000	-3.05589E-005	-5.39641E-002	3.44571E-001	3.57320E+000	9	...........
	76	1.02667	3.39743E-001	-8.87249E-005	0.00000E+000	-3.01437E-005	-5.39641E-002	3.39783E-001	3.57320E+000	9	...........
	77	1.04	3.34947E-001	-8.86884E-005	0.00000E+000	-2.97059E-005	-5.39641E-002	3.34974E-001	3.57320E+000	9	...........
	78	1.05333	3.30165E-001	-8.88353E-005	0.00000E+000	-2.93303E-005	-5.39641E-002	3.30199E-001	3.57320E+000	9	...........
	79	1.06667	3.25401E-001	-8.84957E-005	0.00000E+000	-2.87966E-005	-5.39641E-002	3.25431E-001	3.57320E+000	9	...........
	80	1.08	3.20667E-001	-8.87238E-005	0.00000E+000	-2.84508E-005	-5.39641E-002	3.20691E-001	3.57320E+000	9	...........
	81	1.09333	3.15974E-001	-8.89812E-005	0.00000E+000	-2.81157E-005	-5.39641E-002	3.16009E-001	3.57320E+000	9	...........
	82	1.10667	3.11308E-001	-8.88582E-005	0.00000E+000	-2.76623E-005	-5.39641E-002	3.11342E-001	3.57320E+000	9	...........
	83	1.12	3.06645E-001	-8.86665E-005	0.00000E+000	-2.71892E-005	-5.39641E-002	3.06679E-001	3.57320E+000	9	...........
	84	1.13333	3.01992E-001	-8.86051E-005	0.00000E+000	-2.67580E-005	-5.39641E-002	3.02025E-001	3.57320E+000	9	...........
	85	1.14667	2.97362E-001	-8.86280E-005	0.00000E+000	-2.63546E-005	-5.39641E-002	2.97391E-001	3.57320E+000	9	...........
	86	1.16	2.92740E-001	-8.86832E-005	0.00000E+000	-2.59611E-005	-5.39641E-002	2.92770E-001	3.57320E+000	9	...........
	87	1.17333	2.88127E-001	-8.89885E-005	0.00000E+000	-2.56400E-005	-5.39641E-002	2.88156E-001	3.57320E+000	9	...........
	88	1.18667	2.83563E-001	-8.87165E-005	0.00000E+000	-2.51568E-005	-5.39641E-002	2.83594E-001	3.57320E+000	9	...........
	89	1.2	2.79016E-001	-8.87051E-005	0.00000E+000	-2.47501E-005	-5.39641E-002	2.79045E-001	3.57320E+000	9	...........
	90	1.21333	2.74500E-001	-8.87947E-005	0.00000E+000	-2.43742E-005	-5.39641E-002	2.74528E-001	3.57320E+000	9	...........
	91	1.22667	2.70004E-001	-8.87499E-005	0.00000E+000	-2.39629E-005	-5.39641E-002	2.70030E-001	3.57320E+000	9	...........
	92	1.24	2.65520E-001	-8.86248E-005	0.00000E+000	-2.35317E-005	-5.39641E-002	2.65548E-001	3.57320E+000	9	...........
	93	1.25333	2.61069E-001	-8.86509E-005	0.00000E+000	-2.31440E-005	-5.39641E-002	2.61102E-001	3.57320E+000	9	...........
	94	1.26667	2.56641E-001	-8.88759E-005	0.00000E+000	-2.28092E-005	-5.39641E-002	2.56670E-001	3.57320E+000	9	...........
	95	1.28	2.52219E-001	-8.85717E-005	0.00000E+000	-2.23395E-005	-5.39641E-002	2.52248E-001	3.57320E+000	9	...........
	96	1.29333	2.47806E-001	-8.85623E-005	0.00000E+000	-2.19463E-005	-5.39641E-002	2.47836E-001	3.57320E+000	9	...........
	97	1.30667	2.43417E-001	-8.85446E-005	0.00000E+000	-2.15533E-005	-5.39641E-002	2.43443E-001	3.57320E+000	9	...........
	98	1.32	2.39044E-001	-8.89062E-005	0.00000E+000	-2.12525E-005	-5.39641E-002	2.39070E-001	3.57320E+000	9	...........
	99	1.33333	2.34704E-001	-8.87176E-005	0.00000E+000	-2.08224E-005	-5.39641E-002	2.34731E-001	3.57320E+000	9	...........
	100	1.34667	2.30398E-001	-8.87645E-005	0.00000E+000	-2.04512E-005	-5.39641E-002	2.30423E-001	3.57320E+000	9	...........
	101	1.36	2.26109E-001	-8.84311E-005	0.00000E+000	-1.99951E-005	-5.39641E-002	2.26132E-001	3.57320E+000	9	...........
	102	1.37333	2.21841E-001	-8.86238E-005	0.00000E+000	-1.96604E-005	-5.39641E-002	2.21860E-001	3.57320E+000	9	...........
	103	1.38667	2.17581E-001	-8.88947E-005	0.00000E+000	-1.93418E-005	-5.39641E-002	2.17604E-001	3.57320E+000	9	...........
	104	1.4	2.13349E-001	-8.87988E-005	0.00000E+000	-1.89451E-005	-5.39641E-002	2.13367E-001	3.57320E+000	9	...........
	105	1.41333	2.09125E-001	-8.84561E-005	0.00000E+000	-1.84984E-005	-5.39641E-002	2.09144E-001	3.57320E+000	9	...........
	106	1.42667	2.04927E-001	-8.86228E-005	0.00000E+000	-1.81612E-005	-5.39641E-002	2.04948E-001	3.57320E+000	9	...........
	107	1.44	2.00766E-001	-8.88280E-005	0.00000E+000	-1.78337E-005	-5.39641E-002	2.00788E-001	3.57320E+000	9	...........
	108	1.45333	1.96629E-001	-8.88020E-005	0.00000E+000	-1.74610E-005	-5.39641E-002	1.96640E-001	3.57320E+000	9	...........
	109	1.46667	1.92494E-001	-8.87843E-005	0.00000E+000	-1.70904E-005	-5.39641E-002	1.92510E-001	3.57320E+000	9	...........
	110	1.48	1.88373E-001	-8.86363E-005	0.00000E+000	-1.66967E-005	-5.39641E-002	1.88395E-001	3.57320E+000	9	...........
	111	1.49333	1.84272E-001	-8.87217E-005	0.00000E+000	-1.63490E-005	-5.39641E-002	1.84287E-001	3.57320E+000	9	...........
	112	1.50667	1.80187E-001	-8.88989E-005	0.00000E+000	-1.60185E-005	-5.39641E-002	1.80205E-001	3.57320E+000	9	...........
	113	1.52	1.76116E-001	-8.84769E-005	0.00000E+000	-1.55822E-005	-5.39641E-002	1.76133E-001	3.57320E+000	9	...........
	114	1.53333	1.72057E-001	-8.86655E-005	0.00000E+000	-1.52555E-005	-5.39641E-002	1.72075E-001	3.57320E+000	9	...........
	115	1.54667	1.68008E-001	-8.85154E-005	0.00000E+000	-1.48713E-005	-5.39641E-002	1.68022E-001	3.57320E+000	9	...........
	116	1.56	1.63965E-001	-8.84842E-005	0.00000E+000	-1.45083E-005	-5.39641E-002	1.63980E-001	3.57320E+000	9	...........
	117	1.57333	1.59952E-001	-8.86894E-005	0.00000E+000	-1.41860E-005	-5.39641E-002	1.59969E-001	3.57320E+000	9	...........
	118	1.58667	1.55956E-001	-8.86384E-005	0.00000E+000	-1.38237E-005	-5.39641E-002	1.55972E-001	3.57320E+000	9	...........
	119	1.6	1.51981E-001	-8.86905E-005	0.00000E+000	-1.34793E-005	-5.39641E-002	1.51995E-001	3.57320E+000	9	...........
	120	1.61333	1.48012E-001	-8.86530E-005	0.00000E+000	-1.31217E-005	-5.39641E-002	1.48027E-001	3.57320E+000	9	...........
	121	1.62667	1.44054E-001	-8.85269E-005	0.00000E+000	-1.27527E-005	-5.39641E-002	1.44061E-001	3.57320E+000	9	...........
	122	1.64	1.40106E-001	-8.85967E-005	0.00000E+000	-1.24129E-005	-5.39641E-002	1.40117E-001	3.57320E+000	9	...........
	123	1.65333	1.36176E-001	-8.87061E-005	0.00000E+000	-1.20797E-005	-5.39641E-002	1.36184E-001	3.57320E+000	9	...........
	124	1.66667	1.32261E-001	-8.88582E-005	0.00000E+000	-1.17525E-005	-5.39641E-002	1.32270E-001	3.57320E+000	9	...........
	125	1.68	1.28362E-001	-8.88634E-005	0.00000E+000	-1.14067E-005	-5.39641E-002	1.28375E-001	3.57320E+000	9	...........
	126	1.69333	1.24486E-001	-8.86415E-005	0.00000E+000	-1.10346E-005	-5.39641E-002	1.24495E-001	3.57320E+000	9	...........
	127	1.70667	1.20644E-001	-8.86103E-005	0.00000E+000	-1.06903E-005	-5.39641E-002	1.20658E-001	3.57320E+000	9	...........
	128	1.72	1.16832E-001	-8.87572E-005	0.00000E+000	-1.03696E-005	-5.39641E-002	1.16836E-001	3.57320E+000	9	...........
	129	1.73333	1.13019E-001	-8.85769E-005	0.00000E+000	-1.00109E-005	-5.39641E-002	1.13031E-001	3.57320E+000	9	...........
	130	1.74667	1.09205E-001	-8.86915E-005	0.00000E+000	-9.68558E-006	-5.39641E-002	1.09212E-001	3.57320E+000	9	...........
	131	1.76	1.05422E-001	-8.85790E-005	0.00000E+000	-9.33816E-006	-5.39641E-002	1.05424E-001	3.57320E+000	9	...........
	132	1.77333	1.01656E-001	-8.85363E-005	0.00000E+000	-9.00024E-006	-5.39641E-002	1.01663E-001	3.57279E+000	9	...........
	133	1.78667	9.78971E-002	-8.87478E-005	0.00000E+000	-8.68815E-006	-5.39641E-002	9.79071E-002	3.57220E+000	9	...........
	134	1.8	9.41527E-002	-8.86426E-005	0.00000E+000	-8.34593E-006	-5.39641E-002	9.41604E-002	3.57220E+000	9	...........
	135	1.81333	9.04215E-002	-8.87290E-005	0.00000E+000	-8.02301E-006	-5.39641E-002	9.04306E-002	3.57220E+000	9	...........
	136	1.82667	8.67146E-002	-8.85915E-005	0.00000E+000	-7.68218E-006	-5.39641E-002	8.67196E-002	3.57220E+000	9	...........
	137	1.84	8.30095E-002	-8.88968E-005	0.00000E+000	-7.37928E-006	-5.39641E-002	8.30140E-002	3.57220E+000	9	...........
	138	1.85333	7.93314E-002	-8.87030E-005	0.00000E+000	-7.03693E-006	-5.39641E-002	7.93280E-002	3.57220E+000	9	...........
	139	1.86667	7.56508E-002	-8.88499E-005	0.00000E+000	-6.72157E-006	-5.39641E-002	7.56530E-002	3.57220E+000	9	...........
	140	1.88	7.19875E-002	-8.89395E-005	0.00000E+000	-6.40253E-006	-5.39641E-002	7.19853E-002	3.57220E+000	9	...........
	141	1.89333	6.83385E-002	-8.87342E-005	0.00000E+000	-6.06397E-006	-5.39641E-002	6.83386E-002	3.57220E+000	9	...........
	142	1.90667	6.47106E-002	-8.86749E-005	0.00000E+000	-5.73820E-006	-5.39641E-002	6.47091E-002	3.57220E+000	9	...........
	143	1.92	6.10894E-002	-8.88999E-005	0.00000E+000	-5.43084E-006	-5.39641E-002	6.10862E-002	3.57220E+000	9	...........
	144	1.93333	5.74752E-002	-8.84936E-005	0.00000E+000	-5.08618E-006	-5.39641E-002	5.74770E-002	3.57220E+000	9	...........
	145	1.94667	5.38910E-002	-8.88145E-005	0.00000E+000	-4.78630E-006	-5.39641E-002	5.38840E-002	3.57220E+000	9	...........
	146	1.96	5.02981E-002	-8.88280E-005	0.00000E+000	-4.46788E-006	-5.39641E-002	5.03025E-002	3.57220E+000	9	...........
	147	1.97333	4.67108E-002	-8.87249E-005	0.00000E+000	-4.14441E-006	-5.39641E-002	4.67186E-002	3.57220E+000	9	...........
	148	1.98667	4.31656E-002	-8.86999E-005	0.00000E+000	-3.82879E-006	-5.39641E-002	4.31745E-002	3.57220E+000	9	...........
	149	2	3.96411E-002	-8.89947E-005	0.00000E+000	-3.52785E-006	-5.39641E-002	3.96424E-002	3.57220E+000	9	...........
	150	2.01333	3.61157E-002	-8.86113E-005	0.00000E+000	-3.20026E-006	-5.39641E-002	3.61186E-002	3.57220E+000	9	...........
	151	2.02667	3.25962E-002	-8.86947E-005	0.00000E+000	-2.89111E-006	-5.39641E-002	3.25975E-002	3.57220E+000	9	...........
	152	2.04	2.90951E-002	-8.89249E-005	0.00000E+000	-2.58728E-006	-5.39641E-002	2.90931E-002	3.57220E+000	9	...........
	153	2.05333	2.56191E-002	-8.85936E-005	0.00000E+000	-2.26969E-006	-5.39641E-002	2.56161E-002	3.57220E+000	9	...........
	154	2.06667	2.21490E-002	-8.87144E-005	0.00000E+000	-1.96494E-006	-5.39641E-002	2.21466E-002	3.57220E+000	9	...........
	155	2.08	1.86920E-002	-8.85769E-005	0.00000E+000	-1.65568E-006	-5.39641E-002	1.86868E-002	3.57220E+000	9	...........
	156	2.09333	1.52560E-002	-8.87551E-005	0.00000E+000	-1.35404E-006	-5.39641E-002	1.52475E-002	3.57220E+000	9	...........
	157	2.10667	1.18462E-002	-8.87478E-005	0.00000E+000	-1.05133E-006	-5.39641E-002	1.18411E-002	3.57220E+000	9	...........
	158	2.12	8.45920E-003	-8.88936E-005	0.00000E+000	-7.51969E-007	-5.39641E-002	8.44793E-003	3.57220E+000	9	...........
	159	2.13333	5.07279E-003	-8.87103E-005	0.00000E+000	-4.50009E-007	-5.39641E-002	5.06239E-003	3.57220E+000	9	...........
	160	2.14667	1.69456E-003	-8.85957E-005	0.00000E+000	-1.50131E-007	-5.39641E-002	1.68060E-003	3.57220E+000	9	...........
	161	2.14833	-1.84838E-004	-8.90583E-005	0.00000E+000	1.64614E-008	-5.39641E-002	-2.07021E-004	3.57220E+000	9	...........
STARTTIMEOFFSET	QUANT	842.2548	Start Time Offset (s)
