EXPLAIN
TAG	PWR800_DISCHARGE
TITLE	LABEL	PWR Cyclic Charge Discharge (Cell) - Discharge Step	Test &Identifier
DATE	LABEL	10-7-2017	Date
TIME	LABEL	15:38:17	Time
NOTES	NOTES	3	&Notes...
	supercap test cell
	0.9mg
	6M KOH
PSTAT	PSTAT	IFC5000-01520	Potentiostat
CAPACITY	QUANT	1.00000E-003	Capacity (A-hr)
CELLTYPE	SELECTOR	1	&Cell Type
WORKINGCONNECTION	SELECTOR	0	&Working Lead
MAXDISCHARGETIME	VARIABLEANDUNITS	1.00000E+002	s	1.00000E+002	second(s)	Max &Discharge Time
DISCHARGEMODE	MULTIPARAM	0	9.00000E-005	&Discharge Mode	Constant Current	Amp(s)
SAMPLETIME	QUANT	1.00000E-002	Sa&mple Period (s)
DISCHARGESTOPAT1	MULTIPARAM	3	0.00000E+000	Discharge Stop At &1	Voltage < Limit	V
DISCHARGESTOPAT2	MULTIPARAM	0	0.00000E+000	Discharge Stop At &2	None	N/A
AESBHCSELECTOR	TOGGLE	F	Save Both Half Cells
IRCOMP	TOGGLE	F	IR &Measure
EOC	QUANT	0	Open Circuit (V)
SEQUENCER	TOGGLE	TRUE	Run as Sequence
PSTATMODEL	IQUANT	53	Pstat Model
PSTATSECTION	LABEL	IFC5000-01520	Pstat Section
PSTATSERIALNO	LABEL	01520	Pstat Serial Number
CTRLMODE	IQUANT	0	Control Mode
ELECTROMETER	IQUANT	1	RE=0 or CS=1
IESTAB	IQUANT	0	I/E Stability
CASPEED	IQUANT	4	Control Amp Speed
CONVENTION	IQUANT	1	Current Convention
ICHRANGE	IQUANT	2	Ich Range
ICHRANGEMODE	TOGGLE	T	Ich Auto Range
ICHOFFSETENABLE	TOGGLE	F	Ich Offset Enable
ICHOFFSET	QUANT	0	Ich Offset (V)
ICHFILTER	IQUANT	1	Ich Filter
VCHRANGE	IQUANT	2	Vch Range
VCHRANGEMODE	TOGGLE	T	Vch Auto Range
VCHOFFSETENABLE	TOGGLE	F	Vch Offset Enable
VCHOFFSET	QUANT	0	Vch Offset (V)
VCHFILTER	IQUANT	1	Vch Filter
IERANGELOWERLIMIT	IQUANT	9	I/E Range Lower Limit
IERANGEMODE	TOGGLE	F	I/E AutoRange
IERANGE	IQUANT	9	I/E Range
ACHSELECT	IQUANT	1	Ach Select
ACHRANGE	IQUANT	2	Ach Range
ACHOFFSETENABLE	TOGGLE	F	Ach Offset Enable
ACHOFFSET	QUANT	0	Ach Offset (V)
ACHFILTER	IQUANT	1	Ach Filter
CABLEID	IQUANT	14	Cable ID
DCCALDATE	LABEL	5-7-2017	DC Calibration Date
ACCALDATE	LABEL	12/3/2015	AC Calibration Date
FRAMEWORKVERSION	QUANT	7.01	Framework Version
INSTRUMENTVERSION	LABEL	4.00	Instrument Version
CURVE	TABLE	153
	Pt	T	Vf	Im	Vu	Pwr	Sig	Ach	Temp	IERange	Over
	#	s	V	A	V	W	V	V	deg C	#	bits
	0	0.013333	8.11711E-001	-8.89395E-005	0.00000E+000	-7.21932E-005	-5.39641E-002	8.11872E-001	3.57260E+000	9	...........
	1	0.026667	7.98331E-001	-8.86874E-005	0.00000E+000	-7.08019E-005	-5.39641E-002	7.98485E-001	3.57260E+000	9	...........
	2	0.04	7.85794E-001	-8.87259E-005	0.00000E+000	-6.97203E-005	-5.39641E-002	7.85940E-001	3.57260E+000	9	...........
	3	0.053333	7.73949E-001	-8.86592E-005	0.00000E+000	-6.86177E-005	-5.39641E-002	7.74120E-001	3.57260E+000	9	...........
	4	0.066667	7.62683E-001	-8.86665E-005	0.00000E+000	-6.76245E-005	-5.39641E-002	7.62830E-001	3.57260E+000	9	...........
	5	0.08	7.51928E-001	-8.86165E-005	0.00000E+000	-6.66332E-005	-5.39641E-002	7.52045E-001	3.57260E+000	9	...........
	6	0.093333	7.41558E-001	-8.87957E-005	0.00000E+000	-6.58472E-005	-5.39641E-002	7.41693E-001	3.57260E+000	9	...........
	7	0.106667	7.31591E-001	-8.86519E-005	0.00000E+000	-6.48569E-005	-5.39641E-002	7.31711E-001	3.57260E+000	9	...........
	8	0.12	7.21990E-001	-8.86624E-005	0.00000E+000	-6.40133E-005	-5.39641E-002	7.22086E-001	3.57260E+000	9	...........
	9	0.133333	7.12580E-001	-8.87624E-005	0.00000E+000	-6.32503E-005	-5.39641E-002	7.12736E-001	3.57260E+000	9	...........
	10	0.146667	7.03570E-001	-8.87415E-005	0.00000E+000	-6.24359E-005	-5.39641E-002	7.03696E-001	3.57260E+000	9	...........
	11	0.16	6.94797E-001	-8.87603E-005	0.00000E+000	-6.16704E-005	-5.39641E-002	6.94918E-001	3.57260E+000	9	...........
	12	0.173333	6.86224E-001	-8.87676E-005	0.00000E+000	-6.09144E-005	-5.39641E-002	6.86339E-001	3.57260E+000	9	...........
	13	0.186667	6.77884E-001	-8.88124E-005	0.00000E+000	-6.02045E-005	-5.39641E-002	6.78012E-001	3.57260E+000	9	...........
	14	0.2	6.69783E-001	-8.87405E-005	0.00000E+000	-5.94369E-005	-5.39641E-002	6.69887E-001	3.57260E+000	9	...........
	15	0.213333	6.61794E-001	-8.86676E-005	0.00000E+000	-5.86796E-005	-5.39641E-002	6.61902E-001	3.57260E+000	9	...........
	16	0.226667	6.54002E-001	-8.87520E-005	0.00000E+000	-5.80439E-005	-5.39641E-002	6.54102E-001	3.57260E+000	9	...........
	17	0.24	6.46409E-001	-8.87332E-005	0.00000E+000	-5.73579E-005	-5.39641E-002	6.46496E-001	3.57260E+000	9	...........
	18	0.253333	6.38920E-001	-8.87843E-005	0.00000E+000	-5.67260E-005	-5.39641E-002	6.39031E-001	3.57260E+000	9	...........
	19	0.266667	6.31581E-001	-8.87905E-005	0.00000E+000	-5.60784E-005	-5.39641E-002	6.31706E-001	3.57260E+000	9	...........
	20	0.28	6.24417E-001	-8.88561E-005	0.00000E+000	-5.54833E-005	-5.39641E-002	6.24519E-001	3.57260E+000	9	...........
	21	0.293333	6.17368E-001	-8.86509E-005	0.00000E+000	-5.47303E-005	-5.39641E-002	6.17498E-001	3.57260E+000	9	...........
	22	0.306667	6.10373E-001	-8.86801E-005	0.00000E+000	-5.41279E-005	-5.39641E-002	6.10548E-001	3.57260E+000	9	...........
	23	0.32	6.03570E-001	-8.88478E-005	0.00000E+000	-5.36258E-005	-5.39641E-002	6.03735E-001	3.57260E+000	9	...........
	24	0.333333	5.96846E-001	-8.88280E-005	0.00000E+000	-5.30166E-005	-5.39641E-002	5.96995E-001	3.57260E+000	9	...........
	25	0.346667	5.90247E-001	-8.87124E-005	0.00000E+000	-5.23622E-005	-5.39641E-002	5.90385E-001	3.57260E+000	9	...........
	26	0.36	5.83677E-001	-8.86822E-005	0.00000E+000	-5.17617E-005	-5.39641E-002	5.83783E-001	3.57260E+000	9	...........
	27	0.373333	5.77233E-001	-8.85363E-005	0.00000E+000	-5.11061E-005	-5.39641E-002	5.77336E-001	3.57260E+000	9	...........
	28	0.386667	5.70892E-001	-8.87394E-005	0.00000E+000	-5.06607E-005	-5.39641E-002	5.70980E-001	3.57260E+000	9	...........
	29	0.4	5.64633E-001	-8.85113E-005	0.00000E+000	-4.99764E-005	-5.39641E-002	5.64726E-001	3.57260E+000	9	...........
	30	0.413333	5.58407E-001	-8.87301E-005	0.00000E+000	-4.95475E-005	-5.39641E-002	5.58474E-001	3.57260E+000	9	...........
	31	0.426667	5.52301E-001	-8.86228E-005	0.00000E+000	-4.89464E-005	-5.39641E-002	5.52361E-001	3.57260E+000	9	...........
	32	0.44	5.46253E-001	-8.89583E-005	0.00000E+000	-4.85937E-005	-5.39641E-002	5.46295E-001	3.57260E+000	9	...........
	33	0.453333	5.40257E-001	-8.86238E-005	0.00000E+000	-4.78797E-005	-5.39641E-002	5.40327E-001	3.57260E+000	9	...........
	34	0.466667	5.34306E-001	-8.87155E-005	0.00000E+000	-4.74013E-005	-5.39641E-002	5.34387E-001	3.57260E+000	9	...........
	35	0.48	5.28467E-001	-8.88176E-005	0.00000E+000	-4.69371E-005	-5.39641E-002	5.28545E-001	3.57260E+000	9	...........
	36	0.493333	5.22643E-001	-8.87457E-005	0.00000E+000	-4.63824E-005	-5.39641E-002	5.22749E-001	3.57260E+000	9	...........
	37	0.506667	5.16902E-001	-8.87520E-005	0.00000E+000	-4.58761E-005	-5.39641E-002	5.17007E-001	3.57260E+000	9	...........
	38	0.52	5.11185E-001	-8.89041E-005	0.00000E+000	-4.54465E-005	-5.39641E-002	5.11316E-001	3.57260E+000	9	...........
	39	0.533333	5.05489E-001	-8.88489E-005	0.00000E+000	-4.49122E-005	-5.39641E-002	5.05638E-001	3.57260E+000	9	...........
	40	0.546667	4.99919E-001	-8.88311E-005	0.00000E+000	-4.44083E-005	-5.39641E-002	5.00050E-001	3.57260E+000	9	...........
	41	0.56	4.94354E-001	-8.88322E-005	0.00000E+000	-4.39146E-005	-5.39641E-002	4.94489E-001	3.57260E+000	9	...........
	42	0.573333	4.88822E-001	-8.87561E-005	0.00000E+000	-4.33860E-005	-5.39641E-002	4.88941E-001	3.57260E+000	9	...........
	43	0.586667	4.83414E-001	-8.88499E-005	0.00000E+000	-4.29513E-005	-5.39641E-002	4.83503E-001	3.57260E+000	9	...........
	44	0.6	4.77984E-001	-8.88645E-005	0.00000E+000	-4.24758E-005	-5.39641E-002	4.78053E-001	3.57260E+000	9	...........
	45	0.613333	4.72560E-001	-8.87915E-005	0.00000E+000	-4.19593E-005	-5.39641E-002	4.72628E-001	3.57260E+000	9	...........
	46	0.626667	4.67155E-001	-8.89603E-005	0.00000E+000	-4.15583E-005	-5.39641E-002	4.67217E-001	3.57260E+000	9	...........
	47	0.64	4.61781E-001	-8.87134E-005	0.00000E+000	-4.09662E-005	-5.39641E-002	4.61841E-001	3.57260E+000	9	...........
	48	0.653333	4.56416E-001	-8.89020E-005	0.00000E+000	-4.05763E-005	-5.39641E-002	4.56475E-001	3.57260E+000	9	...........
	49	0.666667	4.51103E-001	-8.85852E-005	0.00000E+000	-3.99611E-005	-5.39641E-002	4.51167E-001	3.57260E+000	9	...........
	50	0.68	4.45817E-001	-8.89207E-005	0.00000E+000	-3.96424E-005	-5.39641E-002	4.45883E-001	3.57260E+000	9	...........
	51	0.693333	4.40561E-001	-8.87436E-005	0.00000E+000	-3.90970E-005	-5.39641E-002	4.40617E-001	3.57260E+000	9	...........
	52	0.706667	4.35309E-001	-8.87905E-005	0.00000E+000	-3.86513E-005	-5.39641E-002	4.35367E-001	3.57260E+000	9	...........
	53	0.72	4.30086E-001	-8.89405E-005	0.00000E+000	-3.82521E-005	-5.39641E-002	4.30136E-001	3.57260E+000	9	...........
	54	0.733333	4.24880E-001	-8.86551E-005	0.00000E+000	-3.76678E-005	-5.39641E-002	4.24932E-001	3.57260E+000	9	...........
	55	0.746667	4.19711E-001	-8.87426E-005	0.00000E+000	-3.72462E-005	-5.39641E-002	4.19759E-001	3.57260E+000	9	...........
	56	0.76	4.14564E-001	-8.87113E-005	0.00000E+000	-3.67765E-005	-5.39641E-002	4.14612E-001	3.57260E+000	9	...........
	57	0.773333	4.09441E-001	-8.87905E-005	0.00000E+000	-3.63544E-005	-5.39641E-002	4.09486E-001	3.57260E+000	9	...........
	58	0.786667	4.04313E-001	-8.88207E-005	0.00000E+000	-3.59113E-005	-5.39641E-002	4.04359E-001	3.57260E+000	9	...........
	59	0.8	3.99218E-001	-8.88509E-005	0.00000E+000	-3.54709E-005	-5.39641E-002	3.99263E-001	3.57260E+000	9	...........
	60	0.813333	3.94145E-001	-8.87144E-005	0.00000E+000	-3.49664E-005	-5.39641E-002	3.94191E-001	3.57260E+000	9	...........
	61	0.826667	3.89082E-001	-8.87134E-005	0.00000E+000	-3.45168E-005	-5.39641E-002	3.89125E-001	3.57260E+000	9	...........
	62	0.84	3.84015E-001	-8.88239E-005	0.00000E+000	-3.41097E-005	-5.39641E-002	3.84063E-001	3.57260E+000	9	...........
	63	0.853333	3.78989E-001	-8.89395E-005	0.00000E+000	-3.37071E-005	-5.39641E-002	3.79034E-001	3.57390E+000	9	...........
	64	0.866667	3.73955E-001	-8.87676E-005	0.00000E+000	-3.31951E-005	-5.39641E-002	3.73996E-001	3.57390E+000	9	...........
	65	0.88	3.68940E-001	-8.90124E-005	0.00000E+000	-3.28402E-005	-5.39641E-002	3.68981E-001	3.57390E+000	9	...........
	66	0.893333	3.63932E-001	-8.89145E-005	0.00000E+000	-3.23588E-005	-5.39641E-002	3.63971E-001	3.57390E+000	9	...........
	67	0.906667	3.58945E-001	-8.87144E-005	0.00000E+000	-3.18436E-005	-5.39641E-002	3.58981E-001	3.57390E+000	9	...........
	68	0.92	3.53972E-001	-8.87426E-005	0.00000E+000	-3.14124E-005	-5.39641E-002	3.54013E-001	3.57390E+000	9	...........
	69	0.933333	3.49009E-001	-8.88249E-005	0.00000E+000	-3.10006E-005	-5.39641E-002	3.49049E-001	3.57390E+000	9	...........
	70	0.946667	3.44060E-001	-8.86332E-005	0.00000E+000	-3.04951E-005	-5.39641E-002	3.44102E-001	3.57390E+000	9	...........
	71	0.96	3.39124E-001	-8.86947E-005	0.00000E+000	-3.00785E-005	-5.39641E-002	3.39165E-001	3.57390E+000	9	...........
	72	0.97333	3.34215E-001	-8.88697E-005	0.00000E+000	-2.97016E-005	-5.39641E-002	3.34252E-001	3.57390E+000	9	...........
	73	0.98667	3.29334E-001	-8.86613E-005	0.00000E+000	-2.91991E-005	-5.39641E-002	3.29369E-001	3.57390E+000	9	...........
	74	1	3.24475E-001	-8.86634E-005	0.00000E+000	-2.87690E-005	-5.39641E-002	3.24512E-001	3.57390E+000	9	...........
	75	1.01333	3.19627E-001	-8.85738E-005	0.00000E+000	-2.83106E-005	-5.39641E-002	3.19665E-001	3.57390E+000	9	...........
	76	1.02667	3.14795E-001	-8.88301E-005	0.00000E+000	-2.79633E-005	-5.39641E-002	3.14835E-001	3.57390E+000	9	...........
	77	1.04	3.09983E-001	-8.86499E-005	0.00000E+000	-2.74800E-005	-5.39641E-002	3.10020E-001	3.57390E+000	9	...........
	78	1.05333	3.05187E-001	-8.86894E-005	0.00000E+000	-2.70669E-005	-5.39641E-002	3.05228E-001	3.57390E+000	9	...........
	79	1.06667	3.00398E-001	-8.89009E-005	0.00000E+000	-2.67057E-005	-5.39641E-002	3.00438E-001	3.57390E+000	9	...........
	80	1.08	2.95623E-001	-8.87467E-005	0.00000E+000	-2.62356E-005	-5.39641E-002	2.95662E-001	3.57390E+000	9	...........
	81	1.09333	2.90862E-001	-8.88040E-005	0.00000E+000	-2.58297E-005	-5.39641E-002	2.90894E-001	3.57390E+000	9	...........
	82	1.10667	2.86116E-001	-8.88686E-005	0.00000E+000	-2.54267E-005	-5.39641E-002	2.86160E-001	3.57390E+000	9	...........
	83	1.12	2.81396E-001	-8.86853E-005	0.00000E+000	-2.49557E-005	-5.39641E-002	2.81433E-001	3.57390E+000	9	...........
	84	1.13333	2.76697E-001	-8.86384E-005	0.00000E+000	-2.45260E-005	-5.39641E-002	2.76737E-001	3.57390E+000	9	...........
	85	1.14667	2.72013E-001	-8.91875E-005	0.00000E+000	-2.42601E-005	-5.39641E-002	2.72052E-001	3.57390E+000	9	...........
	86	1.16	2.67340E-001	-8.85800E-005	0.00000E+000	-2.36810E-005	-5.39641E-002	2.67377E-001	3.57390E+000	9	...........
	87	1.17333	2.62693E-001	-8.87072E-005	0.00000E+000	-2.33028E-005	-5.39641E-002	2.62727E-001	3.57390E+000	9	...........
	88	1.18667	2.58066E-001	-8.89051E-005	0.00000E+000	-2.29434E-005	-5.39641E-002	2.58098E-001	3.57390E+000	9	...........
	89	1.2	2.53446E-001	-8.87572E-005	0.00000E+000	-2.24951E-005	-5.39641E-002	2.53481E-001	3.57390E+000	9	...........
	90	1.21333	2.48866E-001	-8.88655E-005	0.00000E+000	-2.21156E-005	-5.39641E-002	2.48898E-001	3.57390E+000	9	...........
	91	1.22667	2.44313E-001	-8.88478E-005	0.00000E+000	-2.17067E-005	-5.39641E-002	2.44344E-001	3.57390E+000	9	...........
	92	1.24	2.39764E-001	-8.89739E-005	0.00000E+000	-2.13328E-005	-5.39641E-002	2.39797E-001	3.57390E+000	9	...........
	93	1.25333	2.35230E-001	-8.88447E-005	0.00000E+000	-2.08990E-005	-5.39641E-002	2.35256E-001	3.57390E+000	9	...........
	94	1.26667	2.30716E-001	-8.88280E-005	0.00000E+000	-2.04941E-005	-5.39641E-002	2.30740E-001	3.57390E+000	9	...........
	95	1.28	2.26245E-001	-8.88113E-005	0.00000E+000	-2.00931E-005	-5.39641E-002	2.26270E-001	3.57390E+000	9	...........
	96	1.29333	2.21774E-001	-8.87832E-005	0.00000E+000	-1.96898E-005	-5.39641E-002	2.21801E-001	3.57390E+000	9	...........
	97	1.30667	2.17324E-001	-8.88436E-005	0.00000E+000	-1.93078E-005	-5.39641E-002	2.17345E-001	3.57390E+000	9	...........
	98	1.32	2.12888E-001	-8.91062E-005	0.00000E+000	-1.89697E-005	-5.39641E-002	2.12912E-001	3.57390E+000	9	...........
	99	1.33333	2.08480E-001	-8.87384E-005	0.00000E+000	-1.85002E-005	-5.39641E-002	2.08500E-001	3.57390E+000	9	...........
	100	1.34667	2.04078E-001	-8.89395E-005	0.00000E+000	-1.81506E-005	-5.39641E-002	2.04108E-001	3.57390E+000	9	...........
	101	1.36	1.99707E-001	-8.89291E-005	0.00000E+000	-1.77597E-005	-5.39641E-002	1.99736E-001	3.57390E+000	9	...........
	102	1.37333	1.95356E-001	-8.89697E-005	0.00000E+000	-1.73808E-005	-5.39641E-002	1.95383E-001	3.57390E+000	9	...........
	103	1.38667	1.91026E-001	-8.85290E-005	0.00000E+000	-1.69113E-005	-5.39641E-002	1.91051E-001	3.57390E+000	9	...........
	104	1.4	1.86718E-001	-8.87957E-005	0.00000E+000	-1.65798E-005	-5.39641E-002	1.86739E-001	3.57390E+000	9	...........
	105	1.41333	1.82432E-001	-8.86426E-005	0.00000E+000	-1.61712E-005	-5.39641E-002	1.82456E-001	3.57390E+000	9	...........
	106	1.42667	1.78163E-001	-8.88520E-005	0.00000E+000	-1.58301E-005	-5.39641E-002	1.78182E-001	3.57390E+000	9	...........
	107	1.44	1.73909E-001	-8.89770E-005	0.00000E+000	-1.54739E-005	-5.39641E-002	1.73930E-001	3.57390E+000	9	...........
	108	1.45333	1.69673E-001	-8.89374E-005	0.00000E+000	-1.50903E-005	-5.39641E-002	1.69699E-001	3.57390E+000	9	...........
	109	1.46667	1.65465E-001	-8.87676E-005	0.00000E+000	-1.46879E-005	-5.39641E-002	1.65488E-001	3.57390E+000	9	...........
	110	1.48	1.61272E-001	-8.87207E-005	0.00000E+000	-1.43081E-005	-5.39641E-002	1.61287E-001	3.57390E+000	9	...........
	111	1.49333	1.57088E-001	-8.87801E-005	0.00000E+000	-1.39462E-005	-5.39641E-002	1.57109E-001	3.57390E+000	9	...........
	112	1.50667	1.52934E-001	-8.87780E-005	0.00000E+000	-1.35772E-005	-5.39641E-002	1.52943E-001	3.57390E+000	9	...........
	113	1.52	1.48809E-001	-8.87655E-005	0.00000E+000	-1.32091E-005	-5.39641E-002	1.48823E-001	3.57390E+000	9	...........
	114	1.53333	1.44697E-001	-8.86769E-005	0.00000E+000	-1.28313E-005	-5.39641E-002	1.44709E-001	3.57390E+000	9	...........
	115	1.54667	1.40584E-001	-8.87134E-005	0.00000E+000	-1.24717E-005	-5.39641E-002	1.40597E-001	3.57390E+000	9	...........
	116	1.56	1.36492E-001	-8.86696E-005	0.00000E+000	-1.21027E-005	-5.39641E-002	1.36503E-001	3.57390E+000	9	...........
	117	1.57333	1.32426E-001	-8.88134E-005	0.00000E+000	-1.17612E-005	-5.39641E-002	1.32439E-001	3.57390E+000	9	...........
	118	1.58667	1.28378E-001	-8.88249E-005	0.00000E+000	-1.14032E-005	-5.39641E-002	1.28392E-001	3.57390E+000	9	...........
	119	1.6	1.24357E-001	-8.87738E-005	0.00000E+000	-1.10396E-005	-5.39641E-002	1.24370E-001	3.57390E+000	9	...........
	120	1.61333	1.20364E-001	-8.89437E-005	0.00000E+000	-1.07056E-005	-5.39641E-002	1.20379E-001	3.57390E+000	9	...........
	121	1.62667	1.16390E-001	-8.89749E-005	0.00000E+000	-1.03558E-005	-5.39641E-002	1.16400E-001	3.57390E+000	9	...........
	122	1.64	1.12425E-001	-8.91437E-005	0.00000E+000	-1.00220E-005	-5.39641E-002	1.12432E-001	3.57390E+000	9	...........
	123	1.65333	1.08457E-001	-8.88384E-005	0.00000E+000	-9.63515E-006	-5.39641E-002	1.08464E-001	3.57390E+000	9	...........
	124	1.66667	1.04509E-001	-8.86624E-005	0.00000E+000	-9.26603E-006	-5.39641E-002	1.04513E-001	3.57390E+000	9	...........
	125	1.68	1.00569E-001	-8.86728E-005	0.00000E+000	-8.91774E-006	-5.39641E-002	1.00575E-001	3.57390E+000	9	...........
	126	1.69333	9.66502E-002	-8.88624E-005	0.00000E+000	-8.58857E-006	-5.39641E-002	9.66549E-002	3.57390E+000	9	...........
	127	1.70667	9.27361E-002	-8.88572E-005	0.00000E+000	-8.24027E-006	-5.39641E-002	9.27413E-002	3.57390E+000	9	...........
	128	1.72	8.88439E-002	-8.88155E-005	0.00000E+000	-7.89072E-006	-5.39641E-002	8.88521E-002	3.57390E+000	9	...........
	129	1.73333	8.49757E-002	-8.88666E-005	0.00000E+000	-7.55150E-006	-5.39641E-002	8.49773E-002	3.57390E+000	9	...........
	130	1.74667	8.11336E-002	-8.87124E-005	0.00000E+000	-7.19756E-006	-5.39641E-002	8.11370E-002	3.57390E+000	9	...........
	131	1.76	7.73093E-002	-8.85040E-005	0.00000E+000	-6.84218E-006	-5.39641E-002	7.73115E-002	3.57390E+000	9	...........
	132	1.77333	7.34910E-002	-8.88916E-005	0.00000E+000	-6.53273E-006	-5.39641E-002	7.34980E-002	3.57390E+000	9	...........
	133	1.78667	6.97012E-002	-8.88072E-005	0.00000E+000	-6.18996E-006	-5.39641E-002	6.97063E-002	3.57390E+000	9	...........
	134	1.8	6.59220E-002	-8.87301E-005	0.00000E+000	-5.84926E-006	-5.39641E-002	6.59240E-002	3.57390E+000	9	...........
	135	1.81333	6.21655E-002	-8.88884E-005	0.00000E+000	-5.52579E-006	-5.39641E-002	6.21667E-002	3.57390E+000	9	...........
	136	1.82667	5.84277E-002	-8.87665E-005	0.00000E+000	-5.18642E-006	-5.39641E-002	5.84279E-002	3.57390E+000	9	...........
	137	1.84	5.46973E-002	-8.88030E-005	0.00000E+000	-4.85729E-006	-5.39641E-002	5.47027E-002	3.57390E+000	9	...........
	138	1.85333	5.09838E-002	-8.87165E-005	0.00000E+000	-4.52311E-006	-5.39641E-002	5.09884E-002	3.57290E+000	9	...........
	139	1.86667	4.72929E-002	-8.86165E-005	0.00000E+000	-4.19093E-006	-5.39641E-002	4.73005E-002	3.57290E+000	9	...........
	140	1.88	4.36024E-002	-8.88322E-005	0.00000E+000	-3.87329E-006	-5.39641E-002	4.36100E-002	3.57290E+000	9	...........
	141	1.89333	3.99351E-002	-8.88291E-005	0.00000E+000	-3.54740E-006	-5.39641E-002	3.99422E-002	3.57290E+000	9	...........
	142	1.90667	3.62804E-002	-8.87968E-005	0.00000E+000	-3.22158E-006	-5.39641E-002	3.62863E-002	3.57290E+000	9	...........
	143	1.92	3.26444E-002	-8.87749E-005	0.00000E+000	-2.89800E-006	-5.39641E-002	3.26492E-002	3.57290E+000	9	...........
	144	1.93333	2.90267E-002	-8.85384E-005	0.00000E+000	-2.56998E-006	-5.39641E-002	2.90277E-002	3.57290E+000	9	...........
	145	1.94667	2.54305E-002	-8.87197E-005	0.00000E+000	-2.25618E-006	-5.39641E-002	2.54320E-002	3.57290E+000	9	...........
	146	1.96	2.18514E-002	-8.85853E-005	0.00000E+000	-1.93571E-006	-5.39641E-002	2.18499E-002	3.57290E+000	9	...........
	147	1.97333	1.82783E-002	-8.85894E-005	0.00000E+000	-1.61927E-006	-5.39641E-002	1.82742E-002	3.57290E+000	9	...........
	148	1.98667	1.47234E-002	-8.90447E-005	0.00000E+000	-1.31104E-006	-5.39641E-002	1.47153E-002	3.57290E+000	9	...........
	149	2	1.12006E-002	-8.87405E-005	0.00000E+000	-9.93948E-007	-5.39641E-002	1.11889E-002	3.57290E+000	9	...........
	150	2.01333	7.68774E-003	-8.86967E-005	0.00000E+000	-6.81877E-007	-5.39641E-002	7.67568E-003	3.57290E+000	9	...........
	151	2.02667	4.18698E-003	-8.87613E-005	0.00000E+000	-3.71642E-007	-5.39641E-002	4.17980E-003	3.57290E+000	9	...........
	152	2.03833	9.24942E-004	-8.88939E-005	0.00000E+000	-8.22218E-008	-5.39641E-002	9.12120E-004	3.57290E+000	9	...........
STARTTIMEOFFSET	QUANT	1975.663	Start Time Offset (s)
