EXPLAIN
TAG	PWR800_DISCHARGE
TITLE	LABEL	PWR Cyclic Charge Discharge (Cell) - Discharge Step	Test &Identifier
DATE	LABEL	10-7-2017	Date
TIME	LABEL	15:31:19	Time
NOTES	NOTES	3	&Notes...
	supercap test cell
	0.9mg
	6M KOH
PSTAT	PSTAT	IFC5000-01520	Potentiostat
CAPACITY	QUANT	1.00000E-003	Capacity (A-hr)
CELLTYPE	SELECTOR	1	&Cell Type
WORKINGCONNECTION	SELECTOR	0	&Working Lead
MAXDISCHARGETIME	VARIABLEANDUNITS	1.00000E+002	s	1.00000E+002	second(s)	Max &Discharge Time
DISCHARGEMODE	MULTIPARAM	0	9.00000E-005	&Discharge Mode	Constant Current	Amp(s)
SAMPLETIME	QUANT	1.00000E-002	Sa&mple Period (s)
DISCHARGESTOPAT1	MULTIPARAM	3	0.00000E+000	Discharge Stop At &1	Voltage < Limit	V
DISCHARGESTOPAT2	MULTIPARAM	0	0.00000E+000	Discharge Stop At &2	None	N/A
AESBHCSELECTOR	TOGGLE	F	Save Both Half Cells
IRCOMP	TOGGLE	F	IR &Measure
EOC	QUANT	0	Open Circuit (V)
SEQUENCER	TOGGLE	TRUE	Run as Sequence
PSTATMODEL	IQUANT	53	Pstat Model
PSTATSECTION	LABEL	IFC5000-01520	Pstat Section
PSTATSERIALNO	LABEL	01520	Pstat Serial Number
CTRLMODE	IQUANT	0	Control Mode
ELECTROMETER	IQUANT	1	RE=0 or CS=1
IESTAB	IQUANT	0	I/E Stability
CASPEED	IQUANT	4	Control Amp Speed
CONVENTION	IQUANT	1	Current Convention
ICHRANGE	IQUANT	2	Ich Range
ICHRANGEMODE	TOGGLE	T	Ich Auto Range
ICHOFFSETENABLE	TOGGLE	F	Ich Offset Enable
ICHOFFSET	QUANT	0	Ich Offset (V)
ICHFILTER	IQUANT	1	Ich Filter
VCHRANGE	IQUANT	2	Vch Range
VCHRANGEMODE	TOGGLE	T	Vch Auto Range
VCHOFFSETENABLE	TOGGLE	F	Vch Offset Enable
VCHOFFSET	QUANT	0	Vch Offset (V)
VCHFILTER	IQUANT	1	Vch Filter
IERANGELOWERLIMIT	IQUANT	9	I/E Range Lower Limit
IERANGEMODE	TOGGLE	F	I/E AutoRange
IERANGE	IQUANT	9	I/E Range
ACHSELECT	IQUANT	1	Ach Select
ACHRANGE	IQUANT	2	Ach Range
ACHOFFSETENABLE	TOGGLE	F	Ach Offset Enable
ACHOFFSET	QUANT	0	Ach Offset (V)
ACHFILTER	IQUANT	1	Ach Filter
CABLEID	IQUANT	14	Cable ID
DCCALDATE	LABEL	5-7-2017	DC Calibration Date
ACCALDATE	LABEL	12/3/2015	AC Calibration Date
FRAMEWORKVERSION	QUANT	7.01	Framework Version
INSTRUMENTVERSION	LABEL	4.00	Instrument Version
CURVE	TABLE	155
	Pt	T	Vf	Im	Vu	Pwr	Sig	Ach	Temp	IERange	Over
	#	s	V	A	V	W	V	V	deg C	#	bits
	0	0.013333	8.16855E-001	-8.86134E-005	0.00000E+000	-7.23843E-005	-5.39641E-002	8.17007E-001	3.57250E+000	9	...........
	1	0.026667	8.03701E-001	-8.89312E-005	0.00000E+000	-7.14741E-005	-5.39641E-002	8.03833E-001	3.57250E+000	9	...........
	2	0.04	7.91379E-001	-8.89562E-005	0.00000E+000	-7.03980E-005	-5.39641E-002	7.91520E-001	3.57250E+000	9	...........
	3	0.053333	7.79711E-001	-8.89572E-005	0.00000E+000	-6.93609E-005	-5.39641E-002	7.79857E-001	3.57250E+000	9	...........
	4	0.066667	7.68586E-001	-8.84446E-005	0.00000E+000	-6.79772E-005	-5.39641E-002	7.68754E-001	3.57250E+000	9	...........
	5	0.08	7.57964E-001	-8.87072E-005	0.00000E+000	-6.72368E-005	-5.39641E-002	7.58109E-001	3.57250E+000	9	...........
	6	0.093333	7.47764E-001	-8.84884E-005	0.00000E+000	-6.61684E-005	-5.39641E-002	7.47884E-001	3.57250E+000	9	...........
	7	0.106667	7.37865E-001	-8.88093E-005	0.00000E+000	-6.55293E-005	-5.39641E-002	7.38011E-001	3.57250E+000	9	...........
	8	0.12	7.28357E-001	-8.86926E-005	0.00000E+000	-6.45998E-005	-5.39641E-002	7.28498E-001	3.57250E+000	9	...........
	9	0.133333	7.19141E-001	-8.87207E-005	0.00000E+000	-6.38027E-005	-5.39641E-002	7.19268E-001	3.57250E+000	9	...........
	10	0.146667	7.10130E-001	-8.85884E-005	0.00000E+000	-6.29093E-005	-5.39641E-002	7.10278E-001	3.57250E+000	9	...........
	11	0.16	7.01429E-001	-8.87582E-005	0.00000E+000	-6.22576E-005	-5.39641E-002	7.01554E-001	3.57250E+000	9	...........
	12	0.173333	6.92916E-001	-8.89426E-005	0.00000E+000	-6.16298E-005	-5.39641E-002	6.93063E-001	3.57250E+000	9	...........
	13	0.186667	6.84623E-001	-8.87134E-005	0.00000E+000	-6.07353E-005	-5.39641E-002	6.84777E-001	3.57250E+000	9	...........
	14	0.2	6.76541E-001	-8.87457E-005	0.00000E+000	-6.00401E-005	-5.39641E-002	6.76714E-001	3.57250E+000	9	...........
	15	0.213333	6.68661E-001	-8.88520E-005	0.00000E+000	-5.94119E-005	-5.39641E-002	6.68787E-001	3.57250E+000	9	...........
	16	0.226667	6.60873E-001	-8.87467E-005	0.00000E+000	-5.86503E-005	-5.39641E-002	6.61021E-001	3.57250E+000	9	...........
	17	0.24	6.53295E-001	-8.87019E-005	0.00000E+000	-5.79486E-005	-5.39641E-002	6.53441E-001	3.57250E+000	9	...........
	18	0.253333	6.45895E-001	-8.85925E-005	0.00000E+000	-5.72215E-005	-5.39641E-002	6.46032E-001	3.57250E+000	9	...........
	19	0.266667	6.38606E-001	-8.87551E-005	0.00000E+000	-5.66795E-005	-5.39641E-002	6.38724E-001	3.57250E+000	9	...........
	20	0.28	6.31455E-001	-8.88291E-005	0.00000E+000	-5.60915E-005	-5.39641E-002	6.31539E-001	3.57250E+000	9	...........
	21	0.293333	6.24423E-001	-8.88530E-005	0.00000E+000	-5.54819E-005	-5.39641E-002	6.24494E-001	3.57250E+000	9	...........
	22	0.306667	6.17528E-001	-8.85352E-005	0.00000E+000	-5.46730E-005	-5.39641E-002	6.17568E-001	3.57250E+000	9	...........
	23	0.32	6.10641E-001	-8.87509E-005	0.00000E+000	-5.41949E-005	-5.39641E-002	6.10733E-001	3.57250E+000	9	...........
	24	0.333333	6.03933E-001	-8.87249E-005	0.00000E+000	-5.35839E-005	-5.39641E-002	6.04031E-001	3.57250E+000	9	...........
	25	0.346667	5.97357E-001	-8.85550E-005	0.00000E+000	-5.28990E-005	-5.39641E-002	5.97411E-001	3.57250E+000	9	...........
	26	0.36	5.90835E-001	-8.89833E-005	0.00000E+000	-5.25744E-005	-5.39641E-002	5.90905E-001	3.57250E+000	9	...........
	27	0.373333	5.84389E-001	-8.87603E-005	0.00000E+000	-5.18705E-005	-5.39641E-002	5.84491E-001	3.57250E+000	9	...........
	28	0.386667	5.78076E-001	-8.86415E-005	0.00000E+000	-5.12416E-005	-5.39641E-002	5.78176E-001	3.57250E+000	9	...........
	29	0.4	5.71818E-001	-8.86446E-005	0.00000E+000	-5.06886E-005	-5.39641E-002	5.71907E-001	3.57250E+000	9	...........
	30	0.413333	5.65633E-001	-8.88905E-005	0.00000E+000	-5.02794E-005	-5.39641E-002	5.65727E-001	3.57250E+000	9	...........
	31	0.426667	5.59469E-001	-8.87217E-005	0.00000E+000	-4.96371E-005	-5.39641E-002	5.59584E-001	3.57250E+000	9	...........
	32	0.44	5.53443E-001	-8.88009E-005	0.00000E+000	-4.91463E-005	-5.39641E-002	5.53519E-001	3.57250E+000	9	...........
	33	0.453333	5.47465E-001	-8.86936E-005	0.00000E+000	-4.85566E-005	-5.39641E-002	5.47527E-001	3.57250E+000	9	...........
	34	0.466667	5.41585E-001	-8.87520E-005	0.00000E+000	-4.80668E-005	-5.39641E-002	5.41627E-001	3.57250E+000	9	...........
	35	0.48	5.35674E-001	-8.87822E-005	0.00000E+000	-4.75583E-005	-5.39641E-002	5.35752E-001	3.57250E+000	9	...........
	36	0.493333	5.29861E-001	-8.88478E-005	0.00000E+000	-4.70770E-005	-5.39641E-002	5.29942E-001	3.57250E+000	9	...........
	37	0.506667	5.24081E-001	-8.90301E-005	0.00000E+000	-4.66590E-005	-5.39641E-002	5.24181E-001	3.57250E+000	9	...........
	38	0.52	5.18408E-001	-8.85998E-005	0.00000E+000	-4.59309E-005	-5.39641E-002	5.18499E-001	3.57250E+000	9	...........
	39	0.533333	5.12728E-001	-8.87019E-005	0.00000E+000	-4.54800E-005	-5.39641E-002	5.12838E-001	3.57250E+000	9	...........
	40	0.546667	5.07051E-001	-8.85811E-005	0.00000E+000	-4.49152E-005	-5.39641E-002	5.07206E-001	3.57250E+000	9	...........
	41	0.56	5.01489E-001	-8.86822E-005	0.00000E+000	-4.44731E-005	-5.39641E-002	5.01608E-001	3.57250E+000	9	...........
	42	0.573333	4.95953E-001	-8.88291E-005	0.00000E+000	-4.40551E-005	-5.39641E-002	4.96093E-001	3.57250E+000	9	...........
	43	0.586667	4.90481E-001	-8.86915E-005	0.00000E+000	-4.35015E-005	-5.39641E-002	4.90598E-001	3.57250E+000	9	...........
	44	0.6	4.85099E-001	-8.87790E-005	0.00000E+000	-4.30666E-005	-5.39641E-002	4.85171E-001	3.57250E+000	9	...........
	45	0.613333	4.79703E-001	-8.85634E-005	0.00000E+000	-4.24841E-005	-5.39641E-002	4.79768E-001	3.57250E+000	9	...........
	46	0.626667	4.74301E-001	-8.88228E-005	0.00000E+000	-4.21287E-005	-5.39641E-002	4.74362E-001	3.57250E+000	9	...........
	47	0.64	4.68930E-001	-8.85415E-005	0.00000E+000	-4.15198E-005	-5.39641E-002	4.68999E-001	3.57250E+000	9	...........
	48	0.653333	4.63591E-001	-8.87176E-005	0.00000E+000	-4.11287E-005	-5.39641E-002	4.63645E-001	3.57250E+000	9	...........
	49	0.666667	4.58270E-001	-8.88572E-005	0.00000E+000	-4.07206E-005	-5.39641E-002	4.58332E-001	3.57250E+000	9	...........
	50	0.68	4.52982E-001	-8.89812E-005	0.00000E+000	-4.03069E-005	-5.39641E-002	4.53038E-001	3.57250E+000	9	...........
	51	0.693333	4.47710E-001	-8.90989E-005	0.00000E+000	-3.98905E-005	-5.39641E-002	4.47767E-001	3.57250E+000	9	...........
	52	0.706667	4.42488E-001	-8.89280E-005	0.00000E+000	-3.93496E-005	-5.39641E-002	4.42545E-001	3.57250E+000	9	...........
	53	0.72	4.37274E-001	-8.86728E-005	0.00000E+000	-3.87743E-005	-5.39641E-002	4.37323E-001	3.57310E+000	9	...........
	54	0.733333	4.32058E-001	-8.85873E-005	0.00000E+000	-3.82749E-005	-5.39641E-002	4.32111E-001	3.57370E+000	9	...........
	55	0.746667	4.26867E-001	-8.90593E-005	0.00000E+000	-3.80165E-005	-5.39641E-002	4.26916E-001	3.57370E+000	9	...........
	56	0.76	4.21681E-001	-8.88457E-005	0.00000E+000	-3.74645E-005	-5.39641E-002	4.21736E-001	3.57370E+000	9	...........
	57	0.773333	4.16537E-001	-8.87332E-005	0.00000E+000	-3.69607E-005	-5.39641E-002	4.16590E-001	3.57370E+000	9	...........
	58	0.786667	4.11402E-001	-8.87697E-005	0.00000E+000	-3.65201E-005	-5.39641E-002	4.11456E-001	3.57370E+000	9	...........
	59	0.8	4.06282E-001	-8.86353E-005	0.00000E+000	-3.60109E-005	-5.39641E-002	4.06333E-001	3.57370E+000	9	...........
	60	0.813333	4.01178E-001	-8.87051E-005	0.00000E+000	-3.55866E-005	-5.39641E-002	4.01230E-001	3.57370E+000	9	...........
	61	0.826667	3.96066E-001	-8.89812E-005	0.00000E+000	-3.52424E-005	-5.39641E-002	3.96111E-001	3.57370E+000	9	...........
	62	0.84	3.90994E-001	-8.89853E-005	0.00000E+000	-3.47927E-005	-5.39641E-002	3.91037E-001	3.57370E+000	9	...........
	63	0.853333	3.85933E-001	-8.87457E-005	0.00000E+000	-3.42499E-005	-5.39641E-002	3.85981E-001	3.57370E+000	9	...........
	64	0.866667	3.80878E-001	-8.87019E-005	0.00000E+000	-3.37846E-005	-5.39641E-002	3.80924E-001	3.57370E+000	9	...........
	65	0.88	3.75868E-001	-8.87915E-005	0.00000E+000	-3.33739E-005	-5.39641E-002	3.75913E-001	3.57370E+000	9	...........
	66	0.893333	3.70861E-001	-8.86290E-005	0.00000E+000	-3.28691E-005	-5.39641E-002	3.70904E-001	3.57370E+000	9	...........
	67	0.906667	3.65876E-001	-8.87415E-005	0.00000E+000	-3.24684E-005	-5.39641E-002	3.65919E-001	3.57370E+000	9	...........
	68	0.92	3.60903E-001	-8.87249E-005	0.00000E+000	-3.20211E-005	-5.39641E-002	3.60944E-001	3.57370E+000	9	...........
	69	0.933333	3.55936E-001	-8.86155E-005	0.00000E+000	-3.15415E-005	-5.39641E-002	3.55975E-001	3.57370E+000	9	...........
	70	0.946667	3.50980E-001	-8.86353E-005	0.00000E+000	-3.11092E-005	-5.39641E-002	3.51017E-001	3.57370E+000	9	...........
	71	0.96	3.46022E-001	-8.88228E-005	0.00000E+000	-3.07347E-005	-5.39641E-002	3.46067E-001	3.57370E+000	9	...........
	72	0.97333	3.41110E-001	-8.86936E-005	0.00000E+000	-3.02543E-005	-5.39641E-002	3.41149E-001	3.57370E+000	9	...........
	73	0.98667	3.36217E-001	-8.86019E-005	0.00000E+000	-2.97895E-005	-5.39641E-002	3.36253E-001	3.57370E+000	9	...........
	74	1	3.31345E-001	-8.88895E-005	0.00000E+000	-2.94531E-005	-5.39641E-002	3.31374E-001	3.57370E+000	9	...........
	75	1.01333	3.26497E-001	-8.87832E-005	0.00000E+000	-2.89875E-005	-5.39641E-002	3.26531E-001	3.57370E+000	9	...........
	76	1.02667	3.21641E-001	-8.86426E-005	0.00000E+000	-2.85111E-005	-5.39641E-002	3.21674E-001	3.57370E+000	9	...........
	77	1.04	3.16778E-001	-8.87530E-005	0.00000E+000	-2.81150E-005	-5.39641E-002	3.16806E-001	3.57370E+000	9	...........
	78	1.05333	3.11949E-001	-8.87592E-005	0.00000E+000	-2.76884E-005	-5.39641E-002	3.11977E-001	3.57370E+000	9	...........
	79	1.06667	3.07145E-001	-8.90249E-005	0.00000E+000	-2.73435E-005	-5.39641E-002	3.07172E-001	3.57370E+000	9	...........
	80	1.08	3.02363E-001	-8.88072E-005	0.00000E+000	-2.68520E-005	-5.39641E-002	3.02392E-001	3.57370E+000	9	...........
	81	1.09333	2.97596E-001	-8.86426E-005	0.00000E+000	-2.63796E-005	-5.39641E-002	2.97627E-001	3.57370E+000	9	...........
	82	1.10667	2.92850E-001	-8.89322E-005	0.00000E+000	-2.60438E-005	-5.39641E-002	2.92883E-001	3.57370E+000	9	...........
	83	1.12	2.88120E-001	-8.86248E-005	0.00000E+000	-2.55346E-005	-5.39641E-002	2.88154E-001	3.57370E+000	9	...........
	84	1.13333	2.83406E-001	-8.86624E-005	0.00000E+000	-2.51275E-005	-5.39641E-002	2.83446E-001	3.57370E+000	9	...........
	85	1.14667	2.78709E-001	-8.86134E-005	0.00000E+000	-2.46974E-005	-5.39641E-002	2.78746E-001	3.57370E+000	9	...........
	86	1.16	2.74029E-001	-8.88218E-005	0.00000E+000	-2.43397E-005	-5.39641E-002	2.74069E-001	3.57370E+000	9	...........
	87	1.17333	2.69367E-001	-8.88499E-005	0.00000E+000	-2.39332E-005	-5.39641E-002	2.69409E-001	3.57370E+000	9	...........
	88	1.18667	2.64729E-001	-8.87259E-005	0.00000E+000	-2.34883E-005	-5.39641E-002	2.64770E-001	3.57370E+000	9	...........
	89	1.2	2.60131E-001	-8.85019E-005	0.00000E+000	-2.30221E-005	-5.39641E-002	2.60168E-001	3.57370E+000	9	...........
	90	1.21333	2.55561E-001	-8.89635E-005	0.00000E+000	-2.27356E-005	-5.39641E-002	2.55591E-001	3.57370E+000	9	...........
	91	1.22667	2.50979E-001	-8.84488E-005	0.00000E+000	-2.21988E-005	-5.39641E-002	2.51010E-001	3.57370E+000	9	...........
	92	1.24	2.46412E-001	-8.87843E-005	0.00000E+000	-2.18775E-005	-5.39641E-002	2.46441E-001	3.57370E+000	9	...........
	93	1.25333	2.41894E-001	-8.87332E-005	0.00000E+000	-2.14640E-005	-5.39641E-002	2.41924E-001	3.57370E+000	9	...........
	94	1.26667	2.37392E-001	-8.87124E-005	0.00000E+000	-2.10596E-005	-5.39641E-002	2.37419E-001	3.57370E+000	9	...........
	95	1.28	2.32903E-001	-8.89739E-005	0.00000E+000	-2.07222E-005	-5.39641E-002	2.32920E-001	3.57370E+000	9	...........
	96	1.29333	2.28447E-001	-8.86613E-005	0.00000E+000	-2.02544E-005	-5.39641E-002	2.28473E-001	3.57370E+000	9	...........
	97	1.30667	2.24008E-001	-8.86530E-005	0.00000E+000	-1.98590E-005	-5.39641E-002	2.24037E-001	3.57370E+000	9	...........
	98	1.32	2.19593E-001	-8.89280E-005	0.00000E+000	-1.95280E-005	-5.39641E-002	2.19622E-001	3.57370E+000	9	...........
	99	1.33333	2.15185E-001	-8.86374E-005	0.00000E+000	-1.90734E-005	-5.39641E-002	2.15204E-001	3.57370E+000	9	...........
	100	1.34667	2.10804E-001	-8.89364E-005	0.00000E+000	-1.87481E-005	-5.39641E-002	2.10825E-001	3.57370E+000	9	...........
	101	1.36	2.06438E-001	-8.88780E-005	0.00000E+000	-1.83478E-005	-5.39641E-002	2.06458E-001	3.57370E+000	9	...........
	102	1.37333	2.02089E-001	-8.88884E-005	0.00000E+000	-1.79634E-005	-5.39641E-002	2.02109E-001	3.57370E+000	9	...........
	103	1.38667	1.97760E-001	-8.88478E-005	0.00000E+000	-1.75705E-005	-5.39641E-002	1.97780E-001	3.57370E+000	9	...........
	104	1.4	1.93465E-001	-8.88145E-005	0.00000E+000	-1.71825E-005	-5.39641E-002	1.93485E-001	3.57370E+000	9	...........
	105	1.41333	1.89167E-001	-8.88561E-005	0.00000E+000	-1.68087E-005	-5.39641E-002	1.89181E-001	3.57370E+000	9	...........
	106	1.42667	1.84894E-001	-8.87165E-005	0.00000E+000	-1.64031E-005	-5.39641E-002	1.84904E-001	3.57370E+000	9	...........
	107	1.44	1.80655E-001	-8.86749E-005	0.00000E+000	-1.60196E-005	-5.39641E-002	1.80677E-001	3.57370E+000	9	...........
	108	1.45333	1.76446E-001	-8.88478E-005	0.00000E+000	-1.56768E-005	-5.39641E-002	1.76471E-001	3.57370E+000	9	...........
	109	1.46667	1.72248E-001	-8.85446E-005	0.00000E+000	-1.52516E-005	-5.39641E-002	1.72267E-001	3.57370E+000	9	...........
	110	1.48	1.68065E-001	-8.88291E-005	0.00000E+000	-1.49291E-005	-5.39641E-002	1.68082E-001	3.57370E+000	9	...........
	111	1.49333	1.63898E-001	-8.87697E-005	0.00000E+000	-1.45491E-005	-5.39641E-002	1.63914E-001	3.57370E+000	9	...........
	112	1.50667	1.59739E-001	-8.84884E-005	0.00000E+000	-1.41350E-005	-5.39641E-002	1.59757E-001	3.57370E+000	9	...........
	113	1.52	1.55611E-001	-8.89155E-005	0.00000E+000	-1.38362E-005	-5.39641E-002	1.55621E-001	3.57370E+000	9	...........
	114	1.53333	1.51483E-001	-8.87540E-005	0.00000E+000	-1.34447E-005	-5.39641E-002	1.51496E-001	3.57370E+000	9	...........
	115	1.54667	1.47385E-001	-8.87353E-005	0.00000E+000	-1.30783E-005	-5.39641E-002	1.47401E-001	3.57370E+000	9	...........
	116	1.56	1.43317E-001	-8.88218E-005	0.00000E+000	-1.27297E-005	-5.39641E-002	1.43326E-001	3.57370E+000	9	...........
	117	1.57333	1.39222E-001	-8.88551E-005	0.00000E+000	-1.23705E-005	-5.39641E-002	1.39234E-001	3.57370E+000	9	...........
	118	1.58667	1.35157E-001	-8.87499E-005	0.00000E+000	-1.19952E-005	-5.39641E-002	1.35172E-001	3.57370E+000	9	...........
	119	1.6	1.31122E-001	-8.87353E-005	0.00000E+000	-1.16351E-005	-5.39641E-002	1.31135E-001	3.57370E+000	9	...........
	120	1.61333	1.27131E-001	-8.87155E-005	0.00000E+000	-1.12785E-005	-5.39641E-002	1.27143E-001	3.57370E+000	9	...........
	121	1.62667	1.23151E-001	-8.88884E-005	0.00000E+000	-1.09467E-005	-5.39641E-002	1.23163E-001	3.57370E+000	9	...........
	122	1.64	1.19168E-001	-8.86050E-005	0.00000E+000	-1.05589E-005	-5.39641E-002	1.19181E-001	3.57370E+000	9	...........
	123	1.65333	1.15187E-001	-8.89958E-005	0.00000E+000	-1.02511E-005	-5.39641E-002	1.15199E-001	3.57370E+000	9	...........
	124	1.66667	1.11241E-001	-8.88905E-005	0.00000E+000	-9.88829E-006	-5.39641E-002	1.11250E-001	3.57370E+000	9	...........
	125	1.68	1.07326E-001	-8.88186E-005	0.00000E+000	-9.53256E-006	-5.39641E-002	1.07333E-001	3.57370E+000	9	...........
	126	1.69333	1.03407E-001	-8.87009E-005	0.00000E+000	-9.17232E-006	-5.39641E-002	1.03416E-001	3.57370E+000	9	...........
	127	1.70667	9.95205E-002	-8.89364E-005	0.00000E+000	-8.85099E-006	-5.39641E-002	9.95302E-002	3.57370E+000	9	...........
	128	1.72	9.56522E-002	-8.87978E-005	0.00000E+000	-8.49370E-006	-5.39641E-002	9.56633E-002	3.57365E+000	9	...........
	129	1.73333	9.18029E-002	-8.86947E-005	0.00000E+000	-8.14243E-006	-5.39641E-002	9.18147E-002	3.57360E+000	9	...........
	130	1.74667	8.79781E-002	-8.87832E-005	0.00000E+000	-7.81098E-006	-5.39641E-002	8.79904E-002	3.57360E+000	9	...........
	131	1.76	8.41640E-002	-8.83394E-005	0.00000E+000	-7.43500E-006	-5.39641E-002	8.41680E-002	3.57360E+000	9	...........
	132	1.77333	8.03742E-002	-8.86853E-005	0.00000E+000	-7.12801E-006	-5.39641E-002	8.03762E-002	3.57360E+000	9	...........
	133	1.78667	7.65934E-002	-8.87103E-005	0.00000E+000	-6.79463E-006	-5.39641E-002	7.65969E-002	3.57360E+000	9	...........
	134	1.8	7.28250E-002	-8.85727E-005	0.00000E+000	-6.45031E-006	-5.39641E-002	7.28278E-002	3.57360E+000	9	...........
	135	1.81333	6.90788E-002	-8.85300E-005	0.00000E+000	-6.11554E-006	-5.39641E-002	6.90797E-002	3.57360E+000	9	...........
	136	1.82667	6.53370E-002	-8.87009E-005	0.00000E+000	-5.79545E-006	-5.39641E-002	6.53387E-002	3.57360E+000	9	...........
	137	1.84	6.16041E-002	-8.86634E-005	0.00000E+000	-5.46203E-006	-5.39641E-002	6.16017E-002	3.57360E+000	9	...........
	138	1.85333	5.78646E-002	-8.87436E-005	0.00000E+000	-5.13511E-006	-5.39641E-002	5.78648E-002	3.57360E+000	9	...........
	139	1.86667	5.41538E-002	-8.86155E-005	0.00000E+000	-4.79887E-006	-5.39641E-002	5.41454E-002	3.57360E+000	9	...........
	140	1.88	5.04557E-002	-8.87978E-005	0.00000E+000	-4.48036E-006	-5.39641E-002	5.04501E-002	3.57360E+000	9	...........
	141	1.89333	4.67947E-002	-8.87040E-005	0.00000E+000	-4.15088E-006	-5.39641E-002	4.67985E-002	3.57360E+000	9	...........
	142	1.90667	4.31433E-002	-8.87863E-005	0.00000E+000	-3.83053E-006	-5.39641E-002	4.31514E-002	3.57360E+000	9	...........
	143	1.92	3.95077E-002	-8.88655E-005	0.00000E+000	-3.51087E-006	-5.39641E-002	3.95116E-002	3.57360E+000	9	...........
	144	1.93333	3.58896E-002	-8.88853E-005	0.00000E+000	-3.19006E-006	-5.39641E-002	3.58908E-002	3.57360E+000	9	...........
	145	1.94667	3.22893E-002	-8.87134E-005	0.00000E+000	-2.86449E-006	-5.39641E-002	3.22935E-002	3.57360E+000	9	...........
	146	1.96	2.87140E-002	-8.88301E-005	0.00000E+000	-2.55067E-006	-5.39641E-002	2.87144E-002	3.57360E+000	9	...........
	147	1.97333	2.51388E-002	-8.88166E-005	0.00000E+000	-2.23274E-006	-5.39641E-002	2.51442E-002	3.57360E+000	9	...........
	148	1.98667	2.15749E-002	-8.88322E-005	0.00000E+000	-1.91655E-006	-5.39641E-002	2.15733E-002	3.57360E+000	9	...........
	149	2	1.80238E-002	-8.88489E-005	0.00000E+000	-1.60139E-006	-5.39641E-002	1.80178E-002	3.57360E+000	9	...........
	150	2.01333	1.44977E-002	-8.89760E-005	0.00000E+000	-1.28994E-006	-5.39641E-002	1.44935E-002	3.57360E+000	9	...........
	151	2.02667	1.09941E-002	-8.86040E-005	0.00000E+000	-9.74117E-007	-5.39641E-002	1.09804E-002	3.57360E+000	9	...........
	152	2.04	7.49625E-003	-8.89051E-005	0.00000E+000	-6.66455E-007	-5.39641E-002	7.48679E-003	3.57360E+000	9	...........
	153	2.05333	4.01786E-003	-8.87707E-005	0.00000E+000	-3.56668E-007	-5.39641E-002	4.00825E-003	3.57360E+000	9	...........
	154	2.06333	9.96664E-004	-8.84290E-005	0.00000E+000	-8.81340E-008	-5.39641E-002	9.77160E-004	3.57360E+000	9	...........
STARTTIMEOFFSET	QUANT	1624.864	Start Time Offset (s)
