EXPLAIN
TAG	PWR800_DISCHARGE
TITLE	LABEL	PWR Cyclic Charge Discharge (Cell) - Discharge Step	Test &Identifier
DATE	LABEL	10-7-2017	Date
TIME	LABEL	16:02:27	Time
NOTES	NOTES	3	&Notes...
	supercap test cell
	0.9mg
	6M KOH
PSTAT	PSTAT	IFC5000-01520	Potentiostat
CAPACITY	QUANT	1.00000E-003	Capacity (A-hr)
CELLTYPE	SELECTOR	1	&Cell Type
WORKINGCONNECTION	SELECTOR	0	&Working Lead
MAXDISCHARGETIME	VARIABLEANDUNITS	1.00000E+002	s	1.00000E+002	second(s)	Max &Discharge Time
DISCHARGEMODE	MULTIPARAM	0	9.00000E-005	&Discharge Mode	Constant Current	Amp(s)
SAMPLETIME	QUANT	1.00000E-002	Sa&mple Period (s)
DISCHARGESTOPAT1	MULTIPARAM	3	0.00000E+000	Discharge Stop At &1	Voltage < Limit	V
DISCHARGESTOPAT2	MULTIPARAM	0	0.00000E+000	Discharge Stop At &2	None	N/A
AESBHCSELECTOR	TOGGLE	F	Save Both Half Cells
IRCOMP	TOGGLE	F	IR &Measure
EOC	QUANT	0	Open Circuit (V)
SEQUENCER	TOGGLE	TRUE	Run as Sequence
PSTATMODEL	IQUANT	53	Pstat Model
PSTATSECTION	LABEL	IFC5000-01520	Pstat Section
PSTATSERIALNO	LABEL	01520	Pstat Serial Number
CTRLMODE	IQUANT	0	Control Mode
ELECTROMETER	IQUANT	1	RE=0 or CS=1
IESTAB	IQUANT	0	I/E Stability
CASPEED	IQUANT	4	Control Amp Speed
CONVENTION	IQUANT	1	Current Convention
ICHRANGE	IQUANT	2	Ich Range
ICHRANGEMODE	TOGGLE	T	Ich Auto Range
ICHOFFSETENABLE	TOGGLE	F	Ich Offset Enable
ICHOFFSET	QUANT	0	Ich Offset (V)
ICHFILTER	IQUANT	1	Ich Filter
VCHRANGE	IQUANT	2	Vch Range
VCHRANGEMODE	TOGGLE	T	Vch Auto Range
VCHOFFSETENABLE	TOGGLE	F	Vch Offset Enable
VCHOFFSET	QUANT	0	Vch Offset (V)
VCHFILTER	IQUANT	1	Vch Filter
IERANGELOWERLIMIT	IQUANT	9	I/E Range Lower Limit
IERANGEMODE	TOGGLE	F	I/E AutoRange
IERANGE	IQUANT	9	I/E Range
ACHSELECT	IQUANT	1	Ach Select
ACHRANGE	IQUANT	2	Ach Range
ACHOFFSETENABLE	TOGGLE	F	Ach Offset Enable
ACHOFFSET	QUANT	0	Ach Offset (V)
ACHFILTER	IQUANT	1	Ach Filter
CABLEID	IQUANT	14	Cable ID
DCCALDATE	LABEL	5-7-2017	DC Calibration Date
ACCALDATE	LABEL	12/3/2015	AC Calibration Date
FRAMEWORKVERSION	QUANT	7.01	Framework Version
INSTRUMENTVERSION	LABEL	4.00	Instrument Version
CURVE	TABLE	148
	Pt	T	Vf	Im	Vu	Pwr	Sig	Ach	Temp	IERange	Over
	#	s	V	A	V	W	V	V	deg C	#	bits
	0	0.013333	8.02352E-001	-8.88124E-005	0.00000E+000	-7.12588E-005	-5.39641E-002	8.02508E-001	3.57260E+000	9	...........
	1	0.026667	7.88358E-001	-8.85040E-005	0.00000E+000	-6.97728E-005	-5.39641E-002	7.88481E-001	3.57260E+000	9	...........
	2	0.04	7.75319E-001	-8.86978E-005	0.00000E+000	-6.87691E-005	-5.39641E-002	7.75434E-001	3.57260E+000	9	...........
	3	0.053333	7.62992E-001	-8.86374E-005	0.00000E+000	-6.76296E-005	-5.39641E-002	7.63115E-001	3.57260E+000	9	...........
	4	0.066667	7.51335E-001	-8.87290E-005	0.00000E+000	-6.66653E-005	-5.39641E-002	7.51447E-001	3.57260E+000	9	...........
	5	0.08	7.40175E-001	-8.88072E-005	0.00000E+000	-6.57328E-005	-5.39641E-002	7.40283E-001	3.57260E+000	9	...........
	6	0.093333	7.29540E-001	-8.87728E-005	0.00000E+000	-6.47633E-005	-5.39641E-002	7.29620E-001	3.57260E+000	9	...........
	7	0.106667	7.19275E-001	-8.85394E-005	0.00000E+000	-6.36842E-005	-5.39641E-002	7.19359E-001	3.57260E+000	9	...........
	8	0.12	7.09341E-001	-8.85936E-005	0.00000E+000	-6.28431E-005	-5.39641E-002	7.09429E-001	3.57260E+000	9	...........
	9	0.133333	6.99751E-001	-8.88791E-005	0.00000E+000	-6.21932E-005	-5.39641E-002	6.99855E-001	3.57260E+000	9	...........
	10	0.146667	6.90453E-001	-8.88541E-005	0.00000E+000	-6.13495E-005	-5.39641E-002	6.90568E-001	3.57260E+000	9	...........
	11	0.16	6.81461E-001	-8.87457E-005	0.00000E+000	-6.04767E-005	-5.39641E-002	6.81534E-001	3.57260E+000	9	...........
	12	0.173333	6.72705E-001	-8.88124E-005	0.00000E+000	-5.97445E-005	-5.39641E-002	6.72793E-001	3.57260E+000	9	...........
	13	0.186667	6.64159E-001	-8.87822E-005	0.00000E+000	-5.89655E-005	-5.39641E-002	6.64277E-001	3.57260E+000	9	...........
	14	0.2	6.55815E-001	-8.88905E-005	0.00000E+000	-5.82957E-005	-5.39641E-002	6.55946E-001	3.57260E+000	9	...........
	15	0.213333	6.47695E-001	-8.87269E-005	0.00000E+000	-5.74680E-005	-5.39641E-002	6.47792E-001	3.57260E+000	9	...........
	16	0.226667	6.39732E-001	-8.88801E-005	0.00000E+000	-5.68594E-005	-5.39641E-002	6.39839E-001	3.57260E+000	9	...........
	17	0.24	6.31952E-001	-8.87863E-005	0.00000E+000	-5.61087E-005	-5.39641E-002	6.32064E-001	3.57260E+000	9	...........
	18	0.253333	6.24346E-001	-8.89218E-005	0.00000E+000	-5.55180E-005	-5.39641E-002	6.24443E-001	3.57260E+000	9	...........
	19	0.266667	6.16892E-001	-8.88499E-005	0.00000E+000	-5.48108E-005	-5.39641E-002	6.16996E-001	3.57260E+000	9	...........
	20	0.28	6.09542E-001	-8.87280E-005	0.00000E+000	-5.40834E-005	-5.39641E-002	6.09698E-001	3.57260E+000	9	...........
	21	0.293333	6.02422E-001	-8.86863E-005	0.00000E+000	-5.34265E-005	-5.39641E-002	6.02553E-001	3.57260E+000	9	...........
	22	0.306667	5.95398E-001	-8.87926E-005	0.00000E+000	-5.28669E-005	-5.39641E-002	5.95535E-001	3.57260E+000	9	...........
	23	0.32	5.88474E-001	-8.87686E-005	0.00000E+000	-5.22380E-005	-5.39641E-002	5.88623E-001	3.57260E+000	9	...........
	24	0.333333	5.81643E-001	-8.86415E-005	0.00000E+000	-5.15577E-005	-5.39641E-002	5.81797E-001	3.57260E+000	9	...........
	25	0.346667	5.74980E-001	-8.88093E-005	0.00000E+000	-5.10636E-005	-5.39641E-002	5.75123E-001	3.57260E+000	9	...........
	26	0.36	5.68405E-001	-8.87624E-005	0.00000E+000	-5.04530E-005	-5.39641E-002	5.68566E-001	3.57260E+000	9	...........
	27	0.373333	5.61918E-001	-8.86217E-005	0.00000E+000	-4.97981E-005	-5.39641E-002	5.62070E-001	3.57260E+000	9	...........
	28	0.386667	5.55508E-001	-8.87551E-005	0.00000E+000	-4.93042E-005	-5.39641E-002	5.55659E-001	3.57260E+000	9	...........
	29	0.4	5.49227E-001	-8.87082E-005	0.00000E+000	-4.87209E-005	-5.39641E-002	5.49350E-001	3.57260E+000	9	...........
	30	0.413333	5.43023E-001	-8.89239E-005	0.00000E+000	-4.82877E-005	-5.39641E-002	5.43145E-001	3.57260E+000	9	...........
	31	0.426667	5.36877E-001	-8.87509E-005	0.00000E+000	-4.76484E-005	-5.39641E-002	5.36994E-001	3.57260E+000	9	...........
	32	0.44	5.30785E-001	-8.87155E-005	0.00000E+000	-4.70889E-005	-5.39641E-002	5.30895E-001	3.57260E+000	9	...........
	33	0.453333	5.24805E-001	-8.87957E-005	0.00000E+000	-4.66005E-005	-5.39641E-002	5.24919E-001	3.57260E+000	9	...........
	34	0.466667	5.18873E-001	-8.87197E-005	0.00000E+000	-4.60342E-005	-5.39641E-002	5.18987E-001	3.57260E+000	9	...........
	35	0.48	5.13026E-001	-8.89187E-005	0.00000E+000	-4.56176E-005	-5.39641E-002	5.13134E-001	3.57260E+000	9	...........
	36	0.493333	5.07143E-001	-8.89728E-005	0.00000E+000	-4.51219E-005	-5.39641E-002	5.07291E-001	3.57260E+000	9	...........
	37	0.506667	5.01413E-001	-8.89166E-005	0.00000E+000	-4.45839E-005	-5.39641E-002	5.01544E-001	3.57260E+000	9	...........
	38	0.52	4.95726E-001	-8.87916E-005	0.00000E+000	-4.40163E-005	-5.39641E-002	4.95844E-001	3.57260E+000	9	...........
	39	0.533333	4.90080E-001	-8.87676E-005	0.00000E+000	-4.35032E-005	-5.39641E-002	4.90200E-001	3.57260E+000	9	...........
	40	0.546667	4.84540E-001	-8.87405E-005	0.00000E+000	-4.29984E-005	-5.39641E-002	4.84622E-001	3.57260E+000	9	...........
	41	0.56	4.79019E-001	-8.91114E-005	0.00000E+000	-4.26861E-005	-5.39641E-002	4.79083E-001	3.57260E+000	9	...........
	42	0.573333	4.73500E-001	-8.89395E-005	0.00000E+000	-4.21128E-005	-5.39641E-002	4.73572E-001	3.57260E+000	9	...........
	43	0.586667	4.68024E-001	-8.86603E-005	0.00000E+000	-4.14951E-005	-5.39641E-002	4.68086E-001	3.57260E+000	9	...........
	44	0.6	4.62591E-001	-8.87603E-005	0.00000E+000	-4.10597E-005	-5.39641E-002	4.62655E-001	3.57260E+000	9	...........
	45	0.613333	4.57200E-001	-8.86717E-005	0.00000E+000	-4.05407E-005	-5.39641E-002	4.57259E-001	3.57260E+000	9	...........
	46	0.626667	4.51845E-001	-8.89989E-005	0.00000E+000	-4.02137E-005	-5.39641E-002	4.51912E-001	3.57260E+000	9	...........
	47	0.64	4.46504E-001	-8.89155E-005	0.00000E+000	-3.97011E-005	-5.39641E-002	4.46569E-001	3.57260E+000	9	...........
	48	0.653333	4.41189E-001	-8.87665E-005	0.00000E+000	-3.91628E-005	-5.39641E-002	4.41254E-001	3.57260E+000	9	...........
	49	0.666667	4.35907E-001	-8.86790E-005	0.00000E+000	-3.86558E-005	-5.39641E-002	4.35970E-001	3.57260E+000	9	...........
	50	0.68	4.30660E-001	-8.86978E-005	0.00000E+000	-3.81986E-005	-5.39641E-002	4.30725E-001	3.57260E+000	9	...........
	51	0.693333	4.25435E-001	-8.87384E-005	0.00000E+000	-3.77524E-005	-5.39641E-002	4.25499E-001	3.57260E+000	9	...........
	52	0.706667	4.20232E-001	-8.90374E-005	0.00000E+000	-3.74164E-005	-5.39641E-002	4.20293E-001	3.57260E+000	9	...........
	53	0.72	4.15052E-001	-8.89510E-005	0.00000E+000	-3.69192E-005	-5.39641E-002	4.15115E-001	3.57260E+000	9	...........
	54	0.733333	4.09913E-001	-8.88436E-005	0.00000E+000	-3.64181E-005	-5.39641E-002	4.09965E-001	3.57260E+000	9	...........
	55	0.746667	4.04787E-001	-8.88322E-005	0.00000E+000	-3.59581E-005	-5.39641E-002	4.04845E-001	3.57260E+000	9	...........
	56	0.76	3.99680E-001	-8.88811E-005	0.00000E+000	-3.55240E-005	-5.39641E-002	3.99733E-001	3.57260E+000	9	...........
	57	0.773333	3.94589E-001	-8.85988E-005	0.00000E+000	-3.49601E-005	-5.39641E-002	3.94639E-001	3.57260E+000	9	...........
	58	0.786667	3.89508E-001	-8.88666E-005	0.00000E+000	-3.46143E-005	-5.39641E-002	3.89558E-001	3.57260E+000	9	...........
	59	0.8	3.84445E-001	-8.87832E-005	0.00000E+000	-3.41323E-005	-5.39641E-002	3.84496E-001	3.57260E+000	9	...........
	60	0.813333	3.79403E-001	-8.88936E-005	0.00000E+000	-3.37265E-005	-5.39641E-002	3.79451E-001	3.57260E+000	9	...........
	61	0.826667	3.74357E-001	-8.89447E-005	0.00000E+000	-3.32971E-005	-5.39641E-002	3.74407E-001	3.57260E+000	9	...........
	62	0.84	3.69332E-001	-8.88353E-005	0.00000E+000	-3.28097E-005	-5.39641E-002	3.69384E-001	3.57260E+000	9	...........
	63	0.853333	3.64319E-001	-8.87592E-005	0.00000E+000	-3.23367E-005	-5.39641E-002	3.64370E-001	3.57260E+000	9	...........
	64	0.866667	3.59330E-001	-8.87499E-005	0.00000E+000	-3.18905E-005	-5.39641E-002	3.59379E-001	3.57260E+000	9	...........
	65	0.88	3.54352E-001	-8.88061E-005	0.00000E+000	-3.14686E-005	-5.39641E-002	3.54400E-001	3.57260E+000	9	...........
	66	0.893333	3.49385E-001	-8.87405E-005	0.00000E+000	-3.10046E-005	-5.39641E-002	3.49428E-001	3.57260E+000	9	...........
	67	0.906667	3.44429E-001	-8.89103E-005	0.00000E+000	-3.06233E-005	-5.39641E-002	3.44471E-001	3.57260E+000	9	...........
	68	0.92	3.39488E-001	-8.89270E-005	0.00000E+000	-3.01896E-005	-5.39641E-002	3.39534E-001	3.57260E+000	9	...........
	69	0.933333	3.34562E-001	-8.88811E-005	0.00000E+000	-2.97363E-005	-5.39641E-002	3.34605E-001	3.57260E+000	9	...........
	70	0.946667	3.29649E-001	-8.86217E-005	0.00000E+000	-2.92141E-005	-5.39641E-002	3.29691E-001	3.57260E+000	9	...........
	71	0.96	3.24761E-001	-8.86759E-005	0.00000E+000	-2.87984E-005	-5.39641E-002	3.24796E-001	3.57260E+000	9	...........
	72	0.97333	3.19884E-001	-8.88176E-005	0.00000E+000	-2.84113E-005	-5.39641E-002	3.19923E-001	3.57260E+000	9	...........
	73	0.98667	3.15021E-001	-8.88593E-005	0.00000E+000	-2.79925E-005	-5.39641E-002	3.15058E-001	3.57260E+000	9	...........
	74	1	3.10165E-001	-8.87988E-005	0.00000E+000	-2.75423E-005	-5.39641E-002	3.10202E-001	3.57260E+000	9	...........
	75	1.01333	3.05311E-001	-8.88124E-005	0.00000E+000	-2.71154E-005	-5.39641E-002	3.05354E-001	3.57260E+000	9	...........
	76	1.02667	3.00475E-001	-8.87759E-005	0.00000E+000	-2.66750E-005	-5.39641E-002	3.00509E-001	3.57260E+000	9	...........
	77	1.04	2.95648E-001	-8.87269E-005	0.00000E+000	-2.62319E-005	-5.39641E-002	2.95679E-001	3.57260E+000	9	...........
	78	1.05333	2.90833E-001	-8.88322E-005	0.00000E+000	-2.58354E-005	-5.39641E-002	2.90868E-001	3.57260E+000	9	...........
	79	1.06667	2.86030E-001	-8.89197E-005	0.00000E+000	-2.54337E-005	-5.39641E-002	2.86074E-001	3.57260E+000	9	...........
	80	1.08	2.81249E-001	-8.89030E-005	0.00000E+000	-2.50039E-005	-5.39641E-002	2.81287E-001	3.57260E+000	9	...........
	81	1.09333	2.76480E-001	-8.86863E-005	0.00000E+000	-2.45200E-005	-5.39641E-002	2.76516E-001	3.57260E+000	9	...........
	82	1.10667	2.71738E-001	-8.86749E-005	0.00000E+000	-2.40963E-005	-5.39641E-002	2.71774E-001	3.57266E+000	9	...........
	83	1.12	2.67010E-001	-8.88676E-005	0.00000E+000	-2.37285E-005	-5.39641E-002	2.67043E-001	3.57270E+000	9	...........
	84	1.13333	2.62287E-001	-8.85832E-005	0.00000E+000	-2.32342E-005	-5.39641E-002	2.62325E-001	3.57270E+000	9	...........
	85	1.14667	2.57584E-001	-8.87415E-005	0.00000E+000	-2.28584E-005	-5.39641E-002	2.57618E-001	3.57270E+000	9	...........
	86	1.16	2.52891E-001	-8.89239E-005	0.00000E+000	-2.24881E-005	-5.39641E-002	2.52929E-001	3.57270E+000	9	...........
	87	1.17333	2.48227E-001	-8.87634E-005	0.00000E+000	-2.20335E-005	-5.39641E-002	2.48266E-001	3.57270E+000	9	...........
	88	1.18667	2.43581E-001	-8.88072E-005	0.00000E+000	-2.16318E-005	-5.39641E-002	2.43612E-001	3.57270E+000	9	...........
	89	1.2	2.38946E-001	-8.86530E-005	0.00000E+000	-2.11833E-005	-5.39641E-002	2.38980E-001	3.57270E+000	9	...........
	90	1.21333	2.34324E-001	-8.88957E-005	0.00000E+000	-2.08304E-005	-5.39641E-002	2.34356E-001	3.57270E+000	9	...........
	91	1.22667	2.29730E-001	-8.87092E-005	0.00000E+000	-2.03791E-005	-5.39641E-002	2.29753E-001	3.57270E+000	9	...........
	92	1.24	2.25142E-001	-8.89530E-005	0.00000E+000	-2.00271E-005	-5.39641E-002	2.25167E-001	3.57270E+000	9	...........
	93	1.25333	2.20579E-001	-8.87270E-005	0.00000E+000	-1.95713E-005	-5.39641E-002	2.20604E-001	3.57270E+000	9	...........
	94	1.26667	2.16023E-001	-8.85852E-005	0.00000E+000	-1.91364E-005	-5.39641E-002	2.16046E-001	3.57270E+000	9	...........
	95	1.28	2.11477E-001	-8.88947E-005	0.00000E+000	-1.87992E-005	-5.39641E-002	2.11504E-001	3.57270E+000	9	...........
	96	1.29333	2.06962E-001	-8.89395E-005	0.00000E+000	-1.84071E-005	-5.39641E-002	2.06976E-001	3.57270E+000	9	...........
	97	1.30667	2.02459E-001	-8.88478E-005	0.00000E+000	-1.79881E-005	-5.39641E-002	2.02481E-001	3.57270E+000	9	...........
	98	1.32	1.97986E-001	-8.86353E-005	0.00000E+000	-1.75485E-005	-5.39641E-002	1.98007E-001	3.57270E+000	9	...........
	99	1.33333	1.93531E-001	-8.86801E-005	0.00000E+000	-1.71623E-005	-5.39641E-002	1.93549E-001	3.57270E+000	9	...........
	100	1.34667	1.89087E-001	-8.89385E-005	0.00000E+000	-1.68171E-005	-5.39641E-002	1.89106E-001	3.57270E+000	9	...........
	101	1.36	1.84663E-001	-8.87207E-005	0.00000E+000	-1.63834E-005	-5.39641E-002	1.84681E-001	3.57270E+000	9	...........
	102	1.37333	1.80253E-001	-8.88197E-005	0.00000E+000	-1.60100E-005	-5.39641E-002	1.80275E-001	3.57270E+000	9	...........
	103	1.38667	1.75865E-001	-8.85165E-005	0.00000E+000	-1.55670E-005	-5.39641E-002	1.75882E-001	3.57270E+000	9	...........
	104	1.4	1.71491E-001	-8.87019E-005	0.00000E+000	-1.52116E-005	-5.39641E-002	1.71511E-001	3.57270E+000	9	...........
	105	1.41333	1.67151E-001	-8.87592E-005	0.00000E+000	-1.48362E-005	-5.39641E-002	1.67173E-001	3.57270E+000	9	...........
	106	1.42667	1.62826E-001	-8.88238E-005	0.00000E+000	-1.44628E-005	-5.39641E-002	1.62848E-001	3.57270E+000	9	...........
	107	1.44	1.58527E-001	-8.88009E-005	0.00000E+000	-1.40773E-005	-5.39641E-002	1.58548E-001	3.57270E+000	9	...........
	108	1.45333	1.54245E-001	-8.86165E-005	0.00000E+000	-1.36687E-005	-5.39641E-002	1.54258E-001	3.57270E+000	9	...........
	109	1.46667	1.49970E-001	-8.88926E-005	0.00000E+000	-1.33312E-005	-5.39641E-002	1.49987E-001	3.57270E+000	9	...........
	110	1.48	1.45724E-001	-8.89374E-005	0.00000E+000	-1.29603E-005	-5.39641E-002	1.45740E-001	3.57270E+000	9	...........
	111	1.49333	1.41484E-001	-8.88603E-005	0.00000E+000	-1.25723E-005	-5.39641E-002	1.41500E-001	3.57270E+000	9	...........
	112	1.50667	1.37257E-001	-8.88207E-005	0.00000E+000	-1.21913E-005	-5.39641E-002	1.37276E-001	3.57270E+000	9	...........
	113	1.52	1.33060E-001	-8.86967E-005	0.00000E+000	-1.18020E-005	-5.39641E-002	1.33080E-001	3.57270E+000	9	...........
	114	1.53333	1.28894E-001	-8.87072E-005	0.00000E+000	-1.14338E-005	-5.39641E-002	1.28904E-001	3.57270E+000	9	...........
	115	1.54667	1.24741E-001	-8.87572E-005	0.00000E+000	-1.10716E-005	-5.39641E-002	1.24748E-001	3.57270E+000	9	...........
	116	1.56	1.20597E-001	-8.86988E-005	0.00000E+000	-1.06969E-005	-5.39641E-002	1.20615E-001	3.57270E+000	9	...........
	117	1.57333	1.16480E-001	-8.86915E-005	0.00000E+000	-1.03308E-005	-5.39641E-002	1.16491E-001	3.57270E+000	9	...........
	118	1.58667	1.12366E-001	-8.88728E-005	0.00000E+000	-9.98628E-006	-5.39641E-002	1.12386E-001	3.57270E+000	9	...........
	119	1.6	1.08284E-001	-8.89489E-005	0.00000E+000	-9.63177E-006	-5.39641E-002	1.08300E-001	3.57270E+000	9	...........
	120	1.61333	1.04225E-001	-8.87790E-005	0.00000E+000	-9.25299E-006	-5.39641E-002	1.04236E-001	3.57270E+000	9	...........
	121	1.62667	1.00183E-001	-8.88624E-005	0.00000E+000	-8.90250E-006	-5.39641E-002	1.00189E-001	3.57270E+000	9	...........
	122	1.64	9.61674E-002	-8.87936E-005	0.00000E+000	-8.53905E-006	-5.39641E-002	9.61701E-002	3.57270E+000	9	...........
	123	1.65333	9.21689E-002	-8.87968E-005	0.00000E+000	-8.18430E-006	-5.39641E-002	9.21767E-002	3.57270E+000	9	...........
	124	1.66667	8.81774E-002	-8.88009E-005	0.00000E+000	-7.83023E-006	-5.39641E-002	8.81846E-002	3.57270E+000	9	...........
	125	1.68	8.41936E-002	-8.88707E-005	0.00000E+000	-7.48234E-006	-5.39641E-002	8.41988E-002	3.57270E+000	9	...........
	126	1.69333	8.02313E-002	-8.86103E-005	0.00000E+000	-7.10931E-006	-5.39641E-002	8.02329E-002	3.57270E+000	9	...........
	127	1.70667	7.62946E-002	-8.89416E-005	0.00000E+000	-6.78576E-006	-5.39641E-002	7.62926E-002	3.57270E+000	9	...........
	128	1.72	7.23781E-002	-8.87478E-005	0.00000E+000	-6.42340E-006	-5.39641E-002	7.23744E-002	3.57270E+000	9	...........
	129	1.73333	6.84746E-002	-8.88614E-005	0.00000E+000	-6.08475E-006	-5.39641E-002	6.84720E-002	3.57270E+000	9	...........
	130	1.74667	6.45966E-002	-8.87811E-005	0.00000E+000	-5.73496E-006	-5.39641E-002	6.45930E-002	3.57270E+000	9	...........
	131	1.76	6.07264E-002	-8.88468E-005	0.00000E+000	-5.39534E-006	-5.39641E-002	6.07192E-002	3.57270E+000	9	...........
	132	1.77333	5.68693E-002	-8.90353E-005	0.00000E+000	-5.06338E-006	-5.39641E-002	5.68667E-002	3.57270E+000	9	...........
	133	1.78667	5.30391E-002	-8.90145E-005	0.00000E+000	-4.72125E-006	-5.39641E-002	5.30332E-002	3.57270E+000	9	...........
	134	1.8	4.92218E-002	-8.87436E-005	0.00000E+000	-4.36812E-006	-5.39641E-002	4.92227E-002	3.57270E+000	9	...........
	135	1.81333	4.54147E-002	-8.89322E-005	0.00000E+000	-4.03883E-006	-5.39641E-002	4.54181E-002	3.57270E+000	9	...........
	136	1.82667	4.16150E-002	-8.88468E-005	0.00000E+000	-3.69736E-006	-5.39641E-002	4.16256E-002	3.57270E+000	9	...........
	137	1.84	3.78479E-002	-8.87467E-005	0.00000E+000	-3.35888E-006	-5.39641E-002	3.78491E-002	3.57270E+000	9	...........
	138	1.85333	3.41043E-002	-8.85530E-005	0.00000E+000	-3.02004E-006	-5.39641E-002	3.41107E-002	3.57270E+000	9	...........
	139	1.86667	3.03791E-002	-8.88186E-005	0.00000E+000	-2.69823E-006	-5.39641E-002	3.03785E-002	3.57270E+000	9	...........
	140	1.88	2.66597E-002	-8.87770E-005	0.00000E+000	-2.36677E-006	-5.39641E-002	2.66592E-002	3.57270E+000	9	...........
	141	1.89333	2.29547E-002	-8.91239E-005	0.00000E+000	-2.04582E-006	-5.39641E-002	2.29525E-002	3.57270E+000	9	...........
	142	1.90667	1.92698E-002	-8.88582E-005	0.00000E+000	-1.71228E-006	-5.39641E-002	1.92647E-002	3.57270E+000	9	...........
	143	1.92	1.56043E-002	-8.87895E-005	0.00000E+000	-1.38549E-006	-5.39641E-002	1.55927E-002	3.57270E+000	9	...........
	144	1.93333	1.19604E-002	-8.88572E-005	0.00000E+000	-1.06277E-006	-5.39641E-002	1.19515E-002	3.57270E+000	9	...........
	145	1.94667	8.33346E-003	-8.87718E-005	0.00000E+000	-7.39776E-007	-5.39641E-002	8.31951E-003	3.57270E+000	9	...........
	146	1.96	4.72462E-003	-8.87467E-005	0.00000E+000	-4.19295E-007	-5.39641E-002	4.70927E-003	3.57270E+000	9	...........
	147	1.97167	1.35177E-003	-8.88808E-005	0.00000E+000	-1.20146E-007	-5.39641E-002	1.33384E-003	3.57270E+000	9	...........
STARTTIMEOFFSET	QUANT	3188.229	Start Time Offset (s)
