EXPLAIN
TAG	PWR800_DISCHARGE
TITLE	LABEL	PWR Cyclic Charge Discharge (Cell) - Discharge Step	Test &Identifier
DATE	LABEL	10-7-2017	Date
TIME	LABEL	15:21:53	Time
NOTES	NOTES	3	&Notes...
	supercap test cell
	0.9mg
	6M KOH
PSTAT	PSTAT	IFC5000-01520	Potentiostat
CAPACITY	QUANT	1.00000E-003	Capacity (A-hr)
CELLTYPE	SELECTOR	1	&Cell Type
WORKINGCONNECTION	SELECTOR	0	&Working Lead
MAXDISCHARGETIME	VARIABLEANDUNITS	1.00000E+002	s	1.00000E+002	second(s)	Max &Discharge Time
DISCHARGEMODE	MULTIPARAM	0	9.00000E-005	&Discharge Mode	Constant Current	Amp(s)
SAMPLETIME	QUANT	1.00000E-002	Sa&mple Period (s)
DISCHARGESTOPAT1	MULTIPARAM	3	0.00000E+000	Discharge Stop At &1	Voltage < Limit	V
DISCHARGESTOPAT2	MULTIPARAM	0	0.00000E+000	Discharge Stop At &2	None	N/A
AESBHCSELECTOR	TOGGLE	F	Save Both Half Cells
IRCOMP	TOGGLE	F	IR &Measure
EOC	QUANT	0	Open Circuit (V)
SEQUENCER	TOGGLE	TRUE	Run as Sequence
PSTATMODEL	IQUANT	53	Pstat Model
PSTATSECTION	LABEL	IFC5000-01520	Pstat Section
PSTATSERIALNO	LABEL	01520	Pstat Serial Number
CTRLMODE	IQUANT	0	Control Mode
ELECTROMETER	IQUANT	1	RE=0 or CS=1
IESTAB	IQUANT	0	I/E Stability
CASPEED	IQUANT	4	Control Amp Speed
CONVENTION	IQUANT	1	Current Convention
ICHRANGE	IQUANT	2	Ich Range
ICHRANGEMODE	TOGGLE	T	Ich Auto Range
ICHOFFSETENABLE	TOGGLE	F	Ich Offset Enable
ICHOFFSET	QUANT	0	Ich Offset (V)
ICHFILTER	IQUANT	1	Ich Filter
VCHRANGE	IQUANT	2	Vch Range
VCHRANGEMODE	TOGGLE	T	Vch Auto Range
VCHOFFSETENABLE	TOGGLE	F	Vch Offset Enable
VCHOFFSET	QUANT	0	Vch Offset (V)
VCHFILTER	IQUANT	1	Vch Filter
IERANGELOWERLIMIT	IQUANT	9	I/E Range Lower Limit
IERANGEMODE	TOGGLE	F	I/E AutoRange
IERANGE	IQUANT	9	I/E Range
ACHSELECT	IQUANT	1	Ach Select
ACHRANGE	IQUANT	2	Ach Range
ACHOFFSETENABLE	TOGGLE	F	Ach Offset Enable
ACHOFFSET	QUANT	0	Ach Offset (V)
ACHFILTER	IQUANT	1	Ach Filter
CABLEID	IQUANT	14	Cable ID
DCCALDATE	LABEL	5-7-2017	DC Calibration Date
ACCALDATE	LABEL	12/3/2015	AC Calibration Date
FRAMEWORKVERSION	QUANT	7.01	Framework Version
INSTRUMENTVERSION	LABEL	4.00	Instrument Version
CURVE	TABLE	157
	Pt	T	Vf	Im	Vu	Pwr	Sig	Ach	Temp	IERange	Over
	#	s	V	A	V	W	V	V	deg C	#	bits
	0	0.013333	8.15315E-001	-8.87592E-005	0.00000E+000	-7.23668E-005	-5.39641E-002	8.15470E-001	3.57210E+000	9	...........
	1	0.026667	8.02686E-001	-8.87124E-005	0.00000E+000	-7.12081E-005	-5.39641E-002	8.02801E-001	3.57210E+000	9	...........
	2	0.04	7.90819E-001	-8.86978E-005	0.00000E+000	-7.01439E-005	-5.39641E-002	7.90944E-001	3.57210E+000	9	...........
	3	0.053333	7.79612E-001	-8.87030E-005	0.00000E+000	-6.91539E-005	-5.39641E-002	7.79735E-001	3.57210E+000	9	...........
	4	0.066667	7.68896E-001	-8.85530E-005	0.00000E+000	-6.80880E-005	-5.39641E-002	7.69046E-001	3.57210E+000	9	...........
	5	0.08	7.58644E-001	-8.88478E-005	0.00000E+000	-6.74039E-005	-5.39641E-002	7.58754E-001	3.57210E+000	9	...........
	6	0.093333	7.48798E-001	-8.86217E-005	0.00000E+000	-6.63598E-005	-5.39641E-002	7.48884E-001	3.57210E+000	9	...........
	7	0.106667	7.39240E-001	-8.87915E-005	0.00000E+000	-6.56382E-005	-5.39641E-002	7.39360E-001	3.57210E+000	9	...........
	8	0.12	7.30034E-001	-8.90989E-005	0.00000E+000	-6.50452E-005	-5.39641E-002	7.30133E-001	3.57210E+000	9	...........
	9	0.133333	7.21077E-001	-8.89635E-005	0.00000E+000	-6.41495E-005	-5.39641E-002	7.21174E-001	3.57210E+000	9	...........
	10	0.146667	7.12337E-001	-8.87811E-005	0.00000E+000	-6.32421E-005	-5.39641E-002	7.12465E-001	3.57210E+000	9	...........
	11	0.16	7.03880E-001	-8.85905E-005	0.00000E+000	-6.23571E-005	-5.39641E-002	7.03985E-001	3.57210E+000	9	...........
	12	0.173333	6.95611E-001	-8.83717E-005	0.00000E+000	-6.14723E-005	-5.39641E-002	6.95729E-001	3.57210E+000	9	...........
	13	0.186667	6.87510E-001	-8.86999E-005	0.00000E+000	-6.09821E-005	-5.39641E-002	6.87648E-001	3.57210E+000	9	...........
	14	0.2	6.79620E-001	-8.86228E-005	0.00000E+000	-6.02298E-005	-5.39641E-002	6.79767E-001	3.57210E+000	9	...........
	15	0.213333	6.71906E-001	-8.83988E-005	0.00000E+000	-5.93957E-005	-5.39641E-002	6.72038E-001	3.57210E+000	9	...........
	16	0.226667	6.64326E-001	-8.89270E-005	0.00000E+000	-5.90765E-005	-5.39641E-002	6.64493E-001	3.57210E+000	9	...........
	17	0.24	6.56920E-001	-8.88030E-005	0.00000E+000	-5.83365E-005	-5.39641E-002	6.57057E-001	3.57210E+000	9	...........
	18	0.253333	6.49647E-001	-8.87405E-005	0.00000E+000	-5.76500E-005	-5.39641E-002	6.49770E-001	3.57210E+000	9	...........
	19	0.266667	6.42516E-001	-8.87718E-005	0.00000E+000	-5.70373E-005	-5.39641E-002	6.42631E-001	3.57210E+000	9	...........
	20	0.28	6.35443E-001	-8.87019E-005	0.00000E+000	-5.63650E-005	-5.39641E-002	6.35562E-001	3.57210E+000	9	...........
	21	0.293333	6.28544E-001	-8.87832E-005	0.00000E+000	-5.58041E-005	-5.39641E-002	6.28648E-001	3.57210E+000	9	...........
	22	0.306667	6.21755E-001	-8.87457E-005	0.00000E+000	-5.51781E-005	-5.39641E-002	6.21846E-001	3.57210E+000	9	...........
	23	0.32	6.15017E-001	-8.87895E-005	0.00000E+000	-5.46071E-005	-5.39641E-002	6.15117E-001	3.57210E+000	9	...........
	24	0.333333	6.08354E-001	-8.85915E-005	0.00000E+000	-5.38950E-005	-5.39641E-002	6.08490E-001	3.57210E+000	9	...........
	25	0.346667	6.01873E-001	-8.89020E-005	0.00000E+000	-5.35077E-005	-5.39641E-002	6.02010E-001	3.57210E+000	9	...........
	26	0.36	5.95484E-001	-8.88416E-005	0.00000E+000	-5.29037E-005	-5.39641E-002	5.95593E-001	3.57210E+000	9	...........
	27	0.373333	5.89123E-001	-8.84206E-005	0.00000E+000	-5.20906E-005	-5.39641E-002	5.89247E-001	3.57210E+000	9	...........
	28	0.386667	5.82869E-001	-8.86446E-005	0.00000E+000	-5.16682E-005	-5.39641E-002	5.82938E-001	3.57210E+000	9	...........
	29	0.4	5.76638E-001	-8.86332E-005	0.00000E+000	-5.11093E-005	-5.39641E-002	5.76733E-001	3.57210E+000	9	...........
	30	0.413333	5.70527E-001	-8.83581E-005	0.00000E+000	-5.04107E-005	-5.39641E-002	5.70608E-001	3.57210E+000	9	...........
	31	0.426667	5.64461E-001	-8.87061E-005	0.00000E+000	-5.00712E-005	-5.39641E-002	5.64536E-001	3.57210E+000	9	...........
	32	0.44	5.58437E-001	-8.86123E-005	0.00000E+000	-4.94844E-005	-5.39641E-002	5.58500E-001	3.57210E+000	9	...........
	33	0.453333	5.52517E-001	-8.86019E-005	0.00000E+000	-4.89541E-005	-5.39641E-002	5.52587E-001	3.57210E+000	9	...........
	34	0.466667	5.46627E-001	-8.87322E-005	0.00000E+000	-4.85034E-005	-5.39641E-002	5.46689E-001	3.57210E+000	9	...........
	35	0.48	5.40776E-001	-8.86030E-005	0.00000E+000	-4.79144E-005	-5.39641E-002	5.40856E-001	3.57210E+000	9	...........
	36	0.493333	5.34978E-001	-8.88926E-005	0.00000E+000	-4.75556E-005	-5.39641E-002	5.35072E-001	3.57210E+000	9	...........
	37	0.506667	5.29204E-001	-8.87426E-005	0.00000E+000	-4.69630E-005	-5.39641E-002	5.29315E-001	3.57210E+000	9	...........
	38	0.52	5.23511E-001	-8.87926E-005	0.00000E+000	-4.64839E-005	-5.39641E-002	5.23605E-001	3.57210E+000	9	...........
	39	0.533333	5.17849E-001	-8.88801E-005	0.00000E+000	-4.60265E-005	-5.39641E-002	5.17932E-001	3.57210E+000	9	...........
	40	0.546667	5.12218E-001	-8.84811E-005	0.00000E+000	-4.53216E-005	-5.39641E-002	5.12291E-001	3.57210E+000	9	...........
	41	0.56	5.06590E-001	-8.86728E-005	0.00000E+000	-4.49207E-005	-5.39641E-002	5.06701E-001	3.57210E+000	9	...........
	42	0.573333	5.01034E-001	-8.87457E-005	0.00000E+000	-4.44646E-005	-5.39641E-002	5.01115E-001	3.57210E+000	9	...........
	43	0.586667	4.95516E-001	-8.86999E-005	0.00000E+000	-4.39522E-005	-5.39641E-002	4.95586E-001	3.57210E+000	9	...........
	44	0.6	4.90046E-001	-8.87874E-005	0.00000E+000	-4.35099E-005	-5.39641E-002	4.90123E-001	3.57210E+000	9	...........
	45	0.613333	4.84607E-001	-8.87936E-005	0.00000E+000	-4.30300E-005	-5.39641E-002	4.84681E-001	3.57210E+000	9	...........
	46	0.626667	4.79214E-001	-8.89301E-005	0.00000E+000	-4.26166E-005	-5.39641E-002	4.79276E-001	3.57210E+000	9	...........
	47	0.64	4.73807E-001	-8.86373E-005	0.00000E+000	-4.19970E-005	-5.39641E-002	4.73869E-001	3.57210E+000	9	...........
	48	0.653333	4.68427E-001	-8.88218E-005	0.00000E+000	-4.16065E-005	-5.39641E-002	4.68484E-001	3.57210E+000	9	...........
	49	0.666667	4.63090E-001	-8.89572E-005	0.00000E+000	-4.11952E-005	-5.39641E-002	4.63144E-001	3.57210E+000	9	...........
	50	0.68	4.57764E-001	-8.87259E-005	0.00000E+000	-4.06155E-005	-5.39641E-002	4.57822E-001	3.57210E+000	9	...........
	51	0.693333	4.52463E-001	-8.86457E-005	0.00000E+000	-4.01089E-005	-5.39641E-002	4.52521E-001	3.57210E+000	9	...........
	52	0.706667	4.47188E-001	-8.87134E-005	0.00000E+000	-3.96715E-005	-5.39641E-002	4.47251E-001	3.57210E+000	9	...........
	53	0.72	4.41931E-001	-8.84634E-005	0.00000E+000	-3.90947E-005	-5.39641E-002	4.41988E-001	3.57210E+000	9	...........
	54	0.733333	4.36704E-001	-8.85259E-005	0.00000E+000	-3.86596E-005	-5.39641E-002	4.36760E-001	3.57210E+000	9	...........
	55	0.746667	4.31489E-001	-8.86332E-005	0.00000E+000	-3.82443E-005	-5.39641E-002	4.31542E-001	3.57210E+000	9	...........
	56	0.76	4.26295E-001	-8.87384E-005	0.00000E+000	-3.78287E-005	-5.39641E-002	4.26349E-001	3.57210E+000	9	...........
	57	0.773333	4.21115E-001	-8.86988E-005	0.00000E+000	-3.73524E-005	-5.39641E-002	4.21168E-001	3.57210E+000	9	...........
	58	0.786667	4.15945E-001	-8.87155E-005	0.00000E+000	-3.69007E-005	-5.39641E-002	4.16000E-001	3.57210E+000	9	...........
	59	0.8	4.10806E-001	-8.88541E-005	0.00000E+000	-3.65018E-005	-5.39641E-002	4.10858E-001	3.57210E+000	9	...........
	60	0.813333	4.05682E-001	-8.87582E-005	0.00000E+000	-3.60076E-005	-5.39641E-002	4.05728E-001	3.57210E+000	9	...........
	61	0.826667	4.00561E-001	-8.88082E-005	0.00000E+000	-3.55731E-005	-5.39641E-002	4.00605E-001	3.57210E+000	9	...........
	62	0.84	3.95457E-001	-8.87853E-005	0.00000E+000	-3.51108E-005	-5.39641E-002	3.95502E-001	3.57210E+000	9	...........
	63	0.853333	3.90379E-001	-8.85748E-005	0.00000E+000	-3.45777E-005	-5.39641E-002	3.90422E-001	3.57210E+000	9	...........
	64	0.866667	3.85318E-001	-8.86009E-005	0.00000E+000	-3.41395E-005	-5.39641E-002	3.85362E-001	3.57210E+000	9	...........
	65	0.88	3.80280E-001	-8.86186E-005	0.00000E+000	-3.36999E-005	-5.39641E-002	3.80322E-001	3.57210E+000	9	...........
	66	0.893333	3.75269E-001	-8.87217E-005	0.00000E+000	-3.32945E-005	-5.39641E-002	3.75313E-001	3.57210E+000	9	...........
	67	0.906667	3.70275E-001	-8.88916E-005	0.00000E+000	-3.29143E-005	-5.39641E-002	3.70314E-001	3.57210E+000	9	...........
	68	0.92	3.65300E-001	-8.88749E-005	0.00000E+000	-3.24660E-005	-5.39641E-002	3.65346E-001	3.57210E+000	9	...........
	69	0.933333	3.60363E-001	-8.87780E-005	0.00000E+000	-3.19923E-005	-5.39641E-002	3.60402E-001	3.57210E+000	9	...........
	70	0.946667	3.55437E-001	-8.84967E-005	0.00000E+000	-3.14550E-005	-5.39641E-002	3.55473E-001	3.57210E+000	9	...........
	71	0.96	3.50523E-001	-8.87332E-005	0.00000E+000	-3.11030E-005	-5.39641E-002	3.50555E-001	3.57210E+000	9	...........
	72	0.97333	3.45605E-001	-8.86790E-005	0.00000E+000	-3.06479E-005	-5.39641E-002	3.45647E-001	3.57210E+000	9	...........
	73	0.98667	3.40711E-001	-8.88864E-005	0.00000E+000	-3.02845E-005	-5.39641E-002	3.40747E-001	3.57210E+000	9	...........
	74	1	3.35834E-001	-8.86301E-005	0.00000E+000	-2.97650E-005	-5.39641E-002	3.35871E-001	3.57210E+000	9	...........
	75	1.01333	3.30977E-001	-8.87770E-005	0.00000E+000	-2.93831E-005	-5.39641E-002	3.31011E-001	3.57210E+000	9	...........
	76	1.02667	3.26136E-001	-8.87072E-005	0.00000E+000	-2.89306E-005	-5.39641E-002	3.26179E-001	3.57210E+000	9	...........
	77	1.04	3.21321E-001	-8.89843E-005	0.00000E+000	-2.85925E-005	-5.39641E-002	3.21357E-001	3.57210E+000	9	...........
	78	1.05333	3.16515E-001	-8.87926E-005	0.00000E+000	-2.81042E-005	-5.39641E-002	3.16548E-001	3.57210E+000	9	...........
	79	1.06667	3.11730E-001	-8.87103E-005	0.00000E+000	-2.76537E-005	-5.39641E-002	3.11762E-001	3.57210E+000	9	...........
	80	1.08	3.06968E-001	-8.87384E-005	0.00000E+000	-2.72399E-005	-5.39641E-002	3.07006E-001	3.57210E+000	9	...........
	81	1.09333	3.02234E-001	-8.86290E-005	0.00000E+000	-2.67867E-005	-5.39641E-002	3.02268E-001	3.57210E+000	9	...........
	82	1.10667	2.97516E-001	-8.86540E-005	0.00000E+000	-2.63760E-005	-5.39641E-002	2.97551E-001	3.57210E+000	9	...........
	83	1.12	2.92822E-001	-8.87749E-005	0.00000E+000	-2.59952E-005	-5.39641E-002	2.92857E-001	3.57210E+000	9	...........
	84	1.13333	2.88143E-001	-8.87738E-005	0.00000E+000	-2.55796E-005	-5.39641E-002	2.88178E-001	3.57210E+000	9	...........
	85	1.14667	2.83478E-001	-8.88926E-005	0.00000E+000	-2.51991E-005	-5.39641E-002	2.83514E-001	3.57210E+000	9	...........
	86	1.16	2.78839E-001	-8.88853E-005	0.00000E+000	-2.47847E-005	-5.39641E-002	2.78867E-001	3.57210E+000	9	...........
	87	1.17333	2.74220E-001	-8.88051E-005	0.00000E+000	-2.43521E-005	-5.39641E-002	2.74255E-001	3.57210E+000	9	...........
	88	1.18667	2.69626E-001	-8.87968E-005	0.00000E+000	-2.39419E-005	-5.39641E-002	2.69658E-001	3.57210E+000	9	...........
	89	1.2	2.65056E-001	-8.90468E-005	0.00000E+000	-2.36024E-005	-5.39641E-002	2.65090E-001	3.57210E+000	9	...........
	90	1.21333	2.60513E-001	-8.86759E-005	0.00000E+000	-2.31012E-005	-5.39641E-002	2.60546E-001	3.57210E+000	9	...........
	91	1.22667	2.55997E-001	-8.87457E-005	0.00000E+000	-2.27187E-005	-5.39641E-002	2.56030E-001	3.57210E+000	9	...........
	92	1.24	2.51496E-001	-8.84863E-005	0.00000E+000	-2.22539E-005	-5.39641E-002	2.51523E-001	3.57210E+000	9	...........
	93	1.25333	2.47011E-001	-8.85759E-005	0.00000E+000	-2.18793E-005	-5.39641E-002	2.47037E-001	3.57210E+000	9	...........
	94	1.26667	2.42534E-001	-8.87676E-005	0.00000E+000	-2.15292E-005	-5.39641E-002	2.42556E-001	3.57210E+000	9	...........
	95	1.28	2.38094E-001	-8.87905E-005	0.00000E+000	-2.11405E-005	-5.39641E-002	2.38110E-001	3.57210E+000	9	...........
	96	1.29333	2.33674E-001	-8.87738E-005	0.00000E+000	-2.07441E-005	-5.39641E-002	2.33691E-001	3.57210E+000	9	...........
	97	1.30667	2.29271E-001	-8.87238E-005	0.00000E+000	-2.03418E-005	-5.39641E-002	2.29291E-001	3.57210E+000	9	...........
	98	1.32	2.24879E-001	-8.87759E-005	0.00000E+000	-1.99639E-005	-5.39641E-002	2.24899E-001	3.57210E+000	9	...........
	99	1.33333	2.20519E-001	-8.87895E-005	0.00000E+000	-1.95798E-005	-5.39641E-002	2.20539E-001	3.57210E+000	9	...........
	100	1.34667	2.16184E-001	-8.87207E-005	0.00000E+000	-1.91800E-005	-5.39641E-002	2.16203E-001	3.57210E+000	9	...........
	101	1.36	2.11861E-001	-8.87707E-005	0.00000E+000	-1.88071E-005	-5.39641E-002	2.11881E-001	3.57210E+000	9	...........
	102	1.37333	2.07565E-001	-8.85269E-005	0.00000E+000	-1.83751E-005	-5.39641E-002	2.07584E-001	3.57210E+000	9	...........
	103	1.38667	2.03294E-001	-8.88291E-005	0.00000E+000	-1.80584E-005	-5.39641E-002	2.03313E-001	3.57210E+000	9	...........
	104	1.4	1.99031E-001	-8.86738E-005	0.00000E+000	-1.76489E-005	-5.39641E-002	1.99056E-001	3.57210E+000	9	...........
	105	1.41333	1.94785E-001	-8.86415E-005	0.00000E+000	-1.72660E-005	-5.39641E-002	1.94808E-001	3.57210E+000	9	...........
	106	1.42667	1.90561E-001	-8.87790E-005	0.00000E+000	-1.69178E-005	-5.39641E-002	1.90578E-001	3.57210E+000	9	...........
	107	1.44	1.86354E-001	-8.84686E-005	0.00000E+000	-1.64865E-005	-5.39641E-002	1.86373E-001	3.57210E+000	9	...........
	108	1.45333	1.82178E-001	-8.86363E-005	0.00000E+000	-1.61476E-005	-5.39641E-002	1.82200E-001	3.57210E+000	9	...........
	109	1.46667	1.78011E-001	-8.87832E-005	0.00000E+000	-1.58044E-005	-5.39641E-002	1.78028E-001	3.57210E+000	9	...........
	110	1.48	1.73849E-001	-8.87311E-005	0.00000E+000	-1.54258E-005	-5.39641E-002	1.73871E-001	3.57210E+000	9	...........
	111	1.49333	1.69707E-001	-8.88051E-005	0.00000E+000	-1.50708E-005	-5.39641E-002	1.69727E-001	3.57210E+000	9	...........
	112	1.50667	1.65591E-001	-8.85071E-005	0.00000E+000	-1.46560E-005	-5.39641E-002	1.65604E-001	3.57210E+000	9	...........
	113	1.52	1.61494E-001	-8.85675E-005	0.00000E+000	-1.43031E-005	-5.39641E-002	1.61509E-001	3.57210E+000	9	...........
	114	1.53333	1.57406E-001	-8.87738E-005	0.00000E+000	-1.39735E-005	-5.39641E-002	1.57416E-001	3.57210E+000	9	...........
	115	1.54667	1.53338E-001	-8.90801E-005	0.00000E+000	-1.36594E-005	-5.39641E-002	1.53347E-001	3.57210E+000	9	...........
	116	1.56	1.49299E-001	-8.88697E-005	0.00000E+000	-1.32681E-005	-5.39641E-002	1.49309E-001	3.57210E+000	9	...........
	117	1.57333	1.45286E-001	-8.86342E-005	0.00000E+000	-1.28773E-005	-5.39641E-002	1.45291E-001	3.57210E+000	9	...........
	118	1.58667	1.41266E-001	-8.85759E-005	0.00000E+000	-1.25127E-005	-5.39641E-002	1.41276E-001	3.57210E+000	9	...........
	119	1.6	1.37261E-001	-8.87551E-005	0.00000E+000	-1.21826E-005	-5.39641E-002	1.37275E-001	3.57210E+000	9	...........
	120	1.61333	1.33296E-001	-8.88853E-005	0.00000E+000	-1.18480E-005	-5.39641E-002	1.33308E-001	3.57210E+000	9	...........
	121	1.62667	1.29337E-001	-8.87082E-005	0.00000E+000	-1.14732E-005	-5.39641E-002	1.29346E-001	3.57210E+000	9	...........
	122	1.64	1.25388E-001	-8.86269E-005	0.00000E+000	-1.11128E-005	-5.39641E-002	1.25398E-001	3.57210E+000	9	...........
	123	1.65333	1.21452E-001	-8.86936E-005	0.00000E+000	-1.07720E-005	-5.39641E-002	1.21461E-001	3.57210E+000	9	...........
	124	1.66667	1.17531E-001	-8.87947E-005	0.00000E+000	-1.04361E-005	-5.39641E-002	1.17536E-001	3.57210E+000	9	...........
	125	1.68	1.13631E-001	-8.90385E-005	0.00000E+000	-1.01175E-005	-5.39641E-002	1.13640E-001	3.57210E+000	9	...........
	126	1.69333	1.09753E-001	-8.89187E-005	0.00000E+000	-9.75908E-006	-5.39641E-002	1.09758E-001	3.57210E+000	9	...........
	127	1.70667	1.05888E-001	-8.86238E-005	0.00000E+000	-9.38418E-006	-5.39641E-002	1.05898E-001	3.57210E+000	9	...........
	128	1.72	1.02044E-001	-8.87019E-005	0.00000E+000	-9.05149E-006	-5.39641E-002	1.02051E-001	3.57210E+000	9	...........
	129	1.73333	9.82045E-002	-8.88978E-005	0.00000E+000	-8.73017E-006	-5.39641E-002	9.82144E-002	3.57210E+000	9	...........
	130	1.74667	9.43942E-002	-8.85561E-005	0.00000E+000	-8.35918E-006	-5.39641E-002	9.43954E-002	3.57210E+000	9	...........
	131	1.76	9.05916E-002	-8.87676E-005	0.00000E+000	-8.04160E-006	-5.39641E-002	9.05982E-002	3.57210E+000	9	...........
	132	1.77333	8.68161E-002	-8.87384E-005	0.00000E+000	-7.70392E-006	-5.39641E-002	8.68148E-002	3.57210E+000	9	...........
	133	1.78667	8.30537E-002	-8.85853E-005	0.00000E+000	-7.35733E-006	-5.39641E-002	8.30556E-002	3.57210E+000	9	...........
	134	1.8	7.93056E-002	-8.86676E-005	0.00000E+000	-7.03184E-006	-5.39641E-002	7.93093E-002	3.57210E+000	9	...........
	135	1.81333	7.55556E-002	-8.89176E-005	0.00000E+000	-6.71822E-006	-5.39641E-002	7.55539E-002	3.57210E+000	9	...........
	136	1.82667	7.18102E-002	-8.87686E-005	0.00000E+000	-6.37449E-006	-5.39641E-002	7.18097E-002	3.57210E+000	9	...........
	137	1.84	6.80888E-002	-8.88322E-005	0.00000E+000	-6.04848E-006	-5.39641E-002	6.80875E-002	3.57210E+000	9	...........
	138	1.85333	6.43930E-002	-8.88603E-005	0.00000E+000	-5.72198E-006	-5.39641E-002	6.43918E-002	3.57210E+000	9	...........
	139	1.86667	6.06929E-002	-8.88530E-005	0.00000E+000	-5.39274E-006	-5.39641E-002	6.06970E-002	3.57210E+000	9	...........
	140	1.88	5.70209E-002	-8.88364E-005	0.00000E+000	-5.06553E-006	-5.39641E-002	5.70229E-002	3.57210E+000	9	...........
	141	1.89333	5.33758E-002	-8.87832E-005	0.00000E+000	-4.73887E-006	-5.39641E-002	5.33770E-002	3.57210E+000	9	...........
	142	1.90667	4.97435E-002	-8.88624E-005	0.00000E+000	-4.42032E-006	-5.39641E-002	4.97418E-002	3.57210E+000	9	...........
	143	1.92	4.61292E-002	-8.87280E-005	0.00000E+000	-4.09295E-006	-5.39641E-002	4.61427E-002	3.57210E+000	9	...........
	144	1.93333	4.25181E-002	-8.90593E-005	0.00000E+000	-3.78664E-006	-5.39641E-002	4.25287E-002	3.57210E+000	9	...........
	145	1.94667	3.89205E-002	-8.89687E-005	0.00000E+000	-3.46271E-006	-5.39641E-002	3.89249E-002	3.57210E+000	9	...........
	146	1.96	3.53421E-002	-8.88082E-005	0.00000E+000	-3.13867E-006	-5.39641E-002	3.53450E-002	3.57210E+000	9	...........
	147	1.97333	3.17811E-002	-8.87624E-005	0.00000E+000	-2.82097E-006	-5.39641E-002	3.17850E-002	3.57210E+000	9	...........
	148	1.98667	2.82175E-002	-8.87801E-005	0.00000E+000	-2.50515E-006	-5.39641E-002	2.82211E-002	3.57210E+000	9	...........
	149	2	2.46761E-002	-8.86655E-005	0.00000E+000	-2.18792E-006	-5.39641E-002	2.46709E-002	3.57210E+000	9	...........
	150	2.01333	2.11449E-002	-8.85457E-005	0.00000E+000	-1.87229E-006	-5.39641E-002	2.11456E-002	3.57210E+000	9	...........
	151	2.02667	1.76352E-002	-8.87374E-005	0.00000E+000	-1.56490E-006	-5.39641E-002	1.76300E-002	3.57210E+000	9	...........
	152	2.04	1.41413E-002	-8.88259E-005	0.00000E+000	-1.25611E-006	-5.39641E-002	1.41352E-002	3.57210E+000	9	...........
	153	2.05333	1.06705E-002	-8.89708E-005	0.00000E+000	-9.49361E-007	-5.39641E-002	1.06615E-002	3.57210E+000	9	...........
	154	2.06667	7.22467E-003	-8.87738E-005	0.00000E+000	-6.41361E-007	-5.39641E-002	7.20845E-003	3.57210E+000	9	...........
	155	2.08	3.78858E-003	-8.90854E-005	0.00000E+000	-3.37507E-007	-5.39641E-002	3.77280E-003	3.57210E+000	9	...........
	156	2.09	7.82561E-004	-8.86512E-005	0.00000E+000	-6.93750E-008	-5.39641E-002	7.70434E-004	3.57210E+000	9	...........
STARTTIMEOFFSET	QUANT	1148.335	Start Time Offset (s)
