EXPLAIN
TAG	PWR800_DISCHARGE
TITLE	LABEL	PWR Cyclic Charge Discharge (Cell) - Discharge Step	Test &Identifier
DATE	LABEL	10-7-2017	Date
TIME	LABEL	15:50:15	Time
NOTES	NOTES	3	&Notes...
	supercap test cell
	0.9mg
	6M KOH
PSTAT	PSTAT	IFC5000-01520	Potentiostat
CAPACITY	QUANT	1.00000E-003	Capacity (A-hr)
CELLTYPE	SELECTOR	1	&Cell Type
WORKINGCONNECTION	SELECTOR	0	&Working Lead
MAXDISCHARGETIME	VARIABLEANDUNITS	1.00000E+002	s	1.00000E+002	second(s)	Max &Discharge Time
DISCHARGEMODE	MULTIPARAM	0	9.00000E-005	&Discharge Mode	Constant Current	Amp(s)
SAMPLETIME	QUANT	1.00000E-002	Sa&mple Period (s)
DISCHARGESTOPAT1	MULTIPARAM	3	0.00000E+000	Discharge Stop At &1	Voltage < Limit	V
DISCHARGESTOPAT2	MULTIPARAM	0	0.00000E+000	Discharge Stop At &2	None	N/A
AESBHCSELECTOR	TOGGLE	F	Save Both Half Cells
IRCOMP	TOGGLE	F	IR &Measure
EOC	QUANT	0	Open Circuit (V)
SEQUENCER	TOGGLE	TRUE	Run as Sequence
PSTATMODEL	IQUANT	53	Pstat Model
PSTATSECTION	LABEL	IFC5000-01520	Pstat Section
PSTATSERIALNO	LABEL	01520	Pstat Serial Number
CTRLMODE	IQUANT	0	Control Mode
ELECTROMETER	IQUANT	1	RE=0 or CS=1
IESTAB	IQUANT	0	I/E Stability
CASPEED	IQUANT	4	Control Amp Speed
CONVENTION	IQUANT	1	Current Convention
ICHRANGE	IQUANT	2	Ich Range
ICHRANGEMODE	TOGGLE	T	Ich Auto Range
ICHOFFSETENABLE	TOGGLE	F	Ich Offset Enable
ICHOFFSET	QUANT	0	Ich Offset (V)
ICHFILTER	IQUANT	1	Ich Filter
VCHRANGE	IQUANT	2	Vch Range
VCHRANGEMODE	TOGGLE	T	Vch Auto Range
VCHOFFSETENABLE	TOGGLE	F	Vch Offset Enable
VCHOFFSET	QUANT	0	Vch Offset (V)
VCHFILTER	IQUANT	1	Vch Filter
IERANGELOWERLIMIT	IQUANT	9	I/E Range Lower Limit
IERANGEMODE	TOGGLE	F	I/E AutoRange
IERANGE	IQUANT	9	I/E Range
ACHSELECT	IQUANT	1	Ach Select
ACHRANGE	IQUANT	2	Ach Range
ACHOFFSETENABLE	TOGGLE	F	Ach Offset Enable
ACHOFFSET	QUANT	0	Ach Offset (V)
ACHFILTER	IQUANT	1	Ach Filter
CABLEID	IQUANT	14	Cable ID
DCCALDATE	LABEL	5-7-2017	DC Calibration Date
ACCALDATE	LABEL	12/3/2015	AC Calibration Date
FRAMEWORKVERSION	QUANT	7.01	Framework Version
INSTRUMENTVERSION	LABEL	4.00	Instrument Version
CURVE	TABLE	151
	Pt	T	Vf	Im	Vu	Pwr	Sig	Ach	Temp	IERange	Over
	#	s	V	A	V	W	V	V	deg C	#	bits
	0	0.013333	8.08648E-001	-8.86988E-005	0.00000E+000	-7.17261E-005	-5.39641E-002	8.08810E-001	3.57290E+000	9	...........
	1	0.026667	7.94890E-001	-8.87811E-005	0.00000E+000	-7.05713E-005	-5.39641E-002	7.95051E-001	3.57290E+000	9	...........
	2	0.04	7.82062E-001	-8.86071E-005	0.00000E+000	-6.92962E-005	-5.39641E-002	7.82209E-001	3.57290E+000	9	...........
	3	0.053333	7.69929E-001	-8.89395E-005	0.00000E+000	-6.84770E-005	-5.39641E-002	7.70100E-001	3.57290E+000	9	...........
	4	0.066667	7.58425E-001	-8.87457E-005	0.00000E+000	-6.73070E-005	-5.39641E-002	7.58546E-001	3.57290E+000	9	...........
	5	0.08	7.47436E-001	-8.87082E-005	0.00000E+000	-6.63037E-005	-5.39641E-002	7.47573E-001	3.57290E+000	9	...........
	6	0.093333	7.36832E-001	-8.84936E-005	0.00000E+000	-6.52049E-005	-5.39641E-002	7.36981E-001	3.57290E+000	9	...........
	7	0.106667	7.26681E-001	-8.87061E-005	0.00000E+000	-6.44611E-005	-5.39641E-002	7.26819E-001	3.57290E+000	9	...........
	8	0.12	7.16856E-001	-8.85894E-005	0.00000E+000	-6.35059E-005	-5.39641E-002	7.17006E-001	3.57290E+000	9	...........
	9	0.133333	7.07344E-001	-8.88759E-005	0.00000E+000	-6.28659E-005	-5.39641E-002	7.07506E-001	3.57290E+000	9	...........
	10	0.146667	6.98163E-001	-8.83133E-005	0.00000E+000	-6.16571E-005	-5.39641E-002	6.98270E-001	3.57290E+000	9	...........
	11	0.16	6.89201E-001	-8.86019E-005	0.00000E+000	-6.10646E-005	-5.39641E-002	6.89318E-001	3.57290E+000	9	...........
	12	0.173333	6.80493E-001	-8.86717E-005	0.00000E+000	-6.03405E-005	-5.39641E-002	6.80597E-001	3.57290E+000	9	...........
	13	0.186667	6.72024E-001	-8.86999E-005	0.00000E+000	-5.96084E-005	-5.39641E-002	6.72099E-001	3.57290E+000	9	...........
	14	0.2	6.63729E-001	-8.88311E-005	0.00000E+000	-5.89598E-005	-5.39641E-002	6.63844E-001	3.57290E+000	9	...........
	15	0.213333	6.55669E-001	-8.85540E-005	0.00000E+000	-5.80621E-005	-5.39641E-002	6.55734E-001	3.57290E+000	9	...........
	16	0.226667	6.47756E-001	-8.88322E-005	0.00000E+000	-5.75416E-005	-5.39641E-002	6.47803E-001	3.57290E+000	9	...........
	17	0.24	6.40030E-001	-8.89072E-005	0.00000E+000	-5.69033E-005	-5.39641E-002	6.40054E-001	3.57290E+000	9	...........
	18	0.253333	6.32446E-001	-8.86613E-005	0.00000E+000	-5.60735E-005	-5.39641E-002	6.32471E-001	3.57290E+000	9	...........
	19	0.266667	6.25030E-001	-8.90749E-005	0.00000E+000	-5.56745E-005	-5.39641E-002	6.25062E-001	3.57290E+000	9	...........
	20	0.28	6.17774E-001	-8.88145E-005	0.00000E+000	-5.48672E-005	-5.39641E-002	6.17776E-001	3.57290E+000	9	...........
	21	0.293333	6.10580E-001	-8.88270E-005	0.00000E+000	-5.42359E-005	-5.39641E-002	6.10648E-001	3.57290E+000	9	...........
	22	0.306667	6.03558E-001	-8.89791E-005	0.00000E+000	-5.37041E-005	-5.39641E-002	6.03641E-001	3.57290E+000	9	...........
	23	0.32	5.96652E-001	-8.88030E-005	0.00000E+000	-5.29845E-005	-5.39641E-002	5.96727E-001	3.57290E+000	9	...........
	24	0.333333	5.89867E-001	-8.87249E-005	0.00000E+000	-5.23359E-005	-5.39641E-002	5.89933E-001	3.57290E+000	9	...........
	25	0.346667	5.83166E-001	-8.87811E-005	0.00000E+000	-5.17741E-005	-5.39641E-002	5.83232E-001	3.57290E+000	9	...........
	26	0.36	5.76608E-001	-8.85790E-005	0.00000E+000	-5.10754E-005	-5.39641E-002	5.76685E-001	3.57290E+000	9	...........
	27	0.373333	5.70123E-001	-8.89155E-005	0.00000E+000	-5.06928E-005	-5.39641E-002	5.70180E-001	3.57290E+000	9	...........
	28	0.386667	5.63701E-001	-8.89687E-005	0.00000E+000	-5.01517E-005	-5.39641E-002	5.63812E-001	3.57290E+000	9	...........
	29	0.4	5.57369E-001	-8.87155E-005	0.00000E+000	-4.94472E-005	-5.39641E-002	5.57471E-001	3.57290E+000	9	...........
	30	0.413333	5.51138E-001	-8.88197E-005	0.00000E+000	-4.89519E-005	-5.39641E-002	5.51249E-001	3.57290E+000	9	...........
	31	0.426667	5.44974E-001	-8.88353E-005	0.00000E+000	-4.84129E-005	-5.39641E-002	5.45061E-001	3.57290E+000	9	...........
	32	0.44	5.38897E-001	-8.88301E-005	0.00000E+000	-4.78703E-005	-5.39641E-002	5.38987E-001	3.57290E+000	9	...........
	33	0.453333	5.32821E-001	-8.89207E-005	0.00000E+000	-4.73788E-005	-5.39641E-002	5.32935E-001	3.57290E+000	9	...........
	34	0.466667	5.26866E-001	-8.88416E-005	0.00000E+000	-4.68076E-005	-5.39641E-002	5.26956E-001	3.57290E+000	9	...........
	35	0.48	5.20961E-001	-8.88051E-005	0.00000E+000	-4.62640E-005	-5.39641E-002	5.21066E-001	3.57290E+000	9	...........
	36	0.493333	5.15148E-001	-8.87488E-005	0.00000E+000	-4.57188E-005	-5.39641E-002	5.15236E-001	3.57290E+000	9	...........
	37	0.506667	5.09367E-001	-8.87426E-005	0.00000E+000	-4.52026E-005	-5.39641E-002	5.09468E-001	3.57290E+000	9	...........
	38	0.52	5.03650E-001	-8.89770E-005	0.00000E+000	-4.48133E-005	-5.39641E-002	5.03743E-001	3.57290E+000	9	...........
	39	0.533333	4.97994E-001	-8.85165E-005	0.00000E+000	-4.40807E-005	-5.39641E-002	4.98080E-001	3.57290E+000	9	...........
	40	0.546667	4.92368E-001	-8.89770E-005	0.00000E+000	-4.38095E-005	-5.39641E-002	4.92468E-001	3.57290E+000	9	...........
	41	0.56	4.86806E-001	-8.90124E-005	0.00000E+000	-4.33318E-005	-5.39641E-002	4.86888E-001	3.57290E+000	9	...........
	42	0.573333	4.81341E-001	-8.85852E-005	0.00000E+000	-4.26397E-005	-5.39641E-002	4.81396E-001	3.57290E+000	9	...........
	43	0.586667	4.75817E-001	-8.87447E-005	0.00000E+000	-4.22263E-005	-5.39641E-002	4.75878E-001	3.57290E+000	9	...........
	44	0.6	4.70345E-001	-8.87353E-005	0.00000E+000	-4.17362E-005	-5.39641E-002	4.70405E-001	3.57282E+000	9	...........
	45	0.613333	4.64910E-001	-8.86988E-005	0.00000E+000	-4.12370E-005	-5.39641E-002	4.64972E-001	3.57260E+000	9	...........
	46	0.626667	4.59508E-001	-8.87103E-005	0.00000E+000	-4.07631E-005	-5.39641E-002	4.59572E-001	3.57260E+000	9	...........
	47	0.64	4.54137E-001	-8.87738E-005	0.00000E+000	-4.03155E-005	-5.39641E-002	4.54196E-001	3.57260E+000	9	...........
	48	0.653333	4.48788E-001	-8.87144E-005	0.00000E+000	-3.98140E-005	-5.39641E-002	4.48848E-001	3.57260E+000	9	...........
	49	0.666667	4.43482E-001	-8.88801E-005	0.00000E+000	-3.94167E-005	-5.39641E-002	4.43545E-001	3.57260E+000	9	...........
	50	0.68	4.38195E-001	-8.86853E-005	0.00000E+000	-3.88615E-005	-5.39641E-002	4.38255E-001	3.57260E+000	9	...........
	51	0.693333	4.32934E-001	-8.86519E-005	0.00000E+000	-3.83804E-005	-5.39641E-002	4.32997E-001	3.57260E+000	9	...........
	52	0.706667	4.27710E-001	-8.85894E-005	0.00000E+000	-3.78906E-005	-5.39641E-002	4.27768E-001	3.57260E+000	9	...........
	53	0.72	4.22510E-001	-8.88207E-005	0.00000E+000	-3.75277E-005	-5.39641E-002	4.22569E-001	3.57260E+000	9	...........
	54	0.733333	4.17335E-001	-8.88457E-005	0.00000E+000	-3.70784E-005	-5.39641E-002	4.17391E-001	3.57260E+000	9	...........
	55	0.746667	4.12170E-001	-8.87905E-005	0.00000E+000	-3.65968E-005	-5.39641E-002	4.12224E-001	3.57260E+000	9	...........
	56	0.76	4.07021E-001	-8.89374E-005	0.00000E+000	-3.61994E-005	-5.39641E-002	4.07074E-001	3.57260E+000	9	...........
	57	0.773333	4.01884E-001	-8.84779E-005	0.00000E+000	-3.55579E-005	-5.39641E-002	4.01934E-001	3.57260E+000	9	...........
	58	0.786667	3.96756E-001	-8.88780E-005	0.00000E+000	-3.52629E-005	-5.39641E-002	3.96805E-001	3.57260E+000	9	...........
	59	0.8	3.91640E-001	-8.88551E-005	0.00000E+000	-3.47992E-005	-5.39641E-002	3.91689E-001	3.57260E+000	9	...........
	60	0.813333	3.86530E-001	-8.88072E-005	0.00000E+000	-3.43266E-005	-5.39641E-002	3.86578E-001	3.57260E+000	9	...........
	61	0.826667	3.81445E-001	-8.89582E-005	0.00000E+000	-3.39326E-005	-5.39641E-002	3.81494E-001	3.57260E+000	9	...........
	62	0.84	3.76399E-001	-8.88384E-005	0.00000E+000	-3.34387E-005	-5.39641E-002	3.76445E-001	3.57260E+000	9	...........
	63	0.853333	3.71377E-001	-8.88666E-005	0.00000E+000	-3.30030E-005	-5.39641E-002	3.71421E-001	3.57260E+000	9	...........
	64	0.866667	3.66398E-001	-8.87874E-005	0.00000E+000	-3.25315E-005	-5.39641E-002	3.66444E-001	3.57260E+000	9	...........
	65	0.88	3.61429E-001	-8.86603E-005	0.00000E+000	-3.20444E-005	-5.39641E-002	3.61476E-001	3.57260E+000	9	...........
	66	0.893333	3.56466E-001	-8.87905E-005	0.00000E+000	-3.16508E-005	-5.39641E-002	3.56512E-001	3.57260E+000	9	...........
	67	0.906667	3.51519E-001	-8.88197E-005	0.00000E+000	-3.12218E-005	-5.39641E-002	3.51564E-001	3.57260E+000	9	...........
	68	0.92	3.46582E-001	-8.89322E-005	0.00000E+000	-3.08223E-005	-5.39641E-002	3.46628E-001	3.57260E+000	9	...........
	69	0.933333	3.41668E-001	-8.87936E-005	0.00000E+000	-3.03379E-005	-5.39641E-002	3.41708E-001	3.57260E+000	9	...........
	70	0.946667	3.36758E-001	-8.91156E-005	0.00000E+000	-3.00104E-005	-5.39641E-002	3.36794E-001	3.57260E+000	9	...........
	71	0.96	3.31868E-001	-8.89999E-005	0.00000E+000	-2.95362E-005	-5.39641E-002	3.31904E-001	3.57260E+000	9	...........
	72	0.97333	3.26993E-001	-8.86332E-005	0.00000E+000	-2.89824E-005	-5.39641E-002	3.27028E-001	3.57260E+000	9	...........
	73	0.98667	3.22121E-001	-8.86853E-005	0.00000E+000	-2.85674E-005	-5.39641E-002	3.22159E-001	3.57260E+000	9	...........
	74	1	3.17259E-001	-8.85352E-005	0.00000E+000	-2.80886E-005	-5.39641E-002	3.17300E-001	3.57260E+000	9	...........
	75	1.01333	3.12412E-001	-8.87592E-005	0.00000E+000	-2.77295E-005	-5.39641E-002	3.12443E-001	3.57260E+000	9	...........
	76	1.02667	3.07562E-001	-8.89655E-005	0.00000E+000	-2.73624E-005	-5.39641E-002	3.07597E-001	3.57260E+000	9	...........
	77	1.04	3.02735E-001	-8.88218E-005	0.00000E+000	-2.68894E-005	-5.39641E-002	3.02772E-001	3.57260E+000	9	...........
	78	1.05333	2.97942E-001	-8.88541E-005	0.00000E+000	-2.64734E-005	-5.39641E-002	2.97977E-001	3.57260E+000	9	...........
	79	1.06667	2.93158E-001	-8.88353E-005	0.00000E+000	-2.60427E-005	-5.39641E-002	2.93186E-001	3.57260E+000	9	...........
	80	1.08	2.88395E-001	-8.85488E-005	0.00000E+000	-2.55370E-005	-5.39641E-002	2.88428E-001	3.57260E+000	9	...........
	81	1.09333	2.83656E-001	-8.88707E-005	0.00000E+000	-2.52087E-005	-5.39641E-002	2.83694E-001	3.57260E+000	9	...........
	82	1.10667	2.78919E-001	-8.87040E-005	0.00000E+000	-2.47412E-005	-5.39641E-002	2.78956E-001	3.57260E+000	9	...........
	83	1.12	2.74204E-001	-8.87832E-005	0.00000E+000	-2.43447E-005	-5.39641E-002	2.74242E-001	3.57260E+000	9	...........
	84	1.13333	2.69500E-001	-8.91052E-005	0.00000E+000	-2.40138E-005	-5.39641E-002	2.69537E-001	3.57260E+000	9	...........
	85	1.14667	2.64814E-001	-8.89207E-005	0.00000E+000	-2.35474E-005	-5.39641E-002	2.64853E-001	3.57260E+000	9	...........
	86	1.16	2.60130E-001	-8.90103E-005	0.00000E+000	-2.31543E-005	-5.39641E-002	2.60168E-001	3.57260E+000	9	...........
	87	1.17333	2.55449E-001	-8.84144E-005	0.00000E+000	-2.25854E-005	-5.39641E-002	2.55488E-001	3.57260E+000	9	...........
	88	1.18667	2.50796E-001	-8.86103E-005	0.00000E+000	-2.22231E-005	-5.39641E-002	2.50831E-001	3.57260E+000	9	...........
	89	1.2	2.46173E-001	-8.89437E-005	0.00000E+000	-2.18955E-005	-5.39641E-002	2.46201E-001	3.57260E+000	9	...........
	90	1.21333	2.41563E-001	-8.89322E-005	0.00000E+000	-2.14828E-005	-5.39641E-002	2.41589E-001	3.57260E+000	9	...........
	91	1.22667	2.36970E-001	-8.85800E-005	0.00000E+000	-2.09908E-005	-5.39641E-002	2.36993E-001	3.57260E+000	9	...........
	92	1.24	2.32393E-001	-8.87551E-005	0.00000E+000	-2.06261E-005	-5.39641E-002	2.32426E-001	3.57260E+000	9	...........
	93	1.25333	2.27859E-001	-8.88416E-005	0.00000E+000	-2.02433E-005	-5.39641E-002	2.27880E-001	3.57260E+000	9	...........
	94	1.26667	2.23315E-001	-8.84738E-005	0.00000E+000	-1.97575E-005	-5.39641E-002	2.23339E-001	3.57260E+000	9	...........
	95	1.28	2.18796E-001	-8.88364E-005	0.00000E+000	-1.94371E-005	-5.39641E-002	2.18821E-001	3.57260E+000	9	...........
	96	1.29333	2.14308E-001	-8.86228E-005	0.00000E+000	-1.89925E-005	-5.39641E-002	2.14330E-001	3.57260E+000	9	...........
	97	1.30667	2.09830E-001	-8.88353E-005	0.00000E+000	-1.86404E-005	-5.39641E-002	2.09850E-001	3.57260E+000	9	...........
	98	1.32	2.05370E-001	-8.89687E-005	0.00000E+000	-1.82715E-005	-5.39641E-002	2.05386E-001	3.57260E+000	9	...........
	99	1.33333	2.00932E-001	-8.86332E-005	0.00000E+000	-1.78093E-005	-5.39641E-002	2.00952E-001	3.57260E+000	9	...........
	100	1.34667	1.96520E-001	-8.88686E-005	0.00000E+000	-1.74645E-005	-5.39641E-002	1.96536E-001	3.57260E+000	9	...........
	101	1.36	1.92106E-001	-8.87843E-005	0.00000E+000	-1.70560E-005	-5.39641E-002	1.92127E-001	3.57260E+000	9	...........
	102	1.37333	1.87721E-001	-8.89062E-005	0.00000E+000	-1.66896E-005	-5.39641E-002	1.87745E-001	3.57260E+000	9	...........
	103	1.38667	1.83358E-001	-8.90645E-005	0.00000E+000	-1.63307E-005	-5.39641E-002	1.83382E-001	3.57260E+000	9	...........
	104	1.4	1.79011E-001	-8.89009E-005	0.00000E+000	-1.59142E-005	-5.39641E-002	1.79036E-001	3.57260E+000	9	...........
	105	1.41333	1.74687E-001	-8.88103E-005	0.00000E+000	-1.55140E-005	-5.39641E-002	1.74706E-001	3.57260E+000	9	...........
	106	1.42667	1.70371E-001	-8.84436E-005	0.00000E+000	-1.50682E-005	-5.39641E-002	1.70388E-001	3.57260E+000	9	...........
	107	1.44	1.66074E-001	-8.89833E-005	0.00000E+000	-1.47779E-005	-5.39641E-002	1.66092E-001	3.57260E+000	9	...........
	108	1.45333	1.61817E-001	-8.89239E-005	0.00000E+000	-1.43894E-005	-5.39641E-002	1.61835E-001	3.57260E+000	9	...........
	109	1.46667	1.57573E-001	-8.86749E-005	0.00000E+000	-1.39727E-005	-5.39641E-002	1.57588E-001	3.57260E+000	9	...........
	110	1.48	1.53337E-001	-8.88489E-005	0.00000E+000	-1.36238E-005	-5.39641E-002	1.53353E-001	3.57260E+000	9	...........
	111	1.49333	1.49127E-001	-8.89322E-005	0.00000E+000	-1.32622E-005	-5.39641E-002	1.49136E-001	3.57260E+000	9	...........
	112	1.50667	1.44933E-001	-8.89072E-005	0.00000E+000	-1.28856E-005	-5.39641E-002	1.44948E-001	3.57260E+000	9	...........
	113	1.52	1.40751E-001	-8.87363E-005	0.00000E+000	-1.24897E-005	-5.39641E-002	1.40768E-001	3.57260E+000	9	...........
	114	1.53333	1.36595E-001	-8.87926E-005	0.00000E+000	-1.21286E-005	-5.39641E-002	1.36605E-001	3.57260E+000	9	...........
	115	1.54667	1.32460E-001	-8.85780E-005	0.00000E+000	-1.17330E-005	-5.39641E-002	1.32468E-001	3.57260E+000	9	...........
	116	1.56	1.28341E-001	-8.89207E-005	0.00000E+000	-1.14122E-005	-5.39641E-002	1.28357E-001	3.57260E+000	9	...........
	117	1.57333	1.24235E-001	-8.85978E-005	0.00000E+000	-1.10069E-005	-5.39641E-002	1.24253E-001	3.57260E+000	9	...........
	118	1.58667	1.20159E-001	-8.87124E-005	0.00000E+000	-1.06596E-005	-5.39641E-002	1.20168E-001	3.57260E+000	9	...........
	119	1.6	1.16104E-001	-8.89416E-005	0.00000E+000	-1.03265E-005	-5.39641E-002	1.16119E-001	3.57272E+000	9	...........
	120	1.61333	1.12067E-001	-8.85957E-005	0.00000E+000	-9.92865E-006	-5.39641E-002	1.12081E-001	3.57310E+000	9	...........
	121	1.62667	1.08053E-001	-8.89551E-005	0.00000E+000	-9.61190E-006	-5.39641E-002	1.08058E-001	3.57310E+000	9	...........
	122	1.64	1.04056E-001	-8.86926E-005	0.00000E+000	-9.22901E-006	-5.39641E-002	1.04058E-001	3.57310E+000	9	...........
	123	1.65333	1.00071E-001	-8.87947E-005	0.00000E+000	-8.88574E-006	-5.39641E-002	1.00073E-001	3.57310E+000	9	...........
	124	1.66667	9.60881E-002	-8.88218E-005	0.00000E+000	-8.53471E-006	-5.39641E-002	9.60935E-002	3.57310E+000	9	...........
	125	1.68	9.21225E-002	-8.88728E-005	0.00000E+000	-8.18719E-006	-5.39641E-002	9.21307E-002	3.57310E+000	9	...........
	126	1.69333	8.81727E-002	-8.89603E-005	0.00000E+000	-7.84388E-006	-5.39641E-002	8.81788E-002	3.57310E+000	9	...........
	127	1.70667	8.42472E-002	-8.88686E-005	0.00000E+000	-7.48694E-006	-5.39641E-002	8.42528E-002	3.57310E+000	9	...........
	128	1.72	8.03519E-002	-8.87738E-005	0.00000E+000	-7.13314E-006	-5.39641E-002	8.03537E-002	3.57310E+000	9	...........
	129	1.73333	7.64700E-002	-8.86030E-005	0.00000E+000	-6.77547E-006	-5.39641E-002	7.64731E-002	3.57310E+000	9	...........
	130	1.74667	7.26003E-002	-8.88978E-005	0.00000E+000	-6.45400E-006	-5.39641E-002	7.26044E-002	3.57310E+000	9	...........
	131	1.76	6.87418E-002	-8.86426E-005	0.00000E+000	-6.09345E-006	-5.39641E-002	6.87431E-002	3.57310E+000	9	...........
	132	1.77333	6.48994E-002	-8.89322E-005	0.00000E+000	-5.77165E-006	-5.39641E-002	6.49006E-002	3.57310E+000	9	...........
	133	1.78667	6.10761E-002	-8.87655E-005	0.00000E+000	-5.42145E-006	-5.39641E-002	6.10785E-002	3.57310E+000	9	...........
	134	1.8	5.72644E-002	-8.85561E-005	0.00000E+000	-5.07111E-006	-5.39641E-002	5.72745E-002	3.57310E+000	9	...........
	135	1.81333	5.34762E-002	-8.86248E-005	0.00000E+000	-4.73932E-006	-5.39641E-002	5.34746E-002	3.57310E+000	9	...........
	136	1.82667	4.97010E-002	-8.90176E-005	0.00000E+000	-4.42427E-006	-5.39641E-002	4.97007E-002	3.57310E+000	9	...........
	137	1.84	4.59621E-002	-8.85321E-005	0.00000E+000	-4.06912E-006	-5.39641E-002	4.59732E-002	3.57310E+000	9	...........
	138	1.85333	4.22218E-002	-8.86363E-005	0.00000E+000	-3.74238E-006	-5.39641E-002	4.22300E-002	3.57310E+000	9	...........
	139	1.86667	3.84950E-002	-8.88207E-005	0.00000E+000	-3.41916E-006	-5.39641E-002	3.85056E-002	3.57310E+000	9	...........
	140	1.88	3.47986E-002	-8.87051E-005	0.00000E+000	-3.08681E-006	-5.39641E-002	3.47980E-002	3.57310E+000	9	...........
	141	1.89333	3.11113E-002	-8.88363E-005	0.00000E+000	-2.76381E-006	-5.39641E-002	3.11090E-002	3.57310E+000	9	...........
	142	1.90667	2.74439E-002	-8.87269E-005	0.00000E+000	-2.43501E-006	-5.39641E-002	2.74477E-002	3.57310E+000	9	...........
	143	1.92	2.37866E-002	-8.85946E-005	0.00000E+000	-2.10737E-006	-5.39641E-002	2.37880E-002	3.57310E+000	9	...........
	144	1.93333	2.01514E-002	-8.88291E-005	0.00000E+000	-1.79003E-006	-5.39641E-002	2.01480E-002	3.57310E+000	9	...........
	145	1.94667	1.65302E-002	-8.86394E-005	0.00000E+000	-1.46523E-006	-5.39641E-002	1.65219E-002	3.57310E+000	9	...........
	146	1.96	1.29391E-002	-8.86103E-005	0.00000E+000	-1.14653E-006	-5.39641E-002	1.29316E-002	3.57310E+000	9	...........
	147	1.97333	9.36385E-003	-8.87634E-005	0.00000E+000	-8.31167E-007	-5.39641E-002	9.35327E-003	3.57310E+000	9	...........
	148	1.98667	5.80355E-003	-8.87916E-005	0.00000E+000	-5.15306E-007	-5.39641E-002	5.79615E-003	3.57310E+000	9	...........
	149	2	2.26972E-003	-8.90791E-005	0.00000E+000	-2.02184E-007	-5.39641E-002	2.25827E-003	3.57310E+000	9	...........
	150	2.00333	5.98316E-005	-8.89833E-005	0.00000E+000	-5.32401E-009	-5.39641E-002	4.43545E-005	3.57310E+000	9	...........
STARTTIMEOFFSET	QUANT	2576.885	Start Time Offset (s)
