EXPLAIN
TAG	PWR800_DISCHARGE
TITLE	LABEL	PWR Cyclic Charge Discharge (Cell) - Discharge Step	Test &Identifier
DATE	LABEL	10-7-2017	Date
TIME	LABEL	15:21:59	Time
NOTES	NOTES	3	&Notes...
	supercap test cell
	0.9mg
	6M KOH
PSTAT	PSTAT	IFC5000-01520	Potentiostat
CAPACITY	QUANT	1.00000E-003	Capacity (A-hr)
CELLTYPE	SELECTOR	1	&Cell Type
WORKINGCONNECTION	SELECTOR	0	&Working Lead
MAXDISCHARGETIME	VARIABLEANDUNITS	1.00000E+002	s	1.00000E+002	second(s)	Max &Discharge Time
DISCHARGEMODE	MULTIPARAM	0	9.00000E-005	&Discharge Mode	Constant Current	Amp(s)
SAMPLETIME	QUANT	1.00000E-002	Sa&mple Period (s)
DISCHARGESTOPAT1	MULTIPARAM	3	0.00000E+000	Discharge Stop At &1	Voltage < Limit	V
DISCHARGESTOPAT2	MULTIPARAM	0	0.00000E+000	Discharge Stop At &2	None	N/A
AESBHCSELECTOR	TOGGLE	F	Save Both Half Cells
IRCOMP	TOGGLE	F	IR &Measure
EOC	QUANT	0	Open Circuit (V)
SEQUENCER	TOGGLE	TRUE	Run as Sequence
PSTATMODEL	IQUANT	53	Pstat Model
PSTATSECTION	LABEL	IFC5000-01520	Pstat Section
PSTATSERIALNO	LABEL	01520	Pstat Serial Number
CTRLMODE	IQUANT	0	Control Mode
ELECTROMETER	IQUANT	1	RE=0 or CS=1
IESTAB	IQUANT	0	I/E Stability
CASPEED	IQUANT	4	Control Amp Speed
CONVENTION	IQUANT	1	Current Convention
ICHRANGE	IQUANT	2	Ich Range
ICHRANGEMODE	TOGGLE	T	Ich Auto Range
ICHOFFSETENABLE	TOGGLE	F	Ich Offset Enable
ICHOFFSET	QUANT	0	Ich Offset (V)
ICHFILTER	IQUANT	1	Ich Filter
VCHRANGE	IQUANT	2	Vch Range
VCHRANGEMODE	TOGGLE	T	Vch Auto Range
VCHOFFSETENABLE	TOGGLE	F	Vch Offset Enable
VCHOFFSET	QUANT	0	Vch Offset (V)
VCHFILTER	IQUANT	1	Vch Filter
IERANGELOWERLIMIT	IQUANT	9	I/E Range Lower Limit
IERANGEMODE	TOGGLE	F	I/E AutoRange
IERANGE	IQUANT	9	I/E Range
ACHSELECT	IQUANT	1	Ach Select
ACHRANGE	IQUANT	2	Ach Range
ACHOFFSETENABLE	TOGGLE	F	Ach Offset Enable
ACHOFFSET	QUANT	0	Ach Offset (V)
ACHFILTER	IQUANT	1	Ach Filter
CABLEID	IQUANT	14	Cable ID
DCCALDATE	LABEL	5-7-2017	DC Calibration Date
ACCALDATE	LABEL	12/3/2015	AC Calibration Date
FRAMEWORKVERSION	QUANT	7.01	Framework Version
INSTRUMENTVERSION	LABEL	4.00	Instrument Version
CURVE	TABLE	158
	Pt	T	Vf	Im	Vu	Pwr	Sig	Ach	Temp	IERange	Over
	#	s	V	A	V	W	V	V	deg C	#	bits
	0	0.013333	8.22069E-001	-8.87165E-005	0.00000E+000	-7.29311E-005	-5.39641E-002	8.22253E-001	3.57260E+000	9	...........
	1	0.026667	8.09333E-001	-8.87165E-005	0.00000E+000	-7.18012E-005	-5.39641E-002	8.09508E-001	3.57260E+000	9	...........
	2	0.04	7.97430E-001	-8.87280E-005	0.00000E+000	-7.07544E-005	-5.39641E-002	7.97581E-001	3.57260E+000	9	...........
	3	0.053333	7.86132E-001	-8.87186E-005	0.00000E+000	-6.97445E-005	-5.39641E-002	7.86244E-001	3.57260E+000	9	...........
	4	0.066667	7.75317E-001	-8.88530E-005	0.00000E+000	-6.88892E-005	-5.39641E-002	7.75439E-001	3.57260E+000	9	...........
	5	0.08	7.64965E-001	-8.87436E-005	0.00000E+000	-6.78858E-005	-5.39641E-002	7.65085E-001	3.57260E+000	9	...........
	6	0.093333	7.55012E-001	-8.89207E-005	0.00000E+000	-6.71362E-005	-5.39641E-002	7.55100E-001	3.57260E+000	9	...........
	7	0.106667	7.45372E-001	-8.86290E-005	0.00000E+000	-6.60616E-005	-5.39641E-002	7.45476E-001	3.57260E+000	9	...........
	8	0.12	7.36031E-001	-8.86717E-005	0.00000E+000	-6.52651E-005	-5.39641E-002	7.36109E-001	3.57260E+000	9	...........
	9	0.133333	7.26988E-001	-8.86509E-005	0.00000E+000	-6.44481E-005	-5.39641E-002	7.27066E-001	3.57260E+000	9	...........
	10	0.146667	7.18184E-001	-8.85498E-005	0.00000E+000	-6.35951E-005	-5.39641E-002	7.18286E-001	3.57260E+000	9	...........
	11	0.16	7.09574E-001	-8.86488E-005	0.00000E+000	-6.29029E-005	-5.39641E-002	7.09701E-001	3.57260E+000	9	...........
	12	0.173333	7.01204E-001	-8.88103E-005	0.00000E+000	-6.22742E-005	-5.39641E-002	7.01338E-001	3.57260E+000	9	...........
	13	0.186667	6.93060E-001	-8.90135E-005	0.00000E+000	-6.16917E-005	-5.39641E-002	6.93184E-001	3.57260E+000	9	...........
	14	0.2	6.85066E-001	-8.85634E-005	0.00000E+000	-6.06717E-005	-5.39641E-002	6.85202E-001	3.57239E+000	9	...........
	15	0.213333	6.77278E-001	-8.86436E-005	0.00000E+000	-6.00364E-005	-5.39641E-002	6.77403E-001	3.57210E+000	9	...........
	16	0.226667	6.69615E-001	-8.86457E-005	0.00000E+000	-5.93585E-005	-5.39641E-002	6.69752E-001	3.57210E+000	9	...........
	17	0.24	6.62120E-001	-8.89041E-005	0.00000E+000	-5.88651E-005	-5.39641E-002	6.62252E-001	3.57210E+000	9	...........
	18	0.253333	6.54767E-001	-8.86863E-005	0.00000E+000	-5.80689E-005	-5.39641E-002	6.54899E-001	3.57210E+000	9	...........
	19	0.266667	6.47556E-001	-8.87155E-005	0.00000E+000	-5.74482E-005	-5.39641E-002	6.47683E-001	3.57210E+000	9	...........
	20	0.28	6.40483E-001	-8.85738E-005	0.00000E+000	-5.67300E-005	-5.39641E-002	6.40599E-001	3.57210E+000	9	...........
	21	0.293333	6.33483E-001	-8.88947E-005	0.00000E+000	-5.63133E-005	-5.39641E-002	6.33583E-001	3.57210E+000	9	...........
	22	0.306667	6.26637E-001	-8.87269E-005	0.00000E+000	-5.55996E-005	-5.39641E-002	6.26736E-001	3.57210E+000	9	...........
	23	0.32	6.19922E-001	-8.87551E-005	0.00000E+000	-5.50212E-005	-5.39641E-002	6.19979E-001	3.57210E+000	9	...........
	24	0.333333	6.13209E-001	-8.87457E-005	0.00000E+000	-5.44197E-005	-5.39641E-002	6.13342E-001	3.57210E+000	9	...........
	25	0.346667	6.06619E-001	-8.88645E-005	0.00000E+000	-5.39069E-005	-5.39641E-002	6.06766E-001	3.57210E+000	9	...........
	26	0.36	6.00169E-001	-8.85165E-005	0.00000E+000	-5.31249E-005	-5.39641E-002	6.00282E-001	3.57210E+000	9	...........
	27	0.373333	5.93773E-001	-8.87905E-005	0.00000E+000	-5.27214E-005	-5.39641E-002	5.93896E-001	3.57210E+000	9	...........
	28	0.386667	5.87452E-001	-8.84936E-005	0.00000E+000	-5.19858E-005	-5.39641E-002	5.87586E-001	3.57210E+000	9	...........
	29	0.4	5.81210E-001	-8.86259E-005	0.00000E+000	-5.15102E-005	-5.39641E-002	5.81326E-001	3.57210E+000	9	...........
	30	0.413333	5.75024E-001	-8.87957E-005	0.00000E+000	-5.10597E-005	-5.39641E-002	5.75156E-001	3.57210E+000	9	...........
	31	0.426667	5.68925E-001	-8.84873E-005	0.00000E+000	-5.03427E-005	-5.39641E-002	5.69034E-001	3.57210E+000	9	...........
	32	0.44	5.62859E-001	-8.86707E-005	0.00000E+000	-4.99091E-005	-5.39641E-002	5.62975E-001	3.57210E+000	9	...........
	33	0.453333	5.56877E-001	-8.87655E-005	0.00000E+000	-4.94315E-005	-5.39641E-002	5.56969E-001	3.57210E+000	9	...........
	34	0.466667	5.50953E-001	-8.86686E-005	0.00000E+000	-4.88522E-005	-5.39641E-002	5.51012E-001	3.57210E+000	9	...........
	35	0.48	5.45068E-001	-8.85342E-005	0.00000E+000	-4.82571E-005	-5.39641E-002	5.45124E-001	3.57210E+000	9	...........
	36	0.493333	5.39228E-001	-8.88166E-005	0.00000E+000	-4.78924E-005	-5.39641E-002	5.39315E-001	3.57210E+000	9	...........
	37	0.506667	5.33425E-001	-8.90572E-005	0.00000E+000	-4.75053E-005	-5.39641E-002	5.33475E-001	3.57210E+000	9	...........
	38	0.52	5.27640E-001	-8.86113E-005	0.00000E+000	-4.67549E-005	-5.39641E-002	5.27730E-001	3.57210E+000	9	...........
	39	0.533333	5.21957E-001	-8.87030E-005	0.00000E+000	-4.62991E-005	-5.39641E-002	5.22016E-001	3.57210E+000	9	...........
	40	0.546667	5.16288E-001	-8.85634E-005	0.00000E+000	-4.57242E-005	-5.39641E-002	5.16366E-001	3.57210E+000	9	...........
	41	0.56	5.10641E-001	-8.88166E-005	0.00000E+000	-4.53534E-005	-5.39641E-002	5.10739E-001	3.57210E+000	9	...........
	42	0.573333	5.05017E-001	-8.89176E-005	0.00000E+000	-4.49049E-005	-5.39641E-002	5.05151E-001	3.57210E+000	9	...........
	43	0.586667	4.99484E-001	-8.92073E-005	0.00000E+000	-4.45576E-005	-5.39641E-002	4.99599E-001	3.57210E+000	9	...........
	44	0.6	4.93969E-001	-8.88447E-005	0.00000E+000	-4.38865E-005	-5.39641E-002	4.94094E-001	3.57210E+000	9	...........
	45	0.613333	4.88523E-001	-8.89655E-005	0.00000E+000	-4.34617E-005	-5.39641E-002	4.88596E-001	3.57210E+000	9	...........
	46	0.626667	4.83130E-001	-8.86436E-005	0.00000E+000	-4.28264E-005	-5.39641E-002	4.83184E-001	3.57210E+000	9	...........
	47	0.64	4.77714E-001	-8.85853E-005	0.00000E+000	-4.23184E-005	-5.39641E-002	4.77772E-001	3.57210E+000	9	...........
	48	0.653333	4.72325E-001	-8.88624E-005	0.00000E+000	-4.19719E-005	-5.39641E-002	4.72385E-001	3.57210E+000	9	...........
	49	0.666667	4.66963E-001	-8.90458E-005	0.00000E+000	-4.15811E-005	-5.39641E-002	4.67020E-001	3.57210E+000	9	...........
	50	0.68	4.61604E-001	-8.88520E-005	0.00000E+000	-4.10144E-005	-5.39641E-002	4.61658E-001	3.57210E+000	9	...........
	51	0.693333	4.56282E-001	-8.89228E-005	0.00000E+000	-4.05739E-005	-5.39641E-002	4.56335E-001	3.57210E+000	9	...........
	52	0.706667	4.50975E-001	-8.88478E-005	0.00000E+000	-4.00682E-005	-5.39641E-002	4.51027E-001	3.57210E+000	9	...........
	53	0.72	4.45695E-001	-8.88447E-005	0.00000E+000	-3.95976E-005	-5.39641E-002	4.45744E-001	3.57210E+000	9	...........
	54	0.733333	4.40440E-001	-8.85675E-005	0.00000E+000	-3.90087E-005	-5.39641E-002	4.40492E-001	3.57210E+000	9	...........
	55	0.746667	4.35205E-001	-8.86999E-005	0.00000E+000	-3.86026E-005	-5.39641E-002	4.35263E-001	3.57210E+000	9	...........
	56	0.76	4.29984E-001	-8.87061E-005	0.00000E+000	-3.81422E-005	-5.39641E-002	4.30037E-001	3.57210E+000	9	...........
	57	0.773333	4.24771E-001	-8.88593E-005	0.00000E+000	-3.77448E-005	-5.39641E-002	4.24818E-001	3.57210E+000	9	...........
	58	0.786667	4.19584E-001	-8.86155E-005	0.00000E+000	-3.71816E-005	-5.39641E-002	4.19635E-001	3.57210E+000	9	...........
	59	0.8	4.14429E-001	-8.85936E-005	0.00000E+000	-3.67157E-005	-5.39641E-002	4.14480E-001	3.57210E+000	9	...........
	60	0.813333	4.09282E-001	-8.86321E-005	0.00000E+000	-3.62756E-005	-5.39641E-002	4.09334E-001	3.57210E+000	9	...........
	61	0.826667	4.04160E-001	-8.87780E-005	0.00000E+000	-3.58805E-005	-5.39641E-002	4.04203E-001	3.57210E+000	9	...........
	62	0.84	3.99049E-001	-8.85540E-005	0.00000E+000	-3.53374E-005	-5.39641E-002	3.99091E-001	3.57210E+000	9	...........
	63	0.853333	3.93944E-001	-8.85832E-005	0.00000E+000	-3.48968E-005	-5.39641E-002	3.93987E-001	3.57210E+000	9	...........
	64	0.866667	3.88870E-001	-8.86342E-005	0.00000E+000	-3.44672E-005	-5.39641E-002	3.88913E-001	3.57210E+000	9	...........
	65	0.88	3.83799E-001	-8.87269E-005	0.00000E+000	-3.40533E-005	-5.39641E-002	3.83839E-001	3.57210E+000	9	...........
	66	0.893333	3.78757E-001	-8.86582E-005	0.00000E+000	-3.35799E-005	-5.39641E-002	3.78798E-001	3.57210E+000	9	...........
	67	0.906667	3.73724E-001	-8.85248E-005	0.00000E+000	-3.30838E-005	-5.39641E-002	3.73762E-001	3.57210E+000	9	...........
	68	0.92	3.68710E-001	-8.87259E-005	0.00000E+000	-3.27141E-005	-5.39641E-002	3.68747E-001	3.57210E+000	9	...........
	69	0.933333	3.63731E-001	-8.87530E-005	0.00000E+000	-3.22822E-005	-5.39641E-002	3.63773E-001	3.57210E+000	9	...........
	70	0.946667	3.58769E-001	-8.86384E-005	0.00000E+000	-3.18007E-005	-5.39641E-002	3.58816E-001	3.57210E+000	9	...........
	71	0.96	3.53837E-001	-8.86634E-005	0.00000E+000	-3.13724E-005	-5.39641E-002	3.53869E-001	3.57210E+000	9	...........
	72	0.97333	3.48889E-001	-8.86051E-005	0.00000E+000	-3.09134E-005	-5.39641E-002	3.48933E-001	3.57210E+000	9	...........
	73	0.98667	3.43949E-001	-8.87968E-005	0.00000E+000	-3.05416E-005	-5.39641E-002	3.43992E-001	3.57210E+000	9	...........
	74	1	3.39047E-001	-8.87947E-005	0.00000E+000	-3.01056E-005	-5.39641E-002	3.39086E-001	3.57210E+000	9	...........
	75	1.01333	3.34160E-001	-8.85321E-005	0.00000E+000	-2.95839E-005	-5.39641E-002	3.34193E-001	3.57210E+000	9	...........
	76	1.02667	3.29306E-001	-8.89145E-005	0.00000E+000	-2.92801E-005	-5.39641E-002	3.29342E-001	3.57210E+000	9	...........
	77	1.04	3.24474E-001	-8.87394E-005	0.00000E+000	-2.87937E-005	-5.39641E-002	3.24511E-001	3.57210E+000	9	...........
	78	1.05333	3.19659E-001	-8.86009E-005	0.00000E+000	-2.83220E-005	-5.39641E-002	3.19693E-001	3.57210E+000	9	...........
	79	1.06667	3.14845E-001	-8.87092E-005	0.00000E+000	-2.79297E-005	-5.39641E-002	3.14883E-001	3.57210E+000	9	...........
	80	1.08	3.10073E-001	-8.86759E-005	0.00000E+000	-2.74960E-005	-5.39641E-002	3.10108E-001	3.57210E+000	9	...........
	81	1.09333	3.05301E-001	-8.88864E-005	0.00000E+000	-2.71371E-005	-5.39641E-002	3.05344E-001	3.57210E+000	9	...........
	82	1.10667	3.00555E-001	-8.85800E-005	0.00000E+000	-2.66232E-005	-5.39641E-002	3.00588E-001	3.57210E+000	9	...........
	83	1.12	2.95837E-001	-8.87915E-005	0.00000E+000	-2.62678E-005	-5.39641E-002	2.95872E-001	3.57210E+000	9	...........
	84	1.13333	2.91157E-001	-8.86457E-005	0.00000E+000	-2.58098E-005	-5.39641E-002	2.91193E-001	3.57210E+000	9	...........
	85	1.14667	2.86491E-001	-8.91385E-005	0.00000E+000	-2.55374E-005	-5.39641E-002	2.86527E-001	3.57210E+000	9	...........
	86	1.16	2.81856E-001	-8.90635E-005	0.00000E+000	-2.51031E-005	-5.39641E-002	2.81886E-001	3.57210E+000	9	...........
	87	1.17333	2.77218E-001	-8.85550E-005	0.00000E+000	-2.45491E-005	-5.39641E-002	2.77251E-001	3.57210E+000	9	...........
	88	1.18667	2.72588E-001	-8.85530E-005	0.00000E+000	-2.41385E-005	-5.39641E-002	2.72619E-001	3.57210E+000	9	...........
	89	1.2	2.67973E-001	-8.87499E-005	0.00000E+000	-2.37826E-005	-5.39641E-002	2.68007E-001	3.57210E+000	9	...........
	90	1.21333	2.63383E-001	-8.86936E-005	0.00000E+000	-2.33604E-005	-5.39641E-002	2.63417E-001	3.57210E+000	9	...........
	91	1.22667	2.58822E-001	-8.85863E-005	0.00000E+000	-2.29281E-005	-5.39641E-002	2.58848E-001	3.57210E+000	9	...........
	92	1.24	2.54274E-001	-8.89291E-005	0.00000E+000	-2.26123E-005	-5.39641E-002	2.54302E-001	3.57210E+000	9	...........
	93	1.25333	2.49757E-001	-8.86686E-005	0.00000E+000	-2.21456E-005	-5.39641E-002	2.49780E-001	3.57210E+000	9	...........
	94	1.26667	2.45267E-001	-8.88249E-005	0.00000E+000	-2.17858E-005	-5.39641E-002	2.45282E-001	3.57210E+000	9	...........
	95	1.28	2.40791E-001	-8.85446E-005	0.00000E+000	-2.13208E-005	-5.39641E-002	2.40812E-001	3.57210E+000	9	...........
	96	1.29333	2.36345E-001	-8.85311E-005	0.00000E+000	-2.09239E-005	-5.39641E-002	2.36362E-001	3.57210E+000	9	...........
	97	1.30667	2.31926E-001	-8.87134E-005	0.00000E+000	-2.05750E-005	-5.39641E-002	2.31942E-001	3.57210E+000	9	...........
	98	1.32	2.27521E-001	-8.86009E-005	0.00000E+000	-2.01585E-005	-5.39641E-002	2.27543E-001	3.57210E+000	9	...........
	99	1.33333	2.23140E-001	-8.84696E-005	0.00000E+000	-1.97411E-005	-5.39641E-002	2.23162E-001	3.57210E+000	9	...........
	100	1.34667	2.18778E-001	-8.87853E-005	0.00000E+000	-1.94243E-005	-5.39641E-002	2.18794E-001	3.57210E+000	9	...........
	101	1.36	2.14445E-001	-8.88520E-005	0.00000E+000	-1.90539E-005	-5.39641E-002	2.14460E-001	3.57210E+000	9	...........
	102	1.37333	2.10114E-001	-8.88332E-005	0.00000E+000	-1.86651E-005	-5.39641E-002	2.10131E-001	3.57210E+000	9	...........
	103	1.38667	2.05793E-001	-8.85644E-005	0.00000E+000	-1.82260E-005	-5.39641E-002	2.05810E-001	3.57210E+000	9	...........
	104	1.4	2.01505E-001	-8.87467E-005	0.00000E+000	-1.78829E-005	-5.39641E-002	2.01527E-001	3.57210E+000	9	...........
	105	1.41333	1.97247E-001	-8.89676E-005	0.00000E+000	-1.75486E-005	-5.39641E-002	1.97264E-001	3.57210E+000	9	...........
	106	1.42667	1.93009E-001	-8.89499E-005	0.00000E+000	-1.71681E-005	-5.39641E-002	1.93032E-001	3.57210E+000	9	...........
	107	1.44	1.88793E-001	-8.86446E-005	0.00000E+000	-1.67355E-005	-5.39641E-002	1.88812E-001	3.57210E+000	9	...........
	108	1.45333	1.84574E-001	-8.87999E-005	0.00000E+000	-1.63901E-005	-5.39641E-002	1.84593E-001	3.57210E+000	9	...........
	109	1.46667	1.80382E-001	-8.88541E-005	0.00000E+000	-1.60277E-005	-5.39641E-002	1.80410E-001	3.57210E+000	9	...........
	110	1.48	1.76226E-001	-8.87311E-005	0.00000E+000	-1.56367E-005	-5.39641E-002	1.76244E-001	3.57210E+000	9	...........
	111	1.49333	1.72083E-001	-8.87822E-005	0.00000E+000	-1.52779E-005	-5.39641E-002	1.72098E-001	3.57210E+000	9	...........
	112	1.50667	1.67962E-001	-8.86384E-005	0.00000E+000	-1.48879E-005	-5.39641E-002	1.67973E-001	3.57210E+000	9	...........
	113	1.52	1.63860E-001	-8.85748E-005	0.00000E+000	-1.45138E-005	-5.39641E-002	1.63871E-001	3.57210E+000	9	...........
	114	1.53333	1.59781E-001	-8.87749E-005	0.00000E+000	-1.41845E-005	-5.39641E-002	1.59794E-001	3.57210E+000	9	...........
	115	1.54667	1.55704E-001	-8.86165E-005	0.00000E+000	-1.37979E-005	-5.39641E-002	1.55716E-001	3.57210E+000	9	...........
	116	1.56	1.51643E-001	-8.85946E-005	0.00000E+000	-1.34348E-005	-5.39641E-002	1.51656E-001	3.57210E+000	9	...........
	117	1.57333	1.47615E-001	-8.87332E-005	0.00000E+000	-1.30984E-005	-5.39641E-002	1.47626E-001	3.57210E+000	9	...........
	118	1.58667	1.43605E-001	-8.85832E-005	0.00000E+000	-1.27210E-005	-5.39641E-002	1.43613E-001	3.57210E+000	9	...........
	119	1.6	1.39598E-001	-8.88113E-005	0.00000E+000	-1.23979E-005	-5.39641E-002	1.39608E-001	3.57210E+000	9	...........
	120	1.61333	1.35603E-001	-8.87582E-005	0.00000E+000	-1.20359E-005	-5.39641E-002	1.35611E-001	3.57210E+000	9	...........
	121	1.62667	1.31608E-001	-8.87249E-005	0.00000E+000	-1.16769E-005	-5.39641E-002	1.31618E-001	3.57210E+000	9	...........
	122	1.64	1.27635E-001	-8.88603E-005	0.00000E+000	-1.13417E-005	-5.39641E-002	1.27642E-001	3.57210E+000	9	...........
	123	1.65333	1.23677E-001	-8.87707E-005	0.00000E+000	-1.09789E-005	-5.39641E-002	1.23685E-001	3.57210E+000	9	...........
	124	1.66667	1.19737E-001	-8.84686E-005	0.00000E+000	-1.05930E-005	-5.39641E-002	1.19753E-001	3.57210E+000	9	...........
	125	1.68	1.15847E-001	-8.88238E-005	0.00000E+000	-1.02900E-005	-5.39641E-002	1.15855E-001	3.57210E+000	9	...........
	126	1.69333	1.11934E-001	-8.90947E-005	0.00000E+000	-9.97270E-006	-5.39641E-002	1.11948E-001	3.57210E+000	9	...........
	127	1.70667	1.08031E-001	-8.87655E-005	0.00000E+000	-9.58943E-006	-5.39641E-002	1.08041E-001	3.57210E+000	9	...........
	128	1.72	1.04150E-001	-8.87905E-005	0.00000E+000	-9.24751E-006	-5.39641E-002	1.04157E-001	3.57210E+000	9	...........
	129	1.73333	1.00308E-001	-8.88082E-005	0.00000E+000	-8.90821E-006	-5.39641E-002	1.00320E-001	3.57210E+000	9	...........
	130	1.74667	9.64864E-002	-8.87551E-005	0.00000E+000	-8.56365E-006	-5.39641E-002	9.64974E-002	3.57210E+000	9	...........
	131	1.76	9.26636E-002	-8.87249E-005	0.00000E+000	-8.22157E-006	-5.39641E-002	9.26734E-002	3.57210E+000	9	...........
	132	1.77333	8.88666E-002	-8.87842E-005	0.00000E+000	-7.88995E-006	-5.39641E-002	8.88723E-002	3.57210E+000	9	...........
	133	1.78667	8.50778E-002	-8.84967E-005	0.00000E+000	-7.52910E-006	-5.39641E-002	8.50855E-002	3.57210E+000	9	...........
	134	1.8	8.13035E-002	-8.85623E-005	0.00000E+000	-7.20043E-006	-5.39641E-002	8.13067E-002	3.57210E+000	9	...........
	135	1.81333	7.75430E-002	-8.87811E-005	0.00000E+000	-6.88435E-006	-5.39641E-002	7.75473E-002	3.57210E+000	9	...........
	136	1.82667	7.38018E-002	-8.85884E-005	0.00000E+000	-6.53798E-006	-5.39641E-002	7.38056E-002	3.57210E+000	9	...........
	137	1.84	7.00625E-002	-8.86926E-005	0.00000E+000	-6.21403E-006	-5.39641E-002	7.00640E-002	3.57210E+000	9	...........
	138	1.85333	6.63648E-002	-8.88645E-005	0.00000E+000	-5.89747E-006	-5.39641E-002	6.63659E-002	3.57210E+000	9	...........
	139	1.86667	6.26672E-002	-8.87572E-005	0.00000E+000	-5.56216E-006	-5.39641E-002	6.26676E-002	3.57210E+000	9	...........
	140	1.88	5.89713E-002	-8.88968E-005	0.00000E+000	-5.24236E-006	-5.39641E-002	5.89701E-002	3.57210E+000	9	...........
	141	1.89333	5.53068E-002	-8.86228E-005	0.00000E+000	-4.90145E-006	-5.39641E-002	5.53029E-002	3.57210E+000	9	...........
	142	1.90667	5.16588E-002	-8.88249E-005	0.00000E+000	-4.58858E-006	-5.39641E-002	5.16629E-002	3.57210E+000	9	...........
	143	1.92	4.80434E-002	-8.88072E-005	0.00000E+000	-4.26660E-006	-5.39641E-002	4.80470E-002	3.57210E+000	9	...........
	144	1.93333	4.44388E-002	-8.89041E-005	0.00000E+000	-3.95079E-006	-5.39641E-002	4.44431E-002	3.57210E+000	9	...........
	145	1.94667	4.08424E-002	-8.88364E-005	0.00000E+000	-3.62829E-006	-5.39641E-002	4.08468E-002	3.57210E+000	9	...........
	146	1.96	3.72571E-002	-8.88530E-005	0.00000E+000	-3.31040E-006	-5.39641E-002	3.72617E-002	3.57210E+000	9	...........
	147	1.97333	3.36923E-002	-8.86301E-005	0.00000E+000	-2.98615E-006	-5.39641E-002	3.36931E-002	3.57210E+000	9	...........
	148	1.98667	3.01362E-002	-8.86926E-005	0.00000E+000	-2.67286E-006	-5.39641E-002	3.01381E-002	3.57210E+000	9	...........
	149	2	2.66021E-002	-8.89645E-005	0.00000E+000	-2.36664E-006	-5.39641E-002	2.66062E-002	3.57210E+000	9	...........
	150	2.01333	2.30790E-002	-8.86123E-005	0.00000E+000	-2.04509E-006	-5.39641E-002	2.30713E-002	3.57210E+000	9	...........
	151	2.02667	1.95589E-002	-8.89312E-005	0.00000E+000	-1.73939E-006	-5.39641E-002	1.95557E-002	3.57210E+000	9	...........
	152	2.04	1.60656E-002	-8.89635E-005	0.00000E+000	-1.42926E-006	-5.39641E-002	1.60595E-002	3.57210E+000	9	...........
	153	2.05333	1.25838E-002	-8.86196E-005	0.00000E+000	-1.11518E-006	-5.39641E-002	1.25756E-002	3.57210E+000	9	...........
	154	2.06667	9.11696E-003	-8.89895E-005	0.00000E+000	-8.11314E-007	-5.39641E-002	9.11038E-003	3.57210E+000	9	...........
	155	2.08	5.67631E-003	-8.89697E-005	0.00000E+000	-5.05020E-007	-5.39641E-002	5.66688E-003	3.57210E+000	9	...........
	156	2.09333	2.24408E-003	-8.87718E-005	0.00000E+000	-1.99211E-007	-5.39641E-002	2.23118E-003	3.57210E+000	9	...........
	157	2.09667	1.18897E-004	-8.88624E-005	0.00000E+000	-1.05654E-008	-5.39641E-002	1.01817E-004	3.57210E+000	9	...........
STARTTIMEOFFSET	QUANT	1152.77	Start Time Offset (s)
