EXPLAIN
TAG	PWR800_DISCHARGE
TITLE	LABEL	PWR Cyclic Charge Discharge (Cell) - Discharge Step	Test &Identifier
DATE	LABEL	10-7-2017	Date
TIME	LABEL	15:32:42	Time
NOTES	NOTES	3	&Notes...
	supercap test cell
	0.9mg
	6M KOH
PSTAT	PSTAT	IFC5000-01520	Potentiostat
CAPACITY	QUANT	1.00000E-003	Capacity (A-hr)
CELLTYPE	SELECTOR	1	&Cell Type
WORKINGCONNECTION	SELECTOR	0	&Working Lead
MAXDISCHARGETIME	VARIABLEANDUNITS	1.00000E+002	s	1.00000E+002	second(s)	Max &Discharge Time
DISCHARGEMODE	MULTIPARAM	0	9.00000E-005	&Discharge Mode	Constant Current	Amp(s)
SAMPLETIME	QUANT	1.00000E-002	Sa&mple Period (s)
DISCHARGESTOPAT1	MULTIPARAM	3	0.00000E+000	Discharge Stop At &1	Voltage < Limit	V
DISCHARGESTOPAT2	MULTIPARAM	0	0.00000E+000	Discharge Stop At &2	None	N/A
AESBHCSELECTOR	TOGGLE	F	Save Both Half Cells
IRCOMP	TOGGLE	F	IR &Measure
EOC	QUANT	0	Open Circuit (V)
SEQUENCER	TOGGLE	TRUE	Run as Sequence
PSTATMODEL	IQUANT	53	Pstat Model
PSTATSECTION	LABEL	IFC5000-01520	Pstat Section
PSTATSERIALNO	LABEL	01520	Pstat Serial Number
CTRLMODE	IQUANT	0	Control Mode
ELECTROMETER	IQUANT	1	RE=0 or CS=1
IESTAB	IQUANT	0	I/E Stability
CASPEED	IQUANT	4	Control Amp Speed
CONVENTION	IQUANT	1	Current Convention
ICHRANGE	IQUANT	2	Ich Range
ICHRANGEMODE	TOGGLE	T	Ich Auto Range
ICHOFFSETENABLE	TOGGLE	F	Ich Offset Enable
ICHOFFSET	QUANT	0	Ich Offset (V)
ICHFILTER	IQUANT	1	Ich Filter
VCHRANGE	IQUANT	2	Vch Range
VCHRANGEMODE	TOGGLE	T	Vch Auto Range
VCHOFFSETENABLE	TOGGLE	F	Vch Offset Enable
VCHOFFSET	QUANT	0	Vch Offset (V)
VCHFILTER	IQUANT	1	Vch Filter
IERANGELOWERLIMIT	IQUANT	9	I/E Range Lower Limit
IERANGEMODE	TOGGLE	F	I/E AutoRange
IERANGE	IQUANT	9	I/E Range
ACHSELECT	IQUANT	1	Ach Select
ACHRANGE	IQUANT	2	Ach Range
ACHOFFSETENABLE	TOGGLE	F	Ach Offset Enable
ACHOFFSET	QUANT	0	Ach Offset (V)
ACHFILTER	IQUANT	1	Ach Filter
CABLEID	IQUANT	14	Cable ID
DCCALDATE	LABEL	5-7-2017	DC Calibration Date
ACCALDATE	LABEL	12/3/2015	AC Calibration Date
FRAMEWORKVERSION	QUANT	7.01	Framework Version
INSTRUMENTVERSION	LABEL	4.00	Instrument Version
CURVE	TABLE	155
	Pt	T	Vf	Im	Vu	Pwr	Sig	Ach	Temp	IERange	Over
	#	s	V	A	V	W	V	V	deg C	#	bits
	0	0.013333	8.16221E-001	-8.87051E-005	0.00000E+000	-7.24029E-005	-5.39641E-002	8.16351E-001	3.57240E+000	9	...........
	1	0.026667	8.02942E-001	-8.87238E-005	0.00000E+000	-7.12401E-005	-5.39641E-002	8.03100E-001	3.57240E+000	9	...........
	2	0.04	7.90570E-001	-8.87259E-005	0.00000E+000	-7.01440E-005	-5.39641E-002	7.90716E-001	3.57240E+000	9	...........
	3	0.053333	7.78859E-001	-8.86113E-005	0.00000E+000	-6.90157E-005	-5.39641E-002	7.78984E-001	3.57240E+000	9	...........
	4	0.066667	7.67681E-001	-8.87884E-005	0.00000E+000	-6.81612E-005	-5.39641E-002	7.67834E-001	3.57240E+000	9	...........
	5	0.08	7.56995E-001	-8.86488E-005	0.00000E+000	-6.71067E-005	-5.39641E-002	7.57099E-001	3.57240E+000	9	...........
	6	0.093333	7.46724E-001	-8.88218E-005	0.00000E+000	-6.63253E-005	-5.39641E-002	7.46859E-001	3.57240E+000	9	...........
	7	0.106667	7.36805E-001	-8.89197E-005	0.00000E+000	-6.55165E-005	-5.39641E-002	7.36931E-001	3.57240E+000	9	...........
	8	0.12	7.27268E-001	-8.88999E-005	0.00000E+000	-6.46540E-005	-5.39641E-002	7.27378E-001	3.57240E+000	9	...........
	9	0.133333	7.17983E-001	-8.88624E-005	0.00000E+000	-6.38017E-005	-5.39641E-002	7.18108E-001	3.57240E+000	9	...........
	10	0.146667	7.08968E-001	-8.84623E-005	0.00000E+000	-6.27170E-005	-5.39641E-002	7.09086E-001	3.57240E+000	9	...........
	11	0.16	7.00231E-001	-8.87936E-005	0.00000E+000	-6.21761E-005	-5.39641E-002	7.00348E-001	3.57240E+000	9	...........
	12	0.173333	6.91683E-001	-8.86874E-005	0.00000E+000	-6.13436E-005	-5.39641E-002	6.91818E-001	3.57240E+000	9	...........
	13	0.186667	6.83381E-001	-8.86957E-005	0.00000E+000	-6.06130E-005	-5.39641E-002	6.83520E-001	3.57240E+000	9	...........
	14	0.2	6.75302E-001	-8.90447E-005	0.00000E+000	-6.01321E-005	-5.39641E-002	6.75425E-001	3.57240E+000	9	...........
	15	0.213333	6.67387E-001	-8.85957E-005	0.00000E+000	-5.91276E-005	-5.39641E-002	6.67525E-001	3.57240E+000	9	...........
	16	0.226667	6.59620E-001	-8.85873E-005	0.00000E+000	-5.84340E-005	-5.39641E-002	6.59728E-001	3.57240E+000	9	...........
	17	0.24	6.51999E-001	-8.88947E-005	0.00000E+000	-5.79592E-005	-5.39641E-002	6.52135E-001	3.57240E+000	9	...........
	18	0.253333	6.44557E-001	-8.86801E-005	0.00000E+000	-5.71594E-005	-5.39641E-002	6.44661E-001	3.57240E+000	9	...........
	19	0.266667	6.37244E-001	-8.85894E-005	0.00000E+000	-5.64531E-005	-5.39641E-002	6.37366E-001	3.57240E+000	9	...........
	20	0.28	6.30089E-001	-8.87290E-005	0.00000E+000	-5.59072E-005	-5.39641E-002	6.30187E-001	3.57240E+000	9	...........
	21	0.293333	6.23057E-001	-8.86894E-005	0.00000E+000	-5.52586E-005	-5.39641E-002	6.23146E-001	3.57240E+000	9	...........
	22	0.306667	6.16147E-001	-8.89687E-005	0.00000E+000	-5.48177E-005	-5.39641E-002	6.16251E-001	3.57240E+000	9	...........
	23	0.32	6.09263E-001	-8.88186E-005	0.00000E+000	-5.41139E-005	-5.39641E-002	6.09389E-001	3.57240E+000	9	...........
	24	0.333333	6.02553E-001	-8.86301E-005	0.00000E+000	-5.34043E-005	-5.39641E-002	6.02671E-001	3.57240E+000	9	...........
	25	0.346667	5.95970E-001	-8.84988E-005	0.00000E+000	-5.27427E-005	-5.39641E-002	5.96040E-001	3.57240E+000	9	...........
	26	0.36	5.89454E-001	-8.89437E-005	0.00000E+000	-5.24282E-005	-5.39641E-002	5.89540E-001	3.57240E+000	9	...........
	27	0.373333	5.83028E-001	-8.88707E-005	0.00000E+000	-5.18141E-005	-5.39641E-002	5.83096E-001	3.57240E+000	9	...........
	28	0.386667	5.76695E-001	-8.88124E-005	0.00000E+000	-5.12176E-005	-5.39641E-002	5.76753E-001	3.57240E+000	9	...........
	29	0.4	5.70435E-001	-8.87155E-005	0.00000E+000	-5.06064E-005	-5.39641E-002	5.70490E-001	3.57240E+000	9	...........
	30	0.413333	5.64242E-001	-8.86697E-005	0.00000E+000	-5.00312E-005	-5.39641E-002	5.64326E-001	3.57240E+000	9	...........
	31	0.426667	5.58098E-001	-8.86697E-005	0.00000E+000	-4.94863E-005	-5.39641E-002	5.58175E-001	3.57240E+000	9	...........
	32	0.44	5.52087E-001	-8.85280E-005	0.00000E+000	-4.88751E-005	-5.39641E-002	5.52166E-001	3.57240E+000	9	...........
	33	0.453333	5.46111E-001	-8.87228E-005	0.00000E+000	-4.84525E-005	-5.39641E-002	5.46184E-001	3.57240E+000	9	...........
	34	0.466667	5.40171E-001	-8.88072E-005	0.00000E+000	-4.79711E-005	-5.39641E-002	5.40247E-001	3.57240E+000	9	...........
	35	0.48	5.34269E-001	-8.87645E-005	0.00000E+000	-4.74241E-005	-5.39641E-002	5.34375E-001	3.57240E+000	9	...........
	36	0.493333	5.28443E-001	-8.86905E-005	0.00000E+000	-4.68679E-005	-5.39641E-002	5.28561E-001	3.57240E+000	9	...........
	37	0.506667	5.22680E-001	-8.83863E-005	0.00000E+000	-4.61977E-005	-5.39641E-002	5.22769E-001	3.57240E+000	9	...........
	38	0.52	5.16995E-001	-8.88103E-005	0.00000E+000	-4.59145E-005	-5.39641E-002	5.17057E-001	3.57240E+000	9	...........
	39	0.533333	5.11290E-001	-8.87249E-005	0.00000E+000	-4.53642E-005	-5.39641E-002	5.11386E-001	3.57240E+000	9	...........
	40	0.546667	5.05653E-001	-8.88999E-005	0.00000E+000	-4.49525E-005	-5.39641E-002	5.05778E-001	3.57240E+000	9	...........
	41	0.56	5.00101E-001	-8.87780E-005	0.00000E+000	-4.43980E-005	-5.39641E-002	5.00198E-001	3.57240E+000	9	...........
	42	0.573333	4.94575E-001	-8.88145E-005	0.00000E+000	-4.39255E-005	-5.39641E-002	4.94660E-001	3.57240E+000	9	...........
	43	0.586667	4.89075E-001	-8.85623E-005	0.00000E+000	-4.33136E-005	-5.39641E-002	4.89138E-001	3.57240E+000	9	...........
	44	0.6	4.83674E-001	-8.87197E-005	0.00000E+000	-4.29114E-005	-5.39641E-002	4.83737E-001	3.57240E+000	9	...........
	45	0.613333	4.78285E-001	-8.89947E-005	0.00000E+000	-4.25649E-005	-5.39641E-002	4.78341E-001	3.57240E+000	9	...........
	46	0.626667	4.72881E-001	-8.88509E-005	0.00000E+000	-4.20160E-005	-5.39641E-002	4.72940E-001	3.57240E+000	9	...........
	47	0.64	4.67482E-001	-8.88405E-005	0.00000E+000	-4.15313E-005	-5.39641E-002	4.67541E-001	3.57240E+000	9	...........
	48	0.653333	4.62118E-001	-8.86051E-005	0.00000E+000	-4.09460E-005	-5.39641E-002	4.62175E-001	3.57240E+000	9	...........
	49	0.666667	4.56774E-001	-8.88197E-005	0.00000E+000	-4.05705E-005	-5.39641E-002	4.56832E-001	3.57275E+000	9	...........
	50	0.68	4.51466E-001	-8.88395E-005	0.00000E+000	-4.01080E-005	-5.39641E-002	4.51519E-001	3.57380E+000	9	...........
	51	0.693333	4.46183E-001	-8.89093E-005	0.00000E+000	-3.96698E-005	-5.39641E-002	4.46240E-001	3.57380E+000	9	...........
	52	0.706667	4.40926E-001	-8.88541E-005	0.00000E+000	-3.91780E-005	-5.39641E-002	4.40979E-001	3.57380E+000	9	...........
	53	0.72	4.35695E-001	-8.90280E-005	0.00000E+000	-3.87891E-005	-5.39641E-002	4.35742E-001	3.57380E+000	9	...........
	54	0.733333	4.30475E-001	-8.87488E-005	0.00000E+000	-3.82041E-005	-5.39641E-002	4.30532E-001	3.57380E+000	9	...........
	55	0.746667	4.25278E-001	-8.87467E-005	0.00000E+000	-3.77421E-005	-5.39641E-002	4.25327E-001	3.57380E+000	9	...........
	56	0.76	4.20089E-001	-8.88301E-005	0.00000E+000	-3.73165E-005	-5.39641E-002	4.20142E-001	3.57380E+000	9	...........
	57	0.773333	4.14933E-001	-8.88749E-005	0.00000E+000	-3.68771E-005	-5.39641E-002	4.14990E-001	3.57380E+000	9	...........
	58	0.786667	4.09811E-001	-8.87999E-005	0.00000E+000	-3.63911E-005	-5.39641E-002	4.09864E-001	3.57380E+000	9	...........
	59	0.8	4.04694E-001	-8.84790E-005	0.00000E+000	-3.58070E-005	-5.39641E-002	4.04747E-001	3.57380E+000	9	...........
	60	0.813333	3.99596E-001	-8.88968E-005	0.00000E+000	-3.55228E-005	-5.39641E-002	3.99640E-001	3.57380E+000	9	...........
	61	0.826667	3.94506E-001	-8.91197E-005	0.00000E+000	-3.51583E-005	-5.39641E-002	3.94554E-001	3.57380E+000	9	...........
	62	0.84	3.89433E-001	-8.86248E-005	0.00000E+000	-3.45135E-005	-5.39641E-002	3.89482E-001	3.57380E+000	9	...........
	63	0.853333	3.84404E-001	-8.89478E-005	0.00000E+000	-3.41919E-005	-5.39641E-002	3.84449E-001	3.57380E+000	9	...........
	64	0.866667	3.79405E-001	-8.88145E-005	0.00000E+000	-3.36966E-005	-5.39641E-002	3.79452E-001	3.57380E+000	9	...........
	65	0.88	3.74425E-001	-8.85957E-005	0.00000E+000	-3.31725E-005	-5.39641E-002	3.74477E-001	3.57380E+000	9	...........
	66	0.893333	3.69448E-001	-8.89447E-005	0.00000E+000	-3.28604E-005	-5.39641E-002	3.69496E-001	3.57380E+000	9	...........
	67	0.906667	3.64469E-001	-8.88853E-005	0.00000E+000	-3.23960E-005	-5.39641E-002	3.64514E-001	3.57380E+000	9	...........
	68	0.92	3.59493E-001	-8.85498E-005	0.00000E+000	-3.18330E-005	-5.39641E-002	3.59539E-001	3.57380E+000	9	...........
	69	0.933333	3.54518E-001	-8.86488E-005	0.00000E+000	-3.14276E-005	-5.39641E-002	3.54560E-001	3.57380E+000	9	...........
	70	0.946667	3.49567E-001	-8.87863E-005	0.00000E+000	-3.10368E-005	-5.39641E-002	3.49611E-001	3.57380E+000	9	...........
	71	0.96	3.44633E-001	-8.88655E-005	0.00000E+000	-3.06260E-005	-5.39641E-002	3.44678E-001	3.57380E+000	9	...........
	72	0.97333	3.39724E-001	-8.88645E-005	0.00000E+000	-3.01894E-005	-5.39641E-002	3.39766E-001	3.57380E+000	9	...........
	73	0.98667	3.34826E-001	-8.86123E-005	0.00000E+000	-2.96697E-005	-5.39641E-002	3.34868E-001	3.57380E+000	9	...........
	74	1	3.29949E-001	-8.88718E-005	0.00000E+000	-2.93231E-005	-5.39641E-002	3.29989E-001	3.57380E+000	9	...........
	75	1.01333	3.25086E-001	-8.88561E-005	0.00000E+000	-2.88859E-005	-5.39641E-002	3.25130E-001	3.57380E+000	9	...........
	76	1.02667	3.20246E-001	-8.89072E-005	0.00000E+000	-2.84722E-005	-5.39641E-002	3.20286E-001	3.57380E+000	9	...........
	77	1.04	3.15414E-001	-8.90072E-005	0.00000E+000	-2.80741E-005	-5.39641E-002	3.15457E-001	3.57380E+000	9	...........
	78	1.05333	3.10607E-001	-8.87436E-005	0.00000E+000	-2.75644E-005	-5.39641E-002	3.10649E-001	3.57380E+000	9	...........
	79	1.06667	3.05828E-001	-8.88541E-005	0.00000E+000	-2.71741E-005	-5.39641E-002	3.05871E-001	3.57380E+000	9	...........
	80	1.08	3.01065E-001	-8.87415E-005	0.00000E+000	-2.67169E-005	-5.39641E-002	3.01102E-001	3.57380E+000	9	...........
	81	1.09333	2.96322E-001	-8.86540E-005	0.00000E+000	-2.62701E-005	-5.39641E-002	2.96362E-001	3.57380E+000	9	...........
	82	1.10667	2.91614E-001	-8.86290E-005	0.00000E+000	-2.58455E-005	-5.39641E-002	2.91658E-001	3.57380E+000	9	...........
	83	1.12	2.86929E-001	-8.90999E-005	0.00000E+000	-2.55654E-005	-5.39641E-002	2.86972E-001	3.57380E+000	9	...........
	84	1.13333	2.82248E-001	-8.86009E-005	0.00000E+000	-2.50074E-005	-5.39641E-002	2.82286E-001	3.57380E+000	9	...........
	85	1.14667	2.77564E-001	-8.87499E-005	0.00000E+000	-2.46337E-005	-5.39641E-002	2.77602E-001	3.57380E+000	9	...........
	86	1.16	2.72886E-001	-8.86915E-005	0.00000E+000	-2.42027E-005	-5.39641E-002	2.72923E-001	3.57380E+000	9	...........
	87	1.17333	2.68220E-001	-8.89447E-005	0.00000E+000	-2.38567E-005	-5.39641E-002	2.68251E-001	3.57380E+000	9	...........
	88	1.18667	2.63569E-001	-8.87759E-005	0.00000E+000	-2.33985E-005	-5.39641E-002	2.63608E-001	3.57380E+000	9	...........
	89	1.2	2.58954E-001	-8.87676E-005	0.00000E+000	-2.29867E-005	-5.39641E-002	2.58992E-001	3.57380E+000	9	...........
	90	1.21333	2.54363E-001	-8.87811E-005	0.00000E+000	-2.25826E-005	-5.39641E-002	2.54400E-001	3.57380E+000	9	...........
	91	1.22667	2.49800E-001	-8.87780E-005	0.00000E+000	-2.21767E-005	-5.39641E-002	2.49835E-001	3.57380E+000	9	...........
	92	1.24	2.45283E-001	-8.87374E-005	0.00000E+000	-2.17658E-005	-5.39641E-002	2.45314E-001	3.57380E+000	9	...........
	93	1.25333	2.40775E-001	-8.87822E-005	0.00000E+000	-2.13765E-005	-5.39641E-002	2.40806E-001	3.57380E+000	9	...........
	94	1.26667	2.36290E-001	-8.87603E-005	0.00000E+000	-2.09732E-005	-5.39641E-002	2.36320E-001	3.57380E+000	9	...........
	95	1.28	2.31829E-001	-8.88509E-005	0.00000E+000	-2.05982E-005	-5.39641E-002	2.31855E-001	3.57380E+000	9	...........
	96	1.29333	2.27374E-001	-8.87780E-005	0.00000E+000	-2.01858E-005	-5.39641E-002	2.27399E-001	3.57380E+000	9	...........
	97	1.30667	2.22946E-001	-8.88291E-005	0.00000E+000	-1.98041E-005	-5.39641E-002	2.22970E-001	3.57380E+000	9	...........
	98	1.32	2.18535E-001	-8.86405E-005	0.00000E+000	-1.93711E-005	-5.39641E-002	2.18560E-001	3.57380E+000	9	...........
	99	1.33333	2.14156E-001	-8.85946E-005	0.00000E+000	-1.89730E-005	-5.39641E-002	2.14175E-001	3.57380E+000	9	...........
	100	1.34667	2.09791E-001	-8.85384E-005	0.00000E+000	-1.85746E-005	-5.39641E-002	2.09814E-001	3.57380E+000	9	...........
	101	1.36	2.05426E-001	-8.88749E-005	0.00000E+000	-1.82572E-005	-5.39641E-002	2.05452E-001	3.57380E+000	9	...........
	102	1.37333	2.01105E-001	-8.85425E-005	0.00000E+000	-1.78064E-005	-5.39641E-002	2.01132E-001	3.57380E+000	9	...........
	103	1.38667	1.96807E-001	-8.88832E-005	0.00000E+000	-1.74928E-005	-5.39641E-002	1.96830E-001	3.57380E+000	9	...........
	104	1.4	1.92515E-001	-8.87843E-005	0.00000E+000	-1.70923E-005	-5.39641E-002	1.92531E-001	3.57380E+000	9	...........
	105	1.41333	1.88212E-001	-8.89853E-005	0.00000E+000	-1.67481E-005	-5.39641E-002	1.88231E-001	3.57380E+000	9	...........
	106	1.42667	1.83937E-001	-8.88416E-005	0.00000E+000	-1.63412E-005	-5.39641E-002	1.83955E-001	3.57380E+000	9	...........
	107	1.44	1.79713E-001	-8.89780E-005	0.00000E+000	-1.59905E-005	-5.39641E-002	1.79731E-001	3.57380E+000	9	...........
	108	1.45333	1.75505E-001	-8.84831E-005	0.00000E+000	-1.55293E-005	-5.39641E-002	1.75521E-001	3.57380E+000	9	...........
	109	1.46667	1.71311E-001	-8.90614E-005	0.00000E+000	-1.52572E-005	-5.39641E-002	1.71329E-001	3.57380E+000	9	...........
	110	1.48	1.67129E-001	-8.88020E-005	0.00000E+000	-1.48414E-005	-5.39641E-002	1.67143E-001	3.57380E+000	9	...........
	111	1.49333	1.62958E-001	-8.87895E-005	0.00000E+000	-1.44690E-005	-5.39641E-002	1.62973E-001	3.57380E+000	9	...........
	112	1.50667	1.58816E-001	-8.87092E-005	0.00000E+000	-1.40884E-005	-5.39641E-002	1.58825E-001	3.57380E+000	9	...........
	113	1.52	1.54705E-001	-8.88603E-005	0.00000E+000	-1.37471E-005	-5.39641E-002	1.54717E-001	3.57380E+000	9	...........
	114	1.53333	1.50618E-001	-8.86280E-005	0.00000E+000	-1.33490E-005	-5.39641E-002	1.50628E-001	3.57380E+000	9	...........
	115	1.54667	1.46537E-001	-8.86290E-005	0.00000E+000	-1.29874E-005	-5.39641E-002	1.46544E-001	3.57380E+000	9	...........
	116	1.56	1.42450E-001	-8.88249E-005	0.00000E+000	-1.26531E-005	-5.39641E-002	1.42466E-001	3.57380E+000	9	...........
	117	1.57333	1.38368E-001	-8.86321E-005	0.00000E+000	-1.22638E-005	-5.39641E-002	1.38386E-001	3.57380E+000	9	...........
	118	1.58667	1.34325E-001	-8.89405E-005	0.00000E+000	-1.19469E-005	-5.39641E-002	1.34336E-001	3.57380E+000	9	...........
	119	1.6	1.30296E-001	-8.88499E-005	0.00000E+000	-1.15767E-005	-5.39641E-002	1.30304E-001	3.57380E+000	9	...........
	120	1.61333	1.26300E-001	-8.89312E-005	0.00000E+000	-1.12320E-005	-5.39641E-002	1.26308E-001	3.57380E+000	9	...........
	121	1.62667	1.22321E-001	-8.88718E-005	0.00000E+000	-1.08709E-005	-5.39641E-002	1.22331E-001	3.57380E+000	9	...........
	122	1.64	1.18368E-001	-8.87176E-005	0.00000E+000	-1.05013E-005	-5.39641E-002	1.18382E-001	3.57380E+000	9	...........
	123	1.65333	1.14411E-001	-8.87957E-005	0.00000E+000	-1.01592E-005	-5.39641E-002	1.14425E-001	3.57380E+000	9	...........
	124	1.66667	1.10473E-001	-8.87561E-005	0.00000E+000	-9.80514E-006	-5.39641E-002	1.10481E-001	3.57367E+000	9	...........
	125	1.68	1.06551E-001	-8.89364E-005	0.00000E+000	-9.47625E-006	-5.39641E-002	1.06557E-001	3.57330E+000	9	...........
	126	1.69333	1.02657E-001	-8.86749E-005	0.00000E+000	-9.10306E-006	-5.39641E-002	1.02669E-001	3.57330E+000	9	...........
	127	1.70667	9.87735E-002	-8.85800E-005	0.00000E+000	-8.74936E-006	-5.39641E-002	9.87817E-002	3.57330E+000	9	...........
	128	1.72	9.49174E-002	-8.88916E-005	0.00000E+000	-8.43736E-006	-5.39641E-002	9.49251E-002	3.57330E+000	9	...........
	129	1.73333	9.10722E-002	-8.89332E-005	0.00000E+000	-8.09935E-006	-5.39641E-002	9.10808E-002	3.57330E+000	9	...........
	130	1.74667	8.72387E-002	-8.87926E-005	0.00000E+000	-7.74615E-006	-5.39641E-002	8.72481E-002	3.57330E+000	9	...........
	131	1.76	8.34227E-002	-8.87790E-005	0.00000E+000	-7.40618E-006	-5.39641E-002	8.34274E-002	3.57330E+000	9	...........
	132	1.77333	7.96390E-002	-8.87832E-005	0.00000E+000	-7.07061E-006	-5.39641E-002	7.96427E-002	3.57330E+000	9	...........
	133	1.78667	7.58622E-002	-8.87061E-005	0.00000E+000	-6.72944E-006	-5.39641E-002	7.58650E-002	3.57330E+000	9	...........
	134	1.8	7.21032E-002	-8.90093E-005	0.00000E+000	-6.41785E-006	-5.39641E-002	7.21039E-002	3.57330E+000	9	...........
	135	1.81333	6.83629E-002	-8.88395E-005	0.00000E+000	-6.07332E-006	-5.39641E-002	6.83646E-002	3.57330E+000	9	...........
	136	1.82667	6.46441E-002	-8.87155E-005	0.00000E+000	-5.73494E-006	-5.39641E-002	6.46481E-002	3.57330E+000	9	...........
	137	1.84	6.09339E-002	-8.88322E-005	0.00000E+000	-5.41289E-006	-5.39641E-002	6.09443E-002	3.57330E+000	9	...........
	138	1.85333	5.72467E-002	-8.87040E-005	0.00000E+000	-5.07801E-006	-5.39641E-002	5.72496E-002	3.57330E+000	9	...........
	139	1.86667	5.35543E-002	-8.86915E-005	0.00000E+000	-4.74981E-006	-5.39641E-002	5.35564E-002	3.57330E+000	9	...........
	140	1.88	4.98725E-002	-8.88280E-005	0.00000E+000	-4.43008E-006	-5.39641E-002	4.98740E-002	3.57330E+000	9	...........
	141	1.89333	4.62149E-002	-8.84811E-005	0.00000E+000	-4.08914E-006	-5.39641E-002	4.62258E-002	3.57330E+000	9	...........
	142	1.90667	4.25499E-002	-8.87103E-005	0.00000E+000	-3.77461E-006	-5.39641E-002	4.25578E-002	3.57330E+000	9	...........
	143	1.92	3.88897E-002	-8.88134E-005	0.00000E+000	-3.45393E-006	-5.39641E-002	3.88986E-002	3.57330E+000	9	...........
	144	1.93333	3.52533E-002	-8.85227E-005	0.00000E+000	-3.12072E-006	-5.39641E-002	3.52559E-002	3.57330E+000	9	...........
	145	1.94667	3.16333E-002	-8.88343E-005	0.00000E+000	-2.81012E-006	-5.39641E-002	3.16405E-002	3.57330E+000	9	...........
	146	1.96	2.80485E-002	-8.84873E-005	0.00000E+000	-2.48193E-006	-5.39641E-002	2.80539E-002	3.57330E+000	9	...........
	147	1.97333	2.44742E-002	-8.88030E-005	0.00000E+000	-2.17338E-006	-5.39641E-002	2.44756E-002	3.57330E+000	9	...........
	148	1.98667	2.09151E-002	-8.86769E-005	0.00000E+000	-1.85468E-006	-5.39641E-002	2.09132E-002	3.57330E+000	9	...........
	149	2	1.73713E-002	-8.89843E-005	0.00000E+000	-1.54577E-006	-5.39641E-002	1.73622E-002	3.57330E+000	9	...........
	150	2.01333	1.38487E-002	-8.88843E-005	0.00000E+000	-1.23093E-006	-5.39641E-002	1.38442E-002	3.57330E+000	9	...........
	151	2.02667	1.03668E-002	-8.87290E-005	0.00000E+000	-9.19838E-007	-5.39641E-002	1.03624E-002	3.57330E+000	9	...........
	152	2.04	6.87954E-003	-8.87238E-005	0.00000E+000	-6.10379E-007	-5.39641E-002	6.86816E-003	3.57330E+000	9	...........
	153	2.05333	3.40068E-003	-8.88124E-005	0.00000E+000	-3.02022E-007	-5.39641E-002	3.39072E-003	3.57330E+000	9	...........
	154	2.06167	5.96243E-004	-8.89199E-005	0.00000E+000	-5.30178E-008	-5.39641E-002	5.85328E-004	3.57330E+000	9	...........
STARTTIMEOFFSET	QUANT	1694.654	Start Time Offset (s)
