EXPLAIN
TAG	PWR800_DISCHARGE
TITLE	LABEL	PWR Cyclic Charge Discharge (Cell) - Discharge Step	Test &Identifier
DATE	LABEL	10-7-2017	Date
TIME	LABEL	15:02:38	Time
NOTES	NOTES	3	&Notes...
	supercap test cell
	0.9mg
	6M KOH
PSTAT	PSTAT	IFC5000-01520	Potentiostat
CAPACITY	QUANT	1.00000E-003	Capacity (A-hr)
CELLTYPE	SELECTOR	1	&Cell Type
WORKINGCONNECTION	SELECTOR	0	&Working Lead
MAXDISCHARGETIME	VARIABLEANDUNITS	1.00000E+002	s	1.00000E+002	second(s)	Max &Discharge Time
DISCHARGEMODE	MULTIPARAM	0	9.00000E-005	&Discharge Mode	Constant Current	Amp(s)
SAMPLETIME	QUANT	1.00000E-002	Sa&mple Period (s)
DISCHARGESTOPAT1	MULTIPARAM	3	0.00000E+000	Discharge Stop At &1	Voltage < Limit	V
DISCHARGESTOPAT2	MULTIPARAM	0	0.00000E+000	Discharge Stop At &2	None	N/A
AESBHCSELECTOR	TOGGLE	F	Save Both Half Cells
IRCOMP	TOGGLE	F	IR &Measure
EOC	QUANT	0	Open Circuit (V)
SEQUENCER	TOGGLE	TRUE	Run as Sequence
PSTATMODEL	IQUANT	53	Pstat Model
PSTATSECTION	LABEL	IFC5000-01520	Pstat Section
PSTATSERIALNO	LABEL	01520	Pstat Serial Number
CTRLMODE	IQUANT	0	Control Mode
ELECTROMETER	IQUANT	1	RE=0 or CS=1
IESTAB	IQUANT	0	I/E Stability
CASPEED	IQUANT	4	Control Amp Speed
CONVENTION	IQUANT	1	Current Convention
ICHRANGE	IQUANT	2	Ich Range
ICHRANGEMODE	TOGGLE	T	Ich Auto Range
ICHOFFSETENABLE	TOGGLE	F	Ich Offset Enable
ICHOFFSET	QUANT	0	Ich Offset (V)
ICHFILTER	IQUANT	1	Ich Filter
VCHRANGE	IQUANT	2	Vch Range
VCHRANGEMODE	TOGGLE	T	Vch Auto Range
VCHOFFSETENABLE	TOGGLE	F	Vch Offset Enable
VCHOFFSET	QUANT	0	Vch Offset (V)
VCHFILTER	IQUANT	1	Vch Filter
IERANGELOWERLIMIT	IQUANT	9	I/E Range Lower Limit
IERANGEMODE	TOGGLE	F	I/E AutoRange
IERANGE	IQUANT	9	I/E Range
ACHSELECT	IQUANT	1	Ach Select
ACHRANGE	IQUANT	2	Ach Range
ACHOFFSETENABLE	TOGGLE	F	Ach Offset Enable
ACHOFFSET	QUANT	0	Ach Offset (V)
ACHFILTER	IQUANT	1	Ach Filter
CABLEID	IQUANT	14	Cable ID
DCCALDATE	LABEL	5-7-2017	DC Calibration Date
ACCALDATE	LABEL	12/3/2015	AC Calibration Date
FRAMEWORKVERSION	QUANT	7.01	Framework Version
INSTRUMENTVERSION	LABEL	4.00	Instrument Version
CURVE	TABLE	173
	Pt	T	Vf	Im	Vu	Pwr	Sig	Ach	Temp	IERange	Over
	#	s	V	A	V	W	V	V	deg C	#	bits
	0	0.013333	8.49104E-001	-8.85832E-005	0.00000E+000	-7.52163E-005	-5.39641E-002	8.49220E-001	3.57100E+000	9	...........
	1	0.026667	8.38375E-001	-8.83790E-005	0.00000E+000	-7.40947E-005	-5.39641E-002	8.38477E-001	3.57100E+000	9	...........
	2	0.04	8.28224E-001	-8.84196E-005	0.00000E+000	-7.32312E-005	-5.39641E-002	8.28347E-001	3.57100E+000	9	...........
	3	0.053333	8.18513E-001	-8.86874E-005	0.00000E+000	-7.25917E-005	-5.39641E-002	8.18638E-001	3.57100E+000	9	...........
	4	0.066667	8.09160E-001	-8.85457E-005	0.00000E+000	-7.16476E-005	-5.39641E-002	8.09278E-001	3.57100E+000	9	...........
	5	0.08	8.00118E-001	-8.85040E-005	0.00000E+000	-7.08137E-005	-5.39641E-002	8.00206E-001	3.57100E+000	9	...........
	6	0.093333	7.91346E-001	-8.83883E-005	0.00000E+000	-6.99458E-005	-5.39641E-002	7.91434E-001	3.57100E+000	9	...........
	7	0.106667	7.82780E-001	-8.84394E-005	0.00000E+000	-6.92285E-005	-5.39641E-002	7.82867E-001	3.57100E+000	9	...........
	8	0.12	7.74448E-001	-8.85144E-005	0.00000E+000	-6.85498E-005	-5.39641E-002	7.74517E-001	3.57100E+000	9	...........
	9	0.133333	7.66268E-001	-8.87113E-005	0.00000E+000	-6.79767E-005	-5.39641E-002	7.66361E-001	3.57100E+000	9	...........
	10	0.146667	7.58302E-001	-8.87686E-005	0.00000E+000	-6.73134E-005	-5.39641E-002	7.58354E-001	3.57100E+000	9	...........
	11	0.16	7.50475E-001	-8.86259E-005	0.00000E+000	-6.65115E-005	-5.39641E-002	7.50540E-001	3.57112E+000	9	...........
	12	0.173333	7.42790E-001	-8.87676E-005	0.00000E+000	-6.59357E-005	-5.39641E-002	7.42868E-001	3.57120E+000	9	...........
	13	0.186667	7.35249E-001	-8.88384E-005	0.00000E+000	-6.53184E-005	-5.39641E-002	7.35324E-001	3.57120E+000	9	...........
	14	0.2	7.27867E-001	-8.84425E-005	0.00000E+000	-6.43744E-005	-5.39641E-002	7.27943E-001	3.57120E+000	9	...........
	15	0.213333	7.20608E-001	-8.86894E-005	0.00000E+000	-6.39103E-005	-5.39641E-002	7.20663E-001	3.57120E+000	9	...........
	16	0.226667	7.13390E-001	-8.86842E-005	0.00000E+000	-6.32665E-005	-5.39641E-002	7.13491E-001	3.57120E+000	9	...........
	17	0.24	7.06357E-001	-8.85873E-005	0.00000E+000	-6.25743E-005	-5.39641E-002	7.06410E-001	3.57120E+000	9	...........
	18	0.253333	6.99389E-001	-8.86738E-005	0.00000E+000	-6.20175E-005	-5.39641E-002	6.99440E-001	3.57120E+000	9	...........
	19	0.266667	6.92514E-001	-8.85436E-005	0.00000E+000	-6.13176E-005	-5.39641E-002	6.92559E-001	3.57120E+000	9	...........
	20	0.28	6.85725E-001	-8.86446E-005	0.00000E+000	-6.07858E-005	-5.39641E-002	6.85789E-001	3.57120E+000	9	...........
	21	0.293333	6.79051E-001	-8.87613E-005	0.00000E+000	-6.02735E-005	-5.39641E-002	6.79128E-001	3.57120E+000	9	...........
	22	0.306667	6.72459E-001	-8.87269E-005	0.00000E+000	-5.96652E-005	-5.39641E-002	6.72513E-001	3.57120E+000	9	...........
	23	0.32	6.65900E-001	-8.84373E-005	0.00000E+000	-5.88904E-005	-5.39641E-002	6.65984E-001	3.57120E+000	9	...........
	24	0.333333	6.59449E-001	-8.87176E-005	0.00000E+000	-5.85047E-005	-5.39641E-002	6.59504E-001	3.57120E+000	9	...........
	25	0.346667	6.53040E-001	-8.86488E-005	0.00000E+000	-5.78912E-005	-5.39641E-002	6.53127E-001	3.57120E+000	9	...........
	26	0.36	6.46704E-001	-8.84738E-005	0.00000E+000	-5.72164E-005	-5.39641E-002	6.46802E-001	3.57120E+000	9	...........
	27	0.373333	6.40439E-001	-8.87374E-005	0.00000E+000	-5.68309E-005	-5.39641E-002	6.40538E-001	3.57120E+000	9	...........
	28	0.386667	6.34197E-001	-8.85592E-005	0.00000E+000	-5.61640E-005	-5.39641E-002	6.34311E-001	3.57120E+000	9	...........
	29	0.4	6.28087E-001	-8.87561E-005	0.00000E+000	-5.57466E-005	-5.39641E-002	6.28176E-001	3.57120E+000	9	...........
	30	0.413333	6.22004E-001	-8.84873E-005	0.00000E+000	-5.50394E-005	-5.39641E-002	6.22062E-001	3.57120E+000	9	...........
	31	0.426667	6.15957E-001	-8.84488E-005	0.00000E+000	-5.44806E-005	-5.39641E-002	6.16021E-001	3.57120E+000	9	...........
	32	0.44	6.09894E-001	-8.84123E-005	0.00000E+000	-5.39222E-005	-5.39641E-002	6.09995E-001	3.57120E+000	9	...........
	33	0.453333	6.03942E-001	-8.86957E-005	0.00000E+000	-5.35671E-005	-5.39641E-002	6.04042E-001	3.57120E+000	9	...........
	34	0.466667	5.98039E-001	-8.85998E-005	0.00000E+000	-5.29861E-005	-5.39641E-002	5.98117E-001	3.57120E+000	9	...........
	35	0.48	5.92212E-001	-8.87853E-005	0.00000E+000	-5.25797E-005	-5.39641E-002	5.92261E-001	3.57120E+000	9	...........
	36	0.493333	5.86364E-001	-8.88478E-005	0.00000E+000	-5.20972E-005	-5.39641E-002	5.86422E-001	3.57120E+000	9	...........
	37	0.506667	5.80541E-001	-8.87072E-005	0.00000E+000	-5.14981E-005	-5.39641E-002	5.80606E-001	3.57120E+000	9	...........
	38	0.52	5.74776E-001	-8.86280E-005	0.00000E+000	-5.09413E-005	-5.39641E-002	5.74846E-001	3.57120E+000	9	...........
	39	0.533333	5.69049E-001	-8.86259E-005	0.00000E+000	-5.04325E-005	-5.39641E-002	5.69125E-001	3.57120E+000	9	...........
	40	0.546667	5.63355E-001	-8.87301E-005	0.00000E+000	-4.99865E-005	-5.39641E-002	5.63447E-001	3.57120E+000	9	...........
	41	0.56	5.57670E-001	-8.86186E-005	0.00000E+000	-4.94199E-005	-5.39641E-002	5.57754E-001	3.57120E+000	9	...........
	42	0.573333	5.52044E-001	-8.85686E-005	0.00000E+000	-4.88938E-005	-5.39641E-002	5.52130E-001	3.57120E+000	9	...........
	43	0.586667	5.46438E-001	-8.85332E-005	0.00000E+000	-4.83779E-005	-5.39641E-002	5.46511E-001	3.57120E+000	9	...........
	44	0.6	5.40909E-001	-8.87488E-005	0.00000E+000	-4.80050E-005	-5.39641E-002	5.40991E-001	3.57120E+000	9	...........
	45	0.613333	5.35334E-001	-8.84790E-005	0.00000E+000	-4.73658E-005	-5.39641E-002	5.35429E-001	3.57120E+000	9	...........
	46	0.626667	5.29836E-001	-8.88270E-005	0.00000E+000	-4.70637E-005	-5.39641E-002	5.29905E-001	3.57120E+000	9	...........
	47	0.64	5.24346E-001	-8.86551E-005	0.00000E+000	-4.64860E-005	-5.39641E-002	5.24444E-001	3.57120E+000	9	...........
	48	0.653333	5.18891E-001	-8.85988E-005	0.00000E+000	-4.59731E-005	-5.39641E-002	5.18950E-001	3.57120E+000	9	...........
	49	0.666667	5.13461E-001	-8.85394E-005	0.00000E+000	-4.54616E-005	-5.39641E-002	5.13511E-001	3.57120E+000	9	...........
	50	0.68	5.07989E-001	-8.85634E-005	0.00000E+000	-4.49892E-005	-5.39641E-002	5.08096E-001	3.57120E+000	9	...........
	51	0.693333	5.02617E-001	-8.84081E-005	0.00000E+000	-4.44354E-005	-5.39641E-002	5.02690E-001	3.57120E+000	9	...........
	52	0.706667	4.97263E-001	-8.85290E-005	0.00000E+000	-4.40222E-005	-5.39641E-002	4.97354E-001	3.57120E+000	9	...........
	53	0.72	4.91924E-001	-8.83665E-005	0.00000E+000	-4.34696E-005	-5.39641E-002	4.91999E-001	3.57120E+000	9	...........
	54	0.733333	4.86614E-001	-8.86228E-005	0.00000E+000	-4.31251E-005	-5.39641E-002	4.86701E-001	3.57120E+000	9	...........
	55	0.746667	4.81353E-001	-8.85707E-005	0.00000E+000	-4.26338E-005	-5.39641E-002	4.81401E-001	3.57120E+000	9	...........
	56	0.76	4.76067E-001	-8.86728E-005	0.00000E+000	-4.22142E-005	-5.39641E-002	4.76116E-001	3.57120E+000	9	...........
	57	0.773333	4.70813E-001	-8.86457E-005	0.00000E+000	-4.17355E-005	-5.39641E-002	4.70865E-001	3.57120E+000	9	...........
	58	0.786667	4.65581E-001	-8.86332E-005	0.00000E+000	-4.12659E-005	-5.39641E-002	4.65620E-001	3.57120E+000	9	...........
	59	0.8	4.60357E-001	-8.85988E-005	0.00000E+000	-4.07871E-005	-5.39641E-002	4.60400E-001	3.57120E+000	9	...........
	60	0.813333	4.55163E-001	-8.84415E-005	0.00000E+000	-4.02553E-005	-5.39641E-002	4.55206E-001	3.57120E+000	9	...........
	61	0.826667	4.49987E-001	-8.86717E-005	0.00000E+000	-3.99011E-005	-5.39641E-002	4.50033E-001	3.57120E+000	9	...........
	62	0.84	4.44822E-001	-8.84300E-005	0.00000E+000	-3.93357E-005	-5.39641E-002	4.44866E-001	3.57120E+000	9	...........
	63	0.853333	4.39688E-001	-8.87353E-005	0.00000E+000	-3.90159E-005	-5.39641E-002	4.39733E-001	3.57120E+000	9	...........
	64	0.866667	4.34583E-001	-8.85873E-005	0.00000E+000	-3.84985E-005	-5.39641E-002	4.34619E-001	3.57120E+000	9	...........
	65	0.88	4.29497E-001	-8.87801E-005	0.00000E+000	-3.81308E-005	-5.39641E-002	4.29538E-001	3.57120E+000	9	...........
	66	0.893333	4.24438E-001	-8.87217E-005	0.00000E+000	-3.76569E-005	-5.39641E-002	4.24475E-001	3.57120E+000	9	...........
	67	0.906667	4.19399E-001	-8.85509E-005	0.00000E+000	-3.71382E-005	-5.39641E-002	4.19440E-001	3.57120E+000	9	...........
	68	0.92	4.14377E-001	-8.85321E-005	0.00000E+000	-3.66857E-005	-5.39641E-002	4.14416E-001	3.57120E+000	9	...........
	69	0.933333	4.09380E-001	-8.85071E-005	0.00000E+000	-3.62330E-005	-5.39641E-002	4.09423E-001	3.57120E+000	9	...........
	70	0.946667	4.04407E-001	-8.83894E-005	0.00000E+000	-3.57453E-005	-5.39641E-002	4.04442E-001	3.57120E+000	9	...........
	71	0.96	3.99467E-001	-8.83863E-005	0.00000E+000	-3.53074E-005	-5.39641E-002	3.99505E-001	3.57120E+000	9	...........
	72	0.97333	3.94548E-001	-8.86040E-005	0.00000E+000	-3.49585E-005	-5.39641E-002	3.94581E-001	3.57120E+000	9	...........
	73	0.98667	3.89647E-001	-8.85550E-005	0.00000E+000	-3.45052E-005	-5.39641E-002	3.89679E-001	3.57120E+000	9	...........
	74	1	3.84766E-001	-8.86384E-005	0.00000E+000	-3.41051E-005	-5.39641E-002	3.84800E-001	3.57120E+000	9	...........
	75	1.01333	3.79920E-001	-8.82946E-005	0.00000E+000	-3.35449E-005	-5.39641E-002	3.79953E-001	3.57120E+000	9	...........
	76	1.02667	3.75081E-001	-8.88614E-005	0.00000E+000	-3.33302E-005	-5.39641E-002	3.75117E-001	3.57120E+000	9	...........
	77	1.04	3.70281E-001	-8.84644E-005	0.00000E+000	-3.27567E-005	-5.39641E-002	3.70311E-001	3.57120E+000	9	...........
	78	1.05333	3.65505E-001	-8.85248E-005	0.00000E+000	-3.23563E-005	-5.39641E-002	3.65542E-001	3.57120E+000	9	...........
	79	1.06667	3.60760E-001	-8.85300E-005	0.00000E+000	-3.19381E-005	-5.39641E-002	3.60789E-001	3.57120E+000	9	...........
	80	1.08	3.56029E-001	-8.84831E-005	0.00000E+000	-3.15026E-005	-5.39641E-002	3.56059E-001	3.57120E+000	9	...........
	81	1.09333	3.51319E-001	-8.84519E-005	0.00000E+000	-3.10749E-005	-5.39641E-002	3.51347E-001	3.57120E+000	9	...........
	82	1.10667	3.46635E-001	-8.88655E-005	0.00000E+000	-3.08039E-005	-5.39641E-002	3.46666E-001	3.57120E+000	9	...........
	83	1.12	3.41988E-001	-8.89385E-005	0.00000E+000	-3.04159E-005	-5.39641E-002	3.42019E-001	3.57120E+000	9	...........
	84	1.13333	3.37334E-001	-8.87051E-005	0.00000E+000	-2.99232E-005	-5.39641E-002	3.37364E-001	3.57120E+000	9	...........
	85	1.14667	3.32722E-001	-8.87228E-005	0.00000E+000	-2.95200E-005	-5.39641E-002	3.32751E-001	3.57120E+000	9	...........
	86	1.16	3.28128E-001	-8.84790E-005	0.00000E+000	-2.90324E-005	-5.39641E-002	3.28165E-001	3.57107E+000	9	...........
	87	1.17333	3.23571E-001	-8.86478E-005	0.00000E+000	-2.86839E-005	-5.39641E-002	3.23595E-001	3.57100E+000	9	...........
	88	1.18667	3.19042E-001	-8.83915E-005	0.00000E+000	-2.82006E-005	-5.39641E-002	3.19066E-001	3.57100E+000	9	...........
	89	1.2	3.14513E-001	-8.88353E-005	0.00000E+000	-2.79399E-005	-5.39641E-002	3.14540E-001	3.57100E+000	9	...........
	90	1.21333	3.09997E-001	-8.86634E-005	0.00000E+000	-2.74854E-005	-5.39641E-002	3.10026E-001	3.57100E+000	9	...........
	91	1.22667	3.05497E-001	-8.88936E-005	0.00000E+000	-2.71567E-005	-5.39641E-002	3.05520E-001	3.57100E+000	9	...........
	92	1.24	3.01009E-001	-8.86363E-005	0.00000E+000	-2.66803E-005	-5.39641E-002	3.01039E-001	3.57100E+000	9	...........
	93	1.25333	2.96565E-001	-8.84717E-005	0.00000E+000	-2.62376E-005	-5.39641E-002	2.96594E-001	3.57100E+000	9	...........
	94	1.26667	2.92143E-001	-8.85759E-005	0.00000E+000	-2.58769E-005	-5.39641E-002	2.92166E-001	3.57100E+000	9	...........
	95	1.28	2.87751E-001	-8.86665E-005	0.00000E+000	-2.55139E-005	-5.39641E-002	2.87778E-001	3.57100E+000	9	...........
	96	1.29333	2.83395E-001	-8.87124E-005	0.00000E+000	-2.51406E-005	-5.39641E-002	2.83416E-001	3.57100E+000	9	...........
	97	1.30667	2.79055E-001	-8.88405E-005	0.00000E+000	-2.47914E-005	-5.39641E-002	2.79079E-001	3.57100E+000	9	...........
	98	1.32	2.74767E-001	-8.87874E-005	0.00000E+000	-2.43958E-005	-5.39641E-002	2.74785E-001	3.57100E+000	9	...........
	99	1.33333	2.70487E-001	-8.87030E-005	0.00000E+000	-2.39930E-005	-5.39641E-002	2.70507E-001	3.57100E+000	9	...........
	100	1.34667	2.66219E-001	-8.82414E-005	0.00000E+000	-2.34915E-005	-5.39641E-002	2.66240E-001	3.57100E+000	9	...........
	101	1.36	2.61969E-001	-8.85227E-005	0.00000E+000	-2.31902E-005	-5.39641E-002	2.61999E-001	3.57100E+000	9	...........
	102	1.37333	2.57740E-001	-8.84654E-005	0.00000E+000	-2.28011E-005	-5.39641E-002	2.57761E-001	3.57100E+000	9	...........
	103	1.38667	2.53504E-001	-8.86374E-005	0.00000E+000	-2.24700E-005	-5.39641E-002	2.53522E-001	3.57100E+000	9	...........
	104	1.4	2.49272E-001	-8.85592E-005	0.00000E+000	-2.20754E-005	-5.39641E-002	2.49298E-001	3.57100E+000	9	...........
	105	1.41333	2.45093E-001	-8.88989E-005	0.00000E+000	-2.17885E-005	-5.39641E-002	2.45110E-001	3.57100E+000	9	...........
	106	1.42667	2.40941E-001	-8.86332E-005	0.00000E+000	-2.13554E-005	-5.39641E-002	2.40958E-001	3.57100E+000	9	...........
	107	1.44	2.36815E-001	-8.83404E-005	0.00000E+000	-2.09203E-005	-5.39641E-002	2.36831E-001	3.57100E+000	9	...........
	108	1.45333	2.32701E-001	-8.86384E-005	0.00000E+000	-2.06262E-005	-5.39641E-002	2.32722E-001	3.57100E+000	9	...........
	109	1.46667	2.28595E-001	-8.84863E-005	0.00000E+000	-2.02275E-005	-5.39641E-002	2.28611E-001	3.57100E+000	9	...........
	110	1.48	2.24492E-001	-8.84675E-005	0.00000E+000	-1.98602E-005	-5.39641E-002	2.24515E-001	3.57100E+000	9	...........
	111	1.49333	2.20414E-001	-8.85342E-005	0.00000E+000	-1.95142E-005	-5.39641E-002	2.20430E-001	3.57100E+000	9	...........
	112	1.50667	2.16339E-001	-8.86582E-005	0.00000E+000	-1.91802E-005	-5.39641E-002	2.16352E-001	3.57100E+000	9	...........
	113	1.52	2.12297E-001	-8.85592E-005	0.00000E+000	-1.88008E-005	-5.39641E-002	2.12310E-001	3.57100E+000	9	...........
	114	1.53333	2.08290E-001	-8.87447E-005	0.00000E+000	-1.84847E-005	-5.39641E-002	2.08299E-001	3.57100E+000	9	...........
	115	1.54667	2.04261E-001	-8.86259E-005	0.00000E+000	-1.81028E-005	-5.39641E-002	2.04276E-001	3.57100E+000	9	...........
	116	1.56	2.00281E-001	-8.84102E-005	0.00000E+000	-1.77069E-005	-5.39641E-002	2.00293E-001	3.57100E+000	9	...........
	117	1.57333	1.96312E-001	-8.88697E-005	0.00000E+000	-1.74462E-005	-5.39641E-002	1.96323E-001	3.57100E+000	9	...........
	118	1.58667	1.92348E-001	-8.84863E-005	0.00000E+000	-1.70201E-005	-5.39641E-002	1.92360E-001	3.57100E+000	9	...........
	119	1.6	1.88403E-001	-8.85113E-005	0.00000E+000	-1.66758E-005	-5.39641E-002	1.88420E-001	3.57100E+000	9	...........
	120	1.61333	1.84474E-001	-8.85915E-005	0.00000E+000	-1.63429E-005	-5.39641E-002	1.84485E-001	3.57100E+000	9	...........
	121	1.62667	1.80554E-001	-8.86207E-005	0.00000E+000	-1.60008E-005	-5.39641E-002	1.80569E-001	3.57100E+000	9	...........
	122	1.64	1.76636E-001	-8.85113E-005	0.00000E+000	-1.56343E-005	-5.39641E-002	1.76647E-001	3.57100E+000	9	...........
	123	1.65333	1.72736E-001	-8.84008E-005	0.00000E+000	-1.52700E-005	-5.39641E-002	1.72741E-001	3.57100E+000	9	...........
	124	1.66667	1.68847E-001	-8.85821E-005	0.00000E+000	-1.49568E-005	-5.39641E-002	1.68859E-001	3.57100E+000	9	...........
	125	1.68	1.64987E-001	-8.86613E-005	0.00000E+000	-1.46280E-005	-5.39641E-002	1.64994E-001	3.57100E+000	9	...........
	126	1.69333	1.61135E-001	-8.84988E-005	0.00000E+000	-1.42603E-005	-5.39641E-002	1.61143E-001	3.57100E+000	9	...........
	127	1.70667	1.57297E-001	-8.84811E-005	0.00000E+000	-1.39178E-005	-5.39641E-002	1.57302E-001	3.57100E+000	9	...........
	128	1.72	1.53478E-001	-8.85863E-005	0.00000E+000	-1.35960E-005	-5.39641E-002	1.53485E-001	3.57100E+000	9	...........
	129	1.73333	1.49673E-001	-8.84550E-005	0.00000E+000	-1.32393E-005	-5.39641E-002	1.49678E-001	3.57100E+000	9	...........
	130	1.74667	1.45853E-001	-8.87530E-005	0.00000E+000	-1.29449E-005	-5.39641E-002	1.45859E-001	3.57100E+000	9	...........
	131	1.76	1.42058E-001	-8.84415E-005	0.00000E+000	-1.25638E-005	-5.39641E-002	1.42066E-001	3.57100E+000	9	...........
	132	1.77333	1.38288E-001	-8.84748E-005	0.00000E+000	-1.22350E-005	-5.39641E-002	1.38293E-001	3.57100E+000	9	...........
	133	1.78667	1.34532E-001	-8.84373E-005	0.00000E+000	-1.18976E-005	-5.39641E-002	1.34543E-001	3.57100E+000	9	...........
	134	1.8	1.30779E-001	-8.86353E-005	0.00000E+000	-1.15916E-005	-5.39641E-002	1.30782E-001	3.57100E+000	9	...........
	135	1.81333	1.27040E-001	-8.86134E-005	0.00000E+000	-1.12574E-005	-5.39641E-002	1.27047E-001	3.57100E+000	9	...........
	136	1.82667	1.23323E-001	-8.87353E-005	0.00000E+000	-1.09431E-005	-5.39641E-002	1.23332E-001	3.57100E+000	9	...........
	137	1.84	1.19627E-001	-8.85290E-005	0.00000E+000	-1.05904E-005	-5.39641E-002	1.19633E-001	3.57100E+000	9	...........
	138	1.85333	1.15939E-001	-8.85571E-005	0.00000E+000	-1.02672E-005	-5.39641E-002	1.15942E-001	3.57100E+000	9	...........
	139	1.86667	1.12263E-001	-8.86446E-005	0.00000E+000	-9.95150E-006	-5.39641E-002	1.12269E-001	3.57100E+000	9	...........
	140	1.88	1.08602E-001	-8.85342E-005	0.00000E+000	-9.61495E-006	-5.39641E-002	1.08604E-001	3.57100E+000	9	...........
	141	1.89333	1.04957E-001	-8.85905E-005	0.00000E+000	-9.29818E-006	-5.39641E-002	1.04962E-001	3.57100E+000	9	...........
	142	1.90667	1.01326E-001	-8.83696E-005	0.00000E+000	-8.95417E-006	-5.39641E-002	1.01329E-001	3.57100E+000	9	...........
	143	1.92	9.77097E-002	-8.87426E-005	0.00000E+000	-8.67101E-006	-5.39641E-002	9.77170E-002	3.57100E+000	9	...........
	144	1.93333	9.41081E-002	-8.84477E-005	0.00000E+000	-8.32365E-006	-5.39641E-002	9.41123E-002	3.57100E+000	9	...........
	145	1.94667	9.05340E-002	-8.86905E-005	0.00000E+000	-8.02950E-006	-5.39641E-002	9.05356E-002	3.57100E+000	9	...........
	146	1.96	8.69866E-002	-8.88051E-005	0.00000E+000	-7.72485E-006	-5.39641E-002	8.69899E-002	3.57100E+000	9	...........
	147	1.97333	8.34667E-002	-8.87353E-005	0.00000E+000	-7.40644E-006	-5.39641E-002	8.34674E-002	3.57100E+000	9	...........
	148	1.98667	7.99642E-002	-8.84071E-005	0.00000E+000	-7.06940E-006	-5.39641E-002	7.99676E-002	3.57100E+000	9	...........
	149	2	7.64837E-002	-8.85644E-005	0.00000E+000	-6.77374E-006	-5.39641E-002	7.64802E-002	3.57100E+000	9	...........
	150	2.01333	7.29925E-002	-8.84592E-005	0.00000E+000	-6.45686E-006	-5.39641E-002	7.29871E-002	3.57100E+000	9	...........
	151	2.02667	6.94913E-002	-8.85113E-005	0.00000E+000	-6.15076E-006	-5.39641E-002	6.94880E-002	3.57100E+000	9	...........
	152	2.04	6.60057E-002	-8.84988E-005	0.00000E+000	-5.84142E-006	-5.39641E-002	6.59993E-002	3.57100E+000	9	...........
	153	2.05333	6.25357E-002	-8.84654E-005	0.00000E+000	-5.53225E-006	-5.39641E-002	6.25362E-002	3.57100E+000	9	...........
	154	2.06667	5.90998E-002	-8.85071E-005	0.00000E+000	-5.23075E-006	-5.39641E-002	5.90936E-002	3.57100E+000	9	...........
	155	2.08	5.56683E-002	-8.88051E-005	0.00000E+000	-4.94363E-006	-5.39641E-002	5.56589E-002	3.57100E+000	9	...........
	156	2.09333	5.22171E-002	-8.85832E-005	0.00000E+000	-4.62556E-006	-5.39641E-002	5.22148E-002	3.57100E+000	9	...........
	157	2.10667	4.88007E-002	-8.83894E-005	0.00000E+000	-4.31346E-006	-5.39641E-002	4.87969E-002	3.57100E+000	9	...........
	158	2.12	4.54082E-002	-8.86769E-005	0.00000E+000	-4.02666E-006	-5.39641E-002	4.54188E-002	3.57100E+000	9	...........
	159	2.13333	4.20276E-002	-8.87342E-005	0.00000E+000	-3.72929E-006	-5.39641E-002	4.20350E-002	3.57100E+000	9	...........
	160	2.14667	3.86720E-002	-8.85113E-005	0.00000E+000	-3.42291E-006	-5.39641E-002	3.86769E-002	3.57100E+000	9	...........
	161	2.16	3.53462E-002	-8.88561E-005	0.00000E+000	-3.14073E-006	-5.39641E-002	3.53454E-002	3.57125E+000	9	...........
	162	2.17333	3.20316E-002	-8.84550E-005	0.00000E+000	-2.83336E-006	-5.39641E-002	3.20301E-002	3.57140E+000	9	...........
	163	2.18667	2.87224E-002	-8.86603E-005	0.00000E+000	-2.54653E-006	-5.39641E-002	2.87216E-002	3.57140E+000	9	...........
	164	2.2	2.54378E-002	-8.88791E-005	0.00000E+000	-2.26088E-006	-5.39641E-002	2.54327E-002	3.57140E+000	9	...........
	165	2.21333	2.21939E-002	-8.85509E-005	0.00000E+000	-1.96529E-006	-5.39641E-002	2.21876E-002	3.57140E+000	9	...........
	166	2.22667	1.89654E-002	-8.83758E-005	0.00000E+000	-1.67608E-006	-5.39641E-002	1.89642E-002	3.57140E+000	9	...........
	167	2.24	1.57291E-002	-8.86894E-005	0.00000E+000	-1.39501E-006	-5.39641E-002	1.57219E-002	3.57140E+000	9	...........
	168	2.25333	1.25171E-002	-8.87509E-005	0.00000E+000	-1.11091E-006	-5.39641E-002	1.25145E-002	3.57140E+000	9	...........
	169	2.26667	9.33260E-003	-8.88228E-005	0.00000E+000	-8.28948E-007	-5.39641E-002	9.31925E-003	3.57140E+000	9	...........
	170	2.28	6.16564E-003	-8.84102E-005	0.00000E+000	-5.45105E-007	-5.39641E-002	6.15102E-003	3.57140E+000	9	...........
	171	2.29333	3.02097E-003	-8.86947E-005	0.00000E+000	-2.67944E-007	-5.39641E-002	3.00827E-003	3.57140E+000	9	...........
	172	2.30167	5.00177E-004	-8.88516E-005	0.00000E+000	-4.44415E-008	-5.39641E-002	4.87640E-004	3.57140E+000	9	...........
STARTTIMEOFFSET	QUANT	170.7683	Start Time Offset (s)
