EXPLAIN
TAG	PWR800_DISCHARGE
TITLE	LABEL	PWR Cyclic Charge Discharge (Cell) - Discharge Step	Test &Identifier
DATE	LABEL	10-7-2017	Date
TIME	LABEL	15:31:09	Time
NOTES	NOTES	3	&Notes...
	supercap test cell
	0.9mg
	6M KOH
PSTAT	PSTAT	IFC5000-01520	Potentiostat
CAPACITY	QUANT	1.00000E-003	Capacity (A-hr)
CELLTYPE	SELECTOR	1	&Cell Type
WORKINGCONNECTION	SELECTOR	0	&Working Lead
MAXDISCHARGETIME	VARIABLEANDUNITS	1.00000E+002	s	1.00000E+002	second(s)	Max &Discharge Time
DISCHARGEMODE	MULTIPARAM	0	9.00000E-005	&Discharge Mode	Constant Current	Amp(s)
SAMPLETIME	QUANT	1.00000E-002	Sa&mple Period (s)
DISCHARGESTOPAT1	MULTIPARAM	3	0.00000E+000	Discharge Stop At &1	Voltage < Limit	V
DISCHARGESTOPAT2	MULTIPARAM	0	0.00000E+000	Discharge Stop At &2	None	N/A
AESBHCSELECTOR	TOGGLE	F	Save Both Half Cells
IRCOMP	TOGGLE	F	IR &Measure
EOC	QUANT	0	Open Circuit (V)
SEQUENCER	TOGGLE	TRUE	Run as Sequence
PSTATMODEL	IQUANT	53	Pstat Model
PSTATSECTION	LABEL	IFC5000-01520	Pstat Section
PSTATSERIALNO	LABEL	01520	Pstat Serial Number
CTRLMODE	IQUANT	0	Control Mode
ELECTROMETER	IQUANT	1	RE=0 or CS=1
IESTAB	IQUANT	0	I/E Stability
CASPEED	IQUANT	4	Control Amp Speed
CONVENTION	IQUANT	1	Current Convention
ICHRANGE	IQUANT	2	Ich Range
ICHRANGEMODE	TOGGLE	T	Ich Auto Range
ICHOFFSETENABLE	TOGGLE	F	Ich Offset Enable
ICHOFFSET	QUANT	0	Ich Offset (V)
ICHFILTER	IQUANT	1	Ich Filter
VCHRANGE	IQUANT	2	Vch Range
VCHRANGEMODE	TOGGLE	T	Vch Auto Range
VCHOFFSETENABLE	TOGGLE	F	Vch Offset Enable
VCHOFFSET	QUANT	0	Vch Offset (V)
VCHFILTER	IQUANT	1	Vch Filter
IERANGELOWERLIMIT	IQUANT	9	I/E Range Lower Limit
IERANGEMODE	TOGGLE	F	I/E AutoRange
IERANGE	IQUANT	9	I/E Range
ACHSELECT	IQUANT	1	Ach Select
ACHRANGE	IQUANT	2	Ach Range
ACHOFFSETENABLE	TOGGLE	F	Ach Offset Enable
ACHOFFSET	QUANT	0	Ach Offset (V)
ACHFILTER	IQUANT	1	Ach Filter
CABLEID	IQUANT	14	Cable ID
DCCALDATE	LABEL	5-7-2017	DC Calibration Date
ACCALDATE	LABEL	12/3/2015	AC Calibration Date
FRAMEWORKVERSION	QUANT	7.01	Framework Version
INSTRUMENTVERSION	LABEL	4.00	Instrument Version
CURVE	TABLE	155
	Pt	T	Vf	Im	Vu	Pwr	Sig	Ach	Temp	IERange	Over
	#	s	V	A	V	W	V	V	deg C	#	bits
	0	0.013333	8.10999E-001	-8.86321E-005	0.00000E+000	-7.18806E-005	-5.39641E-002	8.11172E-001	3.57240E+000	9	...........
	1	0.026667	7.97970E-001	-8.86269E-005	0.00000E+000	-7.07216E-005	-5.39641E-002	7.98108E-001	3.57240E+000	9	...........
	2	0.04	7.85731E-001	-8.85707E-005	0.00000E+000	-6.95927E-005	-5.39641E-002	7.85861E-001	3.57240E+000	9	...........
	3	0.053333	7.74191E-001	-8.86634E-005	0.00000E+000	-6.86424E-005	-5.39641E-002	7.74336E-001	3.57240E+000	9	...........
	4	0.066667	7.63191E-001	-8.86280E-005	0.00000E+000	-6.76401E-005	-5.39641E-002	7.63331E-001	3.57240E+000	9	...........
	5	0.08	7.52675E-001	-8.84529E-005	0.00000E+000	-6.65763E-005	-5.39641E-002	7.52797E-001	3.57240E+000	9	...........
	6	0.093333	7.42568E-001	-8.86790E-005	0.00000E+000	-6.58502E-005	-5.39641E-002	7.42691E-001	3.57240E+000	9	...........
	7	0.106667	7.32831E-001	-8.86311E-005	0.00000E+000	-6.49516E-005	-5.39641E-002	7.32953E-001	3.57239E+000	9	...........
	8	0.12	7.23440E-001	-8.87384E-005	0.00000E+000	-6.41969E-005	-5.39641E-002	7.23534E-001	3.57230E+000	9	...........
	9	0.133333	7.14273E-001	-8.88416E-005	0.00000E+000	-6.34571E-005	-5.39641E-002	7.14394E-001	3.57230E+000	9	...........
	10	0.146667	7.05396E-001	-8.87874E-005	0.00000E+000	-6.26302E-005	-5.39641E-002	7.05515E-001	3.57230E+000	9	...........
	11	0.16	6.96786E-001	-8.87801E-005	0.00000E+000	-6.18608E-005	-5.39641E-002	6.96893E-001	3.57230E+000	9	...........
	12	0.173333	6.88367E-001	-8.91583E-005	0.00000E+000	-6.13736E-005	-5.39641E-002	6.88484E-001	3.57230E+000	9	...........
	13	0.186667	6.80182E-001	-8.88405E-005	0.00000E+000	-6.04277E-005	-5.39641E-002	6.80290E-001	3.57230E+000	9	...........
	14	0.2	6.72181E-001	-8.87540E-005	0.00000E+000	-5.96588E-005	-5.39641E-002	6.72273E-001	3.57230E+000	9	...........
	15	0.213333	6.64341E-001	-8.86853E-005	0.00000E+000	-5.89172E-005	-5.39641E-002	6.64463E-001	3.57230E+000	9	...........
	16	0.226667	6.56702E-001	-8.89645E-005	0.00000E+000	-5.84231E-005	-5.39641E-002	6.56792E-001	3.57230E+000	9	...........
	17	0.24	6.49208E-001	-8.84623E-005	0.00000E+000	-5.74304E-005	-5.39641E-002	6.49292E-001	3.57230E+000	9	...........
	18	0.253333	6.41827E-001	-8.87832E-005	0.00000E+000	-5.69835E-005	-5.39641E-002	6.41923E-001	3.57230E+000	9	...........
	19	0.266667	6.34597E-001	-8.88218E-005	0.00000E+000	-5.63660E-005	-5.39641E-002	6.34687E-001	3.57230E+000	9	...........
	20	0.28	6.27518E-001	-8.86186E-005	0.00000E+000	-5.56098E-005	-5.39641E-002	6.27579E-001	3.57230E+000	9	...........
	21	0.293333	6.20580E-001	-8.87728E-005	0.00000E+000	-5.50906E-005	-5.39641E-002	6.20612E-001	3.57230E+000	9	...........
	22	0.306667	6.13705E-001	-8.86926E-005	0.00000E+000	-5.44310E-005	-5.39641E-002	6.13768E-001	3.57230E+000	9	...........
	23	0.32	6.06928E-001	-8.86061E-005	0.00000E+000	-5.37775E-005	-5.39641E-002	6.07005E-001	3.57230E+000	9	...........
	24	0.333333	6.00302E-001	-8.87801E-005	0.00000E+000	-5.32949E-005	-5.39641E-002	6.00403E-001	3.57230E+000	9	...........
	25	0.346667	5.93768E-001	-8.87863E-005	0.00000E+000	-5.27185E-005	-5.39641E-002	5.93877E-001	3.57230E+000	9	...........
	26	0.36	5.87330E-001	-8.87822E-005	0.00000E+000	-5.21444E-005	-5.39641E-002	5.87430E-001	3.57230E+000	9	...........
	27	0.373333	5.80977E-001	-8.88666E-005	0.00000E+000	-5.16295E-005	-5.39641E-002	5.81057E-001	3.57230E+000	9	...........
	28	0.386667	5.74678E-001	-8.86238E-005	0.00000E+000	-5.09301E-005	-5.39641E-002	5.74778E-001	3.57230E+000	9	...........
	29	0.4	5.68494E-001	-8.89655E-005	0.00000E+000	-5.05764E-005	-5.39641E-002	5.68561E-001	3.57230E+000	9	...........
	30	0.413333	5.62299E-001	-8.89822E-005	0.00000E+000	-5.00346E-005	-5.39641E-002	5.62407E-001	3.57230E+000	9	...........
	31	0.426667	5.56224E-001	-8.84561E-005	0.00000E+000	-4.92014E-005	-5.39641E-002	5.56327E-001	3.57230E+000	9	...........
	32	0.44	5.50237E-001	-8.86769E-005	0.00000E+000	-4.87934E-005	-5.39641E-002	5.50354E-001	3.57230E+000	9	...........
	33	0.453333	5.44295E-001	-8.88999E-005	0.00000E+000	-4.83878E-005	-5.39641E-002	5.44389E-001	3.57230E+000	9	...........
	34	0.466667	5.38409E-001	-8.87395E-005	0.00000E+000	-4.77781E-005	-5.39641E-002	5.38510E-001	3.57230E+000	9	...........
	35	0.48	5.32568E-001	-8.87238E-005	0.00000E+000	-4.72515E-005	-5.39641E-002	5.32666E-001	3.57230E+000	9	...........
	36	0.493333	5.26816E-001	-8.84988E-005	0.00000E+000	-4.66226E-005	-5.39641E-002	5.26905E-001	3.57230E+000	9	...........
	37	0.506667	5.21125E-001	-8.88291E-005	0.00000E+000	-4.62911E-005	-5.39641E-002	5.21168E-001	3.57230E+000	9	...........
	38	0.52	5.15472E-001	-8.88301E-005	0.00000E+000	-4.57894E-005	-5.39641E-002	5.15516E-001	3.57230E+000	9	...........
	39	0.533333	5.09810E-001	-8.86967E-005	0.00000E+000	-4.52185E-005	-5.39641E-002	5.09891E-001	3.57230E+000	9	...........
	40	0.546667	5.04238E-001	-8.90030E-005	0.00000E+000	-4.48787E-005	-5.39641E-002	5.04329E-001	3.57230E+000	9	...........
	41	0.56	4.98697E-001	-8.88228E-005	0.00000E+000	-4.42957E-005	-5.39641E-002	4.98794E-001	3.57230E+000	9	...........
	42	0.573333	4.93192E-001	-8.87342E-005	0.00000E+000	-4.37631E-005	-5.39641E-002	4.93269E-001	3.57230E+000	9	...........
	43	0.586667	4.87703E-001	-8.88999E-005	0.00000E+000	-4.33567E-005	-5.39641E-002	4.87778E-001	3.57230E+000	9	...........
	44	0.6	4.82316E-001	-8.87259E-005	0.00000E+000	-4.27939E-005	-5.39641E-002	4.82375E-001	3.57230E+000	9	...........
	45	0.613333	4.76902E-001	-8.87457E-005	0.00000E+000	-4.23230E-005	-5.39641E-002	4.76966E-001	3.57230E+000	9	...........
	46	0.626667	4.71515E-001	-8.91291E-005	0.00000E+000	-4.20257E-005	-5.39641E-002	4.71581E-001	3.57230E+000	9	...........
	47	0.64	4.66155E-001	-8.86353E-005	0.00000E+000	-4.13177E-005	-5.39641E-002	4.66218E-001	3.57230E+000	9	...........
	48	0.653333	4.60826E-001	-8.88364E-005	0.00000E+000	-4.09381E-005	-5.39641E-002	4.60888E-001	3.57230E+000	9	...........
	49	0.666667	4.55523E-001	-8.87363E-005	0.00000E+000	-4.04215E-005	-5.39641E-002	4.55585E-001	3.57230E+000	9	...........
	50	0.68	4.50244E-001	-8.86582E-005	0.00000E+000	-3.99178E-005	-5.39641E-002	4.50307E-001	3.57230E+000	9	...........
	51	0.693333	4.44997E-001	-8.86957E-005	0.00000E+000	-3.94693E-005	-5.39641E-002	4.45059E-001	3.57230E+000	9	...........
	52	0.706667	4.39773E-001	-8.86832E-005	0.00000E+000	-3.90004E-005	-5.39641E-002	4.39835E-001	3.57230E+000	9	...........
	53	0.72	4.34584E-001	-8.88895E-005	0.00000E+000	-3.86300E-005	-5.39641E-002	4.34642E-001	3.57230E+000	9	...........
	54	0.733333	4.29386E-001	-8.88020E-005	0.00000E+000	-3.81303E-005	-5.39641E-002	4.29440E-001	3.57230E+000	9	...........
	55	0.746667	4.24202E-001	-8.86936E-005	0.00000E+000	-3.76240E-005	-5.39641E-002	4.24259E-001	3.57230E+000	9	...........
	56	0.76	4.19065E-001	-8.87280E-005	0.00000E+000	-3.71828E-005	-5.39641E-002	4.19118E-001	3.57230E+000	9	...........
	57	0.773333	4.13941E-001	-8.88874E-005	0.00000E+000	-3.67941E-005	-5.39641E-002	4.13997E-001	3.57230E+000	9	...........
	58	0.786667	4.08840E-001	-8.86071E-005	0.00000E+000	-3.62261E-005	-5.39641E-002	4.08888E-001	3.57230E+000	9	...........
	59	0.8	4.03748E-001	-8.90260E-005	0.00000E+000	-3.59441E-005	-5.39641E-002	4.03792E-001	3.57230E+000	9	...........
	60	0.813333	3.98682E-001	-8.89468E-005	0.00000E+000	-3.54614E-005	-5.39641E-002	3.98726E-001	3.57230E+000	9	...........
	61	0.826667	3.93628E-001	-8.87728E-005	0.00000E+000	-3.49435E-005	-5.39641E-002	3.93671E-001	3.57230E+000	9	...........
	62	0.84	3.88589E-001	-8.86592E-005	0.00000E+000	-3.44520E-005	-5.39641E-002	3.88635E-001	3.57230E+000	9	...........
	63	0.853333	3.83564E-001	-8.87707E-005	0.00000E+000	-3.40493E-005	-5.39641E-002	3.83603E-001	3.57230E+000	9	...........
	64	0.866667	3.78537E-001	-8.86176E-005	0.00000E+000	-3.35450E-005	-5.39641E-002	3.78581E-001	3.57230E+000	9	...........
	65	0.88	3.73532E-001	-8.86446E-005	0.00000E+000	-3.31116E-005	-5.39641E-002	3.73575E-001	3.57230E+000	9	...........
	66	0.893333	3.68549E-001	-8.86540E-005	0.00000E+000	-3.26734E-005	-5.39641E-002	3.68593E-001	3.57230E+000	9	...........
	67	0.906667	3.63595E-001	-8.89030E-005	0.00000E+000	-3.23247E-005	-5.39641E-002	3.63638E-001	3.57230E+000	9	...........
	68	0.92	3.58632E-001	-8.86217E-005	0.00000E+000	-3.17826E-005	-5.39641E-002	3.58676E-001	3.57230E+000	9	...........
	69	0.933333	3.53699E-001	-8.89062E-005	0.00000E+000	-3.14460E-005	-5.39641E-002	3.53736E-001	3.57230E+000	9	...........
	70	0.946667	3.48783E-001	-8.86676E-005	0.00000E+000	-3.09257E-005	-5.39641E-002	3.48826E-001	3.57230E+000	9	...........
	71	0.96	3.43876E-001	-8.89728E-005	0.00000E+000	-3.05956E-005	-5.39641E-002	3.43921E-001	3.57230E+000	9	...........
	72	0.97333	3.38982E-001	-8.88728E-005	0.00000E+000	-3.01263E-005	-5.39641E-002	3.39016E-001	3.57230E+000	9	...........
	73	0.98667	3.34122E-001	-8.86071E-005	0.00000E+000	-2.96056E-005	-5.39641E-002	3.34163E-001	3.57230E+000	9	...........
	74	1	3.29257E-001	-8.86123E-005	0.00000E+000	-2.91763E-005	-5.39641E-002	3.29295E-001	3.57230E+000	9	...........
	75	1.01333	3.24417E-001	-8.88082E-005	0.00000E+000	-2.88109E-005	-5.39641E-002	3.24459E-001	3.57230E+000	9	...........
	76	1.02667	3.19593E-001	-8.87217E-005	0.00000E+000	-2.83548E-005	-5.39641E-002	3.19626E-001	3.57230E+000	9	...........
	77	1.04	3.14778E-001	-8.89614E-005	0.00000E+000	-2.80031E-005	-5.39641E-002	3.14817E-001	3.57230E+000	9	...........
	78	1.05333	3.09998E-001	-8.87509E-005	0.00000E+000	-2.75126E-005	-5.39641E-002	3.10033E-001	3.57230E+000	9	...........
	79	1.06667	3.05218E-001	-8.88332E-005	0.00000E+000	-2.71135E-005	-5.39641E-002	3.05261E-001	3.57230E+000	9	...........
	80	1.08	3.00470E-001	-8.89197E-005	0.00000E+000	-2.67177E-005	-5.39641E-002	3.00504E-001	3.57230E+000	9	...........
	81	1.09333	2.95725E-001	-8.87447E-005	0.00000E+000	-2.62440E-005	-5.39641E-002	2.95759E-001	3.57230E+000	9	...........
	82	1.10667	2.91025E-001	-8.87394E-005	0.00000E+000	-2.58254E-005	-5.39641E-002	2.91060E-001	3.57231E+000	9	...........
	83	1.12	2.86341E-001	-8.86134E-005	0.00000E+000	-2.53737E-005	-5.39641E-002	2.86380E-001	3.57240E+000	9	...........
	84	1.13333	2.81689E-001	-8.85655E-005	0.00000E+000	-2.49479E-005	-5.39641E-002	2.81725E-001	3.57240E+000	9	...........
	85	1.14667	2.77048E-001	-8.87217E-005	0.00000E+000	-2.45802E-005	-5.39641E-002	2.77083E-001	3.57240E+000	9	...........
	86	1.16	2.72414E-001	-8.88436E-005	0.00000E+000	-2.42023E-005	-5.39641E-002	2.72454E-001	3.57240E+000	9	...........
	87	1.17333	2.67805E-001	-8.87030E-005	0.00000E+000	-2.37551E-005	-5.39641E-002	2.67842E-001	3.57240E+000	9	...........
	88	1.18667	2.63201E-001	-8.86832E-005	0.00000E+000	-2.33415E-005	-5.39641E-002	2.63239E-001	3.57240E+000	9	...........
	89	1.2	2.58619E-001	-8.86426E-005	0.00000E+000	-2.29247E-005	-5.39641E-002	2.58651E-001	3.57240E+000	9	...........
	90	1.21333	2.54055E-001	-8.87978E-005	0.00000E+000	-2.25595E-005	-5.39641E-002	2.54090E-001	3.57240E+000	9	...........
	91	1.22667	2.49507E-001	-8.88874E-005	0.00000E+000	-2.21781E-005	-5.39641E-002	2.49540E-001	3.57240E+000	9	...........
	92	1.24	2.44982E-001	-8.86405E-005	0.00000E+000	-2.17153E-005	-5.39641E-002	2.45007E-001	3.57240E+000	9	...........
	93	1.25333	2.40481E-001	-8.86363E-005	0.00000E+000	-2.13154E-005	-5.39641E-002	2.40505E-001	3.57240E+000	9	...........
	94	1.26667	2.36029E-001	-8.88176E-005	0.00000E+000	-2.09635E-005	-5.39641E-002	2.36048E-001	3.57240E+000	9	...........
	95	1.28	2.31590E-001	-8.90228E-005	0.00000E+000	-2.06168E-005	-5.39641E-002	2.31607E-001	3.57240E+000	9	...........
	96	1.29333	2.27156E-001	-8.87290E-005	0.00000E+000	-2.01554E-005	-5.39641E-002	2.27183E-001	3.57240E+000	9	...........
	97	1.30667	2.22747E-001	-8.87405E-005	0.00000E+000	-1.97667E-005	-5.39641E-002	2.22775E-001	3.57240E+000	9	...........
	98	1.32	2.18349E-001	-8.86280E-005	0.00000E+000	-1.93518E-005	-5.39641E-002	2.18374E-001	3.57240E+000	9	...........
	99	1.33333	2.13963E-001	-8.87947E-005	0.00000E+000	-1.89988E-005	-5.39641E-002	2.13991E-001	3.57240E+000	9	...........
	100	1.34667	2.09601E-001	-8.89885E-005	0.00000E+000	-1.86521E-005	-5.39641E-002	2.09622E-001	3.57240E+000	9	...........
	101	1.36	2.05245E-001	-8.88061E-005	0.00000E+000	-1.82270E-005	-5.39641E-002	2.05266E-001	3.57240E+000	9	...........
	102	1.37333	2.00925E-001	-8.90135E-005	0.00000E+000	-1.78851E-005	-5.39641E-002	2.00954E-001	3.57240E+000	9	...........
	103	1.38667	1.96619E-001	-8.87770E-005	0.00000E+000	-1.74553E-005	-5.39641E-002	1.96647E-001	3.57240E+000	9	...........
	104	1.4	1.92352E-001	-8.87718E-005	0.00000E+000	-1.70754E-005	-5.39641E-002	1.92374E-001	3.57240E+000	9	...........
	105	1.41333	1.88074E-001	-8.87790E-005	0.00000E+000	-1.66970E-005	-5.39641E-002	1.88100E-001	3.57240E+000	9	...........
	106	1.42667	1.83817E-001	-8.83508E-005	0.00000E+000	-1.62404E-005	-5.39641E-002	1.83841E-001	3.57240E+000	9	...........
	107	1.44	1.79587E-001	-8.87697E-005	0.00000E+000	-1.59418E-005	-5.39641E-002	1.79606E-001	3.57240E+000	9	...........
	108	1.45333	1.75374E-001	-8.87051E-005	0.00000E+000	-1.55566E-005	-5.39641E-002	1.75395E-001	3.57240E+000	9	...........
	109	1.46667	1.71178E-001	-8.88009E-005	0.00000E+000	-1.52007E-005	-5.39641E-002	1.71193E-001	3.57240E+000	9	...........
	110	1.48	1.67001E-001	-8.88186E-005	0.00000E+000	-1.48328E-005	-5.39641E-002	1.67017E-001	3.57240E+000	9	...........
	111	1.49333	1.62850E-001	-8.87790E-005	0.00000E+000	-1.44577E-005	-5.39641E-002	1.62865E-001	3.57240E+000	9	...........
	112	1.50667	1.58722E-001	-8.88072E-005	0.00000E+000	-1.40957E-005	-5.39641E-002	1.58735E-001	3.57240E+000	9	...........
	113	1.52	1.54604E-001	-8.87322E-005	0.00000E+000	-1.37183E-005	-5.39641E-002	1.54615E-001	3.57240E+000	9	...........
	114	1.53333	1.50495E-001	-8.86051E-005	0.00000E+000	-1.33346E-005	-5.39641E-002	1.50511E-001	3.57240E+000	9	...........
	115	1.54667	1.46428E-001	-8.88332E-005	0.00000E+000	-1.30077E-005	-5.39641E-002	1.46437E-001	3.57240E+000	9	...........
	116	1.56	1.42380E-001	-8.86290E-005	0.00000E+000	-1.26190E-005	-5.39641E-002	1.42388E-001	3.57240E+000	9	...........
	117	1.57333	1.38333E-001	-8.90218E-005	0.00000E+000	-1.23147E-005	-5.39641E-002	1.38341E-001	3.57240E+000	9	...........
	118	1.58667	1.34298E-001	-8.86363E-005	0.00000E+000	-1.19037E-005	-5.39641E-002	1.34303E-001	3.57240E+000	9	...........
	119	1.6	1.30302E-001	-8.86801E-005	0.00000E+000	-1.15552E-005	-5.39641E-002	1.30311E-001	3.57240E+000	9	...........
	120	1.61333	1.26309E-001	-8.89978E-005	0.00000E+000	-1.12413E-005	-5.39641E-002	1.26323E-001	3.57240E+000	9	...........
	121	1.62667	1.22338E-001	-8.86082E-005	0.00000E+000	-1.08401E-005	-5.39641E-002	1.22350E-001	3.57240E+000	9	...........
	122	1.64	1.18389E-001	-8.87770E-005	0.00000E+000	-1.05103E-005	-5.39641E-002	1.18402E-001	3.57240E+000	9	...........
	123	1.65333	1.14463E-001	-8.88186E-005	0.00000E+000	-1.01665E-005	-5.39641E-002	1.14475E-001	3.57240E+000	9	...........
	124	1.66667	1.10545E-001	-8.87499E-005	0.00000E+000	-9.81087E-006	-5.39641E-002	1.10554E-001	3.57240E+000	9	...........
	125	1.68	1.06631E-001	-8.87415E-005	0.00000E+000	-9.46257E-006	-5.39641E-002	1.06635E-001	3.57240E+000	9	...........
	126	1.69333	1.02728E-001	-8.87499E-005	0.00000E+000	-9.11714E-006	-5.39641E-002	1.02741E-001	3.57240E+000	9	...........
	127	1.70667	9.88456E-002	-8.85623E-005	0.00000E+000	-8.75399E-006	-5.39641E-002	9.88568E-002	3.57240E+000	9	...........
	128	1.72	9.49803E-002	-8.87478E-005	0.00000E+000	-8.42930E-006	-5.39641E-002	9.49888E-002	3.57240E+000	9	...........
	129	1.73333	9.11255E-002	-8.87790E-005	0.00000E+000	-8.09003E-006	-5.39641E-002	9.11352E-002	3.57240E+000	9	...........
	130	1.74667	8.72890E-002	-8.88103E-005	0.00000E+000	-7.75217E-006	-5.39641E-002	8.72951E-002	3.57240E+000	9	...........
	131	1.76	8.34716E-002	-8.88197E-005	0.00000E+000	-7.41392E-006	-5.39641E-002	8.34744E-002	3.57240E+000	9	...........
	132	1.77333	7.96795E-002	-8.88551E-005	0.00000E+000	-7.07993E-006	-5.39641E-002	7.96807E-002	3.57240E+000	9	...........
	133	1.78667	7.58846E-002	-8.88207E-005	0.00000E+000	-6.74012E-006	-5.39641E-002	7.58893E-002	3.57240E+000	9	...........
	134	1.8	7.21223E-002	-8.87811E-005	0.00000E+000	-6.40310E-006	-5.39641E-002	7.21249E-002	3.57240E+000	9	...........
	135	1.81333	6.83804E-002	-8.84165E-005	0.00000E+000	-6.04595E-006	-5.39641E-002	6.83872E-002	3.57240E+000	9	...........
	136	1.82667	6.46556E-002	-8.86624E-005	0.00000E+000	-5.73252E-006	-5.39641E-002	6.46544E-002	3.57240E+000	9	...........
	137	1.84	6.09439E-002	-8.85415E-005	0.00000E+000	-5.39606E-006	-5.39641E-002	6.09461E-002	3.57240E+000	9	...........
	138	1.85333	5.72363E-002	-8.86551E-005	0.00000E+000	-5.07429E-006	-5.39641E-002	5.72356E-002	3.57240E+000	9	...........
	139	1.86667	5.35303E-002	-8.87134E-005	0.00000E+000	-4.74885E-006	-5.39641E-002	5.35303E-002	3.57240E+000	9	...........
	140	1.88	4.98548E-002	-8.85217E-005	0.00000E+000	-4.41323E-006	-5.39641E-002	4.98504E-002	3.57240E+000	9	...........
	141	1.89333	4.62124E-002	-8.87592E-005	0.00000E+000	-4.10178E-006	-5.39641E-002	4.62202E-002	3.57240E+000	9	...........
	142	1.90667	4.25719E-002	-8.89457E-005	0.00000E+000	-3.78659E-006	-5.39641E-002	4.25829E-002	3.57240E+000	9	...........
	143	1.92	3.89525E-002	-8.87207E-005	0.00000E+000	-3.45589E-006	-5.39641E-002	3.89571E-002	3.57240E+000	9	...........
	144	1.93333	3.53429E-002	-8.88447E-005	0.00000E+000	-3.14003E-006	-5.39641E-002	3.53442E-002	3.57240E+000	9	...........
	145	1.94667	3.17510E-002	-8.86290E-005	0.00000E+000	-2.81406E-006	-5.39641E-002	3.17504E-002	3.57240E+000	9	...........
	146	1.96	2.81764E-002	-8.86686E-005	0.00000E+000	-2.49836E-006	-5.39641E-002	2.81691E-002	3.57240E+000	9	...........
	147	1.97333	2.46089E-002	-8.89843E-005	0.00000E+000	-2.18980E-006	-5.39641E-002	2.46025E-002	3.57240E+000	9	...........
	148	1.98667	2.10823E-002	-8.88280E-005	0.00000E+000	-1.87270E-006	-5.39641E-002	2.10764E-002	3.57240E+000	9	...........
	149	2	1.75697E-002	-8.88551E-005	0.00000E+000	-1.56116E-006	-5.39641E-002	1.75609E-002	3.57240E+000	9	...........
	150	2.01333	1.40513E-002	-8.88093E-005	0.00000E+000	-1.24789E-006	-5.39641E-002	1.40409E-002	3.57240E+000	9	...........
	151	2.02667	1.05567E-002	-8.89155E-005	0.00000E+000	-9.38656E-007	-5.39641E-002	1.05446E-002	3.57240E+000	9	...........
	152	2.04	7.09067E-003	-8.86780E-005	0.00000E+000	-6.28786E-007	-5.39641E-002	7.07633E-003	3.57240E+000	9	...........
	153	2.05333	3.61636E-003	-8.88030E-005	0.00000E+000	-3.21144E-007	-5.39641E-002	3.60458E-003	3.57240E+000	9	...........
	154	2.06167	8.07656E-004	-8.89466E-005	0.00000E+000	-7.18382E-008	-5.39641E-002	7.92114E-004	3.57240E+000	9	...........
STARTTIMEOFFSET	QUANT	1616.146	Start Time Offset (s)
