EXPLAIN
TAG	PWR800_DISCHARGE
TITLE	LABEL	PWR Cyclic Charge Discharge (Cell) - Discharge Step	Test &Identifier
DATE	LABEL	10-7-2017	Date
TIME	LABEL	15:49:10	Time
NOTES	NOTES	3	&Notes...
	supercap test cell
	0.9mg
	6M KOH
PSTAT	PSTAT	IFC5000-01520	Potentiostat
CAPACITY	QUANT	1.00000E-003	Capacity (A-hr)
CELLTYPE	SELECTOR	1	&Cell Type
WORKINGCONNECTION	SELECTOR	0	&Working Lead
MAXDISCHARGETIME	VARIABLEANDUNITS	1.00000E+002	s	1.00000E+002	second(s)	Max &Discharge Time
DISCHARGEMODE	MULTIPARAM	0	9.00000E-005	&Discharge Mode	Constant Current	Amp(s)
SAMPLETIME	QUANT	1.00000E-002	Sa&mple Period (s)
DISCHARGESTOPAT1	MULTIPARAM	3	0.00000E+000	Discharge Stop At &1	Voltage < Limit	V
DISCHARGESTOPAT2	MULTIPARAM	0	0.00000E+000	Discharge Stop At &2	None	N/A
AESBHCSELECTOR	TOGGLE	F	Save Both Half Cells
IRCOMP	TOGGLE	F	IR &Measure
EOC	QUANT	0	Open Circuit (V)
SEQUENCER	TOGGLE	TRUE	Run as Sequence
PSTATMODEL	IQUANT	53	Pstat Model
PSTATSECTION	LABEL	IFC5000-01520	Pstat Section
PSTATSERIALNO	LABEL	01520	Pstat Serial Number
CTRLMODE	IQUANT	0	Control Mode
ELECTROMETER	IQUANT	1	RE=0 or CS=1
IESTAB	IQUANT	0	I/E Stability
CASPEED	IQUANT	4	Control Amp Speed
CONVENTION	IQUANT	1	Current Convention
ICHRANGE	IQUANT	2	Ich Range
ICHRANGEMODE	TOGGLE	T	Ich Auto Range
ICHOFFSETENABLE	TOGGLE	F	Ich Offset Enable
ICHOFFSET	QUANT	0	Ich Offset (V)
ICHFILTER	IQUANT	1	Ich Filter
VCHRANGE	IQUANT	2	Vch Range
VCHRANGEMODE	TOGGLE	T	Vch Auto Range
VCHOFFSETENABLE	TOGGLE	F	Vch Offset Enable
VCHOFFSET	QUANT	0	Vch Offset (V)
VCHFILTER	IQUANT	1	Vch Filter
IERANGELOWERLIMIT	IQUANT	9	I/E Range Lower Limit
IERANGEMODE	TOGGLE	F	I/E AutoRange
IERANGE	IQUANT	9	I/E Range
ACHSELECT	IQUANT	1	Ach Select
ACHRANGE	IQUANT	2	Ach Range
ACHOFFSETENABLE	TOGGLE	F	Ach Offset Enable
ACHOFFSET	QUANT	0	Ach Offset (V)
ACHFILTER	IQUANT	1	Ach Filter
CABLEID	IQUANT	14	Cable ID
DCCALDATE	LABEL	5-7-2017	DC Calibration Date
ACCALDATE	LABEL	12/3/2015	AC Calibration Date
FRAMEWORKVERSION	QUANT	7.01	Framework Version
INSTRUMENTVERSION	LABEL	4.00	Instrument Version
CURVE	TABLE	151
	Pt	T	Vf	Im	Vu	Pwr	Sig	Ach	Temp	IERange	Over
	#	s	V	A	V	W	V	V	deg C	#	bits
	0	0.013333	8.11234E-001	-8.86999E-005	0.00000E+000	-7.19563E-005	-5.39641E-002	8.11425E-001	3.57260E+000	9	...........
	1	0.026667	7.97511E-001	-8.86540E-005	0.00000E+000	-7.07026E-005	-5.39641E-002	7.97620E-001	3.57260E+000	9	...........
	2	0.04	7.84628E-001	-8.88030E-005	0.00000E+000	-6.96773E-005	-5.39641E-002	7.84756E-001	3.57260E+000	9	...........
	3	0.053333	7.72471E-001	-8.85738E-005	0.00000E+000	-6.84207E-005	-5.39641E-002	7.72612E-001	3.57260E+000	9	...........
	4	0.066667	7.60930E-001	-8.86780E-005	0.00000E+000	-6.74778E-005	-5.39641E-002	7.61051E-001	3.57260E+000	9	...........
	5	0.08	7.49900E-001	-8.87718E-005	0.00000E+000	-6.65699E-005	-5.39641E-002	7.50036E-001	3.57260E+000	9	...........
	6	0.093333	7.39311E-001	-8.86728E-005	0.00000E+000	-6.55567E-005	-5.39641E-002	7.39460E-001	3.57260E+000	9	...........
	7	0.106667	7.29120E-001	-8.87738E-005	0.00000E+000	-6.47268E-005	-5.39641E-002	7.29259E-001	3.57260E+000	9	...........
	8	0.12	7.19277E-001	-8.87155E-005	0.00000E+000	-6.38110E-005	-5.39641E-002	7.19419E-001	3.57260E+000	9	...........
	9	0.133333	7.09724E-001	-8.85384E-005	0.00000E+000	-6.28378E-005	-5.39641E-002	7.09866E-001	3.57260E+000	9	...........
	10	0.146667	7.00505E-001	-8.88634E-005	0.00000E+000	-6.22493E-005	-5.39641E-002	7.00626E-001	3.57260E+000	9	...........
	11	0.16	6.91527E-001	-8.87801E-005	0.00000E+000	-6.13938E-005	-5.39641E-002	6.91657E-001	3.57260E+000	9	...........
	12	0.173333	6.82801E-001	-8.88280E-005	0.00000E+000	-6.06519E-005	-5.39641E-002	6.82937E-001	3.57260E+000	9	...........
	13	0.186667	6.74339E-001	-8.91312E-005	0.00000E+000	-6.01047E-005	-5.39641E-002	6.74452E-001	3.57260E+000	9	...........
	14	0.2	6.66035E-001	-8.87624E-005	0.00000E+000	-5.91189E-005	-5.39641E-002	6.66138E-001	3.57260E+000	9	...........
	15	0.213333	6.57912E-001	-8.88999E-005	0.00000E+000	-5.84883E-005	-5.39641E-002	6.58008E-001	3.57260E+000	9	...........
	16	0.226667	6.49997E-001	-8.85540E-005	0.00000E+000	-5.75598E-005	-5.39641E-002	6.50094E-001	3.57271E+000	9	...........
	17	0.24	6.42249E-001	-8.85050E-005	0.00000E+000	-5.68422E-005	-5.39641E-002	6.42356E-001	3.57290E+000	9	...........
	18	0.253333	6.34623E-001	-8.88061E-005	0.00000E+000	-5.63585E-005	-5.39641E-002	6.34718E-001	3.57290E+000	9	...........
	19	0.266667	6.27214E-001	-8.87759E-005	0.00000E+000	-5.56815E-005	-5.39641E-002	6.27281E-001	3.57290E+000	9	...........
	20	0.28	6.19931E-001	-8.88655E-005	0.00000E+000	-5.50905E-005	-5.39641E-002	6.19984E-001	3.57290E+000	9	...........
	21	0.293333	6.12712E-001	-8.90093E-005	0.00000E+000	-5.45370E-005	-5.39641E-002	6.12799E-001	3.57290E+000	9	...........
	22	0.306667	6.05660E-001	-8.90583E-005	0.00000E+000	-5.39391E-005	-5.39641E-002	6.05776E-001	3.57290E+000	9	...........
	23	0.32	5.98765E-001	-8.88259E-005	0.00000E+000	-5.31859E-005	-5.39641E-002	5.98846E-001	3.57290E+000	9	...........
	24	0.333333	5.91973E-001	-8.86999E-005	0.00000E+000	-5.25079E-005	-5.39641E-002	5.92053E-001	3.57290E+000	9	...........
	25	0.346667	5.85250E-001	-8.88759E-005	0.00000E+000	-5.20147E-005	-5.39641E-002	5.85343E-001	3.57290E+000	9	...........
	26	0.36	5.78642E-001	-8.90937E-005	0.00000E+000	-5.15533E-005	-5.39641E-002	5.78750E-001	3.57290E+000	9	...........
	27	0.373333	5.72165E-001	-8.87915E-005	0.00000E+000	-5.08035E-005	-5.39641E-002	5.72242E-001	3.57290E+000	9	...........
	28	0.386667	5.65750E-001	-8.88499E-005	0.00000E+000	-5.02669E-005	-5.39641E-002	5.65839E-001	3.57290E+000	9	...........
	29	0.4	5.59364E-001	-8.87009E-005	0.00000E+000	-4.96161E-005	-5.39641E-002	5.59470E-001	3.57290E+000	9	...........
	30	0.413333	5.53142E-001	-8.87540E-005	0.00000E+000	-4.90936E-005	-5.39641E-002	5.53222E-001	3.57290E+000	9	...........
	31	0.426667	5.46985E-001	-8.86405E-005	0.00000E+000	-4.84850E-005	-5.39641E-002	5.47067E-001	3.57290E+000	9	...........
	32	0.44	5.40886E-001	-8.88447E-005	0.00000E+000	-4.80549E-005	-5.39641E-002	5.40975E-001	3.57290E+000	9	...........
	33	0.453333	5.34839E-001	-8.88551E-005	0.00000E+000	-4.75232E-005	-5.39641E-002	5.34931E-001	3.57290E+000	9	...........
	34	0.466667	5.28872E-001	-8.89260E-005	0.00000E+000	-4.70304E-005	-5.39641E-002	5.28982E-001	3.57290E+000	9	...........
	35	0.48	5.22961E-001	-8.86759E-005	0.00000E+000	-4.63740E-005	-5.39641E-002	5.23057E-001	3.57290E+000	9	...........
	36	0.493333	5.17121E-001	-8.88551E-005	0.00000E+000	-4.59489E-005	-5.39641E-002	5.17220E-001	3.57290E+000	9	...........
	37	0.506667	5.11298E-001	-8.87718E-005	0.00000E+000	-4.53888E-005	-5.39641E-002	5.11416E-001	3.57290E+000	9	...........
	38	0.52	5.05516E-001	-8.90374E-005	0.00000E+000	-4.50098E-005	-5.39641E-002	5.05653E-001	3.57290E+000	9	...........
	39	0.533333	4.99810E-001	-8.89207E-005	0.00000E+000	-4.44435E-005	-5.39641E-002	4.99934E-001	3.57290E+000	9	...........
	40	0.546667	4.94159E-001	-8.86405E-005	0.00000E+000	-4.38025E-005	-5.39641E-002	4.94271E-001	3.57290E+000	9	...........
	41	0.56	4.88549E-001	-8.85436E-005	0.00000E+000	-4.32579E-005	-5.39641E-002	4.88648E-001	3.57290E+000	9	...........
	42	0.573333	4.83065E-001	-8.86978E-005	0.00000E+000	-4.28468E-005	-5.39641E-002	4.83128E-001	3.57290E+000	9	...........
	43	0.586667	4.77541E-001	-8.88134E-005	0.00000E+000	-4.24121E-005	-5.39641E-002	4.77607E-001	3.57290E+000	9	...........
	44	0.6	4.72045E-001	-8.86822E-005	0.00000E+000	-4.18619E-005	-5.39641E-002	4.72109E-001	3.57290E+000	9	...........
	45	0.613333	4.66579E-001	-8.90531E-005	0.00000E+000	-4.15503E-005	-5.39641E-002	4.66644E-001	3.57290E+000	9	...........
	46	0.626667	4.61152E-001	-8.89426E-005	0.00000E+000	-4.10161E-005	-5.39641E-002	4.61214E-001	3.57290E+000	9	...........
	47	0.64	4.55756E-001	-8.87374E-005	0.00000E+000	-4.04426E-005	-5.39641E-002	4.55819E-001	3.57290E+000	9	...........
	48	0.653333	4.50397E-001	-8.87801E-005	0.00000E+000	-3.99863E-005	-5.39641E-002	4.50459E-001	3.57290E+000	9	...........
	49	0.666667	4.45058E-001	-8.88822E-005	0.00000E+000	-3.95577E-005	-5.39641E-002	4.45113E-001	3.57290E+000	9	...........
	50	0.68	4.39743E-001	-8.90114E-005	0.00000E+000	-3.91422E-005	-5.39641E-002	4.39799E-001	3.57290E+000	9	...........
	51	0.693333	4.34446E-001	-8.86749E-005	0.00000E+000	-3.85245E-005	-5.39641E-002	4.34504E-001	3.57290E+000	9	...........
	52	0.706667	4.29198E-001	-8.88374E-005	0.00000E+000	-3.81288E-005	-5.39641E-002	4.29250E-001	3.57290E+000	9	...........
	53	0.72	4.23968E-001	-8.89082E-005	0.00000E+000	-3.76943E-005	-5.39641E-002	4.24025E-001	3.57290E+000	9	...........
	54	0.733333	4.18768E-001	-8.87780E-005	0.00000E+000	-3.71773E-005	-5.39641E-002	4.18820E-001	3.57290E+000	9	...........
	55	0.746667	4.13571E-001	-8.88218E-005	0.00000E+000	-3.67341E-005	-5.39641E-002	4.13624E-001	3.57290E+000	9	...........
	56	0.76	4.08412E-001	-8.88593E-005	0.00000E+000	-3.62912E-005	-5.39641E-002	4.08464E-001	3.57290E+000	9	...........
	57	0.773333	4.03289E-001	-8.90645E-005	0.00000E+000	-3.59188E-005	-5.39641E-002	4.03338E-001	3.57290E+000	9	...........
	58	0.786667	3.98177E-001	-8.88166E-005	0.00000E+000	-3.53647E-005	-5.39641E-002	3.98226E-001	3.57290E+000	9	...........
	59	0.8	3.93062E-001	-8.88489E-005	0.00000E+000	-3.49231E-005	-5.39641E-002	3.93109E-001	3.57290E+000	9	...........
	60	0.813333	3.87966E-001	-8.87676E-005	0.00000E+000	-3.44388E-005	-5.39641E-002	3.88014E-001	3.57290E+000	9	...........
	61	0.826667	3.82918E-001	-8.88530E-005	0.00000E+000	-3.40234E-005	-5.39641E-002	3.82960E-001	3.57290E+000	9	...........
	62	0.84	3.77880E-001	-8.85207E-005	0.00000E+000	-3.34501E-005	-5.39641E-002	3.77926E-001	3.57290E+000	9	...........
	63	0.853333	3.72853E-001	-8.87374E-005	0.00000E+000	-3.30860E-005	-5.39641E-002	3.72902E-001	3.57290E+000	9	...........
	64	0.866667	3.67853E-001	-8.88218E-005	0.00000E+000	-3.26734E-005	-5.39641E-002	3.67898E-001	3.57290E+000	9	...........
	65	0.88	3.62864E-001	-8.89218E-005	0.00000E+000	-3.22666E-005	-5.39641E-002	3.62912E-001	3.57290E+000	9	...........
	66	0.893333	3.57892E-001	-8.85769E-005	0.00000E+000	-3.17009E-005	-5.39641E-002	3.57941E-001	3.57290E+000	9	...........
	67	0.906667	3.52930E-001	-8.88489E-005	0.00000E+000	-3.13574E-005	-5.39641E-002	3.52976E-001	3.57290E+000	9	...........
	68	0.92	3.47970E-001	-8.88853E-005	0.00000E+000	-3.09295E-005	-5.39641E-002	3.48017E-001	3.57290E+000	9	...........
	69	0.933333	3.43014E-001	-8.88176E-005	0.00000E+000	-3.04656E-005	-5.39641E-002	3.43055E-001	3.57290E+000	9	...........
	70	0.946667	3.38101E-001	-8.89155E-005	0.00000E+000	-3.00624E-005	-5.39641E-002	3.38135E-001	3.57290E+000	9	...........
	71	0.96	3.33196E-001	-8.85842E-005	0.00000E+000	-2.95159E-005	-5.39641E-002	3.33236E-001	3.57290E+000	9	...........
	72	0.97333	3.28301E-001	-8.87103E-005	0.00000E+000	-2.91237E-005	-5.39641E-002	3.28342E-001	3.57290E+000	9	...........
	73	0.98667	3.23416E-001	-8.87228E-005	0.00000E+000	-2.86944E-005	-5.39641E-002	3.23453E-001	3.57290E+000	9	...........
	74	1	3.18540E-001	-8.91468E-005	0.00000E+000	-2.83968E-005	-5.39641E-002	3.18577E-001	3.57290E+000	9	...........
	75	1.01333	3.13686E-001	-8.86499E-005	0.00000E+000	-2.78082E-005	-5.39641E-002	3.13717E-001	3.57290E+000	9	...........
	76	1.02667	3.08838E-001	-8.90801E-005	0.00000E+000	-2.75114E-005	-5.39641E-002	3.08876E-001	3.57290E+000	9	...........
	77	1.04	3.04004E-001	-8.87217E-005	0.00000E+000	-2.69717E-005	-5.39641E-002	3.04041E-001	3.57290E+000	9	...........
	78	1.05333	2.99181E-001	-8.87561E-005	0.00000E+000	-2.65541E-005	-5.39641E-002	2.99221E-001	3.57290E+000	9	...........
	79	1.06667	2.94372E-001	-8.89478E-005	0.00000E+000	-2.61837E-005	-5.39641E-002	2.94411E-001	3.57290E+000	9	...........
	80	1.08	2.89588E-001	-8.87520E-005	0.00000E+000	-2.57015E-005	-5.39641E-002	2.89625E-001	3.57290E+000	9	...........
	81	1.09333	2.84829E-001	-8.88395E-005	0.00000E+000	-2.53040E-005	-5.39641E-002	2.84872E-001	3.57290E+000	9	...........
	82	1.10667	2.80085E-001	-8.88134E-005	0.00000E+000	-2.48753E-005	-5.39641E-002	2.80123E-001	3.57290E+000	9	...........
	83	1.12	2.75357E-001	-8.87176E-005	0.00000E+000	-2.44290E-005	-5.39641E-002	2.75397E-001	3.57290E+000	9	...........
	84	1.13333	2.70644E-001	-8.85582E-005	0.00000E+000	-2.39677E-005	-5.39641E-002	2.70684E-001	3.57290E+000	9	...........
	85	1.14667	2.65957E-001	-8.89072E-005	0.00000E+000	-2.36455E-005	-5.39641E-002	2.65995E-001	3.57290E+000	9	...........
	86	1.16	2.61283E-001	-8.87009E-005	0.00000E+000	-2.31760E-005	-5.39641E-002	2.61326E-001	3.57290E+000	9	...........
	87	1.17333	2.56618E-001	-8.87655E-005	0.00000E+000	-2.27789E-005	-5.39641E-002	2.56652E-001	3.57290E+000	9	...........
	88	1.18667	2.51971E-001	-8.87905E-005	0.00000E+000	-2.23727E-005	-5.39641E-002	2.52007E-001	3.57290E+000	9	...........
	89	1.2	2.47352E-001	-8.88489E-005	0.00000E+000	-2.19769E-005	-5.39641E-002	2.47378E-001	3.57290E+000	9	...........
	90	1.21333	2.42751E-001	-8.88489E-005	0.00000E+000	-2.15681E-005	-5.39641E-002	2.42774E-001	3.57290E+000	9	...........
	91	1.22667	2.38164E-001	-8.85405E-005	0.00000E+000	-2.10872E-005	-5.39641E-002	2.38189E-001	3.57279E+000	9	...........
	92	1.24	2.33593E-001	-8.86665E-005	0.00000E+000	-2.07118E-005	-5.39641E-002	2.33619E-001	3.57260E+000	9	...........
	93	1.25333	2.29040E-001	-8.87374E-005	0.00000E+000	-2.03244E-005	-5.39641E-002	2.29067E-001	3.57260E+000	9	...........
	94	1.26667	2.24487E-001	-8.84602E-005	0.00000E+000	-1.98582E-005	-5.39641E-002	2.24516E-001	3.57260E+000	9	...........
	95	1.28	2.19961E-001	-8.88832E-005	0.00000E+000	-1.95509E-005	-5.39641E-002	2.19987E-001	3.57260E+000	9	...........
	96	1.29333	2.15468E-001	-8.87530E-005	0.00000E+000	-1.91234E-005	-5.39641E-002	2.15492E-001	3.57260E+000	9	...........
	97	1.30667	2.10991E-001	-8.88947E-005	0.00000E+000	-1.87560E-005	-5.39641E-002	2.11012E-001	3.57260E+000	9	...........
	98	1.32	2.06532E-001	-8.89197E-005	0.00000E+000	-1.83648E-005	-5.39641E-002	2.06558E-001	3.57260E+000	9	...........
	99	1.33333	2.02095E-001	-8.87197E-005	0.00000E+000	-1.79298E-005	-5.39641E-002	2.02115E-001	3.57260E+000	9	...........
	100	1.34667	1.97657E-001	-8.89020E-005	0.00000E+000	-1.75721E-005	-5.39641E-002	1.97680E-001	3.57260E+000	9	...........
	101	1.36	1.93253E-001	-8.89416E-005	0.00000E+000	-1.71882E-005	-5.39641E-002	1.93271E-001	3.57260E+000	9	...........
	102	1.37333	1.88879E-001	-8.86728E-005	0.00000E+000	-1.67484E-005	-5.39641E-002	1.88899E-001	3.57260E+000	9	...........
	103	1.38667	1.84522E-001	-8.89280E-005	0.00000E+000	-1.64092E-005	-5.39641E-002	1.84544E-001	3.57260E+000	9	...........
	104	1.4	1.80177E-001	-8.88374E-005	0.00000E+000	-1.60064E-005	-5.39641E-002	1.80200E-001	3.57260E+000	9	...........
	105	1.41333	1.75857E-001	-8.87342E-005	0.00000E+000	-1.56046E-005	-5.39641E-002	1.75875E-001	3.57260E+000	9	...........
	106	1.42667	1.71564E-001	-8.87843E-005	0.00000E+000	-1.52322E-005	-5.39641E-002	1.71589E-001	3.57260E+000	9	...........
	107	1.44	1.67295E-001	-8.87728E-005	0.00000E+000	-1.48513E-005	-5.39641E-002	1.67313E-001	3.57260E+000	9	...........
	108	1.45333	1.63037E-001	-8.85759E-005	0.00000E+000	-1.44411E-005	-5.39641E-002	1.63055E-001	3.57260E+000	9	...........
	109	1.46667	1.58799E-001	-8.87311E-005	0.00000E+000	-1.40904E-005	-5.39641E-002	1.58809E-001	3.57260E+000	9	...........
	110	1.48	1.54570E-001	-8.87645E-005	0.00000E+000	-1.37204E-005	-5.39641E-002	1.54586E-001	3.57260E+000	9	...........
	111	1.49333	1.50359E-001	-8.87040E-005	0.00000E+000	-1.33375E-005	-5.39641E-002	1.50368E-001	3.57260E+000	9	...........
	112	1.50667	1.46163E-001	-8.87415E-005	0.00000E+000	-1.29707E-005	-5.39641E-002	1.46172E-001	3.57260E+000	9	...........
	113	1.52	1.41980E-001	-8.89072E-005	0.00000E+000	-1.26230E-005	-5.39641E-002	1.41991E-001	3.57260E+000	9	...........
	114	1.53333	1.37824E-001	-8.88905E-005	0.00000E+000	-1.22513E-005	-5.39641E-002	1.37839E-001	3.57260E+000	9	...........
	115	1.54667	1.33682E-001	-8.88197E-005	0.00000E+000	-1.18736E-005	-5.39641E-002	1.33692E-001	3.57260E+000	9	...........
	116	1.56	1.29565E-001	-8.86499E-005	0.00000E+000	-1.14859E-005	-5.39641E-002	1.29576E-001	3.57260E+000	9	...........
	117	1.57333	1.25463E-001	-8.87843E-005	0.00000E+000	-1.11392E-005	-5.39641E-002	1.25476E-001	3.57260E+000	9	...........
	118	1.58667	1.21410E-001	-8.86040E-005	0.00000E+000	-1.07574E-005	-5.39641E-002	1.21418E-001	3.57260E+000	9	...........
	119	1.6	1.17350E-001	-8.89645E-005	0.00000E+000	-1.04400E-005	-5.39641E-002	1.17366E-001	3.57260E+000	9	...........
	120	1.61333	1.13309E-001	-8.88009E-005	0.00000E+000	-1.00619E-005	-5.39641E-002	1.13322E-001	3.57260E+000	9	...........
	121	1.62667	1.09279E-001	-8.88176E-005	0.00000E+000	-9.70592E-006	-5.39641E-002	1.09287E-001	3.57260E+000	9	...........
	122	1.64	1.05255E-001	-8.88676E-005	0.00000E+000	-9.35372E-006	-5.39641E-002	1.05261E-001	3.57260E+000	9	...........
	123	1.65333	1.01248E-001	-8.87457E-005	0.00000E+000	-8.98529E-006	-5.39641E-002	1.01255E-001	3.57260E+000	9	...........
	124	1.66667	9.72524E-002	-8.88999E-005	0.00000E+000	-8.64573E-006	-5.39641E-002	9.72635E-002	3.57260E+000	9	...........
	125	1.68	9.32888E-002	-8.89572E-005	0.00000E+000	-8.29871E-006	-5.39641E-002	9.32905E-002	3.57260E+000	9	...........
	126	1.69333	8.93404E-002	-8.89416E-005	0.00000E+000	-7.94608E-006	-5.39641E-002	8.93489E-002	3.57260E+000	9	...........
	127	1.70667	8.54103E-002	-8.87905E-005	0.00000E+000	-7.58362E-006	-5.39641E-002	8.54134E-002	3.57260E+000	9	...........
	128	1.72	8.14969E-002	-8.88113E-005	0.00000E+000	-7.23785E-006	-5.39641E-002	8.14960E-002	3.57260E+000	9	...........
	129	1.73333	7.76020E-002	-8.85957E-005	0.00000E+000	-6.87520E-006	-5.39641E-002	7.76000E-002	3.57260E+000	9	...........
	130	1.74667	7.37253E-002	-8.89280E-005	0.00000E+000	-6.55624E-006	-5.39641E-002	7.37299E-002	3.57260E+000	9	...........
	131	1.76	6.98563E-002	-8.89270E-005	0.00000E+000	-6.21211E-006	-5.39641E-002	6.98563E-002	3.57260E+000	9	...........
	132	1.77333	6.60127E-002	-8.88728E-005	0.00000E+000	-5.86673E-006	-5.39641E-002	6.60082E-002	3.57260E+000	9	...........
	133	1.78667	6.21795E-002	-8.86957E-005	0.00000E+000	-5.51505E-006	-5.39641E-002	6.21759E-002	3.57260E+000	9	...........
	134	1.8	5.83618E-002	-8.88155E-005	0.00000E+000	-5.18343E-006	-5.39641E-002	5.83580E-002	3.57260E+000	9	...........
	135	1.81333	5.45756E-002	-8.87905E-005	0.00000E+000	-4.84580E-006	-5.39641E-002	5.45735E-002	3.57260E+000	9	...........
	136	1.82667	5.08103E-002	-8.86988E-005	0.00000E+000	-4.50682E-006	-5.39641E-002	5.08102E-002	3.57260E+000	9	...........
	137	1.84	4.70780E-002	-8.89437E-005	0.00000E+000	-4.18729E-006	-5.39641E-002	4.70849E-002	3.57260E+000	9	...........
	138	1.85333	4.33492E-002	-8.87269E-005	0.00000E+000	-3.84624E-006	-5.39641E-002	4.33571E-002	3.57260E+000	9	...........
	139	1.86667	3.96343E-002	-8.87238E-005	0.00000E+000	-3.51651E-006	-5.39641E-002	3.96355E-002	3.57260E+000	9	...........
	140	1.88	3.59391E-002	-8.88270E-005	0.00000E+000	-3.19237E-006	-5.39641E-002	3.59436E-002	3.57260E+000	9	...........
	141	1.89333	3.22599E-002	-8.89280E-005	0.00000E+000	-2.86881E-006	-5.39641E-002	3.22598E-002	3.57260E+000	9	...........
	142	1.90667	2.85868E-002	-8.86488E-005	0.00000E+000	-2.53419E-006	-5.39641E-002	2.85860E-002	3.57260E+000	9	...........
	143	1.92	2.49332E-002	-8.86863E-005	0.00000E+000	-2.21123E-006	-5.39641E-002	2.49307E-002	3.57260E+000	9	...........
	144	1.93333	2.12963E-002	-8.85675E-005	0.00000E+000	-1.88616E-006	-5.39641E-002	2.12946E-002	3.57260E+000	9	...........
	145	1.94667	1.76934E-002	-8.90093E-005	0.00000E+000	-1.57487E-006	-5.39641E-002	1.76868E-002	3.57260E+000	9	...........
	146	1.96	1.41075E-002	-8.86228E-005	0.00000E+000	-1.25024E-006	-5.39641E-002	1.40986E-002	3.57260E+000	9	...........
	147	1.97333	1.05319E-002	-8.87874E-005	0.00000E+000	-9.35101E-007	-5.39641E-002	1.05226E-002	3.57260E+000	9	...........
	148	1.98667	6.97084E-003	-8.88822E-005	0.00000E+000	-6.19583E-007	-5.39641E-002	6.95915E-003	3.57260E+000	9	...........
	149	2	3.42960E-003	-8.86113E-005	0.00000E+000	-3.03901E-007	-5.39641E-002	3.41120E-003	3.57260E+000	9	...........
	150	2.00833	5.64908E-004	-8.89466E-005	0.00000E+000	-5.02467E-008	-5.39641E-002	5.46225E-004	3.57260E+000	9	...........
STARTTIMEOFFSET	QUANT	2521.903	Start Time Offset (s)
