EXPLAIN
TAG	PWR800_DISCHARGE
TITLE	LABEL	PWR Cyclic Charge Discharge (Cell) - Discharge Step	Test &Identifier
DATE	LABEL	10-7-2017	Date
TIME	LABEL	16:07:23	Time
NOTES	NOTES	3	&Notes...
	supercap test cell
	0.9mg
	6M KOH
PSTAT	PSTAT	IFC5000-01520	Potentiostat
CAPACITY	QUANT	1.00000E-003	Capacity (A-hr)
CELLTYPE	SELECTOR	1	&Cell Type
WORKINGCONNECTION	SELECTOR	0	&Working Lead
MAXDISCHARGETIME	VARIABLEANDUNITS	1.00000E+002	s	1.00000E+002	second(s)	Max &Discharge Time
DISCHARGEMODE	MULTIPARAM	0	9.00000E-005	&Discharge Mode	Constant Current	Amp(s)
SAMPLETIME	QUANT	1.00000E-002	Sa&mple Period (s)
DISCHARGESTOPAT1	MULTIPARAM	3	0.00000E+000	Discharge Stop At &1	Voltage < Limit	V
DISCHARGESTOPAT2	MULTIPARAM	0	0.00000E+000	Discharge Stop At &2	None	N/A
AESBHCSELECTOR	TOGGLE	F	Save Both Half Cells
IRCOMP	TOGGLE	F	IR &Measure
EOC	QUANT	0	Open Circuit (V)
SEQUENCER	TOGGLE	TRUE	Run as Sequence
PSTATMODEL	IQUANT	53	Pstat Model
PSTATSECTION	LABEL	IFC5000-01520	Pstat Section
PSTATSERIALNO	LABEL	01520	Pstat Serial Number
CTRLMODE	IQUANT	0	Control Mode
ELECTROMETER	IQUANT	1	RE=0 or CS=1
IESTAB	IQUANT	0	I/E Stability
CASPEED	IQUANT	4	Control Amp Speed
CONVENTION	IQUANT	1	Current Convention
ICHRANGE	IQUANT	2	Ich Range
ICHRANGEMODE	TOGGLE	T	Ich Auto Range
ICHOFFSETENABLE	TOGGLE	F	Ich Offset Enable
ICHOFFSET	QUANT	0	Ich Offset (V)
ICHFILTER	IQUANT	1	Ich Filter
VCHRANGE	IQUANT	2	Vch Range
VCHRANGEMODE	TOGGLE	T	Vch Auto Range
VCHOFFSETENABLE	TOGGLE	F	Vch Offset Enable
VCHOFFSET	QUANT	0	Vch Offset (V)
VCHFILTER	IQUANT	1	Vch Filter
IERANGELOWERLIMIT	IQUANT	9	I/E Range Lower Limit
IERANGEMODE	TOGGLE	F	I/E AutoRange
IERANGE	IQUANT	9	I/E Range
ACHSELECT	IQUANT	1	Ach Select
ACHRANGE	IQUANT	2	Ach Range
ACHOFFSETENABLE	TOGGLE	F	Ach Offset Enable
ACHOFFSET	QUANT	0	Ach Offset (V)
ACHFILTER	IQUANT	1	Ach Filter
CABLEID	IQUANT	14	Cable ID
DCCALDATE	LABEL	5-7-2017	DC Calibration Date
ACCALDATE	LABEL	12/3/2015	AC Calibration Date
FRAMEWORKVERSION	QUANT	7.01	Framework Version
INSTRUMENTVERSION	LABEL	4.00	Instrument Version
CURVE	TABLE	147
	Pt	T	Vf	Im	Vu	Pwr	Sig	Ach	Temp	IERange	Over
	#	s	V	A	V	W	V	V	deg C	#	bits
	0	0.013333	7.90894E-001	-8.89562E-005	0.00000E+000	-7.03549E-005	-5.39641E-002	7.91007E-001	3.57330E+000	9	...........
	1	0.026667	7.76959E-001	-8.84477E-005	0.00000E+000	-6.87202E-005	-5.39641E-002	7.77066E-001	3.57330E+000	9	...........
	2	0.04	7.63976E-001	-8.87165E-005	0.00000E+000	-6.77773E-005	-5.39641E-002	7.64080E-001	3.57330E+000	9	...........
	3	0.053333	7.51784E-001	-8.87030E-005	0.00000E+000	-6.66855E-005	-5.39641E-002	7.51881E-001	3.57330E+000	9	...........
	4	0.066667	7.40220E-001	-8.85769E-005	0.00000E+000	-6.55664E-005	-5.39641E-002	7.40343E-001	3.57330E+000	9	...........
	5	0.08	7.29202E-001	-8.87332E-005	0.00000E+000	-6.47044E-005	-5.39641E-002	7.29319E-001	3.57330E+000	9	...........
	6	0.093333	7.18673E-001	-8.88978E-005	0.00000E+000	-6.38885E-005	-5.39641E-002	7.18773E-001	3.57330E+000	9	...........
	7	0.106667	7.08496E-001	-8.87665E-005	0.00000E+000	-6.28907E-005	-5.39641E-002	7.08606E-001	3.57330E+000	9	...........
	8	0.12	6.98712E-001	-8.87853E-005	0.00000E+000	-6.20354E-005	-5.39641E-002	6.98810E-001	3.57330E+000	9	...........
	9	0.133333	6.89234E-001	-8.91031E-005	0.00000E+000	-6.14128E-005	-5.39641E-002	6.89352E-001	3.57330E+000	9	...........
	10	0.146667	6.80072E-001	-8.88749E-005	0.00000E+000	-6.04413E-005	-5.39641E-002	6.80199E-001	3.57330E+000	9	...........
	11	0.16	6.71170E-001	-8.88041E-005	0.00000E+000	-5.96026E-005	-5.39641E-002	6.71264E-001	3.57330E+000	9	...........
	12	0.173333	6.62515E-001	-8.88864E-005	0.00000E+000	-5.88885E-005	-5.39641E-002	6.62608E-001	3.57278E+000	9	...........
	13	0.186667	6.54096E-001	-8.88176E-005	0.00000E+000	-5.80952E-005	-5.39641E-002	6.54177E-001	3.57270E+000	9	...........
	14	0.2	6.45885E-001	-8.89520E-005	0.00000E+000	-5.74528E-005	-5.39641E-002	6.45969E-001	3.57270E+000	9	...........
	15	0.213333	6.37875E-001	-8.85634E-005	0.00000E+000	-5.64923E-005	-5.39641E-002	6.37958E-001	3.57270E+000	9	...........
	16	0.226667	6.30053E-001	-8.87374E-005	0.00000E+000	-5.59092E-005	-5.39641E-002	6.30146E-001	3.57270E+000	9	...........
	17	0.24	6.22415E-001	-8.86561E-005	0.00000E+000	-5.51809E-005	-5.39641E-002	6.22488E-001	3.57270E+000	9	...........
	18	0.253333	6.14937E-001	-8.87405E-005	0.00000E+000	-5.45699E-005	-5.39641E-002	6.15031E-001	3.57270E+000	9	...........
	19	0.266667	6.07558E-001	-8.85707E-005	0.00000E+000	-5.38119E-005	-5.39641E-002	6.07683E-001	3.57270E+000	9	...........
	20	0.28	6.00391E-001	-8.87228E-005	0.00000E+000	-5.32683E-005	-5.39641E-002	6.00513E-001	3.57270E+000	9	...........
	21	0.293333	5.93364E-001	-8.88218E-005	0.00000E+000	-5.27037E-005	-5.39641E-002	5.93468E-001	3.57270E+000	9	...........
	22	0.306667	5.86414E-001	-8.86373E-005	0.00000E+000	-5.19782E-005	-5.39641E-002	5.86530E-001	3.57270E+000	9	...........
	23	0.32	5.79579E-001	-8.87905E-005	0.00000E+000	-5.14611E-005	-5.39641E-002	5.79701E-001	3.57270E+000	9	...........
	24	0.333333	5.72876E-001	-8.87395E-005	0.00000E+000	-5.08367E-005	-5.39641E-002	5.72982E-001	3.57270E+000	9	...........
	25	0.346667	5.66286E-001	-8.85800E-005	0.00000E+000	-5.01616E-005	-5.39641E-002	5.66372E-001	3.57270E+000	9	...........
	26	0.36	5.59705E-001	-8.90260E-005	0.00000E+000	-4.98282E-005	-5.39641E-002	5.59802E-001	3.57270E+000	9	...........
	27	0.373333	5.53273E-001	-8.87853E-005	0.00000E+000	-4.91225E-005	-5.39641E-002	5.53365E-001	3.57270E+000	9	...........
	28	0.386667	5.46977E-001	-8.86999E-005	0.00000E+000	-4.85168E-005	-5.39641E-002	5.47034E-001	3.57270E+000	9	...........
	29	0.4	5.40731E-001	-8.87770E-005	0.00000E+000	-4.80045E-005	-5.39641E-002	5.40809E-001	3.57270E+000	9	...........
	30	0.413333	5.34535E-001	-8.86936E-005	0.00000E+000	-4.74099E-005	-5.39641E-002	5.34630E-001	3.57270E+000	9	...........
	31	0.426667	5.28449E-001	-8.88457E-005	0.00000E+000	-4.69505E-005	-5.39641E-002	5.28545E-001	3.57270E+000	9	...........
	32	0.44	5.22442E-001	-8.88926E-005	0.00000E+000	-4.64412E-005	-5.39641E-002	5.22521E-001	3.57270E+000	9	...........
	33	0.453333	5.16504E-001	-8.86561E-005	0.00000E+000	-4.57912E-005	-5.39641E-002	5.16573E-001	3.57270E+000	9	...........
	34	0.466667	5.10611E-001	-8.88343E-005	0.00000E+000	-4.53598E-005	-5.39641E-002	5.10690E-001	3.57270E+000	9	...........
	35	0.48	5.04742E-001	-8.88093E-005	0.00000E+000	-4.48257E-005	-5.39641E-002	5.04849E-001	3.57270E+000	9	...........
	36	0.493333	4.98995E-001	-8.86269E-005	0.00000E+000	-4.42244E-005	-5.39641E-002	4.99054E-001	3.57270E+000	9	...........
	37	0.506667	4.93284E-001	-8.88707E-005	0.00000E+000	-4.38385E-005	-5.39641E-002	4.93335E-001	3.57270E+000	9	...........
	38	0.52	4.87603E-001	-8.88968E-005	0.00000E+000	-4.33463E-005	-5.39641E-002	4.87675E-001	3.57270E+000	9	...........
	39	0.533333	4.82115E-001	-8.87113E-005	0.00000E+000	-4.27690E-005	-5.39641E-002	4.82156E-001	3.57270E+000	9	...........
	40	0.546667	4.76552E-001	-8.88822E-005	0.00000E+000	-4.23570E-005	-5.39641E-002	4.76612E-001	3.57270E+000	9	...........
	41	0.56	4.71023E-001	-8.90041E-005	0.00000E+000	-4.19230E-005	-5.39641E-002	4.71088E-001	3.57270E+000	9	...........
	42	0.573333	4.65545E-001	-8.89770E-005	0.00000E+000	-4.14228E-005	-5.39641E-002	4.65605E-001	3.57270E+000	9	...........
	43	0.586667	4.60101E-001	-8.89645E-005	0.00000E+000	-4.09326E-005	-5.39641E-002	4.60166E-001	3.57270E+000	9	...........
	44	0.6	4.54704E-001	-8.86176E-005	0.00000E+000	-4.02948E-005	-5.39641E-002	4.54765E-001	3.57270E+000	9	...........
	45	0.613333	4.49333E-001	-8.86009E-005	0.00000E+000	-3.98113E-005	-5.39641E-002	4.49393E-001	3.57270E+000	9	...........
	46	0.626667	4.43989E-001	-8.87624E-005	0.00000E+000	-3.94095E-005	-5.39641E-002	4.44054E-001	3.57270E+000	9	...........
	47	0.64	4.38676E-001	-8.88697E-005	0.00000E+000	-3.89850E-005	-5.39641E-002	4.38737E-001	3.57270E+000	9	...........
	48	0.653333	4.33406E-001	-8.88082E-005	0.00000E+000	-3.84900E-005	-5.39641E-002	4.33472E-001	3.57270E+000	9	...........
	49	0.666667	4.28178E-001	-8.86707E-005	0.00000E+000	-3.79668E-005	-5.39641E-002	4.28240E-001	3.57270E+000	9	...........
	50	0.68	4.22971E-001	-8.92020E-005	0.00000E+000	-3.77299E-005	-5.39641E-002	4.23031E-001	3.57270E+000	9	...........
	51	0.693333	4.17784E-001	-8.88905E-005	0.00000E+000	-3.71370E-005	-5.39641E-002	4.17844E-001	3.57270E+000	9	...........
	52	0.706667	4.12623E-001	-8.88582E-005	0.00000E+000	-3.66649E-005	-5.39641E-002	4.12680E-001	3.57270E+000	9	...........
	53	0.72	4.07487E-001	-8.89937E-005	0.00000E+000	-3.62637E-005	-5.39641E-002	4.07540E-001	3.57270E+000	9	...........
	54	0.733333	4.02367E-001	-8.87436E-005	0.00000E+000	-3.57075E-005	-5.39641E-002	4.02417E-001	3.57270E+000	9	...........
	55	0.746667	3.97273E-001	-8.89197E-005	0.00000E+000	-3.53254E-005	-5.39641E-002	3.97321E-001	3.57270E+000	9	...........
	56	0.76	3.92199E-001	-8.89958E-005	0.00000E+000	-3.49040E-005	-5.39641E-002	3.92246E-001	3.57270E+000	9	...........
	57	0.773333	3.87137E-001	-8.88186E-005	0.00000E+000	-3.43850E-005	-5.39641E-002	3.87189E-001	3.57270E+000	9	...........
	58	0.786667	3.82102E-001	-8.88614E-005	0.00000E+000	-3.39541E-005	-5.39641E-002	3.82148E-001	3.57270E+000	9	...........
	59	0.8	3.77078E-001	-8.87988E-005	0.00000E+000	-3.34841E-005	-5.39641E-002	3.77122E-001	3.57270E+000	9	...........
	60	0.813333	3.72078E-001	-8.90020E-005	0.00000E+000	-3.31157E-005	-5.39641E-002	3.72123E-001	3.57270E+000	9	...........
	61	0.826667	3.67085E-001	-8.87061E-005	0.00000E+000	-3.25627E-005	-5.39641E-002	3.67137E-001	3.57270E+000	9	...........
	62	0.84	3.62115E-001	-8.89176E-005	0.00000E+000	-3.21984E-005	-5.39641E-002	3.62160E-001	3.57270E+000	9	...........
	63	0.853333	3.57155E-001	-8.87249E-005	0.00000E+000	-3.16885E-005	-5.39641E-002	3.57197E-001	3.57270E+000	9	...........
	64	0.866667	3.52213E-001	-8.88582E-005	0.00000E+000	-3.12970E-005	-5.39641E-002	3.52249E-001	3.57270E+000	9	...........
	65	0.88	3.47276E-001	-8.88947E-005	0.00000E+000	-3.08710E-005	-5.39641E-002	3.47319E-001	3.57270E+000	9	...........
	66	0.893333	3.42348E-001	-8.88614E-005	0.00000E+000	-3.04215E-005	-5.39641E-002	3.42388E-001	3.57270E+000	9	...........
	67	0.906667	3.37426E-001	-8.84279E-005	0.00000E+000	-2.98379E-005	-5.39641E-002	3.37462E-001	3.57270E+000	9	...........
	68	0.92	3.32516E-001	-8.88676E-005	0.00000E+000	-2.95499E-005	-5.39641E-002	3.32563E-001	3.57270E+000	9	...........
	69	0.933333	3.27626E-001	-8.89207E-005	0.00000E+000	-2.91328E-005	-5.39641E-002	3.27677E-001	3.57270E+000	9	...........
	70	0.946667	3.22756E-001	-8.86915E-005	0.00000E+000	-2.86258E-005	-5.39641E-002	3.22797E-001	3.57270E+000	9	...........
	71	0.96	3.17895E-001	-8.88572E-005	0.00000E+000	-2.82473E-005	-5.39641E-002	3.17936E-001	3.57270E+000	9	...........
	72	0.97333	3.13052E-001	-8.87176E-005	0.00000E+000	-2.77732E-005	-5.39641E-002	3.13091E-001	3.57270E+000	9	...........
	73	0.98667	3.08225E-001	-8.87186E-005	0.00000E+000	-2.73453E-005	-5.39641E-002	3.08272E-001	3.57270E+000	9	...........
	74	1	3.03425E-001	-8.87738E-005	0.00000E+000	-2.69362E-005	-5.39641E-002	3.03468E-001	3.57270E+000	9	...........
	75	1.01333	2.98624E-001	-8.87957E-005	0.00000E+000	-2.65165E-005	-5.39641E-002	2.98659E-001	3.57270E+000	9	...........
	76	1.02667	2.93822E-001	-8.87530E-005	0.00000E+000	-2.60776E-005	-5.39641E-002	2.93861E-001	3.57270E+000	9	...........
	77	1.04	2.89046E-001	-8.84998E-005	0.00000E+000	-2.55805E-005	-5.39641E-002	2.89080E-001	3.57270E+000	9	...........
	78	1.05333	2.84274E-001	-8.88895E-005	0.00000E+000	-2.52690E-005	-5.39641E-002	2.84310E-001	3.57270E+000	9	...........
	79	1.06667	2.79533E-001	-8.84373E-005	0.00000E+000	-2.47211E-005	-5.39641E-002	2.79561E-001	3.57270E+000	9	...........
	80	1.08	2.74776E-001	-8.87811E-005	0.00000E+000	-2.43949E-005	-5.39641E-002	2.74814E-001	3.57270E+000	9	...........
	81	1.09333	2.70038E-001	-8.89051E-005	0.00000E+000	-2.40078E-005	-5.39641E-002	2.70069E-001	3.57270E+000	9	...........
	82	1.10667	2.65301E-001	-8.89030E-005	0.00000E+000	-2.35861E-005	-5.39641E-002	2.65334E-001	3.57270E+000	9	...........
	83	1.12	2.60604E-001	-8.87436E-005	0.00000E+000	-2.31270E-005	-5.39641E-002	2.60640E-001	3.57270E+000	9	...........
	84	1.13333	2.55918E-001	-8.88614E-005	0.00000E+000	-2.27412E-005	-5.39641E-002	2.55949E-001	3.57270E+000	9	...........
	85	1.14667	2.51255E-001	-8.85571E-005	0.00000E+000	-2.22505E-005	-5.39641E-002	2.51293E-001	3.57270E+000	9	...........
	86	1.16	2.46615E-001	-8.90176E-005	0.00000E+000	-2.19531E-005	-5.39641E-002	2.46648E-001	3.57270E+000	9	...........
	87	1.17333	2.41991E-001	-8.89207E-005	0.00000E+000	-2.15180E-005	-5.39641E-002	2.42022E-001	3.57270E+000	9	...........
	88	1.18667	2.37380E-001	-8.89958E-005	0.00000E+000	-2.11258E-005	-5.39641E-002	2.37406E-001	3.57270E+000	9	...........
	89	1.2	2.32764E-001	-8.88884E-005	0.00000E+000	-2.06900E-005	-5.39641E-002	2.32788E-001	3.57270E+000	9	...........
	90	1.21333	2.28170E-001	-8.87082E-005	0.00000E+000	-2.02406E-005	-5.39641E-002	2.28202E-001	3.57270E+000	9	...........
	91	1.22667	2.23594E-001	-8.89520E-005	0.00000E+000	-1.98891E-005	-5.39641E-002	2.23622E-001	3.57270E+000	9	...........
	92	1.24	2.19031E-001	-8.87655E-005	0.00000E+000	-1.94424E-005	-5.39641E-002	2.19055E-001	3.57270E+000	9	...........
	93	1.25333	2.14490E-001	-8.87697E-005	0.00000E+000	-1.90402E-005	-5.39641E-002	2.14520E-001	3.57270E+000	9	...........
	94	1.26667	2.09964E-001	-8.86999E-005	0.00000E+000	-1.86238E-005	-5.39641E-002	2.09985E-001	3.57270E+000	9	...........
	95	1.28	2.05447E-001	-8.88259E-005	0.00000E+000	-1.82490E-005	-5.39641E-002	2.05466E-001	3.57270E+000	9	...........
	96	1.29333	2.00943E-001	-8.88124E-005	0.00000E+000	-1.78462E-005	-5.39641E-002	2.00964E-001	3.57270E+000	9	...........
	97	1.30667	1.96461E-001	-8.87770E-005	0.00000E+000	-1.74412E-005	-5.39641E-002	1.96484E-001	3.57270E+000	9	...........
	98	1.32	1.92013E-001	-8.88270E-005	0.00000E+000	-1.70560E-005	-5.39641E-002	1.92031E-001	3.57270E+000	9	...........
	99	1.33333	1.87581E-001	-8.89218E-005	0.00000E+000	-1.66801E-005	-5.39641E-002	1.87600E-001	3.57270E+000	9	...........
	100	1.34667	1.83165E-001	-8.89124E-005	0.00000E+000	-1.62856E-005	-5.39641E-002	1.83188E-001	3.57270E+000	9	...........
	101	1.36	1.78766E-001	-8.86863E-005	0.00000E+000	-1.58541E-005	-5.39641E-002	1.78793E-001	3.57270E+000	9	...........
	102	1.37333	1.74391E-001	-8.88291E-005	0.00000E+000	-1.54910E-005	-5.39641E-002	1.74409E-001	3.57270E+000	9	...........
	103	1.38667	1.70028E-001	-8.87624E-005	0.00000E+000	-1.50921E-005	-5.39641E-002	1.70045E-001	3.57270E+000	9	...........
	104	1.4	1.65669E-001	-8.89801E-005	0.00000E+000	-1.47413E-005	-5.39641E-002	1.65688E-001	3.57270E+000	9	...........
	105	1.41333	1.61349E-001	-8.87613E-005	0.00000E+000	-1.43216E-005	-5.39641E-002	1.61364E-001	3.57270E+000	9	...........
	106	1.42667	1.57036E-001	-8.89874E-005	0.00000E+000	-1.39742E-005	-5.39641E-002	1.57055E-001	3.57270E+000	9	...........
	107	1.44	1.52761E-001	-8.86842E-005	0.00000E+000	-1.35475E-005	-5.39641E-002	1.52775E-001	3.57270E+000	9	...........
	108	1.45333	1.48494E-001	-8.88957E-005	0.00000E+000	-1.32005E-005	-5.39641E-002	1.48505E-001	3.57270E+000	9	...........
	109	1.46667	1.44241E-001	-8.87249E-005	0.00000E+000	-1.27978E-005	-5.39641E-002	1.44255E-001	3.57270E+000	9	...........
	110	1.48	1.40010E-001	-8.88124E-005	0.00000E+000	-1.24347E-005	-5.39641E-002	1.40022E-001	3.57270E+000	9	...........
	111	1.49333	1.35802E-001	-8.89322E-005	0.00000E+000	-1.20771E-005	-5.39641E-002	1.35808E-001	3.57270E+000	9	...........
	112	1.50667	1.31608E-001	-8.87384E-005	0.00000E+000	-1.16787E-005	-5.39641E-002	1.31613E-001	3.57270E+000	9	...........
	113	1.52	1.27439E-001	-8.88905E-005	0.00000E+000	-1.13281E-005	-5.39641E-002	1.27446E-001	3.57270E+000	9	...........
	114	1.53333	1.23293E-001	-8.87030E-005	0.00000E+000	-1.09364E-005	-5.39641E-002	1.23305E-001	3.57270E+000	9	...........
	115	1.54667	1.19150E-001	-8.87103E-005	0.00000E+000	-1.05699E-005	-5.39641E-002	1.19161E-001	3.57270E+000	9	...........
	116	1.56	1.15024E-001	-8.88176E-005	0.00000E+000	-1.02161E-005	-5.39641E-002	1.15037E-001	3.57270E+000	9	...........
	117	1.57333	1.10918E-001	-8.88374E-005	0.00000E+000	-9.85371E-006	-5.39641E-002	1.10934E-001	3.57270E+000	9	...........
	118	1.58667	1.06838E-001	-8.88447E-005	0.00000E+000	-9.49201E-006	-5.39641E-002	1.06845E-001	3.57270E+000	9	...........
	119	1.6	1.02768E-001	-8.89708E-005	0.00000E+000	-9.14338E-006	-5.39641E-002	1.02776E-001	3.57270E+000	9	...........
	120	1.61333	9.87280E-002	-8.87290E-005	0.00000E+000	-8.76004E-006	-5.39641E-002	9.87423E-002	3.57270E+000	9	...........
	121	1.62667	9.46998E-002	-8.88291E-005	0.00000E+000	-8.41209E-006	-5.39641E-002	9.47071E-002	3.57270E+000	9	...........
	122	1.64	9.06712E-002	-8.88697E-005	0.00000E+000	-8.05792E-006	-5.39641E-002	9.06773E-002	3.57270E+000	9	...........
	123	1.65333	8.66719E-002	-8.87926E-005	0.00000E+000	-7.69582E-006	-5.39641E-002	8.66782E-002	3.57270E+000	9	...........
	124	1.66667	8.26875E-002	-8.88978E-005	0.00000E+000	-7.35074E-006	-5.39641E-002	8.26871E-002	3.57270E+000	9	...........
	125	1.68	7.87039E-002	-8.87665E-005	0.00000E+000	-6.98627E-006	-5.39641E-002	7.87000E-002	3.57270E+000	9	...........
	126	1.69333	7.47484E-002	-8.88759E-005	0.00000E+000	-6.64334E-006	-5.39641E-002	7.47475E-002	3.57270E+000	9	...........
	127	1.70667	7.07973E-002	-8.86551E-005	0.00000E+000	-6.27654E-006	-5.39641E-002	7.08025E-002	3.57270E+000	9	...........
	128	1.72	6.68770E-002	-8.89124E-005	0.00000E+000	-5.94620E-006	-5.39641E-002	6.68720E-002	3.57270E+000	9	...........
	129	1.73333	6.29564E-002	-8.88739E-005	0.00000E+000	-5.59518E-006	-5.39641E-002	6.29538E-002	3.57270E+000	9	...........
	130	1.74667	5.90559E-002	-8.87811E-005	0.00000E+000	-5.24305E-006	-5.39641E-002	5.90557E-002	3.57270E+000	9	...........
	131	1.76	5.51738E-002	-8.87655E-005	0.00000E+000	-4.89753E-006	-5.39641E-002	5.51692E-002	3.57270E+000	9	...........
	132	1.77333	5.13021E-002	-8.90312E-005	0.00000E+000	-4.56749E-006	-5.39641E-002	5.12941E-002	3.57270E+000	9	...........
	133	1.78667	4.74691E-002	-8.86936E-005	0.00000E+000	-4.21021E-006	-5.39641E-002	4.74766E-002	3.57270E+000	9	...........
	134	1.8	4.36614E-002	-8.88291E-005	0.00000E+000	-3.87840E-006	-5.39641E-002	4.36698E-002	3.57270E+000	9	...........
	135	1.81333	3.98768E-002	-8.86790E-005	0.00000E+000	-3.53623E-006	-5.39641E-002	3.98804E-002	3.57270E+000	9	...........
	136	1.82667	3.61096E-002	-8.87530E-005	0.00000E+000	-3.20483E-006	-5.39641E-002	3.61143E-002	3.57270E+000	9	...........
	137	1.84	3.23592E-002	-8.85821E-005	0.00000E+000	-2.86645E-006	-5.39641E-002	3.23621E-002	3.57270E+000	9	...........
	138	1.85333	2.86299E-002	-8.89843E-005	0.00000E+000	-2.54761E-006	-5.39641E-002	2.86310E-002	3.57270E+000	9	...........
	139	1.86667	2.49103E-002	-8.86957E-005	0.00000E+000	-2.20944E-006	-5.39641E-002	2.49135E-002	3.57270E+000	9	...........
	140	1.88	2.12088E-002	-8.87884E-005	0.00000E+000	-1.88309E-006	-5.39641E-002	2.12028E-002	3.57270E+000	9	...........
	141	1.89333	1.75114E-002	-8.87738E-005	0.00000E+000	-1.55455E-006	-5.39641E-002	1.75039E-002	3.57270E+000	9	...........
	142	1.90667	1.38502E-002	-8.86238E-005	0.00000E+000	-1.22746E-006	-5.39641E-002	1.38451E-002	3.57270E+000	9	...........
	143	1.92	1.02105E-002	-8.89562E-005	0.00000E+000	-9.08284E-007	-5.39641E-002	1.02004E-002	3.57270E+000	9	...........
	144	1.93333	6.58818E-003	-8.87915E-005	0.00000E+000	-5.84974E-007	-5.39641E-002	6.57588E-003	3.57270E+000	9	...........
	145	1.94667	2.97748E-003	-8.90437E-005	0.00000E+000	-2.65126E-007	-5.39641E-002	2.96248E-003	3.57270E+000	9	...........
	146	1.95333	2.79624E-004	-8.90812E-005	0.00000E+000	-2.49092E-008	-5.39641E-002	2.65747E-004	3.57270E+000	9	...........
STARTTIMEOFFSET	QUANT	3432.481	Start Time Offset (s)
