EXPLAIN
TAG	PWR800_DISCHARGE
TITLE	LABEL	PWR Cyclic Charge Discharge (Cell) - Discharge Step	Test &Identifier
DATE	LABEL	10-7-2017	Date
TIME	LABEL	15:35:01	Time
NOTES	NOTES	3	&Notes...
	supercap test cell
	0.9mg
	6M KOH
PSTAT	PSTAT	IFC5000-01520	Potentiostat
CAPACITY	QUANT	1.00000E-003	Capacity (A-hr)
CELLTYPE	SELECTOR	1	&Cell Type
WORKINGCONNECTION	SELECTOR	0	&Working Lead
MAXDISCHARGETIME	VARIABLEANDUNITS	1.00000E+002	s	1.00000E+002	second(s)	Max &Discharge Time
DISCHARGEMODE	MULTIPARAM	0	9.00000E-005	&Discharge Mode	Constant Current	Amp(s)
SAMPLETIME	QUANT	1.00000E-002	Sa&mple Period (s)
DISCHARGESTOPAT1	MULTIPARAM	3	0.00000E+000	Discharge Stop At &1	Voltage < Limit	V
DISCHARGESTOPAT2	MULTIPARAM	0	0.00000E+000	Discharge Stop At &2	None	N/A
AESBHCSELECTOR	TOGGLE	F	Save Both Half Cells
IRCOMP	TOGGLE	F	IR &Measure
EOC	QUANT	0	Open Circuit (V)
SEQUENCER	TOGGLE	TRUE	Run as Sequence
PSTATMODEL	IQUANT	53	Pstat Model
PSTATSECTION	LABEL	IFC5000-01520	Pstat Section
PSTATSERIALNO	LABEL	01520	Pstat Serial Number
CTRLMODE	IQUANT	0	Control Mode
ELECTROMETER	IQUANT	1	RE=0 or CS=1
IESTAB	IQUANT	0	I/E Stability
CASPEED	IQUANT	4	Control Amp Speed
CONVENTION	IQUANT	1	Current Convention
ICHRANGE	IQUANT	2	Ich Range
ICHRANGEMODE	TOGGLE	T	Ich Auto Range
ICHOFFSETENABLE	TOGGLE	F	Ich Offset Enable
ICHOFFSET	QUANT	0	Ich Offset (V)
ICHFILTER	IQUANT	1	Ich Filter
VCHRANGE	IQUANT	2	Vch Range
VCHRANGEMODE	TOGGLE	T	Vch Auto Range
VCHOFFSETENABLE	TOGGLE	F	Vch Offset Enable
VCHOFFSET	QUANT	0	Vch Offset (V)
VCHFILTER	IQUANT	1	Vch Filter
IERANGELOWERLIMIT	IQUANT	9	I/E Range Lower Limit
IERANGEMODE	TOGGLE	F	I/E AutoRange
IERANGE	IQUANT	9	I/E Range
ACHSELECT	IQUANT	1	Ach Select
ACHRANGE	IQUANT	2	Ach Range
ACHOFFSETENABLE	TOGGLE	F	Ach Offset Enable
ACHOFFSET	QUANT	0	Ach Offset (V)
ACHFILTER	IQUANT	1	Ach Filter
CABLEID	IQUANT	14	Cable ID
DCCALDATE	LABEL	5-7-2017	DC Calibration Date
ACCALDATE	LABEL	12/3/2015	AC Calibration Date
FRAMEWORKVERSION	QUANT	7.01	Framework Version
INSTRUMENTVERSION	LABEL	4.00	Instrument Version
CURVE	TABLE	154
	Pt	T	Vf	Im	Vu	Pwr	Sig	Ach	Temp	IERange	Over
	#	s	V	A	V	W	V	V	deg C	#	bits
	0	0.013333	8.16241E-001	-8.86915E-005	0.00000E+000	-7.23936E-005	-5.39641E-002	8.16352E-001	3.57290E+000	9	...........
	1	0.026667	8.02914E-001	-8.85655E-005	0.00000E+000	-7.11105E-005	-5.39641E-002	8.03033E-001	3.57290E+000	9	...........
	2	0.04	7.90431E-001	-8.89968E-005	0.00000E+000	-7.03458E-005	-5.39641E-002	7.90536E-001	3.57290E+000	9	...........
	3	0.053333	7.78642E-001	-8.88197E-005	0.00000E+000	-6.91587E-005	-5.39641E-002	7.78774E-001	3.57290E+000	9	...........
	4	0.066667	7.67379E-001	-8.86728E-005	0.00000E+000	-6.80456E-005	-5.39641E-002	7.67537E-001	3.57290E+000	9	...........
	5	0.08	7.56611E-001	-8.86415E-005	0.00000E+000	-6.70672E-005	-5.39641E-002	7.56752E-001	3.57290E+000	9	...........
	6	0.093333	7.46276E-001	-8.88499E-005	0.00000E+000	-6.63066E-005	-5.39641E-002	7.46424E-001	3.57290E+000	9	...........
	7	0.106667	7.36294E-001	-8.86780E-005	0.00000E+000	-6.52930E-005	-5.39641E-002	7.36443E-001	3.57290E+000	9	...........
	8	0.12	7.26669E-001	-8.85915E-005	0.00000E+000	-6.43767E-005	-5.39641E-002	7.26811E-001	3.57290E+000	9	...........
	9	0.133333	7.17322E-001	-8.86186E-005	0.00000E+000	-6.35680E-005	-5.39641E-002	7.17466E-001	3.57290E+000	9	...........
	10	0.146667	7.08257E-001	-8.89708E-005	0.00000E+000	-6.30142E-005	-5.39641E-002	7.08386E-001	3.57290E+000	9	...........
	11	0.16	6.99445E-001	-8.88614E-005	0.00000E+000	-6.21536E-005	-5.39641E-002	6.99575E-001	3.57290E+000	9	...........
	12	0.173333	6.90848E-001	-8.87072E-005	0.00000E+000	-6.12832E-005	-5.39641E-002	6.90969E-001	3.57290E+000	9	...........
	13	0.186667	6.82477E-001	-8.87426E-005	0.00000E+000	-6.05648E-005	-5.39641E-002	6.82595E-001	3.57290E+000	9	...........
	14	0.2	6.74332E-001	-8.88489E-005	0.00000E+000	-5.99136E-005	-5.39641E-002	6.74439E-001	3.57290E+000	9	...........
	15	0.213333	6.66358E-001	-8.87540E-005	0.00000E+000	-5.91419E-005	-5.39641E-002	6.66458E-001	3.57290E+000	9	...........
	16	0.226667	6.58536E-001	-8.86571E-005	0.00000E+000	-5.83839E-005	-5.39641E-002	6.58628E-001	3.57290E+000	9	...........
	17	0.24	6.50901E-001	-8.86248E-005	0.00000E+000	-5.76860E-005	-5.39641E-002	6.50997E-001	3.57290E+000	9	...........
	18	0.253333	6.43404E-001	-8.87092E-005	0.00000E+000	-5.70759E-005	-5.39641E-002	6.43509E-001	3.57290E+000	9	...........
	19	0.266667	6.36042E-001	-8.87645E-005	0.00000E+000	-5.64579E-005	-5.39641E-002	6.36158E-001	3.57290E+000	9	...........
	20	0.28	6.28841E-001	-8.88186E-005	0.00000E+000	-5.58528E-005	-5.39641E-002	6.28946E-001	3.57290E+000	9	...........
	21	0.293333	6.21757E-001	-8.87009E-005	0.00000E+000	-5.51504E-005	-5.39641E-002	6.21829E-001	3.57290E+000	9	...........
	22	0.306667	6.14771E-001	-8.86415E-005	0.00000E+000	-5.44942E-005	-5.39641E-002	6.14876E-001	3.57290E+000	9	...........
	23	0.32	6.07885E-001	-8.87103E-005	0.00000E+000	-5.39256E-005	-5.39641E-002	6.08012E-001	3.57290E+000	9	...........
	24	0.333333	6.01151E-001	-8.87124E-005	0.00000E+000	-5.33295E-005	-5.39641E-002	6.01272E-001	3.57290E+000	9	...........
	25	0.346667	5.94497E-001	-8.89374E-005	0.00000E+000	-5.28731E-005	-5.39641E-002	5.94627E-001	3.57290E+000	9	...........
	26	0.36	5.87947E-001	-8.88395E-005	0.00000E+000	-5.22329E-005	-5.39641E-002	5.88085E-001	3.57290E+000	9	...........
	27	0.373333	5.81475E-001	-8.88811E-005	0.00000E+000	-5.16822E-005	-5.39641E-002	5.81600E-001	3.57290E+000	9	...........
	28	0.386667	5.75114E-001	-8.87905E-005	0.00000E+000	-5.10647E-005	-5.39641E-002	5.75206E-001	3.57290E+000	9	...........
	29	0.4	5.68795E-001	-8.85863E-005	0.00000E+000	-5.03875E-005	-5.39641E-002	5.68877E-001	3.57290E+000	9	...........
	30	0.413333	5.62557E-001	-8.87478E-005	0.00000E+000	-4.99257E-005	-5.39641E-002	5.62671E-001	3.57290E+000	9	...........
	31	0.426667	5.56406E-001	-8.87843E-005	0.00000E+000	-4.94001E-005	-5.39641E-002	5.56506E-001	3.57290E+000	9	...........
	32	0.44	5.50330E-001	-8.87384E-005	0.00000E+000	-4.88354E-005	-5.39641E-002	5.50451E-001	3.57290E+000	9	...........
	33	0.453333	5.44330E-001	-8.87009E-005	0.00000E+000	-4.82826E-005	-5.39641E-002	5.44430E-001	3.57290E+000	9	...........
	34	0.466667	5.38393E-001	-8.88989E-005	0.00000E+000	-4.78625E-005	-5.39641E-002	5.38501E-001	3.57290E+000	9	...........
	35	0.48	5.32462E-001	-8.86999E-005	0.00000E+000	-4.72293E-005	-5.39641E-002	5.32611E-001	3.57290E+000	9	...........
	36	0.493333	5.26639E-001	-8.86884E-005	0.00000E+000	-4.67067E-005	-5.39641E-002	5.26786E-001	3.57271E+000	9	...........
	37	0.506667	5.20854E-001	-8.88145E-005	0.00000E+000	-4.62594E-005	-5.39641E-002	5.20982E-001	3.57260E+000	9	...........
	38	0.52	5.15119E-001	-8.86123E-005	0.00000E+000	-4.56459E-005	-5.39641E-002	5.15243E-001	3.57260E+000	9	...........
	39	0.533333	5.09401E-001	-8.87978E-005	0.00000E+000	-4.52337E-005	-5.39641E-002	5.09529E-001	3.57260E+000	9	...........
	40	0.546667	5.03726E-001	-8.88530E-005	0.00000E+000	-4.47576E-005	-5.39641E-002	5.03866E-001	3.57260E+000	9	...........
	41	0.56	4.98129E-001	-8.87176E-005	0.00000E+000	-4.41928E-005	-5.39641E-002	4.98263E-001	3.57260E+000	9	...........
	42	0.573333	4.92572E-001	-8.88739E-005	0.00000E+000	-4.37768E-005	-5.39641E-002	4.92690E-001	3.57260E+000	9	...........
	43	0.586667	4.87057E-001	-8.88499E-005	0.00000E+000	-4.32749E-005	-5.39641E-002	4.87174E-001	3.57260E+000	9	...........
	44	0.6	4.81683E-001	-8.87197E-005	0.00000E+000	-4.27347E-005	-5.39641E-002	4.81754E-001	3.57260E+000	9	...........
	45	0.613333	4.76247E-001	-8.88499E-005	0.00000E+000	-4.23145E-005	-5.39641E-002	4.76314E-001	3.57260E+000	9	...........
	46	0.626667	4.70846E-001	-8.87269E-005	0.00000E+000	-4.17767E-005	-5.39641E-002	4.70910E-001	3.57260E+000	9	...........
	47	0.64	4.65458E-001	-8.87915E-005	0.00000E+000	-4.13287E-005	-5.39641E-002	4.65519E-001	3.57260E+000	9	...........
	48	0.653333	4.60097E-001	-8.87947E-005	0.00000E+000	-4.08542E-005	-5.39641E-002	4.60156E-001	3.57260E+000	9	...........
	49	0.666667	4.54761E-001	-8.88166E-005	0.00000E+000	-4.03903E-005	-5.39641E-002	4.54817E-001	3.57260E+000	9	...........
	50	0.68	4.49430E-001	-8.88343E-005	0.00000E+000	-3.99248E-005	-5.39641E-002	4.49491E-001	3.57260E+000	9	...........
	51	0.693333	4.44131E-001	-8.88343E-005	0.00000E+000	-3.94541E-005	-5.39641E-002	4.44192E-001	3.57260E+000	9	...........
	52	0.706667	4.38852E-001	-8.89062E-005	0.00000E+000	-3.90167E-005	-5.39641E-002	4.38912E-001	3.57260E+000	9	...........
	53	0.72	4.33600E-001	-8.87738E-005	0.00000E+000	-3.84923E-005	-5.39641E-002	4.33659E-001	3.57260E+000	9	...........
	54	0.733333	4.28398E-001	-8.85321E-005	0.00000E+000	-3.79270E-005	-5.39641E-002	4.28455E-001	3.57260E+000	9	...........
	55	0.746667	4.23214E-001	-8.88666E-005	0.00000E+000	-3.76096E-005	-5.39641E-002	4.23270E-001	3.57260E+000	9	...........
	56	0.76	4.18050E-001	-8.86665E-005	0.00000E+000	-3.70670E-005	-5.39641E-002	4.18109E-001	3.57260E+000	9	...........
	57	0.773333	4.12913E-001	-8.85623E-005	0.00000E+000	-3.65686E-005	-5.39641E-002	4.12970E-001	3.57260E+000	9	...........
	58	0.786667	4.07783E-001	-8.87551E-005	0.00000E+000	-3.61928E-005	-5.39641E-002	4.07835E-001	3.57260E+000	9	...........
	59	0.8	4.02665E-001	-8.89134E-005	0.00000E+000	-3.58023E-005	-5.39641E-002	4.02714E-001	3.57260E+000	9	...........
	60	0.813333	3.97559E-001	-8.87238E-005	0.00000E+000	-3.52730E-005	-5.39641E-002	3.97609E-001	3.57260E+000	9	...........
	61	0.826667	3.92473E-001	-8.88874E-005	0.00000E+000	-3.48859E-005	-5.39641E-002	3.92517E-001	3.57260E+000	9	...........
	62	0.84	3.87397E-001	-8.89833E-005	0.00000E+000	-3.44718E-005	-5.39641E-002	3.87438E-001	3.57260E+000	9	...........
	63	0.853333	3.82345E-001	-8.89583E-005	0.00000E+000	-3.40127E-005	-5.39641E-002	3.82390E-001	3.57260E+000	9	...........
	64	0.866667	3.77299E-001	-8.90260E-005	0.00000E+000	-3.35894E-005	-5.39641E-002	3.77342E-001	3.57260E+000	9	...........
	65	0.88	3.72273E-001	-8.87072E-005	0.00000E+000	-3.30233E-005	-5.39641E-002	3.72319E-001	3.57260E+000	9	...........
	66	0.893333	3.67251E-001	-8.87197E-005	0.00000E+000	-3.25824E-005	-5.39641E-002	3.67288E-001	3.57260E+000	9	...........
	67	0.906667	3.62248E-001	-8.86301E-005	0.00000E+000	-3.21061E-005	-5.39641E-002	3.62289E-001	3.57260E+000	9	...........
	68	0.92	3.57265E-001	-8.89093E-005	0.00000E+000	-3.17642E-005	-5.39641E-002	3.57305E-001	3.57260E+000	9	...........
	69	0.933333	3.52305E-001	-8.87978E-005	0.00000E+000	-3.12839E-005	-5.39641E-002	3.52343E-001	3.57260E+000	9	...........
	70	0.946667	3.47353E-001	-8.86363E-005	0.00000E+000	-3.07881E-005	-5.39641E-002	3.47394E-001	3.57260E+000	9	...........
	71	0.96	3.42410E-001	-8.88905E-005	0.00000E+000	-3.04370E-005	-5.39641E-002	3.42452E-001	3.57260E+000	9	...........
	72	0.97333	3.37482E-001	-8.88739E-005	0.00000E+000	-2.99933E-005	-5.39641E-002	3.37526E-001	3.57260E+000	9	...........
	73	0.98667	3.32561E-001	-8.87186E-005	0.00000E+000	-2.95044E-005	-5.39641E-002	3.32603E-001	3.57260E+000	9	...........
	74	1	3.27670E-001	-8.87707E-005	0.00000E+000	-2.90875E-005	-5.39641E-002	3.27706E-001	3.57260E+000	9	...........
	75	1.01333	3.22796E-001	-8.87832E-005	0.00000E+000	-2.86589E-005	-5.39641E-002	3.22841E-001	3.57260E+000	9	...........
	76	1.02667	3.17925E-001	-8.87686E-005	0.00000E+000	-2.82218E-005	-5.39641E-002	3.17965E-001	3.57260E+000	9	...........
	77	1.04	3.13081E-001	-8.88155E-005	0.00000E+000	-2.78064E-005	-5.39641E-002	3.13122E-001	3.57260E+000	9	...........
	78	1.05333	3.08254E-001	-8.86603E-005	0.00000E+000	-2.73298E-005	-5.39641E-002	3.08297E-001	3.57260E+000	9	...........
	79	1.06667	3.03442E-001	-8.86999E-005	0.00000E+000	-2.69153E-005	-5.39641E-002	3.03482E-001	3.57260E+000	9	...........
	80	1.08	2.98646E-001	-8.87749E-005	0.00000E+000	-2.65123E-005	-5.39641E-002	2.98684E-001	3.57260E+000	9	...........
	81	1.09333	2.93872E-001	-8.87072E-005	0.00000E+000	-2.60686E-005	-5.39641E-002	2.93912E-001	3.57260E+000	9	...........
	82	1.10667	2.89113E-001	-8.86019E-005	0.00000E+000	-2.56160E-005	-5.39641E-002	2.89145E-001	3.57260E+000	9	...........
	83	1.12	2.84374E-001	-8.87176E-005	0.00000E+000	-2.52290E-005	-5.39641E-002	2.84410E-001	3.57260E+000	9	...........
	84	1.13333	2.79656E-001	-8.89760E-005	0.00000E+000	-2.48826E-005	-5.39641E-002	2.79690E-001	3.57260E+000	9	...........
	85	1.14667	2.74956E-001	-8.87447E-005	0.00000E+000	-2.44009E-005	-5.39641E-002	2.74997E-001	3.57260E+000	9	...........
	86	1.16	2.70278E-001	-8.87624E-005	0.00000E+000	-2.39905E-005	-5.39641E-002	2.70315E-001	3.57260E+000	9	...........
	87	1.17333	2.65613E-001	-8.88280E-005	0.00000E+000	-2.35939E-005	-5.39641E-002	2.65653E-001	3.57260E+000	9	...........
	88	1.18667	2.60977E-001	-8.83977E-005	0.00000E+000	-2.30697E-005	-5.39641E-002	2.61006E-001	3.57260E+000	9	...........
	89	1.2	2.56341E-001	-8.86384E-005	0.00000E+000	-2.27217E-005	-5.39641E-002	2.56373E-001	3.57260E+000	9	...........
	90	1.21333	2.51735E-001	-8.88561E-005	0.00000E+000	-2.23682E-005	-5.39641E-002	2.51770E-001	3.57260E+000	9	...........
	91	1.22667	2.47153E-001	-8.89864E-005	0.00000E+000	-2.19932E-005	-5.39641E-002	2.47181E-001	3.57260E+000	9	...........
	92	1.24	2.42577E-001	-8.86769E-005	0.00000E+000	-2.15110E-005	-5.39641E-002	2.42603E-001	3.57260E+000	9	...........
	93	1.25333	2.38015E-001	-8.88395E-005	0.00000E+000	-2.11451E-005	-5.39641E-002	2.38046E-001	3.57260E+000	9	...........
	94	1.26667	2.33467E-001	-8.87645E-005	0.00000E+000	-2.07236E-005	-5.39641E-002	2.33498E-001	3.57260E+000	9	...........
	95	1.28	2.28958E-001	-8.87447E-005	0.00000E+000	-2.03188E-005	-5.39641E-002	2.28988E-001	3.57260E+000	9	...........
	96	1.29333	2.24480E-001	-8.87759E-005	0.00000E+000	-1.99284E-005	-5.39641E-002	2.24507E-001	3.57260E+000	9	...........
	97	1.30667	2.20013E-001	-8.86613E-005	0.00000E+000	-1.95067E-005	-5.39641E-002	2.20037E-001	3.57260E+000	9	...........
	98	1.32	2.15574E-001	-8.88603E-005	0.00000E+000	-1.91559E-005	-5.39641E-002	2.15606E-001	3.57260E+000	9	...........
	99	1.33333	2.11161E-001	-8.86582E-005	0.00000E+000	-1.87211E-005	-5.39641E-002	2.11187E-001	3.57260E+000	9	...........
	100	1.34667	2.06749E-001	-8.90687E-005	0.00000E+000	-1.84149E-005	-5.39641E-002	2.06771E-001	3.57260E+000	9	...........
	101	1.36	2.02351E-001	-8.90187E-005	0.00000E+000	-1.80130E-005	-5.39641E-002	2.02381E-001	3.57260E+000	9	...........
	102	1.37333	1.97989E-001	-8.87280E-005	0.00000E+000	-1.75672E-005	-5.39641E-002	1.98012E-001	3.57260E+000	9	...........
	103	1.38667	1.93649E-001	-8.90135E-005	0.00000E+000	-1.72374E-005	-5.39641E-002	1.93674E-001	3.57260E+000	9	...........
	104	1.4	1.89331E-001	-8.86738E-005	0.00000E+000	-1.67887E-005	-5.39641E-002	1.89354E-001	3.57260E+000	9	...........
	105	1.41333	1.85038E-001	-8.87717E-005	0.00000E+000	-1.64261E-005	-5.39641E-002	1.85060E-001	3.57260E+000	9	...........
	106	1.42667	1.80749E-001	-8.87676E-005	0.00000E+000	-1.60447E-005	-5.39641E-002	1.80778E-001	3.57260E+000	9	...........
	107	1.44	1.76494E-001	-8.87165E-005	0.00000E+000	-1.56579E-005	-5.39641E-002	1.76522E-001	3.57260E+000	9	...........
	108	1.45333	1.72247E-001	-8.87624E-005	0.00000E+000	-1.52890E-005	-5.39641E-002	1.72273E-001	3.57260E+000	9	...........
	109	1.46667	1.68018E-001	-8.85613E-005	0.00000E+000	-1.48799E-005	-5.39641E-002	1.68040E-001	3.57260E+000	9	...........
	110	1.48	1.63814E-001	-8.87113E-005	0.00000E+000	-1.45321E-005	-5.39641E-002	1.63830E-001	3.57260E+000	9	...........
	111	1.49333	1.59638E-001	-8.89041E-005	0.00000E+000	-1.41925E-005	-5.39641E-002	1.59655E-001	3.57279E+000	9	...........
	112	1.50667	1.55488E-001	-8.86853E-005	0.00000E+000	-1.37895E-005	-5.39641E-002	1.55500E-001	3.57290E+000	9	...........
	113	1.52	1.51347E-001	-8.85498E-005	0.00000E+000	-1.34017E-005	-5.39641E-002	1.51358E-001	3.57290E+000	9	...........
	114	1.53333	1.47215E-001	-8.85384E-005	0.00000E+000	-1.30341E-005	-5.39641E-002	1.47223E-001	3.57290E+000	9	...........
	115	1.54667	1.43097E-001	-8.86196E-005	0.00000E+000	-1.26812E-005	-5.39641E-002	1.43105E-001	3.57290E+000	9	...........
	116	1.56	1.39003E-001	-8.87916E-005	0.00000E+000	-1.23422E-005	-5.39641E-002	1.39013E-001	3.57290E+000	9	...........
	117	1.57333	1.34936E-001	-8.87738E-005	0.00000E+000	-1.19788E-005	-5.39641E-002	1.34945E-001	3.57290E+000	9	...........
	118	1.58667	1.30875E-001	-8.87801E-005	0.00000E+000	-1.16191E-005	-5.39641E-002	1.30887E-001	3.57290E+000	9	...........
	119	1.6	1.26834E-001	-8.87853E-005	0.00000E+000	-1.12610E-005	-5.39641E-002	1.26846E-001	3.57290E+000	9	...........
	120	1.61333	1.22808E-001	-8.89197E-005	0.00000E+000	-1.09200E-005	-5.39641E-002	1.22819E-001	3.57290E+000	9	...........
	121	1.62667	1.18790E-001	-8.86936E-005	0.00000E+000	-1.05359E-005	-5.39641E-002	1.18803E-001	3.57290E+000	9	...........
	122	1.64	1.14791E-001	-8.88978E-005	0.00000E+000	-1.02047E-005	-5.39641E-002	1.14807E-001	3.57290E+000	9	...........
	123	1.65333	1.10808E-001	-8.88020E-005	0.00000E+000	-9.83999E-006	-5.39641E-002	1.10818E-001	3.57290E+000	9	...........
	124	1.66667	1.06833E-001	-8.85373E-005	0.00000E+000	-9.45871E-006	-5.39641E-002	1.06843E-001	3.57290E+000	9	...........
	125	1.68	1.02884E-001	-8.87915E-005	0.00000E+000	-9.13519E-006	-5.39641E-002	1.02890E-001	3.57290E+000	9	...........
	126	1.69333	9.89443E-002	-8.88666E-005	0.00000E+000	-8.79284E-006	-5.39641E-002	9.89562E-002	3.57290E+000	9	...........
	127	1.70667	9.50289E-002	-8.90166E-005	0.00000E+000	-8.45915E-006	-5.39641E-002	9.50407E-002	3.57290E+000	9	...........
	128	1.72	9.11337E-002	-8.87540E-005	0.00000E+000	-8.08849E-006	-5.39641E-002	9.11506E-002	3.57290E+000	9	...........
	129	1.73333	8.72546E-002	-8.88395E-005	0.00000E+000	-7.75166E-006	-5.39641E-002	8.72604E-002	3.57290E+000	9	...........
	130	1.74667	8.33828E-002	-8.89249E-005	0.00000E+000	-7.41481E-006	-5.39641E-002	8.33909E-002	3.57290E+000	9	...........
	131	1.76	7.95313E-002	-8.88239E-005	0.00000E+000	-7.06428E-006	-5.39641E-002	7.95389E-002	3.57290E+000	9	...........
	132	1.77333	7.56871E-002	-8.87259E-005	0.00000E+000	-6.71541E-006	-5.39641E-002	7.56951E-002	3.57290E+000	9	...........
	133	1.78667	7.18838E-002	-8.89207E-005	0.00000E+000	-6.39196E-006	-5.39641E-002	7.18886E-002	3.57290E+000	9	...........
	134	1.8	6.80898E-002	-8.86780E-005	0.00000E+000	-6.03807E-006	-5.39641E-002	6.80913E-002	3.57290E+000	9	...........
	135	1.81333	6.43083E-002	-8.89478E-005	0.00000E+000	-5.72008E-006	-5.39641E-002	6.43117E-002	3.57290E+000	9	...........
	136	1.82667	6.05395E-002	-8.85842E-005	0.00000E+000	-5.36284E-006	-5.39641E-002	6.05429E-002	3.57290E+000	9	...........
	137	1.84	5.67968E-002	-8.87801E-005	0.00000E+000	-5.04243E-006	-5.39641E-002	5.67935E-002	3.57290E+000	9	...........
	138	1.85333	5.30680E-002	-8.87478E-005	0.00000E+000	-4.70966E-006	-5.39641E-002	5.30700E-002	3.57290E+000	9	...........
	139	1.86667	4.93615E-002	-8.85457E-005	0.00000E+000	-4.37074E-006	-5.39641E-002	4.93611E-002	3.57290E+000	9	...........
	140	1.88	4.56766E-002	-8.84946E-005	0.00000E+000	-4.04213E-006	-5.39641E-002	4.56895E-002	3.57290E+000	9	...........
	141	1.89333	4.19954E-002	-8.87707E-005	0.00000E+000	-3.72796E-006	-5.39641E-002	4.20039E-002	3.57290E+000	9	...........
	142	1.90667	3.83386E-002	-8.87092E-005	0.00000E+000	-3.40099E-006	-5.39641E-002	3.83474E-002	3.57290E+000	9	...........
	143	1.92	3.46974E-002	-8.86863E-005	0.00000E+000	-3.07718E-006	-5.39641E-002	3.47041E-002	3.57290E+000	9	...........
	144	1.93333	3.10903E-002	-8.88801E-005	0.00000E+000	-2.76331E-006	-5.39641E-002	3.10985E-002	3.57290E+000	9	...........
	145	1.94667	2.74933E-002	-8.88926E-005	0.00000E+000	-2.44395E-006	-5.39641E-002	2.75005E-002	3.57290E+000	9	...........
	146	1.96	2.39146E-002	-8.89541E-005	0.00000E+000	-2.12730E-006	-5.39641E-002	2.39170E-002	3.57290E+000	9	...........
	147	1.97333	2.03507E-002	-8.85373E-005	0.00000E+000	-1.80179E-006	-5.39641E-002	2.03527E-002	3.57290E+000	9	...........
	148	1.98667	1.68023E-002	-8.88551E-005	0.00000E+000	-1.49297E-006	-5.39641E-002	1.68019E-002	3.57290E+000	9	...........
	149	2	1.32642E-002	-8.87728E-005	0.00000E+000	-1.17750E-006	-5.39641E-002	1.32572E-002	3.57290E+000	9	...........
	150	2.01333	9.73877E-003	-8.87707E-005	0.00000E+000	-8.64518E-007	-5.39641E-002	9.72766E-003	3.57290E+000	9	...........
	151	2.02667	6.22647E-003	-8.89958E-005	0.00000E+000	-5.54129E-007	-5.39641E-002	6.21427E-003	3.57290E+000	9	...........
	152	2.04	2.71954E-003	-8.86863E-005	0.00000E+000	-2.41186E-007	-5.39641E-002	2.70988E-003	3.57290E+000	9	...........
	153	2.045	3.24957E-004	-8.86610E-005	0.00000E+000	-2.88110E-008	-5.39641E-002	3.15952E-004	3.57290E+000	9	...........
STARTTIMEOFFSET	QUANT	1811.704	Start Time Offset (s)
