EXPLAIN
TAG	PWR800_DISCHARGE
TITLE	LABEL	PWR Cyclic Charge Discharge (Cell) - Discharge Step	Test &Identifier
DATE	LABEL	10-7-2017	Date
TIME	LABEL	15:49:35	Time
NOTES	NOTES	3	&Notes...
	supercap test cell
	0.9mg
	6M KOH
PSTAT	PSTAT	IFC5000-01520	Potentiostat
CAPACITY	QUANT	1.00000E-003	Capacity (A-hr)
CELLTYPE	SELECTOR	1	&Cell Type
WORKINGCONNECTION	SELECTOR	0	&Working Lead
MAXDISCHARGETIME	VARIABLEANDUNITS	1.00000E+002	s	1.00000E+002	second(s)	Max &Discharge Time
DISCHARGEMODE	MULTIPARAM	0	9.00000E-005	&Discharge Mode	Constant Current	Amp(s)
SAMPLETIME	QUANT	1.00000E-002	Sa&mple Period (s)
DISCHARGESTOPAT1	MULTIPARAM	3	0.00000E+000	Discharge Stop At &1	Voltage < Limit	V
DISCHARGESTOPAT2	MULTIPARAM	0	0.00000E+000	Discharge Stop At &2	None	N/A
AESBHCSELECTOR	TOGGLE	F	Save Both Half Cells
IRCOMP	TOGGLE	F	IR &Measure
EOC	QUANT	0	Open Circuit (V)
SEQUENCER	TOGGLE	TRUE	Run as Sequence
PSTATMODEL	IQUANT	53	Pstat Model
PSTATSECTION	LABEL	IFC5000-01520	Pstat Section
PSTATSERIALNO	LABEL	01520	Pstat Serial Number
CTRLMODE	IQUANT	0	Control Mode
ELECTROMETER	IQUANT	1	RE=0 or CS=1
IESTAB	IQUANT	0	I/E Stability
CASPEED	IQUANT	4	Control Amp Speed
CONVENTION	IQUANT	1	Current Convention
ICHRANGE	IQUANT	2	Ich Range
ICHRANGEMODE	TOGGLE	T	Ich Auto Range
ICHOFFSETENABLE	TOGGLE	F	Ich Offset Enable
ICHOFFSET	QUANT	0	Ich Offset (V)
ICHFILTER	IQUANT	1	Ich Filter
VCHRANGE	IQUANT	2	Vch Range
VCHRANGEMODE	TOGGLE	T	Vch Auto Range
VCHOFFSETENABLE	TOGGLE	F	Vch Offset Enable
VCHOFFSET	QUANT	0	Vch Offset (V)
VCHFILTER	IQUANT	1	Vch Filter
IERANGELOWERLIMIT	IQUANT	9	I/E Range Lower Limit
IERANGEMODE	TOGGLE	F	I/E AutoRange
IERANGE	IQUANT	9	I/E Range
ACHSELECT	IQUANT	1	Ach Select
ACHRANGE	IQUANT	2	Ach Range
ACHOFFSETENABLE	TOGGLE	F	Ach Offset Enable
ACHOFFSET	QUANT	0	Ach Offset (V)
ACHFILTER	IQUANT	1	Ach Filter
CABLEID	IQUANT	14	Cable ID
DCCALDATE	LABEL	5-7-2017	DC Calibration Date
ACCALDATE	LABEL	12/3/2015	AC Calibration Date
FRAMEWORKVERSION	QUANT	7.01	Framework Version
INSTRUMENTVERSION	LABEL	4.00	Instrument Version
CURVE	TABLE	151
	Pt	T	Vf	Im	Vu	Pwr	Sig	Ach	Temp	IERange	Over
	#	s	V	A	V	W	V	V	deg C	#	bits
	0	0.013333	8.10431E-001	-8.88218E-005	0.00000E+000	-7.19839E-005	-5.39641E-002	8.10546E-001	3.57340E+000	9	...........
	1	0.026667	7.96667E-001	-8.86894E-005	0.00000E+000	-7.06560E-005	-5.39641E-002	7.96796E-001	3.57340E+000	9	...........
	2	0.04	7.83784E-001	-8.89478E-005	0.00000E+000	-6.97159E-005	-5.39641E-002	7.83936E-001	3.57340E+000	9	...........
	3	0.053333	7.71674E-001	-8.87290E-005	0.00000E+000	-6.84699E-005	-5.39641E-002	7.71814E-001	3.57340E+000	9	...........
	4	0.066667	7.60141E-001	-8.88124E-005	0.00000E+000	-6.75099E-005	-5.39641E-002	7.60256E-001	3.57340E+000	9	...........
	5	0.08	7.49115E-001	-8.90989E-005	0.00000E+000	-6.67453E-005	-5.39641E-002	7.49199E-001	3.57340E+000	9	...........
	6	0.093333	7.38502E-001	-8.87978E-005	0.00000E+000	-6.55773E-005	-5.39641E-002	7.38613E-001	3.57340E+000	9	...........
	7	0.106667	7.28287E-001	-8.86446E-005	0.00000E+000	-6.45587E-005	-5.39641E-002	7.28395E-001	3.57340E+000	9	...........
	8	0.12	7.18436E-001	-8.88572E-005	0.00000E+000	-6.38382E-005	-5.39641E-002	7.18544E-001	3.57340E+000	9	...........
	9	0.133333	7.08875E-001	-8.88197E-005	0.00000E+000	-6.29620E-005	-5.39641E-002	7.08991E-001	3.57340E+000	9	...........
	10	0.146667	6.99666E-001	-8.91635E-005	0.00000E+000	-6.23847E-005	-5.39641E-002	6.99760E-001	3.57340E+000	9	...........
	11	0.16	6.90663E-001	-8.88478E-005	0.00000E+000	-6.13639E-005	-5.39641E-002	6.90780E-001	3.57340E+000	9	...........
	12	0.173333	6.81941E-001	-8.88072E-005	0.00000E+000	-6.05613E-005	-5.39641E-002	6.82017E-001	3.57340E+000	9	...........
	13	0.186667	6.73442E-001	-8.88009E-005	0.00000E+000	-5.98022E-005	-5.39641E-002	6.73499E-001	3.57340E+000	9	...........
	14	0.2	6.65127E-001	-8.85373E-005	0.00000E+000	-5.88886E-005	-5.39641E-002	6.65217E-001	3.57340E+000	9	...........
	15	0.213333	6.57018E-001	-8.86113E-005	0.00000E+000	-5.82192E-005	-5.39641E-002	6.57116E-001	3.57340E+000	9	...........
	16	0.226667	6.49108E-001	-8.86446E-005	0.00000E+000	-5.75399E-005	-5.39641E-002	6.49203E-001	3.57340E+000	9	...........
	17	0.24	6.41328E-001	-8.90447E-005	0.00000E+000	-5.71069E-005	-5.39641E-002	6.41444E-001	3.57340E+000	9	...........
	18	0.253333	6.33719E-001	-8.87238E-005	0.00000E+000	-5.62260E-005	-5.39641E-002	6.33838E-001	3.57340E+000	9	...........
	19	0.266667	6.26299E-001	-8.85540E-005	0.00000E+000	-5.54613E-005	-5.39641E-002	6.26378E-001	3.57340E+000	9	...........
	20	0.28	6.19020E-001	-8.87457E-005	0.00000E+000	-5.49354E-005	-5.39641E-002	6.19087E-001	3.57340E+000	9	...........
	21	0.293333	6.11764E-001	-8.86353E-005	0.00000E+000	-5.42238E-005	-5.39641E-002	6.11902E-001	3.57340E+000	9	...........
	22	0.306667	6.04721E-001	-8.85769E-005	0.00000E+000	-5.35643E-005	-5.39641E-002	6.04848E-001	3.57340E+000	9	...........
	23	0.32	5.97806E-001	-8.87040E-005	0.00000E+000	-5.30278E-005	-5.39641E-002	5.97911E-001	3.57340E+000	9	...........
	24	0.333333	5.91015E-001	-8.86905E-005	0.00000E+000	-5.24174E-005	-5.39641E-002	5.91106E-001	3.57340E+000	9	...........
	25	0.346667	5.84270E-001	-8.89582E-005	0.00000E+000	-5.19756E-005	-5.39641E-002	5.84381E-001	3.57340E+000	9	...........
	26	0.36	5.77686E-001	-8.88739E-005	0.00000E+000	-5.13412E-005	-5.39641E-002	5.77795E-001	3.57340E+000	9	...........
	27	0.373333	5.71194E-001	-8.90510E-005	0.00000E+000	-5.08654E-005	-5.39641E-002	5.71270E-001	3.57340E+000	9	...........
	28	0.386667	5.64750E-001	-8.86957E-005	0.00000E+000	-5.00909E-005	-5.39641E-002	5.64870E-001	3.57340E+000	9	...........
	29	0.4	5.58417E-001	-8.87915E-005	0.00000E+000	-4.95827E-005	-5.39641E-002	5.58499E-001	3.57340E+000	9	...........
	30	0.413333	5.52167E-001	-8.90197E-005	0.00000E+000	-4.91537E-005	-5.39641E-002	5.52289E-001	3.57340E+000	9	...........
	31	0.426667	5.46013E-001	-8.89114E-005	0.00000E+000	-4.85468E-005	-5.39641E-002	5.46115E-001	3.57340E+000	9	...........
	32	0.44	5.39932E-001	-8.88582E-005	0.00000E+000	-4.79774E-005	-5.39641E-002	5.40044E-001	3.57340E+000	9	...........
	33	0.453333	5.33881E-001	-8.88228E-005	0.00000E+000	-4.74208E-005	-5.39641E-002	5.34010E-001	3.57340E+000	9	...........
	34	0.466667	5.27918E-001	-8.87738E-005	0.00000E+000	-4.68653E-005	-5.39641E-002	5.28036E-001	3.57340E+000	9	...........
	35	0.48	5.22024E-001	-8.88176E-005	0.00000E+000	-4.63649E-005	-5.39641E-002	5.22134E-001	3.57340E+000	9	...........
	36	0.493333	5.16212E-001	-8.88093E-005	0.00000E+000	-4.58444E-005	-5.39641E-002	5.16304E-001	3.57340E+000	9	...........
	37	0.506667	5.10379E-001	-8.87217E-005	0.00000E+000	-4.52817E-005	-5.39641E-002	5.10516E-001	3.57340E+000	9	...........
	38	0.52	5.04647E-001	-8.89958E-005	0.00000E+000	-4.49114E-005	-5.39641E-002	5.04748E-001	3.57340E+000	9	...........
	39	0.533333	4.98963E-001	-8.87061E-005	0.00000E+000	-4.42611E-005	-5.39641E-002	4.99079E-001	3.57340E+000	9	...........
	40	0.546667	4.93320E-001	-8.85811E-005	0.00000E+000	-4.36988E-005	-5.39641E-002	4.93435E-001	3.57340E+000	9	...........
	41	0.56	4.87728E-001	-8.87457E-005	0.00000E+000	-4.32838E-005	-5.39641E-002	4.87838E-001	3.57340E+000	9	...........
	42	0.573333	4.82280E-001	-8.87488E-005	0.00000E+000	-4.28018E-005	-5.39641E-002	4.82339E-001	3.57340E+000	9	...........
	43	0.586667	4.76775E-001	-8.88280E-005	0.00000E+000	-4.23510E-005	-5.39641E-002	4.76837E-001	3.57340E+000	9	...........
	44	0.6	4.71310E-001	-8.87072E-005	0.00000E+000	-4.18085E-005	-5.39641E-002	4.71375E-001	3.57340E+000	9	...........
	45	0.613333	4.65876E-001	-8.89437E-005	0.00000E+000	-4.14367E-005	-5.39641E-002	4.65939E-001	3.57340E+000	9	...........
	46	0.626667	4.60464E-001	-8.88499E-005	0.00000E+000	-4.09122E-005	-5.39641E-002	4.60532E-001	3.57340E+000	9	...........
	47	0.64	4.55080E-001	-8.87655E-005	0.00000E+000	-4.03954E-005	-5.39641E-002	4.55143E-001	3.57340E+000	9	...........
	48	0.653333	4.49736E-001	-8.88489E-005	0.00000E+000	-3.99585E-005	-5.39641E-002	4.49802E-001	3.57340E+000	9	...........
	49	0.666667	4.44420E-001	-8.88791E-005	0.00000E+000	-3.94996E-005	-5.39641E-002	4.44484E-001	3.57340E+000	9	...........
	50	0.68	4.39141E-001	-8.86947E-005	0.00000E+000	-3.89495E-005	-5.39641E-002	4.39198E-001	3.57340E+000	9	...........
	51	0.693333	4.33887E-001	-8.86342E-005	0.00000E+000	-3.84572E-005	-5.39641E-002	4.33942E-001	3.57340E+000	9	...........
	52	0.706667	4.28642E-001	-8.87770E-005	0.00000E+000	-3.80536E-005	-5.39641E-002	4.28698E-001	3.57340E+000	9	...........
	53	0.72	4.23426E-001	-8.88686E-005	0.00000E+000	-3.76293E-005	-5.39641E-002	4.23483E-001	3.57340E+000	9	...........
	54	0.733333	4.18238E-001	-8.87290E-005	0.00000E+000	-3.71098E-005	-5.39641E-002	4.18298E-001	3.57340E+000	9	...........
	55	0.746667	4.13077E-001	-8.87832E-005	0.00000E+000	-3.66743E-005	-5.39641E-002	4.13136E-001	3.57340E+000	9	...........
	56	0.76	4.07933E-001	-8.87176E-005	0.00000E+000	-3.61909E-005	-5.39641E-002	4.07987E-001	3.57340E+000	9	...........
	57	0.773333	4.02807E-001	-8.86884E-005	0.00000E+000	-3.57243E-005	-5.39641E-002	4.02860E-001	3.57340E+000	9	...........
	58	0.786667	3.97683E-001	-8.86384E-005	0.00000E+000	-3.52500E-005	-5.39641E-002	3.97738E-001	3.57340E+000	9	...........
	59	0.8	3.92593E-001	-8.88457E-005	0.00000E+000	-3.48802E-005	-5.39641E-002	3.92638E-001	3.57340E+000	9	...........
	60	0.813333	3.87506E-001	-8.89103E-005	0.00000E+000	-3.44533E-005	-5.39641E-002	3.87554E-001	3.57340E+000	9	...........
	61	0.826667	3.82439E-001	-8.88624E-005	0.00000E+000	-3.39845E-005	-5.39641E-002	3.82480E-001	3.57340E+000	9	...........
	62	0.84	3.77384E-001	-8.90072E-005	0.00000E+000	-3.35899E-005	-5.39641E-002	3.77430E-001	3.57340E+000	9	...........
	63	0.853333	3.72358E-001	-8.87499E-005	0.00000E+000	-3.30467E-005	-5.39641E-002	3.72401E-001	3.57340E+000	9	...........
	64	0.866667	3.67354E-001	-8.90124E-005	0.00000E+000	-3.26990E-005	-5.39641E-002	3.67397E-001	3.57340E+000	9	...........
	65	0.88	3.62368E-001	-8.88291E-005	0.00000E+000	-3.21888E-005	-5.39641E-002	3.62415E-001	3.57340E+000	9	...........
	66	0.893333	3.57395E-001	-8.89228E-005	0.00000E+000	-3.17806E-005	-5.39641E-002	3.57442E-001	3.57340E+000	9	...........
	67	0.906667	3.52442E-001	-8.88947E-005	0.00000E+000	-3.13302E-005	-5.39641E-002	3.52480E-001	3.57340E+000	9	...........
	68	0.92	3.47495E-001	-8.89582E-005	0.00000E+000	-3.09125E-005	-5.39641E-002	3.47536E-001	3.57340E+000	9	...........
	69	0.933333	3.42563E-001	-8.88561E-005	0.00000E+000	-3.04388E-005	-5.39641E-002	3.42606E-001	3.57340E+000	9	...........
	70	0.946667	3.37642E-001	-8.85915E-005	0.00000E+000	-2.99122E-005	-5.39641E-002	3.37687E-001	3.57340E+000	9	...........
	71	0.96	3.32734E-001	-8.86467E-005	0.00000E+000	-2.94958E-005	-5.39641E-002	3.32776E-001	3.57340E+000	9	...........
	72	0.97333	3.27825E-001	-8.85311E-005	0.00000E+000	-2.90227E-005	-5.39641E-002	3.27872E-001	3.57340E+000	9	...........
	73	0.98667	3.22940E-001	-8.86853E-005	0.00000E+000	-2.86400E-005	-5.39641E-002	3.22979E-001	3.57340E+000	9	...........
	74	1	3.18062E-001	-8.87311E-005	0.00000E+000	-2.82220E-005	-5.39641E-002	3.18109E-001	3.57300E+000	9	...........
	75	1.01333	3.13201E-001	-8.86634E-005	0.00000E+000	-2.77695E-005	-5.39641E-002	3.13244E-001	3.57260E+000	9	...........
	76	1.02667	3.08351E-001	-8.87540E-005	0.00000E+000	-2.73674E-005	-5.39641E-002	3.08388E-001	3.57260E+000	9	...........
	77	1.04	3.03521E-001	-8.88186E-005	0.00000E+000	-2.69583E-005	-5.39641E-002	3.03562E-001	3.57260E+000	9	...........
	78	1.05333	2.98701E-001	-8.88322E-005	0.00000E+000	-2.65342E-005	-5.39641E-002	2.98736E-001	3.57260E+000	9	...........
	79	1.06667	2.93902E-001	-8.86822E-005	0.00000E+000	-2.60638E-005	-5.39641E-002	2.93927E-001	3.57260E+000	9	...........
	80	1.08	2.89114E-001	-8.88499E-005	0.00000E+000	-2.56878E-005	-5.39641E-002	2.89144E-001	3.57260E+000	9	...........
	81	1.09333	2.84354E-001	-8.87499E-005	0.00000E+000	-2.52364E-005	-5.39641E-002	2.84383E-001	3.57260E+000	9	...........
	82	1.10667	2.79607E-001	-8.89728E-005	0.00000E+000	-2.48774E-005	-5.39641E-002	2.79638E-001	3.57260E+000	9	...........
	83	1.12	2.74877E-001	-8.85154E-005	0.00000E+000	-2.43309E-005	-5.39641E-002	2.74905E-001	3.57260E+000	9	...........
	84	1.13333	2.70161E-001	-8.87863E-005	0.00000E+000	-2.39866E-005	-5.39641E-002	2.70194E-001	3.57260E+000	9	...........
	85	1.14667	2.65469E-001	-8.88291E-005	0.00000E+000	-2.35814E-005	-5.39641E-002	2.65506E-001	3.57260E+000	9	...........
	86	1.16	2.60789E-001	-8.89926E-005	0.00000E+000	-2.32083E-005	-5.39641E-002	2.60816E-001	3.57260E+000	9	...........
	87	1.17333	2.56119E-001	-8.88113E-005	0.00000E+000	-2.27463E-005	-5.39641E-002	2.56147E-001	3.57260E+000	9	...........
	88	1.18667	2.51461E-001	-8.88311E-005	0.00000E+000	-2.23375E-005	-5.39641E-002	2.51492E-001	3.57260E+000	9	...........
	89	1.2	2.46813E-001	-8.87009E-005	0.00000E+000	-2.18926E-005	-5.39641E-002	2.46842E-001	3.57260E+000	9	...........
	90	1.21333	2.42178E-001	-8.88176E-005	0.00000E+000	-2.15096E-005	-5.39641E-002	2.42204E-001	3.57260E+000	9	...........
	91	1.22667	2.37561E-001	-8.86801E-005	0.00000E+000	-2.10669E-005	-5.39641E-002	2.37584E-001	3.57260E+000	9	...........
	92	1.24	2.32964E-001	-8.90645E-005	0.00000E+000	-2.07488E-005	-5.39641E-002	2.32993E-001	3.57260E+000	9	...........
	93	1.25333	2.28409E-001	-8.88197E-005	0.00000E+000	-2.02872E-005	-5.39641E-002	2.28430E-001	3.57260E+000	9	...........
	94	1.26667	2.23865E-001	-8.87030E-005	0.00000E+000	-1.98575E-005	-5.39641E-002	2.23891E-001	3.57260E+000	9	...........
	95	1.28	2.19332E-001	-8.87957E-005	0.00000E+000	-1.94757E-005	-5.39641E-002	2.19356E-001	3.57260E+000	9	...........
	96	1.29333	2.14824E-001	-8.88145E-005	0.00000E+000	-1.90795E-005	-5.39641E-002	2.14846E-001	3.57260E+000	9	...........
	97	1.30667	2.10334E-001	-8.87645E-005	0.00000E+000	-1.86702E-005	-5.39641E-002	2.10354E-001	3.57260E+000	9	...........
	98	1.32	2.05849E-001	-8.86863E-005	0.00000E+000	-1.82560E-005	-5.39641E-002	2.05872E-001	3.57260E+000	9	...........
	99	1.33333	2.01401E-001	-8.88770E-005	0.00000E+000	-1.78999E-005	-5.39641E-002	2.01426E-001	3.57260E+000	9	...........
	100	1.34667	1.96990E-001	-8.86415E-005	0.00000E+000	-1.74615E-005	-5.39641E-002	1.97012E-001	3.57260E+000	9	...........
	101	1.36	1.92581E-001	-8.85978E-005	0.00000E+000	-1.70622E-005	-5.39641E-002	1.92604E-001	3.57260E+000	9	...........
	102	1.37333	1.88188E-001	-8.88739E-005	0.00000E+000	-1.67250E-005	-5.39641E-002	1.88211E-001	3.57260E+000	9	...........
	103	1.38667	1.83818E-001	-8.90604E-005	0.00000E+000	-1.63709E-005	-5.39641E-002	1.83839E-001	3.57260E+000	9	...........
	104	1.4	1.79472E-001	-8.90166E-005	0.00000E+000	-1.59760E-005	-5.39641E-002	1.79493E-001	3.57260E+000	9	...........
	105	1.41333	1.75140E-001	-8.90541E-005	0.00000E+000	-1.55969E-005	-5.39641E-002	1.75160E-001	3.57260E+000	9	...........
	106	1.42667	1.70847E-001	-8.89093E-005	0.00000E+000	-1.51899E-005	-5.39641E-002	1.70861E-001	3.57260E+000	9	...........
	107	1.44	1.66576E-001	-8.85894E-005	0.00000E+000	-1.47568E-005	-5.39641E-002	1.66589E-001	3.57260E+000	9	...........
	108	1.45333	1.62323E-001	-8.87353E-005	0.00000E+000	-1.44038E-005	-5.39641E-002	1.62337E-001	3.57260E+000	9	...........
	109	1.46667	1.58085E-001	-8.88197E-005	0.00000E+000	-1.40411E-005	-5.39641E-002	1.58103E-001	3.57260E+000	9	...........
	110	1.48	1.53870E-001	-8.87280E-005	0.00000E+000	-1.36526E-005	-5.39641E-002	1.53881E-001	3.57260E+000	9	...........
	111	1.49333	1.49664E-001	-8.88603E-005	0.00000E+000	-1.32992E-005	-5.39641E-002	1.49679E-001	3.57260E+000	9	...........
	112	1.50667	1.45480E-001	-8.89520E-005	0.00000E+000	-1.29408E-005	-5.39641E-002	1.45491E-001	3.57260E+000	9	...........
	113	1.52	1.41313E-001	-8.89364E-005	0.00000E+000	-1.25678E-005	-5.39641E-002	1.41326E-001	3.57260E+000	9	...........
	114	1.53333	1.37150E-001	-8.89478E-005	0.00000E+000	-1.21992E-005	-5.39641E-002	1.37164E-001	3.57260E+000	9	...........
	115	1.54667	1.33009E-001	-8.87968E-005	0.00000E+000	-1.18108E-005	-5.39641E-002	1.33025E-001	3.57260E+000	9	...........
	116	1.56	1.28894E-001	-8.85092E-005	0.00000E+000	-1.14083E-005	-5.39641E-002	1.28903E-001	3.57260E+000	9	...........
	117	1.57333	1.24793E-001	-8.89124E-005	0.00000E+000	-1.10956E-005	-5.39641E-002	1.24806E-001	3.57260E+000	9	...........
	118	1.58667	1.20714E-001	-8.89843E-005	0.00000E+000	-1.07416E-005	-5.39641E-002	1.20728E-001	3.57260E+000	9	...........
	119	1.6	1.16650E-001	-8.86415E-005	0.00000E+000	-1.03401E-005	-5.39641E-002	1.16664E-001	3.57260E+000	9	...........
	120	1.61333	1.12592E-001	-8.89291E-005	0.00000E+000	-1.00127E-005	-5.39641E-002	1.12608E-001	3.57260E+000	9	...........
	121	1.62667	1.08550E-001	-8.88270E-005	0.00000E+000	-9.64214E-006	-5.39641E-002	1.08565E-001	3.57260E+000	9	...........
	122	1.64	1.04536E-001	-8.89176E-005	0.00000E+000	-9.29513E-006	-5.39641E-002	1.04547E-001	3.57260E+000	9	...........
	123	1.65333	1.00537E-001	-8.86248E-005	0.00000E+000	-8.91009E-006	-5.39641E-002	1.00553E-001	3.57260E+000	9	...........
	124	1.66667	9.65710E-002	-8.91406E-005	0.00000E+000	-8.60840E-006	-5.39641E-002	9.65775E-002	3.57260E+000	9	...........
	125	1.68	9.26036E-002	-8.88582E-005	0.00000E+000	-8.22859E-006	-5.39641E-002	9.26158E-002	3.57260E+000	9	...........
	126	1.69333	8.86632E-002	-8.86894E-005	0.00000E+000	-7.86349E-006	-5.39641E-002	8.86725E-002	3.57260E+000	9	...........
	127	1.70667	8.47396E-002	-8.86394E-005	0.00000E+000	-7.51127E-006	-5.39641E-002	8.47449E-002	3.57260E+000	9	...........
	128	1.72	8.08499E-002	-8.88395E-005	0.00000E+000	-7.18267E-006	-5.39641E-002	8.08499E-002	3.57260E+000	9	...........
	129	1.73333	7.69616E-002	-8.87488E-005	0.00000E+000	-6.83025E-006	-5.39641E-002	7.69663E-002	3.57260E+000	9	...........
	130	1.74667	7.30923E-002	-8.87915E-005	0.00000E+000	-6.48998E-006	-5.39641E-002	7.30929E-002	3.57260E+000	9	...........
	131	1.76	6.92394E-002	-8.86728E-005	0.00000E+000	-6.13965E-006	-5.39641E-002	6.92385E-002	3.57260E+000	9	...........
	132	1.77333	6.54093E-002	-8.87717E-005	0.00000E+000	-5.80650E-006	-5.39641E-002	6.54062E-002	3.57260E+000	9	...........
	133	1.78667	6.15937E-002	-8.86509E-005	0.00000E+000	-5.46034E-006	-5.39641E-002	6.15930E-002	3.57260E+000	9	...........
	134	1.8	5.78023E-002	-8.88478E-005	0.00000E+000	-5.13561E-006	-5.39641E-002	5.77999E-002	3.57260E+000	9	...........
	135	1.81333	5.40231E-002	-8.84821E-005	0.00000E+000	-4.78008E-006	-5.39641E-002	5.40218E-002	3.57260E+000	9	...........
	136	1.82667	5.02662E-002	-8.85498E-005	0.00000E+000	-4.45106E-006	-5.39641E-002	5.02637E-002	3.57260E+000	9	...........
	137	1.84	4.65307E-002	-8.86936E-005	0.00000E+000	-4.12698E-006	-5.39641E-002	4.65400E-002	3.57260E+000	9	...........
	138	1.85333	4.28198E-002	-8.86488E-005	0.00000E+000	-3.79592E-006	-5.39641E-002	4.28226E-002	3.57260E+000	9	...........
	139	1.86667	3.91108E-002	-8.85967E-005	0.00000E+000	-3.46509E-006	-5.39641E-002	3.91179E-002	3.57260E+000	9	...........
	140	1.88	3.54268E-002	-8.86332E-005	0.00000E+000	-3.13999E-006	-5.39641E-002	3.54346E-002	3.57260E+000	9	...........
	141	1.89333	3.17589E-002	-8.89499E-005	0.00000E+000	-2.82495E-006	-5.39641E-002	3.17621E-002	3.57260E+000	9	...........
	142	1.90667	2.80981E-002	-8.87186E-005	0.00000E+000	-2.49282E-006	-5.39641E-002	2.80967E-002	3.57260E+000	9	...........
	143	1.92	2.44504E-002	-8.90051E-005	0.00000E+000	-2.17621E-006	-5.39641E-002	2.44512E-002	3.57260E+000	9	...........
	144	1.93333	2.08238E-002	-8.86988E-005	0.00000E+000	-1.84704E-006	-5.39641E-002	2.08185E-002	3.57260E+000	9	...........
	145	1.94667	1.72207E-002	-8.87592E-005	0.00000E+000	-1.52850E-006	-5.39641E-002	1.72178E-002	3.57260E+000	9	...........
	146	1.96	1.36401E-002	-8.87332E-005	0.00000E+000	-1.21033E-006	-5.39641E-002	1.36337E-002	3.57260E+000	9	...........
	147	1.97333	1.00621E-002	-8.88103E-005	0.00000E+000	-8.93614E-007	-5.39641E-002	1.00553E-002	3.57260E+000	9	...........
	148	1.98667	6.50238E-003	-8.89655E-005	0.00000E+000	-5.78488E-007	-5.39641E-002	6.48897E-003	3.57260E+000	9	...........
	149	2	2.96317E-003	-8.89155E-005	0.00000E+000	-2.63472E-007	-5.39641E-002	2.95008E-003	3.57275E+000	9	...........
	150	2.00667	3.16965E-004	-8.90228E-005	0.00000E+000	-2.82171E-008	-5.39641E-002	3.01436E-004	3.57290E+000	9	...........
STARTTIMEOFFSET	QUANT	2543.064	Start Time Offset (s)
