EXPLAIN
TAG	PWR800_DISCHARGE
TITLE	LABEL	PWR Cyclic Charge Discharge (Cell) - Discharge Step	Test &Identifier
DATE	LABEL	10-7-2017	Date
TIME	LABEL	16:24:16	Time
NOTES	NOTES	3	&Notes...
	supercap test cell
	0.9mg
	6M KOH
PSTAT	PSTAT	IFC5000-01520	Potentiostat
CAPACITY	QUANT	1.00000E-003	Capacity (A-hr)
CELLTYPE	SELECTOR	1	&Cell Type
WORKINGCONNECTION	SELECTOR	0	&Working Lead
MAXDISCHARGETIME	VARIABLEANDUNITS	1.00000E+002	s	1.00000E+002	second(s)	Max &Discharge Time
DISCHARGEMODE	MULTIPARAM	0	9.00000E-005	&Discharge Mode	Constant Current	Amp(s)
SAMPLETIME	QUANT	1.00000E-002	Sa&mple Period (s)
DISCHARGESTOPAT1	MULTIPARAM	3	0.00000E+000	Discharge Stop At &1	Voltage < Limit	V
DISCHARGESTOPAT2	MULTIPARAM	0	0.00000E+000	Discharge Stop At &2	None	N/A
AESBHCSELECTOR	TOGGLE	F	Save Both Half Cells
IRCOMP	TOGGLE	F	IR &Measure
EOC	QUANT	0	Open Circuit (V)
SEQUENCER	TOGGLE	TRUE	Run as Sequence
PSTATMODEL	IQUANT	53	Pstat Model
PSTATSECTION	LABEL	IFC5000-01520	Pstat Section
PSTATSERIALNO	LABEL	01520	Pstat Serial Number
CTRLMODE	IQUANT	0	Control Mode
ELECTROMETER	IQUANT	1	RE=0 or CS=1
IESTAB	IQUANT	0	I/E Stability
CASPEED	IQUANT	4	Control Amp Speed
CONVENTION	IQUANT	1	Current Convention
ICHRANGE	IQUANT	2	Ich Range
ICHRANGEMODE	TOGGLE	T	Ich Auto Range
ICHOFFSETENABLE	TOGGLE	F	Ich Offset Enable
ICHOFFSET	QUANT	0	Ich Offset (V)
ICHFILTER	IQUANT	1	Ich Filter
VCHRANGE	IQUANT	2	Vch Range
VCHRANGEMODE	TOGGLE	T	Vch Auto Range
VCHOFFSETENABLE	TOGGLE	F	Vch Offset Enable
VCHOFFSET	QUANT	0	Vch Offset (V)
VCHFILTER	IQUANT	1	Vch Filter
IERANGELOWERLIMIT	IQUANT	9	I/E Range Lower Limit
IERANGEMODE	TOGGLE	F	I/E AutoRange
IERANGE	IQUANT	9	I/E Range
ACHSELECT	IQUANT	1	Ach Select
ACHRANGE	IQUANT	2	Ach Range
ACHOFFSETENABLE	TOGGLE	F	Ach Offset Enable
ACHOFFSET	QUANT	0	Ach Offset (V)
ACHFILTER	IQUANT	1	Ach Filter
CABLEID	IQUANT	14	Cable ID
DCCALDATE	LABEL	5-7-2017	DC Calibration Date
ACCALDATE	LABEL	12/3/2015	AC Calibration Date
FRAMEWORKVERSION	QUANT	7.01	Framework Version
INSTRUMENTVERSION	LABEL	4.00	Instrument Version
CURVE	TABLE	145
	Pt	T	Vf	Im	Vu	Pwr	Sig	Ach	Temp	IERange	Over
	#	s	V	A	V	W	V	V	deg C	#	bits
	0	0.013333	7.99015E-001	-8.86499E-005	0.00000E+000	-7.08326E-005	-5.39641E-002	7.99173E-001	3.57300E+000	9	...........
	1	0.026667	7.84556E-001	-8.87957E-005	0.00000E+000	-6.96652E-005	-5.39641E-002	7.84710E-001	3.57300E+000	9	...........
	2	0.04	7.71051E-001	-8.86582E-005	0.00000E+000	-6.83600E-005	-5.39641E-002	7.71225E-001	3.57300E+000	9	...........
	3	0.053333	7.58382E-001	-8.89187E-005	0.00000E+000	-6.74343E-005	-5.39641E-002	7.58514E-001	3.57300E+000	9	...........
	4	0.066667	7.46360E-001	-8.87874E-005	0.00000E+000	-6.62673E-005	-5.39641E-002	7.46503E-001	3.57300E+000	9	...........
	5	0.08	7.34904E-001	-8.87217E-005	0.00000E+000	-6.52020E-005	-5.39641E-002	7.35005E-001	3.57300E+000	9	...........
	6	0.093333	7.23921E-001	-8.88499E-005	0.00000E+000	-6.43203E-005	-5.39641E-002	7.24040E-001	3.57300E+000	9	...........
	7	0.106667	7.13351E-001	-8.86603E-005	0.00000E+000	-6.32459E-005	-5.39641E-002	7.13453E-001	3.57300E+000	9	...........
	8	0.12	7.03190E-001	-8.87759E-005	0.00000E+000	-6.24263E-005	-5.39641E-002	7.03255E-001	3.57300E+000	9	...........
	9	0.133333	6.93363E-001	-8.86103E-005	0.00000E+000	-6.14390E-005	-5.39641E-002	6.93440E-001	3.57300E+000	9	...........
	10	0.146667	6.83843E-001	-8.87665E-005	0.00000E+000	-6.07024E-005	-5.39641E-002	6.83905E-001	3.57300E+000	9	...........
	11	0.16	6.74611E-001	-8.88791E-005	0.00000E+000	-5.99588E-005	-5.39641E-002	6.74708E-001	3.57300E+000	9	...........
	12	0.173333	6.65627E-001	-8.87269E-005	0.00000E+000	-5.90591E-005	-5.39641E-002	6.65713E-001	3.57300E+000	9	...........
	13	0.186667	6.56902E-001	-8.85769E-005	0.00000E+000	-5.81863E-005	-5.39641E-002	6.56994E-001	3.57300E+000	9	...........
	14	0.2	6.48382E-001	-8.86947E-005	0.00000E+000	-5.75080E-005	-5.39641E-002	6.48514E-001	3.57300E+000	9	...........
	15	0.213333	6.40109E-001	-8.85696E-005	0.00000E+000	-5.66942E-005	-5.39641E-002	6.40218E-001	3.57300E+000	9	...........
	16	0.226667	6.32001E-001	-8.88853E-005	0.00000E+000	-5.61756E-005	-5.39641E-002	6.32108E-001	3.57300E+000	9	...........
	17	0.24	6.24113E-001	-8.89968E-005	0.00000E+000	-5.55441E-005	-5.39641E-002	6.24217E-001	3.57300E+000	9	...........
	18	0.253333	6.16389E-001	-8.89353E-005	0.00000E+000	-5.48188E-005	-5.39641E-002	6.16489E-001	3.57300E+000	9	...........
	19	0.266667	6.08754E-001	-8.88301E-005	0.00000E+000	-5.40757E-005	-5.39641E-002	6.08901E-001	3.57300E+000	9	...........
	20	0.28	6.01385E-001	-8.90489E-005	0.00000E+000	-5.35527E-005	-5.39641E-002	6.01465E-001	3.57300E+000	9	...........
	21	0.293333	5.94111E-001	-8.84957E-005	0.00000E+000	-5.25762E-005	-5.39641E-002	5.94215E-001	3.57300E+000	9	...........
	22	0.306667	5.86957E-001	-8.85332E-005	0.00000E+000	-5.19652E-005	-5.39641E-002	5.87051E-001	3.57300E+000	9	...........
	23	0.32	5.79933E-001	-8.85769E-005	0.00000E+000	-5.13687E-005	-5.39641E-002	5.80053E-001	3.57300E+000	9	...........
	24	0.333333	5.73076E-001	-8.86967E-005	0.00000E+000	-5.08299E-005	-5.39641E-002	5.73170E-001	3.57300E+000	9	...........
	25	0.346667	5.66353E-001	-8.88259E-005	0.00000E+000	-5.03069E-005	-5.39641E-002	5.66450E-001	3.57300E+000	9	...........
	26	0.36	5.59657E-001	-8.87342E-005	0.00000E+000	-4.96607E-005	-5.39641E-002	5.59762E-001	3.57300E+000	9	...........
	27	0.373333	5.53103E-001	-8.88113E-005	0.00000E+000	-4.91218E-005	-5.39641E-002	5.53211E-001	3.57300E+000	9	...........
	28	0.386667	5.46649E-001	-8.86967E-005	0.00000E+000	-4.84859E-005	-5.39641E-002	5.46756E-001	3.57300E+000	9	...........
	29	0.4	5.40322E-001	-8.88395E-005	0.00000E+000	-4.80020E-005	-5.39641E-002	5.40414E-001	3.57300E+000	9	...........
	30	0.413333	5.34014E-001	-8.87269E-005	0.00000E+000	-4.73814E-005	-5.39641E-002	5.34089E-001	3.57300E+000	9	...........
	31	0.426667	5.27835E-001	-8.86842E-005	0.00000E+000	-4.68107E-005	-5.39641E-002	5.27924E-001	3.57300E+000	9	...........
	32	0.44	5.21712E-001	-8.87738E-005	0.00000E+000	-4.63143E-005	-5.39641E-002	5.21806E-001	3.57300E+000	9	...........
	33	0.453333	5.15679E-001	-8.89114E-005	0.00000E+000	-4.58498E-005	-5.39641E-002	5.15746E-001	3.57300E+000	9	...........
	34	0.466667	5.09626E-001	-8.86613E-005	0.00000E+000	-4.51841E-005	-5.39641E-002	5.09736E-001	3.57300E+000	9	...........
	35	0.48	5.03680E-001	-8.88405E-005	0.00000E+000	-4.47472E-005	-5.39641E-002	5.03804E-001	3.57300E+000	9	...........
	36	0.493333	4.97830E-001	-8.88905E-005	0.00000E+000	-4.42524E-005	-5.39641E-002	4.97943E-001	3.57300E+000	9	...........
	37	0.506667	4.92037E-001	-8.89280E-005	0.00000E+000	-4.37559E-005	-5.39641E-002	4.92145E-001	3.57300E+000	9	...........
	38	0.52	4.86333E-001	-8.88009E-005	0.00000E+000	-4.31868E-005	-5.39641E-002	4.86416E-001	3.57300E+000	9	...........
	39	0.533333	4.80742E-001	-8.89728E-005	0.00000E+000	-4.27730E-005	-5.39641E-002	4.80807E-001	3.57300E+000	9	...........
	40	0.546667	4.75113E-001	-8.87728E-005	0.00000E+000	-4.21771E-005	-5.39641E-002	4.75175E-001	3.57300E+000	9	...........
	41	0.56	4.69525E-001	-8.86217E-005	0.00000E+000	-4.16101E-005	-5.39641E-002	4.69590E-001	3.57300E+000	9	...........
	42	0.573333	4.63989E-001	-8.89770E-005	0.00000E+000	-4.12843E-005	-5.39641E-002	4.64058E-001	3.57300E+000	9	...........
	43	0.586667	4.58512E-001	-8.90187E-005	0.00000E+000	-4.08161E-005	-5.39641E-002	4.58580E-001	3.57300E+000	9	...........
	44	0.6	4.53065E-001	-8.87290E-005	0.00000E+000	-4.02000E-005	-5.39641E-002	4.53132E-001	3.57300E+000	9	...........
	45	0.613333	4.47649E-001	-8.88791E-005	0.00000E+000	-3.97866E-005	-5.39641E-002	4.47717E-001	3.57300E+000	9	...........
	46	0.626667	4.42275E-001	-8.89770E-005	0.00000E+000	-3.93523E-005	-5.39641E-002	4.42342E-001	3.57300E+000	9	...........
	47	0.64	4.36940E-001	-8.88645E-005	0.00000E+000	-3.88284E-005	-5.39641E-002	4.37003E-001	3.57300E+000	9	...........
	48	0.653333	4.31627E-001	-8.90416E-005	0.00000E+000	-3.84328E-005	-5.39641E-002	4.31685E-001	3.57300E+000	9	...........
	49	0.666667	4.26347E-001	-8.87155E-005	0.00000E+000	-3.78236E-005	-5.39641E-002	4.26411E-001	3.57300E+000	9	...........
	50	0.68	4.21104E-001	-8.89603E-005	0.00000E+000	-3.74616E-005	-5.39641E-002	4.21169E-001	3.57300E+000	9	...........
	51	0.693333	4.15894E-001	-8.88822E-005	0.00000E+000	-3.69656E-005	-5.39641E-002	4.15953E-001	3.57300E+000	9	...........
	52	0.706667	4.10706E-001	-8.86915E-005	0.00000E+000	-3.64262E-005	-5.39641E-002	4.10763E-001	3.57300E+000	9	...........
	53	0.72	4.05556E-001	-8.87530E-005	0.00000E+000	-3.59943E-005	-5.39641E-002	4.05609E-001	3.57300E+000	9	...........
	54	0.733333	4.00415E-001	-8.88238E-005	0.00000E+000	-3.55664E-005	-5.39641E-002	4.00472E-001	3.57300E+000	9	...........
	55	0.746667	3.95288E-001	-8.88884E-005	0.00000E+000	-3.51365E-005	-5.39641E-002	3.95340E-001	3.57300E+000	9	...........
	56	0.76	3.90170E-001	-8.89114E-005	0.00000E+000	-3.46905E-005	-5.39641E-002	3.90221E-001	3.57300E+000	9	...........
	57	0.773333	3.85068E-001	-8.89728E-005	0.00000E+000	-3.42606E-005	-5.39641E-002	3.85115E-001	3.57300E+000	9	...........
	58	0.786667	3.79978E-001	-8.87384E-005	0.00000E+000	-3.37187E-005	-5.39641E-002	3.80027E-001	3.57300E+000	9	...........
	59	0.8	3.74918E-001	-8.86988E-005	0.00000E+000	-3.32548E-005	-5.39641E-002	3.74963E-001	3.57300E+000	9	...........
	60	0.813333	3.69870E-001	-8.90426E-005	0.00000E+000	-3.29342E-005	-5.39641E-002	3.69920E-001	3.57300E+000	9	...........
	61	0.826667	3.64845E-001	-8.90604E-005	0.00000E+000	-3.24932E-005	-5.39641E-002	3.64897E-001	3.57300E+000	9	...........
	62	0.84	3.59845E-001	-8.87405E-005	0.00000E+000	-3.19329E-005	-5.39641E-002	3.59891E-001	3.57300E+000	9	...........
	63	0.853333	3.54857E-001	-8.88822E-005	0.00000E+000	-3.15405E-005	-5.39641E-002	3.54904E-001	3.57300E+000	9	...........
	64	0.866667	3.49872E-001	-8.87676E-005	0.00000E+000	-3.10573E-005	-5.39641E-002	3.49919E-001	3.57300E+000	9	...........
	65	0.88	3.44900E-001	-8.89499E-005	0.00000E+000	-3.06788E-005	-5.39641E-002	3.44950E-001	3.57300E+000	9	...........
	66	0.893333	3.39953E-001	-8.88384E-005	0.00000E+000	-3.02009E-005	-5.39641E-002	3.40000E-001	3.57300E+000	9	...........
	67	0.906667	3.35017E-001	-8.86655E-005	0.00000E+000	-2.97044E-005	-5.39641E-002	3.35059E-001	3.57300E+000	9	...........
	68	0.92	3.30072E-001	-8.87447E-005	0.00000E+000	-2.92921E-005	-5.39641E-002	3.30113E-001	3.57300E+000	9	...........
	69	0.933333	3.25147E-001	-8.88874E-005	0.00000E+000	-2.89014E-005	-5.39641E-002	3.25191E-001	3.57300E+000	9	...........
	70	0.946667	3.20239E-001	-8.86717E-005	0.00000E+000	-2.83961E-005	-5.39641E-002	3.20284E-001	3.57300E+000	9	...........
	71	0.96	3.15335E-001	-8.87322E-005	0.00000E+000	-2.79803E-005	-5.39641E-002	3.15384E-001	3.57300E+000	9	...........
	72	0.97333	3.10457E-001	-8.90343E-005	0.00000E+000	-2.76413E-005	-5.39641E-002	3.10502E-001	3.57300E+000	9	...........
	73	0.98667	3.05591E-001	-8.88249E-005	0.00000E+000	-2.71441E-005	-5.39641E-002	3.05632E-001	3.57300E+000	9	...........
	74	1	3.00755E-001	-8.86936E-005	0.00000E+000	-2.66750E-005	-5.39641E-002	3.00789E-001	3.57300E+000	9	...........
	75	1.01333	2.95924E-001	-8.88593E-005	0.00000E+000	-2.62956E-005	-5.39641E-002	2.95967E-001	3.57300E+000	9	...........
	76	1.02667	2.91104E-001	-8.90697E-005	0.00000E+000	-2.59286E-005	-5.39641E-002	2.91143E-001	3.57300E+000	9	...........
	77	1.04	2.86281E-001	-8.88103E-005	0.00000E+000	-2.54247E-005	-5.39641E-002	2.86320E-001	3.57300E+000	9	...........
	78	1.05333	2.81460E-001	-8.87415E-005	0.00000E+000	-2.49772E-005	-5.39641E-002	2.81501E-001	3.57300E+000	9	...........
	79	1.06667	2.76668E-001	-8.86394E-005	0.00000E+000	-2.45237E-005	-5.39641E-002	2.76709E-001	3.57300E+000	9	...........
	80	1.08	2.71902E-001	-8.90281E-005	0.00000E+000	-2.42069E-005	-5.39641E-002	2.71939E-001	3.57300E+000	9	...........
	81	1.09333	2.67150E-001	-8.88270E-005	0.00000E+000	-2.37301E-005	-5.39641E-002	2.67186E-001	3.57300E+000	9	...........
	82	1.10667	2.62386E-001	-8.88520E-005	0.00000E+000	-2.33135E-005	-5.39641E-002	2.62427E-001	3.57300E+000	9	...........
	83	1.12	2.57636E-001	-8.88541E-005	0.00000E+000	-2.28920E-005	-5.39641E-002	2.57673E-001	3.57300E+000	9	...........
	84	1.13333	2.52907E-001	-8.87374E-005	0.00000E+000	-2.24423E-005	-5.39641E-002	2.52943E-001	3.57300E+000	9	...........
	85	1.14667	2.48189E-001	-8.89645E-005	0.00000E+000	-2.20800E-005	-5.39641E-002	2.48221E-001	3.57300E+000	9	...........
	86	1.16	2.43496E-001	-8.88749E-005	0.00000E+000	-2.16407E-005	-5.39641E-002	2.43517E-001	3.57300E+000	9	...........
	87	1.17333	2.38821E-001	-8.89499E-005	0.00000E+000	-2.12431E-005	-5.39641E-002	2.38844E-001	3.57300E+000	9	...........
	88	1.18667	2.34158E-001	-8.88916E-005	0.00000E+000	-2.08147E-005	-5.39641E-002	2.34181E-001	3.57300E+000	9	...........
	89	1.2	2.29500E-001	-8.88041E-005	0.00000E+000	-2.03805E-005	-5.39641E-002	2.29524E-001	3.57300E+000	9	...........
	90	1.21333	2.24863E-001	-8.87457E-005	0.00000E+000	-1.99556E-005	-5.39641E-002	2.24893E-001	3.57300E+000	9	...........
	91	1.22667	2.20239E-001	-8.89385E-005	0.00000E+000	-1.95877E-005	-5.39641E-002	2.20262E-001	3.57300E+000	9	...........
	92	1.24	2.15626E-001	-8.86624E-005	0.00000E+000	-1.91179E-005	-5.39641E-002	2.15649E-001	3.57300E+000	9	...........
	93	1.25333	2.11025E-001	-8.88634E-005	0.00000E+000	-1.87524E-005	-5.39641E-002	2.11048E-001	3.57300E+000	9	...........
	94	1.26667	2.06428E-001	-8.88989E-005	0.00000E+000	-1.83513E-005	-5.39641E-002	2.06447E-001	3.57300E+000	9	...........
	95	1.28	2.01860E-001	-8.88072E-005	0.00000E+000	-1.79266E-005	-5.39641E-002	2.01883E-001	3.57300E+000	9	...........
	96	1.29333	1.97305E-001	-8.89718E-005	0.00000E+000	-1.75546E-005	-5.39641E-002	1.97332E-001	3.57300E+000	9	...........
	97	1.30667	1.92763E-001	-8.88989E-005	0.00000E+000	-1.71364E-005	-5.39641E-002	1.92790E-001	3.57300E+000	9	...........
	98	1.32	1.88245E-001	-8.88416E-005	0.00000E+000	-1.67240E-005	-5.39641E-002	1.88268E-001	3.57300E+000	9	...........
	99	1.33333	1.83738E-001	-8.85509E-005	0.00000E+000	-1.62702E-005	-5.39641E-002	1.83765E-001	3.57300E+000	9	...........
	100	1.34667	1.79246E-001	-8.88728E-005	0.00000E+000	-1.59301E-005	-5.39641E-002	1.79274E-001	3.57300E+000	9	...........
	101	1.36	1.74799E-001	-8.90353E-005	0.00000E+000	-1.55633E-005	-5.39641E-002	1.74813E-001	3.57300E+000	9	...........
	102	1.37333	1.70375E-001	-8.89530E-005	0.00000E+000	-1.51554E-005	-5.39641E-002	1.70391E-001	3.57300E+000	9	...........
	103	1.38667	1.65952E-001	-8.88926E-005	0.00000E+000	-1.47519E-005	-5.39641E-002	1.65972E-001	3.57300E+000	9	...........
	104	1.4	1.61554E-001	-8.89228E-005	0.00000E+000	-1.43658E-005	-5.39641E-002	1.61571E-001	3.57300E+000	9	...........
	105	1.41333	1.57168E-001	-8.85415E-005	0.00000E+000	-1.39159E-005	-5.39641E-002	1.57182E-001	3.57300E+000	9	...........
	106	1.42667	1.52795E-001	-8.90124E-005	0.00000E+000	-1.36006E-005	-5.39641E-002	1.52810E-001	3.57300E+000	9	...........
	107	1.44	1.48452E-001	-8.89009E-005	0.00000E+000	-1.31975E-005	-5.39641E-002	1.48464E-001	3.57300E+000	9	...........
	108	1.45333	1.44120E-001	-8.89864E-005	0.00000E+000	-1.28248E-005	-5.39641E-002	1.44142E-001	3.57300E+000	9	...........
	109	1.46667	1.39807E-001	-8.87863E-005	0.00000E+000	-1.24130E-005	-5.39641E-002	1.39822E-001	3.57300E+000	9	...........
	110	1.48	1.35516E-001	-8.89645E-005	0.00000E+000	-1.20561E-005	-5.39641E-002	1.35531E-001	3.57300E+000	9	...........
	111	1.49333	1.31242E-001	-8.88082E-005	0.00000E+000	-1.16554E-005	-5.39641E-002	1.31251E-001	3.57300E+000	9	...........
	112	1.50667	1.26983E-001	-8.88343E-005	0.00000E+000	-1.12804E-005	-5.39641E-002	1.26992E-001	3.57300E+000	9	...........
	113	1.52	1.22734E-001	-8.87134E-005	0.00000E+000	-1.08881E-005	-5.39641E-002	1.22750E-001	3.57300E+000	9	...........
	114	1.53333	1.18499E-001	-8.89270E-005	0.00000E+000	-1.05378E-005	-5.39641E-002	1.18512E-001	3.57300E+000	9	...........
	115	1.54667	1.14286E-001	-8.86530E-005	0.00000E+000	-1.01318E-005	-5.39641E-002	1.14299E-001	3.57300E+000	9	...........
	116	1.56	1.10099E-001	-8.87832E-005	0.00000E+000	-9.77492E-006	-5.39641E-002	1.10109E-001	3.57300E+000	9	...........
	117	1.57333	1.05925E-001	-8.87124E-005	0.00000E+000	-9.39685E-006	-5.39641E-002	1.05932E-001	3.57300E+000	9	...........
	118	1.58667	1.01772E-001	-8.90103E-005	0.00000E+000	-9.05874E-006	-5.39641E-002	1.01786E-001	3.57300E+000	9	...........
	119	1.6	9.76500E-002	-8.86269E-005	0.00000E+000	-8.65442E-006	-5.39641E-002	9.76631E-002	3.57300E+000	9	...........
	120	1.61333	9.35534E-002	-8.87624E-005	0.00000E+000	-8.30402E-006	-5.39641E-002	9.35638E-002	3.57300E+000	9	...........
	121	1.62667	8.94747E-002	-8.90301E-005	0.00000E+000	-7.96595E-006	-5.39641E-002	8.94793E-002	3.57300E+000	9	...........
	122	1.64	8.54039E-002	-8.88041E-005	0.00000E+000	-7.58421E-006	-5.39641E-002	8.54156E-002	3.57300E+000	9	...........
	123	1.65333	8.13709E-002	-8.88051E-005	0.00000E+000	-7.22615E-006	-5.39641E-002	8.13747E-002	3.57300E+000	9	...........
	124	1.66667	7.73527E-002	-8.89530E-005	0.00000E+000	-6.88076E-006	-5.39641E-002	7.73539E-002	3.57300E+000	9	...........
	125	1.68	7.33380E-002	-8.86957E-005	0.00000E+000	-6.50476E-006	-5.39641E-002	7.33425E-002	3.57300E+000	9	...........
	126	1.69333	6.93582E-002	-8.85477E-005	0.00000E+000	-6.14151E-006	-5.39641E-002	6.93596E-002	3.57300E+000	9	...........
	127	1.70667	6.53950E-002	-8.88364E-005	0.00000E+000	-5.80945E-006	-5.39641E-002	6.53989E-002	3.57300E+000	9	...........
	128	1.72	6.14554E-002	-8.88228E-005	0.00000E+000	-5.45864E-006	-5.39641E-002	6.14508E-002	3.57300E+000	9	...........
	129	1.73333	5.75357E-002	-8.87916E-005	0.00000E+000	-5.10869E-006	-5.39641E-002	5.75317E-002	3.57300E+000	9	...........
	130	1.74667	5.36311E-002	-8.89134E-005	0.00000E+000	-4.76852E-006	-5.39641E-002	5.36251E-002	3.57300E+000	9	...........
	131	1.76	4.97433E-002	-8.88989E-005	0.00000E+000	-4.42212E-006	-5.39641E-002	4.97409E-002	3.57300E+000	9	...........
	132	1.77333	4.58785E-002	-8.88874E-005	0.00000E+000	-4.07802E-006	-5.39641E-002	4.58900E-002	3.57300E+000	9	...........
	133	1.78667	4.20316E-002	-8.87988E-005	0.00000E+000	-3.73235E-006	-5.39641E-002	4.20391E-002	3.57300E+000	9	...........
	134	1.8	3.82013E-002	-8.93990E-005	0.00000E+000	-3.41515E-006	-5.39641E-002	3.82034E-002	3.57300E+000	9	...........
	135	1.81333	3.43920E-002	-8.87957E-005	0.00000E+000	-3.05386E-006	-5.39641E-002	3.43942E-002	3.57300E+000	9	...........
	136	1.82667	3.06081E-002	-8.87165E-005	0.00000E+000	-2.71544E-006	-5.39641E-002	3.06079E-002	3.57300E+000	9	...........
	137	1.84	2.68447E-002	-8.87384E-005	0.00000E+000	-2.38215E-006	-5.39641E-002	2.68424E-002	3.57300E+000	9	...........
	138	1.85333	2.30921E-002	-8.85644E-005	0.00000E+000	-2.04514E-006	-5.39641E-002	2.30842E-002	3.57300E+000	9	...........
	139	1.86667	1.93517E-002	-8.87082E-005	0.00000E+000	-1.71665E-006	-5.39641E-002	1.93459E-002	3.57300E+000	9	...........
	140	1.88	1.56395E-002	-8.86426E-005	0.00000E+000	-1.38632E-006	-5.39641E-002	1.56316E-002	3.57300E+000	9	...........
	141	1.89333	1.19384E-002	-8.86082E-005	0.00000E+000	-1.05784E-006	-5.39641E-002	1.19306E-002	3.57300E+000	9	...........
	142	1.90667	8.25899E-003	-8.87186E-005	0.00000E+000	-7.32726E-007	-5.39641E-002	8.24697E-003	3.57300E+000	9	...........
	143	1.92	4.58896E-003	-8.90541E-005	0.00000E+000	-4.08666E-007	-5.39641E-002	4.57666E-003	3.57300E+000	9	...........
	144	1.93167	1.17286E-003	-8.86034E-005	0.00000E+000	-1.03919E-007	-5.39641E-002	1.15819E-003	3.57300E+000	9	...........
STARTTIMEOFFSET	QUANT	4273.578	Start Time Offset (s)
