EXPLAIN
TAG	PWR800_DISCHARGE
TITLE	LABEL	PWR Cyclic Charge Discharge (Cell) - Discharge Step	Test &Identifier
DATE	LABEL	10-7-2017	Date
TIME	LABEL	16:22:52	Time
NOTES	NOTES	3	&Notes...
	supercap test cell
	0.9mg
	6M KOH
PSTAT	PSTAT	IFC5000-01520	Potentiostat
CAPACITY	QUANT	1.00000E-003	Capacity (A-hr)
CELLTYPE	SELECTOR	1	&Cell Type
WORKINGCONNECTION	SELECTOR	0	&Working Lead
MAXDISCHARGETIME	VARIABLEANDUNITS	1.00000E+002	s	1.00000E+002	second(s)	Max &Discharge Time
DISCHARGEMODE	MULTIPARAM	0	9.00000E-005	&Discharge Mode	Constant Current	Amp(s)
SAMPLETIME	QUANT	1.00000E-002	Sa&mple Period (s)
DISCHARGESTOPAT1	MULTIPARAM	3	0.00000E+000	Discharge Stop At &1	Voltage < Limit	V
DISCHARGESTOPAT2	MULTIPARAM	0	0.00000E+000	Discharge Stop At &2	None	N/A
AESBHCSELECTOR	TOGGLE	F	Save Both Half Cells
IRCOMP	TOGGLE	F	IR &Measure
EOC	QUANT	0	Open Circuit (V)
SEQUENCER	TOGGLE	TRUE	Run as Sequence
PSTATMODEL	IQUANT	53	Pstat Model
PSTATSECTION	LABEL	IFC5000-01520	Pstat Section
PSTATSERIALNO	LABEL	01520	Pstat Serial Number
CTRLMODE	IQUANT	0	Control Mode
ELECTROMETER	IQUANT	1	RE=0 or CS=1
IESTAB	IQUANT	0	I/E Stability
CASPEED	IQUANT	4	Control Amp Speed
CONVENTION	IQUANT	1	Current Convention
ICHRANGE	IQUANT	2	Ich Range
ICHRANGEMODE	TOGGLE	T	Ich Auto Range
ICHOFFSETENABLE	TOGGLE	F	Ich Offset Enable
ICHOFFSET	QUANT	0	Ich Offset (V)
ICHFILTER	IQUANT	1	Ich Filter
VCHRANGE	IQUANT	2	Vch Range
VCHRANGEMODE	TOGGLE	T	Vch Auto Range
VCHOFFSETENABLE	TOGGLE	F	Vch Offset Enable
VCHOFFSET	QUANT	0	Vch Offset (V)
VCHFILTER	IQUANT	1	Vch Filter
IERANGELOWERLIMIT	IQUANT	9	I/E Range Lower Limit
IERANGEMODE	TOGGLE	F	I/E AutoRange
IERANGE	IQUANT	9	I/E Range
ACHSELECT	IQUANT	1	Ach Select
ACHRANGE	IQUANT	2	Ach Range
ACHOFFSETENABLE	TOGGLE	F	Ach Offset Enable
ACHOFFSET	QUANT	0	Ach Offset (V)
ACHFILTER	IQUANT	1	Ach Filter
CABLEID	IQUANT	14	Cable ID
DCCALDATE	LABEL	5-7-2017	DC Calibration Date
ACCALDATE	LABEL	12/3/2015	AC Calibration Date
FRAMEWORKVERSION	QUANT	7.01	Framework Version
INSTRUMENTVERSION	LABEL	4.00	Instrument Version
CURVE	TABLE	146
	Pt	T	Vf	Im	Vu	Pwr	Sig	Ach	Temp	IERange	Over
	#	s	V	A	V	W	V	V	deg C	#	bits
	0	0.013333	7.99104E-001	-8.86999E-005	0.00000E+000	-7.08804E-005	-5.39641E-002	7.99233E-001	3.57350E+000	9	...........
	1	0.026667	7.84626E-001	-8.84873E-005	0.00000E+000	-6.94295E-005	-5.39641E-002	7.84756E-001	3.57350E+000	9	...........
	2	0.04	7.71165E-001	-8.88780E-005	0.00000E+000	-6.85396E-005	-5.39641E-002	7.71302E-001	3.57350E+000	9	...........
	3	0.053333	7.58534E-001	-8.87051E-005	0.00000E+000	-6.72858E-005	-5.39641E-002	7.58621E-001	3.57350E+000	9	...........
	4	0.066667	7.46535E-001	-8.88489E-005	0.00000E+000	-6.63288E-005	-5.39641E-002	7.46629E-001	3.57350E+000	9	...........
	5	0.08	7.35074E-001	-8.88343E-005	0.00000E+000	-6.52998E-005	-5.39641E-002	7.35201E-001	3.57350E+000	9	...........
	6	0.093333	7.24142E-001	-8.89385E-005	0.00000E+000	-6.44040E-005	-5.39641E-002	7.24258E-001	3.57350E+000	9	...........
	7	0.106667	7.13576E-001	-8.92041E-005	0.00000E+000	-6.36540E-005	-5.39641E-002	7.13705E-001	3.57350E+000	9	...........
	8	0.12	7.03450E-001	-8.87895E-005	0.00000E+000	-6.24590E-005	-5.39641E-002	7.03560E-001	3.57350E+000	9	...........
	9	0.133333	6.93668E-001	-8.86394E-005	0.00000E+000	-6.14863E-005	-5.39641E-002	6.93778E-001	3.57350E+000	9	...........
	10	0.146667	6.84167E-001	-8.87572E-005	0.00000E+000	-6.07247E-005	-5.39641E-002	6.84265E-001	3.57350E+000	9	...........
	11	0.16	6.74977E-001	-8.88895E-005	0.00000E+000	-5.99984E-005	-5.39641E-002	6.75068E-001	3.57350E+000	9	...........
	12	0.173333	6.66014E-001	-8.89020E-005	0.00000E+000	-5.92100E-005	-5.39641E-002	6.66127E-001	3.57350E+000	9	...........
	13	0.186667	6.57294E-001	-8.86822E-005	0.00000E+000	-5.82903E-005	-5.39641E-002	6.57407E-001	3.57350E+000	9	...........
	14	0.2	6.48800E-001	-8.87811E-005	0.00000E+000	-5.76012E-005	-5.39641E-002	6.48929E-001	3.57350E+000	9	...........
	15	0.213333	6.40543E-001	-8.88447E-005	0.00000E+000	-5.69089E-005	-5.39641E-002	6.40672E-001	3.57350E+000	9	...........
	16	0.226667	6.32459E-001	-8.88311E-005	0.00000E+000	-5.61820E-005	-5.39641E-002	6.32578E-001	3.57350E+000	9	...........
	17	0.24	6.24599E-001	-8.87999E-005	0.00000E+000	-5.54643E-005	-5.39641E-002	6.24697E-001	3.57350E+000	9	...........
	18	0.253333	6.16883E-001	-8.88311E-005	0.00000E+000	-5.47984E-005	-5.39641E-002	6.16992E-001	3.57350E+000	9	...........
	19	0.266667	6.09265E-001	-8.87978E-005	0.00000E+000	-5.41014E-005	-5.39641E-002	6.09410E-001	3.57350E+000	9	...........
	20	0.28	6.01866E-001	-8.86644E-005	0.00000E+000	-5.33641E-005	-5.39641E-002	6.02005E-001	3.57350E+000	9	...........
	21	0.293333	5.94622E-001	-8.87999E-005	0.00000E+000	-5.28024E-005	-5.39641E-002	5.94736E-001	3.57350E+000	9	...........
	22	0.306667	5.87486E-001	-8.87082E-005	0.00000E+000	-5.21148E-005	-5.39641E-002	5.87578E-001	3.57350E+000	9	...........
	23	0.32	5.80472E-001	-8.87155E-005	0.00000E+000	-5.14969E-005	-5.39641E-002	5.80568E-001	3.57350E+000	9	...........
	24	0.333333	5.73603E-001	-8.88228E-005	0.00000E+000	-5.09491E-005	-5.39641E-002	5.73680E-001	3.57350E+000	9	...........
	25	0.346667	5.66848E-001	-8.88145E-005	0.00000E+000	-5.03443E-005	-5.39641E-002	5.66934E-001	3.57350E+000	9	...........
	26	0.36	5.60146E-001	-8.90697E-005	0.00000E+000	-4.98920E-005	-5.39641E-002	5.60256E-001	3.57350E+000	9	...........
	27	0.373333	5.53605E-001	-8.87957E-005	0.00000E+000	-4.91577E-005	-5.39641E-002	5.53719E-001	3.57350E+000	9	...........
	28	0.386667	5.47141E-001	-8.88770E-005	0.00000E+000	-4.86283E-005	-5.39641E-002	5.47257E-001	3.57350E+000	9	...........
	29	0.4	5.40794E-001	-8.86842E-005	0.00000E+000	-4.79599E-005	-5.39641E-002	5.40910E-001	3.57350E+000	9	...........
	30	0.413333	5.34504E-001	-8.90635E-005	0.00000E+000	-4.76048E-005	-5.39641E-002	5.34592E-001	3.57350E+000	9	...........
	31	0.426667	5.28313E-001	-8.87311E-005	0.00000E+000	-4.68778E-005	-5.39641E-002	5.28410E-001	3.57350E+000	9	...........
	32	0.44	5.22213E-001	-8.89009E-005	0.00000E+000	-4.64252E-005	-5.39641E-002	5.22287E-001	3.57350E+000	9	...........
	33	0.453333	5.16156E-001	-8.88541E-005	0.00000E+000	-4.58626E-005	-5.39641E-002	5.16253E-001	3.57350E+000	9	...........
	34	0.466667	5.10147E-001	-8.87363E-005	0.00000E+000	-4.52686E-005	-5.39641E-002	5.10273E-001	3.57350E+000	9	...........
	35	0.48	5.04225E-001	-8.86967E-005	0.00000E+000	-4.47231E-005	-5.39641E-002	5.04381E-001	3.57350E+000	9	...........
	36	0.493333	4.98406E-001	-8.90135E-005	0.00000E+000	-4.43648E-005	-5.39641E-002	4.98516E-001	3.57350E+000	9	...........
	37	0.506667	4.92612E-001	-8.86311E-005	0.00000E+000	-4.36608E-005	-5.39641E-002	4.92744E-001	3.57327E+000	9	...........
	38	0.52	4.86926E-001	-8.87780E-005	0.00000E+000	-4.32283E-005	-5.39641E-002	4.87028E-001	3.57290E+000	9	...........
	39	0.533333	4.81384E-001	-8.88072E-005	0.00000E+000	-4.27503E-005	-5.39641E-002	4.81455E-001	3.57290E+000	9	...........
	40	0.546667	4.75769E-001	-8.87228E-005	0.00000E+000	-4.22116E-005	-5.39641E-002	4.75834E-001	3.57290E+000	9	...........
	41	0.56	4.70203E-001	-8.88936E-005	0.00000E+000	-4.17981E-005	-5.39641E-002	4.70267E-001	3.57290E+000	9	...........
	42	0.573333	4.64684E-001	-8.86113E-005	0.00000E+000	-4.11762E-005	-5.39641E-002	4.64741E-001	3.57290E+000	9	...........
	43	0.586667	4.59199E-001	-8.89166E-005	0.00000E+000	-4.08304E-005	-5.39641E-002	4.59265E-001	3.57290E+000	9	...........
	44	0.6	4.53772E-001	-8.86061E-005	0.00000E+000	-4.02070E-005	-5.39641E-002	4.53838E-001	3.57290E+000	9	...........
	45	0.613333	4.48374E-001	-8.89749E-005	0.00000E+000	-3.98941E-005	-5.39641E-002	4.48437E-001	3.57290E+000	9	...........
	46	0.626667	4.42990E-001	-8.89749E-005	0.00000E+000	-3.94150E-005	-5.39641E-002	4.43054E-001	3.57290E+000	9	...........
	47	0.64	4.37656E-001	-8.88478E-005	0.00000E+000	-3.88848E-005	-5.39641E-002	4.37717E-001	3.57290E+000	9	...........
	48	0.653333	4.32363E-001	-8.88166E-005	0.00000E+000	-3.84010E-005	-5.39641E-002	4.32419E-001	3.57290E+000	9	...........
	49	0.666667	4.27104E-001	-8.88822E-005	0.00000E+000	-3.79620E-005	-5.39641E-002	4.27161E-001	3.57290E+000	9	...........
	50	0.68	4.21876E-001	-8.87582E-005	0.00000E+000	-3.74449E-005	-5.39641E-002	4.21929E-001	3.57290E+000	9	...........
	51	0.693333	4.16661E-001	-8.89791E-005	0.00000E+000	-3.70741E-005	-5.39641E-002	4.16717E-001	3.57290E+000	9	...........
	52	0.706667	4.11478E-001	-8.86978E-005	0.00000E+000	-3.64972E-005	-5.39641E-002	4.11536E-001	3.57290E+000	9	...........
	53	0.72	4.06313E-001	-8.87634E-005	0.00000E+000	-3.60657E-005	-5.39641E-002	4.06366E-001	3.57290E+000	9	...........
	54	0.733333	4.01168E-001	-8.86967E-005	0.00000E+000	-3.55823E-005	-5.39641E-002	4.01222E-001	3.57290E+000	9	...........
	55	0.746667	3.96053E-001	-8.89989E-005	0.00000E+000	-3.52483E-005	-5.39641E-002	3.96107E-001	3.57290E+000	9	...........
	56	0.76	3.90949E-001	-8.89718E-005	0.00000E+000	-3.47835E-005	-5.39641E-002	3.90994E-001	3.57290E+000	9	...........
	57	0.773333	3.85857E-001	-8.88061E-005	0.00000E+000	-3.42665E-005	-5.39641E-002	3.85907E-001	3.57290E+000	9	...........
	58	0.786667	3.80792E-001	-8.85623E-005	0.00000E+000	-3.37238E-005	-5.39641E-002	3.80845E-001	3.57290E+000	9	...........
	59	0.8	3.75751E-001	-8.88228E-005	0.00000E+000	-3.33753E-005	-5.39641E-002	3.75801E-001	3.57290E+000	9	...........
	60	0.813333	3.70731E-001	-8.88666E-005	0.00000E+000	-3.29455E-005	-5.39641E-002	3.70780E-001	3.57290E+000	9	...........
	61	0.826667	3.65726E-001	-8.87144E-005	0.00000E+000	-3.24451E-005	-5.39641E-002	3.65776E-001	3.57290E+000	9	...........
	62	0.84	3.60735E-001	-8.87655E-005	0.00000E+000	-3.20208E-005	-5.39641E-002	3.60786E-001	3.57290E+000	9	...........
	63	0.853333	3.55761E-001	-8.87988E-005	0.00000E+000	-3.15912E-005	-5.39641E-002	3.55807E-001	3.57290E+000	9	...........
	64	0.866667	3.50798E-001	-8.88822E-005	0.00000E+000	-3.11797E-005	-5.39641E-002	3.50843E-001	3.57290E+000	9	...........
	65	0.88	3.45847E-001	-8.89082E-005	0.00000E+000	-3.07487E-005	-5.39641E-002	3.45888E-001	3.57290E+000	9	...........
	66	0.893333	3.40918E-001	-8.89343E-005	0.00000E+000	-3.03193E-005	-5.39641E-002	3.40968E-001	3.57290E+000	9	...........
	67	0.906667	3.36000E-001	-8.87811E-005	0.00000E+000	-2.98304E-005	-5.39641E-002	3.36047E-001	3.57290E+000	9	...........
	68	0.92	3.31092E-001	-8.87947E-005	0.00000E+000	-2.93992E-005	-5.39641E-002	3.31134E-001	3.57290E+000	9	...........
	69	0.933333	3.26183E-001	-8.86582E-005	0.00000E+000	-2.89188E-005	-5.39641E-002	3.26228E-001	3.57290E+000	9	...........
	70	0.946667	3.21298E-001	-8.87144E-005	0.00000E+000	-2.85038E-005	-5.39641E-002	3.21337E-001	3.57290E+000	9	...........
	71	0.96	3.16422E-001	-8.88009E-005	0.00000E+000	-2.80986E-005	-5.39641E-002	3.16466E-001	3.57290E+000	9	...........
	72	0.97333	3.11565E-001	-8.88124E-005	0.00000E+000	-2.76708E-005	-5.39641E-002	3.11612E-001	3.57290E+000	9	...........
	73	0.98667	3.06703E-001	-8.88614E-005	0.00000E+000	-2.72540E-005	-5.39641E-002	3.06749E-001	3.57290E+000	9	...........
	74	1	3.01854E-001	-8.87447E-005	0.00000E+000	-2.67879E-005	-5.39641E-002	3.01899E-001	3.57290E+000	9	...........
	75	1.01333	2.97035E-001	-8.87988E-005	0.00000E+000	-2.63764E-005	-5.39641E-002	2.97076E-001	3.57290E+000	9	...........
	76	1.02667	2.92226E-001	-8.88697E-005	0.00000E+000	-2.59700E-005	-5.39641E-002	2.92262E-001	3.57290E+000	9	...........
	77	1.04	2.87419E-001	-8.87780E-005	0.00000E+000	-2.55165E-005	-5.39641E-002	2.87453E-001	3.57290E+000	9	...........
	78	1.05333	2.82608E-001	-8.87936E-005	0.00000E+000	-2.50938E-005	-5.39641E-002	2.82648E-001	3.57290E+000	9	...........
	79	1.06667	2.77827E-001	-8.88791E-005	0.00000E+000	-2.46930E-005	-5.39641E-002	2.77860E-001	3.57290E+000	9	...........
	80	1.08	2.73055E-001	-8.88624E-005	0.00000E+000	-2.42644E-005	-5.39641E-002	2.73094E-001	3.57290E+000	9	...........
	81	1.09333	2.68296E-001	-8.88113E-005	0.00000E+000	-2.38278E-005	-5.39641E-002	2.68334E-001	3.57290E+000	9	...........
	82	1.10667	2.63553E-001	-8.89562E-005	0.00000E+000	-2.34446E-005	-5.39641E-002	2.63594E-001	3.57290E+000	9	...........
	83	1.12	2.58814E-001	-8.87655E-005	0.00000E+000	-2.29738E-005	-5.39641E-002	2.58850E-001	3.57290E+000	9	...........
	84	1.13333	2.54089E-001	-8.90739E-005	0.00000E+000	-2.26327E-005	-5.39641E-002	2.54126E-001	3.57290E+000	9	...........
	85	1.14667	2.49378E-001	-8.87957E-005	0.00000E+000	-2.21437E-005	-5.39641E-002	2.49418E-001	3.57290E+000	9	...........
	86	1.16	2.44683E-001	-8.88259E-005	0.00000E+000	-2.17342E-005	-5.39641E-002	2.44716E-001	3.57290E+000	9	...........
	87	1.17333	2.40001E-001	-8.88384E-005	0.00000E+000	-2.13213E-005	-5.39641E-002	2.40028E-001	3.57290E+000	9	...........
	88	1.18667	2.35334E-001	-8.85498E-005	0.00000E+000	-2.08388E-005	-5.39641E-002	2.35359E-001	3.57290E+000	9	...........
	89	1.2	2.30686E-001	-8.88468E-005	0.00000E+000	-2.04957E-005	-5.39641E-002	2.30712E-001	3.57290E+000	9	...........
	90	1.21333	2.26056E-001	-8.88051E-005	0.00000E+000	-2.00750E-005	-5.39641E-002	2.26086E-001	3.57290E+000	9	...........
	91	1.22667	2.21445E-001	-8.90270E-005	0.00000E+000	-1.97146E-005	-5.39641E-002	2.21473E-001	3.57290E+000	9	...........
	92	1.24	2.16837E-001	-8.88468E-005	0.00000E+000	-1.92653E-005	-5.39641E-002	2.16865E-001	3.57290E+000	9	...........
	93	1.25333	2.12259E-001	-8.86957E-005	0.00000E+000	-1.88264E-005	-5.39641E-002	2.12277E-001	3.57290E+000	9	...........
	94	1.26667	2.07698E-001	-8.88155E-005	0.00000E+000	-1.84468E-005	-5.39641E-002	2.07727E-001	3.57290E+000	9	...........
	95	1.28	2.03146E-001	-8.89562E-005	0.00000E+000	-1.80711E-005	-5.39641E-002	2.03170E-001	3.57290E+000	9	...........
	96	1.29333	1.98624E-001	-8.86801E-005	0.00000E+000	-1.76140E-005	-5.39641E-002	1.98649E-001	3.57290E+000	9	...........
	97	1.30667	1.94110E-001	-8.89291E-005	0.00000E+000	-1.72620E-005	-5.39641E-002	1.94134E-001	3.57290E+000	9	...........
	98	1.32	1.89613E-001	-8.87530E-005	0.00000E+000	-1.68287E-005	-5.39641E-002	1.89632E-001	3.57290E+000	9	...........
	99	1.33333	1.85132E-001	-8.88895E-005	0.00000E+000	-1.64563E-005	-5.39641E-002	1.85148E-001	3.57290E+000	9	...........
	100	1.34667	1.80670E-001	-8.88499E-005	0.00000E+000	-1.60525E-005	-5.39641E-002	1.80688E-001	3.57290E+000	9	...........
	101	1.36	1.76221E-001	-8.88280E-005	0.00000E+000	-1.56534E-005	-5.39641E-002	1.76237E-001	3.57290E+000	9	...........
	102	1.37333	1.71787E-001	-8.87207E-005	0.00000E+000	-1.52410E-005	-5.39641E-002	1.71811E-001	3.57290E+000	9	...........
	103	1.38667	1.67380E-001	-8.88468E-005	0.00000E+000	-1.48712E-005	-5.39641E-002	1.67399E-001	3.57290E+000	9	...........
	104	1.4	1.62985E-001	-8.85363E-005	0.00000E+000	-1.44301E-005	-5.39641E-002	1.63002E-001	3.57290E+000	9	...........
	105	1.41333	1.58606E-001	-8.87103E-005	0.00000E+000	-1.40700E-005	-5.39641E-002	1.58623E-001	3.57290E+000	9	...........
	106	1.42667	1.54250E-001	-8.86551E-005	0.00000E+000	-1.36751E-005	-5.39641E-002	1.54267E-001	3.57290E+000	9	...........
	107	1.44	1.49918E-001	-8.85894E-005	0.00000E+000	-1.32812E-005	-5.39641E-002	1.49932E-001	3.57290E+000	9	...........
	108	1.45333	1.45602E-001	-8.88541E-005	0.00000E+000	-1.29373E-005	-5.39641E-002	1.45613E-001	3.57290E+000	9	...........
	109	1.46667	1.41294E-001	-8.84436E-005	0.00000E+000	-1.24965E-005	-5.39641E-002	1.41312E-001	3.57290E+000	9	...........
	110	1.48	1.37020E-001	-8.88697E-005	0.00000E+000	-1.21770E-005	-5.39641E-002	1.37036E-001	3.57290E+000	9	...........
	111	1.49333	1.32757E-001	-8.86363E-005	0.00000E+000	-1.17671E-005	-5.39641E-002	1.32770E-001	3.57290E+000	9	...........
	112	1.50667	1.28503E-001	-8.87655E-005	0.00000E+000	-1.14067E-005	-5.39641E-002	1.28513E-001	3.57290E+000	9	...........
	113	1.52	1.24270E-001	-8.88426E-005	0.00000E+000	-1.10405E-005	-5.39641E-002	1.24282E-001	3.57290E+000	9	...........
	114	1.53333	1.20063E-001	-8.86415E-005	0.00000E+000	-1.06426E-005	-5.39641E-002	1.20076E-001	3.57290E+000	9	...........
	115	1.54667	1.15870E-001	-8.89062E-005	0.00000E+000	-1.03016E-005	-5.39641E-002	1.15883E-001	3.57290E+000	9	...........
	116	1.56	1.11693E-001	-8.89009E-005	0.00000E+000	-9.92960E-006	-5.39641E-002	1.11699E-001	3.57290E+000	9	...........
	117	1.57333	1.07551E-001	-8.87603E-005	0.00000E+000	-9.54630E-006	-5.39641E-002	1.07559E-001	3.57290E+000	9	...........
	118	1.58667	1.03417E-001	-8.85613E-005	0.00000E+000	-9.15871E-006	-5.39641E-002	1.03427E-001	3.57290E+000	9	...........
	119	1.6	9.93095E-002	-8.89009E-005	0.00000E+000	-8.82871E-006	-5.39641E-002	9.93230E-002	3.57290E+000	9	...........
	120	1.61333	9.52356E-002	-8.86092E-005	0.00000E+000	-8.43875E-006	-5.39641E-002	9.52451E-002	3.57290E+000	9	...........
	121	1.62667	9.11678E-002	-8.85655E-005	0.00000E+000	-8.07431E-006	-5.39641E-002	9.11743E-002	3.57290E+000	9	...........
	122	1.64	8.71132E-002	-8.86749E-005	0.00000E+000	-7.72475E-006	-5.39641E-002	8.71213E-002	3.57290E+000	9	...........
	123	1.65333	8.30809E-002	-8.86571E-005	0.00000E+000	-7.36572E-006	-5.39641E-002	8.30790E-002	3.57290E+000	9	...........
	124	1.66667	7.90497E-002	-8.87843E-005	0.00000E+000	-7.01837E-006	-5.39641E-002	7.90481E-002	3.57290E+000	9	...........
	125	1.68	7.50435E-002	-8.89343E-005	0.00000E+000	-6.67394E-006	-5.39641E-002	7.50433E-002	3.57290E+000	9	...........
	126	1.69333	7.10682E-002	-8.85540E-005	0.00000E+000	-6.29338E-006	-5.39641E-002	7.10697E-002	3.57290E+000	9	...........
	127	1.70667	6.71174E-002	-8.89687E-005	0.00000E+000	-5.97135E-006	-5.39641E-002	6.71170E-002	3.57290E+000	9	...........
	128	1.72	6.31756E-002	-8.86947E-005	0.00000E+000	-5.60334E-006	-5.39641E-002	6.31734E-002	3.57290E+000	9	...........
	129	1.73333	5.92392E-002	-8.88895E-005	0.00000E+000	-5.26575E-006	-5.39641E-002	5.92408E-002	3.57290E+000	9	...........
	130	1.74667	5.53171E-002	-8.84425E-005	0.00000E+000	-4.89238E-006	-5.39641E-002	5.53186E-002	3.57290E+000	9	...........
	131	1.76	5.14244E-002	-8.88374E-005	0.00000E+000	-4.56841E-006	-5.39641E-002	5.14292E-002	3.57290E+000	9	...........
	132	1.77333	4.75598E-002	-8.87832E-005	0.00000E+000	-4.22251E-006	-5.39641E-002	4.75651E-002	3.57290E+000	9	...........
	133	1.78667	4.37053E-002	-8.86530E-005	0.00000E+000	-3.87461E-006	-5.39641E-002	4.37110E-002	3.57290E+000	9	...........
	134	1.8	3.98640E-002	-8.89801E-005	0.00000E+000	-3.54710E-006	-5.39641E-002	3.98693E-002	3.57290E+000	9	...........
	135	1.81333	3.60386E-002	-8.87155E-005	0.00000E+000	-3.19718E-006	-5.39641E-002	3.60402E-002	3.57290E+000	9	...........
	136	1.82667	3.22269E-002	-8.89655E-005	0.00000E+000	-2.86708E-006	-5.39641E-002	3.22286E-002	3.57290E+000	9	...........
	137	1.84	2.84402E-002	-8.87374E-005	0.00000E+000	-2.52371E-006	-5.39641E-002	2.84392E-002	3.57290E+000	9	...........
	138	1.85333	2.46810E-002	-8.87447E-005	0.00000E+000	-2.19030E-006	-5.39641E-002	2.46774E-002	3.57290E+000	9	...........
	139	1.86667	2.09397E-002	-8.89041E-005	0.00000E+000	-1.86162E-006	-5.39641E-002	2.09369E-002	3.57290E+000	9	...........
	140	1.88	1.72194E-002	-8.88582E-005	0.00000E+000	-1.53008E-006	-5.39641E-002	1.72152E-002	3.57290E+000	9	...........
	141	1.89333	1.35218E-002	-8.88197E-005	0.00000E+000	-1.20100E-006	-5.39641E-002	1.35181E-002	3.57290E+000	9	...........
	142	1.90667	9.82870E-003	-8.88968E-005	0.00000E+000	-8.73740E-007	-5.39641E-002	9.81744E-003	3.57290E+000	9	...........
	143	1.92	6.16666E-003	-8.87655E-005	0.00000E+000	-5.47387E-007	-5.39641E-002	6.14847E-003	3.57290E+000	9	...........
	144	1.93333	2.50710E-003	-8.90801E-005	0.00000E+000	-2.23333E-007	-5.39641E-002	2.49512E-003	3.57290E+000	9	...........
	145	1.93833	1.34805E-005	-8.86276E-005	0.00000E+000	-1.19474E-009	-5.39641E-002	-3.03080E-006	3.57290E+000	9	...........
STARTTIMEOFFSET	QUANT	4204.344	Start Time Offset (s)
