EXPLAIN
TAG	PWR800_DISCHARGE
TITLE	LABEL	PWR Cyclic Charge Discharge (Cell) - Discharge Step	Test &Identifier
DATE	LABEL	10-7-2017	Date
TIME	LABEL	16:08:37	Time
NOTES	NOTES	3	&Notes...
	supercap test cell
	0.9mg
	6M KOH
PSTAT	PSTAT	IFC5000-01520	Potentiostat
CAPACITY	QUANT	1.00000E-003	Capacity (A-hr)
CELLTYPE	SELECTOR	1	&Cell Type
WORKINGCONNECTION	SELECTOR	0	&Working Lead
MAXDISCHARGETIME	VARIABLEANDUNITS	1.00000E+002	s	1.00000E+002	second(s)	Max &Discharge Time
DISCHARGEMODE	MULTIPARAM	0	9.00000E-005	&Discharge Mode	Constant Current	Amp(s)
SAMPLETIME	QUANT	1.00000E-002	Sa&mple Period (s)
DISCHARGESTOPAT1	MULTIPARAM	3	0.00000E+000	Discharge Stop At &1	Voltage < Limit	V
DISCHARGESTOPAT2	MULTIPARAM	0	0.00000E+000	Discharge Stop At &2	None	N/A
AESBHCSELECTOR	TOGGLE	F	Save Both Half Cells
IRCOMP	TOGGLE	F	IR &Measure
EOC	QUANT	0	Open Circuit (V)
SEQUENCER	TOGGLE	TRUE	Run as Sequence
PSTATMODEL	IQUANT	53	Pstat Model
PSTATSECTION	LABEL	IFC5000-01520	Pstat Section
PSTATSERIALNO	LABEL	01520	Pstat Serial Number
CTRLMODE	IQUANT	0	Control Mode
ELECTROMETER	IQUANT	1	RE=0 or CS=1
IESTAB	IQUANT	0	I/E Stability
CASPEED	IQUANT	4	Control Amp Speed
CONVENTION	IQUANT	1	Current Convention
ICHRANGE	IQUANT	2	Ich Range
ICHRANGEMODE	TOGGLE	T	Ich Auto Range
ICHOFFSETENABLE	TOGGLE	F	Ich Offset Enable
ICHOFFSET	QUANT	0	Ich Offset (V)
ICHFILTER	IQUANT	1	Ich Filter
VCHRANGE	IQUANT	2	Vch Range
VCHRANGEMODE	TOGGLE	T	Vch Auto Range
VCHOFFSETENABLE	TOGGLE	F	Vch Offset Enable
VCHOFFSET	QUANT	0	Vch Offset (V)
VCHFILTER	IQUANT	1	Vch Filter
IERANGELOWERLIMIT	IQUANT	9	I/E Range Lower Limit
IERANGEMODE	TOGGLE	F	I/E AutoRange
IERANGE	IQUANT	9	I/E Range
ACHSELECT	IQUANT	1	Ach Select
ACHRANGE	IQUANT	2	Ach Range
ACHOFFSETENABLE	TOGGLE	F	Ach Offset Enable
ACHOFFSET	QUANT	0	Ach Offset (V)
ACHFILTER	IQUANT	1	Ach Filter
CABLEID	IQUANT	14	Cable ID
DCCALDATE	LABEL	5-7-2017	DC Calibration Date
ACCALDATE	LABEL	12/3/2015	AC Calibration Date
FRAMEWORKVERSION	QUANT	7.01	Framework Version
INSTRUMENTVERSION	LABEL	4.00	Instrument Version
CURVE	TABLE	147
	Pt	T	Vf	Im	Vu	Pwr	Sig	Ach	Temp	IERange	Over
	#	s	V	A	V	W	V	V	deg C	#	bits
	0	0.013333	8.03532E-001	-8.87718E-005	0.00000E+000	-7.13310E-005	-5.39641E-002	8.03693E-001	3.57270E+000	9	...........
	1	0.026667	7.89334E-001	-8.85967E-005	0.00000E+000	-6.99324E-005	-5.39641E-002	7.89475E-001	3.57270E+000	9	...........
	2	0.04	7.76115E-001	-8.87447E-005	0.00000E+000	-6.88760E-005	-5.39641E-002	7.76264E-001	3.57270E+000	9	...........
	3	0.053333	7.63654E-001	-8.86676E-005	0.00000E+000	-6.77113E-005	-5.39641E-002	7.63805E-001	3.57270E+000	9	...........
	4	0.066667	7.51858E-001	-8.86707E-005	0.00000E+000	-6.66678E-005	-5.39641E-002	7.51979E-001	3.57270E+000	9	...........
	5	0.08	7.40558E-001	-8.87457E-005	0.00000E+000	-6.57213E-005	-5.39641E-002	7.40718E-001	3.57270E+000	9	...........
	6	0.093333	7.29762E-001	-8.87176E-005	0.00000E+000	-6.47427E-005	-5.39641E-002	7.29901E-001	3.57270E+000	9	...........
	7	0.106667	7.19387E-001	-8.88801E-005	0.00000E+000	-6.39392E-005	-5.39641E-002	7.19523E-001	3.57270E+000	9	...........
	8	0.12	7.09359E-001	-8.87613E-005	0.00000E+000	-6.29636E-005	-5.39641E-002	7.09466E-001	3.57270E+000	9	...........
	9	0.133333	6.99670E-001	-8.86509E-005	0.00000E+000	-6.20264E-005	-5.39641E-002	6.99787E-001	3.57270E+000	9	...........
	10	0.146667	6.90288E-001	-8.86759E-005	0.00000E+000	-6.12119E-005	-5.39641E-002	6.90412E-001	3.57270E+000	9	...........
	11	0.16	6.81191E-001	-8.87520E-005	0.00000E+000	-6.04570E-005	-5.39641E-002	6.81287E-001	3.57270E+000	9	...........
	12	0.173333	6.72329E-001	-8.86665E-005	0.00000E+000	-5.96130E-005	-5.39641E-002	6.72433E-001	3.57270E+000	9	...........
	13	0.186667	6.63689E-001	-8.90208E-005	0.00000E+000	-5.90821E-005	-5.39641E-002	6.63804E-001	3.57270E+000	9	...........
	14	0.2	6.55295E-001	-8.90030E-005	0.00000E+000	-5.83232E-005	-5.39641E-002	6.55413E-001	3.57270E+000	9	...........
	15	0.213333	6.47076E-001	-8.87165E-005	0.00000E+000	-5.74063E-005	-5.39641E-002	6.47182E-001	3.57270E+000	9	...........
	16	0.226667	6.39083E-001	-8.89978E-005	0.00000E+000	-5.68770E-005	-5.39641E-002	6.39194E-001	3.57270E+000	9	...........
	17	0.24	6.31240E-001	-8.85290E-005	0.00000E+000	-5.58830E-005	-5.39641E-002	6.31352E-001	3.57270E+000	9	...........
	18	0.253333	6.23604E-001	-8.88145E-005	0.00000E+000	-5.53851E-005	-5.39641E-002	6.23687E-001	3.57270E+000	9	...........
	19	0.266667	6.16089E-001	-8.88416E-005	0.00000E+000	-5.47343E-005	-5.39641E-002	6.16193E-001	3.57270E+000	9	...........
	20	0.28	6.08673E-001	-8.89874E-005	0.00000E+000	-5.41642E-005	-5.39641E-002	6.08826E-001	3.57270E+000	9	...........
	21	0.293333	6.01494E-001	-8.87207E-005	0.00000E+000	-5.33649E-005	-5.39641E-002	6.01616E-001	3.57270E+000	9	...........
	22	0.306667	5.94419E-001	-8.86530E-005	0.00000E+000	-5.26970E-005	-5.39641E-002	5.94536E-001	3.57270E+000	9	...........
	23	0.32	5.87452E-001	-8.88478E-005	0.00000E+000	-5.21938E-005	-5.39641E-002	5.87576E-001	3.57270E+000	9	...........
	24	0.333333	5.80655E-001	-8.87394E-005	0.00000E+000	-5.15270E-005	-5.39641E-002	5.80752E-001	3.57270E+000	9	...........
	25	0.346667	5.73936E-001	-8.84634E-005	0.00000E+000	-5.07723E-005	-5.39641E-002	5.74023E-001	3.57270E+000	9	...........
	26	0.36	5.67315E-001	-8.90791E-005	0.00000E+000	-5.05359E-005	-5.39641E-002	5.67422E-001	3.57270E+000	9	...........
	27	0.373333	5.60740E-001	-8.85686E-005	0.00000E+000	-4.96639E-005	-5.39641E-002	5.60863E-001	3.57270E+000	9	...........
	28	0.386667	5.54325E-001	-8.90041E-005	0.00000E+000	-4.93372E-005	-5.39641E-002	5.54450E-001	3.57270E+000	9	...........
	29	0.4	5.47978E-001	-8.89280E-005	0.00000E+000	-4.87306E-005	-5.39641E-002	5.48086E-001	3.57270E+000	9	...........
	30	0.413333	5.41742E-001	-8.87707E-005	0.00000E+000	-4.80908E-005	-5.39641E-002	5.41824E-001	3.57270E+000	9	...........
	31	0.426667	5.35552E-001	-8.87905E-005	0.00000E+000	-4.75519E-005	-5.39641E-002	5.35661E-001	3.57270E+000	9	...........
	32	0.44	5.29445E-001	-8.86071E-005	0.00000E+000	-4.69126E-005	-5.39641E-002	5.29531E-001	3.57270E+000	9	...........
	33	0.453333	5.23392E-001	-8.90958E-005	0.00000E+000	-4.66320E-005	-5.39641E-002	5.23525E-001	3.57270E+000	9	...........
	34	0.466667	5.17485E-001	-8.86571E-005	0.00000E+000	-4.58788E-005	-5.39641E-002	5.17558E-001	3.57270E+000	9	...........
	35	0.48	5.11573E-001	-8.87822E-005	0.00000E+000	-4.54186E-005	-5.39641E-002	5.11675E-001	3.57270E+000	9	...........
	36	0.493333	5.05696E-001	-8.87895E-005	0.00000E+000	-4.49005E-005	-5.39641E-002	5.05825E-001	3.57270E+000	9	...........
	37	0.506667	4.99924E-001	-8.85602E-005	0.00000E+000	-4.42734E-005	-5.39641E-002	5.00024E-001	3.57270E+000	9	...........
	38	0.52	4.94204E-001	-8.86874E-005	0.00000E+000	-4.38297E-005	-5.39641E-002	4.94288E-001	3.57270E+000	9	...........
	39	0.533333	4.88548E-001	-8.89478E-005	0.00000E+000	-4.34553E-005	-5.39641E-002	4.88634E-001	3.57270E+000	9	...........
	40	0.546667	4.82997E-001	-8.86655E-005	0.00000E+000	-4.28252E-005	-5.39641E-002	4.83054E-001	3.57270E+000	9	...........
	41	0.56	4.77448E-001	-8.87051E-005	0.00000E+000	-4.23521E-005	-5.39641E-002	4.77513E-001	3.57270E+000	9	...........
	42	0.573333	4.71918E-001	-8.89301E-005	0.00000E+000	-4.19678E-005	-5.39641E-002	4.71980E-001	3.57270E+000	9	...........
	43	0.586667	4.66435E-001	-8.87311E-005	0.00000E+000	-4.13873E-005	-5.39641E-002	4.66498E-001	3.57270E+000	9	...........
	44	0.6	4.60991E-001	-8.89874E-005	0.00000E+000	-4.10224E-005	-5.39641E-002	4.61050E-001	3.57270E+000	9	...........
	45	0.613333	4.55575E-001	-8.90385E-005	0.00000E+000	-4.05637E-005	-5.39641E-002	4.55637E-001	3.57270E+000	9	...........
	46	0.626667	4.50209E-001	-8.88707E-005	0.00000E+000	-4.00104E-005	-5.39641E-002	4.50273E-001	3.57288E+000	9	...........
	47	0.64	4.44857E-001	-8.89676E-005	0.00000E+000	-3.95779E-005	-5.39641E-002	4.44921E-001	3.57410E+000	9	...........
	48	0.653333	4.39529E-001	-8.86488E-005	0.00000E+000	-3.89638E-005	-5.39641E-002	4.39586E-001	3.57410E+000	9	...........
	49	0.666667	4.34225E-001	-8.90499E-005	0.00000E+000	-3.86677E-005	-5.39641E-002	4.34284E-001	3.57410E+000	9	...........
	50	0.68	4.28975E-001	-8.88957E-005	0.00000E+000	-3.81341E-005	-5.39641E-002	4.29035E-001	3.57410E+000	9	...........
	51	0.693333	4.23741E-001	-8.89405E-005	0.00000E+000	-3.76878E-005	-5.39641E-002	4.23802E-001	3.57410E+000	9	...........
	52	0.706667	4.18519E-001	-8.90416E-005	0.00000E+000	-3.72656E-005	-5.39641E-002	4.18580E-001	3.57410E+000	9	...........
	53	0.72	4.13323E-001	-8.88113E-005	0.00000E+000	-3.67078E-005	-5.39641E-002	4.13381E-001	3.57410E+000	9	...........
	54	0.733333	4.08157E-001	-8.89853E-005	0.00000E+000	-3.63200E-005	-5.39641E-002	4.08217E-001	3.57410E+000	9	...........
	55	0.746667	4.03019E-001	-8.89708E-005	0.00000E+000	-3.58569E-005	-5.39641E-002	4.03062E-001	3.57410E+000	9	...........
	56	0.76	3.97898E-001	-8.86905E-005	0.00000E+000	-3.52898E-005	-5.39641E-002	3.97945E-001	3.57410E+000	9	...........
	57	0.773333	3.92800E-001	-8.86905E-005	0.00000E+000	-3.48376E-005	-5.39641E-002	3.92848E-001	3.57410E+000	9	...........
	58	0.786667	3.87717E-001	-8.88759E-005	0.00000E+000	-3.44587E-005	-5.39641E-002	3.87759E-001	3.57410E+000	9	...........
	59	0.8	3.82636E-001	-8.88301E-005	0.00000E+000	-3.39896E-005	-5.39641E-002	3.82681E-001	3.57410E+000	9	...........
	60	0.813333	3.77581E-001	-8.87467E-005	0.00000E+000	-3.35091E-005	-5.39641E-002	3.77632E-001	3.57410E+000	9	...........
	61	0.826667	3.72535E-001	-8.90572E-005	0.00000E+000	-3.31769E-005	-5.39641E-002	3.72580E-001	3.57410E+000	9	...........
	62	0.84	3.67520E-001	-8.89416E-005	0.00000E+000	-3.26878E-005	-5.39641E-002	3.67561E-001	3.57410E+000	9	...........
	63	0.853333	3.62509E-001	-8.90239E-005	0.00000E+000	-3.22719E-005	-5.39641E-002	3.62552E-001	3.57410E+000	9	...........
	64	0.866667	3.57508E-001	-8.87238E-005	0.00000E+000	-3.17195E-005	-5.39641E-002	3.57552E-001	3.57410E+000	9	...........
	65	0.88	3.52520E-001	-8.88332E-005	0.00000E+000	-3.13155E-005	-5.39641E-002	3.52556E-001	3.57410E+000	9	...........
	66	0.893333	3.47533E-001	-8.89270E-005	0.00000E+000	-3.09051E-005	-5.39641E-002	3.47578E-001	3.57410E+000	9	...........
	67	0.906667	3.42572E-001	-8.88718E-005	0.00000E+000	-3.04450E-005	-5.39641E-002	3.42616E-001	3.57410E+000	9	...........
	68	0.92	3.37631E-001	-8.88447E-005	0.00000E+000	-2.99967E-005	-5.39641E-002	3.37671E-001	3.57410E+000	9	...........
	69	0.933333	3.32693E-001	-8.90270E-005	0.00000E+000	-2.96187E-005	-5.39641E-002	3.32736E-001	3.57410E+000	9	...........
	70	0.946667	3.27790E-001	-8.87697E-005	0.00000E+000	-2.90978E-005	-5.39641E-002	3.27828E-001	3.57410E+000	9	...........
	71	0.96	3.22901E-001	-8.88051E-005	0.00000E+000	-2.86752E-005	-5.39641E-002	3.22939E-001	3.57410E+000	9	...........
	72	0.97333	3.18004E-001	-8.86655E-005	0.00000E+000	-2.81960E-005	-5.39641E-002	3.18043E-001	3.57410E+000	9	...........
	73	0.98667	3.13101E-001	-8.89041E-005	0.00000E+000	-2.78360E-005	-5.39641E-002	3.13142E-001	3.57410E+000	9	...........
	74	1	3.08220E-001	-8.87665E-005	0.00000E+000	-2.73597E-005	-5.39641E-002	3.08260E-001	3.57410E+000	9	...........
	75	1.01333	3.03353E-001	-8.88093E-005	0.00000E+000	-2.69405E-005	-5.39641E-002	3.03399E-001	3.57410E+000	9	...........
	76	1.02667	2.98521E-001	-8.89009E-005	0.00000E+000	-2.65388E-005	-5.39641E-002	2.98561E-001	3.57410E+000	9	...........
	77	1.04	2.93696E-001	-8.87790E-005	0.00000E+000	-2.60741E-005	-5.39641E-002	2.93732E-001	3.57410E+000	9	...........
	78	1.05333	2.88878E-001	-8.86790E-005	0.00000E+000	-2.56174E-005	-5.39641E-002	2.88912E-001	3.57410E+000	9	...........
	79	1.06667	2.84063E-001	-8.89437E-005	0.00000E+000	-2.52656E-005	-5.39641E-002	2.84100E-001	3.57410E+000	9	...........
	80	1.08	2.79273E-001	-8.88343E-005	0.00000E+000	-2.48090E-005	-5.39641E-002	2.79310E-001	3.57410E+000	9	...........
	81	1.09333	2.74488E-001	-8.89207E-005	0.00000E+000	-2.44076E-005	-5.39641E-002	2.74529E-001	3.57410E+000	9	...........
	82	1.10667	2.69724E-001	-8.88791E-005	0.00000E+000	-2.39728E-005	-5.39641E-002	2.69765E-001	3.57410E+000	9	...........
	83	1.12	2.64973E-001	-8.86530E-005	0.00000E+000	-2.34906E-005	-5.39641E-002	2.65013E-001	3.57410E+000	9	...........
	84	1.13333	2.60241E-001	-8.87718E-005	0.00000E+000	-2.31020E-005	-5.39641E-002	2.60275E-001	3.57410E+000	9	...........
	85	1.14667	2.55514E-001	-8.87676E-005	0.00000E+000	-2.26814E-005	-5.39641E-002	2.55547E-001	3.57410E+000	9	...........
	86	1.16	2.50807E-001	-8.88811E-005	0.00000E+000	-2.22920E-005	-5.39641E-002	2.50835E-001	3.57410E+000	9	...........
	87	1.17333	2.46120E-001	-8.89197E-005	0.00000E+000	-2.18849E-005	-5.39641E-002	2.46146E-001	3.57410E+000	9	...........
	88	1.18667	2.41442E-001	-8.88843E-005	0.00000E+000	-2.14604E-005	-5.39641E-002	2.41470E-001	3.57410E+000	9	...........
	89	1.2	2.36788E-001	-8.87113E-005	0.00000E+000	-2.10058E-005	-5.39641E-002	2.36815E-001	3.57410E+000	9	...........
	90	1.21333	2.32138E-001	-8.86603E-005	0.00000E+000	-2.05814E-005	-5.39641E-002	2.32164E-001	3.57410E+000	9	...........
	91	1.22667	2.27504E-001	-8.90729E-005	0.00000E+000	-2.02644E-005	-5.39641E-002	2.27534E-001	3.57410E+000	9	...........
	92	1.24	2.22904E-001	-8.88384E-005	0.00000E+000	-1.98025E-005	-5.39641E-002	2.22929E-001	3.57410E+000	9	...........
	93	1.25333	2.18303E-001	-8.90364E-005	0.00000E+000	-1.94369E-005	-5.39641E-002	2.18329E-001	3.57410E+000	9	...........
	94	1.26667	2.13728E-001	-8.89666E-005	0.00000E+000	-1.90147E-005	-5.39641E-002	2.13754E-001	3.57410E+000	9	...........
	95	1.28	2.09175E-001	-8.87363E-005	0.00000E+000	-1.85614E-005	-5.39641E-002	2.09199E-001	3.57410E+000	9	...........
	96	1.29333	2.04636E-001	-8.88832E-005	0.00000E+000	-1.81887E-005	-5.39641E-002	2.04660E-001	3.57410E+000	9	...........
	97	1.30667	2.00115E-001	-8.88457E-005	0.00000E+000	-1.77794E-005	-5.39641E-002	2.00142E-001	3.57410E+000	9	...........
	98	1.32	1.95622E-001	-8.88197E-005	0.00000E+000	-1.73751E-005	-5.39641E-002	1.95652E-001	3.57410E+000	9	...........
	99	1.33333	1.91139E-001	-8.87822E-005	0.00000E+000	-1.69697E-005	-5.39641E-002	1.91166E-001	3.57410E+000	9	...........
	100	1.34667	1.86675E-001	-8.87613E-005	0.00000E+000	-1.65695E-005	-5.39641E-002	1.86695E-001	3.57410E+000	9	...........
	101	1.36	1.82214E-001	-8.89801E-005	0.00000E+000	-1.62134E-005	-5.39641E-002	1.82237E-001	3.57410E+000	9	...........
	102	1.37333	1.77773E-001	-8.88020E-005	0.00000E+000	-1.57866E-005	-5.39641E-002	1.77795E-001	3.57410E+000	9	...........
	103	1.38667	1.73352E-001	-8.87363E-005	0.00000E+000	-1.53826E-005	-5.39641E-002	1.73372E-001	3.57410E+000	9	...........
	104	1.4	1.68948E-001	-8.86009E-005	0.00000E+000	-1.49690E-005	-5.39641E-002	1.68960E-001	3.57410E+000	9	...........
	105	1.41333	1.64577E-001	-8.91437E-005	0.00000E+000	-1.46710E-005	-5.39641E-002	1.64588E-001	3.57410E+000	9	...........
	106	1.42667	1.60219E-001	-8.88864E-005	0.00000E+000	-1.42413E-005	-5.39641E-002	1.60233E-001	3.57410E+000	9	...........
	107	1.44	1.55886E-001	-8.87342E-005	0.00000E+000	-1.38324E-005	-5.39641E-002	1.55899E-001	3.57410E+000	9	...........
	108	1.45333	1.51592E-001	-8.88801E-005	0.00000E+000	-1.34735E-005	-5.39641E-002	1.51598E-001	3.57410E+000	9	...........
	109	1.46667	1.47304E-001	-8.87863E-005	0.00000E+000	-1.30786E-005	-5.39641E-002	1.47316E-001	3.57410E+000	9	...........
	110	1.48	1.43028E-001	-8.88228E-005	0.00000E+000	-1.27041E-005	-5.39641E-002	1.43040E-001	3.57410E+000	9	...........
	111	1.49333	1.38768E-001	-8.89603E-005	0.00000E+000	-1.23448E-005	-5.39641E-002	1.38783E-001	3.57410E+000	9	...........
	112	1.50667	1.34535E-001	-8.88051E-005	0.00000E+000	-1.19474E-005	-5.39641E-002	1.34547E-001	3.57410E+000	9	...........
	113	1.52	1.30320E-001	-8.88186E-005	0.00000E+000	-1.15748E-005	-5.39641E-002	1.30335E-001	3.57410E+000	9	...........
	114	1.53333	1.26119E-001	-8.87686E-005	0.00000E+000	-1.11954E-005	-5.39641E-002	1.26135E-001	3.57410E+000	9	...........
	115	1.54667	1.21934E-001	-8.86822E-005	0.00000E+000	-1.08134E-005	-5.39641E-002	1.21948E-001	3.57410E+000	9	...........
	116	1.56	1.17770E-001	-8.88166E-005	0.00000E+000	-1.04600E-005	-5.39641E-002	1.17780E-001	3.57410E+000	9	...........
	117	1.57333	1.13640E-001	-8.88697E-005	0.00000E+000	-1.00992E-005	-5.39641E-002	1.13647E-001	3.57410E+000	9	...........
	118	1.58667	1.09527E-001	-8.88395E-005	0.00000E+000	-9.73033E-006	-5.39641E-002	1.09533E-001	3.57410E+000	9	...........
	119	1.6	1.05433E-001	-8.87655E-005	0.00000E+000	-9.35885E-006	-5.39641E-002	1.05436E-001	3.57410E+000	9	...........
	120	1.61333	1.01348E-001	-8.88478E-005	0.00000E+000	-9.00456E-006	-5.39641E-002	1.01352E-001	3.57410E+000	9	...........
	121	1.62667	9.72943E-002	-8.89728E-005	0.00000E+000	-8.65655E-006	-5.39641E-002	9.73000E-002	3.57398E+000	9	...........
	122	1.64	9.32418E-002	-8.87051E-005	0.00000E+000	-8.27102E-006	-5.39641E-002	9.32467E-002	3.57310E+000	9	...........
	123	1.65333	8.92124E-002	-8.90583E-005	0.00000E+000	-7.94511E-006	-5.39641E-002	8.92184E-002	3.57310E+000	9	...........
	124	1.66667	8.51931E-002	-8.88739E-005	0.00000E+000	-7.57144E-006	-5.39641E-002	8.51954E-002	3.57310E+000	9	...........
	125	1.68	8.12032E-002	-8.89718E-005	0.00000E+000	-7.22479E-006	-5.39641E-002	8.12050E-002	3.57310E+000	9	...........
	126	1.69333	7.72142E-002	-8.89780E-005	0.00000E+000	-6.87037E-006	-5.39641E-002	7.72113E-002	3.57310E+000	9	...........
	127	1.70667	7.32446E-002	-8.88395E-005	0.00000E+000	-6.50701E-006	-5.39641E-002	7.32442E-002	3.57310E+000	9	...........
	128	1.72	6.92974E-002	-8.87853E-005	0.00000E+000	-6.15259E-006	-5.39641E-002	6.93001E-002	3.57310E+000	9	...........
	129	1.73333	6.53633E-002	-8.88186E-005	0.00000E+000	-5.80548E-006	-5.39641E-002	6.53638E-002	3.57310E+000	9	...........
	130	1.74667	6.14594E-002	-8.87217E-005	0.00000E+000	-5.45278E-006	-5.39641E-002	6.14562E-002	3.57310E+000	9	...........
	131	1.76	5.75679E-002	-8.88739E-005	0.00000E+000	-5.11628E-006	-5.39641E-002	5.75702E-002	3.57310E+000	9	...........
	132	1.77333	5.36924E-002	-8.89385E-005	0.00000E+000	-4.77532E-006	-5.39641E-002	5.36941E-002	3.57310E+000	9	...........
	133	1.78667	4.98280E-002	-8.89228E-005	0.00000E+000	-4.43085E-006	-5.39641E-002	4.98287E-002	3.57310E+000	9	...........
	134	1.8	4.60054E-002	-8.85405E-005	0.00000E+000	-4.07334E-006	-5.39641E-002	4.60187E-002	3.57310E+000	9	...........
	135	1.81333	4.21967E-002	-8.89020E-005	0.00000E+000	-3.75137E-006	-5.39641E-002	4.22060E-002	3.57310E+000	9	...........
	136	1.82667	3.83986E-002	-8.88166E-005	0.00000E+000	-3.41043E-006	-5.39641E-002	3.84017E-002	3.57310E+000	9	...........
	137	1.84	3.46154E-002	-8.88093E-005	0.00000E+000	-3.07417E-006	-5.39641E-002	3.46143E-002	3.57310E+000	9	...........
	138	1.85333	3.08517E-002	-8.89822E-005	0.00000E+000	-2.74526E-006	-5.39641E-002	3.08486E-002	3.57310E+000	9	...........
	139	1.86667	2.70926E-002	-8.85665E-005	0.00000E+000	-2.39949E-006	-5.39641E-002	2.70943E-002	3.57310E+000	9	...........
	140	1.88	2.33782E-002	-8.87676E-005	0.00000E+000	-2.07523E-006	-5.39641E-002	2.33709E-002	3.57310E+000	9	...........
	141	1.89333	1.96745E-002	-8.89822E-005	0.00000E+000	-1.75068E-006	-5.39641E-002	1.96679E-002	3.57310E+000	9	...........
	142	1.90667	1.59885E-002	-8.89218E-005	0.00000E+000	-1.42172E-006	-5.39641E-002	1.59823E-002	3.57310E+000	9	...........
	143	1.92	1.23144E-002	-8.87092E-005	0.00000E+000	-1.09240E-006	-5.39641E-002	1.23086E-002	3.57310E+000	9	...........
	144	1.93333	8.65747E-003	-8.88113E-005	0.00000E+000	-7.68881E-007	-5.39641E-002	8.64576E-003	3.57310E+000	9	...........
	145	1.94667	5.02059E-003	-8.86978E-005	0.00000E+000	-4.45315E-007	-5.39641E-002	5.00816E-003	3.57310E+000	9	...........
	146	1.96	1.40171E-003	-8.88218E-005	0.00000E+000	-1.24502E-007	-5.39641E-002	1.38536E-003	3.57310E+000	9	...........
STARTTIMEOFFSET	QUANT	3494.457	Start Time Offset (s)
