EXPLAIN
TAG	PWR800_DISCHARGE
TITLE	LABEL	PWR Cyclic Charge Discharge (Cell) - Discharge Step	Test &Identifier
DATE	LABEL	10-7-2017	Date
TIME	LABEL	15:48:29	Time
NOTES	NOTES	3	&Notes...
	supercap test cell
	0.9mg
	6M KOH
PSTAT	PSTAT	IFC5000-01520	Potentiostat
CAPACITY	QUANT	1.00000E-003	Capacity (A-hr)
CELLTYPE	SELECTOR	1	&Cell Type
WORKINGCONNECTION	SELECTOR	0	&Working Lead
MAXDISCHARGETIME	VARIABLEANDUNITS	1.00000E+002	s	1.00000E+002	second(s)	Max &Discharge Time
DISCHARGEMODE	MULTIPARAM	0	9.00000E-005	&Discharge Mode	Constant Current	Amp(s)
SAMPLETIME	QUANT	1.00000E-002	Sa&mple Period (s)
DISCHARGESTOPAT1	MULTIPARAM	3	0.00000E+000	Discharge Stop At &1	Voltage < Limit	V
DISCHARGESTOPAT2	MULTIPARAM	0	0.00000E+000	Discharge Stop At &2	None	N/A
AESBHCSELECTOR	TOGGLE	F	Save Both Half Cells
IRCOMP	TOGGLE	F	IR &Measure
EOC	QUANT	0	Open Circuit (V)
SEQUENCER	TOGGLE	TRUE	Run as Sequence
PSTATMODEL	IQUANT	53	Pstat Model
PSTATSECTION	LABEL	IFC5000-01520	Pstat Section
PSTATSERIALNO	LABEL	01520	Pstat Serial Number
CTRLMODE	IQUANT	0	Control Mode
ELECTROMETER	IQUANT	1	RE=0 or CS=1
IESTAB	IQUANT	0	I/E Stability
CASPEED	IQUANT	4	Control Amp Speed
CONVENTION	IQUANT	1	Current Convention
ICHRANGE	IQUANT	2	Ich Range
ICHRANGEMODE	TOGGLE	T	Ich Auto Range
ICHOFFSETENABLE	TOGGLE	F	Ich Offset Enable
ICHOFFSET	QUANT	0	Ich Offset (V)
ICHFILTER	IQUANT	1	Ich Filter
VCHRANGE	IQUANT	2	Vch Range
VCHRANGEMODE	TOGGLE	T	Vch Auto Range
VCHOFFSETENABLE	TOGGLE	F	Vch Offset Enable
VCHOFFSET	QUANT	0	Vch Offset (V)
VCHFILTER	IQUANT	1	Vch Filter
IERANGELOWERLIMIT	IQUANT	9	I/E Range Lower Limit
IERANGEMODE	TOGGLE	F	I/E AutoRange
IERANGE	IQUANT	9	I/E Range
ACHSELECT	IQUANT	1	Ach Select
ACHRANGE	IQUANT	2	Ach Range
ACHOFFSETENABLE	TOGGLE	F	Ach Offset Enable
ACHOFFSET	QUANT	0	Ach Offset (V)
ACHFILTER	IQUANT	1	Ach Filter
CABLEID	IQUANT	14	Cable ID
DCCALDATE	LABEL	5-7-2017	DC Calibration Date
ACCALDATE	LABEL	12/3/2015	AC Calibration Date
FRAMEWORKVERSION	QUANT	7.01	Framework Version
INSTRUMENTVERSION	LABEL	4.00	Instrument Version
CURVE	TABLE	151
	Pt	T	Vf	Im	Vu	Pwr	Sig	Ach	Temp	IERange	Over
	#	s	V	A	V	W	V	V	deg C	#	bits
	0	0.013333	8.09699E-001	-8.89134E-005	0.00000E+000	-7.19932E-005	-5.39641E-002	8.09862E-001	3.57260E+000	9	...........
	1	0.026667	7.96051E-001	-8.88989E-005	0.00000E+000	-7.07680E-005	-5.39641E-002	7.96170E-001	3.57260E+000	9	...........
	2	0.04	7.83257E-001	-8.87728E-005	0.00000E+000	-6.95319E-005	-5.39641E-002	7.83374E-001	3.57260E+000	9	...........
	3	0.053333	7.71161E-001	-8.88686E-005	0.00000E+000	-6.85321E-005	-5.39641E-002	7.71334E-001	3.57260E+000	9	...........
	4	0.066667	7.59698E-001	-8.88509E-005	0.00000E+000	-6.74999E-005	-5.39641E-002	7.59826E-001	3.57260E+000	9	...........
	5	0.08	7.48733E-001	-8.88926E-005	0.00000E+000	-6.65568E-005	-5.39641E-002	7.48855E-001	3.57260E+000	9	...........
	6	0.093333	7.38188E-001	-8.87270E-005	0.00000E+000	-6.54972E-005	-5.39641E-002	7.38319E-001	3.57260E+000	9	...........
	7	0.106667	7.28064E-001	-8.86144E-005	0.00000E+000	-6.45170E-005	-5.39641E-002	7.28180E-001	3.57260E+000	9	...........
	8	0.12	7.18291E-001	-8.87176E-005	0.00000E+000	-6.37250E-005	-5.39641E-002	7.18379E-001	3.57260E+000	9	...........
	9	0.133333	7.08783E-001	-8.87926E-005	0.00000E+000	-6.29347E-005	-5.39641E-002	7.08898E-001	3.57260E+000	9	...........
	10	0.146667	6.99610E-001	-8.87905E-005	0.00000E+000	-6.21187E-005	-5.39641E-002	6.99723E-001	3.57260E+000	9	...........
	11	0.16	6.90704E-001	-8.86571E-005	0.00000E+000	-6.12359E-005	-5.39641E-002	6.90814E-001	3.57260E+000	9	...........
	12	0.173333	6.82007E-001	-8.86957E-005	0.00000E+000	-6.04911E-005	-5.39641E-002	6.82137E-001	3.57260E+000	9	...........
	13	0.186667	6.73567E-001	-8.87624E-005	0.00000E+000	-5.97874E-005	-5.39641E-002	6.73664E-001	3.57260E+000	9	...........
	14	0.2	6.65292E-001	-8.84425E-005	0.00000E+000	-5.88401E-005	-5.39641E-002	6.65437E-001	3.57260E+000	9	...........
	15	0.213333	6.57229E-001	-8.86207E-005	0.00000E+000	-5.82441E-005	-5.39641E-002	6.57341E-001	3.57260E+000	9	...........
	16	0.226667	6.49345E-001	-8.87332E-005	0.00000E+000	-5.76185E-005	-5.39641E-002	6.49491E-001	3.57260E+000	9	...........
	17	0.24	6.41646E-001	-8.88499E-005	0.00000E+000	-5.70102E-005	-5.39641E-002	6.41742E-001	3.57260E+000	9	...........
	18	0.253333	6.34061E-001	-8.87895E-005	0.00000E+000	-5.62979E-005	-5.39641E-002	6.34188E-001	3.57260E+000	9	...........
	19	0.266667	6.26684E-001	-8.88884E-005	0.00000E+000	-5.57050E-005	-5.39641E-002	6.26812E-001	3.57260E+000	9	...........
	20	0.28	6.19460E-001	-8.87072E-005	0.00000E+000	-5.49506E-005	-5.39641E-002	6.19567E-001	3.57260E+000	9	...........
	21	0.293333	6.12280E-001	-8.87144E-005	0.00000E+000	-5.43181E-005	-5.39641E-002	6.12431E-001	3.57260E+000	9	...........
	22	0.306667	6.05270E-001	-8.87728E-005	0.00000E+000	-5.37315E-005	-5.39641E-002	6.05411E-001	3.57260E+000	9	...........
	23	0.32	5.98418E-001	-8.87426E-005	0.00000E+000	-5.31051E-005	-5.39641E-002	5.98548E-001	3.57260E+000	9	...........
	24	0.333333	5.91640E-001	-8.87957E-005	0.00000E+000	-5.25351E-005	-5.39641E-002	5.91778E-001	3.57260E+000	9	...........
	25	0.346667	5.84939E-001	-8.87697E-005	0.00000E+000	-5.19248E-005	-5.39641E-002	5.85066E-001	3.57260E+000	9	...........
	26	0.36	5.78341E-001	-8.85967E-005	0.00000E+000	-5.12392E-005	-5.39641E-002	5.78470E-001	3.57260E+000	9	...........
	27	0.373333	5.71862E-001	-8.87238E-005	0.00000E+000	-5.07377E-005	-5.39641E-002	5.71965E-001	3.57260E+000	9	...........
	28	0.386667	5.65475E-001	-8.87301E-005	0.00000E+000	-5.01747E-005	-5.39641E-002	5.65600E-001	3.57260E+000	9	...........
	29	0.4	5.59112E-001	-8.86634E-005	0.00000E+000	-4.95728E-005	-5.39641E-002	5.59224E-001	3.57260E+000	9	...........
	30	0.413333	5.52890E-001	-8.89187E-005	0.00000E+000	-4.91622E-005	-5.39641E-002	5.53014E-001	3.57260E+000	9	...........
	31	0.426667	5.46739E-001	-8.87426E-005	0.00000E+000	-4.85190E-005	-5.39641E-002	5.46840E-001	3.57260E+000	9	...........
	32	0.44	5.40679E-001	-8.87905E-005	0.00000E+000	-4.80071E-005	-5.39641E-002	5.40770E-001	3.57260E+000	9	...........
	33	0.453333	5.34649E-001	-8.87884E-005	0.00000E+000	-4.74706E-005	-5.39641E-002	5.34744E-001	3.57260E+000	9	...........
	34	0.466667	5.28727E-001	-8.88947E-005	0.00000E+000	-4.70010E-005	-5.39641E-002	5.28826E-001	3.57260E+000	9	...........
	35	0.48	5.22858E-001	-8.86811E-005	0.00000E+000	-4.63677E-005	-5.39641E-002	5.22916E-001	3.57260E+000	9	...........
	36	0.493333	5.17047E-001	-8.84884E-005	0.00000E+000	-4.57527E-005	-5.39641E-002	5.17124E-001	3.57260E+000	9	...........
	37	0.506667	5.11247E-001	-8.86696E-005	0.00000E+000	-4.53321E-005	-5.39641E-002	5.11344E-001	3.57260E+000	9	...........
	38	0.52	5.05472E-001	-8.87155E-005	0.00000E+000	-4.48432E-005	-5.39641E-002	5.05613E-001	3.57260E+000	9	...........
	39	0.533333	4.99812E-001	-8.86915E-005	0.00000E+000	-4.43291E-005	-5.39641E-002	4.99936E-001	3.57260E+000	9	...........
	40	0.546667	4.94198E-001	-8.88311E-005	0.00000E+000	-4.39002E-005	-5.39641E-002	4.94314E-001	3.57260E+000	9	...........
	41	0.56	4.88628E-001	-8.87134E-005	0.00000E+000	-4.33479E-005	-5.39641E-002	4.88731E-001	3.57260E+000	9	...........
	42	0.573333	4.83158E-001	-8.88322E-005	0.00000E+000	-4.29200E-005	-5.39641E-002	4.83224E-001	3.57260E+000	9	...........
	43	0.586667	4.77677E-001	-8.88520E-005	0.00000E+000	-4.24425E-005	-5.39641E-002	4.77746E-001	3.57260E+000	9	...........
	44	0.6	4.72223E-001	-8.87999E-005	0.00000E+000	-4.19334E-005	-5.39641E-002	4.72290E-001	3.57260E+000	9	...........
	45	0.613333	4.66801E-001	-8.91083E-005	0.00000E+000	-4.15958E-005	-5.39641E-002	4.66866E-001	3.57260E+000	9	...........
	46	0.626667	4.61407E-001	-8.87269E-005	0.00000E+000	-4.09393E-005	-5.39641E-002	4.61470E-001	3.57260E+000	9	...........
	47	0.64	4.56035E-001	-8.88926E-005	0.00000E+000	-4.05381E-005	-5.39641E-002	4.56101E-001	3.57260E+000	9	...........
	48	0.653333	4.50705E-001	-8.85571E-005	0.00000E+000	-3.99132E-005	-5.39641E-002	4.50768E-001	3.57260E+000	9	...........
	49	0.666667	4.45412E-001	-8.86467E-005	0.00000E+000	-3.94843E-005	-5.39641E-002	4.45468E-001	3.57260E+000	9	...........
	50	0.68	4.40139E-001	-8.89249E-005	0.00000E+000	-3.91393E-005	-5.39641E-002	4.40198E-001	3.57365E+000	9	...........
	51	0.693333	4.34893E-001	-8.89708E-005	0.00000E+000	-3.86927E-005	-5.39641E-002	4.34951E-001	3.57400E+000	9	...........
	52	0.706667	4.29672E-001	-8.89166E-005	0.00000E+000	-3.82049E-005	-5.39641E-002	4.29727E-001	3.57400E+000	9	...........
	53	0.72	4.24470E-001	-8.89416E-005	0.00000E+000	-3.77530E-005	-5.39641E-002	4.24524E-001	3.57400E+000	9	...........
	54	0.733333	4.19295E-001	-8.88291E-005	0.00000E+000	-3.72456E-005	-5.39641E-002	4.19350E-001	3.57400E+000	9	...........
	55	0.746667	4.14142E-001	-8.88311E-005	0.00000E+000	-3.67887E-005	-5.39641E-002	4.14195E-001	3.57400E+000	9	...........
	56	0.76	4.09019E-001	-8.87311E-005	0.00000E+000	-3.62927E-005	-5.39641E-002	4.09069E-001	3.57400E+000	9	...........
	57	0.773333	4.03914E-001	-8.87009E-005	0.00000E+000	-3.58275E-005	-5.39641E-002	4.03965E-001	3.57400E+000	9	...........
	58	0.786667	3.98812E-001	-8.88374E-005	0.00000E+000	-3.54295E-005	-5.39641E-002	3.98867E-001	3.57400E+000	9	...........
	59	0.8	3.93730E-001	-8.87176E-005	0.00000E+000	-3.49308E-005	-5.39641E-002	3.93775E-001	3.57400E+000	9	...........
	60	0.813333	3.88674E-001	-8.88843E-005	0.00000E+000	-3.45470E-005	-5.39641E-002	3.88723E-001	3.57400E+000	9	...........
	61	0.826667	3.83642E-001	-8.90020E-005	0.00000E+000	-3.41449E-005	-5.39641E-002	3.83690E-001	3.57400E+000	9	...........
	62	0.84	3.78632E-001	-8.87572E-005	0.00000E+000	-3.36063E-005	-5.39641E-002	3.78683E-001	3.57400E+000	9	...........
	63	0.853333	3.73611E-001	-8.86478E-005	0.00000E+000	-3.31198E-005	-5.39641E-002	3.73658E-001	3.57400E+000	9	...........
	64	0.866667	3.68619E-001	-8.89260E-005	0.00000E+000	-3.27798E-005	-5.39641E-002	3.68659E-001	3.57400E+000	9	...........
	65	0.88	3.63624E-001	-8.89489E-005	0.00000E+000	-3.23440E-005	-5.39641E-002	3.63671E-001	3.57400E+000	9	...........
	66	0.893333	3.58648E-001	-8.86509E-005	0.00000E+000	-3.17945E-005	-5.39641E-002	3.58696E-001	3.57400E+000	9	...........
	67	0.906667	3.53683E-001	-8.90385E-005	0.00000E+000	-3.14914E-005	-5.39641E-002	3.53724E-001	3.57400E+000	9	...........
	68	0.92	3.48718E-001	-8.89905E-005	0.00000E+000	-3.10326E-005	-5.39641E-002	3.48762E-001	3.57400E+000	9	...........
	69	0.933333	3.43770E-001	-8.87019E-005	0.00000E+000	-3.04930E-005	-5.39641E-002	3.43814E-001	3.57400E+000	9	...........
	70	0.946667	3.38840E-001	-8.87520E-005	0.00000E+000	-3.00727E-005	-5.39641E-002	3.38878E-001	3.57400E+000	9	...........
	71	0.96	3.33910E-001	-8.87259E-005	0.00000E+000	-2.96265E-005	-5.39641E-002	3.33959E-001	3.57400E+000	9	...........
	72	0.97333	3.29022E-001	-8.89833E-005	0.00000E+000	-2.92775E-005	-5.39641E-002	3.29066E-001	3.57400E+000	9	...........
	73	0.98667	3.24155E-001	-8.86655E-005	0.00000E+000	-2.87413E-005	-5.39641E-002	3.24197E-001	3.57400E+000	9	...........
	74	1	3.19282E-001	-8.87603E-005	0.00000E+000	-2.83396E-005	-5.39641E-002	3.19328E-001	3.57400E+000	9	...........
	75	1.01333	3.14420E-001	-8.87290E-005	0.00000E+000	-2.78982E-005	-5.39641E-002	3.14468E-001	3.57400E+000	9	...........
	76	1.02667	3.09585E-001	-8.88916E-005	0.00000E+000	-2.75195E-005	-5.39641E-002	3.09630E-001	3.57400E+000	9	...........
	77	1.04	3.04756E-001	-8.87582E-005	0.00000E+000	-2.70496E-005	-5.39641E-002	3.04796E-001	3.57400E+000	9	...........
	78	1.05333	2.99953E-001	-8.87936E-005	0.00000E+000	-2.66339E-005	-5.39641E-002	2.99996E-001	3.57400E+000	9	...........
	79	1.06667	2.95158E-001	-8.87457E-005	0.00000E+000	-2.61940E-005	-5.39641E-002	2.95198E-001	3.57400E+000	9	...........
	80	1.08	2.90390E-001	-8.87030E-005	0.00000E+000	-2.57585E-005	-5.39641E-002	2.90427E-001	3.57400E+000	9	...........
	81	1.09333	2.85634E-001	-8.86759E-005	0.00000E+000	-2.53289E-005	-5.39641E-002	2.85680E-001	3.57400E+000	9	...........
	82	1.10667	2.80911E-001	-8.88957E-005	0.00000E+000	-2.49718E-005	-5.39641E-002	2.80952E-001	3.57400E+000	9	...........
	83	1.12	2.76177E-001	-8.86790E-005	0.00000E+000	-2.44911E-005	-5.39641E-002	2.76218E-001	3.57400E+000	9	...........
	84	1.13333	2.71461E-001	-8.85154E-005	0.00000E+000	-2.40285E-005	-5.39641E-002	2.71498E-001	3.57400E+000	9	...........
	85	1.14667	2.66765E-001	-8.87113E-005	0.00000E+000	-2.36651E-005	-5.39641E-002	2.66804E-001	3.57400E+000	9	...........
	86	1.16	2.62089E-001	-8.88728E-005	0.00000E+000	-2.32926E-005	-5.39641E-002	2.62129E-001	3.57400E+000	9	...........
	87	1.17333	2.57432E-001	-8.88166E-005	0.00000E+000	-2.28643E-005	-5.39641E-002	2.57466E-001	3.57400E+000	9	...........
	88	1.18667	2.52774E-001	-8.87738E-005	0.00000E+000	-2.24397E-005	-5.39641E-002	2.52812E-001	3.57400E+000	9	...........
	89	1.2	2.48149E-001	-8.86790E-005	0.00000E+000	-2.20056E-005	-5.39641E-002	2.48184E-001	3.57400E+000	9	...........
	90	1.21333	2.43544E-001	-8.90781E-005	0.00000E+000	-2.16945E-005	-5.39641E-002	2.43578E-001	3.57400E+000	9	...........
	91	1.22667	2.38961E-001	-8.88582E-005	0.00000E+000	-2.12336E-005	-5.39641E-002	2.38991E-001	3.57400E+000	9	...........
	92	1.24	2.34400E-001	-8.90312E-005	0.00000E+000	-2.08689E-005	-5.39641E-002	2.34430E-001	3.57400E+000	9	...........
	93	1.25333	2.29857E-001	-8.85717E-005	0.00000E+000	-2.03588E-005	-5.39641E-002	2.29882E-001	3.57400E+000	9	...........
	94	1.26667	2.25317E-001	-8.88384E-005	0.00000E+000	-2.00168E-005	-5.39641E-002	2.25344E-001	3.57400E+000	9	...........
	95	1.28	2.20812E-001	-8.89614E-005	0.00000E+000	-1.96438E-005	-5.39641E-002	2.20838E-001	3.57400E+000	9	...........
	96	1.29333	2.16320E-001	-8.86947E-005	0.00000E+000	-1.91865E-005	-5.39641E-002	2.16350E-001	3.57400E+000	9	...........
	97	1.30667	2.11844E-001	-8.88749E-005	0.00000E+000	-1.88276E-005	-5.39641E-002	2.11864E-001	3.57400E+000	9	...........
	98	1.32	2.07394E-001	-8.89697E-005	0.00000E+000	-1.84518E-005	-5.39641E-002	2.07415E-001	3.57400E+000	9	...........
	99	1.33333	2.02963E-001	-8.84008E-005	0.00000E+000	-1.79421E-005	-5.39641E-002	2.02989E-001	3.57400E+000	9	...........
	100	1.34667	1.98546E-001	-8.89583E-005	0.00000E+000	-1.76623E-005	-5.39641E-002	1.98573E-001	3.57400E+000	9	...........
	101	1.36	1.94138E-001	-8.86269E-005	0.00000E+000	-1.72059E-005	-5.39641E-002	1.94163E-001	3.57400E+000	9	...........
	102	1.37333	1.89757E-001	-8.88082E-005	0.00000E+000	-1.68520E-005	-5.39641E-002	1.89778E-001	3.57400E+000	9	...........
	103	1.38667	1.85397E-001	-8.87624E-005	0.00000E+000	-1.64563E-005	-5.39641E-002	1.85422E-001	3.57400E+000	9	...........
	104	1.4	1.81054E-001	-8.86134E-005	0.00000E+000	-1.60438E-005	-5.39641E-002	1.81079E-001	3.57400E+000	9	...........
	105	1.41333	1.76739E-001	-8.88645E-005	0.00000E+000	-1.57059E-005	-5.39641E-002	1.76758E-001	3.57400E+000	9	...........
	106	1.42667	1.72433E-001	-8.89020E-005	0.00000E+000	-1.53296E-005	-5.39641E-002	1.72454E-001	3.57400E+000	9	...........
	107	1.44	1.68152E-001	-8.88822E-005	0.00000E+000	-1.49457E-005	-5.39641E-002	1.68174E-001	3.57400E+000	9	...........
	108	1.45333	1.63892E-001	-8.89489E-005	0.00000E+000	-1.45780E-005	-5.39641E-002	1.63907E-001	3.57400E+000	9	...........
	109	1.46667	1.59650E-001	-8.85790E-005	0.00000E+000	-1.41416E-005	-5.39641E-002	1.59668E-001	3.57400E+000	9	...........
	110	1.48	1.55436E-001	-8.84508E-005	0.00000E+000	-1.37485E-005	-5.39641E-002	1.55453E-001	3.57400E+000	9	...........
	111	1.49333	1.51234E-001	-8.88030E-005	0.00000E+000	-1.34300E-005	-5.39641E-002	1.51245E-001	3.57400E+000	9	...........
	112	1.50667	1.47049E-001	-8.87124E-005	0.00000E+000	-1.30451E-005	-5.39641E-002	1.47069E-001	3.57400E+000	9	...........
	113	1.52	1.42893E-001	-8.88395E-005	0.00000E+000	-1.26946E-005	-5.39641E-002	1.42908E-001	3.57400E+000	9	...........
	114	1.53333	1.38741E-001	-8.86050E-005	0.00000E+000	-1.22931E-005	-5.39641E-002	1.38752E-001	3.57400E+000	9	...........
	115	1.54667	1.34590E-001	-8.87072E-005	0.00000E+000	-1.19391E-005	-5.39641E-002	1.34603E-001	3.57400E+000	9	...........
	116	1.56	1.30458E-001	-8.87092E-005	0.00000E+000	-1.15728E-005	-5.39641E-002	1.30469E-001	3.57400E+000	9	...........
	117	1.57333	1.26366E-001	-8.88291E-005	0.00000E+000	-1.12250E-005	-5.39641E-002	1.26374E-001	3.57400E+000	9	...........
	118	1.58667	1.22282E-001	-8.87843E-005	0.00000E+000	-1.08567E-005	-5.39641E-002	1.22297E-001	3.57400E+000	9	...........
	119	1.6	1.18225E-001	-8.88822E-005	0.00000E+000	-1.05081E-005	-5.39641E-002	1.18235E-001	3.57400E+000	9	...........
	120	1.61333	1.14195E-001	-8.91416E-005	0.00000E+000	-1.01795E-005	-5.39641E-002	1.14207E-001	3.57400E+000	9	...........
	121	1.62667	1.10183E-001	-8.90781E-005	0.00000E+000	-9.81486E-006	-5.39641E-002	1.10188E-001	3.57400E+000	9	...........
	122	1.64	1.06172E-001	-8.87738E-005	0.00000E+000	-9.42530E-006	-5.39641E-002	1.06179E-001	3.57400E+000	9	...........
	123	1.65333	1.02185E-001	-8.88468E-005	0.00000E+000	-9.07881E-006	-5.39641E-002	1.02196E-001	3.57400E+000	9	...........
	124	1.66667	9.82271E-002	-8.88207E-005	0.00000E+000	-8.72461E-006	-5.39641E-002	9.82360E-002	3.57400E+000	9	...........
	125	1.68	9.42875E-002	-8.88124E-005	0.00000E+000	-8.37390E-006	-5.39641E-002	9.42911E-002	3.57325E+000	9	...........
	126	1.69333	9.03382E-002	-8.88343E-005	0.00000E+000	-8.02513E-006	-5.39641E-002	9.03465E-002	3.57300E+000	9	...........
	127	1.70667	8.64158E-002	-8.85394E-005	0.00000E+000	-7.65121E-006	-5.39641E-002	8.64233E-002	3.57300E+000	9	...........
	128	1.72	8.25109E-002	-8.88697E-005	0.00000E+000	-7.33272E-006	-5.39641E-002	8.25118E-002	3.57300E+000	9	...........
	129	1.73333	7.86123E-002	-8.88416E-005	0.00000E+000	-6.98404E-006	-5.39641E-002	7.86132E-002	3.57300E+000	9	...........
	130	1.74667	7.47368E-002	-8.88145E-005	0.00000E+000	-6.63771E-006	-5.39641E-002	7.47352E-002	3.57300E+000	9	...........
	131	1.76	7.08925E-002	-8.87228E-005	0.00000E+000	-6.28978E-006	-5.39641E-002	7.08861E-002	3.57300E+000	9	...........
	132	1.77333	6.70668E-002	-8.89062E-005	0.00000E+000	-5.96265E-006	-5.39641E-002	6.70647E-002	3.57300E+000	9	...........
	133	1.78667	6.32556E-002	-8.87134E-005	0.00000E+000	-5.61162E-006	-5.39641E-002	6.32486E-002	3.57300E+000	9	...........
	134	1.8	5.94508E-002	-8.85905E-005	0.00000E+000	-5.26677E-006	-5.39641E-002	5.94516E-002	3.57300E+000	9	...........
	135	1.81333	5.56681E-002	-8.88978E-005	0.00000E+000	-4.94877E-006	-5.39641E-002	5.56676E-002	3.57300E+000	9	...........
	136	1.82667	5.19081E-002	-8.86676E-005	0.00000E+000	-4.60256E-006	-5.39641E-002	5.19083E-002	3.57300E+000	9	...........
	137	1.84	4.81693E-002	-8.86884E-005	0.00000E+000	-4.27206E-006	-5.39641E-002	4.81705E-002	3.57300E+000	9	...........
	138	1.85333	4.44392E-002	-8.89009E-005	0.00000E+000	-3.95068E-006	-5.39641E-002	4.44465E-002	3.57300E+000	9	...........
	139	1.86667	4.07220E-002	-8.88582E-005	0.00000E+000	-3.61849E-006	-5.39641E-002	4.07283E-002	3.57300E+000	9	...........
	140	1.88	3.70293E-002	-8.89572E-005	0.00000E+000	-3.29402E-006	-5.39641E-002	3.70286E-002	3.57300E+000	9	...........
	141	1.89333	3.33484E-002	-8.85769E-005	0.00000E+000	-2.95390E-006	-5.39641E-002	3.33520E-002	3.57300E+000	9	...........
	142	1.90667	2.96862E-002	-8.89416E-005	0.00000E+000	-2.64034E-006	-5.39641E-002	2.96849E-002	3.57300E+000	9	...........
	143	1.92	2.60397E-002	-8.87113E-005	0.00000E+000	-2.31002E-006	-5.39641E-002	2.60373E-002	3.57300E+000	9	...........
	144	1.93333	2.24102E-002	-8.88145E-005	0.00000E+000	-1.99035E-006	-5.39641E-002	2.24063E-002	3.57300E+000	9	...........
	145	1.94667	1.87970E-002	-8.84988E-005	0.00000E+000	-1.66351E-006	-5.39641E-002	1.87900E-002	3.57300E+000	9	...........
	146	1.96	1.52055E-002	-8.89905E-005	0.00000E+000	-1.35314E-006	-5.39641E-002	1.51966E-002	3.57300E+000	9	...........
	147	1.97333	1.16268E-002	-8.87540E-005	0.00000E+000	-1.03193E-006	-5.39641E-002	1.16193E-002	3.57300E+000	9	...........
	148	1.98667	8.06762E-003	-8.88218E-005	0.00000E+000	-7.16580E-007	-5.39641E-002	8.05426E-003	3.57300E+000	9	...........
	149	2	4.52443E-003	-8.88853E-005	0.00000E+000	-4.02155E-007	-5.39641E-002	4.51259E-003	3.57300E+000	9	...........
	150	2.01167	1.22011E-003	-8.89142E-005	0.00000E+000	-1.08485E-007	-5.39641E-002	1.20759E-003	3.57300E+000	9	...........
STARTTIMEOFFSET	QUANT	2487.976	Start Time Offset (s)
