EXPLAIN
TAG	PWR800_DISCHARGE
TITLE	LABEL	PWR Cyclic Charge Discharge (Cell) - Discharge Step	Test &Identifier
DATE	LABEL	10-7-2017	Date
TIME	LABEL	15:50:40	Time
NOTES	NOTES	3	&Notes...
	supercap test cell
	0.9mg
	6M KOH
PSTAT	PSTAT	IFC5000-01520	Potentiostat
CAPACITY	QUANT	1.00000E-003	Capacity (A-hr)
CELLTYPE	SELECTOR	1	&Cell Type
WORKINGCONNECTION	SELECTOR	0	&Working Lead
MAXDISCHARGETIME	VARIABLEANDUNITS	1.00000E+002	s	1.00000E+002	second(s)	Max &Discharge Time
DISCHARGEMODE	MULTIPARAM	0	9.00000E-005	&Discharge Mode	Constant Current	Amp(s)
SAMPLETIME	QUANT	1.00000E-002	Sa&mple Period (s)
DISCHARGESTOPAT1	MULTIPARAM	3	0.00000E+000	Discharge Stop At &1	Voltage < Limit	V
DISCHARGESTOPAT2	MULTIPARAM	0	0.00000E+000	Discharge Stop At &2	None	N/A
AESBHCSELECTOR	TOGGLE	F	Save Both Half Cells
IRCOMP	TOGGLE	F	IR &Measure
EOC	QUANT	0	Open Circuit (V)
SEQUENCER	TOGGLE	TRUE	Run as Sequence
PSTATMODEL	IQUANT	53	Pstat Model
PSTATSECTION	LABEL	IFC5000-01520	Pstat Section
PSTATSERIALNO	LABEL	01520	Pstat Serial Number
CTRLMODE	IQUANT	0	Control Mode
ELECTROMETER	IQUANT	1	RE=0 or CS=1
IESTAB	IQUANT	0	I/E Stability
CASPEED	IQUANT	4	Control Amp Speed
CONVENTION	IQUANT	1	Current Convention
ICHRANGE	IQUANT	2	Ich Range
ICHRANGEMODE	TOGGLE	T	Ich Auto Range
ICHOFFSETENABLE	TOGGLE	F	Ich Offset Enable
ICHOFFSET	QUANT	0	Ich Offset (V)
ICHFILTER	IQUANT	1	Ich Filter
VCHRANGE	IQUANT	2	Vch Range
VCHRANGEMODE	TOGGLE	T	Vch Auto Range
VCHOFFSETENABLE	TOGGLE	F	Vch Offset Enable
VCHOFFSET	QUANT	0	Vch Offset (V)
VCHFILTER	IQUANT	1	Vch Filter
IERANGELOWERLIMIT	IQUANT	9	I/E Range Lower Limit
IERANGEMODE	TOGGLE	F	I/E AutoRange
IERANGE	IQUANT	9	I/E Range
ACHSELECT	IQUANT	1	Ach Select
ACHRANGE	IQUANT	2	Ach Range
ACHOFFSETENABLE	TOGGLE	F	Ach Offset Enable
ACHOFFSET	QUANT	0	Ach Offset (V)
ACHFILTER	IQUANT	1	Ach Filter
CABLEID	IQUANT	14	Cable ID
DCCALDATE	LABEL	5-7-2017	DC Calibration Date
ACCALDATE	LABEL	12/3/2015	AC Calibration Date
FRAMEWORKVERSION	QUANT	7.01	Framework Version
INSTRUMENTVERSION	LABEL	4.00	Instrument Version
CURVE	TABLE	151
	Pt	T	Vf	Im	Vu	Pwr	Sig	Ach	Temp	IERange	Over
	#	s	V	A	V	W	V	V	deg C	#	bits
	0	0.013333	8.09476E-001	-8.89020E-005	0.00000E+000	-7.19640E-005	-5.39641E-002	8.09613E-001	3.57260E+000	9	...........
	1	0.026667	7.95689E-001	-8.87165E-005	0.00000E+000	-7.05908E-005	-5.39641E-002	7.95821E-001	3.57260E+000	9	...........
	2	0.04	7.82831E-001	-8.89437E-005	0.00000E+000	-6.96278E-005	-5.39641E-002	7.82962E-001	3.57260E+000	9	...........
	3	0.053333	7.70691E-001	-8.87405E-005	0.00000E+000	-6.83915E-005	-5.39641E-002	7.70826E-001	3.57260E+000	9	...........
	4	0.066667	7.59171E-001	-8.89009E-005	0.00000E+000	-6.74910E-005	-5.39641E-002	7.59294E-001	3.57260E+000	9	...........
	5	0.08	7.48127E-001	-8.87676E-005	0.00000E+000	-6.64094E-005	-5.39641E-002	7.48287E-001	3.57260E+000	9	...........
	6	0.093333	7.37535E-001	-8.86978E-005	0.00000E+000	-6.54177E-005	-5.39641E-002	7.37676E-001	3.57260E+000	9	...........
	7	0.106667	7.27359E-001	-8.88239E-005	0.00000E+000	-6.46068E-005	-5.39641E-002	7.27485E-001	3.57260E+000	9	...........
	8	0.12	7.17504E-001	-8.83873E-005	0.00000E+000	-6.34183E-005	-5.39641E-002	7.17649E-001	3.57260E+000	9	...........
	9	0.133333	7.07978E-001	-8.87624E-005	0.00000E+000	-6.28418E-005	-5.39641E-002	7.08130E-001	3.57260E+000	9	...........
	10	0.146667	6.98745E-001	-8.86947E-005	0.00000E+000	-6.19749E-005	-5.39641E-002	6.98883E-001	3.57260E+000	9	...........
	11	0.16	6.89790E-001	-8.86738E-005	0.00000E+000	-6.11663E-005	-5.39641E-002	6.89932E-001	3.57260E+000	9	...........
	12	0.173333	6.81093E-001	-8.88405E-005	0.00000E+000	-6.05087E-005	-5.39641E-002	6.81223E-001	3.57260E+000	9	...........
	13	0.186667	6.72614E-001	-8.86269E-005	0.00000E+000	-5.96117E-005	-5.39641E-002	6.72734E-001	3.57260E+000	9	...........
	14	0.2	6.64288E-001	-8.88364E-005	0.00000E+000	-5.90129E-005	-5.39641E-002	6.64439E-001	3.57260E+000	9	...........
	15	0.213333	6.56209E-001	-8.86905E-005	0.00000E+000	-5.81995E-005	-5.39641E-002	6.56345E-001	3.57260E+000	9	...........
	16	0.226667	6.48326E-001	-8.85425E-005	0.00000E+000	-5.74044E-005	-5.39641E-002	6.48442E-001	3.57260E+000	9	...........
	17	0.24	6.40608E-001	-8.87613E-005	0.00000E+000	-5.68612E-005	-5.39641E-002	6.40724E-001	3.57260E+000	9	...........
	18	0.253333	6.33035E-001	-8.90083E-005	0.00000E+000	-5.63454E-005	-5.39641E-002	6.33146E-001	3.57260E+000	9	...........
	19	0.266667	6.25603E-001	-8.88207E-005	0.00000E+000	-5.55665E-005	-5.39641E-002	6.25699E-001	3.57260E+000	9	...........
	20	0.28	6.18339E-001	-8.89322E-005	0.00000E+000	-5.49902E-005	-5.39641E-002	6.18411E-001	3.57260E+000	9	...........
	21	0.293333	6.11120E-001	-8.89135E-005	0.00000E+000	-5.43368E-005	-5.39641E-002	6.11251E-001	3.57260E+000	9	...........
	22	0.306667	6.04091E-001	-8.90270E-005	0.00000E+000	-5.37804E-005	-5.39641E-002	6.04215E-001	3.57260E+000	9	...........
	23	0.32	5.97188E-001	-8.85602E-005	0.00000E+000	-5.28872E-005	-5.39641E-002	5.97293E-001	3.57260E+000	9	...........
	24	0.333333	5.90388E-001	-8.87165E-005	0.00000E+000	-5.23772E-005	-5.39641E-002	5.90510E-001	3.57260E+000	9	...........
	25	0.346667	5.83682E-001	-8.89780E-005	0.00000E+000	-5.19349E-005	-5.39641E-002	5.83800E-001	3.57260E+000	9	...........
	26	0.36	5.77095E-001	-8.87197E-005	0.00000E+000	-5.11996E-005	-5.39641E-002	5.77220E-001	3.57260E+000	9	...........
	27	0.373333	5.70601E-001	-8.89530E-005	0.00000E+000	-5.07567E-005	-5.39641E-002	5.70702E-001	3.57260E+000	9	...........
	28	0.386667	5.64190E-001	-8.88884E-005	0.00000E+000	-5.01500E-005	-5.39641E-002	5.64287E-001	3.57260E+000	9	...........
	29	0.4	5.57828E-001	-8.88134E-005	0.00000E+000	-4.95426E-005	-5.39641E-002	5.57962E-001	3.57260E+000	9	...........
	30	0.413333	5.51600E-001	-8.87780E-005	0.00000E+000	-4.89700E-005	-5.39641E-002	5.51717E-001	3.57260E+000	9	...........
	31	0.426667	5.45426E-001	-8.87634E-005	0.00000E+000	-4.84138E-005	-5.39641E-002	5.45540E-001	3.57260E+000	9	...........
	32	0.44	5.39349E-001	-8.86446E-005	0.00000E+000	-4.78104E-005	-5.39641E-002	5.39461E-001	3.57260E+000	9	...........
	33	0.453333	5.33297E-001	-8.90291E-005	0.00000E+000	-4.74790E-005	-5.39641E-002	5.33414E-001	3.57260E+000	9	...........
	34	0.466667	5.27340E-001	-8.87822E-005	0.00000E+000	-4.68184E-005	-5.39641E-002	5.27450E-001	3.57260E+000	9	...........
	35	0.48	5.21448E-001	-8.86717E-005	0.00000E+000	-4.62377E-005	-5.39641E-002	5.21539E-001	3.57260E+000	9	...........
	36	0.493333	5.15629E-001	-8.87520E-005	0.00000E+000	-4.57631E-005	-5.39641E-002	5.15723E-001	3.57260E+000	9	...........
	37	0.506667	5.09786E-001	-8.89134E-005	0.00000E+000	-4.53268E-005	-5.39641E-002	5.09934E-001	3.57260E+000	9	...........
	38	0.52	5.04054E-001	-8.88561E-005	0.00000E+000	-4.47883E-005	-5.39641E-002	5.04190E-001	3.57260E+000	9	...........
	39	0.533333	4.98381E-001	-8.90426E-005	0.00000E+000	-4.43771E-005	-5.39641E-002	4.98484E-001	3.57260E+000	9	...........
	40	0.546667	4.92756E-001	-8.88322E-005	0.00000E+000	-4.37726E-005	-5.39641E-002	4.92866E-001	3.57260E+000	9	...........
	41	0.56	4.87174E-001	-8.85050E-005	0.00000E+000	-4.31173E-005	-5.39641E-002	4.87261E-001	3.57260E+000	9	...........
	42	0.573333	4.81716E-001	-8.87884E-005	0.00000E+000	-4.27708E-005	-5.39641E-002	4.81784E-001	3.57260E+000	9	...........
	43	0.586667	4.76214E-001	-8.88655E-005	0.00000E+000	-4.23190E-005	-5.39641E-002	4.76283E-001	3.57260E+000	9	...........
	44	0.6	4.70737E-001	-8.88384E-005	0.00000E+000	-4.18195E-005	-5.39641E-002	4.70803E-001	3.57260E+000	9	...........
	45	0.613333	4.65283E-001	-8.89697E-005	0.00000E+000	-4.13961E-005	-5.39641E-002	4.65345E-001	3.57260E+000	9	...........
	46	0.626667	4.59881E-001	-8.88780E-005	0.00000E+000	-4.08733E-005	-5.39641E-002	4.59942E-001	3.57260E+000	9	...........
	47	0.64	4.54517E-001	-8.90322E-005	0.00000E+000	-4.04667E-005	-5.39641E-002	4.54578E-001	3.57260E+000	9	...........
	48	0.653333	4.49188E-001	-8.89645E-005	0.00000E+000	-3.99618E-005	-5.39641E-002	4.49247E-001	3.57260E+000	9	...........
	49	0.666667	4.43883E-001	-8.89937E-005	0.00000E+000	-3.95028E-005	-5.39641E-002	4.43939E-001	3.57260E+000	9	...........
	50	0.68	4.38605E-001	-8.89041E-005	0.00000E+000	-3.89938E-005	-5.39641E-002	4.38666E-001	3.57260E+000	9	...........
	51	0.693333	4.33350E-001	-8.89582E-005	0.00000E+000	-3.85500E-005	-5.39641E-002	4.33398E-001	3.57260E+000	9	...........
	52	0.706667	4.28109E-001	-8.89041E-005	0.00000E+000	-3.80606E-005	-5.39641E-002	4.28169E-001	3.57260E+000	9	...........
	53	0.72	4.22916E-001	-8.88009E-005	0.00000E+000	-3.75553E-005	-5.39641E-002	4.22971E-001	3.57260E+000	9	...........
	54	0.733333	4.17731E-001	-8.86394E-005	0.00000E+000	-3.70274E-005	-5.39641E-002	4.17787E-001	3.57260E+000	9	...........
	55	0.746667	4.12575E-001	-8.87988E-005	0.00000E+000	-3.66362E-005	-5.39641E-002	4.12626E-001	3.57260E+000	9	...........
	56	0.76	4.07428E-001	-8.89103E-005	0.00000E+000	-3.62246E-005	-5.39641E-002	4.07481E-001	3.57260E+000	9	...........
	57	0.773333	4.02298E-001	-8.86717E-005	0.00000E+000	-3.56724E-005	-5.39641E-002	4.02350E-001	3.57260E+000	9	...........
	58	0.786667	3.97175E-001	-8.87280E-005	0.00000E+000	-3.52405E-005	-5.39641E-002	3.97231E-001	3.57260E+000	9	...........
	59	0.8	3.92098E-001	-8.86874E-005	0.00000E+000	-3.47741E-005	-5.39641E-002	3.92150E-001	3.57260E+000	9	...........
	60	0.813333	3.87044E-001	-8.87426E-005	0.00000E+000	-3.43472E-005	-5.39641E-002	3.87094E-001	3.57260E+000	9	...........
	61	0.826667	3.81997E-001	-8.86811E-005	0.00000E+000	-3.38759E-005	-5.39641E-002	3.82045E-001	3.57260E+000	9	...........
	62	0.84	3.76963E-001	-8.90301E-005	0.00000E+000	-3.35611E-005	-5.39641E-002	3.77016E-001	3.57260E+000	9	...........
	63	0.853333	3.71949E-001	-8.87801E-005	0.00000E+000	-3.30217E-005	-5.39641E-002	3.72002E-001	3.57260E+000	9	...........
	64	0.866667	3.66940E-001	-8.87780E-005	0.00000E+000	-3.25762E-005	-5.39641E-002	3.66991E-001	3.57260E+000	9	...........
	65	0.88	3.61933E-001	-8.86394E-005	0.00000E+000	-3.20815E-005	-5.39641E-002	3.61984E-001	3.57260E+000	9	...........
	66	0.893333	3.56930E-001	-8.88197E-005	0.00000E+000	-3.17024E-005	-5.39641E-002	3.56977E-001	3.57260E+000	9	...........
	67	0.906667	3.51955E-001	-8.85352E-005	0.00000E+000	-3.11604E-005	-5.39641E-002	3.51994E-001	3.57260E+000	9	...........
	68	0.92	3.46991E-001	-8.89603E-005	0.00000E+000	-3.08684E-005	-5.39641E-002	3.47036E-001	3.57260E+000	9	...........
	69	0.933333	3.42041E-001	-8.86915E-005	0.00000E+000	-3.03361E-005	-5.39641E-002	3.42082E-001	3.57260E+000	9	...........
	70	0.946667	3.37092E-001	-8.90541E-005	0.00000E+000	-3.00194E-005	-5.39641E-002	3.37136E-001	3.57260E+000	9	...........
	71	0.96	3.32154E-001	-8.86165E-005	0.00000E+000	-2.94343E-005	-5.39641E-002	3.32195E-001	3.57260E+000	9	...........
	72	0.97333	3.27230E-001	-8.88603E-005	0.00000E+000	-2.90777E-005	-5.39641E-002	3.27275E-001	3.57260E+000	9	...........
	73	0.98667	3.22339E-001	-8.87040E-005	0.00000E+000	-2.85928E-005	-5.39641E-002	3.22377E-001	3.57260E+000	9	...........
	74	1	3.17441E-001	-8.87530E-005	0.00000E+000	-2.81739E-005	-5.39641E-002	3.17484E-001	3.57260E+000	9	...........
	75	1.01333	3.12585E-001	-8.86926E-005	0.00000E+000	-2.77239E-005	-5.39641E-002	3.12626E-001	3.57260E+000	9	...........
	76	1.02667	3.07749E-001	-8.86915E-005	0.00000E+000	-2.72948E-005	-5.39641E-002	3.07791E-001	3.57260E+000	9	...........
	77	1.04	3.02917E-001	-8.87290E-005	0.00000E+000	-2.68776E-005	-5.39641E-002	3.02957E-001	3.57260E+000	9	...........
	78	1.05333	2.98104E-001	-8.87832E-005	0.00000E+000	-2.64666E-005	-5.39641E-002	2.98138E-001	3.57260E+000	9	...........
	79	1.06667	2.93306E-001	-8.87634E-005	0.00000E+000	-2.60349E-005	-5.39641E-002	2.93347E-001	3.57260E+000	9	...........
	80	1.08	2.88529E-001	-8.86863E-005	0.00000E+000	-2.55886E-005	-5.39641E-002	2.88567E-001	3.57260E+000	9	...........
	81	1.09333	2.83770E-001	-8.88207E-005	0.00000E+000	-2.52046E-005	-5.39641E-002	2.83802E-001	3.57260E+000	9	...........
	82	1.10667	2.79022E-001	-8.87957E-005	0.00000E+000	-2.47759E-005	-5.39641E-002	2.79055E-001	3.57260E+000	9	...........
	83	1.12	2.74293E-001	-8.86811E-005	0.00000E+000	-2.43246E-005	-5.39641E-002	2.74333E-001	3.57260E+000	9	...........
	84	1.13333	2.69578E-001	-8.89312E-005	0.00000E+000	-2.39739E-005	-5.39641E-002	2.69615E-001	3.57260E+000	9	...........
	85	1.14667	2.64858E-001	-8.88124E-005	0.00000E+000	-2.35226E-005	-5.39641E-002	2.64895E-001	3.57260E+000	9	...........
	86	1.16	2.60170E-001	-8.88134E-005	0.00000E+000	-2.31066E-005	-5.39641E-002	2.60205E-001	3.57260E+000	9	...........
	87	1.17333	2.55480E-001	-8.87488E-005	0.00000E+000	-2.26736E-005	-5.39641E-002	2.55511E-001	3.57260E+000	9	...........
	88	1.18667	2.50805E-001	-8.89009E-005	0.00000E+000	-2.22968E-005	-5.39641E-002	2.50836E-001	3.57260E+000	9	...........
	89	1.2	2.46165E-001	-8.85352E-005	0.00000E+000	-2.17942E-005	-5.39641E-002	2.46199E-001	3.57260E+000	9	...........
	90	1.21333	2.41545E-001	-8.89728E-005	0.00000E+000	-2.14909E-005	-5.39641E-002	2.41575E-001	3.57260E+000	9	...........
	91	1.22667	2.36943E-001	-8.86238E-005	0.00000E+000	-2.09988E-005	-5.39641E-002	2.36971E-001	3.57260E+000	9	...........
	92	1.24	2.32371E-001	-8.88551E-005	0.00000E+000	-2.06473E-005	-5.39641E-002	2.32400E-001	3.57260E+000	9	...........
	93	1.25333	2.27818E-001	-8.87770E-005	0.00000E+000	-2.02250E-005	-5.39641E-002	2.27843E-001	3.57260E+000	9	...........
	94	1.26667	2.23268E-001	-8.88489E-005	0.00000E+000	-1.98371E-005	-5.39641E-002	2.23298E-001	3.57260E+000	9	...........
	95	1.28	2.18746E-001	-8.87624E-005	0.00000E+000	-1.94164E-005	-5.39641E-002	2.18772E-001	3.57260E+000	9	...........
	96	1.29333	2.14255E-001	-8.86853E-005	0.00000E+000	-1.90013E-005	-5.39641E-002	2.14281E-001	3.57260E+000	9	...........
	97	1.30667	2.09790E-001	-8.89280E-005	0.00000E+000	-1.86562E-005	-5.39641E-002	2.09816E-001	3.57260E+000	9	...........
	98	1.32	2.05319E-001	-8.87030E-005	0.00000E+000	-1.82124E-005	-5.39641E-002	2.05343E-001	3.57260E+000	9	...........
	99	1.33333	2.00873E-001	-8.89322E-005	0.00000E+000	-1.78641E-005	-5.39641E-002	2.00896E-001	3.57260E+000	9	...........
	100	1.34667	1.96443E-001	-8.90291E-005	0.00000E+000	-1.74892E-005	-5.39641E-002	1.96464E-001	3.57260E+000	9	...........
	101	1.36	1.92043E-001	-8.89176E-005	0.00000E+000	-1.70760E-005	-5.39641E-002	1.92066E-001	3.57260E+000	9	...........
	102	1.37333	1.87658E-001	-8.88113E-005	0.00000E+000	-1.66661E-005	-5.39641E-002	1.87672E-001	3.57260E+000	9	...........
	103	1.38667	1.83279E-001	-8.86665E-005	0.00000E+000	-1.62507E-005	-5.39641E-002	1.83305E-001	3.57260E+000	9	...........
	104	1.4	1.78936E-001	-8.86832E-005	0.00000E+000	-1.58686E-005	-5.39641E-002	1.78956E-001	3.57260E+000	9	...........
	105	1.41333	1.74618E-001	-8.87061E-005	0.00000E+000	-1.54897E-005	-5.39641E-002	1.74637E-001	3.57260E+000	9	...........
	106	1.42667	1.70323E-001	-8.90385E-005	0.00000E+000	-1.51653E-005	-5.39641E-002	1.70339E-001	3.57260E+000	9	...........
	107	1.44	1.66037E-001	-8.88749E-005	0.00000E+000	-1.47565E-005	-5.39641E-002	1.66058E-001	3.57260E+000	9	...........
	108	1.45333	1.61772E-001	-8.87165E-005	0.00000E+000	-1.43519E-005	-5.39641E-002	1.61788E-001	3.57260E+000	9	...........
	109	1.46667	1.57524E-001	-8.86644E-005	0.00000E+000	-1.39668E-005	-5.39641E-002	1.57542E-001	3.57260E+000	9	...........
	110	1.48	1.53294E-001	-8.87697E-005	0.00000E+000	-1.36078E-005	-5.39641E-002	1.53309E-001	3.57260E+000	9	...........
	111	1.49333	1.49082E-001	-8.88280E-005	0.00000E+000	-1.32427E-005	-5.39641E-002	1.49091E-001	3.57260E+000	9	...........
	112	1.50667	1.44882E-001	-8.90395E-005	0.00000E+000	-1.29002E-005	-5.39641E-002	1.44896E-001	3.57260E+000	9	...........
	113	1.52	1.40715E-001	-8.90135E-005	0.00000E+000	-1.25255E-005	-5.39641E-002	1.40730E-001	3.57260E+000	9	...........
	114	1.53333	1.36572E-001	-8.87801E-005	0.00000E+000	-1.21249E-005	-5.39641E-002	1.36588E-001	3.57260E+000	9	...........
	115	1.54667	1.32437E-001	-8.88791E-005	0.00000E+000	-1.17709E-005	-5.39641E-002	1.32447E-001	3.57260E+000	9	...........
	116	1.56	1.28319E-001	-8.89020E-005	0.00000E+000	-1.14078E-005	-5.39641E-002	1.28327E-001	3.57260E+000	9	...........
	117	1.57333	1.24218E-001	-8.89905E-005	0.00000E+000	-1.10542E-005	-5.39641E-002	1.24226E-001	3.57260E+000	9	...........
	118	1.58667	1.20139E-001	-8.87676E-005	0.00000E+000	-1.06645E-005	-5.39641E-002	1.20151E-001	3.57260E+000	9	...........
	119	1.6	1.16083E-001	-8.89874E-005	0.00000E+000	-1.03299E-005	-5.39641E-002	1.16093E-001	3.57260E+000	9	...........
	120	1.61333	1.12044E-001	-8.84842E-005	0.00000E+000	-9.91413E-006	-5.39641E-002	1.12054E-001	3.57260E+000	9	...........
	121	1.62667	1.08014E-001	-8.89260E-005	0.00000E+000	-9.60528E-006	-5.39641E-002	1.08027E-001	3.57260E+000	9	...........
	122	1.64	1.03997E-001	-8.87176E-005	0.00000E+000	-9.22632E-006	-5.39641E-002	1.04005E-001	3.57260E+000	9	...........
	123	1.65333	1.00005E-001	-8.89374E-005	0.00000E+000	-8.89421E-006	-5.39641E-002	1.00020E-001	3.57260E+000	9	...........
	124	1.66667	9.60419E-002	-8.89718E-005	0.00000E+000	-8.54502E-006	-5.39641E-002	9.60481E-002	3.57260E+000	9	...........
	125	1.68	9.20788E-002	-8.87645E-005	0.00000E+000	-8.17332E-006	-5.39641E-002	9.20846E-002	3.57260E+000	9	...........
	126	1.69333	8.81303E-002	-8.87228E-005	0.00000E+000	-7.81917E-006	-5.39641E-002	8.81402E-002	3.57260E+000	9	...........
	127	1.70667	8.42019E-002	-8.86738E-005	0.00000E+000	-7.46651E-006	-5.39641E-002	8.42039E-002	3.57260E+000	9	...........
	128	1.72	8.02933E-002	-8.86196E-005	0.00000E+000	-7.11556E-006	-5.39641E-002	8.03000E-002	3.57260E+000	9	...........
	129	1.73333	7.64028E-002	-8.89739E-005	0.00000E+000	-6.79785E-006	-5.39641E-002	7.64082E-002	3.57260E+000	9	...........
	130	1.74667	7.25251E-002	-8.85780E-005	0.00000E+000	-6.42412E-006	-5.39641E-002	7.25277E-002	3.57260E+000	9	...........
	131	1.76	6.86587E-002	-8.87947E-005	0.00000E+000	-6.09653E-006	-5.39641E-002	6.86640E-002	3.57260E+000	9	...........
	132	1.77333	6.48184E-002	-8.88166E-005	0.00000E+000	-5.75695E-006	-5.39641E-002	6.48165E-002	3.57260E+000	9	...........
	133	1.78667	6.09932E-002	-8.86780E-005	0.00000E+000	-5.40875E-006	-5.39641E-002	6.09911E-002	3.57260E+000	9	...........
	134	1.8	5.71937E-002	-8.87926E-005	0.00000E+000	-5.07838E-006	-5.39641E-002	5.71914E-002	3.57260E+000	9	...........
	135	1.81333	5.34133E-002	-8.87322E-005	0.00000E+000	-4.73948E-006	-5.39641E-002	5.34106E-002	3.57260E+000	9	...........
	136	1.82667	4.96494E-002	-8.88489E-005	0.00000E+000	-4.41129E-006	-5.39641E-002	4.96516E-002	3.57260E+000	9	...........
	137	1.84	4.59165E-002	-8.88489E-005	0.00000E+000	-4.07962E-006	-5.39641E-002	4.59225E-002	3.57260E+000	9	...........
	138	1.85333	4.21731E-002	-8.86342E-005	0.00000E+000	-3.73798E-006	-5.39641E-002	4.21838E-002	3.57260E+000	9	...........
	139	1.86667	3.84575E-002	-8.88468E-005	0.00000E+000	-3.41683E-006	-5.39641E-002	3.84666E-002	3.57260E+000	9	...........
	140	1.88	3.47551E-002	-8.87488E-005	0.00000E+000	-3.08448E-006	-5.39641E-002	3.47601E-002	3.57260E+000	9	...........
	141	1.89333	3.10837E-002	-8.86509E-005	0.00000E+000	-2.75560E-006	-5.39641E-002	3.10827E-002	3.57260E+000	9	...........
	142	1.90667	2.74415E-002	-8.86394E-005	0.00000E+000	-2.43240E-006	-5.39641E-002	2.74442E-002	3.57260E+000	9	...........
	143	1.92	2.38146E-002	-8.86426E-005	0.00000E+000	-2.11099E-006	-5.39641E-002	2.38127E-002	3.57260E+000	9	...........
	144	1.93333	2.01897E-002	-8.89874E-005	0.00000E+000	-1.79663E-006	-5.39641E-002	2.01865E-002	3.57260E+000	9	...........
	145	1.94667	1.65933E-002	-8.88384E-005	0.00000E+000	-1.47412E-006	-5.39641E-002	1.65890E-002	3.57260E+000	9	...........
	146	1.96	1.30027E-002	-8.88603E-005	0.00000E+000	-1.15543E-006	-5.39641E-002	1.29992E-002	3.57260E+000	9	...........
	147	1.97333	9.43011E-003	-8.87415E-005	0.00000E+000	-8.36842E-007	-5.39641E-002	9.42240E-003	3.57260E+000	9	...........
	148	1.98667	5.87729E-003	-8.86655E-005	0.00000E+000	-5.21113E-007	-5.39641E-002	5.86291E-003	3.57260E+000	9	...........
	149	2	2.34802E-003	-8.88478E-005	0.00000E+000	-2.08616E-007	-5.39641E-002	2.33859E-003	3.57260E+000	9	...........
	150	2.00333	1.50431E-004	-8.90499E-005	0.00000E+000	-1.33959E-008	-5.39641E-002	1.42212E-004	3.57260E+000	9	...........
STARTTIMEOFFSET	QUANT	2598.017	Start Time Offset (s)
