EXPLAIN
TAG	PWR800_DISCHARGE
TITLE	LABEL	PWR Cyclic Charge Discharge (Cell) - Discharge Step	Test &Identifier
DATE	LABEL	10-7-2017	Date
TIME	LABEL	15:08:07	Time
NOTES	NOTES	3	&Notes...
	supercap test cell
	0.9mg
	6M KOH
PSTAT	PSTAT	IFC5000-01520	Potentiostat
CAPACITY	QUANT	1.00000E-003	Capacity (A-hr)
CELLTYPE	SELECTOR	1	&Cell Type
WORKINGCONNECTION	SELECTOR	0	&Working Lead
MAXDISCHARGETIME	VARIABLEANDUNITS	1.00000E+002	s	1.00000E+002	second(s)	Max &Discharge Time
DISCHARGEMODE	MULTIPARAM	0	9.00000E-005	&Discharge Mode	Constant Current	Amp(s)
SAMPLETIME	QUANT	1.00000E-002	Sa&mple Period (s)
DISCHARGESTOPAT1	MULTIPARAM	3	0.00000E+000	Discharge Stop At &1	Voltage < Limit	V
DISCHARGESTOPAT2	MULTIPARAM	0	0.00000E+000	Discharge Stop At &2	None	N/A
AESBHCSELECTOR	TOGGLE	F	Save Both Half Cells
IRCOMP	TOGGLE	F	IR &Measure
EOC	QUANT	0	Open Circuit (V)
SEQUENCER	TOGGLE	TRUE	Run as Sequence
PSTATMODEL	IQUANT	53	Pstat Model
PSTATSECTION	LABEL	IFC5000-01520	Pstat Section
PSTATSERIALNO	LABEL	01520	Pstat Serial Number
CTRLMODE	IQUANT	0	Control Mode
ELECTROMETER	IQUANT	1	RE=0 or CS=1
IESTAB	IQUANT	0	I/E Stability
CASPEED	IQUANT	4	Control Amp Speed
CONVENTION	IQUANT	1	Current Convention
ICHRANGE	IQUANT	2	Ich Range
ICHRANGEMODE	TOGGLE	T	Ich Auto Range
ICHOFFSETENABLE	TOGGLE	F	Ich Offset Enable
ICHOFFSET	QUANT	0	Ich Offset (V)
ICHFILTER	IQUANT	1	Ich Filter
VCHRANGE	IQUANT	2	Vch Range
VCHRANGEMODE	TOGGLE	T	Vch Auto Range
VCHOFFSETENABLE	TOGGLE	F	Vch Offset Enable
VCHOFFSET	QUANT	0	Vch Offset (V)
VCHFILTER	IQUANT	1	Vch Filter
IERANGELOWERLIMIT	IQUANT	9	I/E Range Lower Limit
IERANGEMODE	TOGGLE	F	I/E AutoRange
IERANGE	IQUANT	9	I/E Range
ACHSELECT	IQUANT	1	Ach Select
ACHRANGE	IQUANT	2	Ach Range
ACHOFFSETENABLE	TOGGLE	F	Ach Offset Enable
ACHOFFSET	QUANT	0	Ach Offset (V)
ACHFILTER	IQUANT	1	Ach Filter
CABLEID	IQUANT	14	Cable ID
DCCALDATE	LABEL	5-7-2017	DC Calibration Date
ACCALDATE	LABEL	12/3/2015	AC Calibration Date
FRAMEWORKVERSION	QUANT	7.01	Framework Version
INSTRUMENTVERSION	LABEL	4.00	Instrument Version
CURVE	TABLE	165
	Pt	T	Vf	Im	Vu	Pwr	Sig	Ach	Temp	IERange	Over
	#	s	V	A	V	W	V	V	deg C	#	bits
	0	0.013333	8.38997E-001	-8.86738E-005	0.00000E+000	-7.43970E-005	-5.39641E-002	8.39147E-001	3.57140E+000	9	...........
	1	0.026667	8.27352E-001	-8.86467E-005	0.00000E+000	-7.33421E-005	-5.39641E-002	8.27461E-001	3.57140E+000	9	...........
	2	0.04	8.16328E-001	-8.86603E-005	0.00000E+000	-7.23759E-005	-5.39641E-002	8.16445E-001	3.57140E+000	9	...........
	3	0.053333	8.05822E-001	-8.86030E-005	0.00000E+000	-7.13982E-005	-5.39641E-002	8.05950E-001	3.57140E+000	9	...........
	4	0.066667	7.95777E-001	-8.89603E-005	0.00000E+000	-7.07926E-005	-5.39641E-002	7.95887E-001	3.57140E+000	9	...........
	5	0.08	7.86038E-001	-8.85040E-005	0.00000E+000	-6.95675E-005	-5.39641E-002	7.86132E-001	3.57140E+000	9	...........
	6	0.093333	7.76617E-001	-8.89103E-005	0.00000E+000	-6.90493E-005	-5.39641E-002	7.76739E-001	3.57140E+000	9	...........
	7	0.106667	7.67503E-001	-8.84748E-005	0.00000E+000	-6.79046E-005	-5.39641E-002	7.67624E-001	3.57140E+000	9	...........
	8	0.12	7.58663E-001	-8.86915E-005	0.00000E+000	-6.72870E-005	-5.39641E-002	7.58745E-001	3.57140E+000	9	...........
	9	0.133333	7.50014E-001	-8.84717E-005	0.00000E+000	-6.63550E-005	-5.39641E-002	7.50103E-001	3.57140E+000	9	...........
	10	0.146667	7.41581E-001	-8.86728E-005	0.00000E+000	-6.57580E-005	-5.39641E-002	7.41679E-001	3.57140E+000	9	...........
	11	0.16	7.33335E-001	-8.86280E-005	0.00000E+000	-6.49940E-005	-5.39641E-002	7.33441E-001	3.57140E+000	9	...........
	12	0.173333	7.25303E-001	-8.85946E-005	0.00000E+000	-6.42580E-005	-5.39641E-002	7.25381E-001	3.57140E+000	9	...........
	13	0.186667	7.17397E-001	-8.87717E-005	0.00000E+000	-6.36845E-005	-5.39641E-002	7.17510E-001	3.57140E+000	9	...........
	14	0.2	7.09621E-001	-8.86123E-005	0.00000E+000	-6.28812E-005	-5.39641E-002	7.09746E-001	3.57140E+000	9	...........
	15	0.213333	7.02035E-001	-8.86384E-005	0.00000E+000	-6.22272E-005	-5.39641E-002	7.02163E-001	3.57140E+000	9	...........
	16	0.226667	6.94606E-001	-8.87072E-005	0.00000E+000	-6.16165E-005	-5.39641E-002	6.94698E-001	3.57170E+000	9	...........
	17	0.24	6.87258E-001	-8.87718E-005	0.00000E+000	-6.10091E-005	-5.39641E-002	6.87349E-001	3.57180E+000	9	...........
	18	0.253333	6.80059E-001	-8.85832E-005	0.00000E+000	-6.02418E-005	-5.39641E-002	6.80158E-001	3.57180E+000	9	...........
	19	0.266667	6.72986E-001	-8.88759E-005	0.00000E+000	-5.98123E-005	-5.39641E-002	6.73088E-001	3.57180E+000	9	...........
	20	0.28	6.65999E-001	-8.85759E-005	0.00000E+000	-5.89914E-005	-5.39641E-002	6.66078E-001	3.57180E+000	9	...........
	21	0.293333	6.59116E-001	-8.87686E-005	0.00000E+000	-5.85088E-005	-5.39641E-002	6.59174E-001	3.57180E+000	9	...........
	22	0.306667	6.52338E-001	-8.84342E-005	0.00000E+000	-5.76889E-005	-5.39641E-002	6.52379E-001	3.57180E+000	9	...........
	23	0.32	6.45646E-001	-8.85780E-005	0.00000E+000	-5.71900E-005	-5.39641E-002	6.45679E-001	3.57180E+000	9	...........
	24	0.333333	6.39001E-001	-8.84852E-005	0.00000E+000	-5.65422E-005	-5.39641E-002	6.39046E-001	3.57180E+000	9	...........
	25	0.346667	6.32496E-001	-8.87207E-005	0.00000E+000	-5.61155E-005	-5.39641E-002	6.32514E-001	3.57180E+000	9	...........
	26	0.36	6.26042E-001	-8.87030E-005	0.00000E+000	-5.55318E-005	-5.39641E-002	6.26064E-001	3.57180E+000	9	...........
	27	0.373333	6.19673E-001	-8.87895E-005	0.00000E+000	-5.50204E-005	-5.39641E-002	6.19689E-001	3.57180E+000	9	...........
	28	0.386667	6.13329E-001	-8.85863E-005	0.00000E+000	-5.43326E-005	-5.39641E-002	6.13400E-001	3.57180E+000	9	...........
	29	0.4	6.07066E-001	-8.85686E-005	0.00000E+000	-5.37670E-005	-5.39641E-002	6.07142E-001	3.57180E+000	9	...........
	30	0.413333	6.00901E-001	-8.83779E-005	0.00000E+000	-5.31064E-005	-5.39641E-002	6.00971E-001	3.57180E+000	9	...........
	31	0.426667	5.94785E-001	-8.87217E-005	0.00000E+000	-5.27704E-005	-5.39641E-002	5.94876E-001	3.57180E+000	9	...........
	32	0.44	5.88729E-001	-8.88124E-005	0.00000E+000	-5.22864E-005	-5.39641E-002	5.88813E-001	3.57180E+000	9	...........
	33	0.453333	5.82696E-001	-8.86759E-005	0.00000E+000	-5.16711E-005	-5.39641E-002	5.82800E-001	3.57180E+000	9	...........
	34	0.466667	5.76753E-001	-8.85509E-005	0.00000E+000	-5.10720E-005	-5.39641E-002	5.76846E-001	3.57180E+000	9	...........
	35	0.48	5.70841E-001	-8.88134E-005	0.00000E+000	-5.06984E-005	-5.39641E-002	5.70921E-001	3.57180E+000	9	...........
	36	0.493333	5.64955E-001	-8.87874E-005	0.00000E+000	-5.01609E-005	-5.39641E-002	5.65054E-001	3.57180E+000	9	...........
	37	0.506667	5.59081E-001	-8.84946E-005	0.00000E+000	-4.94756E-005	-5.39641E-002	5.59194E-001	3.57180E+000	9	...........
	38	0.52	5.53306E-001	-8.86749E-005	0.00000E+000	-4.90643E-005	-5.39641E-002	5.53422E-001	3.57180E+000	9	...........
	39	0.533333	5.47565E-001	-8.85946E-005	0.00000E+000	-4.85113E-005	-5.39641E-002	5.47657E-001	3.57180E+000	9	...........
	40	0.546667	5.41852E-001	-8.86363E-005	0.00000E+000	-4.80277E-005	-5.39641E-002	5.41930E-001	3.57180E+000	9	...........
	41	0.56	5.36143E-001	-8.83019E-005	0.00000E+000	-4.73425E-005	-5.39641E-002	5.36242E-001	3.57180E+000	9	...........
	42	0.573333	5.30490E-001	-8.85384E-005	0.00000E+000	-4.69687E-005	-5.39641E-002	5.30605E-001	3.57180E+000	9	...........
	43	0.586667	5.24872E-001	-8.87790E-005	0.00000E+000	-4.65976E-005	-5.39641E-002	5.24964E-001	3.57180E+000	9	...........
	44	0.6	5.19295E-001	-8.85707E-005	0.00000E+000	-4.59943E-005	-5.39641E-002	5.19355E-001	3.57180E+000	9	...........
	45	0.613333	5.13738E-001	-8.88405E-005	0.00000E+000	-4.56407E-005	-5.39641E-002	5.13826E-001	3.57180E+000	9	...........
	46	0.626667	5.08158E-001	-8.87665E-005	0.00000E+000	-4.51074E-005	-5.39641E-002	5.08296E-001	3.57180E+000	9	...........
	47	0.64	5.02696E-001	-8.83738E-005	0.00000E+000	-4.44251E-005	-5.39641E-002	5.02800E-001	3.57180E+000	9	...........
	48	0.653333	4.97239E-001	-8.85467E-005	0.00000E+000	-4.40289E-005	-5.39641E-002	4.97335E-001	3.57180E+000	9	...........
	49	0.666667	4.91803E-001	-8.88884E-005	0.00000E+000	-4.37156E-005	-5.39641E-002	4.91875E-001	3.57180E+000	9	...........
	50	0.68	4.86382E-001	-8.86863E-005	0.00000E+000	-4.31354E-005	-5.39641E-002	4.86446E-001	3.57180E+000	9	...........
	51	0.693333	4.81025E-001	-8.85852E-005	0.00000E+000	-4.26117E-005	-5.39641E-002	4.81074E-001	3.57180E+000	9	...........
	52	0.706667	4.75664E-001	-8.84467E-005	0.00000E+000	-4.20709E-005	-5.39641E-002	4.75708E-001	3.57180E+000	9	...........
	53	0.72	4.70316E-001	-8.84581E-005	0.00000E+000	-4.16033E-005	-5.39641E-002	4.70364E-001	3.57180E+000	9	...........
	54	0.733333	4.64988E-001	-8.85321E-005	0.00000E+000	-4.11664E-005	-5.39641E-002	4.65036E-001	3.57180E+000	9	...........
	55	0.746667	4.59674E-001	-8.89166E-005	0.00000E+000	-4.08726E-005	-5.39641E-002	4.59724E-001	3.57180E+000	9	...........
	56	0.76	4.54393E-001	-8.84842E-005	0.00000E+000	-4.02066E-005	-5.39641E-002	4.54433E-001	3.57180E+000	9	...........
	57	0.773333	4.49126E-001	-8.85467E-005	0.00000E+000	-3.97686E-005	-5.39641E-002	4.49174E-001	3.57180E+000	9	...........
	58	0.786667	4.43880E-001	-8.87363E-005	0.00000E+000	-3.93883E-005	-5.39641E-002	4.43929E-001	3.57180E+000	9	...........
	59	0.8	4.38663E-001	-8.88655E-005	0.00000E+000	-3.89820E-005	-5.39641E-002	4.38706E-001	3.57180E+000	9	...........
	60	0.813333	4.33469E-001	-8.85894E-005	0.00000E+000	-3.84007E-005	-5.39641E-002	4.33508E-001	3.57180E+000	9	...........
	61	0.826667	4.28275E-001	-8.84404E-005	0.00000E+000	-3.78769E-005	-5.39641E-002	4.28322E-001	3.57180E+000	9	...........
	62	0.84	4.23108E-001	-8.87134E-005	0.00000E+000	-3.75353E-005	-5.39641E-002	4.23153E-001	3.57180E+000	9	...........
	63	0.853333	4.17971E-001	-8.86738E-005	0.00000E+000	-3.70631E-005	-5.39641E-002	4.18022E-001	3.57180E+000	9	...........
	64	0.866667	4.12870E-001	-8.88416E-005	0.00000E+000	-3.66800E-005	-5.39641E-002	4.12913E-001	3.57180E+000	9	...........
	65	0.88	4.07783E-001	-8.85634E-005	0.00000E+000	-3.61147E-005	-5.39641E-002	4.07827E-001	3.57180E+000	9	...........
	66	0.893333	4.02717E-001	-8.87155E-005	0.00000E+000	-3.57272E-005	-5.39641E-002	4.02753E-001	3.57180E+000	9	...........
	67	0.906667	3.97666E-001	-8.85634E-005	0.00000E+000	-3.52186E-005	-5.39641E-002	3.97700E-001	3.57180E+000	9	...........
	68	0.92	3.92641E-001	-8.86509E-005	0.00000E+000	-3.48080E-005	-5.39641E-002	3.92678E-001	3.57180E+000	9	...........
	69	0.933333	3.87627E-001	-8.88853E-005	0.00000E+000	-3.44543E-005	-5.39641E-002	3.87661E-001	3.57180E+000	9	...........
	70	0.946667	3.82636E-001	-8.87332E-005	0.00000E+000	-3.39525E-005	-5.39641E-002	3.82672E-001	3.57180E+000	9	...........
	71	0.96	3.77668E-001	-8.85071E-005	0.00000E+000	-3.34263E-005	-5.39641E-002	3.77702E-001	3.57180E+000	9	...........
	72	0.97333	3.72706E-001	-8.85196E-005	0.00000E+000	-3.29918E-005	-5.39641E-002	3.72741E-001	3.57180E+000	9	...........
	73	0.98667	3.67787E-001	-8.85154E-005	0.00000E+000	-3.25548E-005	-5.39641E-002	3.67823E-001	3.57180E+000	9	...........
	74	1	3.62879E-001	-8.84206E-005	0.00000E+000	-3.20860E-005	-5.39641E-002	3.62914E-001	3.57180E+000	9	...........
	75	1.01333	3.57980E-001	-8.85394E-005	0.00000E+000	-3.16953E-005	-5.39641E-002	3.58011E-001	3.57180E+000	9	...........
	76	1.02667	3.53109E-001	-8.88061E-005	0.00000E+000	-3.13582E-005	-5.39641E-002	3.53148E-001	3.57180E+000	9	...........
	77	1.04	3.48277E-001	-8.86780E-005	0.00000E+000	-3.08845E-005	-5.39641E-002	3.48307E-001	3.57180E+000	9	...........
	78	1.05333	3.43467E-001	-8.88509E-005	0.00000E+000	-3.05173E-005	-5.39641E-002	3.43503E-001	3.57180E+000	9	...........
	79	1.06667	3.38699E-001	-8.84977E-005	0.00000E+000	-2.99741E-005	-5.39641E-002	3.38734E-001	3.57180E+000	9	...........
	80	1.08	3.33935E-001	-8.87155E-005	0.00000E+000	-2.96252E-005	-5.39641E-002	3.33975E-001	3.57180E+000	9	...........
	81	1.09333	3.29197E-001	-8.88999E-005	0.00000E+000	-2.92656E-005	-5.39641E-002	3.29228E-001	3.57180E+000	9	...........
	82	1.10667	3.24507E-001	-8.87999E-005	0.00000E+000	-2.88161E-005	-5.39641E-002	3.24542E-001	3.57180E+000	9	...........
	83	1.12	3.19817E-001	-8.86967E-005	0.00000E+000	-2.83667E-005	-5.39641E-002	3.19843E-001	3.57180E+000	9	...........
	84	1.13333	3.15149E-001	-8.88061E-005	0.00000E+000	-2.79871E-005	-5.39641E-002	3.15178E-001	3.57180E+000	9	...........
	85	1.14667	3.10503E-001	-8.84488E-005	0.00000E+000	-2.74636E-005	-5.39641E-002	3.10531E-001	3.57180E+000	9	...........
	86	1.16	3.05859E-001	-8.85394E-005	0.00000E+000	-2.70806E-005	-5.39641E-002	3.05889E-001	3.57180E+000	9	...........
	87	1.17333	3.01239E-001	-8.88155E-005	0.00000E+000	-2.67547E-005	-5.39641E-002	3.01263E-001	3.57180E+000	9	...........
	88	1.18667	2.96674E-001	-8.87634E-005	0.00000E+000	-2.63338E-005	-5.39641E-002	2.96700E-001	3.57180E+000	9	...........
	89	1.2	2.92128E-001	-8.87009E-005	0.00000E+000	-2.59120E-005	-5.39641E-002	2.92152E-001	3.57180E+000	9	...........
	90	1.21333	2.87593E-001	-8.86394E-005	0.00000E+000	-2.54921E-005	-5.39641E-002	2.87623E-001	3.57180E+000	9	...........
	91	1.22667	2.83087E-001	-8.85300E-005	0.00000E+000	-2.50617E-005	-5.39641E-002	2.83116E-001	3.57150E+000	9	...........
	92	1.24	2.78618E-001	-8.86499E-005	0.00000E+000	-2.46995E-005	-5.39641E-002	2.78651E-001	3.57140E+000	9	...........
	93	1.25333	2.74176E-001	-8.83394E-005	0.00000E+000	-2.42206E-005	-5.39641E-002	2.74209E-001	3.57140E+000	9	...........
	94	1.26667	2.69742E-001	-8.88207E-005	0.00000E+000	-2.39586E-005	-5.39641E-002	2.69769E-001	3.57140E+000	9	...........
	95	1.28	2.65327E-001	-8.86540E-005	0.00000E+000	-2.35223E-005	-5.39641E-002	2.65355E-001	3.57140E+000	9	...........
	96	1.29333	2.60938E-001	-8.88030E-005	0.00000E+000	-2.31721E-005	-5.39641E-002	2.60966E-001	3.57140E+000	9	...........
	97	1.30667	2.56552E-001	-8.89030E-005	0.00000E+000	-2.28083E-005	-5.39641E-002	2.56581E-001	3.57140E+000	9	...........
	98	1.32	2.52184E-001	-8.87259E-005	0.00000E+000	-2.23753E-005	-5.39641E-002	2.52215E-001	3.57140E+000	9	...........
	99	1.33333	2.47851E-001	-8.87322E-005	0.00000E+000	-2.19924E-005	-5.39641E-002	2.47875E-001	3.57140E+000	9	...........
	100	1.34667	2.43516E-001	-8.88384E-005	0.00000E+000	-2.16336E-005	-5.39641E-002	2.43535E-001	3.57140E+000	9	...........
	101	1.36	2.39194E-001	-8.85227E-005	0.00000E+000	-2.11741E-005	-5.39641E-002	2.39212E-001	3.57140E+000	9	...........
	102	1.37333	2.34900E-001	-8.86957E-005	0.00000E+000	-2.08346E-005	-5.39641E-002	2.34920E-001	3.57140E+000	9	...........
	103	1.38667	2.30623E-001	-8.85582E-005	0.00000E+000	-2.04235E-005	-5.39641E-002	2.30640E-001	3.57140E+000	9	...........
	104	1.4	2.26363E-001	-8.85352E-005	0.00000E+000	-2.00411E-005	-5.39641E-002	2.26379E-001	3.57140E+000	9	...........
	105	1.41333	2.22106E-001	-8.87009E-005	0.00000E+000	-1.97010E-005	-5.39641E-002	2.22127E-001	3.57140E+000	9	...........
	106	1.42667	2.17891E-001	-8.87686E-005	0.00000E+000	-1.93419E-005	-5.39641E-002	2.17912E-001	3.57140E+000	9	...........
	107	1.44	2.13706E-001	-8.86123E-005	0.00000E+000	-1.89370E-005	-5.39641E-002	2.13719E-001	3.57140E+000	9	...........
	108	1.45333	2.09531E-001	-8.86499E-005	0.00000E+000	-1.85749E-005	-5.39641E-002	2.09545E-001	3.57140E+000	9	...........
	109	1.46667	2.05382E-001	-8.87520E-005	0.00000E+000	-1.82281E-005	-5.39641E-002	2.05395E-001	3.57140E+000	9	...........
	110	1.48	2.01254E-001	-8.85373E-005	0.00000E+000	-1.78185E-005	-5.39641E-002	2.01270E-001	3.57140E+000	9	...........
	111	1.49333	1.97140E-001	-8.86144E-005	0.00000E+000	-1.74694E-005	-5.39641E-002	1.97157E-001	3.57140E+000	9	...........
	112	1.50667	1.93042E-001	-8.87072E-005	0.00000E+000	-1.71242E-005	-5.39641E-002	1.93056E-001	3.57140E+000	9	...........
	113	1.52	1.88949E-001	-8.87499E-005	0.00000E+000	-1.67692E-005	-5.39641E-002	1.88969E-001	3.57140E+000	9	...........
	114	1.53333	1.84867E-001	-8.85769E-005	0.00000E+000	-1.63750E-005	-5.39641E-002	1.84877E-001	3.57140E+000	9	...........
	115	1.54667	1.80816E-001	-8.87478E-005	0.00000E+000	-1.60470E-005	-5.39641E-002	1.80832E-001	3.57140E+000	9	...........
	116	1.56	1.76783E-001	-8.87551E-005	0.00000E+000	-1.56904E-005	-5.39641E-002	1.76795E-001	3.57140E+000	9	...........
	117	1.57333	1.72762E-001	-8.88103E-005	0.00000E+000	-1.53430E-005	-5.39641E-002	1.72779E-001	3.57140E+000	9	...........
	118	1.58667	1.68743E-001	-8.85207E-005	0.00000E+000	-1.49372E-005	-5.39641E-002	1.68756E-001	3.57140E+000	9	...........
	119	1.6	1.64745E-001	-8.87790E-005	0.00000E+000	-1.46259E-005	-5.39641E-002	1.64768E-001	3.57140E+000	9	...........
	120	1.61333	1.60782E-001	-8.87801E-005	0.00000E+000	-1.42742E-005	-5.39641E-002	1.60798E-001	3.57140E+000	9	...........
	121	1.62667	1.56842E-001	-8.86780E-005	0.00000E+000	-1.39085E-005	-5.39641E-002	1.56848E-001	3.57140E+000	9	...........
	122	1.64	1.52911E-001	-8.87322E-005	0.00000E+000	-1.35681E-005	-5.39641E-002	1.52917E-001	3.57140E+000	9	...........
	123	1.65333	1.48991E-001	-8.86530E-005	0.00000E+000	-1.32085E-005	-5.39641E-002	1.48997E-001	3.57140E+000	9	...........
	124	1.66667	1.45074E-001	-8.86405E-005	0.00000E+000	-1.28594E-005	-5.39641E-002	1.45088E-001	3.57140E+000	9	...........
	125	1.68	1.41173E-001	-8.86905E-005	0.00000E+000	-1.25207E-005	-5.39641E-002	1.41183E-001	3.57140E+000	9	...........
	126	1.69333	1.37273E-001	-8.87082E-005	0.00000E+000	-1.21772E-005	-5.39641E-002	1.37290E-001	3.57140E+000	9	...........
	127	1.70667	1.33394E-001	-8.87009E-005	0.00000E+000	-1.18322E-005	-5.39641E-002	1.33408E-001	3.57140E+000	9	...........
	128	1.72	1.29548E-001	-8.85582E-005	0.00000E+000	-1.14725E-005	-5.39641E-002	1.29559E-001	3.57140E+000	9	...........
	129	1.73333	1.25717E-001	-8.86582E-005	0.00000E+000	-1.11458E-005	-5.39641E-002	1.25724E-001	3.57140E+000	9	...........
	130	1.74667	1.21909E-001	-8.85696E-005	0.00000E+000	-1.07975E-005	-5.39641E-002	1.21923E-001	3.57140E+000	9	...........
	131	1.76	1.18116E-001	-8.86999E-005	0.00000E+000	-1.04768E-005	-5.39641E-002	1.18127E-001	3.57140E+000	9	...........
	132	1.77333	1.14331E-001	-8.88322E-005	0.00000E+000	-1.01563E-005	-5.39641E-002	1.14341E-001	3.57140E+000	9	...........
	133	1.78667	1.10528E-001	-8.85082E-005	0.00000E+000	-9.78265E-006	-5.39641E-002	1.10536E-001	3.57140E+000	9	...........
	134	1.8	1.06733E-001	-8.87790E-005	0.00000E+000	-9.47565E-006	-5.39641E-002	1.06737E-001	3.57140E+000	9	...........
	135	1.81333	1.02967E-001	-8.87540E-005	0.00000E+000	-9.13870E-006	-5.39641E-002	1.02972E-001	3.57140E+000	9	...........
	136	1.82667	9.92331E-002	-8.88270E-005	0.00000E+000	-8.81457E-006	-5.39641E-002	9.92415E-002	3.57140E+000	9	...........
	137	1.84	9.55072E-002	-8.86811E-005	0.00000E+000	-8.46968E-006	-5.39641E-002	9.55101E-002	3.57140E+000	9	...........
	138	1.85333	9.17649E-002	-8.88113E-005	0.00000E+000	-8.14977E-006	-5.39641E-002	9.17727E-002	3.57140E+000	9	...........
	139	1.86667	8.80472E-002	-8.88509E-005	0.00000E+000	-7.82307E-006	-5.39641E-002	8.80543E-002	3.57140E+000	9	...........
	140	1.88	8.43602E-002	-8.86061E-005	0.00000E+000	-7.47483E-006	-5.39641E-002	8.43695E-002	3.57140E+000	9	...........
	141	1.89333	8.07080E-002	-8.87426E-005	0.00000E+000	-7.16223E-006	-5.39641E-002	8.07089E-002	3.57140E+000	9	...........
	142	1.90667	7.70595E-002	-8.88207E-005	0.00000E+000	-6.84448E-006	-5.39641E-002	7.70633E-002	3.57140E+000	9	...........
	143	1.92	7.34239E-002	-8.84852E-005	0.00000E+000	-6.49693E-006	-5.39641E-002	7.34183E-002	3.57140E+000	9	...........
	144	1.93333	6.97960E-002	-8.84748E-005	0.00000E+000	-6.17519E-006	-5.39641E-002	6.97955E-002	3.57140E+000	9	...........
	145	1.94667	6.61829E-002	-8.87978E-005	0.00000E+000	-5.87690E-006	-5.39641E-002	6.61792E-002	3.57140E+000	9	...........
	146	1.96	6.25645E-002	-8.88676E-005	0.00000E+000	-5.55996E-006	-5.39641E-002	6.25661E-002	3.57140E+000	9	...........
	147	1.97333	5.89701E-002	-8.85696E-005	0.00000E+000	-5.22296E-006	-5.39641E-002	5.89609E-002	3.57140E+000	9	...........
	148	1.98667	5.53955E-002	-8.86321E-005	0.00000E+000	-4.90982E-006	-5.39641E-002	5.53946E-002	3.57140E+000	9	...........
	149	2	5.18398E-002	-8.87103E-005	0.00000E+000	-4.59872E-006	-5.39641E-002	5.18369E-002	3.57140E+000	9	...........
	150	2.01333	4.83067E-002	-8.85040E-005	0.00000E+000	-4.27534E-006	-5.39641E-002	4.83053E-002	3.57140E+000	9	...........
	151	2.02667	4.47817E-002	-8.86363E-005	0.00000E+000	-3.96929E-006	-5.39641E-002	4.47925E-002	3.57140E+000	9	...........
	152	2.04	4.12629E-002	-8.84269E-005	0.00000E+000	-3.64875E-006	-5.39641E-002	4.12707E-002	3.57140E+000	9	...........
	153	2.05333	3.77642E-002	-8.86446E-005	0.00000E+000	-3.34760E-006	-5.39641E-002	3.77675E-002	3.57140E+000	9	...........
	154	2.06667	3.42950E-002	-8.85394E-005	0.00000E+000	-3.03646E-006	-5.39641E-002	3.42996E-002	3.57140E+000	9	...........
	155	2.08	3.08367E-002	-8.86113E-005	0.00000E+000	-2.73248E-006	-5.39641E-002	3.08364E-002	3.57140E+000	9	...........
	156	2.09333	2.73860E-002	-8.85321E-005	0.00000E+000	-2.42454E-006	-5.39641E-002	2.73847E-002	3.57140E+000	9	...........
	157	2.10667	2.39598E-002	-8.85446E-005	0.00000E+000	-2.12151E-006	-5.39641E-002	2.39576E-002	3.57140E+000	9	...........
	158	2.12	2.05539E-002	-8.87124E-005	0.00000E+000	-1.82338E-006	-5.39641E-002	2.05444E-002	3.57140E+000	9	...........
	159	2.13333	1.71681E-002	-8.83842E-005	0.00000E+000	-1.51739E-006	-5.39641E-002	1.71600E-002	3.57140E+000	9	...........
	160	2.14667	1.38049E-002	-8.85436E-005	0.00000E+000	-1.22234E-006	-5.39641E-002	1.37995E-002	3.57140E+000	9	...........
	161	2.16	1.04547E-002	-8.83373E-005	0.00000E+000	-9.23538E-007	-5.39641E-002	1.04456E-002	3.57140E+000	9	...........
	162	2.17333	7.12574E-003	-8.86384E-005	0.00000E+000	-6.31614E-007	-5.39641E-002	7.11484E-003	3.57140E+000	9	...........
	163	2.18667	3.81595E-003	-8.87165E-005	0.00000E+000	-3.38537E-007	-5.39641E-002	3.80012E-003	3.57140E+000	9	...........
	164	2.19667	9.32276E-004	-8.89096E-005	0.00000E+000	-8.28883E-008	-5.39641E-002	9.18513E-004	3.57140E+000	9	...........
STARTTIMEOFFSET	QUANT	449.9817	Start Time Offset (s)
