EXPLAIN
TAG	PWR800_DISCHARGE
TITLE	LABEL	PWR Cyclic Charge Discharge (Cell) - Discharge Step	Test &Identifier
DATE	LABEL	10-7-2017	Date
TIME	LABEL	15:56:07	Time
NOTES	NOTES	3	&Notes...
	supercap test cell
	0.9mg
	6M KOH
PSTAT	PSTAT	IFC5000-01520	Potentiostat
CAPACITY	QUANT	1.00000E-003	Capacity (A-hr)
CELLTYPE	SELECTOR	1	&Cell Type
WORKINGCONNECTION	SELECTOR	0	&Working Lead
MAXDISCHARGETIME	VARIABLEANDUNITS	1.00000E+002	s	1.00000E+002	second(s)	Max &Discharge Time
DISCHARGEMODE	MULTIPARAM	0	9.00000E-005	&Discharge Mode	Constant Current	Amp(s)
SAMPLETIME	QUANT	1.00000E-002	Sa&mple Period (s)
DISCHARGESTOPAT1	MULTIPARAM	3	0.00000E+000	Discharge Stop At &1	Voltage < Limit	V
DISCHARGESTOPAT2	MULTIPARAM	0	0.00000E+000	Discharge Stop At &2	None	N/A
AESBHCSELECTOR	TOGGLE	F	Save Both Half Cells
IRCOMP	TOGGLE	F	IR &Measure
EOC	QUANT	0	Open Circuit (V)
SEQUENCER	TOGGLE	TRUE	Run as Sequence
PSTATMODEL	IQUANT	53	Pstat Model
PSTATSECTION	LABEL	IFC5000-01520	Pstat Section
PSTATSERIALNO	LABEL	01520	Pstat Serial Number
CTRLMODE	IQUANT	0	Control Mode
ELECTROMETER	IQUANT	1	RE=0 or CS=1
IESTAB	IQUANT	0	I/E Stability
CASPEED	IQUANT	4	Control Amp Speed
CONVENTION	IQUANT	1	Current Convention
ICHRANGE	IQUANT	2	Ich Range
ICHRANGEMODE	TOGGLE	T	Ich Auto Range
ICHOFFSETENABLE	TOGGLE	F	Ich Offset Enable
ICHOFFSET	QUANT	0	Ich Offset (V)
ICHFILTER	IQUANT	1	Ich Filter
VCHRANGE	IQUANT	2	Vch Range
VCHRANGEMODE	TOGGLE	T	Vch Auto Range
VCHOFFSETENABLE	TOGGLE	F	Vch Offset Enable
VCHOFFSET	QUANT	0	Vch Offset (V)
VCHFILTER	IQUANT	1	Vch Filter
IERANGELOWERLIMIT	IQUANT	9	I/E Range Lower Limit
IERANGEMODE	TOGGLE	F	I/E AutoRange
IERANGE	IQUANT	9	I/E Range
ACHSELECT	IQUANT	1	Ach Select
ACHRANGE	IQUANT	2	Ach Range
ACHOFFSETENABLE	TOGGLE	F	Ach Offset Enable
ACHOFFSET	QUANT	0	Ach Offset (V)
ACHFILTER	IQUANT	1	Ach Filter
CABLEID	IQUANT	14	Cable ID
DCCALDATE	LABEL	5-7-2017	DC Calibration Date
ACCALDATE	LABEL	12/3/2015	AC Calibration Date
FRAMEWORKVERSION	QUANT	7.01	Framework Version
INSTRUMENTVERSION	LABEL	4.00	Instrument Version
CURVE	TABLE	149
	Pt	T	Vf	Im	Vu	Pwr	Sig	Ach	Temp	IERange	Over
	#	s	V	A	V	W	V	V	deg C	#	bits
	0	0.013333	8.07790E-001	-8.85154E-005	0.00000E+000	-7.15019E-005	-5.39641E-002	8.07900E-001	3.57260E+000	9	...........
	1	0.026667	7.93850E-001	-8.88916E-005	0.00000E+000	-7.05666E-005	-5.39641E-002	7.93956E-001	3.57260E+000	9	...........
	2	0.04	7.80830E-001	-8.85978E-005	0.00000E+000	-6.91798E-005	-5.39641E-002	7.80934E-001	3.57260E+000	9	...........
	3	0.053333	7.68555E-001	-8.87082E-005	0.00000E+000	-6.81772E-005	-5.39641E-002	7.68669E-001	3.57260E+000	9	...........
	4	0.066667	7.56874E-001	-8.86697E-005	0.00000E+000	-6.71117E-005	-5.39641E-002	7.57002E-001	3.57260E+000	9	...........
	5	0.08	7.45756E-001	-8.87280E-005	0.00000E+000	-6.61694E-005	-5.39641E-002	7.45865E-001	3.57260E+000	9	...........
	6	0.093333	7.35049E-001	-8.88582E-005	0.00000E+000	-6.53152E-005	-5.39641E-002	7.35183E-001	3.57260E+000	9	...........
	7	0.106667	7.24802E-001	-8.88082E-005	0.00000E+000	-6.43684E-005	-5.39641E-002	7.24921E-001	3.57260E+000	9	...........
	8	0.12	7.14867E-001	-8.87061E-005	0.00000E+000	-6.34131E-005	-5.39641E-002	7.15013E-001	3.57260E+000	9	...........
	9	0.133333	7.05283E-001	-8.90135E-005	0.00000E+000	-6.27797E-005	-5.39641E-002	7.05422E-001	3.57260E+000	9	...........
	10	0.146667	6.95970E-001	-8.87624E-005	0.00000E+000	-6.17759E-005	-5.39641E-002	6.96095E-001	3.57260E+000	9	...........
	11	0.16	6.86939E-001	-8.87926E-005	0.00000E+000	-6.09951E-005	-5.39641E-002	6.87073E-001	3.57260E+000	9	...........
	12	0.173333	6.78162E-001	-8.88072E-005	0.00000E+000	-6.02257E-005	-5.39641E-002	6.78278E-001	3.57260E+000	9	...........
	13	0.186667	6.69603E-001	-8.88478E-005	0.00000E+000	-5.94927E-005	-5.39641E-002	6.69730E-001	3.57260E+000	9	...........
	14	0.2	6.61246E-001	-8.86957E-005	0.00000E+000	-5.86497E-005	-5.39641E-002	6.61367E-001	3.57260E+000	9	...........
	15	0.213333	6.53118E-001	-8.88832E-005	0.00000E+000	-5.80512E-005	-5.39641E-002	6.53248E-001	3.57260E+000	9	...........
	16	0.226667	6.45169E-001	-8.88416E-005	0.00000E+000	-5.73178E-005	-5.39641E-002	6.45291E-001	3.57260E+000	9	...........
	17	0.24	6.37388E-001	-8.85009E-005	0.00000E+000	-5.64094E-005	-5.39641E-002	6.37513E-001	3.57260E+000	9	...........
	18	0.253333	6.29782E-001	-8.89416E-005	0.00000E+000	-5.60138E-005	-5.39641E-002	6.29913E-001	3.57260E+000	9	...........
	19	0.266667	6.22323E-001	-8.86103E-005	0.00000E+000	-5.51442E-005	-5.39641E-002	6.22438E-001	3.57260E+000	9	...........
	20	0.28	6.14980E-001	-8.87592E-005	0.00000E+000	-5.45852E-005	-5.39641E-002	6.15109E-001	3.57260E+000	9	...........
	21	0.293333	6.07762E-001	-8.86884E-005	0.00000E+000	-5.39015E-005	-5.39641E-002	6.07907E-001	3.57260E+000	9	...........
	22	0.306667	6.00673E-001	-8.87718E-005	0.00000E+000	-5.33228E-005	-5.39641E-002	6.00857E-001	3.57260E+000	9	...........
	23	0.32	5.93756E-001	-8.86874E-005	0.00000E+000	-5.26586E-005	-5.39641E-002	5.93875E-001	3.57260E+000	9	...........
	24	0.333333	5.86905E-001	-8.86592E-005	0.00000E+000	-5.20345E-005	-5.39641E-002	5.87035E-001	3.57260E+000	9	...........
	25	0.346667	5.80172E-001	-8.88030E-005	0.00000E+000	-5.15210E-005	-5.39641E-002	5.80282E-001	3.57260E+000	9	...........
	26	0.36	5.73577E-001	-8.88551E-005	0.00000E+000	-5.09653E-005	-5.39641E-002	5.73671E-001	3.57260E+000	9	...........
	27	0.373333	5.67077E-001	-8.89155E-005	0.00000E+000	-5.04220E-005	-5.39641E-002	5.67182E-001	3.57260E+000	9	...........
	28	0.386667	5.60596E-001	-8.86665E-005	0.00000E+000	-4.97061E-005	-5.39641E-002	5.60752E-001	3.57260E+000	9	...........
	29	0.4	5.54251E-001	-8.89239E-005	0.00000E+000	-4.92862E-005	-5.39641E-002	5.54391E-001	3.57260E+000	9	...........
	30	0.413333	5.48018E-001	-8.88093E-005	0.00000E+000	-4.86690E-005	-5.39641E-002	5.48140E-001	3.57260E+000	9	...........
	31	0.426667	5.41839E-001	-8.88603E-005	0.00000E+000	-4.81480E-005	-5.39641E-002	5.41974E-001	3.57260E+000	9	...........
	32	0.44	5.35748E-001	-8.88874E-005	0.00000E+000	-4.76213E-005	-5.39641E-002	5.35844E-001	3.57260E+000	9	...........
	33	0.453333	5.29713E-001	-8.88145E-005	0.00000E+000	-4.70462E-005	-5.39641E-002	5.29805E-001	3.57260E+000	9	...........
	34	0.466667	5.23748E-001	-8.86103E-005	0.00000E+000	-4.64094E-005	-5.39641E-002	5.23841E-001	3.57260E+000	9	...........
	35	0.48	5.17833E-001	-8.86259E-005	0.00000E+000	-4.58934E-005	-5.39641E-002	5.17940E-001	3.57260E+000	9	...........
	36	0.493333	5.11997E-001	-8.88207E-005	0.00000E+000	-4.54759E-005	-5.39641E-002	5.12095E-001	3.57260E+000	9	...........
	37	0.506667	5.06184E-001	-8.87676E-005	0.00000E+000	-4.49327E-005	-5.39641E-002	5.06293E-001	3.57260E+000	9	...........
	38	0.52	5.00426E-001	-8.89051E-005	0.00000E+000	-4.44905E-005	-5.39641E-002	5.00554E-001	3.57260E+000	9	...........
	39	0.533333	4.94764E-001	-8.87186E-005	0.00000E+000	-4.38948E-005	-5.39641E-002	4.94864E-001	3.57260E+000	9	...........
	40	0.546667	4.89110E-001	-8.85061E-005	0.00000E+000	-4.32892E-005	-5.39641E-002	4.89223E-001	3.57260E+000	9	...........
	41	0.56	4.83605E-001	-8.87999E-005	0.00000E+000	-4.29441E-005	-5.39641E-002	4.83664E-001	3.57260E+000	9	...........
	42	0.573333	4.78089E-001	-8.85269E-005	0.00000E+000	-4.23238E-005	-5.39641E-002	4.78156E-001	3.57260E+000	9	...........
	43	0.586667	4.72588E-001	-8.89249E-005	0.00000E+000	-4.20248E-005	-5.39641E-002	4.72644E-001	3.57260E+000	9	...........
	44	0.6	4.67120E-001	-8.89385E-005	0.00000E+000	-4.15450E-005	-5.39641E-002	4.67183E-001	3.57260E+000	9	...........
	45	0.613333	4.61695E-001	-8.85175E-005	0.00000E+000	-4.08681E-005	-5.39641E-002	4.61764E-001	3.57260E+000	9	...........
	46	0.626667	4.56310E-001	-8.86790E-005	0.00000E+000	-4.04651E-005	-5.39641E-002	4.56374E-001	3.57260E+000	9	...........
	47	0.64	4.50955E-001	-8.90635E-005	0.00000E+000	-4.01636E-005	-5.39641E-002	4.51016E-001	3.57260E+000	9	...........
	48	0.653333	4.45622E-001	-8.87124E-005	0.00000E+000	-3.95322E-005	-5.39641E-002	4.45684E-001	3.57260E+000	9	...........
	49	0.666667	4.40304E-001	-8.86707E-005	0.00000E+000	-3.90421E-005	-5.39641E-002	4.40375E-001	3.57260E+000	9	...........
	50	0.68	4.35016E-001	-8.89885E-005	0.00000E+000	-3.87114E-005	-5.39641E-002	4.35074E-001	3.57260E+000	9	...........
	51	0.693333	4.29770E-001	-8.90406E-005	0.00000E+000	-3.82670E-005	-5.39641E-002	4.29826E-001	3.57260E+000	9	...........
	52	0.706667	4.24540E-001	-8.88447E-005	0.00000E+000	-3.77181E-005	-5.39641E-002	4.24595E-001	3.57260E+000	9	...........
	53	0.72	4.19342E-001	-8.89499E-005	0.00000E+000	-3.73005E-005	-5.39641E-002	4.19402E-001	3.57260E+000	9	...........
	54	0.733333	4.14150E-001	-8.85696E-005	0.00000E+000	-3.66811E-005	-5.39641E-002	4.14206E-001	3.57260E+000	9	...........
	55	0.746667	4.08989E-001	-8.87394E-005	0.00000E+000	-3.62935E-005	-5.39641E-002	4.09042E-001	3.57260E+000	9	...........
	56	0.76	4.03868E-001	-8.88249E-005	0.00000E+000	-3.58735E-005	-5.39641E-002	4.03917E-001	3.57260E+000	9	...........
	57	0.773333	3.98750E-001	-8.89301E-005	0.00000E+000	-3.54609E-005	-5.39641E-002	3.98799E-001	3.57260E+000	9	...........
	58	0.786667	3.93664E-001	-8.86957E-005	0.00000E+000	-3.49163E-005	-5.39641E-002	3.93708E-001	3.57260E+000	9	...........
	59	0.8	3.88581E-001	-8.86394E-005	0.00000E+000	-3.44436E-005	-5.39641E-002	3.88632E-001	3.57260E+000	9	...........
	60	0.813333	3.83519E-001	-8.88718E-005	0.00000E+000	-3.40840E-005	-5.39641E-002	3.83565E-001	3.57260E+000	9	...........
	61	0.826667	3.78466E-001	-8.86936E-005	0.00000E+000	-3.35675E-005	-5.39641E-002	3.78510E-001	3.57260E+000	9	...........
	62	0.84	3.73437E-001	-8.89812E-005	0.00000E+000	-3.32289E-005	-5.39641E-002	3.73479E-001	3.57260E+000	9	...........
	63	0.853333	3.68414E-001	-8.87874E-005	0.00000E+000	-3.27105E-005	-5.39641E-002	3.68461E-001	3.57260E+000	9	...........
	64	0.866667	3.63397E-001	-8.88811E-005	0.00000E+000	-3.22992E-005	-5.39641E-002	3.63445E-001	3.57260E+000	9	...........
	65	0.88	3.58392E-001	-8.84748E-005	0.00000E+000	-3.17087E-005	-5.39641E-002	3.58441E-001	3.57260E+000	9	...........
	66	0.893333	3.53409E-001	-8.85186E-005	0.00000E+000	-3.12833E-005	-5.39641E-002	3.53450E-001	3.57260E+000	9	...........
	67	0.906667	3.48435E-001	-8.87874E-005	0.00000E+000	-3.09366E-005	-5.39641E-002	3.48480E-001	3.57260E+000	9	...........
	68	0.92	3.43487E-001	-8.86572E-005	0.00000E+000	-3.04525E-005	-5.39641E-002	3.43529E-001	3.57260E+000	9	...........
	69	0.933333	3.38548E-001	-8.88759E-005	0.00000E+000	-3.00888E-005	-5.39641E-002	3.38595E-001	3.57260E+000	9	...........
	70	0.946667	3.33634E-001	-8.92187E-005	0.00000E+000	-2.97664E-005	-5.39641E-002	3.33677E-001	3.57260E+000	9	...........
	71	0.96	3.28750E-001	-8.86332E-005	0.00000E+000	-2.91382E-005	-5.39641E-002	3.28786E-001	3.57260E+000	9	...........
	72	0.97333	3.23861E-001	-8.88999E-005	0.00000E+000	-2.87913E-005	-5.39641E-002	3.23904E-001	3.57260E+000	9	...........
	73	0.98667	3.18992E-001	-8.88936E-005	0.00000E+000	-2.83564E-005	-5.39641E-002	3.19036E-001	3.57260E+000	9	...........
	74	1	3.14131E-001	-8.88603E-005	0.00000E+000	-2.79138E-005	-5.39641E-002	3.14175E-001	3.57260E+000	9	...........
	75	1.01333	3.09270E-001	-8.87322E-005	0.00000E+000	-2.74422E-005	-5.39641E-002	3.09315E-001	3.57260E+000	9	...........
	76	1.02667	3.04442E-001	-8.86780E-005	0.00000E+000	-2.69973E-005	-5.39641E-002	3.04484E-001	3.57260E+000	9	...........
	77	1.04	2.99604E-001	-8.88478E-005	0.00000E+000	-2.66192E-005	-5.39641E-002	2.99642E-001	3.57260E+000	9	...........
	78	1.05333	2.94778E-001	-8.89114E-005	0.00000E+000	-2.62091E-005	-5.39641E-002	2.94819E-001	3.57260E+000	9	...........
	79	1.06667	2.89972E-001	-8.85457E-005	0.00000E+000	-2.56758E-005	-5.39641E-002	2.90008E-001	3.57260E+000	9	...........
	80	1.08	2.85177E-001	-8.88968E-005	0.00000E+000	-2.53514E-005	-5.39641E-002	2.85219E-001	3.57260E+000	9	...........
	81	1.09333	2.80395E-001	-8.87280E-005	0.00000E+000	-2.48788E-005	-5.39641E-002	2.80436E-001	3.57260E+000	9	...........
	82	1.10667	2.75624E-001	-8.87269E-005	0.00000E+000	-2.44553E-005	-5.39641E-002	2.75660E-001	3.57260E+000	9	...........
	83	1.12	2.70881E-001	-8.86957E-005	0.00000E+000	-2.40259E-005	-5.39641E-002	2.70917E-001	3.57260E+000	9	...........
	84	1.13333	2.66146E-001	-8.89770E-005	0.00000E+000	-2.36808E-005	-5.39641E-002	2.66182E-001	3.57260E+000	9	...........
	85	1.14667	2.61413E-001	-8.88061E-005	0.00000E+000	-2.32150E-005	-5.39641E-002	2.61446E-001	3.57260E+000	9	...........
	86	1.16	2.56698E-001	-8.87520E-005	0.00000E+000	-2.27825E-005	-5.39641E-002	2.56735E-001	3.57260E+000	9	...........
	87	1.17333	2.52020E-001	-8.88801E-005	0.00000E+000	-2.23995E-005	-5.39641E-002	2.52060E-001	3.57260E+000	9	...........
	88	1.18667	2.47372E-001	-8.88707E-005	0.00000E+000	-2.19841E-005	-5.39641E-002	2.47400E-001	3.57260E+000	9	...........
	89	1.2	2.42731E-001	-8.87228E-005	0.00000E+000	-2.15357E-005	-5.39641E-002	2.42759E-001	3.57260E+000	9	...........
	90	1.21333	2.38099E-001	-8.87051E-005	0.00000E+000	-2.11206E-005	-5.39641E-002	2.38125E-001	3.57260E+000	9	...........
	91	1.22667	2.33475E-001	-8.87697E-005	0.00000E+000	-2.07255E-005	-5.39641E-002	2.33501E-001	3.57260E+000	9	...........
	92	1.24	2.28884E-001	-8.88655E-005	0.00000E+000	-2.03399E-005	-5.39641E-002	2.28911E-001	3.57260E+000	9	...........
	93	1.25333	2.24299E-001	-8.88395E-005	0.00000E+000	-1.99266E-005	-5.39641E-002	2.24327E-001	3.57260E+000	9	...........
	94	1.26667	2.19736E-001	-8.89874E-005	0.00000E+000	-1.95537E-005	-5.39641E-002	2.19767E-001	3.57260E+000	9	...........
	95	1.28	2.15203E-001	-8.87665E-005	0.00000E+000	-1.91029E-005	-5.39641E-002	2.15232E-001	3.57260E+000	9	...........
	96	1.29333	2.10682E-001	-8.88124E-005	0.00000E+000	-1.87112E-005	-5.39641E-002	2.10704E-001	3.57260E+000	9	...........
	97	1.30667	2.06182E-001	-8.87780E-005	0.00000E+000	-1.83044E-005	-5.39641E-002	2.06203E-001	3.57260E+000	9	...........
	98	1.32	2.01693E-001	-8.86915E-005	0.00000E+000	-1.78885E-005	-5.39641E-002	2.01715E-001	3.57260E+000	9	...........
	99	1.33333	1.97211E-001	-8.87947E-005	0.00000E+000	-1.75113E-005	-5.39641E-002	1.97237E-001	3.57260E+000	9	...........
	100	1.34667	1.92774E-001	-8.88343E-005	0.00000E+000	-1.71249E-005	-5.39641E-002	1.92792E-001	3.57260E+000	9	...........
	101	1.36	1.88352E-001	-8.85957E-005	0.00000E+000	-1.66872E-005	-5.39641E-002	1.88374E-001	3.57260E+000	9	...........
	102	1.37333	1.83965E-001	-8.86519E-005	0.00000E+000	-1.63088E-005	-5.39641E-002	1.83986E-001	3.57260E+000	9	...........
	103	1.38667	1.79591E-001	-8.86238E-005	0.00000E+000	-1.59160E-005	-5.39641E-002	1.79618E-001	3.57260E+000	9	...........
	104	1.4	1.75237E-001	-8.85811E-005	0.00000E+000	-1.55227E-005	-5.39641E-002	1.75263E-001	3.57260E+000	9	...........
	105	1.41333	1.70894E-001	-8.86759E-005	0.00000E+000	-1.51542E-005	-5.39641E-002	1.70918E-001	3.57260E+000	9	...........
	106	1.42667	1.66554E-001	-8.86790E-005	0.00000E+000	-1.47698E-005	-5.39641E-002	1.66573E-001	3.57260E+000	9	...........
	107	1.44	1.62232E-001	-8.87124E-005	0.00000E+000	-1.43920E-005	-5.39641E-002	1.62252E-001	3.57260E+000	9	...........
	108	1.45333	1.57931E-001	-8.88259E-005	0.00000E+000	-1.40284E-005	-5.39641E-002	1.57946E-001	3.57260E+000	9	...........
	109	1.46667	1.53663E-001	-8.88395E-005	0.00000E+000	-1.36514E-005	-5.39641E-002	1.53676E-001	3.57260E+000	9	...........
	110	1.48	1.49419E-001	-8.88634E-005	0.00000E+000	-1.32778E-005	-5.39641E-002	1.49438E-001	3.57260E+000	9	...........
	111	1.49333	1.45186E-001	-8.89280E-005	0.00000E+000	-1.29111E-005	-5.39641E-002	1.45201E-001	3.57260E+000	9	...........
	112	1.50667	1.40971E-001	-8.88655E-005	0.00000E+000	-1.25275E-005	-5.39641E-002	1.40993E-001	3.57260E+000	9	...........
	113	1.52	1.36782E-001	-8.87092E-005	0.00000E+000	-1.21338E-005	-5.39641E-002	1.36799E-001	3.57260E+000	9	...........
	114	1.53333	1.32602E-001	-8.88509E-005	0.00000E+000	-1.17818E-005	-5.39641E-002	1.32625E-001	3.57260E+000	9	...........
	115	1.54667	1.28443E-001	-8.88207E-005	0.00000E+000	-1.14084E-005	-5.39641E-002	1.28457E-001	3.57260E+000	9	...........
	116	1.56	1.24300E-001	-8.86363E-005	0.00000E+000	-1.10175E-005	-5.39641E-002	1.24310E-001	3.57260E+000	9	...........
	117	1.57333	1.20189E-001	-8.86311E-005	0.00000E+000	-1.06525E-005	-5.39641E-002	1.20202E-001	3.57260E+000	9	...........
	118	1.58667	1.16084E-001	-8.86717E-005	0.00000E+000	-1.02933E-005	-5.39641E-002	1.16102E-001	3.57260E+000	9	...........
	119	1.6	1.11982E-001	-8.86499E-005	0.00000E+000	-9.92716E-006	-5.39641E-002	1.11994E-001	3.57260E+000	9	...........
	120	1.61333	1.07899E-001	-8.84936E-005	0.00000E+000	-9.54836E-006	-5.39641E-002	1.07911E-001	3.57260E+000	9	...........
	121	1.62667	1.03840E-001	-8.89978E-005	0.00000E+000	-9.24152E-006	-5.39641E-002	1.03851E-001	3.57260E+000	9	...........
	122	1.64	9.98143E-002	-8.88759E-005	0.00000E+000	-8.87109E-006	-5.39641E-002	9.98220E-002	3.57260E+000	9	...........
	123	1.65333	9.58030E-002	-8.92156E-005	0.00000E+000	-8.54712E-006	-5.39641E-002	9.58102E-002	3.57260E+000	9	...........
	124	1.66667	9.18082E-002	-8.86186E-005	0.00000E+000	-8.13591E-006	-5.39641E-002	9.18195E-002	3.57260E+000	9	...........
	125	1.68	8.78113E-002	-8.86926E-005	0.00000E+000	-7.78821E-006	-5.39641E-002	8.78244E-002	3.57260E+000	9	...........
	126	1.69333	8.38423E-002	-8.90426E-005	0.00000E+000	-7.46554E-006	-5.39641E-002	8.38482E-002	3.57260E+000	9	...........
	127	1.70667	7.98960E-002	-8.86894E-005	0.00000E+000	-7.08594E-006	-5.39641E-002	7.98992E-002	3.57260E+000	9	...........
	128	1.72	7.59613E-002	-8.85457E-005	0.00000E+000	-6.72604E-006	-5.39641E-002	7.59670E-002	3.57260E+000	9	...........
	129	1.73333	7.20470E-002	-8.87113E-005	0.00000E+000	-6.39138E-006	-5.39641E-002	7.20508E-002	3.57260E+000	9	...........
	130	1.74667	6.81596E-002	-8.89926E-005	0.00000E+000	-6.06570E-006	-5.39641E-002	6.81624E-002	3.57260E+000	9	...........
	131	1.76	6.42783E-002	-8.89541E-005	0.00000E+000	-5.71781E-006	-5.39641E-002	6.42848E-002	3.57260E+000	9	...........
	132	1.77333	6.04162E-002	-8.90958E-005	0.00000E+000	-5.38282E-006	-5.39641E-002	6.04188E-002	3.57260E+000	9	...........
	133	1.78667	5.65656E-002	-8.89353E-005	0.00000E+000	-5.03068E-006	-5.39641E-002	5.65642E-002	3.57260E+000	9	...........
	134	1.8	5.27135E-002	-8.84321E-005	0.00000E+000	-4.66156E-006	-5.39641E-002	5.27150E-002	3.57260E+000	9	...........
	135	1.81333	4.89027E-002	-8.87509E-005	0.00000E+000	-4.34016E-006	-5.39641E-002	4.89034E-002	3.57260E+000	9	...........
	136	1.82667	4.51265E-002	-8.87926E-005	0.00000E+000	-4.00690E-006	-5.39641E-002	4.51359E-002	3.57260E+000	9	...........
	137	1.84	4.13497E-002	-8.87551E-005	0.00000E+000	-3.67000E-006	-5.39641E-002	4.13559E-002	3.57260E+000	9	...........
	138	1.85333	3.75877E-002	-8.89853E-005	0.00000E+000	-3.34475E-006	-5.39641E-002	3.75943E-002	3.57260E+000	9	...........
	139	1.86667	3.38546E-002	-8.87176E-005	0.00000E+000	-3.00350E-006	-5.39641E-002	3.38566E-002	3.57260E+000	9	...........
	140	1.88	3.01422E-002	-8.88093E-005	0.00000E+000	-2.67691E-006	-5.39641E-002	3.01447E-002	3.57260E+000	9	...........
	141	1.89333	2.64533E-002	-8.87770E-005	0.00000E+000	-2.34845E-006	-5.39641E-002	2.64514E-002	3.57260E+000	9	...........
	142	1.90667	2.27706E-002	-8.86186E-005	0.00000E+000	-2.01790E-006	-5.39641E-002	2.27666E-002	3.57260E+000	9	...........
	143	1.92	1.90996E-002	-8.88259E-005	0.00000E+000	-1.69654E-006	-5.39641E-002	1.90927E-002	3.57260E+000	9	...........
	144	1.93333	1.54589E-002	-8.87249E-005	0.00000E+000	-1.37159E-006	-5.39641E-002	1.54457E-002	3.57260E+000	9	...........
	145	1.94667	1.18364E-002	-8.87988E-005	0.00000E+000	-1.05106E-006	-5.39641E-002	1.18245E-002	3.57260E+000	9	...........
	146	1.96	8.23514E-003	-8.88905E-005	0.00000E+000	-7.32026E-007	-5.39641E-002	8.22069E-003	3.57260E+000	9	...........
	147	1.97333	4.64833E-003	-8.90103E-005	0.00000E+000	-4.13749E-007	-5.39641E-002	4.63509E-003	3.57260E+000	9	...........
	148	1.985	1.29419E-003	-8.85510E-005	0.00000E+000	-1.14602E-007	-5.39641E-002	1.27952E-003	3.57263E+000	9	...........
STARTTIMEOFFSET	QUANT	2871.306	Start Time Offset (s)
