EXPLAIN
TAG	PWR800_DISCHARGE
TITLE	LABEL	PWR Cyclic Charge Discharge (Cell) - Discharge Step	Test &Identifier
DATE	LABEL	10-7-2017	Date
TIME	LABEL	15:30:17	Time
NOTES	NOTES	3	&Notes...
	supercap test cell
	0.9mg
	6M KOH
PSTAT	PSTAT	IFC5000-01520	Potentiostat
CAPACITY	QUANT	1.00000E-003	Capacity (A-hr)
CELLTYPE	SELECTOR	1	&Cell Type
WORKINGCONNECTION	SELECTOR	0	&Working Lead
MAXDISCHARGETIME	VARIABLEANDUNITS	1.00000E+002	s	1.00000E+002	second(s)	Max &Discharge Time
DISCHARGEMODE	MULTIPARAM	0	9.00000E-005	&Discharge Mode	Constant Current	Amp(s)
SAMPLETIME	QUANT	1.00000E-002	Sa&mple Period (s)
DISCHARGESTOPAT1	MULTIPARAM	3	0.00000E+000	Discharge Stop At &1	Voltage < Limit	V
DISCHARGESTOPAT2	MULTIPARAM	0	0.00000E+000	Discharge Stop At &2	None	N/A
AESBHCSELECTOR	TOGGLE	F	Save Both Half Cells
IRCOMP	TOGGLE	F	IR &Measure
EOC	QUANT	0	Open Circuit (V)
SEQUENCER	TOGGLE	TRUE	Run as Sequence
PSTATMODEL	IQUANT	53	Pstat Model
PSTATSECTION	LABEL	IFC5000-01520	Pstat Section
PSTATSERIALNO	LABEL	01520	Pstat Serial Number
CTRLMODE	IQUANT	0	Control Mode
ELECTROMETER	IQUANT	1	RE=0 or CS=1
IESTAB	IQUANT	0	I/E Stability
CASPEED	IQUANT	4	Control Amp Speed
CONVENTION	IQUANT	1	Current Convention
ICHRANGE	IQUANT	2	Ich Range
ICHRANGEMODE	TOGGLE	T	Ich Auto Range
ICHOFFSETENABLE	TOGGLE	F	Ich Offset Enable
ICHOFFSET	QUANT	0	Ich Offset (V)
ICHFILTER	IQUANT	1	Ich Filter
VCHRANGE	IQUANT	2	Vch Range
VCHRANGEMODE	TOGGLE	T	Vch Auto Range
VCHOFFSETENABLE	TOGGLE	F	Vch Offset Enable
VCHOFFSET	QUANT	0	Vch Offset (V)
VCHFILTER	IQUANT	1	Vch Filter
IERANGELOWERLIMIT	IQUANT	9	I/E Range Lower Limit
IERANGEMODE	TOGGLE	F	I/E AutoRange
IERANGE	IQUANT	9	I/E Range
ACHSELECT	IQUANT	1	Ach Select
ACHRANGE	IQUANT	2	Ach Range
ACHOFFSETENABLE	TOGGLE	F	Ach Offset Enable
ACHOFFSET	QUANT	0	Ach Offset (V)
ACHFILTER	IQUANT	1	Ach Filter
CABLEID	IQUANT	14	Cable ID
DCCALDATE	LABEL	5-7-2017	DC Calibration Date
ACCALDATE	LABEL	12/3/2015	AC Calibration Date
FRAMEWORKVERSION	QUANT	7.01	Framework Version
INSTRUMENTVERSION	LABEL	4.00	Instrument Version
CURVE	TABLE	156
	Pt	T	Vf	Im	Vu	Pwr	Sig	Ach	Temp	IERange	Over
	#	s	V	A	V	W	V	V	deg C	#	bits
	0	0.013333	8.18025E-001	-8.86019E-005	0.00000E+000	-7.24786E-005	-5.39641E-002	8.18176E-001	3.57230E+000	9	...........
	1	0.026667	8.04909E-001	-8.89999E-005	0.00000E+000	-7.16368E-005	-5.39641E-002	8.05020E-001	3.57230E+000	9	...........
	2	0.04	7.92608E-001	-8.87384E-005	0.00000E+000	-7.03348E-005	-5.39641E-002	7.92716E-001	3.57230E+000	9	...........
	3	0.053333	7.81004E-001	-8.87426E-005	0.00000E+000	-6.93083E-005	-5.39641E-002	7.81107E-001	3.57230E+000	9	...........
	4	0.066667	7.69927E-001	-8.88582E-005	0.00000E+000	-6.84144E-005	-5.39641E-002	7.70020E-001	3.57230E+000	9	...........
	5	0.08	7.59306E-001	-8.89947E-005	0.00000E+000	-6.75742E-005	-5.39641E-002	7.59430E-001	3.57230E+000	9	...........
	6	0.093333	7.49128E-001	-8.90010E-005	0.00000E+000	-6.66731E-005	-5.39641E-002	7.49230E-001	3.57230E+000	9	...........
	7	0.106667	7.39242E-001	-8.85957E-005	0.00000E+000	-6.54937E-005	-5.39641E-002	7.39340E-001	3.57230E+000	9	...........
	8	0.12	7.29736E-001	-8.87697E-005	0.00000E+000	-6.47784E-005	-5.39641E-002	7.29824E-001	3.57230E+000	9	...........
	9	0.133333	7.20522E-001	-8.89478E-005	0.00000E+000	-6.40888E-005	-5.39641E-002	7.20631E-001	3.57230E+000	9	...........
	10	0.146667	7.11523E-001	-8.87509E-005	0.00000E+000	-6.31483E-005	-5.39641E-002	7.11659E-001	3.57230E+000	9	...........
	11	0.16	7.02836E-001	-8.86238E-005	0.00000E+000	-6.22880E-005	-5.39641E-002	7.02941E-001	3.57230E+000	9	...........
	12	0.173333	6.94342E-001	-8.88416E-005	0.00000E+000	-6.16864E-005	-5.39641E-002	6.94463E-001	3.57230E+000	9	...........
	13	0.186667	6.86047E-001	-8.87634E-005	0.00000E+000	-6.08959E-005	-5.39641E-002	6.86170E-001	3.57230E+000	9	...........
	14	0.2	6.77969E-001	-8.86759E-005	0.00000E+000	-6.01196E-005	-5.39641E-002	6.78087E-001	3.57230E+000	9	...........
	15	0.213333	6.70083E-001	-8.86644E-005	0.00000E+000	-5.94125E-005	-5.39641E-002	6.70213E-001	3.57230E+000	9	...........
	16	0.226667	6.62351E-001	-8.88822E-005	0.00000E+000	-5.88712E-005	-5.39641E-002	6.62475E-001	3.57230E+000	9	...........
	17	0.24	6.54793E-001	-8.89822E-005	0.00000E+000	-5.82650E-005	-5.39641E-002	6.54884E-001	3.57230E+000	9	...........
	18	0.253333	6.47341E-001	-8.86832E-005	0.00000E+000	-5.74082E-005	-5.39641E-002	6.47491E-001	3.57230E+000	9	...........
	19	0.266667	6.40079E-001	-8.87217E-005	0.00000E+000	-5.67889E-005	-5.39641E-002	6.40174E-001	3.57230E+000	9	...........
	20	0.28	6.32894E-001	-8.88113E-005	0.00000E+000	-5.62082E-005	-5.39641E-002	6.32976E-001	3.57230E+000	9	...........
	21	0.293333	6.25880E-001	-8.87249E-005	0.00000E+000	-5.55311E-005	-5.39641E-002	6.25972E-001	3.57230E+000	9	...........
	22	0.306667	6.18993E-001	-8.86759E-005	0.00000E+000	-5.48897E-005	-5.39641E-002	6.19077E-001	3.57230E+000	9	...........
	23	0.32	6.12134E-001	-8.87176E-005	0.00000E+000	-5.43070E-005	-5.39641E-002	6.12267E-001	3.57230E+000	9	...........
	24	0.333333	6.05423E-001	-8.89958E-005	0.00000E+000	-5.38801E-005	-5.39641E-002	6.05570E-001	3.57230E+000	9	...........
	25	0.346667	5.98814E-001	-8.87457E-005	0.00000E+000	-5.31422E-005	-5.39641E-002	5.98938E-001	3.57230E+000	9	...........
	26	0.36	5.92319E-001	-8.86957E-005	0.00000E+000	-5.25362E-005	-5.39641E-002	5.92418E-001	3.57230E+000	9	...........
	27	0.373333	5.85858E-001	-8.88509E-005	0.00000E+000	-5.20540E-005	-5.39641E-002	5.85977E-001	3.57230E+000	9	...........
	28	0.386667	5.79518E-001	-8.87728E-005	0.00000E+000	-5.14454E-005	-5.39641E-002	5.79621E-001	3.57230E+000	9	...........
	29	0.4	5.73275E-001	-8.89249E-005	0.00000E+000	-5.09784E-005	-5.39641E-002	5.73345E-001	3.57230E+000	9	...........
	30	0.413333	5.67124E-001	-8.86488E-005	0.00000E+000	-5.02748E-005	-5.39641E-002	5.67192E-001	3.57230E+000	9	...........
	31	0.426667	5.60994E-001	-8.85686E-005	0.00000E+000	-4.96864E-005	-5.39641E-002	5.61082E-001	3.57230E+000	9	...........
	32	0.44	5.54984E-001	-8.87634E-005	0.00000E+000	-4.92623E-005	-5.39641E-002	5.55034E-001	3.57230E+000	9	...........
	33	0.453333	5.49016E-001	-8.89155E-005	0.00000E+000	-4.88160E-005	-5.39641E-002	5.49059E-001	3.57230E+000	9	...........
	34	0.466667	5.43096E-001	-8.88030E-005	0.00000E+000	-4.82285E-005	-5.39641E-002	5.43157E-001	3.57230E+000	9	...........
	35	0.48	5.37212E-001	-8.87488E-005	0.00000E+000	-4.76770E-005	-5.39641E-002	5.37270E-001	3.57230E+000	9	...........
	36	0.493333	5.31367E-001	-8.87915E-005	0.00000E+000	-4.71809E-005	-5.39641E-002	5.31445E-001	3.57230E+000	9	...........
	37	0.506667	5.25597E-001	-8.87207E-005	0.00000E+000	-4.66313E-005	-5.39641E-002	5.25701E-001	3.57230E+000	9	...........
	38	0.52	5.19890E-001	-8.89582E-005	0.00000E+000	-4.62485E-005	-5.39641E-002	5.19969E-001	3.57230E+000	9	...........
	39	0.533333	5.14244E-001	-8.87634E-005	0.00000E+000	-4.56461E-005	-5.39641E-002	5.14309E-001	3.57230E+000	9	...........
	40	0.546667	5.08538E-001	-8.89166E-005	0.00000E+000	-4.52175E-005	-5.39641E-002	5.08665E-001	3.57230E+000	9	...........
	41	0.56	5.02950E-001	-8.87520E-005	0.00000E+000	-4.46378E-005	-5.39641E-002	5.03053E-001	3.57230E+000	9	...........
	42	0.573333	4.97379E-001	-8.86957E-005	0.00000E+000	-4.41154E-005	-5.39641E-002	4.97490E-001	3.57230E+000	9	...........
	43	0.586667	4.91891E-001	-8.87832E-005	0.00000E+000	-4.36716E-005	-5.39641E-002	4.91974E-001	3.57230E+000	9	...........
	44	0.6	4.86419E-001	-8.89666E-005	0.00000E+000	-4.32750E-005	-5.39641E-002	4.86510E-001	3.57230E+000	9	...........
	45	0.613333	4.81069E-001	-8.87853E-005	0.00000E+000	-4.27118E-005	-5.39641E-002	4.81130E-001	3.57230E+000	9	...........
	46	0.626667	4.75660E-001	-8.88697E-005	0.00000E+000	-4.22718E-005	-5.39641E-002	4.75718E-001	3.57230E+000	9	...........
	47	0.64	4.70286E-001	-8.87269E-005	0.00000E+000	-4.17270E-005	-5.39641E-002	4.70341E-001	3.57230E+000	9	...........
	48	0.653333	4.64938E-001	-8.88082E-005	0.00000E+000	-4.12903E-005	-5.39641E-002	4.64994E-001	3.57230E+000	9	...........
	49	0.666667	4.59601E-001	-8.88811E-005	0.00000E+000	-4.08499E-005	-5.39641E-002	4.59660E-001	3.57230E+000	9	...........
	50	0.68	4.54298E-001	-8.87322E-005	0.00000E+000	-4.03109E-005	-5.39641E-002	4.54356E-001	3.57230E+000	9	...........
	51	0.693333	4.49025E-001	-8.88280E-005	0.00000E+000	-3.98860E-005	-5.39641E-002	4.49082E-001	3.57230E+000	9	...........
	52	0.706667	4.43764E-001	-8.89405E-005	0.00000E+000	-3.94686E-005	-5.39641E-002	4.43821E-001	3.57230E+000	9	...........
	53	0.72	4.38539E-001	-8.86999E-005	0.00000E+000	-3.88984E-005	-5.39641E-002	4.38592E-001	3.57230E+000	9	...........
	54	0.733333	4.33327E-001	-8.85769E-005	0.00000E+000	-3.83827E-005	-5.39641E-002	4.33379E-001	3.57230E+000	9	...........
	55	0.746667	4.28139E-001	-8.87540E-005	0.00000E+000	-3.79991E-005	-5.39641E-002	4.28191E-001	3.57230E+000	9	...........
	56	0.76	4.22978E-001	-8.87478E-005	0.00000E+000	-3.75384E-005	-5.39641E-002	4.23032E-001	3.57230E+000	9	...........
	57	0.773333	4.17841E-001	-8.84842E-005	0.00000E+000	-3.69724E-005	-5.39641E-002	4.17892E-001	3.57230E+000	9	...........
	58	0.786667	4.12719E-001	-8.87968E-005	0.00000E+000	-3.66481E-005	-5.39641E-002	4.12770E-001	3.57230E+000	9	...........
	59	0.8	4.07630E-001	-8.87634E-005	0.00000E+000	-3.61826E-005	-5.39641E-002	4.07670E-001	3.57230E+000	9	...........
	60	0.813333	4.02546E-001	-8.86134E-005	0.00000E+000	-3.56709E-005	-5.39641E-002	4.02589E-001	3.57230E+000	9	...........
	61	0.826667	3.97476E-001	-8.85873E-005	0.00000E+000	-3.52113E-005	-5.39641E-002	3.97523E-001	3.57230E+000	9	...........
	62	0.84	3.92421E-001	-8.87561E-005	0.00000E+000	-3.48298E-005	-5.39641E-002	3.92464E-001	3.57230E+000	9	...........
	63	0.853333	3.87379E-001	-8.88811E-005	0.00000E+000	-3.44307E-005	-5.39641E-002	3.87428E-001	3.57230E+000	9	...........
	64	0.866667	3.82372E-001	-8.86009E-005	0.00000E+000	-3.38785E-005	-5.39641E-002	3.82411E-001	3.57230E+000	9	...........
	65	0.88	3.77340E-001	-8.88947E-005	0.00000E+000	-3.35436E-005	-5.39641E-002	3.77381E-001	3.57230E+000	9	...........
	66	0.893333	3.72318E-001	-8.89020E-005	0.00000E+000	-3.30998E-005	-5.39641E-002	3.72361E-001	3.57230E+000	9	...........
	67	0.906667	3.67332E-001	-8.90249E-005	0.00000E+000	-3.27017E-005	-5.39641E-002	3.67370E-001	3.57230E+000	9	...........
	68	0.92	3.62355E-001	-8.88124E-005	0.00000E+000	-3.21816E-005	-5.39641E-002	3.62395E-001	3.57230E+000	9	...........
	69	0.933333	3.57395E-001	-8.87905E-005	0.00000E+000	-3.17333E-005	-5.39641E-002	3.57438E-001	3.57230E+000	9	...........
	70	0.946667	3.52438E-001	-8.87467E-005	0.00000E+000	-3.12777E-005	-5.39641E-002	3.52475E-001	3.57230E+000	9	...........
	71	0.96	3.47496E-001	-8.87624E-005	0.00000E+000	-3.08445E-005	-5.39641E-002	3.47536E-001	3.57230E+000	9	...........
	72	0.97333	3.42572E-001	-8.88009E-005	0.00000E+000	-3.04207E-005	-5.39641E-002	3.42615E-001	3.57230E+000	9	...........
	73	0.98667	3.37680E-001	-8.87467E-005	0.00000E+000	-2.99680E-005	-5.39641E-002	3.37721E-001	3.57230E+000	9	...........
	74	1	3.32815E-001	-8.87051E-005	0.00000E+000	-2.95224E-005	-5.39641E-002	3.32853E-001	3.57230E+000	9	...........
	75	1.01333	3.27970E-001	-8.86947E-005	0.00000E+000	-2.90892E-005	-5.39641E-002	3.28006E-001	3.57230E+000	9	...........
	76	1.02667	3.23129E-001	-8.88364E-005	0.00000E+000	-2.87056E-005	-5.39641E-002	3.23171E-001	3.57230E+000	9	...........
	77	1.04	3.18302E-001	-8.86290E-005	0.00000E+000	-2.82108E-005	-5.39641E-002	3.18341E-001	3.57230E+000	9	...........
	78	1.05333	3.13501E-001	-8.88801E-005	0.00000E+000	-2.78640E-005	-5.39641E-002	3.13537E-001	3.57230E+000	9	...........
	79	1.06667	3.08709E-001	-8.88436E-005	0.00000E+000	-2.74268E-005	-5.39641E-002	3.08744E-001	3.57230E+000	9	...........
	80	1.08	3.03934E-001	-8.88895E-005	0.00000E+000	-2.70165E-005	-5.39641E-002	3.03963E-001	3.57230E+000	9	...........
	81	1.09333	2.99159E-001	-8.88405E-005	0.00000E+000	-2.65774E-005	-5.39641E-002	2.99193E-001	3.57230E+000	9	...........
	82	1.10667	2.94440E-001	-8.90072E-005	0.00000E+000	-2.62073E-005	-5.39641E-002	2.94470E-001	3.57230E+000	9	...........
	83	1.12	2.89745E-001	-8.86613E-005	0.00000E+000	-2.56892E-005	-5.39641E-002	2.89771E-001	3.57230E+000	9	...........
	84	1.13333	2.85058E-001	-8.88541E-005	0.00000E+000	-2.53286E-005	-5.39641E-002	2.85092E-001	3.57230E+000	9	...........
	85	1.14667	2.80394E-001	-8.88249E-005	0.00000E+000	-2.49060E-005	-5.39641E-002	2.80424E-001	3.57230E+000	9	...........
	86	1.16	2.75758E-001	-8.86936E-005	0.00000E+000	-2.44580E-005	-5.39641E-002	2.75786E-001	3.57230E+000	9	...........
	87	1.17333	2.71119E-001	-8.90176E-005	0.00000E+000	-2.41344E-005	-5.39641E-002	2.71150E-001	3.57230E+000	9	...........
	88	1.18667	2.66514E-001	-8.87040E-005	0.00000E+000	-2.36409E-005	-5.39641E-002	2.66546E-001	3.57230E+000	9	...........
	89	1.2	2.61934E-001	-8.87238E-005	0.00000E+000	-2.32398E-005	-5.39641E-002	2.61968E-001	3.57230E+000	9	...........
	90	1.21333	2.57381E-001	-8.87822E-005	0.00000E+000	-2.28508E-005	-5.39641E-002	2.57407E-001	3.57230E+000	9	...........
	91	1.22667	2.52834E-001	-8.88311E-005	0.00000E+000	-2.24595E-005	-5.39641E-002	2.52867E-001	3.57230E+000	9	...........
	92	1.24	2.48308E-001	-8.85811E-005	0.00000E+000	-2.19954E-005	-5.39641E-002	2.48336E-001	3.57230E+000	9	...........
	93	1.25333	2.43790E-001	-8.87801E-005	0.00000E+000	-2.16437E-005	-5.39641E-002	2.43823E-001	3.57230E+000	9	...........
	94	1.26667	2.39318E-001	-8.87030E-005	0.00000E+000	-2.12282E-005	-5.39641E-002	2.39339E-001	3.57230E+000	9	...........
	95	1.28	2.34846E-001	-8.87061E-005	0.00000E+000	-2.08323E-005	-5.39641E-002	2.34868E-001	3.57230E+000	9	...........
	96	1.29333	2.30387E-001	-8.87957E-005	0.00000E+000	-2.04573E-005	-5.39641E-002	2.30412E-001	3.57230E+000	9	...........
	97	1.30667	2.25958E-001	-8.86936E-005	0.00000E+000	-2.00411E-005	-5.39641E-002	2.25983E-001	3.57230E+000	9	...........
	98	1.32	2.21520E-001	-8.87447E-005	0.00000E+000	-1.96587E-005	-5.39641E-002	2.21547E-001	3.57230E+000	9	...........
	99	1.33333	2.17115E-001	-8.90041E-005	0.00000E+000	-1.93241E-005	-5.39641E-002	2.17140E-001	3.57230E+000	9	...........
	100	1.34667	2.12697E-001	-8.87384E-005	0.00000E+000	-1.88744E-005	-5.39641E-002	2.12719E-001	3.57230E+000	9	...........
	101	1.36	2.08313E-001	-8.84738E-005	0.00000E+000	-1.84303E-005	-5.39641E-002	2.08331E-001	3.57230E+000	9	...........
	102	1.37333	2.03968E-001	-8.87405E-005	0.00000E+000	-1.81002E-005	-5.39641E-002	2.03990E-001	3.57230E+000	9	...........
	103	1.38667	1.99651E-001	-8.86394E-005	0.00000E+000	-1.76969E-005	-5.39641E-002	1.99672E-001	3.57230E+000	9	...........
	104	1.4	1.95350E-001	-8.90030E-005	0.00000E+000	-1.73867E-005	-5.39641E-002	1.95373E-001	3.57230E+000	9	...........
	105	1.41333	1.91072E-001	-8.87092E-005	0.00000E+000	-1.69498E-005	-5.39641E-002	1.91093E-001	3.57230E+000	9	...........
	106	1.42667	1.86818E-001	-8.85311E-005	0.00000E+000	-1.65392E-005	-5.39641E-002	1.86835E-001	3.57230E+000	9	...........
	107	1.44	1.82569E-001	-8.86571E-005	0.00000E+000	-1.61861E-005	-5.39641E-002	1.82588E-001	3.57230E+000	9	...........
	108	1.45333	1.78350E-001	-8.86686E-005	0.00000E+000	-1.58140E-005	-5.39641E-002	1.78373E-001	3.57230E+000	9	...........
	109	1.46667	1.74165E-001	-8.85134E-005	0.00000E+000	-1.54159E-005	-5.39641E-002	1.74182E-001	3.57230E+000	9	...........
	110	1.48	1.69991E-001	-8.86947E-005	0.00000E+000	-1.50773E-005	-5.39641E-002	1.70008E-001	3.57230E+000	9	...........
	111	1.49333	1.65828E-001	-8.88457E-005	0.00000E+000	-1.47331E-005	-5.39641E-002	1.65850E-001	3.57230E+000	9	...........
	112	1.50667	1.61693E-001	-8.85842E-005	0.00000E+000	-1.43235E-005	-5.39641E-002	1.61705E-001	3.57230E+000	9	...........
	113	1.52	1.57568E-001	-8.88572E-005	0.00000E+000	-1.40010E-005	-5.39641E-002	1.57582E-001	3.57230E+000	9	...........
	114	1.53333	1.53473E-001	-8.86780E-005	0.00000E+000	-1.36097E-005	-5.39641E-002	1.53487E-001	3.57230E+000	9	...........
	115	1.54667	1.49390E-001	-8.88186E-005	0.00000E+000	-1.32686E-005	-5.39641E-002	1.49401E-001	3.57230E+000	9	...........
	116	1.56	1.45309E-001	-8.89187E-005	0.00000E+000	-1.29206E-005	-5.39641E-002	1.45319E-001	3.57230E+000	9	...........
	117	1.57333	1.41235E-001	-8.86248E-005	0.00000E+000	-1.25170E-005	-5.39641E-002	1.41247E-001	3.57230E+000	9	...........
	118	1.58667	1.37173E-001	-8.86155E-005	0.00000E+000	-1.21557E-005	-5.39641E-002	1.37191E-001	3.57230E+000	9	...........
	119	1.6	1.33114E-001	-8.89926E-005	0.00000E+000	-1.18461E-005	-5.39641E-002	1.33127E-001	3.57230E+000	9	...........
	120	1.61333	1.29086E-001	-8.86884E-005	0.00000E+000	-1.14485E-005	-5.39641E-002	1.29098E-001	3.57230E+000	9	...........
	121	1.62667	1.25078E-001	-8.88343E-005	0.00000E+000	-1.11112E-005	-5.39641E-002	1.25088E-001	3.57230E+000	9	...........
	122	1.64	1.21087E-001	-8.89301E-005	0.00000E+000	-1.07683E-005	-5.39641E-002	1.21100E-001	3.57230E+000	9	...........
	123	1.65333	1.17132E-001	-8.87895E-005	0.00000E+000	-1.04000E-005	-5.39641E-002	1.17143E-001	3.57230E+000	9	...........
	124	1.66667	1.13205E-001	-8.88759E-005	0.00000E+000	-1.00612E-005	-5.39641E-002	1.13217E-001	3.57230E+000	9	...........
	125	1.68	1.09290E-001	-8.87551E-005	0.00000E+000	-9.70002E-006	-5.39641E-002	1.09297E-001	3.57230E+000	9	...........
	126	1.69333	1.05383E-001	-8.88634E-005	0.00000E+000	-9.36466E-006	-5.39641E-002	1.05394E-001	3.57230E+000	9	...........
	127	1.70667	1.01503E-001	-8.87176E-005	0.00000E+000	-9.00511E-006	-5.39641E-002	1.01512E-001	3.57230E+000	9	...........
	128	1.72	9.76244E-002	-8.86342E-005	0.00000E+000	-8.65286E-006	-5.39641E-002	9.76344E-002	3.57230E+000	9	...........
	129	1.73333	9.37613E-002	-8.86999E-005	0.00000E+000	-8.31661E-006	-5.39641E-002	9.37632E-002	3.57230E+000	9	...........
	130	1.74667	8.99189E-002	-8.89697E-005	0.00000E+000	-8.00006E-006	-5.39641E-002	8.99274E-002	3.57230E+000	9	...........
	131	1.76	8.60890E-002	-8.89780E-005	0.00000E+000	-7.66003E-006	-5.39641E-002	8.60938E-002	3.57230E+000	9	...........
	132	1.77333	8.22743E-002	-8.86863E-005	0.00000E+000	-7.29660E-006	-5.39641E-002	8.22822E-002	3.57230E+000	9	...........
	133	1.78667	7.84877E-002	-8.87082E-005	0.00000E+000	-6.96250E-006	-5.39641E-002	7.84918E-002	3.57230E+000	9	...........
	134	1.8	7.47242E-002	-8.89166E-005	0.00000E+000	-6.64422E-006	-5.39641E-002	7.47212E-002	3.57230E+000	9	...........
	135	1.81333	7.09727E-002	-8.87592E-005	0.00000E+000	-6.29948E-006	-5.39641E-002	7.09708E-002	3.57230E+000	9	...........
	136	1.82667	6.72360E-002	-8.87624E-005	0.00000E+000	-5.96803E-006	-5.39641E-002	6.72333E-002	3.57230E+000	9	...........
	137	1.84	6.35102E-002	-8.86603E-005	0.00000E+000	-5.63084E-006	-5.39641E-002	6.35092E-002	3.57230E+000	9	...........
	138	1.85333	5.97811E-002	-8.86488E-005	0.00000E+000	-5.29952E-006	-5.39641E-002	5.97812E-002	3.57230E+000	9	...........
	139	1.86667	5.60807E-002	-8.87770E-005	0.00000E+000	-4.97868E-006	-5.39641E-002	5.60747E-002	3.57230E+000	9	...........
	140	1.88	5.23904E-002	-8.86488E-005	0.00000E+000	-4.64434E-006	-5.39641E-002	5.23861E-002	3.57230E+000	9	...........
	141	1.89333	4.87171E-002	-8.89228E-005	0.00000E+000	-4.33206E-006	-5.39641E-002	4.87211E-002	3.57230E+000	9	...........
	142	1.90667	4.50627E-002	-8.85217E-005	0.00000E+000	-3.98902E-006	-5.39641E-002	4.50741E-002	3.57230E+000	9	...........
	143	1.92	4.14051E-002	-8.88416E-005	0.00000E+000	-3.67850E-006	-5.39641E-002	4.14149E-002	3.57230E+000	9	...........
	144	1.93333	3.77664E-002	-8.88541E-005	0.00000E+000	-3.35569E-006	-5.39641E-002	3.77727E-002	3.57230E+000	9	...........
	145	1.94667	3.41553E-002	-8.86613E-005	0.00000E+000	-3.02825E-006	-5.39641E-002	3.41603E-002	3.57230E+000	9	...........
	146	1.96	3.05692E-002	-8.85936E-005	0.00000E+000	-2.70824E-006	-5.39641E-002	3.05739E-002	3.57230E+000	9	...........
	147	1.97333	2.69938E-002	-8.85644E-005	0.00000E+000	-2.39069E-006	-5.39641E-002	2.69932E-002	3.57230E+000	9	...........
	148	1.98667	2.34284E-002	-8.90801E-005	0.00000E+000	-2.08700E-006	-5.39641E-002	2.34272E-002	3.57230E+000	9	...........
	149	2	1.98854E-002	-8.87322E-005	0.00000E+000	-1.76447E-006	-5.39641E-002	1.98836E-002	3.57230E+000	9	...........
	150	2.01333	1.63417E-002	-8.86790E-005	0.00000E+000	-1.44916E-006	-5.39641E-002	1.63347E-002	3.57230E+000	9	...........
	151	2.02667	1.28022E-002	-8.87197E-005	0.00000E+000	-1.13581E-006	-5.39641E-002	1.27923E-002	3.57230E+000	9	...........
	152	2.04	9.28248E-003	-8.85550E-005	0.00000E+000	-8.22011E-007	-5.39641E-002	9.27570E-003	3.57249E+000	9	...........
	153	2.05333	5.79682E-003	-8.89801E-005	0.00000E+000	-5.15802E-007	-5.39641E-002	5.78900E-003	3.57260E+000	9	...........
	154	2.06667	2.32568E-003	-8.84738E-005	0.00000E+000	-2.05762E-007	-5.39641E-002	2.31426E-003	3.57260E+000	9	...........
	155	2.07	1.64897E-004	-8.88541E-005	0.00000E+000	-1.46518E-008	-5.39641E-002	1.50421E-004	3.57260E+000	9	...........
STARTTIMEOFFSET	QUANT	1572.454	Start Time Offset (s)
