EXPLAIN
TAG	PWR800_DISCHARGE
TITLE	LABEL	PWR Cyclic Charge Discharge (Cell) - Discharge Step	Test &Identifier
DATE	LABEL	10-7-2017	Date
TIME	LABEL	16:04:37	Time
NOTES	NOTES	3	&Notes...
	supercap test cell
	0.9mg
	6M KOH
PSTAT	PSTAT	IFC5000-01520	Potentiostat
CAPACITY	QUANT	1.00000E-003	Capacity (A-hr)
CELLTYPE	SELECTOR	1	&Cell Type
WORKINGCONNECTION	SELECTOR	0	&Working Lead
MAXDISCHARGETIME	VARIABLEANDUNITS	1.00000E+002	s	1.00000E+002	second(s)	Max &Discharge Time
DISCHARGEMODE	MULTIPARAM	0	9.00000E-005	&Discharge Mode	Constant Current	Amp(s)
SAMPLETIME	QUANT	1.00000E-002	Sa&mple Period (s)
DISCHARGESTOPAT1	MULTIPARAM	3	0.00000E+000	Discharge Stop At &1	Voltage < Limit	V
DISCHARGESTOPAT2	MULTIPARAM	0	0.00000E+000	Discharge Stop At &2	None	N/A
AESBHCSELECTOR	TOGGLE	F	Save Both Half Cells
IRCOMP	TOGGLE	F	IR &Measure
EOC	QUANT	0	Open Circuit (V)
SEQUENCER	TOGGLE	TRUE	Run as Sequence
PSTATMODEL	IQUANT	53	Pstat Model
PSTATSECTION	LABEL	IFC5000-01520	Pstat Section
PSTATSERIALNO	LABEL	01520	Pstat Serial Number
CTRLMODE	IQUANT	0	Control Mode
ELECTROMETER	IQUANT	1	RE=0 or CS=1
IESTAB	IQUANT	0	I/E Stability
CASPEED	IQUANT	4	Control Amp Speed
CONVENTION	IQUANT	1	Current Convention
ICHRANGE	IQUANT	2	Ich Range
ICHRANGEMODE	TOGGLE	T	Ich Auto Range
ICHOFFSETENABLE	TOGGLE	F	Ich Offset Enable
ICHOFFSET	QUANT	0	Ich Offset (V)
ICHFILTER	IQUANT	1	Ich Filter
VCHRANGE	IQUANT	2	Vch Range
VCHRANGEMODE	TOGGLE	T	Vch Auto Range
VCHOFFSETENABLE	TOGGLE	F	Vch Offset Enable
VCHOFFSET	QUANT	0	Vch Offset (V)
VCHFILTER	IQUANT	1	Vch Filter
IERANGELOWERLIMIT	IQUANT	9	I/E Range Lower Limit
IERANGEMODE	TOGGLE	F	I/E AutoRange
IERANGE	IQUANT	9	I/E Range
ACHSELECT	IQUANT	1	Ach Select
ACHRANGE	IQUANT	2	Ach Range
ACHOFFSETENABLE	TOGGLE	F	Ach Offset Enable
ACHOFFSET	QUANT	0	Ach Offset (V)
ACHFILTER	IQUANT	1	Ach Filter
CABLEID	IQUANT	14	Cable ID
DCCALDATE	LABEL	5-7-2017	DC Calibration Date
ACCALDATE	LABEL	12/3/2015	AC Calibration Date
FRAMEWORKVERSION	QUANT	7.01	Framework Version
INSTRUMENTVERSION	LABEL	4.00	Instrument Version
CURVE	TABLE	148
	Pt	T	Vf	Im	Vu	Pwr	Sig	Ach	Temp	IERange	Over
	#	s	V	A	V	W	V	V	deg C	#	bits
	0	0.013333	7.98130E-001	-8.87155E-005	0.00000E+000	-7.08065E-005	-5.39641E-002	7.98255E-001	3.57270E+000	9	...........
	1	0.026667	7.84125E-001	-8.88009E-005	0.00000E+000	-6.96310E-005	-5.39641E-002	7.84236E-001	3.57270E+000	9	...........
	2	0.04	7.71068E-001	-8.86467E-005	0.00000E+000	-6.83526E-005	-5.39641E-002	7.71205E-001	3.57270E+000	9	...........
	3	0.053333	7.58797E-001	-8.87144E-005	0.00000E+000	-6.73162E-005	-5.39641E-002	7.58925E-001	3.57270E+000	9	...........
	4	0.066667	7.47151E-001	-8.87999E-005	0.00000E+000	-6.63469E-005	-5.39641E-002	7.47293E-001	3.57270E+000	9	...........
	5	0.08	7.36016E-001	-8.89093E-005	0.00000E+000	-6.54386E-005	-5.39641E-002	7.36114E-001	3.57270E+000	9	...........
	6	0.093333	7.25335E-001	-8.88989E-005	0.00000E+000	-6.44814E-005	-5.39641E-002	7.25470E-001	3.57270E+000	9	...........
	7	0.106667	7.15078E-001	-8.87155E-005	0.00000E+000	-6.34385E-005	-5.39641E-002	7.15204E-001	3.57270E+000	9	...........
	8	0.12	7.05201E-001	-8.86665E-005	0.00000E+000	-6.25277E-005	-5.39641E-002	7.05334E-001	3.57270E+000	9	...........
	9	0.133333	6.95654E-001	-8.87342E-005	0.00000E+000	-6.17283E-005	-5.39641E-002	6.95812E-001	3.57270E+000	9	...........
	10	0.146667	6.86399E-001	-8.87613E-005	0.00000E+000	-6.09257E-005	-5.39641E-002	6.86543E-001	3.57270E+000	9	...........
	11	0.16	6.77426E-001	-8.87280E-005	0.00000E+000	-6.01066E-005	-5.39641E-002	6.77557E-001	3.57270E+000	9	...........
	12	0.173333	6.68695E-001	-8.88530E-005	0.00000E+000	-5.94156E-005	-5.39641E-002	6.68825E-001	3.57270E+000	9	...........
	13	0.186667	6.60165E-001	-8.87144E-005	0.00000E+000	-5.85662E-005	-5.39641E-002	6.60299E-001	3.57270E+000	9	...........
	14	0.2	6.51877E-001	-8.87332E-005	0.00000E+000	-5.78432E-005	-5.39641E-002	6.52017E-001	3.57270E+000	9	...........
	15	0.213333	6.43807E-001	-8.89030E-005	0.00000E+000	-5.72364E-005	-5.39641E-002	6.43918E-001	3.57270E+000	9	...........
	16	0.226667	6.35906E-001	-8.86009E-005	0.00000E+000	-5.63419E-005	-5.39641E-002	6.36008E-001	3.57270E+000	9	...........
	17	0.24	6.28195E-001	-8.87447E-005	0.00000E+000	-5.57489E-005	-5.39641E-002	6.28264E-001	3.57270E+000	9	...........
	18	0.253333	6.20645E-001	-8.88593E-005	0.00000E+000	-5.51500E-005	-5.39641E-002	6.20724E-001	3.57270E+000	9	...........
	19	0.266667	6.13199E-001	-8.87915E-005	0.00000E+000	-5.44469E-005	-5.39641E-002	6.13297E-001	3.57270E+000	9	...........
	20	0.28	6.05918E-001	-8.87884E-005	0.00000E+000	-5.37985E-005	-5.39641E-002	6.06025E-001	3.57270E+000	9	...........
	21	0.293333	5.98778E-001	-8.88572E-005	0.00000E+000	-5.32057E-005	-5.39641E-002	5.98912E-001	3.57270E+000	9	...........
	22	0.306667	5.91809E-001	-8.87207E-005	0.00000E+000	-5.25057E-005	-5.39641E-002	5.91895E-001	3.57270E+000	9	...........
	23	0.32	5.84886E-001	-8.86780E-005	0.00000E+000	-5.18665E-005	-5.39641E-002	5.84971E-001	3.57270E+000	9	...........
	24	0.333333	5.78096E-001	-8.86176E-005	0.00000E+000	-5.12295E-005	-5.39641E-002	5.78205E-001	3.57270E+000	9	...........
	25	0.346667	5.71448E-001	-8.88874E-005	0.00000E+000	-5.07945E-005	-5.39641E-002	5.71545E-001	3.57270E+000	9	...........
	26	0.36	5.64878E-001	-8.85498E-005	0.00000E+000	-5.00198E-005	-5.39641E-002	5.64996E-001	3.57270E+000	9	...........
	27	0.373333	5.58383E-001	-8.89520E-005	0.00000E+000	-4.96693E-005	-5.39641E-002	5.58487E-001	3.57270E+000	9	...........
	28	0.386667	5.52007E-001	-8.90322E-005	0.00000E+000	-4.91464E-005	-5.39641E-002	5.52122E-001	3.57270E+000	9	...........
	29	0.4	5.45712E-001	-8.88759E-005	0.00000E+000	-4.85007E-005	-5.39641E-002	5.45819E-001	3.57270E+000	9	...........
	30	0.413333	5.39482E-001	-8.88374E-005	0.00000E+000	-4.79262E-005	-5.39641E-002	5.39624E-001	3.57270E+000	9	...........
	31	0.426667	5.33295E-001	-8.89135E-005	0.00000E+000	-4.74171E-005	-5.39641E-002	5.33439E-001	3.57270E+000	9	...........
	32	0.44	5.27243E-001	-8.86947E-005	0.00000E+000	-4.67636E-005	-5.39641E-002	5.27365E-001	3.57270E+000	9	...........
	33	0.453333	5.21252E-001	-8.89457E-005	0.00000E+000	-4.63631E-005	-5.39641E-002	5.21345E-001	3.57270E+000	9	...........
	34	0.466667	5.15344E-001	-8.86509E-005	0.00000E+000	-4.56857E-005	-5.39641E-002	5.15440E-001	3.57270E+000	9	...........
	35	0.48	5.09443E-001	-8.86530E-005	0.00000E+000	-4.51637E-005	-5.39641E-002	5.09568E-001	3.57270E+000	9	...........
	36	0.493333	5.03648E-001	-8.86248E-005	0.00000E+000	-4.46357E-005	-5.39641E-002	5.03760E-001	3.57270E+000	9	...........
	37	0.506667	4.97942E-001	-8.86790E-005	0.00000E+000	-4.41570E-005	-5.39641E-002	4.98048E-001	3.57270E+000	9	...........
	38	0.52	4.92260E-001	-8.86509E-005	0.00000E+000	-4.36393E-005	-5.39641E-002	4.92359E-001	3.57270E+000	9	...........
	39	0.533333	4.86612E-001	-8.90322E-005	0.00000E+000	-4.33242E-005	-5.39641E-002	4.86743E-001	3.57270E+000	9	...........
	40	0.546667	4.81119E-001	-8.88020E-005	0.00000E+000	-4.27243E-005	-5.39641E-002	4.81182E-001	3.57270E+000	9	...........
	41	0.56	4.75572E-001	-8.86353E-005	0.00000E+000	-4.21525E-005	-5.39641E-002	4.75640E-001	3.57270E+000	9	...........
	42	0.573333	4.70068E-001	-8.87801E-005	0.00000E+000	-4.17327E-005	-5.39641E-002	4.70133E-001	3.57270E+000	9	...........
	43	0.586667	4.64612E-001	-8.88166E-005	0.00000E+000	-4.12653E-005	-5.39641E-002	4.64674E-001	3.57270E+000	9	...........
	44	0.6	4.59192E-001	-8.87019E-005	0.00000E+000	-4.07312E-005	-5.39641E-002	4.59258E-001	3.57408E+000	9	...........
	45	0.613333	4.53798E-001	-8.88936E-005	0.00000E+000	-4.03398E-005	-5.39641E-002	4.53864E-001	3.57550E+000	9	...........
	46	0.626667	4.48437E-001	-8.86342E-005	0.00000E+000	-3.97468E-005	-5.39641E-002	4.48501E-001	3.57550E+000	9	...........
	47	0.64	4.43100E-001	-8.86426E-005	0.00000E+000	-3.92775E-005	-5.39641E-002	4.43157E-001	3.57550E+000	9	...........
	48	0.653333	4.37799E-001	-8.89728E-005	0.00000E+000	-3.89522E-005	-5.39641E-002	4.37857E-001	3.57550E+000	9	...........
	49	0.666667	4.32531E-001	-8.87040E-005	0.00000E+000	-3.83673E-005	-5.39641E-002	4.32587E-001	3.57550E+000	9	...........
	50	0.68	4.27283E-001	-8.89426E-005	0.00000E+000	-3.80037E-005	-5.39641E-002	4.27338E-001	3.57550E+000	9	...........
	51	0.693333	4.22059E-001	-8.89322E-005	0.00000E+000	-3.75346E-005	-5.39641E-002	4.22119E-001	3.57550E+000	9	...........
	52	0.706667	4.16861E-001	-8.88207E-005	0.00000E+000	-3.70259E-005	-5.39641E-002	4.16914E-001	3.57550E+000	9	...........
	53	0.72	4.11683E-001	-8.88384E-005	0.00000E+000	-3.65733E-005	-5.39641E-002	4.11741E-001	3.57550E+000	9	...........
	54	0.733333	4.06522E-001	-8.88103E-005	0.00000E+000	-3.61033E-005	-5.39641E-002	4.06570E-001	3.57550E+000	9	...........
	55	0.746667	4.01393E-001	-8.89072E-005	0.00000E+000	-3.56868E-005	-5.39641E-002	4.01440E-001	3.57550E+000	9	...........
	56	0.76	3.96278E-001	-8.88520E-005	0.00000E+000	-3.52101E-005	-5.39641E-002	3.96333E-001	3.57550E+000	9	...........
	57	0.773333	3.91186E-001	-8.88989E-005	0.00000E+000	-3.47760E-005	-5.39641E-002	3.91240E-001	3.57550E+000	9	...........
	58	0.786667	3.86116E-001	-8.88416E-005	0.00000E+000	-3.43031E-005	-5.39641E-002	3.86165E-001	3.57550E+000	9	...........
	59	0.8	3.81033E-001	-8.87092E-005	0.00000E+000	-3.38012E-005	-5.39641E-002	3.81082E-001	3.57550E+000	9	...........
	60	0.813333	3.75975E-001	-8.86332E-005	0.00000E+000	-3.33239E-005	-5.39641E-002	3.76026E-001	3.57550E+000	9	...........
	61	0.826667	3.70940E-001	-8.89989E-005	0.00000E+000	-3.30132E-005	-5.39641E-002	3.70983E-001	3.57550E+000	9	...........
	62	0.84	3.65929E-001	-8.88364E-005	0.00000E+000	-3.25078E-005	-5.39641E-002	3.65977E-001	3.57550E+000	9	...........
	63	0.853333	3.60925E-001	-8.89989E-005	0.00000E+000	-3.21219E-005	-5.39641E-002	3.60970E-001	3.57550E+000	9	...........
	64	0.866667	3.55946E-001	-8.88249E-005	0.00000E+000	-3.16169E-005	-5.39641E-002	3.55988E-001	3.57550E+000	9	...........
	65	0.88	3.50979E-001	-8.87124E-005	0.00000E+000	-3.11361E-005	-5.39641E-002	3.51023E-001	3.57550E+000	9	...........
	66	0.893333	3.46024E-001	-8.88676E-005	0.00000E+000	-3.07503E-005	-5.39641E-002	3.46065E-001	3.57550E+000	9	...........
	67	0.906667	3.41073E-001	-8.88166E-005	0.00000E+000	-3.02929E-005	-5.39641E-002	3.41120E-001	3.57550E+000	9	...........
	68	0.92	3.36142E-001	-8.88843E-005	0.00000E+000	-2.98778E-005	-5.39641E-002	3.36190E-001	3.57550E+000	9	...........
	69	0.933333	3.31222E-001	-8.90635E-005	0.00000E+000	-2.94998E-005	-5.39641E-002	3.31269E-001	3.57550E+000	9	...........
	70	0.946667	3.26317E-001	-8.86665E-005	0.00000E+000	-2.89333E-005	-5.39641E-002	3.26364E-001	3.57550E+000	9	...........
	71	0.96	3.21430E-001	-8.88384E-005	0.00000E+000	-2.85553E-005	-5.39641E-002	3.21470E-001	3.57550E+000	9	...........
	72	0.97333	3.16549E-001	-8.88197E-005	0.00000E+000	-2.81158E-005	-5.39641E-002	3.16595E-001	3.57550E+000	9	...........
	73	0.98667	3.11690E-001	-8.86509E-005	0.00000E+000	-2.76316E-005	-5.39641E-002	3.11733E-001	3.57550E+000	9	...........
	74	1	3.06838E-001	-8.85352E-005	0.00000E+000	-2.71660E-005	-5.39641E-002	3.06881E-001	3.57550E+000	9	...........
	75	1.01333	3.01994E-001	-8.86613E-005	0.00000E+000	-2.67752E-005	-5.39641E-002	3.02036E-001	3.57550E+000	9	...........
	76	1.02667	2.97155E-001	-8.87801E-005	0.00000E+000	-2.63815E-005	-5.39641E-002	2.97196E-001	3.57550E+000	9	...........
	77	1.04	2.92344E-001	-8.86228E-005	0.00000E+000	-2.59084E-005	-5.39641E-002	2.92382E-001	3.57550E+000	9	...........
	78	1.05333	2.87540E-001	-8.90260E-005	0.00000E+000	-2.55985E-005	-5.39641E-002	2.87580E-001	3.57550E+000	9	...........
	79	1.06667	2.82763E-001	-8.88655E-005	0.00000E+000	-2.51278E-005	-5.39641E-002	2.82796E-001	3.57550E+000	9	...........
	80	1.08	2.78004E-001	-8.87863E-005	0.00000E+000	-2.46829E-005	-5.39641E-002	2.78043E-001	3.57550E+000	9	...........
	81	1.09333	2.73250E-001	-8.87832E-005	0.00000E+000	-2.42600E-005	-5.39641E-002	2.73287E-001	3.57550E+000	9	...........
	82	1.10667	2.68516E-001	-8.87613E-005	0.00000E+000	-2.38338E-005	-5.39641E-002	2.68547E-001	3.57550E+000	9	...........
	83	1.12	2.63788E-001	-8.89541E-005	0.00000E+000	-2.34650E-005	-5.39641E-002	2.63821E-001	3.57550E+000	9	...........
	84	1.13333	2.59082E-001	-8.89124E-005	0.00000E+000	-2.30356E-005	-5.39641E-002	2.59124E-001	3.57550E+000	9	...........
	85	1.14667	2.54394E-001	-8.89062E-005	0.00000E+000	-2.26172E-005	-5.39641E-002	2.54430E-001	3.57550E+000	9	...........
	86	1.16	2.49718E-001	-8.90135E-005	0.00000E+000	-2.22283E-005	-5.39641E-002	2.49753E-001	3.57550E+000	9	...........
	87	1.17333	2.45067E-001	-8.86749E-005	0.00000E+000	-2.17313E-005	-5.39641E-002	2.45094E-001	3.57550E+000	9	...........
	88	1.18667	2.40422E-001	-8.86988E-005	0.00000E+000	-2.13252E-005	-5.39641E-002	2.40452E-001	3.57550E+000	9	...........
	89	1.2	2.35772E-001	-8.86676E-005	0.00000E+000	-2.09053E-005	-5.39641E-002	2.35798E-001	3.57550E+000	9	...........
	90	1.21333	2.31134E-001	-8.85811E-005	0.00000E+000	-2.04741E-005	-5.39641E-002	2.31159E-001	3.57550E+000	9	...........
	91	1.22667	2.26521E-001	-8.87415E-005	0.00000E+000	-2.01018E-005	-5.39641E-002	2.26550E-001	3.57550E+000	9	...........
	92	1.24	2.21942E-001	-8.87113E-005	0.00000E+000	-1.96888E-005	-5.39641E-002	2.21966E-001	3.57550E+000	9	...........
	93	1.25333	2.17381E-001	-8.89124E-005	0.00000E+000	-1.93279E-005	-5.39641E-002	2.17411E-001	3.57550E+000	9	...........
	94	1.26667	2.12847E-001	-8.88822E-005	0.00000E+000	-1.89183E-005	-5.39641E-002	2.12871E-001	3.57550E+000	9	...........
	95	1.28	2.08303E-001	-8.85717E-005	0.00000E+000	-1.84498E-005	-5.39641E-002	2.08323E-001	3.57550E+000	9	...........
	96	1.29333	2.03784E-001	-8.91020E-005	0.00000E+000	-1.81576E-005	-5.39641E-002	2.03803E-001	3.57550E+000	9	...........
	97	1.30667	1.99295E-001	-8.89082E-005	0.00000E+000	-1.77190E-005	-5.39641E-002	1.99321E-001	3.57550E+000	9	...........
	98	1.32	1.94818E-001	-8.90322E-005	0.00000E+000	-1.73451E-005	-5.39641E-002	1.94837E-001	3.57550E+000	9	...........
	99	1.33333	1.90347E-001	-8.87488E-005	0.00000E+000	-1.68930E-005	-5.39641E-002	1.90368E-001	3.57550E+000	9	...........
	100	1.34667	1.85901E-001	-8.88655E-005	0.00000E+000	-1.65202E-005	-5.39641E-002	1.85920E-001	3.57550E+000	9	...........
	101	1.36	1.81519E-001	-8.87374E-005	0.00000E+000	-1.61075E-005	-5.39641E-002	1.81544E-001	3.57550E+000	9	...........
	102	1.37333	1.77150E-001	-8.89978E-005	0.00000E+000	-1.57660E-005	-5.39641E-002	1.77175E-001	3.57550E+000	9	...........
	103	1.38667	1.72804E-001	-8.88936E-005	0.00000E+000	-1.53611E-005	-5.39641E-002	1.72824E-001	3.57550E+000	9	...........
	104	1.4	1.68473E-001	-8.89457E-005	0.00000E+000	-1.49849E-005	-5.39641E-002	1.68495E-001	3.57550E+000	9	...........
	105	1.41333	1.64156E-001	-8.87947E-005	0.00000E+000	-1.45762E-005	-5.39641E-002	1.64177E-001	3.57550E+000	9	...........
	106	1.42667	1.59852E-001	-8.88343E-005	0.00000E+000	-1.42003E-005	-5.39641E-002	1.59872E-001	3.57550E+000	9	...........
	107	1.44	1.55567E-001	-8.87457E-005	0.00000E+000	-1.38059E-005	-5.39641E-002	1.55582E-001	3.57550E+000	9	...........
	108	1.45333	1.51310E-001	-8.88166E-005	0.00000E+000	-1.34389E-005	-5.39641E-002	1.51322E-001	3.57550E+000	9	...........
	109	1.46667	1.47062E-001	-8.87134E-005	0.00000E+000	-1.30464E-005	-5.39641E-002	1.47073E-001	3.57550E+000	9	...........
	110	1.48	1.42824E-001	-8.88499E-005	0.00000E+000	-1.26899E-005	-5.39641E-002	1.42833E-001	3.57550E+000	9	...........
	111	1.49333	1.38596E-001	-8.87197E-005	0.00000E+000	-1.22962E-005	-5.39641E-002	1.38611E-001	3.57550E+000	9	...........
	112	1.50667	1.34383E-001	-8.88197E-005	0.00000E+000	-1.19358E-005	-5.39641E-002	1.34398E-001	3.57550E+000	9	...........
	113	1.52	1.30189E-001	-8.86884E-005	0.00000E+000	-1.15462E-005	-5.39641E-002	1.30201E-001	3.57550E+000	9	...........
	114	1.53333	1.26026E-001	-8.87759E-005	0.00000E+000	-1.11881E-005	-5.39641E-002	1.26033E-001	3.57550E+000	9	...........
	115	1.54667	1.21870E-001	-8.87488E-005	0.00000E+000	-1.08158E-005	-5.39641E-002	1.21890E-001	3.57550E+000	9	...........
	116	1.56	1.17743E-001	-8.86884E-005	0.00000E+000	-1.04425E-005	-5.39641E-002	1.17759E-001	3.57550E+000	9	...........
	117	1.57333	1.13632E-001	-8.87072E-005	0.00000E+000	-1.00800E-005	-5.39641E-002	1.13647E-001	3.57550E+000	9	...........
	118	1.58667	1.09539E-001	-8.88364E-005	0.00000E+000	-9.73105E-006	-5.39641E-002	1.09554E-001	3.57550E+000	9	...........
	119	1.6	1.05469E-001	-8.86832E-005	0.00000E+000	-9.35334E-006	-5.39641E-002	1.05481E-001	3.57431E+000	9	...........
	120	1.61333	1.01413E-001	-8.86999E-005	0.00000E+000	-8.99535E-006	-5.39641E-002	1.01422E-001	3.57310E+000	9	...........
	121	1.62667	9.73707E-002	-8.87520E-005	0.00000E+000	-8.64184E-006	-5.39641E-002	9.73816E-002	3.57310E+000	9	...........
	122	1.64	9.33554E-002	-8.86936E-005	0.00000E+000	-8.28002E-006	-5.39641E-002	9.33616E-002	3.57310E+000	9	...........
	123	1.65333	8.93465E-002	-8.88728E-005	0.00000E+000	-7.94048E-006	-5.39641E-002	8.93597E-002	3.57310E+000	9	...........
	124	1.66667	8.53670E-002	-8.89885E-005	0.00000E+000	-7.59668E-006	-5.39641E-002	8.53708E-002	3.57310E+000	9	...........
	125	1.68	8.14043E-002	-8.87467E-005	0.00000E+000	-7.22437E-006	-5.39641E-002	8.14126E-002	3.57310E+000	9	...........
	126	1.69333	7.74556E-002	-8.88301E-005	0.00000E+000	-6.88039E-006	-5.39641E-002	7.74554E-002	3.57310E+000	9	...........
	127	1.70667	7.35187E-002	-8.90520E-005	0.00000E+000	-6.54699E-006	-5.39641E-002	7.35225E-002	3.57310E+000	9	...........
	128	1.72	6.96147E-002	-8.88166E-005	0.00000E+000	-6.18294E-006	-5.39641E-002	6.96097E-002	3.57310E+000	9	...........
	129	1.73333	6.57176E-002	-8.85425E-005	0.00000E+000	-5.81880E-006	-5.39641E-002	6.57222E-002	3.57310E+000	9	...........
	130	1.74667	6.18548E-002	-8.88728E-005	0.00000E+000	-5.49721E-006	-5.39641E-002	6.18547E-002	3.57310E+000	9	...........
	131	1.76	5.80112E-002	-8.89926E-005	0.00000E+000	-5.16257E-006	-5.39641E-002	5.80072E-002	3.57310E+000	9	...........
	132	1.77333	5.41826E-002	-8.87603E-005	0.00000E+000	-4.80926E-006	-5.39641E-002	5.41856E-002	3.57310E+000	9	...........
	133	1.78667	5.03738E-002	-8.88145E-005	0.00000E+000	-4.47392E-006	-5.39641E-002	5.03777E-002	3.57310E+000	9	...........
	134	1.8	4.65831E-002	-8.88489E-005	0.00000E+000	-4.13885E-006	-5.39641E-002	4.65929E-002	3.57310E+000	9	...........
	135	1.81333	4.28073E-002	-8.86999E-005	0.00000E+000	-3.79700E-006	-5.39641E-002	4.28134E-002	3.57310E+000	9	...........
	136	1.82667	3.90479E-002	-8.87457E-005	0.00000E+000	-3.46533E-006	-5.39641E-002	3.90496E-002	3.57310E+000	9	...........
	137	1.84	3.53015E-002	-8.87530E-005	0.00000E+000	-3.13312E-006	-5.39641E-002	3.53077E-002	3.57310E+000	9	...........
	138	1.85333	3.15701E-002	-8.87374E-005	0.00000E+000	-2.80145E-006	-5.39641E-002	3.15755E-002	3.57310E+000	9	...........
	139	1.86667	2.78608E-002	-8.87144E-005	0.00000E+000	-2.47165E-006	-5.39641E-002	2.78659E-002	3.57310E+000	9	...........
	140	1.88	2.41608E-002	-8.88489E-005	0.00000E+000	-2.14666E-006	-5.39641E-002	2.41645E-002	3.57310E+000	9	...........
	141	1.89333	2.04824E-002	-8.86134E-005	0.00000E+000	-1.81502E-006	-5.39641E-002	2.04785E-002	3.57310E+000	9	...........
	142	1.90667	1.68080E-002	-8.85092E-005	0.00000E+000	-1.48766E-006	-5.39641E-002	1.68022E-002	3.57310E+000	9	...........
	143	1.92	1.31568E-002	-8.89270E-005	0.00000E+000	-1.17000E-006	-5.39641E-002	1.31480E-002	3.57310E+000	9	...........
	144	1.93333	9.52506E-003	-8.87478E-005	0.00000E+000	-8.45328E-007	-5.39641E-002	9.51755E-003	3.57310E+000	9	...........
	145	1.94667	5.90803E-003	-8.88291E-005	0.00000E+000	-5.24804E-007	-5.39641E-002	5.89632E-003	3.57310E+000	9	...........
	146	1.96	2.31067E-003	-8.86446E-005	0.00000E+000	-2.04829E-007	-5.39641E-002	2.29293E-003	3.57310E+000	9	...........
	147	1.96333	6.88915E-005	-8.85665E-005	0.00000E+000	-6.10148E-009	-5.39641E-002	5.01609E-005	3.57310E+000	9	...........
STARTTIMEOFFSET	QUANT	3296.011	Start Time Offset (s)
