EXPLAIN
TAG	PWR800_DISCHARGE
TITLE	LABEL	PWR Cyclic Charge Discharge (Cell) - Discharge Step	Test &Identifier
DATE	LABEL	10-7-2017	Date
TIME	LABEL	15:14:45	Time
NOTES	NOTES	3	&Notes...
	supercap test cell
	0.9mg
	6M KOH
PSTAT	PSTAT	IFC5000-01520	Potentiostat
CAPACITY	QUANT	1.00000E-003	Capacity (A-hr)
CELLTYPE	SELECTOR	1	&Cell Type
WORKINGCONNECTION	SELECTOR	0	&Working Lead
MAXDISCHARGETIME	VARIABLEANDUNITS	1.00000E+002	s	1.00000E+002	second(s)	Max &Discharge Time
DISCHARGEMODE	MULTIPARAM	0	9.00000E-005	&Discharge Mode	Constant Current	Amp(s)
SAMPLETIME	QUANT	1.00000E-002	Sa&mple Period (s)
DISCHARGESTOPAT1	MULTIPARAM	3	0.00000E+000	Discharge Stop At &1	Voltage < Limit	V
DISCHARGESTOPAT2	MULTIPARAM	0	0.00000E+000	Discharge Stop At &2	None	N/A
AESBHCSELECTOR	TOGGLE	F	Save Both Half Cells
IRCOMP	TOGGLE	F	IR &Measure
EOC	QUANT	0	Open Circuit (V)
SEQUENCER	TOGGLE	TRUE	Run as Sequence
PSTATMODEL	IQUANT	53	Pstat Model
PSTATSECTION	LABEL	IFC5000-01520	Pstat Section
PSTATSERIALNO	LABEL	01520	Pstat Serial Number
CTRLMODE	IQUANT	0	Control Mode
ELECTROMETER	IQUANT	1	RE=0 or CS=1
IESTAB	IQUANT	0	I/E Stability
CASPEED	IQUANT	4	Control Amp Speed
CONVENTION	IQUANT	1	Current Convention
ICHRANGE	IQUANT	2	Ich Range
ICHRANGEMODE	TOGGLE	T	Ich Auto Range
ICHOFFSETENABLE	TOGGLE	F	Ich Offset Enable
ICHOFFSET	QUANT	0	Ich Offset (V)
ICHFILTER	IQUANT	1	Ich Filter
VCHRANGE	IQUANT	2	Vch Range
VCHRANGEMODE	TOGGLE	T	Vch Auto Range
VCHOFFSETENABLE	TOGGLE	F	Vch Offset Enable
VCHOFFSET	QUANT	0	Vch Offset (V)
VCHFILTER	IQUANT	1	Vch Filter
IERANGELOWERLIMIT	IQUANT	9	I/E Range Lower Limit
IERANGEMODE	TOGGLE	F	I/E AutoRange
IERANGE	IQUANT	9	I/E Range
ACHSELECT	IQUANT	1	Ach Select
ACHRANGE	IQUANT	2	Ach Range
ACHOFFSETENABLE	TOGGLE	F	Ach Offset Enable
ACHOFFSET	QUANT	0	Ach Offset (V)
ACHFILTER	IQUANT	1	Ach Filter
CABLEID	IQUANT	14	Cable ID
DCCALDATE	LABEL	5-7-2017	DC Calibration Date
ACCALDATE	LABEL	12/3/2015	AC Calibration Date
FRAMEWORKVERSION	QUANT	7.01	Framework Version
INSTRUMENTVERSION	LABEL	4.00	Instrument Version
CURVE	TABLE	163
	Pt	T	Vf	Im	Vu	Pwr	Sig	Ach	Temp	IERange	Over
	#	s	V	A	V	W	V	V	deg C	#	bits
	0	0.013333	8.27356E-001	-8.84706E-005	0.00000E+000	-7.31967E-005	-5.39641E-002	8.27532E-001	3.57190E+000	9	...........
	1	0.026667	8.15118E-001	-8.85800E-005	0.00000E+000	-7.22032E-005	-5.39641E-002	8.15290E-001	3.57190E+000	9	...........
	2	0.04	8.03625E-001	-8.83498E-005	0.00000E+000	-7.10001E-005	-5.39641E-002	8.03770E-001	3.57190E+000	9	...........
	3	0.053333	7.92701E-001	-8.86446E-005	0.00000E+000	-7.02687E-005	-5.39641E-002	7.92820E-001	3.57190E+000	9	...........
	4	0.066667	7.82237E-001	-8.86030E-005	0.00000E+000	-6.93085E-005	-5.39641E-002	7.82355E-001	3.57190E+000	9	...........
	5	0.08	7.72193E-001	-8.88666E-005	0.00000E+000	-6.86221E-005	-5.39641E-002	7.72311E-001	3.57190E+000	9	...........
	6	0.093333	7.62495E-001	-8.87311E-005	0.00000E+000	-6.76570E-005	-5.39641E-002	7.62614E-001	3.57190E+000	9	...........
	7	0.106667	7.53161E-001	-8.88572E-005	0.00000E+000	-6.69238E-005	-5.39641E-002	7.53280E-001	3.57190E+000	9	...........
	8	0.12	7.44068E-001	-8.87457E-005	0.00000E+000	-6.60328E-005	-5.39641E-002	7.44210E-001	3.57190E+000	9	...........
	9	0.133333	7.35236E-001	-8.87655E-005	0.00000E+000	-6.52636E-005	-5.39641E-002	7.35359E-001	3.57190E+000	9	...........
	10	0.146667	7.26660E-001	-8.85300E-005	0.00000E+000	-6.43312E-005	-5.39641E-002	7.26789E-001	3.57190E+000	9	...........
	11	0.16	7.18278E-001	-8.86665E-005	0.00000E+000	-6.36872E-005	-5.39641E-002	7.18398E-001	3.57190E+000	9	...........
	12	0.173333	7.10080E-001	-8.84436E-005	0.00000E+000	-6.28020E-005	-5.39641E-002	7.10209E-001	3.57190E+000	9	...........
	13	0.186667	7.02106E-001	-8.87697E-005	0.00000E+000	-6.23257E-005	-5.39641E-002	7.02245E-001	3.57190E+000	9	...........
	14	0.2	6.94327E-001	-8.87895E-005	0.00000E+000	-6.16489E-005	-5.39641E-002	6.94437E-001	3.57190E+000	9	...........
	15	0.213333	6.86641E-001	-8.84686E-005	0.00000E+000	-6.07462E-005	-5.39641E-002	6.86763E-001	3.57190E+000	9	...........
	16	0.226667	6.79164E-001	-8.86342E-005	0.00000E+000	-6.01971E-005	-5.39641E-002	6.79265E-001	3.57190E+000	9	...........
	17	0.24	6.71800E-001	-8.86592E-005	0.00000E+000	-5.95612E-005	-5.39641E-002	6.71895E-001	3.57190E+000	9	...........
	18	0.253333	6.64550E-001	-8.87988E-005	0.00000E+000	-5.90112E-005	-5.39641E-002	6.64693E-001	3.57190E+000	9	...........
	19	0.266667	6.57469E-001	-8.84748E-005	0.00000E+000	-5.81695E-005	-5.39641E-002	6.57564E-001	3.57190E+000	9	...........
	20	0.28	6.50503E-001	-8.85061E-005	0.00000E+000	-5.75735E-005	-5.39641E-002	6.50607E-001	3.57190E+000	9	...........
	21	0.293333	6.43637E-001	-8.86467E-005	0.00000E+000	-5.70563E-005	-5.39641E-002	6.43731E-001	3.57190E+000	9	...........
	22	0.306667	6.36867E-001	-8.85769E-005	0.00000E+000	-5.64117E-005	-5.39641E-002	6.36981E-001	3.57190E+000	9	...........
	23	0.32	6.30217E-001	-8.87884E-005	0.00000E+000	-5.59560E-005	-5.39641E-002	6.30318E-001	3.57190E+000	9	...........
	24	0.333333	6.23666E-001	-8.87999E-005	0.00000E+000	-5.53814E-005	-5.39641E-002	6.23743E-001	3.57190E+000	9	...........
	25	0.346667	6.17197E-001	-8.85248E-005	0.00000E+000	-5.46373E-005	-5.39641E-002	6.17291E-001	3.57190E+000	9	...........
	26	0.36	6.10718E-001	-8.89989E-005	0.00000E+000	-5.43533E-005	-5.39641E-002	6.10873E-001	3.57190E+000	9	...........
	27	0.373333	6.04400E-001	-8.87520E-005	0.00000E+000	-5.36417E-005	-5.39641E-002	6.04541E-001	3.57190E+000	9	...........
	28	0.386667	5.98148E-001	-8.86415E-005	0.00000E+000	-5.30207E-005	-5.39641E-002	5.98277E-001	3.57190E+000	9	...........
	29	0.4	5.91996E-001	-8.88009E-005	0.00000E+000	-5.25698E-005	-5.39641E-002	5.92116E-001	3.57190E+000	9	...........
	30	0.413333	5.85849E-001	-8.86582E-005	0.00000E+000	-5.19403E-005	-5.39641E-002	5.85968E-001	3.57190E+000	9	...........
	31	0.426667	5.79798E-001	-8.87436E-005	0.00000E+000	-5.14534E-005	-5.39641E-002	5.79936E-001	3.57190E+000	9	...........
	32	0.44	5.73836E-001	-8.86624E-005	0.00000E+000	-5.08776E-005	-5.39641E-002	5.73926E-001	3.57190E+000	9	...........
	33	0.453333	5.67930E-001	-8.87207E-005	0.00000E+000	-5.03872E-005	-5.39641E-002	5.68055E-001	3.57190E+000	9	...........
	34	0.466667	5.62007E-001	-8.84540E-005	0.00000E+000	-4.97117E-005	-5.39641E-002	5.62146E-001	3.57190E+000	9	...........
	35	0.48	5.56176E-001	-8.85748E-005	0.00000E+000	-4.92632E-005	-5.39641E-002	5.56289E-001	3.57190E+000	9	...........
	36	0.493333	5.50380E-001	-8.87863E-005	0.00000E+000	-4.88662E-005	-5.39641E-002	5.50509E-001	3.57190E+000	9	...........
	37	0.506667	5.44669E-001	-8.86603E-005	0.00000E+000	-4.82905E-005	-5.39641E-002	5.44790E-001	3.57190E+000	9	...........
	38	0.52	5.38961E-001	-8.86019E-005	0.00000E+000	-4.77529E-005	-5.39641E-002	5.39095E-001	3.57190E+000	9	...........
	39	0.533333	5.33295E-001	-8.86176E-005	0.00000E+000	-4.72593E-005	-5.39641E-002	5.33395E-001	3.57190E+000	9	...........
	40	0.546667	5.27709E-001	-8.85488E-005	0.00000E+000	-4.67280E-005	-5.39641E-002	5.27799E-001	3.57190E+000	9	...........
	41	0.56	5.22132E-001	-8.85446E-005	0.00000E+000	-4.62320E-005	-5.39641E-002	5.22211E-001	3.57190E+000	9	...........
	42	0.573333	5.16614E-001	-8.87092E-005	0.00000E+000	-4.58284E-005	-5.39641E-002	5.16685E-001	3.57190E+000	9	...........
	43	0.586667	5.11083E-001	-8.86947E-005	0.00000E+000	-4.53303E-005	-5.39641E-002	5.11196E-001	3.57190E+000	9	...........
	44	0.6	5.05600E-001	-8.89822E-005	0.00000E+000	-4.49894E-005	-5.39641E-002	5.05701E-001	3.57190E+000	9	...........
	45	0.613333	5.00146E-001	-8.86426E-005	0.00000E+000	-4.43342E-005	-5.39641E-002	5.00255E-001	3.57190E+000	9	...........
	46	0.626667	4.94752E-001	-8.88895E-005	0.00000E+000	-4.39782E-005	-5.39641E-002	4.94869E-001	3.57190E+000	9	...........
	47	0.64	4.89394E-001	-8.88166E-005	0.00000E+000	-4.34662E-005	-5.39641E-002	4.89474E-001	3.57190E+000	9	...........
	48	0.653333	4.84081E-001	-8.86686E-005	0.00000E+000	-4.29228E-005	-5.39641E-002	4.84157E-001	3.57190E+000	9	...........
	49	0.666667	4.78771E-001	-8.86155E-005	0.00000E+000	-4.24265E-005	-5.39641E-002	4.78831E-001	3.57190E+000	9	...........
	50	0.68	4.73477E-001	-8.88166E-005	0.00000E+000	-4.20526E-005	-5.39641E-002	4.73533E-001	3.57190E+000	9	...........
	51	0.693333	4.68206E-001	-8.86207E-005	0.00000E+000	-4.14927E-005	-5.39641E-002	4.68261E-001	3.57190E+000	9	...........
	52	0.706667	4.62966E-001	-8.86967E-005	0.00000E+000	-4.10635E-005	-5.39641E-002	4.63017E-001	3.57190E+000	9	...........
	53	0.72	4.57735E-001	-8.88238E-005	0.00000E+000	-4.06578E-005	-5.39641E-002	4.57788E-001	3.57190E+000	9	...........
	54	0.733333	4.52528E-001	-8.87749E-005	0.00000E+000	-4.01731E-005	-5.39641E-002	4.52584E-001	3.57190E+000	9	...........
	55	0.746667	4.47323E-001	-8.85936E-005	0.00000E+000	-3.96300E-005	-5.39641E-002	4.47375E-001	3.57190E+000	9	...........
	56	0.76	4.42157E-001	-8.85519E-005	0.00000E+000	-3.91538E-005	-5.39641E-002	4.42213E-001	3.57190E+000	9	...........
	57	0.773333	4.37005E-001	-8.87853E-005	0.00000E+000	-3.87996E-005	-5.39641E-002	4.37059E-001	3.57190E+000	9	...........
	58	0.786667	4.31857E-001	-8.87645E-005	0.00000E+000	-3.83336E-005	-5.39641E-002	4.31905E-001	3.57190E+000	9	...........
	59	0.8	4.26754E-001	-8.86551E-005	0.00000E+000	-3.78339E-005	-5.39641E-002	4.26804E-001	3.57190E+000	9	...........
	60	0.813333	4.21669E-001	-8.86342E-005	0.00000E+000	-3.73743E-005	-5.39641E-002	4.21718E-001	3.57222E+000	9	...........
	61	0.826667	4.16601E-001	-8.85988E-005	0.00000E+000	-3.69104E-005	-5.39641E-002	4.16649E-001	3.57320E+000	9	...........
	62	0.84	4.11520E-001	-8.85936E-005	0.00000E+000	-3.64581E-005	-5.39641E-002	4.11563E-001	3.57320E+000	9	...........
	63	0.853333	4.06436E-001	-8.89708E-005	0.00000E+000	-3.61609E-005	-5.39641E-002	4.06480E-001	3.57320E+000	9	...........
	64	0.866667	4.01389E-001	-8.88384E-005	0.00000E+000	-3.56588E-005	-5.39641E-002	4.01434E-001	3.57320E+000	9	...........
	65	0.88	3.96370E-001	-8.87895E-005	0.00000E+000	-3.51935E-005	-5.39641E-002	3.96412E-001	3.57320E+000	9	...........
	66	0.893333	3.91373E-001	-8.86822E-005	0.00000E+000	-3.47078E-005	-5.39641E-002	3.91413E-001	3.57320E+000	9	...........
	67	0.906667	3.86388E-001	-8.89062E-005	0.00000E+000	-3.43523E-005	-5.39641E-002	3.86431E-001	3.57320E+000	9	...........
	68	0.92	3.81430E-001	-8.88478E-005	0.00000E+000	-3.38893E-005	-5.39641E-002	3.81472E-001	3.57320E+000	9	...........
	69	0.933333	3.76475E-001	-8.86248E-005	0.00000E+000	-3.33651E-005	-5.39641E-002	3.76519E-001	3.57320E+000	9	...........
	70	0.946667	3.71538E-001	-8.86717E-005	0.00000E+000	-3.29449E-005	-5.39641E-002	3.71574E-001	3.57320E+000	9	...........
	71	0.96	3.66629E-001	-8.87853E-005	0.00000E+000	-3.25513E-005	-5.39641E-002	3.66670E-001	3.57320E+000	9	...........
	72	0.97333	3.61758E-001	-8.86321E-005	0.00000E+000	-3.20634E-005	-5.39641E-002	3.61792E-001	3.57320E+000	9	...........
	73	0.98667	3.56887E-001	-8.90114E-005	0.00000E+000	-3.17670E-005	-5.39641E-002	3.56920E-001	3.57320E+000	9	...........
	74	1	3.52037E-001	-8.86613E-005	0.00000E+000	-3.12120E-005	-5.39641E-002	3.52070E-001	3.57320E+000	9	...........
	75	1.01333	3.47210E-001	-8.87613E-005	0.00000E+000	-3.08188E-005	-5.39641E-002	3.47249E-001	3.57320E+000	9	...........
	76	1.02667	3.42397E-001	-8.84977E-005	0.00000E+000	-3.03013E-005	-5.39641E-002	3.42430E-001	3.57320E+000	9	...........
	77	1.04	3.37631E-001	-8.89457E-005	0.00000E+000	-3.00309E-005	-5.39641E-002	3.37659E-001	3.57320E+000	9	...........
	78	1.05333	3.32865E-001	-8.85790E-005	0.00000E+000	-2.94848E-005	-5.39641E-002	3.32903E-001	3.57320E+000	9	...........
	79	1.06667	3.28162E-001	-8.87665E-005	0.00000E+000	-2.91298E-005	-5.39641E-002	3.28194E-001	3.57320E+000	9	...........
	80	1.08	3.23456E-001	-8.87697E-005	0.00000E+000	-2.87131E-005	-5.39641E-002	3.23495E-001	3.57320E+000	9	...........
	81	1.09333	3.18778E-001	-8.87874E-005	0.00000E+000	-2.83035E-005	-5.39641E-002	3.18816E-001	3.57320E+000	9	...........
	82	1.10667	3.14112E-001	-8.84915E-005	0.00000E+000	-2.77962E-005	-5.39641E-002	3.14146E-001	3.57320E+000	9	...........
	83	1.12	3.09443E-001	-8.84790E-005	0.00000E+000	-2.73792E-005	-5.39641E-002	3.09479E-001	3.57320E+000	9	...........
	84	1.13333	3.04797E-001	-8.88020E-005	0.00000E+000	-2.70666E-005	-5.39641E-002	3.04830E-001	3.57320E+000	9	...........
	85	1.14667	3.00168E-001	-8.85738E-005	0.00000E+000	-2.65870E-005	-5.39641E-002	3.00196E-001	3.57320E+000	9	...........
	86	1.16	2.95560E-001	-8.87332E-005	0.00000E+000	-2.62260E-005	-5.39641E-002	2.95594E-001	3.57320E+000	9	...........
	87	1.17333	2.91011E-001	-8.85915E-005	0.00000E+000	-2.57811E-005	-5.39641E-002	2.91042E-001	3.57320E+000	9	...........
	88	1.18667	2.86483E-001	-8.88228E-005	0.00000E+000	-2.54462E-005	-5.39641E-002	2.86514E-001	3.57320E+000	9	...........
	89	1.2	2.81956E-001	-8.84925E-005	0.00000E+000	-2.49510E-005	-5.39641E-002	2.81990E-001	3.57320E+000	9	...........
	90	1.21333	2.77466E-001	-8.88218E-005	0.00000E+000	-2.46450E-005	-5.39641E-002	2.77494E-001	3.57320E+000	9	...........
	91	1.22667	2.72991E-001	-8.83685E-005	0.00000E+000	-2.41238E-005	-5.39641E-002	2.73020E-001	3.57320E+000	9	...........
	92	1.24	2.68535E-001	-8.85259E-005	0.00000E+000	-2.37723E-005	-5.39641E-002	2.68559E-001	3.57320E+000	9	...........
	93	1.25333	2.64101E-001	-8.87749E-005	0.00000E+000	-2.34455E-005	-5.39641E-002	2.64130E-001	3.57320E+000	9	...........
	94	1.26667	2.59694E-001	-8.86415E-005	0.00000E+000	-2.30197E-005	-5.39641E-002	2.59719E-001	3.57320E+000	9	...........
	95	1.28	2.55303E-001	-8.86363E-005	0.00000E+000	-2.26291E-005	-5.39641E-002	2.55330E-001	3.57320E+000	9	...........
	96	1.29333	2.50932E-001	-8.88322E-005	0.00000E+000	-2.22908E-005	-5.39641E-002	2.50957E-001	3.57320E+000	9	...........
	97	1.30667	2.46584E-001	-8.86801E-005	0.00000E+000	-2.18671E-005	-5.39641E-002	2.46600E-001	3.57320E+000	9	...........
	98	1.32	2.42244E-001	-8.84925E-005	0.00000E+000	-2.14367E-005	-5.39641E-002	2.42265E-001	3.57320E+000	9	...........
	99	1.33333	2.37925E-001	-8.85592E-005	0.00000E+000	-2.10704E-005	-5.39641E-002	2.37937E-001	3.57320E+000	9	...........
	100	1.34667	2.33614E-001	-8.87811E-005	0.00000E+000	-2.07405E-005	-5.39641E-002	2.33638E-001	3.57320E+000	9	...........
	101	1.36	2.29344E-001	-8.86957E-005	0.00000E+000	-2.03418E-005	-5.39641E-002	2.29359E-001	3.57320E+000	9	...........
	102	1.37333	2.25094E-001	-8.88280E-005	0.00000E+000	-1.99947E-005	-5.39641E-002	2.25114E-001	3.57320E+000	9	...........
	103	1.38667	2.20862E-001	-8.86967E-005	0.00000E+000	-1.95897E-005	-5.39641E-002	2.20881E-001	3.57320E+000	9	...........
	104	1.4	2.16650E-001	-8.86655E-005	0.00000E+000	-1.92094E-005	-5.39641E-002	2.16666E-001	3.57320E+000	9	...........
	105	1.41333	2.12490E-001	-8.87551E-005	0.00000E+000	-1.88596E-005	-5.39641E-002	2.12510E-001	3.57320E+000	9	...........
	106	1.42667	2.08328E-001	-8.86259E-005	0.00000E+000	-1.84633E-005	-5.39641E-002	2.08351E-001	3.57320E+000	9	...........
	107	1.44	2.04180E-001	-8.90833E-005	0.00000E+000	-1.81890E-005	-5.39641E-002	2.04198E-001	3.57320E+000	9	...........
	108	1.45333	2.00027E-001	-8.86853E-005	0.00000E+000	-1.77395E-005	-5.39641E-002	2.00049E-001	3.57320E+000	9	...........
	109	1.46667	1.95902E-001	-8.88124E-005	0.00000E+000	-1.73986E-005	-5.39641E-002	1.95920E-001	3.57320E+000	9	...........
	110	1.48	1.91808E-001	-8.85675E-005	0.00000E+000	-1.69879E-005	-5.39641E-002	1.91825E-001	3.57320E+000	9	...........
	111	1.49333	1.87729E-001	-8.86822E-005	0.00000E+000	-1.66482E-005	-5.39641E-002	1.87745E-001	3.57320E+000	9	...........
	112	1.50667	1.83659E-001	-8.85821E-005	0.00000E+000	-1.62689E-005	-5.39641E-002	1.83676E-001	3.57320E+000	9	...........
	113	1.52	1.79590E-001	-8.85405E-005	0.00000E+000	-1.59010E-005	-5.39641E-002	1.79606E-001	3.57320E+000	9	...........
	114	1.53333	1.75543E-001	-8.86050E-005	0.00000E+000	-1.55540E-005	-5.39641E-002	1.75557E-001	3.57320E+000	9	...........
	115	1.54667	1.71499E-001	-8.88061E-005	0.00000E+000	-1.52302E-005	-5.39641E-002	1.71512E-001	3.57320E+000	9	...........
	116	1.56	1.67471E-001	-8.87436E-005	0.00000E+000	-1.48620E-005	-5.39641E-002	1.67485E-001	3.57320E+000	9	...........
	117	1.57333	1.63475E-001	-8.89562E-005	0.00000E+000	-1.45421E-005	-5.39641E-002	1.63484E-001	3.57320E+000	9	...........
	118	1.58667	1.59501E-001	-8.88041E-005	0.00000E+000	-1.41643E-005	-5.39641E-002	1.59511E-001	3.57320E+000	9	...........
	119	1.6	1.55535E-001	-8.87301E-005	0.00000E+000	-1.38006E-005	-5.39641E-002	1.55543E-001	3.57320E+000	9	...........
	120	1.61333	1.51606E-001	-8.88634E-005	0.00000E+000	-1.34722E-005	-5.39641E-002	1.51614E-001	3.57320E+000	9	...........
	121	1.62667	1.47683E-001	-8.87936E-005	0.00000E+000	-1.31133E-005	-5.39641E-002	1.47697E-001	3.57320E+000	9	...........
	122	1.64	1.43774E-001	-8.86707E-005	0.00000E+000	-1.27485E-005	-5.39641E-002	1.43787E-001	3.57320E+000	9	...........
	123	1.65333	1.39880E-001	-8.85957E-005	0.00000E+000	-1.23928E-005	-5.39641E-002	1.39892E-001	3.57320E+000	9	...........
	124	1.66667	1.35999E-001	-8.89478E-005	0.00000E+000	-1.20968E-005	-5.39641E-002	1.36014E-001	3.57320E+000	9	...........
	125	1.68	1.32125E-001	-8.86592E-005	0.00000E+000	-1.17141E-005	-5.39641E-002	1.32139E-001	3.57320E+000	9	...........
	126	1.69333	1.28286E-001	-8.82904E-005	0.00000E+000	-1.13264E-005	-5.39641E-002	1.28295E-001	3.57320E+000	9	...........
	127	1.70667	1.24460E-001	-8.88353E-005	0.00000E+000	-1.10564E-005	-5.39641E-002	1.24464E-001	3.57320E+000	9	...........
	128	1.72	1.20636E-001	-8.86415E-005	0.00000E+000	-1.06933E-005	-5.39641E-002	1.20652E-001	3.57320E+000	9	...........
	129	1.73333	1.16837E-001	-8.86874E-005	0.00000E+000	-1.03620E-005	-5.39641E-002	1.16847E-001	3.57320E+000	9	...........
	130	1.74667	1.13026E-001	-8.88353E-005	0.00000E+000	-1.00407E-005	-5.39641E-002	1.13030E-001	3.57320E+000	9	...........
	131	1.76	1.09237E-001	-8.87738E-005	0.00000E+000	-9.69739E-006	-5.39641E-002	1.09241E-001	3.57320E+000	9	...........
	132	1.77333	1.05472E-001	-8.89103E-005	0.00000E+000	-9.37754E-006	-5.39641E-002	1.05481E-001	3.57320E+000	9	...........
	133	1.78667	1.01720E-001	-8.86071E-005	0.00000E+000	-9.01312E-006	-5.39641E-002	1.01730E-001	3.57320E+000	9	...........
	134	1.8	9.79879E-002	-8.88186E-005	0.00000E+000	-8.70315E-006	-5.39641E-002	9.79986E-002	3.57320E+000	9	...........
	135	1.81333	9.42805E-002	-8.86176E-005	0.00000E+000	-8.35491E-006	-5.39641E-002	9.42888E-002	3.57310E+000	9	...........
	136	1.82667	9.05726E-002	-8.85884E-005	0.00000E+000	-8.02368E-006	-5.39641E-002	9.05807E-002	3.57280E+000	9	...........
	137	1.84	8.68800E-002	-8.87332E-005	0.00000E+000	-7.70914E-006	-5.39641E-002	8.68827E-002	3.57280E+000	9	...........
	138	1.85333	8.32184E-002	-8.87530E-005	0.00000E+000	-7.38588E-006	-5.39641E-002	8.32185E-002	3.57280E+000	9	...........
	139	1.86667	7.95556E-002	-8.86290E-005	0.00000E+000	-7.05093E-006	-5.39641E-002	7.95587E-002	3.57280E+000	9	...........
	140	1.88	7.58981E-002	-8.89093E-005	0.00000E+000	-6.74805E-006	-5.39641E-002	7.58990E-002	3.57280E+000	9	...........
	141	1.89333	7.22486E-002	-8.86926E-005	0.00000E+000	-6.40792E-006	-5.39641E-002	7.22500E-002	3.57280E+000	9	...........
	142	1.90667	6.86188E-002	-8.88759E-005	0.00000E+000	-6.09856E-006	-5.39641E-002	6.86174E-002	3.57280E+000	9	...........
	143	1.92	6.50129E-002	-8.88238E-005	0.00000E+000	-5.77469E-006	-5.39641E-002	6.50088E-002	3.57280E+000	9	...........
	144	1.93333	6.14245E-002	-8.85457E-005	0.00000E+000	-5.43887E-006	-5.39641E-002	6.14235E-002	3.57280E+000	9	...........
	145	1.94667	5.78506E-002	-8.85665E-005	0.00000E+000	-5.12362E-006	-5.39641E-002	5.78473E-002	3.57280E+000	9	...........
	146	1.96	5.42972E-002	-8.86926E-005	0.00000E+000	-4.81575E-006	-5.39641E-002	5.42887E-002	3.57280E+000	9	...........
	147	1.97333	5.07717E-002	-8.85488E-005	0.00000E+000	-4.49577E-006	-5.39641E-002	5.07664E-002	3.57280E+000	9	...........
	148	1.98667	4.72645E-002	-8.89176E-005	0.00000E+000	-4.20264E-006	-5.39641E-002	4.72683E-002	3.57280E+000	9	...........
	149	2	4.37537E-002	-8.86373E-005	0.00000E+000	-3.87821E-006	-5.39641E-002	4.37630E-002	3.57280E+000	9	...........
	150	2.01333	4.02641E-002	-8.87509E-005	0.00000E+000	-3.57347E-006	-5.39641E-002	4.02689E-002	3.57280E+000	9	...........
	151	2.02667	3.67872E-002	-8.86811E-005	0.00000E+000	-3.26233E-006	-5.39641E-002	3.67928E-002	3.57280E+000	9	...........
	152	2.04	3.33359E-002	-8.87780E-005	0.00000E+000	-2.95949E-006	-5.39641E-002	3.33344E-002	3.57280E+000	9	...........
	153	2.05333	2.98848E-002	-8.86467E-005	0.00000E+000	-2.64919E-006	-5.39641E-002	2.98894E-002	3.57280E+000	9	...........
	154	2.06667	2.64510E-002	-8.86676E-005	0.00000E+000	-2.34534E-006	-5.39641E-002	2.64491E-002	3.57280E+000	9	...........
	155	2.08	2.30268E-002	-8.87947E-005	0.00000E+000	-2.04466E-006	-5.39641E-002	2.30284E-002	3.57280E+000	9	...........
	156	2.09333	1.96240E-002	-8.85498E-005	0.00000E+000	-1.73771E-006	-5.39641E-002	1.96208E-002	3.57280E+000	9	...........
	157	2.10667	1.62483E-002	-8.88020E-005	0.00000E+000	-1.44288E-006	-5.39641E-002	1.62395E-002	3.57280E+000	9	...........
	158	2.12	1.28783E-002	-8.84779E-005	0.00000E+000	-1.13945E-006	-5.39641E-002	1.28691E-002	3.57280E+000	9	...........
	159	2.13333	9.50387E-003	-8.86238E-005	0.00000E+000	-8.42269E-007	-5.39641E-002	9.49692E-003	3.57280E+000	9	...........
	160	2.14667	6.16408E-003	-8.86551E-005	0.00000E+000	-5.46477E-007	-5.39641E-002	6.15512E-003	3.57280E+000	9	...........
	161	2.16	2.81936E-003	-8.86519E-005	0.00000E+000	-2.49942E-007	-5.39641E-002	2.80608E-003	3.57280E+000	9	...........
	162	2.16667	3.35510E-004	-8.90333E-005	0.00000E+000	-2.98716E-008	-5.39641E-002	3.19006E-004	3.57280E+000	9	...........
STARTTIMEOFFSET	QUANT	787.3531	Start Time Offset (s)
