EXPLAIN
TAG	PWR800_DISCHARGE
TITLE	LABEL	PWR Cyclic Charge Discharge (Cell) - Discharge Step	Test &Identifier
DATE	LABEL	10-7-2017	Date
TIME	LABEL	15:57:27	Time
NOTES	NOTES	3	&Notes...
	supercap test cell
	0.9mg
	6M KOH
PSTAT	PSTAT	IFC5000-01520	Potentiostat
CAPACITY	QUANT	1.00000E-003	Capacity (A-hr)
CELLTYPE	SELECTOR	1	&Cell Type
WORKINGCONNECTION	SELECTOR	0	&Working Lead
MAXDISCHARGETIME	VARIABLEANDUNITS	1.00000E+002	s	1.00000E+002	second(s)	Max &Discharge Time
DISCHARGEMODE	MULTIPARAM	0	9.00000E-005	&Discharge Mode	Constant Current	Amp(s)
SAMPLETIME	QUANT	1.00000E-002	Sa&mple Period (s)
DISCHARGESTOPAT1	MULTIPARAM	3	0.00000E+000	Discharge Stop At &1	Voltage < Limit	V
DISCHARGESTOPAT2	MULTIPARAM	0	0.00000E+000	Discharge Stop At &2	None	N/A
AESBHCSELECTOR	TOGGLE	F	Save Both Half Cells
IRCOMP	TOGGLE	F	IR &Measure
EOC	QUANT	0	Open Circuit (V)
SEQUENCER	TOGGLE	TRUE	Run as Sequence
PSTATMODEL	IQUANT	53	Pstat Model
PSTATSECTION	LABEL	IFC5000-01520	Pstat Section
PSTATSERIALNO	LABEL	01520	Pstat Serial Number
CTRLMODE	IQUANT	0	Control Mode
ELECTROMETER	IQUANT	1	RE=0 or CS=1
IESTAB	IQUANT	0	I/E Stability
CASPEED	IQUANT	4	Control Amp Speed
CONVENTION	IQUANT	1	Current Convention
ICHRANGE	IQUANT	2	Ich Range
ICHRANGEMODE	TOGGLE	T	Ich Auto Range
ICHOFFSETENABLE	TOGGLE	F	Ich Offset Enable
ICHOFFSET	QUANT	0	Ich Offset (V)
ICHFILTER	IQUANT	1	Ich Filter
VCHRANGE	IQUANT	2	Vch Range
VCHRANGEMODE	TOGGLE	T	Vch Auto Range
VCHOFFSETENABLE	TOGGLE	F	Vch Offset Enable
VCHOFFSET	QUANT	0	Vch Offset (V)
VCHFILTER	IQUANT	1	Vch Filter
IERANGELOWERLIMIT	IQUANT	9	I/E Range Lower Limit
IERANGEMODE	TOGGLE	F	I/E AutoRange
IERANGE	IQUANT	9	I/E Range
ACHSELECT	IQUANT	1	Ach Select
ACHRANGE	IQUANT	2	Ach Range
ACHOFFSETENABLE	TOGGLE	F	Ach Offset Enable
ACHOFFSET	QUANT	0	Ach Offset (V)
ACHFILTER	IQUANT	1	Ach Filter
CABLEID	IQUANT	14	Cable ID
DCCALDATE	LABEL	5-7-2017	DC Calibration Date
ACCALDATE	LABEL	12/3/2015	AC Calibration Date
FRAMEWORKVERSION	QUANT	7.01	Framework Version
INSTRUMENTVERSION	LABEL	4.00	Instrument Version
CURVE	TABLE	149
	Pt	T	Vf	Im	Vu	Pwr	Sig	Ach	Temp	IERange	Over
	#	s	V	A	V	W	V	V	deg C	#	bits
	0	0.013333	8.09896E-001	-8.86936E-005	0.00000E+000	-7.18326E-005	-5.39641E-002	8.10032E-001	3.57270E+000	9	...........
	1	0.026667	7.95896E-001	-8.85998E-005	0.00000E+000	-7.05162E-005	-5.39641E-002	7.96017E-001	3.57270E+000	9	...........
	2	0.04	7.82815E-001	-8.88436E-005	0.00000E+000	-6.95481E-005	-5.39641E-002	7.82931E-001	3.57270E+000	9	...........
	3	0.053333	7.70469E-001	-8.85613E-005	0.00000E+000	-6.82337E-005	-5.39641E-002	7.70607E-001	3.57270E+000	9	...........
	4	0.066667	7.58743E-001	-8.88926E-005	0.00000E+000	-6.74467E-005	-5.39641E-002	7.58867E-001	3.57270E+000	9	...........
	5	0.08	7.47555E-001	-8.86613E-005	0.00000E+000	-6.62792E-005	-5.39641E-002	7.47658E-001	3.57270E+000	9	...........
	6	0.093333	7.36784E-001	-8.88926E-005	0.00000E+000	-6.54946E-005	-5.39641E-002	7.36918E-001	3.57270E+000	9	...........
	7	0.106667	7.26482E-001	-8.87019E-005	0.00000E+000	-6.44404E-005	-5.39641E-002	7.26571E-001	3.57270E+000	9	...........
	8	0.12	7.16486E-001	-8.85905E-005	0.00000E+000	-6.34738E-005	-5.39641E-002	7.16611E-001	3.57270E+000	9	...........
	9	0.133333	7.06836E-001	-8.89447E-005	0.00000E+000	-6.28694E-005	-5.39641E-002	7.06955E-001	3.57270E+000	9	...........
	10	0.146667	6.97488E-001	-8.88343E-005	0.00000E+000	-6.19608E-005	-5.39641E-002	6.97572E-001	3.57270E+000	9	...........
	11	0.16	6.88400E-001	-8.86697E-005	0.00000E+000	-6.10402E-005	-5.39641E-002	6.88499E-001	3.57273E+000	9	...........
	12	0.173333	6.79580E-001	-8.87228E-005	0.00000E+000	-6.02942E-005	-5.39641E-002	6.79697E-001	3.57280E+000	9	...........
	13	0.186667	6.70982E-001	-8.87561E-005	0.00000E+000	-5.95538E-005	-5.39641E-002	6.71092E-001	3.57280E+000	9	...........
	14	0.2	6.62593E-001	-8.90145E-005	0.00000E+000	-5.89804E-005	-5.39641E-002	6.62682E-001	3.57280E+000	9	...........
	15	0.213333	6.54407E-001	-8.84113E-005	0.00000E+000	-5.78569E-005	-5.39641E-002	6.54510E-001	3.57280E+000	9	...........
	16	0.226667	6.46413E-001	-8.89989E-005	0.00000E+000	-5.75300E-005	-5.39641E-002	6.46493E-001	3.57280E+000	9	...........
	17	0.24	6.38570E-001	-8.88551E-005	0.00000E+000	-5.67402E-005	-5.39641E-002	6.38671E-001	3.57280E+000	9	...........
	18	0.253333	6.30901E-001	-8.88176E-005	0.00000E+000	-5.60351E-005	-5.39641E-002	6.31002E-001	3.57280E+000	9	...........
	19	0.266667	6.23419E-001	-8.87165E-005	0.00000E+000	-5.53076E-005	-5.39641E-002	6.23513E-001	3.57280E+000	9	...........
	20	0.28	6.16088E-001	-8.87926E-005	0.00000E+000	-5.47040E-005	-5.39641E-002	6.16197E-001	3.57280E+000	9	...........
	21	0.293333	6.08816E-001	-8.89697E-005	0.00000E+000	-5.41662E-005	-5.39641E-002	6.08966E-001	3.57280E+000	9	...........
	22	0.306667	6.01749E-001	-8.87884E-005	0.00000E+000	-5.34283E-005	-5.39641E-002	6.01907E-001	3.57280E+000	9	...........
	23	0.32	5.94801E-001	-8.90447E-005	0.00000E+000	-5.29639E-005	-5.39641E-002	5.94918E-001	3.57280E+000	9	...........
	24	0.333333	5.87924E-001	-8.88884E-005	0.00000E+000	-5.22596E-005	-5.39641E-002	5.88050E-001	3.57280E+000	9	...........
	25	0.346667	5.81179E-001	-8.85748E-005	0.00000E+000	-5.14778E-005	-5.39641E-002	5.81293E-001	3.57280E+000	9	...........
	26	0.36	5.74563E-001	-8.88676E-005	0.00000E+000	-5.10600E-005	-5.39641E-002	5.74673E-001	3.57280E+000	9	...........
	27	0.373333	5.68055E-001	-8.87926E-005	0.00000E+000	-5.04391E-005	-5.39641E-002	5.68166E-001	3.57280E+000	9	...........
	28	0.386667	5.61609E-001	-8.88134E-005	0.00000E+000	-4.98784E-005	-5.39641E-002	5.61730E-001	3.57280E+000	9	...........
	29	0.4	5.55270E-001	-8.88364E-005	0.00000E+000	-4.93282E-005	-5.39641E-002	5.55399E-001	3.57280E+000	9	...........
	30	0.413333	5.49054E-001	-8.88124E-005	0.00000E+000	-4.87628E-005	-5.39641E-002	5.49136E-001	3.57280E+000	9	...........
	31	0.426667	5.42872E-001	-8.89166E-005	0.00000E+000	-4.82703E-005	-5.39641E-002	5.42962E-001	3.57280E+000	9	...........
	32	0.44	5.36726E-001	-8.90604E-005	0.00000E+000	-4.78010E-005	-5.39641E-002	5.36831E-001	3.57280E+000	9	...........
	33	0.453333	5.30679E-001	-8.84988E-005	0.00000E+000	-4.69644E-005	-5.39641E-002	5.30774E-001	3.57280E+000	9	...........
	34	0.466667	5.24713E-001	-8.86030E-005	0.00000E+000	-4.64911E-005	-5.39641E-002	5.24792E-001	3.57280E+000	9	...........
	35	0.48	5.18824E-001	-8.86426E-005	0.00000E+000	-4.59899E-005	-5.39641E-002	5.18870E-001	3.57280E+000	9	...........
	36	0.493333	5.12974E-001	-8.88426E-005	0.00000E+000	-4.55739E-005	-5.39641E-002	5.13039E-001	3.57280E+000	9	...........
	37	0.506667	5.07120E-001	-8.87436E-005	0.00000E+000	-4.50037E-005	-5.39641E-002	5.07246E-001	3.57280E+000	9	...........
	38	0.52	5.01389E-001	-8.87217E-005	0.00000E+000	-4.44841E-005	-5.39641E-002	5.01499E-001	3.57280E+000	9	...........
	39	0.533333	4.95737E-001	-8.90510E-005	0.00000E+000	-4.41459E-005	-5.39641E-002	4.95823E-001	3.57280E+000	9	...........
	40	0.546667	4.90101E-001	-8.86374E-005	0.00000E+000	-4.34413E-005	-5.39641E-002	4.90195E-001	3.57280E+000	9	...........
	41	0.56	4.84561E-001	-8.88572E-005	0.00000E+000	-4.30567E-005	-5.39641E-002	4.84643E-001	3.57280E+000	9	...........
	42	0.573333	4.79065E-001	-8.88176E-005	0.00000E+000	-4.25494E-005	-5.39641E-002	4.79133E-001	3.57280E+000	9	...........
	43	0.586667	4.73555E-001	-8.86530E-005	0.00000E+000	-4.19821E-005	-5.39641E-002	4.73613E-001	3.57280E+000	9	...........
	44	0.6	4.68080E-001	-8.89030E-005	0.00000E+000	-4.16138E-005	-5.39641E-002	4.68145E-001	3.57280E+000	9	...........
	45	0.613333	4.62662E-001	-8.86050E-005	0.00000E+000	-4.09942E-005	-5.39641E-002	4.62721E-001	3.57280E+000	9	...........
	46	0.626667	4.57263E-001	-8.87843E-005	0.00000E+000	-4.05978E-005	-5.39641E-002	4.57326E-001	3.57280E+000	9	...........
	47	0.64	4.51899E-001	-8.87009E-005	0.00000E+000	-4.00839E-005	-5.39641E-002	4.51961E-001	3.57280E+000	9	...........
	48	0.653333	4.46574E-001	-8.87697E-005	0.00000E+000	-3.96423E-005	-5.39641E-002	4.46636E-001	3.57280E+000	9	...........
	49	0.666667	4.41273E-001	-8.88749E-005	0.00000E+000	-3.92181E-005	-5.39641E-002	4.41334E-001	3.57280E+000	9	...........
	50	0.68	4.36015E-001	-8.88030E-005	0.00000E+000	-3.87194E-005	-5.39641E-002	4.36075E-001	3.57280E+000	9	...........
	51	0.693333	4.30774E-001	-8.87197E-005	0.00000E+000	-3.82181E-005	-5.39641E-002	4.30837E-001	3.57280E+000	9	...........
	52	0.706667	4.25550E-001	-8.88426E-005	0.00000E+000	-3.78070E-005	-5.39641E-002	4.25610E-001	3.57280E+000	9	...........
	53	0.72	4.20340E-001	-8.88374E-005	0.00000E+000	-3.73419E-005	-5.39641E-002	4.20394E-001	3.57280E+000	9	...........
	54	0.733333	4.15161E-001	-8.87144E-005	0.00000E+000	-3.68307E-005	-5.39641E-002	4.15224E-001	3.57280E+000	9	...........
	55	0.746667	4.09997E-001	-8.86894E-005	0.00000E+000	-3.63624E-005	-5.39641E-002	4.10055E-001	3.57280E+000	9	...........
	56	0.76	4.04855E-001	-8.88093E-005	0.00000E+000	-3.59549E-005	-5.39641E-002	4.04910E-001	3.57280E+000	9	...........
	57	0.773333	3.99712E-001	-8.88030E-005	0.00000E+000	-3.54956E-005	-5.39641E-002	3.99763E-001	3.57280E+000	9	...........
	58	0.786667	3.94603E-001	-8.87822E-005	0.00000E+000	-3.50337E-005	-5.39641E-002	3.94647E-001	3.57280E+000	9	...........
	59	0.8	3.89495E-001	-8.88374E-005	0.00000E+000	-3.46017E-005	-5.39641E-002	3.89542E-001	3.57280E+000	9	...........
	60	0.813333	3.84407E-001	-8.87728E-005	0.00000E+000	-3.41249E-005	-5.39641E-002	3.84459E-001	3.57280E+000	9	...........
	61	0.826667	3.79332E-001	-8.87019E-005	0.00000E+000	-3.36475E-005	-5.39641E-002	3.79382E-001	3.57280E+000	9	...........
	62	0.84	3.74283E-001	-8.89030E-005	0.00000E+000	-3.32749E-005	-5.39641E-002	3.74331E-001	3.57280E+000	9	...........
	63	0.853333	3.69248E-001	-8.87395E-005	0.00000E+000	-3.27669E-005	-5.39641E-002	3.69291E-001	3.57280E+000	9	...........
	64	0.866667	3.64224E-001	-8.86759E-005	0.00000E+000	-3.22979E-005	-5.39641E-002	3.64274E-001	3.57280E+000	9	...........
	65	0.88	3.59208E-001	-8.86603E-005	0.00000E+000	-3.18475E-005	-5.39641E-002	3.59257E-001	3.57280E+000	9	...........
	66	0.893333	3.54218E-001	-8.85748E-005	0.00000E+000	-3.13748E-005	-5.39641E-002	3.54264E-001	3.57280E+000	9	...........
	67	0.906667	3.49238E-001	-8.87676E-005	0.00000E+000	-3.10010E-005	-5.39641E-002	3.49280E-001	3.57280E+000	9	...........
	68	0.92	3.44265E-001	-8.86207E-005	0.00000E+000	-3.05090E-005	-5.39641E-002	3.44312E-001	3.57280E+000	9	...........
	69	0.933333	3.39323E-001	-8.88884E-005	0.00000E+000	-3.01619E-005	-5.39641E-002	3.39361E-001	3.57280E+000	9	...........
	70	0.946667	3.34386E-001	-8.86446E-005	0.00000E+000	-2.96416E-005	-5.39641E-002	3.34425E-001	3.57280E+000	9	...........
	71	0.96	3.29463E-001	-8.88176E-005	0.00000E+000	-2.92621E-005	-5.39641E-002	3.29507E-001	3.57280E+000	9	...........
	72	0.97333	3.24564E-001	-8.86248E-005	0.00000E+000	-2.87644E-005	-5.39641E-002	3.24606E-001	3.57280E+000	9	...........
	73	0.98667	3.19671E-001	-8.86634E-005	0.00000E+000	-2.83431E-005	-5.39641E-002	3.19704E-001	3.57280E+000	9	...........
	74	1	3.14787E-001	-8.87113E-005	0.00000E+000	-2.79251E-005	-5.39641E-002	3.14820E-001	3.57280E+000	9	...........
	75	1.01333	3.09925E-001	-8.86874E-005	0.00000E+000	-2.74865E-005	-5.39641E-002	3.09964E-001	3.57280E+000	9	...........
	76	1.02667	3.05081E-001	-8.85707E-005	0.00000E+000	-2.70213E-005	-5.39641E-002	3.05121E-001	3.57280E+000	9	...........
	77	1.04	3.00253E-001	-8.86749E-005	0.00000E+000	-2.66249E-005	-5.39641E-002	3.00293E-001	3.57280E+000	9	...........
	78	1.05333	2.95424E-001	-8.87467E-005	0.00000E+000	-2.62179E-005	-5.39641E-002	2.95463E-001	3.57280E+000	9	...........
	79	1.06667	2.90624E-001	-8.86978E-005	0.00000E+000	-2.57777E-005	-5.39641E-002	2.90658E-001	3.57280E+000	9	...........
	80	1.08	2.85830E-001	-8.88561E-005	0.00000E+000	-2.53977E-005	-5.39641E-002	2.85870E-001	3.57280E+000	9	...........
	81	1.09333	2.81038E-001	-8.90187E-005	0.00000E+000	-2.50176E-005	-5.39641E-002	2.81077E-001	3.57280E+000	9	...........
	82	1.10667	2.76267E-001	-8.88739E-005	0.00000E+000	-2.45529E-005	-5.39641E-002	2.76300E-001	3.57280E+000	9	...........
	83	1.12	2.71524E-001	-8.87332E-005	0.00000E+000	-2.40932E-005	-5.39641E-002	2.71557E-001	3.57280E+000	9	...........
	84	1.13333	2.66799E-001	-8.87863E-005	0.00000E+000	-2.36881E-005	-5.39641E-002	2.66830E-001	3.57280E+000	9	...........
	85	1.14667	2.62070E-001	-8.87592E-005	0.00000E+000	-2.32612E-005	-5.39641E-002	2.62108E-001	3.57280E+000	9	...........
	86	1.16	2.57364E-001	-8.88207E-005	0.00000E+000	-2.28593E-005	-5.39641E-002	2.57394E-001	3.57286E+000	9	...........
	87	1.17333	2.52695E-001	-8.87707E-005	0.00000E+000	-2.24319E-005	-5.39641E-002	2.52724E-001	3.57300E+000	9	...........
	88	1.18667	2.48037E-001	-8.87645E-005	0.00000E+000	-2.20169E-005	-5.39641E-002	2.48068E-001	3.57300E+000	9	...........
	89	1.2	2.43399E-001	-8.88322E-005	0.00000E+000	-2.16217E-005	-5.39641E-002	2.43425E-001	3.57300E+000	9	...........
	90	1.21333	2.38789E-001	-8.87999E-005	0.00000E+000	-2.12045E-005	-5.39641E-002	2.38813E-001	3.57300E+000	9	...........
	91	1.22667	2.34186E-001	-8.89478E-005	0.00000E+000	-2.08304E-005	-5.39641E-002	2.34210E-001	3.57300E+000	9	...........
	92	1.24	2.29597E-001	-8.87988E-005	0.00000E+000	-2.03880E-005	-5.39641E-002	2.29624E-001	3.57300E+000	9	...........
	93	1.25333	2.25024E-001	-8.88249E-005	0.00000E+000	-1.99877E-005	-5.39641E-002	2.25047E-001	3.57300E+000	9	...........
	94	1.26667	2.20464E-001	-8.88707E-005	0.00000E+000	-1.95928E-005	-5.39641E-002	2.20486E-001	3.57300E+000	9	...........
	95	1.28	2.15924E-001	-8.87624E-005	0.00000E+000	-1.91659E-005	-5.39641E-002	2.15946E-001	3.57300E+000	9	...........
	96	1.29333	2.11399E-001	-8.87665E-005	0.00000E+000	-1.87652E-005	-5.39641E-002	2.11426E-001	3.57300E+000	9	...........
	97	1.30667	2.06896E-001	-8.87572E-005	0.00000E+000	-1.83635E-005	-5.39641E-002	2.06913E-001	3.57300E+000	9	...........
	98	1.32	2.02396E-001	-8.89812E-005	0.00000E+000	-1.80095E-005	-5.39641E-002	2.02422E-001	3.57300E+000	9	...........
	99	1.33333	1.97921E-001	-8.89989E-005	0.00000E+000	-1.76147E-005	-5.39641E-002	1.97944E-001	3.57300E+000	9	...........
	100	1.34667	1.93449E-001	-8.89030E-005	0.00000E+000	-1.71982E-005	-5.39641E-002	1.93471E-001	3.57300E+000	9	...........
	101	1.36	1.89007E-001	-8.85217E-005	0.00000E+000	-1.67312E-005	-5.39641E-002	1.89025E-001	3.57300E+000	9	...........
	102	1.37333	1.84581E-001	-8.88041E-005	0.00000E+000	-1.63915E-005	-5.39641E-002	1.84603E-001	3.57300E+000	9	...........
	103	1.38667	1.80173E-001	-8.85946E-005	0.00000E+000	-1.59624E-005	-5.39641E-002	1.80197E-001	3.57300E+000	9	...........
	104	1.4	1.75786E-001	-8.86467E-005	0.00000E+000	-1.55829E-005	-5.39641E-002	1.75805E-001	3.57300E+000	9	...........
	105	1.41333	1.71406E-001	-8.89332E-005	0.00000E+000	-1.52437E-005	-5.39641E-002	1.71429E-001	3.57300E+000	9	...........
	106	1.42667	1.67052E-001	-8.87551E-005	0.00000E+000	-1.48267E-005	-5.39641E-002	1.67072E-001	3.57300E+000	9	...........
	107	1.44	1.62730E-001	-8.86613E-005	0.00000E+000	-1.44279E-005	-5.39641E-002	1.62747E-001	3.57300E+000	9	...........
	108	1.45333	1.58429E-001	-8.87884E-005	0.00000E+000	-1.40666E-005	-5.39641E-002	1.58442E-001	3.57300E+000	9	...........
	109	1.46667	1.54141E-001	-8.88353E-005	0.00000E+000	-1.36932E-005	-5.39641E-002	1.54157E-001	3.57300E+000	9	...........
	110	1.48	1.49888E-001	-8.88603E-005	0.00000E+000	-1.33191E-005	-5.39641E-002	1.49896E-001	3.57300E+000	9	...........
	111	1.49333	1.45631E-001	-8.85863E-005	0.00000E+000	-1.29009E-005	-5.39641E-002	1.45640E-001	3.57300E+000	9	...........
	112	1.50667	1.41396E-001	-8.90749E-005	0.00000E+000	-1.25948E-005	-5.39641E-002	1.41414E-001	3.57300E+000	9	...........
	113	1.52	1.37192E-001	-8.87374E-005	0.00000E+000	-1.21740E-005	-5.39641E-002	1.37202E-001	3.57300E+000	9	...........
	114	1.53333	1.33017E-001	-8.88416E-005	0.00000E+000	-1.18174E-005	-5.39641E-002	1.33024E-001	3.57300E+000	9	...........
	115	1.54667	1.28860E-001	-8.87968E-005	0.00000E+000	-1.14424E-005	-5.39641E-002	1.28873E-001	3.57300E+000	9	...........
	116	1.56	1.24707E-001	-8.87551E-005	0.00000E+000	-1.10684E-005	-5.39641E-002	1.24722E-001	3.57300E+000	9	...........
	117	1.57333	1.20579E-001	-8.86519E-005	0.00000E+000	-1.06895E-005	-5.39641E-002	1.20595E-001	3.57300E+000	9	...........
	118	1.58667	1.16466E-001	-8.87749E-005	0.00000E+000	-1.03393E-005	-5.39641E-002	1.16485E-001	3.57300E+000	9	...........
	119	1.6	1.12364E-001	-8.85946E-005	0.00000E+000	-9.95482E-006	-5.39641E-002	1.12376E-001	3.57300E+000	9	...........
	120	1.61333	1.08282E-001	-8.87811E-005	0.00000E+000	-9.61338E-006	-5.39641E-002	1.08295E-001	3.57300E+000	9	...........
	121	1.62667	1.04231E-001	-8.86853E-005	0.00000E+000	-9.24378E-006	-5.39641E-002	1.04246E-001	3.57300E+000	9	...........
	122	1.64	1.00200E-001	-8.88384E-005	0.00000E+000	-8.90158E-006	-5.39641E-002	1.00210E-001	3.57300E+000	9	...........
	123	1.65333	9.61710E-002	-8.87957E-005	0.00000E+000	-8.53957E-006	-5.39641E-002	9.61810E-002	3.57300E+000	9	...........
	124	1.66667	9.21786E-002	-8.89051E-005	0.00000E+000	-8.19515E-006	-5.39641E-002	9.21845E-002	3.57300E+000	9	...........
	125	1.68	8.81883E-002	-8.86155E-005	0.00000E+000	-7.81484E-006	-5.39641E-002	8.81934E-002	3.57300E+000	9	...........
	126	1.69333	8.42195E-002	-8.88436E-005	0.00000E+000	-7.48236E-006	-5.39641E-002	8.42284E-002	3.57300E+000	9	...........
	127	1.70667	8.02620E-002	-8.86842E-005	0.00000E+000	-7.11798E-006	-5.39641E-002	8.02653E-002	3.57300E+000	9	...........
	128	1.72	7.63148E-002	-8.88864E-005	0.00000E+000	-6.78334E-006	-5.39641E-002	7.63164E-002	3.57300E+000	9	...........
	129	1.73333	7.23940E-002	-8.86259E-005	0.00000E+000	-6.41598E-006	-5.39641E-002	7.23940E-002	3.57300E+000	9	...........
	130	1.74667	6.84992E-002	-8.88582E-005	0.00000E+000	-6.08672E-006	-5.39641E-002	6.84960E-002	3.57300E+000	9	...........
	131	1.76	6.46114E-002	-8.86384E-005	0.00000E+000	-5.72705E-006	-5.39641E-002	6.46088E-002	3.57300E+000	9	...........
	132	1.77333	6.07371E-002	-8.87155E-005	0.00000E+000	-5.38832E-006	-5.39641E-002	6.07326E-002	3.57300E+000	9	...........
	133	1.78667	5.68809E-002	-8.87019E-005	0.00000E+000	-5.04545E-006	-5.39641E-002	5.68824E-002	3.57300E+000	9	...........
	134	1.8	5.30571E-002	-8.86467E-005	0.00000E+000	-4.70334E-006	-5.39641E-002	5.30536E-002	3.57300E+000	9	...........
	135	1.81333	4.92440E-002	-8.87019E-005	0.00000E+000	-4.36804E-006	-5.39641E-002	4.92422E-002	3.57300E+000	9	...........
	136	1.82667	4.54642E-002	-8.87655E-005	0.00000E+000	-4.03565E-006	-5.39641E-002	4.54731E-002	3.57300E+000	9	...........
	137	1.84	4.16888E-002	-8.87884E-005	0.00000E+000	-3.70148E-006	-5.39641E-002	4.16973E-002	3.57300E+000	9	...........
	138	1.85333	3.79298E-002	-8.89530E-005	0.00000E+000	-3.37397E-006	-5.39641E-002	3.79378E-002	3.57300E+000	9	...........
	139	1.86667	3.41884E-002	-8.87269E-005	0.00000E+000	-3.03343E-006	-5.39641E-002	3.41966E-002	3.57300E+000	9	...........
	140	1.88	3.04655E-002	-8.89426E-005	0.00000E+000	-2.70968E-006	-5.39641E-002	3.04642E-002	3.57300E+000	9	...........
	141	1.89333	2.67531E-002	-8.87645E-005	0.00000E+000	-2.37472E-006	-5.39641E-002	2.67558E-002	3.57300E+000	9	...........
	142	1.90667	2.30613E-002	-8.87259E-005	0.00000E+000	-2.04614E-006	-5.39641E-002	2.30550E-002	3.57300E+000	9	...........
	143	1.92	1.93712E-002	-8.88989E-005	0.00000E+000	-1.72208E-006	-5.39641E-002	1.93690E-002	3.57300E+000	9	...........
	144	1.93333	1.57097E-002	-8.90103E-005	0.00000E+000	-1.39832E-006	-5.39641E-002	1.57022E-002	3.57300E+000	9	...........
	145	1.94667	1.20586E-002	-8.89082E-005	0.00000E+000	-1.07211E-006	-5.39641E-002	1.20488E-002	3.57300E+000	9	...........
	146	1.96	8.43571E-003	-8.89833E-005	0.00000E+000	-7.50637E-007	-5.39641E-002	8.42389E-003	3.57300E+000	9	...........
	147	1.97333	4.84408E-003	-8.86509E-005	0.00000E+000	-4.29432E-007	-5.39641E-002	4.83398E-003	3.57300E+000	9	...........
	148	1.98667	1.27824E-003	-8.87613E-005	0.00000E+000	-1.13458E-007	-5.39641E-002	1.26541E-003	3.57300E+000	9	...........
STARTTIMEOFFSET	QUANT	2938.17	Start Time Offset (s)
