EXPLAIN
TAG	PWR800_CHARGE
TITLE	LABEL	PWR Cyclic Charge Discharge (Cell) - Charge Step	Test &Identifier
DATE	LABEL	13-7-2017	Date
TIME	LABEL	15:24:06	Time
NOTES	NOTES	2	&Notes...
	supercap test cell
	6M KOH
PSTAT	PSTAT	IFC5000-01520	Potentiostat
CAPACITY	QUANT	1.00000E-003	Capacity (A-hr)
CELLTYPE	SELECTOR	1	&Cell Type
WORKINGCONNECTION	SELECTOR	0	&Working Lead
MAXCHARGETIME	VARIABLEANDUNITS	1.00000E+002	s	1.00000E+002	second(s)	Max &Charge Time
CHARGECURRENT	QUANT	1.00000E-004	&Charge Current (A) 
VOLTAGEFINISH	TWOPARAM	F	1.00000E-003	3.60000E+003	&Voltage Finish	 I (A) < 	Max Time(s)
SAMPLETIME	QUANT	1.00000E-002	Sa&mple Period (s)
CHARGESTOPAT1	MULTIPARAM	4	1.00000E+000	Charge Stop At &1	Voltage > Limit	V
CHARGESTOPAT2	MULTIPARAM	0	0.00000E+000	Charge Stop At &2	None	N/A
AESBHCSELECTOR	TOGGLE	F	Save Both Half Cells
IRCOMP	TOGGLE	F	IR &Measure
EOC	QUANT	0	Open Circuit (V)
SEQUENCER	TOGGLE	TRUE	Run as Sequence
PSTATMODEL	IQUANT	53	Pstat Model
PSTATSECTION	LABEL	IFC5000-01520	Pstat Section
PSTATSERIALNO	LABEL	01520	Pstat Serial Number
CTRLMODE	IQUANT	0	Control Mode
ELECTROMETER	IQUANT	1	RE=0 or CS=1
IESTAB	IQUANT	0	I/E Stability
CASPEED	IQUANT	4	Control Amp Speed
CONVENTION	IQUANT	1	Current Convention
ICHRANGE	IQUANT	2	Ich Range
ICHRANGEMODE	TOGGLE	T	Ich Auto Range
ICHOFFSETENABLE	TOGGLE	F	Ich Offset Enable
ICHOFFSET	QUANT	0	Ich Offset (V)
ICHFILTER	IQUANT	1	Ich Filter
VCHRANGE	IQUANT	2	Vch Range
VCHRANGEMODE	TOGGLE	T	Vch Auto Range
VCHOFFSETENABLE	TOGGLE	F	Vch Offset Enable
VCHOFFSET	QUANT	0	Vch Offset (V)
VCHFILTER	IQUANT	1	Vch Filter
IERANGELOWERLIMIT	IQUANT	9	I/E Range Lower Limit
IERANGEMODE	TOGGLE	F	I/E AutoRange
IERANGE	IQUANT	9	I/E Range
ACHSELECT	IQUANT	1	Ach Select
ACHRANGE	IQUANT	2	Ach Range
ACHOFFSETENABLE	TOGGLE	F	Ach Offset Enable
ACHOFFSET	QUANT	0	Ach Offset (V)
ACHFILTER	IQUANT	1	Ach Filter
CABLEID	IQUANT	14	Cable ID
DCCALDATE	LABEL	5-7-2017	DC Calibration Date
ACCALDATE	LABEL	12/3/2015	AC Calibration Date
FRAMEWORKVERSION	QUANT	7.01	Framework Version
INSTRUMENTVERSION	LABEL	4.00	Instrument Version
CURVE	TABLE	93
	Pt	T	Vf	Im	Vu	Pwr	Sig	Ach	Temp	IERange	Over
	#	s	V	A	V	W	V	V	deg C	#	bits
	0	0.013333	1.32242E-001	1.00434E-004	0.00000E+000	1.32816E-005	5.99601E-002	1.32286E-001	3.57890E+000	9	...........
	1	0.026667	1.47500E-001	1.00121E-004	0.00000E+000	1.47678E-005	5.99601E-002	1.47523E-001	3.57890E+000	9	...........
	2	0.04	1.62320E-001	1.00976E-004	0.00000E+000	1.63905E-005	5.99601E-002	1.62345E-001	3.57890E+000	9	...........
	3	0.053333	1.76866E-001	1.00919E-004	0.00000E+000	1.78491E-005	5.99601E-002	1.76896E-001	3.57890E+000	9	...........
	4	0.066667	1.91218E-001	9.99833E-005	0.00000E+000	1.91186E-005	5.99601E-002	1.91256E-001	3.57890E+000	9	...........
	5	0.08	2.05428E-001	1.00781E-004	0.00000E+000	2.07033E-005	5.99601E-002	2.05462E-001	3.57890E+000	9	...........
	6	0.093333	2.19530E-001	1.00838E-004	0.00000E+000	2.21369E-005	5.99601E-002	2.19573E-001	3.57890E+000	9	...........
	7	0.106667	2.33569E-001	1.00961E-004	0.00000E+000	2.35812E-005	5.99601E-002	2.33606E-001	3.57890E+000	9	...........
	8	0.12	2.47547E-001	1.01358E-004	0.00000E+000	2.50908E-005	5.99601E-002	2.47592E-001	3.57890E+000	9	...........
	9	0.133333	2.61497E-001	1.00531E-004	0.00000E+000	2.62887E-005	5.99601E-002	2.61554E-001	3.57890E+000	9	...........
	10	0.146667	2.75443E-001	1.01201E-004	0.00000E+000	2.78752E-005	5.99601E-002	2.75497E-001	3.57890E+000	9	...........
	11	0.16	2.89373E-001	1.01054E-004	0.00000E+000	2.92424E-005	5.99601E-002	2.89430E-001	3.57890E+000	9	...........
	12	0.173333	3.03317E-001	1.01162E-004	0.00000E+000	3.06841E-005	5.99601E-002	3.03375E-001	3.57890E+000	9	...........
	13	0.186667	3.17272E-001	1.00962E-004	0.00000E+000	3.20323E-005	5.99601E-002	3.17332E-001	3.57890E+000	9	...........
	14	0.2	3.31230E-001	1.01591E-004	0.00000E+000	3.36500E-005	5.99601E-002	3.31298E-001	3.57890E+000	9	...........
	15	0.213333	3.45215E-001	1.00660E-004	0.00000E+000	3.47495E-005	5.99601E-002	3.45286E-001	3.57890E+000	9	...........
	16	0.226667	3.59210E-001	1.01397E-004	0.00000E+000	3.64229E-005	5.99601E-002	3.59280E-001	3.57890E+000	9	...........
	17	0.24	3.73203E-001	1.00932E-004	0.00000E+000	3.76683E-005	5.99601E-002	3.73277E-001	3.57890E+000	9	...........
	18	0.253333	3.87193E-001	1.00626E-004	0.00000E+000	3.89617E-005	5.99601E-002	3.87269E-001	3.57890E+000	9	...........
	19	0.266667	4.01168E-001	1.00551E-004	0.00000E+000	4.03379E-005	5.99601E-002	4.01245E-001	3.57890E+000	9	...........
	20	0.28	4.15100E-001	1.00393E-004	0.00000E+000	4.16730E-005	5.99601E-002	4.15183E-001	3.57890E+000	9	...........
	21	0.293333	4.28987E-001	1.00329E-004	0.00000E+000	4.30399E-005	5.99601E-002	4.29068E-001	3.57890E+000	9	...........
	22	0.306667	4.42794E-001	1.00292E-004	0.00000E+000	4.44086E-005	5.99601E-002	4.42885E-001	3.57890E+000	9	...........
	23	0.32	4.56511E-001	1.01113E-004	0.00000E+000	4.61591E-005	5.99601E-002	4.56597E-001	3.57890E+000	9	...........
	24	0.333333	4.70111E-001	1.01028E-004	0.00000E+000	4.74945E-005	5.99601E-002	4.70203E-001	3.57890E+000	9	...........
	25	0.346667	4.83565E-001	1.00493E-004	0.00000E+000	4.85948E-005	5.99601E-002	4.83658E-001	3.57890E+000	9	...........
	26	0.36	4.96868E-001	1.00475E-004	0.00000E+000	4.99229E-005	5.99601E-002	4.96975E-001	3.57890E+000	9	...........
	27	0.373333	5.10008E-001	1.00775E-004	0.00000E+000	5.13961E-005	5.99601E-002	5.10113E-001	3.57890E+000	9	...........
	28	0.386667	5.22946E-001	1.01940E-004	0.00000E+000	5.33091E-005	5.99601E-002	5.23058E-001	3.57890E+000	9	...........
	29	0.4	5.35454E-001	1.00950E-004	0.00000E+000	5.40541E-005	5.99601E-002	5.35662E-001	3.57890E+000	9	...........
	30	0.413333	5.47863E-001	1.01139E-004	0.00000E+000	5.54101E-005	5.99601E-002	5.48135E-001	3.57890E+000	9	...........
	31	0.426667	5.60182E-001	1.01325E-004	0.00000E+000	5.67606E-005	5.99601E-002	5.60449E-001	3.57890E+000	9	...........
	32	0.44	5.72289E-001	1.01736E-004	0.00000E+000	5.82222E-005	5.99601E-002	5.72566E-001	3.57890E+000	9	...........
	33	0.453333	5.84145E-001	1.00911E-004	0.00000E+000	5.89464E-005	5.99601E-002	5.84415E-001	3.57890E+000	9	...........
	34	0.466667	5.95808E-001	1.00953E-004	0.00000E+000	6.01487E-005	5.99601E-002	5.96072E-001	3.57890E+000	9	...........
	35	0.48	6.07195E-001	1.01301E-004	0.00000E+000	6.15096E-005	5.99601E-002	6.07478E-001	3.57890E+000	9	...........
	36	0.493333	6.18450E-001	1.01520E-004	0.00000E+000	6.27851E-005	5.99601E-002	6.18691E-001	3.57890E+000	9	...........
	37	0.506667	6.29414E-001	1.00878E-004	0.00000E+000	6.34942E-005	5.99601E-002	6.29647E-001	3.57890E+000	9	...........
	38	0.52	6.40159E-001	1.00997E-004	0.00000E+000	6.46542E-005	5.99601E-002	6.40398E-001	3.57890E+000	9	...........
	39	0.533333	6.50696E-001	1.01561E-004	0.00000E+000	6.60851E-005	5.99601E-002	6.50946E-001	3.57890E+000	9	...........
	40	0.546667	6.61017E-001	1.00851E-004	0.00000E+000	6.66643E-005	5.99601E-002	6.61264E-001	3.57890E+000	9	...........
	41	0.56	6.71151E-001	1.00955E-004	0.00000E+000	6.77562E-005	5.99601E-002	6.71420E-001	3.57890E+000	9	...........
	42	0.573333	6.81076E-001	1.00066E-004	0.00000E+000	6.81522E-005	5.99601E-002	6.81338E-001	3.57890E+000	9	...........
	43	0.586667	6.90779E-001	1.01067E-004	0.00000E+000	6.98149E-005	5.99601E-002	6.91047E-001	3.57890E+000	9	...........
	44	0.6	7.00315E-001	1.00331E-004	0.00000E+000	7.02635E-005	5.99601E-002	7.00577E-001	3.57890E+000	9	...........
	45	0.613333	7.09634E-001	1.00743E-004	0.00000E+000	7.14905E-005	5.99601E-002	7.09935E-001	3.57890E+000	9	...........
	46	0.626667	7.18846E-001	1.01412E-004	0.00000E+000	7.28994E-005	5.99601E-002	7.19094E-001	3.57890E+000	9	...........
	47	0.64	7.27812E-001	1.01226E-004	0.00000E+000	7.36736E-005	5.99601E-002	7.28076E-001	3.57890E+000	9	...........
	48	0.653333	7.36586E-001	1.00036E-004	0.00000E+000	7.36854E-005	5.99601E-002	7.36856E-001	3.57890E+000	9	...........
	49	0.666667	7.45252E-001	1.00363E-004	0.00000E+000	7.47953E-005	5.99601E-002	7.45531E-001	3.57890E+000	9	...........
	50	0.68	7.53721E-001	1.01424E-004	0.00000E+000	7.64456E-005	5.99601E-002	7.53997E-001	3.57928E+000	9	...........
	51	0.693333	7.62023E-001	1.01120E-004	0.00000E+000	7.70557E-005	5.99601E-002	7.62301E-001	3.57990E+000	9	...........
	52	0.706667	7.70175E-001	1.00566E-004	0.00000E+000	7.74532E-005	5.99601E-002	7.70449E-001	3.57990E+000	9	...........
	53	0.72	7.78163E-001	1.00676E-004	0.00000E+000	7.83424E-005	5.99601E-002	7.78436E-001	3.57990E+000	9	...........
	54	0.733333	7.85999E-001	1.00733E-004	0.00000E+000	7.91764E-005	5.99601E-002	7.86282E-001	3.57990E+000	9	...........
	55	0.746667	7.93716E-001	1.00323E-004	0.00000E+000	7.96279E-005	5.99601E-002	7.94001E-001	3.57990E+000	9	...........
	56	0.76	8.01275E-001	1.01281E-004	0.00000E+000	8.11543E-005	5.99601E-002	8.01552E-001	3.57990E+000	9	...........
	57	0.773333	8.08682E-001	9.97051E-005	0.00000E+000	8.06297E-005	5.99601E-002	8.09011E-001	3.57990E+000	9	...........
	58	0.786667	8.15962E-001	1.01321E-004	0.00000E+000	8.26741E-005	5.99601E-002	8.16282E-001	3.57990E+000	9	...........
	59	0.8	8.23143E-001	1.00613E-004	0.00000E+000	8.28185E-005	5.99601E-002	8.23455E-001	3.57990E+000	9	...........
	60	0.813333	8.30175E-001	1.01810E-004	0.00000E+000	8.45198E-005	5.99601E-002	8.30448E-001	3.57990E+000	9	...........
	61	0.826667	8.37042E-001	1.00887E-004	0.00000E+000	8.44463E-005	5.99601E-002	8.37353E-001	3.57990E+000	9	...........
	62	0.84	8.43857E-001	9.97655E-005	0.00000E+000	8.41878E-005	5.99601E-002	8.44153E-001	3.57990E+000	9	...........
	63	0.853333	8.50532E-001	1.01232E-004	0.00000E+000	8.61015E-005	5.99601E-002	8.50822E-001	3.57990E+000	9	...........
	64	0.866667	8.57071E-001	1.01146E-004	0.00000E+000	8.66893E-005	5.99601E-002	8.57392E-001	3.57990E+000	9	...........
	65	0.88	8.63506E-001	1.00443E-004	0.00000E+000	8.67329E-005	5.99601E-002	8.63824E-001	3.57990E+000	9	...........
	66	0.893333	8.69853E-001	1.00410E-004	0.00000E+000	8.73423E-005	5.99601E-002	8.70181E-001	3.57990E+000	9	...........
	67	0.906667	8.76071E-001	1.00797E-004	0.00000E+000	8.83054E-005	5.99601E-002	8.76382E-001	3.57990E+000	9	...........
	68	0.92	8.82184E-001	1.01313E-004	0.00000E+000	8.93764E-005	5.99601E-002	8.82502E-001	3.57990E+000	9	...........
	69	0.933333	8.88180E-001	1.01569E-004	0.00000E+000	9.02115E-005	5.99601E-002	8.88483E-001	3.57990E+000	9	...........
	70	0.946667	8.94062E-001	1.01062E-004	0.00000E+000	9.03553E-005	5.99601E-002	8.94378E-001	3.57990E+000	9	...........
	71	0.96	8.99842E-001	1.00680E-004	0.00000E+000	9.05963E-005	5.99601E-002	9.00175E-001	3.57990E+000	9	...........
	72	0.97333	9.05514E-001	1.00693E-004	0.00000E+000	9.11787E-005	5.99601E-002	9.05885E-001	3.57990E+000	9	...........
	73	0.98667	9.11116E-001	1.00553E-004	0.00000E+000	9.16156E-005	5.99601E-002	9.11469E-001	3.57990E+000	9	...........
	74	1	9.16589E-001	1.01326E-004	0.00000E+000	9.28745E-005	5.99601E-002	9.16954E-001	3.57990E+000	9	...........
	75	1.01333	9.22020E-001	9.90820E-005	0.00000E+000	9.13556E-005	5.99601E-002	9.22329E-001	3.57990E+000	9	...........
	76	1.02667	9.27328E-001	1.01121E-004	0.00000E+000	9.37723E-005	5.99601E-002	9.27640E-001	3.57990E+000	9	...........
	77	1.04	9.32522E-001	1.01623E-004	0.00000E+000	9.47659E-005	5.99601E-002	9.32850E-001	3.57990E+000	9	...........
	78	1.05333	9.37602E-001	1.00511E-004	0.00000E+000	9.42397E-005	5.99601E-002	9.37964E-001	3.57990E+000	9	...........
	79	1.06667	9.42605E-001	1.00959E-004	0.00000E+000	9.51649E-005	5.99601E-002	9.42956E-001	3.57990E+000	9	...........
	80	1.08	9.47532E-001	1.01526E-004	0.00000E+000	9.61994E-005	5.99601E-002	9.47894E-001	3.57990E+000	9	...........
	81	1.09333	9.52370E-001	1.01149E-004	0.00000E+000	9.63314E-005	5.99601E-002	9.52728E-001	3.57990E+000	9	...........
	82	1.10667	9.57061E-001	1.01280E-004	0.00000E+000	9.69316E-005	5.99601E-002	9.57439E-001	3.57990E+000	9	...........
	83	1.12	9.61721E-001	1.01093E-004	0.00000E+000	9.72231E-005	5.99601E-002	9.62080E-001	3.57990E+000	9	...........
	84	1.13333	9.66234E-001	1.00695E-004	0.00000E+000	9.72948E-005	5.99601E-002	9.66619E-001	3.57990E+000	9	...........
	85	1.14667	9.70696E-001	1.01191E-004	0.00000E+000	9.82256E-005	5.99601E-002	9.71088E-001	3.57990E+000	9	...........
	86	1.16	9.75121E-001	1.00869E-004	0.00000E+000	9.83593E-005	5.99601E-002	9.75476E-001	3.57990E+000	9	...........
	87	1.17333	9.79377E-001	1.00820E-004	0.00000E+000	9.87407E-005	5.99601E-002	9.79736E-001	3.57990E+000	9	...........
	88	1.18667	9.83570E-001	1.00926E-004	0.00000E+000	9.92679E-005	5.99601E-002	9.83939E-001	3.57990E+000	9	...........
	89	1.2	9.87659E-001	9.97176E-005	0.00000E+000	9.84870E-005	5.99601E-002	9.88050E-001	3.57990E+000	9	...........
	90	1.21333	9.91678E-001	1.01614E-004	0.00000E+000	1.00768E-004	5.99601E-002	9.92054E-001	3.57990E+000	9	...........
	91	1.22667	9.95616E-001	1.00834E-004	0.00000E+000	1.00392E-004	5.99601E-002	9.95990E-001	3.57990E+000	9	...........
	92	1.23667	9.99016E-001	9.98964E-005	0.00000E+000	9.97981E-005	5.99601E-002	9.99364E-001	3.57990E+000	9	...........
STARTTIMEOFFSET	QUANT	999.851	Start Time Offset (s)
