EXPLAIN
TAG	PWR800_CHARGE
TITLE	LABEL	PWR Cyclic Charge Discharge (Cell) - Charge Step	Test &Identifier
DATE	LABEL	13-7-2017	Date
TIME	LABEL	15:42:28	Time
NOTES	NOTES	2	&Notes...
	supercap test cell
	6M KOH
PSTAT	PSTAT	IFC5000-01520	Potentiostat
CAPACITY	QUANT	1.00000E-003	Capacity (A-hr)
CELLTYPE	SELECTOR	1	&Cell Type
WORKINGCONNECTION	SELECTOR	0	&Working Lead
MAXCHARGETIME	VARIABLEANDUNITS	1.00000E+002	s	1.00000E+002	second(s)	Max &Charge Time
CHARGECURRENT	QUANT	1.00000E-004	&Charge Current (A) 
VOLTAGEFINISH	TWOPARAM	F	1.00000E-003	3.60000E+003	&Voltage Finish	 I (A) < 	Max Time(s)
SAMPLETIME	QUANT	1.00000E-002	Sa&mple Period (s)
CHARGESTOPAT1	MULTIPARAM	4	1.00000E+000	Charge Stop At &1	Voltage > Limit	V
CHARGESTOPAT2	MULTIPARAM	0	0.00000E+000	Charge Stop At &2	None	N/A
AESBHCSELECTOR	TOGGLE	F	Save Both Half Cells
IRCOMP	TOGGLE	F	IR &Measure
EOC	QUANT	0	Open Circuit (V)
SEQUENCER	TOGGLE	TRUE	Run as Sequence
PSTATMODEL	IQUANT	53	Pstat Model
PSTATSECTION	LABEL	IFC5000-01520	Pstat Section
PSTATSERIALNO	LABEL	01520	Pstat Serial Number
CTRLMODE	IQUANT	0	Control Mode
ELECTROMETER	IQUANT	1	RE=0 or CS=1
IESTAB	IQUANT	0	I/E Stability
CASPEED	IQUANT	4	Control Amp Speed
CONVENTION	IQUANT	1	Current Convention
ICHRANGE	IQUANT	2	Ich Range
ICHRANGEMODE	TOGGLE	T	Ich Auto Range
ICHOFFSETENABLE	TOGGLE	F	Ich Offset Enable
ICHOFFSET	QUANT	0	Ich Offset (V)
ICHFILTER	IQUANT	1	Ich Filter
VCHRANGE	IQUANT	2	Vch Range
VCHRANGEMODE	TOGGLE	T	Vch Auto Range
VCHOFFSETENABLE	TOGGLE	F	Vch Offset Enable
VCHOFFSET	QUANT	0	Vch Offset (V)
VCHFILTER	IQUANT	1	Vch Filter
IERANGELOWERLIMIT	IQUANT	9	I/E Range Lower Limit
IERANGEMODE	TOGGLE	F	I/E AutoRange
IERANGE	IQUANT	9	I/E Range
ACHSELECT	IQUANT	1	Ach Select
ACHRANGE	IQUANT	2	Ach Range
ACHOFFSETENABLE	TOGGLE	F	Ach Offset Enable
ACHOFFSET	QUANT	0	Ach Offset (V)
ACHFILTER	IQUANT	1	Ach Filter
CABLEID	IQUANT	14	Cable ID
DCCALDATE	LABEL	5-7-2017	DC Calibration Date
ACCALDATE	LABEL	12/3/2015	AC Calibration Date
FRAMEWORKVERSION	QUANT	7.01	Framework Version
INSTRUMENTVERSION	LABEL	4.00	Instrument Version
CURVE	TABLE	90
	Pt	T	Vf	Im	Vu	Pwr	Sig	Ach	Temp	IERange	Over
	#	s	V	A	V	W	V	V	deg C	#	bits
	0	0.013333	1.34844E-001	1.01812E-004	0.00000E+000	1.37287E-005	5.99601E-002	1.34889E-001	3.57880E+000	9	...........
	1	0.026667	1.50129E-001	1.00579E-004	0.00000E+000	1.50999E-005	5.99601E-002	1.50156E-001	3.57880E+000	9	...........
	2	0.04	1.64988E-001	1.01185E-004	0.00000E+000	1.66943E-005	5.99601E-002	1.65013E-001	3.57880E+000	9	...........
	3	0.053333	1.79580E-001	1.00530E-004	0.00000E+000	1.80532E-005	5.99601E-002	1.79616E-001	3.57880E+000	9	...........
	4	0.066667	1.93982E-001	1.01196E-004	0.00000E+000	1.96302E-005	5.99601E-002	1.94013E-001	3.57880E+000	9	...........
	5	0.08	2.08239E-001	1.01550E-004	0.00000E+000	2.11467E-005	5.99601E-002	2.08280E-001	3.57880E+000	9	...........
	6	0.093333	2.22401E-001	1.01021E-004	0.00000E+000	2.24672E-005	5.99601E-002	2.22438E-001	3.57880E+000	9	...........
	7	0.106667	2.36487E-001	1.00073E-004	0.00000E+000	2.36659E-005	5.99601E-002	2.36529E-001	3.57880E+000	9	...........
	8	0.12	2.50531E-001	1.00406E-004	0.00000E+000	2.51549E-005	5.99601E-002	2.50574E-001	3.57880E+000	9	...........
	9	0.133333	2.64549E-001	1.01094E-004	0.00000E+000	2.67443E-005	5.99601E-002	2.64602E-001	3.57880E+000	9	...........
	10	0.146667	2.78566E-001	1.00942E-004	0.00000E+000	2.81189E-005	5.99601E-002	2.78618E-001	3.57880E+000	9	...........
	11	0.16	2.92586E-001	1.01044E-004	0.00000E+000	2.95641E-005	5.99601E-002	2.92637E-001	3.57880E+000	9	...........
	12	0.173333	3.06616E-001	1.00766E-004	0.00000E+000	3.08964E-005	5.99601E-002	3.06673E-001	3.57880E+000	9	...........
	13	0.186667	3.20669E-001	1.00540E-004	0.00000E+000	3.22399E-005	5.99601E-002	3.20727E-001	3.57880E+000	9	...........
	14	0.2	3.34739E-001	1.01355E-004	0.00000E+000	3.39276E-005	5.99601E-002	3.34801E-001	3.57880E+000	9	...........
	15	0.213333	3.48841E-001	1.01250E-004	0.00000E+000	3.53202E-005	5.99601E-002	3.48905E-001	3.57880E+000	9	...........
	16	0.226667	3.62965E-001	1.00463E-004	0.00000E+000	3.64643E-005	5.99601E-002	3.63028E-001	3.57880E+000	9	...........
	17	0.24	3.77097E-001	1.01496E-004	0.00000E+000	3.82739E-005	5.99601E-002	3.77169E-001	3.57880E+000	9	...........
	18	0.253333	3.91240E-001	1.01575E-004	0.00000E+000	3.97403E-005	5.99601E-002	3.91313E-001	3.57880E+000	9	...........
	19	0.266667	4.05377E-001	1.00752E-004	0.00000E+000	4.08426E-005	5.99601E-002	4.05448E-001	3.57880E+000	9	...........
	20	0.28	4.19482E-001	1.00298E-004	0.00000E+000	4.20731E-005	5.99601E-002	4.19566E-001	3.57880E+000	9	...........
	21	0.293333	4.33555E-001	1.01025E-004	0.00000E+000	4.38000E-005	5.99601E-002	4.33638E-001	3.57880E+000	9	...........
	22	0.306667	4.47557E-001	1.00658E-004	0.00000E+000	4.50503E-005	5.99601E-002	4.47649E-001	3.57880E+000	9	...........
	23	0.32	4.61473E-001	1.00966E-004	0.00000E+000	4.65930E-005	5.99601E-002	4.61563E-001	3.57880E+000	9	...........
	24	0.333333	4.75283E-001	1.00467E-004	0.00000E+000	4.77501E-005	5.99601E-002	4.75376E-001	3.57880E+000	9	...........
	25	0.346667	4.88956E-001	1.00436E-004	0.00000E+000	4.91091E-005	5.99601E-002	4.89060E-001	3.57880E+000	9	...........
	26	0.36	5.02479E-001	1.00458E-004	0.00000E+000	5.04782E-005	5.99601E-002	5.02590E-001	3.57880E+000	9	...........
	27	0.373333	5.15837E-001	1.00229E-004	0.00000E+000	5.17019E-005	5.99601E-002	5.15953E-001	3.57880E+000	9	...........
	28	0.386667	5.28960E-001	1.01814E-004	0.00000E+000	5.38554E-005	5.99601E-002	5.29083E-001	3.57880E+000	9	...........
	29	0.4	5.41617E-001	1.00842E-004	0.00000E+000	5.46176E-005	5.99601E-002	5.41867E-001	3.57880E+000	9	...........
	30	0.413333	5.54380E-001	1.01286E-004	0.00000E+000	5.61507E-005	5.99601E-002	5.54636E-001	3.57880E+000	9	...........
	31	0.426667	5.66925E-001	1.00596E-004	0.00000E+000	5.70303E-005	5.99601E-002	5.67170E-001	3.57880E+000	9	...........
	32	0.44	5.79230E-001	1.00728E-004	0.00000E+000	5.83448E-005	5.99601E-002	5.79491E-001	3.57880E+000	9	...........
	33	0.453333	5.91307E-001	1.02028E-004	0.00000E+000	6.03302E-005	5.99601E-002	5.91587E-001	3.57880E+000	9	...........
	34	0.466667	6.03162E-001	1.01910E-004	0.00000E+000	6.14680E-005	5.99601E-002	6.03460E-001	3.57880E+000	9	...........
	35	0.48	6.14805E-001	1.00845E-004	0.00000E+000	6.19999E-005	5.99601E-002	6.15084E-001	3.57880E+000	9	...........
	36	0.493333	6.26197E-001	1.01050E-004	0.00000E+000	6.32773E-005	5.99601E-002	6.26469E-001	3.57880E+000	9	...........
	37	0.506667	6.37361E-001	1.00532E-004	0.00000E+000	6.40754E-005	5.99601E-002	6.37614E-001	3.57880E+000	9	...........
	38	0.52	6.48306E-001	1.00245E-004	0.00000E+000	6.49893E-005	5.99601E-002	6.48543E-001	3.57880E+000	9	...........
	39	0.533333	6.59012E-001	1.01412E-004	0.00000E+000	6.68316E-005	5.99601E-002	6.59245E-001	3.57880E+000	9	...........
	40	0.546667	6.69535E-001	1.00695E-004	0.00000E+000	6.74188E-005	5.99601E-002	6.69760E-001	3.57880E+000	9	...........
	41	0.56	6.79830E-001	1.01163E-004	0.00000E+000	6.87734E-005	5.99601E-002	6.80045E-001	3.57880E+000	9	...........
	42	0.573333	6.89894E-001	1.00710E-004	0.00000E+000	6.94796E-005	5.99601E-002	6.90154E-001	3.57880E+000	9	...........
	43	0.586667	6.99786E-001	1.00763E-004	0.00000E+000	7.05123E-005	5.99601E-002	7.00035E-001	3.57880E+000	9	...........
	44	0.6	7.09454E-001	1.00481E-004	0.00000E+000	7.12868E-005	5.99601E-002	7.09733E-001	3.57880E+000	9	...........
	45	0.613333	7.18966E-001	1.00467E-004	0.00000E+000	7.22321E-005	5.99601E-002	7.19231E-001	3.57880E+000	9	...........
	46	0.626667	7.28279E-001	9.99541E-005	0.00000E+000	7.27945E-005	5.99601E-002	7.28535E-001	3.57880E+000	9	...........
	47	0.64	7.37364E-001	1.00931E-004	0.00000E+000	7.44232E-005	5.99601E-002	7.37649E-001	3.57880E+000	9	...........
	48	0.653333	7.46317E-001	1.01252E-004	0.00000E+000	7.55663E-005	5.99601E-002	7.46595E-001	3.57880E+000	9	...........
	49	0.666667	7.55089E-001	1.00731E-004	0.00000E+000	7.60611E-005	5.99601E-002	7.55356E-001	3.57880E+000	9	...........
	50	0.68	7.63645E-001	1.00091E-004	0.00000E+000	7.64337E-005	5.99601E-002	7.63947E-001	3.57880E+000	9	...........
	51	0.693333	7.72103E-001	1.00814E-004	0.00000E+000	7.78385E-005	5.99601E-002	7.72390E-001	3.57880E+000	9	...........
	52	0.706667	7.80362E-001	1.00306E-004	0.00000E+000	7.82752E-005	5.99601E-002	7.80669E-001	3.57880E+000	9	...........
	53	0.72	7.88462E-001	1.00779E-004	0.00000E+000	7.94606E-005	5.99601E-002	7.88775E-001	3.57880E+000	9	...........
	54	0.733333	7.96463E-001	1.01225E-004	0.00000E+000	8.06221E-005	5.99601E-002	7.96758E-001	3.57880E+000	9	...........
	55	0.746667	8.04241E-001	1.01045E-004	0.00000E+000	8.12645E-005	5.99601E-002	8.04565E-001	3.57880E+000	9	...........
	56	0.76	8.11902E-001	1.00004E-004	0.00000E+000	8.11935E-005	5.99601E-002	8.12213E-001	3.57880E+000	9	...........
	57	0.773333	8.19436E-001	1.00896E-004	0.00000E+000	8.26777E-005	5.99601E-002	8.19758E-001	3.57880E+000	9	...........
	58	0.786667	8.26827E-001	1.01593E-004	0.00000E+000	8.39998E-005	5.99601E-002	8.27142E-001	3.57963E+000	9	...........
	59	0.8	8.34052E-001	1.00905E-004	0.00000E+000	8.41603E-005	5.99601E-002	8.34378E-001	3.57990E+000	9	...........
	60	0.813333	8.41169E-001	1.01531E-004	0.00000E+000	8.54051E-005	5.99601E-002	8.41492E-001	3.57990E+000	9	...........
	61	0.826667	8.48179E-001	9.99478E-005	0.00000E+000	8.47736E-005	5.99601E-002	8.48517E-001	3.57990E+000	9	...........
	62	0.84	8.55025E-001	1.00230E-004	0.00000E+000	8.56993E-005	5.99601E-002	8.55366E-001	3.57990E+000	9	...........
	63	0.853333	8.61780E-001	1.00555E-004	0.00000E+000	8.66565E-005	5.99601E-002	8.62116E-001	3.57990E+000	9	...........
	64	0.866667	8.68415E-001	1.01276E-004	0.00000E+000	8.79498E-005	5.99601E-002	8.68744E-001	3.57990E+000	9	...........
	65	0.88	8.74911E-001	1.01613E-004	0.00000E+000	8.89021E-005	5.99601E-002	8.75272E-001	3.57990E+000	9	...........
	66	0.893333	8.81293E-001	1.01748E-004	0.00000E+000	8.96700E-005	5.99601E-002	8.81661E-001	3.57990E+000	9	...........
	67	0.906667	8.87572E-001	1.00928E-004	0.00000E+000	8.95811E-005	5.99601E-002	8.87929E-001	3.57990E+000	9	...........
	68	0.92	8.93708E-001	1.01142E-004	0.00000E+000	9.03913E-005	5.99601E-002	8.94094E-001	3.57990E+000	9	...........
	69	0.933333	8.99751E-001	1.01072E-004	0.00000E+000	9.09397E-005	5.99601E-002	9.00143E-001	3.57990E+000	9	...........
	70	0.946667	9.05691E-001	1.00660E-004	0.00000E+000	9.11673E-005	5.99601E-002	9.06082E-001	3.57990E+000	9	...........
	71	0.96	9.11516E-001	1.01108E-004	0.00000E+000	9.21620E-005	5.99601E-002	9.11893E-001	3.57990E+000	9	...........
	72	0.97333	9.17238E-001	1.00629E-004	0.00000E+000	9.23009E-005	5.99601E-002	9.17622E-001	3.57990E+000	9	...........
	73	0.98667	9.22920E-001	1.01159E-004	0.00000E+000	9.33612E-005	5.99601E-002	9.23237E-001	3.57990E+000	9	...........
	74	1	9.28401E-001	1.00207E-004	0.00000E+000	9.30325E-005	5.99601E-002	9.28742E-001	3.57990E+000	9	...........
	75	1.01333	9.33802E-001	1.01330E-004	0.00000E+000	9.46225E-005	5.99601E-002	9.34133E-001	3.57990E+000	9	...........
	76	1.02667	9.39091E-001	1.01105E-004	0.00000E+000	9.49471E-005	5.99601E-002	9.39449E-001	3.57990E+000	9	...........
	77	1.04	9.44310E-001	1.01201E-004	0.00000E+000	9.55654E-005	5.99601E-002	9.44648E-001	3.57990E+000	9	...........
	78	1.05333	9.49439E-001	1.01000E-004	0.00000E+000	9.58934E-005	5.99601E-002	9.49773E-001	3.57990E+000	9	...........
	79	1.06667	9.54413E-001	1.01003E-004	0.00000E+000	9.63988E-005	5.99601E-002	9.54759E-001	3.57990E+000	9	...........
	80	1.08	9.59314E-001	1.00987E-004	0.00000E+000	9.68778E-005	5.99601E-002	9.59678E-001	3.57990E+000	9	...........
	81	1.09333	9.64120E-001	1.01209E-004	0.00000E+000	9.75772E-005	5.99601E-002	9.64485E-001	3.57990E+000	9	...........
	82	1.10667	9.68804E-001	1.00101E-004	0.00000E+000	9.69783E-005	5.99601E-002	9.69196E-001	3.57990E+000	9	...........
	83	1.12	9.73461E-001	9.98853E-005	0.00000E+000	9.72345E-005	5.99601E-002	9.73828E-001	3.57990E+000	9	...........
	84	1.13333	9.77980E-001	1.00937E-004	0.00000E+000	9.87140E-005	5.99601E-002	9.78331E-001	3.57990E+000	9	...........
	85	1.14667	9.82398E-001	1.00447E-004	0.00000E+000	9.86789E-005	5.99601E-002	9.82734E-001	3.57990E+000	9	...........
	86	1.16	9.86731E-001	1.01193E-004	0.00000E+000	9.98502E-005	5.99601E-002	9.87064E-001	3.57990E+000	9	...........
	87	1.17333	9.90984E-001	1.00681E-004	0.00000E+000	9.97736E-005	5.99601E-002	9.91291E-001	3.57990E+000	9	...........
	88	1.18667	9.95122E-001	1.00985E-004	0.00000E+000	1.00492E-004	5.99601E-002	9.95435E-001	3.57990E+000	9	...........
	89	1.19833	9.98934E-001	1.00500E-004	0.00000E+000	1.00393E-004	5.99601E-002	9.99292E-001	3.57990E+000	9	...........
STARTTIMEOFFSET	QUANT	1828.542	Start Time Offset (s)
