EXPLAIN
TAG	PWR800_CHARGE
TITLE	LABEL	PWR Cyclic Charge Discharge (Cell) - Charge Step	Test &Identifier
DATE	LABEL	13-7-2017	Date
TIME	LABEL	15:22:33	Time
NOTES	NOTES	2	&Notes...
	supercap test cell
	6M KOH
PSTAT	PSTAT	IFC5000-01520	Potentiostat
CAPACITY	QUANT	1.00000E-003	Capacity (A-hr)
CELLTYPE	SELECTOR	1	&Cell Type
WORKINGCONNECTION	SELECTOR	0	&Working Lead
MAXCHARGETIME	VARIABLEANDUNITS	1.00000E+002	s	1.00000E+002	second(s)	Max &Charge Time
CHARGECURRENT	QUANT	1.00000E-004	&Charge Current (A) 
VOLTAGEFINISH	TWOPARAM	F	1.00000E-003	3.60000E+003	&Voltage Finish	 I (A) < 	Max Time(s)
SAMPLETIME	QUANT	1.00000E-002	Sa&mple Period (s)
CHARGESTOPAT1	MULTIPARAM	4	1.00000E+000	Charge Stop At &1	Voltage > Limit	V
CHARGESTOPAT2	MULTIPARAM	0	0.00000E+000	Charge Stop At &2	None	N/A
AESBHCSELECTOR	TOGGLE	F	Save Both Half Cells
IRCOMP	TOGGLE	F	IR &Measure
EOC	QUANT	0	Open Circuit (V)
SEQUENCER	TOGGLE	TRUE	Run as Sequence
PSTATMODEL	IQUANT	53	Pstat Model
PSTATSECTION	LABEL	IFC5000-01520	Pstat Section
PSTATSERIALNO	LABEL	01520	Pstat Serial Number
CTRLMODE	IQUANT	0	Control Mode
ELECTROMETER	IQUANT	1	RE=0 or CS=1
IESTAB	IQUANT	0	I/E Stability
CASPEED	IQUANT	4	Control Amp Speed
CONVENTION	IQUANT	1	Current Convention
ICHRANGE	IQUANT	2	Ich Range
ICHRANGEMODE	TOGGLE	T	Ich Auto Range
ICHOFFSETENABLE	TOGGLE	F	Ich Offset Enable
ICHOFFSET	QUANT	0	Ich Offset (V)
ICHFILTER	IQUANT	1	Ich Filter
VCHRANGE	IQUANT	2	Vch Range
VCHRANGEMODE	TOGGLE	T	Vch Auto Range
VCHOFFSETENABLE	TOGGLE	F	Vch Offset Enable
VCHOFFSET	QUANT	0	Vch Offset (V)
VCHFILTER	IQUANT	1	Vch Filter
IERANGELOWERLIMIT	IQUANT	9	I/E Range Lower Limit
IERANGEMODE	TOGGLE	F	I/E AutoRange
IERANGE	IQUANT	9	I/E Range
ACHSELECT	IQUANT	1	Ach Select
ACHRANGE	IQUANT	2	Ach Range
ACHOFFSETENABLE	TOGGLE	F	Ach Offset Enable
ACHOFFSET	QUANT	0	Ach Offset (V)
ACHFILTER	IQUANT	1	Ach Filter
CABLEID	IQUANT	14	Cable ID
DCCALDATE	LABEL	5-7-2017	DC Calibration Date
ACCALDATE	LABEL	12/3/2015	AC Calibration Date
FRAMEWORKVERSION	QUANT	7.01	Framework Version
INSTRUMENTVERSION	LABEL	4.00	Instrument Version
CURVE	TABLE	94
	Pt	T	Vf	Im	Vu	Pwr	Sig	Ach	Temp	IERange	Over
	#	s	V	A	V	W	V	V	deg C	#	bits
	0	0.013333	1.31660E-001	1.00632E-004	0.00000E+000	1.32493E-005	5.99601E-002	1.31706E-001	3.58000E+000	9	...........
	1	0.026667	1.46906E-001	1.00762E-004	0.00000E+000	1.48025E-005	5.99601E-002	1.46927E-001	3.58000E+000	9	...........
	2	0.04	1.61699E-001	1.01615E-004	0.00000E+000	1.64310E-005	5.99601E-002	1.61728E-001	3.58000E+000	9	...........
	3	0.053333	1.76226E-001	1.00279E-004	0.00000E+000	1.76718E-005	5.99601E-002	1.76262E-001	3.58000E+000	9	...........
	4	0.066667	1.90564E-001	1.01202E-004	0.00000E+000	1.92855E-005	5.99601E-002	1.90596E-001	3.58000E+000	9	...........
	5	0.08	2.04753E-001	1.01204E-004	0.00000E+000	2.07219E-005	5.99601E-002	2.04790E-001	3.58000E+000	9	...........
	6	0.093333	2.18845E-001	1.00525E-004	0.00000E+000	2.19994E-005	5.99601E-002	2.18881E-001	3.58000E+000	9	...........
	7	0.106667	2.32859E-001	1.00327E-004	0.00000E+000	2.33621E-005	5.99601E-002	2.32898E-001	3.58000E+000	9	...........
	8	0.12	2.46827E-001	1.02021E-004	0.00000E+000	2.51816E-005	5.99601E-002	2.46871E-001	3.58000E+000	9	...........
	9	0.133333	2.60762E-001	1.01364E-004	0.00000E+000	2.64318E-005	5.99601E-002	2.60812E-001	3.58000E+000	9	...........
	10	0.146667	2.74688E-001	1.01043E-004	0.00000E+000	2.77552E-005	5.99601E-002	2.74737E-001	3.58000E+000	9	...........
	11	0.16	2.88603E-001	1.00080E-004	0.00000E+000	2.88834E-005	5.99601E-002	2.88658E-001	3.58000E+000	9	...........
	12	0.173333	3.02525E-001	1.02088E-004	0.00000E+000	3.08842E-005	5.99601E-002	3.02587E-001	3.58000E+000	9	...........
	13	0.186667	3.16454E-001	1.01234E-004	0.00000E+000	3.20358E-005	5.99601E-002	3.16518E-001	3.58000E+000	9	...........
	14	0.2	3.30400E-001	1.01315E-004	0.00000E+000	3.34744E-005	5.99601E-002	3.30466E-001	3.58000E+000	9	...........
	15	0.213333	3.44360E-001	1.00897E-004	0.00000E+000	3.47448E-005	5.99601E-002	3.44424E-001	3.58000E+000	9	...........
	16	0.226667	3.58336E-001	1.01096E-004	0.00000E+000	3.62263E-005	5.99601E-002	3.58402E-001	3.57972E+000	9	...........
	17	0.24	3.72310E-001	1.00244E-004	0.00000E+000	3.73217E-005	5.99601E-002	3.72383E-001	3.57890E+000	9	...........
	18	0.253333	3.86274E-001	1.00383E-004	0.00000E+000	3.87755E-005	5.99601E-002	3.86349E-001	3.57890E+000	9	...........
	19	0.266667	4.00224E-001	1.00930E-004	0.00000E+000	4.03947E-005	5.99601E-002	4.00300E-001	3.57890E+000	9	...........
	20	0.28	4.14125E-001	1.00106E-004	0.00000E+000	4.14564E-005	5.99601E-002	4.14213E-001	3.57890E+000	9	...........
	21	0.293333	4.27987E-001	1.00811E-004	0.00000E+000	4.31456E-005	5.99601E-002	4.28076E-001	3.57890E+000	9	...........
	22	0.306667	4.41767E-001	1.01742E-004	0.00000E+000	4.49463E-005	5.99601E-002	4.41868E-001	3.57890E+000	9	...........
	23	0.32	4.55467E-001	1.00927E-004	0.00000E+000	4.59690E-005	5.99601E-002	4.55559E-001	3.57890E+000	9	...........
	24	0.333333	4.69042E-001	1.00520E-004	0.00000E+000	4.71480E-005	5.99601E-002	4.69139E-001	3.57890E+000	9	...........
	25	0.346667	4.82480E-001	1.00730E-004	0.00000E+000	4.86003E-005	5.99601E-002	4.82584E-001	3.57890E+000	9	...........
	26	0.36	4.95759E-001	1.01081E-004	0.00000E+000	5.01120E-005	5.99601E-002	4.95865E-001	3.57890E+000	9	...........
	27	0.373333	5.08865E-001	1.00854E-004	0.00000E+000	5.13212E-005	5.99601E-002	5.08974E-001	3.57890E+000	9	...........
	28	0.386667	5.21788E-001	1.00780E-004	0.00000E+000	5.25860E-005	5.99601E-002	5.21902E-001	3.57890E+000	9	...........
	29	0.4	5.34333E-001	1.01386E-004	0.00000E+000	5.41737E-005	5.99601E-002	5.34521E-001	3.57890E+000	9	...........
	30	0.413333	5.46683E-001	1.01411E-004	0.00000E+000	5.54395E-005	5.99601E-002	5.46936E-001	3.57890E+000	9	...........
	31	0.426667	5.58987E-001	1.00771E-004	0.00000E+000	5.63296E-005	5.99601E-002	5.59247E-001	3.57890E+000	9	...........
	32	0.44	5.71077E-001	1.01070E-004	0.00000E+000	5.77188E-005	5.99601E-002	5.71335E-001	3.57890E+000	9	...........
	33	0.453333	5.82927E-001	1.01447E-004	0.00000E+000	5.91362E-005	5.99601E-002	5.83203E-001	3.57890E+000	9	...........
	34	0.466667	5.94579E-001	1.01821E-004	0.00000E+000	6.05407E-005	5.99601E-002	5.94848E-001	3.57890E+000	9	...........
	35	0.48	6.05968E-001	1.01406E-004	0.00000E+000	6.14491E-005	5.99601E-002	6.06241E-001	3.57890E+000	9	...........
	36	0.493333	6.17181E-001	1.00189E-004	0.00000E+000	6.18344E-005	5.99601E-002	6.17449E-001	3.57890E+000	9	...........
	37	0.506667	6.28146E-001	1.00712E-004	0.00000E+000	6.32616E-005	5.99601E-002	6.28428E-001	3.57890E+000	9	...........
	38	0.52	6.38900E-001	1.00849E-004	0.00000E+000	6.44325E-005	5.99601E-002	6.39179E-001	3.57890E+000	9	...........
	39	0.533333	6.49443E-001	1.00898E-004	0.00000E+000	6.55275E-005	5.99601E-002	6.49704E-001	3.57890E+000	9	...........
	40	0.546667	6.59755E-001	1.01170E-004	0.00000E+000	6.67474E-005	5.99601E-002	6.60043E-001	3.57890E+000	9	...........
	41	0.56	6.69887E-001	1.01459E-004	0.00000E+000	6.79657E-005	5.99601E-002	6.70180E-001	3.57890E+000	9	...........
	42	0.573333	6.79780E-001	1.01047E-004	0.00000E+000	6.86898E-005	5.99601E-002	6.80057E-001	3.57890E+000	9	...........
	43	0.586667	6.89474E-001	1.01502E-004	0.00000E+000	6.99832E-005	5.99601E-002	6.89784E-001	3.57890E+000	9	...........
	44	0.6	6.99017E-001	1.00877E-004	0.00000E+000	7.05149E-005	5.99601E-002	6.99306E-001	3.57890E+000	9	...........
	45	0.613333	7.08323E-001	1.01006E-004	0.00000E+000	7.15452E-005	5.99601E-002	7.08606E-001	3.57890E+000	9	...........
	46	0.626667	7.17490E-001	1.00393E-004	0.00000E+000	7.20308E-005	5.99601E-002	7.17746E-001	3.57890E+000	9	...........
	47	0.64	7.26487E-001	1.00416E-004	0.00000E+000	7.29507E-005	5.99601E-002	7.26709E-001	3.57890E+000	9	...........
	48	0.653333	7.35251E-001	1.01238E-004	0.00000E+000	7.44351E-005	5.99601E-002	7.35534E-001	3.57890E+000	9	...........
	49	0.666667	7.43899E-001	1.00893E-004	0.00000E+000	7.50541E-005	5.99601E-002	7.44169E-001	3.57890E+000	9	...........
	50	0.68	7.52360E-001	1.01300E-004	0.00000E+000	7.62142E-005	5.99601E-002	7.52595E-001	3.57890E+000	9	...........
	51	0.693333	7.60653E-001	1.00726E-004	0.00000E+000	7.66176E-005	5.99601E-002	7.60882E-001	3.57890E+000	9	...........
	52	0.706667	7.68776E-001	1.01375E-004	0.00000E+000	7.79348E-005	5.99601E-002	7.69041E-001	3.57890E+000	9	...........
	53	0.72	7.76793E-001	1.01091E-004	0.00000E+000	7.85267E-005	5.99601E-002	7.77021E-001	3.57890E+000	9	...........
	54	0.733333	7.84640E-001	1.00742E-004	0.00000E+000	7.90460E-005	5.99601E-002	7.84869E-001	3.57890E+000	9	...........
	55	0.746667	7.92323E-001	1.00778E-004	0.00000E+000	7.98489E-005	5.99601E-002	7.92595E-001	3.57890E+000	9	...........
	56	0.76	7.99898E-001	1.01600E-004	0.00000E+000	8.12699E-005	5.99601E-002	8.00160E-001	3.57890E+000	9	...........
	57	0.773333	8.07291E-001	1.01055E-004	0.00000E+000	8.15811E-005	5.99601E-002	8.07578E-001	3.57890E+000	9	...........
	58	0.786667	8.14570E-001	1.00380E-004	0.00000E+000	8.17667E-005	5.99601E-002	8.14881E-001	3.57890E+000	9	...........
	59	0.8	8.21743E-001	1.00212E-004	0.00000E+000	8.23489E-005	5.99601E-002	8.22070E-001	3.57890E+000	9	...........
	60	0.813333	8.28770E-001	1.01039E-004	0.00000E+000	8.37379E-005	5.99601E-002	8.29101E-001	3.57890E+000	9	...........
	61	0.826667	8.35657E-001	1.00546E-004	0.00000E+000	8.40218E-005	5.99601E-002	8.36007E-001	3.57890E+000	9	...........
	62	0.84	8.42445E-001	9.99301E-005	0.00000E+000	8.41857E-005	5.99601E-002	8.42788E-001	3.57890E+000	9	...........
	63	0.853333	8.49128E-001	1.01040E-004	0.00000E+000	8.57956E-005	5.99601E-002	8.49481E-001	3.57890E+000	9	...........
	64	0.866667	8.55670E-001	1.00136E-004	0.00000E+000	8.56838E-005	5.99601E-002	8.56012E-001	3.57890E+000	9	...........
	65	0.88	8.62099E-001	1.00745E-004	0.00000E+000	8.68520E-005	5.99601E-002	8.62429E-001	3.57890E+000	9	...........
	66	0.893333	8.68427E-001	1.00799E-004	0.00000E+000	8.75367E-005	5.99601E-002	8.68773E-001	3.57890E+000	9	...........
	67	0.906667	8.74663E-001	1.00781E-004	0.00000E+000	8.81498E-005	5.99601E-002	8.75014E-001	3.57890E+000	9	...........
	68	0.92	8.80738E-001	1.01085E-004	0.00000E+000	8.90290E-005	5.99601E-002	8.81099E-001	3.57890E+000	9	...........
	69	0.933333	8.86740E-001	1.00573E-004	0.00000E+000	8.91821E-005	5.99601E-002	8.87102E-001	3.57890E+000	9	...........
	70	0.946667	8.92635E-001	9.99405E-005	0.00000E+000	8.92104E-005	5.99601E-002	8.92997E-001	3.57890E+000	9	...........
	71	0.96	8.98425E-001	1.00789E-004	0.00000E+000	9.05510E-005	5.99601E-002	8.98797E-001	3.57890E+000	9	...........
	72	0.97333	9.04093E-001	1.00573E-004	0.00000E+000	9.09273E-005	5.99601E-002	9.04493E-001	3.57890E+000	9	...........
	73	0.98667	9.09711E-001	1.01538E-004	0.00000E+000	9.23700E-005	5.99601E-002	9.10092E-001	3.57890E+000	9	...........
	74	1	9.15181E-001	1.00426E-004	0.00000E+000	9.19080E-005	5.99601E-002	9.15598E-001	3.57890E+000	9	...........
	75	1.01333	9.20587E-001	1.00721E-004	0.00000E+000	9.27223E-005	5.99601E-002	9.20978E-001	3.57890E+000	9	...........
	76	1.02667	9.25920E-001	1.00618E-004	0.00000E+000	9.31640E-005	5.99601E-002	9.26278E-001	3.57890E+000	9	...........
	77	1.04	9.31112E-001	1.00828E-004	0.00000E+000	9.38824E-005	5.99601E-002	9.31477E-001	3.57890E+000	9	...........
	78	1.05333	9.36192E-001	1.01288E-004	0.00000E+000	9.48248E-005	5.99601E-002	9.36572E-001	3.57890E+000	9	...........
	79	1.06667	9.41199E-001	1.02066E-004	0.00000E+000	9.60644E-005	5.99601E-002	9.41573E-001	3.57890E+000	9	...........
	80	1.08	9.46110E-001	1.00884E-004	0.00000E+000	9.54478E-005	5.99601E-002	9.46496E-001	3.57890E+000	9	...........
	81	1.09333	9.50970E-001	9.95915E-005	0.00000E+000	9.47086E-005	5.99601E-002	9.51311E-001	3.57890E+000	9	...........
	82	1.10667	9.55686E-001	1.01203E-004	0.00000E+000	9.67186E-005	5.99601E-002	9.56034E-001	3.57890E+000	9	...........
	83	1.12	9.60329E-001	1.01293E-004	0.00000E+000	9.72745E-005	5.99601E-002	9.60685E-001	3.57890E+000	9	...........
	84	1.13333	9.64871E-001	1.00488E-004	0.00000E+000	9.69575E-005	5.99601E-002	9.65249E-001	3.57890E+000	9	...........
	85	1.14667	9.69331E-001	1.01045E-004	0.00000E+000	9.79460E-005	5.99601E-002	9.69700E-001	3.57890E+000	9	...........
	86	1.16	9.73745E-001	1.00036E-004	0.00000E+000	9.74099E-005	5.99601E-002	9.74104E-001	3.57890E+000	9	...........
	87	1.17333	9.78030E-001	1.00962E-004	0.00000E+000	9.87435E-005	5.99601E-002	9.78363E-001	3.57890E+000	9	...........
	88	1.18667	9.82217E-001	1.01257E-004	0.00000E+000	9.94568E-005	5.99601E-002	9.82589E-001	3.57890E+000	9	...........
	89	1.2	9.86331E-001	1.01170E-004	0.00000E+000	9.97871E-005	5.99601E-002	9.86702E-001	3.57890E+000	9	...........
	90	1.21333	9.90362E-001	1.00658E-004	0.00000E+000	9.96883E-005	5.99601E-002	9.90715E-001	3.57890E+000	9	...........
	91	1.22667	9.94289E-001	1.00535E-004	0.00000E+000	9.99613E-005	5.99601E-002	9.94625E-001	3.57892E+000	9	...........
	92	1.24	9.98155E-001	1.00725E-004	0.00000E+000	1.00539E-004	5.99601E-002	9.98536E-001	3.57900E+000	9	...........
	93	1.24167	1.00027E+000	1.00873E-004	0.00000E+000	1.00900E-004	5.99601E-002	1.00066E+000	3.57900E+000	9	...........
STARTTIMEOFFSET	QUANT	929.7637	Start Time Offset (s)
