EXPLAIN
TAG	PWR800_CHARGE
TITLE	LABEL	PWR Cyclic Charge Discharge (Cell) - Charge Step	Test &Identifier
DATE	LABEL	13-7-2017	Date
TIME	LABEL	15:08:44	Time
NOTES	NOTES	2	&Notes...
	supercap test cell
	6M KOH
PSTAT	PSTAT	IFC5000-01520	Potentiostat
CAPACITY	QUANT	1.00000E-003	Capacity (A-hr)
CELLTYPE	SELECTOR	1	&Cell Type
WORKINGCONNECTION	SELECTOR	0	&Working Lead
MAXCHARGETIME	VARIABLEANDUNITS	1.00000E+002	s	1.00000E+002	second(s)	Max &Charge Time
CHARGECURRENT	QUANT	1.00000E-004	&Charge Current (A) 
VOLTAGEFINISH	TWOPARAM	F	1.00000E-003	3.60000E+003	&Voltage Finish	 I (A) < 	Max Time(s)
SAMPLETIME	QUANT	1.00000E-002	Sa&mple Period (s)
CHARGESTOPAT1	MULTIPARAM	4	1.00000E+000	Charge Stop At &1	Voltage > Limit	V
CHARGESTOPAT2	MULTIPARAM	0	0.00000E+000	Charge Stop At &2	None	N/A
AESBHCSELECTOR	TOGGLE	F	Save Both Half Cells
IRCOMP	TOGGLE	F	IR &Measure
EOC	QUANT	0	Open Circuit (V)
SEQUENCER	TOGGLE	TRUE	Run as Sequence
PSTATMODEL	IQUANT	53	Pstat Model
PSTATSECTION	LABEL	IFC5000-01520	Pstat Section
PSTATSERIALNO	LABEL	01520	Pstat Serial Number
CTRLMODE	IQUANT	0	Control Mode
ELECTROMETER	IQUANT	1	RE=0 or CS=1
IESTAB	IQUANT	0	I/E Stability
CASPEED	IQUANT	4	Control Amp Speed
CONVENTION	IQUANT	1	Current Convention
ICHRANGE	IQUANT	2	Ich Range
ICHRANGEMODE	TOGGLE	T	Ich Auto Range
ICHOFFSETENABLE	TOGGLE	F	Ich Offset Enable
ICHOFFSET	QUANT	0	Ich Offset (V)
ICHFILTER	IQUANT	1	Ich Filter
VCHRANGE	IQUANT	2	Vch Range
VCHRANGEMODE	TOGGLE	T	Vch Auto Range
VCHOFFSETENABLE	TOGGLE	F	Vch Offset Enable
VCHOFFSET	QUANT	0	Vch Offset (V)
VCHFILTER	IQUANT	1	Vch Filter
IERANGELOWERLIMIT	IQUANT	9	I/E Range Lower Limit
IERANGEMODE	TOGGLE	F	I/E AutoRange
IERANGE	IQUANT	9	I/E Range
ACHSELECT	IQUANT	1	Ach Select
ACHRANGE	IQUANT	2	Ach Range
ACHOFFSETENABLE	TOGGLE	F	Ach Offset Enable
ACHOFFSET	QUANT	0	Ach Offset (V)
ACHFILTER	IQUANT	1	Ach Filter
CABLEID	IQUANT	14	Cable ID
DCCALDATE	LABEL	5-7-2017	DC Calibration Date
ACCALDATE	LABEL	12/3/2015	AC Calibration Date
FRAMEWORKVERSION	QUANT	7.01	Framework Version
INSTRUMENTVERSION	LABEL	4.00	Instrument Version
CURVE	TABLE	98
	Pt	T	Vf	Im	Vu	Pwr	Sig	Ach	Temp	IERange	Over
	#	s	V	A	V	W	V	V	deg C	#	bits
	0	0.013333	1.33424E-001	1.00877E-004	0.00000E+000	1.34594E-005	5.99601E-002	1.33464E-001	3.57930E+000	9	...........
	1	0.026667	1.48735E-001	1.00500E-004	0.00000E+000	1.49478E-005	5.99601E-002	1.48755E-001	3.57930E+000	9	...........
	2	0.04	1.63599E-001	1.00626E-004	0.00000E+000	1.64624E-005	5.99601E-002	1.63629E-001	3.57930E+000	9	...........
	3	0.053333	1.78198E-001	1.00252E-004	0.00000E+000	1.78647E-005	5.99601E-002	1.78235E-001	3.57930E+000	9	...........
	4	0.066667	1.92602E-001	1.00876E-004	0.00000E+000	1.94290E-005	5.99601E-002	1.92639E-001	3.57930E+000	9	...........
	5	0.08	2.06864E-001	1.00165E-004	0.00000E+000	2.07204E-005	5.99601E-002	2.06903E-001	3.57930E+000	9	...........
	6	0.093333	2.21018E-001	1.00531E-004	0.00000E+000	2.22192E-005	5.99601E-002	2.21055E-001	3.57930E+000	9	...........
	7	0.106667	2.35092E-001	1.00244E-004	0.00000E+000	2.35665E-005	5.99601E-002	2.35138E-001	3.57930E+000	9	...........
	8	0.12	2.49108E-001	1.01501E-004	0.00000E+000	2.52848E-005	5.99601E-002	2.49158E-001	3.57930E+000	9	...........
	9	0.133333	2.63082E-001	1.00972E-004	0.00000E+000	2.65639E-005	5.99601E-002	2.63138E-001	3.57930E+000	9	...........
	10	0.146667	2.77034E-001	1.00872E-004	0.00000E+000	2.79450E-005	5.99601E-002	2.77091E-001	3.57930E+000	9	...........
	11	0.16	2.90966E-001	1.01928E-004	0.00000E+000	2.96577E-005	5.99601E-002	2.91019E-001	3.57930E+000	9	...........
	12	0.173333	3.04878E-001	9.99405E-005	0.00000E+000	3.04697E-005	5.99601E-002	3.04939E-001	3.57930E+000	9	...........
	13	0.186667	3.18789E-001	1.01115E-004	0.00000E+000	3.22343E-005	5.99601E-002	3.18849E-001	3.57930E+000	9	...........
	14	0.2	3.32684E-001	1.01211E-004	0.00000E+000	3.36712E-005	5.99601E-002	3.32748E-001	3.57930E+000	9	...........
	15	0.213333	3.46578E-001	1.01498E-004	0.00000E+000	3.51770E-005	5.99601E-002	3.46639E-001	3.57930E+000	9	...........
	16	0.226667	3.60449E-001	1.01359E-004	0.00000E+000	3.65346E-005	5.99601E-002	3.60515E-001	3.57930E+000	9	...........
	17	0.24	3.74282E-001	1.00542E-004	0.00000E+000	3.76309E-005	5.99601E-002	3.74358E-001	3.57930E+000	9	...........
	18	0.253333	3.88093E-001	1.01920E-004	0.00000E+000	3.95545E-005	5.99601E-002	3.88166E-001	3.57930E+000	9	...........
	19	0.266667	4.01840E-001	1.01075E-004	0.00000E+000	4.06161E-005	5.99601E-002	4.01918E-001	3.57930E+000	9	...........
	20	0.28	4.15519E-001	1.00498E-004	0.00000E+000	4.17588E-005	5.99601E-002	4.15606E-001	3.57930E+000	9	...........
	21	0.293333	4.29117E-001	1.01417E-004	0.00000E+000	4.35197E-005	5.99601E-002	4.29209E-001	3.57930E+000	9	...........
	22	0.306667	4.42603E-001	1.01486E-004	0.00000E+000	4.49179E-005	5.99601E-002	4.42698E-001	3.57930E+000	9	...........
	23	0.32	4.55964E-001	1.01235E-004	0.00000E+000	4.61593E-005	5.99601E-002	4.56064E-001	3.57930E+000	9	...........
	24	0.333333	4.69187E-001	1.01076E-004	0.00000E+000	4.74236E-005	5.99601E-002	4.69282E-001	3.57930E+000	9	...........
	25	0.346667	4.82241E-001	1.00882E-004	0.00000E+000	4.86497E-005	5.99601E-002	4.82346E-001	3.57930E+000	9	...........
	26	0.36	4.95127E-001	1.00778E-004	0.00000E+000	4.98981E-005	5.99601E-002	4.95231E-001	3.57930E+000	9	...........
	27	0.373333	5.07820E-001	1.00471E-004	0.00000E+000	5.10211E-005	5.99601E-002	5.07933E-001	3.57930E+000	9	...........
	28	0.386667	5.20312E-001	1.00833E-004	0.00000E+000	5.24649E-005	5.99601E-002	5.20430E-001	3.57930E+000	9	...........
	29	0.4	5.32454E-001	1.00290E-004	0.00000E+000	5.33996E-005	5.99601E-002	5.32628E-001	3.57930E+000	9	...........
	30	0.413333	5.44321E-001	9.96394E-005	0.00000E+000	5.42359E-005	5.99601E-002	5.44570E-001	3.57930E+000	9	...........
	31	0.426667	5.56133E-001	1.00414E-004	0.00000E+000	5.58433E-005	5.99601E-002	5.56430E-001	3.57930E+000	9	...........
	32	0.44	5.67793E-001	1.00724E-004	0.00000E+000	5.71904E-005	5.99601E-002	5.68077E-001	3.57930E+000	9	...........
	33	0.453333	5.79194E-001	1.01013E-004	0.00000E+000	5.85059E-005	5.99601E-002	5.79497E-001	3.57930E+000	9	...........
	34	0.466667	5.90368E-001	1.00651E-004	0.00000E+000	5.94212E-005	5.99601E-002	5.90700E-001	3.57930E+000	9	...........
	35	0.48	6.01326E-001	1.00488E-004	0.00000E+000	6.04258E-005	5.99601E-002	6.01663E-001	3.57930E+000	9	...........
	36	0.493333	6.12101E-001	1.00567E-004	0.00000E+000	6.15570E-005	5.99601E-002	6.12407E-001	3.57930E+000	9	...........
	37	0.506667	6.22673E-001	1.00033E-004	0.00000E+000	6.22880E-005	5.99601E-002	6.22954E-001	3.57930E+000	9	...........
	38	0.52	6.32977E-001	1.01366E-004	0.00000E+000	6.41622E-005	5.99601E-002	6.33266E-001	3.57930E+000	9	...........
	39	0.533333	6.43095E-001	1.00136E-004	0.00000E+000	6.43973E-005	5.99601E-002	6.43386E-001	3.57930E+000	9	...........
	40	0.546667	6.53028E-001	1.01670E-004	0.00000E+000	6.63934E-005	5.99601E-002	6.53304E-001	3.57930E+000	9	...........
	41	0.56	6.62735E-001	1.01138E-004	0.00000E+000	6.70275E-005	5.99601E-002	6.63015E-001	3.57930E+000	9	...........
	42	0.573333	6.72246E-001	1.00435E-004	0.00000E+000	6.75173E-005	5.99601E-002	6.72520E-001	3.57930E+000	9	...........
	43	0.586667	6.81555E-001	1.00461E-004	0.00000E+000	6.84700E-005	5.99601E-002	6.81863E-001	3.57930E+000	9	...........
	44	0.6	6.90675E-001	1.00987E-004	0.00000E+000	6.97490E-005	5.99601E-002	6.90993E-001	3.57930E+000	9	...........
	45	0.613333	6.99674E-001	1.01695E-004	0.00000E+000	7.11534E-005	5.99601E-002	6.99948E-001	3.57930E+000	9	...........
	46	0.626667	7.08440E-001	1.00966E-004	0.00000E+000	7.15281E-005	5.99601E-002	7.08759E-001	3.57930E+000	9	...........
	47	0.64	7.17068E-001	1.02192E-004	0.00000E+000	7.32786E-005	5.99601E-002	7.17369E-001	3.57930E+000	9	...........
	48	0.653333	7.25531E-001	1.00466E-004	0.00000E+000	7.28909E-005	5.99601E-002	7.25828E-001	3.57930E+000	9	...........
	49	0.666667	7.33799E-001	1.00691E-004	0.00000E+000	7.38867E-005	5.99601E-002	7.34099E-001	3.57930E+000	9	...........
	50	0.68	7.41944E-001	1.00767E-004	0.00000E+000	7.47633E-005	5.99601E-002	7.42255E-001	3.57930E+000	9	...........
	51	0.693333	7.49909E-001	1.01366E-004	0.00000E+000	7.60151E-005	5.99601E-002	7.50211E-001	3.57930E+000	9	...........
	52	0.706667	7.57754E-001	1.00668E-004	0.00000E+000	7.62814E-005	5.99601E-002	7.58059E-001	3.57930E+000	9	...........
	53	0.72	7.65424E-001	1.01260E-004	0.00000E+000	7.75065E-005	5.99601E-002	7.65734E-001	3.57930E+000	9	...........
	54	0.733333	7.72980E-001	1.01132E-004	0.00000E+000	7.81733E-005	5.99601E-002	7.73292E-001	3.57930E+000	9	...........
	55	0.746667	7.80377E-001	1.00326E-004	0.00000E+000	7.82922E-005	5.99601E-002	7.80681E-001	3.57930E+000	9	...........
	56	0.76	7.87653E-001	1.00284E-004	0.00000E+000	7.89892E-005	5.99601E-002	7.87942E-001	3.57930E+000	9	...........
	57	0.773333	7.94808E-001	1.01727E-004	0.00000E+000	8.08537E-005	5.99601E-002	7.95098E-001	3.57930E+000	9	...........
	58	0.786667	8.01827E-001	1.00535E-004	0.00000E+000	8.06120E-005	5.99601E-002	8.02120E-001	3.57930E+000	9	...........
	59	0.8	8.08693E-001	1.01289E-004	0.00000E+000	8.19115E-005	5.99601E-002	8.09003E-001	3.57930E+000	9	...........
	60	0.813333	8.15472E-001	1.01075E-004	0.00000E+000	8.24239E-005	5.99601E-002	8.15791E-001	3.57930E+000	9	...........
	61	0.826667	8.22149E-001	1.01261E-004	0.00000E+000	8.32513E-005	5.99601E-002	8.22462E-001	3.57930E+000	9	...........
	62	0.84	8.28680E-001	1.01031E-004	0.00000E+000	8.37227E-005	5.99601E-002	8.29001E-001	3.57930E+000	9	...........
	63	0.853333	8.35095E-001	1.01989E-004	0.00000E+000	8.51704E-005	5.99601E-002	8.35452E-001	3.57930E+000	9	...........
	64	0.866667	8.41431E-001	1.00843E-004	0.00000E+000	8.48523E-005	5.99601E-002	8.41760E-001	3.57930E+000	9	...........
	65	0.88	8.47660E-001	1.00878E-004	0.00000E+000	8.55104E-005	5.99601E-002	8.48027E-001	3.57930E+000	9	...........
	66	0.893333	8.53788E-001	1.00329E-004	0.00000E+000	8.56599E-005	5.99601E-002	8.54127E-001	3.57930E+000	9	...........
	67	0.906667	8.59793E-001	1.00380E-004	0.00000E+000	8.63062E-005	5.99601E-002	8.60142E-001	3.57998E+000	9	...........
	68	0.92	8.65705E-001	1.00880E-004	0.00000E+000	8.73326E-005	5.99601E-002	8.66049E-001	3.58020E+000	9	...........
	69	0.933333	8.71550E-001	1.00549E-004	0.00000E+000	8.76335E-005	5.99601E-002	8.71878E-001	3.58020E+000	9	...........
	70	0.946667	8.77261E-001	1.00694E-004	0.00000E+000	8.83347E-005	5.99601E-002	8.77602E-001	3.58020E+000	9	...........
	71	0.96	8.82879E-001	1.00371E-004	0.00000E+000	8.86153E-005	5.99601E-002	8.83238E-001	3.58020E+000	9	...........
	72	0.97333	8.88421E-001	1.00607E-004	0.00000E+000	8.93817E-005	5.99601E-002	8.88763E-001	3.58020E+000	9	...........
	73	0.98667	8.93859E-001	1.01547E-004	0.00000E+000	9.07688E-005	5.99601E-002	8.94204E-001	3.58020E+000	9	...........
	74	1	8.99199E-001	1.01946E-004	0.00000E+000	9.16699E-005	5.99601E-002	8.99588E-001	3.58020E+000	9	...........
	75	1.01333	9.04447E-001	1.01097E-004	0.00000E+000	9.14369E-005	5.99601E-002	9.04835E-001	3.58020E+000	9	...........
	76	1.02667	9.09651E-001	1.00693E-004	0.00000E+000	9.15953E-005	5.99601E-002	9.10010E-001	3.58020E+000	9	...........
	77	1.04	9.14725E-001	1.00987E-004	0.00000E+000	9.23749E-005	5.99601E-002	9.15089E-001	3.58020E+000	9	...........
	78	1.05333	9.19726E-001	1.01217E-004	0.00000E+000	9.30918E-005	5.99601E-002	9.20098E-001	3.58020E+000	9	...........
	79	1.06667	9.24667E-001	1.00866E-004	0.00000E+000	9.32672E-005	5.99601E-002	9.25005E-001	3.58020E+000	9	...........
	80	1.08	9.29477E-001	1.01024E-004	0.00000E+000	9.38996E-005	5.99601E-002	9.29816E-001	3.58020E+000	9	...........
	81	1.09333	9.34233E-001	1.01386E-004	0.00000E+000	9.47178E-005	5.99601E-002	9.34573E-001	3.58020E+000	9	...........
	82	1.10667	9.38856E-001	1.00870E-004	0.00000E+000	9.47023E-005	5.99601E-002	9.39201E-001	3.58020E+000	9	...........
	83	1.12	9.43429E-001	1.01070E-004	0.00000E+000	9.53523E-005	5.99601E-002	9.43773E-001	3.58020E+000	9	...........
	84	1.13333	9.47951E-001	1.00594E-004	0.00000E+000	9.53580E-005	5.99601E-002	9.48301E-001	3.58020E+000	9	...........
	85	1.14667	9.52358E-001	1.00574E-004	0.00000E+000	9.57825E-005	5.99601E-002	9.52711E-001	3.58020E+000	9	...........
	86	1.16	9.56664E-001	9.98447E-005	0.00000E+000	9.55178E-005	5.99601E-002	9.57049E-001	3.58020E+000	9	...........
	87	1.17333	9.60908E-001	1.00655E-004	0.00000E+000	9.67204E-005	5.99601E-002	9.61299E-001	3.58020E+000	9	...........
	88	1.18667	9.65077E-001	1.00591E-004	0.00000E+000	9.70777E-005	5.99601E-002	9.65466E-001	3.58020E+000	9	...........
	89	1.2	9.69160E-001	1.00897E-004	0.00000E+000	9.77853E-005	5.99601E-002	9.69555E-001	3.58020E+000	9	...........
	90	1.21333	9.73225E-001	1.00795E-004	0.00000E+000	9.80961E-005	5.99601E-002	9.73604E-001	3.58020E+000	9	...........
	91	1.22667	9.77166E-001	1.00562E-004	0.00000E+000	9.82653E-005	5.99601E-002	9.77536E-001	3.58020E+000	9	...........
	92	1.24	9.81018E-001	1.00346E-004	0.00000E+000	9.84410E-005	5.99601E-002	9.81365E-001	3.58020E+000	9	...........
	93	1.25333	9.84810E-001	1.00926E-004	0.00000E+000	9.93931E-005	5.99601E-002	9.85172E-001	3.58020E+000	9	...........
	94	1.26667	9.88516E-001	1.00470E-004	0.00000E+000	9.93160E-005	5.99601E-002	9.88879E-001	3.58020E+000	9	...........
	95	1.28	9.92146E-001	1.01032E-004	0.00000E+000	1.00239E-004	5.99601E-002	9.92489E-001	3.58020E+000	9	...........
	96	1.29333	9.95696E-001	1.00474E-004	0.00000E+000	1.00042E-004	5.99601E-002	9.96056E-001	3.58020E+000	9	...........
	97	1.305	9.98993E-001	1.01046E-004	0.00000E+000	1.00944E-004	5.99601E-002	9.99357E-001	3.58020E+000	9	...........
STARTTIMEOFFSET	QUANT	300.6215	Start Time Offset (s)
