EXPLAIN
TAG	PWR800_CHARGE
TITLE	LABEL	PWR Cyclic Charge Discharge (Cell) - Charge Step	Test &Identifier
DATE	LABEL	13-7-2017	Date
TIME	LABEL	15:45:04	Time
NOTES	NOTES	2	&Notes...
	supercap test cell
	6M KOH
PSTAT	PSTAT	IFC5000-01520	Potentiostat
CAPACITY	QUANT	1.00000E-003	Capacity (A-hr)
CELLTYPE	SELECTOR	1	&Cell Type
WORKINGCONNECTION	SELECTOR	0	&Working Lead
MAXCHARGETIME	VARIABLEANDUNITS	1.00000E+002	s	1.00000E+002	second(s)	Max &Charge Time
CHARGECURRENT	QUANT	1.00000E-004	&Charge Current (A) 
VOLTAGEFINISH	TWOPARAM	F	1.00000E-003	3.60000E+003	&Voltage Finish	 I (A) < 	Max Time(s)
SAMPLETIME	QUANT	1.00000E-002	Sa&mple Period (s)
CHARGESTOPAT1	MULTIPARAM	4	1.00000E+000	Charge Stop At &1	Voltage > Limit	V
CHARGESTOPAT2	MULTIPARAM	0	0.00000E+000	Charge Stop At &2	None	N/A
AESBHCSELECTOR	TOGGLE	F	Save Both Half Cells
IRCOMP	TOGGLE	F	IR &Measure
EOC	QUANT	0	Open Circuit (V)
SEQUENCER	TOGGLE	TRUE	Run as Sequence
PSTATMODEL	IQUANT	53	Pstat Model
PSTATSECTION	LABEL	IFC5000-01520	Pstat Section
PSTATSERIALNO	LABEL	01520	Pstat Serial Number
CTRLMODE	IQUANT	0	Control Mode
ELECTROMETER	IQUANT	1	RE=0 or CS=1
IESTAB	IQUANT	0	I/E Stability
CASPEED	IQUANT	4	Control Amp Speed
CONVENTION	IQUANT	1	Current Convention
ICHRANGE	IQUANT	2	Ich Range
ICHRANGEMODE	TOGGLE	T	Ich Auto Range
ICHOFFSETENABLE	TOGGLE	F	Ich Offset Enable
ICHOFFSET	QUANT	0	Ich Offset (V)
ICHFILTER	IQUANT	1	Ich Filter
VCHRANGE	IQUANT	2	Vch Range
VCHRANGEMODE	TOGGLE	T	Vch Auto Range
VCHOFFSETENABLE	TOGGLE	F	Vch Offset Enable
VCHOFFSET	QUANT	0	Vch Offset (V)
VCHFILTER	IQUANT	1	Vch Filter
IERANGELOWERLIMIT	IQUANT	9	I/E Range Lower Limit
IERANGEMODE	TOGGLE	F	I/E AutoRange
IERANGE	IQUANT	9	I/E Range
ACHSELECT	IQUANT	1	Ach Select
ACHRANGE	IQUANT	2	Ach Range
ACHOFFSETENABLE	TOGGLE	F	Ach Offset Enable
ACHOFFSET	QUANT	0	Ach Offset (V)
ACHFILTER	IQUANT	1	Ach Filter
CABLEID	IQUANT	14	Cable ID
DCCALDATE	LABEL	5-7-2017	DC Calibration Date
ACCALDATE	LABEL	12/3/2015	AC Calibration Date
FRAMEWORKVERSION	QUANT	7.01	Framework Version
INSTRUMENTVERSION	LABEL	4.00	Instrument Version
CURVE	TABLE	90
	Pt	T	Vf	Im	Vu	Pwr	Sig	Ach	Temp	IERange	Over
	#	s	V	A	V	W	V	V	deg C	#	bits
	0	0.013333	1.32940E-001	1.00523E-004	0.00000E+000	1.33635E-005	5.99601E-002	1.32989E-001	3.57880E+000	9	...........
	1	0.026667	1.48254E-001	1.00627E-004	0.00000E+000	1.49184E-005	5.99601E-002	1.48277E-001	3.57880E+000	9	...........
	2	0.04	1.63126E-001	1.00384E-004	0.00000E+000	1.63753E-005	5.99601E-002	1.63151E-001	3.57880E+000	9	...........
	3	0.053333	1.77733E-001	1.00940E-004	0.00000E+000	1.79403E-005	5.99601E-002	1.77760E-001	3.57880E+000	9	...........
	4	0.066667	1.92143E-001	1.00962E-004	0.00000E+000	1.93990E-005	5.99601E-002	1.92174E-001	3.57880E+000	9	...........
	5	0.08	2.06412E-001	1.00926E-004	0.00000E+000	2.08324E-005	5.99601E-002	2.06451E-001	3.57880E+000	9	...........
	6	0.093333	2.20586E-001	1.01089E-004	0.00000E+000	2.22988E-005	5.99601E-002	2.20617E-001	3.57880E+000	9	...........
	7	0.106667	2.34687E-001	1.01402E-004	0.00000E+000	2.37978E-005	5.99601E-002	2.34725E-001	3.57880E+000	9	...........
	8	0.12	2.48740E-001	1.00176E-004	0.00000E+000	2.49178E-005	5.99601E-002	2.48780E-001	3.57880E+000	9	...........
	9	0.133333	2.62771E-001	1.00048E-004	0.00000E+000	2.62896E-005	5.99601E-002	2.62814E-001	3.57880E+000	9	...........
	10	0.146667	2.76790E-001	1.00486E-004	0.00000E+000	2.78137E-005	5.99601E-002	2.76842E-001	3.57880E+000	9	...........
	11	0.16	2.90813E-001	9.96519E-005	0.00000E+000	2.89801E-005	5.99601E-002	2.90870E-001	3.57880E+000	9	...........
	12	0.173333	3.04853E-001	1.00382E-004	0.00000E+000	3.06018E-005	5.99601E-002	3.04915E-001	3.57880E+000	9	...........
	13	0.186667	3.18916E-001	1.00154E-004	0.00000E+000	3.19408E-005	5.99601E-002	3.18977E-001	3.57880E+000	9	...........
	14	0.2	3.32997E-001	1.00492E-004	0.00000E+000	3.34635E-005	5.99601E-002	3.33058E-001	3.57880E+000	9	...........
	15	0.213333	3.47105E-001	1.00931E-004	0.00000E+000	3.50338E-005	5.99601E-002	3.47166E-001	3.57880E+000	9	...........
	16	0.226667	3.61235E-001	1.00882E-004	0.00000E+000	3.64422E-005	5.99601E-002	3.61303E-001	3.57880E+000	9	...........
	17	0.24	3.75388E-001	1.00165E-004	0.00000E+000	3.76006E-005	5.99601E-002	3.75460E-001	3.57880E+000	9	...........
	18	0.253333	3.89554E-001	1.01296E-004	0.00000E+000	3.94603E-005	5.99601E-002	3.89623E-001	3.57880E+000	9	...........
	19	0.266667	4.03719E-001	1.01927E-004	0.00000E+000	4.11500E-005	5.99601E-002	4.03793E-001	3.57880E+000	9	...........
	20	0.28	4.17856E-001	1.00674E-004	0.00000E+000	4.20673E-005	5.99601E-002	4.17942E-001	3.57880E+000	9	...........
	21	0.293333	4.31958E-001	1.00772E-004	0.00000E+000	4.35293E-005	5.99601E-002	4.32040E-001	3.57880E+000	9	...........
	22	0.306667	4.45998E-001	1.00243E-004	0.00000E+000	4.47080E-005	5.99601E-002	4.46084E-001	3.57880E+000	9	...........
	23	0.32	4.59954E-001	1.00517E-004	0.00000E+000	4.62330E-005	5.99601E-002	4.60043E-001	3.57880E+000	9	...........
	24	0.333333	4.73811E-001	1.00471E-004	0.00000E+000	4.76042E-005	5.99601E-002	4.73904E-001	3.57880E+000	9	...........
	25	0.346667	4.87543E-001	1.00526E-004	0.00000E+000	4.90108E-005	5.99601E-002	4.87637E-001	3.57880E+000	9	...........
	26	0.36	5.01117E-001	1.00466E-004	0.00000E+000	5.03450E-005	5.99601E-002	5.01223E-001	3.57880E+000	9	...........
	27	0.373333	5.14529E-001	1.00519E-004	0.00000E+000	5.17198E-005	5.99601E-002	5.14635E-001	3.57880E+000	9	...........
	28	0.386667	5.27758E-001	1.00683E-004	0.00000E+000	5.31364E-005	5.99601E-002	5.27866E-001	3.57880E+000	9	...........
	29	0.4	5.40422E-001	1.01062E-004	0.00000E+000	5.46160E-005	5.99601E-002	5.40681E-001	3.57880E+000	9	...........
	30	0.413333	5.53256E-001	1.01224E-004	0.00000E+000	5.60029E-005	5.99601E-002	5.53521E-001	3.57880E+000	9	...........
	31	0.426667	5.65851E-001	9.97228E-005	0.00000E+000	5.64282E-005	5.99601E-002	5.66118E-001	3.57880E+000	9	...........
	32	0.44	5.78206E-001	1.00574E-004	0.00000E+000	5.81525E-005	5.99601E-002	5.78478E-001	3.57880E+000	9	...........
	33	0.453333	5.90357E-001	1.01098E-004	0.00000E+000	5.96840E-005	5.99601E-002	5.90651E-001	3.57880E+000	9	...........
	34	0.466667	6.02273E-001	1.00771E-004	0.00000E+000	6.06916E-005	5.99601E-002	6.02567E-001	3.57880E+000	9	...........
	35	0.48	6.13955E-001	1.00442E-004	0.00000E+000	6.16666E-005	5.99601E-002	6.14252E-001	3.57880E+000	9	...........
	36	0.493333	6.25436E-001	1.01019E-004	0.00000E+000	6.31809E-005	5.99601E-002	6.25726E-001	3.57880E+000	9	...........
	37	0.506667	6.36640E-001	1.00985E-004	0.00000E+000	6.42908E-005	5.99601E-002	6.36924E-001	3.57880E+000	9	...........
	38	0.52	6.47661E-001	1.00305E-004	0.00000E+000	6.49637E-005	5.99601E-002	6.47957E-001	3.57880E+000	9	...........
	39	0.533333	6.58442E-001	1.00952E-004	0.00000E+000	6.64712E-005	5.99601E-002	6.58729E-001	3.57880E+000	9	...........
	40	0.546667	6.69017E-001	1.01179E-004	0.00000E+000	6.76907E-005	5.99601E-002	6.69304E-001	3.57880E+000	9	...........
	41	0.56	6.79364E-001	1.01510E-004	0.00000E+000	6.89620E-005	5.99601E-002	6.79628E-001	3.57880E+000	9	...........
	42	0.573333	6.89500E-001	1.00423E-004	0.00000E+000	6.92416E-005	5.99601E-002	6.89754E-001	3.57880E+000	9	...........
	43	0.586667	6.99437E-001	1.01177E-004	0.00000E+000	7.07672E-005	5.99601E-002	6.99699E-001	3.57880E+000	9	...........
	44	0.6	7.09187E-001	1.00199E-004	0.00000E+000	7.10598E-005	5.99601E-002	7.09423E-001	3.57880E+000	9	...........
	45	0.613333	7.18751E-001	1.01140E-004	0.00000E+000	7.26943E-005	5.99601E-002	7.18989E-001	3.57880E+000	9	...........
	46	0.626667	7.28098E-001	1.00353E-004	0.00000E+000	7.30669E-005	5.99601E-002	7.28360E-001	3.57880E+000	9	...........
	47	0.64	7.37254E-001	1.01178E-004	0.00000E+000	7.45941E-005	5.99601E-002	7.37539E-001	3.57880E+000	9	...........
	48	0.653333	7.46279E-001	1.00073E-004	0.00000E+000	7.46822E-005	5.99601E-002	7.46541E-001	3.57880E+000	9	...........
	49	0.666667	7.55063E-001	1.01182E-004	0.00000E+000	7.63991E-005	5.99601E-002	7.55346E-001	3.57880E+000	9	...........
	50	0.68	7.63714E-001	1.00695E-004	0.00000E+000	7.69020E-005	5.99601E-002	7.63987E-001	3.57880E+000	9	...........
	51	0.693333	7.72187E-001	1.01874E-004	0.00000E+000	7.86660E-005	5.99601E-002	7.72467E-001	3.57880E+000	9	...........
	52	0.706667	7.80481E-001	1.00286E-004	0.00000E+000	7.82717E-005	5.99601E-002	7.80765E-001	3.57910E+000	9	...........
	53	0.72	7.88645E-001	1.00828E-004	0.00000E+000	7.95177E-005	5.99601E-002	7.88912E-001	3.58000E+000	9	...........
	54	0.733333	7.96671E-001	1.00449E-004	0.00000E+000	8.00248E-005	5.99601E-002	7.96914E-001	3.58000E+000	9	...........
	55	0.746667	8.04495E-001	1.00913E-004	0.00000E+000	8.11837E-005	5.99601E-002	8.04767E-001	3.58000E+000	9	...........
	56	0.76	8.12180E-001	1.01683E-004	0.00000E+000	8.25846E-005	5.99601E-002	8.12461E-001	3.58000E+000	9	...........
	57	0.773333	8.19742E-001	1.00320E-004	0.00000E+000	8.22363E-005	5.99601E-002	8.20045E-001	3.58000E+000	9	...........
	58	0.786667	8.27152E-001	1.00804E-004	0.00000E+000	8.33805E-005	5.99601E-002	8.27455E-001	3.58000E+000	9	...........
	59	0.8	8.34409E-001	1.00152E-004	0.00000E+000	8.35677E-005	5.99601E-002	8.34740E-001	3.58000E+000	9	...........
	60	0.813333	8.41560E-001	1.01324E-004	0.00000E+000	8.52704E-005	5.99601E-002	8.41892E-001	3.58000E+000	9	...........
	61	0.826667	8.48605E-001	1.01062E-004	0.00000E+000	8.57614E-005	5.99601E-002	8.48939E-001	3.58000E+000	9	...........
	62	0.84	8.55479E-001	1.01490E-004	0.00000E+000	8.68224E-005	5.99601E-002	8.55817E-001	3.58000E+000	9	...........
	63	0.853333	8.62246E-001	1.00943E-004	0.00000E+000	8.70376E-005	5.99601E-002	8.62586E-001	3.58000E+000	9	...........
	64	0.866667	8.68914E-001	1.01353E-004	0.00000E+000	8.80673E-005	5.99601E-002	8.69238E-001	3.58000E+000	9	...........
	65	0.88	8.75458E-001	1.01281E-004	0.00000E+000	8.86676E-005	5.99601E-002	8.75788E-001	3.58000E+000	9	...........
	66	0.893333	8.81861E-001	1.01430E-004	0.00000E+000	8.94476E-005	5.99601E-002	8.82217E-001	3.58000E+000	9	...........
	67	0.906667	8.88160E-001	1.01157E-004	0.00000E+000	8.98440E-005	5.99601E-002	8.88513E-001	3.58000E+000	9	...........
	68	0.92	8.94341E-001	1.00897E-004	0.00000E+000	9.02363E-005	5.99601E-002	8.94703E-001	3.58000E+000	9	...........
	69	0.933333	9.00408E-001	1.01212E-004	0.00000E+000	9.11318E-005	5.99601E-002	9.00768E-001	3.58000E+000	9	...........
	70	0.946667	9.06368E-001	1.00092E-004	0.00000E+000	9.07198E-005	5.99601E-002	9.06747E-001	3.58000E+000	9	...........
	71	0.96	9.12229E-001	1.00155E-004	0.00000E+000	9.13644E-005	5.99601E-002	9.12579E-001	3.58000E+000	9	...........
	72	0.97333	9.17972E-001	1.01124E-004	0.00000E+000	9.28291E-005	5.99601E-002	9.18330E-001	3.58000E+000	9	...........
	73	0.98667	9.23667E-001	1.00849E-004	0.00000E+000	9.31509E-005	5.99601E-002	9.23967E-001	3.58000E+000	9	...........
	74	1	9.29169E-001	1.01227E-004	0.00000E+000	9.40572E-005	5.99601E-002	9.29493E-001	3.58000E+000	9	...........
	75	1.01333	9.34577E-001	1.00521E-004	0.00000E+000	9.39445E-005	5.99601E-002	9.34923E-001	3.58000E+000	9	...........
	76	1.02667	9.39879E-001	1.00172E-004	0.00000E+000	9.41494E-005	5.99601E-002	9.40218E-001	3.58000E+000	9	...........
	77	1.04	9.45118E-001	1.01601E-004	0.00000E+000	9.60252E-005	5.99601E-002	9.45435E-001	3.58000E+000	9	...........
	78	1.05333	9.50244E-001	1.00806E-004	0.00000E+000	9.57906E-005	5.99601E-002	9.50576E-001	3.58000E+000	9	...........
	79	1.06667	9.55254E-001	1.00529E-004	0.00000E+000	9.60310E-005	5.99601E-002	9.55571E-001	3.58000E+000	9	...........
	80	1.08	9.60158E-001	1.00965E-004	0.00000E+000	9.69420E-005	5.99601E-002	9.60505E-001	3.58000E+000	9	...........
	81	1.09333	9.64952E-001	1.00845E-004	0.00000E+000	9.73105E-005	5.99601E-002	9.65313E-001	3.58000E+000	9	...........
	82	1.10667	9.69664E-001	1.00876E-004	0.00000E+000	9.78159E-005	5.99601E-002	9.70014E-001	3.58000E+000	9	...........
	83	1.12	9.74337E-001	1.00291E-004	0.00000E+000	9.77168E-005	5.99601E-002	9.74634E-001	3.58000E+000	9	...........
	84	1.13333	9.78839E-001	1.00796E-004	0.00000E+000	9.86630E-005	5.99601E-002	9.79171E-001	3.58000E+000	9	...........
	85	1.14667	9.83267E-001	1.00875E-004	0.00000E+000	9.91872E-005	5.99601E-002	9.83591E-001	3.58000E+000	9	...........
	86	1.16	9.87590E-001	1.01434E-004	0.00000E+000	1.00175E-004	5.99601E-002	9.87934E-001	3.58000E+000	9	...........
	87	1.17333	9.91822E-001	1.01293E-004	0.00000E+000	1.00465E-004	5.99601E-002	9.92167E-001	3.58000E+000	9	...........
	88	1.18667	9.95971E-001	1.00963E-004	0.00000E+000	1.00556E-004	5.99601E-002	9.96305E-001	3.58000E+000	9	...........
	89	1.195	9.99304E-001	1.00748E-004	0.00000E+000	1.00678E-004	5.99601E-002	9.99657E-001	3.58000E+000	9	...........
STARTTIMEOFFSET	QUANT	1945.497	Start Time Offset (s)
