EXPLAIN
TAG	PWR800_CHARGE
TITLE	LABEL	PWR Cyclic Charge Discharge (Cell) - Charge Step	Test &Identifier
DATE	LABEL	13-7-2017	Date
TIME	LABEL	15:33:37	Time
NOTES	NOTES	2	&Notes...
	supercap test cell
	6M KOH
PSTAT	PSTAT	IFC5000-01520	Potentiostat
CAPACITY	QUANT	1.00000E-003	Capacity (A-hr)
CELLTYPE	SELECTOR	1	&Cell Type
WORKINGCONNECTION	SELECTOR	0	&Working Lead
MAXCHARGETIME	VARIABLEANDUNITS	1.00000E+002	s	1.00000E+002	second(s)	Max &Charge Time
CHARGECURRENT	QUANT	1.00000E-004	&Charge Current (A) 
VOLTAGEFINISH	TWOPARAM	F	1.00000E-003	3.60000E+003	&Voltage Finish	 I (A) < 	Max Time(s)
SAMPLETIME	QUANT	1.00000E-002	Sa&mple Period (s)
CHARGESTOPAT1	MULTIPARAM	4	1.00000E+000	Charge Stop At &1	Voltage > Limit	V
CHARGESTOPAT2	MULTIPARAM	0	0.00000E+000	Charge Stop At &2	None	N/A
AESBHCSELECTOR	TOGGLE	F	Save Both Half Cells
IRCOMP	TOGGLE	F	IR &Measure
EOC	QUANT	0	Open Circuit (V)
SEQUENCER	TOGGLE	TRUE	Run as Sequence
PSTATMODEL	IQUANT	53	Pstat Model
PSTATSECTION	LABEL	IFC5000-01520	Pstat Section
PSTATSERIALNO	LABEL	01520	Pstat Serial Number
CTRLMODE	IQUANT	0	Control Mode
ELECTROMETER	IQUANT	1	RE=0 or CS=1
IESTAB	IQUANT	0	I/E Stability
CASPEED	IQUANT	4	Control Amp Speed
CONVENTION	IQUANT	1	Current Convention
ICHRANGE	IQUANT	2	Ich Range
ICHRANGEMODE	TOGGLE	T	Ich Auto Range
ICHOFFSETENABLE	TOGGLE	F	Ich Offset Enable
ICHOFFSET	QUANT	0	Ich Offset (V)
ICHFILTER	IQUANT	1	Ich Filter
VCHRANGE	IQUANT	2	Vch Range
VCHRANGEMODE	TOGGLE	T	Vch Auto Range
VCHOFFSETENABLE	TOGGLE	F	Vch Offset Enable
VCHOFFSET	QUANT	0	Vch Offset (V)
VCHFILTER	IQUANT	1	Vch Filter
IERANGELOWERLIMIT	IQUANT	9	I/E Range Lower Limit
IERANGEMODE	TOGGLE	F	I/E AutoRange
IERANGE	IQUANT	9	I/E Range
ACHSELECT	IQUANT	1	Ach Select
ACHRANGE	IQUANT	2	Ach Range
ACHOFFSETENABLE	TOGGLE	F	Ach Offset Enable
ACHOFFSET	QUANT	0	Ach Offset (V)
ACHFILTER	IQUANT	1	Ach Filter
CABLEID	IQUANT	14	Cable ID
DCCALDATE	LABEL	5-7-2017	DC Calibration Date
ACCALDATE	LABEL	12/3/2015	AC Calibration Date
FRAMEWORKVERSION	QUANT	7.01	Framework Version
INSTRUMENTVERSION	LABEL	4.00	Instrument Version
CURVE	TABLE	92
	Pt	T	Vf	Im	Vu	Pwr	Sig	Ach	Temp	IERange	Over
	#	s	V	A	V	W	V	V	deg C	#	bits
	0	0.013333	1.33721E-001	1.01097E-004	0.00000E+000	1.35188E-005	5.99601E-002	1.33770E-001	3.58000E+000	9	...........
	1	0.026667	1.49003E-001	1.01033E-004	0.00000E+000	1.50543E-005	5.99601E-002	1.49023E-001	3.58000E+000	9	...........
	2	0.04	1.63836E-001	1.00640E-004	0.00000E+000	1.64884E-005	5.99601E-002	1.63858E-001	3.58000E+000	9	...........
	3	0.053333	1.78403E-001	1.01044E-004	0.00000E+000	1.80265E-005	5.99601E-002	1.78436E-001	3.58000E+000	9	...........
	4	0.066667	1.92786E-001	1.00687E-004	0.00000E+000	1.94110E-005	5.99601E-002	1.92813E-001	3.58000E+000	9	...........
	5	0.08	2.07010E-001	1.00725E-004	0.00000E+000	2.08511E-005	5.99601E-002	2.07049E-001	3.58000E+000	9	...........
	6	0.093333	2.21151E-001	1.00191E-004	0.00000E+000	2.21572E-005	5.99601E-002	2.21191E-001	3.58000E+000	9	...........
	7	0.106667	2.35216E-001	1.00848E-004	0.00000E+000	2.37211E-005	5.99601E-002	2.35257E-001	3.58000E+000	9	...........
	8	0.12	2.49233E-001	1.01740E-004	0.00000E+000	2.53570E-005	5.99601E-002	2.49284E-001	3.58000E+000	9	...........
	9	0.133333	2.63223E-001	1.00377E-004	0.00000E+000	2.64216E-005	5.99601E-002	2.63275E-001	3.58000E+000	9	...........
	10	0.146667	2.77202E-001	1.00523E-004	0.00000E+000	2.78652E-005	5.99601E-002	2.77255E-001	3.58000E+000	9	...........
	11	0.16	2.91182E-001	1.01067E-004	0.00000E+000	2.94289E-005	5.99601E-002	2.91237E-001	3.58000E+000	9	...........
	12	0.173333	3.05173E-001	1.00822E-004	0.00000E+000	3.07681E-005	5.99601E-002	3.05228E-001	3.58000E+000	9	...........
	13	0.186667	3.19192E-001	1.02153E-004	0.00000E+000	3.26066E-005	5.99601E-002	3.19247E-001	3.58000E+000	9	...........
	14	0.2	3.33213E-001	1.01509E-004	0.00000E+000	3.38240E-005	5.99601E-002	3.33274E-001	3.58000E+000	9	...........
	15	0.213333	3.47261E-001	1.01095E-004	0.00000E+000	3.51063E-005	5.99601E-002	3.47323E-001	3.58000E+000	9	...........
	16	0.226667	3.61329E-001	1.01285E-004	0.00000E+000	3.65971E-005	5.99601E-002	3.61392E-001	3.58000E+000	9	...........
	17	0.24	3.75407E-001	1.00726E-004	0.00000E+000	3.78133E-005	5.99601E-002	3.75475E-001	3.58000E+000	9	...........
	18	0.253333	3.89484E-001	1.00086E-004	0.00000E+000	3.89820E-005	5.99601E-002	3.89556E-001	3.58000E+000	9	...........
	19	0.266667	4.03550E-001	9.98520E-005	0.00000E+000	4.02953E-005	5.99601E-002	4.03625E-001	3.58000E+000	9	...........
	20	0.28	4.17580E-001	1.01015E-004	0.00000E+000	4.21817E-005	5.99601E-002	4.17661E-001	3.58000E+000	9	...........
	21	0.293333	4.31570E-001	1.01211E-004	0.00000E+000	4.36795E-005	5.99601E-002	4.31652E-001	3.58000E+000	9	...........
	22	0.306667	4.45488E-001	1.00459E-004	0.00000E+000	4.47535E-005	5.99601E-002	4.45575E-001	3.57950E+000	9	...........
	23	0.32	4.59319E-001	1.00754E-004	0.00000E+000	4.62783E-005	5.99601E-002	4.59405E-001	3.57920E+000	9	...........
	24	0.333333	4.73025E-001	1.00467E-004	0.00000E+000	4.75233E-005	5.99601E-002	4.73120E-001	3.57920E+000	9	...........
	25	0.346667	4.86605E-001	1.00862E-004	0.00000E+000	4.90798E-005	5.99601E-002	4.86697E-001	3.57920E+000	9	...........
	26	0.36	5.00027E-001	1.01729E-004	0.00000E+000	5.08675E-005	5.99601E-002	5.00125E-001	3.57920E+000	9	...........
	27	0.373333	5.13276E-001	1.00153E-004	0.00000E+000	5.14061E-005	5.99601E-002	5.13385E-001	3.57920E+000	9	...........
	28	0.386667	5.26350E-001	1.00435E-004	0.00000E+000	5.28642E-005	5.99601E-002	5.26460E-001	3.57920E+000	9	...........
	29	0.4	5.38884E-001	1.01408E-004	0.00000E+000	5.46468E-005	5.99601E-002	5.39147E-001	3.57920E+000	9	...........
	30	0.413333	5.51504E-001	1.01604E-004	0.00000E+000	5.60353E-005	5.99601E-002	5.51757E-001	3.57920E+000	9	...........
	31	0.426667	5.63949E-001	1.01217E-004	0.00000E+000	5.70811E-005	5.99601E-002	5.64210E-001	3.57920E+000	9	...........
	32	0.44	5.76158E-001	1.00420E-004	0.00000E+000	5.78577E-005	5.99601E-002	5.76425E-001	3.57920E+000	9	...........
	33	0.453333	5.88169E-001	1.00650E-004	0.00000E+000	5.91992E-005	5.99601E-002	5.88440E-001	3.57920E+000	9	...........
	34	0.466667	5.99897E-001	1.01242E-004	0.00000E+000	6.07347E-005	5.99601E-002	6.00210E-001	3.57920E+000	9	...........
	35	0.48	6.11425E-001	1.00628E-004	0.00000E+000	6.15266E-005	5.99601E-002	6.11723E-001	3.57920E+000	9	...........
	36	0.493333	6.22767E-001	1.01387E-004	0.00000E+000	6.31402E-005	5.99601E-002	6.23037E-001	3.57920E+000	9	...........
	37	0.506667	6.33803E-001	1.02008E-004	0.00000E+000	6.46528E-005	5.99601E-002	6.34116E-001	3.57920E+000	9	...........
	38	0.52	6.44685E-001	1.01212E-004	0.00000E+000	6.52496E-005	5.99601E-002	6.44963E-001	3.57920E+000	9	...........
	39	0.533333	6.55330E-001	1.01225E-004	0.00000E+000	6.63359E-005	5.99601E-002	6.55605E-001	3.57920E+000	9	...........
	40	0.546667	6.65766E-001	1.01199E-004	0.00000E+000	6.73750E-005	5.99601E-002	6.66050E-001	3.57920E+000	9	...........
	41	0.56	6.75988E-001	1.01122E-004	0.00000E+000	6.83572E-005	5.99601E-002	6.76278E-001	3.57920E+000	9	...........
	42	0.573333	6.85976E-001	1.00941E-004	0.00000E+000	6.92430E-005	5.99601E-002	6.86269E-001	3.57920E+000	9	...........
	43	0.586667	6.95806E-001	1.01097E-004	0.00000E+000	7.03439E-005	5.99601E-002	6.96089E-001	3.57920E+000	9	...........
	44	0.6	7.05387E-001	1.00879E-004	0.00000E+000	7.11589E-005	5.99601E-002	7.05713E-001	3.57920E+000	9	...........
	45	0.613333	7.14823E-001	1.00958E-004	0.00000E+000	7.21674E-005	5.99601E-002	7.15113E-001	3.57920E+000	9	...........
	46	0.626667	7.24082E-001	1.01182E-004	0.00000E+000	7.32644E-005	5.99601E-002	7.24354E-001	3.57920E+000	9	...........
	47	0.64	7.33140E-001	1.01381E-004	0.00000E+000	7.43268E-005	5.99601E-002	7.33411E-001	3.57920E+000	9	...........
	48	0.653333	7.42032E-001	1.00025E-004	0.00000E+000	7.42217E-005	5.99601E-002	7.42310E-001	3.57920E+000	9	...........
	49	0.666667	7.50750E-001	1.00712E-004	0.00000E+000	7.56092E-005	5.99601E-002	7.51029E-001	3.57920E+000	9	...........
	50	0.68	7.59286E-001	1.01454E-004	0.00000E+000	7.70329E-005	5.99601E-002	7.59567E-001	3.57920E+000	9	...........
	51	0.693333	7.67649E-001	1.00583E-004	0.00000E+000	7.72127E-005	5.99601E-002	7.67969E-001	3.57920E+000	9	...........
	52	0.706667	7.75881E-001	1.00945E-004	0.00000E+000	7.83212E-005	5.99601E-002	7.76171E-001	3.57920E+000	9	...........
	53	0.72	7.83937E-001	1.01325E-004	0.00000E+000	7.94326E-005	5.99601E-002	7.84231E-001	3.57920E+000	9	...........
	54	0.733333	7.91848E-001	1.01155E-004	0.00000E+000	8.00997E-005	5.99601E-002	7.92161E-001	3.57920E+000	9	...........
	55	0.746667	7.99624E-001	1.01130E-004	0.00000E+000	8.08663E-005	5.99601E-002	7.99927E-001	3.57920E+000	9	...........
	56	0.76	8.07227E-001	1.01394E-004	0.00000E+000	8.18480E-005	5.99601E-002	8.07540E-001	3.57920E+000	9	...........
	57	0.773333	8.14688E-001	1.00253E-004	0.00000E+000	8.16750E-005	5.99601E-002	8.15030E-001	3.57920E+000	9	...........
	58	0.786667	8.22049E-001	1.00793E-004	0.00000E+000	8.28566E-005	5.99601E-002	8.22400E-001	3.57920E+000	9	...........
	59	0.8	8.29239E-001	1.00770E-004	0.00000E+000	8.35623E-005	5.99601E-002	8.29566E-001	3.57920E+000	9	...........
	60	0.813333	8.36312E-001	1.00555E-004	0.00000E+000	8.40955E-005	5.99601E-002	8.36650E-001	3.57920E+000	9	...........
	61	0.826667	8.43272E-001	1.01476E-004	0.00000E+000	8.55721E-005	5.99601E-002	8.43617E-001	3.57920E+000	9	...........
	62	0.84	8.50117E-001	1.01053E-004	0.00000E+000	8.59071E-005	5.99601E-002	8.50448E-001	3.57920E+000	9	...........
	63	0.853333	8.56817E-001	1.01096E-004	0.00000E+000	8.66207E-005	5.99601E-002	8.57153E-001	3.57920E+000	9	...........
	64	0.866667	8.63408E-001	1.00608E-004	0.00000E+000	8.68661E-005	5.99601E-002	8.63753E-001	3.57920E+000	9	...........
	65	0.88	8.69910E-001	1.01274E-004	0.00000E+000	8.80994E-005	5.99601E-002	8.70247E-001	3.57920E+000	9	...........
	66	0.893333	8.76262E-001	1.00421E-004	0.00000E+000	8.79949E-005	5.99601E-002	8.76613E-001	3.57920E+000	9	...........
	67	0.906667	8.82515E-001	1.00944E-004	0.00000E+000	8.90845E-005	5.99601E-002	8.82847E-001	3.57920E+000	9	...........
	68	0.92	8.88667E-001	1.01287E-004	0.00000E+000	9.00102E-005	5.99601E-002	8.88983E-001	3.57920E+000	9	...........
	69	0.933333	8.94687E-001	1.01039E-004	0.00000E+000	9.03980E-005	5.99601E-002	8.95020E-001	3.57920E+000	9	...........
	70	0.946667	9.00599E-001	1.01180E-004	0.00000E+000	9.11230E-005	5.99601E-002	9.00953E-001	3.57920E+000	9	...........
	71	0.96	9.06430E-001	1.00895E-004	0.00000E+000	9.14542E-005	5.99601E-002	9.06773E-001	3.57920E+000	9	...........
	72	0.97333	9.12147E-001	1.00834E-004	0.00000E+000	9.19759E-005	5.99601E-002	9.12483E-001	3.57920E+000	9	...........
	73	0.98667	9.17748E-001	1.01045E-004	0.00000E+000	9.27338E-005	5.99601E-002	9.18115E-001	3.57920E+000	9	...........
	74	1	9.23320E-001	1.00273E-004	0.00000E+000	9.25840E-005	5.99601E-002	9.23637E-001	3.57920E+000	9	...........
	75	1.01333	9.28716E-001	1.01512E-004	0.00000E+000	9.42755E-005	5.99601E-002	9.29034E-001	3.57920E+000	9	...........
	76	1.02667	9.34003E-001	1.00989E-004	0.00000E+000	9.43237E-005	5.99601E-002	9.34330E-001	3.57920E+000	9	...........
	77	1.04	9.39195E-001	1.01225E-004	0.00000E+000	9.50702E-005	5.99601E-002	9.39540E-001	3.57920E+000	9	...........
	78	1.05333	9.44300E-001	1.00612E-004	0.00000E+000	9.50075E-005	5.99601E-002	9.44635E-001	3.57920E+000	9	...........
	79	1.06667	9.49335E-001	1.00712E-004	0.00000E+000	9.56090E-005	5.99601E-002	9.49654E-001	3.57920E+000	9	...........
	80	1.08	9.54239E-001	1.01025E-004	0.00000E+000	9.64021E-005	5.99601E-002	9.54556E-001	3.57920E+000	9	...........
	81	1.09333	9.59048E-001	1.00228E-004	0.00000E+000	9.61236E-005	5.99601E-002	9.59395E-001	3.57920E+000	9	...........
	82	1.10667	9.63754E-001	1.00296E-004	0.00000E+000	9.66605E-005	5.99601E-002	9.64129E-001	3.57920E+000	9	...........
	83	1.12	9.68364E-001	1.00685E-004	0.00000E+000	9.75002E-005	5.99601E-002	9.68769E-001	3.57920E+000	9	...........
	84	1.13333	9.72939E-001	1.01135E-004	0.00000E+000	9.83977E-005	5.99601E-002	9.73338E-001	3.57920E+000	9	...........
	85	1.14667	9.77395E-001	1.00684E-004	0.00000E+000	9.84085E-005	5.99601E-002	9.77760E-001	3.57920E+000	9	...........
	86	1.16	9.81743E-001	1.01438E-004	0.00000E+000	9.95858E-005	5.99601E-002	9.82113E-001	3.57920E+000	9	...........
	87	1.17333	9.85967E-001	1.01495E-004	0.00000E+000	1.00071E-004	5.99601E-002	9.86382E-001	3.57920E+000	9	...........
	88	1.18667	9.90172E-001	1.00893E-004	0.00000E+000	9.99013E-005	5.99601E-002	9.90554E-001	3.57920E+000	9	...........
	89	1.2	9.94245E-001	1.01105E-004	0.00000E+000	1.00524E-004	5.99601E-002	9.94624E-001	3.57920E+000	9	...........
	90	1.21333	9.98258E-001	1.01120E-004	0.00000E+000	1.00944E-004	5.99601E-002	9.98617E-001	3.57920E+000	9	...........
	91	1.215	1.00049E+000	1.02165E-004	0.00000E+000	1.02215E-004	5.99601E-002	1.00087E+000	3.57920E+000	9	...........
STARTTIMEOFFSET	QUANT	1430.227	Start Time Offset (s)
