EXPLAIN
TAG	PWR800_CHARGE
TITLE	LABEL	PWR Cyclic Charge Discharge (Cell) - Charge Step	Test &Identifier
DATE	LABEL	13-7-2017	Date
TIME	LABEL	15:33:28	Time
NOTES	NOTES	2	&Notes...
	supercap test cell
	6M KOH
PSTAT	PSTAT	IFC5000-01520	Potentiostat
CAPACITY	QUANT	1.00000E-003	Capacity (A-hr)
CELLTYPE	SELECTOR	1	&Cell Type
WORKINGCONNECTION	SELECTOR	0	&Working Lead
MAXCHARGETIME	VARIABLEANDUNITS	1.00000E+002	s	1.00000E+002	second(s)	Max &Charge Time
CHARGECURRENT	QUANT	1.00000E-004	&Charge Current (A) 
VOLTAGEFINISH	TWOPARAM	F	1.00000E-003	3.60000E+003	&Voltage Finish	 I (A) < 	Max Time(s)
SAMPLETIME	QUANT	1.00000E-002	Sa&mple Period (s)
CHARGESTOPAT1	MULTIPARAM	4	1.00000E+000	Charge Stop At &1	Voltage > Limit	V
CHARGESTOPAT2	MULTIPARAM	0	0.00000E+000	Charge Stop At &2	None	N/A
AESBHCSELECTOR	TOGGLE	F	Save Both Half Cells
IRCOMP	TOGGLE	F	IR &Measure
EOC	QUANT	0	Open Circuit (V)
SEQUENCER	TOGGLE	TRUE	Run as Sequence
PSTATMODEL	IQUANT	53	Pstat Model
PSTATSECTION	LABEL	IFC5000-01520	Pstat Section
PSTATSERIALNO	LABEL	01520	Pstat Serial Number
CTRLMODE	IQUANT	0	Control Mode
ELECTROMETER	IQUANT	1	RE=0 or CS=1
IESTAB	IQUANT	0	I/E Stability
CASPEED	IQUANT	4	Control Amp Speed
CONVENTION	IQUANT	1	Current Convention
ICHRANGE	IQUANT	2	Ich Range
ICHRANGEMODE	TOGGLE	T	Ich Auto Range
ICHOFFSETENABLE	TOGGLE	F	Ich Offset Enable
ICHOFFSET	QUANT	0	Ich Offset (V)
ICHFILTER	IQUANT	1	Ich Filter
VCHRANGE	IQUANT	2	Vch Range
VCHRANGEMODE	TOGGLE	T	Vch Auto Range
VCHOFFSETENABLE	TOGGLE	F	Vch Offset Enable
VCHOFFSET	QUANT	0	Vch Offset (V)
VCHFILTER	IQUANT	1	Vch Filter
IERANGELOWERLIMIT	IQUANT	9	I/E Range Lower Limit
IERANGEMODE	TOGGLE	F	I/E AutoRange
IERANGE	IQUANT	9	I/E Range
ACHSELECT	IQUANT	1	Ach Select
ACHRANGE	IQUANT	2	Ach Range
ACHOFFSETENABLE	TOGGLE	F	Ach Offset Enable
ACHOFFSET	QUANT	0	Ach Offset (V)
ACHFILTER	IQUANT	1	Ach Filter
CABLEID	IQUANT	14	Cable ID
DCCALDATE	LABEL	5-7-2017	DC Calibration Date
ACCALDATE	LABEL	12/3/2015	AC Calibration Date
FRAMEWORKVERSION	QUANT	7.01	Framework Version
INSTRUMENTVERSION	LABEL	4.00	Instrument Version
CURVE	TABLE	92
	Pt	T	Vf	Im	Vu	Pwr	Sig	Ach	Temp	IERange	Over
	#	s	V	A	V	W	V	V	deg C	#	bits
	0	0.013333	1.33558E-001	1.00970E-004	0.00000E+000	1.34853E-005	5.99601E-002	1.33591E-001	3.57850E+000	9	...........
	1	0.026667	1.48834E-001	1.00343E-004	0.00000E+000	1.49344E-005	5.99601E-002	1.48855E-001	3.57850E+000	9	...........
	2	0.04	1.63673E-001	1.00325E-004	0.00000E+000	1.64205E-005	5.99601E-002	1.63696E-001	3.57850E+000	9	...........
	3	0.053333	1.78240E-001	1.00109E-004	0.00000E+000	1.78435E-005	5.99601E-002	1.78268E-001	3.57850E+000	9	...........
	4	0.066667	1.92618E-001	1.00980E-004	0.00000E+000	1.94506E-005	5.99601E-002	1.92653E-001	3.57850E+000	9	...........
	5	0.08	2.06854E-001	1.00597E-004	0.00000E+000	2.08089E-005	5.99601E-002	2.06883E-001	3.57850E+000	9	...........
	6	0.093333	2.20986E-001	1.01531E-004	0.00000E+000	2.24371E-005	5.99601E-002	2.21023E-001	3.57850E+000	9	...........
	7	0.106667	2.35052E-001	1.00893E-004	0.00000E+000	2.37151E-005	5.99601E-002	2.35088E-001	3.57850E+000	9	...........
	8	0.12	2.49064E-001	1.00863E-004	0.00000E+000	2.51212E-005	5.99601E-002	2.49109E-001	3.57850E+000	9	...........
	9	0.133333	2.63052E-001	1.00801E-004	0.00000E+000	2.65160E-005	5.99601E-002	2.63102E-001	3.57850E+000	9	...........
	10	0.146667	2.77029E-001	1.00329E-004	0.00000E+000	2.77941E-005	5.99601E-002	2.77083E-001	3.57850E+000	9	...........
	11	0.16	2.91007E-001	1.00408E-004	0.00000E+000	2.92195E-005	5.99601E-002	2.91060E-001	3.57850E+000	9	...........
	12	0.173333	3.04991E-001	1.00479E-004	0.00000E+000	3.06453E-005	5.99601E-002	3.05052E-001	3.57850E+000	9	...........
	13	0.186667	3.18998E-001	1.01458E-004	0.00000E+000	3.23648E-005	5.99601E-002	3.19059E-001	3.57850E+000	9	...........
	14	0.2	3.33022E-001	1.01893E-004	0.00000E+000	3.39326E-005	5.99601E-002	3.33085E-001	3.57850E+000	9	...........
	15	0.213333	3.47068E-001	1.00556E-004	0.00000E+000	3.48999E-005	5.99601E-002	3.47133E-001	3.57850E+000	9	...........
	16	0.226667	3.61129E-001	1.01640E-004	0.00000E+000	3.67051E-005	5.99601E-002	3.61200E-001	3.57850E+000	9	...........
	17	0.24	3.75203E-001	1.01321E-004	0.00000E+000	3.80159E-005	5.99601E-002	3.75273E-001	3.57850E+000	9	...........
	18	0.253333	3.89272E-001	1.00317E-004	0.00000E+000	3.90505E-005	5.99601E-002	3.89342E-001	3.57850E+000	9	...........
	19	0.266667	4.03337E-001	1.00470E-004	0.00000E+000	4.05232E-005	5.99601E-002	4.03411E-001	3.57850E+000	9	...........
	20	0.28	4.17365E-001	1.00655E-004	0.00000E+000	4.20100E-005	5.99601E-002	4.17449E-001	3.57850E+000	9	...........
	21	0.293333	4.31349E-001	1.00453E-004	0.00000E+000	4.33303E-005	5.99601E-002	4.31431E-001	3.57850E+000	9	...........
	22	0.306667	4.45261E-001	1.01366E-004	0.00000E+000	4.51343E-005	5.99601E-002	4.45344E-001	3.57850E+000	9	...........
	23	0.32	4.59083E-001	1.00381E-004	0.00000E+000	4.60833E-005	5.99601E-002	4.59167E-001	3.57850E+000	9	...........
	24	0.333333	4.72789E-001	1.01591E-004	0.00000E+000	4.80311E-005	5.99601E-002	4.72878E-001	3.57850E+000	9	...........
	25	0.346667	4.86363E-001	1.00491E-004	0.00000E+000	4.88750E-005	5.99601E-002	4.86459E-001	3.57850E+000	9	...........
	26	0.36	4.99781E-001	1.01112E-004	0.00000E+000	5.05336E-005	5.99601E-002	4.99887E-001	3.57850E+000	9	...........
	27	0.373333	5.13035E-001	1.00316E-004	0.00000E+000	5.14654E-005	5.99601E-002	5.13141E-001	3.57850E+000	9	...........
	28	0.386667	5.26101E-001	1.00506E-004	0.00000E+000	5.28765E-005	5.99601E-002	5.26202E-001	3.57850E+000	9	...........
	29	0.4	5.38655E-001	1.00851E-004	0.00000E+000	5.43239E-005	5.99601E-002	5.38872E-001	3.57850E+000	9	...........
	30	0.413333	5.51269E-001	1.00759E-004	0.00000E+000	5.55456E-005	5.99601E-002	5.51492E-001	3.57850E+000	9	...........
	31	0.426667	5.63730E-001	1.01002E-004	0.00000E+000	5.69380E-005	5.99601E-002	5.63978E-001	3.57850E+000	9	...........
	32	0.44	5.75936E-001	1.01146E-004	0.00000E+000	5.82536E-005	5.99601E-002	5.76185E-001	3.57850E+000	9	...........
	33	0.453333	5.87929E-001	1.00955E-004	0.00000E+000	5.93545E-005	5.99601E-002	5.88191E-001	3.57850E+000	9	...........
	34	0.466667	5.99681E-001	1.01645E-004	0.00000E+000	6.09546E-005	5.99601E-002	5.99926E-001	3.57850E+000	9	...........
	35	0.48	6.11187E-001	1.01381E-004	0.00000E+000	6.19631E-005	5.99601E-002	6.11449E-001	3.57850E+000	9	...........
	36	0.493333	6.22535E-001	1.01529E-004	0.00000E+000	6.32056E-005	5.99601E-002	6.22752E-001	3.57850E+000	9	...........
	37	0.506667	6.33602E-001	1.00756E-004	0.00000E+000	6.38394E-005	5.99601E-002	6.33818E-001	3.57850E+000	9	...........
	38	0.52	6.44460E-001	1.00730E-004	0.00000E+000	6.49166E-005	5.99601E-002	6.44703E-001	3.57850E+000	9	...........
	39	0.533333	6.55109E-001	1.00925E-004	0.00000E+000	6.61169E-005	5.99601E-002	6.55348E-001	3.57850E+000	9	...........
	40	0.546667	6.65545E-001	1.01231E-004	0.00000E+000	6.73741E-005	5.99601E-002	6.65802E-001	3.57850E+000	9	...........
	41	0.56	6.75765E-001	1.01053E-004	0.00000E+000	6.82883E-005	5.99601E-002	6.76035E-001	3.57850E+000	9	...........
	42	0.573333	6.85755E-001	1.01092E-004	0.00000E+000	6.93242E-005	5.99601E-002	6.86067E-001	3.57850E+000	9	...........
	43	0.586667	6.95571E-001	1.00698E-004	0.00000E+000	7.00426E-005	5.99601E-002	6.95868E-001	3.57850E+000	9	...........
	44	0.6	7.05185E-001	1.00422E-004	0.00000E+000	7.08160E-005	5.99601E-002	7.05451E-001	3.57850E+000	9	...........
	45	0.613333	7.14619E-001	1.01204E-004	0.00000E+000	7.23226E-005	5.99601E-002	7.14856E-001	3.57850E+000	9	...........
	46	0.626667	7.23897E-001	1.00279E-004	0.00000E+000	7.25917E-005	5.99601E-002	7.24116E-001	3.57850E+000	9	...........
	47	0.64	7.32934E-001	1.00808E-004	0.00000E+000	7.38859E-005	5.99601E-002	7.33159E-001	3.57850E+000	9	...........
	48	0.653333	7.41794E-001	1.00705E-004	0.00000E+000	7.47026E-005	5.99601E-002	7.42056E-001	3.57850E+000	9	...........
	49	0.666667	7.50506E-001	1.00463E-004	0.00000E+000	7.53978E-005	5.99601E-002	7.50756E-001	3.57850E+000	9	...........
	50	0.68	7.59054E-001	1.01013E-004	0.00000E+000	7.66741E-005	5.99601E-002	7.59292E-001	3.57850E+000	9	...........
	51	0.693333	7.67428E-001	1.01260E-004	0.00000E+000	7.77094E-005	5.99601E-002	7.67719E-001	3.57850E+000	9	...........
	52	0.706667	7.75646E-001	1.01726E-004	0.00000E+000	7.89036E-005	5.99601E-002	7.75955E-001	3.57850E+000	9	...........
	53	0.72	7.83722E-001	1.01213E-004	0.00000E+000	7.93226E-005	5.99601E-002	7.83994E-001	3.57850E+000	9	...........
	54	0.733333	7.91634E-001	1.00675E-004	0.00000E+000	7.96978E-005	5.99601E-002	7.91905E-001	3.57850E+000	9	...........
	55	0.746667	7.99387E-001	1.00715E-004	0.00000E+000	8.05100E-005	5.99601E-002	7.99656E-001	3.57850E+000	9	...........
	56	0.76	8.07002E-001	1.00864E-004	0.00000E+000	8.13972E-005	5.99601E-002	8.07288E-001	3.57938E+000	9	...........
	57	0.773333	8.14467E-001	1.00843E-004	0.00000E+000	8.21332E-005	5.99601E-002	8.14788E-001	3.57990E+000	9	...........
	58	0.786667	8.21821E-001	1.01406E-004	0.00000E+000	8.33380E-005	5.99601E-002	8.22150E-001	3.57990E+000	9	...........
	59	0.8	8.29027E-001	1.01172E-004	0.00000E+000	8.38743E-005	5.99601E-002	8.29348E-001	3.57990E+000	9	...........
	60	0.813333	8.36080E-001	1.00445E-004	0.00000E+000	8.39799E-005	5.99601E-002	8.36426E-001	3.57990E+000	9	...........
	61	0.826667	8.43052E-001	1.00579E-004	0.00000E+000	8.47935E-005	5.99601E-002	8.43346E-001	3.57990E+000	9	...........
	62	0.84	8.49878E-001	1.00859E-004	0.00000E+000	8.57183E-005	5.99601E-002	8.50211E-001	3.57990E+000	9	...........
	63	0.853333	8.56569E-001	1.00587E-004	0.00000E+000	8.61593E-005	5.99601E-002	8.56899E-001	3.57990E+000	9	...........
	64	0.866667	8.63183E-001	1.00681E-004	0.00000E+000	8.69064E-005	5.99601E-002	8.63489E-001	3.57990E+000	9	...........
	65	0.88	8.69667E-001	1.01120E-004	0.00000E+000	8.79407E-005	5.99601E-002	8.69982E-001	3.57990E+000	9	...........
	66	0.893333	8.76034E-001	1.00518E-004	0.00000E+000	8.80570E-005	5.99601E-002	8.76343E-001	3.57990E+000	9	...........
	67	0.906667	8.82296E-001	1.00295E-004	0.00000E+000	8.84897E-005	5.99601E-002	8.82594E-001	3.57990E+000	9	...........
	68	0.92	8.88430E-001	1.00653E-004	0.00000E+000	8.94233E-005	5.99601E-002	8.88734E-001	3.57990E+000	9	...........
	69	0.933333	8.94461E-001	1.00281E-004	0.00000E+000	8.96976E-005	5.99601E-002	8.94793E-001	3.57990E+000	9	...........
	70	0.946667	9.00387E-001	1.00296E-004	0.00000E+000	9.03050E-005	5.99601E-002	9.00722E-001	3.57990E+000	9	...........
	71	0.96	9.06193E-001	1.00376E-004	0.00000E+000	9.09600E-005	5.99601E-002	9.06537E-001	3.57990E+000	9	...........
	72	0.97333	9.11927E-001	1.00980E-004	0.00000E+000	9.20867E-005	5.99601E-002	9.12268E-001	3.57990E+000	9	...........
	73	0.98667	9.17539E-001	1.01616E-004	0.00000E+000	9.32366E-005	5.99601E-002	9.17890E-001	3.57990E+000	9	...........
	74	1	9.23106E-001	1.00781E-004	0.00000E+000	9.30319E-005	5.99601E-002	9.23409E-001	3.57990E+000	9	...........
	75	1.01333	9.28508E-001	1.00307E-004	0.00000E+000	9.31362E-005	5.99601E-002	9.28814E-001	3.57990E+000	9	...........
	76	1.02667	9.33805E-001	9.99687E-005	0.00000E+000	9.33513E-005	5.99601E-002	9.34145E-001	3.57990E+000	9	...........
	77	1.04	9.38990E-001	1.00844E-004	0.00000E+000	9.46913E-005	5.99601E-002	9.39364E-001	3.57990E+000	9	...........
	78	1.05333	9.44105E-001	1.00653E-004	0.00000E+000	9.50272E-005	5.99601E-002	9.44454E-001	3.57990E+000	9	...........
	79	1.06667	9.49135E-001	1.01135E-004	0.00000E+000	9.59903E-005	5.99601E-002	9.49490E-001	3.57990E+000	9	...........
	80	1.08	9.54037E-001	1.01036E-004	0.00000E+000	9.63916E-005	5.99601E-002	9.54406E-001	3.57990E+000	9	...........
	81	1.09333	9.58862E-001	1.00002E-004	0.00000E+000	9.58881E-005	5.99601E-002	9.59236E-001	3.57990E+000	9	...........
	82	1.10667	9.63558E-001	1.00367E-004	0.00000E+000	9.67091E-005	5.99601E-002	9.63960E-001	3.57990E+000	9	...........
	83	1.12	9.68169E-001	1.00980E-004	0.00000E+000	9.77661E-005	5.99601E-002	9.68586E-001	3.57990E+000	9	...........
	84	1.13333	9.72751E-001	1.00525E-004	0.00000E+000	9.77858E-005	5.99601E-002	9.73136E-001	3.57990E+000	9	...........
	85	1.14667	9.77196E-001	1.00649E-004	0.00000E+000	9.83539E-005	5.99601E-002	9.77563E-001	3.57990E+000	9	...........
	86	1.16	9.81565E-001	1.00710E-004	0.00000E+000	9.88539E-005	5.99601E-002	9.81896E-001	3.57990E+000	9	...........
	87	1.17333	9.85802E-001	1.00667E-004	0.00000E+000	9.92375E-005	5.99601E-002	9.86159E-001	3.57990E+000	9	...........
	88	1.18667	9.89974E-001	1.01669E-004	0.00000E+000	1.00650E-004	5.99601E-002	9.90339E-001	3.57990E+000	9	...........
	89	1.2	9.94054E-001	1.00916E-004	0.00000E+000	1.00316E-004	5.99601E-002	9.94409E-001	3.57990E+000	9	...........
	90	1.21333	9.98043E-001	1.01218E-004	0.00000E+000	1.01020E-004	5.99601E-002	9.98426E-001	3.57990E+000	9	...........
	91	1.215	1.00023E+000	9.94561E-005	0.00000E+000	9.94786E-005	5.99601E-002	1.00067E+000	3.57990E+000	9	...........
STARTTIMEOFFSET	QUANT	1423.109	Start Time Offset (s)
