EXPLAIN
TAG	PWR800_CHARGE
TITLE	LABEL	PWR Cyclic Charge Discharge (Cell) - Charge Step	Test &Identifier
DATE	LABEL	13-7-2017	Date
TIME	LABEL	15:54:27	Time
NOTES	NOTES	2	&Notes...
	supercap test cell
	6M KOH
PSTAT	PSTAT	IFC5000-01520	Potentiostat
CAPACITY	QUANT	1.00000E-003	Capacity (A-hr)
CELLTYPE	SELECTOR	1	&Cell Type
WORKINGCONNECTION	SELECTOR	0	&Working Lead
MAXCHARGETIME	VARIABLEANDUNITS	1.00000E+002	s	1.00000E+002	second(s)	Max &Charge Time
CHARGECURRENT	QUANT	1.00000E-004	&Charge Current (A) 
VOLTAGEFINISH	TWOPARAM	F	1.00000E-003	3.60000E+003	&Voltage Finish	 I (A) < 	Max Time(s)
SAMPLETIME	QUANT	1.00000E-002	Sa&mple Period (s)
CHARGESTOPAT1	MULTIPARAM	4	1.00000E+000	Charge Stop At &1	Voltage > Limit	V
CHARGESTOPAT2	MULTIPARAM	0	0.00000E+000	Charge Stop At &2	None	N/A
AESBHCSELECTOR	TOGGLE	F	Save Both Half Cells
IRCOMP	TOGGLE	F	IR &Measure
EOC	QUANT	0	Open Circuit (V)
SEQUENCER	TOGGLE	TRUE	Run as Sequence
PSTATMODEL	IQUANT	53	Pstat Model
PSTATSECTION	LABEL	IFC5000-01520	Pstat Section
PSTATSERIALNO	LABEL	01520	Pstat Serial Number
CTRLMODE	IQUANT	0	Control Mode
ELECTROMETER	IQUANT	1	RE=0 or CS=1
IESTAB	IQUANT	0	I/E Stability
CASPEED	IQUANT	4	Control Amp Speed
CONVENTION	IQUANT	1	Current Convention
ICHRANGE	IQUANT	2	Ich Range
ICHRANGEMODE	TOGGLE	T	Ich Auto Range
ICHOFFSETENABLE	TOGGLE	F	Ich Offset Enable
ICHOFFSET	QUANT	0	Ich Offset (V)
ICHFILTER	IQUANT	1	Ich Filter
VCHRANGE	IQUANT	2	Vch Range
VCHRANGEMODE	TOGGLE	T	Vch Auto Range
VCHOFFSETENABLE	TOGGLE	F	Vch Offset Enable
VCHOFFSET	QUANT	0	Vch Offset (V)
VCHFILTER	IQUANT	1	Vch Filter
IERANGELOWERLIMIT	IQUANT	9	I/E Range Lower Limit
IERANGEMODE	TOGGLE	F	I/E AutoRange
IERANGE	IQUANT	9	I/E Range
ACHSELECT	IQUANT	1	Ach Select
ACHRANGE	IQUANT	2	Ach Range
ACHOFFSETENABLE	TOGGLE	F	Ach Offset Enable
ACHOFFSET	QUANT	0	Ach Offset (V)
ACHFILTER	IQUANT	1	Ach Filter
CABLEID	IQUANT	14	Cable ID
DCCALDATE	LABEL	5-7-2017	DC Calibration Date
ACCALDATE	LABEL	12/3/2015	AC Calibration Date
FRAMEWORKVERSION	QUANT	7.01	Framework Version
INSTRUMENTVERSION	LABEL	4.00	Instrument Version
CURVE	TABLE	89
	Pt	T	Vf	Im	Vu	Pwr	Sig	Ach	Temp	IERange	Over
	#	s	V	A	V	W	V	V	deg C	#	bits
	0	0.013333	1.31313E-001	1.01544E-004	0.00000E+000	1.33341E-005	5.99601E-002	1.31363E-001	3.57900E+000	9	...........
	1	0.026667	1.46623E-001	1.01310E-004	0.00000E+000	1.48543E-005	5.99601E-002	1.46642E-001	3.57900E+000	9	...........
	2	0.04	1.61497E-001	9.98061E-005	0.00000E+000	1.61183E-005	5.99601E-002	1.61522E-001	3.57900E+000	9	...........
	3	0.053333	1.76108E-001	1.01528E-004	0.00000E+000	1.78800E-005	5.99601E-002	1.76140E-001	3.57900E+000	9	...........
	4	0.066667	1.90525E-001	1.01796E-004	0.00000E+000	1.93947E-005	5.99601E-002	1.90555E-001	3.57900E+000	9	...........
	5	0.08	2.04801E-001	1.01388E-004	0.00000E+000	2.07643E-005	5.99601E-002	2.04834E-001	3.57900E+000	9	...........
	6	0.093333	2.18974E-001	1.00309E-004	0.00000E+000	2.19651E-005	5.99601E-002	2.19012E-001	3.57900E+000	9	...........
	7	0.106667	2.33084E-001	1.01209E-004	0.00000E+000	2.35900E-005	5.99601E-002	2.33125E-001	3.57900E+000	9	...........
	8	0.12	2.47148E-001	1.01080E-004	0.00000E+000	2.49818E-005	5.99601E-002	2.47194E-001	3.57900E+000	9	...........
	9	0.133333	2.61188E-001	1.01256E-004	0.00000E+000	2.64470E-005	5.99601E-002	2.61237E-001	3.57900E+000	9	...........
	10	0.146667	2.75223E-001	1.00673E-004	0.00000E+000	2.77075E-005	5.99601E-002	2.75278E-001	3.57900E+000	9	...........
	11	0.16	2.89263E-001	1.00011E-004	0.00000E+000	2.89296E-005	5.99601E-002	2.89321E-001	3.57900E+000	9	...........
	12	0.173333	3.03315E-001	1.00630E-004	0.00000E+000	3.05227E-005	5.99601E-002	3.03376E-001	3.57900E+000	9	...........
	13	0.186667	3.17399E-001	1.01467E-004	0.00000E+000	3.22055E-005	5.99601E-002	3.17464E-001	3.57900E+000	9	...........
	14	0.2	3.31501E-001	1.01018E-004	0.00000E+000	3.34876E-005	5.99601E-002	3.31565E-001	3.57900E+000	9	...........
	15	0.213333	3.45640E-001	1.01909E-004	0.00000E+000	3.52237E-005	5.99601E-002	3.45704E-001	3.57900E+000	9	...........
	16	0.226667	3.59803E-001	1.01441E-004	0.00000E+000	3.64988E-005	5.99601E-002	3.59878E-001	3.57900E+000	9	...........
	17	0.24	3.74000E-001	1.01412E-004	0.00000E+000	3.79279E-005	5.99601E-002	3.74068E-001	3.57900E+000	9	...........
	18	0.253333	3.88202E-001	1.00917E-004	0.00000E+000	3.91761E-005	5.99601E-002	3.88275E-001	3.57900E+000	9	...........
	19	0.266667	4.02410E-001	1.01133E-004	0.00000E+000	4.06971E-005	5.99601E-002	4.02487E-001	3.57900E+000	9	...........
	20	0.28	4.16599E-001	1.00096E-004	0.00000E+000	4.16998E-005	5.99601E-002	4.16688E-001	3.57900E+000	9	...........
	21	0.293333	4.30770E-001	1.00844E-004	0.00000E+000	4.34405E-005	5.99601E-002	4.30857E-001	3.57900E+000	9	...........
	22	0.306667	4.44880E-001	1.00929E-004	0.00000E+000	4.49014E-005	5.99601E-002	4.44970E-001	3.57900E+000	9	...........
	23	0.32	4.58922E-001	1.00343E-004	0.00000E+000	4.60495E-005	5.99601E-002	4.59017E-001	3.57900E+000	9	...........
	24	0.333333	4.72868E-001	1.00399E-004	0.00000E+000	4.74755E-005	5.99601E-002	4.72965E-001	3.57900E+000	9	...........
	25	0.346667	4.86686E-001	1.00162E-004	0.00000E+000	4.87477E-005	5.99601E-002	4.86787E-001	3.57900E+000	9	...........
	26	0.36	5.00358E-001	1.01315E-004	0.00000E+000	5.06937E-005	5.99601E-002	5.00462E-001	3.57900E+000	9	...........
	27	0.373333	5.13874E-001	1.01218E-004	0.00000E+000	5.20133E-005	5.99601E-002	5.13984E-001	3.57900E+000	9	...........
	28	0.386667	5.27210E-001	1.00558E-004	0.00000E+000	5.30154E-005	5.99601E-002	5.27321E-001	3.57900E+000	9	...........
	29	0.4	5.40031E-001	1.00738E-004	0.00000E+000	5.44014E-005	5.99601E-002	5.40255E-001	3.57900E+000	9	...........
	30	0.413333	5.52937E-001	1.01798E-004	0.00000E+000	5.62880E-005	5.99601E-002	5.53181E-001	3.57900E+000	9	...........
	31	0.426667	5.65679E-001	1.00689E-004	0.00000E+000	5.69575E-005	5.99601E-002	5.65932E-001	3.57900E+000	9	...........
	32	0.44	5.78150E-001	1.00560E-004	0.00000E+000	5.81390E-005	5.99601E-002	5.78425E-001	3.57900E+000	9	...........
	33	0.453333	5.90435E-001	1.00558E-004	0.00000E+000	5.93731E-005	5.99601E-002	5.90697E-001	3.57900E+000	9	...........
	34	0.466667	6.02438E-001	1.00457E-004	0.00000E+000	6.05193E-005	5.99601E-002	6.02722E-001	3.57900E+000	9	...........
	35	0.48	6.14252E-001	1.00342E-004	0.00000E+000	6.16351E-005	5.99601E-002	6.14511E-001	3.57900E+000	9	...........
	36	0.493333	6.25844E-001	1.01610E-004	0.00000E+000	6.35918E-005	5.99601E-002	6.26088E-001	3.57900E+000	9	...........
	37	0.506667	6.37159E-001	1.00618E-004	0.00000E+000	6.41096E-005	5.99601E-002	6.37432E-001	3.57900E+000	9	...........
	38	0.52	6.48299E-001	1.00960E-004	0.00000E+000	6.54519E-005	5.99601E-002	6.48566E-001	3.57900E+000	9	...........
	39	0.533333	6.59184E-001	1.01153E-004	0.00000E+000	6.66786E-005	5.99601E-002	6.59459E-001	3.57900E+000	9	...........
	40	0.546667	6.69889E-001	1.00582E-004	0.00000E+000	6.73790E-005	5.99601E-002	6.70173E-001	3.57900E+000	9	...........
	41	0.56	6.80317E-001	1.00665E-004	0.00000E+000	6.84838E-005	5.99601E-002	6.80610E-001	3.57900E+000	9	...........
	42	0.573333	6.90543E-001	9.94498E-005	0.00000E+000	6.86744E-005	5.99601E-002	6.90860E-001	3.57900E+000	9	...........
	43	0.586667	7.00592E-001	1.01139E-004	0.00000E+000	7.08569E-005	5.99601E-002	7.00883E-001	3.57900E+000	9	...........
	44	0.6	7.10430E-001	1.01182E-004	0.00000E+000	7.18831E-005	5.99601E-002	7.10719E-001	3.57900E+000	9	...........
	45	0.613333	7.20101E-001	1.01529E-004	0.00000E+000	7.31115E-005	5.99601E-002	7.20366E-001	3.57900E+000	9	...........
	46	0.626667	7.29537E-001	1.00062E-004	0.00000E+000	7.29993E-005	5.99601E-002	7.29811E-001	3.57900E+000	9	...........
	47	0.64	7.38771E-001	1.00273E-004	0.00000E+000	7.40787E-005	5.99601E-002	7.39061E-001	3.57900E+000	9	...........
	48	0.653333	7.47868E-001	1.01678E-004	0.00000E+000	7.60420E-005	5.99601E-002	7.48150E-001	3.57900E+000	9	...........
	49	0.666667	7.56745E-001	1.00503E-004	0.00000E+000	7.60553E-005	5.99601E-002	7.57021E-001	3.57900E+000	9	...........
	50	0.68	7.65461E-001	1.01221E-004	0.00000E+000	7.74807E-005	5.99601E-002	7.65759E-001	3.57900E+000	9	...........
	51	0.693333	7.74046E-001	1.00796E-004	0.00000E+000	7.80207E-005	5.99601E-002	7.74329E-001	3.57900E+000	9	...........
	52	0.706667	7.82417E-001	1.00673E-004	0.00000E+000	7.87682E-005	5.99601E-002	7.82710E-001	3.57900E+000	9	...........
	53	0.72	7.90641E-001	1.01257E-004	0.00000E+000	8.00583E-005	5.99601E-002	7.90940E-001	3.57900E+000	9	...........
	54	0.733333	7.98719E-001	1.01757E-004	0.00000E+000	8.12749E-005	5.99601E-002	7.99010E-001	3.57900E+000	9	...........
	55	0.746667	8.06627E-001	1.00583E-004	0.00000E+000	8.11333E-005	5.99601E-002	8.06898E-001	3.57900E+000	9	...........
	56	0.76	8.14349E-001	1.01057E-004	0.00000E+000	8.22960E-005	5.99601E-002	8.14681E-001	3.57900E+000	9	...........
	57	0.773333	8.21998E-001	1.01047E-004	0.00000E+000	8.30604E-005	5.99601E-002	8.22320E-001	3.57900E+000	9	...........
	58	0.786667	8.29459E-001	1.00788E-004	0.00000E+000	8.35992E-005	5.99601E-002	8.29766E-001	3.57900E+000	9	...........
	59	0.8	8.36788E-001	1.00262E-004	0.00000E+000	8.38985E-005	5.99601E-002	8.37090E-001	3.57900E+000	9	...........
	60	0.813333	8.43990E-001	1.00599E-004	0.00000E+000	8.49045E-005	5.99601E-002	8.44301E-001	3.57900E+000	9	...........
	61	0.826667	8.51097E-001	1.01477E-004	0.00000E+000	8.63671E-005	5.99601E-002	8.51378E-001	3.57900E+000	9	...........
	62	0.84	8.58010E-001	1.00977E-004	0.00000E+000	8.66394E-005	5.99601E-002	8.58329E-001	3.57900E+000	9	...........
	63	0.853333	8.64840E-001	1.01052E-004	0.00000E+000	8.73940E-005	5.99601E-002	8.65139E-001	3.57900E+000	9	...........
	64	0.866667	8.71557E-001	1.01206E-004	0.00000E+000	8.82072E-005	5.99601E-002	8.71864E-001	3.57900E+000	9	...........
	65	0.88	8.78103E-001	1.00277E-004	0.00000E+000	8.80536E-005	5.99601E-002	8.78446E-001	3.57900E+000	9	...........
	66	0.893333	8.84555E-001	1.00558E-004	0.00000E+000	8.89494E-005	5.99601E-002	8.84902E-001	3.57900E+000	9	...........
	67	0.906667	8.90894E-001	1.01568E-004	0.00000E+000	9.04863E-005	5.99601E-002	8.91238E-001	3.57900E+000	9	...........
	68	0.92	8.97118E-001	1.00800E-004	0.00000E+000	9.04296E-005	5.99601E-002	8.97467E-001	3.57900E+000	9	...........
	69	0.933333	9.03209E-001	1.00103E-004	0.00000E+000	9.04140E-005	5.99601E-002	9.03579E-001	3.57900E+000	9	...........
	70	0.946667	9.09177E-001	1.00976E-004	0.00000E+000	9.18053E-005	5.99601E-002	9.09569E-001	3.57987E+000	9	...........
	71	0.96	9.15050E-001	1.00653E-004	0.00000E+000	9.21027E-005	5.99601E-002	9.15432E-001	3.58000E+000	9	...........
	72	0.97333	9.20854E-001	1.00666E-004	0.00000E+000	9.26984E-005	5.99601E-002	9.21199E-001	3.58000E+000	9	...........
	73	0.98667	9.26534E-001	1.01484E-004	0.00000E+000	9.40280E-005	5.99601E-002	9.26884E-001	3.58000E+000	9	...........
	74	1	9.32086E-001	1.01761E-004	0.00000E+000	9.48497E-005	5.99601E-002	9.32432E-001	3.58000E+000	9	...........
	75	1.01333	9.37503E-001	1.00614E-004	0.00000E+000	9.43255E-005	5.99601E-002	9.37873E-001	3.58000E+000	9	...........
	76	1.02667	9.42841E-001	1.00549E-004	0.00000E+000	9.48017E-005	5.99601E-002	9.43174E-001	3.58000E+000	9	...........
	77	1.04	9.48104E-001	1.01444E-004	0.00000E+000	9.61795E-005	5.99601E-002	9.48409E-001	3.58000E+000	9	...........
	78	1.05333	9.53209E-001	1.00751E-004	0.00000E+000	9.60369E-005	5.99601E-002	9.53530E-001	3.58000E+000	9	...........
	79	1.06667	9.58234E-001	1.01574E-004	0.00000E+000	9.73319E-005	5.99601E-002	9.58541E-001	3.58000E+000	9	...........
	80	1.08	9.63149E-001	1.01149E-004	0.00000E+000	9.74216E-005	5.99601E-002	9.63458E-001	3.58000E+000	9	...........
	81	1.09333	9.67965E-001	1.01485E-004	0.00000E+000	9.82336E-005	5.99601E-002	9.68305E-001	3.58000E+000	9	...........
	82	1.10667	9.72695E-001	1.00728E-004	0.00000E+000	9.79778E-005	5.99601E-002	9.73054E-001	3.58000E+000	9	...........
	83	1.12	9.77328E-001	1.00603E-004	0.00000E+000	9.83223E-005	5.99601E-002	9.77675E-001	3.58000E+000	9	...........
	84	1.13333	9.81842E-001	1.00918E-004	0.00000E+000	9.90853E-005	5.99601E-002	9.82169E-001	3.58000E+000	9	...........
	85	1.14667	9.86262E-001	1.00958E-004	0.00000E+000	9.95715E-005	5.99601E-002	9.86612E-001	3.58000E+000	9	...........
	86	1.16	9.90583E-001	1.00953E-004	0.00000E+000	1.00003E-004	5.99601E-002	9.90901E-001	3.58000E+000	9	...........
	87	1.17333	9.94819E-001	1.01005E-004	0.00000E+000	1.00482E-004	5.99601E-002	9.95162E-001	3.58000E+000	9	...........
	88	1.185	9.98733E-001	1.00972E-004	0.00000E+000	1.00844E-004	5.99601E-002	9.99073E-001	3.58000E+000	9	...........
STARTTIMEOFFSET	QUANT	2366.859	Start Time Offset (s)
