EXPLAIN
TAG	PWR800_CHARGE
TITLE	LABEL	PWR Cyclic Charge Discharge (Cell) - Charge Step	Test &Identifier
DATE	LABEL	13-7-2017	Date
TIME	LABEL	15:33:09	Time
NOTES	NOTES	2	&Notes...
	supercap test cell
	6M KOH
PSTAT	PSTAT	IFC5000-01520	Potentiostat
CAPACITY	QUANT	1.00000E-003	Capacity (A-hr)
CELLTYPE	SELECTOR	1	&Cell Type
WORKINGCONNECTION	SELECTOR	0	&Working Lead
MAXCHARGETIME	VARIABLEANDUNITS	1.00000E+002	s	1.00000E+002	second(s)	Max &Charge Time
CHARGECURRENT	QUANT	1.00000E-004	&Charge Current (A) 
VOLTAGEFINISH	TWOPARAM	F	1.00000E-003	3.60000E+003	&Voltage Finish	 I (A) < 	Max Time(s)
SAMPLETIME	QUANT	1.00000E-002	Sa&mple Period (s)
CHARGESTOPAT1	MULTIPARAM	4	1.00000E+000	Charge Stop At &1	Voltage > Limit	V
CHARGESTOPAT2	MULTIPARAM	0	0.00000E+000	Charge Stop At &2	None	N/A
AESBHCSELECTOR	TOGGLE	F	Save Both Half Cells
IRCOMP	TOGGLE	F	IR &Measure
EOC	QUANT	0	Open Circuit (V)
SEQUENCER	TOGGLE	TRUE	Run as Sequence
PSTATMODEL	IQUANT	53	Pstat Model
PSTATSECTION	LABEL	IFC5000-01520	Pstat Section
PSTATSERIALNO	LABEL	01520	Pstat Serial Number
CTRLMODE	IQUANT	0	Control Mode
ELECTROMETER	IQUANT	1	RE=0 or CS=1
IESTAB	IQUANT	0	I/E Stability
CASPEED	IQUANT	4	Control Amp Speed
CONVENTION	IQUANT	1	Current Convention
ICHRANGE	IQUANT	2	Ich Range
ICHRANGEMODE	TOGGLE	T	Ich Auto Range
ICHOFFSETENABLE	TOGGLE	F	Ich Offset Enable
ICHOFFSET	QUANT	0	Ich Offset (V)
ICHFILTER	IQUANT	1	Ich Filter
VCHRANGE	IQUANT	2	Vch Range
VCHRANGEMODE	TOGGLE	T	Vch Auto Range
VCHOFFSETENABLE	TOGGLE	F	Vch Offset Enable
VCHOFFSET	QUANT	0	Vch Offset (V)
VCHFILTER	IQUANT	1	Vch Filter
IERANGELOWERLIMIT	IQUANT	9	I/E Range Lower Limit
IERANGEMODE	TOGGLE	F	I/E AutoRange
IERANGE	IQUANT	9	I/E Range
ACHSELECT	IQUANT	1	Ach Select
ACHRANGE	IQUANT	2	Ach Range
ACHOFFSETENABLE	TOGGLE	F	Ach Offset Enable
ACHOFFSET	QUANT	0	Ach Offset (V)
ACHFILTER	IQUANT	1	Ach Filter
CABLEID	IQUANT	14	Cable ID
DCCALDATE	LABEL	5-7-2017	DC Calibration Date
ACCALDATE	LABEL	12/3/2015	AC Calibration Date
FRAMEWORKVERSION	QUANT	7.01	Framework Version
INSTRUMENTVERSION	LABEL	4.00	Instrument Version
CURVE	TABLE	91
	Pt	T	Vf	Im	Vu	Pwr	Sig	Ach	Temp	IERange	Over
	#	s	V	A	V	W	V	V	deg C	#	bits
	0	0.013333	1.43043E-001	1.00814E-004	0.00000E+000	1.44206E-005	5.99601E-002	1.43087E-001	3.57910E+000	9	...........
	1	0.026667	1.58306E-001	1.00309E-004	0.00000E+000	1.58796E-005	5.99601E-002	1.58331E-001	3.57910E+000	9	...........
	2	0.04	1.73142E-001	1.00985E-004	0.00000E+000	1.74846E-005	5.99601E-002	1.73171E-001	3.57910E+000	9	...........
	3	0.053333	1.87720E-001	1.00972E-004	0.00000E+000	1.89545E-005	5.99601E-002	1.87753E-001	3.57910E+000	9	...........
	4	0.066667	2.02113E-001	1.00640E-004	0.00000E+000	2.03405E-005	5.99601E-002	2.02145E-001	3.57910E+000	9	...........
	5	0.08	2.16360E-001	1.00088E-004	0.00000E+000	2.16551E-005	5.99601E-002	2.16399E-001	3.57910E+000	9	...........
	6	0.093333	2.30515E-001	9.97999E-005	0.00000E+000	2.30053E-005	5.99601E-002	2.30551E-001	3.57910E+000	9	...........
	7	0.106667	2.44600E-001	1.01321E-004	0.00000E+000	2.47831E-005	5.99601E-002	2.44640E-001	3.57910E+000	9	...........
	8	0.12	2.58636E-001	1.01047E-004	0.00000E+000	2.61344E-005	5.99601E-002	2.58691E-001	3.57910E+000	9	...........
	9	0.133333	2.72661E-001	1.01193E-004	0.00000E+000	2.75914E-005	5.99601E-002	2.72707E-001	3.57910E+000	9	...........
	10	0.146667	2.86665E-001	1.00801E-004	0.00000E+000	2.88961E-005	5.99601E-002	2.86718E-001	3.57910E+000	9	...........
	11	0.16	3.00672E-001	1.00579E-004	0.00000E+000	3.02414E-005	5.99601E-002	3.00728E-001	3.57910E+000	9	...........
	12	0.173333	3.14689E-001	1.00756E-004	0.00000E+000	3.17069E-005	5.99601E-002	3.14744E-001	3.57910E+000	9	...........
	13	0.186667	3.28707E-001	9.99530E-005	0.00000E+000	3.28553E-005	5.99601E-002	3.28771E-001	3.57910E+000	9	...........
	14	0.2	3.42755E-001	1.01342E-004	0.00000E+000	3.47354E-005	5.99601E-002	3.42811E-001	3.57910E+000	9	...........
	15	0.213333	3.56807E-001	1.01030E-004	0.00000E+000	3.60484E-005	5.99601E-002	3.56871E-001	3.57910E+000	9	...........
	16	0.226667	3.70875E-001	1.00609E-004	0.00000E+000	3.73135E-005	5.99601E-002	3.70937E-001	3.57910E+000	9	...........
	17	0.24	3.84931E-001	1.00839E-004	0.00000E+000	3.88159E-005	5.99601E-002	3.85006E-001	3.57910E+000	9	...........
	18	0.253333	3.98984E-001	1.00017E-004	0.00000E+000	3.99051E-005	5.99601E-002	3.99057E-001	3.57910E+000	9	...........
	19	0.266667	4.13006E-001	1.00126E-004	0.00000E+000	4.13527E-005	5.99601E-002	4.13088E-001	3.57910E+000	9	...........
	20	0.28	4.26977E-001	1.00317E-004	0.00000E+000	4.28329E-005	5.99601E-002	4.27063E-001	3.57910E+000	9	...........
	21	0.293333	4.40881E-001	1.00892E-004	0.00000E+000	4.44813E-005	5.99601E-002	4.40968E-001	3.57910E+000	9	...........
	22	0.306667	4.54697E-001	1.01186E-004	0.00000E+000	4.60087E-005	5.99601E-002	4.54782E-001	3.57910E+000	9	...........
	23	0.32	4.68398E-001	1.01095E-004	0.00000E+000	4.73526E-005	5.99601E-002	4.68483E-001	3.57910E+000	9	...........
	24	0.333333	4.81971E-001	1.00829E-004	0.00000E+000	4.85968E-005	5.99601E-002	4.82063E-001	3.57910E+000	9	...........
	25	0.346667	4.95392E-001	1.01178E-004	0.00000E+000	5.01230E-005	5.99601E-002	4.95490E-001	3.57910E+000	9	...........
	26	0.36	5.08650E-001	1.00070E-004	0.00000E+000	5.09004E-005	5.99601E-002	5.08752E-001	3.57910E+000	9	...........
	27	0.373333	5.21721E-001	1.00791E-004	0.00000E+000	5.25846E-005	5.99601E-002	5.21828E-001	3.57910E+000	9	...........
	28	0.386667	5.34411E-001	1.01062E-004	0.00000E+000	5.40084E-005	5.99601E-002	5.34598E-001	3.57910E+000	9	...........
	29	0.4	5.46894E-001	1.00110E-004	0.00000E+000	5.47497E-005	5.99601E-002	5.47151E-001	3.57910E+000	9	...........
	30	0.413333	5.59363E-001	1.00346E-004	0.00000E+000	5.61298E-005	5.99601E-002	5.59610E-001	3.57910E+000	9	...........
	31	0.426667	5.71599E-001	1.01128E-004	0.00000E+000	5.78048E-005	5.99601E-002	5.71853E-001	3.57910E+000	9	...........
	32	0.44	5.83590E-001	1.00607E-004	0.00000E+000	5.87134E-005	5.99601E-002	5.83866E-001	3.57910E+000	9	...........
	33	0.453333	5.95360E-001	1.00955E-004	0.00000E+000	6.01048E-005	5.99601E-002	5.95650E-001	3.57910E+000	9	...........
	34	0.466667	6.06893E-001	1.01169E-004	0.00000E+000	6.13987E-005	5.99601E-002	6.07199E-001	3.57910E+000	9	...........
	35	0.48	6.18270E-001	1.00862E-004	0.00000E+000	6.23597E-005	5.99601E-002	6.18549E-001	3.57910E+000	9	...........
	36	0.493333	6.29346E-001	1.00563E-004	0.00000E+000	6.32887E-005	5.99601E-002	6.29646E-001	3.57910E+000	9	...........
	37	0.506667	6.40249E-001	1.00915E-004	0.00000E+000	6.46106E-005	5.99601E-002	6.40516E-001	3.57910E+000	9	...........
	38	0.52	6.50896E-001	1.00500E-004	0.00000E+000	6.54150E-005	5.99601E-002	6.51171E-001	3.57910E+000	9	...........
	39	0.533333	6.61331E-001	1.01741E-004	0.00000E+000	6.72844E-005	5.99601E-002	6.61604E-001	3.57910E+000	9	...........
	40	0.546667	6.71586E-001	1.00732E-004	0.00000E+000	6.76504E-005	5.99601E-002	6.71850E-001	3.57910E+000	9	...........
	41	0.56	6.81612E-001	1.00476E-004	0.00000E+000	6.84857E-005	5.99601E-002	6.81875E-001	3.57910E+000	9	...........
	42	0.573333	6.91428E-001	1.01330E-004	0.00000E+000	7.00627E-005	5.99601E-002	6.91697E-001	3.57910E+000	9	...........
	43	0.586667	7.01048E-001	1.01757E-004	0.00000E+000	7.13362E-005	5.99601E-002	7.01325E-001	3.57910E+000	9	...........
	44	0.6	7.10473E-001	1.01744E-004	0.00000E+000	7.22864E-005	5.99601E-002	7.10751E-001	3.57910E+000	9	...........
	45	0.613333	7.19764E-001	1.00801E-004	0.00000E+000	7.25530E-005	5.99601E-002	7.20023E-001	3.57910E+000	9	...........
	46	0.626667	7.28828E-001	1.00973E-004	0.00000E+000	7.35920E-005	5.99601E-002	7.29101E-001	3.58113E+000	9	...........
	47	0.64	7.37693E-001	1.00726E-004	0.00000E+000	7.43049E-005	5.99601E-002	7.37981E-001	3.58220E+000	9	...........
	48	0.653333	7.46451E-001	1.01156E-004	0.00000E+000	7.55083E-005	5.99601E-002	7.46741E-001	3.58220E+000	9	...........
	49	0.666667	7.55004E-001	1.00422E-004	0.00000E+000	7.58189E-005	5.99601E-002	7.55285E-001	3.58220E+000	9	...........
	50	0.68	7.63392E-001	1.01041E-004	0.00000E+000	7.71338E-005	5.99601E-002	7.63680E-001	3.58220E+000	9	...........
	51	0.693333	7.71622E-001	1.00720E-004	0.00000E+000	7.77176E-005	5.99601E-002	7.71932E-001	3.58220E+000	9	...........
	52	0.706667	7.79696E-001	1.01253E-004	0.00000E+000	7.89468E-005	5.99601E-002	7.79991E-001	3.58220E+000	9	...........
	53	0.72	7.87595E-001	1.00607E-004	0.00000E+000	7.92378E-005	5.99601E-002	7.87909E-001	3.58220E+000	9	...........
	54	0.733333	7.95404E-001	9.99114E-005	0.00000E+000	7.94699E-005	5.99601E-002	7.95701E-001	3.58220E+000	9	...........
	55	0.746667	8.03038E-001	1.00974E-004	0.00000E+000	8.10861E-005	5.99601E-002	8.03351E-001	3.58220E+000	9	...........
	56	0.76	8.10510E-001	1.00806E-004	0.00000E+000	8.17045E-005	5.99601E-002	8.10858E-001	3.58220E+000	9	...........
	57	0.773333	8.17877E-001	1.00789E-004	0.00000E+000	8.24328E-005	5.99601E-002	8.18235E-001	3.58220E+000	9	...........
	58	0.786667	8.25105E-001	1.00966E-004	0.00000E+000	8.33074E-005	5.99601E-002	8.25468E-001	3.58220E+000	9	...........
	59	0.8	8.32204E-001	1.00477E-004	0.00000E+000	8.36175E-005	5.99601E-002	8.32571E-001	3.58220E+000	9	...........
	60	0.813333	8.39177E-001	1.00752E-004	0.00000E+000	8.45489E-005	5.99601E-002	8.39537E-001	3.58220E+000	9	...........
	61	0.826667	8.46049E-001	1.00983E-004	0.00000E+000	8.54370E-005	5.99601E-002	8.46397E-001	3.58220E+000	9	...........
	62	0.84	8.52803E-001	1.00410E-004	0.00000E+000	8.56303E-005	5.99601E-002	8.53138E-001	3.58220E+000	9	...........
	63	0.853333	8.59402E-001	1.00975E-004	0.00000E+000	8.67782E-005	5.99601E-002	8.59756E-001	3.58220E+000	9	...........
	64	0.866667	8.65891E-001	1.00678E-004	0.00000E+000	8.71764E-005	5.99601E-002	8.66234E-001	3.58220E+000	9	...........
	65	0.88	8.72323E-001	1.00396E-004	0.00000E+000	8.75776E-005	5.99601E-002	8.72658E-001	3.58220E+000	9	...........
	66	0.893333	8.78570E-001	1.00195E-004	0.00000E+000	8.80281E-005	5.99601E-002	8.78899E-001	3.58220E+000	9	...........
	67	0.906667	8.84750E-001	1.00965E-004	0.00000E+000	8.93285E-005	5.99601E-002	8.85105E-001	3.58220E+000	9	...........
	68	0.92	8.90801E-001	1.01086E-004	0.00000E+000	9.00471E-005	5.99601E-002	8.91146E-001	3.58220E+000	9	...........
	69	0.933333	8.96723E-001	1.00180E-004	0.00000E+000	8.98338E-005	5.99601E-002	8.97113E-001	3.58220E+000	9	...........
	70	0.946667	9.02565E-001	1.00690E-004	0.00000E+000	9.08790E-005	5.99601E-002	9.02957E-001	3.58220E+000	9	...........
	71	0.96	9.08322E-001	1.00613E-004	0.00000E+000	9.13886E-005	5.99601E-002	9.08703E-001	3.58220E+000	9	...........
	72	0.97333	9.13957E-001	1.00961E-004	0.00000E+000	9.22736E-005	5.99601E-002	9.14342E-001	3.58220E+000	9	...........
	73	0.98667	9.19505E-001	1.01063E-004	0.00000E+000	9.29276E-005	5.99601E-002	9.19865E-001	3.58220E+000	9	...........
	74	1	9.24985E-001	1.00170E-004	0.00000E+000	9.26555E-005	5.99601E-002	9.25330E-001	3.58220E+000	9	...........
	75	1.01333	9.30303E-001	1.01879E-004	0.00000E+000	9.47788E-005	5.99601E-002	9.30634E-001	3.58220E+000	9	...........
	76	1.02667	9.35532E-001	1.00725E-004	0.00000E+000	9.42316E-005	5.99601E-002	9.35875E-001	3.58220E+000	9	...........
	77	1.04	9.40664E-001	1.00833E-004	0.00000E+000	9.48504E-005	5.99601E-002	9.41009E-001	3.58220E+000	9	...........
	78	1.05333	9.45723E-001	1.01425E-004	0.00000E+000	9.59202E-005	5.99601E-002	9.46050E-001	3.58220E+000	9	...........
	79	1.06667	9.50675E-001	1.00714E-004	0.00000E+000	9.57459E-005	5.99601E-002	9.50998E-001	3.58220E+000	9	...........
	80	1.08	9.55528E-001	1.01354E-004	0.00000E+000	9.68470E-005	5.99601E-002	9.55826E-001	3.58220E+000	9	...........
	81	1.09333	9.60275E-001	1.01280E-004	0.00000E+000	9.72570E-005	5.99601E-002	9.60591E-001	3.58220E+000	9	...........
	82	1.10667	9.64921E-001	1.00201E-004	0.00000E+000	9.66860E-005	5.99601E-002	9.65246E-001	3.58220E+000	9	...........
	83	1.12	9.69477E-001	1.01162E-004	0.00000E+000	9.80739E-005	5.99601E-002	9.69813E-001	3.58220E+000	9	...........
	84	1.13333	9.74016E-001	1.00962E-004	0.00000E+000	9.83382E-005	5.99601E-002	9.74314E-001	3.58220E+000	9	...........
	85	1.14667	9.78403E-001	1.01492E-004	0.00000E+000	9.93000E-005	5.99601E-002	9.78685E-001	3.58220E+000	9	...........
	86	1.16	9.82687E-001	1.00151E-004	0.00000E+000	9.84171E-005	5.99601E-002	9.82971E-001	3.58220E+000	9	...........
	87	1.17333	9.86912E-001	1.00800E-004	0.00000E+000	9.94809E-005	5.99601E-002	9.87224E-001	3.58220E+000	9	...........
	88	1.18667	9.91016E-001	1.01548E-004	0.00000E+000	1.00636E-004	5.99601E-002	9.91351E-001	3.58220E+000	9	...........
	89	1.2	9.95053E-001	1.00543E-004	0.00000E+000	1.00045E-004	5.99601E-002	9.95419E-001	3.58220E+000	9	...........
	90	1.21167	9.98790E-001	1.00915E-004	0.00000E+000	1.00793E-004	5.99601E-002	9.99153E-001	3.58220E+000	9	...........
STARTTIMEOFFSET	QUANT	1408.869	Start Time Offset (s)
