EXPLAIN
TAG	PWR800_CHARGE
TITLE	LABEL	PWR Cyclic Charge Discharge (Cell) - Charge Step	Test &Identifier
DATE	LABEL	13-7-2017	Date
TIME	LABEL	15:12:38	Time
NOTES	NOTES	2	&Notes...
	supercap test cell
	6M KOH
PSTAT	PSTAT	IFC5000-01520	Potentiostat
CAPACITY	QUANT	1.00000E-003	Capacity (A-hr)
CELLTYPE	SELECTOR	1	&Cell Type
WORKINGCONNECTION	SELECTOR	0	&Working Lead
MAXCHARGETIME	VARIABLEANDUNITS	1.00000E+002	s	1.00000E+002	second(s)	Max &Charge Time
CHARGECURRENT	QUANT	1.00000E-004	&Charge Current (A) 
VOLTAGEFINISH	TWOPARAM	F	1.00000E-003	3.60000E+003	&Voltage Finish	 I (A) < 	Max Time(s)
SAMPLETIME	QUANT	1.00000E-002	Sa&mple Period (s)
CHARGESTOPAT1	MULTIPARAM	4	1.00000E+000	Charge Stop At &1	Voltage > Limit	V
CHARGESTOPAT2	MULTIPARAM	0	0.00000E+000	Charge Stop At &2	None	N/A
AESBHCSELECTOR	TOGGLE	F	Save Both Half Cells
IRCOMP	TOGGLE	F	IR &Measure
EOC	QUANT	0	Open Circuit (V)
SEQUENCER	TOGGLE	TRUE	Run as Sequence
PSTATMODEL	IQUANT	53	Pstat Model
PSTATSECTION	LABEL	IFC5000-01520	Pstat Section
PSTATSERIALNO	LABEL	01520	Pstat Serial Number
CTRLMODE	IQUANT	0	Control Mode
ELECTROMETER	IQUANT	1	RE=0 or CS=1
IESTAB	IQUANT	0	I/E Stability
CASPEED	IQUANT	4	Control Amp Speed
CONVENTION	IQUANT	1	Current Convention
ICHRANGE	IQUANT	2	Ich Range
ICHRANGEMODE	TOGGLE	T	Ich Auto Range
ICHOFFSETENABLE	TOGGLE	F	Ich Offset Enable
ICHOFFSET	QUANT	0	Ich Offset (V)
ICHFILTER	IQUANT	1	Ich Filter
VCHRANGE	IQUANT	2	Vch Range
VCHRANGEMODE	TOGGLE	T	Vch Auto Range
VCHOFFSETENABLE	TOGGLE	F	Vch Offset Enable
VCHOFFSET	QUANT	0	Vch Offset (V)
VCHFILTER	IQUANT	1	Vch Filter
IERANGELOWERLIMIT	IQUANT	9	I/E Range Lower Limit
IERANGEMODE	TOGGLE	F	I/E AutoRange
IERANGE	IQUANT	9	I/E Range
ACHSELECT	IQUANT	1	Ach Select
ACHRANGE	IQUANT	2	Ach Range
ACHOFFSETENABLE	TOGGLE	F	Ach Offset Enable
ACHOFFSET	QUANT	0	Ach Offset (V)
ACHFILTER	IQUANT	1	Ach Filter
CABLEID	IQUANT	14	Cable ID
DCCALDATE	LABEL	5-7-2017	DC Calibration Date
ACCALDATE	LABEL	12/3/2015	AC Calibration Date
FRAMEWORKVERSION	QUANT	7.01	Framework Version
INSTRUMENTVERSION	LABEL	4.00	Instrument Version
CURVE	TABLE	96
	Pt	T	Vf	Im	Vu	Pwr	Sig	Ach	Temp	IERange	Over
	#	s	V	A	V	W	V	V	deg C	#	bits
	0	0.013333	1.35503E-001	1.00465E-004	0.00000E+000	1.36132E-005	5.99601E-002	1.35551E-001	3.58020E+000	9	...........
	1	0.026667	1.50733E-001	1.00383E-004	0.00000E+000	1.51310E-005	5.99601E-002	1.50754E-001	3.58020E+000	9	...........
	2	0.04	1.65512E-001	1.00318E-004	0.00000E+000	1.66038E-005	5.99601E-002	1.65540E-001	3.58020E+000	9	...........
	3	0.053333	1.80032E-001	1.00102E-004	0.00000E+000	1.80216E-005	5.99601E-002	1.80067E-001	3.58020E+000	9	...........
	4	0.066667	1.94363E-001	1.00337E-004	0.00000E+000	1.95019E-005	5.99601E-002	1.94398E-001	3.58020E+000	9	...........
	5	0.08	2.08539E-001	1.00747E-004	0.00000E+000	2.10097E-005	5.99601E-002	2.08578E-001	3.58020E+000	9	...........
	6	0.093333	2.22615E-001	1.01402E-004	0.00000E+000	2.25737E-005	5.99601E-002	2.22657E-001	3.58020E+000	9	...........
	7	0.106667	2.36614E-001	9.98134E-005	0.00000E+000	2.36172E-005	5.99601E-002	2.36658E-001	3.58020E+000	9	...........
	8	0.12	2.50557E-001	1.01378E-004	0.00000E+000	2.54010E-005	5.99601E-002	2.50608E-001	3.58020E+000	9	...........
	9	0.133333	2.64465E-001	1.01023E-004	0.00000E+000	2.67171E-005	5.99601E-002	2.64521E-001	3.58020E+000	9	...........
	10	0.146667	2.78359E-001	1.00669E-004	0.00000E+000	2.80221E-005	5.99601E-002	2.78415E-001	3.58020E+000	9	...........
	11	0.16	2.92237E-001	1.00775E-004	0.00000E+000	2.94502E-005	5.99601E-002	2.92294E-001	3.58020E+000	9	...........
	12	0.173333	3.06107E-001	1.01033E-004	0.00000E+000	3.09271E-005	5.99601E-002	3.06165E-001	3.58006E+000	9	...........
	13	0.186667	3.19977E-001	1.00858E-004	0.00000E+000	3.22724E-005	5.99601E-002	3.20031E-001	3.57910E+000	9	...........
	14	0.2	3.33840E-001	1.01963E-004	0.00000E+000	3.40393E-005	5.99601E-002	3.33901E-001	3.57910E+000	9	...........
	15	0.213333	3.47705E-001	9.91143E-005	0.00000E+000	3.44625E-005	5.99601E-002	3.47761E-001	3.57910E+000	9	...........
	16	0.226667	3.61560E-001	1.01327E-004	0.00000E+000	3.66359E-005	5.99601E-002	3.61629E-001	3.57910E+000	9	...........
	17	0.24	3.75404E-001	1.00298E-004	0.00000E+000	3.76522E-005	5.99601E-002	3.75473E-001	3.57910E+000	9	...........
	18	0.253333	3.89216E-001	1.00318E-004	0.00000E+000	3.90452E-005	5.99601E-002	3.89288E-001	3.57910E+000	9	...........
	19	0.266667	4.02989E-001	9.99082E-005	0.00000E+000	4.02619E-005	5.99601E-002	4.03066E-001	3.57910E+000	9	...........
	20	0.28	4.16700E-001	1.00320E-004	0.00000E+000	4.18033E-005	5.99601E-002	4.16785E-001	3.57910E+000	9	...........
	21	0.293333	4.30334E-001	1.01354E-004	0.00000E+000	4.36163E-005	5.99601E-002	4.30424E-001	3.57910E+000	9	...........
	22	0.306667	4.43876E-001	1.00829E-004	0.00000E+000	4.47557E-005	5.99601E-002	4.43970E-001	3.57910E+000	9	...........
	23	0.32	4.57301E-001	1.00895E-004	0.00000E+000	4.61393E-005	5.99601E-002	4.57390E-001	3.57910E+000	9	...........
	24	0.333333	4.70595E-001	1.00854E-004	0.00000E+000	4.74615E-005	5.99601E-002	4.70688E-001	3.57910E+000	9	...........
	25	0.346667	4.83737E-001	1.01362E-004	0.00000E+000	4.90324E-005	5.99601E-002	4.83836E-001	3.57910E+000	9	...........
	26	0.36	4.96704E-001	1.01016E-004	0.00000E+000	5.01750E-005	5.99601E-002	4.96812E-001	3.57910E+000	9	...........
	27	0.373333	5.09494E-001	1.00979E-004	0.00000E+000	5.14483E-005	5.99601E-002	5.09608E-001	3.57910E+000	9	...........
	28	0.386667	5.22103E-001	1.01133E-004	0.00000E+000	5.28021E-005	5.99601E-002	5.22210E-001	3.57910E+000	9	...........
	29	0.4	5.34300E-001	1.01286E-004	0.00000E+000	5.41169E-005	5.99601E-002	5.34496E-001	3.57910E+000	9	...........
	30	0.413333	5.46310E-001	1.01442E-004	0.00000E+000	5.54187E-005	5.99601E-002	5.46556E-001	3.57910E+000	9	...........
	31	0.426667	5.58277E-001	1.01280E-004	0.00000E+000	5.65425E-005	5.99601E-002	5.58547E-001	3.57910E+000	9	...........
	32	0.44	5.70046E-001	1.01041E-004	0.00000E+000	5.75979E-005	5.99601E-002	5.70305E-001	3.57910E+000	9	...........
	33	0.453333	5.81539E-001	1.01484E-004	0.00000E+000	5.90166E-005	5.99601E-002	5.81835E-001	3.57910E+000	9	...........
	34	0.466667	5.92873E-001	1.00774E-004	0.00000E+000	5.97462E-005	5.99601E-002	5.93145E-001	3.57910E+000	9	...........
	35	0.48	6.03926E-001	1.00645E-004	0.00000E+000	6.07820E-005	5.99601E-002	6.04196E-001	3.57910E+000	9	...........
	36	0.493333	6.14796E-001	1.00690E-004	0.00000E+000	6.19036E-005	5.99601E-002	6.15069E-001	3.57910E+000	9	...........
	37	0.506667	6.25483E-001	1.01082E-004	0.00000E+000	6.32253E-005	5.99601E-002	6.25684E-001	3.57910E+000	9	...........
	38	0.52	6.35875E-001	9.97853E-005	0.00000E+000	6.34510E-005	5.99601E-002	6.36124E-001	3.57910E+000	9	...........
	39	0.533333	6.46124E-001	1.00335E-004	0.00000E+000	6.48291E-005	5.99601E-002	6.46364E-001	3.57910E+000	9	...........
	40	0.546667	6.56154E-001	1.00838E-004	0.00000E+000	6.61650E-005	5.99601E-002	6.56404E-001	3.57910E+000	9	...........
	41	0.56	6.65964E-001	1.01230E-004	0.00000E+000	6.74158E-005	5.99601E-002	6.66234E-001	3.57910E+000	9	...........
	42	0.573333	6.75594E-001	1.00291E-004	0.00000E+000	6.77557E-005	5.99601E-002	6.75860E-001	3.57910E+000	9	...........
	43	0.586667	6.85042E-001	1.01538E-004	0.00000E+000	6.95576E-005	5.99601E-002	6.85278E-001	3.57910E+000	9	...........
	44	0.6	6.94282E-001	1.01205E-004	0.00000E+000	7.02651E-005	5.99601E-002	6.94553E-001	3.57910E+000	9	...........
	45	0.613333	7.03335E-001	9.99239E-005	0.00000E+000	7.02800E-005	5.99601E-002	7.03608E-001	3.57910E+000	9	...........
	46	0.626667	7.12220E-001	1.01471E-004	0.00000E+000	7.22697E-005	5.99601E-002	7.12510E-001	3.57910E+000	9	...........
	47	0.64	7.20979E-001	1.01492E-004	0.00000E+000	7.31735E-005	5.99601E-002	7.21255E-001	3.57910E+000	9	...........
	48	0.653333	7.29526E-001	1.02361E-004	0.00000E+000	7.46749E-005	5.99601E-002	7.29818E-001	3.57910E+000	9	...........
	49	0.666667	7.37907E-001	1.00239E-004	0.00000E+000	7.39667E-005	5.99601E-002	7.38200E-001	3.57910E+000	9	...........
	50	0.68	7.46127E-001	1.01273E-004	0.00000E+000	7.55626E-005	5.99601E-002	7.46463E-001	3.57910E+000	9	...........
	51	0.693333	7.54236E-001	1.00953E-004	0.00000E+000	7.61426E-005	5.99601E-002	7.54520E-001	3.57910E+000	9	...........
	52	0.706667	7.62147E-001	1.00007E-004	0.00000E+000	7.62202E-005	5.99601E-002	7.62431E-001	3.57910E+000	9	...........
	53	0.72	7.69920E-001	1.01524E-004	0.00000E+000	7.81655E-005	5.99601E-002	7.70242E-001	3.57910E+000	9	...........
	54	0.733333	7.77553E-001	1.01295E-004	0.00000E+000	7.87622E-005	5.99601E-002	7.77887E-001	3.57910E+000	9	...........
	55	0.746667	7.85075E-001	1.00502E-004	0.00000E+000	7.89017E-005	5.99601E-002	7.85357E-001	3.57910E+000	9	...........
	56	0.76	7.92413E-001	1.00958E-004	0.00000E+000	8.00008E-005	5.99601E-002	7.92740E-001	3.57910E+000	9	...........
	57	0.773333	7.99656E-001	1.01035E-004	0.00000E+000	8.07928E-005	5.99601E-002	7.99957E-001	3.57910E+000	9	...........
	58	0.786667	8.06736E-001	1.00505E-004	0.00000E+000	8.10812E-005	5.99601E-002	8.07073E-001	3.57910E+000	9	...........
	59	0.8	8.13703E-001	1.00663E-004	0.00000E+000	8.19095E-005	5.99601E-002	8.14053E-001	3.57910E+000	9	...........
	60	0.813333	8.20575E-001	1.01025E-004	0.00000E+000	8.28987E-005	5.99601E-002	8.20932E-001	3.57910E+000	9	...........
	61	0.826667	8.27298E-001	1.00349E-004	0.00000E+000	8.30185E-005	5.99601E-002	8.27667E-001	3.57910E+000	9	...........
	62	0.84	8.33905E-001	1.00757E-004	0.00000E+000	8.40220E-005	5.99601E-002	8.34297E-001	3.57910E+000	9	...........
	63	0.853333	8.40429E-001	1.01901E-004	0.00000E+000	8.56409E-005	5.99601E-002	8.40789E-001	3.57910E+000	9	...........
	64	0.866667	8.46858E-001	1.00966E-004	0.00000E+000	8.55037E-005	5.99601E-002	8.47217E-001	3.57910E+000	9	...........
	65	0.88	8.53135E-001	1.01627E-004	0.00000E+000	8.67019E-005	5.99601E-002	8.53516E-001	3.57910E+000	9	...........
	66	0.893333	8.59329E-001	1.00963E-004	0.00000E+000	8.67601E-005	5.99601E-002	8.59707E-001	3.57910E+000	9	...........
	67	0.906667	8.65399E-001	1.00531E-004	0.00000E+000	8.69997E-005	5.99601E-002	8.65778E-001	3.57910E+000	9	...........
	68	0.92	8.71391E-001	1.00074E-004	0.00000E+000	8.72035E-005	5.99601E-002	8.71787E-001	3.57910E+000	9	...........
	69	0.933333	8.77282E-001	1.00852E-004	0.00000E+000	8.84758E-005	5.99601E-002	8.77651E-001	3.57910E+000	9	...........
	70	0.946667	8.83062E-001	1.00814E-004	0.00000E+000	8.90247E-005	5.99601E-002	8.83427E-001	3.57910E+000	9	...........
	71	0.96	8.88772E-001	1.01085E-004	0.00000E+000	8.98411E-005	5.99601E-002	8.89112E-001	3.57910E+000	9	...........
	72	0.97333	8.94349E-001	1.01391E-004	0.00000E+000	9.06788E-005	5.99601E-002	8.94699E-001	3.57910E+000	9	...........
	73	0.98667	8.99827E-001	1.00594E-004	0.00000E+000	9.05170E-005	5.99601E-002	9.00187E-001	3.57910E+000	9	...........
	74	1	9.05206E-001	1.01127E-004	0.00000E+000	9.15410E-005	5.99601E-002	9.05607E-001	3.57910E+000	9	...........
	75	1.01333	9.10543E-001	1.00180E-004	0.00000E+000	9.12184E-005	5.99601E-002	9.10917E-001	3.57910E+000	9	...........
	76	1.02667	9.15747E-001	1.01002E-004	0.00000E+000	9.24925E-005	5.99601E-002	9.16122E-001	3.57910E+000	9	...........
	77	1.04	9.20912E-001	1.00582E-004	0.00000E+000	9.26275E-005	5.99601E-002	9.21250E-001	3.57910E+000	9	...........
	78	1.05333	9.25952E-001	1.00421E-004	0.00000E+000	9.29849E-005	5.99601E-002	9.26294E-001	3.57910E+000	9	...........
	79	1.06667	9.30901E-001	1.01434E-004	0.00000E+000	9.44245E-005	5.99601E-002	9.31233E-001	3.57910E+000	9	...........
	80	1.08	9.35757E-001	1.01229E-004	0.00000E+000	9.47261E-005	5.99601E-002	9.36113E-001	3.57910E+000	9	...........
	81	1.09333	9.40508E-001	1.01645E-004	0.00000E+000	9.55980E-005	5.99601E-002	9.40868E-001	3.57910E+000	9	...........
	82	1.10667	9.45197E-001	1.01541E-004	0.00000E+000	9.59761E-005	5.99601E-002	9.45559E-001	3.57910E+000	9	...........
	83	1.12	9.49819E-001	1.01396E-004	0.00000E+000	9.63079E-005	5.99601E-002	9.50189E-001	3.57910E+000	9	...........
	84	1.13333	9.54329E-001	1.00315E-004	0.00000E+000	9.57331E-005	5.99601E-002	9.54690E-001	3.57910E+000	9	...........
	85	1.14667	9.58745E-001	1.00710E-004	0.00000E+000	9.65556E-005	5.99601E-002	9.59134E-001	3.57910E+000	9	...........
	86	1.16	9.63097E-001	1.00419E-004	0.00000E+000	9.67131E-005	5.99601E-002	9.63495E-001	3.57910E+000	9	...........
	87	1.17333	9.67356E-001	1.01194E-004	0.00000E+000	9.78906E-005	5.99601E-002	9.67759E-001	3.57910E+000	9	...........
	88	1.18667	9.71563E-001	1.00833E-004	0.00000E+000	9.79660E-005	5.99601E-002	9.71929E-001	3.57910E+000	9	...........
	89	1.2	9.75685E-001	1.01791E-004	0.00000E+000	9.93158E-005	5.99601E-002	9.76050E-001	3.57910E+000	9	...........
	90	1.21333	9.79701E-001	1.01001E-004	0.00000E+000	9.89510E-005	5.99601E-002	9.80073E-001	3.57910E+000	9	...........
	91	1.22667	9.83656E-001	1.00656E-004	0.00000E+000	9.90112E-005	5.99601E-002	9.83990E-001	3.57910E+000	9	...........
	92	1.24	9.87504E-001	1.01005E-004	0.00000E+000	9.97432E-005	5.99601E-002	9.87886E-001	3.57910E+000	9	...........
	93	1.25333	9.91277E-001	1.00424E-004	0.00000E+000	9.95479E-005	5.99601E-002	9.91660E-001	3.57910E+000	9	...........
	94	1.26667	9.94988E-001	1.01387E-004	0.00000E+000	1.00879E-004	5.99601E-002	9.95371E-001	3.57910E+000	9	...........
	95	1.28	9.98634E-001	1.01483E-004	0.00000E+000	1.01344E-004	5.99601E-002	9.99010E-001	3.57910E+000	9	...........
STARTTIMEOFFSET	QUANT	478.7282	Start Time Offset (s)
