EXPLAIN
TAG	PWR800_CHARGE
TITLE	LABEL	PWR Cyclic Charge Discharge (Cell) - Charge Step	Test &Identifier
DATE	LABEL	13-7-2017	Date
TIME	LABEL	15:53:37	Time
NOTES	NOTES	2	&Notes...
	supercap test cell
	6M KOH
PSTAT	PSTAT	IFC5000-01520	Potentiostat
CAPACITY	QUANT	1.00000E-003	Capacity (A-hr)
CELLTYPE	SELECTOR	1	&Cell Type
WORKINGCONNECTION	SELECTOR	0	&Working Lead
MAXCHARGETIME	VARIABLEANDUNITS	1.00000E+002	s	1.00000E+002	second(s)	Max &Charge Time
CHARGECURRENT	QUANT	1.00000E-004	&Charge Current (A) 
VOLTAGEFINISH	TWOPARAM	F	1.00000E-003	3.60000E+003	&Voltage Finish	 I (A) < 	Max Time(s)
SAMPLETIME	QUANT	1.00000E-002	Sa&mple Period (s)
CHARGESTOPAT1	MULTIPARAM	4	1.00000E+000	Charge Stop At &1	Voltage > Limit	V
CHARGESTOPAT2	MULTIPARAM	0	0.00000E+000	Charge Stop At &2	None	N/A
AESBHCSELECTOR	TOGGLE	F	Save Both Half Cells
IRCOMP	TOGGLE	F	IR &Measure
EOC	QUANT	0	Open Circuit (V)
SEQUENCER	TOGGLE	TRUE	Run as Sequence
PSTATMODEL	IQUANT	53	Pstat Model
PSTATSECTION	LABEL	IFC5000-01520	Pstat Section
PSTATSERIALNO	LABEL	01520	Pstat Serial Number
CTRLMODE	IQUANT	0	Control Mode
ELECTROMETER	IQUANT	1	RE=0 or CS=1
IESTAB	IQUANT	0	I/E Stability
CASPEED	IQUANT	4	Control Amp Speed
CONVENTION	IQUANT	1	Current Convention
ICHRANGE	IQUANT	2	Ich Range
ICHRANGEMODE	TOGGLE	T	Ich Auto Range
ICHOFFSETENABLE	TOGGLE	F	Ich Offset Enable
ICHOFFSET	QUANT	0	Ich Offset (V)
ICHFILTER	IQUANT	1	Ich Filter
VCHRANGE	IQUANT	2	Vch Range
VCHRANGEMODE	TOGGLE	T	Vch Auto Range
VCHOFFSETENABLE	TOGGLE	F	Vch Offset Enable
VCHOFFSET	QUANT	0	Vch Offset (V)
VCHFILTER	IQUANT	1	Vch Filter
IERANGELOWERLIMIT	IQUANT	9	I/E Range Lower Limit
IERANGEMODE	TOGGLE	F	I/E AutoRange
IERANGE	IQUANT	9	I/E Range
ACHSELECT	IQUANT	1	Ach Select
ACHRANGE	IQUANT	2	Ach Range
ACHOFFSETENABLE	TOGGLE	F	Ach Offset Enable
ACHOFFSET	QUANT	0	Ach Offset (V)
ACHFILTER	IQUANT	1	Ach Filter
CABLEID	IQUANT	14	Cable ID
DCCALDATE	LABEL	5-7-2017	DC Calibration Date
ACCALDATE	LABEL	12/3/2015	AC Calibration Date
FRAMEWORKVERSION	QUANT	7.01	Framework Version
INSTRUMENTVERSION	LABEL	4.00	Instrument Version
CURVE	TABLE	89
	Pt	T	Vf	Im	Vu	Pwr	Sig	Ach	Temp	IERange	Over
	#	s	V	A	V	W	V	V	deg C	#	bits
	0	0.013333	1.33255E-001	1.01046E-004	0.00000E+000	1.34648E-005	5.99601E-002	1.33299E-001	3.58000E+000	9	...........
	1	0.026667	1.48567E-001	1.00584E-004	0.00000E+000	1.49436E-005	5.99601E-002	1.48586E-001	3.58000E+000	9	...........
	2	0.04	1.63442E-001	1.01057E-004	0.00000E+000	1.65171E-005	5.99601E-002	1.63465E-001	3.58000E+000	9	...........
	3	0.053333	1.78052E-001	1.00797E-004	0.00000E+000	1.79471E-005	5.99601E-002	1.78081E-001	3.58000E+000	9	...........
	4	0.066667	1.92474E-001	1.01774E-004	0.00000E+000	1.95889E-005	5.99601E-002	1.92506E-001	3.58000E+000	9	...........
	5	0.08	2.06753E-001	1.01077E-004	0.00000E+000	2.08980E-005	5.99601E-002	2.06787E-001	3.58000E+000	9	...........
	6	0.093333	2.20931E-001	1.00331E-004	0.00000E+000	2.21663E-005	5.99601E-002	2.20968E-001	3.58000E+000	9	...........
	7	0.106667	2.35047E-001	1.01161E-004	0.00000E+000	2.37775E-005	5.99601E-002	2.35086E-001	3.58000E+000	9	...........
	8	0.12	2.49114E-001	1.01696E-004	0.00000E+000	2.53339E-005	5.99601E-002	2.49158E-001	3.58000E+000	9	...........
	9	0.133333	2.63161E-001	1.01624E-004	0.00000E+000	2.67436E-005	5.99601E-002	2.63213E-001	3.58000E+000	9	...........
	10	0.146667	2.77197E-001	1.01339E-004	0.00000E+000	2.80908E-005	5.99601E-002	2.77256E-001	3.58000E+000	9	...........
	11	0.16	2.91242E-001	1.00634E-004	0.00000E+000	2.93090E-005	5.99601E-002	2.91299E-001	3.58000E+000	9	...........
	12	0.173333	3.05304E-001	1.00751E-004	0.00000E+000	3.07597E-005	5.99601E-002	3.05358E-001	3.58000E+000	9	...........
	13	0.186667	3.19390E-001	1.00767E-004	0.00000E+000	3.21839E-005	5.99601E-002	3.19450E-001	3.58000E+000	9	...........
	14	0.2	3.33495E-001	1.00523E-004	0.00000E+000	3.35239E-005	5.99601E-002	3.33561E-001	3.58000E+000	9	...........
	15	0.213333	3.47634E-001	1.00436E-004	0.00000E+000	3.49151E-005	5.99601E-002	3.47704E-001	3.58000E+000	9	...........
	16	0.226667	3.61808E-001	1.00500E-004	0.00000E+000	3.63617E-005	5.99601E-002	3.61872E-001	3.58000E+000	9	...........
	17	0.24	3.75993E-001	1.01376E-004	0.00000E+000	3.81168E-005	5.99601E-002	3.76060E-001	3.58000E+000	9	...........
	18	0.253333	3.90196E-001	1.00763E-004	0.00000E+000	3.93172E-005	5.99601E-002	3.90268E-001	3.58000E+000	9	...........
	19	0.266667	4.04401E-001	1.01626E-004	0.00000E+000	4.10977E-005	5.99601E-002	4.04479E-001	3.58000E+000	9	...........
	20	0.28	4.18589E-001	1.00802E-004	0.00000E+000	4.21947E-005	5.99601E-002	4.18675E-001	3.58000E+000	9	...........
	21	0.293333	4.32737E-001	1.00426E-004	0.00000E+000	4.34580E-005	5.99601E-002	4.32822E-001	3.58000E+000	9	...........
	22	0.306667	4.46834E-001	1.00090E-004	0.00000E+000	4.47234E-005	5.99601E-002	4.46923E-001	3.57986E+000	9	...........
	23	0.32	4.60847E-001	1.00727E-004	0.00000E+000	4.64199E-005	5.99601E-002	4.60941E-001	3.57890E+000	9	...........
	24	0.333333	4.74755E-001	1.01712E-004	0.00000E+000	4.82882E-005	5.99601E-002	4.74854E-001	3.57890E+000	9	...........
	25	0.346667	4.88549E-001	1.01366E-004	0.00000E+000	4.95222E-005	5.99601E-002	4.88651E-001	3.57890E+000	9	...........
	26	0.36	5.02191E-001	1.01082E-004	0.00000E+000	5.07627E-005	5.99601E-002	5.02290E-001	3.57890E+000	9	...........
	27	0.373333	5.15669E-001	1.00490E-004	0.00000E+000	5.18194E-005	5.99601E-002	5.15783E-001	3.57890E+000	9	...........
	28	0.386667	5.28920E-001	1.00920E-004	0.00000E+000	5.33785E-005	5.99601E-002	5.29049E-001	3.57890E+000	9	...........
	29	0.4	5.41703E-001	9.99718E-005	0.00000E+000	5.41550E-005	5.99601E-002	5.41942E-001	3.57890E+000	9	...........
	30	0.413333	5.54593E-001	1.01748E-004	0.00000E+000	5.64288E-005	5.99601E-002	5.54821E-001	3.57890E+000	9	...........
	31	0.426667	5.67286E-001	1.00141E-004	0.00000E+000	5.68084E-005	5.99601E-002	5.67533E-001	3.57890E+000	9	...........
	32	0.44	5.79711E-001	1.00716E-004	0.00000E+000	5.83860E-005	5.99601E-002	5.79935E-001	3.57890E+000	9	...........
	33	0.453333	5.91939E-001	1.00642E-004	0.00000E+000	5.95738E-005	5.99601E-002	5.92192E-001	3.57890E+000	9	...........
	34	0.466667	6.03908E-001	1.01123E-004	0.00000E+000	6.10691E-005	5.99601E-002	6.04177E-001	3.57890E+000	9	...........
	35	0.48	6.15685E-001	1.00873E-004	0.00000E+000	6.21060E-005	5.99601E-002	6.15943E-001	3.57890E+000	9	...........
	36	0.493333	6.27233E-001	1.00087E-004	0.00000E+000	6.27782E-005	5.99601E-002	6.27457E-001	3.57890E+000	9	...........
	37	0.506667	6.38509E-001	1.00249E-004	0.00000E+000	6.40098E-005	5.99601E-002	6.38766E-001	3.57890E+000	9	...........
	38	0.52	6.49579E-001	1.00522E-004	0.00000E+000	6.52969E-005	5.99601E-002	6.49837E-001	3.57890E+000	9	...........
	39	0.533333	6.60428E-001	1.01217E-004	0.00000E+000	6.68464E-005	5.99601E-002	6.60690E-001	3.57890E+000	9	...........
	40	0.546667	6.71063E-001	1.00479E-004	0.00000E+000	6.74279E-005	5.99601E-002	6.71322E-001	3.57890E+000	9	...........
	41	0.56	6.81476E-001	1.01077E-004	0.00000E+000	6.88817E-005	5.99601E-002	6.81734E-001	3.57890E+000	9	...........
	42	0.573333	6.91681E-001	1.01083E-004	0.00000E+000	6.99175E-005	5.99601E-002	6.91943E-001	3.57890E+000	9	...........
	43	0.586667	7.01677E-001	1.00996E-004	0.00000E+000	7.08665E-005	5.99601E-002	7.01946E-001	3.57890E+000	9	...........
	44	0.6	7.11447E-001	1.00774E-004	0.00000E+000	7.16954E-005	5.99601E-002	7.11740E-001	3.57890E+000	9	...........
	45	0.613333	7.21084E-001	1.00706E-004	0.00000E+000	7.26177E-005	5.99601E-002	7.21370E-001	3.57890E+000	9	...........
	46	0.626667	7.30481E-001	1.01069E-004	0.00000E+000	7.38290E-005	5.99601E-002	7.30760E-001	3.57890E+000	9	...........
	47	0.64	7.39726E-001	1.01887E-004	0.00000E+000	7.53683E-005	5.99601E-002	7.39998E-001	3.57890E+000	9	...........
	48	0.653333	7.48749E-001	1.00938E-004	0.00000E+000	7.55770E-005	5.99601E-002	7.49029E-001	3.57890E+000	9	...........
	49	0.666667	7.57606E-001	1.01579E-004	0.00000E+000	7.69572E-005	5.99601E-002	7.57919E-001	3.57890E+000	9	...........
	50	0.68	7.66293E-001	1.01535E-004	0.00000E+000	7.78053E-005	5.99601E-002	7.66587E-001	3.57890E+000	9	...........
	51	0.693333	7.74838E-001	1.01554E-004	0.00000E+000	7.86882E-005	5.99601E-002	7.75102E-001	3.57890E+000	9	...........
	52	0.706667	7.83177E-001	1.00725E-004	0.00000E+000	7.88856E-005	5.99601E-002	7.83461E-001	3.57890E+000	9	...........
	53	0.72	7.91386E-001	1.00947E-004	0.00000E+000	7.98881E-005	5.99601E-002	7.91666E-001	3.57890E+000	9	...........
	54	0.733333	7.99441E-001	1.00850E-004	0.00000E+000	8.06237E-005	5.99601E-002	7.99712E-001	3.57890E+000	9	...........
	55	0.746667	8.07297E-001	1.00834E-004	0.00000E+000	8.14034E-005	5.99601E-002	8.07587E-001	3.57890E+000	9	...........
	56	0.76	8.15036E-001	1.01051E-004	0.00000E+000	8.23604E-005	5.99601E-002	8.15336E-001	3.57890E+000	9	...........
	57	0.773333	8.22664E-001	1.00863E-004	0.00000E+000	8.29761E-005	5.99601E-002	8.22937E-001	3.57890E+000	9	...........
	58	0.786667	8.30085E-001	1.00896E-004	0.00000E+000	8.37522E-005	5.99601E-002	8.30377E-001	3.57890E+000	9	...........
	59	0.8	8.37398E-001	1.00002E-004	0.00000E+000	8.37415E-005	5.99601E-002	8.37713E-001	3.57890E+000	9	...........
	60	0.813333	8.44589E-001	1.00655E-004	0.00000E+000	8.50123E-005	5.99601E-002	8.44907E-001	3.57890E+000	9	...........
	61	0.826667	8.51644E-001	1.00258E-004	0.00000E+000	8.53844E-005	5.99601E-002	8.51937E-001	3.57890E+000	9	...........
	62	0.84	8.58559E-001	1.00873E-004	0.00000E+000	8.66054E-005	5.99601E-002	8.58884E-001	3.57890E+000	9	...........
	63	0.853333	8.65319E-001	1.00023E-004	0.00000E+000	8.65516E-005	5.99601E-002	8.65683E-001	3.57890E+000	9	...........
	64	0.866667	8.72040E-001	1.01726E-004	0.00000E+000	8.87094E-005	5.99601E-002	8.72368E-001	3.57890E+000	9	...........
	65	0.88	8.78579E-001	1.01826E-004	0.00000E+000	8.94625E-005	5.99601E-002	8.78903E-001	3.57890E+000	9	...........
	66	0.893333	8.85015E-001	1.01044E-004	0.00000E+000	8.94253E-005	5.99601E-002	8.85369E-001	3.57890E+000	9	...........
	67	0.906667	8.91333E-001	1.00793E-004	0.00000E+000	8.98400E-005	5.99601E-002	8.91658E-001	3.57890E+000	9	...........
	68	0.92	8.97517E-001	1.00832E-004	0.00000E+000	9.04988E-005	5.99601E-002	8.97879E-001	3.57890E+000	9	...........
	69	0.933333	9.03585E-001	1.00820E-004	0.00000E+000	9.10994E-005	5.99601E-002	9.03970E-001	3.57890E+000	9	...........
	70	0.946667	9.09556E-001	1.00168E-004	0.00000E+000	9.11081E-005	5.99601E-002	9.09919E-001	3.57890E+000	9	...........
	71	0.96	9.15426E-001	1.00853E-004	0.00000E+000	9.23237E-005	5.99601E-002	9.15793E-001	3.57890E+000	9	...........
	72	0.97333	9.21209E-001	1.01170E-004	0.00000E+000	9.31987E-005	5.99601E-002	9.21537E-001	3.57890E+000	9	...........
	73	0.98667	9.26862E-001	1.02449E-004	0.00000E+000	9.49564E-005	5.99601E-002	9.27173E-001	3.57890E+000	9	...........
	74	1	9.32375E-001	1.01118E-004	0.00000E+000	9.42797E-005	5.99601E-002	9.32684E-001	3.57890E+000	9	...........
	75	1.01333	9.37796E-001	1.01018E-004	0.00000E+000	9.47341E-005	5.99601E-002	9.38155E-001	3.57890E+000	9	...........
	76	1.02667	9.43101E-001	1.01174E-004	0.00000E+000	9.54174E-005	5.99601E-002	9.43463E-001	3.57890E+000	9	...........
	77	1.04	9.48369E-001	1.01528E-004	0.00000E+000	9.62864E-005	5.99601E-002	9.48709E-001	3.57890E+000	9	...........
	78	1.05333	9.53479E-001	1.00411E-004	0.00000E+000	9.57402E-005	5.99601E-002	9.53814E-001	3.57890E+000	9	...........
	79	1.06667	9.58471E-001	1.01063E-004	0.00000E+000	9.68656E-005	5.99601E-002	9.58815E-001	3.57890E+000	9	...........
	80	1.08	9.63351E-001	1.00584E-004	0.00000E+000	9.68981E-005	5.99601E-002	9.63726E-001	3.57890E+000	9	...........
	81	1.09333	9.68167E-001	1.00733E-004	0.00000E+000	9.75267E-005	5.99601E-002	9.68519E-001	3.57890E+000	9	...........
	82	1.10667	9.72897E-001	1.00748E-004	0.00000E+000	9.80175E-005	5.99601E-002	9.73226E-001	3.57890E+000	9	...........
	83	1.12	9.77538E-001	1.00852E-004	0.00000E+000	9.85868E-005	5.99601E-002	9.77846E-001	3.57890E+000	9	...........
	84	1.13333	9.82033E-001	1.00754E-004	0.00000E+000	9.89440E-005	5.99601E-002	9.82346E-001	3.57890E+000	9	...........
	85	1.14667	9.86426E-001	1.00907E-004	0.00000E+000	9.95377E-005	5.99601E-002	9.86779E-001	3.57890E+000	9	...........
	86	1.16	9.90751E-001	1.01211E-004	0.00000E+000	1.00275E-004	5.99601E-002	9.91089E-001	3.57890E+000	9	...........
	87	1.17333	9.94963E-001	1.01738E-004	0.00000E+000	1.01225E-004	5.99601E-002	9.95320E-001	3.57890E+000	9	...........
	88	1.185	9.98871E-001	1.00638E-004	0.00000E+000	1.00525E-004	5.99601E-002	9.99252E-001	3.57890E+000	9	...........
STARTTIMEOFFSET	QUANT	2329.781	Start Time Offset (s)
