EXPLAIN
TAG	PWR800_CHARGE
TITLE	LABEL	PWR Cyclic Charge Discharge (Cell) - Charge Step	Test &Identifier
DATE	LABEL	13-7-2017	Date
TIME	LABEL	15:17:47	Time
NOTES	NOTES	2	&Notes...
	supercap test cell
	6M KOH
PSTAT	PSTAT	IFC5000-01520	Potentiostat
CAPACITY	QUANT	1.00000E-003	Capacity (A-hr)
CELLTYPE	SELECTOR	1	&Cell Type
WORKINGCONNECTION	SELECTOR	0	&Working Lead
MAXCHARGETIME	VARIABLEANDUNITS	1.00000E+002	s	1.00000E+002	second(s)	Max &Charge Time
CHARGECURRENT	QUANT	1.00000E-004	&Charge Current (A) 
VOLTAGEFINISH	TWOPARAM	F	1.00000E-003	3.60000E+003	&Voltage Finish	 I (A) < 	Max Time(s)
SAMPLETIME	QUANT	1.00000E-002	Sa&mple Period (s)
CHARGESTOPAT1	MULTIPARAM	4	1.00000E+000	Charge Stop At &1	Voltage > Limit	V
CHARGESTOPAT2	MULTIPARAM	0	0.00000E+000	Charge Stop At &2	None	N/A
AESBHCSELECTOR	TOGGLE	F	Save Both Half Cells
IRCOMP	TOGGLE	F	IR &Measure
EOC	QUANT	0	Open Circuit (V)
SEQUENCER	TOGGLE	TRUE	Run as Sequence
PSTATMODEL	IQUANT	53	Pstat Model
PSTATSECTION	LABEL	IFC5000-01520	Pstat Section
PSTATSERIALNO	LABEL	01520	Pstat Serial Number
CTRLMODE	IQUANT	0	Control Mode
ELECTROMETER	IQUANT	1	RE=0 or CS=1
IESTAB	IQUANT	0	I/E Stability
CASPEED	IQUANT	4	Control Amp Speed
CONVENTION	IQUANT	1	Current Convention
ICHRANGE	IQUANT	2	Ich Range
ICHRANGEMODE	TOGGLE	T	Ich Auto Range
ICHOFFSETENABLE	TOGGLE	F	Ich Offset Enable
ICHOFFSET	QUANT	0	Ich Offset (V)
ICHFILTER	IQUANT	1	Ich Filter
VCHRANGE	IQUANT	2	Vch Range
VCHRANGEMODE	TOGGLE	T	Vch Auto Range
VCHOFFSETENABLE	TOGGLE	F	Vch Offset Enable
VCHOFFSET	QUANT	0	Vch Offset (V)
VCHFILTER	IQUANT	1	Vch Filter
IERANGELOWERLIMIT	IQUANT	9	I/E Range Lower Limit
IERANGEMODE	TOGGLE	F	I/E AutoRange
IERANGE	IQUANT	9	I/E Range
ACHSELECT	IQUANT	1	Ach Select
ACHRANGE	IQUANT	2	Ach Range
ACHOFFSETENABLE	TOGGLE	F	Ach Offset Enable
ACHOFFSET	QUANT	0	Ach Offset (V)
ACHFILTER	IQUANT	1	Ach Filter
CABLEID	IQUANT	14	Cable ID
DCCALDATE	LABEL	5-7-2017	DC Calibration Date
ACCALDATE	LABEL	12/3/2015	AC Calibration Date
FRAMEWORKVERSION	QUANT	7.01	Framework Version
INSTRUMENTVERSION	LABEL	4.00	Instrument Version
CURVE	TABLE	95
	Pt	T	Vf	Im	Vu	Pwr	Sig	Ach	Temp	IERange	Over
	#	s	V	A	V	W	V	V	deg C	#	bits
	0	0.013333	1.32759E-001	1.01275E-004	0.00000E+000	1.34452E-005	5.99601E-002	1.32799E-001	3.57860E+000	9	...........
	1	0.026667	1.47971E-001	1.01067E-004	0.00000E+000	1.49549E-005	5.99601E-002	1.47995E-001	3.57860E+000	9	...........
	2	0.04	1.62752E-001	1.00153E-004	0.00000E+000	1.63001E-005	5.99601E-002	1.62773E-001	3.57860E+000	9	...........
	3	0.053333	1.77258E-001	1.00683E-004	0.00000E+000	1.78470E-005	5.99601E-002	1.77286E-001	3.57860E+000	9	...........
	4	0.066667	1.91572E-001	1.00956E-004	0.00000E+000	1.93404E-005	5.99601E-002	1.91601E-001	3.57860E+000	9	...........
	5	0.08	2.05737E-001	1.00894E-004	0.00000E+000	2.07576E-005	5.99601E-002	2.05779E-001	3.57860E+000	9	...........
	6	0.093333	2.19805E-001	1.00343E-004	0.00000E+000	2.20559E-005	5.99601E-002	2.19838E-001	3.57860E+000	9	...........
	7	0.106667	2.33794E-001	1.00323E-004	0.00000E+000	2.34549E-005	5.99601E-002	2.33829E-001	3.57860E+000	9	...........
	8	0.12	2.47734E-001	1.00712E-004	0.00000E+000	2.49496E-005	5.99601E-002	2.47775E-001	3.57860E+000	9	...........
	9	0.133333	2.61640E-001	1.01091E-004	0.00000E+000	2.64493E-005	5.99601E-002	2.61688E-001	3.57860E+000	9	...........
	10	0.146667	2.75532E-001	1.01427E-004	0.00000E+000	2.79464E-005	5.99601E-002	2.75582E-001	3.57860E+000	9	...........
	11	0.16	2.89412E-001	1.00348E-004	0.00000E+000	2.90419E-005	5.99601E-002	2.89463E-001	3.57860E+000	9	...........
	12	0.173333	3.03302E-001	1.00420E-004	0.00000E+000	3.04575E-005	5.99601E-002	3.03355E-001	3.57860E+000	9	...........
	13	0.186667	3.17193E-001	1.00374E-004	0.00000E+000	3.18379E-005	5.99601E-002	3.17247E-001	3.57860E+000	9	...........
	14	0.2	3.31092E-001	1.01455E-004	0.00000E+000	3.35911E-005	5.99601E-002	3.31150E-001	3.57860E+000	9	...........
	15	0.213333	3.45005E-001	1.00436E-004	0.00000E+000	3.46511E-005	5.99601E-002	3.45063E-001	3.57860E+000	9	...........
	16	0.226667	3.58917E-001	1.00658E-004	0.00000E+000	3.61281E-005	5.99601E-002	3.58982E-001	3.57860E+000	9	...........
	17	0.24	3.72831E-001	1.00657E-004	0.00000E+000	3.75282E-005	5.99601E-002	3.72901E-001	3.57860E+000	9	...........
	18	0.253333	3.86722E-001	1.01502E-004	0.00000E+000	3.92532E-005	5.99601E-002	3.86798E-001	3.57860E+000	9	...........
	19	0.266667	4.00598E-001	1.01540E-004	0.00000E+000	4.06767E-005	5.99601E-002	4.00673E-001	3.57860E+000	9	...........
	20	0.28	4.14421E-001	1.00628E-004	0.00000E+000	4.17024E-005	5.99601E-002	4.14508E-001	3.57860E+000	9	...........
	21	0.293333	4.28186E-001	1.00993E-004	0.00000E+000	4.32438E-005	5.99601E-002	4.28276E-001	3.57860E+000	9	...........
	22	0.306667	4.41876E-001	1.00944E-004	0.00000E+000	4.46047E-005	5.99601E-002	4.41974E-001	3.57860E+000	9	...........
	23	0.32	4.55467E-001	1.01840E-004	0.00000E+000	4.63847E-005	5.99601E-002	4.55559E-001	3.57860E+000	9	...........
	24	0.333333	4.68929E-001	1.00665E-004	0.00000E+000	4.72046E-005	5.99601E-002	4.69028E-001	3.57860E+000	9	...........
	25	0.346667	4.82250E-001	1.00559E-004	0.00000E+000	4.84948E-005	5.99601E-002	4.82355E-001	3.57860E+000	9	...........
	26	0.36	4.95414E-001	1.00366E-004	0.00000E+000	4.97225E-005	5.99601E-002	4.95519E-001	3.57860E+000	9	...........
	27	0.373333	5.08406E-001	1.01486E-004	0.00000E+000	5.15959E-005	5.99601E-002	5.08515E-001	3.57860E+000	9	...........
	28	0.386667	5.21208E-001	1.00598E-004	0.00000E+000	5.24325E-005	5.99601E-002	5.21322E-001	3.57860E+000	9	...........
	29	0.4	5.33681E-001	1.00463E-004	0.00000E+000	5.36150E-005	5.99601E-002	5.33808E-001	3.57860E+000	9	...........
	30	0.413333	5.45858E-001	1.01358E-004	0.00000E+000	5.53268E-005	5.99601E-002	5.46082E-001	3.57860E+000	9	...........
	31	0.426667	5.58016E-001	1.00979E-004	0.00000E+000	5.63481E-005	5.99601E-002	5.58280E-001	3.57860E+000	9	...........
	32	0.44	5.70013E-001	1.01686E-004	0.00000E+000	5.79622E-005	5.99601E-002	5.70233E-001	3.57860E+000	9	...........
	33	0.453333	5.81720E-001	1.01096E-004	0.00000E+000	5.88096E-005	5.99601E-002	5.81990E-001	3.57860E+000	9	...........
	34	0.466667	5.93238E-001	1.00338E-004	0.00000E+000	5.95240E-005	5.99601E-002	5.93508E-001	3.57860E+000	9	...........
	35	0.48	6.04516E-001	1.00762E-004	0.00000E+000	6.09120E-005	5.99601E-002	6.04817E-001	3.57860E+000	9	...........
	36	0.493333	6.15603E-001	1.00853E-004	0.00000E+000	6.20855E-005	5.99601E-002	6.15899E-001	3.57860E+000	9	...........
	37	0.506667	6.26483E-001	1.00006E-004	0.00000E+000	6.26522E-005	5.99601E-002	6.26728E-001	3.57860E+000	9	...........
	38	0.52	6.37113E-001	1.01742E-004	0.00000E+000	6.48211E-005	5.99601E-002	6.37406E-001	3.57860E+000	9	...........
	39	0.533333	6.47543E-001	9.96603E-005	0.00000E+000	6.45343E-005	5.99601E-002	6.47828E-001	3.57860E+000	9	...........
	40	0.546667	6.57731E-001	1.01619E-004	0.00000E+000	6.68380E-005	5.99601E-002	6.58032E-001	3.57860E+000	9	...........
	41	0.56	6.67767E-001	1.01685E-004	0.00000E+000	6.79017E-005	5.99601E-002	6.68037E-001	3.57860E+000	9	...........
	42	0.573333	6.77553E-001	1.00573E-004	0.00000E+000	6.81435E-005	5.99601E-002	6.77864E-001	3.57860E+000	9	...........
	43	0.586667	6.87163E-001	1.00540E-004	0.00000E+000	6.90871E-005	5.99601E-002	6.87448E-001	3.57860E+000	9	...........
	44	0.6	6.96600E-001	1.01781E-004	0.00000E+000	7.09003E-005	5.99601E-002	6.96879E-001	3.57860E+000	9	...........
	45	0.613333	7.05811E-001	1.01082E-004	0.00000E+000	7.13451E-005	5.99601E-002	7.06111E-001	3.57860E+000	9	...........
	46	0.626667	7.14876E-001	1.00351E-004	0.00000E+000	7.17385E-005	5.99601E-002	7.15165E-001	3.57860E+000	9	...........
	47	0.64	7.23778E-001	1.00683E-004	0.00000E+000	7.28724E-005	5.99601E-002	7.24065E-001	3.57860E+000	9	...........
	48	0.653333	7.32472E-001	1.00551E-004	0.00000E+000	7.36509E-005	5.99601E-002	7.32776E-001	3.57860E+000	9	...........
	49	0.666667	7.41024E-001	1.01900E-004	0.00000E+000	7.55106E-005	5.99601E-002	7.41294E-001	3.57860E+000	9	...........
	50	0.68	7.49411E-001	1.01553E-004	0.00000E+000	7.61052E-005	5.99601E-002	7.49673E-001	3.57860E+000	9	...........
	51	0.693333	7.57633E-001	1.00853E-004	0.00000E+000	7.64097E-005	5.99601E-002	7.57897E-001	3.57860E+000	9	...........
	52	0.706667	7.65686E-001	1.01041E-004	0.00000E+000	7.73655E-005	5.99601E-002	7.65980E-001	3.57860E+000	9	...........
	53	0.72	7.73625E-001	1.00693E-004	0.00000E+000	7.78984E-005	5.99601E-002	7.73912E-001	3.57860E+000	9	...........
	54	0.733333	7.81386E-001	1.00150E-004	0.00000E+000	7.82558E-005	5.99601E-002	7.81679E-001	3.57860E+000	9	...........
	55	0.746667	7.89022E-001	1.01566E-004	0.00000E+000	8.01377E-005	5.99601E-002	7.89297E-001	3.57860E+000	9	...........
	56	0.76	7.96548E-001	1.01024E-004	0.00000E+000	8.04706E-005	5.99601E-002	7.96810E-001	3.57860E+000	9	...........
	57	0.773333	8.03860E-001	1.00370E-004	0.00000E+000	8.06832E-005	5.99601E-002	8.04161E-001	3.57860E+000	9	...........
	58	0.786667	8.11065E-001	1.01828E-004	0.00000E+000	8.25895E-005	5.99601E-002	8.11377E-001	3.57860E+000	9	...........
	59	0.8	8.18165E-001	1.01864E-004	0.00000E+000	8.33415E-005	5.99601E-002	8.18503E-001	3.57860E+000	9	...........
	60	0.813333	8.25136E-001	1.00541E-004	0.00000E+000	8.29598E-005	5.99601E-002	8.25473E-001	3.57860E+000	9	...........
	61	0.826667	8.31973E-001	1.00783E-004	0.00000E+000	8.38491E-005	5.99601E-002	8.32298E-001	3.57899E+000	9	...........
	62	0.84	8.38694E-001	1.00737E-004	0.00000E+000	8.44871E-005	5.99601E-002	8.39033E-001	3.58010E+000	9	...........
	63	0.853333	8.45336E-001	1.01137E-004	0.00000E+000	8.54945E-005	5.99601E-002	8.45677E-001	3.58010E+000	9	...........
	64	0.866667	8.51830E-001	1.00929E-004	0.00000E+000	8.59746E-005	5.99601E-002	8.52187E-001	3.58010E+000	9	...........
	65	0.88	8.58207E-001	1.00931E-004	0.00000E+000	8.66200E-005	5.99601E-002	8.58569E-001	3.58010E+000	9	...........
	66	0.893333	8.64463E-001	9.99364E-005	0.00000E+000	8.63913E-005	5.99601E-002	8.64819E-001	3.58010E+000	9	...........
	67	0.906667	8.70668E-001	1.01622E-004	0.00000E+000	8.84792E-005	5.99601E-002	8.70993E-001	3.58010E+000	9	...........
	68	0.92	8.76723E-001	1.00867E-004	0.00000E+000	8.84322E-005	5.99601E-002	8.77074E-001	3.58010E+000	9	...........
	69	0.933333	8.82691E-001	1.01486E-004	0.00000E+000	8.95805E-005	5.99601E-002	8.83038E-001	3.58010E+000	9	...........
	70	0.946667	8.88541E-001	1.00720E-004	0.00000E+000	8.94937E-005	5.99601E-002	8.88904E-001	3.58010E+000	9	...........
	71	0.96	8.94298E-001	1.01682E-004	0.00000E+000	9.09336E-005	5.99601E-002	8.94668E-001	3.58010E+000	9	...........
	72	0.97333	8.99948E-001	1.00675E-004	0.00000E+000	9.06023E-005	5.99601E-002	9.00352E-001	3.58010E+000	9	...........
	73	0.98667	9.05520E-001	1.00927E-004	0.00000E+000	9.13916E-005	5.99601E-002	9.05912E-001	3.58010E+000	9	...........
	74	1	9.10988E-001	1.01154E-004	0.00000E+000	9.21504E-005	5.99601E-002	9.11359E-001	3.58010E+000	9	...........
	75	1.01333	9.16339E-001	1.00635E-004	0.00000E+000	9.22162E-005	5.99601E-002	9.16742E-001	3.58010E+000	9	...........
	76	1.02667	9.21657E-001	1.00685E-004	0.00000E+000	9.27975E-005	5.99601E-002	9.22027E-001	3.58010E+000	9	...........
	77	1.04	9.26858E-001	1.00941E-004	0.00000E+000	9.35577E-005	5.99601E-002	9.27195E-001	3.58010E+000	9	...........
	78	1.05333	9.31928E-001	1.00903E-004	0.00000E+000	9.40346E-005	5.99601E-002	9.32263E-001	3.58010E+000	9	...........
	79	1.06667	9.36915E-001	1.01330E-004	0.00000E+000	9.49380E-005	5.99601E-002	9.37252E-001	3.58010E+000	9	...........
	80	1.08	9.41772E-001	1.00846E-004	0.00000E+000	9.49739E-005	5.99601E-002	9.42136E-001	3.58010E+000	9	...........
	81	1.09333	9.46628E-001	1.01063E-004	0.00000E+000	9.56687E-005	5.99601E-002	9.46973E-001	3.58010E+000	9	...........
	82	1.10667	9.51369E-001	1.01609E-004	0.00000E+000	9.66673E-005	5.99601E-002	9.51693E-001	3.58010E+000	9	...........
	83	1.12	9.55980E-001	1.01186E-004	0.00000E+000	9.67314E-005	5.99601E-002	9.56326E-001	3.58010E+000	9	...........
	84	1.13333	9.60525E-001	1.00632E-004	0.00000E+000	9.66599E-005	5.99601E-002	9.60890E-001	3.58010E+000	9	...........
	85	1.14667	9.64977E-001	1.01337E-004	0.00000E+000	9.77875E-005	5.99601E-002	9.65344E-001	3.58010E+000	9	...........
	86	1.16	9.69327E-001	1.01138E-004	0.00000E+000	9.80355E-005	5.99601E-002	9.69721E-001	3.58010E+000	9	...........
	87	1.17333	9.73626E-001	1.01399E-004	0.00000E+000	9.87249E-005	5.99601E-002	9.74034E-001	3.58010E+000	9	...........
	88	1.18667	9.77825E-001	1.00698E-004	0.00000E+000	9.84650E-005	5.99601E-002	9.78213E-001	3.58010E+000	9	...........
	89	1.2	9.81928E-001	1.00946E-004	0.00000E+000	9.91217E-005	5.99601E-002	9.82313E-001	3.58010E+000	9	...........
	90	1.21333	9.85951E-001	1.01462E-004	0.00000E+000	1.00036E-004	5.99601E-002	9.86369E-001	3.58010E+000	9	...........
	91	1.22667	9.89902E-001	1.00906E-004	0.00000E+000	9.98874E-005	5.99601E-002	9.90316E-001	3.58010E+000	9	...........
	92	1.24	9.93749E-001	1.01230E-004	0.00000E+000	1.00598E-004	5.99601E-002	9.94177E-001	3.58010E+000	9	...........
	93	1.25333	9.97561E-001	1.01797E-004	0.00000E+000	1.01549E-004	5.99601E-002	9.97979E-001	3.58010E+000	9	...........
	94	1.25667	9.99921E-001	1.01048E-004	0.00000E+000	1.01040E-004	5.99601E-002	1.00033E+000	3.58010E+000	9	...........
STARTTIMEOFFSET	QUANT	713.1327	Start Time Offset (s)
