EXPLAIN
TAG	PWR800_CHARGE
TITLE	LABEL	PWR Cyclic Charge Discharge (Cell) - Charge Step	Test &Identifier
DATE	LABEL	13-7-2017	Date
TIME	LABEL	15:12:44	Time
NOTES	NOTES	2	&Notes...
	supercap test cell
	6M KOH
PSTAT	PSTAT	IFC5000-01520	Potentiostat
CAPACITY	QUANT	1.00000E-003	Capacity (A-hr)
CELLTYPE	SELECTOR	1	&Cell Type
WORKINGCONNECTION	SELECTOR	0	&Working Lead
MAXCHARGETIME	VARIABLEANDUNITS	1.00000E+002	s	1.00000E+002	second(s)	Max &Charge Time
CHARGECURRENT	QUANT	1.00000E-004	&Charge Current (A) 
VOLTAGEFINISH	TWOPARAM	F	1.00000E-003	3.60000E+003	&Voltage Finish	 I (A) < 	Max Time(s)
SAMPLETIME	QUANT	1.00000E-002	Sa&mple Period (s)
CHARGESTOPAT1	MULTIPARAM	4	1.00000E+000	Charge Stop At &1	Voltage > Limit	V
CHARGESTOPAT2	MULTIPARAM	0	0.00000E+000	Charge Stop At &2	None	N/A
AESBHCSELECTOR	TOGGLE	F	Save Both Half Cells
IRCOMP	TOGGLE	F	IR &Measure
EOC	QUANT	0	Open Circuit (V)
SEQUENCER	TOGGLE	TRUE	Run as Sequence
PSTATMODEL	IQUANT	53	Pstat Model
PSTATSECTION	LABEL	IFC5000-01520	Pstat Section
PSTATSERIALNO	LABEL	01520	Pstat Serial Number
CTRLMODE	IQUANT	0	Control Mode
ELECTROMETER	IQUANT	1	RE=0 or CS=1
IESTAB	IQUANT	0	I/E Stability
CASPEED	IQUANT	4	Control Amp Speed
CONVENTION	IQUANT	1	Current Convention
ICHRANGE	IQUANT	2	Ich Range
ICHRANGEMODE	TOGGLE	T	Ich Auto Range
ICHOFFSETENABLE	TOGGLE	F	Ich Offset Enable
ICHOFFSET	QUANT	0	Ich Offset (V)
ICHFILTER	IQUANT	1	Ich Filter
VCHRANGE	IQUANT	2	Vch Range
VCHRANGEMODE	TOGGLE	T	Vch Auto Range
VCHOFFSETENABLE	TOGGLE	F	Vch Offset Enable
VCHOFFSET	QUANT	0	Vch Offset (V)
VCHFILTER	IQUANT	1	Vch Filter
IERANGELOWERLIMIT	IQUANT	9	I/E Range Lower Limit
IERANGEMODE	TOGGLE	F	I/E AutoRange
IERANGE	IQUANT	9	I/E Range
ACHSELECT	IQUANT	1	Ach Select
ACHRANGE	IQUANT	2	Ach Range
ACHOFFSETENABLE	TOGGLE	F	Ach Offset Enable
ACHOFFSET	QUANT	0	Ach Offset (V)
ACHFILTER	IQUANT	1	Ach Filter
CABLEID	IQUANT	14	Cable ID
DCCALDATE	LABEL	5-7-2017	DC Calibration Date
ACCALDATE	LABEL	12/3/2015	AC Calibration Date
FRAMEWORKVERSION	QUANT	7.01	Framework Version
INSTRUMENTVERSION	LABEL	4.00	Instrument Version
CURVE	TABLE	96
	Pt	T	Vf	Im	Vu	Pwr	Sig	Ach	Temp	IERange	Over
	#	s	V	A	V	W	V	V	deg C	#	bits
	0	0.013333	1.34479E-001	1.00562E-004	0.00000E+000	1.35234E-005	5.99601E-002	1.34513E-001	3.57900E+000	9	...........
	1	0.026667	1.49688E-001	1.00908E-004	0.00000E+000	1.51048E-005	5.99601E-002	1.49714E-001	3.57900E+000	9	...........
	2	0.04	1.64463E-001	1.00357E-004	0.00000E+000	1.65051E-005	5.99601E-002	1.64490E-001	3.57900E+000	9	...........
	3	0.053333	1.78973E-001	9.99166E-005	0.00000E+000	1.78823E-005	5.99601E-002	1.79003E-001	3.57900E+000	9	...........
	4	0.066667	1.93289E-001	1.00294E-004	0.00000E+000	1.93857E-005	5.99601E-002	1.93320E-001	3.57900E+000	9	...........
	5	0.08	2.07463E-001	9.99812E-005	0.00000E+000	2.07424E-005	5.99601E-002	2.07494E-001	3.57900E+000	9	...........
	6	0.093333	2.21532E-001	1.00980E-004	0.00000E+000	2.23704E-005	5.99601E-002	2.21567E-001	3.57900E+000	9	...........
	7	0.106667	2.35524E-001	1.00575E-004	0.00000E+000	2.36879E-005	5.99601E-002	2.35563E-001	3.57900E+000	9	...........
	8	0.12	2.49460E-001	1.00934E-004	0.00000E+000	2.51791E-005	5.99601E-002	2.49510E-001	3.57900E+000	9	...........
	9	0.133333	2.63362E-001	1.00803E-004	0.00000E+000	2.65477E-005	5.99601E-002	2.63413E-001	3.57900E+000	9	...........
	10	0.146667	2.77241E-001	1.01002E-004	0.00000E+000	2.80019E-005	5.99601E-002	2.77294E-001	3.57900E+000	9	...........
	11	0.16	2.91113E-001	1.00354E-004	0.00000E+000	2.92144E-005	5.99601E-002	2.91167E-001	3.57900E+000	9	...........
	12	0.173333	3.04980E-001	1.00689E-004	0.00000E+000	3.07080E-005	5.99601E-002	3.05040E-001	3.57900E+000	9	...........
	13	0.186667	3.18852E-001	1.01294E-004	0.00000E+000	3.22978E-005	5.99601E-002	3.18910E-001	3.57900E+000	9	...........
	14	0.2	3.32713E-001	1.00016E-004	0.00000E+000	3.32764E-005	5.99601E-002	3.32778E-001	3.57900E+000	9	...........
	15	0.213333	3.46581E-001	1.00407E-004	0.00000E+000	3.47992E-005	5.99601E-002	3.46650E-001	3.57900E+000	9	...........
	16	0.226667	3.60445E-001	1.00741E-004	0.00000E+000	3.63115E-005	5.99601E-002	3.60513E-001	3.57900E+000	9	...........
	17	0.24	3.74299E-001	1.00695E-004	0.00000E+000	3.76900E-005	5.99601E-002	3.74367E-001	3.57900E+000	9	...........
	18	0.253333	3.88118E-001	1.00104E-004	0.00000E+000	3.88522E-005	5.99601E-002	3.88190E-001	3.57900E+000	9	...........
	19	0.266667	4.01898E-001	1.00854E-004	0.00000E+000	4.05332E-005	5.99601E-002	4.01977E-001	3.57900E+000	9	...........
	20	0.28	4.15626E-001	1.01860E-004	0.00000E+000	4.23356E-005	5.99601E-002	4.15709E-001	3.57900E+000	9	...........
	21	0.293333	4.29278E-001	1.00974E-004	0.00000E+000	4.33459E-005	5.99601E-002	4.29368E-001	3.57900E+000	9	...........
	22	0.306667	4.42848E-001	1.00377E-004	0.00000E+000	4.44518E-005	5.99601E-002	4.42939E-001	3.57900E+000	9	...........
	23	0.32	4.56302E-001	1.00872E-004	0.00000E+000	4.60281E-005	5.99601E-002	4.56394E-001	3.57900E+000	9	...........
	24	0.333333	4.69628E-001	1.00675E-004	0.00000E+000	4.72798E-005	5.99601E-002	4.69721E-001	3.57900E+000	9	...........
	25	0.346667	4.82798E-001	1.00701E-004	0.00000E+000	4.86183E-005	5.99601E-002	4.82897E-001	3.57900E+000	9	...........
	26	0.36	4.95801E-001	1.01039E-004	0.00000E+000	5.00951E-005	5.99601E-002	4.95905E-001	3.57900E+000	9	...........
	27	0.373333	5.08620E-001	9.98124E-005	0.00000E+000	5.07666E-005	5.99601E-002	5.08731E-001	3.57900E+000	9	...........
	28	0.386667	5.21250E-001	1.00341E-004	0.00000E+000	5.23025E-005	5.99601E-002	5.21369E-001	3.57900E+000	9	...........
	29	0.4	5.33546E-001	1.01517E-004	0.00000E+000	5.41639E-005	5.99601E-002	5.33668E-001	3.57900E+000	9	...........
	30	0.413333	5.45546E-001	1.01068E-004	0.00000E+000	5.51371E-005	5.99601E-002	5.45782E-001	3.57900E+000	9	...........
	31	0.426667	5.57516E-001	1.00356E-004	0.00000E+000	5.59502E-005	5.99601E-002	5.57793E-001	3.57900E+000	9	...........
	32	0.44	5.69347E-001	9.97603E-005	0.00000E+000	5.67982E-005	5.99601E-002	5.69598E-001	3.57900E+000	9	...........
	33	0.453333	5.80877E-001	1.01064E-004	0.00000E+000	5.87056E-005	5.99601E-002	5.81143E-001	3.57900E+000	9	...........
	34	0.466667	5.92233E-001	1.00671E-004	0.00000E+000	5.96206E-005	5.99601E-002	5.92511E-001	3.57900E+000	9	...........
	35	0.48	6.03316E-001	1.00353E-004	0.00000E+000	6.05446E-005	5.99601E-002	6.03621E-001	3.57900E+000	9	...........
	36	0.493333	6.14240E-001	1.00792E-004	0.00000E+000	6.19103E-005	5.99601E-002	6.14512E-001	3.57900E+000	9	...........
	37	0.506667	6.24951E-001	1.02241E-004	0.00000E+000	6.38956E-005	5.99601E-002	6.25191E-001	3.57900E+000	9	...........
	38	0.52	6.35395E-001	1.01240E-004	0.00000E+000	6.43272E-005	5.99601E-002	6.35682E-001	3.57900E+000	9	...........
	39	0.533333	6.45670E-001	1.00913E-004	0.00000E+000	6.51563E-005	5.99601E-002	6.45943E-001	3.57900E+000	9	...........
	40	0.546667	6.55721E-001	9.92800E-005	0.00000E+000	6.51000E-005	5.99601E-002	6.55990E-001	3.57900E+000	9	...........
	41	0.56	6.65565E-001	1.00954E-004	0.00000E+000	6.71916E-005	5.99601E-002	6.65837E-001	3.57900E+000	9	...........
	42	0.573333	6.75240E-001	1.01422E-004	0.00000E+000	6.84842E-005	5.99601E-002	6.75502E-001	3.57982E+000	9	...........
	43	0.586667	6.84684E-001	1.01035E-004	0.00000E+000	6.91768E-005	5.99601E-002	6.84972E-001	3.58010E+000	9	...........
	44	0.6	6.93979E-001	1.00314E-004	0.00000E+000	6.96155E-005	5.99601E-002	6.94239E-001	3.58010E+000	9	...........
	45	0.613333	7.03075E-001	1.00442E-004	0.00000E+000	7.06180E-005	5.99601E-002	7.03345E-001	3.58010E+000	9	...........
	46	0.626667	7.11962E-001	1.00994E-004	0.00000E+000	7.19038E-005	5.99601E-002	7.12259E-001	3.58010E+000	9	...........
	47	0.64	7.20769E-001	1.00587E-004	0.00000E+000	7.24996E-005	5.99601E-002	7.21019E-001	3.58010E+000	9	...........
	48	0.653333	7.29329E-001	1.00738E-004	0.00000E+000	7.34708E-005	5.99601E-002	7.29583E-001	3.58010E+000	9	...........
	49	0.666667	7.37742E-001	1.00580E-004	0.00000E+000	7.42022E-005	5.99601E-002	7.37990E-001	3.58010E+000	9	...........
	50	0.68	7.46005E-001	1.00577E-004	0.00000E+000	7.50310E-005	5.99601E-002	7.46271E-001	3.58010E+000	9	...........
	51	0.693333	7.54108E-001	1.01499E-004	0.00000E+000	7.65413E-005	5.99601E-002	7.54377E-001	3.58010E+000	9	...........
	52	0.706667	7.62046E-001	1.00950E-004	0.00000E+000	7.69286E-005	5.99601E-002	7.62302E-001	3.58010E+000	9	...........
	53	0.72	7.69848E-001	1.00689E-004	0.00000E+000	7.75150E-005	5.99601E-002	7.70145E-001	3.58010E+000	9	...........
	54	0.733333	7.77503E-001	1.00167E-004	0.00000E+000	7.78798E-005	5.99601E-002	7.77784E-001	3.58010E+000	9	...........
	55	0.746667	7.85025E-001	1.00271E-004	0.00000E+000	7.87151E-005	5.99601E-002	7.85290E-001	3.58010E+000	9	...........
	56	0.76	7.92416E-001	1.00979E-004	0.00000E+000	8.00176E-005	5.99601E-002	7.92667E-001	3.58010E+000	9	...........
	57	0.773333	7.99671E-001	1.00850E-004	0.00000E+000	8.06469E-005	5.99601E-002	7.99944E-001	3.58010E+000	9	...........
	58	0.786667	8.06783E-001	1.00906E-004	0.00000E+000	8.14096E-005	5.99601E-002	8.07083E-001	3.58010E+000	9	...........
	59	0.8	8.13765E-001	1.00739E-004	0.00000E+000	8.19775E-005	5.99601E-002	8.14070E-001	3.58010E+000	9	...........
	60	0.813333	8.20648E-001	1.01327E-004	0.00000E+000	8.31541E-005	5.99601E-002	8.20963E-001	3.58010E+000	9	...........
	61	0.826667	8.27378E-001	1.00674E-004	0.00000E+000	8.32955E-005	5.99601E-002	8.27702E-001	3.58010E+000	9	...........
	62	0.84	8.34002E-001	1.00597E-004	0.00000E+000	8.38980E-005	5.99601E-002	8.34361E-001	3.58010E+000	9	...........
	63	0.853333	8.40510E-001	1.01020E-004	0.00000E+000	8.49082E-005	5.99601E-002	8.40891E-001	3.58010E+000	9	...........
	64	0.866667	8.46959E-001	1.00515E-004	0.00000E+000	8.51318E-005	5.99601E-002	8.47327E-001	3.58010E+000	9	...........
	65	0.88	8.53254E-001	1.00418E-004	0.00000E+000	8.56819E-005	5.99601E-002	8.53626E-001	3.58010E+000	9	...........
	66	0.893333	8.59450E-001	1.00694E-004	0.00000E+000	8.65413E-005	5.99601E-002	8.59827E-001	3.58010E+000	9	...........
	67	0.906667	8.65536E-001	1.01511E-004	0.00000E+000	8.78612E-005	5.99601E-002	8.65923E-001	3.58010E+000	9	...........
	68	0.92	8.71576E-001	1.00836E-004	0.00000E+000	8.78858E-005	5.99601E-002	8.71939E-001	3.58010E+000	9	...........
	69	0.933333	8.77472E-001	1.01307E-004	0.00000E+000	8.88945E-005	5.99601E-002	8.77813E-001	3.58010E+000	9	...........
	70	0.946667	8.83260E-001	1.01806E-004	0.00000E+000	8.99208E-005	5.99601E-002	8.83618E-001	3.58010E+000	9	...........
	71	0.96	8.88961E-001	1.01493E-004	0.00000E+000	9.02233E-005	5.99601E-002	8.89299E-001	3.58010E+000	9	...........
	72	0.97333	8.94552E-001	1.00576E-004	0.00000E+000	8.99705E-005	5.99601E-002	8.94907E-001	3.58010E+000	9	...........
	73	0.98667	9.00048E-001	1.01377E-004	0.00000E+000	9.12444E-005	5.99601E-002	9.00413E-001	3.58010E+000	9	...........
	74	1	9.05440E-001	1.00436E-004	0.00000E+000	9.09392E-005	5.99601E-002	9.05830E-001	3.58010E+000	9	...........
	75	1.01333	9.10764E-001	1.00588E-004	0.00000E+000	9.16115E-005	5.99601E-002	9.11144E-001	3.58010E+000	9	...........
	76	1.02667	9.16003E-001	1.01105E-004	0.00000E+000	9.26128E-005	5.99601E-002	9.16365E-001	3.58010E+000	9	...........
	77	1.04	9.21164E-001	1.00601E-004	0.00000E+000	9.26701E-005	5.99601E-002	9.21519E-001	3.58010E+000	9	...........
	78	1.05333	9.26239E-001	1.01801E-004	0.00000E+000	9.42924E-005	5.99601E-002	9.26568E-001	3.58010E+000	9	...........
	79	1.06667	9.31181E-001	1.01288E-004	0.00000E+000	9.43171E-005	5.99601E-002	9.31529E-001	3.58010E+000	9	...........
	80	1.08	9.36032E-001	1.00855E-004	0.00000E+000	9.44038E-005	5.99601E-002	9.36395E-001	3.58010E+000	9	...........
	81	1.09333	9.40810E-001	1.00903E-004	0.00000E+000	9.49308E-005	5.99601E-002	9.41183E-001	3.58010E+000	9	...........
	82	1.10667	9.45496E-001	1.01910E-004	0.00000E+000	9.63552E-005	5.99601E-002	9.45871E-001	3.58010E+000	9	...........
	83	1.12	9.50141E-001	1.01484E-004	0.00000E+000	9.64237E-005	5.99601E-002	9.50508E-001	3.58010E+000	9	...........
	84	1.13333	9.54630E-001	1.01006E-004	0.00000E+000	9.64238E-005	5.99601E-002	9.55016E-001	3.58010E+000	9	...........
	85	1.14667	9.59065E-001	1.01090E-004	0.00000E+000	9.69516E-005	5.99601E-002	9.59456E-001	3.58010E+000	9	...........
	86	1.16	9.63421E-001	1.01477E-004	0.00000E+000	9.77654E-005	5.99601E-002	9.63800E-001	3.58010E+000	9	...........
	87	1.17333	9.67693E-001	1.00790E-004	0.00000E+000	9.75335E-005	5.99601E-002	9.68055E-001	3.58010E+000	9	...........
	88	1.18667	9.71889E-001	1.00601E-004	0.00000E+000	9.77731E-005	5.99601E-002	9.72254E-001	3.58010E+000	9	...........
	89	1.2	9.76023E-001	1.01133E-004	0.00000E+000	9.87087E-005	5.99601E-002	9.76388E-001	3.58010E+000	9	...........
	90	1.21333	9.80031E-001	1.01157E-004	0.00000E+000	9.91375E-005	5.99601E-002	9.80399E-001	3.58010E+000	9	...........
	91	1.22667	9.83970E-001	1.01465E-004	0.00000E+000	9.98383E-005	5.99601E-002	9.84329E-001	3.58010E+000	9	...........
	92	1.24	9.87824E-001	1.00054E-004	0.00000E+000	9.88359E-005	5.99601E-002	9.88196E-001	3.58010E+000	9	...........
	93	1.25333	9.91605E-001	1.00194E-004	0.00000E+000	9.93526E-005	5.99601E-002	9.91986E-001	3.58010E+000	9	...........
	94	1.26667	9.95297E-001	9.95373E-005	0.00000E+000	9.90692E-005	5.99601E-002	9.95660E-001	3.58010E+000	9	...........
	95	1.27833	9.98710E-001	1.00778E-004	0.00000E+000	1.00648E-004	5.99601E-002	9.99103E-001	3.58010E+000	9	...........
STARTTIMEOFFSET	QUANT	483.6999	Start Time Offset (s)
