EXPLAIN
TAG	PWR800_CHARGE
TITLE	LABEL	PWR Cyclic Charge Discharge (Cell) - Charge Step	Test &Identifier
DATE	LABEL	13-7-2017	Date
TIME	LABEL	15:16:45	Time
NOTES	NOTES	2	&Notes...
	supercap test cell
	6M KOH
PSTAT	PSTAT	IFC5000-01520	Potentiostat
CAPACITY	QUANT	1.00000E-003	Capacity (A-hr)
CELLTYPE	SELECTOR	1	&Cell Type
WORKINGCONNECTION	SELECTOR	0	&Working Lead
MAXCHARGETIME	VARIABLEANDUNITS	1.00000E+002	s	1.00000E+002	second(s)	Max &Charge Time
CHARGECURRENT	QUANT	1.00000E-004	&Charge Current (A) 
VOLTAGEFINISH	TWOPARAM	F	1.00000E-003	3.60000E+003	&Voltage Finish	 I (A) < 	Max Time(s)
SAMPLETIME	QUANT	1.00000E-002	Sa&mple Period (s)
CHARGESTOPAT1	MULTIPARAM	4	1.00000E+000	Charge Stop At &1	Voltage > Limit	V
CHARGESTOPAT2	MULTIPARAM	0	0.00000E+000	Charge Stop At &2	None	N/A
AESBHCSELECTOR	TOGGLE	F	Save Both Half Cells
IRCOMP	TOGGLE	F	IR &Measure
EOC	QUANT	0	Open Circuit (V)
SEQUENCER	TOGGLE	TRUE	Run as Sequence
PSTATMODEL	IQUANT	53	Pstat Model
PSTATSECTION	LABEL	IFC5000-01520	Pstat Section
PSTATSERIALNO	LABEL	01520	Pstat Serial Number
CTRLMODE	IQUANT	0	Control Mode
ELECTROMETER	IQUANT	1	RE=0 or CS=1
IESTAB	IQUANT	0	I/E Stability
CASPEED	IQUANT	4	Control Amp Speed
CONVENTION	IQUANT	1	Current Convention
ICHRANGE	IQUANT	2	Ich Range
ICHRANGEMODE	TOGGLE	T	Ich Auto Range
ICHOFFSETENABLE	TOGGLE	F	Ich Offset Enable
ICHOFFSET	QUANT	0	Ich Offset (V)
ICHFILTER	IQUANT	1	Ich Filter
VCHRANGE	IQUANT	2	Vch Range
VCHRANGEMODE	TOGGLE	T	Vch Auto Range
VCHOFFSETENABLE	TOGGLE	F	Vch Offset Enable
VCHOFFSET	QUANT	0	Vch Offset (V)
VCHFILTER	IQUANT	1	Vch Filter
IERANGELOWERLIMIT	IQUANT	9	I/E Range Lower Limit
IERANGEMODE	TOGGLE	F	I/E AutoRange
IERANGE	IQUANT	9	I/E Range
ACHSELECT	IQUANT	1	Ach Select
ACHRANGE	IQUANT	2	Ach Range
ACHOFFSETENABLE	TOGGLE	F	Ach Offset Enable
ACHOFFSET	QUANT	0	Ach Offset (V)
ACHFILTER	IQUANT	1	Ach Filter
CABLEID	IQUANT	14	Cable ID
DCCALDATE	LABEL	5-7-2017	DC Calibration Date
ACCALDATE	LABEL	12/3/2015	AC Calibration Date
FRAMEWORKVERSION	QUANT	7.01	Framework Version
INSTRUMENTVERSION	LABEL	4.00	Instrument Version
CURVE	TABLE	95
	Pt	T	Vf	Im	Vu	Pwr	Sig	Ach	Temp	IERange	Over
	#	s	V	A	V	W	V	V	deg C	#	bits
	0	0.013333	1.32403E-001	1.01240E-004	0.00000E+000	1.34044E-005	5.99601E-002	1.32454E-001	3.58010E+000	9	...........
	1	0.026667	1.47626E-001	1.00729E-004	0.00000E+000	1.48703E-005	5.99601E-002	1.47650E-001	3.58010E+000	9	...........
	2	0.04	1.62405E-001	1.00982E-004	0.00000E+000	1.64000E-005	5.99601E-002	1.62433E-001	3.58010E+000	9	...........
	3	0.053333	1.76912E-001	1.00892E-004	0.00000E+000	1.78490E-005	5.99601E-002	1.76947E-001	3.58010E+000	9	...........
	4	0.066667	1.91233E-001	1.01387E-004	0.00000E+000	1.93885E-005	5.99601E-002	1.91270E-001	3.58010E+000	9	...........
	5	0.08	2.05407E-001	1.00439E-004	0.00000E+000	2.06308E-005	5.99601E-002	2.05442E-001	3.58010E+000	9	...........
	6	0.093333	2.19473E-001	1.01214E-004	0.00000E+000	2.22136E-005	5.99601E-002	2.19514E-001	3.58010E+000	9	...........
	7	0.106667	2.33467E-001	1.00733E-004	0.00000E+000	2.35179E-005	5.99601E-002	2.33506E-001	3.58010E+000	9	...........
	8	0.12	2.47401E-001	1.00461E-004	0.00000E+000	2.48543E-005	5.99601E-002	2.47446E-001	3.58010E+000	9	...........
	9	0.133333	2.61300E-001	1.01397E-004	0.00000E+000	2.64951E-005	5.99601E-002	2.61362E-001	3.58010E+000	9	...........
	10	0.146667	2.75198E-001	1.00821E-004	0.00000E+000	2.77457E-005	5.99601E-002	2.75246E-001	3.58010E+000	9	...........
	11	0.16	2.89071E-001	1.01190E-004	0.00000E+000	2.92510E-005	5.99601E-002	2.89127E-001	3.58010E+000	9	...........
	12	0.173333	3.02947E-001	1.01327E-004	0.00000E+000	3.06968E-005	5.99601E-002	3.03005E-001	3.58010E+000	9	...........
	13	0.186667	3.16837E-001	1.00397E-004	0.00000E+000	3.18094E-005	5.99601E-002	3.16901E-001	3.58010E+000	9	...........
	14	0.2	3.30727E-001	1.01879E-004	0.00000E+000	3.36943E-005	5.99601E-002	3.30788E-001	3.58010E+000	9	...........
	15	0.213333	3.44625E-001	1.00331E-004	0.00000E+000	3.45767E-005	5.99601E-002	3.44688E-001	3.58010E+000	9	...........
	16	0.226667	3.58530E-001	1.00558E-004	0.00000E+000	3.60532E-005	5.99601E-002	3.58597E-001	3.58010E+000	9	...........
	17	0.24	3.72429E-001	1.01023E-004	0.00000E+000	3.76239E-005	5.99601E-002	3.72502E-001	3.57990E+000	9	...........
	18	0.253333	3.86318E-001	1.01268E-004	0.00000E+000	3.91216E-005	5.99601E-002	3.86389E-001	3.57970E+000	9	...........
	19	0.266667	4.00172E-001	1.00202E-004	0.00000E+000	4.00980E-005	5.99601E-002	4.00246E-001	3.57970E+000	9	...........
	20	0.28	4.13977E-001	1.00345E-004	0.00000E+000	4.15404E-005	5.99601E-002	4.14064E-001	3.57970E+000	9	...........
	21	0.293333	4.27727E-001	1.00652E-004	0.00000E+000	4.30516E-005	5.99601E-002	4.27815E-001	3.57970E+000	9	...........
	22	0.306667	4.41395E-001	1.01073E-004	0.00000E+000	4.46131E-005	5.99601E-002	4.41485E-001	3.57970E+000	9	...........
	23	0.32	4.54962E-001	1.00727E-004	0.00000E+000	4.58270E-005	5.99601E-002	4.55058E-001	3.57970E+000	9	...........
	24	0.333333	4.68405E-001	1.00184E-004	0.00000E+000	4.69269E-005	5.99601E-002	4.68505E-001	3.57970E+000	9	...........
	25	0.346667	4.81709E-001	1.01341E-004	0.00000E+000	4.88168E-005	5.99601E-002	4.81803E-001	3.57970E+000	9	...........
	26	0.36	4.94850E-001	1.01043E-004	0.00000E+000	5.00011E-005	5.99601E-002	4.94951E-001	3.57970E+000	9	...........
	27	0.373333	5.07811E-001	1.01052E-004	0.00000E+000	5.13154E-005	5.99601E-002	5.07916E-001	3.57970E+000	9	...........
	28	0.386667	5.20591E-001	1.00828E-004	0.00000E+000	5.24902E-005	5.99601E-002	5.20698E-001	3.57970E+000	9	...........
	29	0.4	5.33021E-001	9.96811E-005	0.00000E+000	5.31321E-005	5.99601E-002	5.33197E-001	3.57970E+000	9	...........
	30	0.413333	5.45168E-001	1.00825E-004	0.00000E+000	5.49666E-005	5.99601E-002	5.45450E-001	3.57970E+000	9	...........
	31	0.426667	5.57300E-001	1.01385E-004	0.00000E+000	5.65016E-005	5.99601E-002	5.57591E-001	3.57970E+000	9	...........
	32	0.44	5.69268E-001	1.00977E-004	0.00000E+000	5.74831E-005	5.99601E-002	5.69547E-001	3.57970E+000	9	...........
	33	0.453333	5.80971E-001	1.00427E-004	0.00000E+000	5.83452E-005	5.99601E-002	5.81257E-001	3.57970E+000	9	...........
	34	0.466667	5.92460E-001	1.00652E-004	0.00000E+000	5.96324E-005	5.99601E-002	5.92773E-001	3.57970E+000	9	...........
	35	0.48	6.03732E-001	1.00297E-004	0.00000E+000	6.05524E-005	5.99601E-002	6.04038E-001	3.57970E+000	9	...........
	36	0.493333	6.14786E-001	1.00867E-004	0.00000E+000	6.20115E-005	5.99601E-002	6.15084E-001	3.57970E+000	9	...........
	37	0.506667	6.25639E-001	1.01205E-004	0.00000E+000	6.33180E-005	5.99601E-002	6.25899E-001	3.57970E+000	9	...........
	38	0.52	6.36245E-001	1.00918E-004	0.00000E+000	6.42085E-005	5.99601E-002	6.36512E-001	3.57970E+000	9	...........
	39	0.533333	6.46650E-001	1.01309E-004	0.00000E+000	6.55112E-005	5.99601E-002	6.46919E-001	3.57970E+000	9	...........
	40	0.546667	6.56849E-001	1.01525E-004	0.00000E+000	6.66868E-005	5.99601E-002	6.57113E-001	3.57970E+000	9	...........
	41	0.56	6.66839E-001	1.00804E-004	0.00000E+000	6.72202E-005	5.99601E-002	6.67104E-001	3.57970E+000	9	...........
	42	0.573333	6.76645E-001	1.01170E-004	0.00000E+000	6.84562E-005	5.99601E-002	6.76892E-001	3.57970E+000	9	...........
	43	0.586667	6.86238E-001	1.00809E-004	0.00000E+000	6.91792E-005	5.99601E-002	6.86480E-001	3.57970E+000	9	...........
	44	0.6	6.95642E-001	1.00734E-004	0.00000E+000	7.00752E-005	5.99601E-002	6.95892E-001	3.57970E+000	9	...........
	45	0.613333	7.04867E-001	1.00796E-004	0.00000E+000	7.10477E-005	5.99601E-002	7.05125E-001	3.57970E+000	9	...........
	46	0.626667	7.13875E-001	1.00791E-004	0.00000E+000	7.19520E-005	5.99601E-002	7.14175E-001	3.57970E+000	9	...........
	47	0.64	7.22794E-001	1.01267E-004	0.00000E+000	7.31950E-005	5.99601E-002	7.23045E-001	3.57970E+000	9	...........
	48	0.653333	7.31462E-001	1.01297E-004	0.00000E+000	7.40949E-005	5.99601E-002	7.31756E-001	3.57970E+000	9	...........
	49	0.666667	7.39982E-001	1.00496E-004	0.00000E+000	7.43652E-005	5.99601E-002	7.40278E-001	3.57970E+000	9	...........
	50	0.68	7.48337E-001	1.01336E-004	0.00000E+000	7.58332E-005	5.99601E-002	7.48648E-001	3.57970E+000	9	...........
	51	0.693333	7.56566E-001	1.00559E-004	0.00000E+000	7.60798E-005	5.99601E-002	7.56855E-001	3.57970E+000	9	...........
	52	0.706667	7.64593E-001	1.00939E-004	0.00000E+000	7.71770E-005	5.99601E-002	7.64921E-001	3.57970E+000	9	...........
	53	0.72	7.72501E-001	1.00928E-004	0.00000E+000	7.79671E-005	5.99601E-002	7.72819E-001	3.57970E+000	9	...........
	54	0.733333	7.80249E-001	1.00500E-004	0.00000E+000	7.84150E-005	5.99601E-002	7.80537E-001	3.57970E+000	9	...........
	55	0.746667	7.87883E-001	1.01605E-004	0.00000E+000	8.00532E-005	5.99601E-002	7.88170E-001	3.57970E+000	9	...........
	56	0.76	7.95360E-001	1.01738E-004	0.00000E+000	8.09182E-005	5.99601E-002	7.95663E-001	3.57970E+000	9	...........
	57	0.773333	8.02701E-001	1.00639E-004	0.00000E+000	8.07827E-005	5.99601E-002	8.02986E-001	3.57970E+000	9	...........
	58	0.786667	8.09897E-001	1.01737E-004	0.00000E+000	8.23963E-005	5.99601E-002	8.10162E-001	3.57970E+000	9	...........
	59	0.8	8.16975E-001	1.00856E-004	0.00000E+000	8.23971E-005	5.99601E-002	8.17240E-001	3.57970E+000	9	...........
	60	0.813333	8.23938E-001	1.00970E-004	0.00000E+000	8.31930E-005	5.99601E-002	8.24208E-001	3.57970E+000	9	...........
	61	0.826667	8.30765E-001	1.01027E-004	0.00000E+000	8.39299E-005	5.99601E-002	8.31043E-001	3.57970E+000	9	...........
	62	0.84	8.37471E-001	1.01408E-004	0.00000E+000	8.49259E-005	5.99601E-002	8.37790E-001	3.57970E+000	9	...........
	63	0.853333	8.44088E-001	1.00655E-004	0.00000E+000	8.49619E-005	5.99601E-002	8.44397E-001	3.57970E+000	9	...........
	64	0.866667	8.50581E-001	1.01634E-004	0.00000E+000	8.64476E-005	5.99601E-002	8.50917E-001	3.57970E+000	9	...........
	65	0.88	8.56952E-001	1.01380E-004	0.00000E+000	8.68781E-005	5.99601E-002	8.57274E-001	3.57970E+000	9	...........
	66	0.893333	8.63232E-001	1.00648E-004	0.00000E+000	8.68825E-005	5.99601E-002	8.63571E-001	3.57970E+000	9	...........
	67	0.906667	8.69405E-001	1.00850E-004	0.00000E+000	8.76796E-005	5.99601E-002	8.69721E-001	3.57970E+000	9	...........
	68	0.92	8.75462E-001	1.00870E-004	0.00000E+000	8.83078E-005	5.99601E-002	8.75818E-001	3.57970E+000	9	...........
	69	0.933333	8.81425E-001	1.00124E-004	0.00000E+000	8.82517E-005	5.99601E-002	8.81753E-001	3.57970E+000	9	...........
	70	0.946667	8.87276E-001	9.86569E-005	0.00000E+000	8.75359E-005	5.99601E-002	8.87627E-001	3.57970E+000	9	...........
	71	0.96	8.93028E-001	1.01282E-004	0.00000E+000	9.04481E-005	5.99601E-002	8.93366E-001	3.57970E+000	9	...........
	72	0.97333	8.98674E-001	1.00464E-004	0.00000E+000	9.02840E-005	5.99601E-002	8.99052E-001	3.57970E+000	9	...........
	73	0.98667	9.04199E-001	1.01004E-004	0.00000E+000	9.13280E-005	5.99601E-002	9.04587E-001	3.57970E+000	9	...........
	74	1	9.09690E-001	1.01660E-004	0.00000E+000	9.24788E-005	5.99601E-002	9.10064E-001	3.57970E+000	9	...........
	75	1.01333	9.15021E-001	1.00526E-004	0.00000E+000	9.19835E-005	5.99601E-002	9.15417E-001	3.57970E+000	9	...........
	76	1.02667	9.20339E-001	1.01895E-004	0.00000E+000	9.37781E-005	5.99601E-002	9.20698E-001	3.57970E+000	9	...........
	77	1.04	9.25529E-001	1.01126E-004	0.00000E+000	9.35952E-005	5.99601E-002	9.25873E-001	3.57970E+000	9	...........
	78	1.05333	9.30589E-001	1.00943E-004	0.00000E+000	9.39363E-005	5.99601E-002	9.30943E-001	3.57970E+000	9	...........
	79	1.06667	9.35571E-001	1.01297E-004	0.00000E+000	9.47706E-005	5.99601E-002	9.35945E-001	3.57970E+000	9	...........
	80	1.08	9.40445E-001	1.01491E-004	0.00000E+000	9.54466E-005	5.99601E-002	9.40838E-001	3.57970E+000	9	...........
	81	1.09333	9.45258E-001	1.00044E-004	0.00000E+000	9.45671E-005	5.99601E-002	9.45641E-001	3.57970E+000	9	...........
	82	1.10667	9.50000E-001	9.99999E-005	0.00000E+000	9.49999E-005	5.99601E-002	9.50391E-001	3.57970E+000	9	...........
	83	1.12	9.54638E-001	9.99322E-005	0.00000E+000	9.53991E-005	5.99601E-002	9.54991E-001	3.57970E+000	9	...........
	84	1.13333	9.59178E-001	1.01324E-004	0.00000E+000	9.71880E-005	5.99601E-002	9.59558E-001	3.57970E+000	9	...........
	85	1.14667	9.63628E-001	1.01315E-004	0.00000E+000	9.76297E-005	5.99601E-002	9.64020E-001	3.57970E+000	9	...........
	86	1.16	9.68000E-001	1.00836E-004	0.00000E+000	9.76088E-005	5.99601E-002	9.68363E-001	3.57970E+000	9	...........
	87	1.17333	9.72301E-001	1.01219E-004	0.00000E+000	9.84152E-005	5.99601E-002	9.72705E-001	3.57970E+000	9	...........
	88	1.18667	9.76515E-001	1.00601E-004	0.00000E+000	9.82385E-005	5.99601E-002	9.76908E-001	3.57970E+000	9	...........
	89	1.2	9.80644E-001	1.01146E-004	0.00000E+000	9.91882E-005	5.99601E-002	9.81008E-001	3.57970E+000	9	...........
	90	1.21333	9.84659E-001	1.01060E-004	0.00000E+000	9.95092E-005	5.99601E-002	9.85040E-001	3.57970E+000	9	...........
	91	1.22667	9.88612E-001	1.01663E-004	0.00000E+000	1.00505E-004	5.99601E-002	9.89002E-001	3.57970E+000	9	...........
	92	1.24	9.92478E-001	1.00424E-004	0.00000E+000	9.96686E-005	5.99601E-002	9.92850E-001	3.57975E+000	9	...........
	93	1.25333	9.96256E-001	1.01091E-004	0.00000E+000	1.00712E-004	5.99601E-002	9.96664E-001	3.57980E+000	9	...........
	94	1.26167	9.99300E-001	1.00238E-004	0.00000E+000	1.00168E-004	5.99601E-002	9.99711E-001	3.57980E+000	9	...........
STARTTIMEOFFSET	QUANT	666.529	Start Time Offset (s)
