EXPLAIN
TAG	PWR800_CHARGE
TITLE	LABEL	PWR Cyclic Charge Discharge (Cell) - Charge Step	Test &Identifier
DATE	LABEL	13-7-2017	Date
TIME	LABEL	15:43:06	Time
NOTES	NOTES	2	&Notes...
	supercap test cell
	6M KOH
PSTAT	PSTAT	IFC5000-01520	Potentiostat
CAPACITY	QUANT	1.00000E-003	Capacity (A-hr)
CELLTYPE	SELECTOR	1	&Cell Type
WORKINGCONNECTION	SELECTOR	0	&Working Lead
MAXCHARGETIME	VARIABLEANDUNITS	1.00000E+002	s	1.00000E+002	second(s)	Max &Charge Time
CHARGECURRENT	QUANT	1.00000E-004	&Charge Current (A) 
VOLTAGEFINISH	TWOPARAM	F	1.00000E-003	3.60000E+003	&Voltage Finish	 I (A) < 	Max Time(s)
SAMPLETIME	QUANT	1.00000E-002	Sa&mple Period (s)
CHARGESTOPAT1	MULTIPARAM	4	1.00000E+000	Charge Stop At &1	Voltage > Limit	V
CHARGESTOPAT2	MULTIPARAM	0	0.00000E+000	Charge Stop At &2	None	N/A
AESBHCSELECTOR	TOGGLE	F	Save Both Half Cells
IRCOMP	TOGGLE	F	IR &Measure
EOC	QUANT	0	Open Circuit (V)
SEQUENCER	TOGGLE	TRUE	Run as Sequence
PSTATMODEL	IQUANT	53	Pstat Model
PSTATSECTION	LABEL	IFC5000-01520	Pstat Section
PSTATSERIALNO	LABEL	01520	Pstat Serial Number
CTRLMODE	IQUANT	0	Control Mode
ELECTROMETER	IQUANT	1	RE=0 or CS=1
IESTAB	IQUANT	0	I/E Stability
CASPEED	IQUANT	4	Control Amp Speed
CONVENTION	IQUANT	1	Current Convention
ICHRANGE	IQUANT	2	Ich Range
ICHRANGEMODE	TOGGLE	T	Ich Auto Range
ICHOFFSETENABLE	TOGGLE	F	Ich Offset Enable
ICHOFFSET	QUANT	0	Ich Offset (V)
ICHFILTER	IQUANT	1	Ich Filter
VCHRANGE	IQUANT	2	Vch Range
VCHRANGEMODE	TOGGLE	T	Vch Auto Range
VCHOFFSETENABLE	TOGGLE	F	Vch Offset Enable
VCHOFFSET	QUANT	0	Vch Offset (V)
VCHFILTER	IQUANT	1	Vch Filter
IERANGELOWERLIMIT	IQUANT	9	I/E Range Lower Limit
IERANGEMODE	TOGGLE	F	I/E AutoRange
IERANGE	IQUANT	9	I/E Range
ACHSELECT	IQUANT	1	Ach Select
ACHRANGE	IQUANT	2	Ach Range
ACHOFFSETENABLE	TOGGLE	F	Ach Offset Enable
ACHOFFSET	QUANT	0	Ach Offset (V)
ACHFILTER	IQUANT	1	Ach Filter
CABLEID	IQUANT	14	Cable ID
DCCALDATE	LABEL	5-7-2017	DC Calibration Date
ACCALDATE	LABEL	12/3/2015	AC Calibration Date
FRAMEWORKVERSION	QUANT	7.01	Framework Version
INSTRUMENTVERSION	LABEL	4.00	Instrument Version
CURVE	TABLE	90
	Pt	T	Vf	Im	Vu	Pwr	Sig	Ach	Temp	IERange	Over
	#	s	V	A	V	W	V	V	deg C	#	bits
	0	0.013333	1.32831E-001	1.00939E-004	0.00000E+000	1.34078E-005	5.99601E-002	1.32879E-001	3.57875E+000	9	...........
	1	0.026667	1.48137E-001	1.00804E-004	0.00000E+000	1.49328E-005	5.99601E-002	1.48159E-001	3.57900E+000	9	...........
	2	0.04	1.62997E-001	1.00424E-004	0.00000E+000	1.63688E-005	5.99601E-002	1.63029E-001	3.57900E+000	9	...........
	3	0.053333	1.77590E-001	1.00826E-004	0.00000E+000	1.79058E-005	5.99601E-002	1.77621E-001	3.57900E+000	9	...........
	4	0.066667	1.91989E-001	1.00789E-004	0.00000E+000	1.93503E-005	5.99601E-002	1.92024E-001	3.57900E+000	9	...........
	5	0.08	2.06248E-001	1.00532E-004	0.00000E+000	2.07346E-005	5.99601E-002	2.06288E-001	3.57900E+000	9	...........
	6	0.093333	2.20405E-001	1.01146E-004	0.00000E+000	2.22931E-005	5.99601E-002	2.20442E-001	3.57900E+000	9	...........
	7	0.106667	2.34491E-001	1.01072E-004	0.00000E+000	2.37005E-005	5.99601E-002	2.34534E-001	3.57900E+000	9	...........
	8	0.12	2.48528E-001	1.00147E-004	0.00000E+000	2.48893E-005	5.99601E-002	2.48575E-001	3.57900E+000	9	...........
	9	0.133333	2.62540E-001	1.01002E-004	0.00000E+000	2.65172E-005	5.99601E-002	2.62591E-001	3.57900E+000	9	...........
	10	0.146667	2.76550E-001	1.01094E-004	0.00000E+000	2.79575E-005	5.99601E-002	2.76605E-001	3.57900E+000	9	...........
	11	0.16	2.90556E-001	1.00907E-004	0.00000E+000	2.93192E-005	5.99601E-002	2.90611E-001	3.57900E+000	9	...........
	12	0.173333	3.04579E-001	1.00234E-004	0.00000E+000	3.05293E-005	5.99601E-002	3.04635E-001	3.57900E+000	9	...........
	13	0.186667	3.18618E-001	1.00285E-004	0.00000E+000	3.19527E-005	5.99601E-002	3.18676E-001	3.57900E+000	9	...........
	14	0.2	3.32679E-001	1.01465E-004	0.00000E+000	3.37552E-005	5.99601E-002	3.32739E-001	3.57900E+000	9	...........
	15	0.213333	3.46768E-001	1.00815E-004	0.00000E+000	3.49593E-005	5.99601E-002	3.46830E-001	3.57900E+000	9	...........
	16	0.226667	3.60878E-001	1.01238E-004	0.00000E+000	3.65344E-005	5.99601E-002	3.60949E-001	3.57900E+000	9	...........
	17	0.24	3.75005E-001	1.00062E-004	0.00000E+000	3.75239E-005	5.99601E-002	3.75079E-001	3.57900E+000	9	...........
	18	0.253333	3.89149E-001	1.01185E-004	0.00000E+000	3.93759E-005	5.99601E-002	3.89224E-001	3.57900E+000	9	...........
	19	0.266667	4.03284E-001	1.00182E-004	0.00000E+000	4.04019E-005	5.99601E-002	4.03360E-001	3.57900E+000	9	...........
	20	0.28	4.17389E-001	1.00219E-004	0.00000E+000	4.18302E-005	5.99601E-002	4.17477E-001	3.57900E+000	9	...........
	21	0.293333	4.31464E-001	1.00905E-004	0.00000E+000	4.35370E-005	5.99601E-002	4.31557E-001	3.57900E+000	9	...........
	22	0.306667	4.45479E-001	1.01111E-004	0.00000E+000	4.50426E-005	5.99601E-002	4.45570E-001	3.57900E+000	9	...........
	23	0.32	4.59408E-001	1.01397E-004	0.00000E+000	4.65826E-005	5.99601E-002	4.59501E-001	3.57900E+000	9	...........
	24	0.333333	4.73235E-001	1.01441E-004	0.00000E+000	4.80054E-005	5.99601E-002	4.73335E-001	3.57900E+000	9	...........
	25	0.346667	4.86941E-001	1.01003E-004	0.00000E+000	4.91827E-005	5.99601E-002	4.87039E-001	3.57900E+000	9	...........
	26	0.36	5.00498E-001	1.00781E-004	0.00000E+000	5.04409E-005	5.99601E-002	5.00604E-001	3.57900E+000	9	...........
	27	0.373333	5.13882E-001	1.00745E-004	0.00000E+000	5.17710E-005	5.99601E-002	5.13990E-001	3.57900E+000	9	...........
	28	0.386667	5.27081E-001	1.00645E-004	0.00000E+000	5.30480E-005	5.99601E-002	5.27195E-001	3.57900E+000	9	...........
	29	0.4	5.39771E-001	1.01341E-004	0.00000E+000	5.47008E-005	5.99601E-002	5.39991E-001	3.57900E+000	9	...........
	30	0.413333	5.52537E-001	1.01236E-004	0.00000E+000	5.59364E-005	5.99601E-002	5.52800E-001	3.57900E+000	9	...........
	31	0.426667	5.65118E-001	1.00873E-004	0.00000E+000	5.70051E-005	5.99601E-002	5.65362E-001	3.57900E+000	9	...........
	32	0.44	5.77469E-001	1.00417E-004	0.00000E+000	5.79875E-005	5.99601E-002	5.77718E-001	3.57900E+000	9	...........
	33	0.453333	5.89576E-001	1.00934E-004	0.00000E+000	5.95085E-005	5.99601E-002	5.89863E-001	3.57900E+000	9	...........
	34	0.466667	6.01469E-001	1.00776E-004	0.00000E+000	6.06137E-005	5.99601E-002	6.01747E-001	3.57900E+000	9	...........
	35	0.48	6.13127E-001	1.00255E-004	0.00000E+000	6.14691E-005	5.99601E-002	6.13417E-001	3.57900E+000	9	...........
	36	0.493333	6.24596E-001	1.01053E-004	0.00000E+000	6.31175E-005	5.99601E-002	6.24861E-001	3.57900E+000	9	...........
	37	0.506667	6.35776E-001	1.01421E-004	0.00000E+000	6.44811E-005	5.99601E-002	6.36056E-001	3.57900E+000	9	...........
	38	0.52	6.46783E-001	1.01188E-004	0.00000E+000	6.54465E-005	5.99601E-002	6.47041E-001	3.57900E+000	9	...........
	39	0.533333	6.57523E-001	1.00706E-004	0.00000E+000	6.62167E-005	5.99601E-002	6.57808E-001	3.57900E+000	9	...........
	40	0.546667	6.68067E-001	1.00486E-004	0.00000E+000	6.71317E-005	5.99601E-002	6.68364E-001	3.57900E+000	9	...........
	41	0.56	6.78408E-001	9.98853E-005	0.00000E+000	6.77630E-005	5.99601E-002	6.78688E-001	3.57900E+000	9	...........
	42	0.573333	6.88492E-001	1.00734E-004	0.00000E+000	6.93549E-005	5.99601E-002	6.88788E-001	3.57900E+000	9	...........
	43	0.586667	6.98451E-001	1.00679E-004	0.00000E+000	7.03195E-005	5.99601E-002	6.98720E-001	3.57900E+000	9	...........
	44	0.6	7.08162E-001	1.01444E-004	0.00000E+000	7.18388E-005	5.99601E-002	7.08433E-001	3.57900E+000	9	...........
	45	0.613333	7.17710E-001	1.00652E-004	0.00000E+000	7.22391E-005	5.99601E-002	7.17994E-001	3.57900E+000	9	...........
	46	0.626667	7.27070E-001	1.00829E-004	0.00000E+000	7.33100E-005	5.99601E-002	7.27330E-001	3.57900E+000	9	...........
	47	0.64	7.36185E-001	1.01155E-004	0.00000E+000	7.44691E-005	5.99601E-002	7.36481E-001	3.57900E+000	9	...........
	48	0.653333	7.45177E-001	1.01349E-004	0.00000E+000	7.55231E-005	5.99601E-002	7.45473E-001	3.57900E+000	9	...........
	49	0.666667	7.53980E-001	1.00448E-004	0.00000E+000	7.57357E-005	5.99601E-002	7.54254E-001	3.57900E+000	9	...........
	50	0.68	7.62591E-001	1.01304E-004	0.00000E+000	7.72538E-005	5.99601E-002	7.62880E-001	3.57900E+000	9	...........
	51	0.693333	7.71069E-001	1.01621E-004	0.00000E+000	7.83569E-005	5.99601E-002	7.71369E-001	3.57900E+000	9	...........
	52	0.706667	7.79361E-001	1.00366E-004	0.00000E+000	7.82210E-005	5.99601E-002	7.79634E-001	3.57900E+000	9	...........
	53	0.72	7.87492E-001	1.00202E-004	0.00000E+000	7.89084E-005	5.99601E-002	7.87782E-001	3.57900E+000	9	...........
	54	0.733333	7.95497E-001	1.00236E-004	0.00000E+000	7.97378E-005	5.99601E-002	7.95792E-001	3.57900E+000	9	...........
	55	0.746667	8.03343E-001	1.00621E-004	0.00000E+000	8.08331E-005	5.99601E-002	8.03627E-001	3.57900E+000	9	...........
	56	0.76	8.11021E-001	1.00936E-004	0.00000E+000	8.18609E-005	5.99601E-002	8.11331E-001	3.57900E+000	9	...........
	57	0.773333	8.18583E-001	1.00913E-004	0.00000E+000	8.26053E-005	5.99601E-002	8.18868E-001	3.57900E+000	9	...........
	58	0.786667	8.25987E-001	1.00597E-004	0.00000E+000	8.30917E-005	5.99601E-002	8.26291E-001	3.57900E+000	9	...........
	59	0.8	8.33222E-001	1.00446E-004	0.00000E+000	8.36937E-005	5.99601E-002	8.33575E-001	3.57900E+000	9	...........
	60	0.813333	8.40381E-001	1.01052E-004	0.00000E+000	8.49224E-005	5.99601E-002	8.40702E-001	3.57900E+000	9	...........
	61	0.826667	8.47421E-001	1.00646E-004	0.00000E+000	8.52894E-005	5.99601E-002	8.47724E-001	3.57900E+000	9	...........
	62	0.84	8.54278E-001	1.00719E-004	0.00000E+000	8.60419E-005	5.99601E-002	8.54619E-001	3.57900E+000	9	...........
	63	0.853333	8.61035E-001	1.01223E-004	0.00000E+000	8.71566E-005	5.99601E-002	8.61389E-001	3.57900E+000	9	...........
	64	0.866667	8.67682E-001	1.00579E-004	0.00000E+000	8.72708E-005	5.99601E-002	8.68034E-001	3.57900E+000	9	...........
	65	0.88	8.74220E-001	1.01461E-004	0.00000E+000	8.86989E-005	5.99601E-002	8.74553E-001	3.57900E+000	9	...........
	66	0.893333	8.80604E-001	1.00618E-004	0.00000E+000	8.86044E-005	5.99601E-002	8.80963E-001	3.57900E+000	9	...........
	67	0.906667	8.86888E-001	1.01270E-004	0.00000E+000	8.98151E-005	5.99601E-002	8.87254E-001	3.57900E+000	9	...........
	68	0.92	8.93070E-001	1.00068E-004	0.00000E+000	8.93674E-005	5.99601E-002	8.93444E-001	3.57900E+000	9	...........
	69	0.933333	8.99155E-001	1.00583E-004	0.00000E+000	9.04401E-005	5.99601E-002	8.99504E-001	3.57900E+000	9	...........
	70	0.946667	9.05106E-001	1.01481E-004	0.00000E+000	9.18515E-005	5.99601E-002	9.05480E-001	3.57900E+000	9	...........
	71	0.96	9.10984E-001	1.01397E-004	0.00000E+000	9.23712E-005	5.99601E-002	9.11337E-001	3.57900E+000	9	...........
	72	0.97333	9.16710E-001	1.00998E-004	0.00000E+000	9.25860E-005	5.99601E-002	9.17069E-001	3.57900E+000	9	...........
	73	0.98667	9.22401E-001	1.00820E-004	0.00000E+000	9.29964E-005	5.99601E-002	9.22707E-001	3.57900E+000	9	...........
	74	1	9.27906E-001	1.00920E-004	0.00000E+000	9.36442E-005	5.99601E-002	9.28255E-001	3.57900E+000	9	...........
	75	1.01333	9.33346E-001	1.00598E-004	0.00000E+000	9.38928E-005	5.99601E-002	9.33683E-001	3.57905E+000	9	...........
	76	1.02667	9.38645E-001	1.01467E-004	0.00000E+000	9.52414E-005	5.99601E-002	9.38996E-001	3.57910E+000	9	...........
	77	1.04	9.43857E-001	9.99989E-005	0.00000E+000	9.43846E-005	5.99601E-002	9.44209E-001	3.57910E+000	9	...........
	78	1.05333	9.49016E-001	1.00981E-004	0.00000E+000	9.58329E-005	5.99601E-002	9.49365E-001	3.57910E+000	9	...........
	79	1.06667	9.54027E-001	1.01114E-004	0.00000E+000	9.64651E-005	5.99601E-002	9.54381E-001	3.57910E+000	9	...........
	80	1.08	9.58932E-001	1.00494E-004	0.00000E+000	9.63667E-005	5.99601E-002	9.59309E-001	3.57910E+000	9	...........
	81	1.09333	9.63733E-001	1.00882E-004	0.00000E+000	9.72237E-005	5.99601E-002	9.64118E-001	3.57910E+000	9	...........
	82	1.10667	9.68473E-001	1.00986E-004	0.00000E+000	9.78018E-005	5.99601E-002	9.68838E-001	3.57910E+000	9	...........
	83	1.12	9.73096E-001	1.00871E-004	0.00000E+000	9.81571E-005	5.99601E-002	9.73468E-001	3.57910E+000	9	...........
	84	1.13333	9.77649E-001	1.00997E-004	0.00000E+000	9.87396E-005	5.99601E-002	9.78008E-001	3.57910E+000	9	...........
	85	1.14667	9.82076E-001	1.01376E-004	0.00000E+000	9.95592E-005	5.99601E-002	9.82435E-001	3.57910E+000	9	...........
	86	1.16	9.86408E-001	1.00567E-004	0.00000E+000	9.91999E-005	5.99601E-002	9.86801E-001	3.57910E+000	9	...........
	87	1.17333	9.90655E-001	1.01131E-004	0.00000E+000	1.00186E-004	5.99601E-002	9.91035E-001	3.57910E+000	9	...........
	88	1.18667	9.94808E-001	1.00043E-004	0.00000E+000	9.95232E-005	5.99601E-002	9.95175E-001	3.57910E+000	9	...........
	89	1.19833	9.98638E-001	1.00919E-004	0.00000E+000	1.00782E-004	5.99601E-002	9.99023E-001	3.57910E+000	9	...........
STARTTIMEOFFSET	QUANT	1856.63	Start Time Offset (s)
