EXPLAIN
TAG	PWR800_CHARGE
TITLE	LABEL	PWR Cyclic Charge Discharge (Cell) - Charge Step	Test &Identifier
DATE	LABEL	13-7-2017	Date
TIME	LABEL	15:46:44	Time
NOTES	NOTES	2	&Notes...
	supercap test cell
	6M KOH
PSTAT	PSTAT	IFC5000-01520	Potentiostat
CAPACITY	QUANT	1.00000E-003	Capacity (A-hr)
CELLTYPE	SELECTOR	1	&Cell Type
WORKINGCONNECTION	SELECTOR	0	&Working Lead
MAXCHARGETIME	VARIABLEANDUNITS	1.00000E+002	s	1.00000E+002	second(s)	Max &Charge Time
CHARGECURRENT	QUANT	1.00000E-004	&Charge Current (A) 
VOLTAGEFINISH	TWOPARAM	F	1.00000E-003	3.60000E+003	&Voltage Finish	 I (A) < 	Max Time(s)
SAMPLETIME	QUANT	1.00000E-002	Sa&mple Period (s)
CHARGESTOPAT1	MULTIPARAM	4	1.00000E+000	Charge Stop At &1	Voltage > Limit	V
CHARGESTOPAT2	MULTIPARAM	0	0.00000E+000	Charge Stop At &2	None	N/A
AESBHCSELECTOR	TOGGLE	F	Save Both Half Cells
IRCOMP	TOGGLE	F	IR &Measure
EOC	QUANT	0	Open Circuit (V)
SEQUENCER	TOGGLE	TRUE	Run as Sequence
PSTATMODEL	IQUANT	53	Pstat Model
PSTATSECTION	LABEL	IFC5000-01520	Pstat Section
PSTATSERIALNO	LABEL	01520	Pstat Serial Number
CTRLMODE	IQUANT	0	Control Mode
ELECTROMETER	IQUANT	1	RE=0 or CS=1
IESTAB	IQUANT	0	I/E Stability
CASPEED	IQUANT	4	Control Amp Speed
CONVENTION	IQUANT	1	Current Convention
ICHRANGE	IQUANT	2	Ich Range
ICHRANGEMODE	TOGGLE	T	Ich Auto Range
ICHOFFSETENABLE	TOGGLE	F	Ich Offset Enable
ICHOFFSET	QUANT	0	Ich Offset (V)
ICHFILTER	IQUANT	1	Ich Filter
VCHRANGE	IQUANT	2	Vch Range
VCHRANGEMODE	TOGGLE	T	Vch Auto Range
VCHOFFSETENABLE	TOGGLE	F	Vch Offset Enable
VCHOFFSET	QUANT	0	Vch Offset (V)
VCHFILTER	IQUANT	1	Vch Filter
IERANGELOWERLIMIT	IQUANT	9	I/E Range Lower Limit
IERANGEMODE	TOGGLE	F	I/E AutoRange
IERANGE	IQUANT	9	I/E Range
ACHSELECT	IQUANT	1	Ach Select
ACHRANGE	IQUANT	2	Ach Range
ACHOFFSETENABLE	TOGGLE	F	Ach Offset Enable
ACHOFFSET	QUANT	0	Ach Offset (V)
ACHFILTER	IQUANT	1	Ach Filter
CABLEID	IQUANT	14	Cable ID
DCCALDATE	LABEL	5-7-2017	DC Calibration Date
ACCALDATE	LABEL	12/3/2015	AC Calibration Date
FRAMEWORKVERSION	QUANT	7.01	Framework Version
INSTRUMENTVERSION	LABEL	4.00	Instrument Version
CURVE	TABLE	90
	Pt	T	Vf	Im	Vu	Pwr	Sig	Ach	Temp	IERange	Over
	#	s	V	A	V	W	V	V	deg C	#	bits
	0	0.013333	1.34294E-001	1.01946E-004	0.00000E+000	1.36907E-005	5.99601E-002	1.34334E-001	3.57850E+000	9	...........
	1	0.026667	1.49560E-001	1.00974E-004	0.00000E+000	1.51017E-005	5.99601E-002	1.49574E-001	3.57850E+000	9	...........
	2	0.04	1.64397E-001	1.01018E-004	0.00000E+000	1.66070E-005	5.99601E-002	1.64414E-001	3.57850E+000	9	...........
	3	0.053333	1.78958E-001	1.00968E-004	0.00000E+000	1.80690E-005	5.99601E-002	1.78980E-001	3.57850E+000	9	...........
	4	0.066667	1.93329E-001	1.00555E-004	0.00000E+000	1.94402E-005	5.99601E-002	1.93361E-001	3.57850E+000	9	...........
	5	0.08	2.07568E-001	1.00931E-004	0.00000E+000	2.09501E-005	5.99601E-002	2.07601E-001	3.57850E+000	9	...........
	6	0.093333	2.21700E-001	1.02016E-004	0.00000E+000	2.26170E-005	5.99601E-002	2.21738E-001	3.57850E+000	9	...........
	7	0.106667	2.35776E-001	1.01007E-004	0.00000E+000	2.38151E-005	5.99601E-002	2.35809E-001	3.57850E+000	9	...........
	8	0.12	2.49797E-001	1.01627E-004	0.00000E+000	2.53863E-005	5.99601E-002	2.49844E-001	3.57850E+000	9	...........
	9	0.133333	2.63795E-001	1.00709E-004	0.00000E+000	2.65667E-005	5.99601E-002	2.63844E-001	3.57850E+000	9	...........
	10	0.146667	2.77790E-001	1.00878E-004	0.00000E+000	2.80230E-005	5.99601E-002	2.77838E-001	3.57850E+000	9	...........
	11	0.16	2.91786E-001	1.00118E-004	0.00000E+000	2.92130E-005	5.99601E-002	2.91833E-001	3.57850E+000	9	...........
	12	0.173333	3.05787E-001	1.00706E-004	0.00000E+000	3.07947E-005	5.99601E-002	3.05843E-001	3.57850E+000	9	...........
	13	0.186667	3.19812E-001	1.01623E-004	0.00000E+000	3.25004E-005	5.99601E-002	3.19871E-001	3.57850E+000	9	...........
	14	0.2	3.33859E-001	1.00552E-004	0.00000E+000	3.35702E-005	5.99601E-002	3.33916E-001	3.57850E+000	9	...........
	15	0.213333	3.47936E-001	1.00816E-004	0.00000E+000	3.50774E-005	5.99601E-002	3.47997E-001	3.57850E+000	9	...........
	16	0.226667	3.62033E-001	1.00071E-004	0.00000E+000	3.62289E-005	5.99601E-002	3.62102E-001	3.57850E+000	9	...........
	17	0.24	3.76158E-001	9.96384E-005	0.00000E+000	3.74798E-005	5.99601E-002	3.76225E-001	3.57850E+000	9	...........
	18	0.253333	3.90284E-001	1.01031E-004	0.00000E+000	3.94310E-005	5.99601E-002	3.90358E-001	3.57850E+000	9	...........
	19	0.266667	4.04409E-001	1.01553E-004	0.00000E+000	4.10691E-005	5.99601E-002	4.04482E-001	3.57850E+000	9	...........
	20	0.28	4.18512E-001	1.00993E-004	0.00000E+000	4.22667E-005	5.99601E-002	4.18593E-001	3.57850E+000	9	...........
	21	0.293333	4.32574E-001	1.00790E-004	0.00000E+000	4.35990E-005	5.99601E-002	4.32655E-001	3.57850E+000	9	...........
	22	0.306667	4.46572E-001	1.00640E-004	0.00000E+000	4.49428E-005	5.99601E-002	4.46662E-001	3.57850E+000	9	...........
	23	0.32	4.60488E-001	1.00173E-004	0.00000E+000	4.61284E-005	5.99601E-002	4.60580E-001	3.57850E+000	9	...........
	24	0.333333	4.74305E-001	1.00578E-004	0.00000E+000	4.77047E-005	5.99601E-002	4.74399E-001	3.57850E+000	9	...........
	25	0.346667	4.87992E-001	1.00648E-004	0.00000E+000	4.91154E-005	5.99601E-002	4.88085E-001	3.57850E+000	9	...........
	26	0.36	5.01534E-001	1.01572E-004	0.00000E+000	5.09418E-005	5.99601E-002	5.01630E-001	3.57850E+000	9	...........
	27	0.373333	5.14905E-001	1.00510E-004	0.00000E+000	5.17533E-005	5.99601E-002	5.15009E-001	3.57850E+000	9	...........
	28	0.386667	5.28080E-001	1.01046E-004	0.00000E+000	5.33603E-005	5.99601E-002	5.28190E-001	3.57850E+000	9	...........
	29	0.4	5.40705E-001	1.00520E-004	0.00000E+000	5.43516E-005	5.99601E-002	5.40951E-001	3.57850E+000	9	...........
	30	0.413333	5.53488E-001	1.01321E-004	0.00000E+000	5.60800E-005	5.99601E-002	5.53757E-001	3.57850E+000	9	...........
	31	0.426667	5.66066E-001	1.01210E-004	0.00000E+000	5.72912E-005	5.99601E-002	5.66336E-001	3.57850E+000	9	...........
	32	0.44	5.78404E-001	1.01182E-004	0.00000E+000	5.85243E-005	5.99601E-002	5.78682E-001	3.57850E+000	9	...........
	33	0.453333	5.90536E-001	9.98989E-005	0.00000E+000	5.89939E-005	5.99601E-002	5.90806E-001	3.57850E+000	9	...........
	34	0.466667	6.02388E-001	1.00478E-004	0.00000E+000	6.05268E-005	5.99601E-002	6.02706E-001	3.57850E+000	9	...........
	35	0.48	6.14060E-001	1.01173E-004	0.00000E+000	6.21263E-005	5.99601E-002	6.14358E-001	3.57850E+000	9	...........
	36	0.493333	6.25521E-001	1.00982E-004	0.00000E+000	6.31667E-005	5.99601E-002	6.25788E-001	3.57850E+000	9	...........
	37	0.506667	6.36722E-001	1.01264E-004	0.00000E+000	6.44768E-005	5.99601E-002	6.36987E-001	3.57850E+000	9	...........
	38	0.52	6.47715E-001	1.01552E-004	0.00000E+000	6.57769E-005	5.99601E-002	6.47991E-001	3.57850E+000	9	...........
	39	0.533333	6.58464E-001	1.01007E-004	0.00000E+000	6.65097E-005	5.99601E-002	6.58741E-001	3.57850E+000	9	...........
	40	0.546667	6.69020E-001	1.00903E-004	0.00000E+000	6.75063E-005	5.99601E-002	6.69297E-001	3.57850E+000	9	...........
	41	0.56	6.79334E-001	1.01166E-004	0.00000E+000	6.87253E-005	5.99601E-002	6.79617E-001	3.57850E+000	9	...........
	42	0.573333	6.89456E-001	1.00276E-004	0.00000E+000	6.91359E-005	5.99601E-002	6.89740E-001	3.57850E+000	9	...........
	43	0.586667	6.99370E-001	1.01936E-004	0.00000E+000	7.12908E-005	5.99601E-002	6.99658E-001	3.57850E+000	9	...........
	44	0.6	7.09087E-001	1.00878E-004	0.00000E+000	7.15315E-005	5.99601E-002	7.09384E-001	3.57850E+000	9	...........
	45	0.613333	7.18642E-001	1.00830E-004	0.00000E+000	7.24609E-005	5.99601E-002	7.18928E-001	3.57850E+000	9	...........
	46	0.626667	7.27972E-001	1.00396E-004	0.00000E+000	7.30853E-005	5.99601E-002	7.28255E-001	3.57895E+000	9	...........
	47	0.64	7.37134E-001	1.01508E-004	0.00000E+000	7.48246E-005	5.99601E-002	7.37410E-001	3.58210E+000	9	...........
	48	0.653333	7.46128E-001	1.00958E-004	0.00000E+000	7.53280E-005	5.99601E-002	7.46381E-001	3.58210E+000	9	...........
	49	0.666667	7.54924E-001	1.00456E-004	0.00000E+000	7.58369E-005	5.99601E-002	7.55197E-001	3.58210E+000	9	...........
	50	0.68	7.63545E-001	1.00775E-004	0.00000E+000	7.69463E-005	5.99601E-002	7.63814E-001	3.58210E+000	9	...........
	51	0.693333	7.72023E-001	1.01178E-004	0.00000E+000	7.81120E-005	5.99601E-002	7.72284E-001	3.58210E+000	9	...........
	52	0.706667	7.80317E-001	1.00124E-004	0.00000E+000	7.81284E-005	5.99601E-002	7.80577E-001	3.58210E+000	9	...........
	53	0.72	7.88430E-001	1.01000E-004	0.00000E+000	7.96316E-005	5.99601E-002	7.88716E-001	3.58210E+000	9	...........
	54	0.733333	7.96456E-001	1.01201E-004	0.00000E+000	8.06023E-005	5.99601E-002	7.96716E-001	3.58210E+000	9	...........
	55	0.746667	8.04270E-001	1.00662E-004	0.00000E+000	8.09590E-005	5.99601E-002	8.04542E-001	3.58210E+000	9	...........
	56	0.76	8.11928E-001	1.00505E-004	0.00000E+000	8.16030E-005	5.99601E-002	8.12226E-001	3.58210E+000	9	...........
	57	0.773333	8.19476E-001	1.00968E-004	0.00000E+000	8.27407E-005	5.99601E-002	8.19796E-001	3.58210E+000	9	...........
	58	0.786667	8.26906E-001	1.01340E-004	0.00000E+000	8.37985E-005	5.99601E-002	8.27178E-001	3.58210E+000	9	...........
	59	0.8	8.34146E-001	1.00753E-004	0.00000E+000	8.40429E-005	5.99601E-002	8.34453E-001	3.58210E+000	9	...........
	60	0.813333	8.41276E-001	1.00976E-004	0.00000E+000	8.49488E-005	5.99601E-002	8.41595E-001	3.58210E+000	9	...........
	61	0.826667	8.48312E-001	1.00181E-004	0.00000E+000	8.49850E-005	5.99601E-002	8.48632E-001	3.58210E+000	9	...........
	62	0.84	8.55186E-001	1.00798E-004	0.00000E+000	8.62011E-005	5.99601E-002	8.55506E-001	3.58210E+000	9	...........
	63	0.853333	8.61957E-001	1.01366E-004	0.00000E+000	8.73730E-005	5.99601E-002	8.62287E-001	3.58210E+000	9	...........
	64	0.866667	8.68602E-001	1.01150E-004	0.00000E+000	8.78593E-005	5.99601E-002	8.68939E-001	3.58210E+000	9	...........
	65	0.88	8.75136E-001	1.01336E-004	0.00000E+000	8.86825E-005	5.99601E-002	8.75449E-001	3.58210E+000	9	...........
	66	0.893333	8.81526E-001	1.01051E-004	0.00000E+000	8.90793E-005	5.99601E-002	8.81848E-001	3.58210E+000	9	...........
	67	0.906667	8.87843E-001	1.00534E-004	0.00000E+000	8.92588E-005	5.99601E-002	8.88139E-001	3.58210E+000	9	...........
	68	0.92	8.93999E-001	1.01136E-004	0.00000E+000	9.04151E-005	5.99601E-002	8.94320E-001	3.58210E+000	9	...........
	69	0.933333	9.00062E-001	1.01004E-004	0.00000E+000	9.09101E-005	5.99601E-002	9.00383E-001	3.58210E+000	9	...........
	70	0.946667	9.06006E-001	1.01519E-004	0.00000E+000	9.19768E-005	5.99601E-002	9.06358E-001	3.58210E+000	9	...........
	71	0.96	9.11852E-001	1.00879E-004	0.00000E+000	9.19870E-005	5.99601E-002	9.12194E-001	3.58210E+000	9	...........
	72	0.97333	9.17593E-001	1.00630E-004	0.00000E+000	9.23376E-005	5.99601E-002	9.17937E-001	3.58210E+000	9	...........
	73	0.98667	9.23263E-001	1.01387E-004	0.00000E+000	9.36065E-005	5.99601E-002	9.23577E-001	3.58210E+000	9	...........
	74	1	9.28791E-001	1.01266E-004	0.00000E+000	9.40548E-005	5.99601E-002	9.29105E-001	3.58210E+000	9	...........
	75	1.01333	9.34200E-001	1.00836E-004	0.00000E+000	9.42006E-005	5.99601E-002	9.34516E-001	3.58210E+000	9	...........
	76	1.02667	9.39506E-001	1.01977E-004	0.00000E+000	9.58084E-005	5.99601E-002	9.39858E-001	3.58210E+000	9	...........
	77	1.04	9.44707E-001	9.99718E-005	0.00000E+000	9.44440E-005	5.99601E-002	9.45050E-001	3.58210E+000	9	...........
	78	1.05333	9.49855E-001	1.00698E-004	0.00000E+000	9.56485E-005	5.99601E-002	9.50188E-001	3.58210E+000	9	...........
	79	1.06667	9.54844E-001	1.00231E-004	0.00000E+000	9.57052E-005	5.99601E-002	9.55174E-001	3.58210E+000	9	...........
	80	1.08	9.59741E-001	1.00093E-004	0.00000E+000	9.60630E-005	5.99601E-002	9.60091E-001	3.58210E+000	9	...........
	81	1.09333	9.64519E-001	1.00475E-004	0.00000E+000	9.69101E-005	5.99601E-002	9.64893E-001	3.58210E+000	9	...........
	82	1.10667	9.69238E-001	1.01095E-004	0.00000E+000	9.79851E-005	5.99601E-002	9.69603E-001	3.58210E+000	9	...........
	83	1.12	9.73884E-001	1.01103E-004	0.00000E+000	9.84629E-005	5.99601E-002	9.74245E-001	3.58210E+000	9	...........
	84	1.13333	9.78401E-001	1.00265E-004	0.00000E+000	9.80989E-005	5.99601E-002	9.78770E-001	3.58210E+000	9	...........
	85	1.14667	9.82817E-001	1.00525E-004	0.00000E+000	9.87977E-005	5.99601E-002	9.83196E-001	3.58210E+000	9	...........
	86	1.16	9.87160E-001	1.01314E-004	0.00000E+000	1.00013E-004	5.99601E-002	9.87537E-001	3.58210E+000	9	...........
	87	1.17333	9.91403E-001	1.00588E-004	0.00000E+000	9.97228E-005	5.99601E-002	9.91764E-001	3.58210E+000	9	...........
	88	1.18667	9.95526E-001	1.00974E-004	0.00000E+000	1.00522E-004	5.99601E-002	9.95917E-001	3.58210E+000	9	...........
	89	1.19667	9.99099E-001	1.01779E-004	0.00000E+000	1.01687E-004	5.99601E-002	9.99482E-001	3.58210E+000	9	...........
STARTTIMEOFFSET	QUANT	2020.194	Start Time Offset (s)
