EXPLAIN
TAG	PWR800_CHARGE
TITLE	LABEL	PWR Cyclic Charge Discharge (Cell) - Charge Step	Test &Identifier
DATE	LABEL	13-7-2017	Date
TIME	LABEL	15:50:53	Time
NOTES	NOTES	2	&Notes...
	supercap test cell
	6M KOH
PSTAT	PSTAT	IFC5000-01520	Potentiostat
CAPACITY	QUANT	1.00000E-003	Capacity (A-hr)
CELLTYPE	SELECTOR	1	&Cell Type
WORKINGCONNECTION	SELECTOR	0	&Working Lead
MAXCHARGETIME	VARIABLEANDUNITS	1.00000E+002	s	1.00000E+002	second(s)	Max &Charge Time
CHARGECURRENT	QUANT	1.00000E-004	&Charge Current (A) 
VOLTAGEFINISH	TWOPARAM	F	1.00000E-003	3.60000E+003	&Voltage Finish	 I (A) < 	Max Time(s)
SAMPLETIME	QUANT	1.00000E-002	Sa&mple Period (s)
CHARGESTOPAT1	MULTIPARAM	4	1.00000E+000	Charge Stop At &1	Voltage > Limit	V
CHARGESTOPAT2	MULTIPARAM	0	0.00000E+000	Charge Stop At &2	None	N/A
AESBHCSELECTOR	TOGGLE	F	Save Both Half Cells
IRCOMP	TOGGLE	F	IR &Measure
EOC	QUANT	0	Open Circuit (V)
SEQUENCER	TOGGLE	TRUE	Run as Sequence
PSTATMODEL	IQUANT	53	Pstat Model
PSTATSECTION	LABEL	IFC5000-01520	Pstat Section
PSTATSERIALNO	LABEL	01520	Pstat Serial Number
CTRLMODE	IQUANT	0	Control Mode
ELECTROMETER	IQUANT	1	RE=0 or CS=1
IESTAB	IQUANT	0	I/E Stability
CASPEED	IQUANT	4	Control Amp Speed
CONVENTION	IQUANT	1	Current Convention
ICHRANGE	IQUANT	2	Ich Range
ICHRANGEMODE	TOGGLE	T	Ich Auto Range
ICHOFFSETENABLE	TOGGLE	F	Ich Offset Enable
ICHOFFSET	QUANT	0	Ich Offset (V)
ICHFILTER	IQUANT	1	Ich Filter
VCHRANGE	IQUANT	2	Vch Range
VCHRANGEMODE	TOGGLE	T	Vch Auto Range
VCHOFFSETENABLE	TOGGLE	F	Vch Offset Enable
VCHOFFSET	QUANT	0	Vch Offset (V)
VCHFILTER	IQUANT	1	Vch Filter
IERANGELOWERLIMIT	IQUANT	9	I/E Range Lower Limit
IERANGEMODE	TOGGLE	F	I/E AutoRange
IERANGE	IQUANT	9	I/E Range
ACHSELECT	IQUANT	1	Ach Select
ACHRANGE	IQUANT	2	Ach Range
ACHOFFSETENABLE	TOGGLE	F	Ach Offset Enable
ACHOFFSET	QUANT	0	Ach Offset (V)
ACHFILTER	IQUANT	1	Ach Filter
CABLEID	IQUANT	14	Cable ID
DCCALDATE	LABEL	5-7-2017	DC Calibration Date
ACCALDATE	LABEL	12/3/2015	AC Calibration Date
FRAMEWORKVERSION	QUANT	7.01	Framework Version
INSTRUMENTVERSION	LABEL	4.00	Instrument Version
CURVE	TABLE	90
	Pt	T	Vf	Im	Vu	Pwr	Sig	Ach	Temp	IERange	Over
	#	s	V	A	V	W	V	V	deg C	#	bits
	0	0.013333	1.32181E-001	9.98332E-005	0.00000E+000	1.31960E-005	5.99601E-002	1.32220E-001	3.57850E+000	9	...........
	1	0.026667	1.47471E-001	1.01043E-004	0.00000E+000	1.49009E-005	5.99601E-002	1.47491E-001	3.57850E+000	9	...........
	2	0.04	1.62327E-001	1.00079E-004	0.00000E+000	1.62456E-005	5.99601E-002	1.62352E-001	3.57850E+000	9	...........
	3	0.053333	1.76919E-001	1.00824E-004	0.00000E+000	1.78377E-005	5.99601E-002	1.76954E-001	3.57850E+000	9	...........
	4	0.066667	1.91327E-001	1.00600E-004	0.00000E+000	1.92475E-005	5.99601E-002	1.91359E-001	3.57850E+000	9	...........
	5	0.08	2.05587E-001	1.00593E-004	0.00000E+000	2.06805E-005	5.99601E-002	2.05622E-001	3.57850E+000	9	...........
	6	0.093333	2.19753E-001	1.01380E-004	0.00000E+000	2.22787E-005	5.99601E-002	2.19783E-001	3.57850E+000	9	...........
	7	0.106667	2.33848E-001	1.01141E-004	0.00000E+000	2.36516E-005	5.99601E-002	2.33888E-001	3.57850E+000	9	...........
	8	0.12	2.47895E-001	1.00787E-004	0.00000E+000	2.49844E-005	5.99601E-002	2.47940E-001	3.57850E+000	9	...........
	9	0.133333	2.61931E-001	1.00956E-004	0.00000E+000	2.64436E-005	5.99601E-002	2.61976E-001	3.57850E+000	9	...........
	10	0.146667	2.75948E-001	1.01484E-004	0.00000E+000	2.80042E-005	5.99601E-002	2.75999E-001	3.57850E+000	9	...........
	11	0.16	2.89964E-001	1.00909E-004	0.00000E+000	2.92601E-005	5.99601E-002	2.90023E-001	3.57850E+000	9	...........
	12	0.173333	3.04008E-001	1.00771E-004	0.00000E+000	3.06352E-005	5.99601E-002	3.04065E-001	3.57850E+000	9	...........
	13	0.186667	3.18071E-001	1.00688E-004	0.00000E+000	3.20258E-005	5.99601E-002	3.18130E-001	3.57850E+000	9	...........
	14	0.2	3.32160E-001	1.01566E-004	0.00000E+000	3.37361E-005	5.99601E-002	3.32222E-001	3.57850E+000	9	...........
	15	0.213333	3.46276E-001	1.00842E-004	0.00000E+000	3.49191E-005	5.99601E-002	3.46344E-001	3.57850E+000	9	...........
	16	0.226667	3.60418E-001	9.99801E-005	0.00000E+000	3.60346E-005	5.99601E-002	3.60489E-001	3.57850E+000	9	...........
	17	0.24	3.74584E-001	1.00646E-004	0.00000E+000	3.77003E-005	5.99601E-002	3.74652E-001	3.57850E+000	9	...........
	18	0.253333	3.88769E-001	1.00924E-004	0.00000E+000	3.92362E-005	5.99601E-002	3.88835E-001	3.57850E+000	9	...........
	19	0.266667	4.02944E-001	1.00486E-004	0.00000E+000	4.04904E-005	5.99601E-002	4.03015E-001	3.57850E+000	9	...........
	20	0.28	4.17107E-001	1.01264E-004	0.00000E+000	4.22378E-005	5.99601E-002	4.17189E-001	3.57850E+000	9	...........
	21	0.293333	4.31239E-001	9.97322E-005	0.00000E+000	4.30084E-005	5.99601E-002	4.31326E-001	3.57850E+000	9	...........
	22	0.306667	4.45317E-001	1.01242E-004	0.00000E+000	4.50847E-005	5.99601E-002	4.45407E-001	3.57850E+000	9	...........
	23	0.32	4.59317E-001	1.00724E-004	0.00000E+000	4.62643E-005	5.99601E-002	4.59408E-001	3.57850E+000	9	...........
	24	0.333333	4.73213E-001	1.00254E-004	0.00000E+000	4.74416E-005	5.99601E-002	4.73306E-001	3.57850E+000	9	...........
	25	0.346667	4.86990E-001	1.01701E-004	0.00000E+000	4.95275E-005	5.99601E-002	4.87086E-001	3.57850E+000	9	...........
	26	0.36	5.00618E-001	1.01484E-004	0.00000E+000	5.08045E-005	5.99601E-002	5.00727E-001	3.57850E+000	9	...........
	27	0.373333	5.14093E-001	1.01170E-004	0.00000E+000	5.20107E-005	5.99601E-002	5.14203E-001	3.57850E+000	9	...........
	28	0.386667	5.27384E-001	1.00660E-004	0.00000E+000	5.30867E-005	5.99601E-002	5.27494E-001	3.57850E+000	9	...........
	29	0.4	5.40109E-001	1.01112E-004	0.00000E+000	5.46112E-005	5.99601E-002	5.40347E-001	3.57850E+000	9	...........
	30	0.413333	5.52992E-001	1.00704E-004	0.00000E+000	5.56886E-005	5.99601E-002	5.53241E-001	3.57850E+000	9	...........
	31	0.426667	5.65682E-001	1.00399E-004	0.00000E+000	5.67939E-005	5.99601E-002	5.65946E-001	3.57850E+000	9	...........
	32	0.44	5.78124E-001	1.01005E-004	0.00000E+000	5.83936E-005	5.99601E-002	5.78383E-001	3.57850E+000	9	...........
	33	0.453333	5.90342E-001	1.00894E-004	0.00000E+000	5.95619E-005	5.99601E-002	5.90616E-001	3.57850E+000	9	...........
	34	0.466667	6.02330E-001	1.01430E-004	0.00000E+000	6.10946E-005	5.99601E-002	6.02616E-001	3.57850E+000	9	...........
	35	0.48	6.14111E-001	1.00680E-004	0.00000E+000	6.18289E-005	5.99601E-002	6.14387E-001	3.57850E+000	9	...........
	36	0.493333	6.25631E-001	1.01033E-004	0.00000E+000	6.32097E-005	5.99601E-002	6.25909E-001	3.57850E+000	9	...........
	37	0.506667	6.36916E-001	1.00303E-004	0.00000E+000	6.38846E-005	5.99601E-002	6.37181E-001	3.57850E+000	9	...........
	38	0.52	6.48000E-001	1.00858E-004	0.00000E+000	6.53562E-005	5.99601E-002	6.48276E-001	3.57850E+000	9	...........
	39	0.533333	6.58847E-001	1.00573E-004	0.00000E+000	6.62622E-005	5.99601E-002	6.59110E-001	3.57850E+000	9	...........
	40	0.546667	6.69479E-001	1.00585E-004	0.00000E+000	6.73398E-005	5.99601E-002	6.69754E-001	3.57850E+000	9	...........
	41	0.56	6.79874E-001	1.00534E-004	0.00000E+000	6.83507E-005	5.99601E-002	6.80155E-001	3.57850E+000	9	...........
	42	0.573333	6.90098E-001	1.01250E-004	0.00000E+000	6.98725E-005	5.99601E-002	6.90375E-001	3.57850E+000	9	...........
	43	0.586667	7.00080E-001	1.00256E-004	0.00000E+000	7.01874E-005	5.99601E-002	7.00362E-001	3.57850E+000	9	...........
	44	0.6	7.09849E-001	1.01179E-004	0.00000E+000	7.18220E-005	5.99601E-002	7.10163E-001	3.57850E+000	9	...........
	45	0.613333	7.19489E-001	1.00563E-004	0.00000E+000	7.23536E-005	5.99601E-002	7.19775E-001	3.57850E+000	9	...........
	46	0.626667	7.28898E-001	1.00800E-004	0.00000E+000	7.34730E-005	5.99601E-002	7.29206E-001	3.57850E+000	9	...........
	47	0.64	7.38100E-001	1.01397E-004	0.00000E+000	7.48412E-005	5.99601E-002	7.38408E-001	3.57850E+000	9	...........
	48	0.653333	7.47166E-001	1.00413E-004	0.00000E+000	7.50249E-005	5.99601E-002	7.47469E-001	3.57850E+000	9	...........
	49	0.666667	7.56023E-001	1.01519E-004	0.00000E+000	7.67507E-005	5.99601E-002	7.56316E-001	3.57850E+000	9	...........
	50	0.68	7.64704E-001	1.00613E-004	0.00000E+000	7.69388E-005	5.99601E-002	7.65009E-001	3.57850E+000	9	...........
	51	0.693333	7.73235E-001	1.00312E-004	0.00000E+000	7.75651E-005	5.99601E-002	7.73539E-001	3.57850E+000	9	...........
	52	0.706667	7.81567E-001	1.00560E-004	0.00000E+000	7.85947E-005	5.99601E-002	7.81896E-001	3.57850E+000	9	...........
	53	0.72	7.89756E-001	1.01136E-004	0.00000E+000	7.98724E-005	5.99601E-002	7.90102E-001	3.57850E+000	9	...........
	54	0.733333	7.97834E-001	1.00659E-004	0.00000E+000	8.03095E-005	5.99601E-002	7.98158E-001	3.57868E+000	9	...........
	55	0.746667	8.05695E-001	1.00832E-004	0.00000E+000	8.12402E-005	5.99601E-002	8.06032E-001	3.57990E+000	9	...........
	56	0.76	8.13418E-001	1.00859E-004	0.00000E+000	8.20410E-005	5.99601E-002	8.13758E-001	3.57990E+000	9	...........
	57	0.773333	8.21037E-001	1.00889E-004	0.00000E+000	8.28334E-005	5.99601E-002	8.21391E-001	3.57990E+000	9	...........
	58	0.786667	8.28494E-001	1.00392E-004	0.00000E+000	8.31739E-005	5.99601E-002	8.28817E-001	3.57990E+000	9	...........
	59	0.8	8.35785E-001	1.00775E-004	0.00000E+000	8.42263E-005	5.99601E-002	8.36137E-001	3.57990E+000	9	...........
	60	0.813333	8.42968E-001	1.00270E-004	0.00000E+000	8.45242E-005	5.99601E-002	8.43316E-001	3.57990E+000	9	...........
	61	0.826667	8.50029E-001	1.01270E-004	0.00000E+000	8.60825E-005	5.99601E-002	8.50386E-001	3.57990E+000	9	...........
	62	0.84	8.56933E-001	1.01211E-004	0.00000E+000	8.67307E-005	5.99601E-002	8.57314E-001	3.57990E+000	9	...........
	63	0.853333	8.63732E-001	1.01393E-004	0.00000E+000	8.75763E-005	5.99601E-002	8.64118E-001	3.57990E+000	9	...........
	64	0.866667	8.70444E-001	1.00891E-004	0.00000E+000	8.78198E-005	5.99601E-002	8.70786E-001	3.57990E+000	9	...........
	65	0.88	8.76987E-001	1.01071E-004	0.00000E+000	8.86379E-005	5.99601E-002	8.77329E-001	3.57990E+000	9	...........
	66	0.893333	8.83444E-001	1.01552E-004	0.00000E+000	8.97158E-005	5.99601E-002	8.83795E-001	3.57990E+000	9	...........
	67	0.906667	8.89750E-001	1.00792E-004	0.00000E+000	8.96795E-005	5.99601E-002	8.90078E-001	3.57990E+000	9	...........
	68	0.92	8.95940E-001	1.01126E-004	0.00000E+000	9.06030E-005	5.99601E-002	8.96323E-001	3.57990E+000	9	...........
	69	0.933333	9.02039E-001	1.01693E-004	0.00000E+000	9.17310E-005	5.99601E-002	9.02409E-001	3.57990E+000	9	...........
	70	0.946667	9.07997E-001	1.00842E-004	0.00000E+000	9.15640E-005	5.99601E-002	9.08363E-001	3.57990E+000	9	...........
	71	0.96	9.13875E-001	1.00922E-004	0.00000E+000	9.22301E-005	5.99601E-002	9.14253E-001	3.57990E+000	9	...........
	72	0.97333	9.19634E-001	1.00415E-004	0.00000E+000	9.23447E-005	5.99601E-002	9.19979E-001	3.57990E+000	9	...........
	73	0.98667	9.25313E-001	1.01248E-004	0.00000E+000	9.36862E-005	5.99601E-002	9.25632E-001	3.57990E+000	9	...........
	74	1	9.30830E-001	1.01243E-004	0.00000E+000	9.42400E-005	5.99601E-002	9.31141E-001	3.57990E+000	9	...........
	75	1.01333	9.36256E-001	1.01174E-004	0.00000E+000	9.47249E-005	5.99601E-002	9.36602E-001	3.57990E+000	9	...........
	76	1.02667	9.41568E-001	1.00246E-004	0.00000E+000	9.43883E-005	5.99601E-002	9.41903E-001	3.57990E+000	9	...........
	77	1.04	9.46816E-001	1.01104E-004	0.00000E+000	9.57272E-005	5.99601E-002	9.47143E-001	3.57990E+000	9	...........
	78	1.05333	9.51948E-001	1.01342E-004	0.00000E+000	9.64722E-005	5.99601E-002	9.52275E-001	3.57990E+000	9	...........
	79	1.06667	9.56954E-001	1.00343E-004	0.00000E+000	9.60233E-005	5.99601E-002	9.57254E-001	3.57990E+000	9	...........
	80	1.08	9.61857E-001	1.00428E-004	0.00000E+000	9.65975E-005	5.99601E-002	9.62203E-001	3.57990E+000	9	...........
	81	1.09333	9.66659E-001	1.00924E-004	0.00000E+000	9.75591E-005	5.99601E-002	9.67003E-001	3.57990E+000	9	...........
	82	1.10667	9.71390E-001	1.01243E-004	0.00000E+000	9.83464E-005	5.99601E-002	9.71748E-001	3.57990E+000	9	...........
	83	1.12	9.76045E-001	1.01808E-004	0.00000E+000	9.93688E-005	5.99601E-002	9.76378E-001	3.57990E+000	9	...........
	84	1.13333	9.80543E-001	1.01230E-004	0.00000E+000	9.92607E-005	5.99601E-002	9.80913E-001	3.57990E+000	9	...........
	85	1.14667	9.84974E-001	1.01203E-004	0.00000E+000	9.96826E-005	5.99601E-002	9.85341E-001	3.57990E+000	9	...........
	86	1.16	9.89318E-001	1.00612E-004	0.00000E+000	9.95368E-005	5.99601E-002	9.89670E-001	3.57990E+000	9	...........
	87	1.17333	9.93534E-001	1.00873E-004	0.00000E+000	1.00221E-004	5.99601E-002	9.93907E-001	3.57990E+000	9	...........
	88	1.18667	9.97691E-001	1.01045E-004	0.00000E+000	1.00812E-004	5.99601E-002	9.98075E-001	3.57990E+000	9	...........
	89	1.19	1.00024E+000	9.87309E-005	0.00000E+000	9.87547E-005	5.99601E-002	1.00061E+000	3.57990E+000	9	...........
STARTTIMEOFFSET	QUANT	2206.762	Start Time Offset (s)
