EXPLAIN
TAG	PWR800_CHARGE
TITLE	LABEL	PWR Cyclic Charge Discharge (Cell) - Charge Step	Test &Identifier
DATE	LABEL	13-7-2017	Date
TIME	LABEL	15:53:16	Time
NOTES	NOTES	2	&Notes...
	supercap test cell
	6M KOH
PSTAT	PSTAT	IFC5000-01520	Potentiostat
CAPACITY	QUANT	1.00000E-003	Capacity (A-hr)
CELLTYPE	SELECTOR	1	&Cell Type
WORKINGCONNECTION	SELECTOR	0	&Working Lead
MAXCHARGETIME	VARIABLEANDUNITS	1.00000E+002	s	1.00000E+002	second(s)	Max &Charge Time
CHARGECURRENT	QUANT	1.00000E-004	&Charge Current (A) 
VOLTAGEFINISH	TWOPARAM	F	1.00000E-003	3.60000E+003	&Voltage Finish	 I (A) < 	Max Time(s)
SAMPLETIME	QUANT	1.00000E-002	Sa&mple Period (s)
CHARGESTOPAT1	MULTIPARAM	4	1.00000E+000	Charge Stop At &1	Voltage > Limit	V
CHARGESTOPAT2	MULTIPARAM	0	0.00000E+000	Charge Stop At &2	None	N/A
AESBHCSELECTOR	TOGGLE	F	Save Both Half Cells
IRCOMP	TOGGLE	F	IR &Measure
EOC	QUANT	0	Open Circuit (V)
SEQUENCER	TOGGLE	TRUE	Run as Sequence
PSTATMODEL	IQUANT	53	Pstat Model
PSTATSECTION	LABEL	IFC5000-01520	Pstat Section
PSTATSERIALNO	LABEL	01520	Pstat Serial Number
CTRLMODE	IQUANT	0	Control Mode
ELECTROMETER	IQUANT	1	RE=0 or CS=1
IESTAB	IQUANT	0	I/E Stability
CASPEED	IQUANT	4	Control Amp Speed
CONVENTION	IQUANT	1	Current Convention
ICHRANGE	IQUANT	2	Ich Range
ICHRANGEMODE	TOGGLE	T	Ich Auto Range
ICHOFFSETENABLE	TOGGLE	F	Ich Offset Enable
ICHOFFSET	QUANT	0	Ich Offset (V)
ICHFILTER	IQUANT	1	Ich Filter
VCHRANGE	IQUANT	2	Vch Range
VCHRANGEMODE	TOGGLE	T	Vch Auto Range
VCHOFFSETENABLE	TOGGLE	F	Vch Offset Enable
VCHOFFSET	QUANT	0	Vch Offset (V)
VCHFILTER	IQUANT	1	Vch Filter
IERANGELOWERLIMIT	IQUANT	9	I/E Range Lower Limit
IERANGEMODE	TOGGLE	F	I/E AutoRange
IERANGE	IQUANT	9	I/E Range
ACHSELECT	IQUANT	1	Ach Select
ACHRANGE	IQUANT	2	Ach Range
ACHOFFSETENABLE	TOGGLE	F	Ach Offset Enable
ACHOFFSET	QUANT	0	Ach Offset (V)
ACHFILTER	IQUANT	1	Ach Filter
CABLEID	IQUANT	14	Cable ID
DCCALDATE	LABEL	5-7-2017	DC Calibration Date
ACCALDATE	LABEL	12/3/2015	AC Calibration Date
FRAMEWORKVERSION	QUANT	7.01	Framework Version
INSTRUMENTVERSION	LABEL	4.00	Instrument Version
CURVE	TABLE	89
	Pt	T	Vf	Im	Vu	Pwr	Sig	Ach	Temp	IERange	Over
	#	s	V	A	V	W	V	V	deg C	#	bits
	0	0.013333	1.32414E-001	1.01555E-004	0.00000E+000	1.34473E-005	5.99601E-002	1.32455E-001	3.57930E+000	9	...........
	1	0.026667	1.47739E-001	1.01000E-004	0.00000E+000	1.49216E-005	5.99601E-002	1.47756E-001	3.57930E+000	9	...........
	2	0.04	1.62618E-001	1.00539E-004	0.00000E+000	1.63494E-005	5.99601E-002	1.62638E-001	3.57930E+000	9	...........
	3	0.053333	1.77240E-001	1.00903E-004	0.00000E+000	1.78841E-005	5.99601E-002	1.77264E-001	3.57930E+000	9	...........
	4	0.066667	1.91661E-001	1.00974E-004	0.00000E+000	1.93528E-005	5.99601E-002	1.91689E-001	3.57930E+000	9	...........
	5	0.08	2.05948E-001	1.01286E-004	0.00000E+000	2.08595E-005	5.99601E-002	2.05982E-001	3.57930E+000	9	...........
	6	0.093333	2.20141E-001	1.01721E-004	0.00000E+000	2.23930E-005	5.99601E-002	2.20175E-001	3.57930E+000	9	...........
	7	0.106667	2.34256E-001	1.01711E-004	0.00000E+000	2.38263E-005	5.99601E-002	2.34292E-001	3.57930E+000	9	...........
	8	0.12	2.48331E-001	1.00557E-004	0.00000E+000	2.49715E-005	5.99601E-002	2.48368E-001	3.57930E+000	9	...........
	9	0.133333	2.62375E-001	1.00832E-004	0.00000E+000	2.64559E-005	5.99601E-002	2.62426E-001	3.57930E+000	9	...........
	10	0.146667	2.76416E-001	1.00737E-004	0.00000E+000	2.78452E-005	5.99601E-002	2.76470E-001	3.57930E+000	9	...........
	11	0.16	2.90463E-001	1.00644E-004	0.00000E+000	2.92333E-005	5.99601E-002	2.90514E-001	3.57930E+000	9	...........
	12	0.173333	3.04519E-001	1.00455E-004	0.00000E+000	3.05905E-005	5.99601E-002	3.04578E-001	3.57930E+000	9	...........
	13	0.186667	3.18608E-001	1.00869E-004	0.00000E+000	3.21376E-005	5.99601E-002	3.18667E-001	3.57930E+000	9	...........
	14	0.2	3.32721E-001	1.00765E-004	0.00000E+000	3.35266E-005	5.99601E-002	3.32779E-001	3.57930E+000	9	...........
	15	0.213333	3.46856E-001	1.01104E-004	0.00000E+000	3.50686E-005	5.99601E-002	3.46918E-001	3.57930E+000	9	...........
	16	0.226667	3.61020E-001	1.00394E-004	0.00000E+000	3.62441E-005	5.99601E-002	3.61086E-001	3.57930E+000	9	...........
	17	0.24	3.75209E-001	1.00180E-004	0.00000E+000	3.75885E-005	5.99601E-002	3.75278E-001	3.57930E+000	9	...........
	18	0.253333	3.89411E-001	1.00698E-004	0.00000E+000	3.92129E-005	5.99601E-002	3.89483E-001	3.57930E+000	9	...........
	19	0.266667	4.03621E-001	1.01077E-004	0.00000E+000	4.07969E-005	5.99601E-002	4.03691E-001	3.57930E+000	9	...........
	20	0.28	4.17808E-001	1.01371E-004	0.00000E+000	4.23537E-005	5.99601E-002	4.17887E-001	3.57930E+000	9	...........
	21	0.293333	4.31960E-001	1.01498E-004	0.00000E+000	4.38431E-005	5.99601E-002	4.32046E-001	3.57930E+000	9	...........
	22	0.306667	4.46061E-001	1.00286E-004	0.00000E+000	4.47338E-005	5.99601E-002	4.46141E-001	3.57930E+000	9	...........
	23	0.32	4.60083E-001	1.01058E-004	0.00000E+000	4.64953E-005	5.99601E-002	4.60170E-001	3.57930E+000	9	...........
	24	0.333333	4.74004E-001	9.99332E-005	0.00000E+000	4.73688E-005	5.99601E-002	4.74093E-001	3.57930E+000	9	...........
	25	0.346667	4.87801E-001	1.01278E-004	0.00000E+000	4.94036E-005	5.99601E-002	4.87890E-001	3.57930E+000	9	...........
	26	0.36	5.01447E-001	1.01664E-004	0.00000E+000	5.09790E-005	5.99601E-002	5.01543E-001	3.57930E+000	9	...........
	27	0.373333	5.14938E-001	1.01151E-004	0.00000E+000	5.20866E-005	5.99601E-002	5.15040E-001	3.57930E+000	9	...........
	28	0.386667	5.28251E-001	1.00676E-004	0.00000E+000	5.31822E-005	5.99601E-002	5.28360E-001	3.57930E+000	9	...........
	29	0.4	5.41004E-001	1.00972E-004	0.00000E+000	5.46262E-005	5.99601E-002	5.41237E-001	3.57930E+000	9	...........
	30	0.413333	5.53912E-001	1.01352E-004	0.00000E+000	5.61403E-005	5.99601E-002	5.54184E-001	3.57930E+000	9	...........
	31	0.426667	5.66645E-001	1.01292E-004	0.00000E+000	5.73965E-005	5.99601E-002	5.66887E-001	3.57930E+000	9	...........
	32	0.44	5.79064E-001	1.00780E-004	0.00000E+000	5.83583E-005	5.99601E-002	5.79345E-001	3.57930E+000	9	...........
	33	0.453333	5.91324E-001	1.00489E-004	0.00000E+000	5.94213E-005	5.99601E-002	5.91591E-001	3.57930E+000	9	...........
	34	0.466667	6.03299E-001	9.97999E-005	0.00000E+000	6.02092E-005	5.99601E-002	6.03582E-001	3.57930E+000	9	...........
	35	0.48	6.15111E-001	1.01046E-004	0.00000E+000	6.21545E-005	5.99601E-002	6.15361E-001	3.57930E+000	9	...........
	36	0.493333	6.26646E-001	9.97468E-005	0.00000E+000	6.25059E-005	5.99601E-002	6.26879E-001	3.57930E+000	9	...........
	37	0.506667	6.37945E-001	1.00861E-004	0.00000E+000	6.43434E-005	5.99601E-002	6.38194E-001	3.57930E+000	9	...........
	38	0.52	6.49034E-001	1.00421E-004	0.00000E+000	6.51765E-005	5.99601E-002	6.49281E-001	3.57930E+000	9	...........
	39	0.533333	6.59895E-001	1.01617E-004	0.00000E+000	6.70565E-005	5.99601E-002	6.60159E-001	3.57930E+000	9	...........
	40	0.546667	6.70553E-001	1.00500E-004	0.00000E+000	6.73906E-005	5.99601E-002	6.70833E-001	3.57930E+000	9	...........
	41	0.56	6.80976E-001	1.01023E-004	0.00000E+000	6.87942E-005	5.99601E-002	6.81267E-001	3.57930E+000	9	...........
	42	0.573333	6.91193E-001	1.00882E-004	0.00000E+000	6.97292E-005	5.99601E-002	6.91465E-001	3.57930E+000	9	...........
	43	0.586667	7.01192E-001	1.00675E-004	0.00000E+000	7.05925E-005	5.99601E-002	7.01480E-001	3.57930E+000	9	...........
	44	0.6	7.10982E-001	1.01039E-004	0.00000E+000	7.18367E-005	5.99601E-002	7.11296E-001	3.57930E+000	9	...........
	45	0.613333	7.20643E-001	1.01043E-004	0.00000E+000	7.28158E-005	5.99601E-002	7.20903E-001	3.57930E+000	9	...........
	46	0.626667	7.30030E-001	1.01534E-004	0.00000E+000	7.41226E-005	5.99601E-002	7.30309E-001	3.57930E+000	9	...........
	47	0.64	7.39266E-001	1.01437E-004	0.00000E+000	7.49887E-005	5.99601E-002	7.39540E-001	3.57930E+000	9	...........
	48	0.653333	7.48321E-001	1.02650E-004	0.00000E+000	7.68155E-005	5.99601E-002	7.48571E-001	3.57930E+000	9	...........
	49	0.666667	7.57211E-001	1.00191E-004	0.00000E+000	7.58654E-005	5.99601E-002	7.57447E-001	3.57930E+000	9	...........
	50	0.68	7.65882E-001	1.00924E-004	0.00000E+000	7.72959E-005	5.99601E-002	7.66165E-001	3.57930E+000	9	...........
	51	0.693333	7.74426E-001	1.01217E-004	0.00000E+000	7.83850E-005	5.99601E-002	7.74677E-001	3.57930E+000	9	...........
	52	0.706667	7.82781E-001	1.00229E-004	0.00000E+000	7.84574E-005	5.99601E-002	7.83011E-001	3.57930E+000	9	...........
	53	0.72	7.90986E-001	1.00865E-004	0.00000E+000	7.97826E-005	5.99601E-002	7.91231E-001	3.57930E+000	9	...........
	54	0.733333	7.99067E-001	1.00805E-004	0.00000E+000	8.05502E-005	5.99601E-002	7.99301E-001	3.57930E+000	9	...........
	55	0.746667	8.06937E-001	1.01280E-004	0.00000E+000	8.17269E-005	5.99601E-002	8.07191E-001	3.57930E+000	9	...........
	56	0.76	8.14671E-001	1.01526E-004	0.00000E+000	8.27106E-005	5.99601E-002	8.14960E-001	3.57930E+000	9	...........
	57	0.773333	8.22275E-001	1.01019E-004	0.00000E+000	8.30653E-005	5.99601E-002	8.22592E-001	3.57930E+000	9	...........
	58	0.786667	8.29746E-001	1.01201E-004	0.00000E+000	8.39713E-005	5.99601E-002	8.30041E-001	3.57930E+000	9	...........
	59	0.8	8.37043E-001	1.00946E-004	0.00000E+000	8.44961E-005	5.99601E-002	8.37352E-001	3.57930E+000	9	...........
	60	0.813333	8.44242E-001	1.00867E-004	0.00000E+000	8.51560E-005	5.99601E-002	8.44558E-001	3.57930E+000	9	...........
	61	0.826667	8.51309E-001	1.00940E-004	0.00000E+000	8.59308E-005	5.99601E-002	8.51657E-001	3.57930E+000	9	...........
	62	0.84	8.58227E-001	1.01018E-004	0.00000E+000	8.66963E-005	5.99601E-002	8.58568E-001	3.57930E+000	9	...........
	63	0.853333	8.65000E-001	1.01082E-004	0.00000E+000	8.74363E-005	5.99601E-002	8.65354E-001	3.57930E+000	9	...........
	64	0.866667	8.71697E-001	1.01096E-004	0.00000E+000	8.81251E-005	5.99601E-002	8.72067E-001	3.57930E+000	9	...........
	65	0.88	8.78251E-001	1.00917E-004	0.00000E+000	8.86303E-005	5.99601E-002	8.78601E-001	3.57930E+000	9	...........
	66	0.893333	8.84673E-001	1.01209E-004	0.00000E+000	8.95365E-005	5.99601E-002	8.85043E-001	3.57930E+000	9	...........
	67	0.906667	8.90978E-001	1.00895E-004	0.00000E+000	8.98952E-005	5.99601E-002	8.91337E-001	3.57930E+000	9	...........
	68	0.92	8.97191E-001	1.00031E-004	0.00000E+000	8.97470E-005	5.99601E-002	8.97578E-001	3.57930E+000	9	...........
	69	0.933333	9.03274E-001	1.00878E-004	0.00000E+000	9.11207E-005	5.99601E-002	9.03662E-001	3.57930E+000	9	...........
	70	0.946667	9.09269E-001	1.00983E-004	0.00000E+000	9.18211E-005	5.99601E-002	9.09629E-001	3.57930E+000	9	...........
	71	0.96	9.15108E-001	1.01087E-004	0.00000E+000	9.25052E-005	5.99601E-002	9.15507E-001	3.57930E+000	9	...........
	72	0.97333	9.20902E-001	9.98468E-005	0.00000E+000	9.19491E-005	5.99601E-002	9.21267E-001	3.57912E+000	9	...........
	73	0.98667	9.26569E-001	1.01172E-004	0.00000E+000	9.37429E-005	5.99601E-002	9.26910E-001	3.57860E+000	9	...........
	74	1	9.32097E-001	1.00670E-004	0.00000E+000	9.38341E-005	5.99601E-002	9.32458E-001	3.57860E+000	9	...........
	75	1.01333	9.37512E-001	1.00899E-004	0.00000E+000	9.45941E-005	5.99601E-002	9.37873E-001	3.57860E+000	9	...........
	76	1.02667	9.42844E-001	1.01344E-004	0.00000E+000	9.55515E-005	5.99601E-002	9.43181E-001	3.57860E+000	9	...........
	77	1.04	9.48077E-001	1.00886E-004	0.00000E+000	9.56472E-005	5.99601E-002	9.48426E-001	3.57860E+000	9	...........
	78	1.05333	9.53206E-001	1.00823E-004	0.00000E+000	9.61051E-005	5.99601E-002	9.53548E-001	3.57860E+000	9	...........
	79	1.06667	9.58201E-001	1.01520E-004	0.00000E+000	9.72766E-005	5.99601E-002	9.58528E-001	3.57860E+000	9	...........
	80	1.08	9.63101E-001	1.01200E-004	0.00000E+000	9.74660E-005	5.99601E-002	9.63440E-001	3.57860E+000	9	...........
	81	1.09333	9.67907E-001	1.00937E-004	0.00000E+000	9.76972E-005	5.99601E-002	9.68253E-001	3.57860E+000	9	...........
	82	1.10667	9.72631E-001	1.01726E-004	0.00000E+000	9.89422E-005	5.99601E-002	9.73015E-001	3.57860E+000	9	...........
	83	1.12	9.77276E-001	1.01297E-004	0.00000E+000	9.89952E-005	5.99601E-002	9.77633E-001	3.57860E+000	9	...........
	84	1.13333	9.81776E-001	1.01010E-004	0.00000E+000	9.91687E-005	5.99601E-002	9.82132E-001	3.57860E+000	9	...........
	85	1.14667	9.86187E-001	1.00192E-004	0.00000E+000	9.88077E-005	5.99601E-002	9.86549E-001	3.57860E+000	9	...........
	86	1.16	9.90521E-001	1.01449E-004	0.00000E+000	1.00488E-004	5.99601E-002	9.90857E-001	3.57860E+000	9	...........
	87	1.17333	9.94750E-001	1.00839E-004	0.00000E+000	1.00309E-004	5.99601E-002	9.95102E-001	3.57860E+000	9	...........
	88	1.185	9.98633E-001	1.01664E-004	0.00000E+000	1.01525E-004	5.99601E-002	9.99002E-001	3.57860E+000	9	...........
STARTTIMEOFFSET	QUANT	2313.558	Start Time Offset (s)
