EXPLAIN
TAG	PWR800_CHARGE
TITLE	LABEL	PWR Cyclic Charge Discharge (Cell) - Charge Step	Test &Identifier
DATE	LABEL	13-7-2017	Date
TIME	LABEL	15:11:42	Time
NOTES	NOTES	2	&Notes...
	supercap test cell
	6M KOH
PSTAT	PSTAT	IFC5000-01520	Potentiostat
CAPACITY	QUANT	1.00000E-003	Capacity (A-hr)
CELLTYPE	SELECTOR	1	&Cell Type
WORKINGCONNECTION	SELECTOR	0	&Working Lead
MAXCHARGETIME	VARIABLEANDUNITS	1.00000E+002	s	1.00000E+002	second(s)	Max &Charge Time
CHARGECURRENT	QUANT	1.00000E-004	&Charge Current (A) 
VOLTAGEFINISH	TWOPARAM	F	1.00000E-003	3.60000E+003	&Voltage Finish	 I (A) < 	Max Time(s)
SAMPLETIME	QUANT	1.00000E-002	Sa&mple Period (s)
CHARGESTOPAT1	MULTIPARAM	4	1.00000E+000	Charge Stop At &1	Voltage > Limit	V
CHARGESTOPAT2	MULTIPARAM	0	0.00000E+000	Charge Stop At &2	None	N/A
AESBHCSELECTOR	TOGGLE	F	Save Both Half Cells
IRCOMP	TOGGLE	F	IR &Measure
EOC	QUANT	0	Open Circuit (V)
SEQUENCER	TOGGLE	TRUE	Run as Sequence
PSTATMODEL	IQUANT	53	Pstat Model
PSTATSECTION	LABEL	IFC5000-01520	Pstat Section
PSTATSERIALNO	LABEL	01520	Pstat Serial Number
CTRLMODE	IQUANT	0	Control Mode
ELECTROMETER	IQUANT	1	RE=0 or CS=1
IESTAB	IQUANT	0	I/E Stability
CASPEED	IQUANT	4	Control Amp Speed
CONVENTION	IQUANT	1	Current Convention
ICHRANGE	IQUANT	2	Ich Range
ICHRANGEMODE	TOGGLE	T	Ich Auto Range
ICHOFFSETENABLE	TOGGLE	F	Ich Offset Enable
ICHOFFSET	QUANT	0	Ich Offset (V)
ICHFILTER	IQUANT	1	Ich Filter
VCHRANGE	IQUANT	2	Vch Range
VCHRANGEMODE	TOGGLE	T	Vch Auto Range
VCHOFFSETENABLE	TOGGLE	F	Vch Offset Enable
VCHOFFSET	QUANT	0	Vch Offset (V)
VCHFILTER	IQUANT	1	Vch Filter
IERANGELOWERLIMIT	IQUANT	9	I/E Range Lower Limit
IERANGEMODE	TOGGLE	F	I/E AutoRange
IERANGE	IQUANT	9	I/E Range
ACHSELECT	IQUANT	1	Ach Select
ACHRANGE	IQUANT	2	Ach Range
ACHOFFSETENABLE	TOGGLE	F	Ach Offset Enable
ACHOFFSET	QUANT	0	Ach Offset (V)
ACHFILTER	IQUANT	1	Ach Filter
CABLEID	IQUANT	14	Cable ID
DCCALDATE	LABEL	5-7-2017	DC Calibration Date
ACCALDATE	LABEL	12/3/2015	AC Calibration Date
FRAMEWORKVERSION	QUANT	7.01	Framework Version
INSTRUMENTVERSION	LABEL	4.00	Instrument Version
CURVE	TABLE	97
	Pt	T	Vf	Im	Vu	Pwr	Sig	Ach	Temp	IERange	Over
	#	s	V	A	V	W	V	V	deg C	#	bits
	0	0.013333	1.33253E-001	1.00697E-004	0.00000E+000	1.34181E-005	5.99601E-002	1.33291E-001	3.57920E+000	9	...........
	1	0.026667	1.48479E-001	1.00795E-004	0.00000E+000	1.49659E-005	5.99601E-002	1.48495E-001	3.57920E+000	9	...........
	2	0.04	1.63262E-001	1.00154E-004	0.00000E+000	1.63514E-005	5.99601E-002	1.63286E-001	3.57920E+000	9	...........
	3	0.053333	1.77782E-001	1.00550E-004	0.00000E+000	1.78760E-005	5.99601E-002	1.77812E-001	3.57920E+000	9	...........
	4	0.066667	1.92107E-001	9.99728E-005	0.00000E+000	1.92055E-005	5.99601E-002	1.92141E-001	3.57920E+000	9	...........
	5	0.08	2.06290E-001	1.01796E-004	0.00000E+000	2.09996E-005	5.99601E-002	2.06326E-001	3.57920E+000	9	...........
	6	0.093333	2.20367E-001	1.01079E-004	0.00000E+000	2.22746E-005	5.99601E-002	2.20409E-001	3.57920E+000	9	...........
	7	0.106667	2.34373E-001	1.00373E-004	0.00000E+000	2.35247E-005	5.99601E-002	2.34414E-001	3.57920E+000	9	...........
	8	0.12	2.48313E-001	1.00677E-004	0.00000E+000	2.49994E-005	5.99601E-002	2.48360E-001	3.57920E+000	9	...........
	9	0.133333	2.62216E-001	1.01151E-004	0.00000E+000	2.65234E-005	5.99601E-002	2.62270E-001	3.57920E+000	9	...........
	10	0.146667	2.76103E-001	1.00701E-004	0.00000E+000	2.78039E-005	5.99601E-002	2.76155E-001	3.57920E+000	9	...........
	11	0.16	2.89974E-001	1.01200E-004	0.00000E+000	2.93454E-005	5.99601E-002	2.90033E-001	3.57920E+000	9	...........
	12	0.173333	3.03847E-001	1.00847E-004	0.00000E+000	3.06421E-005	5.99601E-002	3.03907E-001	3.57920E+000	9	...........
	13	0.186667	3.17718E-001	1.00709E-004	0.00000E+000	3.19972E-005	5.99601E-002	3.17776E-001	3.57920E+000	9	...........
	14	0.2	3.31577E-001	1.00556E-004	0.00000E+000	3.33421E-005	5.99601E-002	3.31644E-001	3.57920E+000	9	...........
	15	0.213333	3.45443E-001	1.01226E-004	0.00000E+000	3.49679E-005	5.99601E-002	3.45511E-001	3.57920E+000	9	...........
	16	0.226667	3.59300E-001	1.00004E-004	0.00000E+000	3.59315E-005	5.99601E-002	3.59366E-001	3.57920E+000	9	...........
	17	0.24	3.73138E-001	1.01332E-004	0.00000E+000	3.78110E-005	5.99601E-002	3.73211E-001	3.57920E+000	9	...........
	18	0.253333	3.86951E-001	1.00952E-004	0.00000E+000	3.90635E-005	5.99601E-002	3.87025E-001	3.57920E+000	9	...........
	19	0.266667	4.00722E-001	9.93560E-005	0.00000E+000	3.98142E-005	5.99601E-002	4.00801E-001	3.57920E+000	9	...........
	20	0.28	4.14441E-001	1.00609E-004	0.00000E+000	4.16966E-005	5.99601E-002	4.14521E-001	3.57920E+000	9	...........
	21	0.293333	4.28088E-001	1.01205E-004	0.00000E+000	4.33248E-005	5.99601E-002	4.28171E-001	3.57920E+000	9	...........
	22	0.306667	4.41630E-001	1.01093E-004	0.00000E+000	4.46457E-005	5.99601E-002	4.41726E-001	3.57920E+000	9	...........
	23	0.32	4.55069E-001	1.01100E-004	0.00000E+000	4.60076E-005	5.99601E-002	4.55163E-001	3.57920E+000	9	...........
	24	0.333333	4.68376E-001	1.00696E-004	0.00000E+000	4.71635E-005	5.99601E-002	4.68469E-001	3.57920E+000	9	...........
	25	0.346667	4.81533E-001	1.01433E-004	0.00000E+000	4.88431E-005	5.99601E-002	4.81635E-001	3.57920E+000	9	...........
	26	0.36	4.94520E-001	1.01475E-004	0.00000E+000	5.01815E-005	5.99601E-002	4.94628E-001	3.57920E+000	9	...........
	27	0.373333	5.07329E-001	1.00375E-004	0.00000E+000	5.09232E-005	5.99601E-002	5.07440E-001	3.57920E+000	9	...........
	28	0.386667	5.19952E-001	1.00673E-004	0.00000E+000	5.23451E-005	5.99601E-002	5.20064E-001	3.57920E+000	9	...........
	29	0.4	5.32222E-001	1.01053E-004	0.00000E+000	5.37828E-005	5.99601E-002	5.32382E-001	3.57920E+000	9	...........
	30	0.413333	5.44206E-001	1.01003E-004	0.00000E+000	5.49666E-005	5.99601E-002	5.44457E-001	3.57920E+000	9	...........
	31	0.426667	5.56186E-001	1.00956E-004	0.00000E+000	5.61505E-005	5.99601E-002	5.56434E-001	3.57920E+000	9	...........
	32	0.44	5.67978E-001	9.99020E-005	0.00000E+000	5.67421E-005	5.99601E-002	5.68217E-001	3.57920E+000	9	...........
	33	0.453333	5.79519E-001	1.00471E-004	0.00000E+000	5.82248E-005	5.99601E-002	5.79755E-001	3.57920E+000	9	...........
	34	0.466667	5.90837E-001	1.00658E-004	0.00000E+000	5.94727E-005	5.99601E-002	5.91121E-001	3.57920E+000	9	...........
	35	0.48	6.01931E-001	1.01152E-004	0.00000E+000	6.08867E-005	5.99601E-002	6.02235E-001	3.57920E+000	9	...........
	36	0.493333	6.12828E-001	1.01168E-004	0.00000E+000	6.19985E-005	5.99601E-002	6.13128E-001	3.57920E+000	9	...........
	37	0.506667	6.23518E-001	1.01255E-004	0.00000E+000	6.31346E-005	5.99601E-002	6.23806E-001	3.57920E+000	9	...........
	38	0.52	6.33957E-001	1.00619E-004	0.00000E+000	6.37880E-005	5.99601E-002	6.34252E-001	3.57920E+000	9	...........
	39	0.533333	6.44237E-001	1.00467E-004	0.00000E+000	6.47244E-005	5.99601E-002	6.44521E-001	3.57920E+000	9	...........
	40	0.546667	6.54254E-001	1.00363E-004	0.00000E+000	6.56626E-005	5.99601E-002	6.54569E-001	3.57920E+000	9	...........
	41	0.56	6.64106E-001	1.01282E-004	0.00000E+000	6.72623E-005	5.99601E-002	6.64418E-001	3.57920E+000	9	...........
	42	0.573333	6.73767E-001	1.00530E-004	0.00000E+000	6.77339E-005	5.99601E-002	6.74055E-001	3.57920E+000	9	...........
	43	0.586667	6.83185E-001	1.00610E-004	0.00000E+000	6.87356E-005	5.99601E-002	6.83500E-001	3.57920E+000	9	...........
	44	0.6	6.92465E-001	9.99635E-005	0.00000E+000	6.92212E-005	5.99601E-002	6.92784E-001	3.57920E+000	9	...........
	45	0.613333	7.01562E-001	1.01371E-004	0.00000E+000	7.11181E-005	5.99601E-002	7.01853E-001	3.57920E+000	9	...........
	46	0.626667	7.10447E-001	1.00499E-004	0.00000E+000	7.13992E-005	5.99601E-002	7.10754E-001	3.57920E+000	9	...........
	47	0.64	7.19210E-001	1.00632E-004	0.00000E+000	7.23758E-005	5.99601E-002	7.19510E-001	3.57920E+000	9	...........
	48	0.653333	7.27768E-001	1.01014E-004	0.00000E+000	7.35145E-005	5.99601E-002	7.28054E-001	3.57920E+000	9	...........
	49	0.666667	7.36151E-001	1.01083E-004	0.00000E+000	7.44127E-005	5.99601E-002	7.36453E-001	3.57920E+000	9	...........
	50	0.68	7.44394E-001	1.00782E-004	0.00000E+000	7.50218E-005	5.99601E-002	7.44721E-001	3.57920E+000	9	...........
	51	0.693333	7.52482E-001	1.00428E-004	0.00000E+000	7.55704E-005	5.99601E-002	7.52810E-001	3.57920E+000	9	...........
	52	0.706667	7.60415E-001	1.00353E-004	0.00000E+000	7.63100E-005	5.99601E-002	7.60742E-001	3.57920E+000	9	...........
	53	0.72	7.68200E-001	1.01103E-004	0.00000E+000	7.76676E-005	5.99601E-002	7.68547E-001	3.57920E+000	9	...........
	54	0.733333	7.75839E-001	1.01468E-004	0.00000E+000	7.87228E-005	5.99601E-002	7.76191E-001	3.57920E+000	9	...........
	55	0.746667	7.83353E-001	1.01132E-004	0.00000E+000	7.92225E-005	5.99601E-002	7.83705E-001	3.57920E+000	9	...........
	56	0.76	7.90707E-001	1.01048E-004	0.00000E+000	7.98995E-005	5.99601E-002	7.91074E-001	3.57920E+000	9	...........
	57	0.773333	7.97963E-001	1.01435E-004	0.00000E+000	8.09410E-005	5.99601E-002	7.98310E-001	3.57920E+000	9	...........
	58	0.786667	8.05055E-001	1.01053E-004	0.00000E+000	8.13535E-005	5.99601E-002	8.05447E-001	3.57920E+000	9	...........
	59	0.8	8.12053E-001	1.01626E-004	0.00000E+000	8.25259E-005	5.99601E-002	8.12417E-001	3.57920E+000	9	...........
	60	0.813333	8.18909E-001	1.00775E-004	0.00000E+000	8.25256E-005	5.99601E-002	8.19291E-001	3.57920E+000	9	...........
	61	0.826667	8.25668E-001	1.00536E-004	0.00000E+000	8.30097E-005	5.99601E-002	8.26032E-001	3.57920E+000	9	...........
	62	0.84	8.32297E-001	1.00805E-004	0.00000E+000	8.38999E-005	5.99601E-002	8.32658E-001	3.57920E+000	9	...........
	63	0.853333	8.38806E-001	1.01195E-004	0.00000E+000	8.48830E-005	5.99601E-002	8.39168E-001	3.57920E+000	9	...........
	64	0.866667	8.45221E-001	1.01302E-004	0.00000E+000	8.56228E-005	5.99601E-002	8.45604E-001	3.57920E+000	9	...........
	65	0.88	8.51554E-001	1.00272E-004	0.00000E+000	8.53869E-005	5.99601E-002	8.51906E-001	3.57983E+000	9	...........
	66	0.893333	8.57708E-001	1.02220E-004	0.00000E+000	8.76751E-005	5.99601E-002	8.58094E-001	3.58020E+000	9	...........
	67	0.906667	8.63798E-001	1.01090E-004	0.00000E+000	8.73211E-005	5.99601E-002	8.64167E-001	3.58020E+000	9	...........
	68	0.92	8.69807E-001	1.01026E-004	0.00000E+000	8.78732E-005	5.99601E-002	8.70152E-001	3.58020E+000	9	...........
	69	0.933333	8.75699E-001	1.01051E-004	0.00000E+000	8.84904E-005	5.99601E-002	8.76042E-001	3.58020E+000	9	...........
	70	0.946667	8.81467E-001	1.00943E-004	0.00000E+000	8.89778E-005	5.99601E-002	8.81818E-001	3.58020E+000	9	...........
	71	0.96	8.87154E-001	1.00840E-004	0.00000E+000	8.94604E-005	5.99601E-002	8.87509E-001	3.58020E+000	9	...........
	72	0.97333	8.92745E-001	1.01182E-004	0.00000E+000	9.03302E-005	5.99601E-002	8.93093E-001	3.58020E+000	9	...........
	73	0.98667	8.98246E-001	1.00249E-004	0.00000E+000	9.00482E-005	5.99601E-002	8.98612E-001	3.58020E+000	9	...........
	74	1	9.03644E-001	1.01424E-004	0.00000E+000	9.16514E-005	5.99601E-002	9.04004E-001	3.58020E+000	9	...........
	75	1.01333	9.08972E-001	1.00346E-004	0.00000E+000	9.12116E-005	5.99601E-002	9.09315E-001	3.58020E+000	9	...........
	76	1.02667	9.14187E-001	1.01101E-004	0.00000E+000	9.24254E-005	5.99601E-002	9.14534E-001	3.58020E+000	9	...........
	77	1.04	9.19329E-001	1.00374E-004	0.00000E+000	9.22767E-005	5.99601E-002	9.19675E-001	3.58020E+000	9	...........
	78	1.05333	9.24414E-001	1.00969E-004	0.00000E+000	9.33371E-005	5.99601E-002	9.24728E-001	3.58020E+000	9	...........
	79	1.06667	9.29361E-001	1.00659E-004	0.00000E+000	9.35490E-005	5.99601E-002	9.29675E-001	3.58020E+000	9	...........
	80	1.08	9.34218E-001	1.00464E-004	0.00000E+000	9.38549E-005	5.99601E-002	9.34550E-001	3.58020E+000	9	...........
	81	1.09333	9.38993E-001	1.00826E-004	0.00000E+000	9.46751E-005	5.99601E-002	9.39333E-001	3.58020E+000	9	...........
	82	1.10667	9.43684E-001	1.01234E-004	0.00000E+000	9.55325E-005	5.99601E-002	9.43996E-001	3.58020E+000	9	...........
	83	1.12	9.48319E-001	1.00484E-004	0.00000E+000	9.52913E-005	5.99601E-002	9.48640E-001	3.58020E+000	9	...........
	84	1.13333	9.52830E-001	1.01515E-004	0.00000E+000	9.67264E-005	5.99601E-002	9.53174E-001	3.58020E+000	9	...........
	85	1.14667	9.57271E-001	1.00441E-004	0.00000E+000	9.61490E-005	5.99601E-002	9.57629E-001	3.58020E+000	9	...........
	86	1.16	9.61609E-001	1.00974E-004	0.00000E+000	9.70976E-005	5.99601E-002	9.61984E-001	3.58020E+000	9	...........
	87	1.17333	9.65861E-001	1.00851E-004	0.00000E+000	9.74082E-005	5.99601E-002	9.66251E-001	3.58020E+000	9	...........
	88	1.18667	9.70054E-001	1.01549E-004	0.00000E+000	9.85082E-005	5.99601E-002	9.70460E-001	3.58020E+000	9	...........
	89	1.2	9.74204E-001	1.01230E-004	0.00000E+000	9.86191E-005	5.99601E-002	9.74574E-001	3.58020E+000	9	...........
	90	1.21333	9.78227E-001	1.01472E-004	0.00000E+000	9.92627E-005	5.99601E-002	9.78634E-001	3.58020E+000	9	...........
	91	1.22667	9.82158E-001	1.00260E-004	0.00000E+000	9.84716E-005	5.99601E-002	9.82549E-001	3.58020E+000	9	...........
	92	1.24	9.86031E-001	1.01062E-004	0.00000E+000	9.96499E-005	5.99601E-002	9.86437E-001	3.58020E+000	9	...........
	93	1.25333	9.89819E-001	1.00571E-004	0.00000E+000	9.95469E-005	5.99601E-002	9.90219E-001	3.58020E+000	9	...........
	94	1.26667	9.93510E-001	1.01488E-004	0.00000E+000	1.00829E-004	5.99601E-002	9.93910E-001	3.58020E+000	9	...........
	95	1.28	9.97157E-001	1.00147E-004	0.00000E+000	9.98622E-005	5.99601E-002	9.97577E-001	3.58020E+000	9	...........
	96	1.285	9.99609E-001	1.00281E-004	0.00000E+000	1.00242E-004	5.99601E-002	1.00002E+000	3.58020E+000	9	...........
STARTTIMEOFFSET	QUANT	436.3365	Start Time Offset (s)
