EXPLAIN
TAG	PWR800_CHARGE
TITLE	LABEL	PWR Cyclic Charge Discharge (Cell) - Charge Step	Test &Identifier
DATE	LABEL	13-7-2017	Date
TIME	LABEL	15:37:56	Time
NOTES	NOTES	2	&Notes...
	supercap test cell
	6M KOH
PSTAT	PSTAT	IFC5000-01520	Potentiostat
CAPACITY	QUANT	1.00000E-003	Capacity (A-hr)
CELLTYPE	SELECTOR	1	&Cell Type
WORKINGCONNECTION	SELECTOR	0	&Working Lead
MAXCHARGETIME	VARIABLEANDUNITS	1.00000E+002	s	1.00000E+002	second(s)	Max &Charge Time
CHARGECURRENT	QUANT	1.00000E-004	&Charge Current (A) 
VOLTAGEFINISH	TWOPARAM	F	1.00000E-003	3.60000E+003	&Voltage Finish	 I (A) < 	Max Time(s)
SAMPLETIME	QUANT	1.00000E-002	Sa&mple Period (s)
CHARGESTOPAT1	MULTIPARAM	4	1.00000E+000	Charge Stop At &1	Voltage > Limit	V
CHARGESTOPAT2	MULTIPARAM	0	0.00000E+000	Charge Stop At &2	None	N/A
AESBHCSELECTOR	TOGGLE	F	Save Both Half Cells
IRCOMP	TOGGLE	F	IR &Measure
EOC	QUANT	0	Open Circuit (V)
SEQUENCER	TOGGLE	TRUE	Run as Sequence
PSTATMODEL	IQUANT	53	Pstat Model
PSTATSECTION	LABEL	IFC5000-01520	Pstat Section
PSTATSERIALNO	LABEL	01520	Pstat Serial Number
CTRLMODE	IQUANT	0	Control Mode
ELECTROMETER	IQUANT	1	RE=0 or CS=1
IESTAB	IQUANT	0	I/E Stability
CASPEED	IQUANT	4	Control Amp Speed
CONVENTION	IQUANT	1	Current Convention
ICHRANGE	IQUANT	2	Ich Range
ICHRANGEMODE	TOGGLE	T	Ich Auto Range
ICHOFFSETENABLE	TOGGLE	F	Ich Offset Enable
ICHOFFSET	QUANT	0	Ich Offset (V)
ICHFILTER	IQUANT	1	Ich Filter
VCHRANGE	IQUANT	2	Vch Range
VCHRANGEMODE	TOGGLE	T	Vch Auto Range
VCHOFFSETENABLE	TOGGLE	F	Vch Offset Enable
VCHOFFSET	QUANT	0	Vch Offset (V)
VCHFILTER	IQUANT	1	Vch Filter
IERANGELOWERLIMIT	IQUANT	9	I/E Range Lower Limit
IERANGEMODE	TOGGLE	F	I/E AutoRange
IERANGE	IQUANT	9	I/E Range
ACHSELECT	IQUANT	1	Ach Select
ACHRANGE	IQUANT	2	Ach Range
ACHOFFSETENABLE	TOGGLE	F	Ach Offset Enable
ACHOFFSET	QUANT	0	Ach Offset (V)
ACHFILTER	IQUANT	1	Ach Filter
CABLEID	IQUANT	14	Cable ID
DCCALDATE	LABEL	5-7-2017	DC Calibration Date
ACCALDATE	LABEL	12/3/2015	AC Calibration Date
FRAMEWORKVERSION	QUANT	7.01	Framework Version
INSTRUMENTVERSION	LABEL	4.00	Instrument Version
CURVE	TABLE	91
	Pt	T	Vf	Im	Vu	Pwr	Sig	Ach	Temp	IERange	Over
	#	s	V	A	V	W	V	V	deg C	#	bits
	0	0.013333	1.38121E-001	1.00981E-004	0.00000E+000	1.39476E-005	5.99601E-002	1.38157E-001	3.57990E+000	9	...........
	1	0.026667	1.53284E-001	1.01170E-004	0.00000E+000	1.55077E-005	5.99601E-002	1.53302E-001	3.57990E+000	9	...........
	2	0.04	1.68048E-001	1.01398E-004	0.00000E+000	1.70397E-005	5.99601E-002	1.68067E-001	3.57990E+000	9	...........
	3	0.053333	1.82565E-001	1.00149E-004	0.00000E+000	1.82837E-005	5.99601E-002	1.82594E-001	3.57990E+000	9	...........
	4	0.066667	1.96910E-001	1.01547E-004	0.00000E+000	1.99957E-005	5.99601E-002	1.96944E-001	3.57990E+000	9	...........
	5	0.08	2.11130E-001	1.01368E-004	0.00000E+000	2.14018E-005	5.99601E-002	2.11160E-001	3.57990E+000	9	...........
	6	0.093333	2.25251E-001	1.01570E-004	0.00000E+000	2.28788E-005	5.99601E-002	2.25289E-001	3.57990E+000	9	...........
	7	0.106667	2.39314E-001	1.01191E-004	0.00000E+000	2.42163E-005	5.99601E-002	2.39351E-001	3.57990E+000	9	...........
	8	0.12	2.53326E-001	1.01798E-004	0.00000E+000	2.57882E-005	5.99601E-002	2.53380E-001	3.57990E+000	9	...........
	9	0.133333	2.67324E-001	1.00411E-004	0.00000E+000	2.68424E-005	5.99601E-002	2.67377E-001	3.57990E+000	9	...........
	10	0.146667	2.81325E-001	1.00526E-004	0.00000E+000	2.82805E-005	5.99601E-002	2.81378E-001	3.57990E+000	9	...........
	11	0.16	2.95318E-001	1.00454E-004	0.00000E+000	2.96660E-005	5.99601E-002	2.95376E-001	3.57990E+000	9	...........
	12	0.173333	3.09331E-001	1.00361E-004	0.00000E+000	3.10449E-005	5.99601E-002	3.09391E-001	3.57973E+000	9	...........
	13	0.186667	3.23366E-001	1.00951E-004	0.00000E+000	3.26442E-005	5.99601E-002	3.23424E-001	3.57920E+000	9	...........
	14	0.2	3.37420E-001	1.00955E-004	0.00000E+000	3.40643E-005	5.99601E-002	3.37482E-001	3.57920E+000	9	...........
	15	0.213333	3.51499E-001	1.00733E-004	0.00000E+000	3.54077E-005	5.99601E-002	3.51564E-001	3.57920E+000	9	...........
	16	0.226667	3.65593E-001	1.00666E-004	0.00000E+000	3.68027E-005	5.99601E-002	3.65665E-001	3.57920E+000	9	...........
	17	0.24	3.79698E-001	1.00356E-004	0.00000E+000	3.81051E-005	5.99601E-002	3.79771E-001	3.57920E+000	9	...........
	18	0.253333	3.93811E-001	1.00486E-004	0.00000E+000	3.95727E-005	5.99601E-002	3.93888E-001	3.57920E+000	9	...........
	19	0.266667	4.07911E-001	1.00522E-004	0.00000E+000	4.10040E-005	5.99601E-002	4.07989E-001	3.57920E+000	9	...........
	20	0.28	4.21970E-001	1.00536E-004	0.00000E+000	4.24234E-005	5.99601E-002	4.22057E-001	3.57920E+000	9	...........
	21	0.293333	4.35984E-001	1.00657E-004	0.00000E+000	4.38850E-005	5.99601E-002	4.36072E-001	3.57920E+000	9	...........
	22	0.306667	4.49923E-001	1.00769E-004	0.00000E+000	4.53383E-005	5.99601E-002	4.50016E-001	3.57920E+000	9	...........
	23	0.32	4.63769E-001	1.01988E-004	0.00000E+000	4.72988E-005	5.99601E-002	4.63861E-001	3.57920E+000	9	...........
	24	0.333333	4.77503E-001	1.00751E-004	0.00000E+000	4.81090E-005	5.99601E-002	4.77592E-001	3.57920E+000	9	...........
	25	0.346667	4.91085E-001	1.01064E-004	0.00000E+000	4.96308E-005	5.99601E-002	4.91186E-001	3.57920E+000	9	...........
	26	0.36	5.04516E-001	1.01110E-004	0.00000E+000	5.10114E-005	5.99601E-002	5.04621E-001	3.57920E+000	9	...........
	27	0.373333	5.17775E-001	1.00435E-004	0.00000E+000	5.20029E-005	5.99601E-002	5.17880E-001	3.57920E+000	9	...........
	28	0.386667	5.30742E-001	1.01164E-004	0.00000E+000	5.36919E-005	5.99601E-002	5.30887E-001	3.57920E+000	9	...........
	29	0.4	5.43353E-001	1.01002E-004	0.00000E+000	5.48799E-005	5.99601E-002	5.43600E-001	3.57920E+000	9	...........
	30	0.413333	5.55996E-001	1.00699E-004	0.00000E+000	5.59882E-005	5.99601E-002	5.56256E-001	3.57920E+000	9	...........
	31	0.426667	5.68457E-001	1.00976E-004	0.00000E+000	5.74006E-005	5.99601E-002	5.68713E-001	3.57920E+000	9	...........
	32	0.44	5.80626E-001	1.01036E-004	0.00000E+000	5.86639E-005	5.99601E-002	5.80915E-001	3.57920E+000	9	...........
	33	0.453333	5.92627E-001	1.00998E-004	0.00000E+000	5.98541E-005	5.99601E-002	5.92886E-001	3.57920E+000	9	...........
	34	0.466667	6.04346E-001	1.00897E-004	0.00000E+000	6.09767E-005	5.99601E-002	6.04615E-001	3.57920E+000	9	...........
	35	0.48	6.15893E-001	1.00988E-004	0.00000E+000	6.21976E-005	5.99601E-002	6.16147E-001	3.57920E+000	9	...........
	36	0.493333	6.27168E-001	1.00135E-004	0.00000E+000	6.28017E-005	5.99601E-002	6.27419E-001	3.57920E+000	9	...........
	37	0.506667	6.38237E-001	1.00152E-004	0.00000E+000	6.39208E-005	5.99601E-002	6.38501E-001	3.57920E+000	9	...........
	38	0.52	6.49089E-001	1.01673E-004	0.00000E+000	6.59949E-005	5.99601E-002	6.49362E-001	3.57920E+000	9	...........
	39	0.533333	6.59710E-001	1.00365E-004	0.00000E+000	6.62115E-005	5.99601E-002	6.59994E-001	3.57920E+000	9	...........
	40	0.546667	6.70158E-001	1.01002E-004	0.00000E+000	6.76874E-005	5.99601E-002	6.70415E-001	3.57920E+000	9	...........
	41	0.56	6.80338E-001	1.00851E-004	0.00000E+000	6.86129E-005	5.99601E-002	6.80600E-001	3.57920E+000	9	...........
	42	0.573333	6.90319E-001	1.00690E-004	0.00000E+000	6.95080E-005	5.99601E-002	6.90605E-001	3.57920E+000	9	...........
	43	0.586667	7.00105E-001	1.01167E-004	0.00000E+000	7.08274E-005	5.99601E-002	7.00414E-001	3.57920E+000	9	...........
	44	0.6	7.09715E-001	1.01094E-004	0.00000E+000	7.17479E-005	5.99601E-002	7.10005E-001	3.57920E+000	9	...........
	45	0.613333	7.19143E-001	1.00457E-004	0.00000E+000	7.22432E-005	5.99601E-002	7.19440E-001	3.57920E+000	9	...........
	46	0.626667	7.28368E-001	1.01570E-004	0.00000E+000	7.39804E-005	5.99601E-002	7.28676E-001	3.57920E+000	9	...........
	47	0.64	7.37394E-001	1.00417E-004	0.00000E+000	7.40466E-005	5.99601E-002	7.37689E-001	3.57920E+000	9	...........
	48	0.653333	7.46280E-001	1.01090E-004	0.00000E+000	7.54412E-005	5.99601E-002	7.46581E-001	3.57920E+000	9	...........
	49	0.666667	7.54973E-001	1.00608E-004	0.00000E+000	7.59566E-005	5.99601E-002	7.55264E-001	3.57920E+000	9	...........
	50	0.68	7.63507E-001	1.00598E-004	0.00000E+000	7.68073E-005	5.99601E-002	7.63797E-001	3.57920E+000	9	...........
	51	0.693333	7.71858E-001	1.00947E-004	0.00000E+000	7.79167E-005	5.99601E-002	7.72184E-001	3.57920E+000	9	...........
	52	0.706667	7.80052E-001	1.00210E-004	0.00000E+000	7.81693E-005	5.99601E-002	7.80380E-001	3.57920E+000	9	...........
	53	0.72	7.88124E-001	1.00386E-004	0.00000E+000	7.91170E-005	5.99601E-002	7.88416E-001	3.57920E+000	9	...........
	54	0.733333	7.96059E-001	1.01315E-004	0.00000E+000	8.06526E-005	5.99601E-002	7.96345E-001	3.57920E+000	9	...........
	55	0.746667	8.03767E-001	1.01041E-004	0.00000E+000	8.12133E-005	5.99601E-002	8.04073E-001	3.57920E+000	9	...........
	56	0.76	8.11353E-001	1.00404E-004	0.00000E+000	8.14632E-005	5.99601E-002	8.11676E-001	3.57920E+000	9	...........
	57	0.773333	8.18839E-001	1.01048E-004	0.00000E+000	8.27421E-005	5.99601E-002	8.19162E-001	3.57920E+000	9	...........
	58	0.786667	8.26167E-001	1.01103E-004	0.00000E+000	8.35282E-005	5.99601E-002	8.26497E-001	3.57920E+000	9	...........
	59	0.8	8.33358E-001	1.00553E-004	0.00000E+000	8.37968E-005	5.99601E-002	8.33693E-001	3.57920E+000	9	...........
	60	0.813333	8.40420E-001	1.00490E-004	0.00000E+000	8.44534E-005	5.99601E-002	8.40760E-001	3.57920E+000	9	...........
	61	0.826667	8.47408E-001	1.00642E-004	0.00000E+000	8.52846E-005	5.99601E-002	8.47713E-001	3.57920E+000	9	...........
	62	0.84	8.54211E-001	1.01426E-004	0.00000E+000	8.66394E-005	5.99601E-002	8.54541E-001	3.57920E+000	9	...........
	63	0.853333	8.60895E-001	1.01463E-004	0.00000E+000	8.73487E-005	5.99601E-002	8.61241E-001	3.57920E+000	9	...........
	64	0.866667	8.67473E-001	1.00703E-004	0.00000E+000	8.73573E-005	5.99601E-002	8.67846E-001	3.57920E+000	9	...........
	65	0.88	8.73953E-001	1.01186E-004	0.00000E+000	8.84315E-005	5.99601E-002	8.74323E-001	3.57920E+000	9	...........
	66	0.893333	8.80293E-001	1.00968E-004	0.00000E+000	8.88813E-005	5.99601E-002	8.80644E-001	3.57920E+000	9	...........
	67	0.906667	8.86548E-001	1.00571E-004	0.00000E+000	8.91609E-005	5.99601E-002	8.86894E-001	3.57920E+000	9	...........
	68	0.92	8.92636E-001	1.01301E-004	0.00000E+000	9.04252E-005	5.99601E-002	8.93019E-001	3.57920E+000	9	...........
	69	0.933333	8.98640E-001	1.00307E-004	0.00000E+000	9.01401E-005	5.99601E-002	8.99034E-001	3.57920E+000	9	...........
	70	0.946667	9.04547E-001	1.00209E-004	0.00000E+000	9.06441E-005	5.99601E-002	9.04933E-001	3.57920E+000	9	...........
	71	0.96	9.10349E-001	1.01344E-004	0.00000E+000	9.22584E-005	5.99601E-002	9.10727E-001	3.57920E+000	9	...........
	72	0.97333	9.16019E-001	1.00896E-004	0.00000E+000	9.24226E-005	5.99601E-002	9.16408E-001	3.57920E+000	9	...........
	73	0.98667	9.21663E-001	1.00195E-004	0.00000E+000	9.23458E-005	5.99601E-002	9.22010E-001	3.57920E+000	9	...........
	74	1	9.27162E-001	1.01598E-004	0.00000E+000	9.41979E-005	5.99601E-002	9.27489E-001	3.57920E+000	9	...........
	75	1.01333	9.32534E-001	1.00036E-004	0.00000E+000	9.32873E-005	5.99601E-002	9.32840E-001	3.57920E+000	9	...........
	76	1.02667	9.37804E-001	1.01332E-004	0.00000E+000	9.50300E-005	5.99601E-002	9.38118E-001	3.57920E+000	9	...........
	77	1.04	9.42979E-001	1.01147E-004	0.00000E+000	9.53795E-005	5.99601E-002	9.43273E-001	3.57920E+000	9	...........
	78	1.05333	9.48097E-001	1.01500E-004	0.00000E+000	9.62321E-005	5.99601E-002	9.48383E-001	3.57920E+000	9	...........
	79	1.06667	9.53070E-001	9.98707E-005	0.00000E+000	9.51838E-005	5.99601E-002	9.53364E-001	3.57920E+000	9	...........
	80	1.08	9.57934E-001	1.00590E-004	0.00000E+000	9.63583E-005	5.99601E-002	9.58254E-001	3.57920E+000	9	...........
	81	1.09333	9.62717E-001	1.01637E-004	0.00000E+000	9.78474E-005	5.99601E-002	9.63040E-001	3.57920E+000	9	...........
	82	1.10667	9.67383E-001	1.00298E-004	0.00000E+000	9.70265E-005	5.99601E-002	9.67745E-001	3.57920E+000	9	...........
	83	1.12	9.72008E-001	1.01196E-004	0.00000E+000	9.83634E-005	5.99601E-002	9.72359E-001	3.57920E+000	9	...........
	84	1.13333	9.76559E-001	1.01160E-004	0.00000E+000	9.87882E-005	5.99601E-002	9.76881E-001	3.57920E+000	9	...........
	85	1.14667	9.80943E-001	9.98103E-005	0.00000E+000	9.79082E-005	5.99601E-002	9.81280E-001	3.57920E+000	9	...........
	86	1.16	9.85258E-001	1.00595E-004	0.00000E+000	9.91119E-005	5.99601E-002	9.85629E-001	3.57920E+000	9	...........
	87	1.17333	9.89510E-001	1.00963E-004	0.00000E+000	9.99035E-005	5.99601E-002	9.89839E-001	3.57930E+000	9	...........
	88	1.18667	9.93600E-001	1.00704E-004	0.00000E+000	1.00060E-004	5.99601E-002	9.93971E-001	3.57960E+000	9	...........
	89	1.2	9.97679E-001	1.00940E-004	0.00000E+000	1.00705E-004	5.99601E-002	9.98039E-001	3.57960E+000	9	...........
	90	1.20333	1.00019E+000	1.01215E-004	0.00000E+000	1.01234E-004	5.99601E-002	1.00052E+000	3.57960E+000	9	...........
STARTTIMEOFFSET	QUANT	1624.102	Start Time Offset (s)
