EXPLAIN
TAG	PWR800_CHARGE
TITLE	LABEL	PWR Cyclic Charge Discharge (Cell) - Charge Step	Test &Identifier
DATE	LABEL	13-7-2017	Date
TIME	LABEL	15:29:47	Time
NOTES	NOTES	2	&Notes...
	supercap test cell
	6M KOH
PSTAT	PSTAT	IFC5000-01520	Potentiostat
CAPACITY	QUANT	1.00000E-003	Capacity (A-hr)
CELLTYPE	SELECTOR	1	&Cell Type
WORKINGCONNECTION	SELECTOR	0	&Working Lead
MAXCHARGETIME	VARIABLEANDUNITS	1.00000E+002	s	1.00000E+002	second(s)	Max &Charge Time
CHARGECURRENT	QUANT	1.00000E-004	&Charge Current (A) 
VOLTAGEFINISH	TWOPARAM	F	1.00000E-003	3.60000E+003	&Voltage Finish	 I (A) < 	Max Time(s)
SAMPLETIME	QUANT	1.00000E-002	Sa&mple Period (s)
CHARGESTOPAT1	MULTIPARAM	4	1.00000E+000	Charge Stop At &1	Voltage > Limit	V
CHARGESTOPAT2	MULTIPARAM	0	0.00000E+000	Charge Stop At &2	None	N/A
AESBHCSELECTOR	TOGGLE	F	Save Both Half Cells
IRCOMP	TOGGLE	F	IR &Measure
EOC	QUANT	0	Open Circuit (V)
SEQUENCER	TOGGLE	TRUE	Run as Sequence
PSTATMODEL	IQUANT	53	Pstat Model
PSTATSECTION	LABEL	IFC5000-01520	Pstat Section
PSTATSERIALNO	LABEL	01520	Pstat Serial Number
CTRLMODE	IQUANT	0	Control Mode
ELECTROMETER	IQUANT	1	RE=0 or CS=1
IESTAB	IQUANT	0	I/E Stability
CASPEED	IQUANT	4	Control Amp Speed
CONVENTION	IQUANT	1	Current Convention
ICHRANGE	IQUANT	2	Ich Range
ICHRANGEMODE	TOGGLE	T	Ich Auto Range
ICHOFFSETENABLE	TOGGLE	F	Ich Offset Enable
ICHOFFSET	QUANT	0	Ich Offset (V)
ICHFILTER	IQUANT	1	Ich Filter
VCHRANGE	IQUANT	2	Vch Range
VCHRANGEMODE	TOGGLE	T	Vch Auto Range
VCHOFFSETENABLE	TOGGLE	F	Vch Offset Enable
VCHOFFSET	QUANT	0	Vch Offset (V)
VCHFILTER	IQUANT	1	Vch Filter
IERANGELOWERLIMIT	IQUANT	9	I/E Range Lower Limit
IERANGEMODE	TOGGLE	F	I/E AutoRange
IERANGE	IQUANT	9	I/E Range
ACHSELECT	IQUANT	1	Ach Select
ACHRANGE	IQUANT	2	Ach Range
ACHOFFSETENABLE	TOGGLE	F	Ach Offset Enable
ACHOFFSET	QUANT	0	Ach Offset (V)
ACHFILTER	IQUANT	1	Ach Filter
CABLEID	IQUANT	14	Cable ID
DCCALDATE	LABEL	5-7-2017	DC Calibration Date
ACCALDATE	LABEL	12/3/2015	AC Calibration Date
FRAMEWORKVERSION	QUANT	7.01	Framework Version
INSTRUMENTVERSION	LABEL	4.00	Instrument Version
CURVE	TABLE	92
	Pt	T	Vf	Im	Vu	Pwr	Sig	Ach	Temp	IERange	Over
	#	s	V	A	V	W	V	V	deg C	#	bits
	0	0.013333	1.33518E-001	1.01036E-004	0.00000E+000	1.34900E-005	5.99601E-002	1.33566E-001	3.57940E+000	9	...........
	1	0.026667	1.48766E-001	1.01412E-004	0.00000E+000	1.50866E-005	5.99601E-002	1.48785E-001	3.57940E+000	9	...........
	2	0.04	1.63563E-001	1.00867E-004	0.00000E+000	1.64981E-005	5.99601E-002	1.63591E-001	3.57940E+000	9	...........
	3	0.053333	1.78090E-001	1.00450E-004	0.00000E+000	1.78892E-005	5.99601E-002	1.78118E-001	3.57940E+000	9	...........
	4	0.066667	1.92433E-001	1.01619E-004	0.00000E+000	1.95549E-005	5.99601E-002	1.92458E-001	3.57940E+000	9	...........
	5	0.08	2.06630E-001	1.00622E-004	0.00000E+000	2.07915E-005	5.99601E-002	2.06661E-001	3.57940E+000	9	...........
	6	0.093333	2.20720E-001	1.00564E-004	0.00000E+000	2.21964E-005	5.99601E-002	2.20763E-001	3.57940E+000	9	...........
	7	0.106667	2.34753E-001	1.00999E-004	0.00000E+000	2.37098E-005	5.99601E-002	2.34792E-001	3.57940E+000	9	...........
	8	0.12	2.48724E-001	1.01189E-004	0.00000E+000	2.51680E-005	5.99601E-002	2.48769E-001	3.57940E+000	9	...........
	9	0.133333	2.62667E-001	1.00751E-004	0.00000E+000	2.64640E-005	5.99601E-002	2.62715E-001	3.57940E+000	9	...........
	10	0.146667	2.76608E-001	1.00175E-004	0.00000E+000	2.77092E-005	5.99601E-002	2.76652E-001	3.57940E+000	9	...........
	11	0.16	2.90543E-001	1.01020E-004	0.00000E+000	2.93506E-005	5.99601E-002	2.90592E-001	3.57940E+000	9	...........
	12	0.173333	3.04489E-001	1.00624E-004	0.00000E+000	3.06389E-005	5.99601E-002	3.04545E-001	3.57940E+000	9	...........
	13	0.186667	3.18459E-001	1.00674E-004	0.00000E+000	3.20605E-005	5.99601E-002	3.18518E-001	3.57940E+000	9	...........
	14	0.2	3.32438E-001	1.01007E-004	0.00000E+000	3.35787E-005	5.99601E-002	3.32497E-001	3.57940E+000	9	...........
	15	0.213333	3.46435E-001	1.01187E-004	0.00000E+000	3.50546E-005	5.99601E-002	3.46503E-001	3.57940E+000	9	...........
	16	0.226667	3.60455E-001	1.02011E-004	0.00000E+000	3.67703E-005	5.99601E-002	3.60521E-001	3.57940E+000	9	...........
	17	0.24	3.74483E-001	1.00169E-004	0.00000E+000	3.75115E-005	5.99601E-002	3.74549E-001	3.57940E+000	9	...........
	18	0.253333	3.88510E-001	9.99739E-005	0.00000E+000	3.88408E-005	5.99601E-002	3.88577E-001	3.57940E+000	9	...........
	19	0.266667	4.02523E-001	1.01814E-004	0.00000E+000	4.09825E-005	5.99601E-002	4.02596E-001	3.57940E+000	9	...........
	20	0.28	4.16499E-001	1.00271E-004	0.00000E+000	4.17627E-005	5.99601E-002	4.16586E-001	3.57940E+000	9	...........
	21	0.293333	4.30440E-001	1.01346E-004	0.00000E+000	4.36233E-005	5.99601E-002	4.30521E-001	3.57940E+000	9	...........
	22	0.306667	4.44295E-001	1.00472E-004	0.00000E+000	4.46392E-005	5.99601E-002	4.44391E-001	3.57940E+000	9	...........
	23	0.32	4.58076E-001	1.00150E-004	0.00000E+000	4.58763E-005	5.99601E-002	4.58166E-001	3.57940E+000	9	...........
	24	0.333333	4.71729E-001	1.00948E-004	0.00000E+000	4.76202E-005	5.99601E-002	4.71825E-001	3.57940E+000	9	...........
	25	0.346667	4.85259E-001	1.00463E-004	0.00000E+000	4.87503E-005	5.99601E-002	4.85361E-001	3.57940E+000	9	...........
	26	0.36	4.98635E-001	1.00648E-004	0.00000E+000	5.01866E-005	5.99601E-002	4.98740E-001	3.57940E+000	9	...........
	27	0.373333	5.11843E-001	1.00384E-004	0.00000E+000	5.13810E-005	5.99601E-002	5.11949E-001	3.57940E+000	9	...........
	28	0.386667	5.24866E-001	1.00873E-004	0.00000E+000	5.29448E-005	5.99601E-002	5.24975E-001	3.57940E+000	9	...........
	29	0.4	5.37417E-001	1.00529E-004	0.00000E+000	5.40261E-005	5.99601E-002	5.37637E-001	3.57940E+000	9	...........
	30	0.413333	5.49948E-001	1.00681E-004	0.00000E+000	5.53695E-005	5.99601E-002	5.50200E-001	3.57940E+000	9	...........
	31	0.426667	5.62352E-001	1.00150E-004	0.00000E+000	5.63195E-005	5.99601E-002	5.62572E-001	3.57940E+000	9	...........
	32	0.44	5.74533E-001	1.00697E-004	0.00000E+000	5.78537E-005	5.99601E-002	5.74746E-001	3.57940E+000	9	...........
	33	0.453333	5.86457E-001	1.01464E-004	0.00000E+000	5.95041E-005	5.99601E-002	5.86680E-001	3.57940E+000	9	...........
	34	0.466667	5.98195E-001	1.00443E-004	0.00000E+000	6.00843E-005	5.99601E-002	5.98412E-001	3.57940E+000	9	...........
	35	0.48	6.09687E-001	1.00157E-004	0.00000E+000	6.10646E-005	5.99601E-002	6.09912E-001	3.57940E+000	9	...........
	36	0.493333	6.20990E-001	1.01379E-004	0.00000E+000	6.29556E-005	5.99601E-002	6.21197E-001	3.57940E+000	9	...........
	37	0.506667	6.32016E-001	1.00567E-004	0.00000E+000	6.35598E-005	5.99601E-002	6.32269E-001	3.57940E+000	9	...........
	38	0.52	6.42851E-001	1.00577E-004	0.00000E+000	6.46562E-005	5.99601E-002	6.43128E-001	3.57940E+000	9	...........
	39	0.533333	6.53457E-001	1.01104E-004	0.00000E+000	6.60673E-005	5.99601E-002	6.53753E-001	3.57940E+000	9	...........
	40	0.546667	6.63857E-001	1.01485E-004	0.00000E+000	6.73712E-005	5.99601E-002	6.64153E-001	3.57940E+000	9	...........
	41	0.56	6.74068E-001	1.01322E-004	0.00000E+000	6.82980E-005	5.99601E-002	6.74344E-001	3.57940E+000	9	...........
	42	0.573333	6.84020E-001	1.01256E-004	0.00000E+000	6.92615E-005	5.99601E-002	6.84327E-001	3.57940E+000	9	...........
	43	0.586667	6.93815E-001	1.00748E-004	0.00000E+000	6.99005E-005	5.99601E-002	6.94123E-001	3.57940E+000	9	...........
	44	0.6	7.03406E-001	1.00617E-004	0.00000E+000	7.07744E-005	5.99601E-002	7.03698E-001	3.57940E+000	9	...........
	45	0.613333	7.12787E-001	1.00335E-004	0.00000E+000	7.15178E-005	5.99601E-002	7.13110E-001	3.57940E+000	9	...........
	46	0.626667	7.22063E-001	1.00994E-004	0.00000E+000	7.29240E-005	5.99601E-002	7.22358E-001	3.57940E+000	9	...........
	47	0.64	7.31069E-001	1.01088E-004	0.00000E+000	7.39021E-005	5.99601E-002	7.31373E-001	3.57940E+000	9	...........
	48	0.653333	7.39924E-001	1.01638E-004	0.00000E+000	7.52042E-005	5.99601E-002	7.40235E-001	3.57940E+000	9	...........
	49	0.666667	7.48608E-001	1.00455E-004	0.00000E+000	7.52016E-005	5.99601E-002	7.48923E-001	3.57940E+000	9	...........
	50	0.68	7.57151E-001	1.01104E-004	0.00000E+000	7.65513E-005	5.99601E-002	7.57452E-001	3.57992E+000	9	...........
	51	0.693333	7.65497E-001	1.00716E-004	0.00000E+000	7.70976E-005	5.99601E-002	7.65807E-001	3.58000E+000	9	...........
	52	0.706667	7.73706E-001	1.00746E-004	0.00000E+000	7.79477E-005	5.99601E-002	7.74030E-001	3.58000E+000	9	...........
	53	0.72	7.81729E-001	1.00563E-004	0.00000E+000	7.86127E-005	5.99601E-002	7.82055E-001	3.58000E+000	9	...........
	54	0.733333	7.89631E-001	1.01259E-004	0.00000E+000	7.99569E-005	5.99601E-002	7.89960E-001	3.58000E+000	9	...........
	55	0.746667	7.97419E-001	1.00527E-004	0.00000E+000	8.01622E-005	5.99601E-002	7.97733E-001	3.58000E+000	9	...........
	56	0.76	8.05000E-001	1.00734E-004	0.00000E+000	8.10913E-005	5.99601E-002	8.05331E-001	3.58000E+000	9	...........
	57	0.773333	8.12450E-001	1.00996E-004	0.00000E+000	8.20542E-005	5.99601E-002	8.12775E-001	3.58000E+000	9	...........
	58	0.786667	8.19813E-001	1.00560E-004	0.00000E+000	8.24408E-005	5.99601E-002	8.20120E-001	3.58000E+000	9	...........
	59	0.8	8.27002E-001	1.01932E-004	0.00000E+000	8.42976E-005	5.99601E-002	8.27292E-001	3.58000E+000	9	...........
	60	0.813333	8.34043E-001	1.01133E-004	0.00000E+000	8.43497E-005	5.99601E-002	8.34377E-001	3.58000E+000	9	...........
	61	0.826667	8.40994E-001	1.01139E-004	0.00000E+000	8.50570E-005	5.99601E-002	8.41311E-001	3.58000E+000	9	...........
	62	0.84	8.47844E-001	1.01064E-004	0.00000E+000	8.56862E-005	5.99601E-002	8.48137E-001	3.58000E+000	9	...........
	63	0.853333	8.54547E-001	1.01326E-004	0.00000E+000	8.65881E-005	5.99601E-002	8.54816E-001	3.58000E+000	9	...........
	64	0.866667	8.61120E-001	1.00933E-004	0.00000E+000	8.69158E-005	5.99601E-002	8.61397E-001	3.58000E+000	9	...........
	65	0.88	8.67582E-001	1.00321E-004	0.00000E+000	8.70366E-005	5.99601E-002	8.67874E-001	3.58000E+000	9	...........
	66	0.893333	8.73959E-001	1.00495E-004	0.00000E+000	8.78284E-005	5.99601E-002	8.74242E-001	3.58000E+000	9	...........
	67	0.906667	8.80190E-001	1.01178E-004	0.00000E+000	8.90562E-005	5.99601E-002	8.80487E-001	3.58000E+000	9	...........
	68	0.92	8.86328E-001	1.01575E-004	0.00000E+000	9.00290E-005	5.99601E-002	8.86638E-001	3.58000E+000	9	...........
	69	0.933333	8.92334E-001	1.00243E-004	0.00000E+000	8.94499E-005	5.99601E-002	8.92682E-001	3.58000E+000	9	...........
	70	0.946667	8.98267E-001	1.00823E-004	0.00000E+000	9.05660E-005	5.99601E-002	8.98607E-001	3.58000E+000	9	...........
	71	0.96	9.04073E-001	1.01537E-004	0.00000E+000	9.17966E-005	5.99601E-002	9.04395E-001	3.58000E+000	9	...........
	72	0.97333	9.09788E-001	1.00397E-004	0.00000E+000	9.13399E-005	5.99601E-002	9.10123E-001	3.58000E+000	9	...........
	73	0.98667	9.15396E-001	1.01336E-004	0.00000E+000	9.27622E-005	5.99601E-002	9.15735E-001	3.58000E+000	9	...........
	74	1	9.20932E-001	1.00297E-004	0.00000E+000	9.23666E-005	5.99601E-002	9.21249E-001	3.58000E+000	9	...........
	75	1.01333	9.26339E-001	1.02244E-004	0.00000E+000	9.47127E-005	5.99601E-002	9.26667E-001	3.58000E+000	9	...........
	76	1.02667	9.31636E-001	1.00376E-004	0.00000E+000	9.35139E-005	5.99601E-002	9.31968E-001	3.58000E+000	9	...........
	77	1.04	9.36841E-001	1.01545E-004	0.00000E+000	9.51316E-005	5.99601E-002	9.37180E-001	3.58000E+000	9	...........
	78	1.05333	9.41948E-001	1.01284E-004	0.00000E+000	9.54038E-005	5.99601E-002	9.42289E-001	3.58000E+000	9	...........
	79	1.06667	9.46960E-001	1.00722E-004	0.00000E+000	9.53797E-005	5.99601E-002	9.47313E-001	3.58000E+000	9	...........
	80	1.08	9.51888E-001	1.01669E-004	0.00000E+000	9.67775E-005	5.99601E-002	9.52210E-001	3.58000E+000	9	...........
	81	1.09333	9.56691E-001	1.01080E-004	0.00000E+000	9.67027E-005	5.99601E-002	9.57024E-001	3.58000E+000	9	...........
	82	1.10667	9.61421E-001	1.00941E-004	0.00000E+000	9.70465E-005	5.99601E-002	9.61770E-001	3.58000E+000	9	...........
	83	1.12	9.66043E-001	1.01359E-004	0.00000E+000	9.79168E-005	5.99601E-002	9.66408E-001	3.58000E+000	9	...........
	84	1.13333	9.70600E-001	1.01602E-004	0.00000E+000	9.86153E-005	5.99601E-002	9.70970E-001	3.58000E+000	9	...........
	85	1.14667	9.75089E-001	1.00419E-004	0.00000E+000	9.79173E-005	5.99601E-002	9.75424E-001	3.58000E+000	9	...........
	86	1.16	9.79426E-001	1.00557E-004	0.00000E+000	9.84885E-005	5.99601E-002	9.79770E-001	3.58000E+000	9	...........
	87	1.17333	9.83683E-001	1.00515E-004	0.00000E+000	9.88745E-005	5.99601E-002	9.84036E-001	3.58000E+000	9	...........
	88	1.18667	9.87895E-001	1.00712E-004	0.00000E+000	9.94924E-005	5.99601E-002	9.88226E-001	3.58000E+000	9	...........
	89	1.2	9.91954E-001	1.00167E-004	0.00000E+000	9.93607E-005	5.99601E-002	9.92334E-001	3.58000E+000	9	...........
	90	1.21333	9.95968E-001	1.00439E-004	0.00000E+000	1.00034E-004	5.99601E-002	9.96344E-001	3.58000E+000	9	...........
	91	1.22167	9.99172E-001	1.00910E-004	0.00000E+000	1.00826E-004	5.99601E-002	9.99571E-001	3.58000E+000	9	...........
STARTTIMEOFFSET	QUANT	1256.486	Start Time Offset (s)
