EXPLAIN
TAG	PWR800_CHARGE
TITLE	LABEL	PWR Cyclic Charge Discharge (Cell) - Charge Step	Test &Identifier
DATE	LABEL	13-7-2017	Date
TIME	LABEL	15:32:50	Time
NOTES	NOTES	2	&Notes...
	supercap test cell
	6M KOH
PSTAT	PSTAT	IFC5000-01520	Potentiostat
CAPACITY	QUANT	1.00000E-003	Capacity (A-hr)
CELLTYPE	SELECTOR	1	&Cell Type
WORKINGCONNECTION	SELECTOR	0	&Working Lead
MAXCHARGETIME	VARIABLEANDUNITS	1.00000E+002	s	1.00000E+002	second(s)	Max &Charge Time
CHARGECURRENT	QUANT	1.00000E-004	&Charge Current (A) 
VOLTAGEFINISH	TWOPARAM	F	1.00000E-003	3.60000E+003	&Voltage Finish	 I (A) < 	Max Time(s)
SAMPLETIME	QUANT	1.00000E-002	Sa&mple Period (s)
CHARGESTOPAT1	MULTIPARAM	4	1.00000E+000	Charge Stop At &1	Voltage > Limit	V
CHARGESTOPAT2	MULTIPARAM	0	0.00000E+000	Charge Stop At &2	None	N/A
AESBHCSELECTOR	TOGGLE	F	Save Both Half Cells
IRCOMP	TOGGLE	F	IR &Measure
EOC	QUANT	0	Open Circuit (V)
SEQUENCER	TOGGLE	TRUE	Run as Sequence
PSTATMODEL	IQUANT	53	Pstat Model
PSTATSECTION	LABEL	IFC5000-01520	Pstat Section
PSTATSERIALNO	LABEL	01520	Pstat Serial Number
CTRLMODE	IQUANT	0	Control Mode
ELECTROMETER	IQUANT	1	RE=0 or CS=1
IESTAB	IQUANT	0	I/E Stability
CASPEED	IQUANT	4	Control Amp Speed
CONVENTION	IQUANT	1	Current Convention
ICHRANGE	IQUANT	2	Ich Range
ICHRANGEMODE	TOGGLE	T	Ich Auto Range
ICHOFFSETENABLE	TOGGLE	F	Ich Offset Enable
ICHOFFSET	QUANT	0	Ich Offset (V)
ICHFILTER	IQUANT	1	Ich Filter
VCHRANGE	IQUANT	2	Vch Range
VCHRANGEMODE	TOGGLE	T	Vch Auto Range
VCHOFFSETENABLE	TOGGLE	F	Vch Offset Enable
VCHOFFSET	QUANT	0	Vch Offset (V)
VCHFILTER	IQUANT	1	Vch Filter
IERANGELOWERLIMIT	IQUANT	9	I/E Range Lower Limit
IERANGEMODE	TOGGLE	F	I/E AutoRange
IERANGE	IQUANT	9	I/E Range
ACHSELECT	IQUANT	1	Ach Select
ACHRANGE	IQUANT	2	Ach Range
ACHOFFSETENABLE	TOGGLE	F	Ach Offset Enable
ACHOFFSET	QUANT	0	Ach Offset (V)
ACHFILTER	IQUANT	1	Ach Filter
CABLEID	IQUANT	14	Cable ID
DCCALDATE	LABEL	5-7-2017	DC Calibration Date
ACCALDATE	LABEL	12/3/2015	AC Calibration Date
FRAMEWORKVERSION	QUANT	7.01	Framework Version
INSTRUMENTVERSION	LABEL	4.00	Instrument Version
CURVE	TABLE	92
	Pt	T	Vf	Im	Vu	Pwr	Sig	Ach	Temp	IERange	Over
	#	s	V	A	V	W	V	V	deg C	#	bits
	0	0.013333	1.31549E-001	1.00587E-004	0.00000E+000	1.32320E-005	5.99601E-002	1.31596E-001	3.57860E+000	9	...........
	1	0.026667	1.46838E-001	1.00966E-004	0.00000E+000	1.48256E-005	5.99601E-002	1.46858E-001	3.57860E+000	9	...........
	2	0.04	1.61682E-001	1.01547E-004	0.00000E+000	1.64183E-005	5.99601E-002	1.61703E-001	3.57860E+000	9	...........
	3	0.053333	1.76246E-001	1.00467E-004	0.00000E+000	1.77068E-005	5.99601E-002	1.76279E-001	3.57860E+000	9	...........
	4	0.066667	1.90630E-001	1.00470E-004	0.00000E+000	1.91526E-005	5.99601E-002	1.90660E-001	3.57860E+000	9	...........
	5	0.08	2.04866E-001	1.00468E-004	0.00000E+000	2.05824E-005	5.99601E-002	2.04902E-001	3.57860E+000	9	...........
	6	0.093333	2.18996E-001	1.00968E-004	0.00000E+000	2.21116E-005	5.99601E-002	2.19032E-001	3.57860E+000	9	...........
	7	0.106667	2.33057E-001	1.00223E-004	0.00000E+000	2.33576E-005	5.99601E-002	2.33094E-001	3.57860E+000	9	...........
	8	0.12	2.47068E-001	1.01615E-004	0.00000E+000	2.51058E-005	5.99601E-002	2.47110E-001	3.57860E+000	9	...........
	9	0.133333	2.61049E-001	1.00975E-004	0.00000E+000	2.63594E-005	5.99601E-002	2.61099E-001	3.57860E+000	9	...........
	10	0.146667	2.75015E-001	1.00457E-004	0.00000E+000	2.76273E-005	5.99601E-002	2.75073E-001	3.57860E+000	9	...........
	11	0.16	2.88991E-001	1.00807E-004	0.00000E+000	2.91324E-005	5.99601E-002	2.89048E-001	3.57860E+000	9	...........
	12	0.173333	3.02968E-001	1.00782E-004	0.00000E+000	3.05339E-005	5.99601E-002	3.03028E-001	3.57860E+000	9	...........
	13	0.186667	3.16967E-001	1.01353E-004	0.00000E+000	3.21256E-005	5.99601E-002	3.17027E-001	3.57860E+000	9	...........
	14	0.2	3.30989E-001	1.00610E-004	0.00000E+000	3.33010E-005	5.99601E-002	3.31043E-001	3.57860E+000	9	...........
	15	0.213333	3.45029E-001	1.00376E-004	0.00000E+000	3.46327E-005	5.99601E-002	3.45088E-001	3.57860E+000	9	...........
	16	0.226667	3.59092E-001	1.00351E-004	0.00000E+000	3.60353E-005	5.99601E-002	3.59158E-001	3.57860E+000	9	...........
	17	0.24	3.73167E-001	1.01442E-004	0.00000E+000	3.78548E-005	5.99601E-002	3.73234E-001	3.57860E+000	9	...........
	18	0.253333	3.87242E-001	1.01093E-004	0.00000E+000	3.91474E-005	5.99601E-002	3.87311E-001	3.57860E+000	9	...........
	19	0.266667	4.01306E-001	1.00382E-004	0.00000E+000	4.02840E-005	5.99601E-002	4.01377E-001	3.57860E+000	9	...........
	20	0.28	4.15338E-001	1.00070E-004	0.00000E+000	4.15627E-005	5.99601E-002	4.15417E-001	3.57860E+000	9	...........
	21	0.293333	4.29332E-001	1.00997E-004	0.00000E+000	4.33612E-005	5.99601E-002	4.29417E-001	3.57860E+000	9	...........
	22	0.306667	4.43252E-001	1.00977E-004	0.00000E+000	4.47583E-005	5.99601E-002	4.43343E-001	3.57860E+000	9	...........
	23	0.32	4.57091E-001	1.01538E-004	0.00000E+000	4.64120E-005	5.99601E-002	4.57185E-001	3.57860E+000	9	...........
	24	0.333333	4.70821E-001	1.01355E-004	0.00000E+000	4.77202E-005	5.99601E-002	4.70917E-001	3.57860E+000	9	...........
	25	0.346667	4.84421E-001	1.00606E-004	0.00000E+000	4.87359E-005	5.99601E-002	4.84520E-001	3.57860E+000	9	...........
	26	0.36	4.97867E-001	1.00241E-004	0.00000E+000	4.99065E-005	5.99601E-002	4.97969E-001	3.57860E+000	9	...........
	27	0.373333	5.11148E-001	1.00788E-004	0.00000E+000	5.15174E-005	5.99601E-002	5.11252E-001	3.57860E+000	9	...........
	28	0.386667	5.24242E-001	1.00615E-004	0.00000E+000	5.27464E-005	5.99601E-002	5.24350E-001	3.57860E+000	9	...........
	29	0.4	5.36848E-001	1.00858E-004	0.00000E+000	5.41457E-005	5.99601E-002	5.37093E-001	3.57860E+000	9	...........
	30	0.413333	5.49443E-001	1.00409E-004	0.00000E+000	5.51693E-005	5.99601E-002	5.49745E-001	3.57860E+000	9	...........
	31	0.426667	5.61925E-001	1.01590E-004	0.00000E+000	5.70859E-005	5.99601E-002	5.62224E-001	3.57860E+000	9	...........
	32	0.44	5.74196E-001	1.00788E-004	0.00000E+000	5.78718E-005	5.99601E-002	5.74470E-001	3.57860E+000	9	...........
	33	0.453333	5.86216E-001	1.00539E-004	0.00000E+000	5.89373E-005	5.99601E-002	5.86482E-001	3.57860E+000	9	...........
	34	0.466667	5.98014E-001	1.00106E-004	0.00000E+000	5.98649E-005	5.99601E-002	5.98272E-001	3.57860E+000	9	...........
	35	0.48	6.09544E-001	1.00654E-004	0.00000E+000	6.13532E-005	5.99601E-002	6.09848E-001	3.57860E+000	9	...........
	36	0.493333	6.20943E-001	1.00923E-004	0.00000E+000	6.26675E-005	5.99601E-002	6.21184E-001	3.57860E+000	9	...........
	37	0.506667	6.32035E-001	1.01515E-004	0.00000E+000	6.41609E-005	5.99601E-002	6.32284E-001	3.57860E+000	9	...........
	38	0.52	6.42933E-001	1.00881E-004	0.00000E+000	6.48599E-005	5.99601E-002	6.43192E-001	3.57860E+000	9	...........
	39	0.533333	6.53584E-001	1.01256E-004	0.00000E+000	6.61796E-005	5.99601E-002	6.53871E-001	3.57860E+000	9	...........
	40	0.546667	6.64057E-001	1.00706E-004	0.00000E+000	6.68747E-005	5.99601E-002	6.64334E-001	3.57860E+000	9	...........
	41	0.56	6.74292E-001	1.01162E-004	0.00000E+000	6.82125E-005	5.99601E-002	6.74587E-001	3.57860E+000	9	...........
	42	0.573333	6.84321E-001	1.01211E-004	0.00000E+000	6.92605E-005	5.99601E-002	6.84608E-001	3.57860E+000	9	...........
	43	0.586667	6.94174E-001	1.01236E-004	0.00000E+000	7.02751E-005	5.99601E-002	6.94468E-001	3.57860E+000	9	...........
	44	0.6	7.03823E-001	1.00031E-004	0.00000E+000	7.04042E-005	5.99601E-002	7.04108E-001	3.57860E+000	9	...........
	45	0.613333	7.13246E-001	1.00867E-004	0.00000E+000	7.19428E-005	5.99601E-002	7.13566E-001	3.57860E+000	9	...........
	46	0.626667	7.22563E-001	1.00894E-004	0.00000E+000	7.29022E-005	5.99601E-002	7.22834E-001	3.57860E+000	9	...........
	47	0.64	7.31617E-001	1.00629E-004	0.00000E+000	7.36220E-005	5.99601E-002	7.31934E-001	3.58085E+000	9	...........
	48	0.653333	7.40518E-001	1.00875E-004	0.00000E+000	7.46998E-005	5.99601E-002	7.40824E-001	3.58160E+000	9	...........
	49	0.666667	7.49258E-001	1.00951E-004	0.00000E+000	7.56385E-005	5.99601E-002	7.49575E-001	3.58160E+000	9	...........
	50	0.68	7.57832E-001	1.00601E-004	0.00000E+000	7.62387E-005	5.99601E-002	7.58134E-001	3.58160E+000	9	...........
	51	0.693333	7.66225E-001	1.01001E-004	0.00000E+000	7.73896E-005	5.99601E-002	7.66550E-001	3.58160E+000	9	...........
	52	0.706667	7.74481E-001	1.00782E-004	0.00000E+000	7.80541E-005	5.99601E-002	7.74780E-001	3.58160E+000	9	...........
	53	0.72	7.82581E-001	1.00321E-004	0.00000E+000	7.85091E-005	5.99601E-002	7.82879E-001	3.58160E+000	9	...........
	54	0.733333	7.90506E-001	1.01005E-004	0.00000E+000	7.98453E-005	5.99601E-002	7.90804E-001	3.58160E+000	9	...........
	55	0.746667	7.98315E-001	1.01429E-004	0.00000E+000	8.09726E-005	5.99601E-002	7.98600E-001	3.58160E+000	9	...........
	56	0.76	8.05937E-001	1.01297E-004	0.00000E+000	8.16390E-005	5.99601E-002	8.06252E-001	3.58160E+000	9	...........
	57	0.773333	8.13425E-001	1.00540E-004	0.00000E+000	8.17814E-005	5.99601E-002	8.13727E-001	3.58160E+000	9	...........
	58	0.786667	8.20805E-001	1.00292E-004	0.00000E+000	8.23199E-005	5.99601E-002	8.21123E-001	3.58160E+000	9	...........
	59	0.8	8.28029E-001	1.01604E-004	0.00000E+000	8.41314E-005	5.99601E-002	8.28330E-001	3.58160E+000	9	...........
	60	0.813333	8.35126E-001	1.00564E-004	0.00000E+000	8.39833E-005	5.99601E-002	8.35452E-001	3.58160E+000	9	...........
	61	0.826667	8.42099E-001	1.01578E-004	0.00000E+000	8.55391E-005	5.99601E-002	8.42437E-001	3.58160E+000	9	...........
	62	0.84	8.48961E-001	1.00423E-004	0.00000E+000	8.52552E-005	5.99601E-002	8.49273E-001	3.58160E+000	9	...........
	63	0.853333	8.55689E-001	1.00529E-004	0.00000E+000	8.60217E-005	5.99601E-002	8.56006E-001	3.58160E+000	9	...........
	64	0.866667	8.62314E-001	1.00770E-004	0.00000E+000	8.68953E-005	5.99601E-002	8.62633E-001	3.58160E+000	9	...........
	65	0.88	8.68805E-001	1.01087E-004	0.00000E+000	8.78246E-005	5.99601E-002	8.69131E-001	3.58160E+000	9	...........
	66	0.893333	8.75192E-001	1.00548E-004	0.00000E+000	8.79988E-005	5.99601E-002	8.75519E-001	3.58160E+000	9	...........
	67	0.906667	8.81465E-001	1.00592E-004	0.00000E+000	8.86681E-005	5.99601E-002	8.81794E-001	3.58160E+000	9	...........
	68	0.92	8.87618E-001	1.01226E-004	0.00000E+000	8.98502E-005	5.99601E-002	8.87962E-001	3.58160E+000	9	...........
	69	0.933333	8.93658E-001	1.00234E-004	0.00000E+000	8.95752E-005	5.99601E-002	8.94012E-001	3.58160E+000	9	...........
	70	0.946667	8.99610E-001	1.00002E-004	0.00000E+000	8.99628E-005	5.99601E-002	8.99960E-001	3.58160E+000	9	...........
	71	0.96	9.05425E-001	1.01191E-004	0.00000E+000	9.16207E-005	5.99601E-002	9.05788E-001	3.58160E+000	9	...........
	72	0.97333	9.11164E-001	1.01820E-004	0.00000E+000	9.27749E-005	5.99601E-002	9.11505E-001	3.58160E+000	9	...........
	73	0.98667	9.16784E-001	1.00952E-004	0.00000E+000	9.25514E-005	5.99601E-002	9.17134E-001	3.58160E+000	9	...........
	74	1	9.22342E-001	1.00750E-004	0.00000E+000	9.29261E-005	5.99601E-002	9.22659E-001	3.58160E+000	9	...........
	75	1.01333	9.27763E-001	1.01892E-004	0.00000E+000	9.45316E-005	5.99601E-002	9.28095E-001	3.58160E+000	9	...........
	76	1.02667	9.33069E-001	1.00978E-004	0.00000E+000	9.42197E-005	5.99601E-002	9.33409E-001	3.58160E+000	9	...........
	77	1.04	9.38268E-001	1.00482E-004	0.00000E+000	9.42794E-005	5.99601E-002	9.38638E-001	3.58160E+000	9	...........
	78	1.05333	9.43371E-001	1.00237E-004	0.00000E+000	9.45612E-005	5.99601E-002	9.43740E-001	3.58160E+000	9	...........
	79	1.06667	9.48421E-001	1.01510E-004	0.00000E+000	9.62738E-005	5.99601E-002	9.48789E-001	3.58160E+000	9	...........
	80	1.08	9.53340E-001	1.01079E-004	0.00000E+000	9.63630E-005	5.99601E-002	9.53695E-001	3.58160E+000	9	...........
	81	1.09333	9.58151E-001	1.00554E-004	0.00000E+000	9.63461E-005	5.99601E-002	9.58529E-001	3.58160E+000	9	...........
	82	1.10667	9.62862E-001	1.01292E-004	0.00000E+000	9.75301E-005	5.99601E-002	9.63271E-001	3.58160E+000	9	...........
	83	1.12	9.67504E-001	1.01625E-004	0.00000E+000	9.83229E-005	5.99601E-002	9.67903E-001	3.58160E+000	9	...........
	84	1.13333	9.72078E-001	1.01276E-004	0.00000E+000	9.84484E-005	5.99601E-002	9.72460E-001	3.58160E+000	9	...........
	85	1.14667	9.76532E-001	1.00439E-004	0.00000E+000	9.80815E-005	5.99601E-002	9.76926E-001	3.58160E+000	9	...........
	86	1.16	9.80900E-001	1.01098E-004	0.00000E+000	9.91671E-005	5.99601E-002	9.81278E-001	3.58160E+000	9	...........
	87	1.17333	9.85158E-001	1.00216E-004	0.00000E+000	9.87282E-005	5.99601E-002	9.85545E-001	3.58160E+000	9	...........
	88	1.18667	9.89342E-001	1.00724E-004	0.00000E+000	9.96505E-005	5.99601E-002	9.89727E-001	3.58160E+000	9	...........
	89	1.2	9.93421E-001	1.00475E-004	0.00000E+000	9.98140E-005	5.99601E-002	9.93816E-001	3.58160E+000	9	...........
	90	1.21333	9.97444E-001	1.00974E-004	0.00000E+000	1.00716E-004	5.99601E-002	9.97829E-001	3.58160E+000	9	...........
	91	1.21667	9.99911E-001	1.01757E-004	0.00000E+000	1.01747E-004	5.99601E-002	1.00027E+000	3.58160E+000	9	...........
STARTTIMEOFFSET	QUANT	1394.623	Start Time Offset (s)
