EXPLAIN
TAG	PWR800_CHARGE
TITLE	LABEL	PWR Cyclic Charge Discharge (Cell) - Charge Step	Test &Identifier
DATE	LABEL	13-7-2017	Date
TIME	LABEL	15:31:06	Time
NOTES	NOTES	2	&Notes...
	supercap test cell
	6M KOH
PSTAT	PSTAT	IFC5000-01520	Potentiostat
CAPACITY	QUANT	1.00000E-003	Capacity (A-hr)
CELLTYPE	SELECTOR	1	&Cell Type
WORKINGCONNECTION	SELECTOR	0	&Working Lead
MAXCHARGETIME	VARIABLEANDUNITS	1.00000E+002	s	1.00000E+002	second(s)	Max &Charge Time
CHARGECURRENT	QUANT	1.00000E-004	&Charge Current (A) 
VOLTAGEFINISH	TWOPARAM	F	1.00000E-003	3.60000E+003	&Voltage Finish	 I (A) < 	Max Time(s)
SAMPLETIME	QUANT	1.00000E-002	Sa&mple Period (s)
CHARGESTOPAT1	MULTIPARAM	4	1.00000E+000	Charge Stop At &1	Voltage > Limit	V
CHARGESTOPAT2	MULTIPARAM	0	0.00000E+000	Charge Stop At &2	None	N/A
AESBHCSELECTOR	TOGGLE	F	Save Both Half Cells
IRCOMP	TOGGLE	F	IR &Measure
EOC	QUANT	0	Open Circuit (V)
SEQUENCER	TOGGLE	TRUE	Run as Sequence
PSTATMODEL	IQUANT	53	Pstat Model
PSTATSECTION	LABEL	IFC5000-01520	Pstat Section
PSTATSERIALNO	LABEL	01520	Pstat Serial Number
CTRLMODE	IQUANT	0	Control Mode
ELECTROMETER	IQUANT	1	RE=0 or CS=1
IESTAB	IQUANT	0	I/E Stability
CASPEED	IQUANT	4	Control Amp Speed
CONVENTION	IQUANT	1	Current Convention
ICHRANGE	IQUANT	2	Ich Range
ICHRANGEMODE	TOGGLE	T	Ich Auto Range
ICHOFFSETENABLE	TOGGLE	F	Ich Offset Enable
ICHOFFSET	QUANT	0	Ich Offset (V)
ICHFILTER	IQUANT	1	Ich Filter
VCHRANGE	IQUANT	2	Vch Range
VCHRANGEMODE	TOGGLE	T	Vch Auto Range
VCHOFFSETENABLE	TOGGLE	F	Vch Offset Enable
VCHOFFSET	QUANT	0	Vch Offset (V)
VCHFILTER	IQUANT	1	Vch Filter
IERANGELOWERLIMIT	IQUANT	9	I/E Range Lower Limit
IERANGEMODE	TOGGLE	F	I/E AutoRange
IERANGE	IQUANT	9	I/E Range
ACHSELECT	IQUANT	1	Ach Select
ACHRANGE	IQUANT	2	Ach Range
ACHOFFSETENABLE	TOGGLE	F	Ach Offset Enable
ACHOFFSET	QUANT	0	Ach Offset (V)
ACHFILTER	IQUANT	1	Ach Filter
CABLEID	IQUANT	14	Cable ID
DCCALDATE	LABEL	5-7-2017	DC Calibration Date
ACCALDATE	LABEL	12/3/2015	AC Calibration Date
FRAMEWORKVERSION	QUANT	7.01	Framework Version
INSTRUMENTVERSION	LABEL	4.00	Instrument Version
CURVE	TABLE	92
	Pt	T	Vf	Im	Vu	Pwr	Sig	Ach	Temp	IERange	Over
	#	s	V	A	V	W	V	V	deg C	#	bits
	0	0.013333	1.33958E-001	1.01115E-004	0.00000E+000	1.35451E-005	5.99601E-002	1.34020E-001	3.57860E+000	9	...........
	1	0.026667	1.49229E-001	1.00870E-004	0.00000E+000	1.50527E-005	5.99601E-002	1.49249E-001	3.57860E+000	9	...........
	2	0.04	1.64058E-001	1.01477E-004	0.00000E+000	1.66482E-005	5.99601E-002	1.64085E-001	3.57860E+000	9	...........
	3	0.053333	1.78623E-001	1.01455E-004	0.00000E+000	1.81223E-005	5.99601E-002	1.78652E-001	3.57860E+000	9	...........
	4	0.066667	1.92987E-001	1.00609E-004	0.00000E+000	1.94163E-005	5.99601E-002	1.93018E-001	3.57860E+000	9	...........
	5	0.08	2.07214E-001	1.00164E-004	0.00000E+000	2.07553E-005	5.99601E-002	2.07246E-001	3.57860E+000	9	...........
	6	0.093333	2.21341E-001	1.00229E-004	0.00000E+000	2.21848E-005	5.99601E-002	2.21375E-001	3.57860E+000	9	...........
	7	0.106667	2.35396E-001	1.01564E-004	0.00000E+000	2.39078E-005	5.99601E-002	2.35436E-001	3.57860E+000	9	...........
	8	0.12	2.49396E-001	1.00413E-004	0.00000E+000	2.50425E-005	5.99601E-002	2.49438E-001	3.57860E+000	9	...........
	9	0.133333	2.63375E-001	1.01022E-004	0.00000E+000	2.66066E-005	5.99601E-002	2.63423E-001	3.57860E+000	9	...........
	10	0.146667	2.77344E-001	1.00667E-004	0.00000E+000	2.79193E-005	5.99601E-002	2.77395E-001	3.57860E+000	9	...........
	11	0.16	2.91310E-001	1.01119E-004	0.00000E+000	2.94569E-005	5.99601E-002	2.91365E-001	3.57860E+000	9	...........
	12	0.173333	3.05296E-001	1.01425E-004	0.00000E+000	3.09647E-005	5.99601E-002	3.05349E-001	3.57860E+000	9	...........
	13	0.186667	3.19283E-001	1.00613E-004	0.00000E+000	3.21239E-005	5.99601E-002	3.19348E-001	3.57860E+000	9	...........
	14	0.2	3.33299E-001	1.01045E-004	0.00000E+000	3.36782E-005	5.99601E-002	3.33360E-001	3.57860E+000	9	...........
	15	0.213333	3.47333E-001	1.00655E-004	0.00000E+000	3.49609E-005	5.99601E-002	3.47396E-001	3.57860E+000	9	...........
	16	0.226667	3.61378E-001	1.01243E-004	0.00000E+000	3.65870E-005	5.99601E-002	3.61445E-001	3.57860E+000	9	...........
	17	0.24	3.75433E-001	1.00712E-004	0.00000E+000	3.78104E-005	5.99601E-002	3.75505E-001	3.57860E+000	9	...........
	18	0.253333	3.89490E-001	1.00115E-004	0.00000E+000	3.89936E-005	5.99601E-002	3.89565E-001	3.57860E+000	9	...........
	19	0.266667	4.03531E-001	1.00454E-004	0.00000E+000	4.05364E-005	5.99601E-002	4.03611E-001	3.57860E+000	9	...........
	20	0.28	4.17541E-001	1.01478E-004	0.00000E+000	4.23714E-005	5.99601E-002	4.17624E-001	3.57860E+000	9	...........
	21	0.293333	4.31495E-001	1.00184E-004	0.00000E+000	4.32290E-005	5.99601E-002	4.31582E-001	3.57860E+000	9	...........
	22	0.306667	4.45377E-001	1.00864E-004	0.00000E+000	4.49224E-005	5.99601E-002	4.45471E-001	3.57860E+000	9	...........
	23	0.32	4.59179E-001	1.01092E-004	0.00000E+000	4.64192E-005	5.99601E-002	4.59272E-001	3.57860E+000	9	...........
	24	0.333333	4.72864E-001	1.00415E-004	0.00000E+000	4.74824E-005	5.99601E-002	4.72958E-001	3.57860E+000	9	...........
	25	0.346667	4.86404E-001	1.00651E-004	0.00000E+000	4.89571E-005	5.99601E-002	4.86505E-001	3.57860E+000	9	...........
	26	0.36	4.99791E-001	1.00382E-004	0.00000E+000	5.01701E-005	5.99601E-002	4.99896E-001	3.57860E+000	9	...........
	27	0.373333	5.13002E-001	1.00925E-004	0.00000E+000	5.17748E-005	5.99601E-002	5.13116E-001	3.57860E+000	9	...........
	28	0.386667	5.26037E-001	1.01236E-004	0.00000E+000	5.32537E-005	5.99601E-002	5.26152E-001	3.57860E+000	9	...........
	29	0.4	5.38525E-001	9.99905E-005	0.00000E+000	5.38474E-005	5.99601E-002	5.38815E-001	3.57860E+000	9	...........
	30	0.413333	5.51118E-001	1.01240E-004	0.00000E+000	5.57950E-005	5.99601E-002	5.51396E-001	3.57860E+000	9	...........
	31	0.426667	5.63541E-001	1.00857E-004	0.00000E+000	5.68373E-005	5.99601E-002	5.63811E-001	3.57860E+000	9	...........
	32	0.44	5.75718E-001	9.99853E-005	0.00000E+000	5.75634E-005	5.99601E-002	5.75990E-001	3.57860E+000	9	...........
	33	0.453333	5.87680E-001	1.01494E-004	0.00000E+000	5.96460E-005	5.99601E-002	5.87951E-001	3.57860E+000	9	...........
	34	0.466667	5.99397E-001	1.00576E-004	0.00000E+000	6.02850E-005	5.99601E-002	5.99660E-001	3.57860E+000	9	...........
	35	0.48	6.10886E-001	1.00395E-004	0.00000E+000	6.13298E-005	5.99601E-002	6.11141E-001	3.57860E+000	9	...........
	36	0.493333	6.22201E-001	1.01229E-004	0.00000E+000	6.29850E-005	5.99601E-002	6.22416E-001	3.57860E+000	9	...........
	37	0.506667	6.33229E-001	1.01090E-004	0.00000E+000	6.40130E-005	5.99601E-002	6.33444E-001	3.57860E+000	9	...........
	38	0.52	6.44058E-001	1.00924E-004	0.00000E+000	6.50010E-005	5.99601E-002	6.44293E-001	3.57860E+000	9	...........
	39	0.533333	6.54668E-001	1.01175E-004	0.00000E+000	6.62362E-005	5.99601E-002	6.54909E-001	3.57860E+000	9	...........
	40	0.546667	6.65083E-001	1.00797E-004	0.00000E+000	6.70384E-005	5.99601E-002	6.65308E-001	3.57860E+000	9	...........
	41	0.56	6.75275E-001	1.01076E-004	0.00000E+000	6.82542E-005	5.99601E-002	6.75519E-001	3.57860E+000	9	...........
	42	0.573333	6.85233E-001	1.00509E-004	0.00000E+000	6.88724E-005	5.99601E-002	6.85488E-001	3.57860E+000	9	...........
	43	0.586667	6.95026E-001	1.01152E-004	0.00000E+000	7.03034E-005	5.99601E-002	6.95282E-001	3.57860E+000	9	...........
	44	0.6	7.04612E-001	1.01167E-004	0.00000E+000	7.12834E-005	5.99601E-002	7.04866E-001	3.57860E+000	9	...........
	45	0.613333	7.14000E-001	1.00593E-004	0.00000E+000	7.18233E-005	5.99601E-002	7.14291E-001	3.57860E+000	9	...........
	46	0.626667	7.23257E-001	1.01552E-004	0.00000E+000	7.34485E-005	5.99601E-002	7.23508E-001	3.57860E+000	9	...........
	47	0.64	7.32266E-001	1.00400E-004	0.00000E+000	7.35195E-005	5.99601E-002	7.32546E-001	3.57860E+000	9	...........
	48	0.653333	7.41117E-001	1.01262E-004	0.00000E+000	7.50467E-005	5.99601E-002	7.41405E-001	3.57879E+000	9	...........
	49	0.666667	7.49832E-001	1.00365E-004	0.00000E+000	7.52566E-005	5.99601E-002	7.50090E-001	3.58010E+000	9	...........
	50	0.68	7.58339E-001	1.00921E-004	0.00000E+000	7.65323E-005	5.99601E-002	7.58629E-001	3.58010E+000	9	...........
	51	0.693333	7.66707E-001	1.00862E-004	0.00000E+000	7.73313E-005	5.99601E-002	7.66987E-001	3.58010E+000	9	...........
	52	0.706667	7.74914E-001	1.01747E-004	0.00000E+000	7.88453E-005	5.99601E-002	7.75205E-001	3.58010E+000	9	...........
	53	0.72	7.82948E-001	1.01379E-004	0.00000E+000	7.93748E-005	5.99601E-002	7.83252E-001	3.58010E+000	9	...........
	54	0.733333	7.90857E-001	1.01465E-004	0.00000E+000	8.02442E-005	5.99601E-002	7.91149E-001	3.58010E+000	9	...........
	55	0.746667	7.98614E-001	1.01317E-004	0.00000E+000	8.09131E-005	5.99601E-002	7.98893E-001	3.58010E+000	9	...........
	56	0.76	8.06204E-001	1.01754E-004	0.00000E+000	8.20349E-005	5.99601E-002	8.06505E-001	3.58010E+000	9	...........
	57	0.773333	8.13651E-001	1.00995E-004	0.00000E+000	8.21746E-005	5.99601E-002	8.13966E-001	3.58010E+000	9	...........
	58	0.786667	8.20996E-001	1.00852E-004	0.00000E+000	8.27993E-005	5.99601E-002	8.21317E-001	3.58010E+000	9	...........
	59	0.8	8.28185E-001	1.00620E-004	0.00000E+000	8.33318E-005	5.99601E-002	8.28492E-001	3.58010E+000	9	...........
	60	0.813333	8.35228E-001	1.00567E-004	0.00000E+000	8.39961E-005	5.99601E-002	8.35578E-001	3.58010E+000	9	...........
	61	0.826667	8.42169E-001	1.01295E-004	0.00000E+000	8.53075E-005	5.99601E-002	8.42519E-001	3.58010E+000	9	...........
	62	0.84	8.49027E-001	1.00081E-004	0.00000E+000	8.49716E-005	5.99601E-002	8.49353E-001	3.58010E+000	9	...........
	63	0.853333	8.55705E-001	1.01329E-004	0.00000E+000	8.67081E-005	5.99601E-002	8.56053E-001	3.58010E+000	9	...........
	64	0.866667	8.62284E-001	1.01100E-004	0.00000E+000	8.71770E-005	5.99601E-002	8.62647E-001	3.58010E+000	9	...........
	65	0.88	8.68757E-001	1.01467E-004	0.00000E+000	8.81501E-005	5.99601E-002	8.69102E-001	3.58010E+000	9	...........
	66	0.893333	8.75134E-001	1.00730E-004	0.00000E+000	8.81525E-005	5.99601E-002	8.75472E-001	3.58010E+000	9	...........
	67	0.906667	8.81366E-001	1.01675E-004	0.00000E+000	8.96131E-005	5.99601E-002	8.81706E-001	3.58010E+000	9	...........
	68	0.92	8.87492E-001	1.00913E-004	0.00000E+000	8.95591E-005	5.99601E-002	8.87818E-001	3.58010E+000	9	...........
	69	0.933333	8.93528E-001	1.01644E-004	0.00000E+000	9.08218E-005	5.99601E-002	8.93850E-001	3.58010E+000	9	...........
	70	0.946667	8.99431E-001	1.00766E-004	0.00000E+000	9.06318E-005	5.99601E-002	8.99762E-001	3.58010E+000	9	...........
	71	0.96	9.05226E-001	1.00665E-004	0.00000E+000	9.11243E-005	5.99601E-002	9.05568E-001	3.58010E+000	9	...........
	72	0.97333	9.10949E-001	1.00821E-004	0.00000E+000	9.18428E-005	5.99601E-002	9.11288E-001	3.58010E+000	9	...........
	73	0.98667	9.16540E-001	9.99187E-005	0.00000E+000	9.15795E-005	5.99601E-002	9.16883E-001	3.58010E+000	9	...........
	74	1	9.22063E-001	1.00314E-004	0.00000E+000	9.24954E-005	5.99601E-002	9.22375E-001	3.58010E+000	9	...........
	75	1.01333	9.27467E-001	1.01424E-004	0.00000E+000	9.40676E-005	5.99601E-002	9.27804E-001	3.58010E+000	9	...........
	76	1.02667	9.32759E-001	1.00739E-004	0.00000E+000	9.39648E-005	5.99601E-002	9.33104E-001	3.58010E+000	9	...........
	77	1.04	9.37939E-001	1.01066E-004	0.00000E+000	9.47936E-005	5.99601E-002	9.38291E-001	3.58010E+000	9	...........
	78	1.05333	9.43042E-001	1.01130E-004	0.00000E+000	9.53702E-005	5.99601E-002	9.43370E-001	3.58010E+000	9	...........
	79	1.06667	9.48091E-001	1.00473E-004	0.00000E+000	9.52575E-005	5.99601E-002	9.48391E-001	3.58010E+000	9	...........
	80	1.08	9.52991E-001	1.00420E-004	0.00000E+000	9.56992E-005	5.99601E-002	9.53310E-001	3.58010E+000	9	...........
	81	1.09333	9.57788E-001	1.01116E-004	0.00000E+000	9.68475E-005	5.99601E-002	9.58146E-001	3.58010E+000	9	...........
	82	1.10667	9.62488E-001	1.00940E-004	0.00000E+000	9.71533E-005	5.99601E-002	9.62871E-001	3.58010E+000	9	...........
	83	1.12	9.67106E-001	1.00468E-004	0.00000E+000	9.71630E-005	5.99601E-002	9.67486E-001	3.58010E+000	9	...........
	84	1.13333	9.71642E-001	1.00497E-004	0.00000E+000	9.76470E-005	5.99601E-002	9.72038E-001	3.58010E+000	9	...........
	85	1.14667	9.76122E-001	1.01021E-004	0.00000E+000	9.86088E-005	5.99601E-002	9.76484E-001	3.58010E+000	9	...........
	86	1.16	9.80464E-001	1.00773E-004	0.00000E+000	9.88043E-005	5.99601E-002	9.80824E-001	3.58010E+000	9	...........
	87	1.17333	9.84732E-001	1.00958E-004	0.00000E+000	9.94170E-005	5.99601E-002	9.85086E-001	3.58010E+000	9	...........
	88	1.18667	9.88906E-001	1.01413E-004	0.00000E+000	1.00288E-004	5.99601E-002	9.89264E-001	3.58010E+000	9	...........
	89	1.2	9.92962E-001	1.01339E-004	0.00000E+000	1.00626E-004	5.99601E-002	9.93352E-001	3.58010E+000	9	...........
	90	1.21333	9.96967E-001	1.00659E-004	0.00000E+000	1.00354E-004	5.99601E-002	9.97377E-001	3.58010E+000	9	...........
	91	1.21833	9.99676E-001	1.01118E-004	0.00000E+000	1.01085E-004	5.99601E-002	1.00009E+000	3.58010E+000	9	...........
STARTTIMEOFFSET	QUANT	1316.115	Start Time Offset (s)
