EXPLAIN
TAG	PWR800_CHARGE
TITLE	LABEL	PWR Cyclic Charge Discharge (Cell) - Charge Step	Test &Identifier
DATE	LABEL	13-7-2017	Date
TIME	LABEL	15:08:54	Time
NOTES	NOTES	2	&Notes...
	supercap test cell
	6M KOH
PSTAT	PSTAT	IFC5000-01520	Potentiostat
CAPACITY	QUANT	1.00000E-003	Capacity (A-hr)
CELLTYPE	SELECTOR	1	&Cell Type
WORKINGCONNECTION	SELECTOR	0	&Working Lead
MAXCHARGETIME	VARIABLEANDUNITS	1.00000E+002	s	1.00000E+002	second(s)	Max &Charge Time
CHARGECURRENT	QUANT	1.00000E-004	&Charge Current (A) 
VOLTAGEFINISH	TWOPARAM	F	1.00000E-003	3.60000E+003	&Voltage Finish	 I (A) < 	Max Time(s)
SAMPLETIME	QUANT	1.00000E-002	Sa&mple Period (s)
CHARGESTOPAT1	MULTIPARAM	4	1.00000E+000	Charge Stop At &1	Voltage > Limit	V
CHARGESTOPAT2	MULTIPARAM	0	0.00000E+000	Charge Stop At &2	None	N/A
AESBHCSELECTOR	TOGGLE	F	Save Both Half Cells
IRCOMP	TOGGLE	F	IR &Measure
EOC	QUANT	0	Open Circuit (V)
SEQUENCER	TOGGLE	TRUE	Run as Sequence
PSTATMODEL	IQUANT	53	Pstat Model
PSTATSECTION	LABEL	IFC5000-01520	Pstat Section
PSTATSERIALNO	LABEL	01520	Pstat Serial Number
CTRLMODE	IQUANT	0	Control Mode
ELECTROMETER	IQUANT	1	RE=0 or CS=1
IESTAB	IQUANT	0	I/E Stability
CASPEED	IQUANT	4	Control Amp Speed
CONVENTION	IQUANT	1	Current Convention
ICHRANGE	IQUANT	2	Ich Range
ICHRANGEMODE	TOGGLE	T	Ich Auto Range
ICHOFFSETENABLE	TOGGLE	F	Ich Offset Enable
ICHOFFSET	QUANT	0	Ich Offset (V)
ICHFILTER	IQUANT	1	Ich Filter
VCHRANGE	IQUANT	2	Vch Range
VCHRANGEMODE	TOGGLE	T	Vch Auto Range
VCHOFFSETENABLE	TOGGLE	F	Vch Offset Enable
VCHOFFSET	QUANT	0	Vch Offset (V)
VCHFILTER	IQUANT	1	Vch Filter
IERANGELOWERLIMIT	IQUANT	9	I/E Range Lower Limit
IERANGEMODE	TOGGLE	F	I/E AutoRange
IERANGE	IQUANT	9	I/E Range
ACHSELECT	IQUANT	1	Ach Select
ACHRANGE	IQUANT	2	Ach Range
ACHOFFSETENABLE	TOGGLE	F	Ach Offset Enable
ACHOFFSET	QUANT	0	Ach Offset (V)
ACHFILTER	IQUANT	1	Ach Filter
CABLEID	IQUANT	14	Cable ID
DCCALDATE	LABEL	5-7-2017	DC Calibration Date
ACCALDATE	LABEL	12/3/2015	AC Calibration Date
FRAMEWORKVERSION	QUANT	7.01	Framework Version
INSTRUMENTVERSION	LABEL	4.00	Instrument Version
CURVE	TABLE	98
	Pt	T	Vf	Im	Vu	Pwr	Sig	Ach	Temp	IERange	Over
	#	s	V	A	V	W	V	V	deg C	#	bits
	0	0.013333	1.34300E-001	1.01493E-004	0.00000E+000	1.36305E-005	5.99601E-002	1.34347E-001	3.57999E+000	9	...........
	1	0.026667	1.49601E-001	1.00572E-004	0.00000E+000	1.50456E-005	5.99601E-002	1.49620E-001	3.57920E+000	9	...........
	2	0.04	1.64462E-001	1.00510E-004	0.00000E+000	1.65302E-005	5.99601E-002	1.64491E-001	3.57920E+000	9	...........
	3	0.053333	1.79061E-001	1.01406E-004	0.00000E+000	1.81579E-005	5.99601E-002	1.79091E-001	3.57920E+000	9	...........
	4	0.066667	1.93454E-001	1.01017E-004	0.00000E+000	1.95421E-005	5.99601E-002	1.93493E-001	3.57920E+000	9	...........
	5	0.08	2.07710E-001	1.00388E-004	0.00000E+000	2.08515E-005	5.99601E-002	2.07745E-001	3.57920E+000	9	...........
	6	0.093333	2.21857E-001	1.00831E-004	0.00000E+000	2.23701E-005	5.99601E-002	2.21897E-001	3.57920E+000	9	...........
	7	0.106667	2.35922E-001	1.00632E-004	0.00000E+000	2.37414E-005	5.99601E-002	2.35969E-001	3.57920E+000	9	...........
	8	0.12	2.49925E-001	1.01171E-004	0.00000E+000	2.52852E-005	5.99601E-002	2.49983E-001	3.57920E+000	9	...........
	9	0.133333	2.63895E-001	1.00360E-004	0.00000E+000	2.64846E-005	5.99601E-002	2.63950E-001	3.57920E+000	9	...........
	10	0.146667	2.77845E-001	1.01168E-004	0.00000E+000	2.81089E-005	5.99601E-002	2.77897E-001	3.57920E+000	9	...........
	11	0.16	2.91768E-001	1.01327E-004	0.00000E+000	2.95641E-005	5.99601E-002	2.91825E-001	3.57920E+000	9	...........
	12	0.173333	3.05681E-001	1.01083E-004	0.00000E+000	3.08993E-005	5.99601E-002	3.05738E-001	3.57920E+000	9	...........
	13	0.186667	3.19581E-001	9.97290E-005	0.00000E+000	3.18715E-005	5.99601E-002	3.19651E-001	3.57920E+000	9	...........
	14	0.2	3.33475E-001	1.00343E-004	0.00000E+000	3.34618E-005	5.99601E-002	3.33541E-001	3.57920E+000	9	...........
	15	0.213333	3.47361E-001	1.01206E-004	0.00000E+000	3.51551E-005	5.99601E-002	3.47428E-001	3.57920E+000	9	...........
	16	0.226667	3.61225E-001	1.00974E-004	0.00000E+000	3.64744E-005	5.99601E-002	3.61300E-001	3.57920E+000	9	...........
	17	0.24	3.75064E-001	1.00925E-004	0.00000E+000	3.78534E-005	5.99601E-002	3.75132E-001	3.57920E+000	9	...........
	18	0.253333	3.88860E-001	1.00278E-004	0.00000E+000	3.89941E-005	5.99601E-002	3.88931E-001	3.57920E+000	9	...........
	19	0.266667	4.02599E-001	1.01428E-004	0.00000E+000	4.08350E-005	5.99601E-002	4.02675E-001	3.57920E+000	9	...........
	20	0.28	4.16267E-001	9.99697E-005	0.00000E+000	4.16141E-005	5.99601E-002	4.16351E-001	3.57920E+000	9	...........
	21	0.293333	4.29847E-001	1.00488E-004	0.00000E+000	4.31943E-005	5.99601E-002	4.29936E-001	3.57920E+000	9	...........
	22	0.306667	4.43323E-001	1.01173E-004	0.00000E+000	4.48523E-005	5.99601E-002	4.43416E-001	3.57920E+000	9	...........
	23	0.32	4.56672E-001	1.00863E-004	0.00000E+000	4.60611E-005	5.99601E-002	4.56768E-001	3.57920E+000	9	...........
	24	0.333333	4.69878E-001	1.01064E-004	0.00000E+000	4.74876E-005	5.99601E-002	4.69974E-001	3.57920E+000	9	...........
	25	0.346667	4.82922E-001	1.00414E-004	0.00000E+000	4.84919E-005	5.99601E-002	4.83020E-001	3.57920E+000	9	...........
	26	0.36	4.95786E-001	1.01187E-004	0.00000E+000	5.01670E-005	5.99601E-002	4.95892E-001	3.57920E+000	9	...........
	27	0.373333	5.08465E-001	1.00617E-004	0.00000E+000	5.11601E-005	5.99601E-002	5.08572E-001	3.57920E+000	9	...........
	28	0.386667	5.20943E-001	1.00767E-004	0.00000E+000	5.24937E-005	5.99601E-002	5.21055E-001	3.57920E+000	9	...........
	29	0.4	5.33056E-001	1.01735E-004	0.00000E+000	5.42303E-005	5.99601E-002	5.33214E-001	3.57920E+000	9	...........
	30	0.413333	5.44885E-001	1.01010E-004	0.00000E+000	5.50386E-005	5.99601E-002	5.45147E-001	3.57920E+000	9	...........
	31	0.426667	5.56703E-001	1.01839E-004	0.00000E+000	5.66940E-005	5.99601E-002	5.56995E-001	3.57920E+000	9	...........
	32	0.44	5.68366E-001	1.01462E-004	0.00000E+000	5.76674E-005	5.99601E-002	5.68618E-001	3.57920E+000	9	...........
	33	0.453333	5.79719E-001	1.00961E-004	0.00000E+000	5.85288E-005	5.99601E-002	5.80028E-001	3.57920E+000	9	...........
	34	0.466667	5.90902E-001	1.00920E-004	0.00000E+000	5.96338E-005	5.99601E-002	5.91228E-001	3.57920E+000	9	...........
	35	0.48	6.01844E-001	1.01426E-004	0.00000E+000	6.10428E-005	5.99601E-002	6.02168E-001	3.57920E+000	9	...........
	36	0.493333	6.12580E-001	1.00459E-004	0.00000E+000	6.15395E-005	5.99601E-002	6.12912E-001	3.57920E+000	9	...........
	37	0.506667	6.23148E-001	1.00772E-004	0.00000E+000	6.27958E-005	5.99601E-002	6.23418E-001	3.57920E+000	9	...........
	38	0.52	6.33446E-001	1.00761E-004	0.00000E+000	6.38263E-005	5.99601E-002	6.33738E-001	3.57920E+000	9	...........
	39	0.533333	6.43559E-001	9.98301E-005	0.00000E+000	6.42466E-005	5.99601E-002	6.43863E-001	3.57920E+000	9	...........
	40	0.546667	6.53463E-001	1.00642E-004	0.00000E+000	6.57656E-005	5.99601E-002	6.53747E-001	3.57920E+000	9	...........
	41	0.56	6.63162E-001	1.01427E-004	0.00000E+000	6.72627E-005	5.99601E-002	6.63449E-001	3.57920E+000	9	...........
	42	0.573333	6.72683E-001	1.01128E-004	0.00000E+000	6.80272E-005	5.99601E-002	6.72954E-001	3.57920E+000	9	...........
	43	0.586667	6.81985E-001	1.00756E-004	0.00000E+000	6.87143E-005	5.99601E-002	6.82287E-001	3.57920E+000	9	...........
	44	0.6	6.91123E-001	9.99708E-005	0.00000E+000	6.90921E-005	5.99601E-002	6.91403E-001	3.57920E+000	9	...........
	45	0.613333	7.00071E-001	1.00664E-004	0.00000E+000	7.04717E-005	5.99601E-002	7.00390E-001	3.57920E+000	9	...........
	46	0.626667	7.08853E-001	1.01741E-004	0.00000E+000	7.21194E-005	5.99601E-002	7.09154E-001	3.57920E+000	9	...........
	47	0.64	7.17462E-001	1.01302E-004	0.00000E+000	7.26805E-005	5.99601E-002	7.17774E-001	3.57920E+000	9	...........
	48	0.653333	7.25931E-001	9.98780E-005	0.00000E+000	7.25046E-005	5.99601E-002	7.26225E-001	3.57920E+000	9	...........
	49	0.666667	7.34193E-001	1.00376E-004	0.00000E+000	7.36954E-005	5.99601E-002	7.34495E-001	3.57920E+000	9	...........
	50	0.68	7.42302E-001	1.00096E-004	0.00000E+000	7.43013E-005	5.99601E-002	7.42628E-001	3.57920E+000	9	...........
	51	0.693333	7.50282E-001	1.00535E-004	0.00000E+000	7.54300E-005	5.99601E-002	7.50596E-001	3.57920E+000	9	...........
	52	0.706667	7.58120E-001	1.01761E-004	0.00000E+000	7.71469E-005	5.99601E-002	7.58414E-001	3.57920E+000	9	...........
	53	0.72	7.65783E-001	1.01500E-004	0.00000E+000	7.77272E-005	5.99601E-002	7.66110E-001	3.57920E+000	9	...........
	54	0.733333	7.73332E-001	1.00772E-004	0.00000E+000	7.79302E-005	5.99601E-002	7.73636E-001	3.57920E+000	9	...........
	55	0.746667	7.80729E-001	1.01029E-004	0.00000E+000	7.88765E-005	5.99601E-002	7.81042E-001	3.57920E+000	9	...........
	56	0.76	7.87969E-001	1.00958E-004	0.00000E+000	7.95521E-005	5.99601E-002	7.88295E-001	3.57920E+000	9	...........
	57	0.773333	7.95163E-001	1.01509E-004	0.00000E+000	8.07158E-005	5.99601E-002	7.95441E-001	3.57920E+000	9	...........
	58	0.786667	8.02154E-001	1.00689E-004	0.00000E+000	8.07678E-005	5.99601E-002	8.02467E-001	3.57920E+000	9	...........
	59	0.8	8.09010E-001	9.93696E-005	0.00000E+000	8.03910E-005	5.99601E-002	8.09351E-001	3.57920E+000	9	...........
	60	0.813333	8.15783E-001	1.02010E-004	0.00000E+000	8.32178E-005	5.99601E-002	8.16132E-001	3.57920E+000	9	...........
	61	0.826667	8.22463E-001	1.01041E-004	0.00000E+000	8.31023E-005	5.99601E-002	8.22812E-001	3.57920E+000	9	...........
	62	0.84	8.28993E-001	1.01014E-004	0.00000E+000	8.37396E-005	5.99601E-002	8.29338E-001	3.57920E+000	9	...........
	63	0.853333	8.35410E-001	9.97103E-005	0.00000E+000	8.32990E-005	5.99601E-002	8.35791E-001	3.57920E+000	9	...........
	64	0.866667	8.41740E-001	1.00871E-004	0.00000E+000	8.49071E-005	5.99601E-002	8.42098E-001	3.57920E+000	9	...........
	65	0.88	8.47974E-001	1.01271E-004	0.00000E+000	8.58752E-005	5.99601E-002	8.48334E-001	3.57920E+000	9	...........
	66	0.893333	8.54077E-001	1.01870E-004	0.00000E+000	8.70049E-005	5.99601E-002	8.54448E-001	3.57920E+000	9	...........
	67	0.906667	8.60087E-001	1.00789E-004	0.00000E+000	8.66870E-005	5.99601E-002	8.60463E-001	3.57920E+000	9	...........
	68	0.92	8.65986E-001	1.00637E-004	0.00000E+000	8.71499E-005	5.99601E-002	8.66386E-001	3.57920E+000	9	...........
	69	0.933333	8.71841E-001	1.01553E-004	0.00000E+000	8.85384E-005	5.99601E-002	8.72213E-001	3.57920E+000	9	...........
	70	0.946667	8.77546E-001	1.00557E-004	0.00000E+000	8.82437E-005	5.99601E-002	8.77906E-001	3.57920E+000	9	...........
	71	0.96	8.83180E-001	1.00470E-004	0.00000E+000	8.87330E-005	5.99601E-002	8.83539E-001	3.57920E+000	9	...........
	72	0.97333	8.88716E-001	1.00631E-004	0.00000E+000	8.94327E-005	5.99601E-002	8.89089E-001	3.57920E+000	9	...........
	73	0.98667	8.94114E-001	1.00167E-004	0.00000E+000	8.95604E-005	5.99601E-002	8.94529E-001	3.57920E+000	9	...........
	74	1	8.99479E-001	1.01376E-004	0.00000E+000	9.11858E-005	5.99601E-002	8.99894E-001	3.57920E+000	9	...........
	75	1.01333	9.04720E-001	1.00463E-004	0.00000E+000	9.08904E-005	5.99601E-002	9.05119E-001	3.57918E+000	9	...........
	76	1.02667	9.09905E-001	1.00131E-004	0.00000E+000	9.11099E-005	5.99601E-002	9.10280E-001	3.57910E+000	9	...........
	77	1.04	9.14985E-001	1.01277E-004	0.00000E+000	9.26671E-005	5.99601E-002	9.15378E-001	3.57910E+000	9	...........
	78	1.05333	9.20001E-001	1.00058E-004	0.00000E+000	9.20538E-005	5.99601E-002	9.20367E-001	3.57910E+000	9	...........
	79	1.06667	9.24957E-001	1.00527E-004	0.00000E+000	9.29833E-005	5.99601E-002	9.25275E-001	3.57910E+000	9	...........
	80	1.08	9.29751E-001	1.01478E-004	0.00000E+000	9.43496E-005	5.99601E-002	9.30095E-001	3.57910E+000	9	...........
	81	1.09333	9.34484E-001	1.01096E-004	0.00000E+000	9.44726E-005	5.99601E-002	9.34839E-001	3.57910E+000	9	...........
	82	1.10667	9.39154E-001	1.00562E-004	0.00000E+000	9.44427E-005	5.99601E-002	9.39498E-001	3.57910E+000	9	...........
	83	1.12	9.43699E-001	1.01256E-004	0.00000E+000	9.55556E-005	5.99601E-002	9.44080E-001	3.57910E+000	9	...........
	84	1.13333	9.48232E-001	1.00859E-004	0.00000E+000	9.56382E-005	5.99601E-002	9.48585E-001	3.57910E+000	9	...........
	85	1.14667	9.52623E-001	1.01211E-004	0.00000E+000	9.64156E-005	5.99601E-002	9.53005E-001	3.57910E+000	9	...........
	86	1.16	9.56949E-001	1.00028E-004	0.00000E+000	9.57217E-005	5.99601E-002	9.57329E-001	3.57910E+000	9	...........
	87	1.17333	9.61179E-001	1.01093E-004	0.00000E+000	9.71684E-005	5.99601E-002	9.61594E-001	3.57910E+000	9	...........
	88	1.18667	9.65332E-001	1.01312E-004	0.00000E+000	9.77994E-005	5.99601E-002	9.65745E-001	3.57910E+000	9	...........
	89	1.2	9.69412E-001	9.99062E-005	0.00000E+000	9.68502E-005	5.99601E-002	9.69835E-001	3.57910E+000	9	...........
	90	1.21333	9.73480E-001	1.01594E-004	0.00000E+000	9.88997E-005	5.99601E-002	9.73884E-001	3.57910E+000	9	...........
	91	1.22667	9.77426E-001	1.00970E-004	0.00000E+000	9.86907E-005	5.99601E-002	9.77811E-001	3.57910E+000	9	...........
	92	1.24	9.81262E-001	1.00567E-004	0.00000E+000	9.86823E-005	5.99601E-002	9.81651E-001	3.57910E+000	9	...........
	93	1.25333	9.85042E-001	1.01248E-004	0.00000E+000	9.97336E-005	5.99601E-002	9.85446E-001	3.57910E+000	9	...........
	94	1.26667	9.88768E-001	1.01126E-004	0.00000E+000	9.99904E-005	5.99601E-002	9.89161E-001	3.57910E+000	9	...........
	95	1.28	9.92366E-001	1.01369E-004	0.00000E+000	1.00595E-004	5.99601E-002	9.92772E-001	3.57910E+000	9	...........
	96	1.29333	9.95927E-001	1.00166E-004	0.00000E+000	9.97576E-005	5.99601E-002	9.96321E-001	3.57910E+000	9	...........
	97	1.30333	9.99014E-001	1.01461E-004	0.00000E+000	1.01361E-004	5.99601E-002	9.99404E-001	3.57910E+000	9	...........
STARTTIMEOFFSET	QUANT	308.2098	Start Time Offset (s)
