EXPLAIN
TAG	PWR800_CHARGE
TITLE	LABEL	PWR Cyclic Charge Discharge (Cell) - Charge Step	Test &Identifier
DATE	LABEL	13-7-2017	Date
TIME	LABEL	15:18:13	Time
NOTES	NOTES	2	&Notes...
	supercap test cell
	6M KOH
PSTAT	PSTAT	IFC5000-01520	Potentiostat
CAPACITY	QUANT	1.00000E-003	Capacity (A-hr)
CELLTYPE	SELECTOR	1	&Cell Type
WORKINGCONNECTION	SELECTOR	0	&Working Lead
MAXCHARGETIME	VARIABLEANDUNITS	1.00000E+002	s	1.00000E+002	second(s)	Max &Charge Time
CHARGECURRENT	QUANT	1.00000E-004	&Charge Current (A) 
VOLTAGEFINISH	TWOPARAM	F	1.00000E-003	3.60000E+003	&Voltage Finish	 I (A) < 	Max Time(s)
SAMPLETIME	QUANT	1.00000E-002	Sa&mple Period (s)
CHARGESTOPAT1	MULTIPARAM	4	1.00000E+000	Charge Stop At &1	Voltage > Limit	V
CHARGESTOPAT2	MULTIPARAM	0	0.00000E+000	Charge Stop At &2	None	N/A
AESBHCSELECTOR	TOGGLE	F	Save Both Half Cells
IRCOMP	TOGGLE	F	IR &Measure
EOC	QUANT	0	Open Circuit (V)
SEQUENCER	TOGGLE	TRUE	Run as Sequence
PSTATMODEL	IQUANT	53	Pstat Model
PSTATSECTION	LABEL	IFC5000-01520	Pstat Section
PSTATSERIALNO	LABEL	01520	Pstat Serial Number
CTRLMODE	IQUANT	0	Control Mode
ELECTROMETER	IQUANT	1	RE=0 or CS=1
IESTAB	IQUANT	0	I/E Stability
CASPEED	IQUANT	4	Control Amp Speed
CONVENTION	IQUANT	1	Current Convention
ICHRANGE	IQUANT	2	Ich Range
ICHRANGEMODE	TOGGLE	T	Ich Auto Range
ICHOFFSETENABLE	TOGGLE	F	Ich Offset Enable
ICHOFFSET	QUANT	0	Ich Offset (V)
ICHFILTER	IQUANT	1	Ich Filter
VCHRANGE	IQUANT	2	Vch Range
VCHRANGEMODE	TOGGLE	T	Vch Auto Range
VCHOFFSETENABLE	TOGGLE	F	Vch Offset Enable
VCHOFFSET	QUANT	0	Vch Offset (V)
VCHFILTER	IQUANT	1	Vch Filter
IERANGELOWERLIMIT	IQUANT	9	I/E Range Lower Limit
IERANGEMODE	TOGGLE	F	I/E AutoRange
IERANGE	IQUANT	9	I/E Range
ACHSELECT	IQUANT	1	Ach Select
ACHRANGE	IQUANT	2	Ach Range
ACHOFFSETENABLE	TOGGLE	F	Ach Offset Enable
ACHOFFSET	QUANT	0	Ach Offset (V)
ACHFILTER	IQUANT	1	Ach Filter
CABLEID	IQUANT	14	Cable ID
DCCALDATE	LABEL	5-7-2017	DC Calibration Date
ACCALDATE	LABEL	12/3/2015	AC Calibration Date
FRAMEWORKVERSION	QUANT	7.01	Framework Version
INSTRUMENTVERSION	LABEL	4.00	Instrument Version
CURVE	TABLE	95
	Pt	T	Vf	Im	Vu	Pwr	Sig	Ach	Temp	IERange	Over
	#	s	V	A	V	W	V	V	deg C	#	bits
	0	0.013333	1.33838E-001	1.02323E-004	0.00000E+000	1.36948E-005	5.99601E-002	1.33888E-001	3.58000E+000	9	...........
	1	0.026667	1.49059E-001	1.01038E-004	0.00000E+000	1.50605E-005	5.99601E-002	1.49078E-001	3.58000E+000	9	...........
	2	0.04	1.63837E-001	1.01729E-004	0.00000E+000	1.66670E-005	5.99601E-002	1.63865E-001	3.57938E+000	9	...........
	3	0.053333	1.78341E-001	1.00811E-004	0.00000E+000	1.79786E-005	5.99601E-002	1.78373E-001	3.57900E+000	9	...........
	4	0.066667	1.92661E-001	1.01284E-004	0.00000E+000	1.95134E-005	5.99601E-002	1.92696E-001	3.57900E+000	9	...........
	5	0.08	2.06833E-001	1.01069E-004	0.00000E+000	2.09044E-005	5.99601E-002	2.06868E-001	3.57900E+000	9	...........
	6	0.093333	2.20901E-001	1.01686E-004	0.00000E+000	2.24625E-005	5.99601E-002	2.20943E-001	3.57900E+000	9	...........
	7	0.106667	2.34904E-001	1.00752E-004	0.00000E+000	2.36671E-005	5.99601E-002	2.34946E-001	3.57900E+000	9	...........
	8	0.12	2.48844E-001	1.01687E-004	0.00000E+000	2.53042E-005	5.99601E-002	2.48898E-001	3.57900E+000	9	...........
	9	0.133333	2.62761E-001	1.00857E-004	0.00000E+000	2.65014E-005	5.99601E-002	2.62812E-001	3.57900E+000	9	...........
	10	0.146667	2.76656E-001	1.00961E-004	0.00000E+000	2.79313E-005	5.99601E-002	2.76712E-001	3.57900E+000	9	...........
	11	0.16	2.90545E-001	1.00392E-004	0.00000E+000	2.91683E-005	5.99601E-002	2.90601E-001	3.57900E+000	9	...........
	12	0.173333	3.04438E-001	1.00734E-004	0.00000E+000	3.06674E-005	5.99601E-002	3.04501E-001	3.57900E+000	9	...........
	13	0.186667	3.18337E-001	1.01057E-004	0.00000E+000	3.21704E-005	5.99601E-002	3.18397E-001	3.57900E+000	9	...........
	14	0.2	3.32238E-001	1.00767E-004	0.00000E+000	3.34785E-005	5.99601E-002	3.32300E-001	3.57900E+000	9	...........
	15	0.213333	3.46152E-001	1.00291E-004	0.00000E+000	3.47158E-005	5.99601E-002	3.46215E-001	3.57900E+000	9	...........
	16	0.226667	3.60069E-001	1.01396E-004	0.00000E+000	3.65095E-005	5.99601E-002	3.60141E-001	3.57900E+000	9	...........
	17	0.24	3.73988E-001	1.01742E-004	0.00000E+000	3.80503E-005	5.99601E-002	3.74055E-001	3.57900E+000	9	...........
	18	0.253333	3.87894E-001	1.00707E-004	0.00000E+000	3.90637E-005	5.99601E-002	3.87961E-001	3.57900E+000	9	...........
	19	0.266667	4.01764E-001	1.00698E-004	0.00000E+000	4.04569E-005	5.99601E-002	4.01845E-001	3.57900E+000	9	...........
	20	0.28	4.15595E-001	1.01045E-004	0.00000E+000	4.19938E-005	5.99601E-002	4.15680E-001	3.57900E+000	9	...........
	21	0.293333	4.29360E-001	1.00386E-004	0.00000E+000	4.31020E-005	5.99601E-002	4.29452E-001	3.57900E+000	9	...........
	22	0.306667	4.43052E-001	1.00408E-004	0.00000E+000	4.44861E-005	5.99601E-002	4.43146E-001	3.57900E+000	9	...........
	23	0.32	4.56633E-001	1.01392E-004	0.00000E+000	4.62989E-005	5.99601E-002	4.56730E-001	3.57900E+000	9	...........
	24	0.333333	4.70094E-001	1.00992E-004	0.00000E+000	4.74757E-005	5.99601E-002	4.70193E-001	3.57900E+000	9	...........
	25	0.346667	4.83418E-001	1.00424E-004	0.00000E+000	4.85467E-005	5.99601E-002	4.83518E-001	3.57900E+000	9	...........
	26	0.36	4.96576E-001	1.00417E-004	0.00000E+000	4.98645E-005	5.99601E-002	4.96684E-001	3.57900E+000	9	...........
	27	0.373333	5.09561E-001	1.01564E-004	0.00000E+000	5.17530E-005	5.99601E-002	5.09671E-001	3.57900E+000	9	...........
	28	0.386667	5.22355E-001	9.96509E-005	0.00000E+000	5.20532E-005	5.99601E-002	5.22469E-001	3.57900E+000	9	...........
	29	0.4	5.34752E-001	1.00876E-004	0.00000E+000	5.39437E-005	5.99601E-002	5.34919E-001	3.57900E+000	9	...........
	30	0.413333	5.46945E-001	1.01002E-004	0.00000E+000	5.52426E-005	5.99601E-002	5.47240E-001	3.57900E+000	9	...........
	31	0.426667	5.59132E-001	1.01255E-004	0.00000E+000	5.66151E-005	5.99601E-002	5.59405E-001	3.57900E+000	9	...........
	32	0.44	5.71089E-001	1.01025E-004	0.00000E+000	5.76943E-005	5.99601E-002	5.71363E-001	3.57900E+000	9	...........
	33	0.453333	5.82781E-001	1.01366E-004	0.00000E+000	5.90740E-005	5.99601E-002	5.83098E-001	3.57900E+000	9	...........
	34	0.466667	5.94300E-001	1.00315E-004	0.00000E+000	5.96169E-005	5.99601E-002	5.94592E-001	3.57900E+000	9	...........
	35	0.48	6.05551E-001	1.01125E-004	0.00000E+000	6.12365E-005	5.99601E-002	6.05861E-001	3.57900E+000	9	...........
	36	0.493333	6.16632E-001	1.00717E-004	0.00000E+000	6.21052E-005	5.99601E-002	6.16904E-001	3.57900E+000	9	...........
	37	0.506667	6.27476E-001	1.00667E-004	0.00000E+000	6.31659E-005	5.99601E-002	6.27723E-001	3.57900E+000	9	...........
	38	0.52	6.38053E-001	9.96374E-005	0.00000E+000	6.35740E-005	5.99601E-002	6.38327E-001	3.57900E+000	9	...........
	39	0.533333	6.48475E-001	1.01473E-004	0.00000E+000	6.58028E-005	5.99601E-002	6.48747E-001	3.57900E+000	9	...........
	40	0.546667	6.58672E-001	1.00568E-004	0.00000E+000	6.62412E-005	5.99601E-002	6.58943E-001	3.57900E+000	9	...........
	41	0.56	6.68669E-001	1.00831E-004	0.00000E+000	6.74228E-005	5.99601E-002	6.68980E-001	3.57900E+000	9	...........
	42	0.573333	6.78443E-001	1.01505E-004	0.00000E+000	6.88657E-005	5.99601E-002	6.78765E-001	3.57900E+000	9	...........
	43	0.586667	6.88042E-001	1.01698E-004	0.00000E+000	6.99726E-005	5.99601E-002	6.88369E-001	3.57900E+000	9	...........
	44	0.6	6.97468E-001	1.00081E-004	0.00000E+000	6.98034E-005	5.99601E-002	6.97775E-001	3.57900E+000	9	...........
	45	0.613333	7.06678E-001	1.01332E-004	0.00000E+000	7.16094E-005	5.99601E-002	7.07005E-001	3.57900E+000	9	...........
	46	0.626667	7.15730E-001	1.00637E-004	0.00000E+000	7.20285E-005	5.99601E-002	7.16079E-001	3.57900E+000	9	...........
	47	0.64	7.24627E-001	1.00007E-004	0.00000E+000	7.24679E-005	5.99601E-002	7.24933E-001	3.57900E+000	9	...........
	48	0.653333	7.33323E-001	1.01635E-004	0.00000E+000	7.45310E-005	5.99601E-002	7.33630E-001	3.57900E+000	9	...........
	49	0.666667	7.41838E-001	1.01288E-004	0.00000E+000	7.51391E-005	5.99601E-002	7.42174E-001	3.57900E+000	9	...........
	50	0.68	7.50214E-001	1.00665E-004	0.00000E+000	7.55200E-005	5.99601E-002	7.50529E-001	3.57900E+000	9	...........
	51	0.693333	7.58448E-001	1.00576E-004	0.00000E+000	7.62817E-005	5.99601E-002	7.58726E-001	3.57900E+000	9	...........
	52	0.706667	7.66493E-001	1.01448E-004	0.00000E+000	7.77593E-005	5.99601E-002	7.66805E-001	3.57900E+000	9	...........
	53	0.72	7.74406E-001	1.00120E-004	0.00000E+000	7.75334E-005	5.99601E-002	7.74706E-001	3.57900E+000	9	...........
	54	0.733333	7.82149E-001	1.00914E-004	0.00000E+000	7.89295E-005	5.99601E-002	7.82477E-001	3.57900E+000	9	...........
	55	0.746667	7.89772E-001	1.00843E-004	0.00000E+000	7.96428E-005	5.99601E-002	7.90085E-001	3.57900E+000	9	...........
	56	0.76	7.97261E-001	1.00007E-004	0.00000E+000	7.97319E-005	5.99601E-002	7.97575E-001	3.57900E+000	9	...........
	57	0.773333	8.04601E-001	1.00583E-004	0.00000E+000	8.09295E-005	5.99601E-002	8.04920E-001	3.57900E+000	9	...........
	58	0.786667	8.11780E-001	1.01038E-004	0.00000E+000	8.20204E-005	5.99601E-002	8.12126E-001	3.57900E+000	9	...........
	59	0.8	8.18880E-001	1.00826E-004	0.00000E+000	8.25645E-005	5.99601E-002	8.19230E-001	3.57900E+000	9	...........
	60	0.813333	8.25858E-001	1.01493E-004	0.00000E+000	8.38188E-005	5.99601E-002	8.26193E-001	3.57900E+000	9	...........
	61	0.826667	8.32674E-001	1.00872E-004	0.00000E+000	8.39935E-005	5.99601E-002	8.33023E-001	3.57900E+000	9	...........
	62	0.84	8.39380E-001	1.01828E-004	0.00000E+000	8.54728E-005	5.99601E-002	8.39725E-001	3.57900E+000	9	...........
	63	0.853333	8.46018E-001	1.00663E-004	0.00000E+000	8.51623E-005	5.99601E-002	8.46354E-001	3.57900E+000	9	...........
	64	0.866667	8.52504E-001	1.00338E-004	0.00000E+000	8.55381E-005	5.99601E-002	8.52851E-001	3.57900E+000	9	...........
	65	0.88	8.58880E-001	1.01516E-004	0.00000E+000	8.71900E-005	5.99601E-002	8.59246E-001	3.57900E+000	9	...........
	66	0.893333	8.65145E-001	1.01047E-004	0.00000E+000	8.74203E-005	5.99601E-002	8.65524E-001	3.57900E+000	9	...........
	67	0.906667	8.71346E-001	1.00886E-004	0.00000E+000	8.79062E-005	5.99601E-002	8.71682E-001	3.57900E+000	9	...........
	68	0.92	8.77407E-001	1.01107E-004	0.00000E+000	8.87124E-005	5.99601E-002	8.77734E-001	3.57900E+000	9	...........
	69	0.933333	8.83372E-001	1.00706E-004	0.00000E+000	8.89611E-005	5.99601E-002	8.83697E-001	3.57900E+000	9	...........
	70	0.946667	8.89209E-001	1.01305E-004	0.00000E+000	9.00817E-005	5.99601E-002	8.89529E-001	3.57900E+000	9	...........
	71	0.96	8.94947E-001	1.00710E-004	0.00000E+000	9.01306E-005	5.99601E-002	8.95293E-001	3.57900E+000	9	...........
	72	0.97333	9.00592E-001	1.00809E-004	0.00000E+000	9.07882E-005	5.99601E-002	9.00927E-001	3.57900E+000	9	...........
	73	0.98667	9.06144E-001	1.00433E-004	0.00000E+000	9.10071E-005	5.99601E-002	9.06499E-001	3.57900E+000	9	...........
	74	1	9.11612E-001	1.02242E-004	0.00000E+000	9.32051E-005	5.99601E-002	9.11955E-001	3.57900E+000	9	...........
	75	1.01333	9.16963E-001	1.00605E-004	0.00000E+000	9.22513E-005	5.99601E-002	9.17313E-001	3.57900E+000	9	...........
	76	1.02667	9.22277E-001	1.00756E-004	0.00000E+000	9.29253E-005	5.99601E-002	9.22597E-001	3.57900E+000	9	...........
	77	1.04	9.27434E-001	1.01116E-004	0.00000E+000	9.37782E-005	5.99601E-002	9.27749E-001	3.57900E+000	9	...........
	78	1.05333	9.32500E-001	1.00683E-004	0.00000E+000	9.38873E-005	5.99601E-002	9.32835E-001	3.57900E+000	9	...........
	79	1.06667	9.37470E-001	1.01085E-004	0.00000E+000	9.47638E-005	5.99601E-002	9.37822E-001	3.57900E+000	9	...........
	80	1.08	9.42343E-001	1.00541E-004	0.00000E+000	9.47438E-005	5.99601E-002	9.42690E-001	3.57900E+000	9	...........
	81	1.09333	9.47163E-001	1.01521E-004	0.00000E+000	9.61570E-005	5.99601E-002	9.47521E-001	3.57900E+000	9	...........
	82	1.10667	9.51880E-001	1.00707E-004	0.00000E+000	9.58613E-005	5.99601E-002	9.52273E-001	3.57900E+000	9	...........
	83	1.12	9.56507E-001	1.01235E-004	0.00000E+000	9.68316E-005	5.99601E-002	9.56891E-001	3.57900E+000	9	...........
	84	1.13333	9.61050E-001	1.01568E-004	0.00000E+000	9.76119E-005	5.99601E-002	9.61440E-001	3.57900E+000	9	...........
	85	1.14667	9.65462E-001	1.01227E-004	0.00000E+000	9.77311E-005	5.99601E-002	9.65871E-001	3.57900E+000	9	...........
	86	1.16	9.69826E-001	1.00875E-004	0.00000E+000	9.78313E-005	5.99601E-002	9.70241E-001	3.57900E+000	9	...........
	87	1.17333	9.74178E-001	1.01776E-004	0.00000E+000	9.91482E-005	5.99601E-002	9.74526E-001	3.57900E+000	9	...........
	88	1.18667	9.78357E-001	1.00506E-004	0.00000E+000	9.83310E-005	5.99601E-002	9.78728E-001	3.57900E+000	9	...........
	89	1.2	9.82471E-001	1.00623E-004	0.00000E+000	9.88591E-005	5.99601E-002	9.82830E-001	3.57900E+000	9	...........
	90	1.21333	9.86487E-001	1.01296E-004	0.00000E+000	9.99272E-005	5.99601E-002	9.86852E-001	3.57900E+000	9	...........
	91	1.22667	9.90433E-001	1.01092E-004	0.00000E+000	1.00125E-004	5.99601E-002	9.90800E-001	3.57900E+000	9	...........
	92	1.24	9.94261E-001	1.01159E-004	0.00000E+000	1.00578E-004	5.99601E-002	9.94655E-001	3.57900E+000	9	...........
	93	1.25333	9.98087E-001	1.01427E-004	0.00000E+000	1.01233E-004	5.99601E-002	9.98461E-001	3.57900E+000	9	...........
	94	1.255	1.00019E+000	1.00398E-004	0.00000E+000	1.00417E-004	5.99601E-002	1.00058E+000	3.57900E+000	9	...........
STARTTIMEOFFSET	QUANT	732.7159	Start Time Offset (s)
