EXPLAIN
TAG	PWR800_CHARGE
TITLE	LABEL	PWR Cyclic Charge Discharge (Cell) - Charge Step	Test &Identifier
DATE	LABEL	13-7-2017	Date
TIME	LABEL	15:04:44	Time
NOTES	NOTES	2	&Notes...
	supercap test cell
	6M KOH
PSTAT	PSTAT	IFC5000-01520	Potentiostat
CAPACITY	QUANT	1.00000E-003	Capacity (A-hr)
CELLTYPE	SELECTOR	1	&Cell Type
WORKINGCONNECTION	SELECTOR	0	&Working Lead
MAXCHARGETIME	VARIABLEANDUNITS	1.00000E+002	s	1.00000E+002	second(s)	Max &Charge Time
CHARGECURRENT	QUANT	1.00000E-004	&Charge Current (A) 
VOLTAGEFINISH	TWOPARAM	F	1.00000E-003	3.60000E+003	&Voltage Finish	 I (A) < 	Max Time(s)
SAMPLETIME	QUANT	1.00000E-002	Sa&mple Period (s)
CHARGESTOPAT1	MULTIPARAM	4	1.00000E+000	Charge Stop At &1	Voltage > Limit	V
CHARGESTOPAT2	MULTIPARAM	0	0.00000E+000	Charge Stop At &2	None	N/A
AESBHCSELECTOR	TOGGLE	F	Save Both Half Cells
IRCOMP	TOGGLE	F	IR &Measure
EOC	QUANT	0	Open Circuit (V)
SEQUENCER	TOGGLE	TRUE	Run as Sequence
PSTATMODEL	IQUANT	53	Pstat Model
PSTATSECTION	LABEL	IFC5000-01520	Pstat Section
PSTATSERIALNO	LABEL	01520	Pstat Serial Number
CTRLMODE	IQUANT	0	Control Mode
ELECTROMETER	IQUANT	1	RE=0 or CS=1
IESTAB	IQUANT	0	I/E Stability
CASPEED	IQUANT	4	Control Amp Speed
CONVENTION	IQUANT	1	Current Convention
ICHRANGE	IQUANT	2	Ich Range
ICHRANGEMODE	TOGGLE	T	Ich Auto Range
ICHOFFSETENABLE	TOGGLE	F	Ich Offset Enable
ICHOFFSET	QUANT	0	Ich Offset (V)
ICHFILTER	IQUANT	1	Ich Filter
VCHRANGE	IQUANT	2	Vch Range
VCHRANGEMODE	TOGGLE	T	Vch Auto Range
VCHOFFSETENABLE	TOGGLE	F	Vch Offset Enable
VCHOFFSET	QUANT	0	Vch Offset (V)
VCHFILTER	IQUANT	1	Vch Filter
IERANGELOWERLIMIT	IQUANT	9	I/E Range Lower Limit
IERANGEMODE	TOGGLE	F	I/E AutoRange
IERANGE	IQUANT	9	I/E Range
ACHSELECT	IQUANT	1	Ach Select
ACHRANGE	IQUANT	2	Ach Range
ACHOFFSETENABLE	TOGGLE	F	Ach Offset Enable
ACHOFFSET	QUANT	0	Ach Offset (V)
ACHFILTER	IQUANT	1	Ach Filter
CABLEID	IQUANT	14	Cable ID
DCCALDATE	LABEL	5-7-2017	DC Calibration Date
ACCALDATE	LABEL	12/3/2015	AC Calibration Date
FRAMEWORKVERSION	QUANT	7.01	Framework Version
INSTRUMENTVERSION	LABEL	4.00	Instrument Version
CURVE	TABLE	101
	Pt	T	Vf	Im	Vu	Pwr	Sig	Ach	Temp	IERange	Over
	#	s	V	A	V	W	V	V	deg C	#	bits
	0	0.013333	1.37545E-001	1.01229E-004	0.00000E+000	1.39235E-005	5.99601E-002	1.37598E-001	3.58020E+000	9	...........
	1	0.026667	1.53323E-001	1.00798E-004	0.00000E+000	1.54546E-005	5.99601E-002	1.53354E-001	3.58020E+000	9	...........
	2	0.04	1.68659E-001	1.01602E-004	0.00000E+000	1.71362E-005	5.99601E-002	1.68687E-001	3.57933E+000	9	...........
	3	0.053333	1.83719E-001	1.00736E-004	0.00000E+000	1.85070E-005	5.99601E-002	1.83757E-001	3.57920E+000	9	...........
	4	0.066667	1.98578E-001	1.01267E-004	0.00000E+000	2.01094E-005	5.99601E-002	1.98613E-001	3.57920E+000	9	...........
	5	0.08	2.13290E-001	1.01262E-004	0.00000E+000	2.15981E-005	5.99601E-002	2.13329E-001	3.57920E+000	9	...........
	6	0.093333	2.27891E-001	1.01253E-004	0.00000E+000	2.30747E-005	5.99601E-002	2.27932E-001	3.57920E+000	9	...........
	7	0.106667	2.42400E-001	1.00803E-004	0.00000E+000	2.44347E-005	5.99601E-002	2.42443E-001	3.57920E+000	9	...........
	8	0.12	2.56834E-001	1.00871E-004	0.00000E+000	2.59071E-005	5.99601E-002	2.56885E-001	3.57920E+000	9	...........
	9	0.133333	2.71217E-001	1.01281E-004	0.00000E+000	2.74692E-005	5.99601E-002	2.71266E-001	3.57920E+000	9	...........
	10	0.146667	2.85548E-001	1.01083E-004	0.00000E+000	2.88642E-005	5.99601E-002	2.85605E-001	3.57920E+000	9	...........
	11	0.16	2.99839E-001	1.00390E-004	0.00000E+000	3.01007E-005	5.99601E-002	2.99897E-001	3.57920E+000	9	...........
	12	0.173333	3.14094E-001	1.00383E-004	0.00000E+000	3.15298E-005	5.99601E-002	3.14153E-001	3.57920E+000	9	...........
	13	0.186667	3.28306E-001	1.00749E-004	0.00000E+000	3.30765E-005	5.99601E-002	3.28371E-001	3.57920E+000	9	...........
	14	0.2	3.42468E-001	1.00840E-004	0.00000E+000	3.45343E-005	5.99601E-002	3.42537E-001	3.57920E+000	9	...........
	15	0.213333	3.56577E-001	1.01263E-004	0.00000E+000	3.61079E-005	5.99601E-002	3.56643E-001	3.57920E+000	9	...........
	16	0.226667	3.70625E-001	1.01218E-004	0.00000E+000	3.75139E-005	5.99601E-002	3.70692E-001	3.57920E+000	9	...........
	17	0.24	3.84593E-001	1.00720E-004	0.00000E+000	3.87362E-005	5.99601E-002	3.84667E-001	3.57920E+000	9	...........
	18	0.253333	3.98474E-001	1.00740E-004	0.00000E+000	4.01421E-005	5.99601E-002	3.98550E-001	3.57920E+000	9	...........
	19	0.266667	4.12248E-001	1.00304E-004	0.00000E+000	4.13502E-005	5.99601E-002	4.12325E-001	3.57920E+000	9	...........
	20	0.28	4.25885E-001	1.01045E-004	0.00000E+000	4.30336E-005	5.99601E-002	4.25971E-001	3.57920E+000	9	...........
	21	0.293333	4.39389E-001	1.00124E-004	0.00000E+000	4.39933E-005	5.99601E-002	4.39472E-001	3.57920E+000	9	...........
	22	0.306667	4.52732E-001	1.01921E-004	0.00000E+000	4.61430E-005	5.99601E-002	4.52826E-001	3.57920E+000	9	...........
	23	0.32	4.65911E-001	1.00875E-004	0.00000E+000	4.69988E-005	5.99601E-002	4.66001E-001	3.57920E+000	9	...........
	24	0.333333	4.78887E-001	1.00335E-004	0.00000E+000	4.80493E-005	5.99601E-002	4.78989E-001	3.57920E+000	9	...........
	25	0.346667	4.91672E-001	1.01474E-004	0.00000E+000	4.98920E-005	5.99601E-002	4.91773E-001	3.57920E+000	9	...........
	26	0.36	5.04237E-001	1.01330E-004	0.00000E+000	5.10945E-005	5.99601E-002	5.04353E-001	3.57920E+000	9	...........
	27	0.373333	5.16593E-001	1.00625E-004	0.00000E+000	5.19822E-005	5.99601E-002	5.16702E-001	3.57920E+000	9	...........
	28	0.386667	5.28722E-001	1.00499E-004	0.00000E+000	5.31360E-005	5.99601E-002	5.28793E-001	3.57920E+000	9	...........
	29	0.4	5.40237E-001	1.01399E-004	0.00000E+000	5.47796E-005	5.99601E-002	5.40476E-001	3.57920E+000	9	...........
	30	0.413333	5.51912E-001	1.01574E-004	0.00000E+000	5.60600E-005	5.99601E-002	5.52150E-001	3.57920E+000	9	...........
	31	0.426667	5.63342E-001	1.00584E-004	0.00000E+000	5.66634E-005	5.99601E-002	5.63599E-001	3.57920E+000	9	...........
	32	0.44	5.74554E-001	1.01121E-004	0.00000E+000	5.80995E-005	5.99601E-002	5.74817E-001	3.57920E+000	9	...........
	33	0.453333	5.85532E-001	1.00816E-004	0.00000E+000	5.90308E-005	5.99601E-002	5.85816E-001	3.57920E+000	9	...........
	34	0.466667	5.96284E-001	1.01098E-004	0.00000E+000	6.02832E-005	5.99601E-002	5.96563E-001	3.57920E+000	9	...........
	35	0.48	6.06781E-001	1.01603E-004	0.00000E+000	6.16510E-005	5.99601E-002	6.07096E-001	3.57920E+000	9	...........
	36	0.493333	6.17137E-001	1.00901E-004	0.00000E+000	6.22698E-005	5.99601E-002	6.17397E-001	3.57920E+000	9	...........
	37	0.506667	6.27201E-001	1.00699E-004	0.00000E+000	6.31585E-005	5.99601E-002	6.27477E-001	3.57920E+000	9	...........
	38	0.52	6.37076E-001	1.01274E-004	0.00000E+000	6.45193E-005	5.99601E-002	6.37358E-001	3.57920E+000	9	...........
	39	0.533333	6.46783E-001	1.01543E-004	0.00000E+000	6.56763E-005	5.99601E-002	6.47057E-001	3.57920E+000	9	...........
	40	0.546667	6.56263E-001	1.00598E-004	0.00000E+000	6.60187E-005	5.99601E-002	6.56519E-001	3.57920E+000	9	...........
	41	0.56	6.65544E-001	1.02175E-004	0.00000E+000	6.80022E-005	5.99601E-002	6.65832E-001	3.57920E+000	9	...........
	42	0.573333	6.74632E-001	1.01035E-004	0.00000E+000	6.81611E-005	5.99601E-002	6.74923E-001	3.57920E+000	9	...........
	43	0.586667	6.83535E-001	1.02070E-004	0.00000E+000	6.97685E-005	5.99601E-002	6.83825E-001	3.57920E+000	9	...........
	44	0.6	6.92251E-001	1.01571E-004	0.00000E+000	7.03127E-005	5.99601E-002	6.92537E-001	3.57920E+000	9	...........
	45	0.613333	7.00804E-001	1.01727E-004	0.00000E+000	7.12910E-005	5.99601E-002	7.01096E-001	3.57920E+000	9	...........
	46	0.626667	7.09171E-001	1.00721E-004	0.00000E+000	7.14284E-005	5.99601E-002	7.09458E-001	3.57920E+000	9	...........
	47	0.64	7.17403E-001	1.00877E-004	0.00000E+000	7.23696E-005	5.99601E-002	7.17688E-001	3.57920E+000	9	...........
	48	0.653333	7.25471E-001	1.00851E-004	0.00000E+000	7.31646E-005	5.99601E-002	7.25743E-001	3.57920E+000	9	...........
	49	0.666667	7.33342E-001	1.00769E-004	0.00000E+000	7.38981E-005	5.99601E-002	7.33648E-001	3.57920E+000	9	...........
	50	0.68	7.41105E-001	1.01342E-004	0.00000E+000	7.51050E-005	5.99601E-002	7.41403E-001	3.57920E+000	9	...........
	51	0.693333	7.48734E-001	1.00708E-004	0.00000E+000	7.54038E-005	5.99601E-002	7.49006E-001	3.57920E+000	9	...........
	52	0.706667	7.56205E-001	1.00681E-004	0.00000E+000	7.61357E-005	5.99601E-002	7.56462E-001	3.57920E+000	9	...........
	53	0.72	7.63506E-001	1.01217E-004	0.00000E+000	7.72797E-005	5.99601E-002	7.63812E-001	3.57920E+000	9	...........
	54	0.733333	7.70726E-001	1.00547E-004	0.00000E+000	7.74942E-005	5.99601E-002	7.71029E-001	3.57920E+000	9	...........
	55	0.746667	7.77766E-001	1.01032E-004	0.00000E+000	7.85796E-005	5.99601E-002	7.78104E-001	3.57920E+000	9	...........
	56	0.76	7.84735E-001	1.01010E-004	0.00000E+000	7.92657E-005	5.99601E-002	7.85054E-001	3.57920E+000	9	...........
	57	0.773333	7.91545E-001	1.00866E-004	0.00000E+000	7.98398E-005	5.99601E-002	7.91855E-001	3.57920E+000	9	...........
	58	0.786667	7.98243E-001	1.01193E-004	0.00000E+000	8.07765E-005	5.99601E-002	7.98560E-001	3.57920E+000	9	...........
	59	0.8	8.04795E-001	1.00804E-004	0.00000E+000	8.11268E-005	5.99601E-002	8.05158E-001	3.57920E+000	9	...........
	60	0.813333	8.11262E-001	1.00942E-004	0.00000E+000	8.18903E-005	5.99601E-002	8.11597E-001	3.57920E+000	9	...........
	61	0.826667	8.17627E-001	1.01250E-004	0.00000E+000	8.27849E-005	5.99601E-002	8.17987E-001	3.57920E+000	9	...........
	62	0.84	8.23896E-001	1.01143E-004	0.00000E+000	8.33312E-005	5.99601E-002	8.24251E-001	3.57920E+000	9	...........
	63	0.853333	8.30039E-001	1.00593E-004	0.00000E+000	8.34960E-005	5.99601E-002	8.30380E-001	3.57920E+000	9	...........
	64	0.866667	8.36059E-001	1.01940E-004	0.00000E+000	8.52278E-005	5.99601E-002	8.36456E-001	3.57920E+000	9	...........
	65	0.88	8.42020E-001	1.00968E-004	0.00000E+000	8.50170E-005	5.99601E-002	8.42377E-001	3.57920E+000	9	...........
	66	0.893333	8.47879E-001	1.00943E-004	0.00000E+000	8.55873E-005	5.99601E-002	8.48249E-001	3.57920E+000	9	...........
	67	0.906667	8.53643E-001	1.00533E-004	0.00000E+000	8.58196E-005	5.99601E-002	8.53982E-001	3.57920E+000	9	...........
	68	0.92	8.59293E-001	1.01779E-004	0.00000E+000	8.74584E-005	5.99601E-002	8.59643E-001	3.57920E+000	9	...........
	69	0.933333	8.64845E-001	1.01929E-004	0.00000E+000	8.81532E-005	5.99601E-002	8.65203E-001	3.57920E+000	9	...........
	70	0.946667	8.70357E-001	1.00222E-004	0.00000E+000	8.72288E-005	5.99601E-002	8.70718E-001	3.57920E+000	9	...........
	71	0.96	8.75744E-001	1.00685E-004	0.00000E+000	8.81747E-005	5.99601E-002	8.76102E-001	3.57920E+000	9	...........
	72	0.97333	8.81022E-001	1.00449E-004	0.00000E+000	8.84978E-005	5.99601E-002	8.81412E-001	3.57920E+000	9	...........
	73	0.98667	8.86257E-001	1.01209E-004	0.00000E+000	8.96967E-005	5.99601E-002	8.86642E-001	3.57920E+000	9	...........
	74	1	8.91388E-001	1.00737E-004	0.00000E+000	8.97954E-005	5.99601E-002	8.91752E-001	3.57920E+000	9	...........
	75	1.01333	8.96445E-001	1.00120E-004	0.00000E+000	8.97519E-005	5.99601E-002	8.96829E-001	3.57920E+000	9	...........
	76	1.02667	9.01421E-001	1.01311E-004	0.00000E+000	9.13235E-005	5.99601E-002	9.01792E-001	3.57920E+000	9	...........
	77	1.04	9.06289E-001	1.01958E-004	0.00000E+000	9.24031E-005	5.99601E-002	9.06694E-001	3.57911E+000	9	...........
	78	1.05333	9.11116E-001	1.00629E-004	0.00000E+000	9.16849E-005	5.99601E-002	9.11475E-001	3.57910E+000	9	...........
	79	1.06667	9.15847E-001	1.00772E-004	0.00000E+000	9.22917E-005	5.99601E-002	9.16229E-001	3.57910E+000	9	...........
	80	1.08	9.20547E-001	1.00781E-004	0.00000E+000	9.27739E-005	5.99601E-002	9.20878E-001	3.57910E+000	9	...........
	81	1.09333	9.25156E-001	1.00949E-004	0.00000E+000	9.33936E-005	5.99601E-002	9.25469E-001	3.57910E+000	9	...........
	82	1.10667	9.29636E-001	1.01118E-004	0.00000E+000	9.40028E-005	5.99601E-002	9.29954E-001	3.57910E+000	9	...........
	83	1.12	9.34073E-001	1.00593E-004	0.00000E+000	9.39610E-005	5.99601E-002	9.34395E-001	3.57910E+000	9	...........
	84	1.13333	9.38407E-001	1.00892E-004	0.00000E+000	9.46776E-005	5.99601E-002	9.38756E-001	3.57910E+000	9	...........
	85	1.14667	9.42700E-001	1.00762E-004	0.00000E+000	9.49879E-005	5.99601E-002	9.43036E-001	3.57910E+000	9	...........
	86	1.16	9.46919E-001	1.00359E-004	0.00000E+000	9.50322E-005	5.99601E-002	9.47264E-001	3.57910E+000	9	...........
	87	1.17333	9.51074E-001	1.00884E-004	0.00000E+000	9.59486E-005	5.99601E-002	9.51433E-001	3.57910E+000	9	...........
	88	1.18667	9.55153E-001	1.00722E-004	0.00000E+000	9.62049E-005	5.99601E-002	9.55493E-001	3.57910E+000	9	...........
	89	1.2	9.59136E-001	1.00394E-004	0.00000E+000	9.62913E-005	5.99601E-002	9.59489E-001	3.57910E+000	9	...........
	90	1.21333	9.63050E-001	1.00507E-004	0.00000E+000	9.67936E-005	5.99601E-002	9.63409E-001	3.57910E+000	9	...........
	91	1.22667	9.66904E-001	1.00696E-004	0.00000E+000	9.73633E-005	5.99601E-002	9.67238E-001	3.57910E+000	9	...........
	92	1.24	9.70690E-001	1.01170E-004	0.00000E+000	9.82047E-005	5.99601E-002	9.71059E-001	3.57910E+000	9	...........
	93	1.25333	9.74465E-001	1.01049E-004	0.00000E+000	9.84689E-005	5.99601E-002	9.74811E-001	3.57910E+000	9	...........
	94	1.26667	9.78104E-001	1.00697E-004	0.00000E+000	9.84921E-005	5.99601E-002	9.78468E-001	3.57910E+000	9	...........
	95	1.28	9.81698E-001	1.01442E-004	0.00000E+000	9.95853E-005	5.99601E-002	9.82060E-001	3.57910E+000	9	...........
	96	1.29333	9.85209E-001	1.00551E-004	0.00000E+000	9.90639E-005	5.99601E-002	9.85589E-001	3.57910E+000	9	...........
	97	1.30667	9.88674E-001	1.00202E-004	0.00000E+000	9.90672E-005	5.99601E-002	9.89040E-001	3.57910E+000	9	...........
	98	1.32	9.92042E-001	1.00956E-004	0.00000E+000	1.00153E-004	5.99601E-002	9.92427E-001	3.57910E+000	9	...........
	99	1.33333	9.95364E-001	1.00756E-004	0.00000E+000	1.00289E-004	5.99601E-002	9.95755E-001	3.57910E+000	9	...........
	100	1.34667	9.98642E-001	1.00607E-004	0.00000E+000	1.00471E-004	5.99601E-002	9.99051E-001	3.57910E+000	9	...........
STARTTIMEOFFSET	QUANT	116.3917	Start Time Offset (s)
