EXPLAIN
TAG	PWR800_CHARGE
TITLE	LABEL	PWR Cyclic Charge Discharge (Cell) - Charge Step	Test &Identifier
DATE	LABEL	13-7-2017	Date
TIME	LABEL	15:54:48	Time
NOTES	NOTES	2	&Notes...
	supercap test cell
	6M KOH
PSTAT	PSTAT	IFC5000-01520	Potentiostat
CAPACITY	QUANT	1.00000E-003	Capacity (A-hr)
CELLTYPE	SELECTOR	1	&Cell Type
WORKINGCONNECTION	SELECTOR	0	&Working Lead
MAXCHARGETIME	VARIABLEANDUNITS	1.00000E+002	s	1.00000E+002	second(s)	Max &Charge Time
CHARGECURRENT	QUANT	1.00000E-004	&Charge Current (A) 
VOLTAGEFINISH	TWOPARAM	F	1.00000E-003	3.60000E+003	&Voltage Finish	 I (A) < 	Max Time(s)
SAMPLETIME	QUANT	1.00000E-002	Sa&mple Period (s)
CHARGESTOPAT1	MULTIPARAM	4	1.00000E+000	Charge Stop At &1	Voltage > Limit	V
CHARGESTOPAT2	MULTIPARAM	0	0.00000E+000	Charge Stop At &2	None	N/A
AESBHCSELECTOR	TOGGLE	F	Save Both Half Cells
IRCOMP	TOGGLE	F	IR &Measure
EOC	QUANT	0	Open Circuit (V)
SEQUENCER	TOGGLE	TRUE	Run as Sequence
PSTATMODEL	IQUANT	53	Pstat Model
PSTATSECTION	LABEL	IFC5000-01520	Pstat Section
PSTATSERIALNO	LABEL	01520	Pstat Serial Number
CTRLMODE	IQUANT	0	Control Mode
ELECTROMETER	IQUANT	1	RE=0 or CS=1
IESTAB	IQUANT	0	I/E Stability
CASPEED	IQUANT	4	Control Amp Speed
CONVENTION	IQUANT	1	Current Convention
ICHRANGE	IQUANT	2	Ich Range
ICHRANGEMODE	TOGGLE	T	Ich Auto Range
ICHOFFSETENABLE	TOGGLE	F	Ich Offset Enable
ICHOFFSET	QUANT	0	Ich Offset (V)
ICHFILTER	IQUANT	1	Ich Filter
VCHRANGE	IQUANT	2	Vch Range
VCHRANGEMODE	TOGGLE	T	Vch Auto Range
VCHOFFSETENABLE	TOGGLE	F	Vch Offset Enable
VCHOFFSET	QUANT	0	Vch Offset (V)
VCHFILTER	IQUANT	1	Vch Filter
IERANGELOWERLIMIT	IQUANT	9	I/E Range Lower Limit
IERANGEMODE	TOGGLE	F	I/E AutoRange
IERANGE	IQUANT	9	I/E Range
ACHSELECT	IQUANT	1	Ach Select
ACHRANGE	IQUANT	2	Ach Range
ACHOFFSETENABLE	TOGGLE	F	Ach Offset Enable
ACHOFFSET	QUANT	0	Ach Offset (V)
ACHFILTER	IQUANT	1	Ach Filter
CABLEID	IQUANT	14	Cable ID
DCCALDATE	LABEL	5-7-2017	DC Calibration Date
ACCALDATE	LABEL	12/3/2015	AC Calibration Date
FRAMEWORKVERSION	QUANT	7.01	Framework Version
INSTRUMENTVERSION	LABEL	4.00	Instrument Version
CURVE	TABLE	89
	Pt	T	Vf	Im	Vu	Pwr	Sig	Ach	Temp	IERange	Over
	#	s	V	A	V	W	V	V	deg C	#	bits
	0	0.013333	1.33867E-001	1.02095E-004	0.00000E+000	1.36672E-005	5.99601E-002	1.33909E-001	3.58000E+000	9	...........
	1	0.026667	1.49188E-001	1.00862E-004	0.00000E+000	1.50473E-005	5.99601E-002	1.49204E-001	3.58000E+000	9	...........
	2	0.04	1.64064E-001	1.00916E-004	0.00000E+000	1.65566E-005	5.99601E-002	1.64088E-001	3.58000E+000	9	...........
	3	0.053333	1.78677E-001	1.00748E-004	0.00000E+000	1.80013E-005	5.99601E-002	1.78705E-001	3.58000E+000	9	...........
	4	0.066667	1.93100E-001	1.01546E-004	0.00000E+000	1.96086E-005	5.99601E-002	1.93133E-001	3.58000E+000	9	...........
	5	0.08	2.07386E-001	1.00547E-004	0.00000E+000	2.08521E-005	5.99601E-002	2.07422E-001	3.58000E+000	9	...........
	6	0.093333	2.21575E-001	1.01249E-004	0.00000E+000	2.24343E-005	5.99601E-002	2.21614E-001	3.58000E+000	9	...........
	7	0.106667	2.35696E-001	1.00679E-004	0.00000E+000	2.37297E-005	5.99601E-002	2.35737E-001	3.58000E+000	9	...........
	8	0.12	2.49774E-001	1.01519E-004	0.00000E+000	2.53568E-005	5.99601E-002	2.49816E-001	3.58000E+000	9	...........
	9	0.133333	2.63822E-001	1.01203E-004	0.00000E+000	2.66997E-005	5.99601E-002	2.63877E-001	3.58000E+000	9	...........
	10	0.146667	2.77870E-001	1.00402E-004	0.00000E+000	2.78987E-005	5.99601E-002	2.77924E-001	3.58000E+000	9	...........
	11	0.16	2.91920E-001	1.00552E-004	0.00000E+000	2.93532E-005	5.99601E-002	2.91977E-001	3.58000E+000	9	...........
	12	0.173333	3.05994E-001	1.00840E-004	0.00000E+000	3.08564E-005	5.99601E-002	3.06048E-001	3.58000E+000	9	...........
	13	0.186667	3.20089E-001	1.01252E-004	0.00000E+000	3.24097E-005	5.99601E-002	3.20147E-001	3.58000E+000	9	...........
	14	0.2	3.34202E-001	1.00722E-004	0.00000E+000	3.36615E-005	5.99601E-002	3.34260E-001	3.58000E+000	9	...........
	15	0.213333	3.48343E-001	1.00398E-004	0.00000E+000	3.49729E-005	5.99601E-002	3.48413E-001	3.58000E+000	9	...........
	16	0.226667	3.62519E-001	1.00483E-004	0.00000E+000	3.64271E-005	5.99601E-002	3.62585E-001	3.58000E+000	9	...........
	17	0.24	3.76712E-001	1.01590E-004	0.00000E+000	3.82701E-005	5.99601E-002	3.76776E-001	3.58000E+000	9	...........
	18	0.253333	3.90917E-001	1.00587E-004	0.00000E+000	3.93210E-005	5.99601E-002	3.90988E-001	3.58000E+000	9	...........
	19	0.266667	4.05120E-001	1.00829E-004	0.00000E+000	4.08480E-005	5.99601E-002	4.05194E-001	3.58000E+000	9	...........
	20	0.28	4.19311E-001	1.00685E-004	0.00000E+000	4.22185E-005	5.99601E-002	4.19393E-001	3.58000E+000	9	...........
	21	0.293333	4.33476E-001	1.00552E-004	0.00000E+000	4.35869E-005	5.99601E-002	4.33562E-001	3.58000E+000	9	...........
	22	0.306667	4.47578E-001	1.01243E-004	0.00000E+000	4.53141E-005	5.99601E-002	4.47667E-001	3.58000E+000	9	...........
	23	0.32	4.61602E-001	1.00747E-004	0.00000E+000	4.65050E-005	5.99601E-002	4.61690E-001	3.58000E+000	9	...........
	24	0.333333	4.75527E-001	1.01248E-004	0.00000E+000	4.81462E-005	5.99601E-002	4.75617E-001	3.58000E+000	9	...........
	25	0.346667	4.89319E-001	1.00877E-004	0.00000E+000	4.93611E-005	5.99601E-002	4.89414E-001	3.58000E+000	9	...........
	26	0.36	5.02963E-001	1.01380E-004	0.00000E+000	5.09906E-005	5.99601E-002	5.03065E-001	3.58000E+000	9	...........
	27	0.373333	5.16449E-001	1.01133E-004	0.00000E+000	5.22303E-005	5.99601E-002	5.16556E-001	3.57985E+000	9	...........
	28	0.386667	5.29702E-001	1.01572E-004	0.00000E+000	5.38030E-005	5.99601E-002	5.29830E-001	3.57940E+000	9	...........
	29	0.4	5.42493E-001	1.00135E-004	0.00000E+000	5.43228E-005	5.99601E-002	5.42767E-001	3.57940E+000	9	...........
	30	0.413333	5.55380E-001	1.00152E-004	0.00000E+000	5.56225E-005	5.99601E-002	5.55672E-001	3.57940E+000	9	...........
	31	0.426667	5.68084E-001	1.00618E-004	0.00000E+000	5.71593E-005	5.99601E-002	5.68358E-001	3.57940E+000	9	...........
	32	0.44	5.80505E-001	1.00485E-004	0.00000E+000	5.83323E-005	5.99601E-002	5.80816E-001	3.57940E+000	9	...........
	33	0.453333	5.92749E-001	1.01108E-004	0.00000E+000	5.99320E-005	5.99601E-002	5.93033E-001	3.57940E+000	9	...........
	34	0.466667	6.04712E-001	1.00219E-004	0.00000E+000	6.06035E-005	5.99601E-002	6.05011E-001	3.57940E+000	9	...........
	35	0.48	6.16508E-001	1.00697E-004	0.00000E+000	6.20805E-005	5.99601E-002	6.16771E-001	3.57940E+000	9	...........
	36	0.493333	6.28031E-001	1.00463E-004	0.00000E+000	6.30936E-005	5.99601E-002	6.28281E-001	3.57940E+000	9	...........
	37	0.506667	6.39329E-001	1.01021E-004	0.00000E+000	6.45856E-005	5.99601E-002	6.39597E-001	3.57940E+000	9	...........
	38	0.52	6.50398E-001	1.00794E-004	0.00000E+000	6.55561E-005	5.99601E-002	6.50658E-001	3.57940E+000	9	...........
	39	0.533333	6.61247E-001	1.00783E-004	0.00000E+000	6.66427E-005	5.99601E-002	6.61508E-001	3.57940E+000	9	...........
	40	0.546667	6.71903E-001	1.00444E-004	0.00000E+000	6.74885E-005	5.99601E-002	6.72159E-001	3.57940E+000	9	...........
	41	0.56	6.82302E-001	1.01476E-004	0.00000E+000	6.92375E-005	5.99601E-002	6.82543E-001	3.57940E+000	9	...........
	42	0.573333	6.92494E-001	1.00920E-004	0.00000E+000	6.98864E-005	5.99601E-002	6.92728E-001	3.57940E+000	9	...........
	43	0.586667	7.02495E-001	1.00527E-004	0.00000E+000	7.06198E-005	5.99601E-002	7.02738E-001	3.57940E+000	9	...........
	44	0.6	7.12277E-001	1.00608E-004	0.00000E+000	7.16611E-005	5.99601E-002	7.12508E-001	3.57940E+000	9	...........
	45	0.613333	7.21924E-001	1.00203E-004	0.00000E+000	7.23391E-005	5.99601E-002	7.22110E-001	3.57940E+000	9	...........
	46	0.626667	7.31297E-001	1.00383E-004	0.00000E+000	7.34100E-005	5.99601E-002	7.31530E-001	3.57940E+000	9	...........
	47	0.64	7.40515E-001	1.01021E-004	0.00000E+000	7.48076E-005	5.99601E-002	7.40773E-001	3.57940E+000	9	...........
	48	0.653333	7.49558E-001	1.00901E-004	0.00000E+000	7.56313E-005	5.99601E-002	7.49828E-001	3.57940E+000	9	...........
	49	0.666667	7.58422E-001	9.95582E-005	0.00000E+000	7.55071E-005	5.99601E-002	7.58711E-001	3.57940E+000	9	...........
	50	0.68	7.67119E-001	1.00290E-004	0.00000E+000	7.69340E-005	5.99601E-002	7.67410E-001	3.57940E+000	9	...........
	51	0.693333	7.75634E-001	1.01127E-004	0.00000E+000	7.84378E-005	5.99601E-002	7.75929E-001	3.57940E+000	9	...........
	52	0.706667	7.83997E-001	1.01495E-004	0.00000E+000	7.95718E-005	5.99601E-002	7.84302E-001	3.57940E+000	9	...........
	53	0.72	7.92195E-001	1.00926E-004	0.00000E+000	7.99532E-005	5.99601E-002	7.92494E-001	3.57940E+000	9	...........
	54	0.733333	8.00248E-001	1.01967E-004	0.00000E+000	8.15989E-005	5.99601E-002	8.00540E-001	3.57940E+000	9	...........
	55	0.746667	8.08083E-001	1.00933E-004	0.00000E+000	8.15626E-005	5.99601E-002	8.08411E-001	3.57940E+000	9	...........
	56	0.76	8.15843E-001	1.01159E-004	0.00000E+000	8.25295E-005	5.99601E-002	8.16135E-001	3.57940E+000	9	...........
	57	0.773333	8.23426E-001	9.99478E-005	0.00000E+000	8.22996E-005	5.99601E-002	8.23737E-001	3.57940E+000	9	...........
	58	0.786667	8.30886E-001	1.00690E-004	0.00000E+000	8.36616E-005	5.99601E-002	8.31197E-001	3.57940E+000	9	...........
	59	0.8	8.38171E-001	1.00357E-004	0.00000E+000	8.41166E-005	5.99601E-002	8.38508E-001	3.57940E+000	9	...........
	60	0.813333	8.45376E-001	1.00867E-004	0.00000E+000	8.52704E-005	5.99601E-002	8.45710E-001	3.57940E+000	9	...........
	61	0.826667	8.52420E-001	1.00651E-004	0.00000E+000	8.57970E-005	5.99601E-002	8.52747E-001	3.57940E+000	9	...........
	62	0.84	8.59314E-001	1.01500E-004	0.00000E+000	8.72206E-005	5.99601E-002	8.59672E-001	3.57940E+000	9	...........
	63	0.853333	8.66105E-001	1.00972E-004	0.00000E+000	8.74524E-005	5.99601E-002	8.66459E-001	3.57940E+000	9	...........
	64	0.866667	8.72795E-001	1.01074E-004	0.00000E+000	8.82170E-005	5.99601E-002	8.73132E-001	3.57940E+000	9	...........
	65	0.88	8.79335E-001	1.00265E-004	0.00000E+000	8.81662E-005	5.99601E-002	8.79669E-001	3.57940E+000	9	...........
	66	0.893333	8.85774E-001	1.01778E-004	0.00000E+000	9.01527E-005	5.99601E-002	8.86102E-001	3.57940E+000	9	...........
	67	0.906667	8.92070E-001	1.01234E-004	0.00000E+000	9.03074E-005	5.99601E-002	8.92419E-001	3.57940E+000	9	...........
	68	0.92	8.98272E-001	1.01521E-004	0.00000E+000	9.11936E-005	5.99601E-002	8.98642E-001	3.57940E+000	9	...........
	69	0.933333	9.04346E-001	1.01409E-004	0.00000E+000	9.17084E-005	5.99601E-002	9.04720E-001	3.57940E+000	9	...........
	70	0.946667	9.10334E-001	1.00997E-004	0.00000E+000	9.19410E-005	5.99601E-002	9.10700E-001	3.57940E+000	9	...........
	71	0.96	9.16173E-001	1.00982E-004	0.00000E+000	9.25173E-005	5.99601E-002	9.16555E-001	3.57940E+000	9	...........
	72	0.97333	9.21950E-001	1.00562E-004	0.00000E+000	9.27126E-005	5.99601E-002	9.22308E-001	3.57940E+000	9	...........
	73	0.98667	9.27609E-001	1.00972E-004	0.00000E+000	9.36626E-005	5.99601E-002	9.27917E-001	3.57940E+000	9	...........
	74	1	9.33111E-001	1.00589E-004	0.00000E+000	9.38603E-005	5.99601E-002	9.33432E-001	3.57940E+000	9	...........
	75	1.01333	9.38523E-001	1.01340E-004	0.00000E+000	9.51098E-005	5.99601E-002	9.38844E-001	3.57940E+000	9	...........
	76	1.02667	9.43824E-001	1.01464E-004	0.00000E+000	9.57639E-005	5.99601E-002	9.44134E-001	3.57940E+000	9	...........
	77	1.04	9.49070E-001	1.01278E-004	0.00000E+000	9.61202E-005	5.99601E-002	9.49389E-001	3.57940E+000	9	...........
	78	1.05333	9.54162E-001	1.00917E-004	0.00000E+000	9.62909E-005	5.99601E-002	9.54511E-001	3.57940E+000	9	...........
	79	1.06667	9.59167E-001	1.00908E-004	0.00000E+000	9.67881E-005	5.99601E-002	9.59526E-001	3.57940E+000	9	...........
	80	1.08	9.64053E-001	1.00746E-004	0.00000E+000	9.71244E-005	5.99601E-002	9.64440E-001	3.57940E+000	9	...........
	81	1.09333	9.68852E-001	1.00704E-004	0.00000E+000	9.75675E-005	5.99601E-002	9.69211E-001	3.57940E+000	9	...........
	82	1.10667	9.73579E-001	1.01515E-004	0.00000E+000	9.88327E-005	5.99601E-002	9.73919E-001	3.57940E+000	9	...........
	83	1.12	9.78193E-001	1.00994E-004	0.00000E+000	9.87915E-005	5.99601E-002	9.78513E-001	3.57940E+000	9	...........
	84	1.13333	9.82676E-001	1.00867E-004	0.00000E+000	9.91194E-005	5.99601E-002	9.83016E-001	3.57940E+000	9	...........
	85	1.14667	9.87085E-001	1.00904E-004	0.00000E+000	9.96011E-005	5.99601E-002	9.87424E-001	3.57940E+000	9	...........
	86	1.16	9.91393E-001	1.00890E-004	0.00000E+000	1.00021E-004	5.99601E-002	9.91741E-001	3.57940E+000	9	...........
	87	1.17333	9.95629E-001	1.01389E-004	0.00000E+000	1.00946E-004	5.99601E-002	9.95999E-001	3.57940E+000	9	...........
	88	1.18333	9.99251E-001	1.00583E-004	0.00000E+000	1.00507E-004	5.99601E-002	9.99662E-001	3.57940E+000	9	...........
STARTTIMEOFFSET	QUANT	2383.071	Start Time Offset (s)
