EXPLAIN
TAG	PWR800_CHARGE
TITLE	LABEL	PWR Cyclic Charge Discharge (Cell) - Charge Step	Test &Identifier
DATE	LABEL	13-7-2017	Date
TIME	LABEL	15:47:25	Time
NOTES	NOTES	2	&Notes...
	supercap test cell
	6M KOH
PSTAT	PSTAT	IFC5000-01520	Potentiostat
CAPACITY	QUANT	1.00000E-003	Capacity (A-hr)
CELLTYPE	SELECTOR	1	&Cell Type
WORKINGCONNECTION	SELECTOR	0	&Working Lead
MAXCHARGETIME	VARIABLEANDUNITS	1.00000E+002	s	1.00000E+002	second(s)	Max &Charge Time
CHARGECURRENT	QUANT	1.00000E-004	&Charge Current (A) 
VOLTAGEFINISH	TWOPARAM	F	1.00000E-003	3.60000E+003	&Voltage Finish	 I (A) < 	Max Time(s)
SAMPLETIME	QUANT	1.00000E-002	Sa&mple Period (s)
CHARGESTOPAT1	MULTIPARAM	4	1.00000E+000	Charge Stop At &1	Voltage > Limit	V
CHARGESTOPAT2	MULTIPARAM	0	0.00000E+000	Charge Stop At &2	None	N/A
AESBHCSELECTOR	TOGGLE	F	Save Both Half Cells
IRCOMP	TOGGLE	F	IR &Measure
EOC	QUANT	0	Open Circuit (V)
SEQUENCER	TOGGLE	TRUE	Run as Sequence
PSTATMODEL	IQUANT	53	Pstat Model
PSTATSECTION	LABEL	IFC5000-01520	Pstat Section
PSTATSERIALNO	LABEL	01520	Pstat Serial Number
CTRLMODE	IQUANT	0	Control Mode
ELECTROMETER	IQUANT	1	RE=0 or CS=1
IESTAB	IQUANT	0	I/E Stability
CASPEED	IQUANT	4	Control Amp Speed
CONVENTION	IQUANT	1	Current Convention
ICHRANGE	IQUANT	2	Ich Range
ICHRANGEMODE	TOGGLE	T	Ich Auto Range
ICHOFFSETENABLE	TOGGLE	F	Ich Offset Enable
ICHOFFSET	QUANT	0	Ich Offset (V)
ICHFILTER	IQUANT	1	Ich Filter
VCHRANGE	IQUANT	2	Vch Range
VCHRANGEMODE	TOGGLE	T	Vch Auto Range
VCHOFFSETENABLE	TOGGLE	F	Vch Offset Enable
VCHOFFSET	QUANT	0	Vch Offset (V)
VCHFILTER	IQUANT	1	Vch Filter
IERANGELOWERLIMIT	IQUANT	9	I/E Range Lower Limit
IERANGEMODE	TOGGLE	F	I/E AutoRange
IERANGE	IQUANT	9	I/E Range
ACHSELECT	IQUANT	1	Ach Select
ACHRANGE	IQUANT	2	Ach Range
ACHOFFSETENABLE	TOGGLE	F	Ach Offset Enable
ACHOFFSET	QUANT	0	Ach Offset (V)
ACHFILTER	IQUANT	1	Ach Filter
CABLEID	IQUANT	14	Cable ID
DCCALDATE	LABEL	5-7-2017	DC Calibration Date
ACCALDATE	LABEL	12/3/2015	AC Calibration Date
FRAMEWORKVERSION	QUANT	7.01	Framework Version
INSTRUMENTVERSION	LABEL	4.00	Instrument Version
CURVE	TABLE	90
	Pt	T	Vf	Im	Vu	Pwr	Sig	Ach	Temp	IERange	Over
	#	s	V	A	V	W	V	V	deg C	#	bits
	0	0.013333	1.32789E-001	1.00131E-004	0.00000E+000	1.32963E-005	5.99601E-002	1.32839E-001	3.57850E+000	9	...........
	1	0.026667	1.48058E-001	1.00894E-004	0.00000E+000	1.49382E-005	5.99601E-002	1.48080E-001	3.57850E+000	9	...........
	2	0.04	1.62884E-001	1.00136E-004	0.00000E+000	1.63106E-005	5.99601E-002	1.62907E-001	3.57850E+000	9	...........
	3	0.053333	1.77442E-001	1.01334E-004	0.00000E+000	1.79808E-005	5.99601E-002	1.77470E-001	3.57850E+000	9	...........
	4	0.066667	1.91816E-001	1.01220E-004	0.00000E+000	1.94156E-005	5.99601E-002	1.91844E-001	3.57850E+000	9	...........
	5	0.08	2.06044E-001	1.00587E-004	0.00000E+000	2.07252E-005	5.99601E-002	2.06076E-001	3.57850E+000	9	...........
	6	0.093333	2.20176E-001	1.00038E-004	0.00000E+000	2.20261E-005	5.99601E-002	2.20210E-001	3.57850E+000	9	...........
	7	0.106667	2.34241E-001	1.00669E-004	0.00000E+000	2.35808E-005	5.99601E-002	2.34277E-001	3.57850E+000	9	...........
	8	0.12	2.48259E-001	1.00672E-004	0.00000E+000	2.49927E-005	5.99601E-002	2.48300E-001	3.57850E+000	9	...........
	9	0.133333	2.62248E-001	1.00239E-004	0.00000E+000	2.62873E-005	5.99601E-002	2.62301E-001	3.57850E+000	9	...........
	10	0.146667	2.76233E-001	1.00789E-004	0.00000E+000	2.78412E-005	5.99601E-002	2.76288E-001	3.57850E+000	9	...........
	11	0.16	2.90229E-001	1.01196E-004	0.00000E+000	2.93700E-005	5.99601E-002	2.90283E-001	3.57850E+000	9	...........
	12	0.173333	3.04232E-001	1.00527E-004	0.00000E+000	3.05836E-005	5.99601E-002	3.04290E-001	3.57850E+000	9	...........
	13	0.186667	3.18261E-001	1.01304E-004	0.00000E+000	3.22412E-005	5.99601E-002	3.18325E-001	3.57850E+000	9	...........
	14	0.2	3.32312E-001	1.01758E-004	0.00000E+000	3.38153E-005	5.99601E-002	3.32377E-001	3.57850E+000	9	...........
	15	0.213333	3.46393E-001	1.00824E-004	0.00000E+000	3.49247E-005	5.99601E-002	3.46451E-001	3.57850E+000	9	...........
	16	0.226667	3.60491E-001	1.01237E-004	0.00000E+000	3.64949E-005	5.99601E-002	3.60558E-001	3.57850E+000	9	...........
	17	0.24	3.74610E-001	1.00501E-004	0.00000E+000	3.76487E-005	5.99601E-002	3.74676E-001	3.57850E+000	9	...........
	18	0.253333	3.88748E-001	1.00045E-004	0.00000E+000	3.88921E-005	5.99601E-002	3.88815E-001	3.57850E+000	9	...........
	19	0.266667	4.02883E-001	1.01114E-004	0.00000E+000	4.07370E-005	5.99601E-002	4.02951E-001	3.57850E+000	9	...........
	20	0.28	4.16995E-001	1.00807E-004	0.00000E+000	4.20362E-005	5.99601E-002	4.17069E-001	3.57850E+000	9	...........
	21	0.293333	4.31072E-001	1.00542E-004	0.00000E+000	4.33408E-005	5.99601E-002	4.31154E-001	3.57850E+000	9	...........
	22	0.306667	4.45095E-001	1.00925E-004	0.00000E+000	4.49212E-005	5.99601E-002	4.45174E-001	3.57850E+000	9	...........
	23	0.32	4.59039E-001	1.01279E-004	0.00000E+000	4.64911E-005	5.99601E-002	4.59124E-001	3.57850E+000	9	...........
	24	0.333333	4.72877E-001	1.01292E-004	0.00000E+000	4.78986E-005	5.99601E-002	4.72968E-001	3.57850E+000	9	...........
	25	0.346667	4.86594E-001	9.96644E-005	0.00000E+000	4.84962E-005	5.99601E-002	4.86688E-001	3.57850E+000	9	...........
	26	0.36	5.00165E-001	1.00990E-004	0.00000E+000	5.05115E-005	5.99601E-002	5.00263E-001	3.57850E+000	9	...........
	27	0.373333	5.13574E-001	1.00623E-004	0.00000E+000	5.16774E-005	5.99601E-002	5.13674E-001	3.57850E+000	9	...........
	28	0.386667	5.26796E-001	1.01381E-004	0.00000E+000	5.34073E-005	5.99601E-002	5.26903E-001	3.57850E+000	9	...........
	29	0.4	5.39518E-001	1.00649E-004	0.00000E+000	5.43019E-005	5.99601E-002	5.39710E-001	3.57850E+000	9	...........
	30	0.413333	5.52323E-001	1.01188E-004	0.00000E+000	5.58883E-005	5.99601E-002	5.52549E-001	3.57850E+000	9	...........
	31	0.426667	5.64938E-001	1.01722E-004	0.00000E+000	5.74667E-005	5.99601E-002	5.65194E-001	3.57850E+000	9	...........
	32	0.44	5.77294E-001	1.01105E-004	0.00000E+000	5.83675E-005	5.99601E-002	5.77578E-001	3.57850E+000	9	...........
	33	0.453333	5.89455E-001	9.99468E-005	0.00000E+000	5.89142E-005	5.99601E-002	5.89750E-001	3.57850E+000	9	...........
	34	0.466667	6.01394E-001	1.00108E-004	0.00000E+000	6.02045E-005	5.99601E-002	6.01667E-001	3.57850E+000	9	...........
	35	0.48	6.13107E-001	1.01564E-004	0.00000E+000	6.22695E-005	5.99601E-002	6.13394E-001	3.57850E+000	9	...........
	36	0.493333	6.24590E-001	1.00877E-004	0.00000E+000	6.30069E-005	5.99601E-002	6.24826E-001	3.57850E+000	9	...........
	37	0.506667	6.35828E-001	1.00608E-004	0.00000E+000	6.39696E-005	5.99601E-002	6.36067E-001	3.57850E+000	9	...........
	38	0.52	6.46857E-001	1.00925E-004	0.00000E+000	6.52841E-005	5.99601E-002	6.47096E-001	3.57850E+000	9	...........
	39	0.533333	6.57664E-001	1.00630E-004	0.00000E+000	6.61810E-005	5.99601E-002	6.57897E-001	3.57850E+000	9	...........
	40	0.546667	6.68257E-001	1.00781E-004	0.00000E+000	6.73479E-005	5.99601E-002	6.68484E-001	3.57850E+000	9	...........
	41	0.56	6.78617E-001	1.00596E-004	0.00000E+000	6.82661E-005	5.99601E-002	6.78864E-001	3.57850E+000	9	...........
	42	0.573333	6.88780E-001	1.00866E-004	0.00000E+000	6.94743E-005	5.99601E-002	6.89020E-001	3.57850E+000	9	...........
	43	0.586667	6.98710E-001	1.00478E-004	0.00000E+000	7.02051E-005	5.99601E-002	6.98972E-001	3.57850E+000	9	...........
	44	0.6	7.08482E-001	1.00815E-004	0.00000E+000	7.14254E-005	5.99601E-002	7.08748E-001	3.57850E+000	9	...........
	45	0.613333	7.18066E-001	1.00939E-004	0.00000E+000	7.24806E-005	5.99601E-002	7.18331E-001	3.57850E+000	9	...........
	46	0.626667	7.27439E-001	1.01558E-004	0.00000E+000	7.38769E-005	5.99601E-002	7.27703E-001	3.57850E+000	9	...........
	47	0.64	7.36601E-001	1.01070E-004	0.00000E+000	7.44482E-005	5.99601E-002	7.36880E-001	3.57850E+000	9	...........
	48	0.653333	7.45641E-001	1.00726E-004	0.00000E+000	7.51055E-005	5.99601E-002	7.45915E-001	3.57850E+000	9	...........
	49	0.666667	7.54468E-001	1.00924E-004	0.00000E+000	7.61440E-005	5.99601E-002	7.54746E-001	3.57850E+000	9	...........
	50	0.68	7.63108E-001	1.00845E-004	0.00000E+000	7.69556E-005	5.99601E-002	7.63397E-001	3.57990E+000	9	...........
	51	0.693333	7.71622E-001	1.01821E-004	0.00000E+000	7.85674E-005	5.99601E-002	7.71929E-001	3.57990E+000	9	...........
	52	0.706667	7.79952E-001	1.00443E-004	0.00000E+000	7.83405E-005	5.99601E-002	7.80240E-001	3.57990E+000	9	...........
	53	0.72	7.88110E-001	1.00568E-004	0.00000E+000	7.92585E-005	5.99601E-002	7.88414E-001	3.57990E+000	9	...........
	54	0.733333	7.96148E-001	1.00895E-004	0.00000E+000	8.03273E-005	5.99601E-002	7.96451E-001	3.57990E+000	9	...........
	55	0.746667	8.03980E-001	1.00924E-004	0.00000E+000	8.11409E-005	5.99601E-002	8.04296E-001	3.57990E+000	9	...........
	56	0.76	8.11705E-001	1.00433E-004	0.00000E+000	8.15223E-005	5.99601E-002	8.12007E-001	3.57990E+000	9	...........
	57	0.773333	8.19284E-001	1.00476E-004	0.00000E+000	8.23185E-005	5.99601E-002	8.19606E-001	3.57990E+000	9	...........
	58	0.786667	8.26708E-001	1.01386E-004	0.00000E+000	8.38163E-005	5.99601E-002	8.27013E-001	3.57990E+000	9	...........
	59	0.8	8.33986E-001	1.01355E-004	0.00000E+000	8.45290E-005	5.99601E-002	8.34323E-001	3.57990E+000	9	...........
	60	0.813333	8.41144E-001	1.01344E-004	0.00000E+000	8.52448E-005	5.99601E-002	8.41462E-001	3.57990E+000	9	...........
	61	0.826667	8.48200E-001	1.00257E-004	0.00000E+000	8.50382E-005	5.99601E-002	8.48529E-001	3.57990E+000	9	...........
	62	0.84	8.55094E-001	1.00852E-004	0.00000E+000	8.62381E-005	5.99601E-002	8.55431E-001	3.57990E+000	9	...........
	63	0.853333	8.61870E-001	1.00031E-004	0.00000E+000	8.62139E-005	5.99601E-002	8.62236E-001	3.57990E+000	9	...........
	64	0.866667	8.68552E-001	1.00980E-004	0.00000E+000	8.77067E-005	5.99601E-002	8.68903E-001	3.57990E+000	9	...........
	65	0.88	8.75067E-001	9.98520E-005	0.00000E+000	8.73772E-005	5.99601E-002	8.75438E-001	3.57990E+000	9	...........
	66	0.893333	8.81512E-001	1.01280E-004	0.00000E+000	8.92799E-005	5.99601E-002	8.81862E-001	3.57990E+000	9	...........
	67	0.906667	8.87815E-001	1.01644E-004	0.00000E+000	9.02410E-005	5.99601E-002	8.88178E-001	3.57990E+000	9	...........
	68	0.92	8.93967E-001	1.00090E-004	0.00000E+000	8.94767E-005	5.99601E-002	8.94372E-001	3.57990E+000	9	...........
	69	0.933333	9.00072E-001	1.00881E-004	0.00000E+000	9.08005E-005	5.99601E-002	9.00449E-001	3.57990E+000	9	...........
	70	0.946667	9.06044E-001	1.01231E-004	0.00000E+000	9.17201E-005	5.99601E-002	9.06414E-001	3.57990E+000	9	...........
	71	0.96	9.11877E-001	1.00092E-004	0.00000E+000	9.12713E-005	5.99601E-002	9.12260E-001	3.57990E+000	9	...........
	72	0.97333	9.17637E-001	1.00769E-004	0.00000E+000	9.24692E-005	5.99601E-002	9.18009E-001	3.57990E+000	9	...........
	73	0.98667	9.23324E-001	9.97155E-005	0.00000E+000	9.20697E-005	5.99601E-002	9.23659E-001	3.57990E+000	9	...........
	74	1	9.28842E-001	1.01479E-004	0.00000E+000	9.42584E-005	5.99601E-002	9.29153E-001	3.57990E+000	9	...........
	75	1.01333	9.34263E-001	1.01192E-004	0.00000E+000	9.45398E-005	5.99601E-002	9.34566E-001	3.57990E+000	9	...........
	76	1.02667	9.39575E-001	1.00496E-004	0.00000E+000	9.44234E-005	5.99601E-002	9.39858E-001	3.57990E+000	9	...........
	77	1.04	9.44783E-001	1.00035E-004	0.00000E+000	9.45117E-005	5.99601E-002	9.45085E-001	3.57990E+000	9	...........
	78	1.05333	9.49951E-001	1.01010E-004	0.00000E+000	9.59541E-005	5.99601E-002	9.50210E-001	3.57990E+000	9	...........
	79	1.06667	9.54947E-001	1.01206E-004	0.00000E+000	9.66468E-005	5.99601E-002	9.55228E-001	3.57990E+000	9	...........
	80	1.08	9.59856E-001	1.00789E-004	0.00000E+000	9.67426E-005	5.99601E-002	9.60139E-001	3.57990E+000	9	...........
	81	1.09333	9.64682E-001	1.01130E-004	0.00000E+000	9.75586E-005	5.99601E-002	9.64968E-001	3.57990E+000	9	...........
	82	1.10667	9.69401E-001	1.00218E-004	0.00000E+000	9.71511E-005	5.99601E-002	9.69708E-001	3.57990E+000	9	...........
	83	1.12	9.74050E-001	1.00884E-004	0.00000E+000	9.82666E-005	5.99601E-002	9.74361E-001	3.57990E+000	9	...........
	84	1.13333	9.78591E-001	1.01422E-004	0.00000E+000	9.92507E-005	5.99601E-002	9.78885E-001	3.57990E+000	9	...........
	85	1.14667	9.83017E-001	1.00510E-004	0.00000E+000	9.88035E-005	5.99601E-002	9.83335E-001	3.57990E+000	9	...........
	86	1.16	9.87338E-001	1.01023E-004	0.00000E+000	9.97439E-005	5.99601E-002	9.87694E-001	3.57990E+000	9	...........
	87	1.17333	9.91582E-001	1.01422E-004	0.00000E+000	1.00568E-004	5.99601E-002	9.91929E-001	3.57990E+000	9	...........
	88	1.18667	9.95728E-001	1.00414E-004	0.00000E+000	9.99846E-005	5.99601E-002	9.96082E-001	3.57990E+000	9	...........
	89	1.195	9.99032E-001	1.00190E-004	0.00000E+000	1.00093E-004	5.99601E-002	9.99411E-001	3.57990E+000	9	...........
STARTTIMEOFFSET	QUANT	2050.571	Start Time Offset (s)
