EXPLAIN
TAG	PWR800_CHARGE
TITLE	LABEL	PWR Cyclic Charge Discharge (Cell) - Charge Step	Test &Identifier
DATE	LABEL	13-7-2017	Date
TIME	LABEL	15:38:11	Time
NOTES	NOTES	2	&Notes...
	supercap test cell
	6M KOH
PSTAT	PSTAT	IFC5000-01520	Potentiostat
CAPACITY	QUANT	1.00000E-003	Capacity (A-hr)
CELLTYPE	SELECTOR	1	&Cell Type
WORKINGCONNECTION	SELECTOR	0	&Working Lead
MAXCHARGETIME	VARIABLEANDUNITS	1.00000E+002	s	1.00000E+002	second(s)	Max &Charge Time
CHARGECURRENT	QUANT	1.00000E-004	&Charge Current (A) 
VOLTAGEFINISH	TWOPARAM	F	1.00000E-003	3.60000E+003	&Voltage Finish	 I (A) < 	Max Time(s)
SAMPLETIME	QUANT	1.00000E-002	Sa&mple Period (s)
CHARGESTOPAT1	MULTIPARAM	4	1.00000E+000	Charge Stop At &1	Voltage > Limit	V
CHARGESTOPAT2	MULTIPARAM	0	0.00000E+000	Charge Stop At &2	None	N/A
AESBHCSELECTOR	TOGGLE	F	Save Both Half Cells
IRCOMP	TOGGLE	F	IR &Measure
EOC	QUANT	0	Open Circuit (V)
SEQUENCER	TOGGLE	TRUE	Run as Sequence
PSTATMODEL	IQUANT	53	Pstat Model
PSTATSECTION	LABEL	IFC5000-01520	Pstat Section
PSTATSERIALNO	LABEL	01520	Pstat Serial Number
CTRLMODE	IQUANT	0	Control Mode
ELECTROMETER	IQUANT	1	RE=0 or CS=1
IESTAB	IQUANT	0	I/E Stability
CASPEED	IQUANT	4	Control Amp Speed
CONVENTION	IQUANT	1	Current Convention
ICHRANGE	IQUANT	2	Ich Range
ICHRANGEMODE	TOGGLE	T	Ich Auto Range
ICHOFFSETENABLE	TOGGLE	F	Ich Offset Enable
ICHOFFSET	QUANT	0	Ich Offset (V)
ICHFILTER	IQUANT	1	Ich Filter
VCHRANGE	IQUANT	2	Vch Range
VCHRANGEMODE	TOGGLE	T	Vch Auto Range
VCHOFFSETENABLE	TOGGLE	F	Vch Offset Enable
VCHOFFSET	QUANT	0	Vch Offset (V)
VCHFILTER	IQUANT	1	Vch Filter
IERANGELOWERLIMIT	IQUANT	9	I/E Range Lower Limit
IERANGEMODE	TOGGLE	F	I/E AutoRange
IERANGE	IQUANT	9	I/E Range
ACHSELECT	IQUANT	1	Ach Select
ACHRANGE	IQUANT	2	Ach Range
ACHOFFSETENABLE	TOGGLE	F	Ach Offset Enable
ACHOFFSET	QUANT	0	Ach Offset (V)
ACHFILTER	IQUANT	1	Ach Filter
CABLEID	IQUANT	14	Cable ID
DCCALDATE	LABEL	5-7-2017	DC Calibration Date
ACCALDATE	LABEL	12/3/2015	AC Calibration Date
FRAMEWORKVERSION	QUANT	7.01	Framework Version
INSTRUMENTVERSION	LABEL	4.00	Instrument Version
CURVE	TABLE	91
	Pt	T	Vf	Im	Vu	Pwr	Sig	Ach	Temp	IERange	Over
	#	s	V	A	V	W	V	V	deg C	#	bits
	0	0.013333	1.33994E-001	1.01176E-004	0.00000E+000	1.35570E-005	5.99601E-002	1.34051E-001	3.57910E+000	9	...........
	1	0.026667	1.49295E-001	1.00908E-004	0.00000E+000	1.50651E-005	5.99601E-002	1.49314E-001	3.57910E+000	9	...........
	2	0.04	1.64143E-001	1.00941E-004	0.00000E+000	1.65687E-005	5.99601E-002	1.64169E-001	3.57910E+000	9	...........
	3	0.053333	1.78726E-001	1.00081E-004	0.00000E+000	1.78871E-005	5.99601E-002	1.78758E-001	3.57910E+000	9	...........
	4	0.066667	1.93117E-001	1.01485E-004	0.00000E+000	1.95984E-005	5.99601E-002	1.93151E-001	3.57910E+000	9	...........
	5	0.08	2.07372E-001	1.00642E-004	0.00000E+000	2.08703E-005	5.99601E-002	2.07402E-001	3.57910E+000	9	...........
	6	0.093333	2.21522E-001	1.00354E-004	0.00000E+000	2.22307E-005	5.99601E-002	2.21555E-001	3.57910E+000	9	...........
	7	0.106667	2.35605E-001	1.00988E-004	0.00000E+000	2.37932E-005	5.99601E-002	2.35638E-001	3.57910E+000	9	...........
	8	0.12	2.49636E-001	1.00761E-004	0.00000E+000	2.51534E-005	5.99601E-002	2.49677E-001	3.57910E+000	9	...........
	9	0.133333	2.63643E-001	1.01191E-004	0.00000E+000	2.66783E-005	5.99601E-002	2.63689E-001	3.57910E+000	9	...........
	10	0.146667	2.77649E-001	1.00607E-004	0.00000E+000	2.79335E-005	5.99601E-002	2.77702E-001	3.57910E+000	9	...........
	11	0.16	2.91650E-001	1.01605E-004	0.00000E+000	2.96333E-005	5.99601E-002	2.91699E-001	3.57910E+000	9	...........
	12	0.173333	3.05668E-001	1.01522E-004	0.00000E+000	3.10321E-005	5.99601E-002	3.05721E-001	3.57910E+000	9	...........
	13	0.186667	3.19700E-001	1.00172E-004	0.00000E+000	3.20249E-005	5.99601E-002	3.19752E-001	3.57910E+000	9	...........
	14	0.2	3.33753E-001	1.01759E-004	0.00000E+000	3.39622E-005	5.99601E-002	3.33815E-001	3.57910E+000	9	...........
	15	0.213333	3.47834E-001	1.01246E-004	0.00000E+000	3.52168E-005	5.99601E-002	3.47893E-001	3.57910E+000	9	...........
	16	0.226667	3.61928E-001	1.00071E-004	0.00000E+000	3.62184E-005	5.99601E-002	3.61993E-001	3.57910E+000	9	...........
	17	0.24	3.76041E-001	1.00936E-004	0.00000E+000	3.79559E-005	5.99601E-002	3.76113E-001	3.57910E+000	9	...........
	18	0.253333	3.90157E-001	1.01290E-004	0.00000E+000	3.95189E-005	5.99601E-002	3.90233E-001	3.57910E+000	9	...........
	19	0.266667	4.04268E-001	1.00983E-004	0.00000E+000	4.08244E-005	5.99601E-002	4.04338E-001	3.57910E+000	9	...........
	20	0.28	4.18345E-001	1.01571E-004	0.00000E+000	4.24917E-005	5.99601E-002	4.18429E-001	3.57910E+000	9	...........
	21	0.293333	4.32377E-001	1.00031E-004	0.00000E+000	4.32511E-005	5.99601E-002	4.32464E-001	3.57910E+000	9	...........
	22	0.306667	4.46339E-001	1.00101E-004	0.00000E+000	4.46790E-005	5.99601E-002	4.46426E-001	3.57910E+000	9	...........
	23	0.32	4.60219E-001	1.00764E-004	0.00000E+000	4.63734E-005	5.99601E-002	4.60311E-001	3.57910E+000	9	...........
	24	0.333333	4.73978E-001	9.98947E-005	0.00000E+000	4.73479E-005	5.99601E-002	4.74072E-001	3.57910E+000	9	...........
	25	0.346667	4.87615E-001	1.00677E-004	0.00000E+000	4.90917E-005	5.99601E-002	4.87710E-001	3.57910E+000	9	...........
	26	0.36	5.01090E-001	1.01345E-004	0.00000E+000	5.07830E-005	5.99601E-002	5.01192E-001	3.57910E+000	9	...........
	27	0.373333	5.14399E-001	1.00654E-004	0.00000E+000	5.17764E-005	5.99601E-002	5.14507E-001	3.57910E+000	9	...........
	28	0.386667	5.27520E-001	1.01435E-004	0.00000E+000	5.35088E-005	5.99601E-002	5.27636E-001	3.57910E+000	9	...........
	29	0.4	5.40057E-001	1.00106E-004	0.00000E+000	5.40631E-005	5.99601E-002	5.40349E-001	3.57910E+000	9	...........
	30	0.413333	5.52792E-001	1.00865E-004	0.00000E+000	5.57572E-005	5.99601E-002	5.53064E-001	3.57910E+000	9	...........
	31	0.426667	5.65284E-001	1.00863E-004	0.00000E+000	5.70160E-005	5.99601E-002	5.65566E-001	3.57910E+000	9	...........
	32	0.44	5.77554E-001	1.00282E-004	0.00000E+000	5.79184E-005	5.99601E-002	5.77845E-001	3.57910E+000	9	...........
	33	0.453333	5.89608E-001	1.01773E-004	0.00000E+000	6.00063E-005	5.99601E-002	5.89896E-001	3.57910E+000	9	...........
	34	0.466667	6.01411E-001	1.01129E-004	0.00000E+000	6.08203E-005	5.99601E-002	6.01705E-001	3.57910E+000	9	...........
	35	0.48	6.13009E-001	1.00376E-004	0.00000E+000	6.15314E-005	5.99601E-002	6.13289E-001	3.57910E+000	9	...........
	36	0.493333	6.24373E-001	1.00471E-004	0.00000E+000	6.27313E-005	5.99601E-002	6.24641E-001	3.57910E+000	9	...........
	37	0.506667	6.35498E-001	1.00830E-004	0.00000E+000	6.40774E-005	5.99601E-002	6.35772E-001	3.57910E+000	9	...........
	38	0.52	6.46415E-001	1.00555E-004	0.00000E+000	6.50005E-005	5.99601E-002	6.46659E-001	3.57910E+000	9	...........
	39	0.533333	6.57094E-001	1.01148E-004	0.00000E+000	6.64638E-005	5.99601E-002	6.57339E-001	3.57910E+000	9	...........
	40	0.546667	6.67567E-001	1.00775E-004	0.00000E+000	6.72741E-005	5.99601E-002	6.67848E-001	3.57910E+000	9	...........
	41	0.56	6.77824E-001	1.00330E-004	0.00000E+000	6.80063E-005	5.99601E-002	6.78072E-001	3.57919E+000	9	...........
	42	0.573333	6.87864E-001	1.00365E-004	0.00000E+000	6.90372E-005	5.99601E-002	6.88164E-001	3.57920E+000	9	...........
	43	0.586667	6.97729E-001	1.00758E-004	0.00000E+000	7.03021E-005	5.99601E-002	6.97999E-001	3.57920E+000	9	...........
	44	0.6	7.07364E-001	1.00643E-004	0.00000E+000	7.11911E-005	5.99601E-002	7.07648E-001	3.57920E+000	9	...........
	45	0.613333	7.16814E-001	1.01337E-004	0.00000E+000	7.26395E-005	5.99601E-002	7.17126E-001	3.57920E+000	9	...........
	46	0.626667	7.26134E-001	1.01035E-004	0.00000E+000	7.33646E-005	5.99601E-002	7.26411E-001	3.57920E+000	9	...........
	47	0.64	7.35189E-001	1.00444E-004	0.00000E+000	7.38452E-005	5.99601E-002	7.35499E-001	3.57920E+000	9	...........
	48	0.653333	7.44108E-001	1.01072E-004	0.00000E+000	7.52085E-005	5.99601E-002	7.44450E-001	3.57920E+000	9	...........
	49	0.666667	7.52857E-001	1.01095E-004	0.00000E+000	7.61101E-005	5.99601E-002	7.53187E-001	3.57920E+000	9	...........
	50	0.68	7.61453E-001	1.01002E-004	0.00000E+000	7.69084E-005	5.99601E-002	7.61752E-001	3.57920E+000	9	...........
	51	0.693333	7.69845E-001	1.00765E-004	0.00000E+000	7.75731E-005	5.99601E-002	7.70179E-001	3.57920E+000	9	...........
	52	0.706667	7.78100E-001	1.00356E-004	0.00000E+000	7.80872E-005	5.99601E-002	7.78419E-001	3.57920E+000	9	...........
	53	0.72	7.86182E-001	1.00671E-004	0.00000E+000	7.91456E-005	5.99601E-002	7.86514E-001	3.57920E+000	9	...........
	54	0.733333	7.94122E-001	1.00850E-004	0.00000E+000	8.00873E-005	5.99601E-002	7.94459E-001	3.57920E+000	9	...........
	55	0.746667	8.01927E-001	1.01179E-004	0.00000E+000	8.11384E-005	5.99601E-002	8.02252E-001	3.57920E+000	9	...........
	56	0.76	8.09538E-001	1.01222E-004	0.00000E+000	8.19431E-005	5.99601E-002	8.09878E-001	3.57920E+000	9	...........
	57	0.773333	8.17023E-001	1.00986E-004	0.00000E+000	8.25076E-005	5.99601E-002	8.17358E-001	3.57920E+000	9	...........
	58	0.786667	8.24416E-001	1.00589E-004	0.00000E+000	8.29269E-005	5.99601E-002	8.24752E-001	3.57920E+000	9	...........
	59	0.8	8.31644E-001	1.00944E-004	0.00000E+000	8.39494E-005	5.99601E-002	8.31982E-001	3.57920E+000	9	...........
	60	0.813333	8.38738E-001	1.00862E-004	0.00000E+000	8.45964E-005	5.99601E-002	8.39097E-001	3.57920E+000	9	...........
	61	0.826667	8.45734E-001	1.01993E-004	0.00000E+000	8.62590E-005	5.99601E-002	8.46089E-001	3.57920E+000	9	...........
	62	0.84	8.52587E-001	1.00768E-004	0.00000E+000	8.59133E-005	5.99601E-002	8.52919E-001	3.57920E+000	9	...........
	63	0.853333	8.59321E-001	1.01195E-004	0.00000E+000	8.69590E-005	5.99601E-002	8.59648E-001	3.57920E+000	9	...........
	64	0.866667	8.65929E-001	1.00639E-004	0.00000E+000	8.71459E-005	5.99601E-002	8.66249E-001	3.57920E+000	9	...........
	65	0.88	8.72455E-001	1.01435E-004	0.00000E+000	8.84971E-005	5.99601E-002	8.72764E-001	3.57920E+000	9	...........
	66	0.893333	8.78805E-001	1.00142E-004	0.00000E+000	8.80050E-005	5.99601E-002	8.79142E-001	3.57920E+000	9	...........
	67	0.906667	8.85089E-001	1.00750E-004	0.00000E+000	8.91727E-005	5.99601E-002	8.85417E-001	3.57920E+000	9	...........
	68	0.92	8.91228E-001	1.01074E-004	0.00000E+000	9.00801E-005	5.99601E-002	8.91549E-001	3.57920E+000	9	...........
	69	0.933333	8.97276E-001	1.00536E-004	0.00000E+000	9.02089E-005	5.99601E-002	8.97633E-001	3.57920E+000	9	...........
	70	0.946667	9.03200E-001	1.01497E-004	0.00000E+000	9.16722E-005	5.99601E-002	9.03563E-001	3.57920E+000	9	...........
	71	0.96	9.09035E-001	1.01049E-004	0.00000E+000	9.18572E-005	5.99601E-002	9.09387E-001	3.57920E+000	9	...........
	72	0.97333	9.14746E-001	1.01130E-004	0.00000E+000	9.25086E-005	5.99601E-002	9.15105E-001	3.57920E+000	9	...........
	73	0.98667	9.20399E-001	1.00366E-004	0.00000E+000	9.23764E-005	5.99601E-002	9.20720E-001	3.57920E+000	9	...........
	74	1	9.25924E-001	1.01360E-004	0.00000E+000	9.38512E-005	5.99601E-002	9.26275E-001	3.57920E+000	9	...........
	75	1.01333	9.31334E-001	1.01580E-004	0.00000E+000	9.46054E-005	5.99601E-002	9.31669E-001	3.57920E+000	9	...........
	76	1.02667	9.36616E-001	9.99385E-005	0.00000E+000	9.36040E-005	5.99601E-002	9.37009E-001	3.57920E+000	9	...........
	77	1.04	9.41827E-001	1.02062E-004	0.00000E+000	9.61246E-005	5.99601E-002	9.42178E-001	3.57920E+000	9	...........
	78	1.05333	9.46939E-001	1.00773E-004	0.00000E+000	9.54259E-005	5.99601E-002	9.47300E-001	3.57920E+000	9	...........
	79	1.06667	9.51967E-001	1.01886E-004	0.00000E+000	9.69919E-005	5.99601E-002	9.52328E-001	3.57920E+000	9	...........
	80	1.08	9.56844E-001	1.01087E-004	0.00000E+000	9.67241E-005	5.99601E-002	9.57198E-001	3.57920E+000	9	...........
	81	1.09333	9.61657E-001	1.00953E-004	0.00000E+000	9.70824E-005	5.99601E-002	9.62035E-001	3.57920E+000	9	...........
	82	1.10667	9.66360E-001	1.00283E-004	0.00000E+000	9.69098E-005	5.99601E-002	9.66741E-001	3.57920E+000	9	...........
	83	1.12	9.70980E-001	1.01868E-004	0.00000E+000	9.89118E-005	5.99601E-002	9.71381E-001	3.57920E+000	9	...........
	84	1.13333	9.75555E-001	1.01961E-004	0.00000E+000	9.94683E-005	5.99601E-002	9.75906E-001	3.57920E+000	9	...........
	85	1.14667	9.79982E-001	1.01019E-004	0.00000E+000	9.89967E-005	5.99601E-002	9.80311E-001	3.57920E+000	9	...........
	86	1.16	9.84302E-001	1.00066E-004	0.00000E+000	9.84947E-005	5.99601E-002	9.84654E-001	3.57920E+000	9	...........
	87	1.17333	9.88564E-001	1.00787E-004	0.00000E+000	9.96340E-005	5.99601E-002	9.88934E-001	3.57920E+000	9	...........
	88	1.18667	9.92705E-001	1.01263E-004	0.00000E+000	1.00524E-004	5.99601E-002	9.93076E-001	3.57920E+000	9	...........
	89	1.2	9.96790E-001	1.00355E-004	0.00000E+000	1.00033E-004	5.99601E-002	9.97147E-001	3.57920E+000	9	...........
	90	1.205	9.99526E-001	1.00617E-004	0.00000E+000	1.00570E-004	5.99601E-002	9.99914E-001	3.57920E+000	9	...........
STARTTIMEOFFSET	QUANT	1635.886	Start Time Offset (s)
