EXPLAIN
TAG	PWR800_CHARGE
TITLE	LABEL	PWR Cyclic Charge Discharge (Cell) - Charge Step	Test &Identifier
DATE	LABEL	13-7-2017	Date
TIME	LABEL	15:36:22	Time
NOTES	NOTES	2	&Notes...
	supercap test cell
	6M KOH
PSTAT	PSTAT	IFC5000-01520	Potentiostat
CAPACITY	QUANT	1.00000E-003	Capacity (A-hr)
CELLTYPE	SELECTOR	1	&Cell Type
WORKINGCONNECTION	SELECTOR	0	&Working Lead
MAXCHARGETIME	VARIABLEANDUNITS	1.00000E+002	s	1.00000E+002	second(s)	Max &Charge Time
CHARGECURRENT	QUANT	1.00000E-004	&Charge Current (A) 
VOLTAGEFINISH	TWOPARAM	F	1.00000E-003	3.60000E+003	&Voltage Finish	 I (A) < 	Max Time(s)
SAMPLETIME	QUANT	1.00000E-002	Sa&mple Period (s)
CHARGESTOPAT1	MULTIPARAM	4	1.00000E+000	Charge Stop At &1	Voltage > Limit	V
CHARGESTOPAT2	MULTIPARAM	0	0.00000E+000	Charge Stop At &2	None	N/A
AESBHCSELECTOR	TOGGLE	F	Save Both Half Cells
IRCOMP	TOGGLE	F	IR &Measure
EOC	QUANT	0	Open Circuit (V)
SEQUENCER	TOGGLE	TRUE	Run as Sequence
PSTATMODEL	IQUANT	53	Pstat Model
PSTATSECTION	LABEL	IFC5000-01520	Pstat Section
PSTATSERIALNO	LABEL	01520	Pstat Serial Number
CTRLMODE	IQUANT	0	Control Mode
ELECTROMETER	IQUANT	1	RE=0 or CS=1
IESTAB	IQUANT	0	I/E Stability
CASPEED	IQUANT	4	Control Amp Speed
CONVENTION	IQUANT	1	Current Convention
ICHRANGE	IQUANT	2	Ich Range
ICHRANGEMODE	TOGGLE	T	Ich Auto Range
ICHOFFSETENABLE	TOGGLE	F	Ich Offset Enable
ICHOFFSET	QUANT	0	Ich Offset (V)
ICHFILTER	IQUANT	1	Ich Filter
VCHRANGE	IQUANT	2	Vch Range
VCHRANGEMODE	TOGGLE	T	Vch Auto Range
VCHOFFSETENABLE	TOGGLE	F	Vch Offset Enable
VCHOFFSET	QUANT	0	Vch Offset (V)
VCHFILTER	IQUANT	1	Vch Filter
IERANGELOWERLIMIT	IQUANT	9	I/E Range Lower Limit
IERANGEMODE	TOGGLE	F	I/E AutoRange
IERANGE	IQUANT	9	I/E Range
ACHSELECT	IQUANT	1	Ach Select
ACHRANGE	IQUANT	2	Ach Range
ACHOFFSETENABLE	TOGGLE	F	Ach Offset Enable
ACHOFFSET	QUANT	0	Ach Offset (V)
ACHFILTER	IQUANT	1	Ach Filter
CABLEID	IQUANT	14	Cable ID
DCCALDATE	LABEL	5-7-2017	DC Calibration Date
ACCALDATE	LABEL	12/3/2015	AC Calibration Date
FRAMEWORKVERSION	QUANT	7.01	Framework Version
INSTRUMENTVERSION	LABEL	4.00	Instrument Version
CURVE	TABLE	91
	Pt	T	Vf	Im	Vu	Pwr	Sig	Ach	Temp	IERange	Over
	#	s	V	A	V	W	V	V	deg C	#	bits
	0	0.013333	1.33809E-001	1.00677E-004	0.00000E+000	1.34716E-005	5.99601E-002	1.33860E-001	3.57920E+000	9	...........
	1	0.026667	1.49102E-001	1.00201E-004	0.00000E+000	1.49401E-005	5.99601E-002	1.49130E-001	3.57920E+000	9	...........
	2	0.04	1.63957E-001	1.00695E-004	0.00000E+000	1.65096E-005	5.99601E-002	1.63982E-001	3.57920E+000	9	...........
	3	0.053333	1.78535E-001	1.01125E-004	0.00000E+000	1.80544E-005	5.99601E-002	1.78563E-001	3.57920E+000	9	...........
	4	0.066667	1.92924E-001	9.98332E-005	0.00000E+000	1.92602E-005	5.99601E-002	1.92952E-001	3.57920E+000	9	...........
	5	0.08	2.07174E-001	9.97811E-005	0.00000E+000	2.06721E-005	5.99601E-002	2.07205E-001	3.57890E+000	9	...........
	6	0.093333	2.21320E-001	1.01197E-004	0.00000E+000	2.23970E-005	5.99601E-002	2.21354E-001	3.57890E+000	9	...........
	7	0.106667	2.35402E-001	1.00825E-004	0.00000E+000	2.37344E-005	5.99601E-002	2.35435E-001	3.57890E+000	9	...........
	8	0.12	2.49428E-001	1.00244E-004	0.00000E+000	2.50036E-005	5.99601E-002	2.49476E-001	3.57890E+000	9	...........
	9	0.133333	2.63429E-001	1.00828E-004	0.00000E+000	2.65611E-005	5.99601E-002	2.63479E-001	3.57890E+000	9	...........
	10	0.146667	2.77423E-001	1.01173E-004	0.00000E+000	2.80677E-005	5.99601E-002	2.77477E-001	3.57890E+000	9	...........
	11	0.16	2.91419E-001	1.00326E-004	0.00000E+000	2.92369E-005	5.99601E-002	2.91469E-001	3.57890E+000	9	...........
	12	0.173333	3.05422E-001	1.00815E-004	0.00000E+000	3.07910E-005	5.99601E-002	3.05483E-001	3.57890E+000	9	...........
	13	0.186667	3.19451E-001	1.01957E-004	0.00000E+000	3.25702E-005	5.99601E-002	3.19511E-001	3.57890E+000	9	...........
	14	0.2	3.33489E-001	1.01689E-004	0.00000E+000	3.39121E-005	5.99601E-002	3.33555E-001	3.57890E+000	9	...........
	15	0.213333	3.47555E-001	1.00912E-004	0.00000E+000	3.50723E-005	5.99601E-002	3.47626E-001	3.57890E+000	9	...........
	16	0.226667	3.61642E-001	1.00398E-004	0.00000E+000	3.63081E-005	5.99601E-002	3.61710E-001	3.57890E+000	9	...........
	17	0.24	3.75744E-001	1.01591E-004	0.00000E+000	3.81721E-005	5.99601E-002	3.75814E-001	3.57890E+000	9	...........
	18	0.253333	3.89843E-001	1.00011E-004	0.00000E+000	3.89887E-005	5.99601E-002	3.89919E-001	3.57890E+000	9	...........
	19	0.266667	4.03937E-001	1.00953E-004	0.00000E+000	4.07787E-005	5.99601E-002	4.04011E-001	3.57890E+000	9	...........
	20	0.28	4.17990E-001	1.00724E-004	0.00000E+000	4.21017E-005	5.99601E-002	4.18074E-001	3.57890E+000	9	...........
	21	0.293333	4.32004E-001	1.00208E-004	0.00000E+000	4.32904E-005	5.99601E-002	4.32096E-001	3.57890E+000	9	...........
	22	0.306667	4.45949E-001	1.00697E-004	0.00000E+000	4.49057E-005	5.99601E-002	4.46040E-001	3.57890E+000	9	...........
	23	0.32	4.59814E-001	1.00996E-004	0.00000E+000	4.64394E-005	5.99601E-002	4.59900E-001	3.57890E+000	9	...........
	24	0.333333	4.73560E-001	1.00847E-004	0.00000E+000	4.77571E-005	5.99601E-002	4.73654E-001	3.57890E+000	9	...........
	25	0.346667	4.87177E-001	1.00426E-004	0.00000E+000	4.89253E-005	5.99601E-002	4.87272E-001	3.57890E+000	9	...........
	26	0.36	5.00628E-001	1.00394E-004	0.00000E+000	5.02599E-005	5.99601E-002	5.00730E-001	3.57890E+000	9	...........
	27	0.373333	5.13915E-001	1.01363E-004	0.00000E+000	5.20918E-005	5.99601E-002	5.14020E-001	3.57890E+000	9	...........
	28	0.386667	5.27020E-001	1.01349E-004	0.00000E+000	5.34131E-005	5.99601E-002	5.27129E-001	3.57890E+000	9	...........
	29	0.4	5.39621E-001	1.01586E-004	0.00000E+000	5.48178E-005	5.99601E-002	5.39769E-001	3.57890E+000	9	...........
	30	0.413333	5.52274E-001	1.01116E-004	0.00000E+000	5.58436E-005	5.99601E-002	5.52495E-001	3.57890E+000	9	...........
	31	0.426667	5.64751E-001	1.00005E-004	0.00000E+000	5.64780E-005	5.99601E-002	5.64977E-001	3.57890E+000	9	...........
	32	0.44	5.76997E-001	1.00575E-004	0.00000E+000	5.80315E-005	5.99601E-002	5.77243E-001	3.57890E+000	9	...........
	33	0.453333	5.89022E-001	1.00222E-004	0.00000E+000	5.90328E-005	5.99601E-002	5.89283E-001	3.57890E+000	9	...........
	34	0.466667	6.00801E-001	1.00811E-004	0.00000E+000	6.05671E-005	5.99601E-002	6.01091E-001	3.57890E+000	9	...........
	35	0.48	6.12373E-001	1.00922E-004	0.00000E+000	6.18019E-005	5.99601E-002	6.12672E-001	3.57890E+000	9	...........
	36	0.493333	6.23751E-001	1.01024E-004	0.00000E+000	6.30139E-005	5.99601E-002	6.24004E-001	3.57890E+000	9	...........
	37	0.506667	6.34852E-001	1.01484E-004	0.00000E+000	6.44271E-005	5.99601E-002	6.35106E-001	3.57890E+000	9	...........
	38	0.52	6.45760E-001	1.00287E-004	0.00000E+000	6.47617E-005	5.99601E-002	6.46019E-001	3.57890E+000	9	...........
	39	0.533333	6.56417E-001	1.00285E-004	0.00000E+000	6.58290E-005	5.99601E-002	6.56667E-001	3.57890E+000	9	...........
	40	0.546667	6.66887E-001	1.00744E-004	0.00000E+000	6.71847E-005	5.99601E-002	6.67135E-001	3.57890E+000	9	...........
	41	0.56	6.77124E-001	1.01202E-004	0.00000E+000	6.85265E-005	5.99601E-002	6.77370E-001	3.57890E+000	9	...........
	42	0.573333	6.87140E-001	1.01552E-004	0.00000E+000	6.97807E-005	5.99601E-002	6.87390E-001	3.57890E+000	9	...........
	43	0.586667	6.96982E-001	1.01037E-004	0.00000E+000	7.04206E-005	5.99601E-002	6.97202E-001	3.57890E+000	9	...........
	44	0.6	7.06581E-001	1.00875E-004	0.00000E+000	7.12765E-005	5.99601E-002	7.06872E-001	3.57890E+000	9	...........
	45	0.613333	7.16071E-001	1.01355E-004	0.00000E+000	7.25777E-005	5.99601E-002	7.16330E-001	3.57890E+000	9	...........
	46	0.626667	7.25336E-001	1.00369E-004	0.00000E+000	7.28010E-005	5.99601E-002	7.25593E-001	3.57890E+000	9	...........
	47	0.64	7.34419E-001	1.01186E-004	0.00000E+000	7.43126E-005	5.99601E-002	7.34675E-001	3.57890E+000	9	...........
	48	0.653333	7.43322E-001	1.00675E-004	0.00000E+000	7.48340E-005	5.99601E-002	7.43595E-001	3.57890E+000	9	...........
	49	0.666667	7.52062E-001	1.00405E-004	0.00000E+000	7.55109E-005	5.99601E-002	7.52324E-001	3.57890E+000	9	...........
	50	0.68	7.60609E-001	9.96373E-005	0.00000E+000	7.57850E-005	5.99601E-002	7.60871E-001	3.57890E+000	9	...........
	51	0.693333	7.69022E-001	1.01041E-004	0.00000E+000	7.77026E-005	5.99601E-002	7.69286E-001	3.57890E+000	9	...........
	52	0.706667	7.77231E-001	1.01072E-004	0.00000E+000	7.85563E-005	5.99601E-002	7.77509E-001	3.57890E+000	9	...........
	53	0.72	7.85337E-001	1.01005E-004	0.00000E+000	7.93232E-005	5.99601E-002	7.85597E-001	3.57890E+000	9	...........
	54	0.733333	7.93286E-001	1.00920E-004	0.00000E+000	8.00583E-005	5.99601E-002	7.93539E-001	3.57890E+000	9	...........
	55	0.746667	8.01064E-001	1.00524E-004	0.00000E+000	8.05261E-005	5.99601E-002	8.01298E-001	3.57890E+000	9	...........
	56	0.76	8.08698E-001	1.01405E-004	0.00000E+000	8.20064E-005	5.99601E-002	8.08958E-001	3.57890E+000	9	...........
	57	0.773333	8.16204E-001	1.01267E-004	0.00000E+000	8.26544E-005	5.99601E-002	8.16482E-001	3.57890E+000	9	...........
	58	0.786667	8.23557E-001	1.01484E-004	0.00000E+000	8.35775E-005	5.99601E-002	8.23846E-001	3.57890E+000	9	...........
	59	0.8	8.30773E-001	1.00599E-004	0.00000E+000	8.35750E-005	5.99601E-002	8.31045E-001	3.57890E+000	9	...........
	60	0.813333	8.37832E-001	1.01001E-004	0.00000E+000	8.46221E-005	5.99601E-002	8.38127E-001	3.57890E+000	9	...........
	61	0.826667	8.44821E-001	1.01389E-004	0.00000E+000	8.56554E-005	5.99601E-002	8.45121E-001	3.57890E+000	9	...........
	62	0.84	8.51660E-001	1.01388E-004	0.00000E+000	8.63479E-005	5.99601E-002	8.51958E-001	3.57890E+000	9	...........
	63	0.853333	8.58372E-001	1.01595E-004	0.00000E+000	8.72064E-005	5.99601E-002	8.58692E-001	3.57890E+000	9	...........
	64	0.866667	8.64966E-001	1.01081E-004	0.00000E+000	8.74320E-005	5.99601E-002	8.65293E-001	3.57890E+000	9	...........
	65	0.88	8.71476E-001	1.00570E-004	0.00000E+000	8.76442E-005	5.99601E-002	8.71814E-001	3.57890E+000	9	...........
	66	0.893333	8.77840E-001	1.01137E-004	0.00000E+000	8.87817E-005	5.99601E-002	8.78169E-001	3.57890E+000	9	...........
	67	0.906667	8.84101E-001	1.00954E-004	0.00000E+000	8.92538E-005	5.99601E-002	8.84471E-001	3.57890E+000	9	...........
	68	0.92	8.90250E-001	1.00726E-004	0.00000E+000	8.96715E-005	5.99601E-002	8.90599E-001	3.57890E+000	9	...........
	69	0.933333	8.96286E-001	1.00161E-004	0.00000E+000	8.97733E-005	5.99601E-002	8.96638E-001	3.57890E+000	9	...........
	70	0.946667	9.02214E-001	1.00946E-004	0.00000E+000	9.10748E-005	5.99601E-002	9.02563E-001	3.57890E+000	9	...........
	71	0.96	9.08031E-001	1.01153E-004	0.00000E+000	9.18503E-005	5.99601E-002	9.08404E-001	3.57890E+000	9	...........
	72	0.97333	9.13754E-001	1.00712E-004	0.00000E+000	9.20256E-005	5.99601E-002	9.14108E-001	3.57890E+000	9	...........
	73	0.98667	9.19377E-001	1.00683E-004	0.00000E+000	9.25660E-005	5.99601E-002	9.19743E-001	3.57890E+000	9	...........
	74	1	9.24916E-001	1.00398E-004	0.00000E+000	9.28596E-005	5.99601E-002	9.25263E-001	3.57890E+000	9	...........
	75	1.01333	9.30338E-001	1.00224E-004	0.00000E+000	9.32421E-005	5.99601E-002	9.30668E-001	3.57890E+000	9	...........
	76	1.02667	9.35617E-001	1.01218E-004	0.00000E+000	9.47012E-005	5.99601E-002	9.35985E-001	3.57890E+000	9	...........
	77	1.04	9.40803E-001	1.00534E-004	0.00000E+000	9.45831E-005	5.99601E-002	9.41165E-001	3.57890E+000	9	...........
	78	1.05333	9.45909E-001	1.00773E-004	0.00000E+000	9.53221E-005	5.99601E-002	9.46276E-001	3.57890E+000	9	...........
	79	1.06667	9.50943E-001	1.00688E-004	0.00000E+000	9.57481E-005	5.99601E-002	9.51291E-001	3.57890E+000	9	...........
	80	1.08	9.55842E-001	1.00511E-004	0.00000E+000	9.60731E-005	5.99601E-002	9.56184E-001	3.57890E+000	9	...........
	81	1.09333	9.60638E-001	9.96780E-005	0.00000E+000	9.57544E-005	5.99601E-002	9.60995E-001	3.57890E+000	9	...........
	82	1.10667	9.65347E-001	1.00803E-004	0.00000E+000	9.73101E-005	5.99601E-002	9.65716E-001	3.57890E+000	9	...........
	83	1.12	9.69952E-001	1.01248E-004	0.00000E+000	9.82058E-005	5.99601E-002	9.70348E-001	3.57890E+000	9	...........
	84	1.13333	9.74528E-001	1.00157E-004	0.00000E+000	9.76060E-005	5.99601E-002	9.74898E-001	3.57890E+000	9	...........
	85	1.14667	9.78965E-001	1.00563E-004	0.00000E+000	9.84472E-005	5.99601E-002	9.79324E-001	3.57890E+000	9	...........
	86	1.16	9.83305E-001	1.00712E-004	0.00000E+000	9.90301E-005	5.99601E-002	9.83659E-001	3.57890E+000	9	...........
	87	1.17333	9.87549E-001	1.00778E-004	0.00000E+000	9.95234E-005	5.99601E-002	9.87912E-001	3.57890E+000	9	...........
	88	1.18667	9.91709E-001	1.01230E-004	0.00000E+000	1.00391E-004	5.99601E-002	9.92059E-001	3.57890E+000	9	...........
	89	1.2	9.95772E-001	1.01077E-004	0.00000E+000	1.00650E-004	5.99601E-002	9.96161E-001	3.57890E+000	9	...........
	90	1.20833	9.99044E-001	9.98211E-005	0.00000E+000	9.97257E-005	5.99601E-002	9.99435E-001	3.57890E+000	9	...........
STARTTIMEOFFSET	QUANT	1553.297	Start Time Offset (s)
