EXPLAIN
TAG	PWR800_CHARGE
TITLE	LABEL	PWR Cyclic Charge Discharge (Cell) - Charge Step	Test &Identifier
DATE	LABEL	13-7-2017	Date
TIME	LABEL	15:16:23	Time
NOTES	NOTES	2	&Notes...
	supercap test cell
	6M KOH
PSTAT	PSTAT	IFC5000-01520	Potentiostat
CAPACITY	QUANT	1.00000E-003	Capacity (A-hr)
CELLTYPE	SELECTOR	1	&Cell Type
WORKINGCONNECTION	SELECTOR	0	&Working Lead
MAXCHARGETIME	VARIABLEANDUNITS	1.00000E+002	s	1.00000E+002	second(s)	Max &Charge Time
CHARGECURRENT	QUANT	1.00000E-004	&Charge Current (A) 
VOLTAGEFINISH	TWOPARAM	F	1.00000E-003	3.60000E+003	&Voltage Finish	 I (A) < 	Max Time(s)
SAMPLETIME	QUANT	1.00000E-002	Sa&mple Period (s)
CHARGESTOPAT1	MULTIPARAM	4	1.00000E+000	Charge Stop At &1	Voltage > Limit	V
CHARGESTOPAT2	MULTIPARAM	0	0.00000E+000	Charge Stop At &2	None	N/A
AESBHCSELECTOR	TOGGLE	F	Save Both Half Cells
IRCOMP	TOGGLE	F	IR &Measure
EOC	QUANT	0	Open Circuit (V)
SEQUENCER	TOGGLE	TRUE	Run as Sequence
PSTATMODEL	IQUANT	53	Pstat Model
PSTATSECTION	LABEL	IFC5000-01520	Pstat Section
PSTATSERIALNO	LABEL	01520	Pstat Serial Number
CTRLMODE	IQUANT	0	Control Mode
ELECTROMETER	IQUANT	1	RE=0 or CS=1
IESTAB	IQUANT	0	I/E Stability
CASPEED	IQUANT	4	Control Amp Speed
CONVENTION	IQUANT	1	Current Convention
ICHRANGE	IQUANT	2	Ich Range
ICHRANGEMODE	TOGGLE	T	Ich Auto Range
ICHOFFSETENABLE	TOGGLE	F	Ich Offset Enable
ICHOFFSET	QUANT	0	Ich Offset (V)
ICHFILTER	IQUANT	1	Ich Filter
VCHRANGE	IQUANT	2	Vch Range
VCHRANGEMODE	TOGGLE	T	Vch Auto Range
VCHOFFSETENABLE	TOGGLE	F	Vch Offset Enable
VCHOFFSET	QUANT	0	Vch Offset (V)
VCHFILTER	IQUANT	1	Vch Filter
IERANGELOWERLIMIT	IQUANT	9	I/E Range Lower Limit
IERANGEMODE	TOGGLE	F	I/E AutoRange
IERANGE	IQUANT	9	I/E Range
ACHSELECT	IQUANT	1	Ach Select
ACHRANGE	IQUANT	2	Ach Range
ACHOFFSETENABLE	TOGGLE	F	Ach Offset Enable
ACHOFFSET	QUANT	0	Ach Offset (V)
ACHFILTER	IQUANT	1	Ach Filter
CABLEID	IQUANT	14	Cable ID
DCCALDATE	LABEL	5-7-2017	DC Calibration Date
ACCALDATE	LABEL	12/3/2015	AC Calibration Date
FRAMEWORKVERSION	QUANT	7.01	Framework Version
INSTRUMENTVERSION	LABEL	4.00	Instrument Version
CURVE	TABLE	95
	Pt	T	Vf	Im	Vu	Pwr	Sig	Ach	Temp	IERange	Over
	#	s	V	A	V	W	V	V	deg C	#	bits
	0	0.013333	1.33523E-001	1.00458E-004	0.00000E+000	1.34135E-005	5.99601E-002	1.33568E-001	3.57880E+000	9	...........
	1	0.026667	1.48752E-001	9.99593E-005	0.00000E+000	1.48692E-005	5.99601E-002	1.48767E-001	3.57880E+000	9	...........
	2	0.04	1.63530E-001	1.00978E-004	0.00000E+000	1.65129E-005	5.99601E-002	1.63550E-001	3.57880E+000	9	...........
	3	0.053333	1.78040E-001	1.00919E-004	0.00000E+000	1.79676E-005	5.99601E-002	1.78065E-001	3.57880E+000	9	...........
	4	0.066667	1.92356E-001	1.00490E-004	0.00000E+000	1.93298E-005	5.99601E-002	1.92388E-001	3.57880E+000	9	...........
	5	0.08	2.06530E-001	1.00430E-004	0.00000E+000	2.07419E-005	5.99601E-002	2.06560E-001	3.57880E+000	9	...........
	6	0.093333	2.20599E-001	1.01385E-004	0.00000E+000	2.23653E-005	5.99601E-002	2.20637E-001	3.57880E+000	9	...........
	7	0.106667	2.34587E-001	1.01019E-004	0.00000E+000	2.36978E-005	5.99601E-002	2.34630E-001	3.57880E+000	9	...........
	8	0.12	2.48524E-001	1.01168E-004	0.00000E+000	2.51427E-005	5.99601E-002	2.48570E-001	3.57880E+000	9	...........
	9	0.133333	2.62427E-001	1.01020E-004	0.00000E+000	2.65104E-005	5.99601E-002	2.62479E-001	3.57880E+000	9	...........
	10	0.146667	2.76316E-001	1.01809E-004	0.00000E+000	2.81313E-005	5.99601E-002	2.76370E-001	3.57880E+000	9	...........
	11	0.16	2.90190E-001	9.99468E-005	0.00000E+000	2.90036E-005	5.99601E-002	2.90253E-001	3.57880E+000	9	...........
	12	0.173333	3.04073E-001	1.01329E-004	0.00000E+000	3.08116E-005	5.99601E-002	3.04137E-001	3.57880E+000	9	...........
	13	0.186667	3.17959E-001	1.00293E-004	0.00000E+000	3.18890E-005	5.99601E-002	3.18021E-001	3.57880E+000	9	...........
	14	0.2	3.31845E-001	1.00283E-004	0.00000E+000	3.32785E-005	5.99601E-002	3.31912E-001	3.57880E+000	9	...........
	15	0.213333	3.45742E-001	1.00177E-004	0.00000E+000	3.46354E-005	5.99601E-002	3.45811E-001	3.57880E+000	9	...........
	16	0.226667	3.59641E-001	1.01137E-004	0.00000E+000	3.63729E-005	5.99601E-002	3.59714E-001	3.57880E+000	9	...........
	17	0.24	3.73531E-001	1.02135E-004	0.00000E+000	3.81505E-005	5.99601E-002	3.73602E-001	3.57880E+000	9	...........
	18	0.253333	3.87406E-001	1.00827E-004	0.00000E+000	3.90610E-005	5.99601E-002	3.87479E-001	3.57880E+000	9	...........
	19	0.266667	4.01242E-001	1.00838E-004	0.00000E+000	4.04602E-005	5.99601E-002	4.01324E-001	3.57880E+000	9	...........
	20	0.28	4.15039E-001	1.01135E-004	0.00000E+000	4.19748E-005	5.99601E-002	4.15126E-001	3.57880E+000	9	...........
	21	0.293333	4.28774E-001	1.00811E-004	0.00000E+000	4.32249E-005	5.99601E-002	4.28859E-001	3.57880E+000	9	...........
	22	0.306667	4.42417E-001	1.01106E-004	0.00000E+000	4.47312E-005	5.99601E-002	4.42513E-001	3.57880E+000	9	...........
	23	0.32	4.55970E-001	1.00802E-004	0.00000E+000	4.59628E-005	5.99601E-002	4.56056E-001	3.57880E+000	9	...........
	24	0.333333	4.69392E-001	1.01266E-004	0.00000E+000	4.75334E-005	5.99601E-002	4.69483E-001	3.57880E+000	9	...........
	25	0.346667	4.82665E-001	1.01027E-004	0.00000E+000	4.87623E-005	5.99601E-002	4.82761E-001	3.57880E+000	9	...........
	26	0.36	4.95774E-001	1.00696E-004	0.00000E+000	4.99224E-005	5.99601E-002	4.95878E-001	3.57880E+000	9	...........
	27	0.373333	5.08715E-001	1.01152E-004	0.00000E+000	5.14577E-005	5.99601E-002	5.08816E-001	3.57880E+000	9	...........
	28	0.386667	5.21468E-001	1.01054E-004	0.00000E+000	5.26966E-005	5.99601E-002	5.21578E-001	3.57880E+000	9	...........
	29	0.4	5.33821E-001	1.00739E-004	0.00000E+000	5.37764E-005	5.99601E-002	5.34016E-001	3.57880E+000	9	...........
	30	0.413333	5.45983E-001	1.00265E-004	0.00000E+000	5.47428E-005	5.99601E-002	5.46251E-001	3.57880E+000	9	...........
	31	0.426667	5.58095E-001	1.00610E-004	0.00000E+000	5.61502E-005	5.99601E-002	5.58372E-001	3.57880E+000	9	...........
	32	0.44	5.70031E-001	1.00796E-004	0.00000E+000	5.74568E-005	5.99601E-002	5.70280E-001	3.57880E+000	9	...........
	33	0.453333	5.81686E-001	1.00833E-004	0.00000E+000	5.86534E-005	5.99601E-002	5.81991E-001	3.57880E+000	9	...........
	34	0.466667	5.93157E-001	1.00396E-004	0.00000E+000	5.95505E-005	5.99601E-002	5.93453E-001	3.57880E+000	9	...........
	35	0.48	6.04379E-001	1.00704E-004	0.00000E+000	6.08635E-005	5.99601E-002	6.04692E-001	3.57880E+000	9	...........
	36	0.493333	6.15415E-001	1.00702E-004	0.00000E+000	6.19736E-005	5.99601E-002	6.15723E-001	3.57880E+000	9	...........
	37	0.506667	6.26244E-001	1.01111E-004	0.00000E+000	6.33199E-005	5.99601E-002	6.26508E-001	3.57880E+000	9	...........
	38	0.52	6.36793E-001	1.00653E-004	0.00000E+000	6.40952E-005	5.99601E-002	6.37089E-001	3.57880E+000	9	...........
	39	0.533333	6.47213E-001	1.01463E-004	0.00000E+000	6.56680E-005	5.99601E-002	6.47474E-001	3.57880E+000	9	...........
	40	0.546667	6.57366E-001	1.00306E-004	0.00000E+000	6.59379E-005	5.99601E-002	6.57619E-001	3.57880E+000	9	...........
	41	0.56	6.67333E-001	1.01343E-004	0.00000E+000	6.76295E-005	5.99601E-002	6.67612E-001	3.57880E+000	9	...........
	42	0.573333	6.77090E-001	1.00303E-004	0.00000E+000	6.79143E-005	5.99601E-002	6.77389E-001	3.57880E+000	9	...........
	43	0.586667	6.86658E-001	1.00535E-004	0.00000E+000	6.90334E-005	5.99601E-002	6.86942E-001	3.57880E+000	9	...........
	44	0.6	6.96044E-001	1.00568E-004	0.00000E+000	6.99996E-005	5.99601E-002	6.96327E-001	3.57880E+000	9	...........
	45	0.613333	7.05226E-001	1.00980E-004	0.00000E+000	7.12139E-005	5.99601E-002	7.05507E-001	3.57880E+000	9	...........
	46	0.626667	7.14235E-001	1.00078E-004	0.00000E+000	7.14793E-005	5.99601E-002	7.14504E-001	3.57880E+000	9	...........
	47	0.64	7.23121E-001	1.01187E-004	0.00000E+000	7.31702E-005	5.99601E-002	7.23360E-001	3.57880E+000	9	...........
	48	0.653333	7.31778E-001	1.00614E-004	0.00000E+000	7.36268E-005	5.99601E-002	7.32019E-001	3.57880E+000	9	...........
	49	0.666667	7.40265E-001	1.01971E-004	0.00000E+000	7.54857E-005	5.99601E-002	7.40544E-001	3.57880E+000	9	...........
	50	0.68	7.48631E-001	1.00763E-004	0.00000E+000	7.54340E-005	5.99601E-002	7.48896E-001	3.57880E+000	9	...........
	51	0.693333	7.56827E-001	1.01485E-004	0.00000E+000	7.68063E-005	5.99601E-002	7.57111E-001	3.57880E+000	9	...........
	52	0.706667	7.64850E-001	1.01545E-004	0.00000E+000	7.76668E-005	5.99601E-002	7.65144E-001	3.57880E+000	9	...........
	53	0.72	7.72728E-001	9.97863E-005	0.00000E+000	7.71077E-005	5.99601E-002	7.73036E-001	3.57880E+000	9	...........
	54	0.733333	7.80470E-001	1.01210E-004	0.00000E+000	7.89910E-005	5.99601E-002	7.80764E-001	3.57880E+000	9	...........
	55	0.746667	7.88053E-001	1.01279E-004	0.00000E+000	7.98135E-005	5.99601E-002	7.88335E-001	3.57880E+000	9	...........
	56	0.76	7.95535E-001	1.00508E-004	0.00000E+000	7.99580E-005	5.99601E-002	7.95790E-001	3.57880E+000	9	...........
	57	0.773333	8.02862E-001	1.01252E-004	0.00000E+000	8.12916E-005	5.99601E-002	8.03137E-001	3.57880E+000	9	...........
	58	0.786667	8.10027E-001	1.01455E-004	0.00000E+000	8.21817E-005	5.99601E-002	8.10335E-001	3.57880E+000	9	...........
	59	0.8	8.17088E-001	1.01328E-004	0.00000E+000	8.27942E-005	5.99601E-002	8.17421E-001	3.57908E+000	9	...........
	60	0.813333	8.24042E-001	1.01401E-004	0.00000E+000	8.35589E-005	5.99601E-002	8.24362E-001	3.58010E+000	9	...........
	61	0.826667	8.30865E-001	1.00943E-004	0.00000E+000	8.38698E-005	5.99601E-002	8.31206E-001	3.58010E+000	9	...........
	62	0.84	8.37545E-001	1.00047E-004	0.00000E+000	8.37937E-005	5.99601E-002	8.37902E-001	3.58010E+000	9	...........
	63	0.853333	8.44133E-001	1.01242E-004	0.00000E+000	8.54616E-005	5.99601E-002	8.44506E-001	3.58010E+000	9	...........
	64	0.866667	8.50626E-001	1.00774E-004	0.00000E+000	8.57210E-005	5.99601E-002	8.50993E-001	3.58010E+000	9	...........
	65	0.88	8.56967E-001	1.01092E-004	0.00000E+000	8.66323E-005	5.99601E-002	8.57361E-001	3.58010E+000	9	...........
	66	0.893333	8.63227E-001	1.00780E-004	0.00000E+000	8.69962E-005	5.99601E-002	8.63597E-001	3.58010E+000	9	...........
	67	0.906667	8.69405E-001	1.00619E-004	0.00000E+000	8.74785E-005	5.99601E-002	8.69766E-001	3.58010E+000	9	...........
	68	0.92	8.75445E-001	1.00776E-004	0.00000E+000	8.82240E-005	5.99601E-002	8.75811E-001	3.58010E+000	9	...........
	69	0.933333	8.81371E-001	1.01580E-004	0.00000E+000	8.95301E-005	5.99601E-002	8.81752E-001	3.58010E+000	9	...........
	70	0.946667	8.87222E-001	1.00420E-004	0.00000E+000	8.90946E-005	5.99601E-002	8.87582E-001	3.58010E+000	9	...........
	71	0.96	8.92953E-001	9.98822E-005	0.00000E+000	8.91901E-005	5.99601E-002	8.93327E-001	3.58010E+000	9	...........
	72	0.97333	8.98587E-001	1.00950E-004	0.00000E+000	9.07125E-005	5.99601E-002	8.98972E-001	3.58010E+000	9	...........
	73	0.98667	9.04126E-001	1.00932E-004	0.00000E+000	9.12556E-005	5.99601E-002	9.04489E-001	3.58010E+000	9	...........
	74	1	9.09576E-001	1.00779E-004	0.00000E+000	9.16664E-005	5.99601E-002	9.09935E-001	3.58010E+000	9	...........
	75	1.01333	9.14918E-001	1.01028E-004	0.00000E+000	9.24326E-005	5.99601E-002	9.15302E-001	3.58010E+000	9	...........
	76	1.02667	9.20210E-001	1.00980E-004	0.00000E+000	9.29231E-005	5.99601E-002	9.20574E-001	3.58010E+000	9	...........
	77	1.04	9.25411E-001	1.01406E-004	0.00000E+000	9.38427E-005	5.99601E-002	9.25723E-001	3.58010E+000	9	...........
	78	1.05333	9.30465E-001	1.01091E-004	0.00000E+000	9.40615E-005	5.99601E-002	9.30775E-001	3.58010E+000	9	...........
	79	1.06667	9.35427E-001	1.00818E-004	0.00000E+000	9.43077E-005	5.99601E-002	9.35775E-001	3.58010E+000	9	...........
	80	1.08	9.40299E-001	1.00639E-004	0.00000E+000	9.46304E-005	5.99601E-002	9.40649E-001	3.58010E+000	9	...........
	81	1.09333	9.45104E-001	1.00717E-004	0.00000E+000	9.51878E-005	5.99601E-002	9.45435E-001	3.58010E+000	9	...........
	82	1.10667	9.49843E-001	1.00692E-004	0.00000E+000	9.56413E-005	5.99601E-002	9.50186E-001	3.58010E+000	9	...........
	83	1.12	9.54463E-001	1.00510E-004	0.00000E+000	9.59335E-005	5.99601E-002	9.54800E-001	3.58010E+000	9	...........
	84	1.13333	9.58972E-001	1.00026E-004	0.00000E+000	9.59221E-005	5.99601E-002	9.59376E-001	3.58010E+000	9	...........
	85	1.14667	9.63436E-001	1.01494E-004	0.00000E+000	9.77830E-005	5.99601E-002	9.63826E-001	3.58010E+000	9	...........
	86	1.16	9.67788E-001	1.00918E-004	0.00000E+000	9.76670E-005	5.99601E-002	9.68210E-001	3.58010E+000	9	...........
	87	1.17333	9.72083E-001	1.00369E-004	0.00000E+000	9.75668E-005	5.99601E-002	9.72485E-001	3.58010E+000	9	...........
	88	1.18667	9.76301E-001	1.01209E-004	0.00000E+000	9.88100E-005	5.99601E-002	9.76685E-001	3.58010E+000	9	...........
	89	1.2	9.80411E-001	1.00787E-004	0.00000E+000	9.88123E-005	5.99601E-002	9.80791E-001	3.58010E+000	9	...........
	90	1.21333	9.84424E-001	1.01351E-004	0.00000E+000	9.97726E-005	5.99601E-002	9.84821E-001	3.58010E+000	9	...........
	91	1.22667	9.88387E-001	1.01589E-004	0.00000E+000	1.00409E-004	5.99601E-002	9.88757E-001	3.58010E+000	9	...........
	92	1.24	9.92223E-001	1.01354E-004	0.00000E+000	1.00566E-004	5.99601E-002	9.92627E-001	3.58010E+000	9	...........
	93	1.25333	9.96030E-001	1.00951E-004	0.00000E+000	1.00550E-004	5.99601E-002	9.96407E-001	3.58010E+000	9	...........
	94	1.26333	9.99277E-001	1.01537E-004	0.00000E+000	1.01464E-004	5.99601E-002	9.99694E-001	3.58010E+000	9	...........
STARTTIMEOFFSET	QUANT	649.3192	Start Time Offset (s)
