EXPLAIN
TAG	PWR800_CHARGE
TITLE	LABEL	PWR Cyclic Charge Discharge (Cell) - Charge Step	Test &Identifier
DATE	LABEL	13-7-2017	Date
TIME	LABEL	15:13:50	Time
NOTES	NOTES	2	&Notes...
	supercap test cell
	6M KOH
PSTAT	PSTAT	IFC5000-01520	Potentiostat
CAPACITY	QUANT	1.00000E-003	Capacity (A-hr)
CELLTYPE	SELECTOR	1	&Cell Type
WORKINGCONNECTION	SELECTOR	0	&Working Lead
MAXCHARGETIME	VARIABLEANDUNITS	1.00000E+002	s	1.00000E+002	second(s)	Max &Charge Time
CHARGECURRENT	QUANT	1.00000E-004	&Charge Current (A) 
VOLTAGEFINISH	TWOPARAM	F	1.00000E-003	3.60000E+003	&Voltage Finish	 I (A) < 	Max Time(s)
SAMPLETIME	QUANT	1.00000E-002	Sa&mple Period (s)
CHARGESTOPAT1	MULTIPARAM	4	1.00000E+000	Charge Stop At &1	Voltage > Limit	V
CHARGESTOPAT2	MULTIPARAM	0	0.00000E+000	Charge Stop At &2	None	N/A
AESBHCSELECTOR	TOGGLE	F	Save Both Half Cells
IRCOMP	TOGGLE	F	IR &Measure
EOC	QUANT	0	Open Circuit (V)
SEQUENCER	TOGGLE	TRUE	Run as Sequence
PSTATMODEL	IQUANT	53	Pstat Model
PSTATSECTION	LABEL	IFC5000-01520	Pstat Section
PSTATSERIALNO	LABEL	01520	Pstat Serial Number
CTRLMODE	IQUANT	0	Control Mode
ELECTROMETER	IQUANT	1	RE=0 or CS=1
IESTAB	IQUANT	0	I/E Stability
CASPEED	IQUANT	4	Control Amp Speed
CONVENTION	IQUANT	1	Current Convention
ICHRANGE	IQUANT	2	Ich Range
ICHRANGEMODE	TOGGLE	T	Ich Auto Range
ICHOFFSETENABLE	TOGGLE	F	Ich Offset Enable
ICHOFFSET	QUANT	0	Ich Offset (V)
ICHFILTER	IQUANT	1	Ich Filter
VCHRANGE	IQUANT	2	Vch Range
VCHRANGEMODE	TOGGLE	T	Vch Auto Range
VCHOFFSETENABLE	TOGGLE	F	Vch Offset Enable
VCHOFFSET	QUANT	0	Vch Offset (V)
VCHFILTER	IQUANT	1	Vch Filter
IERANGELOWERLIMIT	IQUANT	9	I/E Range Lower Limit
IERANGEMODE	TOGGLE	F	I/E AutoRange
IERANGE	IQUANT	9	I/E Range
ACHSELECT	IQUANT	1	Ach Select
ACHRANGE	IQUANT	2	Ach Range
ACHOFFSETENABLE	TOGGLE	F	Ach Offset Enable
ACHOFFSET	QUANT	0	Ach Offset (V)
ACHFILTER	IQUANT	1	Ach Filter
CABLEID	IQUANT	14	Cable ID
DCCALDATE	LABEL	5-7-2017	DC Calibration Date
ACCALDATE	LABEL	12/3/2015	AC Calibration Date
FRAMEWORKVERSION	QUANT	7.01	Framework Version
INSTRUMENTVERSION	LABEL	4.00	Instrument Version
CURVE	TABLE	96
	Pt	T	Vf	Im	Vu	Pwr	Sig	Ach	Temp	IERange	Over
	#	s	V	A	V	W	V	V	deg C	#	bits
	0	0.013333	1.31960E-001	1.01124E-004	0.00000E+000	1.33444E-005	5.99601E-002	1.32003E-001	3.57890E+000	9	...........
	1	0.026667	1.47169E-001	1.01215E-004	0.00000E+000	1.48957E-005	5.99601E-002	1.47193E-001	3.57890E+000	9	...........
	2	0.04	1.61935E-001	1.00918E-004	0.00000E+000	1.63421E-005	5.99601E-002	1.61959E-001	3.57890E+000	9	...........
	3	0.053333	1.76434E-001	1.00871E-004	0.00000E+000	1.77970E-005	5.99601E-002	1.76462E-001	3.57890E+000	9	...........
	4	0.066667	1.90737E-001	1.00837E-004	0.00000E+000	1.92333E-005	5.99601E-002	1.90767E-001	3.57890E+000	9	...........
	5	0.08	2.04899E-001	1.00633E-004	0.00000E+000	2.06196E-005	5.99601E-002	2.04937E-001	3.57890E+000	9	...........
	6	0.093333	2.18955E-001	1.00634E-004	0.00000E+000	2.20344E-005	5.99601E-002	2.18997E-001	3.57890E+000	9	...........
	7	0.106667	2.32938E-001	1.00683E-004	0.00000E+000	2.34530E-005	5.99601E-002	2.32978E-001	3.57890E+000	9	...........
	8	0.12	2.46865E-001	1.00740E-004	0.00000E+000	2.48691E-005	5.99601E-002	2.46913E-001	3.57890E+000	9	...........
	9	0.133333	2.60754E-001	1.00694E-004	0.00000E+000	2.62563E-005	5.99601E-002	2.60802E-001	3.57890E+000	9	...........
	10	0.146667	2.74628E-001	1.02138E-004	0.00000E+000	2.80499E-005	5.99601E-002	2.74680E-001	3.57890E+000	9	...........
	11	0.16	2.88489E-001	1.01645E-004	0.00000E+000	2.93235E-005	5.99601E-002	2.88542E-001	3.57890E+000	9	...........
	12	0.173333	3.02346E-001	9.97613E-005	0.00000E+000	3.01624E-005	5.99601E-002	3.02402E-001	3.57890E+000	9	...........
	13	0.186667	3.16205E-001	1.01268E-004	0.00000E+000	3.20214E-005	5.99601E-002	3.16267E-001	3.57890E+000	9	...........
	14	0.2	3.30068E-001	1.00831E-004	0.00000E+000	3.32812E-005	5.99601E-002	3.30124E-001	3.57890E+000	9	...........
	15	0.213333	3.43934E-001	9.98270E-005	0.00000E+000	3.43339E-005	5.99601E-002	3.43998E-001	3.57890E+000	9	...........
	16	0.226667	3.57808E-001	1.00305E-004	0.00000E+000	3.58900E-005	5.99601E-002	3.57876E-001	3.57890E+000	9	...........
	17	0.24	3.71667E-001	1.00757E-004	0.00000E+000	3.74482E-005	5.99601E-002	3.71739E-001	3.57890E+000	9	...........
	18	0.253333	3.85509E-001	1.01181E-004	0.00000E+000	3.90064E-005	5.99601E-002	3.85577E-001	3.57890E+000	9	...........
	19	0.266667	3.99314E-001	1.00861E-004	0.00000E+000	4.02751E-005	5.99601E-002	3.99390E-001	3.57890E+000	9	...........
	20	0.28	4.13076E-001	1.00983E-004	0.00000E+000	4.17139E-005	5.99601E-002	4.13154E-001	3.57890E+000	9	...........
	21	0.293333	4.26771E-001	1.01789E-004	0.00000E+000	4.34405E-005	5.99601E-002	4.26859E-001	3.57890E+000	9	...........
	22	0.306667	4.40381E-001	1.01141E-004	0.00000E+000	4.45405E-005	5.99601E-002	4.40473E-001	3.57890E+000	9	...........
	23	0.32	4.53892E-001	1.00100E-004	0.00000E+000	4.54346E-005	5.99601E-002	4.53983E-001	3.57890E+000	9	...........
	24	0.333333	4.67270E-001	1.01604E-004	0.00000E+000	4.74767E-005	5.99601E-002	4.67363E-001	3.57890E+000	9	...........
	25	0.346667	4.80507E-001	1.01120E-004	0.00000E+000	4.85889E-005	5.99601E-002	4.80596E-001	3.57890E+000	9	...........
	26	0.36	4.93580E-001	1.01286E-004	0.00000E+000	4.99925E-005	5.99601E-002	4.93682E-001	3.57890E+000	9	...........
	27	0.373333	5.06483E-001	1.00523E-004	0.00000E+000	5.09132E-005	5.99601E-002	5.06585E-001	3.57890E+000	9	...........
	28	0.386667	5.19197E-001	1.01338E-004	0.00000E+000	5.26142E-005	5.99601E-002	5.19307E-001	3.57890E+000	9	...........
	29	0.4	5.31613E-001	9.97228E-005	0.00000E+000	5.30140E-005	5.99601E-002	5.31719E-001	3.57890E+000	9	...........
	30	0.413333	5.43655E-001	1.01146E-004	0.00000E+000	5.49885E-005	5.99601E-002	5.43909E-001	3.57890E+000	9	...........
	31	0.426667	5.55734E-001	1.00422E-004	0.00000E+000	5.58079E-005	5.99601E-002	5.55991E-001	3.57890E+000	9	...........
	32	0.44	5.67625E-001	1.02335E-004	0.00000E+000	5.80878E-005	5.99601E-002	5.67885E-001	3.57890E+000	9	...........
	33	0.453333	5.79264E-001	1.01203E-004	0.00000E+000	5.86235E-005	5.99601E-002	5.79516E-001	3.57890E+000	9	...........
	34	0.466667	5.90703E-001	1.01051E-004	0.00000E+000	5.96913E-005	5.99601E-002	5.90943E-001	3.57890E+000	9	...........
	35	0.48	6.01889E-001	1.00704E-004	0.00000E+000	6.06128E-005	5.99601E-002	6.02145E-001	3.57890E+000	9	...........
	36	0.493333	6.12869E-001	1.00214E-004	0.00000E+000	6.14178E-005	5.99601E-002	6.13121E-001	3.57890E+000	9	...........
	37	0.506667	6.23683E-001	1.00808E-004	0.00000E+000	6.28725E-005	5.99601E-002	6.23908E-001	3.57890E+000	9	...........
	38	0.52	6.34205E-001	1.00743E-004	0.00000E+000	6.38915E-005	5.99601E-002	6.34468E-001	3.57890E+000	9	...........
	39	0.533333	6.44568E-001	1.01864E-004	0.00000E+000	6.56582E-005	5.99601E-002	6.44826E-001	3.57890E+000	9	...........
	40	0.546667	6.54701E-001	1.00896E-004	0.00000E+000	6.60567E-005	5.99601E-002	6.54947E-001	3.57890E+000	9	...........
	41	0.56	6.64645E-001	1.01222E-004	0.00000E+000	6.72767E-005	5.99601E-002	6.64920E-001	3.57890E+000	9	...........
	42	0.573333	6.74383E-001	1.01568E-004	0.00000E+000	6.84957E-005	5.99601E-002	6.74662E-001	3.57890E+000	9	...........
	43	0.586667	6.83905E-001	9.99770E-005	0.00000E+000	6.83748E-005	5.99601E-002	6.84178E-001	3.57890E+000	9	...........
	44	0.6	6.93245E-001	1.00922E-004	0.00000E+000	6.99637E-005	5.99601E-002	6.93532E-001	3.57890E+000	9	...........
	45	0.613333	7.02397E-001	1.00347E-004	0.00000E+000	7.04834E-005	5.99601E-002	7.02705E-001	3.57890E+000	9	...........
	46	0.626667	7.11384E-001	1.00336E-004	0.00000E+000	7.13778E-005	5.99601E-002	7.11700E-001	3.57890E+000	9	...........
	47	0.64	7.20243E-001	1.00847E-004	0.00000E+000	7.26343E-005	5.99601E-002	7.20534E-001	3.57890E+000	9	...........
	48	0.653333	7.28867E-001	1.00143E-004	0.00000E+000	7.29907E-005	5.99601E-002	7.29180E-001	3.57890E+000	9	...........
	49	0.666667	7.37345E-001	1.01825E-004	0.00000E+000	7.50804E-005	5.99601E-002	7.37646E-001	3.57890E+000	9	...........
	50	0.68	7.45698E-001	1.00589E-004	0.00000E+000	7.50087E-005	5.99601E-002	7.45981E-001	3.57890E+000	9	...........
	51	0.693333	7.53849E-001	1.01002E-004	0.00000E+000	7.61404E-005	5.99601E-002	7.54145E-001	3.57890E+000	9	...........
	52	0.706667	7.61850E-001	1.00220E-004	0.00000E+000	7.63525E-005	5.99601E-002	7.62132E-001	3.57890E+000	9	...........
	53	0.72	7.69716E-001	1.00370E-004	0.00000E+000	7.72562E-005	5.99601E-002	7.70025E-001	3.57890E+000	9	...........
	54	0.733333	7.77419E-001	1.01274E-004	0.00000E+000	7.87324E-005	5.99601E-002	7.77731E-001	3.57890E+000	9	...........
	55	0.746667	7.84993E-001	1.00118E-004	0.00000E+000	7.85916E-005	5.99601E-002	7.85294E-001	3.57890E+000	9	...........
	56	0.76	7.92444E-001	1.00078E-004	0.00000E+000	7.93063E-005	5.99601E-002	7.92751E-001	3.57890E+000	9	...........
	57	0.773333	7.99749E-001	1.00254E-004	0.00000E+000	8.01782E-005	5.99601E-002	8.00045E-001	3.57890E+000	9	...........
	58	0.786667	8.06920E-001	1.00389E-004	0.00000E+000	8.10055E-005	5.99601E-002	8.07240E-001	3.57890E+000	9	...........
	59	0.8	8.13938E-001	1.00174E-004	0.00000E+000	8.15354E-005	5.99601E-002	8.14280E-001	3.57890E+000	9	...........
	60	0.813333	8.20872E-001	1.01685E-004	0.00000E+000	8.34701E-005	5.99601E-002	8.21220E-001	3.57890E+000	9	...........
	61	0.826667	8.27666E-001	1.00983E-004	0.00000E+000	8.35806E-005	5.99601E-002	8.28031E-001	3.57890E+000	9	...........
	62	0.84	8.34330E-001	1.01136E-004	0.00000E+000	8.43804E-005	5.99601E-002	8.34715E-001	3.57890E+000	9	...........
	63	0.853333	8.40903E-001	1.00851E-004	0.00000E+000	8.48061E-005	5.99601E-002	8.41287E-001	3.57890E+000	9	...........
	64	0.866667	8.47396E-001	1.00862E-004	0.00000E+000	8.54697E-005	5.99601E-002	8.47753E-001	3.57950E+000	9	...........
	65	0.88	8.53742E-001	1.00132E-004	0.00000E+000	8.54871E-005	5.99601E-002	8.54094E-001	3.58010E+000	9	...........
	66	0.893333	8.59967E-001	1.01069E-004	0.00000E+000	8.69159E-005	5.99601E-002	8.60349E-001	3.58010E+000	9	...........
	67	0.906667	8.66110E-001	1.00844E-004	0.00000E+000	8.73419E-005	5.99601E-002	8.66494E-001	3.58010E+000	9	...........
	68	0.92	8.72170E-001	1.00327E-004	0.00000E+000	8.75023E-005	5.99601E-002	8.72536E-001	3.58010E+000	9	...........
	69	0.933333	8.78102E-001	1.00629E-004	0.00000E+000	8.83627E-005	5.99601E-002	8.78464E-001	3.58010E+000	9	...........
	70	0.946667	8.83929E-001	1.00265E-004	0.00000E+000	8.86268E-005	5.99601E-002	8.84284E-001	3.58010E+000	9	...........
	71	0.96	8.89666E-001	1.00436E-004	0.00000E+000	8.93550E-005	5.99601E-002	8.90006E-001	3.58010E+000	9	...........
	72	0.97333	8.95277E-001	1.00592E-004	0.00000E+000	9.00575E-005	5.99601E-002	8.95649E-001	3.58010E+000	9	...........
	73	0.98667	9.00806E-001	1.01144E-004	0.00000E+000	9.11110E-005	5.99601E-002	9.01194E-001	3.58010E+000	9	...........
	74	1	9.06234E-001	1.01568E-004	0.00000E+000	9.20443E-005	5.99601E-002	9.06644E-001	3.58010E+000	9	...........
	75	1.01333	9.11588E-001	1.00838E-004	0.00000E+000	9.19224E-005	5.99601E-002	9.11947E-001	3.58010E+000	9	...........
	76	1.02667	9.16839E-001	1.01325E-004	0.00000E+000	9.28989E-005	5.99601E-002	9.17222E-001	3.58010E+000	9	...........
	77	1.04	9.22062E-001	1.00728E-004	0.00000E+000	9.28777E-005	5.99601E-002	9.22397E-001	3.58010E+000	9	...........
	78	1.05333	9.27123E-001	1.00085E-004	0.00000E+000	9.27914E-005	5.99601E-002	9.27467E-001	3.58010E+000	9	...........
	79	1.06667	9.32078E-001	1.00543E-004	0.00000E+000	9.37137E-005	5.99601E-002	9.32433E-001	3.58010E+000	9	...........
	80	1.08	9.36966E-001	1.00647E-004	0.00000E+000	9.43028E-005	5.99601E-002	9.37335E-001	3.58010E+000	9	...........
	81	1.09333	9.41758E-001	1.01386E-004	0.00000E+000	9.54808E-005	5.99601E-002	9.42116E-001	3.58010E+000	9	...........
	82	1.10667	9.46466E-001	1.01963E-004	0.00000E+000	9.65044E-005	5.99601E-002	9.46843E-001	3.58010E+000	9	...........
	83	1.12	9.51095E-001	1.00380E-004	0.00000E+000	9.54712E-005	5.99601E-002	9.51471E-001	3.58010E+000	9	...........
	84	1.13333	9.55640E-001	1.00140E-004	0.00000E+000	9.56973E-005	5.99601E-002	9.56005E-001	3.58010E+000	9	...........
	85	1.14667	9.60098E-001	1.00235E-004	0.00000E+000	9.62358E-005	5.99601E-002	9.60468E-001	3.58010E+000	9	...........
	86	1.16	9.64437E-001	1.00836E-004	0.00000E+000	9.72495E-005	5.99601E-002	9.64846E-001	3.58010E+000	9	...........
	87	1.17333	9.68723E-001	1.00591E-004	0.00000E+000	9.74445E-005	5.99601E-002	9.69134E-001	3.58010E+000	9	...........
	88	1.18667	9.72961E-001	1.00733E-004	0.00000E+000	9.80097E-005	5.99601E-002	9.73360E-001	3.58010E+000	9	...........
	89	1.2	9.77084E-001	9.99437E-005	0.00000E+000	9.76533E-005	5.99601E-002	9.77495E-001	3.58010E+000	9	...........
	90	1.21333	9.81118E-001	1.01324E-004	0.00000E+000	9.94109E-005	5.99601E-002	9.81530E-001	3.58010E+000	9	...........
	91	1.22667	9.85079E-001	1.00530E-004	0.00000E+000	9.90303E-005	5.99601E-002	9.85470E-001	3.58010E+000	9	...........
	92	1.24	9.88976E-001	1.00522E-004	0.00000E+000	9.94137E-005	5.99601E-002	9.89346E-001	3.58010E+000	9	...........
	93	1.25333	9.92742E-001	1.01049E-004	0.00000E+000	1.00316E-004	5.99601E-002	9.93144E-001	3.58010E+000	9	...........
	94	1.26667	9.96485E-001	1.00682E-004	0.00000E+000	1.00328E-004	5.99601E-002	9.96856E-001	3.58010E+000	9	...........
	95	1.275	9.99436E-001	1.01068E-004	0.00000E+000	1.01011E-004	5.99601E-002	9.99823E-001	3.58010E+000	9	...........
STARTTIMEOFFSET	QUANT	533.3433	Start Time Offset (s)
