EXPLAIN
TAG	PWR800_CHARGE
TITLE	LABEL	PWR Cyclic Charge Discharge (Cell) - Charge Step	Test &Identifier
DATE	LABEL	13-7-2017	Date
TIME	LABEL	15:30:34	Time
NOTES	NOTES	2	&Notes...
	supercap test cell
	6M KOH
PSTAT	PSTAT	IFC5000-01520	Potentiostat
CAPACITY	QUANT	1.00000E-003	Capacity (A-hr)
CELLTYPE	SELECTOR	1	&Cell Type
WORKINGCONNECTION	SELECTOR	0	&Working Lead
MAXCHARGETIME	VARIABLEANDUNITS	1.00000E+002	s	1.00000E+002	second(s)	Max &Charge Time
CHARGECURRENT	QUANT	1.00000E-004	&Charge Current (A) 
VOLTAGEFINISH	TWOPARAM	F	1.00000E-003	3.60000E+003	&Voltage Finish	 I (A) < 	Max Time(s)
SAMPLETIME	QUANT	1.00000E-002	Sa&mple Period (s)
CHARGESTOPAT1	MULTIPARAM	4	1.00000E+000	Charge Stop At &1	Voltage > Limit	V
CHARGESTOPAT2	MULTIPARAM	0	0.00000E+000	Charge Stop At &2	None	N/A
AESBHCSELECTOR	TOGGLE	F	Save Both Half Cells
IRCOMP	TOGGLE	F	IR &Measure
EOC	QUANT	0	Open Circuit (V)
SEQUENCER	TOGGLE	TRUE	Run as Sequence
PSTATMODEL	IQUANT	53	Pstat Model
PSTATSECTION	LABEL	IFC5000-01520	Pstat Section
PSTATSERIALNO	LABEL	01520	Pstat Serial Number
CTRLMODE	IQUANT	0	Control Mode
ELECTROMETER	IQUANT	1	RE=0 or CS=1
IESTAB	IQUANT	0	I/E Stability
CASPEED	IQUANT	4	Control Amp Speed
CONVENTION	IQUANT	1	Current Convention
ICHRANGE	IQUANT	2	Ich Range
ICHRANGEMODE	TOGGLE	T	Ich Auto Range
ICHOFFSETENABLE	TOGGLE	F	Ich Offset Enable
ICHOFFSET	QUANT	0	Ich Offset (V)
ICHFILTER	IQUANT	1	Ich Filter
VCHRANGE	IQUANT	2	Vch Range
VCHRANGEMODE	TOGGLE	T	Vch Auto Range
VCHOFFSETENABLE	TOGGLE	F	Vch Offset Enable
VCHOFFSET	QUANT	0	Vch Offset (V)
VCHFILTER	IQUANT	1	Vch Filter
IERANGELOWERLIMIT	IQUANT	9	I/E Range Lower Limit
IERANGEMODE	TOGGLE	F	I/E AutoRange
IERANGE	IQUANT	9	I/E Range
ACHSELECT	IQUANT	1	Ach Select
ACHRANGE	IQUANT	2	Ach Range
ACHOFFSETENABLE	TOGGLE	F	Ach Offset Enable
ACHOFFSET	QUANT	0	Ach Offset (V)
ACHFILTER	IQUANT	1	Ach Filter
CABLEID	IQUANT	14	Cable ID
DCCALDATE	LABEL	5-7-2017	DC Calibration Date
ACCALDATE	LABEL	12/3/2015	AC Calibration Date
FRAMEWORKVERSION	QUANT	7.01	Framework Version
INSTRUMENTVERSION	LABEL	4.00	Instrument Version
CURVE	TABLE	92
	Pt	T	Vf	Im	Vu	Pwr	Sig	Ach	Temp	IERange	Over
	#	s	V	A	V	W	V	V	deg C	#	bits
	0	0.013333	1.33249E-001	1.00674E-004	0.00000E+000	1.34147E-005	5.99601E-002	1.33301E-001	3.58000E+000	9	...........
	1	0.026667	1.48537E-001	1.00467E-004	0.00000E+000	1.49230E-005	5.99601E-002	1.48558E-001	3.58000E+000	9	...........
	2	0.04	1.63374E-001	1.00237E-004	0.00000E+000	1.63762E-005	5.99601E-002	1.63401E-001	3.58000E+000	9	...........
	3	0.053333	1.77945E-001	1.00773E-004	0.00000E+000	1.79320E-005	5.99601E-002	1.77973E-001	3.58000E+000	9	...........
	4	0.066667	1.92318E-001	1.00312E-004	0.00000E+000	1.92919E-005	5.99601E-002	1.92352E-001	3.58000E+000	9	...........
	5	0.08	2.06555E-001	1.00799E-004	0.00000E+000	2.08206E-005	5.99601E-002	2.06591E-001	3.58000E+000	9	...........
	6	0.093333	2.20684E-001	1.00593E-004	0.00000E+000	2.21992E-005	5.99601E-002	2.20720E-001	3.58000E+000	9	...........
	7	0.106667	2.34742E-001	1.00681E-004	0.00000E+000	2.36342E-005	5.99601E-002	2.34781E-001	3.58000E+000	9	...........
	8	0.12	2.48747E-001	9.98249E-005	0.00000E+000	2.48311E-005	5.99601E-002	2.48796E-001	3.58000E+000	9	...........
	9	0.133333	2.62729E-001	1.00972E-004	0.00000E+000	2.65283E-005	5.99601E-002	2.62778E-001	3.58000E+000	9	...........
	10	0.146667	2.76701E-001	1.00250E-004	0.00000E+000	2.77393E-005	5.99601E-002	2.76750E-001	3.58000E+000	9	...........
	11	0.16	2.90665E-001	1.00972E-004	0.00000E+000	2.93490E-005	5.99601E-002	2.90723E-001	3.58000E+000	9	...........
	12	0.173333	3.04642E-001	1.00670E-004	0.00000E+000	3.06683E-005	5.99601E-002	3.04706E-001	3.58000E+000	9	...........
	13	0.186667	3.18636E-001	1.01128E-004	0.00000E+000	3.22232E-005	5.99601E-002	3.18701E-001	3.58000E+000	9	...........
	14	0.2	3.32645E-001	1.00853E-004	0.00000E+000	3.35483E-005	5.99601E-002	3.32708E-001	3.58000E+000	9	...........
	15	0.213333	3.46679E-001	1.00511E-004	0.00000E+000	3.48453E-005	5.99601E-002	3.46746E-001	3.58000E+000	9	...........
	16	0.226667	3.60725E-001	1.00427E-004	0.00000E+000	3.62265E-005	5.99601E-002	3.60797E-001	3.58000E+000	9	...........
	17	0.24	3.74784E-001	9.96655E-005	0.00000E+000	3.73531E-005	5.99601E-002	3.74853E-001	3.57986E+000	9	...........
	18	0.253333	3.88842E-001	1.01110E-004	0.00000E+000	3.93157E-005	5.99601E-002	3.88914E-001	3.57890E+000	9	...........
	19	0.266667	4.02884E-001	1.00986E-004	0.00000E+000	4.06854E-005	5.99601E-002	4.02957E-001	3.57890E+000	9	...........
	20	0.28	4.16889E-001	1.00028E-004	0.00000E+000	4.17006E-005	5.99601E-002	4.16972E-001	3.57890E+000	9	...........
	21	0.293333	4.30852E-001	1.00944E-004	0.00000E+000	4.34919E-005	5.99601E-002	4.30940E-001	3.57890E+000	9	...........
	22	0.306667	4.44739E-001	1.00943E-004	0.00000E+000	4.48933E-005	5.99601E-002	4.44827E-001	3.57890E+000	9	...........
	23	0.32	4.58535E-001	1.00766E-004	0.00000E+000	4.62046E-005	5.99601E-002	4.58629E-001	3.57890E+000	9	...........
	24	0.333333	4.72215E-001	1.00461E-004	0.00000E+000	4.74394E-005	5.99601E-002	4.72308E-001	3.57890E+000	9	...........
	25	0.346667	4.85763E-001	1.00831E-004	0.00000E+000	4.89801E-005	5.99601E-002	4.85862E-001	3.57890E+000	9	...........
	26	0.36	4.99160E-001	1.00235E-004	0.00000E+000	5.00335E-005	5.99601E-002	4.99266E-001	3.57890E+000	9	...........
	27	0.373333	5.12385E-001	1.00687E-004	0.00000E+000	5.15903E-005	5.99601E-002	5.12492E-001	3.57890E+000	9	...........
	28	0.386667	5.25424E-001	1.00496E-004	0.00000E+000	5.28029E-005	5.99601E-002	5.25536E-001	3.57890E+000	9	...........
	29	0.4	5.38000E-001	1.00200E-004	0.00000E+000	5.39076E-005	5.99601E-002	5.38196E-001	3.57890E+000	9	...........
	30	0.413333	5.50534E-001	1.02052E-004	0.00000E+000	5.61833E-005	5.99601E-002	5.50800E-001	3.57890E+000	9	...........
	31	0.426667	5.62938E-001	1.00827E-004	0.00000E+000	5.67595E-005	5.99601E-002	5.63210E-001	3.57890E+000	9	...........
	32	0.44	5.75123E-001	1.00134E-004	0.00000E+000	5.75895E-005	5.99601E-002	5.75371E-001	3.57890E+000	9	...........
	33	0.453333	5.87063E-001	1.00582E-004	0.00000E+000	5.90482E-005	5.99601E-002	5.87332E-001	3.57890E+000	9	...........
	34	0.466667	5.98794E-001	1.01444E-004	0.00000E+000	6.07440E-005	5.99601E-002	5.99047E-001	3.57890E+000	9	...........
	35	0.48	6.10286E-001	9.98655E-005	0.00000E+000	6.09465E-005	5.99601E-002	6.10553E-001	3.57890E+000	9	...........
	36	0.493333	6.21601E-001	1.02059E-004	0.00000E+000	6.34398E-005	5.99601E-002	6.21822E-001	3.57890E+000	9	...........
	37	0.506667	6.32620E-001	1.00680E-004	0.00000E+000	6.36924E-005	5.99601E-002	6.32889E-001	3.57890E+000	9	...........
	38	0.52	6.43473E-001	1.00202E-004	0.00000E+000	6.44773E-005	5.99601E-002	6.43727E-001	3.57890E+000	9	...........
	39	0.533333	6.54091E-001	1.00585E-004	0.00000E+000	6.57920E-005	5.99601E-002	6.54359E-001	3.57890E+000	9	...........
	40	0.546667	6.64498E-001	1.00822E-004	0.00000E+000	6.69960E-005	5.99601E-002	6.64784E-001	3.57890E+000	9	...........
	41	0.56	6.74698E-001	1.01013E-004	0.00000E+000	6.81531E-005	5.99601E-002	6.74938E-001	3.57890E+000	9	...........
	42	0.573333	6.84668E-001	1.00608E-004	0.00000E+000	6.88834E-005	5.99601E-002	6.84912E-001	3.57890E+000	9	...........
	43	0.586667	6.94471E-001	1.00497E-004	0.00000E+000	6.97921E-005	5.99601E-002	6.94702E-001	3.57890E+000	9	...........
	44	0.6	7.04033E-001	1.00713E-004	0.00000E+000	7.09050E-005	5.99601E-002	7.04295E-001	3.57890E+000	9	...........
	45	0.613333	7.13446E-001	1.01360E-004	0.00000E+000	7.23146E-005	5.99601E-002	7.13708E-001	3.57890E+000	9	...........
	46	0.626667	7.22701E-001	1.00219E-004	0.00000E+000	7.24282E-005	5.99601E-002	7.22926E-001	3.57890E+000	9	...........
	47	0.64	7.31724E-001	1.01585E-004	0.00000E+000	7.43320E-005	5.99601E-002	7.31984E-001	3.57890E+000	9	...........
	48	0.653333	7.40581E-001	1.00281E-004	0.00000E+000	7.42664E-005	5.99601E-002	7.40851E-001	3.57890E+000	9	...........
	49	0.666667	7.49267E-001	1.01071E-004	0.00000E+000	7.57292E-005	5.99601E-002	7.49541E-001	3.57890E+000	9	...........
	50	0.68	7.57795E-001	1.01101E-004	0.00000E+000	7.66140E-005	5.99601E-002	7.58090E-001	3.57890E+000	9	...........
	51	0.693333	7.66148E-001	1.00786E-004	0.00000E+000	7.72167E-005	5.99601E-002	7.66434E-001	3.57890E+000	9	...........
	52	0.706667	7.74339E-001	1.00674E-004	0.00000E+000	7.79558E-005	5.99601E-002	7.74641E-001	3.57890E+000	9	...........
	53	0.72	7.82394E-001	1.01495E-004	0.00000E+000	7.94091E-005	5.99601E-002	7.82702E-001	3.57890E+000	9	...........
	54	0.733333	7.90274E-001	1.00363E-004	0.00000E+000	7.93138E-005	5.99601E-002	7.90581E-001	3.57890E+000	9	...........
	55	0.746667	7.98065E-001	1.01010E-004	0.00000E+000	8.06122E-005	5.99601E-002	7.98342E-001	3.57890E+000	9	...........
	56	0.76	8.05613E-001	1.00508E-004	0.00000E+000	8.09708E-005	5.99601E-002	8.05957E-001	3.57890E+000	9	...........
	57	0.773333	8.13084E-001	1.00301E-004	0.00000E+000	8.15532E-005	5.99601E-002	8.13417E-001	3.57890E+000	9	...........
	58	0.786667	8.20441E-001	1.00741E-004	0.00000E+000	8.26518E-005	5.99601E-002	8.20762E-001	3.57890E+000	9	...........
	59	0.8	8.27604E-001	1.01636E-004	0.00000E+000	8.41141E-005	5.99601E-002	8.27945E-001	3.57890E+000	9	...........
	60	0.813333	8.34675E-001	1.01020E-004	0.00000E+000	8.43188E-005	5.99601E-002	8.35026E-001	3.57890E+000	9	...........
	61	0.826667	8.41597E-001	1.00581E-004	0.00000E+000	8.46490E-005	5.99601E-002	8.41958E-001	3.57890E+000	9	...........
	62	0.84	8.48430E-001	1.01020E-004	0.00000E+000	8.57083E-005	5.99601E-002	8.48801E-001	3.57890E+000	9	...........
	63	0.853333	8.55119E-001	1.00992E-004	0.00000E+000	8.63600E-005	5.99601E-002	8.55476E-001	3.57890E+000	9	...........
	64	0.866667	8.61704E-001	1.00596E-004	0.00000E+000	8.66838E-005	5.99601E-002	8.62083E-001	3.57890E+000	9	...........
	65	0.88	8.68162E-001	1.01299E-004	0.00000E+000	8.79441E-005	5.99601E-002	8.68536E-001	3.57890E+000	9	...........
	66	0.893333	8.74548E-001	1.01401E-004	0.00000E+000	8.86803E-005	5.99601E-002	8.74926E-001	3.57890E+000	9	...........
	67	0.906667	8.80793E-001	1.00557E-004	0.00000E+000	8.85702E-005	5.99601E-002	8.81153E-001	3.57890E+000	9	...........
	68	0.92	8.86920E-001	1.01004E-004	0.00000E+000	8.95828E-005	5.99601E-002	8.87289E-001	3.57890E+000	9	...........
	69	0.933333	8.92910E-001	1.01048E-004	0.00000E+000	9.02268E-005	5.99601E-002	8.93301E-001	3.57890E+000	9	...........
	70	0.946667	8.98852E-001	1.00907E-004	0.00000E+000	9.07009E-005	5.99601E-002	8.99244E-001	3.57890E+000	9	...........
	71	0.96	9.04632E-001	1.00370E-004	0.00000E+000	9.07977E-005	5.99601E-002	9.05018E-001	3.57890E+000	9	...........
	72	0.97333	9.10352E-001	1.00521E-004	0.00000E+000	9.15093E-005	5.99601E-002	9.10738E-001	3.57890E+000	9	...........
	73	0.98667	9.15941E-001	1.01479E-004	0.00000E+000	9.29492E-005	5.99601E-002	9.16317E-001	3.57890E+000	9	...........
	74	1	9.21481E-001	1.00474E-004	0.00000E+000	9.25849E-005	5.99601E-002	9.21807E-001	3.57890E+000	9	...........
	75	1.01333	9.26900E-001	1.01347E-004	0.00000E+000	9.39386E-005	5.99601E-002	9.27233E-001	3.57890E+000	9	...........
	76	1.02667	9.32197E-001	1.00599E-004	0.00000E+000	9.37781E-005	5.99601E-002	9.32510E-001	3.57890E+000	9	...........
	77	1.04	9.37387E-001	1.00466E-004	0.00000E+000	9.41752E-005	5.99601E-002	9.37746E-001	3.57890E+000	9	...........
	78	1.05333	9.42474E-001	1.00931E-004	0.00000E+000	9.51251E-005	5.99601E-002	9.42822E-001	3.57890E+000	9	...........
	79	1.06667	9.47495E-001	1.00185E-004	0.00000E+000	9.49252E-005	5.99601E-002	9.47844E-001	3.57890E+000	9	...........
	80	1.08	9.52428E-001	1.00614E-004	0.00000E+000	9.58273E-005	5.99601E-002	9.52780E-001	3.57890E+000	9	...........
	81	1.09333	9.57213E-001	1.00594E-004	0.00000E+000	9.62897E-005	5.99601E-002	9.57583E-001	3.57890E+000	9	...........
	82	1.10667	9.61958E-001	1.00730E-004	0.00000E+000	9.68983E-005	5.99601E-002	9.62294E-001	3.57890E+000	9	...........
	83	1.12	9.66565E-001	1.01535E-004	0.00000E+000	9.81398E-005	5.99601E-002	9.66920E-001	3.57890E+000	9	...........
	84	1.13333	9.71114E-001	1.01866E-004	0.00000E+000	9.89234E-005	5.99601E-002	9.71473E-001	3.57890E+000	9	...........
	85	1.14667	9.75586E-001	9.95603E-005	0.00000E+000	9.71296E-005	5.99601E-002	9.75928E-001	3.57890E+000	9	...........
	86	1.16	9.79920E-001	1.00732E-004	0.00000E+000	9.87097E-005	5.99601E-002	9.80276E-001	3.57890E+000	9	...........
	87	1.17333	9.84185E-001	1.00873E-004	0.00000E+000	9.92777E-005	5.99601E-002	9.84549E-001	3.57890E+000	9	...........
	88	1.18667	9.88362E-001	1.01907E-004	0.00000E+000	1.00721E-004	5.99601E-002	9.88745E-001	3.57890E+000	9	...........
	89	1.2	9.92423E-001	1.00076E-004	0.00000E+000	9.93177E-005	5.99601E-002	9.92807E-001	3.57890E+000	9	...........
	90	1.21333	9.96437E-001	1.00363E-004	0.00000E+000	1.00005E-004	5.99601E-002	9.96814E-001	3.57890E+000	9	...........
	91	1.22	9.99418E-001	9.97749E-005	0.00000E+000	9.97168E-005	5.99601E-002	9.99790E-001	3.57890E+000	9	...........
STARTTIMEOFFSET	QUANT	1292.281	Start Time Offset (s)
