EXPLAIN
TAG	PWR800_CHARGE
TITLE	LABEL	PWR Cyclic Charge Discharge (Cell) - Charge Step	Test &Identifier
DATE	LABEL	13-7-2017	Date
TIME	LABEL	15:46:07	Time
NOTES	NOTES	2	&Notes...
	supercap test cell
	6M KOH
PSTAT	PSTAT	IFC5000-01520	Potentiostat
CAPACITY	QUANT	1.00000E-003	Capacity (A-hr)
CELLTYPE	SELECTOR	1	&Cell Type
WORKINGCONNECTION	SELECTOR	0	&Working Lead
MAXCHARGETIME	VARIABLEANDUNITS	1.00000E+002	s	1.00000E+002	second(s)	Max &Charge Time
CHARGECURRENT	QUANT	1.00000E-004	&Charge Current (A) 
VOLTAGEFINISH	TWOPARAM	F	1.00000E-003	3.60000E+003	&Voltage Finish	 I (A) < 	Max Time(s)
SAMPLETIME	QUANT	1.00000E-002	Sa&mple Period (s)
CHARGESTOPAT1	MULTIPARAM	4	1.00000E+000	Charge Stop At &1	Voltage > Limit	V
CHARGESTOPAT2	MULTIPARAM	0	0.00000E+000	Charge Stop At &2	None	N/A
AESBHCSELECTOR	TOGGLE	F	Save Both Half Cells
IRCOMP	TOGGLE	F	IR &Measure
EOC	QUANT	0	Open Circuit (V)
SEQUENCER	TOGGLE	TRUE	Run as Sequence
PSTATMODEL	IQUANT	53	Pstat Model
PSTATSECTION	LABEL	IFC5000-01520	Pstat Section
PSTATSERIALNO	LABEL	01520	Pstat Serial Number
CTRLMODE	IQUANT	0	Control Mode
ELECTROMETER	IQUANT	1	RE=0 or CS=1
IESTAB	IQUANT	0	I/E Stability
CASPEED	IQUANT	4	Control Amp Speed
CONVENTION	IQUANT	1	Current Convention
ICHRANGE	IQUANT	2	Ich Range
ICHRANGEMODE	TOGGLE	T	Ich Auto Range
ICHOFFSETENABLE	TOGGLE	F	Ich Offset Enable
ICHOFFSET	QUANT	0	Ich Offset (V)
ICHFILTER	IQUANT	1	Ich Filter
VCHRANGE	IQUANT	2	Vch Range
VCHRANGEMODE	TOGGLE	T	Vch Auto Range
VCHOFFSETENABLE	TOGGLE	F	Vch Offset Enable
VCHOFFSET	QUANT	0	Vch Offset (V)
VCHFILTER	IQUANT	1	Vch Filter
IERANGELOWERLIMIT	IQUANT	9	I/E Range Lower Limit
IERANGEMODE	TOGGLE	F	I/E AutoRange
IERANGE	IQUANT	9	I/E Range
ACHSELECT	IQUANT	1	Ach Select
ACHRANGE	IQUANT	2	Ach Range
ACHOFFSETENABLE	TOGGLE	F	Ach Offset Enable
ACHOFFSET	QUANT	0	Ach Offset (V)
ACHFILTER	IQUANT	1	Ach Filter
CABLEID	IQUANT	14	Cable ID
DCCALDATE	LABEL	5-7-2017	DC Calibration Date
ACCALDATE	LABEL	12/3/2015	AC Calibration Date
FRAMEWORKVERSION	QUANT	7.01	Framework Version
INSTRUMENTVERSION	LABEL	4.00	Instrument Version
CURVE	TABLE	90
	Pt	T	Vf	Im	Vu	Pwr	Sig	Ach	Temp	IERange	Over
	#	s	V	A	V	W	V	V	deg C	#	bits
	0	0.013333	1.35312E-001	1.01254E-004	0.00000E+000	1.37010E-005	5.99601E-002	1.35357E-001	3.57910E+000	9	...........
	1	0.026667	1.50606E-001	1.00136E-004	0.00000E+000	1.50812E-005	5.99601E-002	1.50629E-001	3.57960E+000	9	...........
	2	0.04	1.65462E-001	1.00828E-004	0.00000E+000	1.66833E-005	5.99601E-002	1.65486E-001	3.57960E+000	9	...........
	3	0.053333	1.80050E-001	9.99405E-005	0.00000E+000	1.79943E-005	5.99601E-002	1.80079E-001	3.57960E+000	9	...........
	4	0.066667	1.94438E-001	1.00973E-004	0.00000E+000	1.96330E-005	5.99601E-002	1.94468E-001	3.57960E+000	9	...........
	5	0.08	2.08695E-001	1.01103E-004	0.00000E+000	2.10998E-005	5.99601E-002	2.08732E-001	3.57960E+000	9	...........
	6	0.093333	2.22854E-001	1.00986E-004	0.00000E+000	2.25051E-005	5.99601E-002	2.22888E-001	3.57960E+000	9	...........
	7	0.106667	2.36935E-001	1.00923E-004	0.00000E+000	2.39122E-005	5.99601E-002	2.36980E-001	3.57960E+000	9	...........
	8	0.12	2.50976E-001	1.01048E-004	0.00000E+000	2.53606E-005	5.99601E-002	2.51021E-001	3.57960E+000	9	...........
	9	0.133333	2.64991E-001	1.00075E-004	0.00000E+000	2.65190E-005	5.99601E-002	2.65035E-001	3.57960E+000	9	...........
	10	0.146667	2.78995E-001	1.00027E-004	0.00000E+000	2.79071E-005	5.99601E-002	2.79043E-001	3.57960E+000	9	...........
	11	0.16	2.93008E-001	1.00763E-004	0.00000E+000	2.95242E-005	5.99601E-002	2.93059E-001	3.57960E+000	9	...........
	12	0.173333	3.07035E-001	1.00909E-004	0.00000E+000	3.09827E-005	5.99601E-002	3.07089E-001	3.57960E+000	9	...........
	13	0.186667	3.21083E-001	1.01178E-004	0.00000E+000	3.24866E-005	5.99601E-002	3.21145E-001	3.57960E+000	9	...........
	14	0.2	3.35155E-001	1.00792E-004	0.00000E+000	3.37808E-005	5.99601E-002	3.35211E-001	3.57960E+000	9	...........
	15	0.213333	3.49249E-001	1.00675E-004	0.00000E+000	3.51607E-005	5.99601E-002	3.49313E-001	3.57960E+000	9	...........
	16	0.226667	3.63364E-001	1.01184E-004	0.00000E+000	3.67665E-005	5.99601E-002	3.63429E-001	3.57960E+000	9	...........
	17	0.24	3.77502E-001	1.00721E-004	0.00000E+000	3.80224E-005	5.99601E-002	3.77572E-001	3.57960E+000	9	...........
	18	0.253333	3.91645E-001	1.00807E-004	0.00000E+000	3.94807E-005	5.99601E-002	3.91713E-001	3.57960E+000	9	...........
	19	0.266667	4.05784E-001	1.01607E-004	0.00000E+000	4.12303E-005	5.99601E-002	4.05860E-001	3.57960E+000	9	...........
	20	0.28	4.19894E-001	1.01198E-004	0.00000E+000	4.24924E-005	5.99601E-002	4.19979E-001	3.57960E+000	9	...........
	21	0.293333	4.33968E-001	1.00907E-004	0.00000E+000	4.37906E-005	5.99601E-002	4.34054E-001	3.57960E+000	9	...........
	22	0.306667	4.47981E-001	1.00654E-004	0.00000E+000	4.50912E-005	5.99601E-002	4.48072E-001	3.57960E+000	9	...........
	23	0.32	4.61907E-001	1.01053E-004	0.00000E+000	4.66772E-005	5.99601E-002	4.62000E-001	3.57960E+000	9	...........
	24	0.333333	4.75725E-001	1.00276E-004	0.00000E+000	4.77038E-005	5.99601E-002	4.75819E-001	3.57960E+000	9	...........
	25	0.346667	4.89411E-001	9.97051E-005	0.00000E+000	4.87967E-005	5.99601E-002	4.89510E-001	3.57960E+000	9	...........
	26	0.36	5.02946E-001	1.01182E-004	0.00000E+000	5.08893E-005	5.99601E-002	5.03050E-001	3.57960E+000	9	...........
	27	0.373333	5.16314E-001	1.00616E-004	0.00000E+000	5.19493E-005	5.99601E-002	5.16418E-001	3.57960E+000	9	...........
	28	0.386667	5.29450E-001	1.01071E-004	0.00000E+000	5.35120E-005	5.99601E-002	5.29578E-001	3.57960E+000	9	...........
	29	0.4	5.42109E-001	1.00845E-004	0.00000E+000	5.46690E-005	5.99601E-002	5.42386E-001	3.57960E+000	9	...........
	30	0.413333	5.54885E-001	1.00474E-004	0.00000E+000	5.57515E-005	5.99601E-002	5.55167E-001	3.57960E+000	9	...........
	31	0.426667	5.67455E-001	1.01116E-004	0.00000E+000	5.73786E-005	5.99601E-002	5.67726E-001	3.57960E+000	9	...........
	32	0.44	5.79781E-001	1.01295E-004	0.00000E+000	5.87289E-005	5.99601E-002	5.80041E-001	3.57960E+000	9	...........
	33	0.453333	5.91888E-001	1.00653E-004	0.00000E+000	5.95754E-005	5.99601E-002	5.92165E-001	3.57960E+000	9	...........
	34	0.466667	6.03732E-001	1.01505E-004	0.00000E+000	6.12821E-005	5.99601E-002	6.04045E-001	3.57960E+000	9	...........
	35	0.48	6.15396E-001	1.00570E-004	0.00000E+000	6.18903E-005	5.99601E-002	6.15692E-001	3.57960E+000	9	...........
	36	0.493333	6.26828E-001	1.01312E-004	0.00000E+000	6.35050E-005	5.99601E-002	6.27096E-001	3.57960E+000	9	...........
	37	0.506667	6.38021E-001	1.01289E-004	0.00000E+000	6.46243E-005	5.99601E-002	6.38301E-001	3.57960E+000	9	...........
	38	0.52	6.48991E-001	1.01153E-004	0.00000E+000	6.56476E-005	5.99601E-002	6.49236E-001	3.57960E+000	9	...........
	39	0.533333	6.59710E-001	1.00459E-004	0.00000E+000	6.62741E-005	5.99601E-002	6.59992E-001	3.57960E+000	9	...........
	40	0.546667	6.70263E-001	1.01523E-004	0.00000E+000	6.80472E-005	5.99601E-002	6.70548E-001	3.57960E+000	9	...........
	41	0.56	6.80545E-001	1.00545E-004	0.00000E+000	6.84253E-005	5.99601E-002	6.80845E-001	3.57960E+000	9	...........
	42	0.573333	6.90659E-001	9.99134E-005	0.00000E+000	6.90061E-005	5.99601E-002	6.90958E-001	3.57960E+000	9	...........
	43	0.586667	7.00582E-001	1.00431E-004	0.00000E+000	7.03603E-005	5.99601E-002	7.00858E-001	3.57960E+000	9	...........
	44	0.6	7.10274E-001	1.00846E-004	0.00000E+000	7.16282E-005	5.99601E-002	7.10564E-001	3.57960E+000	9	...........
	45	0.613333	7.19797E-001	1.01491E-004	0.00000E+000	7.30529E-005	5.99601E-002	7.20073E-001	3.57960E+000	9	...........
	46	0.626667	7.29123E-001	1.01223E-004	0.00000E+000	7.38041E-005	5.99601E-002	7.29415E-001	3.57960E+000	9	...........
	47	0.64	7.38247E-001	1.01236E-004	0.00000E+000	7.47369E-005	5.99601E-002	7.38550E-001	3.57960E+000	9	...........
	48	0.653333	7.47206E-001	1.00254E-004	0.00000E+000	7.49105E-005	5.99601E-002	7.47510E-001	3.57960E+000	9	...........
	49	0.666667	7.56005E-001	1.01069E-004	0.00000E+000	7.64085E-005	5.99601E-002	7.56290E-001	3.57960E+000	9	...........
	50	0.68	7.64602E-001	1.00379E-004	0.00000E+000	7.67501E-005	5.99601E-002	7.64927E-001	3.57960E+000	9	...........
	51	0.693333	7.73066E-001	1.00585E-004	0.00000E+000	7.77592E-005	5.99601E-002	7.73369E-001	3.57960E+000	9	...........
	52	0.706667	7.81346E-001	1.00246E-004	0.00000E+000	7.83267E-005	5.99601E-002	7.81659E-001	3.57960E+000	9	...........
	53	0.72	7.89468E-001	1.00878E-004	0.00000E+000	7.96402E-005	5.99601E-002	7.89790E-001	3.57960E+000	9	...........
	54	0.733333	7.97461E-001	1.01184E-004	0.00000E+000	8.06899E-005	5.99601E-002	7.97773E-001	3.57960E+000	9	...........
	55	0.746667	8.05273E-001	1.00987E-004	0.00000E+000	8.13218E-005	5.99601E-002	8.05580E-001	3.57960E+000	9	...........
	56	0.76	8.12926E-001	1.01092E-004	0.00000E+000	8.21801E-005	5.99601E-002	8.13270E-001	3.57960E+000	9	...........
	57	0.773333	8.20495E-001	1.00792E-004	0.00000E+000	8.26991E-005	5.99601E-002	8.20830E-001	3.57960E+000	9	...........
	58	0.786667	8.27886E-001	1.00790E-004	0.00000E+000	8.34424E-005	5.99601E-002	8.28210E-001	3.57960E+000	9	...........
	59	0.8	8.35129E-001	1.00840E-004	0.00000E+000	8.42141E-005	5.99601E-002	8.35485E-001	3.57960E+000	9	...........
	60	0.813333	8.42250E-001	1.01410E-004	0.00000E+000	8.54122E-005	5.99601E-002	8.42607E-001	3.57960E+000	9	...........
	61	0.826667	8.49280E-001	1.00841E-004	0.00000E+000	8.56420E-005	5.99601E-002	8.49618E-001	3.57960E+000	9	...........
	62	0.84	8.56125E-001	1.01285E-004	0.00000E+000	8.67123E-005	5.99601E-002	8.56508E-001	3.57960E+000	9	...........
	63	0.853333	8.62895E-001	1.00643E-004	0.00000E+000	8.68442E-005	5.99601E-002	8.63254E-001	3.57960E+000	9	...........
	64	0.866667	8.69535E-001	1.01404E-004	0.00000E+000	8.81747E-005	5.99601E-002	8.69892E-001	3.57960E+000	9	...........
	65	0.88	8.76059E-001	1.00084E-004	0.00000E+000	8.76798E-005	5.99601E-002	8.76397E-001	3.57960E+000	9	...........
	66	0.893333	8.82455E-001	1.00389E-004	0.00000E+000	8.85884E-005	5.99601E-002	8.82802E-001	3.57960E+000	9	...........
	67	0.906667	8.88745E-001	1.01527E-004	0.00000E+000	9.02319E-005	5.99601E-002	8.89084E-001	3.57960E+000	9	...........
	68	0.92	8.94922E-001	1.00737E-004	0.00000E+000	9.01514E-005	5.99601E-002	8.95269E-001	3.57960E+000	9	...........
	69	0.933333	9.00976E-001	1.00767E-004	0.00000E+000	9.07884E-005	5.99601E-002	9.01323E-001	3.57960E+000	9	...........
	70	0.946667	9.06935E-001	1.01206E-004	0.00000E+000	9.17877E-005	5.99601E-002	9.07288E-001	3.57960E+000	9	...........
	71	0.96	9.12759E-001	1.01645E-004	0.00000E+000	9.27774E-005	5.99601E-002	9.13108E-001	3.57960E+000	9	...........
	72	0.97333	9.18497E-001	1.00504E-004	0.00000E+000	9.23128E-005	5.99601E-002	9.18860E-001	3.57960E+000	9	...........
	73	0.98667	9.24189E-001	1.01163E-004	0.00000E+000	9.34935E-005	5.99601E-002	9.24484E-001	3.57960E+000	9	...........
	74	1	9.29698E-001	1.00624E-004	0.00000E+000	9.35499E-005	5.99601E-002	9.30004E-001	3.57960E+000	9	...........
	75	1.01333	9.35101E-001	1.01823E-004	0.00000E+000	9.52150E-005	5.99601E-002	9.35436E-001	3.57925E+000	9	...........
	76	1.02667	9.40393E-001	1.00908E-004	0.00000E+000	9.48936E-005	5.99601E-002	9.40748E-001	3.57890E+000	9	...........
	77	1.04	9.45605E-001	1.01079E-004	0.00000E+000	9.55811E-005	5.99601E-002	9.45955E-001	3.57890E+000	9	...........
	78	1.05333	9.50723E-001	1.01733E-004	0.00000E+000	9.67195E-005	5.99601E-002	9.51075E-001	3.57890E+000	9	...........
	79	1.06667	9.55721E-001	1.00733E-004	0.00000E+000	9.62730E-005	5.99601E-002	9.56059E-001	3.57890E+000	9	...........
	80	1.08	9.60615E-001	1.01142E-004	0.00000E+000	9.71584E-005	5.99601E-002	9.60973E-001	3.57890E+000	9	...........
	81	1.09333	9.65415E-001	1.00738E-004	0.00000E+000	9.72535E-005	5.99601E-002	9.65780E-001	3.57890E+000	9	...........
	82	1.10667	9.70107E-001	1.00678E-004	0.00000E+000	9.76687E-005	5.99601E-002	9.70506E-001	3.57890E+000	9	...........
	83	1.12	9.74770E-001	1.01627E-004	0.00000E+000	9.90633E-005	5.99601E-002	9.75134E-001	3.57890E+000	9	...........
	84	1.13333	9.79286E-001	1.01228E-004	0.00000E+000	9.91315E-005	5.99601E-002	9.79636E-001	3.57890E+000	9	...........
	85	1.14667	9.83711E-001	9.99853E-005	0.00000E+000	9.83567E-005	5.99601E-002	9.84069E-001	3.57890E+000	9	...........
	86	1.16	9.88035E-001	1.01151E-004	0.00000E+000	9.99410E-005	5.99601E-002	9.88397E-001	3.57890E+000	9	...........
	87	1.17333	9.92253E-001	1.00392E-004	0.00000E+000	9.96139E-005	5.99601E-002	9.92616E-001	3.57890E+000	9	...........
	88	1.18667	9.96415E-001	1.00867E-004	0.00000E+000	1.00505E-004	5.99601E-002	9.96751E-001	3.57890E+000	9	...........
	89	1.19333	9.99478E-001	1.00392E-004	0.00000E+000	1.00339E-004	5.99601E-002	9.99810E-001	3.57890E+000	9	...........
STARTTIMEOFFSET	QUANT	1992.166	Start Time Offset (s)
