EXPLAIN
TAG	PWR800_CHARGE
TITLE	LABEL	PWR Cyclic Charge Discharge (Cell) - Charge Step	Test &Identifier
DATE	LABEL	13-7-2017	Date
TIME	LABEL	15:52:17	Time
NOTES	NOTES	2	&Notes...
	supercap test cell
	6M KOH
PSTAT	PSTAT	IFC5000-01520	Potentiostat
CAPACITY	QUANT	1.00000E-003	Capacity (A-hr)
CELLTYPE	SELECTOR	1	&Cell Type
WORKINGCONNECTION	SELECTOR	0	&Working Lead
MAXCHARGETIME	VARIABLEANDUNITS	1.00000E+002	s	1.00000E+002	second(s)	Max &Charge Time
CHARGECURRENT	QUANT	1.00000E-004	&Charge Current (A) 
VOLTAGEFINISH	TWOPARAM	F	1.00000E-003	3.60000E+003	&Voltage Finish	 I (A) < 	Max Time(s)
SAMPLETIME	QUANT	1.00000E-002	Sa&mple Period (s)
CHARGESTOPAT1	MULTIPARAM	4	1.00000E+000	Charge Stop At &1	Voltage > Limit	V
CHARGESTOPAT2	MULTIPARAM	0	0.00000E+000	Charge Stop At &2	None	N/A
AESBHCSELECTOR	TOGGLE	F	Save Both Half Cells
IRCOMP	TOGGLE	F	IR &Measure
EOC	QUANT	0	Open Circuit (V)
SEQUENCER	TOGGLE	TRUE	Run as Sequence
PSTATMODEL	IQUANT	53	Pstat Model
PSTATSECTION	LABEL	IFC5000-01520	Pstat Section
PSTATSERIALNO	LABEL	01520	Pstat Serial Number
CTRLMODE	IQUANT	0	Control Mode
ELECTROMETER	IQUANT	1	RE=0 or CS=1
IESTAB	IQUANT	0	I/E Stability
CASPEED	IQUANT	4	Control Amp Speed
CONVENTION	IQUANT	1	Current Convention
ICHRANGE	IQUANT	2	Ich Range
ICHRANGEMODE	TOGGLE	T	Ich Auto Range
ICHOFFSETENABLE	TOGGLE	F	Ich Offset Enable
ICHOFFSET	QUANT	0	Ich Offset (V)
ICHFILTER	IQUANT	1	Ich Filter
VCHRANGE	IQUANT	2	Vch Range
VCHRANGEMODE	TOGGLE	T	Vch Auto Range
VCHOFFSETENABLE	TOGGLE	F	Vch Offset Enable
VCHOFFSET	QUANT	0	Vch Offset (V)
VCHFILTER	IQUANT	1	Vch Filter
IERANGELOWERLIMIT	IQUANT	9	I/E Range Lower Limit
IERANGEMODE	TOGGLE	F	I/E AutoRange
IERANGE	IQUANT	9	I/E Range
ACHSELECT	IQUANT	1	Ach Select
ACHRANGE	IQUANT	2	Ach Range
ACHOFFSETENABLE	TOGGLE	F	Ach Offset Enable
ACHOFFSET	QUANT	0	Ach Offset (V)
ACHFILTER	IQUANT	1	Ach Filter
CABLEID	IQUANT	14	Cable ID
DCCALDATE	LABEL	5-7-2017	DC Calibration Date
ACCALDATE	LABEL	12/3/2015	AC Calibration Date
FRAMEWORKVERSION	QUANT	7.01	Framework Version
INSTRUMENTVERSION	LABEL	4.00	Instrument Version
CURVE	TABLE	89
	Pt	T	Vf	Im	Vu	Pwr	Sig	Ach	Temp	IERange	Over
	#	s	V	A	V	W	V	V	deg C	#	bits
	0	0.013333	1.33600E-001	1.00951E-004	0.00000E+000	1.34871E-005	5.99601E-002	1.33643E-001	3.57850E+000	9	...........
	1	0.026667	1.48910E-001	1.00277E-004	0.00000E+000	1.49323E-005	5.99601E-002	1.48933E-001	3.57850E+000	9	...........
	2	0.04	1.63790E-001	1.00489E-004	0.00000E+000	1.64591E-005	5.99601E-002	1.63815E-001	3.57850E+000	9	...........
	3	0.053333	1.78408E-001	1.00585E-004	0.00000E+000	1.79453E-005	5.99601E-002	1.78436E-001	3.57850E+000	9	...........
	4	0.066667	1.92828E-001	1.01180E-004	0.00000E+000	1.95104E-005	5.99601E-002	1.92858E-001	3.57850E+000	9	...........
	5	0.08	2.07113E-001	9.96582E-005	0.00000E+000	2.06405E-005	5.99601E-002	2.07143E-001	3.57850E+000	9	...........
	6	0.093333	2.21294E-001	1.00388E-004	0.00000E+000	2.22152E-005	5.99601E-002	2.21324E-001	3.57850E+000	9	...........
	7	0.106667	2.35413E-001	1.01150E-004	0.00000E+000	2.38120E-005	5.99601E-002	2.35443E-001	3.57850E+000	9	...........
	8	0.12	2.49477E-001	1.00662E-004	0.00000E+000	2.51127E-005	5.99601E-002	2.49521E-001	3.57850E+000	9	...........
	9	0.133333	2.63525E-001	1.01339E-004	0.00000E+000	2.67053E-005	5.99601E-002	2.63570E-001	3.57850E+000	9	...........
	10	0.146667	2.77560E-001	1.00542E-004	0.00000E+000	2.79064E-005	5.99601E-002	2.77611E-001	3.57850E+000	9	...........
	11	0.16	2.91604E-001	1.00455E-004	0.00000E+000	2.92932E-005	5.99601E-002	2.91654E-001	3.57850E+000	9	...........
	12	0.173333	3.05665E-001	1.00560E-004	0.00000E+000	3.07378E-005	5.99601E-002	3.05720E-001	3.57850E+000	9	...........
	13	0.186667	3.19745E-001	1.00334E-004	0.00000E+000	3.20814E-005	5.99601E-002	3.19802E-001	3.57850E+000	9	...........
	14	0.2	3.33849E-001	1.00968E-004	0.00000E+000	3.37080E-005	5.99601E-002	3.33908E-001	3.57850E+000	9	...........
	15	0.213333	3.47984E-001	1.01043E-004	0.00000E+000	3.51613E-005	5.99601E-002	3.48046E-001	3.57850E+000	9	...........
	16	0.226667	3.62144E-001	1.01249E-004	0.00000E+000	3.66667E-005	5.99601E-002	3.62212E-001	3.57850E+000	9	...........
	17	0.24	3.76324E-001	1.00529E-004	0.00000E+000	3.78316E-005	5.99601E-002	3.76391E-001	3.57850E+000	9	...........
	18	0.253333	3.90518E-001	1.01331E-004	0.00000E+000	3.95717E-005	5.99601E-002	3.90585E-001	3.57850E+000	9	...........
	19	0.266667	4.04708E-001	1.00517E-004	0.00000E+000	4.06799E-005	5.99601E-002	4.04779E-001	3.57850E+000	9	...........
	20	0.28	4.18875E-001	1.01194E-004	0.00000E+000	4.23876E-005	5.99601E-002	4.18956E-001	3.57850E+000	9	...........
	21	0.293333	4.33009E-001	1.00348E-004	0.00000E+000	4.34516E-005	5.99601E-002	4.33096E-001	3.57850E+000	9	...........
	22	0.306667	4.47090E-001	1.00579E-004	0.00000E+000	4.49680E-005	5.99601E-002	4.47173E-001	3.57850E+000	9	...........
	23	0.32	4.61085E-001	1.00926E-004	0.00000E+000	4.65355E-005	5.99601E-002	4.61175E-001	3.57850E+000	9	...........
	24	0.333333	4.74980E-001	1.00228E-004	0.00000E+000	4.76063E-005	5.99601E-002	4.75074E-001	3.57850E+000	9	...........
	25	0.346667	4.88753E-001	1.00936E-004	0.00000E+000	4.93326E-005	5.99601E-002	4.88850E-001	3.57850E+000	9	...........
	26	0.36	5.02370E-001	9.99218E-005	0.00000E+000	5.01977E-005	5.99601E-002	5.02476E-001	3.57850E+000	9	...........
	27	0.373333	5.15826E-001	1.00206E-004	0.00000E+000	5.16890E-005	5.99601E-002	5.15929E-001	3.57850E+000	9	...........
	28	0.386667	5.29044E-001	9.97478E-005	0.00000E+000	5.27709E-005	5.99601E-002	5.29171E-001	3.57850E+000	9	...........
	29	0.4	5.41827E-001	1.00963E-004	0.00000E+000	5.47042E-005	5.99601E-002	5.42074E-001	3.57850E+000	9	...........
	30	0.413333	5.54669E-001	1.01092E-004	0.00000E+000	5.60725E-005	5.99601E-002	5.54925E-001	3.57850E+000	9	...........
	31	0.426667	5.67354E-001	1.01108E-004	0.00000E+000	5.73643E-005	5.99601E-002	5.67612E-001	3.57850E+000	9	...........
	32	0.44	5.79762E-001	1.01288E-004	0.00000E+000	5.87228E-005	5.99601E-002	5.80021E-001	3.57850E+000	9	...........
	33	0.453333	5.91970E-001	1.00222E-004	0.00000E+000	5.93283E-005	5.99601E-002	5.92227E-001	3.57850E+000	9	...........
	34	0.466667	6.03913E-001	1.00419E-004	0.00000E+000	6.06442E-005	5.99601E-002	6.04187E-001	3.57850E+000	9	...........
	35	0.48	6.15673E-001	1.01456E-004	0.00000E+000	6.24640E-005	5.99601E-002	6.15922E-001	3.57850E+000	9	...........
	36	0.493333	6.27163E-001	1.00789E-004	0.00000E+000	6.32109E-005	5.99601E-002	6.27411E-001	3.57850E+000	9	...........
	37	0.506667	6.38420E-001	1.00498E-004	0.00000E+000	6.41599E-005	5.99601E-002	6.38691E-001	3.57850E+000	9	...........
	38	0.52	6.49481E-001	1.00613E-004	0.00000E+000	6.53460E-005	5.99601E-002	6.49753E-001	3.57850E+000	9	...........
	39	0.533333	6.60288E-001	1.01207E-004	0.00000E+000	6.68261E-005	5.99601E-002	6.60550E-001	3.57850E+000	9	...........
	40	0.546667	6.70924E-001	1.01237E-004	0.00000E+000	6.79221E-005	5.99601E-002	6.71174E-001	3.57850E+000	9	...........
	41	0.56	6.81292E-001	1.01301E-004	0.00000E+000	6.90157E-005	5.99601E-002	6.81548E-001	3.57850E+000	9	...........
	42	0.573333	6.91459E-001	1.01334E-004	0.00000E+000	7.00680E-005	5.99601E-002	6.91754E-001	3.57850E+000	9	...........
	43	0.586667	7.01427E-001	1.00571E-004	0.00000E+000	7.05431E-005	5.99601E-002	7.01697E-001	3.57850E+000	9	...........
	44	0.6	7.11198E-001	1.00368E-004	0.00000E+000	7.13813E-005	5.99601E-002	7.11478E-001	3.57850E+000	9	...........
	45	0.613333	7.20813E-001	1.02062E-004	0.00000E+000	7.35675E-005	5.99601E-002	7.21069E-001	3.57850E+000	9	...........
	46	0.626667	7.30180E-001	1.00354E-004	0.00000E+000	7.32766E-005	5.99601E-002	7.30448E-001	3.57850E+000	9	...........
	47	0.64	7.39375E-001	1.00874E-004	0.00000E+000	7.45837E-005	5.99601E-002	7.39639E-001	3.57850E+000	9	...........
	48	0.653333	7.48422E-001	1.00502E-004	0.00000E+000	7.52180E-005	5.99601E-002	7.48680E-001	3.57850E+000	9	...........
	49	0.666667	7.57256E-001	1.01204E-004	0.00000E+000	7.66376E-005	5.99601E-002	7.57517E-001	3.57981E+000	9	...........
	50	0.68	7.65925E-001	1.01143E-004	0.00000E+000	7.74678E-005	5.99601E-002	7.66195E-001	3.58000E+000	9	...........
	51	0.693333	7.74440E-001	1.01287E-004	0.00000E+000	7.84405E-005	5.99601E-002	7.74694E-001	3.58000E+000	9	...........
	52	0.706667	7.82782E-001	1.00155E-004	0.00000E+000	7.83997E-005	5.99601E-002	7.83035E-001	3.58000E+000	9	...........
	53	0.72	7.90958E-001	1.00946E-004	0.00000E+000	7.98440E-005	5.99601E-002	7.91226E-001	3.58000E+000	9	...........
	54	0.733333	7.98989E-001	1.01004E-004	0.00000E+000	8.07013E-005	5.99601E-002	7.99241E-001	3.58000E+000	9	...........
	55	0.746667	8.06853E-001	1.01609E-004	0.00000E+000	8.19832E-005	5.99601E-002	8.07132E-001	3.58000E+000	9	...........
	56	0.76	8.14537E-001	1.01348E-004	0.00000E+000	8.25518E-005	5.99601E-002	8.14845E-001	3.58000E+000	9	...........
	57	0.773333	8.22162E-001	1.00321E-004	0.00000E+000	8.24799E-005	5.99601E-002	8.22455E-001	3.58000E+000	9	...........
	58	0.786667	8.29566E-001	9.97270E-005	0.00000E+000	8.27300E-005	5.99601E-002	8.29882E-001	3.58000E+000	9	...........
	59	0.8	8.36862E-001	1.02235E-004	0.00000E+000	8.55564E-005	5.99601E-002	8.37197E-001	3.58000E+000	9	...........
	60	0.813333	8.44027E-001	1.01409E-004	0.00000E+000	8.55916E-005	5.99601E-002	8.44361E-001	3.58000E+000	9	...........
	61	0.826667	8.51076E-001	1.01147E-004	0.00000E+000	8.60838E-005	5.99601E-002	8.51411E-001	3.58000E+000	9	...........
	62	0.84	8.57977E-001	1.01477E-004	0.00000E+000	8.70652E-005	5.99601E-002	8.58314E-001	3.58000E+000	9	...........
	63	0.853333	8.64745E-001	1.00179E-004	0.00000E+000	8.66294E-005	5.99601E-002	8.65101E-001	3.58000E+000	9	...........
	64	0.866667	8.71437E-001	1.01037E-004	0.00000E+000	8.80471E-005	5.99601E-002	8.71793E-001	3.58000E+000	9	...........
	65	0.88	8.77988E-001	1.00950E-004	0.00000E+000	8.86330E-005	5.99601E-002	8.78318E-001	3.58000E+000	9	...........
	66	0.893333	8.84413E-001	1.01131E-004	0.00000E+000	8.94420E-005	5.99601E-002	8.84750E-001	3.58000E+000	9	...........
	67	0.906667	8.90713E-001	9.99249E-005	0.00000E+000	8.90044E-005	5.99601E-002	8.91038E-001	3.58000E+000	9	...........
	68	0.92	8.96894E-001	1.01099E-004	0.00000E+000	9.06752E-005	5.99601E-002	8.97225E-001	3.58000E+000	9	...........
	69	0.933333	9.02975E-001	1.01523E-004	0.00000E+000	9.16729E-005	5.99601E-002	9.03310E-001	3.58000E+000	9	...........
	70	0.946667	9.08945E-001	1.00896E-004	0.00000E+000	9.17089E-005	5.99601E-002	9.09280E-001	3.58000E+000	9	...........
	71	0.96	9.14792E-001	1.01201E-004	0.00000E+000	9.25781E-005	5.99601E-002	9.15153E-001	3.58000E+000	9	...........
	72	0.97333	9.20558E-001	1.01282E-004	0.00000E+000	9.32364E-005	5.99601E-002	9.20860E-001	3.58000E+000	9	...........
	73	0.98667	9.26210E-001	1.00756E-004	0.00000E+000	9.33215E-005	5.99601E-002	9.26529E-001	3.58000E+000	9	...........
	74	1	9.31728E-001	1.00975E-004	0.00000E+000	9.40814E-005	5.99601E-002	9.32035E-001	3.58000E+000	9	...........
	75	1.01333	9.37145E-001	9.99457E-005	0.00000E+000	9.36637E-005	5.99601E-002	9.37458E-001	3.58000E+000	9	...........
	76	1.02667	9.42446E-001	1.01215E-004	0.00000E+000	9.53895E-005	5.99601E-002	9.42754E-001	3.58000E+000	9	...........
	77	1.04	9.47693E-001	1.01291E-004	0.00000E+000	9.59926E-005	5.99601E-002	9.47991E-001	3.58000E+000	9	...........
	78	1.05333	9.52794E-001	1.01874E-004	0.00000E+000	9.70652E-005	5.99601E-002	9.53115E-001	3.58000E+000	9	...........
	79	1.06667	9.57785E-001	1.00350E-004	0.00000E+000	9.61138E-005	5.99601E-002	9.58113E-001	3.58000E+000	9	...........
	80	1.08	9.62680E-001	1.01980E-004	0.00000E+000	9.81736E-005	5.99601E-002	9.63023E-001	3.58000E+000	9	...........
	81	1.09333	9.67497E-001	1.01443E-004	0.00000E+000	9.81457E-005	5.99601E-002	9.67830E-001	3.58000E+000	9	...........
	82	1.10667	9.72211E-001	1.01150E-004	0.00000E+000	9.83393E-005	5.99601E-002	9.72554E-001	3.58000E+000	9	...........
	83	1.12	9.76824E-001	1.01337E-004	0.00000E+000	9.89881E-005	5.99601E-002	9.77161E-001	3.58000E+000	9	...........
	84	1.13333	9.81358E-001	1.01349E-004	0.00000E+000	9.94598E-005	5.99601E-002	9.81682E-001	3.58000E+000	9	...........
	85	1.14667	9.85751E-001	1.01424E-004	0.00000E+000	9.99790E-005	5.99601E-002	9.86102E-001	3.58000E+000	9	...........
	86	1.16	9.90066E-001	1.00327E-004	0.00000E+000	9.93304E-005	5.99601E-002	9.90410E-001	3.58000E+000	9	...........
	87	1.17333	9.94268E-001	1.00501E-004	0.00000E+000	9.99250E-005	5.99601E-002	9.94646E-001	3.58000E+000	9	...........
	88	1.18667	9.98420E-001	1.01124E-004	0.00000E+000	1.00964E-004	5.99601E-002	9.98780E-001	3.58000E+000	9	...........
STARTTIMEOFFSET	QUANT	2269.463	Start Time Offset (s)
