EXPLAIN
TAG	PWR800_CHARGE
TITLE	LABEL	PWR Cyclic Charge Discharge (Cell) - Charge Step	Test &Identifier
DATE	LABEL	13-7-2017	Date
TIME	LABEL	15:10:59	Time
NOTES	NOTES	2	&Notes...
	supercap test cell
	6M KOH
PSTAT	PSTAT	IFC5000-01520	Potentiostat
CAPACITY	QUANT	1.00000E-003	Capacity (A-hr)
CELLTYPE	SELECTOR	1	&Cell Type
WORKINGCONNECTION	SELECTOR	0	&Working Lead
MAXCHARGETIME	VARIABLEANDUNITS	1.00000E+002	s	1.00000E+002	second(s)	Max &Charge Time
CHARGECURRENT	QUANT	1.00000E-004	&Charge Current (A) 
VOLTAGEFINISH	TWOPARAM	F	1.00000E-003	3.60000E+003	&Voltage Finish	 I (A) < 	Max Time(s)
SAMPLETIME	QUANT	1.00000E-002	Sa&mple Period (s)
CHARGESTOPAT1	MULTIPARAM	4	1.00000E+000	Charge Stop At &1	Voltage > Limit	V
CHARGESTOPAT2	MULTIPARAM	0	0.00000E+000	Charge Stop At &2	None	N/A
AESBHCSELECTOR	TOGGLE	F	Save Both Half Cells
IRCOMP	TOGGLE	F	IR &Measure
EOC	QUANT	0	Open Circuit (V)
SEQUENCER	TOGGLE	TRUE	Run as Sequence
PSTATMODEL	IQUANT	53	Pstat Model
PSTATSECTION	LABEL	IFC5000-01520	Pstat Section
PSTATSERIALNO	LABEL	01520	Pstat Serial Number
CTRLMODE	IQUANT	0	Control Mode
ELECTROMETER	IQUANT	1	RE=0 or CS=1
IESTAB	IQUANT	0	I/E Stability
CASPEED	IQUANT	4	Control Amp Speed
CONVENTION	IQUANT	1	Current Convention
ICHRANGE	IQUANT	2	Ich Range
ICHRANGEMODE	TOGGLE	T	Ich Auto Range
ICHOFFSETENABLE	TOGGLE	F	Ich Offset Enable
ICHOFFSET	QUANT	0	Ich Offset (V)
ICHFILTER	IQUANT	1	Ich Filter
VCHRANGE	IQUANT	2	Vch Range
VCHRANGEMODE	TOGGLE	T	Vch Auto Range
VCHOFFSETENABLE	TOGGLE	F	Vch Offset Enable
VCHOFFSET	QUANT	0	Vch Offset (V)
VCHFILTER	IQUANT	1	Vch Filter
IERANGELOWERLIMIT	IQUANT	9	I/E Range Lower Limit
IERANGEMODE	TOGGLE	F	I/E AutoRange
IERANGE	IQUANT	9	I/E Range
ACHSELECT	IQUANT	1	Ach Select
ACHRANGE	IQUANT	2	Ach Range
ACHOFFSETENABLE	TOGGLE	F	Ach Offset Enable
ACHOFFSET	QUANT	0	Ach Offset (V)
ACHFILTER	IQUANT	1	Ach Filter
CABLEID	IQUANT	14	Cable ID
DCCALDATE	LABEL	5-7-2017	DC Calibration Date
ACCALDATE	LABEL	12/3/2015	AC Calibration Date
FRAMEWORKVERSION	QUANT	7.01	Framework Version
INSTRUMENTVERSION	LABEL	4.00	Instrument Version
CURVE	TABLE	97
	Pt	T	Vf	Im	Vu	Pwr	Sig	Ach	Temp	IERange	Over
	#	s	V	A	V	W	V	V	deg C	#	bits
	0	0.013333	1.32756E-001	1.00956E-004	0.00000E+000	1.34026E-005	5.99601E-002	1.32796E-001	3.57960E+000	9	...........
	1	0.026667	1.48011E-001	1.00734E-004	0.00000E+000	1.49099E-005	5.99601E-002	1.48033E-001	3.57960E+000	9	...........
	2	0.04	1.62815E-001	1.00322E-004	0.00000E+000	1.63339E-005	5.99601E-002	1.62842E-001	3.57960E+000	9	...........
	3	0.053333	1.77341E-001	1.01306E-004	0.00000E+000	1.79658E-005	5.99601E-002	1.77373E-001	3.57960E+000	9	...........
	4	0.066667	1.91679E-001	1.01454E-004	0.00000E+000	1.94466E-005	5.99601E-002	1.91713E-001	3.57960E+000	9	...........
	5	0.08	2.05867E-001	1.00334E-004	0.00000E+000	2.06555E-005	5.99601E-002	2.05899E-001	3.57960E+000	9	...........
	6	0.093333	2.19954E-001	1.00767E-004	0.00000E+000	2.21640E-005	5.99601E-002	2.19994E-001	3.57960E+000	9	...........
	7	0.106667	2.33959E-001	1.00689E-004	0.00000E+000	2.35570E-005	5.99601E-002	2.34001E-001	3.57960E+000	9	...........
	8	0.12	2.47909E-001	1.01239E-004	0.00000E+000	2.50980E-005	5.99601E-002	2.47958E-001	3.57960E+000	9	...........
	9	0.133333	2.61821E-001	1.01968E-004	0.00000E+000	2.66974E-005	5.99601E-002	2.61875E-001	3.57960E+000	9	...........
	10	0.146667	2.75717E-001	1.01018E-004	0.00000E+000	2.78524E-005	5.99601E-002	2.75772E-001	3.57960E+000	9	...........
	11	0.16	2.89587E-001	1.01155E-004	0.00000E+000	2.92933E-005	5.99601E-002	2.89649E-001	3.57960E+000	9	...........
	12	0.173333	3.03460E-001	9.96905E-005	0.00000E+000	3.02521E-005	5.99601E-002	3.03521E-001	3.57960E+000	9	...........
	13	0.186667	3.17330E-001	1.00004E-004	0.00000E+000	3.17343E-005	5.99601E-002	3.17392E-001	3.57960E+000	9	...........
	14	0.2	3.31192E-001	1.00738E-004	0.00000E+000	3.33635E-005	5.99601E-002	3.31258E-001	3.57960E+000	9	...........
	15	0.213333	3.45057E-001	1.01354E-004	0.00000E+000	3.49730E-005	5.99601E-002	3.45123E-001	3.57960E+000	9	...........
	16	0.226667	3.58909E-001	1.01234E-004	0.00000E+000	3.63336E-005	5.99601E-002	3.58981E-001	3.57960E+000	9	...........
	17	0.24	3.72745E-001	1.01327E-004	0.00000E+000	3.77693E-005	5.99601E-002	3.72820E-001	3.57960E+000	9	...........
	18	0.253333	3.86550E-001	1.01360E-004	0.00000E+000	3.91805E-005	5.99601E-002	3.86627E-001	3.57960E+000	9	...........
	19	0.266667	4.00318E-001	1.00002E-004	0.00000E+000	4.00326E-005	5.99601E-002	4.00392E-001	3.57960E+000	9	...........
	20	0.28	4.14021E-001	1.01579E-004	0.00000E+000	4.20560E-005	5.99601E-002	4.14101E-001	3.57960E+000	9	...........
	21	0.293333	4.27649E-001	1.00326E-004	0.00000E+000	4.29043E-005	5.99601E-002	4.27738E-001	3.57960E+000	9	...........
	22	0.306667	4.41189E-001	1.02118E-004	0.00000E+000	4.50533E-005	5.99601E-002	4.41286E-001	3.57960E+000	9	...........
	23	0.32	4.54613E-001	1.01185E-004	0.00000E+000	4.59998E-005	5.99601E-002	4.54704E-001	3.57960E+000	9	...........
	24	0.333333	4.67897E-001	1.00610E-004	0.00000E+000	4.70754E-005	5.99601E-002	4.67996E-001	3.57960E+000	9	...........
	25	0.346667	4.81043E-001	1.01444E-004	0.00000E+000	4.87989E-005	5.99601E-002	4.81145E-001	3.57960E+000	9	...........
	26	0.36	4.94011E-001	1.01215E-004	0.00000E+000	5.00012E-005	5.99601E-002	4.94117E-001	3.57960E+000	9	...........
	27	0.373333	5.06799E-001	1.00279E-004	0.00000E+000	5.08214E-005	5.99601E-002	5.06911E-001	3.57960E+000	9	...........
	28	0.386667	5.19397E-001	1.00247E-004	0.00000E+000	5.20679E-005	5.99601E-002	5.19512E-001	3.57960E+000	9	...........
	29	0.4	5.31692E-001	1.00597E-004	0.00000E+000	5.34866E-005	5.99601E-002	5.31814E-001	3.57960E+000	9	...........
	30	0.413333	5.43607E-001	1.01358E-004	0.00000E+000	5.50987E-005	5.99601E-002	5.43870E-001	3.57960E+000	9	...........
	31	0.426667	5.55573E-001	1.01119E-004	0.00000E+000	5.61789E-005	5.99601E-002	5.55835E-001	3.57960E+000	9	...........
	32	0.44	5.67312E-001	1.00863E-004	0.00000E+000	5.72206E-005	5.99601E-002	5.67591E-001	3.57960E+000	9	...........
	33	0.453333	5.78839E-001	1.00791E-004	0.00000E+000	5.83416E-005	5.99601E-002	5.79126E-001	3.57960E+000	9	...........
	34	0.466667	5.90136E-001	1.00675E-004	0.00000E+000	5.94120E-005	5.99601E-002	5.90432E-001	3.57960E+000	9	...........
	35	0.48	6.01200E-001	1.00184E-004	0.00000E+000	6.02308E-005	5.99601E-002	6.01526E-001	3.57960E+000	9	...........
	36	0.493333	6.12108E-001	1.01335E-004	0.00000E+000	6.20277E-005	5.99601E-002	6.12391E-001	3.57960E+000	9	...........
	37	0.506667	6.22764E-001	1.00330E-004	0.00000E+000	6.24820E-005	5.99601E-002	6.23026E-001	3.57960E+000	9	...........
	38	0.52	6.33188E-001	1.00694E-004	0.00000E+000	6.37581E-005	5.99601E-002	6.33462E-001	3.57960E+000	9	...........
	39	0.533333	6.43424E-001	1.01403E-004	0.00000E+000	6.52454E-005	5.99601E-002	6.43708E-001	3.57960E+000	9	...........
	40	0.546667	6.53457E-001	1.00406E-004	0.00000E+000	6.56111E-005	5.99601E-002	6.53709E-001	3.57960E+000	9	...........
	41	0.56	6.63303E-001	1.00470E-004	0.00000E+000	6.66419E-005	5.99601E-002	6.63573E-001	3.57960E+000	9	...........
	42	0.573333	6.72929E-001	1.00694E-004	0.00000E+000	6.77598E-005	5.99601E-002	6.73209E-001	3.57960E+000	9	...........
	43	0.586667	6.82337E-001	1.01888E-004	0.00000E+000	6.95219E-005	5.99601E-002	6.82637E-001	3.57960E+000	9	...........
	44	0.6	6.91608E-001	1.01820E-004	0.00000E+000	7.04196E-005	5.99601E-002	6.91892E-001	3.57960E+000	9	...........
	45	0.613333	7.00669E-001	1.00416E-004	0.00000E+000	7.03581E-005	5.99601E-002	7.00961E-001	3.58020E+000	9	...........
	46	0.626667	7.09541E-001	9.97718E-005	0.00000E+000	7.07922E-005	5.99601E-002	7.09845E-001	3.58080E+000	9	...........
	47	0.64	7.18276E-001	1.01318E-004	0.00000E+000	7.27742E-005	5.99601E-002	7.18559E-001	3.58080E+000	9	...........
	48	0.653333	7.26843E-001	1.00290E-004	0.00000E+000	7.28947E-005	5.99601E-002	7.27129E-001	3.58080E+000	9	...........
	49	0.666667	7.35197E-001	1.01474E-004	0.00000E+000	7.46035E-005	5.99601E-002	7.35490E-001	3.58080E+000	9	...........
	50	0.68	7.43445E-001	1.00983E-004	0.00000E+000	7.50756E-005	5.99601E-002	7.43751E-001	3.58080E+000	9	...........
	51	0.693333	7.51502E-001	1.00336E-004	0.00000E+000	7.54030E-005	5.99601E-002	7.51820E-001	3.58080E+000	9	...........
	52	0.706667	7.59443E-001	1.01539E-004	0.00000E+000	7.71130E-005	5.99601E-002	7.59737E-001	3.58080E+000	9	...........
	53	0.72	7.67223E-001	1.00488E-004	0.00000E+000	7.70963E-005	5.99601E-002	7.67542E-001	3.58080E+000	9	...........
	54	0.733333	7.74842E-001	1.01521E-004	0.00000E+000	7.86627E-005	5.99601E-002	7.75176E-001	3.58080E+000	9	...........
	55	0.746667	7.82339E-001	1.01036E-004	0.00000E+000	7.90441E-005	5.99601E-002	7.82656E-001	3.58080E+000	9	...........
	56	0.76	7.89701E-001	1.00310E-004	0.00000E+000	7.92152E-005	5.99601E-002	7.89997E-001	3.58080E+000	9	...........
	57	0.773333	7.96968E-001	1.01366E-004	0.00000E+000	8.07854E-005	5.99601E-002	7.97235E-001	3.58080E+000	9	...........
	58	0.786667	8.04037E-001	1.01504E-004	0.00000E+000	8.16133E-005	5.99601E-002	8.04340E-001	3.58080E+000	9	...........
	59	0.8	8.10987E-001	1.00558E-004	0.00000E+000	8.15516E-005	5.99601E-002	8.11305E-001	3.58080E+000	9	...........
	60	0.813333	8.17834E-001	1.01582E-004	0.00000E+000	8.30768E-005	5.99601E-002	8.18148E-001	3.58080E+000	9	...........
	61	0.826667	8.24582E-001	1.01163E-004	0.00000E+000	8.34170E-005	5.99601E-002	8.24893E-001	3.58080E+000	9	...........
	62	0.84	8.31171E-001	1.01162E-004	0.00000E+000	8.40826E-005	5.99601E-002	8.31493E-001	3.58080E+000	9	...........
	63	0.853333	8.37664E-001	9.98509E-005	0.00000E+000	8.36415E-005	5.99601E-002	8.38021E-001	3.58080E+000	9	...........
	64	0.866667	8.44070E-001	1.00420E-004	0.00000E+000	8.47613E-005	5.99601E-002	8.44419E-001	3.58080E+000	9	...........
	65	0.88	8.50361E-001	1.00357E-004	0.00000E+000	8.53399E-005	5.99601E-002	8.50719E-001	3.58080E+000	9	...........
	66	0.893333	8.56553E-001	1.00445E-004	0.00000E+000	8.60363E-005	5.99601E-002	8.56916E-001	3.58080E+000	9	...........
	67	0.906667	8.62637E-001	1.01590E-004	0.00000E+000	8.76351E-005	5.99601E-002	8.62982E-001	3.58080E+000	9	...........
	68	0.92	8.68627E-001	1.01517E-004	0.00000E+000	8.81804E-005	5.99601E-002	8.69002E-001	3.58080E+000	9	...........
	69	0.933333	8.74511E-001	1.00900E-004	0.00000E+000	8.82382E-005	5.99601E-002	8.74889E-001	3.58080E+000	9	...........
	70	0.946667	8.80268E-001	1.00410E-004	0.00000E+000	8.83881E-005	5.99601E-002	8.80649E-001	3.58080E+000	9	...........
	71	0.96	8.85959E-001	1.01380E-004	0.00000E+000	8.98189E-005	5.99601E-002	8.86347E-001	3.58080E+000	9	...........
	72	0.97333	8.91548E-001	1.00602E-004	0.00000E+000	8.96917E-005	5.99601E-002	8.91908E-001	3.58080E+000	9	...........
	73	0.98667	8.97038E-001	1.01019E-004	0.00000E+000	9.06178E-005	5.99601E-002	8.97420E-001	3.58080E+000	9	...........
	74	1	9.02427E-001	1.00644E-004	0.00000E+000	9.08237E-005	5.99601E-002	9.02804E-001	3.58080E+000	9	...........
	75	1.01333	9.07746E-001	1.00292E-004	0.00000E+000	9.10393E-005	5.99601E-002	9.08112E-001	3.58080E+000	9	...........
	76	1.02667	9.12955E-001	1.00477E-004	0.00000E+000	9.17311E-005	5.99601E-002	9.13338E-001	3.58080E+000	9	...........
	77	1.04	9.18064E-001	1.00299E-004	0.00000E+000	9.20809E-005	5.99601E-002	9.18475E-001	3.58080E+000	9	...........
	78	1.05333	9.23180E-001	1.01107E-004	0.00000E+000	9.33404E-005	5.99601E-002	9.23510E-001	3.58080E+000	9	...........
	79	1.06667	9.28106E-001	1.01573E-004	0.00000E+000	9.42706E-005	5.99601E-002	9.28477E-001	3.58080E+000	9	...........
	80	1.08	9.32979E-001	1.00893E-004	0.00000E+000	9.41309E-005	5.99601E-002	9.33336E-001	3.58080E+000	9	...........
	81	1.09333	9.37741E-001	1.00382E-004	0.00000E+000	9.41326E-005	5.99601E-002	9.38099E-001	3.58080E+000	9	...........
	82	1.10667	9.42417E-001	1.01151E-004	0.00000E+000	9.53266E-005	5.99601E-002	9.42798E-001	3.58080E+000	9	...........
	83	1.12	9.47053E-001	1.01756E-004	0.00000E+000	9.63678E-005	5.99601E-002	9.47419E-001	3.58080E+000	9	...........
	84	1.13333	9.51589E-001	1.00431E-004	0.00000E+000	9.55693E-005	5.99601E-002	9.51924E-001	3.58080E+000	9	...........
	85	1.14667	9.56015E-001	1.00069E-004	0.00000E+000	9.56672E-005	5.99601E-002	9.56354E-001	3.58080E+000	9	...........
	86	1.16	9.60356E-001	1.00868E-004	0.00000E+000	9.68691E-005	5.99601E-002	9.60740E-001	3.58080E+000	9	...........
	87	1.17333	9.64618E-001	1.00424E-004	0.00000E+000	9.68708E-005	5.99601E-002	9.65008E-001	3.58080E+000	9	...........
	88	1.18667	9.68827E-001	1.00863E-004	0.00000E+000	9.77184E-005	5.99601E-002	9.69211E-001	3.58080E+000	9	...........
	89	1.2	9.72951E-001	1.00904E-004	0.00000E+000	9.81749E-005	5.99601E-002	9.73341E-001	3.58080E+000	9	...........
	90	1.21333	9.76982E-001	1.01497E-004	0.00000E+000	9.91609E-005	5.99601E-002	9.77347E-001	3.58080E+000	9	...........
	91	1.22667	9.80924E-001	1.00627E-004	0.00000E+000	9.87076E-005	5.99601E-002	9.81305E-001	3.58080E+000	9	...........
	92	1.24	9.84795E-001	1.00503E-004	0.00000E+000	9.89750E-005	5.99601E-002	9.85179E-001	3.58080E+000	9	...........
	93	1.25333	9.88593E-001	1.01081E-004	0.00000E+000	9.99284E-005	5.99601E-002	9.88987E-001	3.58080E+000	9	...........
	94	1.26667	9.92304E-001	1.00430E-004	0.00000E+000	9.96574E-005	5.99601E-002	9.92700E-001	3.58080E+000	9	...........
	95	1.28	9.95925E-001	1.00715E-004	0.00000E+000	1.00304E-004	5.99601E-002	9.96341E-001	3.58080E+000	9	...........
	96	1.29	9.99084E-001	1.00137E-004	0.00000E+000	1.00045E-004	5.99601E-002	9.99477E-001	3.58080E+000	9	...........
STARTTIMEOFFSET	QUANT	403.8199	Start Time Offset (s)
