EXPLAIN
TAG	PWR800_CHARGE
TITLE	LABEL	PWR Cyclic Charge Discharge (Cell) - Charge Step	Test &Identifier
DATE	LABEL	13-7-2017	Date
TIME	LABEL	15:39:26	Time
NOTES	NOTES	2	&Notes...
	supercap test cell
	6M KOH
PSTAT	PSTAT	IFC5000-01520	Potentiostat
CAPACITY	QUANT	1.00000E-003	Capacity (A-hr)
CELLTYPE	SELECTOR	1	&Cell Type
WORKINGCONNECTION	SELECTOR	0	&Working Lead
MAXCHARGETIME	VARIABLEANDUNITS	1.00000E+002	s	1.00000E+002	second(s)	Max &Charge Time
CHARGECURRENT	QUANT	1.00000E-004	&Charge Current (A) 
VOLTAGEFINISH	TWOPARAM	F	1.00000E-003	3.60000E+003	&Voltage Finish	 I (A) < 	Max Time(s)
SAMPLETIME	QUANT	1.00000E-002	Sa&mple Period (s)
CHARGESTOPAT1	MULTIPARAM	4	1.00000E+000	Charge Stop At &1	Voltage > Limit	V
CHARGESTOPAT2	MULTIPARAM	0	0.00000E+000	Charge Stop At &2	None	N/A
AESBHCSELECTOR	TOGGLE	F	Save Both Half Cells
IRCOMP	TOGGLE	F	IR &Measure
EOC	QUANT	0	Open Circuit (V)
SEQUENCER	TOGGLE	TRUE	Run as Sequence
PSTATMODEL	IQUANT	53	Pstat Model
PSTATSECTION	LABEL	IFC5000-01520	Pstat Section
PSTATSERIALNO	LABEL	01520	Pstat Serial Number
CTRLMODE	IQUANT	0	Control Mode
ELECTROMETER	IQUANT	1	RE=0 or CS=1
IESTAB	IQUANT	0	I/E Stability
CASPEED	IQUANT	4	Control Amp Speed
CONVENTION	IQUANT	1	Current Convention
ICHRANGE	IQUANT	2	Ich Range
ICHRANGEMODE	TOGGLE	T	Ich Auto Range
ICHOFFSETENABLE	TOGGLE	F	Ich Offset Enable
ICHOFFSET	QUANT	0	Ich Offset (V)
ICHFILTER	IQUANT	1	Ich Filter
VCHRANGE	IQUANT	2	Vch Range
VCHRANGEMODE	TOGGLE	T	Vch Auto Range
VCHOFFSETENABLE	TOGGLE	F	Vch Offset Enable
VCHOFFSET	QUANT	0	Vch Offset (V)
VCHFILTER	IQUANT	1	Vch Filter
IERANGELOWERLIMIT	IQUANT	9	I/E Range Lower Limit
IERANGEMODE	TOGGLE	F	I/E AutoRange
IERANGE	IQUANT	9	I/E Range
ACHSELECT	IQUANT	1	Ach Select
ACHRANGE	IQUANT	2	Ach Range
ACHOFFSETENABLE	TOGGLE	F	Ach Offset Enable
ACHOFFSET	QUANT	0	Ach Offset (V)
ACHFILTER	IQUANT	1	Ach Filter
CABLEID	IQUANT	14	Cable ID
DCCALDATE	LABEL	5-7-2017	DC Calibration Date
ACCALDATE	LABEL	12/3/2015	AC Calibration Date
FRAMEWORKVERSION	QUANT	7.01	Framework Version
INSTRUMENTVERSION	LABEL	4.00	Instrument Version
CURVE	TABLE	91
	Pt	T	Vf	Im	Vu	Pwr	Sig	Ach	Temp	IERange	Over
	#	s	V	A	V	W	V	V	deg C	#	bits
	0	0.013333	1.33660E-001	1.01605E-004	0.00000E+000	1.35805E-005	5.99601E-002	1.33701E-001	3.57850E+000	9	...........
	1	0.026667	1.48952E-001	1.00364E-004	0.00000E+000	1.49494E-005	5.99601E-002	1.48975E-001	3.57850E+000	9	...........
	2	0.04	1.63802E-001	1.00627E-004	0.00000E+000	1.64829E-005	5.99601E-002	1.63829E-001	3.57850E+000	9	...........
	3	0.053333	1.78387E-001	1.00211E-004	0.00000E+000	1.78765E-005	5.99601E-002	1.78412E-001	3.57850E+000	9	...........
	4	0.066667	1.92772E-001	1.00676E-004	0.00000E+000	1.94076E-005	5.99601E-002	1.92803E-001	3.57850E+000	9	...........
	5	0.08	2.07026E-001	1.00724E-004	0.00000E+000	2.08525E-005	5.99601E-002	2.07054E-001	3.57850E+000	9	...........
	6	0.093333	2.21171E-001	1.00225E-004	0.00000E+000	2.21668E-005	5.99601E-002	2.21202E-001	3.57850E+000	9	...........
	7	0.106667	2.35251E-001	9.99780E-005	0.00000E+000	2.35199E-005	5.99601E-002	2.35287E-001	3.57850E+000	9	...........
	8	0.12	2.49279E-001	1.00827E-004	0.00000E+000	2.51341E-005	5.99601E-002	2.49326E-001	3.57850E+000	9	...........
	9	0.133333	2.63283E-001	1.00659E-004	0.00000E+000	2.65019E-005	5.99601E-002	2.63326E-001	3.57850E+000	9	...........
	10	0.146667	2.77278E-001	1.00162E-004	0.00000E+000	2.77729E-005	5.99601E-002	2.77328E-001	3.57850E+000	9	...........
	11	0.16	2.91277E-001	1.01371E-004	0.00000E+000	2.95270E-005	5.99601E-002	2.91328E-001	3.57850E+000	9	...........
	12	0.173333	3.05280E-001	1.00571E-004	0.00000E+000	3.07023E-005	5.99601E-002	3.05340E-001	3.57850E+000	9	...........
	13	0.186667	3.19319E-001	1.01086E-004	0.00000E+000	3.22785E-005	5.99601E-002	3.19372E-001	3.57850E+000	9	...........
	14	0.2	3.33363E-001	1.01274E-004	0.00000E+000	3.37611E-005	5.99601E-002	3.33425E-001	3.57850E+000	9	...........
	15	0.213333	3.47443E-001	1.00728E-004	0.00000E+000	3.49973E-005	5.99601E-002	3.47507E-001	3.57850E+000	9	...........
	16	0.226667	3.61543E-001	1.00617E-004	0.00000E+000	3.63773E-005	5.99601E-002	3.61611E-001	3.57850E+000	9	...........
	17	0.24	3.75652E-001	1.00919E-004	0.00000E+000	3.79104E-005	5.99601E-002	3.75723E-001	3.57850E+000	9	...........
	18	0.253333	3.89776E-001	1.00863E-004	0.00000E+000	3.93138E-005	5.99601E-002	3.89848E-001	3.57850E+000	9	...........
	19	0.266667	4.03889E-001	1.01531E-004	0.00000E+000	4.10074E-005	5.99601E-002	4.03968E-001	3.57850E+000	9	...........
	20	0.28	4.17972E-001	1.01692E-004	0.00000E+000	4.25044E-005	5.99601E-002	4.18059E-001	3.57850E+000	9	...........
	21	0.293333	4.32015E-001	1.01563E-004	0.00000E+000	4.38766E-005	5.99601E-002	4.32102E-001	3.57850E+000	9	...........
	22	0.306667	4.45994E-001	1.01215E-004	0.00000E+000	4.51412E-005	5.99601E-002	4.46081E-001	3.57850E+000	9	...........
	23	0.32	4.59879E-001	1.01172E-004	0.00000E+000	4.65269E-005	5.99601E-002	4.59972E-001	3.57850E+000	9	...........
	24	0.333333	4.73661E-001	1.01201E-004	0.00000E+000	4.79351E-005	5.99601E-002	4.73753E-001	3.57850E+000	9	...........
	25	0.346667	4.87317E-001	1.00725E-004	0.00000E+000	4.90851E-005	5.99601E-002	4.87412E-001	3.57850E+000	9	...........
	26	0.36	5.00814E-001	1.00552E-004	0.00000E+000	5.03579E-005	5.99601E-002	5.00918E-001	3.57850E+000	9	...........
	27	0.373333	5.14146E-001	1.01538E-004	0.00000E+000	5.22053E-005	5.99601E-002	5.14254E-001	3.57850E+000	9	...........
	28	0.386667	5.27290E-001	1.01190E-004	0.00000E+000	5.33564E-005	5.99601E-002	5.27396E-001	3.57850E+000	9	...........
	29	0.4	5.39925E-001	1.00650E-004	0.00000E+000	5.43435E-005	5.99601E-002	5.40149E-001	3.57850E+000	9	...........
	30	0.413333	5.52614E-001	1.01500E-004	0.00000E+000	5.60905E-005	5.99601E-002	5.52879E-001	3.57850E+000	9	...........
	31	0.426667	5.65164E-001	1.01252E-004	0.00000E+000	5.72241E-005	5.99601E-002	5.65444E-001	3.57850E+000	9	...........
	32	0.44	5.77460E-001	1.00800E-004	0.00000E+000	5.82080E-005	5.99601E-002	5.77725E-001	3.57850E+000	9	...........
	33	0.453333	5.89517E-001	1.01106E-004	0.00000E+000	5.96039E-005	5.99601E-002	5.89786E-001	3.57850E+000	9	...........
	34	0.466667	6.01322E-001	1.00100E-004	0.00000E+000	6.01923E-005	5.99601E-002	6.01626E-001	3.57880E+000	9	...........
	35	0.48	6.12954E-001	1.00603E-004	0.00000E+000	6.16651E-005	5.99601E-002	6.13217E-001	3.57880E+000	9	...........
	36	0.493333	6.24358E-001	1.01095E-004	0.00000E+000	6.31195E-005	5.99601E-002	6.24598E-001	3.57880E+000	9	...........
	37	0.506667	6.35491E-001	1.00196E-004	0.00000E+000	6.36736E-005	5.99601E-002	6.35746E-001	3.57880E+000	9	...........
	38	0.52	6.46428E-001	1.00447E-004	0.00000E+000	6.49317E-005	5.99601E-002	6.46694E-001	3.57880E+000	9	...........
	39	0.533333	6.57138E-001	1.02187E-004	0.00000E+000	6.71509E-005	5.99601E-002	6.57393E-001	3.57880E+000	9	...........
	40	0.546667	6.67631E-001	1.00209E-004	0.00000E+000	6.69028E-005	5.99601E-002	6.67899E-001	3.57880E+000	9	...........
	41	0.56	6.77933E-001	1.01287E-004	0.00000E+000	6.86656E-005	5.99601E-002	6.78198E-001	3.57880E+000	9	...........
	42	0.573333	6.87984E-001	1.00791E-004	0.00000E+000	6.93425E-005	5.99601E-002	6.88283E-001	3.57880E+000	9	...........
	43	0.586667	6.97877E-001	9.99687E-005	0.00000E+000	6.97658E-005	5.99601E-002	6.98142E-001	3.57880E+000	9	...........
	44	0.6	7.07528E-001	1.00607E-004	0.00000E+000	7.11825E-005	5.99601E-002	7.07810E-001	3.57880E+000	9	...........
	45	0.613333	7.17041E-001	1.00701E-004	0.00000E+000	7.22069E-005	5.99601E-002	7.17321E-001	3.57880E+000	9	...........
	46	0.626667	7.26355E-001	1.01050E-004	0.00000E+000	7.33983E-005	5.99601E-002	7.26630E-001	3.57880E+000	9	...........
	47	0.64	7.35447E-001	1.00813E-004	0.00000E+000	7.41423E-005	5.99601E-002	7.35735E-001	3.57880E+000	9	...........
	48	0.653333	7.44400E-001	1.00826E-004	0.00000E+000	7.50550E-005	5.99601E-002	7.44704E-001	3.57880E+000	9	...........
	49	0.666667	7.53171E-001	1.01255E-004	0.00000E+000	7.62626E-005	5.99601E-002	7.53415E-001	3.57880E+000	9	...........
	50	0.68	7.61764E-001	1.01510E-004	0.00000E+000	7.73264E-005	5.99601E-002	7.62010E-001	3.57880E+000	9	...........
	51	0.693333	7.70195E-001	1.00411E-004	0.00000E+000	7.73364E-005	5.99601E-002	7.70437E-001	3.57880E+000	9	...........
	52	0.706667	7.78453E-001	1.01018E-004	0.00000E+000	7.86376E-005	5.99601E-002	7.78712E-001	3.57880E+000	9	...........
	53	0.72	7.86550E-001	1.01232E-004	0.00000E+000	7.96244E-005	5.99601E-002	7.86817E-001	3.57880E+000	9	...........
	54	0.733333	7.94531E-001	1.00854E-004	0.00000E+000	8.01319E-005	5.99601E-002	7.94805E-001	3.57880E+000	9	...........
	55	0.746667	8.02337E-001	1.01630E-004	0.00000E+000	8.15419E-005	5.99601E-002	8.02617E-001	3.57880E+000	9	...........
	56	0.76	8.09980E-001	9.99791E-005	0.00000E+000	8.09810E-005	5.99601E-002	8.10271E-001	3.57880E+000	9	...........
	57	0.773333	8.17492E-001	1.01277E-004	0.00000E+000	8.27934E-005	5.99601E-002	8.17820E-001	3.57880E+000	9	...........
	58	0.786667	8.24891E-001	9.99593E-005	0.00000E+000	8.24556E-005	5.99601E-002	8.25215E-001	3.57880E+000	9	...........
	59	0.8	8.32118E-001	1.01057E-004	0.00000E+000	8.40917E-005	5.99601E-002	8.32445E-001	3.57880E+000	9	...........
	60	0.813333	8.39248E-001	1.00535E-004	0.00000E+000	8.43742E-005	5.99601E-002	8.39561E-001	3.57880E+000	9	...........
	61	0.826667	8.46252E-001	1.00446E-004	0.00000E+000	8.50025E-005	5.99601E-002	8.46572E-001	3.57880E+000	9	...........
	62	0.84	8.53105E-001	1.00510E-004	0.00000E+000	8.57460E-005	5.99601E-002	8.53434E-001	3.57880E+000	9	...........
	63	0.853333	8.59830E-001	1.00656E-004	0.00000E+000	8.65474E-005	5.99601E-002	8.60162E-001	3.57880E+000	9	...........
	64	0.866667	8.66432E-001	1.01130E-004	0.00000E+000	8.76226E-005	5.99601E-002	8.66776E-001	3.57880E+000	9	...........
	65	0.88	8.72982E-001	1.01485E-004	0.00000E+000	8.85942E-005	5.99601E-002	8.73309E-001	3.57880E+000	9	...........
	66	0.893333	8.79345E-001	1.00924E-004	0.00000E+000	8.87471E-005	5.99601E-002	8.79668E-001	3.57880E+000	9	...........
	67	0.906667	8.85649E-001	1.00271E-004	0.00000E+000	8.88047E-005	5.99601E-002	8.85935E-001	3.57880E+000	9	...........
	68	0.92	8.91784E-001	1.01032E-004	0.00000E+000	9.00991E-005	5.99601E-002	8.92138E-001	3.57880E+000	9	...........
	69	0.933333	8.97831E-001	1.00070E-004	0.00000E+000	8.98457E-005	5.99601E-002	8.98167E-001	3.57880E+000	9	...........
	70	0.946667	9.03772E-001	1.00415E-004	0.00000E+000	9.07519E-005	5.99601E-002	9.04112E-001	3.57880E+000	9	...........
	71	0.96	9.09615E-001	1.00544E-004	0.00000E+000	9.14562E-005	5.99601E-002	9.09937E-001	3.57880E+000	9	...........
	72	0.97333	9.15336E-001	1.01093E-004	0.00000E+000	9.25339E-005	5.99601E-002	9.15672E-001	3.57880E+000	9	...........
	73	0.98667	9.20992E-001	1.01026E-004	0.00000E+000	9.30443E-005	5.99601E-002	9.21294E-001	3.57880E+000	9	...........
	74	1	9.26529E-001	1.01089E-004	0.00000E+000	9.36616E-005	5.99601E-002	9.26858E-001	3.57880E+000	9	...........
	75	1.01333	9.31930E-001	1.00376E-004	0.00000E+000	9.35434E-005	5.99601E-002	9.32262E-001	3.57880E+000	9	...........
	76	1.02667	9.37225E-001	1.00625E-004	0.00000E+000	9.43084E-005	5.99601E-002	9.37593E-001	3.57880E+000	9	...........
	77	1.04	9.42435E-001	1.00762E-004	0.00000E+000	9.49612E-005	5.99601E-002	9.42781E-001	3.57880E+000	9	...........
	78	1.05333	9.47548E-001	1.00670E-004	0.00000E+000	9.53895E-005	5.99601E-002	9.47918E-001	3.57880E+000	9	...........
	79	1.06667	9.52586E-001	1.01257E-004	0.00000E+000	9.64565E-005	5.99601E-002	9.52920E-001	3.57880E+000	9	...........
	80	1.08	9.57465E-001	1.00216E-004	0.00000E+000	9.59530E-005	5.99601E-002	9.57835E-001	3.57880E+000	9	...........
	81	1.09333	9.62270E-001	1.01664E-004	0.00000E+000	9.78280E-005	5.99601E-002	9.62650E-001	3.57880E+000	9	...........
	82	1.10667	9.66991E-001	1.00634E-004	0.00000E+000	9.73126E-005	5.99601E-002	9.67353E-001	3.57880E+000	9	...........
	83	1.12	9.71614E-001	1.00666E-004	0.00000E+000	9.78082E-005	5.99601E-002	9.71996E-001	3.57880E+000	9	...........
	84	1.13333	9.76180E-001	1.00507E-004	0.00000E+000	9.81132E-005	5.99601E-002	9.76530E-001	3.57880E+000	9	...........
	85	1.14667	9.80608E-001	1.01061E-004	0.00000E+000	9.91008E-005	5.99601E-002	9.80960E-001	3.57880E+000	9	...........
	86	1.16	9.84930E-001	1.01419E-004	0.00000E+000	9.98906E-005	5.99601E-002	9.85325E-001	3.57880E+000	9	...........
	87	1.17333	9.89191E-001	1.01323E-004	0.00000E+000	1.00228E-004	5.99601E-002	9.89570E-001	3.57880E+000	9	...........
	88	1.18667	9.93340E-001	1.00373E-004	0.00000E+000	9.97044E-005	5.99601E-002	9.93694E-001	3.57880E+000	9	...........
	89	1.2	9.97424E-001	1.00231E-004	0.00000E+000	9.99730E-005	5.99601E-002	9.97782E-001	3.57880E+000	9	...........
	90	1.20333	9.99911E-001	9.93144E-005	0.00000E+000	9.93055E-005	5.99601E-002	1.00026E+000	3.57880E+000	9	...........
STARTTIMEOFFSET	QUANT	1692.396	Start Time Offset (s)
