EXPLAIN
TAG	PWR800_CHARGE
TITLE	LABEL	PWR Cyclic Charge Discharge (Cell) - Charge Step	Test &Identifier
DATE	LABEL	13-7-2017	Date
TIME	LABEL	15:47:22	Time
NOTES	NOTES	2	&Notes...
	supercap test cell
	6M KOH
PSTAT	PSTAT	IFC5000-01520	Potentiostat
CAPACITY	QUANT	1.00000E-003	Capacity (A-hr)
CELLTYPE	SELECTOR	1	&Cell Type
WORKINGCONNECTION	SELECTOR	0	&Working Lead
MAXCHARGETIME	VARIABLEANDUNITS	1.00000E+002	s	1.00000E+002	second(s)	Max &Charge Time
CHARGECURRENT	QUANT	1.00000E-004	&Charge Current (A) 
VOLTAGEFINISH	TWOPARAM	F	1.00000E-003	3.60000E+003	&Voltage Finish	 I (A) < 	Max Time(s)
SAMPLETIME	QUANT	1.00000E-002	Sa&mple Period (s)
CHARGESTOPAT1	MULTIPARAM	4	1.00000E+000	Charge Stop At &1	Voltage > Limit	V
CHARGESTOPAT2	MULTIPARAM	0	0.00000E+000	Charge Stop At &2	None	N/A
AESBHCSELECTOR	TOGGLE	F	Save Both Half Cells
IRCOMP	TOGGLE	F	IR &Measure
EOC	QUANT	0	Open Circuit (V)
SEQUENCER	TOGGLE	TRUE	Run as Sequence
PSTATMODEL	IQUANT	53	Pstat Model
PSTATSECTION	LABEL	IFC5000-01520	Pstat Section
PSTATSERIALNO	LABEL	01520	Pstat Serial Number
CTRLMODE	IQUANT	0	Control Mode
ELECTROMETER	IQUANT	1	RE=0 or CS=1
IESTAB	IQUANT	0	I/E Stability
CASPEED	IQUANT	4	Control Amp Speed
CONVENTION	IQUANT	1	Current Convention
ICHRANGE	IQUANT	2	Ich Range
ICHRANGEMODE	TOGGLE	T	Ich Auto Range
ICHOFFSETENABLE	TOGGLE	F	Ich Offset Enable
ICHOFFSET	QUANT	0	Ich Offset (V)
ICHFILTER	IQUANT	1	Ich Filter
VCHRANGE	IQUANT	2	Vch Range
VCHRANGEMODE	TOGGLE	T	Vch Auto Range
VCHOFFSETENABLE	TOGGLE	F	Vch Offset Enable
VCHOFFSET	QUANT	0	Vch Offset (V)
VCHFILTER	IQUANT	1	Vch Filter
IERANGELOWERLIMIT	IQUANT	9	I/E Range Lower Limit
IERANGEMODE	TOGGLE	F	I/E AutoRange
IERANGE	IQUANT	9	I/E Range
ACHSELECT	IQUANT	1	Ach Select
ACHRANGE	IQUANT	2	Ach Range
ACHOFFSETENABLE	TOGGLE	F	Ach Offset Enable
ACHOFFSET	QUANT	0	Ach Offset (V)
ACHFILTER	IQUANT	1	Ach Filter
CABLEID	IQUANT	14	Cable ID
DCCALDATE	LABEL	5-7-2017	DC Calibration Date
ACCALDATE	LABEL	12/3/2015	AC Calibration Date
FRAMEWORKVERSION	QUANT	7.01	Framework Version
INSTRUMENTVERSION	LABEL	4.00	Instrument Version
CURVE	TABLE	90
	Pt	T	Vf	Im	Vu	Pwr	Sig	Ach	Temp	IERange	Over
	#	s	V	A	V	W	V	V	deg C	#	bits
	0	0.013333	1.34289E-001	1.00665E-004	0.00000E+000	1.35181E-005	5.99601E-002	1.34337E-001	3.57850E+000	9	...........
	1	0.026667	1.49551E-001	1.00768E-004	0.00000E+000	1.50699E-005	5.99601E-002	1.49571E-001	3.57850E+000	9	...........
	2	0.04	1.64378E-001	1.00796E-004	0.00000E+000	1.65686E-005	5.99601E-002	1.64403E-001	3.57850E+000	9	...........
	3	0.053333	1.78937E-001	1.00703E-004	0.00000E+000	1.80195E-005	5.99601E-002	1.78968E-001	3.57850E+000	9	...........
	4	0.066667	1.93313E-001	1.00750E-004	0.00000E+000	1.94763E-005	5.99601E-002	1.93344E-001	3.57850E+000	9	...........
	5	0.08	2.07546E-001	1.00878E-004	0.00000E+000	2.09369E-005	5.99601E-002	2.07576E-001	3.57850E+000	9	...........
	6	0.093333	2.21677E-001	1.00491E-004	0.00000E+000	2.22765E-005	5.99601E-002	2.21712E-001	3.57850E+000	9	...........
	7	0.106667	2.35742E-001	1.00240E-004	0.00000E+000	2.36307E-005	5.99601E-002	2.35780E-001	3.57850E+000	9	...........
	8	0.12	2.49765E-001	1.00890E-004	0.00000E+000	2.51987E-005	5.99601E-002	2.49811E-001	3.57850E+000	9	...........
	9	0.133333	2.63759E-001	1.00394E-004	0.00000E+000	2.64798E-005	5.99601E-002	2.63807E-001	3.57850E+000	9	...........
	10	0.146667	2.77747E-001	9.98801E-005	0.00000E+000	2.77414E-005	5.99601E-002	2.77797E-001	3.57850E+000	9	...........
	11	0.16	2.91750E-001	1.00909E-004	0.00000E+000	2.94404E-005	5.99601E-002	2.91798E-001	3.57850E+000	9	...........
	12	0.173333	3.05759E-001	9.99593E-005	0.00000E+000	3.05634E-005	5.99601E-002	3.05807E-001	3.57850E+000	9	...........
	13	0.186667	3.19791E-001	1.01318E-004	0.00000E+000	3.24005E-005	5.99601E-002	3.19844E-001	3.57850E+000	9	...........
	14	0.2	3.33839E-001	1.00517E-004	0.00000E+000	3.35564E-005	5.99601E-002	3.33896E-001	3.57850E+000	9	...........
	15	0.213333	3.47918E-001	1.00345E-004	0.00000E+000	3.49118E-005	5.99601E-002	3.47974E-001	3.57850E+000	9	...........
	16	0.226667	3.62019E-001	1.00893E-004	0.00000E+000	3.65251E-005	5.99601E-002	3.62083E-001	3.57850E+000	9	...........
	17	0.24	3.76145E-001	1.01169E-004	0.00000E+000	3.80542E-005	5.99601E-002	3.76211E-001	3.57850E+000	9	...........
	18	0.253333	3.90276E-001	1.01107E-004	0.00000E+000	3.94598E-005	5.99601E-002	3.90345E-001	3.57850E+000	9	...........
	19	0.266667	4.04409E-001	1.00921E-004	0.00000E+000	4.08134E-005	5.99601E-002	4.04481E-001	3.57850E+000	9	...........
	20	0.28	4.18509E-001	1.00596E-004	0.00000E+000	4.21002E-005	5.99601E-002	4.18591E-001	3.57850E+000	9	...........
	21	0.293333	4.32581E-001	1.00904E-004	0.00000E+000	4.36492E-005	5.99601E-002	4.32660E-001	3.57850E+000	9	...........
	22	0.306667	4.46582E-001	1.00590E-004	0.00000E+000	4.49215E-005	5.99601E-002	4.46670E-001	3.57850E+000	9	...........
	23	0.32	4.60518E-001	1.01618E-004	0.00000E+000	4.67969E-005	5.99601E-002	4.60606E-001	3.57850E+000	9	...........
	24	0.333333	4.74337E-001	9.98228E-005	0.00000E+000	4.73496E-005	5.99601E-002	4.74428E-001	3.57850E+000	9	...........
	25	0.346667	4.88039E-001	1.00266E-004	0.00000E+000	4.89336E-005	5.99601E-002	4.88137E-001	3.57850E+000	9	...........
	26	0.36	5.01584E-001	1.00974E-004	0.00000E+000	5.06470E-005	5.99601E-002	5.01688E-001	3.57850E+000	9	...........
	27	0.373333	5.14970E-001	1.01392E-004	0.00000E+000	5.22138E-005	5.99601E-002	5.15074E-001	3.57850E+000	9	...........
	28	0.386667	5.28170E-001	1.01128E-004	0.00000E+000	5.34130E-005	5.99601E-002	5.28282E-001	3.57850E+000	9	...........
	29	0.4	5.40825E-001	1.01164E-004	0.00000E+000	5.47119E-005	5.99601E-002	5.41090E-001	3.57850E+000	9	...........
	30	0.413333	5.53620E-001	1.00526E-004	0.00000E+000	5.56532E-005	5.99601E-002	5.53885E-001	3.57850E+000	9	...........
	31	0.426667	5.66229E-001	1.00044E-004	0.00000E+000	5.66477E-005	5.99601E-002	5.66463E-001	3.57850E+000	9	...........
	32	0.44	5.78557E-001	1.00681E-004	0.00000E+000	5.82498E-005	5.99601E-002	5.78823E-001	3.57850E+000	9	...........
	33	0.453333	5.90717E-001	1.00754E-004	0.00000E+000	5.95173E-005	5.99601E-002	5.90956E-001	3.57850E+000	9	...........
	34	0.466667	6.02583E-001	1.00779E-004	0.00000E+000	6.07279E-005	5.99601E-002	6.02858E-001	3.57850E+000	9	...........
	35	0.48	6.14270E-001	1.00624E-004	0.00000E+000	6.18103E-005	5.99601E-002	6.14537E-001	3.57850E+000	9	...........
	36	0.493333	6.25756E-001	1.01342E-004	0.00000E+000	6.34153E-005	5.99601E-002	6.25971E-001	3.57850E+000	9	...........
	37	0.506667	6.36939E-001	1.01111E-004	0.00000E+000	6.44013E-005	5.99601E-002	6.37178E-001	3.57850E+000	9	...........
	38	0.52	6.47932E-001	9.95801E-005	0.00000E+000	6.45211E-005	5.99601E-002	6.48183E-001	3.57850E+000	9	...........
	39	0.533333	6.58705E-001	1.01132E-004	0.00000E+000	6.66164E-005	5.99601E-002	6.58953E-001	3.57850E+000	9	...........
	40	0.546667	6.69271E-001	1.00351E-004	0.00000E+000	6.71621E-005	5.99601E-002	6.69538E-001	3.57850E+000	9	...........
	41	0.56	6.79593E-001	1.01423E-004	0.00000E+000	6.89264E-005	5.99601E-002	6.79864E-001	3.57850E+000	9	...........
	42	0.573333	6.89723E-001	1.00634E-004	0.00000E+000	6.94098E-005	5.99601E-002	6.89988E-001	3.57850E+000	9	...........
	43	0.586667	6.99664E-001	1.00818E-004	0.00000E+000	7.05386E-005	5.99601E-002	6.99923E-001	3.57850E+000	9	...........
	44	0.6	7.09375E-001	1.00952E-004	0.00000E+000	7.16130E-005	5.99601E-002	7.09629E-001	3.57850E+000	9	...........
	45	0.613333	7.18918E-001	1.00675E-004	0.00000E+000	7.23772E-005	5.99601E-002	7.19175E-001	3.57850E+000	9	...........
	46	0.626667	7.28263E-001	1.01265E-004	0.00000E+000	7.37474E-005	5.99601E-002	7.28496E-001	3.57850E+000	9	...........
	47	0.64	7.37410E-001	1.00916E-004	0.00000E+000	7.44163E-005	5.99601E-002	7.37650E-001	3.57850E+000	9	...........
	48	0.653333	7.46415E-001	1.00740E-004	0.00000E+000	7.51936E-005	5.99601E-002	7.46661E-001	3.57850E+000	9	...........
	49	0.666667	7.55223E-001	1.00882E-004	0.00000E+000	7.61887E-005	5.99601E-002	7.55481E-001	3.57850E+000	9	...........
	50	0.68	7.63859E-001	1.00773E-004	0.00000E+000	7.69763E-005	5.99601E-002	7.64101E-001	3.57850E+000	9	...........
	51	0.693333	7.72332E-001	1.00558E-004	0.00000E+000	7.76644E-005	5.99601E-002	7.72584E-001	3.57850E+000	9	...........
	52	0.706667	7.80637E-001	1.00775E-004	0.00000E+000	7.86688E-005	5.99601E-002	7.80915E-001	3.57850E+000	9	...........
	53	0.72	7.88783E-001	1.01221E-004	0.00000E+000	7.98414E-005	5.99601E-002	7.89067E-001	3.57850E+000	9	...........
	54	0.733333	7.96810E-001	1.01342E-004	0.00000E+000	8.07502E-005	5.99601E-002	7.97086E-001	3.57850E+000	9	...........
	55	0.746667	8.04670E-001	1.01720E-004	0.00000E+000	8.18511E-005	5.99601E-002	8.04936E-001	3.57850E+000	9	...........
	56	0.76	8.12344E-001	1.00680E-004	0.00000E+000	8.17870E-005	5.99601E-002	8.12621E-001	3.57850E+000	9	...........
	57	0.773333	8.19902E-001	1.01252E-004	0.00000E+000	8.30169E-005	5.99601E-002	8.20173E-001	3.57850E+000	9	...........
	58	0.786667	8.27307E-001	1.00279E-004	0.00000E+000	8.29617E-005	5.99601E-002	8.27583E-001	3.58000E+000	9	...........
	59	0.8	8.34581E-001	1.00068E-004	0.00000E+000	8.35146E-005	5.99601E-002	8.34873E-001	3.58000E+000	9	...........
	60	0.813333	8.41735E-001	1.00633E-004	0.00000E+000	8.47066E-005	5.99601E-002	8.42038E-001	3.58000E+000	9	...........
	61	0.826667	8.48788E-001	1.00941E-004	0.00000E+000	8.56773E-005	5.99601E-002	8.49074E-001	3.58000E+000	9	...........
	62	0.84	8.55655E-001	1.00598E-004	0.00000E+000	8.60772E-005	5.99601E-002	8.55949E-001	3.58000E+000	9	...........
	63	0.853333	8.62410E-001	1.00459E-004	0.00000E+000	8.66372E-005	5.99601E-002	8.62711E-001	3.58000E+000	9	...........
	64	0.866667	8.69065E-001	1.01374E-004	0.00000E+000	8.81008E-005	5.99601E-002	8.69348E-001	3.58000E+000	9	...........
	65	0.88	8.75603E-001	1.01198E-004	0.00000E+000	8.86093E-005	5.99601E-002	8.75882E-001	3.58000E+000	9	...........
	66	0.893333	8.82002E-001	1.01070E-004	0.00000E+000	8.91439E-005	5.99601E-002	8.82284E-001	3.58000E+000	9	...........
	67	0.906667	8.88287E-001	1.00837E-004	0.00000E+000	8.95718E-005	5.99601E-002	8.88591E-001	3.58000E+000	9	...........
	68	0.92	8.94456E-001	1.00448E-004	0.00000E+000	8.98462E-005	5.99601E-002	8.94780E-001	3.58000E+000	9	...........
	69	0.933333	9.00539E-001	1.00486E-004	0.00000E+000	9.04920E-005	5.99601E-002	9.00864E-001	3.58000E+000	9	...........
	70	0.946667	9.06480E-001	1.00424E-004	0.00000E+000	9.10323E-005	5.99601E-002	9.06804E-001	3.58000E+000	9	...........
	71	0.96	9.12329E-001	1.00644E-004	0.00000E+000	9.18202E-005	5.99601E-002	9.12648E-001	3.58000E+000	9	...........
	72	0.97333	9.18047E-001	1.00179E-004	0.00000E+000	9.19692E-005	5.99601E-002	9.18407E-001	3.58000E+000	9	...........
	73	0.98667	9.23730E-001	1.01088E-004	0.00000E+000	9.33777E-005	5.99601E-002	9.24012E-001	3.58000E+000	9	...........
	74	1	9.29251E-001	1.00668E-004	0.00000E+000	9.35456E-005	5.99601E-002	9.29545E-001	3.58000E+000	9	...........
	75	1.01333	9.34659E-001	1.00370E-004	0.00000E+000	9.38116E-005	5.99601E-002	9.34954E-001	3.58000E+000	9	...........
	76	1.02667	9.39955E-001	1.00355E-004	0.00000E+000	9.43294E-005	5.99601E-002	9.40278E-001	3.58000E+000	9	...........
	77	1.04	9.45157E-001	1.00926E-004	0.00000E+000	9.53911E-005	5.99601E-002	9.45501E-001	3.58000E+000	9	...........
	78	1.05333	9.50303E-001	1.01054E-004	0.00000E+000	9.60322E-005	5.99601E-002	9.50643E-001	3.58000E+000	9	...........
	79	1.06667	9.55318E-001	1.00369E-004	0.00000E+000	9.58841E-005	5.99601E-002	9.55631E-001	3.58000E+000	9	...........
	80	1.08	9.60199E-001	1.01171E-004	0.00000E+000	9.71443E-005	5.99601E-002	9.60554E-001	3.58000E+000	9	...........
	81	1.09333	9.64984E-001	1.00870E-004	0.00000E+000	9.73379E-005	5.99601E-002	9.65338E-001	3.58000E+000	9	...........
	82	1.10667	9.69671E-001	1.01028E-004	0.00000E+000	9.79642E-005	5.99601E-002	9.70054E-001	3.58000E+000	9	...........
	83	1.12	9.74319E-001	1.00328E-004	0.00000E+000	9.77516E-005	5.99601E-002	9.74688E-001	3.58000E+000	9	...........
	84	1.13333	9.78847E-001	1.00688E-004	0.00000E+000	9.85577E-005	5.99601E-002	9.79200E-001	3.58000E+000	9	...........
	85	1.14667	9.83280E-001	1.01322E-004	0.00000E+000	9.96280E-005	5.99601E-002	9.83627E-001	3.58000E+000	9	...........
	86	1.16	9.87598E-001	1.00290E-004	0.00000E+000	9.90458E-005	5.99601E-002	9.87955E-001	3.58000E+000	9	...........
	87	1.17333	9.91805E-001	1.00814E-004	0.00000E+000	9.99875E-005	5.99601E-002	9.92190E-001	3.58000E+000	9	...........
	88	1.18667	9.95957E-001	1.00838E-004	0.00000E+000	1.00430E-004	5.99601E-002	9.96342E-001	3.58000E+000	9	...........
	89	1.195	9.99288E-001	1.01406E-004	0.00000E+000	1.01334E-004	5.99601E-002	9.99657E-001	3.58000E+000	9	...........
STARTTIMEOFFSET	QUANT	2048.232	Start Time Offset (s)
