EXPLAIN
TAG	PWR800_CHARGE
TITLE	LABEL	PWR Cyclic Charge Discharge (Cell) - Charge Step	Test &Identifier
DATE	LABEL	13-7-2017	Date
TIME	LABEL	15:22:18	Time
NOTES	NOTES	2	&Notes...
	supercap test cell
	6M KOH
PSTAT	PSTAT	IFC5000-01520	Potentiostat
CAPACITY	QUANT	1.00000E-003	Capacity (A-hr)
CELLTYPE	SELECTOR	1	&Cell Type
WORKINGCONNECTION	SELECTOR	0	&Working Lead
MAXCHARGETIME	VARIABLEANDUNITS	1.00000E+002	s	1.00000E+002	second(s)	Max &Charge Time
CHARGECURRENT	QUANT	1.00000E-004	&Charge Current (A) 
VOLTAGEFINISH	TWOPARAM	F	1.00000E-003	3.60000E+003	&Voltage Finish	 I (A) < 	Max Time(s)
SAMPLETIME	QUANT	1.00000E-002	Sa&mple Period (s)
CHARGESTOPAT1	MULTIPARAM	4	1.00000E+000	Charge Stop At &1	Voltage > Limit	V
CHARGESTOPAT2	MULTIPARAM	0	0.00000E+000	Charge Stop At &2	None	N/A
AESBHCSELECTOR	TOGGLE	F	Save Both Half Cells
IRCOMP	TOGGLE	F	IR &Measure
EOC	QUANT	0	Open Circuit (V)
SEQUENCER	TOGGLE	TRUE	Run as Sequence
PSTATMODEL	IQUANT	53	Pstat Model
PSTATSECTION	LABEL	IFC5000-01520	Pstat Section
PSTATSERIALNO	LABEL	01520	Pstat Serial Number
CTRLMODE	IQUANT	0	Control Mode
ELECTROMETER	IQUANT	1	RE=0 or CS=1
IESTAB	IQUANT	0	I/E Stability
CASPEED	IQUANT	4	Control Amp Speed
CONVENTION	IQUANT	1	Current Convention
ICHRANGE	IQUANT	2	Ich Range
ICHRANGEMODE	TOGGLE	T	Ich Auto Range
ICHOFFSETENABLE	TOGGLE	F	Ich Offset Enable
ICHOFFSET	QUANT	0	Ich Offset (V)
ICHFILTER	IQUANT	1	Ich Filter
VCHRANGE	IQUANT	2	Vch Range
VCHRANGEMODE	TOGGLE	T	Vch Auto Range
VCHOFFSETENABLE	TOGGLE	F	Vch Offset Enable
VCHOFFSET	QUANT	0	Vch Offset (V)
VCHFILTER	IQUANT	1	Vch Filter
IERANGELOWERLIMIT	IQUANT	9	I/E Range Lower Limit
IERANGEMODE	TOGGLE	F	I/E AutoRange
IERANGE	IQUANT	9	I/E Range
ACHSELECT	IQUANT	1	Ach Select
ACHRANGE	IQUANT	2	Ach Range
ACHOFFSETENABLE	TOGGLE	F	Ach Offset Enable
ACHOFFSET	QUANT	0	Ach Offset (V)
ACHFILTER	IQUANT	1	Ach Filter
CABLEID	IQUANT	14	Cable ID
DCCALDATE	LABEL	5-7-2017	DC Calibration Date
ACCALDATE	LABEL	12/3/2015	AC Calibration Date
FRAMEWORKVERSION	QUANT	7.01	Framework Version
INSTRUMENTVERSION	LABEL	4.00	Instrument Version
CURVE	TABLE	94
	Pt	T	Vf	Im	Vu	Pwr	Sig	Ach	Temp	IERange	Over
	#	s	V	A	V	W	V	V	deg C	#	bits
	0	0.013333	1.33440E-001	1.01873E-004	0.00000E+000	1.35940E-005	5.99601E-002	1.33486E-001	3.58000E+000	9	...........
	1	0.026667	1.48682E-001	1.01106E-004	0.00000E+000	1.50327E-005	5.99601E-002	1.48702E-001	3.58000E+000	9	...........
	2	0.04	1.63476E-001	1.00122E-004	0.00000E+000	1.63676E-005	5.99601E-002	1.63501E-001	3.58000E+000	9	...........
	3	0.053333	1.78008E-001	1.00694E-004	0.00000E+000	1.79243E-005	5.99601E-002	1.78034E-001	3.58000E+000	9	...........
	4	0.066667	1.92343E-001	1.01028E-004	0.00000E+000	1.94321E-005	5.99601E-002	1.92373E-001	3.58000E+000	9	...........
	5	0.08	2.06531E-001	1.00750E-004	0.00000E+000	2.08080E-005	5.99601E-002	2.06569E-001	3.58000E+000	9	...........
	6	0.093333	2.20621E-001	1.02299E-004	0.00000E+000	2.25693E-005	5.99601E-002	2.20659E-001	3.58000E+000	9	...........
	7	0.106667	2.34639E-001	1.00704E-004	0.00000E+000	2.36292E-005	5.99601E-002	2.34679E-001	3.58000E+000	9	...........
	8	0.12	2.48602E-001	1.00553E-004	0.00000E+000	2.49977E-005	5.99601E-002	2.48649E-001	3.58000E+000	9	...........
	9	0.133333	2.62533E-001	1.00792E-004	0.00000E+000	2.64612E-005	5.99601E-002	2.62584E-001	3.58000E+000	9	...........
	10	0.146667	2.76456E-001	1.01376E-004	0.00000E+000	2.80261E-005	5.99601E-002	2.76511E-001	3.58000E+000	9	...........
	11	0.16	2.90374E-001	1.00743E-004	0.00000E+000	2.92531E-005	5.99601E-002	2.90423E-001	3.58000E+000	9	...........
	12	0.173333	3.04295E-001	1.00692E-004	0.00000E+000	3.06400E-005	5.99601E-002	3.04354E-001	3.57972E+000	9	...........
	13	0.186667	3.18230E-001	1.00358E-004	0.00000E+000	3.19370E-005	5.99601E-002	3.18291E-001	3.57890E+000	9	...........
	14	0.2	3.32170E-001	9.99947E-005	0.00000E+000	3.32152E-005	5.99601E-002	3.32226E-001	3.57890E+000	9	...........
	15	0.213333	3.46131E-001	1.00768E-004	0.00000E+000	3.48788E-005	5.99601E-002	3.46195E-001	3.57890E+000	9	...........
	16	0.226667	3.60095E-001	1.02186E-004	0.00000E+000	3.67966E-005	5.99601E-002	3.60159E-001	3.57890E+000	9	...........
	17	0.24	3.74061E-001	9.99635E-005	0.00000E+000	3.73924E-005	5.99601E-002	3.74129E-001	3.57890E+000	9	...........
	18	0.253333	3.88021E-001	1.00979E-004	0.00000E+000	3.91821E-005	5.99601E-002	3.88094E-001	3.57890E+000	9	...........
	19	0.266667	4.01954E-001	1.00491E-004	0.00000E+000	4.03926E-005	5.99601E-002	4.02029E-001	3.57890E+000	9	...........
	20	0.28	4.15835E-001	1.00972E-004	0.00000E+000	4.19877E-005	5.99601E-002	4.15925E-001	3.57890E+000	9	...........
	21	0.293333	4.29676E-001	1.00726E-004	0.00000E+000	4.32796E-005	5.99601E-002	4.29763E-001	3.57890E+000	9	...........
	22	0.306667	4.43432E-001	1.01306E-004	0.00000E+000	4.49226E-005	5.99601E-002	4.43525E-001	3.57890E+000	9	...........
	23	0.32	4.57092E-001	1.00819E-004	0.00000E+000	4.60835E-005	5.99601E-002	4.57185E-001	3.57890E+000	9	...........
	24	0.333333	4.70637E-001	1.00733E-004	0.00000E+000	4.74089E-005	5.99601E-002	4.70731E-001	3.57890E+000	9	...........
	25	0.346667	4.84039E-001	1.01270E-004	0.00000E+000	4.90187E-005	5.99601E-002	4.84138E-001	3.57890E+000	9	...........
	26	0.36	4.97282E-001	9.98301E-005	0.00000E+000	4.96438E-005	5.99601E-002	4.97388E-001	3.57890E+000	9	...........
	27	0.373333	5.10354E-001	1.01628E-004	0.00000E+000	5.18665E-005	5.99601E-002	5.10466E-001	3.57890E+000	9	...........
	28	0.386667	5.23238E-001	1.00698E-004	0.00000E+000	5.26890E-005	5.99601E-002	5.23356E-001	3.57890E+000	9	...........
	29	0.4	5.35700E-001	9.98541E-005	0.00000E+000	5.34919E-005	5.99601E-002	5.35904E-001	3.57890E+000	9	...........
	30	0.413333	5.48048E-001	1.01204E-004	0.00000E+000	5.54648E-005	5.99601E-002	5.48301E-001	3.57890E+000	9	...........
	31	0.426667	5.60302E-001	1.01335E-004	0.00000E+000	5.67780E-005	5.99601E-002	5.60553E-001	3.57890E+000	9	...........
	32	0.44	5.72354E-001	1.01584E-004	0.00000E+000	5.81418E-005	5.99601E-002	5.72596E-001	3.57890E+000	9	...........
	33	0.453333	5.84124E-001	1.00037E-004	0.00000E+000	5.84342E-005	5.99601E-002	5.84431E-001	3.57890E+000	9	...........
	34	0.466667	5.95722E-001	1.00805E-004	0.00000E+000	6.00519E-005	5.99601E-002	5.96001E-001	3.57890E+000	9	...........
	35	0.48	6.07056E-001	1.01243E-004	0.00000E+000	6.14601E-005	5.99601E-002	6.07373E-001	3.57890E+000	9	...........
	36	0.493333	6.18246E-001	1.01375E-004	0.00000E+000	6.26748E-005	5.99601E-002	6.18504E-001	3.57890E+000	9	...........
	37	0.506667	6.29149E-001	1.00991E-004	0.00000E+000	6.35382E-005	5.99601E-002	6.29424E-001	3.57890E+000	9	...........
	38	0.52	6.39852E-001	1.00803E-004	0.00000E+000	6.44991E-005	5.99601E-002	6.40131E-001	3.57890E+000	9	...........
	39	0.533333	6.50323E-001	1.00676E-004	0.00000E+000	6.54720E-005	5.99601E-002	6.50629E-001	3.57890E+000	9	...........
	40	0.546667	6.60613E-001	1.01064E-004	0.00000E+000	6.67640E-005	5.99601E-002	6.60904E-001	3.57890E+000	9	...........
	41	0.56	6.70697E-001	1.00625E-004	0.00000E+000	6.74889E-005	5.99601E-002	6.70982E-001	3.57890E+000	9	...........
	42	0.573333	6.80544E-001	1.00746E-004	0.00000E+000	6.85620E-005	5.99601E-002	6.80847E-001	3.57890E+000	9	...........
	43	0.586667	6.90229E-001	1.01302E-004	0.00000E+000	6.99218E-005	5.99601E-002	6.90513E-001	3.57890E+000	9	...........
	44	0.6	6.99705E-001	1.00745E-004	0.00000E+000	7.04917E-005	5.99601E-002	6.99990E-001	3.57890E+000	9	...........
	45	0.613333	7.08982E-001	1.00681E-004	0.00000E+000	7.13813E-005	5.99601E-002	7.09288E-001	3.57890E+000	9	...........
	46	0.626667	7.18112E-001	1.01170E-004	0.00000E+000	7.26514E-005	5.99601E-002	7.18409E-001	3.57890E+000	9	...........
	47	0.64	7.27055E-001	1.00419E-004	0.00000E+000	7.30100E-005	5.99601E-002	7.27351E-001	3.57890E+000	9	...........
	48	0.653333	7.35786E-001	1.00049E-004	0.00000E+000	7.36146E-005	5.99601E-002	7.36093E-001	3.57890E+000	9	...........
	49	0.666667	7.44415E-001	1.01768E-004	0.00000E+000	7.57577E-005	5.99601E-002	7.44710E-001	3.57890E+000	9	...........
	50	0.68	7.52843E-001	1.00675E-004	0.00000E+000	7.57926E-005	5.99601E-002	7.53116E-001	3.57890E+000	9	...........
	51	0.693333	7.61109E-001	1.00997E-004	0.00000E+000	7.68697E-005	5.99601E-002	7.61389E-001	3.57890E+000	9	...........
	52	0.706667	7.69213E-001	1.00908E-004	0.00000E+000	7.76201E-005	5.99601E-002	7.69531E-001	3.57890E+000	9	...........
	53	0.72	7.77192E-001	1.01529E-004	0.00000E+000	7.89079E-005	5.99601E-002	7.77467E-001	3.57890E+000	9	...........
	54	0.733333	7.85009E-001	1.01185E-004	0.00000E+000	7.94308E-005	5.99601E-002	7.85291E-001	3.57890E+000	9	...........
	55	0.746667	7.92677E-001	1.01543E-004	0.00000E+000	8.04908E-005	5.99601E-002	7.92975E-001	3.57890E+000	9	...........
	56	0.76	8.00196E-001	1.00563E-004	0.00000E+000	8.04697E-005	5.99601E-002	8.00523E-001	3.57890E+000	9	...........
	57	0.773333	8.07577E-001	1.00546E-004	0.00000E+000	8.11986E-005	5.99601E-002	8.07900E-001	3.57890E+000	9	...........
	58	0.786667	8.14834E-001	1.01137E-004	0.00000E+000	8.24095E-005	5.99601E-002	8.15158E-001	3.57890E+000	9	...........
	59	0.8	8.21971E-001	1.01420E-004	0.00000E+000	8.33644E-005	5.99601E-002	8.22305E-001	3.57890E+000	9	...........
	60	0.813333	8.28960E-001	1.00692E-004	0.00000E+000	8.34695E-005	5.99601E-002	8.29273E-001	3.57890E+000	9	...........
	61	0.826667	8.35814E-001	1.00344E-004	0.00000E+000	8.38687E-005	5.99601E-002	8.36188E-001	3.57890E+000	9	...........
	62	0.84	8.42600E-001	1.01081E-004	0.00000E+000	8.51712E-005	5.99601E-002	8.42948E-001	3.57890E+000	9	...........
	63	0.853333	8.49244E-001	1.00951E-004	0.00000E+000	8.57322E-005	5.99601E-002	8.49626E-001	3.57890E+000	9	...........
	64	0.866667	8.55778E-001	1.01622E-004	0.00000E+000	8.69660E-005	5.99601E-002	8.56134E-001	3.57890E+000	9	...........
	65	0.88	8.62200E-001	1.01153E-004	0.00000E+000	8.72144E-005	5.99601E-002	8.62567E-001	3.57890E+000	9	...........
	66	0.893333	8.68512E-001	1.01061E-004	0.00000E+000	8.77724E-005	5.99601E-002	8.68886E-001	3.57890E+000	9	...........
	67	0.906667	8.74716E-001	1.00904E-004	0.00000E+000	8.82626E-005	5.99601E-002	8.75068E-001	3.57890E+000	9	...........
	68	0.92	8.80802E-001	1.00691E-004	0.00000E+000	8.86886E-005	5.99601E-002	8.81173E-001	3.57890E+000	9	...........
	69	0.933333	8.86798E-001	1.01160E-004	0.00000E+000	8.97081E-005	5.99601E-002	8.87151E-001	3.57890E+000	9	...........
	70	0.946667	8.92656E-001	1.01359E-004	0.00000E+000	9.04784E-005	5.99601E-002	8.93021E-001	3.57890E+000	9	...........
	71	0.96	8.98441E-001	1.00703E-004	0.00000E+000	9.04759E-005	5.99601E-002	8.98809E-001	3.57890E+000	9	...........
	72	0.97333	9.04112E-001	1.01612E-004	0.00000E+000	9.18684E-005	5.99601E-002	9.04482E-001	3.57890E+000	9	...........
	73	0.98667	9.09695E-001	1.00731E-004	0.00000E+000	9.16348E-005	5.99601E-002	9.10070E-001	3.57890E+000	9	...........
	74	1	9.15178E-001	1.00697E-004	0.00000E+000	9.21557E-005	5.99601E-002	9.15539E-001	3.57890E+000	9	...........
	75	1.01333	9.20560E-001	1.01857E-004	0.00000E+000	9.37651E-005	5.99601E-002	9.20900E-001	3.57890E+000	9	...........
	76	1.02667	9.25862E-001	1.00759E-004	0.00000E+000	9.32894E-005	5.99601E-002	9.26188E-001	3.57890E+000	9	...........
	77	1.04	9.31038E-001	1.00286E-004	0.00000E+000	9.33705E-005	5.99601E-002	9.31345E-001	3.57890E+000	9	...........
	78	1.05333	9.36132E-001	1.01410E-004	0.00000E+000	9.49328E-005	5.99601E-002	9.36455E-001	3.57890E+000	9	...........
	79	1.06667	9.41121E-001	1.00793E-004	0.00000E+000	9.48582E-005	5.99601E-002	9.41425E-001	3.57890E+000	9	...........
	80	1.08	9.46024E-001	1.00480E-004	0.00000E+000	9.50567E-005	5.99601E-002	9.46351E-001	3.57890E+000	9	...........
	81	1.09333	9.50872E-001	1.01154E-004	0.00000E+000	9.61848E-005	5.99601E-002	9.51179E-001	3.57890E+000	9	...........
	82	1.10667	9.55580E-001	1.00914E-004	0.00000E+000	9.64310E-005	5.99601E-002	9.55890E-001	3.57890E+000	9	...........
	83	1.12	9.60203E-001	1.00308E-004	0.00000E+000	9.63163E-005	5.99601E-002	9.60556E-001	3.57890E+000	9	...........
	84	1.13333	9.64736E-001	1.01323E-004	0.00000E+000	9.77500E-005	5.99601E-002	9.65108E-001	3.57890E+000	9	...........
	85	1.14667	9.69170E-001	1.01309E-004	0.00000E+000	9.81852E-005	5.99601E-002	9.69556E-001	3.57890E+000	9	...........
	86	1.16	9.73575E-001	1.01088E-004	0.00000E+000	9.84164E-005	5.99601E-002	9.73948E-001	3.57890E+000	9	...........
	87	1.17333	9.77845E-001	1.00913E-004	0.00000E+000	9.86769E-005	5.99601E-002	9.78231E-001	3.57892E+000	9	...........
	88	1.18667	9.82026E-001	1.01054E-004	0.00000E+000	9.92379E-005	5.99601E-002	9.82421E-001	3.57900E+000	9	...........
	89	1.2	9.86115E-001	1.00608E-004	0.00000E+000	9.92114E-005	5.99601E-002	9.86539E-001	3.57900E+000	9	...........
	90	1.21333	9.90154E-001	1.00787E-004	0.00000E+000	9.97942E-005	5.99601E-002	9.90569E-001	3.57900E+000	9	...........
	91	1.22667	9.94068E-001	1.01205E-004	0.00000E+000	1.00605E-004	5.99601E-002	9.94489E-001	3.57900E+000	9	...........
	92	1.24	9.97952E-001	1.01425E-004	0.00000E+000	1.01217E-004	5.99601E-002	9.98352E-001	3.57900E+000	9	...........
	93	1.24167	1.00007E+000	1.00906E-004	0.00000E+000	1.00913E-004	5.99601E-002	1.00048E+000	3.57900E+000	9	...........
STARTTIMEOFFSET	QUANT	917.6572	Start Time Offset (s)
