EXPLAIN
TAG	PWR800_CHARGE
TITLE	LABEL	PWR Cyclic Charge Discharge (Cell) - Charge Step	Test &Identifier
DATE	LABEL	13-7-2017	Date
TIME	LABEL	15:24:00	Time
NOTES	NOTES	2	&Notes...
	supercap test cell
	6M KOH
PSTAT	PSTAT	IFC5000-01520	Potentiostat
CAPACITY	QUANT	1.00000E-003	Capacity (A-hr)
CELLTYPE	SELECTOR	1	&Cell Type
WORKINGCONNECTION	SELECTOR	0	&Working Lead
MAXCHARGETIME	VARIABLEANDUNITS	1.00000E+002	s	1.00000E+002	second(s)	Max &Charge Time
CHARGECURRENT	QUANT	1.00000E-004	&Charge Current (A) 
VOLTAGEFINISH	TWOPARAM	F	1.00000E-003	3.60000E+003	&Voltage Finish	 I (A) < 	Max Time(s)
SAMPLETIME	QUANT	1.00000E-002	Sa&mple Period (s)
CHARGESTOPAT1	MULTIPARAM	4	1.00000E+000	Charge Stop At &1	Voltage > Limit	V
CHARGESTOPAT2	MULTIPARAM	0	0.00000E+000	Charge Stop At &2	None	N/A
AESBHCSELECTOR	TOGGLE	F	Save Both Half Cells
IRCOMP	TOGGLE	F	IR &Measure
EOC	QUANT	0	Open Circuit (V)
SEQUENCER	TOGGLE	TRUE	Run as Sequence
PSTATMODEL	IQUANT	53	Pstat Model
PSTATSECTION	LABEL	IFC5000-01520	Pstat Section
PSTATSERIALNO	LABEL	01520	Pstat Serial Number
CTRLMODE	IQUANT	0	Control Mode
ELECTROMETER	IQUANT	1	RE=0 or CS=1
IESTAB	IQUANT	0	I/E Stability
CASPEED	IQUANT	4	Control Amp Speed
CONVENTION	IQUANT	1	Current Convention
ICHRANGE	IQUANT	2	Ich Range
ICHRANGEMODE	TOGGLE	T	Ich Auto Range
ICHOFFSETENABLE	TOGGLE	F	Ich Offset Enable
ICHOFFSET	QUANT	0	Ich Offset (V)
ICHFILTER	IQUANT	1	Ich Filter
VCHRANGE	IQUANT	2	Vch Range
VCHRANGEMODE	TOGGLE	T	Vch Auto Range
VCHOFFSETENABLE	TOGGLE	F	Vch Offset Enable
VCHOFFSET	QUANT	0	Vch Offset (V)
VCHFILTER	IQUANT	1	Vch Filter
IERANGELOWERLIMIT	IQUANT	9	I/E Range Lower Limit
IERANGEMODE	TOGGLE	F	I/E AutoRange
IERANGE	IQUANT	9	I/E Range
ACHSELECT	IQUANT	1	Ach Select
ACHRANGE	IQUANT	2	Ach Range
ACHOFFSETENABLE	TOGGLE	F	Ach Offset Enable
ACHOFFSET	QUANT	0	Ach Offset (V)
ACHFILTER	IQUANT	1	Ach Filter
CABLEID	IQUANT	14	Cable ID
DCCALDATE	LABEL	5-7-2017	DC Calibration Date
ACCALDATE	LABEL	12/3/2015	AC Calibration Date
FRAMEWORKVERSION	QUANT	7.01	Framework Version
INSTRUMENTVERSION	LABEL	4.00	Instrument Version
CURVE	TABLE	93
	Pt	T	Vf	Im	Vu	Pwr	Sig	Ach	Temp	IERange	Over
	#	s	V	A	V	W	V	V	deg C	#	bits
	0	0.013333	1.36687E-001	1.01094E-004	0.00000E+000	1.38182E-005	5.99601E-002	1.36719E-001	3.57990E+000	9	...........
	1	0.026667	1.51930E-001	1.01089E-004	0.00000E+000	1.53584E-005	5.99601E-002	1.51943E-001	3.57990E+000	9	...........
	2	0.04	1.66736E-001	1.01115E-004	0.00000E+000	1.68595E-005	5.99601E-002	1.66753E-001	3.57985E+000	9	...........
	3	0.053333	1.81274E-001	1.00650E-004	0.00000E+000	1.82453E-005	5.99601E-002	1.81301E-001	3.57950E+000	9	...........
	4	0.066667	1.95623E-001	1.01474E-004	0.00000E+000	1.98507E-005	5.99601E-002	1.95653E-001	3.57950E+000	9	...........
	5	0.08	2.09834E-001	1.00712E-004	0.00000E+000	2.11327E-005	5.99601E-002	2.09868E-001	3.57950E+000	9	...........
	6	0.093333	2.23942E-001	1.00889E-004	0.00000E+000	2.25932E-005	5.99601E-002	2.23977E-001	3.57950E+000	9	...........
	7	0.106667	2.37976E-001	1.00708E-004	0.00000E+000	2.39662E-005	5.99601E-002	2.38014E-001	3.57950E+000	9	...........
	8	0.12	2.51958E-001	1.01124E-004	0.00000E+000	2.54790E-005	5.99601E-002	2.52005E-001	3.57950E+000	9	...........
	9	0.133333	2.65918E-001	1.00143E-004	0.00000E+000	2.66297E-005	5.99601E-002	2.65971E-001	3.57950E+000	9	...........
	10	0.146667	2.79864E-001	1.01418E-004	0.00000E+000	2.83833E-005	5.99601E-002	2.79917E-001	3.57950E+000	9	...........
	11	0.16	2.93805E-001	1.00421E-004	0.00000E+000	2.95042E-005	5.99601E-002	2.93861E-001	3.57950E+000	9	...........
	12	0.173333	3.07752E-001	1.00791E-004	0.00000E+000	3.10185E-005	5.99601E-002	3.07811E-001	3.57950E+000	9	...........
	13	0.186667	3.21707E-001	1.01419E-004	0.00000E+000	3.26272E-005	5.99601E-002	3.21771E-001	3.57950E+000	9	...........
	14	0.2	3.35673E-001	9.93779E-005	0.00000E+000	3.33585E-005	5.99601E-002	3.35738E-001	3.57950E+000	9	...........
	15	0.213333	3.49659E-001	1.00985E-004	0.00000E+000	3.53101E-005	5.99601E-002	3.49728E-001	3.57950E+000	9	...........
	16	0.226667	3.63648E-001	1.00284E-004	0.00000E+000	3.64682E-005	5.99601E-002	3.63715E-001	3.57950E+000	9	...........
	17	0.24	3.77635E-001	1.00687E-004	0.00000E+000	3.80228E-005	5.99601E-002	3.77705E-001	3.57950E+000	9	...........
	18	0.253333	3.91611E-001	1.01254E-004	0.00000E+000	3.96523E-005	5.99601E-002	3.91682E-001	3.57950E+000	9	...........
	19	0.266667	4.05564E-001	1.00769E-004	0.00000E+000	4.08682E-005	5.99601E-002	4.05636E-001	3.57950E+000	9	...........
	20	0.28	4.19462E-001	1.01653E-004	0.00000E+000	4.26397E-005	5.99601E-002	4.19545E-001	3.57950E+000	9	...........
	21	0.293333	4.33301E-001	1.00693E-004	0.00000E+000	4.36303E-005	5.99601E-002	4.33390E-001	3.57950E+000	9	...........
	22	0.306667	4.47058E-001	1.00597E-004	0.00000E+000	4.49727E-005	5.99601E-002	4.47147E-001	3.57950E+000	9	...........
	23	0.32	4.60709E-001	1.00900E-004	0.00000E+000	4.64856E-005	5.99601E-002	4.60804E-001	3.57950E+000	9	...........
	24	0.333333	4.74241E-001	1.01398E-004	0.00000E+000	4.80872E-005	5.99601E-002	4.74333E-001	3.57950E+000	9	...........
	25	0.346667	4.87617E-001	1.00394E-004	0.00000E+000	4.89537E-005	5.99601E-002	4.87717E-001	3.57950E+000	9	...........
	26	0.36	5.00841E-001	1.00473E-004	0.00000E+000	5.03210E-005	5.99601E-002	5.00937E-001	3.57950E+000	9	...........
	27	0.373333	5.13878E-001	1.00357E-004	0.00000E+000	5.15714E-005	5.99601E-002	5.13985E-001	3.57950E+000	9	...........
	28	0.386667	5.26728E-001	1.00140E-004	0.00000E+000	5.27463E-005	5.99601E-002	5.26838E-001	3.57950E+000	9	...........
	29	0.4	5.39052E-001	1.00944E-004	0.00000E+000	5.44140E-005	5.99601E-002	5.39289E-001	3.57950E+000	9	...........
	30	0.413333	5.51450E-001	1.00682E-004	0.00000E+000	5.55213E-005	5.99601E-002	5.51709E-001	3.57950E+000	9	...........
	31	0.426667	5.63679E-001	1.00644E-004	0.00000E+000	5.67308E-005	5.99601E-002	5.63937E-001	3.57950E+000	9	...........
	32	0.44	5.75658E-001	1.02036E-004	0.00000E+000	5.87377E-005	5.99601E-002	5.75936E-001	3.57950E+000	9	...........
	33	0.453333	5.87439E-001	1.01739E-004	0.00000E+000	5.97653E-005	5.99601E-002	5.87737E-001	3.57950E+000	9	...........
	34	0.466667	5.98982E-001	1.01737E-004	0.00000E+000	6.09384E-005	5.99601E-002	5.99276E-001	3.57950E+000	9	...........
	35	0.48	6.10321E-001	1.00278E-004	0.00000E+000	6.12018E-005	5.99601E-002	6.10619E-001	3.57950E+000	9	...........
	36	0.493333	6.21454E-001	1.00863E-004	0.00000E+000	6.26814E-005	5.99601E-002	6.21708E-001	3.57950E+000	9	...........
	37	0.506667	6.32320E-001	1.01127E-004	0.00000E+000	6.39448E-005	5.99601E-002	6.32582E-001	3.57950E+000	9	...........
	38	0.52	6.42977E-001	1.00572E-004	0.00000E+000	6.46654E-005	5.99601E-002	6.43271E-001	3.57950E+000	9	...........
	39	0.533333	6.53450E-001	1.01072E-004	0.00000E+000	6.60456E-005	5.99601E-002	6.53713E-001	3.57950E+000	9	...........
	40	0.546667	6.63692E-001	1.00610E-004	0.00000E+000	6.67743E-005	5.99601E-002	6.63963E-001	3.57950E+000	9	...........
	41	0.56	6.73733E-001	1.01591E-004	0.00000E+000	6.84451E-005	5.99601E-002	6.73990E-001	3.57950E+000	9	...........
	42	0.573333	6.83540E-001	1.00594E-004	0.00000E+000	6.87599E-005	5.99601E-002	6.83818E-001	3.57950E+000	9	...........
	43	0.586667	6.93210E-001	1.01497E-004	0.00000E+000	7.03588E-005	5.99601E-002	6.93474E-001	3.57950E+000	9	...........
	44	0.6	7.02642E-001	1.00454E-004	0.00000E+000	7.05834E-005	5.99601E-002	7.02915E-001	3.57950E+000	9	...........
	45	0.613333	7.11881E-001	1.00563E-004	0.00000E+000	7.15885E-005	5.99601E-002	7.12173E-001	3.57950E+000	9	...........
	46	0.626667	7.21017E-001	1.02440E-004	0.00000E+000	7.38610E-005	5.99601E-002	7.21270E-001	3.57950E+000	9	...........
	47	0.64	7.29899E-001	1.00566E-004	0.00000E+000	7.34028E-005	5.99601E-002	7.30175E-001	3.57950E+000	9	...........
	48	0.653333	7.38618E-001	1.00510E-004	0.00000E+000	7.42388E-005	5.99601E-002	7.38921E-001	3.57950E+000	9	...........
	49	0.666667	7.47206E-001	1.01051E-004	0.00000E+000	7.55061E-005	5.99601E-002	7.47506E-001	3.57950E+000	9	...........
	50	0.68	7.55602E-001	1.01408E-004	0.00000E+000	7.66237E-005	5.99601E-002	7.55869E-001	3.57950E+000	9	...........
	51	0.693333	7.63834E-001	1.01015E-004	0.00000E+000	7.71585E-005	5.99601E-002	7.64100E-001	3.57950E+000	9	...........
	52	0.706667	7.71933E-001	1.00626E-004	0.00000E+000	7.76766E-005	5.99601E-002	7.72181E-001	3.57950E+000	9	...........
	53	0.72	7.79855E-001	1.00682E-004	0.00000E+000	7.85176E-005	5.99601E-002	7.80130E-001	3.57950E+000	9	...........
	54	0.733333	7.87651E-001	1.01552E-004	0.00000E+000	7.99878E-005	5.99601E-002	7.87904E-001	3.57950E+000	9	...........
	55	0.746667	7.95307E-001	1.01585E-004	0.00000E+000	8.07909E-005	5.99601E-002	7.95582E-001	3.57950E+000	9	...........
	56	0.76	8.02813E-001	1.00477E-004	0.00000E+000	8.06643E-005	5.99601E-002	8.03080E-001	3.57950E+000	9	...........
	57	0.773333	8.10158E-001	9.98113E-005	0.00000E+000	8.08630E-005	5.99601E-002	8.10450E-001	3.57950E+000	9	...........
	58	0.786667	8.17391E-001	1.00883E-004	0.00000E+000	8.24612E-005	5.99601E-002	8.17706E-001	3.57950E+000	9	...........
	59	0.8	8.24519E-001	1.00272E-004	0.00000E+000	8.26760E-005	5.99601E-002	8.24850E-001	3.57950E+000	9	...........
	60	0.813333	8.31490E-001	1.00667E-004	0.00000E+000	8.37034E-005	5.99601E-002	8.31807E-001	3.57950E+000	9	...........
	61	0.826667	8.38325E-001	1.00246E-004	0.00000E+000	8.40386E-005	5.99601E-002	8.38675E-001	3.57950E+000	9	...........
	62	0.84	8.45088E-001	1.01016E-004	0.00000E+000	8.53672E-005	5.99601E-002	8.45431E-001	3.57950E+000	9	...........
	63	0.853333	8.51720E-001	1.00425E-004	0.00000E+000	8.55340E-005	5.99601E-002	8.52073E-001	3.57950E+000	9	...........
	64	0.866667	8.58225E-001	1.01635E-004	0.00000E+000	8.72254E-005	5.99601E-002	8.58582E-001	3.57950E+000	9	...........
	65	0.88	8.64608E-001	1.00479E-004	0.00000E+000	8.68752E-005	5.99601E-002	8.64972E-001	3.57950E+000	9	...........
	66	0.893333	8.70916E-001	1.00878E-004	0.00000E+000	8.78565E-005	5.99601E-002	8.71279E-001	3.57950E+000	9	...........
	67	0.906667	8.77103E-001	1.01111E-004	0.00000E+000	8.86844E-005	5.99601E-002	8.77449E-001	3.57950E+000	9	...........
	68	0.92	8.83188E-001	1.00809E-004	0.00000E+000	8.90337E-005	5.99601E-002	8.83507E-001	3.57950E+000	9	...........
	69	0.933333	8.89124E-001	1.01048E-004	0.00000E+000	8.98442E-005	5.99601E-002	8.89483E-001	3.57950E+000	9	...........
	70	0.946667	8.94970E-001	1.00595E-004	0.00000E+000	9.00293E-005	5.99601E-002	8.95347E-001	3.57950E+000	9	...........
	71	0.96	9.00738E-001	1.01003E-004	0.00000E+000	9.09775E-005	5.99601E-002	9.01107E-001	3.57950E+000	9	...........
	72	0.97333	9.06395E-001	1.01236E-004	0.00000E+000	9.17595E-005	5.99601E-002	9.06762E-001	3.57950E+000	9	...........
	73	0.98667	9.11948E-001	1.01012E-004	0.00000E+000	9.21174E-005	5.99601E-002	9.12329E-001	3.57950E+000	9	...........
	74	1	9.17422E-001	1.01541E-004	0.00000E+000	9.31558E-005	5.99601E-002	9.17769E-001	3.57950E+000	9	...........
	75	1.01333	9.22836E-001	1.02086E-004	0.00000E+000	9.42085E-005	5.99601E-002	9.23157E-001	3.57950E+000	9	...........
	76	1.02667	9.28098E-001	1.01420E-004	0.00000E+000	9.41277E-005	5.99601E-002	9.28414E-001	3.57950E+000	9	...........
	77	1.04	9.33230E-001	1.02634E-004	0.00000E+000	9.57810E-005	5.99601E-002	9.33575E-001	3.57942E+000	9	...........
	78	1.05333	9.38297E-001	1.01893E-004	0.00000E+000	9.56059E-005	5.99601E-002	9.38671E-001	3.57890E+000	9	...........
	79	1.06667	9.43285E-001	1.00731E-004	0.00000E+000	9.50184E-005	5.99601E-002	9.43613E-001	3.57890E+000	9	...........
	80	1.08	9.48184E-001	9.99051E-005	0.00000E+000	9.47285E-005	5.99601E-002	9.48555E-001	3.57890E+000	9	...........
	81	1.09333	9.52977E-001	1.00275E-004	0.00000E+000	9.55598E-005	5.99601E-002	9.53345E-001	3.57890E+000	9	...........
	82	1.10667	9.57673E-001	1.00160E-004	0.00000E+000	9.59209E-005	5.99601E-002	9.58049E-001	3.57890E+000	9	...........
	83	1.12	9.62263E-001	1.00158E-004	0.00000E+000	9.63787E-005	5.99601E-002	9.62663E-001	3.57890E+000	9	...........
	84	1.13333	9.66794E-001	1.00891E-004	0.00000E+000	9.75405E-005	5.99601E-002	9.67181E-001	3.57890E+000	9	...........
	85	1.14667	9.71225E-001	1.01310E-004	0.00000E+000	9.83944E-005	5.99601E-002	9.71639E-001	3.57890E+000	9	...........
	86	1.16	9.75611E-001	1.01420E-004	0.00000E+000	9.89465E-005	5.99601E-002	9.75983E-001	3.57890E+000	9	...........
	87	1.17333	9.79855E-001	9.97499E-005	0.00000E+000	9.77404E-005	5.99601E-002	9.80251E-001	3.57890E+000	9	...........
	88	1.18667	9.84009E-001	1.00492E-004	0.00000E+000	9.88847E-005	5.99601E-002	9.84402E-001	3.57890E+000	9	...........
	89	1.2	9.88110E-001	1.00917E-004	0.00000E+000	9.97169E-005	5.99601E-002	9.88506E-001	3.57890E+000	9	...........
	90	1.21333	9.92107E-001	1.00484E-004	0.00000E+000	9.96913E-005	5.99601E-002	9.92494E-001	3.57890E+000	9	...........
	91	1.22667	9.96032E-001	1.01249E-004	0.00000E+000	1.00847E-004	5.99601E-002	9.96420E-001	3.57890E+000	9	...........
	92	1.235	9.99174E-001	1.01203E-004	0.00000E+000	1.01119E-004	5.99601E-002	9.99577E-001	3.57890E+000	9	...........
STARTTIMEOFFSET	QUANT	995.029	Start Time Offset (s)
