EXPLAIN
TAG	PWR800_CHARGE
TITLE	LABEL	PWR Cyclic Charge Discharge (Cell) - Charge Step	Test &Identifier
DATE	LABEL	13-7-2017	Date
TIME	LABEL	15:25:14	Time
NOTES	NOTES	2	&Notes...
	supercap test cell
	6M KOH
PSTAT	PSTAT	IFC5000-01520	Potentiostat
CAPACITY	QUANT	1.00000E-003	Capacity (A-hr)
CELLTYPE	SELECTOR	1	&Cell Type
WORKINGCONNECTION	SELECTOR	0	&Working Lead
MAXCHARGETIME	VARIABLEANDUNITS	1.00000E+002	s	1.00000E+002	second(s)	Max &Charge Time
CHARGECURRENT	QUANT	1.00000E-004	&Charge Current (A) 
VOLTAGEFINISH	TWOPARAM	F	1.00000E-003	3.60000E+003	&Voltage Finish	 I (A) < 	Max Time(s)
SAMPLETIME	QUANT	1.00000E-002	Sa&mple Period (s)
CHARGESTOPAT1	MULTIPARAM	4	1.00000E+000	Charge Stop At &1	Voltage > Limit	V
CHARGESTOPAT2	MULTIPARAM	0	0.00000E+000	Charge Stop At &2	None	N/A
AESBHCSELECTOR	TOGGLE	F	Save Both Half Cells
IRCOMP	TOGGLE	F	IR &Measure
EOC	QUANT	0	Open Circuit (V)
SEQUENCER	TOGGLE	TRUE	Run as Sequence
PSTATMODEL	IQUANT	53	Pstat Model
PSTATSECTION	LABEL	IFC5000-01520	Pstat Section
PSTATSERIALNO	LABEL	01520	Pstat Serial Number
CTRLMODE	IQUANT	0	Control Mode
ELECTROMETER	IQUANT	1	RE=0 or CS=1
IESTAB	IQUANT	0	I/E Stability
CASPEED	IQUANT	4	Control Amp Speed
CONVENTION	IQUANT	1	Current Convention
ICHRANGE	IQUANT	2	Ich Range
ICHRANGEMODE	TOGGLE	T	Ich Auto Range
ICHOFFSETENABLE	TOGGLE	F	Ich Offset Enable
ICHOFFSET	QUANT	0	Ich Offset (V)
ICHFILTER	IQUANT	1	Ich Filter
VCHRANGE	IQUANT	2	Vch Range
VCHRANGEMODE	TOGGLE	T	Vch Auto Range
VCHOFFSETENABLE	TOGGLE	F	Vch Offset Enable
VCHOFFSET	QUANT	0	Vch Offset (V)
VCHFILTER	IQUANT	1	Vch Filter
IERANGELOWERLIMIT	IQUANT	9	I/E Range Lower Limit
IERANGEMODE	TOGGLE	F	I/E AutoRange
IERANGE	IQUANT	9	I/E Range
ACHSELECT	IQUANT	1	Ach Select
ACHRANGE	IQUANT	2	Ach Range
ACHOFFSETENABLE	TOGGLE	F	Ach Offset Enable
ACHOFFSET	QUANT	0	Ach Offset (V)
ACHFILTER	IQUANT	1	Ach Filter
CABLEID	IQUANT	14	Cable ID
DCCALDATE	LABEL	5-7-2017	DC Calibration Date
ACCALDATE	LABEL	12/3/2015	AC Calibration Date
FRAMEWORKVERSION	QUANT	7.01	Framework Version
INSTRUMENTVERSION	LABEL	4.00	Instrument Version
CURVE	TABLE	93
	Pt	T	Vf	Im	Vu	Pwr	Sig	Ach	Temp	IERange	Over
	#	s	V	A	V	W	V	V	deg C	#	bits
	0	0.013333	1.34252E-001	1.00909E-004	0.00000E+000	1.35473E-005	5.99601E-002	1.34293E-001	3.57990E+000	9	...........
	1	0.026667	1.49512E-001	1.01878E-004	0.00000E+000	1.52321E-005	5.99601E-002	1.49538E-001	3.57990E+000	9	...........
	2	0.04	1.64339E-001	1.02072E-004	0.00000E+000	1.67745E-005	5.99601E-002	1.64360E-001	3.57990E+000	9	...........
	3	0.053333	1.78888E-001	1.01023E-004	0.00000E+000	1.80718E-005	5.99601E-002	1.78920E-001	3.57990E+000	9	...........
	4	0.066667	1.93256E-001	1.00798E-004	0.00000E+000	1.94799E-005	5.99601E-002	1.93288E-001	3.57990E+000	9	...........
	5	0.08	2.07472E-001	1.00506E-004	0.00000E+000	2.08523E-005	5.99601E-002	2.07508E-001	3.57990E+000	9	...........
	6	0.093333	2.21591E-001	1.00585E-004	0.00000E+000	2.22888E-005	5.99601E-002	2.21628E-001	3.57990E+000	9	...........
	7	0.106667	2.35640E-001	1.01505E-004	0.00000E+000	2.39187E-005	5.99601E-002	2.35676E-001	3.57990E+000	9	...........
	8	0.12	2.49636E-001	9.98884E-005	0.00000E+000	2.49358E-005	5.99601E-002	2.49682E-001	3.57990E+000	9	...........
	9	0.133333	2.63612E-001	1.01074E-004	0.00000E+000	2.66443E-005	5.99601E-002	2.63664E-001	3.57990E+000	9	...........
	10	0.146667	2.77571E-001	1.00713E-004	0.00000E+000	2.79549E-005	5.99601E-002	2.77624E-001	3.57990E+000	9	...........
	11	0.16	2.91522E-001	1.00360E-004	0.00000E+000	2.92573E-005	5.99601E-002	2.91574E-001	3.57990E+000	9	...........
	12	0.173333	3.05482E-001	1.01384E-004	0.00000E+000	3.09708E-005	5.99601E-002	3.05542E-001	3.57990E+000	9	...........
	13	0.186667	3.19452E-001	1.01055E-004	0.00000E+000	3.22824E-005	5.99601E-002	3.19518E-001	3.57990E+000	9	...........
	14	0.2	3.33432E-001	1.01411E-004	0.00000E+000	3.38135E-005	5.99601E-002	3.33503E-001	3.57880E+000	9	...........
	15	0.213333	3.47433E-001	1.00478E-004	0.00000E+000	3.49095E-005	5.99601E-002	3.47500E-001	3.57880E+000	9	...........
	16	0.226667	3.61438E-001	1.00270E-004	0.00000E+000	3.62413E-005	5.99601E-002	3.61509E-001	3.57880E+000	9	...........
	17	0.24	3.75445E-001	1.00180E-004	0.00000E+000	3.76122E-005	5.99601E-002	3.75516E-001	3.57880E+000	9	...........
	18	0.253333	3.89447E-001	1.01030E-004	0.00000E+000	3.93460E-005	5.99601E-002	3.89524E-001	3.57880E+000	9	...........
	19	0.266667	4.03428E-001	1.00768E-004	0.00000E+000	4.06526E-005	5.99601E-002	4.03510E-001	3.57880E+000	9	...........
	20	0.28	4.17370E-001	1.01479E-004	0.00000E+000	4.23545E-005	5.99601E-002	4.17457E-001	3.57880E+000	9	...........
	21	0.293333	4.31249E-001	1.00730E-004	0.00000E+000	4.34398E-005	5.99601E-002	4.31339E-001	3.57880E+000	9	...........
	22	0.306667	4.45057E-001	1.00995E-004	0.00000E+000	4.49485E-005	5.99601E-002	4.45149E-001	3.57880E+000	9	...........
	23	0.32	4.58767E-001	1.00679E-004	0.00000E+000	4.61883E-005	5.99601E-002	4.58859E-001	3.57880E+000	9	...........
	24	0.333333	4.72356E-001	1.00522E-004	0.00000E+000	4.74821E-005	5.99601E-002	4.72452E-001	3.57880E+000	9	...........
	25	0.346667	4.85805E-001	1.00700E-004	0.00000E+000	4.89206E-005	5.99601E-002	4.85904E-001	3.57880E+000	9	...........
	26	0.36	4.99092E-001	1.01337E-004	0.00000E+000	5.05763E-005	5.99601E-002	4.99197E-001	3.57880E+000	9	...........
	27	0.373333	5.12206E-001	1.01652E-004	0.00000E+000	5.20670E-005	5.99601E-002	5.12318E-001	3.57880E+000	9	...........
	28	0.386667	5.25138E-001	1.00208E-004	0.00000E+000	5.26232E-005	5.99601E-002	5.25255E-001	3.57880E+000	9	...........
	29	0.4	5.37599E-001	1.01160E-004	0.00000E+000	5.43832E-005	5.99601E-002	5.37824E-001	3.57880E+000	9	...........
	30	0.413333	5.49997E-001	1.00925E-004	0.00000E+000	5.55085E-005	5.99601E-002	5.50297E-001	3.57880E+000	9	...........
	31	0.426667	5.62316E-001	1.01560E-004	0.00000E+000	5.71086E-005	5.99601E-002	5.62589E-001	3.57880E+000	9	...........
	32	0.44	5.74395E-001	1.00367E-004	0.00000E+000	5.76501E-005	5.99601E-002	5.74672E-001	3.57880E+000	9	...........
	33	0.453333	5.86228E-001	1.00619E-004	0.00000E+000	5.89856E-005	5.99601E-002	5.86517E-001	3.57880E+000	9	...........
	34	0.466667	5.97859E-001	1.01301E-004	0.00000E+000	6.05638E-005	5.99601E-002	5.98147E-001	3.57880E+000	9	...........
	35	0.48	6.09240E-001	1.01063E-004	0.00000E+000	6.15714E-005	5.99601E-002	6.09550E-001	3.57880E+000	9	...........
	36	0.493333	6.20471E-001	1.01377E-004	0.00000E+000	6.29017E-005	5.99601E-002	6.20733E-001	3.57880E+000	9	...........
	37	0.506667	6.31370E-001	1.01197E-004	0.00000E+000	6.38928E-005	5.99601E-002	6.31664E-001	3.57880E+000	9	...........
	38	0.52	6.42131E-001	1.00971E-004	0.00000E+000	6.48366E-005	5.99601E-002	6.42412E-001	3.57880E+000	9	...........
	39	0.533333	6.52639E-001	1.00784E-004	0.00000E+000	6.57759E-005	5.99601E-002	6.52926E-001	3.57880E+000	9	...........
	40	0.546667	6.62946E-001	1.01042E-004	0.00000E+000	6.69853E-005	5.99601E-002	6.63228E-001	3.57880E+000	9	...........
	41	0.56	6.73084E-001	1.00958E-004	0.00000E+000	6.79535E-005	5.99601E-002	6.73335E-001	3.57880E+000	9	...........
	42	0.573333	6.82935E-001	1.01313E-004	0.00000E+000	6.91900E-005	5.99601E-002	6.83230E-001	3.57880E+000	9	...........
	43	0.586667	6.92646E-001	1.00404E-004	0.00000E+000	6.95446E-005	5.99601E-002	6.92908E-001	3.57880E+000	9	...........
	44	0.6	7.02128E-001	1.01216E-004	0.00000E+000	7.10665E-005	5.99601E-002	7.02424E-001	3.57880E+000	9	...........
	45	0.613333	7.11441E-001	1.01371E-004	0.00000E+000	7.21195E-005	5.99601E-002	7.11745E-001	3.57880E+000	9	...........
	46	0.626667	7.20622E-001	1.00474E-004	0.00000E+000	7.24037E-005	5.99601E-002	7.20881E-001	3.57880E+000	9	...........
	47	0.64	7.29575E-001	1.00011E-004	0.00000E+000	7.29658E-005	5.99601E-002	7.29855E-001	3.57880E+000	9	...........
	48	0.653333	7.38356E-001	1.00302E-004	0.00000E+000	7.40586E-005	5.99601E-002	7.38633E-001	3.57880E+000	9	...........
	49	0.666667	7.46985E-001	1.01434E-004	0.00000E+000	7.57693E-005	5.99601E-002	7.47239E-001	3.57880E+000	9	...........
	50	0.68	7.55448E-001	1.01044E-004	0.00000E+000	7.63334E-005	5.99601E-002	7.55697E-001	3.57880E+000	9	...........
	51	0.693333	7.63700E-001	1.00524E-004	0.00000E+000	7.67702E-005	5.99601E-002	7.63986E-001	3.57880E+000	9	...........
	52	0.706667	7.71849E-001	1.00441E-004	0.00000E+000	7.75250E-005	5.99601E-002	7.72130E-001	3.57880E+000	9	...........
	53	0.72	7.79826E-001	1.01328E-004	0.00000E+000	7.90184E-005	5.99601E-002	7.80121E-001	3.57880E+000	9	...........
	54	0.733333	7.87668E-001	1.00877E-004	0.00000E+000	7.94577E-005	5.99601E-002	7.87957E-001	3.57880E+000	9	...........
	55	0.746667	7.95372E-001	1.01110E-004	0.00000E+000	8.04197E-005	5.99601E-002	7.95650E-001	3.57880E+000	9	...........
	56	0.76	8.02926E-001	1.00759E-004	0.00000E+000	8.09024E-005	5.99601E-002	8.03178E-001	3.57880E+000	9	...........
	57	0.773333	8.10312E-001	1.01728E-004	0.00000E+000	8.24318E-005	5.99601E-002	8.10602E-001	3.57880E+000	9	...........
	58	0.786667	8.17597E-001	1.01036E-004	0.00000E+000	8.26064E-005	5.99601E-002	8.17880E-001	3.57880E+000	9	...........
	59	0.8	8.24742E-001	1.01162E-004	0.00000E+000	8.34323E-005	5.99601E-002	8.25043E-001	3.57880E+000	9	...........
	60	0.813333	8.31738E-001	1.00358E-004	0.00000E+000	8.34718E-005	5.99601E-002	8.32062E-001	3.57880E+000	9	...........
	61	0.826667	8.38640E-001	1.00730E-004	0.00000E+000	8.44765E-005	5.99601E-002	8.38941E-001	3.57880E+000	9	...........
	62	0.84	8.45443E-001	1.00943E-004	0.00000E+000	8.53414E-005	5.99601E-002	8.45744E-001	3.57880E+000	9	...........
	63	0.853333	8.52094E-001	1.01205E-004	0.00000E+000	8.62365E-005	5.99601E-002	8.52403E-001	3.57880E+000	9	...........
	64	0.866667	8.58615E-001	1.01011E-004	0.00000E+000	8.67292E-005	5.99601E-002	8.58942E-001	3.57880E+000	9	...........
	65	0.88	8.65021E-001	1.01383E-004	0.00000E+000	8.76980E-005	5.99601E-002	8.65393E-001	3.57880E+000	9	...........
	66	0.893333	8.71367E-001	1.00481E-004	0.00000E+000	8.75561E-005	5.99601E-002	8.71712E-001	3.57880E+000	9	...........
	67	0.906667	8.77575E-001	1.01293E-004	0.00000E+000	8.88921E-005	5.99601E-002	8.77909E-001	3.57880E+000	9	...........
	68	0.92	8.83671E-001	1.00148E-004	0.00000E+000	8.84977E-005	5.99601E-002	8.83994E-001	3.57880E+000	9	...........
	69	0.933333	8.89644E-001	1.00271E-004	0.00000E+000	8.92053E-005	5.99601E-002	8.89977E-001	3.57880E+000	9	...........
	70	0.946667	8.95519E-001	9.99947E-005	0.00000E+000	8.95471E-005	5.99601E-002	8.95890E-001	3.57880E+000	9	...........
	71	0.96	9.01317E-001	1.00333E-004	0.00000E+000	9.04321E-005	5.99601E-002	9.01643E-001	3.57880E+000	9	...........
	72	0.97333	9.06977E-001	1.00440E-004	0.00000E+000	9.10964E-005	5.99601E-002	9.07338E-001	3.57880E+000	9	...........
	73	0.98667	9.12570E-001	1.01795E-004	0.00000E+000	9.28951E-005	5.99601E-002	9.12915E-001	3.57880E+000	9	...........
	74	1	9.18047E-001	1.01237E-004	0.00000E+000	9.29400E-005	5.99601E-002	9.18395E-001	3.57880E+000	9	...........
	75	1.01333	9.23491E-001	1.01173E-004	0.00000E+000	9.34325E-005	5.99601E-002	9.23790E-001	3.57880E+000	9	...........
	76	1.02667	9.28777E-001	1.01371E-004	0.00000E+000	9.41511E-005	5.99601E-002	9.29083E-001	3.57880E+000	9	...........
	77	1.04	9.33944E-001	1.00776E-004	0.00000E+000	9.41193E-005	5.99601E-002	9.34253E-001	3.57880E+000	9	...........
	78	1.05333	9.39012E-001	1.01326E-004	0.00000E+000	9.51466E-005	5.99601E-002	9.39366E-001	3.57880E+000	9	...........
	79	1.06667	9.44000E-001	1.00755E-004	0.00000E+000	9.51130E-005	5.99601E-002	9.44351E-001	3.57880E+000	9	...........
	80	1.08	9.48933E-001	1.00850E-004	0.00000E+000	9.57000E-005	5.99601E-002	9.49268E-001	3.57880E+000	9	...........
	81	1.09333	9.53739E-001	1.00972E-004	0.00000E+000	9.63009E-005	5.99601E-002	9.54061E-001	3.57880E+000	9	...........
	82	1.10667	9.58451E-001	1.00573E-004	0.00000E+000	9.63942E-005	5.99601E-002	9.58800E-001	3.57880E+000	9	...........
	83	1.12	9.63050E-001	1.00300E-004	0.00000E+000	9.65939E-005	5.99601E-002	9.63430E-001	3.57880E+000	9	...........
	84	1.13333	9.67592E-001	1.01435E-004	0.00000E+000	9.81473E-005	5.99601E-002	9.67956E-001	3.57880E+000	9	...........
	85	1.14667	9.72032E-001	1.00356E-004	0.00000E+000	9.75495E-005	5.99601E-002	9.72431E-001	3.57880E+000	9	...........
	86	1.16	9.76401E-001	1.01174E-004	0.00000E+000	9.87865E-005	5.99601E-002	9.76788E-001	3.57880E+000	9	...........
	87	1.17333	9.80683E-001	1.00363E-004	0.00000E+000	9.84238E-005	5.99601E-002	9.81056E-001	3.57880E+000	9	...........
	88	1.18667	9.84849E-001	1.00532E-004	0.00000E+000	9.90092E-005	5.99601E-002	9.85225E-001	3.57880E+000	9	...........
	89	1.2	9.88931E-001	9.95842E-005	0.00000E+000	9.84819E-005	5.99601E-002	9.89349E-001	3.57890E+000	9	...........
	90	1.21333	9.92932E-001	1.00678E-004	0.00000E+000	9.99666E-005	5.99601E-002	9.93316E-001	3.57890E+000	9	...........
	91	1.22667	9.96872E-001	1.00699E-004	0.00000E+000	1.00384E-004	5.99601E-002	9.97265E-001	3.57890E+000	9	...........
	92	1.23167	9.99549E-001	1.00556E-004	0.00000E+000	1.00511E-004	5.99601E-002	9.99941E-001	3.57890E+000	9	...........
STARTTIMEOFFSET	QUANT	1050.439	Start Time Offset (s)
