EXPLAIN
TAG	PWR800_CHARGE
TITLE	LABEL	PWR Cyclic Charge Discharge (Cell) - Charge Step	Test &Identifier
DATE	LABEL	13-7-2017	Date
TIME	LABEL	15:30:19	Time
NOTES	NOTES	2	&Notes...
	supercap test cell
	6M KOH
PSTAT	PSTAT	IFC5000-01520	Potentiostat
CAPACITY	QUANT	1.00000E-003	Capacity (A-hr)
CELLTYPE	SELECTOR	1	&Cell Type
WORKINGCONNECTION	SELECTOR	0	&Working Lead
MAXCHARGETIME	VARIABLEANDUNITS	1.00000E+002	s	1.00000E+002	second(s)	Max &Charge Time
CHARGECURRENT	QUANT	1.00000E-004	&Charge Current (A) 
VOLTAGEFINISH	TWOPARAM	F	1.00000E-003	3.60000E+003	&Voltage Finish	 I (A) < 	Max Time(s)
SAMPLETIME	QUANT	1.00000E-002	Sa&mple Period (s)
CHARGESTOPAT1	MULTIPARAM	4	1.00000E+000	Charge Stop At &1	Voltage > Limit	V
CHARGESTOPAT2	MULTIPARAM	0	0.00000E+000	Charge Stop At &2	None	N/A
AESBHCSELECTOR	TOGGLE	F	Save Both Half Cells
IRCOMP	TOGGLE	F	IR &Measure
EOC	QUANT	0	Open Circuit (V)
SEQUENCER	TOGGLE	TRUE	Run as Sequence
PSTATMODEL	IQUANT	53	Pstat Model
PSTATSECTION	LABEL	IFC5000-01520	Pstat Section
PSTATSERIALNO	LABEL	01520	Pstat Serial Number
CTRLMODE	IQUANT	0	Control Mode
ELECTROMETER	IQUANT	1	RE=0 or CS=1
IESTAB	IQUANT	0	I/E Stability
CASPEED	IQUANT	4	Control Amp Speed
CONVENTION	IQUANT	1	Current Convention
ICHRANGE	IQUANT	2	Ich Range
ICHRANGEMODE	TOGGLE	T	Ich Auto Range
ICHOFFSETENABLE	TOGGLE	F	Ich Offset Enable
ICHOFFSET	QUANT	0	Ich Offset (V)
ICHFILTER	IQUANT	1	Ich Filter
VCHRANGE	IQUANT	2	Vch Range
VCHRANGEMODE	TOGGLE	T	Vch Auto Range
VCHOFFSETENABLE	TOGGLE	F	Vch Offset Enable
VCHOFFSET	QUANT	0	Vch Offset (V)
VCHFILTER	IQUANT	1	Vch Filter
IERANGELOWERLIMIT	IQUANT	9	I/E Range Lower Limit
IERANGEMODE	TOGGLE	F	I/E AutoRange
IERANGE	IQUANT	9	I/E Range
ACHSELECT	IQUANT	1	Ach Select
ACHRANGE	IQUANT	2	Ach Range
ACHOFFSETENABLE	TOGGLE	F	Ach Offset Enable
ACHOFFSET	QUANT	0	Ach Offset (V)
ACHFILTER	IQUANT	1	Ach Filter
CABLEID	IQUANT	14	Cable ID
DCCALDATE	LABEL	5-7-2017	DC Calibration Date
ACCALDATE	LABEL	12/3/2015	AC Calibration Date
FRAMEWORKVERSION	QUANT	7.01	Framework Version
INSTRUMENTVERSION	LABEL	4.00	Instrument Version
CURVE	TABLE	92
	Pt	T	Vf	Im	Vu	Pwr	Sig	Ach	Temp	IERange	Over
	#	s	V	A	V	W	V	V	deg C	#	bits
	0	0.013333	1.32902E-001	1.00603E-004	0.00000E+000	1.33703E-005	5.99601E-002	1.32958E-001	3.57850E+000	9	...........
	1	0.026667	1.48181E-001	1.01023E-004	0.00000E+000	1.49697E-005	5.99601E-002	1.48203E-001	3.57850E+000	9	...........
	2	0.04	1.63012E-001	1.00799E-004	0.00000E+000	1.64315E-005	5.99601E-002	1.63040E-001	3.57850E+000	9	...........
	3	0.053333	1.77574E-001	1.00752E-004	0.00000E+000	1.78909E-005	5.99601E-002	1.77607E-001	3.57894E+000	9	...........
	4	0.066667	1.91944E-001	1.01615E-004	0.00000E+000	1.95044E-005	5.99601E-002	1.91979E-001	3.57920E+000	9	...........
	5	0.08	2.06168E-001	1.01113E-004	0.00000E+000	2.08462E-005	5.99601E-002	2.06209E-001	3.57920E+000	9	...........
	6	0.093333	2.20302E-001	1.01611E-004	0.00000E+000	2.23850E-005	5.99601E-002	2.20338E-001	3.57920E+000	9	...........
	7	0.106667	2.34355E-001	1.01306E-004	0.00000E+000	2.37417E-005	5.99601E-002	2.34395E-001	3.57920E+000	9	...........
	8	0.12	2.48358E-001	1.01423E-004	0.00000E+000	2.51893E-005	5.99601E-002	2.48404E-001	3.57920E+000	9	...........
	9	0.133333	2.62337E-001	1.00793E-004	0.00000E+000	2.64417E-005	5.99601E-002	2.62383E-001	3.57920E+000	9	...........
	10	0.146667	2.76301E-001	1.00950E-004	0.00000E+000	2.78926E-005	5.99601E-002	2.76356E-001	3.57920E+000	9	...........
	11	0.16	2.90263E-001	1.00889E-004	0.00000E+000	2.92843E-005	5.99601E-002	2.90313E-001	3.57920E+000	9	...........
	12	0.173333	3.04234E-001	1.00531E-004	0.00000E+000	3.05850E-005	5.99601E-002	3.04291E-001	3.57920E+000	9	...........
	13	0.186667	3.18217E-001	1.00890E-004	0.00000E+000	3.21048E-005	5.99601E-002	3.18279E-001	3.57920E+000	9	...........
	14	0.2	3.32226E-001	1.00704E-004	0.00000E+000	3.34566E-005	5.99601E-002	3.32291E-001	3.57920E+000	9	...........
	15	0.213333	3.46250E-001	1.00634E-004	0.00000E+000	3.48447E-005	5.99601E-002	3.46318E-001	3.57920E+000	9	...........
	16	0.226667	3.60296E-001	1.00732E-004	0.00000E+000	3.62934E-005	5.99601E-002	3.60364E-001	3.57920E+000	9	...........
	17	0.24	3.74348E-001	1.00505E-004	0.00000E+000	3.76239E-005	5.99601E-002	3.74421E-001	3.57920E+000	9	...........
	18	0.253333	3.88404E-001	1.01423E-004	0.00000E+000	3.93931E-005	5.99601E-002	3.88477E-001	3.57920E+000	9	...........
	19	0.266667	4.02442E-001	1.00037E-004	0.00000E+000	4.02593E-005	5.99601E-002	4.02516E-001	3.57920E+000	9	...........
	20	0.28	4.16449E-001	1.01293E-004	0.00000E+000	4.21833E-005	5.99601E-002	4.16529E-001	3.57920E+000	9	...........
	21	0.293333	4.30407E-001	1.00956E-004	0.00000E+000	4.34523E-005	5.99601E-002	4.30497E-001	3.57920E+000	9	...........
	22	0.306667	4.44298E-001	1.00969E-004	0.00000E+000	4.48603E-005	5.99601E-002	4.44387E-001	3.57920E+000	9	...........
	23	0.32	4.58100E-001	1.00534E-004	0.00000E+000	4.60548E-005	5.99601E-002	4.58191E-001	3.57920E+000	9	...........
	24	0.333333	4.71785E-001	1.01153E-004	0.00000E+000	4.77226E-005	5.99601E-002	4.71876E-001	3.57920E+000	9	...........
	25	0.346667	4.85328E-001	1.00103E-004	0.00000E+000	4.85829E-005	5.99601E-002	4.85430E-001	3.57920E+000	9	...........
	26	0.36	4.98723E-001	1.00968E-004	0.00000E+000	5.03550E-005	5.99601E-002	4.98827E-001	3.57920E+000	9	...........
	27	0.373333	5.11942E-001	1.00776E-004	0.00000E+000	5.15915E-005	5.99601E-002	5.12053E-001	3.57920E+000	9	...........
	28	0.386667	5.24980E-001	1.00680E-004	0.00000E+000	5.28551E-005	5.99601E-002	5.25088E-001	3.57920E+000	9	...........
	29	0.4	5.37542E-001	1.01630E-004	0.00000E+000	5.46307E-005	5.99601E-002	5.37757E-001	3.57920E+000	9	...........
	30	0.413333	5.50063E-001	1.01459E-004	0.00000E+000	5.58087E-005	5.99601E-002	5.50327E-001	3.57920E+000	9	...........
	31	0.426667	5.62506E-001	1.01240E-004	0.00000E+000	5.69479E-005	5.99601E-002	5.62782E-001	3.57920E+000	9	...........
	32	0.44	5.74690E-001	1.01106E-004	0.00000E+000	5.81048E-005	5.99601E-002	5.74970E-001	3.57920E+000	9	...........
	33	0.453333	5.86644E-001	1.01268E-004	0.00000E+000	5.94083E-005	5.99601E-002	5.86938E-001	3.57920E+000	9	...........
	34	0.466667	5.98361E-001	1.00864E-004	0.00000E+000	6.03529E-005	5.99601E-002	5.98677E-001	3.57920E+000	9	...........
	35	0.48	6.09871E-001	1.01257E-004	0.00000E+000	6.17540E-005	5.99601E-002	6.10172E-001	3.57920E+000	9	...........
	36	0.493333	6.21194E-001	1.00333E-004	0.00000E+000	6.23264E-005	5.99601E-002	6.21453E-001	3.57920E+000	9	...........
	37	0.506667	6.32228E-001	1.00714E-004	0.00000E+000	6.36739E-005	5.99601E-002	6.32513E-001	3.57920E+000	9	...........
	38	0.52	6.43074E-001	1.00478E-004	0.00000E+000	6.46149E-005	5.99601E-002	6.43362E-001	3.57920E+000	9	...........
	39	0.533333	6.53688E-001	1.01102E-004	0.00000E+000	6.60893E-005	5.99601E-002	6.53976E-001	3.57920E+000	9	...........
	40	0.546667	6.64107E-001	1.00911E-004	0.00000E+000	6.70154E-005	5.99601E-002	6.64380E-001	3.57920E+000	9	...........
	41	0.56	6.74328E-001	1.00544E-004	0.00000E+000	6.77995E-005	5.99601E-002	6.74588E-001	3.57920E+000	9	...........
	42	0.573333	6.84286E-001	1.01011E-004	0.00000E+000	6.91201E-005	5.99601E-002	6.84574E-001	3.57920E+000	9	...........
	43	0.586667	6.94089E-001	1.01369E-004	0.00000E+000	7.03591E-005	5.99601E-002	6.94373E-001	3.57920E+000	9	...........
	44	0.6	7.03683E-001	1.01129E-004	0.00000E+000	7.11630E-005	5.99601E-002	7.03958E-001	3.57920E+000	9	...........
	45	0.613333	7.13084E-001	1.00521E-004	0.00000E+000	7.16798E-005	5.99601E-002	7.13348E-001	3.57920E+000	9	...........
	46	0.626667	7.22330E-001	1.00020E-004	0.00000E+000	7.22472E-005	5.99601E-002	7.22605E-001	3.57920E+000	9	...........
	47	0.64	7.31353E-001	1.01092E-004	0.00000E+000	7.39338E-005	5.99601E-002	7.31644E-001	3.57920E+000	9	...........
	48	0.653333	7.40231E-001	9.98707E-005	0.00000E+000	7.39274E-005	5.99601E-002	7.40503E-001	3.57920E+000	9	...........
	49	0.666667	7.48938E-001	1.01418E-004	0.00000E+000	7.59558E-005	5.99601E-002	7.49200E-001	3.57920E+000	9	...........
	50	0.68	7.57466E-001	1.01662E-004	0.00000E+000	7.70053E-005	5.99601E-002	7.57709E-001	3.57920E+000	9	...........
	51	0.693333	7.65799E-001	1.01295E-004	0.00000E+000	7.75717E-005	5.99601E-002	7.66095E-001	3.57920E+000	9	...........
	52	0.706667	7.74010E-001	1.01095E-004	0.00000E+000	7.82485E-005	5.99601E-002	7.74306E-001	3.57920E+000	9	...........
	53	0.72	7.82062E-001	1.00369E-004	0.00000E+000	7.84946E-005	5.99601E-002	7.82364E-001	3.57920E+000	9	...........
	54	0.733333	7.89978E-001	1.00430E-004	0.00000E+000	7.93377E-005	5.99601E-002	7.90245E-001	3.57920E+000	9	...........
	55	0.746667	7.97749E-001	1.01366E-004	0.00000E+000	8.08645E-005	5.99601E-002	7.98020E-001	3.57920E+000	9	...........
	56	0.76	8.05335E-001	1.00710E-004	0.00000E+000	8.11057E-005	5.99601E-002	8.05623E-001	3.57920E+000	9	...........
	57	0.773333	8.12782E-001	1.00158E-004	0.00000E+000	8.14068E-005	5.99601E-002	8.13098E-001	3.57920E+000	9	...........
	58	0.786667	8.20132E-001	1.01133E-004	0.00000E+000	8.29428E-005	5.99601E-002	8.20456E-001	3.57920E+000	9	...........
	59	0.8	8.27342E-001	1.00293E-004	0.00000E+000	8.29764E-005	5.99601E-002	8.27637E-001	3.57920E+000	9	...........
	60	0.813333	8.34392E-001	1.01591E-004	0.00000E+000	8.47667E-005	5.99601E-002	8.34738E-001	3.57920E+000	9	...........
	61	0.826667	8.41334E-001	1.00274E-004	0.00000E+000	8.43638E-005	5.99601E-002	8.41664E-001	3.57920E+000	9	...........
	62	0.84	8.48157E-001	1.01381E-004	0.00000E+000	8.59874E-005	5.99601E-002	8.48534E-001	3.57920E+000	9	...........
	63	0.853333	8.54865E-001	1.00112E-004	0.00000E+000	8.55826E-005	5.99601E-002	8.55194E-001	3.57920E+000	9	...........
	64	0.866667	8.61437E-001	1.00227E-004	0.00000E+000	8.63393E-005	5.99601E-002	8.61811E-001	3.57920E+000	9	...........
	65	0.88	8.67920E-001	1.00272E-004	0.00000E+000	8.70279E-005	5.99601E-002	8.68282E-001	3.57920E+000	9	...........
	66	0.893333	8.74292E-001	1.01565E-004	0.00000E+000	8.87973E-005	5.99601E-002	8.74634E-001	3.57920E+000	9	...........
	67	0.906667	8.80516E-001	1.00958E-004	0.00000E+000	8.88955E-005	5.99601E-002	8.80866E-001	3.57920E+000	9	...........
	68	0.92	8.86663E-001	9.92175E-005	0.00000E+000	8.79724E-005	5.99601E-002	8.87026E-001	3.57920E+000	9	...........
	69	0.933333	8.92671E-001	1.00666E-004	0.00000E+000	8.98614E-005	5.99601E-002	8.93032E-001	3.57920E+000	9	...........
	70	0.946667	8.98586E-001	1.01315E-004	0.00000E+000	9.10400E-005	5.99601E-002	8.98965E-001	3.57920E+000	9	...........
	71	0.96	9.04394E-001	1.01453E-004	0.00000E+000	9.17538E-005	5.99601E-002	9.04783E-001	3.57920E+000	9	...........
	72	0.97333	9.10117E-001	1.01306E-004	0.00000E+000	9.22007E-005	5.99601E-002	9.10479E-001	3.57920E+000	9	...........
	73	0.98667	9.15705E-001	9.97936E-005	0.00000E+000	9.13815E-005	5.99601E-002	9.16075E-001	3.57920E+000	9	...........
	74	1	9.21206E-001	1.01216E-004	0.00000E+000	9.32406E-005	5.99601E-002	9.21569E-001	3.57920E+000	9	...........
	75	1.01333	9.26635E-001	1.00429E-004	0.00000E+000	9.30612E-005	5.99601E-002	9.26984E-001	3.57920E+000	9	...........
	76	1.02667	9.31938E-001	1.00375E-004	0.00000E+000	9.35433E-005	5.99601E-002	9.32275E-001	3.57920E+000	9	...........
	77	1.04	9.37135E-001	1.01154E-004	0.00000E+000	9.47953E-005	5.99601E-002	9.37493E-001	3.57920E+000	9	...........
	78	1.05333	9.42216E-001	1.00798E-004	0.00000E+000	9.49735E-005	5.99601E-002	9.42583E-001	3.57932E+000	9	...........
	79	1.06667	9.47244E-001	1.00344E-004	0.00000E+000	9.50500E-005	5.99601E-002	9.47616E-001	3.57940E+000	9	...........
	80	1.08	9.52178E-001	1.01162E-004	0.00000E+000	9.63239E-005	5.99601E-002	9.52531E-001	3.57940E+000	9	...........
	81	1.09333	9.56994E-001	1.01131E-004	0.00000E+000	9.67821E-005	5.99601E-002	9.57334E-001	3.57940E+000	9	...........
	82	1.10667	9.61712E-001	1.01110E-004	0.00000E+000	9.72382E-005	5.99601E-002	9.62074E-001	3.57940E+000	9	...........
	83	1.12	9.66327E-001	1.02030E-004	0.00000E+000	9.85939E-005	5.99601E-002	9.66713E-001	3.57940E+000	9	...........
	84	1.13333	9.70856E-001	1.00609E-004	0.00000E+000	9.76773E-005	5.99601E-002	9.71275E-001	3.57940E+000	9	...........
	85	1.14667	9.75374E-001	9.91873E-005	0.00000E+000	9.67447E-005	5.99601E-002	9.75734E-001	3.57940E+000	9	...........
	86	1.16	9.79712E-001	1.01619E-004	0.00000E+000	9.95574E-005	5.99601E-002	9.80091E-001	3.57940E+000	9	...........
	87	1.17333	9.83990E-001	9.98353E-005	0.00000E+000	9.82370E-005	5.99601E-002	9.84362E-001	3.57940E+000	9	...........
	88	1.18667	9.88154E-001	1.00824E-004	0.00000E+000	9.96297E-005	5.99601E-002	9.88574E-001	3.57940E+000	9	...........
	89	1.2	9.92246E-001	1.01595E-004	0.00000E+000	1.00807E-004	5.99601E-002	9.92649E-001	3.57940E+000	9	...........
	90	1.21333	9.96251E-001	1.01067E-004	0.00000E+000	1.00688E-004	5.99601E-002	9.96641E-001	3.57940E+000	9	...........
	91	1.22167	9.99474E-001	1.00750E-004	0.00000E+000	1.00697E-004	5.99601E-002	9.99861E-001	3.57940E+000	9	...........
STARTTIMEOFFSET	QUANT	1280.353	Start Time Offset (s)
