EXPLAIN
TAG	PWR800_CHARGE
TITLE	LABEL	PWR Cyclic Charge Discharge (Cell) - Charge Step	Test &Identifier
DATE	LABEL	13-7-2017	Date
TIME	LABEL	15:45:23	Time
NOTES	NOTES	2	&Notes...
	supercap test cell
	6M KOH
PSTAT	PSTAT	IFC5000-01520	Potentiostat
CAPACITY	QUANT	1.00000E-003	Capacity (A-hr)
CELLTYPE	SELECTOR	1	&Cell Type
WORKINGCONNECTION	SELECTOR	0	&Working Lead
MAXCHARGETIME	VARIABLEANDUNITS	1.00000E+002	s	1.00000E+002	second(s)	Max &Charge Time
CHARGECURRENT	QUANT	1.00000E-004	&Charge Current (A) 
VOLTAGEFINISH	TWOPARAM	F	1.00000E-003	3.60000E+003	&Voltage Finish	 I (A) < 	Max Time(s)
SAMPLETIME	QUANT	1.00000E-002	Sa&mple Period (s)
CHARGESTOPAT1	MULTIPARAM	4	1.00000E+000	Charge Stop At &1	Voltage > Limit	V
CHARGESTOPAT2	MULTIPARAM	0	0.00000E+000	Charge Stop At &2	None	N/A
AESBHCSELECTOR	TOGGLE	F	Save Both Half Cells
IRCOMP	TOGGLE	F	IR &Measure
EOC	QUANT	0	Open Circuit (V)
SEQUENCER	TOGGLE	TRUE	Run as Sequence
PSTATMODEL	IQUANT	53	Pstat Model
PSTATSECTION	LABEL	IFC5000-01520	Pstat Section
PSTATSERIALNO	LABEL	01520	Pstat Serial Number
CTRLMODE	IQUANT	0	Control Mode
ELECTROMETER	IQUANT	1	RE=0 or CS=1
IESTAB	IQUANT	0	I/E Stability
CASPEED	IQUANT	4	Control Amp Speed
CONVENTION	IQUANT	1	Current Convention
ICHRANGE	IQUANT	2	Ich Range
ICHRANGEMODE	TOGGLE	T	Ich Auto Range
ICHOFFSETENABLE	TOGGLE	F	Ich Offset Enable
ICHOFFSET	QUANT	0	Ich Offset (V)
ICHFILTER	IQUANT	1	Ich Filter
VCHRANGE	IQUANT	2	Vch Range
VCHRANGEMODE	TOGGLE	T	Vch Auto Range
VCHOFFSETENABLE	TOGGLE	F	Vch Offset Enable
VCHOFFSET	QUANT	0	Vch Offset (V)
VCHFILTER	IQUANT	1	Vch Filter
IERANGELOWERLIMIT	IQUANT	9	I/E Range Lower Limit
IERANGEMODE	TOGGLE	F	I/E AutoRange
IERANGE	IQUANT	9	I/E Range
ACHSELECT	IQUANT	1	Ach Select
ACHRANGE	IQUANT	2	Ach Range
ACHOFFSETENABLE	TOGGLE	F	Ach Offset Enable
ACHOFFSET	QUANT	0	Ach Offset (V)
ACHFILTER	IQUANT	1	Ach Filter
CABLEID	IQUANT	14	Cable ID
DCCALDATE	LABEL	5-7-2017	DC Calibration Date
ACCALDATE	LABEL	12/3/2015	AC Calibration Date
FRAMEWORKVERSION	QUANT	7.01	Framework Version
INSTRUMENTVERSION	LABEL	4.00	Instrument Version
CURVE	TABLE	90
	Pt	T	Vf	Im	Vu	Pwr	Sig	Ach	Temp	IERange	Over
	#	s	V	A	V	W	V	V	deg C	#	bits
	0	0.013333	1.33954E-001	1.00838E-004	0.00000E+000	1.35076E-005	5.99601E-002	1.34003E-001	3.57990E+000	9	...........
	1	0.026667	1.49273E-001	1.01125E-004	0.00000E+000	1.50953E-005	5.99601E-002	1.49295E-001	3.57990E+000	9	...........
	2	0.04	1.64145E-001	1.00902E-004	0.00000E+000	1.65626E-005	5.99601E-002	1.64170E-001	3.57990E+000	9	...........
	3	0.053333	1.78749E-001	1.01076E-004	0.00000E+000	1.80672E-005	5.99601E-002	1.78782E-001	3.57990E+000	9	...........
	4	0.066667	1.93169E-001	1.00975E-004	0.00000E+000	1.95053E-005	5.99601E-002	1.93198E-001	3.57990E+000	9	...........
	5	0.08	2.07433E-001	1.00958E-004	0.00000E+000	2.09421E-005	5.99601E-002	2.07476E-001	3.57990E+000	9	...........
	6	0.093333	2.21604E-001	1.01355E-004	0.00000E+000	2.24608E-005	5.99601E-002	2.21646E-001	3.57923E+000	9	...........
	7	0.106667	2.35705E-001	1.00865E-004	0.00000E+000	2.37743E-005	5.99601E-002	2.35737E-001	3.57900E+000	9	...........
	8	0.12	2.49750E-001	1.00861E-004	0.00000E+000	2.51899E-005	5.99601E-002	2.49799E-001	3.57900E+000	9	...........
	9	0.133333	2.63783E-001	1.01232E-004	0.00000E+000	2.67034E-005	5.99601E-002	2.63830E-001	3.57900E+000	9	...........
	10	0.146667	2.77799E-001	1.00880E-004	0.00000E+000	2.80244E-005	5.99601E-002	2.77853E-001	3.57900E+000	9	...........
	11	0.16	2.91828E-001	1.00078E-004	0.00000E+000	2.92056E-005	5.99601E-002	2.91877E-001	3.57900E+000	9	...........
	12	0.173333	3.05864E-001	1.00544E-004	0.00000E+000	3.07527E-005	5.99601E-002	3.05922E-001	3.57900E+000	9	...........
	13	0.186667	3.19932E-001	1.00839E-004	0.00000E+000	3.22615E-005	5.99601E-002	3.19989E-001	3.57900E+000	9	...........
	14	0.2	3.34015E-001	1.01170E-004	0.00000E+000	3.37923E-005	5.99601E-002	3.34070E-001	3.57900E+000	9	...........
	15	0.213333	3.48128E-001	9.99666E-005	0.00000E+000	3.48011E-005	5.99601E-002	3.48191E-001	3.57900E+000	9	...........
	16	0.226667	3.62266E-001	1.00528E-004	0.00000E+000	3.64180E-005	5.99601E-002	3.62329E-001	3.57900E+000	9	...........
	17	0.24	3.76420E-001	1.00796E-004	0.00000E+000	3.79416E-005	5.99601E-002	3.76493E-001	3.57900E+000	9	...........
	18	0.253333	3.90584E-001	1.00976E-004	0.00000E+000	3.94397E-005	5.99601E-002	3.90659E-001	3.57900E+000	9	...........
	19	0.266667	4.04742E-001	1.01334E-004	0.00000E+000	4.10140E-005	5.99601E-002	4.04819E-001	3.57900E+000	9	...........
	20	0.28	4.18876E-001	1.01356E-004	0.00000E+000	4.24557E-005	5.99601E-002	4.18960E-001	3.57900E+000	9	...........
	21	0.293333	4.32968E-001	1.00453E-004	0.00000E+000	4.34931E-005	5.99601E-002	4.33056E-001	3.57900E+000	9	...........
	22	0.306667	4.47004E-001	1.01799E-004	0.00000E+000	4.55047E-005	5.99601E-002	4.47097E-001	3.57900E+000	9	...........
	23	0.32	4.60958E-001	1.01392E-004	0.00000E+000	4.67374E-005	5.99601E-002	4.61045E-001	3.57900E+000	9	...........
	24	0.333333	4.74798E-001	1.01510E-004	0.00000E+000	4.81966E-005	5.99601E-002	4.74896E-001	3.57900E+000	9	...........
	25	0.346667	4.88516E-001	1.00682E-004	0.00000E+000	4.91849E-005	5.99601E-002	4.88612E-001	3.57900E+000	9	...........
	26	0.36	5.02079E-001	1.00956E-004	0.00000E+000	5.06881E-005	5.99601E-002	5.02179E-001	3.57900E+000	9	...........
	27	0.373333	5.15469E-001	1.00024E-004	0.00000E+000	5.15592E-005	5.99601E-002	5.15576E-001	3.57900E+000	9	...........
	28	0.386667	5.28683E-001	1.00710E-004	0.00000E+000	5.32439E-005	5.99601E-002	5.28770E-001	3.57900E+000	9	...........
	29	0.4	5.41357E-001	1.01754E-004	0.00000E+000	5.50854E-005	5.99601E-002	5.41607E-001	3.57900E+000	9	...........
	30	0.413333	5.54136E-001	1.00874E-004	0.00000E+000	5.58980E-005	5.99601E-002	5.54417E-001	3.57900E+000	9	...........
	31	0.426667	5.66755E-001	1.01380E-004	0.00000E+000	5.74578E-005	5.99601E-002	5.67002E-001	3.57900E+000	9	...........
	32	0.44	5.79063E-001	1.01604E-004	0.00000E+000	5.88354E-005	5.99601E-002	5.79361E-001	3.57900E+000	9	...........
	33	0.453333	5.91225E-001	1.01221E-004	0.00000E+000	5.98444E-005	5.99601E-002	5.91503E-001	3.57900E+000	9	...........
	34	0.466667	6.03086E-001	1.00556E-004	0.00000E+000	6.06441E-005	5.99601E-002	6.03397E-001	3.57900E+000	9	...........
	35	0.48	6.14792E-001	1.00776E-004	0.00000E+000	6.19564E-005	5.99601E-002	6.15071E-001	3.57900E+000	9	...........
	36	0.493333	6.26258E-001	1.01336E-004	0.00000E+000	6.34622E-005	5.99601E-002	6.26503E-001	3.57900E+000	9	...........
	37	0.506667	6.37456E-001	1.00699E-004	0.00000E+000	6.41912E-005	5.99601E-002	6.37726E-001	3.57900E+000	9	...........
	38	0.52	6.48439E-001	1.00820E-004	0.00000E+000	6.53755E-005	5.99601E-002	6.48708E-001	3.57900E+000	9	...........
	39	0.533333	6.59193E-001	1.01464E-004	0.00000E+000	6.68842E-005	5.99601E-002	6.59447E-001	3.57900E+000	9	...........
	40	0.546667	6.69748E-001	1.00246E-004	0.00000E+000	6.71394E-005	5.99601E-002	6.70035E-001	3.57900E+000	9	...........
	41	0.56	6.80085E-001	1.01977E-004	0.00000E+000	6.93534E-005	5.99601E-002	6.80338E-001	3.57900E+000	9	...........
	42	0.573333	6.90198E-001	1.00253E-004	0.00000E+000	6.91945E-005	5.99601E-002	6.90462E-001	3.57900E+000	9	...........
	43	0.586667	7.00118E-001	1.00130E-004	0.00000E+000	7.01029E-005	5.99601E-002	7.00395E-001	3.57900E+000	9	...........
	44	0.6	7.09819E-001	1.00563E-004	0.00000E+000	7.13812E-005	5.99601E-002	7.10098E-001	3.57900E+000	9	...........
	45	0.613333	7.19387E-001	1.00887E-004	0.00000E+000	7.25765E-005	5.99601E-002	7.19641E-001	3.57900E+000	9	...........
	46	0.626667	7.28716E-001	1.00534E-004	0.00000E+000	7.32610E-005	5.99601E-002	7.28979E-001	3.57900E+000	9	...........
	47	0.64	7.37853E-001	1.01949E-004	0.00000E+000	7.52236E-005	5.99601E-002	7.38124E-001	3.57900E+000	9	...........
	48	0.653333	7.46846E-001	1.00663E-004	0.00000E+000	7.51795E-005	5.99601E-002	7.47120E-001	3.57900E+000	9	...........
	49	0.666667	7.55636E-001	1.00117E-004	0.00000E+000	7.56517E-005	5.99601E-002	7.55936E-001	3.57900E+000	9	...........
	50	0.68	7.64278E-001	1.00294E-004	0.00000E+000	7.66523E-005	5.99601E-002	7.64546E-001	3.57900E+000	9	...........
	51	0.693333	7.72727E-001	1.01522E-004	0.00000E+000	7.84489E-005	5.99601E-002	7.73035E-001	3.57900E+000	9	...........
	52	0.706667	7.81043E-001	1.01064E-004	0.00000E+000	7.89350E-005	5.99601E-002	7.81329E-001	3.57900E+000	9	...........
	53	0.72	7.89167E-001	1.01136E-004	0.00000E+000	7.98128E-005	5.99601E-002	7.89472E-001	3.57900E+000	9	...........
	54	0.733333	7.97187E-001	1.00891E-004	0.00000E+000	8.04288E-005	5.99601E-002	7.97481E-001	3.57900E+000	9	...........
	55	0.746667	8.04988E-001	1.00855E-004	0.00000E+000	8.11873E-005	5.99601E-002	8.05300E-001	3.57900E+000	9	...........
	56	0.76	8.12692E-001	1.00787E-004	0.00000E+000	8.19084E-005	5.99601E-002	8.12987E-001	3.57900E+000	9	...........
	57	0.773333	8.20225E-001	1.01590E-004	0.00000E+000	8.33265E-005	5.99601E-002	8.20561E-001	3.57900E+000	9	...........
	58	0.786667	8.27632E-001	1.00060E-004	0.00000E+000	8.28132E-005	5.99601E-002	8.27950E-001	3.57900E+000	9	...........
	59	0.8	8.34893E-001	1.01079E-004	0.00000E+000	8.43904E-005	5.99601E-002	8.35231E-001	3.57900E+000	9	...........
	60	0.813333	8.42020E-001	1.01100E-004	0.00000E+000	8.51284E-005	5.99601E-002	8.42356E-001	3.57900E+000	9	...........
	61	0.826667	8.49045E-001	1.01301E-004	0.00000E+000	8.60093E-005	5.99601E-002	8.49378E-001	3.57900E+000	9	...........
	62	0.84	8.55917E-001	1.01054E-004	0.00000E+000	8.64941E-005	5.99601E-002	8.56284E-001	3.57900E+000	9	...........
	63	0.853333	8.62663E-001	1.01716E-004	0.00000E+000	8.77465E-005	5.99601E-002	8.63042E-001	3.57900E+000	9	...........
	64	0.866667	8.69333E-001	1.00509E-004	0.00000E+000	8.73761E-005	5.99601E-002	8.69702E-001	3.57900E+000	9	...........
	65	0.88	8.75864E-001	1.01794E-004	0.00000E+000	8.91577E-005	5.99601E-002	8.76231E-001	3.57900E+000	9	...........
	66	0.893333	8.82270E-001	1.01570E-004	0.00000E+000	8.96122E-005	5.99601E-002	8.82617E-001	3.57900E+000	9	...........
	67	0.906667	8.88561E-001	1.00659E-004	0.00000E+000	8.94421E-005	5.99601E-002	8.88920E-001	3.57900E+000	9	...........
	68	0.92	8.94723E-001	1.00833E-004	0.00000E+000	9.02180E-005	5.99601E-002	8.95105E-001	3.57900E+000	9	...........
	69	0.933333	9.00796E-001	1.00666E-004	0.00000E+000	9.06792E-005	5.99601E-002	9.01167E-001	3.57900E+000	9	...........
	70	0.946667	9.06755E-001	1.01417E-004	0.00000E+000	9.19603E-005	5.99601E-002	9.07135E-001	3.57900E+000	9	...........
	71	0.96	9.12624E-001	1.00430E-004	0.00000E+000	9.16550E-005	5.99601E-002	9.12990E-001	3.57900E+000	9	...........
	72	0.97333	9.18348E-001	1.00825E-004	0.00000E+000	9.25926E-005	5.99601E-002	9.18719E-001	3.57900E+000	9	...........
	73	0.98667	9.24027E-001	1.00663E-004	0.00000E+000	9.30149E-005	5.99601E-002	9.24348E-001	3.57900E+000	9	...........
	74	1	9.29525E-001	1.00570E-004	0.00000E+000	9.34822E-005	5.99601E-002	9.29884E-001	3.57900E+000	9	...........
	75	1.01333	9.34948E-001	1.00864E-004	0.00000E+000	9.43023E-005	5.99601E-002	9.35311E-001	3.57900E+000	9	...........
	76	1.02667	9.40253E-001	1.02245E-004	0.00000E+000	9.61363E-005	5.99601E-002	9.40626E-001	3.57900E+000	9	...........
	77	1.04	9.45471E-001	1.00363E-004	0.00000E+000	9.48898E-005	5.99601E-002	9.45839E-001	3.57900E+000	9	...........
	78	1.05333	9.50604E-001	1.00526E-004	0.00000E+000	9.55605E-005	5.99601E-002	9.50940E-001	3.57900E+000	9	...........
	79	1.06667	9.55598E-001	1.00635E-004	0.00000E+000	9.61671E-005	5.99601E-002	9.55943E-001	3.57900E+000	9	...........
	80	1.08	9.60508E-001	1.00655E-004	0.00000E+000	9.66802E-005	5.99601E-002	9.60841E-001	3.57900E+000	9	...........
	81	1.09333	9.65312E-001	9.99593E-005	0.00000E+000	9.64919E-005	5.99601E-002	9.65648E-001	3.57892E+000	9	...........
	82	1.10667	9.70001E-001	1.01211E-004	0.00000E+000	9.81744E-005	5.99601E-002	9.70370E-001	3.57890E+000	9	...........
	83	1.12	9.74660E-001	1.00391E-004	0.00000E+000	9.78468E-005	5.99601E-002	9.75011E-001	3.57890E+000	9	...........
	84	1.13333	9.79170E-001	1.00790E-004	0.00000E+000	9.86902E-005	5.99601E-002	9.79525E-001	3.57890E+000	9	...........
	85	1.14667	9.83587E-001	1.00145E-004	0.00000E+000	9.85011E-005	5.99601E-002	9.83925E-001	3.57890E+000	9	...........
	86	1.16	9.87894E-001	1.00388E-004	0.00000E+000	9.91722E-005	5.99601E-002	9.88266E-001	3.57890E+000	9	...........
	87	1.17333	9.92128E-001	1.00613E-004	0.00000E+000	9.98206E-005	5.99601E-002	9.92516E-001	3.57890E+000	9	...........
	88	1.18667	9.96278E-001	1.00991E-004	0.00000E+000	1.00615E-004	5.99601E-002	9.96664E-001	3.57890E+000	9	...........
	89	1.19333	9.99336E-001	1.00736E-004	0.00000E+000	1.00669E-004	5.99601E-002	9.99752E-001	3.57890E+000	9	...........
STARTTIMEOFFSET	QUANT	1959.515	Start Time Offset (s)
