EXPLAIN
TAG	PWR800_CHARGE
TITLE	LABEL	PWR Cyclic Charge Discharge (Cell) - Charge Step	Test &Identifier
DATE	LABEL	13-7-2017	Date
TIME	LABEL	15:05:24	Time
NOTES	NOTES	2	&Notes...
	supercap test cell
	6M KOH
PSTAT	PSTAT	IFC5000-01520	Potentiostat
CAPACITY	QUANT	1.00000E-003	Capacity (A-hr)
CELLTYPE	SELECTOR	1	&Cell Type
WORKINGCONNECTION	SELECTOR	0	&Working Lead
MAXCHARGETIME	VARIABLEANDUNITS	1.00000E+002	s	1.00000E+002	second(s)	Max &Charge Time
CHARGECURRENT	QUANT	1.00000E-004	&Charge Current (A) 
VOLTAGEFINISH	TWOPARAM	F	1.00000E-003	3.60000E+003	&Voltage Finish	 I (A) < 	Max Time(s)
SAMPLETIME	QUANT	1.00000E-002	Sa&mple Period (s)
CHARGESTOPAT1	MULTIPARAM	4	1.00000E+000	Charge Stop At &1	Voltage > Limit	V
CHARGESTOPAT2	MULTIPARAM	0	0.00000E+000	Charge Stop At &2	None	N/A
AESBHCSELECTOR	TOGGLE	F	Save Both Half Cells
IRCOMP	TOGGLE	F	IR &Measure
EOC	QUANT	0	Open Circuit (V)
SEQUENCER	TOGGLE	TRUE	Run as Sequence
PSTATMODEL	IQUANT	53	Pstat Model
PSTATSECTION	LABEL	IFC5000-01520	Pstat Section
PSTATSERIALNO	LABEL	01520	Pstat Serial Number
CTRLMODE	IQUANT	0	Control Mode
ELECTROMETER	IQUANT	1	RE=0 or CS=1
IESTAB	IQUANT	0	I/E Stability
CASPEED	IQUANT	4	Control Amp Speed
CONVENTION	IQUANT	1	Current Convention
ICHRANGE	IQUANT	2	Ich Range
ICHRANGEMODE	TOGGLE	T	Ich Auto Range
ICHOFFSETENABLE	TOGGLE	F	Ich Offset Enable
ICHOFFSET	QUANT	0	Ich Offset (V)
ICHFILTER	IQUANT	1	Ich Filter
VCHRANGE	IQUANT	2	Vch Range
VCHRANGEMODE	TOGGLE	T	Vch Auto Range
VCHOFFSETENABLE	TOGGLE	F	Vch Offset Enable
VCHOFFSET	QUANT	0	Vch Offset (V)
VCHFILTER	IQUANT	1	Vch Filter
IERANGELOWERLIMIT	IQUANT	9	I/E Range Lower Limit
IERANGEMODE	TOGGLE	F	I/E AutoRange
IERANGE	IQUANT	9	I/E Range
ACHSELECT	IQUANT	1	Ach Select
ACHRANGE	IQUANT	2	Ach Range
ACHOFFSETENABLE	TOGGLE	F	Ach Offset Enable
ACHOFFSET	QUANT	0	Ach Offset (V)
ACHFILTER	IQUANT	1	Ach Filter
CABLEID	IQUANT	14	Cable ID
DCCALDATE	LABEL	5-7-2017	DC Calibration Date
ACCALDATE	LABEL	12/3/2015	AC Calibration Date
FRAMEWORKVERSION	QUANT	7.01	Framework Version
INSTRUMENTVERSION	LABEL	4.00	Instrument Version
CURVE	TABLE	101
	Pt	T	Vf	Im	Vu	Pwr	Sig	Ach	Temp	IERange	Over
	#	s	V	A	V	W	V	V	deg C	#	bits
	0	0.013333	1.35460E-001	1.01626E-004	0.00000E+000	1.37663E-005	5.99601E-002	1.35515E-001	3.57880E+000	9	...........
	1	0.026667	1.51085E-001	1.01777E-004	0.00000E+000	1.53771E-005	5.99601E-002	1.51115E-001	3.57880E+000	9	...........
	2	0.04	1.66257E-001	1.00453E-004	0.00000E+000	1.67011E-005	5.99601E-002	1.66294E-001	3.57880E+000	9	...........
	3	0.053333	1.81159E-001	1.01161E-004	0.00000E+000	1.83262E-005	5.99601E-002	1.81196E-001	3.57880E+000	9	...........
	4	0.066667	1.95864E-001	1.01022E-004	0.00000E+000	1.97866E-005	5.99601E-002	1.95901E-001	3.57880E+000	9	...........
	5	0.08	2.10416E-001	1.00427E-004	0.00000E+000	2.11315E-005	5.99601E-002	2.10455E-001	3.57880E+000	9	...........
	6	0.093333	2.24855E-001	9.98530E-005	0.00000E+000	2.24525E-005	5.99601E-002	2.24901E-001	3.57880E+000	9	...........
	7	0.106667	2.39212E-001	1.01131E-004	0.00000E+000	2.41919E-005	5.99601E-002	2.39258E-001	3.57880E+000	9	...........
	8	0.12	2.53495E-001	9.99583E-005	0.00000E+000	2.53389E-005	5.99601E-002	2.53549E-001	3.57880E+000	9	...........
	9	0.133333	2.67730E-001	1.01128E-004	0.00000E+000	2.70750E-005	5.99601E-002	2.67789E-001	3.57880E+000	9	...........
	10	0.146667	2.81932E-001	1.00919E-004	0.00000E+000	2.84522E-005	5.99601E-002	2.81989E-001	3.57880E+000	9	...........
	11	0.16	2.96093E-001	1.00956E-004	0.00000E+000	2.98925E-005	5.99601E-002	2.96150E-001	3.57880E+000	9	...........
	12	0.173333	3.10217E-001	1.01035E-004	0.00000E+000	3.13427E-005	5.99601E-002	3.10283E-001	3.57880E+000	9	...........
	13	0.186667	3.24321E-001	1.01042E-004	0.00000E+000	3.27700E-005	5.99601E-002	3.24385E-001	3.57880E+000	9	...........
	14	0.2	3.38387E-001	1.01049E-004	0.00000E+000	3.41937E-005	5.99601E-002	3.38452E-001	3.57880E+000	9	...........
	15	0.213333	3.52408E-001	1.00469E-004	0.00000E+000	3.54060E-005	5.99601E-002	3.52480E-001	3.57880E+000	9	...........
	16	0.226667	3.66389E-001	9.99708E-005	0.00000E+000	3.66282E-005	5.99601E-002	3.66455E-001	3.57880E+000	9	...........
	17	0.24	3.80305E-001	1.00858E-004	0.00000E+000	3.83570E-005	5.99601E-002	3.80378E-001	3.57880E+000	9	...........
	18	0.253333	3.94147E-001	1.00546E-004	0.00000E+000	3.96299E-005	5.99601E-002	3.94222E-001	3.57880E+000	9	...........
	19	0.266667	4.07895E-001	1.01573E-004	0.00000E+000	4.14312E-005	5.99601E-002	4.07979E-001	3.57880E+000	9	...........
	20	0.28	4.21544E-001	1.00509E-004	0.00000E+000	4.23691E-005	5.99601E-002	4.21633E-001	3.57880E+000	9	...........
	21	0.293333	4.35060E-001	1.00837E-004	0.00000E+000	4.38700E-005	5.99601E-002	4.35150E-001	3.57880E+000	9	...........
	22	0.306667	4.48449E-001	1.01449E-004	0.00000E+000	4.54948E-005	5.99601E-002	4.48537E-001	3.57880E+000	9	...........
	23	0.32	4.61673E-001	1.00083E-004	0.00000E+000	4.62058E-005	5.99601E-002	4.61767E-001	3.57880E+000	9	...........
	24	0.333333	4.74724E-001	1.00754E-004	0.00000E+000	4.78305E-005	5.99601E-002	4.74819E-001	3.57880E+000	9	...........
	25	0.346667	4.87578E-001	1.00547E-004	0.00000E+000	4.90245E-005	5.99601E-002	4.87677E-001	3.57880E+000	9	...........
	26	0.36	5.00240E-001	1.01659E-004	0.00000E+000	5.08537E-005	5.99601E-002	5.00346E-001	3.57880E+000	9	...........
	27	0.373333	5.12683E-001	1.00539E-004	0.00000E+000	5.15444E-005	5.99601E-002	5.12797E-001	3.57880E+000	9	...........
	28	0.386667	5.24923E-001	1.00975E-004	0.00000E+000	5.30042E-005	5.99601E-002	5.25031E-001	3.57880E+000	9	...........
	29	0.4	5.36650E-001	1.01549E-004	0.00000E+000	5.44964E-005	5.99601E-002	5.36861E-001	3.57880E+000	9	...........
	30	0.413333	5.48347E-001	1.01454E-004	0.00000E+000	5.56322E-005	5.99601E-002	5.48620E-001	3.57880E+000	9	...........
	31	0.426667	5.59878E-001	1.01262E-004	0.00000E+000	5.66942E-005	5.99601E-002	5.60177E-001	3.57880E+000	9	...........
	32	0.44	5.71231E-001	1.00343E-004	0.00000E+000	5.73189E-005	5.99601E-002	5.71532E-001	3.57880E+000	9	...........
	33	0.453333	5.82294E-001	1.02109E-004	0.00000E+000	5.94573E-005	5.99601E-002	5.82620E-001	3.57880E+000	9	...........
	34	0.466667	5.93203E-001	1.00524E-004	0.00000E+000	5.96311E-005	5.99601E-002	5.93502E-001	3.57880E+000	9	...........
	35	0.48	6.03818E-001	1.00827E-004	0.00000E+000	6.08813E-005	5.99601E-002	6.04141E-001	3.57880E+000	9	...........
	36	0.493333	6.14276E-001	1.01121E-004	0.00000E+000	6.21162E-005	5.99601E-002	6.14583E-001	3.57880E+000	9	...........
	37	0.506667	6.24520E-001	1.01861E-004	0.00000E+000	6.36140E-005	5.99601E-002	6.24782E-001	3.57880E+000	9	...........
	38	0.52	6.34505E-001	1.01221E-004	0.00000E+000	6.42252E-005	5.99601E-002	6.34779E-001	3.57880E+000	9	...........
	39	0.533333	6.44326E-001	1.00612E-004	0.00000E+000	6.48266E-005	5.99601E-002	6.44586E-001	3.57880E+000	9	...........
	40	0.546667	6.53927E-001	1.00648E-004	0.00000E+000	6.58164E-005	5.99601E-002	6.54193E-001	3.57880E+000	9	...........
	41	0.56	6.63325E-001	1.00594E-004	0.00000E+000	6.67264E-005	5.99601E-002	6.63604E-001	3.57880E+000	9	...........
	42	0.573333	6.72575E-001	1.01261E-004	0.00000E+000	6.81053E-005	5.99601E-002	6.72818E-001	3.57880E+000	9	...........
	43	0.586667	6.81578E-001	1.00496E-004	0.00000E+000	6.84958E-005	5.99601E-002	6.81850E-001	3.57880E+000	9	...........
	44	0.6	6.90412E-001	1.01424E-004	0.00000E+000	7.00244E-005	5.99601E-002	6.90705E-001	3.57880E+000	9	...........
	45	0.613333	6.99070E-001	1.01316E-004	0.00000E+000	7.08268E-005	5.99601E-002	6.99364E-001	3.57880E+000	9	...........
	46	0.626667	7.07588E-001	1.00966E-004	0.00000E+000	7.14422E-005	5.99601E-002	7.07870E-001	3.57880E+000	9	...........
	47	0.64	7.15912E-001	1.01306E-004	0.00000E+000	7.25265E-005	5.99601E-002	7.16199E-001	3.57880E+000	9	...........
	48	0.653333	7.24097E-001	1.00643E-004	0.00000E+000	7.28751E-005	5.99601E-002	7.24375E-001	3.58030E+000	9	...........
	49	0.666667	7.32098E-001	1.01293E-004	0.00000E+000	7.41564E-005	5.99601E-002	7.32396E-001	3.58120E+000	9	...........
	50	0.68	7.39945E-001	1.00891E-004	0.00000E+000	7.46536E-005	5.99601E-002	7.40248E-001	3.58120E+000	9	...........
	51	0.693333	7.47675E-001	1.00849E-004	0.00000E+000	7.54023E-005	5.99601E-002	7.47975E-001	3.58120E+000	9	...........
	52	0.706667	7.55247E-001	1.01045E-004	0.00000E+000	7.63139E-005	5.99601E-002	7.55551E-001	3.58120E+000	9	...........
	53	0.72	7.62672E-001	9.98270E-005	0.00000E+000	7.61352E-005	5.99601E-002	7.62956E-001	3.58120E+000	9	...........
	54	0.733333	7.69952E-001	1.01826E-004	0.00000E+000	7.84014E-005	5.99601E-002	7.70279E-001	3.58120E+000	9	...........
	55	0.746667	7.77125E-001	1.00093E-004	0.00000E+000	7.77845E-005	5.99601E-002	7.77444E-001	3.58120E+000	9	...........
	56	0.76	7.84160E-001	1.00217E-004	0.00000E+000	7.85859E-005	5.99601E-002	7.84490E-001	3.58120E+000	9	...........
	57	0.773333	7.91061E-001	1.01019E-004	0.00000E+000	7.99121E-005	5.99601E-002	7.91409E-001	3.58120E+000	9	...........
	58	0.786667	7.97875E-001	1.01067E-004	0.00000E+000	8.06387E-005	5.99601E-002	7.98198E-001	3.58120E+000	9	...........
	59	0.8	8.04546E-001	1.01011E-004	0.00000E+000	8.12677E-005	5.99601E-002	8.04877E-001	3.58120E+000	9	...........
	60	0.813333	8.11112E-001	1.02022E-004	0.00000E+000	8.27515E-005	5.99601E-002	8.11423E-001	3.58120E+000	9	...........
	61	0.826667	8.17551E-001	9.96290E-005	0.00000E+000	8.14518E-005	5.99601E-002	8.17883E-001	3.58120E+000	9	...........
	62	0.84	8.23905E-001	1.01344E-004	0.00000E+000	8.34978E-005	5.99601E-002	8.24242E-001	3.58120E+000	9	...........
	63	0.853333	8.30132E-001	1.01240E-004	0.00000E+000	8.40424E-005	5.99601E-002	8.30480E-001	3.58120E+000	9	...........
	64	0.866667	8.36255E-001	1.01161E-004	0.00000E+000	8.45961E-005	5.99601E-002	8.36600E-001	3.58120E+000	9	...........
	65	0.88	8.42293E-001	1.01727E-004	0.00000E+000	8.56842E-005	5.99601E-002	8.42645E-001	3.58120E+000	9	...........
	66	0.893333	8.48236E-001	1.00525E-004	0.00000E+000	8.52690E-005	5.99601E-002	8.48601E-001	3.58120E+000	9	...........
	67	0.906667	8.54065E-001	1.01639E-004	0.00000E+000	8.68061E-005	5.99601E-002	8.54431E-001	3.58120E+000	9	...........
	68	0.92	8.59793E-001	1.01065E-004	0.00000E+000	8.68947E-005	5.99601E-002	8.60176E-001	3.58120E+000	9	...........
	69	0.933333	8.65426E-001	1.01236E-004	0.00000E+000	8.76120E-005	5.99601E-002	8.65812E-001	3.58120E+000	9	...........
	70	0.946667	8.71028E-001	1.01194E-004	0.00000E+000	8.81428E-005	5.99601E-002	8.71376E-001	3.58120E+000	9	...........
	71	0.96	8.76465E-001	1.00132E-004	0.00000E+000	8.77625E-005	5.99601E-002	8.76856E-001	3.58120E+000	9	...........
	72	0.97333	8.81862E-001	1.01495E-004	0.00000E+000	8.95046E-005	5.99601E-002	8.82229E-001	3.58120E+000	9	...........
	73	0.98667	8.87162E-001	1.01871E-004	0.00000E+000	9.03762E-005	5.99601E-002	8.87531E-001	3.58120E+000	9	...........
	74	1	8.92334E-001	1.00386E-004	0.00000E+000	8.95782E-005	5.99601E-002	8.92737E-001	3.58120E+000	9	...........
	75	1.01333	8.97463E-001	1.01306E-004	0.00000E+000	9.09188E-005	5.99601E-002	8.97849E-001	3.58120E+000	9	...........
	76	1.02667	9.02490E-001	1.01288E-004	0.00000E+000	9.14111E-005	5.99601E-002	9.02877E-001	3.58120E+000	9	...........
	77	1.04	9.07443E-001	1.01864E-004	0.00000E+000	9.24357E-005	5.99601E-002	9.07844E-001	3.58120E+000	9	...........
	78	1.05333	9.12324E-001	1.01041E-004	0.00000E+000	9.21819E-005	5.99601E-002	9.12689E-001	3.58120E+000	9	...........
	79	1.06667	9.17105E-001	1.00883E-004	0.00000E+000	9.25207E-005	5.99601E-002	9.17503E-001	3.58120E+000	9	...........
	80	1.08	9.21867E-001	1.01249E-004	0.00000E+000	9.33383E-005	5.99601E-002	9.22214E-001	3.58120E+000	9	...........
	81	1.09333	9.26519E-001	1.01230E-004	0.00000E+000	9.37919E-005	5.99601E-002	9.26848E-001	3.58120E+000	9	...........
	82	1.10667	9.31048E-001	1.00453E-004	0.00000E+000	9.35267E-005	5.99601E-002	9.31384E-001	3.58120E+000	9	...........
	83	1.12	9.35520E-001	1.00649E-004	0.00000E+000	9.41591E-005	5.99601E-002	9.35902E-001	3.58120E+000	9	...........
	84	1.13333	9.39926E-001	1.00752E-004	0.00000E+000	9.46996E-005	5.99601E-002	9.40285E-001	3.58120E+000	9	...........
	85	1.14667	9.44239E-001	1.00859E-004	0.00000E+000	9.52355E-005	5.99601E-002	9.44586E-001	3.58120E+000	9	...........
	86	1.16	9.48543E-001	1.00992E-004	0.00000E+000	9.57951E-005	5.99601E-002	9.48863E-001	3.58120E+000	9	...........
	87	1.17333	9.52722E-001	1.01377E-004	0.00000E+000	9.65844E-005	5.99601E-002	9.53041E-001	3.58120E+000	9	...........
	88	1.18667	9.56810E-001	1.01487E-004	0.00000E+000	9.71035E-005	5.99601E-002	9.57135E-001	3.58120E+000	9	...........
	89	1.2	9.60829E-001	1.00897E-004	0.00000E+000	9.69448E-005	5.99601E-002	9.61194E-001	3.58120E+000	9	...........
	90	1.21333	9.64804E-001	1.00998E-004	0.00000E+000	9.74433E-005	5.99601E-002	9.65140E-001	3.58120E+000	9	...........
	91	1.22667	9.68699E-001	1.01119E-004	0.00000E+000	9.79538E-005	5.99601E-002	9.69030E-001	3.58120E+000	9	...........
	92	1.24	9.72542E-001	1.00363E-004	0.00000E+000	9.76068E-005	5.99601E-002	9.72886E-001	3.58120E+000	9	...........
	93	1.25333	9.76310E-001	1.01304E-004	0.00000E+000	9.89044E-005	5.99601E-002	9.76649E-001	3.58120E+000	9	...........
	94	1.26667	9.79982E-001	9.99593E-005	0.00000E+000	9.79583E-005	5.99601E-002	9.80325E-001	3.58120E+000	9	...........
	95	1.28	9.83581E-001	1.01115E-004	0.00000E+000	9.94546E-005	5.99601E-002	9.83926E-001	3.58120E+000	9	...........
	96	1.29333	9.87119E-001	1.01253E-004	0.00000E+000	9.99490E-005	5.99601E-002	9.87457E-001	3.58120E+000	9	...........
	97	1.30667	9.90603E-001	1.00945E-004	0.00000E+000	9.99963E-005	5.99601E-002	9.90917E-001	3.58120E+000	9	...........
	98	1.32	9.93953E-001	1.01517E-004	0.00000E+000	1.00903E-004	5.99601E-002	9.94329E-001	3.58120E+000	9	...........
	99	1.33333	9.97340E-001	1.00950E-004	0.00000E+000	1.00682E-004	5.99601E-002	9.97699E-001	3.58120E+000	9	...........
	100	1.34	9.99811E-001	1.00467E-004	0.00000E+000	1.00448E-004	5.99601E-002	1.00017E+000	3.58120E+000	9	...........
STARTTIMEOFFSET	QUANT	147.415	Start Time Offset (s)
