EXPLAIN
TAG	PWR800_CHARGE
TITLE	LABEL	PWR Cyclic Charge Discharge (Cell) - Charge Step	Test &Identifier
DATE	LABEL	13-7-2017	Date
TIME	LABEL	15:12:24	Time
NOTES	NOTES	2	&Notes...
	supercap test cell
	6M KOH
PSTAT	PSTAT	IFC5000-01520	Potentiostat
CAPACITY	QUANT	1.00000E-003	Capacity (A-hr)
CELLTYPE	SELECTOR	1	&Cell Type
WORKINGCONNECTION	SELECTOR	0	&Working Lead
MAXCHARGETIME	VARIABLEANDUNITS	1.00000E+002	s	1.00000E+002	second(s)	Max &Charge Time
CHARGECURRENT	QUANT	1.00000E-004	&Charge Current (A) 
VOLTAGEFINISH	TWOPARAM	F	1.00000E-003	3.60000E+003	&Voltage Finish	 I (A) < 	Max Time(s)
SAMPLETIME	QUANT	1.00000E-002	Sa&mple Period (s)
CHARGESTOPAT1	MULTIPARAM	4	1.00000E+000	Charge Stop At &1	Voltage > Limit	V
CHARGESTOPAT2	MULTIPARAM	0	0.00000E+000	Charge Stop At &2	None	N/A
AESBHCSELECTOR	TOGGLE	F	Save Both Half Cells
IRCOMP	TOGGLE	F	IR &Measure
EOC	QUANT	0	Open Circuit (V)
SEQUENCER	TOGGLE	TRUE	Run as Sequence
PSTATMODEL	IQUANT	53	Pstat Model
PSTATSECTION	LABEL	IFC5000-01520	Pstat Section
PSTATSERIALNO	LABEL	01520	Pstat Serial Number
CTRLMODE	IQUANT	0	Control Mode
ELECTROMETER	IQUANT	1	RE=0 or CS=1
IESTAB	IQUANT	0	I/E Stability
CASPEED	IQUANT	4	Control Amp Speed
CONVENTION	IQUANT	1	Current Convention
ICHRANGE	IQUANT	2	Ich Range
ICHRANGEMODE	TOGGLE	T	Ich Auto Range
ICHOFFSETENABLE	TOGGLE	F	Ich Offset Enable
ICHOFFSET	QUANT	0	Ich Offset (V)
ICHFILTER	IQUANT	1	Ich Filter
VCHRANGE	IQUANT	2	Vch Range
VCHRANGEMODE	TOGGLE	T	Vch Auto Range
VCHOFFSETENABLE	TOGGLE	F	Vch Offset Enable
VCHOFFSET	QUANT	0	Vch Offset (V)
VCHFILTER	IQUANT	1	Vch Filter
IERANGELOWERLIMIT	IQUANT	9	I/E Range Lower Limit
IERANGEMODE	TOGGLE	F	I/E AutoRange
IERANGE	IQUANT	9	I/E Range
ACHSELECT	IQUANT	1	Ach Select
ACHRANGE	IQUANT	2	Ach Range
ACHOFFSETENABLE	TOGGLE	F	Ach Offset Enable
ACHOFFSET	QUANT	0	Ach Offset (V)
ACHFILTER	IQUANT	1	Ach Filter
CABLEID	IQUANT	14	Cable ID
DCCALDATE	LABEL	5-7-2017	DC Calibration Date
ACCALDATE	LABEL	12/3/2015	AC Calibration Date
FRAMEWORKVERSION	QUANT	7.01	Framework Version
INSTRUMENTVERSION	LABEL	4.00	Instrument Version
CURVE	TABLE	97
	Pt	T	Vf	Im	Vu	Pwr	Sig	Ach	Temp	IERange	Over
	#	s	V	A	V	W	V	V	deg C	#	bits
	0	0.013333	1.30779E-001	1.00717E-004	0.00000E+000	1.31717E-005	5.99601E-002	1.30829E-001	3.58020E+000	9	...........
	1	0.026667	1.46017E-001	1.01029E-004	0.00000E+000	1.47520E-005	5.99601E-002	1.46037E-001	3.58020E+000	9	...........
	2	0.04	1.60807E-001	1.00721E-004	0.00000E+000	1.61966E-005	5.99601E-002	1.60831E-001	3.58020E+000	9	...........
	3	0.053333	1.75320E-001	1.00794E-004	0.00000E+000	1.76712E-005	5.99601E-002	1.75349E-001	3.58020E+000	9	...........
	4	0.066667	1.89638E-001	1.00936E-004	0.00000E+000	1.91412E-005	5.99601E-002	1.89669E-001	3.58020E+000	9	...........
	5	0.08	2.03808E-001	1.00498E-004	0.00000E+000	2.04823E-005	5.99601E-002	2.03846E-001	3.58020E+000	9	...........
	6	0.093333	2.17871E-001	1.01215E-004	0.00000E+000	2.20518E-005	5.99601E-002	2.17909E-001	3.58020E+000	9	...........
	7	0.106667	2.31860E-001	1.00447E-004	0.00000E+000	2.32896E-005	5.99601E-002	2.31900E-001	3.58020E+000	9	...........
	8	0.12	2.45796E-001	1.00383E-004	0.00000E+000	2.46738E-005	5.99601E-002	2.45837E-001	3.58020E+000	9	...........
	9	0.133333	2.59694E-001	1.01149E-004	0.00000E+000	2.62678E-005	5.99601E-002	2.59741E-001	3.58020E+000	9	...........
	10	0.146667	2.73567E-001	1.00261E-004	0.00000E+000	2.74282E-005	5.99601E-002	2.73618E-001	3.58020E+000	9	...........
	11	0.16	2.87435E-001	1.01125E-004	0.00000E+000	2.90669E-005	5.99601E-002	2.87492E-001	3.58020E+000	9	...........
	12	0.173333	3.01293E-001	1.00862E-004	0.00000E+000	3.03889E-005	5.99601E-002	3.01351E-001	3.58020E+000	9	...........
	13	0.186667	3.15158E-001	1.01219E-004	0.00000E+000	3.19000E-005	5.99601E-002	3.15215E-001	3.58020E+000	9	...........
	14	0.2	3.29020E-001	1.00976E-004	0.00000E+000	3.32232E-005	5.99601E-002	3.29078E-001	3.58020E+000	9	...........
	15	0.213333	3.42876E-001	1.00577E-004	0.00000E+000	3.44855E-005	5.99601E-002	3.42933E-001	3.58020E+000	9	...........
	16	0.226667	3.56740E-001	1.00653E-004	0.00000E+000	3.59070E-005	5.99601E-002	3.56803E-001	3.58020E+000	9	...........
	17	0.24	3.70586E-001	1.00457E-004	0.00000E+000	3.72280E-005	5.99601E-002	3.70648E-001	3.58020E+000	9	...........
	18	0.253333	3.84411E-001	1.01281E-004	0.00000E+000	3.89337E-005	5.99601E-002	3.84484E-001	3.58020E+000	9	...........
	19	0.266667	3.98204E-001	1.00106E-004	0.00000E+000	3.98627E-005	5.99601E-002	3.98280E-001	3.57932E+000	9	...........
	20	0.28	4.11946E-001	1.00391E-004	0.00000E+000	4.13555E-005	5.99601E-002	4.12026E-001	3.57900E+000	9	...........
	21	0.293333	4.25619E-001	1.01153E-004	0.00000E+000	4.30528E-005	5.99601E-002	4.25704E-001	3.57900E+000	9	...........
	22	0.306667	4.39207E-001	1.00656E-004	0.00000E+000	4.42090E-005	5.99601E-002	4.39293E-001	3.57900E+000	9	...........
	23	0.32	4.52693E-001	1.01119E-004	0.00000E+000	4.57758E-005	5.99601E-002	4.52785E-001	3.57900E+000	9	...........
	24	0.333333	4.66051E-001	1.01209E-004	0.00000E+000	4.71684E-005	5.99601E-002	4.66139E-001	3.57900E+000	9	...........
	25	0.346667	4.79259E-001	1.01259E-004	0.00000E+000	4.85290E-005	5.99601E-002	4.79355E-001	3.57900E+000	9	...........
	26	0.36	4.92302E-001	1.00638E-004	0.00000E+000	4.95441E-005	5.99601E-002	4.92406E-001	3.57900E+000	9	...........
	27	0.373333	5.05174E-001	1.00522E-004	0.00000E+000	5.07811E-005	5.99601E-002	5.05280E-001	3.57900E+000	9	...........
	28	0.386667	5.17858E-001	1.01451E-004	0.00000E+000	5.25373E-005	5.99601E-002	5.17969E-001	3.57900E+000	9	...........
	29	0.4	5.30280E-001	1.00990E-004	0.00000E+000	5.35529E-005	5.99601E-002	5.30388E-001	3.57900E+000	9	...........
	30	0.413333	5.42226E-001	1.00530E-004	0.00000E+000	5.45101E-005	5.99601E-002	5.42507E-001	3.57900E+000	9	...........
	31	0.426667	5.54278E-001	1.00546E-004	0.00000E+000	5.57303E-005	5.99601E-002	5.54572E-001	3.57900E+000	9	...........
	32	0.44	5.66137E-001	1.01149E-004	0.00000E+000	5.72643E-005	5.99601E-002	5.66430E-001	3.57900E+000	9	...........
	33	0.453333	5.77756E-001	1.00485E-004	0.00000E+000	5.80561E-005	5.99601E-002	5.78036E-001	3.57900E+000	9	...........
	34	0.466667	5.89144E-001	1.00983E-004	0.00000E+000	5.94938E-005	5.99601E-002	5.89465E-001	3.57900E+000	9	...........
	35	0.48	6.00310E-001	1.00132E-004	0.00000E+000	6.01103E-005	5.99601E-002	6.00615E-001	3.57900E+000	9	...........
	36	0.493333	6.11286E-001	1.01690E-004	0.00000E+000	6.21616E-005	5.99601E-002	6.11592E-001	3.57900E+000	9	...........
	37	0.506667	6.22055E-001	1.01190E-004	0.00000E+000	6.29456E-005	5.99601E-002	6.22343E-001	3.57900E+000	9	...........
	38	0.52	6.32568E-001	1.00613E-004	0.00000E+000	6.36442E-005	5.99601E-002	6.32841E-001	3.57900E+000	9	...........
	39	0.533333	6.42879E-001	1.00556E-004	0.00000E+000	6.46455E-005	5.99601E-002	6.43183E-001	3.57900E+000	9	...........
	40	0.546667	6.53005E-001	1.00981E-004	0.00000E+000	6.59414E-005	5.99601E-002	6.53303E-001	3.57900E+000	9	...........
	41	0.56	6.62914E-001	1.01415E-004	0.00000E+000	6.72293E-005	5.99601E-002	6.63207E-001	3.57900E+000	9	...........
	42	0.573333	6.72636E-001	1.01022E-004	0.00000E+000	6.79511E-005	5.99601E-002	6.72909E-001	3.57900E+000	9	...........
	43	0.586667	6.82140E-001	1.00332E-004	0.00000E+000	6.84406E-005	5.99601E-002	6.82439E-001	3.57900E+000	9	...........
	44	0.6	6.91478E-001	1.00444E-004	0.00000E+000	6.94547E-005	5.99601E-002	6.91773E-001	3.57900E+000	9	...........
	45	0.613333	7.00608E-001	1.01986E-004	0.00000E+000	7.14520E-005	5.99601E-002	7.00903E-001	3.57900E+000	9	...........
	46	0.626667	7.09549E-001	1.01325E-004	0.00000E+000	7.18952E-005	5.99601E-002	7.09856E-001	3.57900E+000	9	...........
	47	0.64	7.18378E-001	9.99405E-005	0.00000E+000	7.17951E-005	5.99601E-002	7.18668E-001	3.57900E+000	9	...........
	48	0.653333	7.26984E-001	1.01098E-004	0.00000E+000	7.34967E-005	5.99601E-002	7.27281E-001	3.57900E+000	9	...........
	49	0.666667	7.35451E-001	9.98072E-005	0.00000E+000	7.34033E-005	5.99601E-002	7.35743E-001	3.57900E+000	9	...........
	50	0.68	7.43744E-001	1.00619E-004	0.00000E+000	7.48346E-005	5.99601E-002	7.44030E-001	3.57900E+000	9	...........
	51	0.693333	7.51877E-001	1.00765E-004	0.00000E+000	7.57626E-005	5.99601E-002	7.52167E-001	3.57900E+000	9	...........
	52	0.706667	7.59863E-001	1.00109E-004	0.00000E+000	7.60694E-005	5.99601E-002	7.60162E-001	3.57900E+000	9	...........
	53	0.72	7.67716E-001	1.01397E-004	0.00000E+000	7.78442E-005	5.99601E-002	7.68006E-001	3.57900E+000	9	...........
	54	0.733333	7.75398E-001	9.99530E-005	0.00000E+000	7.75034E-005	5.99601E-002	7.75689E-001	3.57900E+000	9	...........
	55	0.746667	7.82938E-001	9.99510E-005	0.00000E+000	7.82554E-005	5.99601E-002	7.83249E-001	3.57900E+000	9	...........
	56	0.76	7.90371E-001	1.00508E-004	0.00000E+000	7.94389E-005	5.99601E-002	7.90667E-001	3.57900E+000	9	...........
	57	0.773333	7.97661E-001	1.00342E-004	0.00000E+000	8.00387E-005	5.99601E-002	7.97962E-001	3.57900E+000	9	...........
	58	0.786667	8.04820E-001	1.00118E-004	0.00000E+000	8.05767E-005	5.99601E-002	8.05126E-001	3.57900E+000	9	...........
	59	0.8	8.11814E-001	1.01348E-004	0.00000E+000	8.22758E-005	5.99601E-002	8.12132E-001	3.57900E+000	9	...........
	60	0.813333	8.18740E-001	1.02040E-004	0.00000E+000	8.35442E-005	5.99601E-002	8.19065E-001	3.57900E+000	9	...........
	61	0.826667	8.25502E-001	1.01240E-004	0.00000E+000	8.35736E-005	5.99601E-002	8.25852E-001	3.57900E+000	9	...........
	62	0.84	8.32193E-001	1.00588E-004	0.00000E+000	8.37082E-005	5.99601E-002	8.32530E-001	3.57900E+000	9	...........
	63	0.853333	8.38724E-001	1.00315E-004	0.00000E+000	8.41362E-005	5.99601E-002	8.39072E-001	3.57900E+000	9	...........
	64	0.866667	8.45186E-001	1.00499E-004	0.00000E+000	8.49404E-005	5.99601E-002	8.45541E-001	3.57900E+000	9	...........
	65	0.88	8.51515E-001	1.01105E-004	0.00000E+000	8.60927E-005	5.99601E-002	8.51878E-001	3.57900E+000	9	...........
	66	0.893333	8.57731E-001	1.00613E-004	0.00000E+000	8.62985E-005	5.99601E-002	8.58101E-001	3.57900E+000	9	...........
	67	0.906667	8.63867E-001	1.01296E-004	0.00000E+000	8.75063E-005	5.99601E-002	8.64234E-001	3.57900E+000	9	...........
	68	0.92	8.69889E-001	1.01026E-004	0.00000E+000	8.78816E-005	5.99601E-002	8.70266E-001	3.57900E+000	9	...........
	69	0.933333	8.75819E-001	1.00806E-004	0.00000E+000	8.82881E-005	5.99601E-002	8.76179E-001	3.57900E+000	9	...........
	70	0.946667	8.81642E-001	1.01210E-004	0.00000E+000	8.92306E-005	5.99601E-002	8.81993E-001	3.57900E+000	9	...........
	71	0.96	8.87368E-001	1.00633E-004	0.00000E+000	8.92989E-005	5.99601E-002	8.87714E-001	3.57900E+000	9	...........
	72	0.97333	8.92995E-001	9.99655E-005	0.00000E+000	8.92688E-005	5.99601E-002	8.93337E-001	3.57900E+000	9	...........
	73	0.98667	8.98509E-001	1.00494E-004	0.00000E+000	9.02945E-005	5.99601E-002	8.98877E-001	3.57900E+000	9	...........
	74	1	9.03951E-001	1.01323E-004	0.00000E+000	9.15911E-005	5.99601E-002	9.04304E-001	3.57900E+000	9	...........
	75	1.01333	9.09277E-001	9.98061E-005	0.00000E+000	9.07515E-005	5.99601E-002	9.09630E-001	3.57900E+000	9	...........
	76	1.02667	9.14529E-001	1.00162E-004	0.00000E+000	9.16015E-005	5.99601E-002	9.14888E-001	3.57900E+000	9	...........
	77	1.04	9.19694E-001	1.01586E-004	0.00000E+000	9.34277E-005	5.99601E-002	9.20042E-001	3.57900E+000	9	...........
	78	1.05333	9.24804E-001	1.00379E-004	0.00000E+000	9.28311E-005	5.99601E-002	9.25110E-001	3.57900E+000	9	...........
	79	1.06667	9.29768E-001	1.00730E-004	0.00000E+000	9.36558E-005	5.99601E-002	9.30085E-001	3.57900E+000	9	...........
	80	1.08	9.34633E-001	1.00495E-004	0.00000E+000	9.39258E-005	5.99601E-002	9.34988E-001	3.57900E+000	9	...........
	81	1.09333	9.39430E-001	1.00034E-004	0.00000E+000	9.39752E-005	5.99601E-002	9.39789E-001	3.57900E+000	9	...........
	82	1.10667	9.44132E-001	1.00729E-004	0.00000E+000	9.51017E-005	5.99601E-002	9.44480E-001	3.57900E+000	9	...........
	83	1.12	9.48818E-001	1.00651E-004	0.00000E+000	9.54996E-005	5.99601E-002	9.49126E-001	3.57900E+000	9	...........
	84	1.13333	9.53336E-001	1.00589E-004	0.00000E+000	9.58947E-005	5.99601E-002	9.53669E-001	3.57900E+000	9	...........
	85	1.14667	9.57785E-001	1.01637E-004	0.00000E+000	9.73462E-005	5.99601E-002	9.58125E-001	3.57900E+000	9	...........
	86	1.16	9.62143E-001	1.00222E-004	0.00000E+000	9.64278E-005	5.99601E-002	9.62510E-001	3.57900E+000	9	...........
	87	1.17333	9.66425E-001	1.00547E-004	0.00000E+000	9.71710E-005	5.99601E-002	9.66768E-001	3.57900E+000	9	...........
	88	1.18667	9.70638E-001	1.00834E-004	0.00000E+000	9.78737E-005	5.99601E-002	9.70984E-001	3.57900E+000	9	...........
	89	1.2	9.74803E-001	1.01228E-004	0.00000E+000	9.86777E-005	5.99601E-002	9.75151E-001	3.57900E+000	9	...........
	90	1.21333	9.78842E-001	1.00355E-004	0.00000E+000	9.82319E-005	5.99601E-002	9.79187E-001	3.57900E+000	9	...........
	91	1.22667	9.82801E-001	1.00919E-004	0.00000E+000	9.91832E-005	5.99601E-002	9.83125E-001	3.57900E+000	9	...........
	92	1.24	9.86654E-001	1.00848E-004	0.00000E+000	9.95021E-005	5.99601E-002	9.87031E-001	3.57900E+000	9	...........
	93	1.25333	9.90478E-001	1.00741E-004	0.00000E+000	9.97814E-005	5.99601E-002	9.90839E-001	3.57900E+000	9	...........
	94	1.26667	9.94185E-001	1.00084E-004	0.00000E+000	9.95023E-005	5.99601E-002	9.94557E-001	3.57915E+000	9	...........
	95	1.28	9.97858E-001	1.00777E-004	0.00000E+000	1.00561E-004	5.99601E-002	9.98226E-001	3.57920E+000	9	...........
	96	1.28333	1.00011E+000	1.01811E-004	0.00000E+000	1.01822E-004	5.99601E-002	1.00047E+000	3.57920E+000	9	...........
STARTTIMEOFFSET	QUANT	468.7632	Start Time Offset (s)
