EXPLAIN
TAG	PWR800_CHARGE
TITLE	LABEL	PWR Cyclic Charge Discharge (Cell) - Charge Step	Test &Identifier
DATE	LABEL	13-7-2017	Date
TIME	LABEL	15:31:44	Time
NOTES	NOTES	2	&Notes...
	supercap test cell
	6M KOH
PSTAT	PSTAT	IFC5000-01520	Potentiostat
CAPACITY	QUANT	1.00000E-003	Capacity (A-hr)
CELLTYPE	SELECTOR	1	&Cell Type
WORKINGCONNECTION	SELECTOR	0	&Working Lead
MAXCHARGETIME	VARIABLEANDUNITS	1.00000E+002	s	1.00000E+002	second(s)	Max &Charge Time
CHARGECURRENT	QUANT	1.00000E-004	&Charge Current (A) 
VOLTAGEFINISH	TWOPARAM	F	1.00000E-003	3.60000E+003	&Voltage Finish	 I (A) < 	Max Time(s)
SAMPLETIME	QUANT	1.00000E-002	Sa&mple Period (s)
CHARGESTOPAT1	MULTIPARAM	4	1.00000E+000	Charge Stop At &1	Voltage > Limit	V
CHARGESTOPAT2	MULTIPARAM	0	0.00000E+000	Charge Stop At &2	None	N/A
AESBHCSELECTOR	TOGGLE	F	Save Both Half Cells
IRCOMP	TOGGLE	F	IR &Measure
EOC	QUANT	0	Open Circuit (V)
SEQUENCER	TOGGLE	TRUE	Run as Sequence
PSTATMODEL	IQUANT	53	Pstat Model
PSTATSECTION	LABEL	IFC5000-01520	Pstat Section
PSTATSERIALNO	LABEL	01520	Pstat Serial Number
CTRLMODE	IQUANT	0	Control Mode
ELECTROMETER	IQUANT	1	RE=0 or CS=1
IESTAB	IQUANT	0	I/E Stability
CASPEED	IQUANT	4	Control Amp Speed
CONVENTION	IQUANT	1	Current Convention
ICHRANGE	IQUANT	2	Ich Range
ICHRANGEMODE	TOGGLE	T	Ich Auto Range
ICHOFFSETENABLE	TOGGLE	F	Ich Offset Enable
ICHOFFSET	QUANT	0	Ich Offset (V)
ICHFILTER	IQUANT	1	Ich Filter
VCHRANGE	IQUANT	2	Vch Range
VCHRANGEMODE	TOGGLE	T	Vch Auto Range
VCHOFFSETENABLE	TOGGLE	F	Vch Offset Enable
VCHOFFSET	QUANT	0	Vch Offset (V)
VCHFILTER	IQUANT	1	Vch Filter
IERANGELOWERLIMIT	IQUANT	9	I/E Range Lower Limit
IERANGEMODE	TOGGLE	F	I/E AutoRange
IERANGE	IQUANT	9	I/E Range
ACHSELECT	IQUANT	1	Ach Select
ACHRANGE	IQUANT	2	Ach Range
ACHOFFSETENABLE	TOGGLE	F	Ach Offset Enable
ACHOFFSET	QUANT	0	Ach Offset (V)
ACHFILTER	IQUANT	1	Ach Filter
CABLEID	IQUANT	14	Cable ID
DCCALDATE	LABEL	5-7-2017	DC Calibration Date
ACCALDATE	LABEL	12/3/2015	AC Calibration Date
FRAMEWORKVERSION	QUANT	7.01	Framework Version
INSTRUMENTVERSION	LABEL	4.00	Instrument Version
CURVE	TABLE	92
	Pt	T	Vf	Im	Vu	Pwr	Sig	Ach	Temp	IERange	Over
	#	s	V	A	V	W	V	V	deg C	#	bits
	0	0.013333	1.33316E-001	1.01826E-004	0.00000E+000	1.35751E-005	5.99601E-002	1.33359E-001	3.57870E+000	9	...........
	1	0.026667	1.48585E-001	1.00470E-004	0.00000E+000	1.49284E-005	5.99601E-002	1.48609E-001	3.57870E+000	9	...........
	2	0.04	1.63419E-001	1.00836E-004	0.00000E+000	1.64784E-005	5.99601E-002	1.63439E-001	3.57870E+000	9	...........
	3	0.053333	1.77974E-001	1.01029E-004	0.00000E+000	1.79806E-005	5.99601E-002	1.78004E-001	3.57870E+000	9	...........
	4	0.066667	1.92345E-001	1.01473E-004	0.00000E+000	1.95179E-005	5.99601E-002	1.92373E-001	3.57870E+000	9	...........
	5	0.08	2.06572E-001	1.01405E-004	0.00000E+000	2.09475E-005	5.99601E-002	2.06607E-001	3.57870E+000	9	...........
	6	0.093333	2.20697E-001	1.01743E-004	0.00000E+000	2.24544E-005	5.99601E-002	2.20735E-001	3.57870E+000	9	...........
	7	0.106667	2.34755E-001	1.01139E-004	0.00000E+000	2.37428E-005	5.99601E-002	2.34794E-001	3.57870E+000	9	...........
	8	0.12	2.48765E-001	1.00672E-004	0.00000E+000	2.50436E-005	5.99601E-002	2.48808E-001	3.57870E+000	9	...........
	9	0.133333	2.62744E-001	1.01020E-004	0.00000E+000	2.65423E-005	5.99601E-002	2.62796E-001	3.57870E+000	9	...........
	10	0.146667	2.76716E-001	1.00245E-004	0.00000E+000	2.77393E-005	5.99601E-002	2.76769E-001	3.57870E+000	9	...........
	11	0.16	2.90688E-001	1.00620E-004	0.00000E+000	2.92490E-005	5.99601E-002	2.90740E-001	3.57870E+000	9	...........
	12	0.173333	3.04666E-001	1.01187E-004	0.00000E+000	3.08282E-005	5.99601E-002	3.04727E-001	3.57870E+000	9	...........
	13	0.186667	3.18667E-001	1.01350E-004	0.00000E+000	3.22970E-005	5.99601E-002	3.18729E-001	3.57870E+000	9	...........
	14	0.2	3.32681E-001	1.01101E-004	0.00000E+000	3.36345E-005	5.99601E-002	3.32742E-001	3.57870E+000	9	...........
	15	0.213333	3.46722E-001	1.00430E-004	0.00000E+000	3.48214E-005	5.99601E-002	3.46784E-001	3.57870E+000	9	...........
	16	0.226667	3.60773E-001	1.00786E-004	0.00000E+000	3.63607E-005	5.99601E-002	3.60837E-001	3.57870E+000	9	...........
	17	0.24	3.74836E-001	1.00657E-004	0.00000E+000	3.77300E-005	5.99601E-002	3.74902E-001	3.57870E+000	9	...........
	18	0.253333	3.88894E-001	1.00231E-004	0.00000E+000	3.89793E-005	5.99601E-002	3.88966E-001	3.57870E+000	9	...........
	19	0.266667	4.02941E-001	1.00833E-004	0.00000E+000	4.06299E-005	5.99601E-002	4.03011E-001	3.57870E+000	9	...........
	20	0.28	4.16949E-001	1.01068E-004	0.00000E+000	4.21402E-005	5.99601E-002	4.17033E-001	3.57870E+000	9	...........
	21	0.293333	4.30912E-001	1.00701E-004	0.00000E+000	4.33933E-005	5.99601E-002	4.30997E-001	3.57870E+000	9	...........
	22	0.306667	4.44806E-001	1.01483E-004	0.00000E+000	4.51400E-005	5.99601E-002	4.44898E-001	3.57870E+000	9	...........
	23	0.32	4.58607E-001	1.00649E-004	0.00000E+000	4.61584E-005	5.99601E-002	4.58702E-001	3.57870E+000	9	...........
	24	0.333333	4.72302E-001	1.00897E-004	0.00000E+000	4.76538E-005	5.99601E-002	4.72391E-001	3.57870E+000	9	...........
	25	0.346667	4.85859E-001	1.00713E-004	0.00000E+000	4.89321E-005	5.99601E-002	4.85955E-001	3.57870E+000	9	...........
	26	0.36	4.99267E-001	1.00721E-004	0.00000E+000	5.02866E-005	5.99601E-002	4.99366E-001	3.57870E+000	9	...........
	27	0.373333	5.12498E-001	1.01074E-004	0.00000E+000	5.18002E-005	5.99601E-002	5.12600E-001	3.57870E+000	9	...........
	28	0.386667	5.25542E-001	1.00825E-004	0.00000E+000	5.29878E-005	5.99601E-002	5.25651E-001	3.57870E+000	9	...........
	29	0.4	5.38128E-001	1.00903E-004	0.00000E+000	5.42988E-005	5.99601E-002	5.38282E-001	3.57870E+000	9	...........
	30	0.413333	5.50674E-001	1.00821E-004	0.00000E+000	5.55194E-005	5.99601E-002	5.50919E-001	3.57870E+000	9	...........
	31	0.426667	5.63120E-001	1.00900E-004	0.00000E+000	5.68188E-005	5.99601E-002	5.63330E-001	3.57870E+000	9	...........
	32	0.44	5.75308E-001	1.00717E-004	0.00000E+000	5.79431E-005	5.99601E-002	5.75542E-001	3.57870E+000	9	...........
	33	0.453333	5.87290E-001	1.00350E-004	0.00000E+000	5.89345E-005	5.99601E-002	5.87537E-001	3.57870E+000	9	...........
	34	0.466667	5.99009E-001	1.01288E-004	0.00000E+000	6.06722E-005	5.99601E-002	5.99283E-001	3.57870E+000	9	...........
	35	0.48	6.10536E-001	1.01630E-004	0.00000E+000	6.20490E-005	5.99601E-002	6.10806E-001	3.57870E+000	9	...........
	36	0.493333	6.21871E-001	1.01714E-004	0.00000E+000	6.32529E-005	5.99601E-002	6.22104E-001	3.57870E+000	9	...........
	37	0.506667	6.32907E-001	1.00991E-004	0.00000E+000	6.39177E-005	5.99601E-002	6.33163E-001	3.57870E+000	9	...........
	38	0.52	6.43782E-001	1.01215E-004	0.00000E+000	6.51602E-005	5.99601E-002	6.44023E-001	3.57870E+000	9	...........
	39	0.533333	6.54381E-001	1.00926E-004	0.00000E+000	6.60441E-005	5.99601E-002	6.54628E-001	3.57870E+000	9	...........
	40	0.546667	6.64802E-001	1.00386E-004	0.00000E+000	6.67371E-005	5.99601E-002	6.65052E-001	3.57870E+000	9	...........
	41	0.56	6.74996E-001	1.00890E-004	0.00000E+000	6.81001E-005	5.99601E-002	6.75264E-001	3.57870E+000	9	...........
	42	0.573333	6.84975E-001	1.01334E-004	0.00000E+000	6.94109E-005	5.99601E-002	6.85248E-001	3.57870E+000	9	...........
	43	0.586667	6.94776E-001	1.01225E-004	0.00000E+000	7.03288E-005	5.99601E-002	6.95035E-001	3.57870E+000	9	...........
	44	0.6	7.04379E-001	1.00179E-004	0.00000E+000	7.05641E-005	5.99601E-002	7.04660E-001	3.57870E+000	9	...........
	45	0.613333	7.13776E-001	9.97238E-005	0.00000E+000	7.11805E-005	5.99601E-002	7.14054E-001	3.57870E+000	9	...........
	46	0.626667	7.23035E-001	1.00738E-004	0.00000E+000	7.28368E-005	5.99601E-002	7.23313E-001	3.57870E+000	9	...........
	47	0.64	7.32068E-001	1.01937E-004	0.00000E+000	7.46247E-005	5.99601E-002	7.32344E-001	3.57870E+000	9	...........
	48	0.653333	7.40919E-001	1.00471E-004	0.00000E+000	7.44408E-005	5.99601E-002	7.41210E-001	3.57870E+000	9	...........
	49	0.666667	7.49612E-001	1.00763E-004	0.00000E+000	7.55329E-005	5.99601E-002	7.49904E-001	3.57870E+000	9	...........
	50	0.68	7.58155E-001	1.00142E-004	0.00000E+000	7.59229E-005	5.99601E-002	7.58442E-001	3.57870E+000	9	...........
	51	0.693333	7.66498E-001	1.00912E-004	0.00000E+000	7.73486E-005	5.99601E-002	7.66809E-001	3.57870E+000	9	...........
	52	0.706667	7.74722E-001	1.00780E-004	0.00000E+000	7.80767E-005	5.99601E-002	7.75025E-001	3.57870E+000	9	...........
	53	0.72	7.82762E-001	1.00865E-004	0.00000E+000	7.89530E-005	5.99601E-002	7.83095E-001	3.57870E+000	9	...........
	54	0.733333	7.90670E-001	1.01793E-004	0.00000E+000	8.04847E-005	5.99601E-002	7.90976E-001	3.57870E+000	9	...........
	55	0.746667	7.98444E-001	1.00929E-004	0.00000E+000	8.05864E-005	5.99601E-002	7.98731E-001	3.57870E+000	9	...........
	56	0.76	8.06046E-001	1.01446E-004	0.00000E+000	8.17702E-005	5.99601E-002	8.06350E-001	3.57870E+000	9	...........
	57	0.773333	8.13508E-001	1.01053E-004	0.00000E+000	8.22077E-005	5.99601E-002	8.13827E-001	3.57870E+000	9	...........
	58	0.786667	8.20872E-001	1.01712E-004	0.00000E+000	8.34923E-005	5.99601E-002	8.21203E-001	3.57870E+000	9	...........
	59	0.8	8.28076E-001	1.00865E-004	0.00000E+000	8.35237E-005	5.99601E-002	8.28392E-001	3.58000E+000	9	...........
	60	0.813333	8.35124E-001	1.00663E-004	0.00000E+000	8.40657E-005	5.99601E-002	8.35473E-001	3.58000E+000	9	...........
	61	0.826667	8.42069E-001	1.01940E-004	0.00000E+000	8.58404E-005	5.99601E-002	8.42422E-001	3.58000E+000	9	...........
	62	0.84	8.48925E-001	1.00896E-004	0.00000E+000	8.56531E-005	5.99601E-002	8.49267E-001	3.58000E+000	9	...........
	63	0.853333	8.55605E-001	1.01239E-004	0.00000E+000	8.66204E-005	5.99601E-002	8.55954E-001	3.58000E+000	9	...........
	64	0.866667	8.62206E-001	1.00365E-004	0.00000E+000	8.65350E-005	5.99601E-002	8.62556E-001	3.58000E+000	9	...........
	65	0.88	8.68708E-001	1.00800E-004	0.00000E+000	8.75658E-005	5.99601E-002	8.69032E-001	3.58000E+000	9	...........
	66	0.893333	8.75066E-001	1.00895E-004	0.00000E+000	8.82897E-005	5.99601E-002	8.75392E-001	3.58000E+000	9	...........
	67	0.906667	8.81315E-001	1.00805E-004	0.00000E+000	8.88412E-005	5.99601E-002	8.81659E-001	3.58000E+000	9	...........
	68	0.92	8.87457E-001	1.00243E-004	0.00000E+000	8.89611E-005	5.99601E-002	8.87784E-001	3.58000E+000	9	...........
	69	0.933333	8.93465E-001	1.00730E-004	0.00000E+000	8.99990E-005	5.99601E-002	8.93804E-001	3.58000E+000	9	...........
	70	0.946667	8.99379E-001	1.02090E-004	0.00000E+000	9.18175E-005	5.99601E-002	8.99723E-001	3.58000E+000	9	...........
	71	0.96	9.05170E-001	1.00923E-004	0.00000E+000	9.13525E-005	5.99601E-002	9.05558E-001	3.58000E+000	9	...........
	72	0.97333	9.10899E-001	1.00882E-004	0.00000E+000	9.18937E-005	5.99601E-002	9.11253E-001	3.58000E+000	9	...........
	73	0.98667	9.16508E-001	1.00193E-004	0.00000E+000	9.18274E-005	5.99601E-002	9.16848E-001	3.58000E+000	9	...........
	74	1	9.22038E-001	1.00794E-004	0.00000E+000	9.29358E-005	5.99601E-002	9.22358E-001	3.58000E+000	9	...........
	75	1.01333	9.27468E-001	1.00649E-004	0.00000E+000	9.33487E-005	5.99601E-002	9.27762E-001	3.58000E+000	9	...........
	76	1.02667	9.32769E-001	1.01658E-004	0.00000E+000	9.48230E-005	5.99601E-002	9.33074E-001	3.58000E+000	9	...........
	77	1.04	9.37954E-001	1.01603E-004	0.00000E+000	9.52993E-005	5.99601E-002	9.38286E-001	3.58000E+000	9	...........
	78	1.05333	9.43061E-001	1.01633E-004	0.00000E+000	9.58457E-005	5.99601E-002	9.43371E-001	3.58000E+000	9	...........
	79	1.06667	9.48093E-001	1.00622E-004	0.00000E+000	9.53990E-005	5.99601E-002	9.48389E-001	3.58000E+000	9	...........
	80	1.08	9.52999E-001	1.00748E-004	0.00000E+000	9.60127E-005	5.99601E-002	9.53330E-001	3.58000E+000	9	...........
	81	1.09333	9.57819E-001	1.00543E-004	0.00000E+000	9.63018E-005	5.99601E-002	9.58126E-001	3.58000E+000	9	...........
	82	1.10667	9.62518E-001	1.00782E-004	0.00000E+000	9.70049E-005	5.99601E-002	9.62860E-001	3.58000E+000	9	...........
	83	1.12	9.67160E-001	1.00599E-004	0.00000E+000	9.72954E-005	5.99601E-002	9.67481E-001	3.58000E+000	9	...........
	84	1.13333	9.71711E-001	1.01658E-004	0.00000E+000	9.87817E-005	5.99601E-002	9.72050E-001	3.58000E+000	9	...........
	85	1.14667	9.76157E-001	1.01083E-004	0.00000E+000	9.86734E-005	5.99601E-002	9.76513E-001	3.58000E+000	9	...........
	86	1.16	9.80535E-001	1.01879E-004	0.00000E+000	9.98964E-005	5.99601E-002	9.80846E-001	3.58000E+000	9	...........
	87	1.17333	9.84778E-001	1.00672E-004	0.00000E+000	9.91395E-005	5.99601E-002	9.85147E-001	3.58000E+000	9	...........
	88	1.18667	9.88959E-001	1.01347E-004	0.00000E+000	1.00228E-004	5.99601E-002	9.89311E-001	3.58000E+000	9	...........
	89	1.2	9.93055E-001	1.00645E-004	0.00000E+000	9.99458E-005	5.99601E-002	9.93397E-001	3.58000E+000	9	...........
	90	1.21333	9.97060E-001	1.01612E-004	0.00000E+000	1.01313E-004	5.99601E-002	9.97429E-001	3.58000E+000	9	...........
	91	1.21833	9.99759E-001	1.01354E-004	0.00000E+000	1.01329E-004	5.99601E-002	1.00012E+000	3.58000E+000	9	...........
STARTTIMEOFFSET	QUANT	1344.691	Start Time Offset (s)
