EXPLAIN
TAG	PWR800_CHARGE
TITLE	LABEL	PWR Cyclic Charge Discharge (Cell) - Charge Step	Test &Identifier
DATE	LABEL	13-7-2017	Date
TIME	LABEL	15:41:29	Time
NOTES	NOTES	2	&Notes...
	supercap test cell
	6M KOH
PSTAT	PSTAT	IFC5000-01520	Potentiostat
CAPACITY	QUANT	1.00000E-003	Capacity (A-hr)
CELLTYPE	SELECTOR	1	&Cell Type
WORKINGCONNECTION	SELECTOR	0	&Working Lead
MAXCHARGETIME	VARIABLEANDUNITS	1.00000E+002	s	1.00000E+002	second(s)	Max &Charge Time
CHARGECURRENT	QUANT	1.00000E-004	&Charge Current (A) 
VOLTAGEFINISH	TWOPARAM	F	1.00000E-003	3.60000E+003	&Voltage Finish	 I (A) < 	Max Time(s)
SAMPLETIME	QUANT	1.00000E-002	Sa&mple Period (s)
CHARGESTOPAT1	MULTIPARAM	4	1.00000E+000	Charge Stop At &1	Voltage > Limit	V
CHARGESTOPAT2	MULTIPARAM	0	0.00000E+000	Charge Stop At &2	None	N/A
AESBHCSELECTOR	TOGGLE	F	Save Both Half Cells
IRCOMP	TOGGLE	F	IR &Measure
EOC	QUANT	0	Open Circuit (V)
SEQUENCER	TOGGLE	TRUE	Run as Sequence
PSTATMODEL	IQUANT	53	Pstat Model
PSTATSECTION	LABEL	IFC5000-01520	Pstat Section
PSTATSERIALNO	LABEL	01520	Pstat Serial Number
CTRLMODE	IQUANT	0	Control Mode
ELECTROMETER	IQUANT	1	RE=0 or CS=1
IESTAB	IQUANT	0	I/E Stability
CASPEED	IQUANT	4	Control Amp Speed
CONVENTION	IQUANT	1	Current Convention
ICHRANGE	IQUANT	2	Ich Range
ICHRANGEMODE	TOGGLE	T	Ich Auto Range
ICHOFFSETENABLE	TOGGLE	F	Ich Offset Enable
ICHOFFSET	QUANT	0	Ich Offset (V)
ICHFILTER	IQUANT	1	Ich Filter
VCHRANGE	IQUANT	2	Vch Range
VCHRANGEMODE	TOGGLE	T	Vch Auto Range
VCHOFFSETENABLE	TOGGLE	F	Vch Offset Enable
VCHOFFSET	QUANT	0	Vch Offset (V)
VCHFILTER	IQUANT	1	Vch Filter
IERANGELOWERLIMIT	IQUANT	9	I/E Range Lower Limit
IERANGEMODE	TOGGLE	F	I/E AutoRange
IERANGE	IQUANT	9	I/E Range
ACHSELECT	IQUANT	1	Ach Select
ACHRANGE	IQUANT	2	Ach Range
ACHOFFSETENABLE	TOGGLE	F	Ach Offset Enable
ACHOFFSET	QUANT	0	Ach Offset (V)
ACHFILTER	IQUANT	1	Ach Filter
CABLEID	IQUANT	14	Cable ID
DCCALDATE	LABEL	5-7-2017	DC Calibration Date
ACCALDATE	LABEL	12/3/2015	AC Calibration Date
FRAMEWORKVERSION	QUANT	7.01	Framework Version
INSTRUMENTVERSION	LABEL	4.00	Instrument Version
CURVE	TABLE	90
	Pt	T	Vf	Im	Vu	Pwr	Sig	Ach	Temp	IERange	Over
	#	s	V	A	V	W	V	V	deg C	#	bits
	0	0.013333	1.33790E-001	1.00878E-004	0.00000E+000	1.34965E-005	5.99601E-002	1.33832E-001	3.57900E+000	9	...........
	1	0.026667	1.49107E-001	1.01387E-004	0.00000E+000	1.51175E-005	5.99601E-002	1.49124E-001	3.57913E+000	9	...........
	2	0.04	1.63973E-001	1.01427E-004	0.00000E+000	1.66313E-005	5.99601E-002	1.63998E-001	3.57950E+000	9	...........
	3	0.053333	1.78577E-001	1.01397E-004	0.00000E+000	1.81072E-005	5.99601E-002	1.78610E-001	3.57950E+000	9	...........
	4	0.066667	1.92990E-001	1.01594E-004	0.00000E+000	1.96066E-005	5.99601E-002	1.93018E-001	3.57950E+000	9	...........
	5	0.08	2.07257E-001	1.00619E-004	0.00000E+000	2.08540E-005	5.99601E-002	2.07290E-001	3.57950E+000	9	...........
	6	0.093333	2.21422E-001	1.01624E-004	0.00000E+000	2.25018E-005	5.99601E-002	2.21459E-001	3.57950E+000	9	...........
	7	0.106667	2.35517E-001	1.01124E-004	0.00000E+000	2.38164E-005	5.99601E-002	2.35553E-001	3.57950E+000	9	...........
	8	0.12	2.49558E-001	1.00733E-004	0.00000E+000	2.51388E-005	5.99601E-002	2.49609E-001	3.57950E+000	9	...........
	9	0.133333	2.63581E-001	1.00714E-004	0.00000E+000	2.65462E-005	5.99601E-002	2.63629E-001	3.57950E+000	9	...........
	10	0.146667	2.77593E-001	1.00672E-004	0.00000E+000	2.79458E-005	5.99601E-002	2.77648E-001	3.57950E+000	9	...........
	11	0.16	2.91610E-001	1.01213E-004	0.00000E+000	2.95147E-005	5.99601E-002	2.91662E-001	3.57950E+000	9	...........
	12	0.173333	3.05635E-001	1.00305E-004	0.00000E+000	3.06568E-005	5.99601E-002	3.05696E-001	3.57950E+000	9	...........
	13	0.186667	3.19689E-001	1.00340E-004	0.00000E+000	3.20775E-005	5.99601E-002	3.19745E-001	3.57950E+000	9	...........
	14	0.2	3.33754E-001	1.00328E-004	0.00000E+000	3.34849E-005	5.99601E-002	3.33818E-001	3.57950E+000	9	...........
	15	0.213333	3.47851E-001	1.00729E-004	0.00000E+000	3.50388E-005	5.99601E-002	3.47915E-001	3.57950E+000	9	...........
	16	0.226667	3.61966E-001	1.00637E-004	0.00000E+000	3.64270E-005	5.99601E-002	3.62032E-001	3.57950E+000	9	...........
	17	0.24	3.76096E-001	1.00862E-004	0.00000E+000	3.79336E-005	5.99601E-002	3.76165E-001	3.57950E+000	9	...........
	18	0.253333	3.90234E-001	1.02047E-004	0.00000E+000	3.98223E-005	5.99601E-002	3.90306E-001	3.57950E+000	9	...........
	19	0.266667	4.04366E-001	1.00463E-004	0.00000E+000	4.06236E-005	5.99601E-002	4.04441E-001	3.57950E+000	9	...........
	20	0.28	4.18465E-001	1.01559E-004	0.00000E+000	4.24987E-005	5.99601E-002	4.18547E-001	3.57950E+000	9	...........
	21	0.293333	4.32525E-001	1.01769E-004	0.00000E+000	4.40177E-005	5.99601E-002	4.32612E-001	3.57950E+000	9	...........
	22	0.306667	4.46515E-001	1.00247E-004	0.00000E+000	4.47617E-005	5.99601E-002	4.46607E-001	3.57950E+000	9	...........
	23	0.32	4.60432E-001	1.00803E-004	0.00000E+000	4.64131E-005	5.99601E-002	4.60522E-001	3.57950E+000	9	...........
	24	0.333333	4.74235E-001	1.00788E-004	0.00000E+000	4.77970E-005	5.99601E-002	4.74333E-001	3.57950E+000	9	...........
	25	0.346667	4.87912E-001	1.01133E-004	0.00000E+000	4.93443E-005	5.99601E-002	4.88006E-001	3.57950E+000	9	...........
	26	0.36	5.01433E-001	1.01273E-004	0.00000E+000	5.07817E-005	5.99601E-002	5.01537E-001	3.57950E+000	9	...........
	27	0.373333	5.14781E-001	1.00861E-004	0.00000E+000	5.19210E-005	5.99601E-002	5.14886E-001	3.57950E+000	9	...........
	28	0.386667	5.27946E-001	1.01511E-004	0.00000E+000	5.35921E-005	5.99601E-002	5.28061E-001	3.57950E+000	9	...........
	29	0.4	5.40526E-001	1.00378E-004	0.00000E+000	5.42570E-005	5.99601E-002	5.40837E-001	3.57950E+000	9	...........
	30	0.413333	5.53301E-001	1.00668E-004	0.00000E+000	5.56996E-005	5.99601E-002	5.53604E-001	3.57950E+000	9	...........
	31	0.426667	5.65876E-001	1.01917E-004	0.00000E+000	5.76723E-005	5.99601E-002	5.66151E-001	3.57950E+000	9	...........
	32	0.44	5.78184E-001	1.00953E-004	0.00000E+000	5.83695E-005	5.99601E-002	5.78475E-001	3.57950E+000	9	...........
	33	0.453333	5.90263E-001	1.00366E-004	0.00000E+000	5.92421E-005	5.99601E-002	5.90561E-001	3.57950E+000	9	...........
	34	0.466667	6.02104E-001	1.01349E-004	0.00000E+000	6.10227E-005	5.99601E-002	6.02422E-001	3.57950E+000	9	...........
	35	0.48	6.13729E-001	1.00515E-004	0.00000E+000	6.16888E-005	5.99601E-002	6.14048E-001	3.57950E+000	9	...........
	36	0.493333	6.25160E-001	1.01513E-004	0.00000E+000	6.34617E-005	5.99601E-002	6.25434E-001	3.57950E+000	9	...........
	37	0.506667	6.36314E-001	1.00663E-004	0.00000E+000	6.40530E-005	5.99601E-002	6.36613E-001	3.57950E+000	9	...........
	38	0.52	6.47244E-001	1.01135E-004	0.00000E+000	6.54588E-005	5.99601E-002	6.47561E-001	3.57950E+000	9	...........
	39	0.533333	6.57995E-001	1.01218E-004	0.00000E+000	6.66008E-005	5.99601E-002	6.58262E-001	3.57950E+000	9	...........
	40	0.546667	6.68500E-001	1.01270E-004	0.00000E+000	6.76990E-005	5.99601E-002	6.68787E-001	3.57950E+000	9	...........
	41	0.56	6.78786E-001	1.01732E-004	0.00000E+000	6.90539E-005	5.99601E-002	6.79057E-001	3.57950E+000	9	...........
	42	0.573333	6.88877E-001	1.00558E-004	0.00000E+000	6.92724E-005	5.99601E-002	6.89128E-001	3.57950E+000	9	...........
	43	0.586667	6.98755E-001	1.00010E-004	0.00000E+000	6.98827E-005	5.99601E-002	6.99025E-001	3.57950E+000	9	...........
	44	0.6	7.08448E-001	1.00689E-004	0.00000E+000	7.13327E-005	5.99601E-002	7.08710E-001	3.57950E+000	9	...........
	45	0.613333	7.17954E-001	1.00407E-004	0.00000E+000	7.20879E-005	5.99601E-002	7.18221E-001	3.57950E+000	9	...........
	46	0.626667	7.27260E-001	1.01020E-004	0.00000E+000	7.34678E-005	5.99601E-002	7.27548E-001	3.57950E+000	9	...........
	47	0.64	7.36369E-001	1.00478E-004	0.00000E+000	7.39890E-005	5.99601E-002	7.36658E-001	3.57950E+000	9	...........
	48	0.653333	7.45344E-001	1.00354E-004	0.00000E+000	7.47984E-005	5.99601E-002	7.45624E-001	3.57950E+000	9	...........
	49	0.666667	7.54120E-001	1.01107E-004	0.00000E+000	7.62472E-005	5.99601E-002	7.54376E-001	3.57950E+000	9	...........
	50	0.68	7.62710E-001	9.99676E-005	0.00000E+000	7.62463E-005	5.99601E-002	7.62971E-001	3.57950E+000	9	...........
	51	0.693333	7.71143E-001	1.00847E-004	0.00000E+000	7.77674E-005	5.99601E-002	7.71411E-001	3.57950E+000	9	...........
	52	0.706667	7.79401E-001	1.00763E-004	0.00000E+000	7.85344E-005	5.99601E-002	7.79670E-001	3.57950E+000	9	...........
	53	0.72	7.87520E-001	1.00952E-004	0.00000E+000	7.95019E-005	5.99601E-002	7.87790E-001	3.57950E+000	9	...........
	54	0.733333	7.95500E-001	9.98812E-005	0.00000E+000	7.94555E-005	5.99601E-002	7.95771E-001	3.57950E+000	9	...........
	55	0.746667	8.03321E-001	1.01463E-004	0.00000E+000	8.15071E-005	5.99601E-002	8.03592E-001	3.57950E+000	9	...........
	56	0.76	8.10957E-001	1.00927E-004	0.00000E+000	8.18477E-005	5.99601E-002	8.11255E-001	3.57950E+000	9	...........
	57	0.773333	8.18500E-001	1.00693E-004	0.00000E+000	8.24171E-005	5.99601E-002	8.18783E-001	3.57950E+000	9	...........
	58	0.786667	8.25867E-001	1.00787E-004	0.00000E+000	8.32363E-005	5.99601E-002	8.26200E-001	3.57950E+000	9	...........
	59	0.8	8.33133E-001	1.00160E-004	0.00000E+000	8.34469E-005	5.99601E-002	8.33432E-001	3.57950E+000	9	...........
	60	0.813333	8.40224E-001	1.01419E-004	0.00000E+000	8.52147E-005	5.99601E-002	8.40558E-001	3.57950E+000	9	...........
	61	0.826667	8.47261E-001	1.01401E-004	0.00000E+000	8.59133E-005	5.99601E-002	8.47578E-001	3.57950E+000	9	...........
	62	0.84	8.54120E-001	1.01519E-004	0.00000E+000	8.67094E-005	5.99601E-002	8.54441E-001	3.57950E+000	9	...........
	63	0.853333	8.60868E-001	1.01032E-004	0.00000E+000	8.69756E-005	5.99601E-002	8.61178E-001	3.57950E+000	9	...........
	64	0.866667	8.67488E-001	1.01554E-004	0.00000E+000	8.80973E-005	5.99601E-002	8.67824E-001	3.57950E+000	9	...........
	65	0.88	8.74018E-001	1.00306E-004	0.00000E+000	8.76695E-005	5.99601E-002	8.74348E-001	3.57950E+000	9	...........
	66	0.893333	8.80402E-001	1.00568E-004	0.00000E+000	8.85400E-005	5.99601E-002	8.80736E-001	3.57950E+000	9	...........
	67	0.906667	8.86679E-001	1.00953E-004	0.00000E+000	8.95131E-005	5.99601E-002	8.87016E-001	3.57950E+000	9	...........
	68	0.92	8.92838E-001	1.00546E-004	0.00000E+000	8.97711E-005	5.99601E-002	8.93182E-001	3.57950E+000	9	...........
	69	0.933333	8.98895E-001	1.00593E-004	0.00000E+000	9.04223E-005	5.99601E-002	8.99255E-001	3.57950E+000	9	...........
	70	0.946667	9.04800E-001	1.00916E-004	0.00000E+000	9.13085E-005	5.99601E-002	9.05175E-001	3.57950E+000	9	...........
	71	0.96	9.10654E-001	1.01619E-004	0.00000E+000	9.25398E-005	5.99601E-002	9.11005E-001	3.57950E+000	9	...........
	72	0.97333	9.16365E-001	1.00413E-004	0.00000E+000	9.20145E-005	5.99601E-002	9.16747E-001	3.57950E+000	9	...........
	73	0.98667	9.22035E-001	1.01031E-004	0.00000E+000	9.31545E-005	5.99601E-002	9.22360E-001	3.57950E+000	9	...........
	74	1	9.27558E-001	1.00789E-004	0.00000E+000	9.34873E-005	5.99601E-002	9.27878E-001	3.57950E+000	9	...........
	75	1.01333	9.32970E-001	1.01091E-004	0.00000E+000	9.43147E-005	5.99601E-002	9.33298E-001	3.57950E+000	9	...........
	76	1.02667	9.38238E-001	1.01045E-004	0.00000E+000	9.48042E-005	5.99601E-002	9.38605E-001	3.57935E+000	9	...........
	77	1.04	9.43450E-001	1.00972E-004	0.00000E+000	9.52621E-005	5.99601E-002	9.43808E-001	3.57890E+000	9	...........
	78	1.05333	9.48588E-001	1.01574E-004	0.00000E+000	9.63521E-005	5.99601E-002	9.48936E-001	3.57890E+000	9	...........
	79	1.06667	9.53585E-001	1.00603E-004	0.00000E+000	9.59337E-005	5.99601E-002	9.53938E-001	3.57890E+000	9	...........
	80	1.08	9.58491E-001	1.00821E-004	0.00000E+000	9.66359E-005	5.99601E-002	9.58863E-001	3.57890E+000	9	...........
	81	1.09333	9.63309E-001	1.00850E-004	0.00000E+000	9.71498E-005	5.99601E-002	9.63670E-001	3.57890E+000	9	...........
	82	1.10667	9.68007E-001	1.01027E-004	0.00000E+000	9.77950E-005	5.99601E-002	9.68364E-001	3.57890E+000	9	...........
	83	1.12	9.72646E-001	1.00128E-004	0.00000E+000	9.73892E-005	5.99601E-002	9.73013E-001	3.57890E+000	9	...........
	84	1.13333	9.77179E-001	1.01351E-004	0.00000E+000	9.90383E-005	5.99601E-002	9.77551E-001	3.57890E+000	9	...........
	85	1.14667	9.81612E-001	1.01124E-004	0.00000E+000	9.92646E-005	5.99601E-002	9.81969E-001	3.57890E+000	9	...........
	86	1.16	9.85926E-001	1.00154E-004	0.00000E+000	9.87445E-005	5.99601E-002	9.86319E-001	3.57890E+000	9	...........
	87	1.17333	9.90177E-001	1.00269E-004	0.00000E+000	9.92838E-005	5.99601E-002	9.90562E-001	3.57890E+000	9	...........
	88	1.18667	9.94305E-001	1.01512E-004	0.00000E+000	1.00934E-004	5.99601E-002	9.94712E-001	3.57890E+000	9	...........
	89	1.2	9.98403E-001	1.01039E-004	0.00000E+000	1.00877E-004	5.99601E-002	9.98785E-001	3.57890E+000	9	...........
STARTTIMEOFFSET	QUANT	1783.995	Start Time Offset (s)
