EXPLAIN
TAG	PWR800_CHARGE
TITLE	LABEL	PWR Cyclic Charge Discharge (Cell) - Charge Step	Test &Identifier
DATE	LABEL	13-7-2017	Date
TIME	LABEL	15:11:22	Time
NOTES	NOTES	2	&Notes...
	supercap test cell
	6M KOH
PSTAT	PSTAT	IFC5000-01520	Potentiostat
CAPACITY	QUANT	1.00000E-003	Capacity (A-hr)
CELLTYPE	SELECTOR	1	&Cell Type
WORKINGCONNECTION	SELECTOR	0	&Working Lead
MAXCHARGETIME	VARIABLEANDUNITS	1.00000E+002	s	1.00000E+002	second(s)	Max &Charge Time
CHARGECURRENT	QUANT	1.00000E-004	&Charge Current (A) 
VOLTAGEFINISH	TWOPARAM	F	1.00000E-003	3.60000E+003	&Voltage Finish	 I (A) < 	Max Time(s)
SAMPLETIME	QUANT	1.00000E-002	Sa&mple Period (s)
CHARGESTOPAT1	MULTIPARAM	4	1.00000E+000	Charge Stop At &1	Voltage > Limit	V
CHARGESTOPAT2	MULTIPARAM	0	0.00000E+000	Charge Stop At &2	None	N/A
AESBHCSELECTOR	TOGGLE	F	Save Both Half Cells
IRCOMP	TOGGLE	F	IR &Measure
EOC	QUANT	0	Open Circuit (V)
SEQUENCER	TOGGLE	TRUE	Run as Sequence
PSTATMODEL	IQUANT	53	Pstat Model
PSTATSECTION	LABEL	IFC5000-01520	Pstat Section
PSTATSERIALNO	LABEL	01520	Pstat Serial Number
CTRLMODE	IQUANT	0	Control Mode
ELECTROMETER	IQUANT	1	RE=0 or CS=1
IESTAB	IQUANT	0	I/E Stability
CASPEED	IQUANT	4	Control Amp Speed
CONVENTION	IQUANT	1	Current Convention
ICHRANGE	IQUANT	2	Ich Range
ICHRANGEMODE	TOGGLE	T	Ich Auto Range
ICHOFFSETENABLE	TOGGLE	F	Ich Offset Enable
ICHOFFSET	QUANT	0	Ich Offset (V)
ICHFILTER	IQUANT	1	Ich Filter
VCHRANGE	IQUANT	2	Vch Range
VCHRANGEMODE	TOGGLE	T	Vch Auto Range
VCHOFFSETENABLE	TOGGLE	F	Vch Offset Enable
VCHOFFSET	QUANT	0	Vch Offset (V)
VCHFILTER	IQUANT	1	Vch Filter
IERANGELOWERLIMIT	IQUANT	9	I/E Range Lower Limit
IERANGEMODE	TOGGLE	F	I/E AutoRange
IERANGE	IQUANT	9	I/E Range
ACHSELECT	IQUANT	1	Ach Select
ACHRANGE	IQUANT	2	Ach Range
ACHOFFSETENABLE	TOGGLE	F	Ach Offset Enable
ACHOFFSET	QUANT	0	Ach Offset (V)
ACHFILTER	IQUANT	1	Ach Filter
CABLEID	IQUANT	14	Cable ID
DCCALDATE	LABEL	5-7-2017	DC Calibration Date
ACCALDATE	LABEL	12/3/2015	AC Calibration Date
FRAMEWORKVERSION	QUANT	7.01	Framework Version
INSTRUMENTVERSION	LABEL	4.00	Instrument Version
CURVE	TABLE	97
	Pt	T	Vf	Im	Vu	Pwr	Sig	Ach	Temp	IERange	Over
	#	s	V	A	V	W	V	V	deg C	#	bits
	0	0.013333	1.33026E-001	1.01474E-004	0.00000E+000	1.34987E-005	5.99601E-002	1.33064E-001	3.57980E+000	9	...........
	1	0.026667	1.48271E-001	1.01560E-004	0.00000E+000	1.50583E-005	5.99601E-002	1.48292E-001	3.57980E+000	9	...........
	2	0.04	1.63073E-001	1.00858E-004	0.00000E+000	1.64473E-005	5.99601E-002	1.63099E-001	3.57980E+000	9	...........
	3	0.053333	1.77600E-001	1.00800E-004	0.00000E+000	1.79021E-005	5.99601E-002	1.77628E-001	3.57980E+000	9	...........
	4	0.066667	1.91936E-001	1.01168E-004	0.00000E+000	1.94178E-005	5.99601E-002	1.91972E-001	3.57980E+000	9	...........
	5	0.08	2.06127E-001	9.98530E-005	0.00000E+000	2.05824E-005	5.99601E-002	2.06163E-001	3.57980E+000	9	...........
	6	0.093333	2.20216E-001	1.01002E-004	0.00000E+000	2.22423E-005	5.99601E-002	2.20258E-001	3.57980E+000	9	...........
	7	0.106667	2.34225E-001	1.01984E-004	0.00000E+000	2.38871E-005	5.99601E-002	2.34273E-001	3.57980E+000	9	...........
	8	0.12	2.48182E-001	1.01056E-004	0.00000E+000	2.50804E-005	5.99601E-002	2.48228E-001	3.57980E+000	9	...........
	9	0.133333	2.62103E-001	1.00840E-004	0.00000E+000	2.64303E-005	5.99601E-002	2.62149E-001	3.57980E+000	9	...........
	10	0.146667	2.75993E-001	1.00923E-004	0.00000E+000	2.78541E-005	5.99601E-002	2.76049E-001	3.57980E+000	9	...........
	11	0.16	2.89871E-001	1.01011E-004	0.00000E+000	2.92801E-005	5.99601E-002	2.89928E-001	3.57980E+000	9	...........
	12	0.173333	3.03750E-001	1.00549E-004	0.00000E+000	3.05417E-005	5.99601E-002	3.03810E-001	3.57980E+000	9	...........
	13	0.186667	3.17624E-001	1.01405E-004	0.00000E+000	3.22088E-005	5.99601E-002	3.17687E-001	3.57980E+000	9	...........
	14	0.2	3.31494E-001	1.01362E-004	0.00000E+000	3.36008E-005	5.99601E-002	3.31564E-001	3.57980E+000	9	...........
	15	0.213333	3.45365E-001	1.00499E-004	0.00000E+000	3.47089E-005	5.99601E-002	3.45430E-001	3.57980E+000	9	...........
	16	0.226667	3.59219E-001	1.01095E-004	0.00000E+000	3.63153E-005	5.99601E-002	3.59296E-001	3.57980E+000	9	...........
	17	0.24	3.73061E-001	1.00563E-004	0.00000E+000	3.75160E-005	5.99601E-002	3.73134E-001	3.57980E+000	9	...........
	18	0.253333	3.86879E-001	1.01313E-004	0.00000E+000	3.91958E-005	5.99601E-002	3.86958E-001	3.57980E+000	9	...........
	19	0.266667	4.00660E-001	1.01390E-004	0.00000E+000	4.06228E-005	5.99601E-002	4.00734E-001	3.57980E+000	9	...........
	20	0.28	4.14374E-001	1.00728E-004	0.00000E+000	4.17392E-005	5.99601E-002	4.14452E-001	3.57980E+000	9	...........
	21	0.293333	4.28009E-001	9.99624E-005	0.00000E+000	4.27848E-005	5.99601E-002	4.28095E-001	3.57980E+000	9	...........
	22	0.306667	4.41561E-001	1.00737E-004	0.00000E+000	4.44813E-005	5.99601E-002	4.41642E-001	3.57980E+000	9	...........
	23	0.32	4.54987E-001	1.00877E-004	0.00000E+000	4.58978E-005	5.99601E-002	4.55077E-001	3.57980E+000	9	...........
	24	0.333333	4.68287E-001	1.01704E-004	0.00000E+000	4.76268E-005	5.99601E-002	4.68380E-001	3.57980E+000	9	...........
	25	0.346667	4.81440E-001	1.00800E-004	0.00000E+000	4.85292E-005	5.99601E-002	4.81534E-001	3.57980E+000	9	...........
	26	0.36	4.94424E-001	1.00652E-004	0.00000E+000	4.97648E-005	5.99601E-002	4.94520E-001	3.57980E+000	9	...........
	27	0.373333	5.07218E-001	1.00492E-004	0.00000E+000	5.09712E-005	5.99601E-002	5.07326E-001	3.57980E+000	9	...........
	28	0.386667	5.19824E-001	1.01968E-004	0.00000E+000	5.30055E-005	5.99601E-002	5.19940E-001	3.57980E+000	9	...........
	29	0.4	5.32141E-001	1.01612E-004	0.00000E+000	5.40718E-005	5.99601E-002	5.32245E-001	3.57980E+000	9	...........
	30	0.413333	5.44068E-001	1.00948E-004	0.00000E+000	5.49225E-005	5.99601E-002	5.44316E-001	3.57980E+000	9	...........
	31	0.426667	5.56037E-001	1.01039E-004	0.00000E+000	5.61812E-005	5.99601E-002	5.56282E-001	3.57980E+000	9	...........
	32	0.44	5.67826E-001	1.00396E-004	0.00000E+000	5.70074E-005	5.99601E-002	5.68066E-001	3.57980E+000	9	...........
	33	0.453333	5.79327E-001	1.01589E-004	0.00000E+000	5.88531E-005	5.99601E-002	5.79612E-001	3.57980E+000	9	...........
	34	0.466667	5.90652E-001	1.00172E-004	0.00000E+000	5.91667E-005	5.99601E-002	5.90940E-001	3.57980E+000	9	...........
	35	0.48	6.01720E-001	1.01072E-004	0.00000E+000	6.08171E-005	5.99601E-002	6.02050E-001	3.57980E+000	9	...........
	36	0.493333	6.12613E-001	1.01000E-004	0.00000E+000	6.18740E-005	5.99601E-002	6.12904E-001	3.57980E+000	9	...........
	37	0.506667	6.23299E-001	1.00568E-004	0.00000E+000	6.26838E-005	5.99601E-002	6.23573E-001	3.57980E+000	9	...........
	38	0.52	6.33723E-001	1.00630E-004	0.00000E+000	6.37717E-005	5.99601E-002	6.34009E-001	3.57980E+000	9	...........
	39	0.533333	6.43989E-001	1.01459E-004	0.00000E+000	6.53382E-005	5.99601E-002	6.44254E-001	3.57980E+000	9	...........
	40	0.546667	6.54014E-001	1.00901E-004	0.00000E+000	6.59908E-005	5.99601E-002	6.54309E-001	3.57980E+000	9	...........
	41	0.56	6.63842E-001	1.01399E-004	0.00000E+000	6.73130E-005	5.99601E-002	6.64148E-001	3.57980E+000	9	...........
	42	0.573333	6.73502E-001	1.01697E-004	0.00000E+000	6.84932E-005	5.99601E-002	6.73770E-001	3.57980E+000	9	...........
	43	0.586667	6.82910E-001	1.01204E-004	0.00000E+000	6.91135E-005	5.99601E-002	6.83214E-001	3.57980E+000	9	...........
	44	0.6	6.92165E-001	1.00973E-004	0.00000E+000	6.98900E-005	5.99601E-002	6.92473E-001	3.57980E+000	9	...........
	45	0.613333	7.01247E-001	1.01047E-004	0.00000E+000	7.08589E-005	5.99601E-002	7.01543E-001	3.57980E+000	9	...........
	46	0.626667	7.10096E-001	1.01237E-004	0.00000E+000	7.18878E-005	5.99601E-002	7.10416E-001	3.57980E+000	9	...........
	47	0.64	7.18858E-001	1.01122E-004	0.00000E+000	7.26924E-005	5.99601E-002	7.19168E-001	3.57980E+000	9	...........
	48	0.653333	7.27424E-001	1.00976E-004	0.00000E+000	7.34525E-005	5.99601E-002	7.27724E-001	3.57980E+000	9	...........
	49	0.666667	7.35790E-001	1.00684E-004	0.00000E+000	7.40826E-005	5.99601E-002	7.36116E-001	3.57980E+000	9	...........
	50	0.68	7.44051E-001	1.00073E-004	0.00000E+000	7.44593E-005	5.99601E-002	7.44366E-001	3.57980E+000	9	...........
	51	0.693333	7.52139E-001	1.01014E-004	0.00000E+000	7.59764E-005	5.99601E-002	7.52450E-001	3.57980E+000	9	...........
	52	0.706667	7.60060E-001	1.00195E-004	0.00000E+000	7.61540E-005	5.99601E-002	7.60384E-001	3.57980E+000	9	...........
	53	0.72	7.67849E-001	1.02396E-004	0.00000E+000	7.86249E-005	5.99601E-002	7.68182E-001	3.58019E+000	9	...........
	54	0.733333	7.75472E-001	1.00990E-004	0.00000E+000	7.83147E-005	5.99601E-002	7.75774E-001	3.58020E+000	9	...........
	55	0.746667	7.82957E-001	1.00664E-004	0.00000E+000	7.88153E-005	5.99601E-002	7.83287E-001	3.58020E+000	9	...........
	56	0.76	7.90340E-001	1.00683E-004	0.00000E+000	7.95741E-005	5.99601E-002	7.90656E-001	3.58020E+000	9	...........
	57	0.773333	7.97574E-001	1.01140E-004	0.00000E+000	8.06664E-005	5.99601E-002	7.97911E-001	3.58020E+000	9	...........
	58	0.786667	8.04685E-001	1.01534E-004	0.00000E+000	8.17026E-005	5.99601E-002	8.05015E-001	3.58020E+000	9	...........
	59	0.8	8.11634E-001	1.01294E-004	0.00000E+000	8.22136E-005	5.99601E-002	8.11982E-001	3.58020E+000	9	...........
	60	0.813333	8.18501E-001	1.00022E-004	0.00000E+000	8.18680E-005	5.99601E-002	8.18837E-001	3.58020E+000	9	...........
	61	0.826667	8.25248E-001	1.00720E-004	0.00000E+000	8.31188E-005	5.99601E-002	8.25563E-001	3.58020E+000	9	...........
	62	0.84	8.31866E-001	1.00602E-004	0.00000E+000	8.36875E-005	5.99601E-002	8.32175E-001	3.58020E+000	9	...........
	63	0.853333	8.38353E-001	9.94707E-005	0.00000E+000	8.33915E-005	5.99601E-002	8.38698E-001	3.58020E+000	9	...........
	64	0.866667	8.44766E-001	1.00811E-004	0.00000E+000	8.51613E-005	5.99601E-002	8.45107E-001	3.58020E+000	9	...........
	65	0.88	8.51074E-001	1.00291E-004	0.00000E+000	8.53547E-005	5.99601E-002	8.51417E-001	3.58020E+000	9	...........
	66	0.893333	8.57253E-001	1.00370E-004	0.00000E+000	8.60423E-005	5.99601E-002	8.57602E-001	3.58020E+000	9	...........
	67	0.906667	8.63325E-001	1.00264E-004	0.00000E+000	8.65601E-005	5.99601E-002	8.63689E-001	3.58020E+000	9	...........
	68	0.92	8.69329E-001	1.01512E-004	0.00000E+000	8.82471E-005	5.99601E-002	8.69687E-001	3.58020E+000	9	...........
	69	0.933333	8.75192E-001	1.01122E-004	0.00000E+000	8.85012E-005	5.99601E-002	8.75566E-001	3.58020E+000	9	...........
	70	0.946667	8.80979E-001	1.00858E-004	0.00000E+000	8.88542E-005	5.99601E-002	8.81349E-001	3.58020E+000	9	...........
	71	0.96	8.86658E-001	1.00908E-004	0.00000E+000	8.94713E-005	5.99601E-002	8.87040E-001	3.58020E+000	9	...........
	72	0.97333	8.92259E-001	1.00677E-004	0.00000E+000	8.98301E-005	5.99601E-002	8.92623E-001	3.58020E+000	9	...........
	73	0.98667	8.97758E-001	1.00602E-004	0.00000E+000	9.03164E-005	5.99601E-002	8.98123E-001	3.58020E+000	9	...........
	74	1	9.03145E-001	1.02119E-004	0.00000E+000	9.22284E-005	5.99601E-002	9.03530E-001	3.58020E+000	9	...........
	75	1.01333	9.08453E-001	1.00166E-004	0.00000E+000	9.09958E-005	5.99601E-002	9.08840E-001	3.58020E+000	9	...........
	76	1.02667	9.13675E-001	1.01103E-004	0.00000E+000	9.23756E-005	5.99601E-002	9.14057E-001	3.58020E+000	9	...........
	77	1.04	9.18802E-001	1.00934E-004	0.00000E+000	9.27388E-005	5.99601E-002	9.19188E-001	3.58020E+000	9	...........
	78	1.05333	9.23897E-001	1.00715E-004	0.00000E+000	9.30499E-005	5.99601E-002	9.24249E-001	3.58020E+000	9	...........
	79	1.06667	9.28851E-001	1.01087E-004	0.00000E+000	9.38944E-005	5.99601E-002	9.29170E-001	3.58020E+000	9	...........
	80	1.08	9.33709E-001	1.01186E-004	0.00000E+000	9.44779E-005	5.99601E-002	9.34049E-001	3.58020E+000	9	...........
	81	1.09333	9.38472E-001	1.01025E-004	0.00000E+000	9.48093E-005	5.99601E-002	9.38855E-001	3.58020E+000	9	...........
	82	1.10667	9.43138E-001	1.01363E-004	0.00000E+000	9.55990E-005	5.99601E-002	9.43513E-001	3.58020E+000	9	...........
	83	1.12	9.47775E-001	9.99666E-005	0.00000E+000	9.47459E-005	5.99601E-002	9.48141E-001	3.58020E+000	9	...........
	84	1.13333	9.52307E-001	1.01363E-004	0.00000E+000	9.65284E-005	5.99601E-002	9.52648E-001	3.58020E+000	9	...........
	85	1.14667	9.56721E-001	1.00564E-004	0.00000E+000	9.62113E-005	5.99601E-002	9.57084E-001	3.58020E+000	9	...........
	86	1.16	9.61058E-001	1.00333E-004	0.00000E+000	9.64261E-005	5.99601E-002	9.61450E-001	3.58020E+000	9	...........
	87	1.17333	9.65336E-001	1.00961E-004	0.00000E+000	9.74608E-005	5.99601E-002	9.65701E-001	3.58020E+000	9	...........
	88	1.18667	9.69515E-001	1.01995E-004	0.00000E+000	9.88858E-005	5.99601E-002	9.69925E-001	3.58020E+000	9	...........
	89	1.2	9.73670E-001	1.00236E-004	0.00000E+000	9.75972E-005	5.99601E-002	9.74051E-001	3.58020E+000	9	...........
	90	1.21333	9.77687E-001	1.00168E-004	0.00000E+000	9.79326E-005	5.99601E-002	9.78050E-001	3.58020E+000	9	...........
	91	1.22667	9.81629E-001	1.00773E-004	0.00000E+000	9.89217E-005	5.99601E-002	9.82018E-001	3.58020E+000	9	...........
	92	1.24	9.85497E-001	1.00861E-004	0.00000E+000	9.93977E-005	5.99601E-002	9.85881E-001	3.58020E+000	9	...........
	93	1.25333	9.89301E-001	1.00403E-004	0.00000E+000	9.93289E-005	5.99601E-002	9.89686E-001	3.58020E+000	9	...........
	94	1.26667	9.92983E-001	1.00951E-004	0.00000E+000	1.00243E-004	5.99601E-002	9.93385E-001	3.58020E+000	9	...........
	95	1.28	9.96646E-001	1.00152E-004	0.00000E+000	9.98161E-005	5.99601E-002	9.97030E-001	3.58020E+000	9	...........
	96	1.28667	9.99333E-001	1.00654E-004	0.00000E+000	1.00587E-004	5.99601E-002	9.99737E-001	3.58020E+000	9	...........
STARTTIMEOFFSET	QUANT	421.3482	Start Time Offset (s)
