EXPLAIN
TAG	PWR800_CHARGE
TITLE	LABEL	PWR Cyclic Charge Discharge (Cell) - Charge Step	Test &Identifier
DATE	LABEL	13-7-2017	Date
TIME	LABEL	15:47:37	Time
NOTES	NOTES	2	&Notes...
	supercap test cell
	6M KOH
PSTAT	PSTAT	IFC5000-01520	Potentiostat
CAPACITY	QUANT	1.00000E-003	Capacity (A-hr)
CELLTYPE	SELECTOR	1	&Cell Type
WORKINGCONNECTION	SELECTOR	0	&Working Lead
MAXCHARGETIME	VARIABLEANDUNITS	1.00000E+002	s	1.00000E+002	second(s)	Max &Charge Time
CHARGECURRENT	QUANT	1.00000E-004	&Charge Current (A) 
VOLTAGEFINISH	TWOPARAM	F	1.00000E-003	3.60000E+003	&Voltage Finish	 I (A) < 	Max Time(s)
SAMPLETIME	QUANT	1.00000E-002	Sa&mple Period (s)
CHARGESTOPAT1	MULTIPARAM	4	1.00000E+000	Charge Stop At &1	Voltage > Limit	V
CHARGESTOPAT2	MULTIPARAM	0	0.00000E+000	Charge Stop At &2	None	N/A
AESBHCSELECTOR	TOGGLE	F	Save Both Half Cells
IRCOMP	TOGGLE	F	IR &Measure
EOC	QUANT	0	Open Circuit (V)
SEQUENCER	TOGGLE	TRUE	Run as Sequence
PSTATMODEL	IQUANT	53	Pstat Model
PSTATSECTION	LABEL	IFC5000-01520	Pstat Section
PSTATSERIALNO	LABEL	01520	Pstat Serial Number
CTRLMODE	IQUANT	0	Control Mode
ELECTROMETER	IQUANT	1	RE=0 or CS=1
IESTAB	IQUANT	0	I/E Stability
CASPEED	IQUANT	4	Control Amp Speed
CONVENTION	IQUANT	1	Current Convention
ICHRANGE	IQUANT	2	Ich Range
ICHRANGEMODE	TOGGLE	T	Ich Auto Range
ICHOFFSETENABLE	TOGGLE	F	Ich Offset Enable
ICHOFFSET	QUANT	0	Ich Offset (V)
ICHFILTER	IQUANT	1	Ich Filter
VCHRANGE	IQUANT	2	Vch Range
VCHRANGEMODE	TOGGLE	T	Vch Auto Range
VCHOFFSETENABLE	TOGGLE	F	Vch Offset Enable
VCHOFFSET	QUANT	0	Vch Offset (V)
VCHFILTER	IQUANT	1	Vch Filter
IERANGELOWERLIMIT	IQUANT	9	I/E Range Lower Limit
IERANGEMODE	TOGGLE	F	I/E AutoRange
IERANGE	IQUANT	9	I/E Range
ACHSELECT	IQUANT	1	Ach Select
ACHRANGE	IQUANT	2	Ach Range
ACHOFFSETENABLE	TOGGLE	F	Ach Offset Enable
ACHOFFSET	QUANT	0	Ach Offset (V)
ACHFILTER	IQUANT	1	Ach Filter
CABLEID	IQUANT	14	Cable ID
DCCALDATE	LABEL	5-7-2017	DC Calibration Date
ACCALDATE	LABEL	12/3/2015	AC Calibration Date
FRAMEWORKVERSION	QUANT	7.01	Framework Version
INSTRUMENTVERSION	LABEL	4.00	Instrument Version
CURVE	TABLE	90
	Pt	T	Vf	Im	Vu	Pwr	Sig	Ach	Temp	IERange	Over
	#	s	V	A	V	W	V	V	deg C	#	bits
	0	0.013333	1.33922E-001	1.01635E-004	0.00000E+000	1.36111E-005	5.99601E-002	1.33968E-001	3.58000E+000	9	...........
	1	0.026667	1.49196E-001	1.01007E-004	0.00000E+000	1.50699E-005	5.99601E-002	1.49213E-001	3.58000E+000	9	...........
	2	0.04	1.64023E-001	1.00326E-004	0.00000E+000	1.64558E-005	5.99601E-002	1.64053E-001	3.58000E+000	9	...........
	3	0.053333	1.78595E-001	1.01396E-004	0.00000E+000	1.81089E-005	5.99601E-002	1.78625E-001	3.58000E+000	9	...........
	4	0.066667	1.92977E-001	1.01370E-004	0.00000E+000	1.95621E-005	5.99601E-002	1.93004E-001	3.58000E+000	9	...........
	5	0.08	2.07214E-001	1.00107E-004	0.00000E+000	2.07437E-005	5.99601E-002	2.07251E-001	3.58000E+000	9	...........
	6	0.093333	2.21357E-001	1.00348E-004	0.00000E+000	2.22127E-005	5.99601E-002	2.21392E-001	3.58000E+000	9	...........
	7	0.106667	2.35431E-001	1.01472E-004	0.00000E+000	2.38897E-005	5.99601E-002	2.35470E-001	3.58000E+000	9	...........
	8	0.12	2.49451E-001	1.01278E-004	0.00000E+000	2.52640E-005	5.99601E-002	2.49501E-001	3.58000E+000	9	...........
	9	0.133333	2.63454E-001	1.01408E-004	0.00000E+000	2.67163E-005	5.99601E-002	2.63505E-001	3.58000E+000	9	...........
	10	0.146667	2.77445E-001	1.01679E-004	0.00000E+000	2.82104E-005	5.99601E-002	2.77495E-001	3.58000E+000	9	...........
	11	0.16	2.91442E-001	1.00922E-004	0.00000E+000	2.94129E-005	5.99601E-002	2.91495E-001	3.58000E+000	9	...........
	12	0.173333	3.05450E-001	1.00346E-004	0.00000E+000	3.06506E-005	5.99601E-002	3.05507E-001	3.58000E+000	9	...........
	13	0.186667	3.19486E-001	1.01162E-004	0.00000E+000	3.23197E-005	5.99601E-002	3.19544E-001	3.58000E+000	9	...........
	14	0.2	3.33545E-001	1.00999E-004	0.00000E+000	3.36877E-005	5.99601E-002	3.33605E-001	3.58000E+000	9	...........
	15	0.213333	3.47629E-001	1.00452E-004	0.00000E+000	3.49201E-005	5.99601E-002	3.47700E-001	3.58000E+000	9	...........
	16	0.226667	3.61742E-001	1.01517E-004	0.00000E+000	3.67229E-005	5.99601E-002	3.61810E-001	3.58000E+000	9	...........
	17	0.24	3.75877E-001	1.01723E-004	0.00000E+000	3.82354E-005	5.99601E-002	3.75946E-001	3.57986E+000	9	...........
	18	0.253333	3.90012E-001	1.00553E-004	0.00000E+000	3.92169E-005	5.99601E-002	3.90086E-001	3.57890E+000	9	...........
	19	0.266667	4.04155E-001	1.01390E-004	0.00000E+000	4.09772E-005	5.99601E-002	4.04232E-001	3.57890E+000	9	...........
	20	0.28	4.18268E-001	9.97811E-005	0.00000E+000	4.17353E-005	5.99601E-002	4.18353E-001	3.57890E+000	9	...........
	21	0.293333	4.32355E-001	1.01707E-004	0.00000E+000	4.39733E-005	5.99601E-002	4.32434E-001	3.57890E+000	9	...........
	22	0.306667	4.46373E-001	1.00545E-004	0.00000E+000	4.48805E-005	5.99601E-002	4.46461E-001	3.57890E+000	9	...........
	23	0.32	4.60308E-001	1.01192E-004	0.00000E+000	4.65794E-005	5.99601E-002	4.60395E-001	3.57890E+000	9	...........
	24	0.333333	4.74145E-001	1.00846E-004	0.00000E+000	4.78156E-005	5.99601E-002	4.74238E-001	3.57890E+000	9	...........
	25	0.346667	4.87852E-001	1.00995E-004	0.00000E+000	4.92706E-005	5.99601E-002	4.87955E-001	3.57890E+000	9	...........
	26	0.36	5.01416E-001	1.01302E-004	0.00000E+000	5.07946E-005	5.99601E-002	5.01519E-001	3.57890E+000	9	...........
	27	0.373333	5.14808E-001	1.00950E-004	0.00000E+000	5.19700E-005	5.99601E-002	5.14914E-001	3.57890E+000	9	...........
	28	0.386667	5.28023E-001	1.01385E-004	0.00000E+000	5.35334E-005	5.99601E-002	5.28132E-001	3.57890E+000	9	...........
	29	0.4	5.40674E-001	1.01535E-004	0.00000E+000	5.48971E-005	5.99601E-002	5.40944E-001	3.57890E+000	9	...........
	30	0.413333	5.53486E-001	1.00367E-004	0.00000E+000	5.55515E-005	5.99601E-002	5.53751E-001	3.57890E+000	9	...........
	31	0.426667	5.66083E-001	1.00227E-004	0.00000E+000	5.67368E-005	5.99601E-002	5.66360E-001	3.57890E+000	9	...........
	32	0.44	5.78449E-001	1.01362E-004	0.00000E+000	5.86326E-005	5.99601E-002	5.78733E-001	3.57890E+000	9	...........
	33	0.453333	5.90601E-001	1.00333E-004	0.00000E+000	5.92570E-005	5.99601E-002	5.90883E-001	3.57890E+000	9	...........
	34	0.466667	6.02507E-001	1.01646E-004	0.00000E+000	6.12424E-005	5.99601E-002	6.02795E-001	3.57890E+000	9	...........
	35	0.48	6.14183E-001	1.00681E-004	0.00000E+000	6.18368E-005	5.99601E-002	6.14474E-001	3.57890E+000	9	...........
	36	0.493333	6.25668E-001	1.00681E-004	0.00000E+000	6.29931E-005	5.99601E-002	6.25913E-001	3.57890E+000	9	...........
	37	0.506667	6.36873E-001	1.01264E-004	0.00000E+000	6.44921E-005	5.99601E-002	6.37136E-001	3.57890E+000	9	...........
	38	0.52	6.47892E-001	1.00912E-004	0.00000E+000	6.53798E-005	5.99601E-002	6.48177E-001	3.57890E+000	9	...........
	39	0.533333	6.58680E-001	1.00301E-004	0.00000E+000	6.60663E-005	5.99601E-002	6.58927E-001	3.57890E+000	9	...........
	40	0.546667	6.69229E-001	1.00320E-004	0.00000E+000	6.71369E-005	5.99601E-002	6.69528E-001	3.57890E+000	9	...........
	41	0.56	6.79581E-001	1.01475E-004	0.00000E+000	6.89607E-005	5.99601E-002	6.79877E-001	3.57890E+000	9	...........
	42	0.573333	6.89698E-001	1.00249E-004	0.00000E+000	6.91414E-005	5.99601E-002	6.89997E-001	3.57890E+000	9	...........
	43	0.586667	6.99651E-001	1.00508E-004	0.00000E+000	7.03208E-005	5.99601E-002	6.99950E-001	3.57890E+000	9	...........
	44	0.6	7.09376E-001	1.01488E-004	0.00000E+000	7.19930E-005	5.99601E-002	7.09679E-001	3.57890E+000	9	...........
	45	0.613333	7.18947E-001	1.01477E-004	0.00000E+000	7.29568E-005	5.99601E-002	7.19210E-001	3.57890E+000	9	...........
	46	0.626667	7.28316E-001	1.00783E-004	0.00000E+000	7.34021E-005	5.99601E-002	7.28584E-001	3.57890E+000	9	...........
	47	0.64	7.37449E-001	1.01638E-004	0.00000E+000	7.49527E-005	5.99601E-002	7.37738E-001	3.57890E+000	9	...........
	48	0.653333	7.46479E-001	1.00904E-004	0.00000E+000	7.53229E-005	5.99601E-002	7.46754E-001	3.57890E+000	9	...........
	49	0.666667	7.55293E-001	1.00842E-004	0.00000E+000	7.61651E-005	5.99601E-002	7.55561E-001	3.57890E+000	9	...........
	50	0.68	7.63924E-001	1.00918E-004	0.00000E+000	7.70935E-005	5.99601E-002	7.64201E-001	3.57890E+000	9	...........
	51	0.693333	7.72406E-001	1.00485E-004	0.00000E+000	7.76155E-005	5.99601E-002	7.72684E-001	3.57890E+000	9	...........
	52	0.706667	7.80715E-001	1.01592E-004	0.00000E+000	7.93143E-005	5.99601E-002	7.81009E-001	3.57890E+000	9	...........
	53	0.72	7.88864E-001	1.01128E-004	0.00000E+000	7.97765E-005	5.99601E-002	7.89150E-001	3.57890E+000	9	...........
	54	0.733333	7.96890E-001	1.00942E-004	0.00000E+000	8.04395E-005	5.99601E-002	7.97174E-001	3.57890E+000	9	...........
	55	0.746667	8.04699E-001	9.98822E-005	0.00000E+000	8.03751E-005	5.99601E-002	8.05013E-001	3.57890E+000	9	...........
	56	0.76	8.12402E-001	1.00966E-004	0.00000E+000	8.20247E-005	5.99601E-002	8.12733E-001	3.57890E+000	9	...........
	57	0.773333	8.19962E-001	1.01281E-004	0.00000E+000	8.30469E-005	5.99601E-002	8.20270E-001	3.57890E+000	9	...........
	58	0.786667	8.27352E-001	1.00812E-004	0.00000E+000	8.34067E-005	5.99601E-002	8.27703E-001	3.57890E+000	9	...........
	59	0.8	8.34627E-001	1.00670E-004	0.00000E+000	8.40218E-005	5.99601E-002	8.34975E-001	3.57890E+000	9	...........
	60	0.813333	8.41785E-001	1.00726E-004	0.00000E+000	8.47897E-005	5.99601E-002	8.42106E-001	3.57890E+000	9	...........
	61	0.826667	8.48806E-001	1.00563E-004	0.00000E+000	8.53581E-005	5.99601E-002	8.49133E-001	3.57890E+000	9	...........
	62	0.84	8.55713E-001	1.00560E-004	0.00000E+000	8.60509E-005	5.99601E-002	8.56026E-001	3.57890E+000	9	...........
	63	0.853333	8.62473E-001	1.00157E-004	0.00000E+000	8.63829E-005	5.99601E-002	8.62817E-001	3.57890E+000	9	...........
	64	0.866667	8.69153E-001	1.01195E-004	0.00000E+000	8.79539E-005	5.99601E-002	8.69472E-001	3.57890E+000	9	...........
	65	0.88	8.75664E-001	9.97561E-005	0.00000E+000	8.73528E-005	5.99601E-002	8.76028E-001	3.57890E+000	9	...........
	66	0.893333	8.82086E-001	1.00793E-004	0.00000E+000	8.89079E-005	5.99601E-002	8.82424E-001	3.57890E+000	9	...........
	67	0.906667	8.88385E-001	1.01065E-004	0.00000E+000	8.97844E-005	5.99601E-002	8.88722E-001	3.57890E+000	9	...........
	68	0.92	8.94548E-001	1.00796E-004	0.00000E+000	9.01668E-005	5.99601E-002	8.94909E-001	3.57890E+000	9	...........
	69	0.933333	9.00633E-001	1.01439E-004	0.00000E+000	9.13591E-005	5.99601E-002	9.00980E-001	3.57890E+000	9	...........
	70	0.946667	9.06563E-001	1.00640E-004	0.00000E+000	9.12362E-005	5.99601E-002	9.06937E-001	3.57890E+000	9	...........
	71	0.96	9.12440E-001	1.01268E-004	0.00000E+000	9.24009E-005	5.99601E-002	9.12792E-001	3.57890E+000	9	...........
	72	0.97333	9.18171E-001	1.00863E-004	0.00000E+000	9.26091E-005	5.99601E-002	9.18534E-001	3.57890E+000	9	...........
	73	0.98667	9.23874E-001	1.01206E-004	0.00000E+000	9.35020E-005	5.99601E-002	9.24185E-001	3.57890E+000	9	...........
	74	1	9.29382E-001	1.01210E-004	0.00000E+000	9.40624E-005	5.99601E-002	9.29709E-001	3.57890E+000	9	...........
	75	1.01333	9.34772E-001	1.00436E-004	0.00000E+000	9.38852E-005	5.99601E-002	9.35148E-001	3.57890E+000	9	...........
	76	1.02667	9.40084E-001	1.01464E-004	0.00000E+000	9.53845E-005	5.99601E-002	9.40435E-001	3.57890E+000	9	...........
	77	1.04	9.45291E-001	1.01634E-004	0.00000E+000	9.60733E-005	5.99601E-002	9.45665E-001	3.57890E+000	9	...........
	78	1.05333	9.50421E-001	1.00722E-004	0.00000E+000	9.57283E-005	5.99601E-002	9.50805E-001	3.57890E+000	9	...........
	79	1.06667	9.55422E-001	1.00454E-004	0.00000E+000	9.59762E-005	5.99601E-002	9.55800E-001	3.57890E+000	9	...........
	80	1.08	9.60336E-001	1.00961E-004	0.00000E+000	9.69561E-005	5.99601E-002	9.60714E-001	3.57890E+000	9	...........
	81	1.09333	9.65136E-001	1.00240E-004	0.00000E+000	9.67448E-005	5.99601E-002	9.65510E-001	3.57890E+000	9	...........
	82	1.10667	9.69829E-001	1.00623E-004	0.00000E+000	9.75870E-005	5.99601E-002	9.70243E-001	3.57890E+000	9	...........
	83	1.12	9.74505E-001	1.01256E-004	0.00000E+000	9.86749E-005	5.99601E-002	9.74864E-001	3.57890E+000	9	...........
	84	1.13333	9.79010E-001	1.01269E-004	0.00000E+000	9.91433E-005	5.99601E-002	9.79367E-001	3.57890E+000	9	...........
	85	1.14667	9.83429E-001	1.01650E-004	0.00000E+000	9.99658E-005	5.99601E-002	9.83775E-001	3.57890E+000	9	...........
	86	1.16	9.87765E-001	1.00736E-004	0.00000E+000	9.95030E-005	5.99601E-002	9.88127E-001	3.57890E+000	9	...........
	87	1.17333	9.91982E-001	1.00604E-004	0.00000E+000	9.97976E-005	5.99601E-002	9.92347E-001	3.57890E+000	9	...........
	88	1.18667	9.96142E-001	1.01969E-004	0.00000E+000	1.01576E-004	5.99601E-002	9.96500E-001	3.57890E+000	9	...........
	89	1.195	9.99436E-001	1.00531E-004	0.00000E+000	1.00475E-004	5.99601E-002	9.99803E-001	3.57890E+000	9	...........
STARTTIMEOFFSET	QUANT	2059.917	Start Time Offset (s)
