EXPLAIN
TAG	PWR800_CHARGE
TITLE	LABEL	PWR Cyclic Charge Discharge (Cell) - Charge Step	Test &Identifier
DATE	LABEL	13-7-2017	Date
TIME	LABEL	15:11:58	Time
NOTES	NOTES	2	&Notes...
	supercap test cell
	6M KOH
PSTAT	PSTAT	IFC5000-01520	Potentiostat
CAPACITY	QUANT	1.00000E-003	Capacity (A-hr)
CELLTYPE	SELECTOR	1	&Cell Type
WORKINGCONNECTION	SELECTOR	0	&Working Lead
MAXCHARGETIME	VARIABLEANDUNITS	1.00000E+002	s	1.00000E+002	second(s)	Max &Charge Time
CHARGECURRENT	QUANT	1.00000E-004	&Charge Current (A) 
VOLTAGEFINISH	TWOPARAM	F	1.00000E-003	3.60000E+003	&Voltage Finish	 I (A) < 	Max Time(s)
SAMPLETIME	QUANT	1.00000E-002	Sa&mple Period (s)
CHARGESTOPAT1	MULTIPARAM	4	1.00000E+000	Charge Stop At &1	Voltage > Limit	V
CHARGESTOPAT2	MULTIPARAM	0	0.00000E+000	Charge Stop At &2	None	N/A
AESBHCSELECTOR	TOGGLE	F	Save Both Half Cells
IRCOMP	TOGGLE	F	IR &Measure
EOC	QUANT	0	Open Circuit (V)
SEQUENCER	TOGGLE	TRUE	Run as Sequence
PSTATMODEL	IQUANT	53	Pstat Model
PSTATSECTION	LABEL	IFC5000-01520	Pstat Section
PSTATSERIALNO	LABEL	01520	Pstat Serial Number
CTRLMODE	IQUANT	0	Control Mode
ELECTROMETER	IQUANT	1	RE=0 or CS=1
IESTAB	IQUANT	0	I/E Stability
CASPEED	IQUANT	4	Control Amp Speed
CONVENTION	IQUANT	1	Current Convention
ICHRANGE	IQUANT	2	Ich Range
ICHRANGEMODE	TOGGLE	T	Ich Auto Range
ICHOFFSETENABLE	TOGGLE	F	Ich Offset Enable
ICHOFFSET	QUANT	0	Ich Offset (V)
ICHFILTER	IQUANT	1	Ich Filter
VCHRANGE	IQUANT	2	Vch Range
VCHRANGEMODE	TOGGLE	T	Vch Auto Range
VCHOFFSETENABLE	TOGGLE	F	Vch Offset Enable
VCHOFFSET	QUANT	0	Vch Offset (V)
VCHFILTER	IQUANT	1	Vch Filter
IERANGELOWERLIMIT	IQUANT	9	I/E Range Lower Limit
IERANGEMODE	TOGGLE	F	I/E AutoRange
IERANGE	IQUANT	9	I/E Range
ACHSELECT	IQUANT	1	Ach Select
ACHRANGE	IQUANT	2	Ach Range
ACHOFFSETENABLE	TOGGLE	F	Ach Offset Enable
ACHOFFSET	QUANT	0	Ach Offset (V)
ACHFILTER	IQUANT	1	Ach Filter
CABLEID	IQUANT	14	Cable ID
DCCALDATE	LABEL	5-7-2017	DC Calibration Date
ACCALDATE	LABEL	12/3/2015	AC Calibration Date
FRAMEWORKVERSION	QUANT	7.01	Framework Version
INSTRUMENTVERSION	LABEL	4.00	Instrument Version
CURVE	TABLE	97
	Pt	T	Vf	Im	Vu	Pwr	Sig	Ach	Temp	IERange	Over
	#	s	V	A	V	W	V	V	deg C	#	bits
	0	0.013333	1.32306E-001	1.00804E-004	0.00000E+000	1.33370E-005	5.99601E-002	1.32344E-001	3.57870E+000	9	...........
	1	0.026667	1.47545E-001	1.00751E-004	0.00000E+000	1.48653E-005	5.99601E-002	1.47567E-001	3.57870E+000	9	...........
	2	0.04	1.62337E-001	1.01146E-004	0.00000E+000	1.64197E-005	5.99601E-002	1.62362E-001	3.57870E+000	9	...........
	3	0.053333	1.76856E-001	1.00092E-004	0.00000E+000	1.77018E-005	5.99601E-002	1.76884E-001	3.57870E+000	9	...........
	4	0.066667	1.91179E-001	1.00376E-004	0.00000E+000	1.91897E-005	5.99601E-002	1.91209E-001	3.57870E+000	9	...........
	5	0.08	2.05359E-001	1.00703E-004	0.00000E+000	2.06803E-005	5.99601E-002	2.05391E-001	3.57870E+000	9	...........
	6	0.093333	2.19431E-001	1.01089E-004	0.00000E+000	2.21820E-005	5.99601E-002	2.19469E-001	3.57870E+000	9	...........
	7	0.106667	2.33425E-001	1.00093E-004	0.00000E+000	2.33642E-005	5.99601E-002	2.33465E-001	3.57870E+000	9	...........
	8	0.12	2.47364E-001	1.00510E-004	0.00000E+000	2.48627E-005	5.99601E-002	2.47406E-001	3.57870E+000	9	...........
	9	0.133333	2.61262E-001	1.01127E-004	0.00000E+000	2.64207E-005	5.99601E-002	2.61317E-001	3.57870E+000	9	...........
	10	0.146667	2.75147E-001	1.01079E-004	0.00000E+000	2.78117E-005	5.99601E-002	2.75201E-001	3.57870E+000	9	...........
	11	0.16	2.89011E-001	1.01707E-004	0.00000E+000	2.93943E-005	5.99601E-002	2.89063E-001	3.57870E+000	9	...........
	12	0.173333	3.02873E-001	1.00488E-004	0.00000E+000	3.04349E-005	5.99601E-002	3.02924E-001	3.57870E+000	9	...........
	13	0.186667	3.16738E-001	1.00454E-004	0.00000E+000	3.18177E-005	5.99601E-002	3.16796E-001	3.57870E+000	9	...........
	14	0.2	3.30597E-001	1.01348E-004	0.00000E+000	3.35054E-005	5.99601E-002	3.30658E-001	3.57870E+000	9	...........
	15	0.213333	3.44460E-001	1.00449E-004	0.00000E+000	3.46007E-005	5.99601E-002	3.44525E-001	3.57870E+000	9	...........
	16	0.226667	3.58316E-001	1.00913E-004	0.00000E+000	3.61586E-005	5.99601E-002	3.58379E-001	3.57870E+000	9	...........
	17	0.24	3.72155E-001	1.01056E-004	0.00000E+000	3.76087E-005	5.99601E-002	3.72226E-001	3.57870E+000	9	...........
	18	0.253333	3.85976E-001	1.01664E-004	0.00000E+000	3.92398E-005	5.99601E-002	3.86049E-001	3.57870E+000	9	...........
	19	0.266667	3.99752E-001	1.01421E-004	0.00000E+000	4.05433E-005	5.99601E-002	3.99829E-001	3.57870E+000	9	...........
	20	0.28	4.13469E-001	1.00319E-004	0.00000E+000	4.14787E-005	5.99601E-002	4.13560E-001	3.57870E+000	9	...........
	21	0.293333	4.27123E-001	1.01146E-004	0.00000E+000	4.32018E-005	5.99601E-002	4.27213E-001	3.57870E+000	9	...........
	22	0.306667	4.40683E-001	1.01080E-004	0.00000E+000	4.45444E-005	5.99601E-002	4.40773E-001	3.57870E+000	9	...........
	23	0.32	4.54135E-001	1.00630E-004	0.00000E+000	4.56998E-005	5.99601E-002	4.54226E-001	3.57870E+000	9	...........
	24	0.333333	4.67452E-001	1.00498E-004	0.00000E+000	4.69780E-005	5.99601E-002	4.67546E-001	3.57870E+000	9	...........
	25	0.346667	4.80628E-001	1.01760E-004	0.00000E+000	4.89085E-005	5.99601E-002	4.80724E-001	3.57870E+000	9	...........
	26	0.36	4.93639E-001	1.00816E-004	0.00000E+000	4.97666E-005	5.99601E-002	4.93741E-001	3.57870E+000	9	...........
	27	0.373333	5.06470E-001	1.00901E-004	0.00000E+000	5.11034E-005	5.99601E-002	5.06577E-001	3.57870E+000	9	...........
	28	0.386667	5.19108E-001	1.01368E-004	0.00000E+000	5.26209E-005	5.99601E-002	5.19220E-001	3.57870E+000	9	...........
	29	0.4	5.31426E-001	1.00357E-004	0.00000E+000	5.33325E-005	5.99601E-002	5.31599E-001	3.57870E+000	9	...........
	30	0.413333	5.43387E-001	1.01290E-004	0.00000E+000	5.50396E-005	5.99601E-002	5.43687E-001	3.57870E+000	9	...........
	31	0.426667	5.55383E-001	9.97738E-005	0.00000E+000	5.54127E-005	5.99601E-002	5.55680E-001	3.57870E+000	9	...........
	32	0.44	5.67212E-001	1.01253E-004	0.00000E+000	5.74321E-005	5.99601E-002	5.67485E-001	3.57870E+000	9	...........
	33	0.453333	5.78740E-001	1.00449E-004	0.00000E+000	5.81339E-005	5.99601E-002	5.79032E-001	3.57870E+000	9	...........
	34	0.466667	5.90093E-001	1.01073E-004	0.00000E+000	5.96425E-005	5.99601E-002	5.90390E-001	3.57874E+000	9	...........
	35	0.48	6.01227E-001	1.01246E-004	0.00000E+000	6.08719E-005	5.99601E-002	6.01513E-001	3.57900E+000	9	...........
	36	0.493333	6.12145E-001	1.01626E-004	0.00000E+000	6.22101E-005	5.99601E-002	6.12428E-001	3.57900E+000	9	...........
	37	0.506667	6.22854E-001	1.00799E-004	0.00000E+000	6.27831E-005	5.99601E-002	6.23142E-001	3.57900E+000	9	...........
	38	0.52	6.33321E-001	1.00424E-004	0.00000E+000	6.36006E-005	5.99601E-002	6.33608E-001	3.57900E+000	9	...........
	39	0.533333	6.43618E-001	1.00974E-004	0.00000E+000	6.49887E-005	5.99601E-002	6.43896E-001	3.57900E+000	9	...........
	40	0.546667	6.53675E-001	1.00719E-004	0.00000E+000	6.58374E-005	5.99601E-002	6.53914E-001	3.57900E+000	9	...........
	41	0.56	6.63549E-001	1.02318E-004	0.00000E+000	6.78931E-005	5.99601E-002	6.63804E-001	3.57900E+000	9	...........
	42	0.573333	6.73221E-001	1.01029E-004	0.00000E+000	6.80151E-005	5.99601E-002	6.73478E-001	3.57900E+000	9	...........
	43	0.586667	6.82693E-001	1.01261E-004	0.00000E+000	6.91299E-005	5.99601E-002	6.82962E-001	3.57900E+000	9	...........
	44	0.6	6.91968E-001	1.00372E-004	0.00000E+000	6.94542E-005	5.99601E-002	6.92255E-001	3.57900E+000	9	...........
	45	0.613333	7.01088E-001	1.01270E-004	0.00000E+000	7.09992E-005	5.99601E-002	7.01390E-001	3.57900E+000	9	...........
	46	0.626667	7.09995E-001	1.00484E-004	0.00000E+000	7.13434E-005	5.99601E-002	7.10314E-001	3.57900E+000	9	...........
	47	0.64	7.18801E-001	1.01083E-004	0.00000E+000	7.26589E-005	5.99601E-002	7.19086E-001	3.57900E+000	9	...........
	48	0.653333	7.27407E-001	1.01144E-004	0.00000E+000	7.35727E-005	5.99601E-002	7.27675E-001	3.57900E+000	9	...........
	49	0.666667	7.35793E-001	1.01345E-004	0.00000E+000	7.45690E-005	5.99601E-002	7.36100E-001	3.57900E+000	9	...........
	50	0.68	7.44068E-001	1.00522E-004	0.00000E+000	7.47951E-005	5.99601E-002	7.44356E-001	3.57900E+000	9	...........
	51	0.693333	7.52171E-001	1.01163E-004	0.00000E+000	7.60916E-005	5.99601E-002	7.52461E-001	3.57900E+000	9	...........
	52	0.706667	7.60106E-001	1.01483E-004	0.00000E+000	7.71375E-005	5.99601E-002	7.60417E-001	3.57900E+000	9	...........
	53	0.72	7.67923E-001	1.00914E-004	0.00000E+000	7.74939E-005	5.99601E-002	7.68232E-001	3.57900E+000	9	...........
	54	0.733333	7.75586E-001	1.01068E-004	0.00000E+000	7.83868E-005	5.99601E-002	7.75904E-001	3.57900E+000	9	...........
	55	0.746667	7.83127E-001	1.00884E-004	0.00000E+000	7.90054E-005	5.99601E-002	7.83436E-001	3.57900E+000	9	...........
	56	0.76	7.90525E-001	1.01452E-004	0.00000E+000	8.02006E-005	5.99601E-002	7.90849E-001	3.57900E+000	9	...........
	57	0.773333	7.97806E-001	1.01865E-004	0.00000E+000	8.12685E-005	5.99601E-002	7.98128E-001	3.57900E+000	9	...........
	58	0.786667	8.04909E-001	1.01112E-004	0.00000E+000	8.13856E-005	5.99601E-002	8.05251E-001	3.57900E+000	9	...........
	59	0.8	8.11886E-001	1.01298E-004	0.00000E+000	8.22426E-005	5.99601E-002	8.12250E-001	3.57900E+000	9	...........
	60	0.813333	8.18768E-001	1.01769E-004	0.00000E+000	8.33252E-005	5.99601E-002	8.19145E-001	3.57900E+000	9	...........
	61	0.826667	8.25533E-001	1.01062E-004	0.00000E+000	8.34297E-005	5.99601E-002	8.25886E-001	3.57900E+000	9	...........
	62	0.84	8.32156E-001	1.00335E-004	0.00000E+000	8.34948E-005	5.99601E-002	8.32522E-001	3.57900E+000	9	...........
	63	0.853333	8.38679E-001	1.01120E-004	0.00000E+000	8.48072E-005	5.99601E-002	8.39042E-001	3.57900E+000	9	...........
	64	0.866667	8.45114E-001	1.00856E-004	0.00000E+000	8.52351E-005	5.99601E-002	8.45487E-001	3.57900E+000	9	...........
	65	0.88	8.51444E-001	1.00627E-004	0.00000E+000	8.56783E-005	5.99601E-002	8.51806E-001	3.57900E+000	9	...........
	66	0.893333	8.57625E-001	1.01136E-004	0.00000E+000	8.67364E-005	5.99601E-002	8.58024E-001	3.57900E+000	9	...........
	67	0.906667	8.63728E-001	1.01133E-004	0.00000E+000	8.73519E-005	5.99601E-002	8.64102E-001	3.57900E+000	9	...........
	68	0.92	8.69752E-001	1.01073E-004	0.00000E+000	8.79085E-005	5.99601E-002	8.70118E-001	3.57900E+000	9	...........
	69	0.933333	8.75635E-001	1.01592E-004	0.00000E+000	8.89575E-005	5.99601E-002	8.76019E-001	3.57900E+000	9	...........
	70	0.946667	8.81440E-001	1.00747E-004	0.00000E+000	8.88024E-005	5.99601E-002	8.81783E-001	3.57900E+000	9	...........
	71	0.96	8.87143E-001	1.00551E-004	0.00000E+000	8.92032E-005	5.99601E-002	8.87483E-001	3.57900E+000	9	...........
	72	0.97333	8.92748E-001	1.00908E-004	0.00000E+000	9.00858E-005	5.99601E-002	8.93102E-001	3.57900E+000	9	...........
	73	0.98667	8.98263E-001	1.01326E-004	0.00000E+000	9.10177E-005	5.99601E-002	8.98628E-001	3.57900E+000	9	...........
	74	1	9.03653E-001	1.01377E-004	0.00000E+000	9.16099E-005	5.99601E-002	9.04064E-001	3.57900E+000	9	...........
	75	1.01333	9.08986E-001	1.01773E-004	0.00000E+000	9.25104E-005	5.99601E-002	9.09380E-001	3.57900E+000	9	...........
	76	1.02667	9.14237E-001	1.01288E-004	0.00000E+000	9.26009E-005	5.99601E-002	9.14598E-001	3.57900E+000	9	...........
	77	1.04	9.19364E-001	1.00825E-004	0.00000E+000	9.26949E-005	5.99601E-002	9.19748E-001	3.57900E+000	9	...........
	78	1.05333	9.24468E-001	1.01301E-004	0.00000E+000	9.36498E-005	5.99601E-002	9.24814E-001	3.57900E+000	9	...........
	79	1.06667	9.29411E-001	1.00594E-004	0.00000E+000	9.34930E-005	5.99601E-002	9.29765E-001	3.57900E+000	9	...........
	80	1.08	9.34299E-001	1.01266E-004	0.00000E+000	9.46126E-005	5.99601E-002	9.34639E-001	3.57900E+000	9	...........
	81	1.09333	9.39068E-001	1.00792E-004	0.00000E+000	9.46504E-005	5.99601E-002	9.39416E-001	3.57900E+000	9	...........
	82	1.10667	9.43746E-001	1.01041E-004	0.00000E+000	9.53569E-005	5.99601E-002	9.44094E-001	3.57900E+000	9	...........
	83	1.12	9.48414E-001	1.00948E-004	0.00000E+000	9.57406E-005	5.99601E-002	9.48714E-001	3.57900E+000	9	...........
	84	1.13333	9.52925E-001	1.01054E-004	0.00000E+000	9.62972E-005	5.99601E-002	9.53248E-001	3.57900E+000	9	...........
	85	1.14667	9.57362E-001	1.00274E-004	0.00000E+000	9.59984E-005	5.99601E-002	9.57701E-001	3.57900E+000	9	...........
	86	1.16	9.61717E-001	1.01390E-004	0.00000E+000	9.75083E-005	5.99601E-002	9.62069E-001	3.57900E+000	9	...........
	87	1.17333	9.66001E-001	9.96696E-005	0.00000E+000	9.62810E-005	5.99601E-002	9.66355E-001	3.57900E+000	9	...........
	88	1.18667	9.70154E-001	1.01191E-004	0.00000E+000	9.81706E-005	5.99601E-002	9.70569E-001	3.57900E+000	9	...........
	89	1.2	9.74358E-001	1.00204E-004	0.00000E+000	9.76347E-005	5.99601E-002	9.74721E-001	3.57900E+000	9	...........
	90	1.21333	9.78382E-001	1.01634E-004	0.00000E+000	9.94365E-005	5.99601E-002	9.78751E-001	3.57900E+000	9	...........
	91	1.22667	9.82323E-001	1.00413E-004	0.00000E+000	9.86375E-005	5.99601E-002	9.82694E-001	3.57900E+000	9	...........
	92	1.24	9.86190E-001	1.00643E-004	0.00000E+000	9.92529E-005	5.99601E-002	9.86580E-001	3.57900E+000	9	...........
	93	1.25333	9.89989E-001	1.00416E-004	0.00000E+000	9.94103E-005	5.99601E-002	9.90389E-001	3.57900E+000	9	...........
	94	1.26667	9.93679E-001	1.00110E-004	0.00000E+000	9.94775E-005	5.99601E-002	9.94072E-001	3.57900E+000	9	...........
	95	1.28	9.97336E-001	9.99718E-005	0.00000E+000	9.97055E-005	5.99601E-002	9.97742E-001	3.57900E+000	9	...........
	96	1.285	9.99799E-001	1.00692E-004	0.00000E+000	1.00672E-004	5.99601E-002	1.00022E+000	3.57900E+000	9	...........
STARTTIMEOFFSET	QUANT	448.8149	Start Time Offset (s)
