EXPLAIN
TAG	PWR800_CHARGE
TITLE	LABEL	PWR Cyclic Charge Discharge (Cell) - Charge Step	Test &Identifier
DATE	LABEL	13-7-2017	Date
TIME	LABEL	15:34:06	Time
NOTES	NOTES	2	&Notes...
	supercap test cell
	6M KOH
PSTAT	PSTAT	IFC5000-01520	Potentiostat
CAPACITY	QUANT	1.00000E-003	Capacity (A-hr)
CELLTYPE	SELECTOR	1	&Cell Type
WORKINGCONNECTION	SELECTOR	0	&Working Lead
MAXCHARGETIME	VARIABLEANDUNITS	1.00000E+002	s	1.00000E+002	second(s)	Max &Charge Time
CHARGECURRENT	QUANT	1.00000E-004	&Charge Current (A) 
VOLTAGEFINISH	TWOPARAM	F	1.00000E-003	3.60000E+003	&Voltage Finish	 I (A) < 	Max Time(s)
SAMPLETIME	QUANT	1.00000E-002	Sa&mple Period (s)
CHARGESTOPAT1	MULTIPARAM	4	1.00000E+000	Charge Stop At &1	Voltage > Limit	V
CHARGESTOPAT2	MULTIPARAM	0	0.00000E+000	Charge Stop At &2	None	N/A
AESBHCSELECTOR	TOGGLE	F	Save Both Half Cells
IRCOMP	TOGGLE	F	IR &Measure
EOC	QUANT	0	Open Circuit (V)
SEQUENCER	TOGGLE	TRUE	Run as Sequence
PSTATMODEL	IQUANT	53	Pstat Model
PSTATSECTION	LABEL	IFC5000-01520	Pstat Section
PSTATSERIALNO	LABEL	01520	Pstat Serial Number
CTRLMODE	IQUANT	0	Control Mode
ELECTROMETER	IQUANT	1	RE=0 or CS=1
IESTAB	IQUANT	0	I/E Stability
CASPEED	IQUANT	4	Control Amp Speed
CONVENTION	IQUANT	1	Current Convention
ICHRANGE	IQUANT	2	Ich Range
ICHRANGEMODE	TOGGLE	T	Ich Auto Range
ICHOFFSETENABLE	TOGGLE	F	Ich Offset Enable
ICHOFFSET	QUANT	0	Ich Offset (V)
ICHFILTER	IQUANT	1	Ich Filter
VCHRANGE	IQUANT	2	Vch Range
VCHRANGEMODE	TOGGLE	T	Vch Auto Range
VCHOFFSETENABLE	TOGGLE	F	Vch Offset Enable
VCHOFFSET	QUANT	0	Vch Offset (V)
VCHFILTER	IQUANT	1	Vch Filter
IERANGELOWERLIMIT	IQUANT	9	I/E Range Lower Limit
IERANGEMODE	TOGGLE	F	I/E AutoRange
IERANGE	IQUANT	9	I/E Range
ACHSELECT	IQUANT	1	Ach Select
ACHRANGE	IQUANT	2	Ach Range
ACHOFFSETENABLE	TOGGLE	F	Ach Offset Enable
ACHOFFSET	QUANT	0	Ach Offset (V)
ACHFILTER	IQUANT	1	Ach Filter
CABLEID	IQUANT	14	Cable ID
DCCALDATE	LABEL	5-7-2017	DC Calibration Date
ACCALDATE	LABEL	12/3/2015	AC Calibration Date
FRAMEWORKVERSION	QUANT	7.01	Framework Version
INSTRUMENTVERSION	LABEL	4.00	Instrument Version
CURVE	TABLE	91
	Pt	T	Vf	Im	Vu	Pwr	Sig	Ach	Temp	IERange	Over
	#	s	V	A	V	W	V	V	deg C	#	bits
	0	0.013333	1.35806E-001	1.00816E-004	0.00000E+000	1.36914E-005	5.99601E-002	1.35852E-001	3.58000E+000	9	...........
	1	0.026667	1.51071E-001	1.00697E-004	0.00000E+000	1.52124E-005	5.99601E-002	1.51095E-001	3.58000E+000	9	...........
	2	0.04	1.65907E-001	1.00534E-004	0.00000E+000	1.66794E-005	5.99601E-002	1.65934E-001	3.58000E+000	9	...........
	3	0.053333	1.80474E-001	1.00754E-004	0.00000E+000	1.81836E-005	5.99601E-002	1.80506E-001	3.58000E+000	9	...........
	4	0.066667	1.94853E-001	1.01480E-004	0.00000E+000	1.97738E-005	5.99601E-002	1.94890E-001	3.58000E+000	9	...........
	5	0.08	2.09093E-001	1.00865E-004	0.00000E+000	2.10901E-005	5.99601E-002	2.09129E-001	3.58000E+000	9	...........
	6	0.093333	2.23227E-001	1.00352E-004	0.00000E+000	2.24013E-005	5.99601E-002	2.23262E-001	3.58000E+000	9	...........
	7	0.106667	2.37297E-001	1.00813E-004	0.00000E+000	2.39225E-005	5.99601E-002	2.37338E-001	3.58000E+000	9	...........
	8	0.12	2.51314E-001	1.00816E-004	0.00000E+000	2.53364E-005	5.99601E-002	2.51365E-001	3.58000E+000	9	...........
	9	0.133333	2.65315E-001	1.01447E-004	0.00000E+000	2.69154E-005	5.99601E-002	2.65364E-001	3.58000E+000	9	...........
	10	0.146667	2.79300E-001	1.00265E-004	0.00000E+000	2.80039E-005	5.99601E-002	2.79352E-001	3.58000E+000	9	...........
	11	0.16	2.93286E-001	1.01043E-004	0.00000E+000	2.96345E-005	5.99601E-002	2.93335E-001	3.58000E+000	9	...........
	12	0.173333	3.07283E-001	1.00421E-004	0.00000E+000	3.08576E-005	5.99601E-002	3.07340E-001	3.58000E+000	9	...........
	13	0.186667	3.21294E-001	1.00325E-004	0.00000E+000	3.22338E-005	5.99601E-002	3.21351E-001	3.58000E+000	9	...........
	14	0.2	3.35321E-001	1.01918E-004	0.00000E+000	3.41753E-005	5.99601E-002	3.35379E-001	3.58000E+000	9	...........
	15	0.213333	3.49373E-001	1.00333E-004	0.00000E+000	3.50537E-005	5.99601E-002	3.49436E-001	3.58000E+000	9	...........
	16	0.226667	3.63444E-001	1.00424E-004	0.00000E+000	3.64985E-005	5.99601E-002	3.63507E-001	3.58000E+000	9	...........
	17	0.24	3.77513E-001	1.00438E-004	0.00000E+000	3.79164E-005	5.99601E-002	3.77580E-001	3.58000E+000	9	...........
	18	0.253333	3.91580E-001	1.00880E-004	0.00000E+000	3.95027E-005	5.99601E-002	3.91653E-001	3.58000E+000	9	...........
	19	0.266667	4.05634E-001	1.00529E-004	0.00000E+000	4.07781E-005	5.99601E-002	4.05708E-001	3.58000E+000	9	...........
	20	0.28	4.19649E-001	1.01272E-004	0.00000E+000	4.24988E-005	5.99601E-002	4.19735E-001	3.58000E+000	9	...........
	21	0.293333	4.33620E-001	1.00642E-004	0.00000E+000	4.36403E-005	5.99601E-002	4.33703E-001	3.58000E+000	9	...........
	22	0.306667	4.47513E-001	1.00531E-004	0.00000E+000	4.49891E-005	5.99601E-002	4.47604E-001	3.58000E+000	9	...........
	23	0.32	4.61312E-001	1.00500E-004	0.00000E+000	4.63619E-005	5.99601E-002	4.61401E-001	3.58000E+000	9	...........
	24	0.333333	4.75004E-001	1.01012E-004	0.00000E+000	4.79809E-005	5.99601E-002	4.75098E-001	3.58000E+000	9	...........
	25	0.346667	4.88551E-001	1.01121E-004	0.00000E+000	4.94028E-005	5.99601E-002	4.88650E-001	3.58000E+000	9	...........
	26	0.36	5.01950E-001	1.00879E-004	0.00000E+000	5.06363E-005	5.99601E-002	5.02050E-001	3.58000E+000	9	...........
	27	0.373333	5.15162E-001	1.00186E-004	0.00000E+000	5.16122E-005	5.99601E-002	5.15267E-001	3.58000E+000	9	...........
	28	0.386667	5.28191E-001	1.00457E-004	0.00000E+000	5.30607E-005	5.99601E-002	5.28302E-001	3.58000E+000	9	...........
	29	0.4	5.40669E-001	1.01247E-004	0.00000E+000	5.47411E-005	5.99601E-002	5.40885E-001	3.58000E+000	9	...........
	30	0.413333	5.53273E-001	1.00698E-004	0.00000E+000	5.57135E-005	5.99601E-002	5.53512E-001	3.58000E+000	9	...........
	31	0.426667	5.65699E-001	1.01015E-004	0.00000E+000	5.71440E-005	5.99601E-002	5.65938E-001	3.58000E+000	9	...........
	32	0.44	5.77869E-001	1.01016E-004	0.00000E+000	5.83739E-005	5.99601E-002	5.78108E-001	3.58000E+000	9	...........
	33	0.453333	5.89808E-001	1.00836E-004	0.00000E+000	5.94736E-005	5.99601E-002	5.90085E-001	3.58000E+000	9	...........
	34	0.466667	6.01519E-001	1.00847E-004	0.00000E+000	6.06613E-005	5.99601E-002	6.01816E-001	3.58000E+000	9	...........
	35	0.48	6.13027E-001	1.00779E-004	0.00000E+000	6.17804E-005	5.99601E-002	6.13322E-001	3.58000E+000	9	...........
	36	0.493333	6.24317E-001	1.00552E-004	0.00000E+000	6.27764E-005	5.99601E-002	6.24564E-001	3.58000E+000	9	...........
	37	0.506667	6.35328E-001	1.01523E-004	0.00000E+000	6.45005E-005	5.99601E-002	6.35606E-001	3.58000E+000	9	...........
	38	0.52	6.46153E-001	1.01264E-004	0.00000E+000	6.54318E-005	5.99601E-002	6.46433E-001	3.58000E+000	9	...........
	39	0.533333	6.56759E-001	1.00240E-004	0.00000E+000	6.58332E-005	5.99601E-002	6.57008E-001	3.58000E+000	9	...........
	40	0.546667	6.67147E-001	1.00721E-004	0.00000E+000	6.71956E-005	5.99601E-002	6.67414E-001	3.58000E+000	9	...........
	41	0.56	6.77344E-001	1.01041E-004	0.00000E+000	6.84394E-005	5.99601E-002	6.77607E-001	3.58000E+000	9	...........
	42	0.573333	6.87292E-001	1.00927E-004	0.00000E+000	6.93664E-005	5.99601E-002	6.87557E-001	3.58000E+000	9	...........
	43	0.586667	6.97070E-001	1.01076E-004	0.00000E+000	7.04572E-005	5.99601E-002	6.97347E-001	3.58000E+000	9	...........
	44	0.6	7.06648E-001	1.01141E-004	0.00000E+000	7.14709E-005	5.99601E-002	7.06933E-001	3.58000E+000	9	...........
	45	0.613333	7.16045E-001	1.00862E-004	0.00000E+000	7.22214E-005	5.99601E-002	7.16326E-001	3.58000E+000	9	...........
	46	0.626667	7.25292E-001	1.00741E-004	0.00000E+000	7.30664E-005	5.99601E-002	7.25549E-001	3.58000E+000	9	...........
	47	0.64	7.34284E-001	1.00909E-004	0.00000E+000	7.40962E-005	5.99601E-002	7.34566E-001	3.58000E+000	9	...........
	48	0.653333	7.43141E-001	1.01809E-004	0.00000E+000	7.56582E-005	5.99601E-002	7.43430E-001	3.58000E+000	9	...........
	49	0.666667	7.51839E-001	1.01013E-004	0.00000E+000	7.59453E-005	5.99601E-002	7.52124E-001	3.58000E+000	9	...........
	50	0.68	7.60322E-001	1.00466E-004	0.00000E+000	7.63863E-005	5.99601E-002	7.60620E-001	3.58000E+000	9	...........
	51	0.693333	7.68684E-001	1.00963E-004	0.00000E+000	7.76084E-005	5.99601E-002	7.68979E-001	3.58000E+000	9	...........
	52	0.706667	7.76877E-001	1.01255E-004	0.00000E+000	7.86630E-005	5.99601E-002	7.77175E-001	3.58000E+000	9	...........
	53	0.72	7.84932E-001	1.01669E-004	0.00000E+000	7.98032E-005	5.99601E-002	7.85202E-001	3.58000E+000	9	...........
	54	0.733333	7.92822E-001	1.01174E-004	0.00000E+000	8.02131E-005	5.99601E-002	7.93106E-001	3.58000E+000	9	...........
	55	0.746667	8.00569E-001	1.01370E-004	0.00000E+000	8.11536E-005	5.99601E-002	8.00836E-001	3.58000E+000	9	...........
	56	0.76	8.08149E-001	1.00997E-004	0.00000E+000	8.16206E-005	5.99601E-002	8.08437E-001	3.58000E+000	9	...........
	57	0.773333	8.15598E-001	1.00003E-004	0.00000E+000	8.15623E-005	5.99601E-002	8.15901E-001	3.58000E+000	9	...........
	58	0.786667	8.22929E-001	1.01707E-004	0.00000E+000	8.36973E-005	5.99601E-002	8.23220E-001	3.58000E+000	9	...........
	59	0.8	8.30122E-001	1.00538E-004	0.00000E+000	8.34584E-005	5.99601E-002	8.30416E-001	3.58000E+000	9	...........
	60	0.813333	8.37152E-001	1.00717E-004	0.00000E+000	8.43152E-005	5.99601E-002	8.37486E-001	3.58000E+000	9	...........
	61	0.826667	8.44106E-001	1.00862E-004	0.00000E+000	8.51378E-005	5.99601E-002	8.44443E-001	3.58000E+000	9	...........
	62	0.84	8.50925E-001	1.00425E-004	0.00000E+000	8.54541E-005	5.99601E-002	8.51262E-001	3.58000E+000	9	...........
	63	0.853333	8.57610E-001	1.01139E-004	0.00000E+000	8.67375E-005	5.99601E-002	8.57963E-001	3.58000E+000	9	...........
	64	0.866667	8.64180E-001	1.01181E-004	0.00000E+000	8.74389E-005	5.99601E-002	8.64531E-001	3.58000E+000	9	...........
	65	0.88	8.70649E-001	1.00941E-004	0.00000E+000	8.78840E-005	5.99601E-002	8.71036E-001	3.58000E+000	9	...........
	66	0.893333	8.76997E-001	1.00363E-004	0.00000E+000	8.80176E-005	5.99601E-002	8.77364E-001	3.58000E+000	9	...........
	67	0.906667	8.83238E-001	1.00546E-004	0.00000E+000	8.88059E-005	5.99601E-002	8.83600E-001	3.58000E+000	9	...........
	68	0.92	8.89348E-001	1.01298E-004	0.00000E+000	9.00892E-005	5.99601E-002	8.89723E-001	3.58000E+000	9	...........
	69	0.933333	8.95360E-001	9.99864E-005	0.00000E+000	8.95238E-005	5.99601E-002	8.95745E-001	3.58000E+000	9	...........
	70	0.946667	9.01282E-001	1.00782E-004	0.00000E+000	9.08334E-005	5.99601E-002	9.01672E-001	3.58000E+000	9	...........
	71	0.96	9.07079E-001	1.00844E-004	0.00000E+000	9.14734E-005	5.99601E-002	9.07475E-001	3.58000E+000	9	...........
	72	0.97333	9.12774E-001	1.01115E-004	0.00000E+000	9.22949E-005	5.99601E-002	9.13167E-001	3.58000E+000	9	...........
	73	0.98667	9.18355E-001	1.01471E-004	0.00000E+000	9.31864E-005	5.99601E-002	9.18734E-001	3.58000E+000	9	...........
	74	1	9.23894E-001	1.00471E-004	0.00000E+000	9.28244E-005	5.99601E-002	9.24254E-001	3.58000E+000	9	...........
	75	1.01333	9.29276E-001	1.00442E-004	0.00000E+000	9.33381E-005	5.99601E-002	9.29642E-001	3.58000E+000	9	...........
	76	1.02667	9.34552E-001	1.00753E-004	0.00000E+000	9.41591E-005	5.99601E-002	9.34915E-001	3.58000E+000	9	...........
	77	1.04	9.39731E-001	1.00703E-004	0.00000E+000	9.46339E-005	5.99601E-002	9.40121E-001	3.58000E+000	9	...........
	78	1.05333	9.44827E-001	1.01299E-004	0.00000E+000	9.57102E-005	5.99601E-002	9.45204E-001	3.58000E+000	9	...........
	79	1.06667	9.49870E-001	1.01229E-004	0.00000E+000	9.61547E-005	5.99601E-002	9.50243E-001	3.58000E+000	9	...........
	80	1.08	9.54761E-001	9.98749E-005	0.00000E+000	9.53566E-005	5.99601E-002	9.55111E-001	3.58000E+000	9	...........
	81	1.09333	9.59551E-001	1.00479E-004	0.00000E+000	9.64149E-005	5.99601E-002	9.59936E-001	3.58000E+000	9	...........
	82	1.10667	9.64259E-001	1.00516E-004	0.00000E+000	9.69231E-005	5.99601E-002	9.64638E-001	3.58000E+000	9	...........
	83	1.12	9.68871E-001	1.01241E-004	0.00000E+000	9.80893E-005	5.99601E-002	9.69269E-001	3.58000E+000	9	...........
	84	1.13333	9.73439E-001	1.00361E-004	0.00000E+000	9.76957E-005	5.99601E-002	9.73800E-001	3.58000E+000	9	...........
	85	1.14667	9.77899E-001	1.00991E-004	0.00000E+000	9.87588E-005	5.99601E-002	9.78221E-001	3.58000E+000	9	...........
	86	1.16	9.82202E-001	1.01245E-004	0.00000E+000	9.94430E-005	5.99601E-002	9.82567E-001	3.58000E+000	9	...........
	87	1.17333	9.86457E-001	1.00405E-004	0.00000E+000	9.90455E-005	5.99601E-002	9.86819E-001	3.58000E+000	9	...........
	88	1.18667	9.90626E-001	9.97915E-005	0.00000E+000	9.88561E-005	5.99601E-002	9.90970E-001	3.58000E+000	9	...........
	89	1.2	9.94680E-001	1.00749E-004	0.00000E+000	1.00213E-004	5.99601E-002	9.95031E-001	3.58000E+000	9	...........
	90	1.21333	9.98679E-001	1.00518E-004	0.00000E+000	1.00385E-004	5.99601E-002	9.99042E-001	3.58000E+000	9	...........
STARTTIMEOFFSET	QUANT	1451.577	Start Time Offset (s)
