EXPLAIN
TAG	PWR800_CHARGE
TITLE	LABEL	PWR Cyclic Charge Discharge (Cell) - Charge Step	Test &Identifier
DATE	LABEL	13-7-2017	Date
TIME	LABEL	15:30:22	Time
NOTES	NOTES	2	&Notes...
	supercap test cell
	6M KOH
PSTAT	PSTAT	IFC5000-01520	Potentiostat
CAPACITY	QUANT	1.00000E-003	Capacity (A-hr)
CELLTYPE	SELECTOR	1	&Cell Type
WORKINGCONNECTION	SELECTOR	0	&Working Lead
MAXCHARGETIME	VARIABLEANDUNITS	1.00000E+002	s	1.00000E+002	second(s)	Max &Charge Time
CHARGECURRENT	QUANT	1.00000E-004	&Charge Current (A) 
VOLTAGEFINISH	TWOPARAM	F	1.00000E-003	3.60000E+003	&Voltage Finish	 I (A) < 	Max Time(s)
SAMPLETIME	QUANT	1.00000E-002	Sa&mple Period (s)
CHARGESTOPAT1	MULTIPARAM	4	1.00000E+000	Charge Stop At &1	Voltage > Limit	V
CHARGESTOPAT2	MULTIPARAM	0	0.00000E+000	Charge Stop At &2	None	N/A
AESBHCSELECTOR	TOGGLE	F	Save Both Half Cells
IRCOMP	TOGGLE	F	IR &Measure
EOC	QUANT	0	Open Circuit (V)
SEQUENCER	TOGGLE	TRUE	Run as Sequence
PSTATMODEL	IQUANT	53	Pstat Model
PSTATSECTION	LABEL	IFC5000-01520	Pstat Section
PSTATSERIALNO	LABEL	01520	Pstat Serial Number
CTRLMODE	IQUANT	0	Control Mode
ELECTROMETER	IQUANT	1	RE=0 or CS=1
IESTAB	IQUANT	0	I/E Stability
CASPEED	IQUANT	4	Control Amp Speed
CONVENTION	IQUANT	1	Current Convention
ICHRANGE	IQUANT	2	Ich Range
ICHRANGEMODE	TOGGLE	T	Ich Auto Range
ICHOFFSETENABLE	TOGGLE	F	Ich Offset Enable
ICHOFFSET	QUANT	0	Ich Offset (V)
ICHFILTER	IQUANT	1	Ich Filter
VCHRANGE	IQUANT	2	Vch Range
VCHRANGEMODE	TOGGLE	T	Vch Auto Range
VCHOFFSETENABLE	TOGGLE	F	Vch Offset Enable
VCHOFFSET	QUANT	0	Vch Offset (V)
VCHFILTER	IQUANT	1	Vch Filter
IERANGELOWERLIMIT	IQUANT	9	I/E Range Lower Limit
IERANGEMODE	TOGGLE	F	I/E AutoRange
IERANGE	IQUANT	9	I/E Range
ACHSELECT	IQUANT	1	Ach Select
ACHRANGE	IQUANT	2	Ach Range
ACHOFFSETENABLE	TOGGLE	F	Ach Offset Enable
ACHOFFSET	QUANT	0	Ach Offset (V)
ACHFILTER	IQUANT	1	Ach Filter
CABLEID	IQUANT	14	Cable ID
DCCALDATE	LABEL	5-7-2017	DC Calibration Date
ACCALDATE	LABEL	12/3/2015	AC Calibration Date
FRAMEWORKVERSION	QUANT	7.01	Framework Version
INSTRUMENTVERSION	LABEL	4.00	Instrument Version
CURVE	TABLE	92
	Pt	T	Vf	Im	Vu	Pwr	Sig	Ach	Temp	IERange	Over
	#	s	V	A	V	W	V	V	deg C	#	bits
	0	0.013333	1.33968E-001	1.00909E-004	0.00000E+000	1.35186E-005	5.99601E-002	1.34015E-001	3.57900E+000	9	...........
	1	0.026667	1.49234E-001	1.00369E-004	0.00000E+000	1.49784E-005	5.99601E-002	1.49253E-001	3.57900E+000	9	...........
	2	0.04	1.64058E-001	1.01779E-004	0.00000E+000	1.66977E-005	5.99601E-002	1.64087E-001	3.57900E+000	9	...........
	3	0.053333	1.78611E-001	1.00255E-004	0.00000E+000	1.79066E-005	5.99601E-002	1.78640E-001	3.57900E+000	9	...........
	4	0.066667	1.92973E-001	1.00473E-004	0.00000E+000	1.93885E-005	5.99601E-002	1.93005E-001	3.57900E+000	9	...........
	5	0.08	2.07198E-001	1.01086E-004	0.00000E+000	2.09447E-005	5.99601E-002	2.07232E-001	3.57900E+000	9	...........
	6	0.093333	2.21321E-001	1.01721E-004	0.00000E+000	2.25130E-005	5.99601E-002	2.21356E-001	3.57900E+000	9	...........
	7	0.106667	2.35371E-001	1.02148E-004	0.00000E+000	2.40428E-005	5.99601E-002	2.35413E-001	3.57900E+000	9	...........
	8	0.12	2.49375E-001	1.00767E-004	0.00000E+000	2.51287E-005	5.99601E-002	2.49420E-001	3.57900E+000	9	...........
	9	0.133333	2.63352E-001	1.00277E-004	0.00000E+000	2.64082E-005	5.99601E-002	2.63397E-001	3.57900E+000	9	...........
	10	0.146667	2.77314E-001	1.01484E-004	0.00000E+000	2.81429E-005	5.99601E-002	2.77368E-001	3.57900E+000	9	...........
	11	0.16	2.91277E-001	9.97103E-005	0.00000E+000	2.90433E-005	5.99601E-002	2.91337E-001	3.57900E+000	9	...........
	12	0.173333	3.05253E-001	1.01377E-004	0.00000E+000	3.09457E-005	5.99601E-002	3.05315E-001	3.57900E+000	9	...........
	13	0.186667	3.19241E-001	1.00695E-004	0.00000E+000	3.21460E-005	5.99601E-002	3.19307E-001	3.57900E+000	9	...........
	14	0.2	3.33250E-001	1.00970E-004	0.00000E+000	3.36482E-005	5.99601E-002	3.33315E-001	3.57900E+000	9	...........
	15	0.213333	3.47278E-001	1.00817E-004	0.00000E+000	3.50115E-005	5.99601E-002	3.47347E-001	3.57900E+000	9	...........
	16	0.226667	3.61326E-001	1.00911E-004	0.00000E+000	3.64616E-005	5.99601E-002	3.61400E-001	3.57900E+000	9	...........
	17	0.24	3.75380E-001	1.01042E-004	0.00000E+000	3.79291E-005	5.99601E-002	3.75446E-001	3.57900E+000	9	...........
	18	0.253333	3.89429E-001	1.00869E-004	0.00000E+000	3.92813E-005	5.99601E-002	3.89501E-001	3.57900E+000	9	...........
	19	0.266667	4.03461E-001	1.00779E-004	0.00000E+000	4.06605E-005	5.99601E-002	4.03536E-001	3.57900E+000	9	...........
	20	0.28	4.17456E-001	1.00494E-004	0.00000E+000	4.19517E-005	5.99601E-002	4.17542E-001	3.57900E+000	9	...........
	21	0.293333	4.31410E-001	1.00347E-004	0.00000E+000	4.32906E-005	5.99601E-002	4.31492E-001	3.57900E+000	9	...........
	22	0.306667	4.45282E-001	1.00856E-004	0.00000E+000	4.49096E-005	5.99601E-002	4.45375E-001	3.57900E+000	9	...........
	23	0.32	4.59063E-001	1.00699E-004	0.00000E+000	4.62272E-005	5.99601E-002	4.59156E-001	3.57900E+000	9	...........
	24	0.333333	4.72724E-001	1.01090E-004	0.00000E+000	4.77876E-005	5.99601E-002	4.72826E-001	3.57900E+000	9	...........
	25	0.346667	4.86253E-001	1.00431E-004	0.00000E+000	4.88350E-005	5.99601E-002	4.86359E-001	3.57900E+000	9	...........
	26	0.36	4.99622E-001	1.01150E-004	0.00000E+000	5.05368E-005	5.99601E-002	4.99730E-001	3.57900E+000	9	...........
	27	0.373333	5.12821E-001	1.01693E-004	0.00000E+000	5.21503E-005	5.99601E-002	5.12933E-001	3.57900E+000	9	...........
	28	0.386667	5.25833E-001	1.00557E-004	0.00000E+000	5.28763E-005	5.99601E-002	5.25953E-001	3.57900E+000	9	...........
	29	0.4	5.38324E-001	1.00076E-004	0.00000E+000	5.38733E-005	5.99601E-002	5.38574E-001	3.57900E+000	9	...........
	30	0.413333	5.50886E-001	9.99124E-005	0.00000E+000	5.50404E-005	5.99601E-002	5.51157E-001	3.57900E+000	9	...........
	31	0.426667	5.63292E-001	1.00552E-004	0.00000E+000	5.66402E-005	5.99601E-002	5.63561E-001	3.57900E+000	9	...........
	32	0.44	5.75450E-001	1.00078E-004	0.00000E+000	5.75900E-005	5.99601E-002	5.75696E-001	3.57900E+000	9	...........
	33	0.453333	5.87371E-001	1.00958E-004	0.00000E+000	5.93001E-005	5.99601E-002	5.87655E-001	3.57900E+000	9	...........
	34	0.466667	5.99080E-001	1.00735E-004	0.00000E+000	6.03487E-005	5.99601E-002	5.99360E-001	3.57900E+000	9	...........
	35	0.48	6.10562E-001	1.00265E-004	0.00000E+000	6.12177E-005	5.99601E-002	6.10836E-001	3.57900E+000	9	...........
	36	0.493333	6.21858E-001	1.01260E-004	0.00000E+000	6.29690E-005	5.99601E-002	6.22117E-001	3.57900E+000	9	...........
	37	0.506667	6.32845E-001	1.01744E-004	0.00000E+000	6.43882E-005	5.99601E-002	6.33148E-001	3.57900E+000	9	...........
	38	0.52	6.43663E-001	1.00257E-004	0.00000E+000	6.45319E-005	5.99601E-002	6.43942E-001	3.57900E+000	9	...........
	39	0.533333	6.54267E-001	1.01150E-004	0.00000E+000	6.61792E-005	5.99601E-002	6.54512E-001	3.57900E+000	9	...........
	40	0.546667	6.64662E-001	1.00680E-004	0.00000E+000	6.69184E-005	5.99601E-002	6.64903E-001	3.57900E+000	9	...........
	41	0.56	6.74841E-001	1.00923E-004	0.00000E+000	6.81070E-005	5.99601E-002	6.75069E-001	3.57900E+000	9	...........
	42	0.573333	6.84777E-001	1.01450E-004	0.00000E+000	6.94708E-005	5.99601E-002	6.85039E-001	3.57900E+000	9	...........
	43	0.586667	6.94548E-001	1.00539E-004	0.00000E+000	6.98289E-005	5.99601E-002	6.94832E-001	3.57900E+000	9	...........
	44	0.6	7.04120E-001	1.00862E-004	0.00000E+000	7.10187E-005	5.99601E-002	7.04408E-001	3.57900E+000	9	...........
	45	0.613333	7.13496E-001	1.00169E-004	0.00000E+000	7.14700E-005	5.99601E-002	7.13784E-001	3.57900E+000	9	...........
	46	0.626667	7.22739E-001	1.01741E-004	0.00000E+000	7.35321E-005	5.99601E-002	7.22998E-001	3.57900E+000	9	...........
	47	0.64	7.31752E-001	1.00964E-004	0.00000E+000	7.38804E-005	5.99601E-002	7.31995E-001	3.57900E+000	9	...........
	48	0.653333	7.40585E-001	1.00569E-004	0.00000E+000	7.44798E-005	5.99601E-002	7.40863E-001	3.57900E+000	9	...........
	49	0.666667	7.49270E-001	1.01510E-004	0.00000E+000	7.60581E-005	5.99601E-002	7.49540E-001	3.57900E+000	9	...........
	50	0.68	7.57794E-001	1.01234E-004	0.00000E+000	7.67142E-005	5.99601E-002	7.58054E-001	3.57900E+000	9	...........
	51	0.693333	7.66120E-001	1.00526E-004	0.00000E+000	7.70150E-005	5.99601E-002	7.66415E-001	3.57900E+000	9	...........
	52	0.706667	7.74331E-001	1.00681E-004	0.00000E+000	7.79607E-005	5.99601E-002	7.74601E-001	3.57900E+000	9	...........
	53	0.72	7.82342E-001	1.00764E-004	0.00000E+000	7.88316E-005	5.99601E-002	7.82627E-001	3.57900E+000	9	...........
	54	0.733333	7.90230E-001	1.01664E-004	0.00000E+000	8.03378E-005	5.99601E-002	7.90527E-001	3.57900E+000	9	...........
	55	0.746667	7.97998E-001	1.01194E-004	0.00000E+000	8.07525E-005	5.99601E-002	7.98291E-001	3.57900E+000	9	...........
	56	0.76	8.05574E-001	1.01660E-004	0.00000E+000	8.18944E-005	5.99601E-002	8.05890E-001	3.57900E+000	9	...........
	57	0.773333	8.13023E-001	1.00279E-004	0.00000E+000	8.15293E-005	5.99601E-002	8.13313E-001	3.57900E+000	9	...........
	58	0.786667	8.20332E-001	1.00820E-004	0.00000E+000	8.27058E-005	5.99601E-002	8.20682E-001	3.57900E+000	9	...........
	59	0.8	8.27520E-001	1.00185E-004	0.00000E+000	8.29054E-005	5.99601E-002	8.27862E-001	3.57900E+000	9	...........
	60	0.813333	8.34562E-001	1.01033E-004	0.00000E+000	8.43187E-005	5.99601E-002	8.34915E-001	3.57900E+000	9	...........
	61	0.826667	8.41491E-001	1.00803E-004	0.00000E+000	8.48250E-005	5.99601E-002	8.41843E-001	3.57900E+000	9	...........
	62	0.84	8.48341E-001	9.96842E-005	0.00000E+000	8.45662E-005	5.99601E-002	8.48677E-001	3.57900E+000	9	...........
	63	0.853333	8.55026E-001	1.01079E-004	0.00000E+000	8.64255E-005	5.99601E-002	8.55384E-001	3.57900E+000	9	...........
	64	0.866667	8.61600E-001	1.01175E-004	0.00000E+000	8.71725E-005	5.99601E-002	8.61963E-001	3.57900E+000	9	...........
	65	0.88	8.68050E-001	1.00656E-004	0.00000E+000	8.73747E-005	5.99601E-002	8.68427E-001	3.57962E+000	9	...........
	66	0.893333	8.74408E-001	1.00748E-004	0.00000E+000	8.80949E-005	5.99601E-002	8.74774E-001	3.58000E+000	9	...........
	67	0.906667	8.80626E-001	1.00858E-004	0.00000E+000	8.88185E-005	5.99601E-002	8.80997E-001	3.58000E+000	9	...........
	68	0.92	8.86765E-001	1.01026E-004	0.00000E+000	8.95865E-005	5.99601E-002	8.87137E-001	3.58000E+000	9	...........
	69	0.933333	8.92771E-001	1.01247E-004	0.00000E+000	9.03905E-005	5.99601E-002	8.93134E-001	3.58000E+000	9	...........
	70	0.946667	8.98669E-001	1.01081E-004	0.00000E+000	9.08387E-005	5.99601E-002	8.99060E-001	3.58000E+000	9	...........
	71	0.96	9.04473E-001	1.01098E-004	0.00000E+000	9.14405E-005	5.99601E-002	9.04854E-001	3.58000E+000	9	...........
	72	0.97333	9.10169E-001	1.01527E-004	0.00000E+000	9.24070E-005	5.99601E-002	9.10545E-001	3.58000E+000	9	...........
	73	0.98667	9.15762E-001	1.00917E-004	0.00000E+000	9.24158E-005	5.99601E-002	9.16154E-001	3.58000E+000	9	...........
	74	1	9.21322E-001	1.01243E-004	0.00000E+000	9.32773E-005	5.99601E-002	9.21655E-001	3.58000E+000	9	...........
	75	1.01333	9.26720E-001	1.00651E-004	0.00000E+000	9.32754E-005	5.99601E-002	9.27062E-001	3.58000E+000	9	...........
	76	1.02667	9.32001E-001	1.01458E-004	0.00000E+000	9.45585E-005	5.99601E-002	9.32358E-001	3.58000E+000	9	...........
	77	1.04	9.37184E-001	1.00455E-004	0.00000E+000	9.41450E-005	5.99601E-002	9.37559E-001	3.58000E+000	9	...........
	78	1.05333	9.42277E-001	1.00980E-004	0.00000E+000	9.51515E-005	5.99601E-002	9.42641E-001	3.58000E+000	9	...........
	79	1.06667	9.47290E-001	9.99937E-005	0.00000E+000	9.47230E-005	5.99601E-002	9.47664E-001	3.58000E+000	9	...........
	80	1.08	9.52237E-001	1.00884E-004	0.00000E+000	9.60660E-005	5.99601E-002	9.52589E-001	3.58000E+000	9	...........
	81	1.09333	9.57018E-001	1.00719E-004	0.00000E+000	9.63897E-005	5.99601E-002	9.57404E-001	3.58000E+000	9	...........
	82	1.10667	9.61737E-001	1.01094E-004	0.00000E+000	9.72257E-005	5.99601E-002	9.62129E-001	3.58000E+000	9	...........
	83	1.12	9.66339E-001	1.00683E-004	0.00000E+000	9.72943E-005	5.99601E-002	9.66759E-001	3.58000E+000	9	...........
	84	1.13333	9.70870E-001	1.01589E-004	0.00000E+000	9.86295E-005	5.99601E-002	9.71295E-001	3.58000E+000	9	...........
	85	1.14667	9.75346E-001	1.00980E-004	0.00000E+000	9.84907E-005	5.99601E-002	9.75744E-001	3.58000E+000	9	...........
	86	1.16	9.79701E-001	1.01147E-004	0.00000E+000	9.90939E-005	5.99601E-002	9.80090E-001	3.58000E+000	9	...........
	87	1.17333	9.83956E-001	1.00532E-004	0.00000E+000	9.89194E-005	5.99601E-002	9.84360E-001	3.58000E+000	9	...........
	88	1.18667	9.88129E-001	1.00688E-004	0.00000E+000	9.94923E-005	5.99601E-002	9.88540E-001	3.58000E+000	9	...........
	89	1.2	9.92208E-001	1.00409E-004	0.00000E+000	9.96270E-005	5.99601E-002	9.92617E-001	3.58000E+000	9	...........
	90	1.21333	9.96212E-001	1.01132E-004	0.00000E+000	1.00749E-004	5.99601E-002	9.96637E-001	3.58000E+000	9	...........
	91	1.22167	9.99436E-001	1.01235E-004	0.00000E+000	1.01178E-004	5.99601E-002	9.99833E-001	3.58000E+000	9	...........
STARTTIMEOFFSET	QUANT	1282.74	Start Time Offset (s)
