EXPLAIN
TAG	PWR800_CHARGE
TITLE	LABEL	PWR Cyclic Charge Discharge (Cell) - Charge Step	Test &Identifier
DATE	LABEL	13-7-2017	Date
TIME	LABEL	15:46:28	Time
NOTES	NOTES	2	&Notes...
	supercap test cell
	6M KOH
PSTAT	PSTAT	IFC5000-01520	Potentiostat
CAPACITY	QUANT	1.00000E-003	Capacity (A-hr)
CELLTYPE	SELECTOR	1	&Cell Type
WORKINGCONNECTION	SELECTOR	0	&Working Lead
MAXCHARGETIME	VARIABLEANDUNITS	1.00000E+002	s	1.00000E+002	second(s)	Max &Charge Time
CHARGECURRENT	QUANT	1.00000E-004	&Charge Current (A) 
VOLTAGEFINISH	TWOPARAM	F	1.00000E-003	3.60000E+003	&Voltage Finish	 I (A) < 	Max Time(s)
SAMPLETIME	QUANT	1.00000E-002	Sa&mple Period (s)
CHARGESTOPAT1	MULTIPARAM	4	1.00000E+000	Charge Stop At &1	Voltage > Limit	V
CHARGESTOPAT2	MULTIPARAM	0	0.00000E+000	Charge Stop At &2	None	N/A
AESBHCSELECTOR	TOGGLE	F	Save Both Half Cells
IRCOMP	TOGGLE	F	IR &Measure
EOC	QUANT	0	Open Circuit (V)
SEQUENCER	TOGGLE	TRUE	Run as Sequence
PSTATMODEL	IQUANT	53	Pstat Model
PSTATSECTION	LABEL	IFC5000-01520	Pstat Section
PSTATSERIALNO	LABEL	01520	Pstat Serial Number
CTRLMODE	IQUANT	0	Control Mode
ELECTROMETER	IQUANT	1	RE=0 or CS=1
IESTAB	IQUANT	0	I/E Stability
CASPEED	IQUANT	4	Control Amp Speed
CONVENTION	IQUANT	1	Current Convention
ICHRANGE	IQUANT	2	Ich Range
ICHRANGEMODE	TOGGLE	T	Ich Auto Range
ICHOFFSETENABLE	TOGGLE	F	Ich Offset Enable
ICHOFFSET	QUANT	0	Ich Offset (V)
ICHFILTER	IQUANT	1	Ich Filter
VCHRANGE	IQUANT	2	Vch Range
VCHRANGEMODE	TOGGLE	T	Vch Auto Range
VCHOFFSETENABLE	TOGGLE	F	Vch Offset Enable
VCHOFFSET	QUANT	0	Vch Offset (V)
VCHFILTER	IQUANT	1	Vch Filter
IERANGELOWERLIMIT	IQUANT	9	I/E Range Lower Limit
IERANGEMODE	TOGGLE	F	I/E AutoRange
IERANGE	IQUANT	9	I/E Range
ACHSELECT	IQUANT	1	Ach Select
ACHRANGE	IQUANT	2	Ach Range
ACHOFFSETENABLE	TOGGLE	F	Ach Offset Enable
ACHOFFSET	QUANT	0	Ach Offset (V)
ACHFILTER	IQUANT	1	Ach Filter
CABLEID	IQUANT	14	Cable ID
DCCALDATE	LABEL	5-7-2017	DC Calibration Date
ACCALDATE	LABEL	12/3/2015	AC Calibration Date
FRAMEWORKVERSION	QUANT	7.01	Framework Version
INSTRUMENTVERSION	LABEL	4.00	Instrument Version
CURVE	TABLE	90
	Pt	T	Vf	Im	Vu	Pwr	Sig	Ach	Temp	IERange	Over
	#	s	V	A	V	W	V	V	deg C	#	bits
	0	0.013333	1.32464E-001	1.02112E-004	0.00000E+000	1.35261E-005	5.99601E-002	1.32510E-001	3.58000E+000	9	...........
	1	0.026667	1.47750E-001	1.00796E-004	0.00000E+000	1.48926E-005	5.99601E-002	1.47767E-001	3.58000E+000	9	...........
	2	0.04	1.62591E-001	1.00803E-004	0.00000E+000	1.63897E-005	5.99601E-002	1.62612E-001	3.58000E+000	9	...........
	3	0.053333	1.77161E-001	1.01163E-004	0.00000E+000	1.79221E-005	5.99601E-002	1.77189E-001	3.58000E+000	9	...........
	4	0.066667	1.91549E-001	1.01856E-004	0.00000E+000	1.95103E-005	5.99601E-002	1.91571E-001	3.58000E+000	9	...........
	5	0.08	2.05791E-001	1.01026E-004	0.00000E+000	2.07902E-005	5.99601E-002	2.05823E-001	3.58000E+000	9	...........
	6	0.093333	2.19942E-001	1.01188E-004	0.00000E+000	2.22555E-005	5.99601E-002	2.19972E-001	3.58000E+000	9	...........
	7	0.106667	2.34017E-001	1.00135E-004	0.00000E+000	2.34334E-005	5.99601E-002	2.34047E-001	3.58000E+000	9	...........
	8	0.12	2.48044E-001	1.00936E-004	0.00000E+000	2.50364E-005	5.99601E-002	2.48090E-001	3.58000E+000	9	...........
	9	0.133333	2.62054E-001	1.00824E-004	0.00000E+000	2.64214E-005	5.99601E-002	2.62104E-001	3.58000E+000	9	...........
	10	0.146667	2.76056E-001	1.00695E-004	0.00000E+000	2.77974E-005	5.99601E-002	2.76104E-001	3.58000E+000	9	...........
	11	0.16	2.90055E-001	1.00344E-004	0.00000E+000	2.91052E-005	5.99601E-002	2.90107E-001	3.58000E+000	9	...........
	12	0.173333	3.04070E-001	1.00299E-004	0.00000E+000	3.04979E-005	5.99601E-002	3.04123E-001	3.58000E+000	9	...........
	13	0.186667	3.18111E-001	1.00599E-004	0.00000E+000	3.20016E-005	5.99601E-002	3.18162E-001	3.58000E+000	9	...........
	14	0.2	3.32165E-001	1.01415E-004	0.00000E+000	3.36865E-005	5.99601E-002	3.32227E-001	3.57959E+000	9	...........
	15	0.213333	3.46256E-001	9.97311E-005	0.00000E+000	3.45325E-005	5.99601E-002	3.46319E-001	3.57890E+000	9	...........
	16	0.226667	3.60366E-001	1.00302E-004	0.00000E+000	3.61455E-005	5.99601E-002	3.60427E-001	3.57890E+000	9	...........
	17	0.24	3.74497E-001	1.00254E-004	0.00000E+000	3.75449E-005	5.99601E-002	3.74567E-001	3.57890E+000	9	...........
	18	0.253333	3.88637E-001	1.00535E-004	0.00000E+000	3.90718E-005	5.99601E-002	3.88709E-001	3.57890E+000	9	...........
	19	0.266667	4.02772E-001	1.01223E-004	0.00000E+000	4.07699E-005	5.99601E-002	4.02848E-001	3.57890E+000	9	...........
	20	0.28	4.16886E-001	1.00671E-004	0.00000E+000	4.19683E-005	5.99601E-002	4.16971E-001	3.57890E+000	9	...........
	21	0.293333	4.30972E-001	1.00853E-004	0.00000E+000	4.34649E-005	5.99601E-002	4.31058E-001	3.57890E+000	9	...........
	22	0.306667	4.44990E-001	1.01002E-004	0.00000E+000	4.49450E-005	5.99601E-002	4.45081E-001	3.57890E+000	9	...........
	23	0.32	4.58941E-001	1.01983E-004	0.00000E+000	4.68040E-005	5.99601E-002	4.59029E-001	3.57890E+000	9	...........
	24	0.333333	4.72772E-001	1.00219E-004	0.00000E+000	4.73806E-005	5.99601E-002	4.72872E-001	3.57890E+000	9	...........
	25	0.346667	4.86493E-001	1.01559E-004	0.00000E+000	4.94075E-005	5.99601E-002	4.86589E-001	3.57890E+000	9	...........
	26	0.36	5.00060E-001	1.00780E-004	0.00000E+000	5.03962E-005	5.99601E-002	5.00163E-001	3.57890E+000	9	...........
	27	0.373333	5.13463E-001	1.00532E-004	0.00000E+000	5.16197E-005	5.99601E-002	5.13572E-001	3.57890E+000	9	...........
	28	0.386667	5.26700E-001	1.00579E-004	0.00000E+000	5.29751E-005	5.99601E-002	5.26803E-001	3.57890E+000	9	...........
	29	0.4	5.39408E-001	1.01551E-004	0.00000E+000	5.47776E-005	5.99601E-002	5.39658E-001	3.57890E+000	9	...........
	30	0.413333	5.52179E-001	1.01752E-004	0.00000E+000	5.61856E-005	5.99601E-002	5.52442E-001	3.57890E+000	9	...........
	31	0.426667	5.64808E-001	1.00499E-004	0.00000E+000	5.67626E-005	5.99601E-002	5.65072E-001	3.57890E+000	9	...........
	32	0.44	5.77195E-001	1.00729E-004	0.00000E+000	5.81404E-005	5.99601E-002	5.77450E-001	3.57890E+000	9	...........
	33	0.453333	5.89346E-001	1.01025E-004	0.00000E+000	5.95387E-005	5.99601E-002	5.89622E-001	3.57890E+000	9	...........
	34	0.466667	6.01271E-001	1.00763E-004	0.00000E+000	6.05856E-005	5.99601E-002	6.01541E-001	3.57890E+000	9	...........
	35	0.48	6.12963E-001	1.01646E-004	0.00000E+000	6.23053E-005	5.99601E-002	6.13244E-001	3.57890E+000	9	...........
	36	0.493333	6.24465E-001	1.00338E-004	0.00000E+000	6.26572E-005	5.99601E-002	6.24708E-001	3.57890E+000	9	...........
	37	0.506667	6.35689E-001	1.00647E-004	0.00000E+000	6.39801E-005	5.99601E-002	6.35934E-001	3.57890E+000	9	...........
	38	0.52	6.46698E-001	1.00310E-004	0.00000E+000	6.48705E-005	5.99601E-002	6.46962E-001	3.57890E+000	9	...........
	39	0.533333	6.57491E-001	1.00560E-004	0.00000E+000	6.61176E-005	5.99601E-002	6.57732E-001	3.57890E+000	9	...........
	40	0.546667	6.68085E-001	1.01230E-004	0.00000E+000	6.76305E-005	5.99601E-002	6.68313E-001	3.57890E+000	9	...........
	41	0.56	6.78437E-001	1.00941E-004	0.00000E+000	6.84820E-005	5.99601E-002	6.78678E-001	3.57890E+000	9	...........
	42	0.573333	6.88578E-001	1.00781E-004	0.00000E+000	6.93959E-005	5.99601E-002	6.88813E-001	3.57890E+000	9	...........
	43	0.586667	6.98522E-001	1.00724E-004	0.00000E+000	7.03580E-005	5.99601E-002	6.98757E-001	3.57890E+000	9	...........
	44	0.6	7.08261E-001	1.00161E-004	0.00000E+000	7.09404E-005	5.99601E-002	7.08510E-001	3.57890E+000	9	...........
	45	0.613333	7.17838E-001	1.01052E-004	0.00000E+000	7.25391E-005	5.99601E-002	7.18089E-001	3.57890E+000	9	...........
	46	0.626667	7.27213E-001	1.01600E-004	0.00000E+000	7.38850E-005	5.99601E-002	7.27454E-001	3.57890E+000	9	...........
	47	0.64	7.36380E-001	1.01400E-004	0.00000E+000	7.46691E-005	5.99601E-002	7.36640E-001	3.57890E+000	9	...........
	48	0.653333	7.45382E-001	1.01055E-004	0.00000E+000	7.53248E-005	5.99601E-002	7.45655E-001	3.57890E+000	9	...........
	49	0.666667	7.54189E-001	1.00209E-004	0.00000E+000	7.55768E-005	5.99601E-002	7.54475E-001	3.57890E+000	9	...........
	50	0.68	7.62835E-001	1.02169E-004	0.00000E+000	7.79382E-005	5.99601E-002	7.63101E-001	3.57890E+000	9	...........
	51	0.693333	7.71338E-001	1.01228E-004	0.00000E+000	7.80812E-005	5.99601E-002	7.71616E-001	3.57890E+000	9	...........
	52	0.706667	7.79652E-001	1.00864E-004	0.00000E+000	7.86385E-005	5.99601E-002	7.79955E-001	3.57890E+000	9	...........
	53	0.72	7.87798E-001	1.00464E-004	0.00000E+000	7.91449E-005	5.99601E-002	7.88087E-001	3.57890E+000	9	...........
	54	0.733333	7.95823E-001	1.01864E-004	0.00000E+000	8.10656E-005	5.99601E-002	7.96113E-001	3.57890E+000	9	...........
	55	0.746667	8.03656E-001	9.99530E-005	0.00000E+000	8.03279E-005	5.99601E-002	8.03980E-001	3.57890E+000	9	...........
	56	0.76	8.11359E-001	1.00613E-004	0.00000E+000	8.16329E-005	5.99601E-002	8.11690E-001	3.57890E+000	9	...........
	57	0.773333	8.18927E-001	1.01069E-004	0.00000E+000	8.27680E-005	5.99601E-002	8.19241E-001	3.57890E+000	9	...........
	58	0.786667	8.26353E-001	1.00460E-004	0.00000E+000	8.30158E-005	5.99601E-002	8.26655E-001	3.57890E+000	9	...........
	59	0.8	8.33638E-001	1.00974E-004	0.00000E+000	8.41759E-005	5.99601E-002	8.33957E-001	3.57890E+000	9	...........
	60	0.813333	8.40760E-001	1.00100E-004	0.00000E+000	8.41600E-005	5.99601E-002	8.41076E-001	3.57890E+000	9	...........
	61	0.826667	8.47805E-001	1.00765E-004	0.00000E+000	8.54288E-005	5.99601E-002	8.48138E-001	3.57890E+000	9	...........
	62	0.84	8.54685E-001	1.00822E-004	0.00000E+000	8.61710E-005	5.99601E-002	8.55006E-001	3.57890E+000	9	...........
	63	0.853333	8.61459E-001	1.01091E-004	0.00000E+000	8.70855E-005	5.99601E-002	8.61816E-001	3.57890E+000	9	...........
	64	0.866667	8.68115E-001	1.00250E-004	0.00000E+000	8.70285E-005	5.99601E-002	8.68456E-001	3.57890E+000	9	...........
	65	0.88	8.74667E-001	1.01360E-004	0.00000E+000	8.86559E-005	5.99601E-002	8.74989E-001	3.57890E+000	9	...........
	66	0.893333	8.81080E-001	1.00110E-004	0.00000E+000	8.82052E-005	5.99601E-002	8.81416E-001	3.57890E+000	9	...........
	67	0.906667	8.87378E-001	9.98864E-005	0.00000E+000	8.86370E-005	5.99601E-002	8.87704E-001	3.57890E+000	9	...........
	68	0.92	8.93552E-001	1.01792E-004	0.00000E+000	9.09564E-005	5.99601E-002	8.93909E-001	3.57890E+000	9	...........
	69	0.933333	8.99635E-001	1.00399E-004	0.00000E+000	9.03224E-005	5.99601E-002	8.99979E-001	3.57890E+000	9	...........
	70	0.946667	9.05580E-001	1.00796E-004	0.00000E+000	9.12788E-005	5.99601E-002	9.05933E-001	3.57890E+000	9	...........
	71	0.96	9.11437E-001	1.01821E-004	0.00000E+000	9.28036E-005	5.99601E-002	9.11794E-001	3.57890E+000	9	...........
	72	0.97333	9.17199E-001	1.01622E-004	0.00000E+000	9.32077E-005	5.99601E-002	9.17544E-001	3.57890E+000	9	...........
	73	0.98667	9.22876E-001	1.01425E-004	0.00000E+000	9.36029E-005	5.99601E-002	9.23207E-001	3.57890E+000	9	...........
	74	1	9.28418E-001	1.01597E-004	0.00000E+000	9.43246E-005	5.99601E-002	9.28727E-001	3.57890E+000	9	...........
	75	1.01333	9.33828E-001	1.00654E-004	0.00000E+000	9.39937E-005	5.99601E-002	9.34149E-001	3.57890E+000	9	...........
	76	1.02667	9.39147E-001	9.99572E-005	0.00000E+000	9.38746E-005	5.99601E-002	9.39489E-001	3.57890E+000	9	...........
	77	1.04	9.44358E-001	1.01126E-004	0.00000E+000	9.54993E-005	5.99601E-002	9.44689E-001	3.57890E+000	9	...........
	78	1.05333	9.49505E-001	1.01111E-004	0.00000E+000	9.60050E-005	5.99601E-002	9.49830E-001	3.57890E+000	9	...........
	79	1.06667	9.54517E-001	1.00800E-004	0.00000E+000	9.62154E-005	5.99601E-002	9.54839E-001	3.57890E+000	9	...........
	80	1.08	9.59422E-001	1.00739E-004	0.00000E+000	9.66509E-005	5.99601E-002	9.59761E-001	3.57890E+000	9	...........
	81	1.09333	9.64232E-001	1.00440E-004	0.00000E+000	9.68470E-005	5.99601E-002	9.64595E-001	3.57890E+000	9	...........
	82	1.10667	9.68957E-001	1.00792E-004	0.00000E+000	9.76629E-005	5.99601E-002	9.69315E-001	3.57890E+000	9	...........
	83	1.12	9.73628E-001	1.01370E-004	0.00000E+000	9.86966E-005	5.99601E-002	9.73958E-001	3.57890E+000	9	...........
	84	1.13333	9.78177E-001	1.00629E-004	0.00000E+000	9.84332E-005	5.99601E-002	9.78488E-001	3.57890E+000	9	...........
	85	1.14667	9.82580E-001	1.01374E-004	0.00000E+000	9.96082E-005	5.99601E-002	9.82911E-001	3.57890E+000	9	...........
	86	1.16	9.86919E-001	1.00809E-004	0.00000E+000	9.94907E-005	5.99601E-002	9.87251E-001	3.57890E+000	9	...........
	87	1.17333	9.91157E-001	1.00983E-004	0.00000E+000	1.00090E-004	5.99601E-002	9.91479E-001	3.57890E+000	9	...........
	88	1.18667	9.95321E-001	1.00646E-004	0.00000E+000	1.00175E-004	5.99601E-002	9.95616E-001	3.57890E+000	9	...........
	89	1.19667	9.98897E-001	1.00829E-004	0.00000E+000	1.00717E-004	5.99601E-002	9.99191E-001	3.57892E+000	9	...........
STARTTIMEOFFSET	QUANT	2008.493	Start Time Offset (s)
