EXPLAIN
TAG	PWR800_CHARGE
TITLE	LABEL	PWR Cyclic Charge Discharge (Cell) - Charge Step	Test &Identifier
DATE	LABEL	13-7-2017	Date
TIME	LABEL	15:29:50	Time
NOTES	NOTES	2	&Notes...
	supercap test cell
	6M KOH
PSTAT	PSTAT	IFC5000-01520	Potentiostat
CAPACITY	QUANT	1.00000E-003	Capacity (A-hr)
CELLTYPE	SELECTOR	1	&Cell Type
WORKINGCONNECTION	SELECTOR	0	&Working Lead
MAXCHARGETIME	VARIABLEANDUNITS	1.00000E+002	s	1.00000E+002	second(s)	Max &Charge Time
CHARGECURRENT	QUANT	1.00000E-004	&Charge Current (A) 
VOLTAGEFINISH	TWOPARAM	F	1.00000E-003	3.60000E+003	&Voltage Finish	 I (A) < 	Max Time(s)
SAMPLETIME	QUANT	1.00000E-002	Sa&mple Period (s)
CHARGESTOPAT1	MULTIPARAM	4	1.00000E+000	Charge Stop At &1	Voltage > Limit	V
CHARGESTOPAT2	MULTIPARAM	0	0.00000E+000	Charge Stop At &2	None	N/A
AESBHCSELECTOR	TOGGLE	F	Save Both Half Cells
IRCOMP	TOGGLE	F	IR &Measure
EOC	QUANT	0	Open Circuit (V)
SEQUENCER	TOGGLE	TRUE	Run as Sequence
PSTATMODEL	IQUANT	53	Pstat Model
PSTATSECTION	LABEL	IFC5000-01520	Pstat Section
PSTATSERIALNO	LABEL	01520	Pstat Serial Number
CTRLMODE	IQUANT	0	Control Mode
ELECTROMETER	IQUANT	1	RE=0 or CS=1
IESTAB	IQUANT	0	I/E Stability
CASPEED	IQUANT	4	Control Amp Speed
CONVENTION	IQUANT	1	Current Convention
ICHRANGE	IQUANT	2	Ich Range
ICHRANGEMODE	TOGGLE	T	Ich Auto Range
ICHOFFSETENABLE	TOGGLE	F	Ich Offset Enable
ICHOFFSET	QUANT	0	Ich Offset (V)
ICHFILTER	IQUANT	1	Ich Filter
VCHRANGE	IQUANT	2	Vch Range
VCHRANGEMODE	TOGGLE	T	Vch Auto Range
VCHOFFSETENABLE	TOGGLE	F	Vch Offset Enable
VCHOFFSET	QUANT	0	Vch Offset (V)
VCHFILTER	IQUANT	1	Vch Filter
IERANGELOWERLIMIT	IQUANT	9	I/E Range Lower Limit
IERANGEMODE	TOGGLE	F	I/E AutoRange
IERANGE	IQUANT	9	I/E Range
ACHSELECT	IQUANT	1	Ach Select
ACHRANGE	IQUANT	2	Ach Range
ACHOFFSETENABLE	TOGGLE	F	Ach Offset Enable
ACHOFFSET	QUANT	0	Ach Offset (V)
ACHFILTER	IQUANT	1	Ach Filter
CABLEID	IQUANT	14	Cable ID
DCCALDATE	LABEL	5-7-2017	DC Calibration Date
ACCALDATE	LABEL	12/3/2015	AC Calibration Date
FRAMEWORKVERSION	QUANT	7.01	Framework Version
INSTRUMENTVERSION	LABEL	4.00	Instrument Version
CURVE	TABLE	92
	Pt	T	Vf	Im	Vu	Pwr	Sig	Ach	Temp	IERange	Over
	#	s	V	A	V	W	V	V	deg C	#	bits
	0	0.013333	1.32208E-001	1.00375E-004	0.00000E+000	1.32704E-005	5.99601E-002	1.32255E-001	3.57860E+000	9	...........
	1	0.026667	1.47469E-001	1.00895E-004	0.00000E+000	1.48789E-005	5.99601E-002	1.47492E-001	3.57860E+000	9	...........
	2	0.04	1.62284E-001	1.00894E-004	0.00000E+000	1.63734E-005	5.99601E-002	1.62311E-001	3.57860E+000	9	...........
	3	0.053333	1.76825E-001	1.00762E-004	0.00000E+000	1.78172E-005	5.99601E-002	1.76859E-001	3.57860E+000	9	...........
	4	0.066667	1.91176E-001	1.00409E-004	0.00000E+000	1.91959E-005	5.99601E-002	1.91207E-001	3.57860E+000	9	...........
	5	0.08	2.05382E-001	1.00594E-004	0.00000E+000	2.06602E-005	5.99601E-002	2.05413E-001	3.57860E+000	9	...........
	6	0.093333	2.19483E-001	1.00682E-004	0.00000E+000	2.20981E-005	5.99601E-002	2.19518E-001	3.57860E+000	9	...........
	7	0.106667	2.33520E-001	1.02315E-004	0.00000E+000	2.38926E-005	5.99601E-002	2.33560E-001	3.57860E+000	9	...........
	8	0.12	2.47504E-001	1.00432E-004	0.00000E+000	2.48574E-005	5.99601E-002	2.47547E-001	3.57860E+000	9	...........
	9	0.133333	2.61458E-001	1.00302E-004	0.00000E+000	2.62247E-005	5.99601E-002	2.61507E-001	3.57860E+000	9	...........
	10	0.146667	2.75400E-001	1.01437E-004	0.00000E+000	2.79357E-005	5.99601E-002	2.75451E-001	3.57860E+000	9	...........
	11	0.16	2.89341E-001	1.00120E-004	0.00000E+000	2.89687E-005	5.99601E-002	2.89388E-001	3.57860E+000	9	...........
	12	0.173333	3.03286E-001	1.00621E-004	0.00000E+000	3.05170E-005	5.99601E-002	3.03344E-001	3.57860E+000	9	...........
	13	0.186667	3.17254E-001	9.96728E-005	0.00000E+000	3.16216E-005	5.99601E-002	3.17306E-001	3.57860E+000	9	...........
	14	0.2	3.31232E-001	1.01076E-004	0.00000E+000	3.34796E-005	5.99601E-002	3.31294E-001	3.57860E+000	9	...........
	15	0.213333	3.45238E-001	1.00841E-004	0.00000E+000	3.48141E-005	5.99601E-002	3.45301E-001	3.57860E+000	9	...........
	16	0.226667	3.59262E-001	1.00696E-004	0.00000E+000	3.61762E-005	5.99601E-002	3.59328E-001	3.57860E+000	9	...........
	17	0.24	3.73287E-001	1.00795E-004	0.00000E+000	3.76255E-005	5.99601E-002	3.73361E-001	3.57860E+000	9	...........
	18	0.253333	3.87320E-001	1.00848E-004	0.00000E+000	3.90605E-005	5.99601E-002	3.87391E-001	3.57860E+000	9	...........
	19	0.266667	4.01334E-001	1.00718E-004	0.00000E+000	4.04215E-005	5.99601E-002	4.01410E-001	3.57860E+000	9	...........
	20	0.28	4.15320E-001	1.00710E-004	0.00000E+000	4.18271E-005	5.99601E-002	4.15405E-001	3.57860E+000	9	...........
	21	0.293333	4.29254E-001	9.99395E-005	0.00000E+000	4.28995E-005	5.99601E-002	4.29342E-001	3.57860E+000	9	...........
	22	0.306667	4.43132E-001	1.01039E-004	0.00000E+000	4.47735E-005	5.99601E-002	4.43219E-001	3.57860E+000	9	...........
	23	0.32	4.56913E-001	1.00496E-004	0.00000E+000	4.59179E-005	5.99601E-002	4.57005E-001	3.57860E+000	9	...........
	24	0.333333	4.70583E-001	1.01005E-004	0.00000E+000	4.75314E-005	5.99601E-002	4.70679E-001	3.57860E+000	9	...........
	25	0.346667	4.84127E-001	1.01807E-004	0.00000E+000	4.92873E-005	5.99601E-002	4.84222E-001	3.57860E+000	9	...........
	26	0.36	4.97513E-001	1.01026E-004	0.00000E+000	5.02619E-005	5.99601E-002	4.97615E-001	3.57860E+000	9	...........
	27	0.373333	5.10733E-001	1.00159E-004	0.00000E+000	5.11546E-005	5.99601E-002	5.10837E-001	3.57860E+000	9	...........
	28	0.386667	5.23763E-001	1.00374E-004	0.00000E+000	5.25721E-005	5.99601E-002	5.23876E-001	3.57860E+000	9	...........
	29	0.4	5.36383E-001	1.00162E-004	0.00000E+000	5.37254E-005	5.99601E-002	5.36559E-001	3.57860E+000	9	...........
	30	0.413333	5.48869E-001	1.01197E-004	0.00000E+000	5.55440E-005	5.99601E-002	5.49154E-001	3.57860E+000	9	...........
	31	0.426667	5.61294E-001	1.00536E-004	0.00000E+000	5.64305E-005	5.99601E-002	5.61556E-001	3.57860E+000	9	...........
	32	0.44	5.73511E-001	1.01343E-004	0.00000E+000	5.81213E-005	5.99601E-002	5.73791E-001	3.57860E+000	9	...........
	33	0.453333	5.85448E-001	1.00756E-004	0.00000E+000	5.89876E-005	5.99601E-002	5.85738E-001	3.57860E+000	9	...........
	34	0.466667	5.97216E-001	1.00753E-004	0.00000E+000	6.01714E-005	5.99601E-002	5.97490E-001	3.57860E+000	9	...........
	35	0.48	6.08694E-001	1.01937E-004	0.00000E+000	6.20483E-005	5.99601E-002	6.09028E-001	3.57860E+000	9	...........
	36	0.493333	6.20028E-001	1.00456E-004	0.00000E+000	6.22857E-005	5.99601E-002	6.20317E-001	3.57860E+000	9	...........
	37	0.506667	6.31087E-001	1.01839E-004	0.00000E+000	6.42692E-005	5.99601E-002	6.31361E-001	3.57860E+000	9	...........
	38	0.52	6.41942E-001	1.00754E-004	0.00000E+000	6.46784E-005	5.99601E-002	6.42208E-001	3.57882E+000	9	...........
	39	0.533333	6.52571E-001	1.01630E-004	0.00000E+000	6.63211E-005	5.99601E-002	6.52864E-001	3.57910E+000	9	...........
	40	0.546667	6.62968E-001	1.00385E-004	0.00000E+000	6.65523E-005	5.99601E-002	6.63250E-001	3.57910E+000	9	...........
	41	0.56	6.73195E-001	1.00740E-004	0.00000E+000	6.78175E-005	5.99601E-002	6.73453E-001	3.57910E+000	9	...........
	42	0.573333	6.83201E-001	1.01219E-004	0.00000E+000	6.91529E-005	5.99601E-002	6.83439E-001	3.57910E+000	9	...........
	43	0.586667	6.92985E-001	1.00971E-004	0.00000E+000	6.99714E-005	5.99601E-002	6.93250E-001	3.57910E+000	9	...........
	44	0.6	7.02580E-001	1.00457E-004	0.00000E+000	7.05793E-005	5.99601E-002	7.02860E-001	3.57910E+000	9	...........
	45	0.613333	7.11986E-001	1.01325E-004	0.00000E+000	7.21421E-005	5.99601E-002	7.12258E-001	3.57910E+000	9	...........
	46	0.626667	7.21254E-001	1.00230E-004	0.00000E+000	7.22914E-005	5.99601E-002	7.21520E-001	3.57910E+000	9	...........
	47	0.64	7.30308E-001	1.00858E-004	0.00000E+000	7.36577E-005	5.99601E-002	7.30558E-001	3.57910E+000	9	...........
	48	0.653333	7.39182E-001	1.00883E-004	0.00000E+000	7.45712E-005	5.99601E-002	7.39434E-001	3.57910E+000	9	...........
	49	0.666667	7.47873E-001	1.01595E-004	0.00000E+000	7.59802E-005	5.99601E-002	7.48140E-001	3.57910E+000	9	...........
	50	0.68	7.56436E-001	1.01608E-004	0.00000E+000	7.68596E-005	5.99601E-002	7.56682E-001	3.57910E+000	9	...........
	51	0.693333	7.64775E-001	1.00820E-004	0.00000E+000	7.71046E-005	5.99601E-002	7.65061E-001	3.57910E+000	9	...........
	52	0.706667	7.73017E-001	1.00881E-004	0.00000E+000	7.79830E-005	5.99601E-002	7.73267E-001	3.57910E+000	9	...........
	53	0.72	7.81066E-001	1.00521E-004	0.00000E+000	7.85135E-005	5.99601E-002	7.81349E-001	3.57910E+000	9	...........
	54	0.733333	7.88991E-001	1.00709E-004	0.00000E+000	7.94588E-005	5.99601E-002	7.89255E-001	3.57910E+000	9	...........
	55	0.746667	7.96770E-001	1.00474E-004	0.00000E+000	8.00546E-005	5.99601E-002	7.97042E-001	3.57910E+000	9	...........
	56	0.76	8.04377E-001	1.00891E-004	0.00000E+000	8.11542E-005	5.99601E-002	8.04658E-001	3.57910E+000	9	...........
	57	0.773333	8.11833E-001	1.00372E-004	0.00000E+000	8.14852E-005	5.99601E-002	8.12143E-001	3.57910E+000	9	...........
	58	0.786667	8.19185E-001	1.01049E-004	0.00000E+000	8.27780E-005	5.99601E-002	8.19502E-001	3.57910E+000	9	...........
	59	0.8	8.26407E-001	1.01554E-004	0.00000E+000	8.39253E-005	5.99601E-002	8.26692E-001	3.57910E+000	9	...........
	60	0.813333	8.33454E-001	1.00051E-004	0.00000E+000	8.33879E-005	5.99601E-002	8.33781E-001	3.57910E+000	9	...........
	61	0.826667	8.40408E-001	1.00934E-004	0.00000E+000	8.48262E-005	5.99601E-002	8.40726E-001	3.57910E+000	9	...........
	62	0.84	8.47267E-001	1.01671E-004	0.00000E+000	8.61426E-005	5.99601E-002	8.47600E-001	3.57910E+000	9	...........
	63	0.853333	8.53948E-001	1.00805E-004	0.00000E+000	8.60825E-005	5.99601E-002	8.54317E-001	3.57910E+000	9	...........
	64	0.866667	8.60567E-001	1.00435E-004	0.00000E+000	8.64314E-005	5.99601E-002	8.60909E-001	3.57910E+000	9	...........
	65	0.88	8.67017E-001	1.00319E-004	0.00000E+000	8.69780E-005	5.99601E-002	8.67398E-001	3.57910E+000	9	...........
	66	0.893333	8.73405E-001	1.00756E-004	0.00000E+000	8.80011E-005	5.99601E-002	8.73777E-001	3.57910E+000	9	...........
	67	0.906667	8.79647E-001	1.01638E-004	0.00000E+000	8.94053E-005	5.99601E-002	8.79988E-001	3.57910E+000	9	...........
	68	0.92	8.85819E-001	1.01989E-004	0.00000E+000	9.03437E-005	5.99601E-002	8.86152E-001	3.57910E+000	9	...........
	69	0.933333	8.91834E-001	1.00224E-004	0.00000E+000	8.93831E-005	5.99601E-002	8.92177E-001	3.57910E+000	9	...........
	70	0.946667	8.97752E-001	1.01099E-004	0.00000E+000	9.07619E-005	5.99601E-002	8.98122E-001	3.57910E+000	9	...........
	71	0.96	9.03582E-001	1.00256E-004	0.00000E+000	9.05897E-005	5.99601E-002	9.03932E-001	3.57910E+000	9	...........
	72	0.97333	9.09306E-001	1.01741E-004	0.00000E+000	9.25136E-005	5.99601E-002	9.09659E-001	3.57910E+000	9	...........
	73	0.98667	9.14902E-001	1.01253E-004	0.00000E+000	9.26369E-005	5.99601E-002	9.15267E-001	3.57910E+000	9	...........
	74	1	9.20470E-001	1.01354E-004	0.00000E+000	9.32937E-005	5.99601E-002	9.20779E-001	3.57910E+000	9	...........
	75	1.01333	9.25901E-001	1.00767E-004	0.00000E+000	9.33001E-005	5.99601E-002	9.26184E-001	3.57910E+000	9	...........
	76	1.02667	9.31208E-001	1.00179E-004	0.00000E+000	9.32876E-005	5.99601E-002	9.31495E-001	3.57910E+000	9	...........
	77	1.04	9.36416E-001	1.01006E-004	0.00000E+000	9.45840E-005	5.99601E-002	9.36737E-001	3.57910E+000	9	...........
	78	1.05333	9.41537E-001	1.01625E-004	0.00000E+000	9.56839E-005	5.99601E-002	9.41844E-001	3.57910E+000	9	...........
	79	1.06667	9.46566E-001	1.01497E-004	0.00000E+000	9.60738E-005	5.99601E-002	9.46904E-001	3.57910E+000	9	...........
	80	1.08	9.51513E-001	1.00995E-004	0.00000E+000	9.60980E-005	5.99601E-002	9.51868E-001	3.57910E+000	9	...........
	81	1.09333	9.56320E-001	1.00676E-004	0.00000E+000	9.62786E-005	5.99601E-002	9.56673E-001	3.57910E+000	9	...........
	82	1.10667	9.61039E-001	1.00454E-004	0.00000E+000	9.65404E-005	5.99601E-002	9.61411E-001	3.57910E+000	9	...........
	83	1.12	9.65673E-001	1.01678E-004	0.00000E+000	9.81881E-005	5.99601E-002	9.66031E-001	3.57910E+000	9	...........
	84	1.13333	9.70214E-001	1.00662E-004	0.00000E+000	9.76632E-005	5.99601E-002	9.70600E-001	3.57910E+000	9	...........
	85	1.14667	9.74717E-001	1.00689E-004	0.00000E+000	9.81429E-005	5.99601E-002	9.75063E-001	3.57910E+000	9	...........
	86	1.16	9.79078E-001	1.00558E-004	0.00000E+000	9.84545E-005	5.99601E-002	9.79439E-001	3.57910E+000	9	...........
	87	1.17333	9.83350E-001	1.00741E-004	0.00000E+000	9.90634E-005	5.99601E-002	9.83697E-001	3.57910E+000	9	...........
	88	1.18667	9.87526E-001	1.00858E-004	0.00000E+000	9.96004E-005	5.99601E-002	9.87877E-001	3.57910E+000	9	...........
	89	1.2	9.91627E-001	1.01216E-004	0.00000E+000	1.00368E-004	5.99601E-002	9.91970E-001	3.57910E+000	9	...........
	90	1.21333	9.95631E-001	1.01525E-004	0.00000E+000	1.01082E-004	5.99601E-002	9.95972E-001	3.57910E+000	9	...........
	91	1.22333	9.99096E-001	1.00077E-004	0.00000E+000	9.99865E-005	5.99601E-002	9.99444E-001	3.57910E+000	9	...........
STARTTIMEOFFSET	QUANT	1258.875	Start Time Offset (s)
