EXPLAIN
TAG	PWR800_CHARGE
TITLE	LABEL	PWR Cyclic Charge Discharge (Cell) - Charge Step	Test &Identifier
DATE	LABEL	13-7-2017	Date
TIME	LABEL	15:28:59	Time
NOTES	NOTES	2	&Notes...
	supercap test cell
	6M KOH
PSTAT	PSTAT	IFC5000-01520	Potentiostat
CAPACITY	QUANT	1.00000E-003	Capacity (A-hr)
CELLTYPE	SELECTOR	1	&Cell Type
WORKINGCONNECTION	SELECTOR	0	&Working Lead
MAXCHARGETIME	VARIABLEANDUNITS	1.00000E+002	s	1.00000E+002	second(s)	Max &Charge Time
CHARGECURRENT	QUANT	1.00000E-004	&Charge Current (A) 
VOLTAGEFINISH	TWOPARAM	F	1.00000E-003	3.60000E+003	&Voltage Finish	 I (A) < 	Max Time(s)
SAMPLETIME	QUANT	1.00000E-002	Sa&mple Period (s)
CHARGESTOPAT1	MULTIPARAM	4	1.00000E+000	Charge Stop At &1	Voltage > Limit	V
CHARGESTOPAT2	MULTIPARAM	0	0.00000E+000	Charge Stop At &2	None	N/A
AESBHCSELECTOR	TOGGLE	F	Save Both Half Cells
IRCOMP	TOGGLE	F	IR &Measure
EOC	QUANT	0	Open Circuit (V)
SEQUENCER	TOGGLE	TRUE	Run as Sequence
PSTATMODEL	IQUANT	53	Pstat Model
PSTATSECTION	LABEL	IFC5000-01520	Pstat Section
PSTATSERIALNO	LABEL	01520	Pstat Serial Number
CTRLMODE	IQUANT	0	Control Mode
ELECTROMETER	IQUANT	1	RE=0 or CS=1
IESTAB	IQUANT	0	I/E Stability
CASPEED	IQUANT	4	Control Amp Speed
CONVENTION	IQUANT	1	Current Convention
ICHRANGE	IQUANT	2	Ich Range
ICHRANGEMODE	TOGGLE	T	Ich Auto Range
ICHOFFSETENABLE	TOGGLE	F	Ich Offset Enable
ICHOFFSET	QUANT	0	Ich Offset (V)
ICHFILTER	IQUANT	1	Ich Filter
VCHRANGE	IQUANT	2	Vch Range
VCHRANGEMODE	TOGGLE	T	Vch Auto Range
VCHOFFSETENABLE	TOGGLE	F	Vch Offset Enable
VCHOFFSET	QUANT	0	Vch Offset (V)
VCHFILTER	IQUANT	1	Vch Filter
IERANGELOWERLIMIT	IQUANT	9	I/E Range Lower Limit
IERANGEMODE	TOGGLE	F	I/E AutoRange
IERANGE	IQUANT	9	I/E Range
ACHSELECT	IQUANT	1	Ach Select
ACHRANGE	IQUANT	2	Ach Range
ACHOFFSETENABLE	TOGGLE	F	Ach Offset Enable
ACHOFFSET	QUANT	0	Ach Offset (V)
ACHFILTER	IQUANT	1	Ach Filter
CABLEID	IQUANT	14	Cable ID
DCCALDATE	LABEL	5-7-2017	DC Calibration Date
ACCALDATE	LABEL	12/3/2015	AC Calibration Date
FRAMEWORKVERSION	QUANT	7.01	Framework Version
INSTRUMENTVERSION	LABEL	4.00	Instrument Version
CURVE	TABLE	92
	Pt	T	Vf	Im	Vu	Pwr	Sig	Ach	Temp	IERange	Over
	#	s	V	A	V	W	V	V	deg C	#	bits
	0	0.013333	1.34435E-001	1.01170E-004	0.00000E+000	1.36008E-005	5.99601E-002	1.34480E-001	3.57850E+000	9	...........
	1	0.026667	1.49688E-001	1.01711E-004	0.00000E+000	1.52249E-005	5.99601E-002	1.49709E-001	3.57850E+000	9	...........
	2	0.04	1.64497E-001	9.99864E-005	0.00000E+000	1.64475E-005	5.99601E-002	1.64526E-001	3.57850E+000	9	...........
	3	0.053333	1.79049E-001	1.00032E-004	0.00000E+000	1.79106E-005	5.99601E-002	1.79077E-001	3.57850E+000	9	...........
	4	0.066667	1.93412E-001	1.00976E-004	0.00000E+000	1.95300E-005	5.99601E-002	1.93446E-001	3.57850E+000	9	...........
	5	0.08	2.07636E-001	1.00849E-004	0.00000E+000	2.09399E-005	5.99601E-002	2.07670E-001	3.57850E+000	9	...........
	6	0.093333	2.21758E-001	1.01255E-004	0.00000E+000	2.24542E-005	5.99601E-002	2.21795E-001	3.57850E+000	9	...........
	7	0.106667	2.35807E-001	1.00509E-004	0.00000E+000	2.37008E-005	5.99601E-002	2.35843E-001	3.57850E+000	9	...........
	8	0.12	2.49804E-001	1.01492E-004	0.00000E+000	2.53531E-005	5.99601E-002	2.49850E-001	3.57850E+000	9	...........
	9	0.133333	2.63771E-001	1.00323E-004	0.00000E+000	2.64623E-005	5.99601E-002	2.63822E-001	3.57850E+000	9	...........
	10	0.146667	2.77727E-001	1.00999E-004	0.00000E+000	2.80502E-005	5.99601E-002	2.77784E-001	3.57850E+000	9	...........
	11	0.16	2.91686E-001	1.01072E-004	0.00000E+000	2.94813E-005	5.99601E-002	2.91743E-001	3.57850E+000	9	...........
	12	0.173333	3.05650E-001	1.00588E-004	0.00000E+000	3.07446E-005	5.99601E-002	3.05709E-001	3.57850E+000	9	...........
	13	0.186667	3.19634E-001	1.00940E-004	0.00000E+000	3.22638E-005	5.99601E-002	3.19694E-001	3.57850E+000	9	...........
	14	0.2	3.33634E-001	1.00259E-004	0.00000E+000	3.34499E-005	5.99601E-002	3.33697E-001	3.57850E+000	9	...........
	15	0.213333	3.47646E-001	1.00099E-004	0.00000E+000	3.47990E-005	5.99601E-002	3.47713E-001	3.57850E+000	9	...........
	16	0.226667	3.61672E-001	1.00955E-004	0.00000E+000	3.65127E-005	5.99601E-002	3.61743E-001	3.57850E+000	9	...........
	17	0.24	3.75710E-001	1.01063E-004	0.00000E+000	3.79702E-005	5.99601E-002	3.75780E-001	3.57850E+000	9	...........
	18	0.253333	3.89743E-001	1.01466E-004	0.00000E+000	3.95456E-005	5.99601E-002	3.89812E-001	3.57850E+000	9	...........
	19	0.266667	4.03757E-001	1.00075E-004	0.00000E+000	4.04060E-005	5.99601E-002	4.03837E-001	3.57850E+000	9	...........
	20	0.28	4.17735E-001	1.00635E-004	0.00000E+000	4.20390E-005	5.99601E-002	4.17821E-001	3.57850E+000	9	...........
	21	0.293333	4.31662E-001	1.00787E-004	0.00000E+000	4.35057E-005	5.99601E-002	4.31750E-001	3.57850E+000	9	...........
	22	0.306667	4.45513E-001	1.00320E-004	0.00000E+000	4.46937E-005	5.99601E-002	4.45605E-001	3.57850E+000	9	...........
	23	0.32	4.59272E-001	1.00340E-004	0.00000E+000	4.60832E-005	5.99601E-002	4.59364E-001	3.57850E+000	9	...........
	24	0.333333	4.72916E-001	1.00399E-004	0.00000E+000	4.74803E-005	5.99601E-002	4.73009E-001	3.57850E+000	9	...........
	25	0.346667	4.86417E-001	1.00976E-004	0.00000E+000	4.91165E-005	5.99601E-002	4.86511E-001	3.57850E+000	9	...........
	26	0.36	4.99757E-001	1.00241E-004	0.00000E+000	5.00960E-005	5.99601E-002	4.99863E-001	3.57850E+000	9	...........
	27	0.373333	5.12937E-001	1.00784E-004	0.00000E+000	5.16961E-005	5.99601E-002	5.13042E-001	3.57850E+000	9	...........
	28	0.386667	5.25926E-001	1.00676E-004	0.00000E+000	5.29482E-005	5.99601E-002	5.26034E-001	3.57850E+000	9	...........
	29	0.4	5.38390E-001	1.01877E-004	0.00000E+000	5.48498E-005	5.99601E-002	5.38619E-001	3.57850E+000	9	...........
	30	0.413333	5.50919E-001	1.01655E-004	0.00000E+000	5.60039E-005	5.99601E-002	5.51166E-001	3.57850E+000	9	...........
	31	0.426667	5.63270E-001	1.00144E-004	0.00000E+000	5.64079E-005	5.99601E-002	5.63545E-001	3.57850E+000	9	...........
	32	0.44	5.75420E-001	9.99166E-005	0.00000E+000	5.74940E-005	5.99601E-002	5.75683E-001	3.57850E+000	9	...........
	33	0.453333	5.87313E-001	1.01429E-004	0.00000E+000	5.95709E-005	5.99601E-002	5.87600E-001	3.57850E+000	9	...........
	34	0.466667	5.98999E-001	1.00214E-004	0.00000E+000	6.00278E-005	5.99601E-002	5.99292E-001	3.57850E+000	9	...........
	35	0.48	6.10442E-001	1.00802E-004	0.00000E+000	6.15339E-005	5.99601E-002	6.10721E-001	3.57850E+000	9	...........
	36	0.493333	6.21709E-001	1.00818E-004	0.00000E+000	6.26793E-005	5.99601E-002	6.21958E-001	3.57850E+000	9	...........
	37	0.506667	6.32693E-001	1.01007E-004	0.00000E+000	6.39067E-005	5.99601E-002	6.32967E-001	3.57850E+000	9	...........
	38	0.52	6.43506E-001	1.00207E-004	0.00000E+000	6.44839E-005	5.99601E-002	6.43761E-001	3.57850E+000	9	...........
	39	0.533333	6.54072E-001	1.00285E-004	0.00000E+000	6.55939E-005	5.99601E-002	6.54335E-001	3.57850E+000	9	...........
	40	0.546667	6.64429E-001	1.01095E-004	0.00000E+000	6.71705E-005	5.99601E-002	6.64690E-001	3.57850E+000	9	...........
	41	0.56	6.74578E-001	1.01161E-004	0.00000E+000	6.82407E-005	5.99601E-002	6.74858E-001	3.57850E+000	9	...........
	42	0.573333	6.84516E-001	1.01458E-004	0.00000E+000	6.94493E-005	5.99601E-002	6.84784E-001	3.57850E+000	9	...........
	43	0.586667	6.94277E-001	1.01469E-004	0.00000E+000	7.04476E-005	5.99601E-002	6.94544E-001	3.57850E+000	9	...........
	44	0.6	7.03814E-001	1.01211E-004	0.00000E+000	7.12334E-005	5.99601E-002	7.04090E-001	3.57850E+000	9	...........
	45	0.613333	7.13164E-001	1.01436E-004	0.00000E+000	7.23402E-005	5.99601E-002	7.13463E-001	3.57850E+000	9	...........
	46	0.626667	7.22402E-001	1.00794E-004	0.00000E+000	7.28137E-005	5.99601E-002	7.22648E-001	3.57850E+000	9	...........
	47	0.64	7.31395E-001	1.01688E-004	0.00000E+000	7.43740E-005	5.99601E-002	7.31655E-001	3.57850E+000	9	...........
	48	0.653333	7.40213E-001	1.00476E-004	0.00000E+000	7.43736E-005	5.99601E-002	7.40453E-001	3.57850E+000	9	...........
	49	0.666667	7.48886E-001	1.00911E-004	0.00000E+000	7.55705E-005	5.99601E-002	7.49121E-001	3.57850E+000	9	...........
	50	0.68	7.57380E-001	1.01080E-004	0.00000E+000	7.65563E-005	5.99601E-002	7.57612E-001	3.57850E+000	9	...........
	51	0.693333	7.65708E-001	1.00874E-004	0.00000E+000	7.72401E-005	5.99601E-002	7.65944E-001	3.57850E+000	9	...........
	52	0.706667	7.73851E-001	1.01378E-004	0.00000E+000	7.84517E-005	5.99601E-002	7.74134E-001	3.57850E+000	9	...........
	53	0.72	7.81882E-001	1.00171E-004	0.00000E+000	7.83217E-005	5.99601E-002	7.82134E-001	3.57850E+000	9	...........
	54	0.733333	7.89727E-001	1.00842E-004	0.00000E+000	7.96375E-005	5.99601E-002	7.90017E-001	3.57850E+000	9	...........
	55	0.746667	7.97492E-001	1.00543E-004	0.00000E+000	8.01821E-005	5.99601E-002	7.97768E-001	3.57850E+000	9	...........
	56	0.76	8.05028E-001	9.98759E-005	0.00000E+000	8.04029E-005	5.99601E-002	8.05321E-001	3.57850E+000	9	...........
	57	0.773333	8.12465E-001	1.00476E-004	0.00000E+000	8.16333E-005	5.99601E-002	8.12771E-001	3.57850E+000	9	...........
	58	0.786667	8.19778E-001	1.00394E-004	0.00000E+000	8.23006E-005	5.99601E-002	8.20122E-001	3.57850E+000	9	...........
	59	0.8	8.26968E-001	9.99635E-005	0.00000E+000	8.26666E-005	5.99601E-002	8.27285E-001	3.57885E+000	9	...........
	60	0.813333	8.33993E-001	1.00624E-004	0.00000E+000	8.39198E-005	5.99601E-002	8.34333E-001	3.57990E+000	9	...........
	61	0.826667	8.40903E-001	1.00874E-004	0.00000E+000	8.48254E-005	5.99601E-002	8.41253E-001	3.57990E+000	9	...........
	62	0.84	8.47750E-001	1.01409E-004	0.00000E+000	8.59691E-005	5.99601E-002	8.48097E-001	3.57990E+000	9	...........
	63	0.853333	8.54431E-001	1.02322E-004	0.00000E+000	8.74273E-005	5.99601E-002	8.54764E-001	3.57990E+000	9	...........
	64	0.866667	8.60955E-001	1.00550E-004	0.00000E+000	8.65690E-005	5.99601E-002	8.61353E-001	3.57990E+000	9	...........
	65	0.88	8.67423E-001	1.00755E-004	0.00000E+000	8.73975E-005	5.99601E-002	8.67787E-001	3.57990E+000	9	...........
	66	0.893333	8.73778E-001	1.01965E-004	0.00000E+000	8.90947E-005	5.99601E-002	8.74161E-001	3.57990E+000	9	...........
	67	0.906667	8.80004E-001	1.01347E-004	0.00000E+000	8.91859E-005	5.99601E-002	8.80368E-001	3.57990E+000	9	...........
	68	0.92	8.86104E-001	1.00520E-004	0.00000E+000	8.90710E-005	5.99601E-002	8.86492E-001	3.57990E+000	9	...........
	69	0.933333	8.92134E-001	9.99176E-005	0.00000E+000	8.91399E-005	5.99601E-002	8.92497E-001	3.57990E+000	9	...........
	70	0.946667	8.98022E-001	1.00958E-004	0.00000E+000	9.06629E-005	5.99601E-002	8.98408E-001	3.57990E+000	9	...........
	71	0.96	9.03814E-001	1.00789E-004	0.00000E+000	9.10942E-005	5.99601E-002	9.04194E-001	3.57990E+000	9	...........
	72	0.97333	9.09538E-001	9.99437E-005	0.00000E+000	9.09025E-005	5.99601E-002	9.09874E-001	3.57990E+000	9	...........
	73	0.98667	9.15103E-001	1.00393E-004	0.00000E+000	9.18697E-005	5.99601E-002	9.15450E-001	3.57990E+000	9	...........
	74	1	9.20632E-001	1.00628E-004	0.00000E+000	9.26415E-005	5.99601E-002	9.20945E-001	3.57990E+000	9	...........
	75	1.01333	9.26045E-001	1.01176E-004	0.00000E+000	9.36937E-005	5.99601E-002	9.26344E-001	3.57990E+000	9	...........
	76	1.02667	9.31337E-001	1.00975E-004	0.00000E+000	9.40419E-005	5.99601E-002	9.31626E-001	3.57990E+000	9	...........
	77	1.04	9.36501E-001	1.00612E-004	0.00000E+000	9.42228E-005	5.99601E-002	9.36831E-001	3.57990E+000	9	...........
	78	1.05333	9.41594E-001	9.94321E-005	0.00000E+000	9.36247E-005	5.99601E-002	9.41904E-001	3.57990E+000	9	...........
	79	1.06667	9.46608E-001	1.01049E-004	0.00000E+000	9.56538E-005	5.99601E-002	9.46911E-001	3.57990E+000	9	...........
	80	1.08	9.51527E-001	1.00769E-004	0.00000E+000	9.58843E-005	5.99601E-002	9.51844E-001	3.57990E+000	9	...........
	81	1.09333	9.56321E-001	1.00854E-004	0.00000E+000	9.64491E-005	5.99601E-002	9.56626E-001	3.57990E+000	9	...........
	82	1.10667	9.61030E-001	1.01282E-004	0.00000E+000	9.73355E-005	5.99601E-002	9.61358E-001	3.57990E+000	9	...........
	83	1.12	9.65652E-001	1.00777E-004	0.00000E+000	9.73157E-005	5.99601E-002	9.65984E-001	3.57990E+000	9	...........
	84	1.13333	9.70172E-001	1.01577E-004	0.00000E+000	9.85475E-005	5.99601E-002	9.70533E-001	3.57990E+000	9	...........
	85	1.14667	9.74685E-001	1.00199E-004	0.00000E+000	9.76624E-005	5.99601E-002	9.74999E-001	3.57990E+000	9	...........
	86	1.16	9.79022E-001	1.00988E-004	0.00000E+000	9.88691E-005	5.99601E-002	9.79349E-001	3.57990E+000	9	...........
	87	1.17333	9.83257E-001	1.00870E-004	0.00000E+000	9.91811E-005	5.99601E-002	9.83610E-001	3.57990E+000	9	...........
	88	1.18667	9.87443E-001	1.00382E-004	0.00000E+000	9.91218E-005	5.99601E-002	9.87804E-001	3.57990E+000	9	...........
	89	1.2	9.91528E-001	1.01725E-004	0.00000E+000	1.00863E-004	5.99601E-002	9.91887E-001	3.57990E+000	9	...........
	90	1.21333	9.95529E-001	1.00985E-004	0.00000E+000	1.00533E-004	5.99601E-002	9.95899E-001	3.57990E+000	9	...........
	91	1.22333	9.98982E-001	1.01038E-004	0.00000E+000	1.00936E-004	5.99601E-002	9.99354E-001	3.57990E+000	9	...........
STARTTIMEOFFSET	QUANT	1220.704	Start Time Offset (s)
