EXPLAIN
TAG	PWR800_CHARGE
TITLE	LABEL	PWR Cyclic Charge Discharge (Cell) - Charge Step	Test &Identifier
DATE	LABEL	13-7-2017	Date
TIME	LABEL	15:14:36	Time
NOTES	NOTES	2	&Notes...
	supercap test cell
	6M KOH
PSTAT	PSTAT	IFC5000-01520	Potentiostat
CAPACITY	QUANT	1.00000E-003	Capacity (A-hr)
CELLTYPE	SELECTOR	1	&Cell Type
WORKINGCONNECTION	SELECTOR	0	&Working Lead
MAXCHARGETIME	VARIABLEANDUNITS	1.00000E+002	s	1.00000E+002	second(s)	Max &Charge Time
CHARGECURRENT	QUANT	1.00000E-004	&Charge Current (A) 
VOLTAGEFINISH	TWOPARAM	F	1.00000E-003	3.60000E+003	&Voltage Finish	 I (A) < 	Max Time(s)
SAMPLETIME	QUANT	1.00000E-002	Sa&mple Period (s)
CHARGESTOPAT1	MULTIPARAM	4	1.00000E+000	Charge Stop At &1	Voltage > Limit	V
CHARGESTOPAT2	MULTIPARAM	0	0.00000E+000	Charge Stop At &2	None	N/A
AESBHCSELECTOR	TOGGLE	F	Save Both Half Cells
IRCOMP	TOGGLE	F	IR &Measure
EOC	QUANT	0	Open Circuit (V)
SEQUENCER	TOGGLE	TRUE	Run as Sequence
PSTATMODEL	IQUANT	53	Pstat Model
PSTATSECTION	LABEL	IFC5000-01520	Pstat Section
PSTATSERIALNO	LABEL	01520	Pstat Serial Number
CTRLMODE	IQUANT	0	Control Mode
ELECTROMETER	IQUANT	1	RE=0 or CS=1
IESTAB	IQUANT	0	I/E Stability
CASPEED	IQUANT	4	Control Amp Speed
CONVENTION	IQUANT	1	Current Convention
ICHRANGE	IQUANT	2	Ich Range
ICHRANGEMODE	TOGGLE	T	Ich Auto Range
ICHOFFSETENABLE	TOGGLE	F	Ich Offset Enable
ICHOFFSET	QUANT	0	Ich Offset (V)
ICHFILTER	IQUANT	1	Ich Filter
VCHRANGE	IQUANT	2	Vch Range
VCHRANGEMODE	TOGGLE	T	Vch Auto Range
VCHOFFSETENABLE	TOGGLE	F	Vch Offset Enable
VCHOFFSET	QUANT	0	Vch Offset (V)
VCHFILTER	IQUANT	1	Vch Filter
IERANGELOWERLIMIT	IQUANT	9	I/E Range Lower Limit
IERANGEMODE	TOGGLE	F	I/E AutoRange
IERANGE	IQUANT	9	I/E Range
ACHSELECT	IQUANT	1	Ach Select
ACHRANGE	IQUANT	2	Ach Range
ACHOFFSETENABLE	TOGGLE	F	Ach Offset Enable
ACHOFFSET	QUANT	0	Ach Offset (V)
ACHFILTER	IQUANT	1	Ach Filter
CABLEID	IQUANT	14	Cable ID
DCCALDATE	LABEL	5-7-2017	DC Calibration Date
ACCALDATE	LABEL	12/3/2015	AC Calibration Date
FRAMEWORKVERSION	QUANT	7.01	Framework Version
INSTRUMENTVERSION	LABEL	4.00	Instrument Version
CURVE	TABLE	96
	Pt	T	Vf	Im	Vu	Pwr	Sig	Ach	Temp	IERange	Over
	#	s	V	A	V	W	V	V	deg C	#	bits
	0	0.013333	1.33867E-001	1.00492E-004	0.00000E+000	1.34526E-005	5.99601E-002	1.33907E-001	3.57910E+000	9	...........
	1	0.026667	1.49078E-001	1.01455E-004	0.00000E+000	1.51248E-005	5.99601E-002	1.49098E-001	3.57910E+000	9	...........
	2	0.04	1.63855E-001	1.00517E-004	0.00000E+000	1.64702E-005	5.99601E-002	1.63879E-001	3.57910E+000	9	...........
	3	0.053333	1.78367E-001	1.00145E-004	0.00000E+000	1.78625E-005	5.99601E-002	1.78396E-001	3.57910E+000	9	...........
	4	0.066667	1.92693E-001	1.01565E-004	0.00000E+000	1.95708E-005	5.99601E-002	1.92723E-001	3.57910E+000	9	...........
	5	0.08	2.06866E-001	1.00395E-004	0.00000E+000	2.07683E-005	5.99601E-002	2.06896E-001	3.57910E+000	9	...........
	6	0.093333	2.20938E-001	1.00435E-004	0.00000E+000	2.21900E-005	5.99601E-002	2.20970E-001	3.57910E+000	9	...........
	7	0.106667	2.34936E-001	1.00759E-004	0.00000E+000	2.36720E-005	5.99601E-002	2.34978E-001	3.57910E+000	9	...........
	8	0.12	2.48884E-001	1.00516E-004	0.00000E+000	2.50167E-005	5.99601E-002	2.48930E-001	3.57910E+000	9	...........
	9	0.133333	2.62791E-001	1.00102E-004	0.00000E+000	2.63059E-005	5.99601E-002	2.62844E-001	3.57910E+000	9	...........
	10	0.146667	2.76684E-001	1.00806E-004	0.00000E+000	2.78915E-005	5.99601E-002	2.76739E-001	3.57910E+000	9	...........
	11	0.16	2.90564E-001	9.94894E-005	0.00000E+000	2.89081E-005	5.99601E-002	2.90626E-001	3.57910E+000	9	...........
	12	0.173333	3.04444E-001	1.00603E-004	0.00000E+000	3.06281E-005	5.99601E-002	3.04504E-001	3.57910E+000	9	...........
	13	0.186667	3.18326E-001	1.00639E-004	0.00000E+000	3.20359E-005	5.99601E-002	3.18386E-001	3.57910E+000	9	...........
	14	0.2	3.32213E-001	1.00794E-004	0.00000E+000	3.34851E-005	5.99601E-002	3.32270E-001	3.57910E+000	9	...........
	15	0.213333	3.46100E-001	1.00167E-004	0.00000E+000	3.46677E-005	5.99601E-002	3.46164E-001	3.57910E+000	9	...........
	16	0.226667	3.59984E-001	1.00441E-004	0.00000E+000	3.61570E-005	5.99601E-002	3.60054E-001	3.57910E+000	9	...........
	17	0.24	3.73865E-001	9.95123E-005	0.00000E+000	3.72042E-005	5.99601E-002	3.73934E-001	3.57910E+000	9	...........
	18	0.253333	3.87724E-001	1.00831E-004	0.00000E+000	3.90947E-005	5.99601E-002	3.87796E-001	3.57910E+000	9	...........
	19	0.266667	4.01549E-001	1.01229E-004	0.00000E+000	4.06486E-005	5.99601E-002	4.01622E-001	3.57910E+000	9	...........
	20	0.28	4.15310E-001	9.98384E-005	0.00000E+000	4.14639E-005	5.99601E-002	4.15395E-001	3.57910E+000	9	...........
	21	0.293333	4.29015E-001	1.00920E-004	0.00000E+000	4.32962E-005	5.99601E-002	4.29102E-001	3.57910E+000	9	...........
	22	0.306667	4.42628E-001	1.00422E-004	0.00000E+000	4.44496E-005	5.99601E-002	4.42719E-001	3.57910E+000	9	...........
	23	0.32	4.56132E-001	1.01057E-004	0.00000E+000	4.60956E-005	5.99601E-002	4.56229E-001	3.57910E+000	9	...........
	24	0.333333	4.69509E-001	1.00715E-004	0.00000E+000	4.72864E-005	5.99601E-002	4.69606E-001	3.57910E+000	9	...........
	25	0.346667	4.82736E-001	1.00595E-004	0.00000E+000	4.85607E-005	5.99601E-002	4.82832E-001	3.57910E+000	9	...........
	26	0.36	4.95796E-001	1.01148E-004	0.00000E+000	5.01489E-005	5.99601E-002	4.95902E-001	3.57910E+000	9	...........
	27	0.373333	5.08681E-001	1.00633E-004	0.00000E+000	5.11903E-005	5.99601E-002	5.08790E-001	3.57910E+000	9	...........
	28	0.386667	5.21374E-001	1.00719E-004	0.00000E+000	5.25122E-005	5.99601E-002	5.21483E-001	3.57910E+000	9	...........
	29	0.4	5.33680E-001	1.00927E-004	0.00000E+000	5.38628E-005	5.99601E-002	5.33852E-001	3.57910E+000	9	...........
	30	0.413333	5.45787E-001	1.00670E-004	0.00000E+000	5.49443E-005	5.99601E-002	5.46034E-001	3.57910E+000	9	...........
	31	0.426667	5.57838E-001	1.01112E-004	0.00000E+000	5.64039E-005	5.99601E-002	5.58109E-001	3.57910E+000	9	...........
	32	0.44	5.69707E-001	1.00144E-004	0.00000E+000	5.70526E-005	5.99601E-002	5.69987E-001	3.57910E+000	9	...........
	33	0.453333	5.81331E-001	1.01191E-004	0.00000E+000	5.88254E-005	5.99601E-002	5.81608E-001	3.57910E+000	9	...........
	34	0.466667	5.92731E-001	9.96978E-005	0.00000E+000	5.90939E-005	5.99601E-002	5.93020E-001	3.57910E+000	9	...........
	35	0.48	6.03891E-001	1.01133E-004	0.00000E+000	6.10736E-005	5.99601E-002	6.04205E-001	3.57910E+000	9	...........
	36	0.493333	6.14881E-001	1.01431E-004	0.00000E+000	6.23683E-005	5.99601E-002	6.15174E-001	3.57910E+000	9	...........
	37	0.506667	6.25619E-001	1.01011E-004	0.00000E+000	6.31941E-005	5.99601E-002	6.25914E-001	3.57910E+000	9	...........
	38	0.52	6.36138E-001	1.00989E-004	0.00000E+000	6.42427E-005	5.99601E-002	6.36407E-001	3.57910E+000	9	...........
	39	0.533333	6.46462E-001	1.01439E-004	0.00000E+000	6.55763E-005	5.99601E-002	6.46726E-001	3.57910E+000	9	...........
	40	0.546667	6.56597E-001	1.02136E-004	0.00000E+000	6.70620E-005	5.99601E-002	6.56846E-001	3.57910E+000	9	...........
	41	0.56	6.66504E-001	1.01032E-004	0.00000E+000	6.73385E-005	5.99601E-002	6.66765E-001	3.57910E+000	9	...........
	42	0.573333	6.76198E-001	1.01173E-004	0.00000E+000	6.84130E-005	5.99601E-002	6.76485E-001	3.57910E+000	9	...........
	43	0.586667	6.85712E-001	1.00405E-004	0.00000E+000	6.88491E-005	5.99601E-002	6.86008E-001	3.57910E+000	9	...........
	44	0.6	6.95055E-001	1.00771E-004	0.00000E+000	7.00413E-005	5.99601E-002	6.95344E-001	3.57910E+000	9	...........
	45	0.613333	7.04202E-001	1.00667E-004	0.00000E+000	7.08897E-005	5.99601E-002	7.04495E-001	3.57910E+000	9	...........
	46	0.626667	7.13160E-001	1.00946E-004	0.00000E+000	7.19906E-005	5.99601E-002	7.13474E-001	3.57910E+000	9	...........
	47	0.64	7.21998E-001	1.00046E-004	0.00000E+000	7.22329E-005	5.99601E-002	7.22316E-001	3.57910E+000	9	...........
	48	0.653333	7.30608E-001	1.00855E-004	0.00000E+000	7.36857E-005	5.99601E-002	7.30928E-001	3.57910E+000	9	...........
	49	0.666667	7.39063E-001	1.00409E-004	0.00000E+000	7.42089E-005	5.99601E-002	7.39381E-001	3.57910E+000	9	...........
	50	0.68	7.47368E-001	1.01042E-004	0.00000E+000	7.55154E-005	5.99601E-002	7.47693E-001	3.57910E+000	9	...........
	51	0.693333	7.55528E-001	1.00712E-004	0.00000E+000	7.60904E-005	5.99601E-002	7.55821E-001	3.57910E+000	9	...........
	52	0.706667	7.63497E-001	1.01001E-004	0.00000E+000	7.71141E-005	5.99601E-002	7.63805E-001	3.57910E+000	9	...........
	53	0.72	7.71364E-001	1.00907E-004	0.00000E+000	7.78363E-005	5.99601E-002	7.71655E-001	3.57910E+000	9	...........
	54	0.733333	7.79061E-001	1.01137E-004	0.00000E+000	7.87916E-005	5.99601E-002	7.79346E-001	3.57910E+000	9	...........
	55	0.746667	7.86617E-001	1.00543E-004	0.00000E+000	7.90886E-005	5.99601E-002	7.86910E-001	3.57910E+000	9	...........
	56	0.76	7.94055E-001	1.00645E-004	0.00000E+000	7.99175E-005	5.99601E-002	7.94363E-001	3.57910E+000	9	...........
	57	0.773333	8.01339E-001	1.00836E-004	0.00000E+000	8.08034E-005	5.99601E-002	8.01651E-001	3.57910E+000	9	...........
	58	0.786667	8.08475E-001	1.00697E-004	0.00000E+000	8.14110E-005	5.99601E-002	8.08806E-001	3.57910E+000	9	...........
	59	0.8	8.15518E-001	1.00831E-004	0.00000E+000	8.22298E-005	5.99601E-002	8.15862E-001	3.57910E+000	9	...........
	60	0.813333	8.22422E-001	1.01121E-004	0.00000E+000	8.31641E-005	5.99601E-002	8.22783E-001	3.57910E+000	9	...........
	61	0.826667	8.29220E-001	1.00797E-004	0.00000E+000	8.35829E-005	5.99601E-002	8.29548E-001	3.57910E+000	9	...........
	62	0.84	8.35882E-001	1.00073E-004	0.00000E+000	8.36491E-005	5.99601E-002	8.36242E-001	3.57910E+000	9	...........
	63	0.853333	8.42433E-001	1.01634E-004	0.00000E+000	8.56195E-005	5.99601E-002	8.42815E-001	3.57910E+000	9	...........
	64	0.866667	8.48889E-001	1.01271E-004	0.00000E+000	8.59679E-005	5.99601E-002	8.49256E-001	3.57910E+000	9	...........
	65	0.88	8.55213E-001	1.01028E-004	0.00000E+000	8.64006E-005	5.99601E-002	8.55608E-001	3.57910E+000	9	...........
	66	0.893333	8.61455E-001	1.01032E-004	0.00000E+000	8.70349E-005	5.99601E-002	8.61853E-001	3.57910E+000	9	...........
	67	0.906667	8.67587E-001	1.00622E-004	0.00000E+000	8.72983E-005	5.99601E-002	8.67967E-001	3.57910E+000	9	...........
	68	0.92	8.73608E-001	1.00648E-004	0.00000E+000	8.79269E-005	5.99601E-002	8.73983E-001	3.57910E+000	9	...........
	69	0.933333	8.79533E-001	1.00824E-004	0.00000E+000	8.86781E-005	5.99601E-002	8.79896E-001	3.57910E+000	9	...........
	70	0.946667	8.85367E-001	1.02325E-004	0.00000E+000	9.05956E-005	5.99601E-002	8.85714E-001	3.57910E+000	9	...........
	71	0.96	8.91056E-001	1.01063E-004	0.00000E+000	9.00525E-005	5.99601E-002	8.91415E-001	3.57910E+000	9	...........
	72	0.97333	8.96690E-001	1.01267E-004	0.00000E+000	9.08050E-005	5.99601E-002	8.97053E-001	3.57910E+000	9	...........
	73	0.98667	9.02206E-001	1.00877E-004	0.00000E+000	9.10120E-005	5.99601E-002	9.02587E-001	3.57910E+000	9	...........
	74	1	9.07643E-001	1.01556E-004	0.00000E+000	9.21771E-005	5.99601E-002	9.08023E-001	3.57900E+000	9	...........
	75	1.01333	9.12959E-001	1.00605E-004	0.00000E+000	9.18485E-005	5.99601E-002	9.13328E-001	3.57890E+000	9	...........
	76	1.02667	9.18201E-001	1.00917E-004	0.00000E+000	9.26619E-005	5.99601E-002	9.18583E-001	3.57890E+000	9	...........
	77	1.04	9.23435E-001	1.01327E-004	0.00000E+000	9.35692E-005	5.99601E-002	9.23744E-001	3.57890E+000	9	...........
	78	1.05333	9.28471E-001	1.00451E-004	0.00000E+000	9.32659E-005	5.99601E-002	9.28798E-001	3.57890E+000	9	...........
	79	1.06667	9.33424E-001	1.00998E-004	0.00000E+000	9.42740E-005	5.99601E-002	9.33774E-001	3.57890E+000	9	...........
	80	1.08	9.38278E-001	1.00901E-004	0.00000E+000	9.46734E-005	5.99601E-002	9.38654E-001	3.57890E+000	9	...........
	81	1.09333	9.43074E-001	1.00432E-004	0.00000E+000	9.47151E-005	5.99601E-002	9.43410E-001	3.57890E+000	9	...........
	82	1.10667	9.47794E-001	1.01633E-004	0.00000E+000	9.63268E-005	5.99601E-002	9.48163E-001	3.57890E+000	9	...........
	83	1.12	9.52415E-001	1.00668E-004	0.00000E+000	9.58775E-005	5.99601E-002	9.52764E-001	3.57890E+000	9	...........
	84	1.13333	9.56916E-001	1.01639E-004	0.00000E+000	9.72598E-005	5.99601E-002	9.57299E-001	3.57890E+000	9	...........
	85	1.14667	9.61364E-001	1.01122E-004	0.00000E+000	9.72151E-005	5.99601E-002	9.61756E-001	3.57890E+000	9	...........
	86	1.16	9.65705E-001	1.01748E-004	0.00000E+000	9.82587E-005	5.99601E-002	9.66121E-001	3.57890E+000	9	...........
	87	1.17333	9.69977E-001	1.01289E-004	0.00000E+000	9.82478E-005	5.99601E-002	9.70394E-001	3.57890E+000	9	...........
	88	1.18667	9.74229E-001	1.00108E-004	0.00000E+000	9.75284E-005	5.99601E-002	9.74610E-001	3.57890E+000	9	...........
	89	1.2	9.78334E-001	1.01272E-004	0.00000E+000	9.90779E-005	5.99601E-002	9.78736E-001	3.57890E+000	9	...........
	90	1.21333	9.82367E-001	1.00951E-004	0.00000E+000	9.91711E-005	5.99601E-002	9.82760E-001	3.57890E+000	9	...........
	91	1.22667	9.86311E-001	1.00999E-004	0.00000E+000	9.96165E-005	5.99601E-002	9.86686E-001	3.57890E+000	9	...........
	92	1.24	9.90169E-001	1.01878E-004	0.00000E+000	1.00877E-004	5.99601E-002	9.90535E-001	3.57890E+000	9	...........
	93	1.25333	9.93929E-001	9.96165E-005	0.00000E+000	9.90117E-005	5.99601E-002	9.94312E-001	3.57890E+000	9	...........
	94	1.26667	9.97625E-001	1.00497E-004	0.00000E+000	1.00258E-004	5.99601E-002	9.98034E-001	3.57890E+000	9	...........
	95	1.27	9.99901E-001	1.00615E-004	0.00000E+000	1.00605E-004	5.99601E-002	1.00034E+000	3.57890E+000	9	...........
STARTTIMEOFFSET	QUANT	567.9897	Start Time Offset (s)
