EXPLAIN
TAG	PWR800_CHARGE
TITLE	LABEL	PWR Cyclic Charge Discharge (Cell) - Charge Step	Test &Identifier
DATE	LABEL	13-7-2017	Date
TIME	LABEL	15:10:53	Time
NOTES	NOTES	2	&Notes...
	supercap test cell
	6M KOH
PSTAT	PSTAT	IFC5000-01520	Potentiostat
CAPACITY	QUANT	1.00000E-003	Capacity (A-hr)
CELLTYPE	SELECTOR	1	&Cell Type
WORKINGCONNECTION	SELECTOR	0	&Working Lead
MAXCHARGETIME	VARIABLEANDUNITS	1.00000E+002	s	1.00000E+002	second(s)	Max &Charge Time
CHARGECURRENT	QUANT	1.00000E-004	&Charge Current (A) 
VOLTAGEFINISH	TWOPARAM	F	1.00000E-003	3.60000E+003	&Voltage Finish	 I (A) < 	Max Time(s)
SAMPLETIME	QUANT	1.00000E-002	Sa&mple Period (s)
CHARGESTOPAT1	MULTIPARAM	4	1.00000E+000	Charge Stop At &1	Voltage > Limit	V
CHARGESTOPAT2	MULTIPARAM	0	0.00000E+000	Charge Stop At &2	None	N/A
AESBHCSELECTOR	TOGGLE	F	Save Both Half Cells
IRCOMP	TOGGLE	F	IR &Measure
EOC	QUANT	0	Open Circuit (V)
SEQUENCER	TOGGLE	TRUE	Run as Sequence
PSTATMODEL	IQUANT	53	Pstat Model
PSTATSECTION	LABEL	IFC5000-01520	Pstat Section
PSTATSERIALNO	LABEL	01520	Pstat Serial Number
CTRLMODE	IQUANT	0	Control Mode
ELECTROMETER	IQUANT	1	RE=0 or CS=1
IESTAB	IQUANT	0	I/E Stability
CASPEED	IQUANT	4	Control Amp Speed
CONVENTION	IQUANT	1	Current Convention
ICHRANGE	IQUANT	2	Ich Range
ICHRANGEMODE	TOGGLE	T	Ich Auto Range
ICHOFFSETENABLE	TOGGLE	F	Ich Offset Enable
ICHOFFSET	QUANT	0	Ich Offset (V)
ICHFILTER	IQUANT	1	Ich Filter
VCHRANGE	IQUANT	2	Vch Range
VCHRANGEMODE	TOGGLE	T	Vch Auto Range
VCHOFFSETENABLE	TOGGLE	F	Vch Offset Enable
VCHOFFSET	QUANT	0	Vch Offset (V)
VCHFILTER	IQUANT	1	Vch Filter
IERANGELOWERLIMIT	IQUANT	9	I/E Range Lower Limit
IERANGEMODE	TOGGLE	F	I/E AutoRange
IERANGE	IQUANT	9	I/E Range
ACHSELECT	IQUANT	1	Ach Select
ACHRANGE	IQUANT	2	Ach Range
ACHOFFSETENABLE	TOGGLE	F	Ach Offset Enable
ACHOFFSET	QUANT	0	Ach Offset (V)
ACHFILTER	IQUANT	1	Ach Filter
CABLEID	IQUANT	14	Cable ID
DCCALDATE	LABEL	5-7-2017	DC Calibration Date
ACCALDATE	LABEL	12/3/2015	AC Calibration Date
FRAMEWORKVERSION	QUANT	7.01	Framework Version
INSTRUMENTVERSION	LABEL	4.00	Instrument Version
CURVE	TABLE	97
	Pt	T	Vf	Im	Vu	Pwr	Sig	Ach	Temp	IERange	Over
	#	s	V	A	V	W	V	V	deg C	#	bits
	0	0.013333	1.33089E-001	1.02113E-004	0.00000E+000	1.35901E-005	5.99601E-002	1.33143E-001	3.58020E+000	9	...........
	1	0.026667	1.48331E-001	1.00959E-004	0.00000E+000	1.49754E-005	5.99601E-002	1.48357E-001	3.58020E+000	9	...........
	2	0.04	1.63128E-001	1.01185E-004	0.00000E+000	1.65061E-005	5.99601E-002	1.63155E-001	3.58020E+000	9	...........
	3	0.053333	1.77656E-001	1.01045E-004	0.00000E+000	1.79512E-005	5.99601E-002	1.77687E-001	3.58020E+000	9	...........
	4	0.066667	1.91996E-001	1.00254E-004	0.00000E+000	1.92484E-005	5.99601E-002	1.92026E-001	3.58020E+000	9	...........
	5	0.08	2.06189E-001	1.00572E-004	0.00000E+000	2.07368E-005	5.99601E-002	2.06223E-001	3.58020E+000	9	...........
	6	0.093333	2.20274E-001	1.01058E-004	0.00000E+000	2.22605E-005	5.99601E-002	2.20312E-001	3.58020E+000	9	...........
	7	0.106667	2.34288E-001	9.99260E-005	0.00000E+000	2.34115E-005	5.99601E-002	2.34320E-001	3.58020E+000	9	...........
	8	0.12	2.48233E-001	1.01389E-004	0.00000E+000	2.51680E-005	5.99601E-002	2.48278E-001	3.58020E+000	9	...........
	9	0.133333	2.62141E-001	1.01348E-004	0.00000E+000	2.65675E-005	5.99601E-002	2.62193E-001	3.58020E+000	9	...........
	10	0.146667	2.76028E-001	1.01082E-004	0.00000E+000	2.79016E-005	5.99601E-002	2.76089E-001	3.58020E+000	9	...........
	11	0.16	2.89911E-001	1.00811E-004	0.00000E+000	2.92260E-005	5.99601E-002	2.89967E-001	3.57968E+000	9	...........
	12	0.173333	3.03784E-001	1.00448E-004	0.00000E+000	3.05144E-005	5.99601E-002	3.03842E-001	3.57910E+000	9	...........
	13	0.186667	3.17650E-001	1.00057E-004	0.00000E+000	3.17832E-005	5.99601E-002	3.17717E-001	3.57910E+000	9	...........
	14	0.2	3.31517E-001	1.00589E-004	0.00000E+000	3.33468E-005	5.99601E-002	3.31580E-001	3.57910E+000	9	...........
	15	0.213333	3.45377E-001	1.01293E-004	0.00000E+000	3.49842E-005	5.99601E-002	3.45443E-001	3.57910E+000	9	...........
	16	0.226667	3.59228E-001	1.00867E-004	0.00000E+000	3.62342E-005	5.99601E-002	3.59298E-001	3.57910E+000	9	...........
	17	0.24	3.73064E-001	1.01093E-004	0.00000E+000	3.77141E-005	5.99601E-002	3.73133E-001	3.57910E+000	9	...........
	18	0.253333	3.86864E-001	1.00880E-004	0.00000E+000	3.90269E-005	5.99601E-002	3.86937E-001	3.57910E+000	9	...........
	19	0.266667	4.00622E-001	9.97030E-005	0.00000E+000	3.99432E-005	5.99601E-002	4.00703E-001	3.57910E+000	9	...........
	20	0.28	4.14315E-001	1.00350E-004	0.00000E+000	4.15765E-005	5.99601E-002	4.14404E-001	3.57910E+000	9	...........
	21	0.293333	4.27945E-001	1.00680E-004	0.00000E+000	4.30856E-005	5.99601E-002	4.28038E-001	3.57910E+000	9	...........
	22	0.306667	4.41475E-001	1.01460E-004	0.00000E+000	4.47919E-005	5.99601E-002	4.41566E-001	3.57910E+000	9	...........
	23	0.32	4.54892E-001	1.00450E-004	0.00000E+000	4.56939E-005	5.99601E-002	4.54982E-001	3.57910E+000	9	...........
	24	0.333333	4.68170E-001	1.00995E-004	0.00000E+000	4.72828E-005	5.99601E-002	4.68264E-001	3.57910E+000	9	...........
	25	0.346667	4.81302E-001	1.00356E-004	0.00000E+000	4.83017E-005	5.99601E-002	4.81400E-001	3.57910E+000	9	...........
	26	0.36	4.94261E-001	1.00469E-004	0.00000E+000	4.96578E-005	5.99601E-002	4.94363E-001	3.57910E+000	9	...........
	27	0.373333	5.07043E-001	1.01254E-004	0.00000E+000	5.13403E-005	5.99601E-002	5.07145E-001	3.57910E+000	9	...........
	28	0.386667	5.19625E-001	1.00929E-004	0.00000E+000	5.24454E-005	5.99601E-002	5.19737E-001	3.57910E+000	9	...........
	29	0.4	5.31907E-001	1.01419E-004	0.00000E+000	5.39455E-005	5.99601E-002	5.32032E-001	3.57910E+000	9	...........
	30	0.413333	5.43819E-001	1.00657E-004	0.00000E+000	5.47394E-005	5.99601E-002	5.44091E-001	3.57910E+000	9	...........
	31	0.426667	5.55772E-001	1.00573E-004	0.00000E+000	5.58956E-005	5.99601E-002	5.56045E-001	3.57910E+000	9	...........
	32	0.44	5.67535E-001	1.01352E-004	0.00000E+000	5.75210E-005	5.99601E-002	5.67820E-001	3.57910E+000	9	...........
	33	0.453333	5.79030E-001	1.02074E-004	0.00000E+000	5.91041E-005	5.99601E-002	5.79323E-001	3.57910E+000	9	...........
	34	0.466667	5.90335E-001	1.01355E-004	0.00000E+000	5.98336E-005	5.99601E-002	5.90636E-001	3.57910E+000	9	...........
	35	0.48	6.01400E-001	1.00906E-004	0.00000E+000	6.06851E-005	5.99601E-002	6.01705E-001	3.57910E+000	9	...........
	36	0.493333	6.12244E-001	1.02069E-004	0.00000E+000	6.24912E-005	5.99601E-002	6.12565E-001	3.57910E+000	9	...........
	37	0.506667	6.22915E-001	1.01129E-004	0.00000E+000	6.29950E-005	5.99601E-002	6.23188E-001	3.57910E+000	9	...........
	38	0.52	6.33308E-001	1.00390E-004	0.00000E+000	6.35775E-005	5.99601E-002	6.33604E-001	3.57910E+000	9	...........
	39	0.533333	6.43558E-001	1.00635E-004	0.00000E+000	6.47648E-005	5.99601E-002	6.43832E-001	3.57910E+000	9	...........
	40	0.546667	6.53579E-001	1.00881E-004	0.00000E+000	6.59340E-005	5.99601E-002	6.53842E-001	3.57910E+000	9	...........
	41	0.56	6.63378E-001	1.00140E-004	0.00000E+000	6.64304E-005	5.99601E-002	6.63665E-001	3.57910E+000	9	...........
	42	0.573333	6.73011E-001	1.00442E-004	0.00000E+000	6.75984E-005	5.99601E-002	6.73278E-001	3.57910E+000	9	...........
	43	0.586667	6.82419E-001	1.01061E-004	0.00000E+000	6.89656E-005	5.99601E-002	6.82700E-001	3.57910E+000	9	...........
	44	0.6	6.91655E-001	1.00853E-004	0.00000E+000	6.97556E-005	5.99601E-002	6.91922E-001	3.57910E+000	9	...........
	45	0.613333	7.00712E-001	1.01167E-004	0.00000E+000	7.08888E-005	5.99601E-002	7.00999E-001	3.57910E+000	9	...........
	46	0.626667	7.09582E-001	1.00092E-004	0.00000E+000	7.10232E-005	5.99601E-002	7.09863E-001	3.57910E+000	9	...........
	47	0.64	7.18318E-001	1.00843E-004	0.00000E+000	7.24372E-005	5.99601E-002	7.18575E-001	3.57910E+000	9	...........
	48	0.653333	7.26859E-001	1.01461E-004	0.00000E+000	7.37476E-005	5.99601E-002	7.27114E-001	3.57910E+000	9	...........
	49	0.666667	7.35231E-001	1.00639E-004	0.00000E+000	7.39926E-005	5.99601E-002	7.35470E-001	3.57910E+000	9	...........
	50	0.68	7.43429E-001	1.00485E-004	0.00000E+000	7.47038E-005	5.99601E-002	7.43690E-001	3.57910E+000	9	...........
	51	0.693333	7.51503E-001	1.01214E-004	0.00000E+000	7.60624E-005	5.99601E-002	7.51765E-001	3.57910E+000	9	...........
	52	0.706667	7.59406E-001	1.01691E-004	0.00000E+000	7.72247E-005	5.99601E-002	7.59684E-001	3.57910E+000	9	...........
	53	0.72	7.67165E-001	1.00762E-004	0.00000E+000	7.73007E-005	5.99601E-002	7.67471E-001	3.57910E+000	9	...........
	54	0.733333	7.74800E-001	1.00581E-004	0.00000E+000	7.79304E-005	5.99601E-002	7.75089E-001	3.57910E+000	9	...........
	55	0.746667	7.82296E-001	1.00222E-004	0.00000E+000	7.84031E-005	5.99601E-002	7.82591E-001	3.57910E+000	9	...........
	56	0.76	7.89635E-001	1.00899E-004	0.00000E+000	7.96734E-005	5.99601E-002	7.89950E-001	3.57910E+000	9	...........
	57	0.773333	7.96888E-001	1.00549E-004	0.00000E+000	8.01263E-005	5.99601E-002	7.97180E-001	3.57910E+000	9	...........
	58	0.786667	8.03955E-001	1.00343E-004	0.00000E+000	8.06710E-005	5.99601E-002	8.04271E-001	3.57910E+000	9	...........
	59	0.8	8.10917E-001	1.00906E-004	0.00000E+000	8.18267E-005	5.99601E-002	8.11236E-001	3.57910E+000	9	...........
	60	0.813333	8.17762E-001	9.99426E-005	0.00000E+000	8.17293E-005	5.99601E-002	8.18083E-001	3.57910E+000	9	...........
	61	0.826667	8.24519E-001	1.01685E-004	0.00000E+000	8.38409E-005	5.99601E-002	8.24833E-001	3.57910E+000	9	...........
	62	0.84	8.31120E-001	1.01592E-004	0.00000E+000	8.44351E-005	5.99601E-002	8.31442E-001	3.57910E+000	9	...........
	63	0.853333	8.37582E-001	1.00463E-004	0.00000E+000	8.41456E-005	5.99601E-002	8.37940E-001	3.57910E+000	9	...........
	64	0.866667	8.43995E-001	1.01444E-004	0.00000E+000	8.56182E-005	5.99601E-002	8.44343E-001	3.57910E+000	9	...........
	65	0.88	8.50276E-001	1.01516E-004	0.00000E+000	8.63165E-005	5.99601E-002	8.50637E-001	3.57910E+000	9	...........
	66	0.893333	8.56444E-001	1.01338E-004	0.00000E+000	8.67901E-005	5.99601E-002	8.56808E-001	3.57910E+000	9	...........
	67	0.906667	8.62506E-001	1.00352E-004	0.00000E+000	8.65543E-005	5.99601E-002	8.62887E-001	3.57910E+000	9	...........
	68	0.92	8.68489E-001	1.01331E-004	0.00000E+000	8.80052E-005	5.99601E-002	8.68849E-001	3.57910E+000	9	...........
	69	0.933333	8.74386E-001	1.01058E-004	0.00000E+000	8.83641E-005	5.99601E-002	8.74751E-001	3.57910E+000	9	...........
	70	0.946667	8.80139E-001	1.01204E-004	0.00000E+000	8.90739E-005	5.99601E-002	8.80507E-001	3.57910E+000	9	...........
	71	0.96	8.85830E-001	1.00619E-004	0.00000E+000	8.91312E-005	5.99601E-002	8.86182E-001	3.57910E+000	9	...........
	72	0.97333	8.91397E-001	1.00879E-004	0.00000E+000	8.99235E-005	5.99601E-002	8.91751E-001	3.57910E+000	9	...........
	73	0.98667	8.96885E-001	1.00793E-004	0.00000E+000	9.03996E-005	5.99601E-002	8.97272E-001	3.57910E+000	9	...........
	74	1	9.02285E-001	1.01292E-004	0.00000E+000	9.13941E-005	5.99601E-002	9.02657E-001	3.57910E+000	9	...........
	75	1.01333	9.07578E-001	1.01629E-004	0.00000E+000	9.22367E-005	5.99601E-002	9.07947E-001	3.57910E+000	9	...........
	76	1.02667	9.12786E-001	1.00739E-004	0.00000E+000	9.19528E-005	5.99601E-002	9.13155E-001	3.57910E+000	9	...........
	77	1.04	9.17904E-001	1.00147E-004	0.00000E+000	9.19252E-005	5.99601E-002	9.18282E-001	3.57910E+000	9	...........
	78	1.05333	9.22995E-001	1.00975E-004	0.00000E+000	9.31995E-005	5.99601E-002	9.23335E-001	3.57910E+000	9	...........
	79	1.06667	9.27947E-001	1.01226E-004	0.00000E+000	9.39326E-005	5.99601E-002	9.28280E-001	3.57910E+000	9	...........
	80	1.08	9.32800E-001	1.00682E-004	0.00000E+000	9.39165E-005	5.99601E-002	9.33149E-001	3.57910E+000	9	...........
	81	1.09333	9.37569E-001	1.00594E-004	0.00000E+000	9.43137E-005	5.99601E-002	9.37923E-001	3.57910E+000	9	...........
	82	1.10667	9.42232E-001	1.01626E-004	0.00000E+000	9.57556E-005	5.99601E-002	9.42604E-001	3.57910E+000	9	...........
	83	1.12	9.46864E-001	1.00826E-004	0.00000E+000	9.54686E-005	5.99601E-002	9.47239E-001	3.57910E+000	9	...........
	84	1.13333	9.51388E-001	1.00694E-004	0.00000E+000	9.57989E-005	5.99601E-002	9.51743E-001	3.57910E+000	9	...........
	85	1.14667	9.55826E-001	1.00274E-004	0.00000E+000	9.58444E-005	5.99601E-002	9.56163E-001	3.57910E+000	9	...........
	86	1.16	9.60153E-001	1.00844E-004	0.00000E+000	9.68255E-005	5.99601E-002	9.60534E-001	3.57910E+000	9	...........
	87	1.17333	9.64414E-001	1.00377E-004	0.00000E+000	9.68051E-005	5.99601E-002	9.64784E-001	3.57910E+000	9	...........
	88	1.18667	9.68597E-001	1.00884E-004	0.00000E+000	9.77164E-005	5.99601E-002	9.68984E-001	3.57910E+000	9	...........
	89	1.2	9.72755E-001	1.00237E-004	0.00000E+000	9.75065E-005	5.99601E-002	9.73129E-001	3.57910E+000	9	...........
	90	1.21333	9.76789E-001	1.01260E-004	0.00000E+000	9.89092E-005	5.99601E-002	9.77160E-001	3.57910E+000	9	...........
	91	1.22667	9.80723E-001	1.01323E-004	0.00000E+000	9.93699E-005	5.99601E-002	9.81080E-001	3.57910E+000	9	...........
	92	1.24	9.84592E-001	9.98676E-005	0.00000E+000	9.83288E-005	5.99601E-002	9.84941E-001	3.57910E+000	9	...........
	93	1.25333	9.88385E-001	1.00402E-004	0.00000E+000	9.92360E-005	5.99601E-002	9.88752E-001	3.57910E+000	9	...........
	94	1.26667	9.92106E-001	1.00383E-004	0.00000E+000	9.95909E-005	5.99601E-002	9.92440E-001	3.57910E+000	9	...........
	95	1.28	9.95723E-001	1.00198E-004	0.00000E+000	9.97694E-005	5.99601E-002	9.96090E-001	3.57910E+000	9	...........
	96	1.29167	9.99081E-001	1.00262E-004	0.00000E+000	1.00170E-004	5.99601E-002	9.99445E-001	3.57910E+000	9	...........
STARTTIMEOFFSET	QUANT	398.8032	Start Time Offset (s)
