EXPLAIN
TAG	PWR800_CHARGE
TITLE	LABEL	PWR Cyclic Charge Discharge (Cell) - Charge Step	Test &Identifier
DATE	LABEL	13-7-2017	Date
TIME	LABEL	15:19:59	Time
NOTES	NOTES	2	&Notes...
	supercap test cell
	6M KOH
PSTAT	PSTAT	IFC5000-01520	Potentiostat
CAPACITY	QUANT	1.00000E-003	Capacity (A-hr)
CELLTYPE	SELECTOR	1	&Cell Type
WORKINGCONNECTION	SELECTOR	0	&Working Lead
MAXCHARGETIME	VARIABLEANDUNITS	1.00000E+002	s	1.00000E+002	second(s)	Max &Charge Time
CHARGECURRENT	QUANT	1.00000E-004	&Charge Current (A) 
VOLTAGEFINISH	TWOPARAM	F	1.00000E-003	3.60000E+003	&Voltage Finish	 I (A) < 	Max Time(s)
SAMPLETIME	QUANT	1.00000E-002	Sa&mple Period (s)
CHARGESTOPAT1	MULTIPARAM	4	1.00000E+000	Charge Stop At &1	Voltage > Limit	V
CHARGESTOPAT2	MULTIPARAM	0	0.00000E+000	Charge Stop At &2	None	N/A
AESBHCSELECTOR	TOGGLE	F	Save Both Half Cells
IRCOMP	TOGGLE	F	IR &Measure
EOC	QUANT	0	Open Circuit (V)
SEQUENCER	TOGGLE	TRUE	Run as Sequence
PSTATMODEL	IQUANT	53	Pstat Model
PSTATSECTION	LABEL	IFC5000-01520	Pstat Section
PSTATSERIALNO	LABEL	01520	Pstat Serial Number
CTRLMODE	IQUANT	0	Control Mode
ELECTROMETER	IQUANT	1	RE=0 or CS=1
IESTAB	IQUANT	0	I/E Stability
CASPEED	IQUANT	4	Control Amp Speed
CONVENTION	IQUANT	1	Current Convention
ICHRANGE	IQUANT	2	Ich Range
ICHRANGEMODE	TOGGLE	T	Ich Auto Range
ICHOFFSETENABLE	TOGGLE	F	Ich Offset Enable
ICHOFFSET	QUANT	0	Ich Offset (V)
ICHFILTER	IQUANT	1	Ich Filter
VCHRANGE	IQUANT	2	Vch Range
VCHRANGEMODE	TOGGLE	T	Vch Auto Range
VCHOFFSETENABLE	TOGGLE	F	Vch Offset Enable
VCHOFFSET	QUANT	0	Vch Offset (V)
VCHFILTER	IQUANT	1	Vch Filter
IERANGELOWERLIMIT	IQUANT	9	I/E Range Lower Limit
IERANGEMODE	TOGGLE	F	I/E AutoRange
IERANGE	IQUANT	9	I/E Range
ACHSELECT	IQUANT	1	Ach Select
ACHRANGE	IQUANT	2	Ach Range
ACHOFFSETENABLE	TOGGLE	F	Ach Offset Enable
ACHOFFSET	QUANT	0	Ach Offset (V)
ACHFILTER	IQUANT	1	Ach Filter
CABLEID	IQUANT	14	Cable ID
DCCALDATE	LABEL	5-7-2017	DC Calibration Date
ACCALDATE	LABEL	12/3/2015	AC Calibration Date
FRAMEWORKVERSION	QUANT	7.01	Framework Version
INSTRUMENTVERSION	LABEL	4.00	Instrument Version
CURVE	TABLE	94
	Pt	T	Vf	Im	Vu	Pwr	Sig	Ach	Temp	IERange	Over
	#	s	V	A	V	W	V	V	deg C	#	bits
	0	0.013333	1.32824E-001	1.01745E-004	0.00000E+000	1.35142E-005	5.99601E-002	1.32869E-001	3.57940E+000	9	...........
	1	0.026667	1.48053E-001	1.00658E-004	0.00000E+000	1.49028E-005	5.99601E-002	1.48074E-001	3.57940E+000	9	...........
	2	0.04	1.62829E-001	1.00694E-004	0.00000E+000	1.63959E-005	5.99601E-002	1.62856E-001	3.57940E+000	9	...........
	3	0.053333	1.77343E-001	1.00391E-004	0.00000E+000	1.78036E-005	5.99601E-002	1.77376E-001	3.57940E+000	9	...........
	4	0.066667	1.91656E-001	1.01441E-004	0.00000E+000	1.94418E-005	5.99601E-002	1.91692E-001	3.57940E+000	9	...........
	5	0.08	2.05829E-001	1.01517E-004	0.00000E+000	2.08951E-005	5.99601E-002	2.05869E-001	3.57940E+000	9	...........
	6	0.093333	2.19902E-001	1.01771E-004	0.00000E+000	2.23796E-005	5.99601E-002	2.19942E-001	3.57940E+000	9	...........
	7	0.106667	2.33899E-001	1.01145E-004	0.00000E+000	2.36577E-005	5.99601E-002	2.33935E-001	3.57940E+000	9	...........
	8	0.12	2.47837E-001	1.00197E-004	0.00000E+000	2.48325E-005	5.99601E-002	2.47884E-001	3.57940E+000	9	...........
	9	0.133333	2.61749E-001	1.01076E-004	0.00000E+000	2.64566E-005	5.99601E-002	2.61804E-001	3.57940E+000	9	...........
	10	0.146667	2.75649E-001	1.01013E-004	0.00000E+000	2.78440E-005	5.99601E-002	2.75704E-001	3.57940E+000	9	...........
	11	0.16	2.89543E-001	1.00151E-004	0.00000E+000	2.89980E-005	5.99601E-002	2.89596E-001	3.57940E+000	9	...........
	12	0.173333	3.03440E-001	1.00800E-004	0.00000E+000	3.05868E-005	5.99601E-002	3.03498E-001	3.57940E+000	9	...........
	13	0.186667	3.17347E-001	1.00351E-004	0.00000E+000	3.18461E-005	5.99601E-002	3.17408E-001	3.57940E+000	9	...........
	14	0.2	3.31257E-001	1.01619E-004	0.00000E+000	3.36620E-005	5.99601E-002	3.31320E-001	3.57940E+000	9	...........
	15	0.213333	3.45185E-001	1.00789E-004	0.00000E+000	3.47907E-005	5.99601E-002	3.45248E-001	3.57940E+000	9	...........
	16	0.226667	3.59117E-001	1.00843E-004	0.00000E+000	3.62144E-005	5.99601E-002	3.59187E-001	3.57940E+000	9	...........
	17	0.24	3.73049E-001	1.00850E-004	0.00000E+000	3.76221E-005	5.99601E-002	3.73119E-001	3.57940E+000	9	...........
	18	0.253333	3.86979E-001	1.00435E-004	0.00000E+000	3.88664E-005	5.99601E-002	3.87052E-001	3.57940E+000	9	...........
	19	0.266667	4.00874E-001	1.00522E-004	0.00000E+000	4.02966E-005	5.99601E-002	4.00949E-001	3.57940E+000	9	...........
	20	0.28	4.14735E-001	1.00493E-004	0.00000E+000	4.16779E-005	5.99601E-002	4.14814E-001	3.57940E+000	9	...........
	21	0.293333	4.28539E-001	1.01518E-004	0.00000E+000	4.35044E-005	5.99601E-002	4.28618E-001	3.57940E+000	9	...........
	22	0.306667	4.42258E-001	1.01014E-004	0.00000E+000	4.46741E-005	5.99601E-002	4.42353E-001	3.57940E+000	9	...........
	23	0.32	4.55883E-001	9.94925E-005	0.00000E+000	4.53570E-005	5.99601E-002	4.55976E-001	3.57940E+000	9	...........
	24	0.333333	4.69388E-001	1.00455E-004	0.00000E+000	4.71525E-005	5.99601E-002	4.69487E-001	3.57940E+000	9	...........
	25	0.346667	4.82754E-001	1.00855E-004	0.00000E+000	4.86883E-005	5.99601E-002	4.82855E-001	3.57940E+000	9	...........
	26	0.36	4.95963E-001	1.00173E-004	0.00000E+000	4.96820E-005	5.99601E-002	4.96069E-001	3.57940E+000	9	...........
	27	0.373333	5.09003E-001	1.01198E-004	0.00000E+000	5.15101E-005	5.99601E-002	5.09108E-001	3.57940E+000	9	...........
	28	0.386667	5.21855E-001	1.01246E-004	0.00000E+000	5.28358E-005	5.99601E-002	5.21963E-001	3.57940E+000	9	...........
	29	0.4	5.34317E-001	1.00983E-004	0.00000E+000	5.39571E-005	5.99601E-002	5.34511E-001	3.57940E+000	9	...........
	30	0.413333	5.46592E-001	1.00060E-004	0.00000E+000	5.46922E-005	5.99601E-002	5.46847E-001	3.57940E+000	9	...........
	31	0.426667	5.58800E-001	1.00871E-004	0.00000E+000	5.63667E-005	5.99601E-002	5.59084E-001	3.57940E+000	9	...........
	32	0.44	5.70839E-001	1.00409E-004	0.00000E+000	5.73176E-005	5.99601E-002	5.71108E-001	3.57940E+000	9	...........
	33	0.453333	5.82603E-001	1.00058E-004	0.00000E+000	5.82942E-005	5.99601E-002	5.82883E-001	3.57940E+000	9	...........
	34	0.466667	5.94194E-001	1.00583E-004	0.00000E+000	5.97660E-005	5.99601E-002	5.94463E-001	3.57940E+000	9	...........
	35	0.48	6.05503E-001	1.00849E-004	0.00000E+000	6.10644E-005	5.99601E-002	6.05808E-001	3.57940E+000	9	...........
	36	0.493333	6.16656E-001	1.01698E-004	0.00000E+000	6.27128E-005	5.99601E-002	6.16933E-001	3.57940E+000	9	...........
	37	0.506667	6.27537E-001	1.01544E-004	0.00000E+000	6.37226E-005	5.99601E-002	6.27822E-001	3.57940E+000	9	...........
	38	0.52	6.38221E-001	1.00862E-004	0.00000E+000	6.43720E-005	5.99601E-002	6.38501E-001	3.57940E+000	9	...........
	39	0.533333	6.48697E-001	1.01445E-004	0.00000E+000	6.58071E-005	5.99601E-002	6.48996E-001	3.57940E+000	9	...........
	40	0.546667	6.58971E-001	1.00623E-004	0.00000E+000	6.63076E-005	5.99601E-002	6.59243E-001	3.57940E+000	9	...........
	41	0.56	6.69015E-001	1.01506E-004	0.00000E+000	6.79094E-005	5.99601E-002	6.69290E-001	3.57940E+000	9	...........
	42	0.573333	6.78870E-001	1.00501E-004	0.00000E+000	6.82271E-005	5.99601E-002	6.79140E-001	3.57940E+000	9	...........
	43	0.586667	6.88492E-001	1.00395E-004	0.00000E+000	6.91210E-005	5.99601E-002	6.88805E-001	3.57940E+000	9	...........
	44	0.6	6.97983E-001	1.00552E-004	0.00000E+000	7.01837E-005	5.99601E-002	6.98258E-001	3.57940E+000	9	...........
	45	0.613333	7.07250E-001	1.00601E-004	0.00000E+000	7.11502E-005	5.99601E-002	7.07525E-001	3.57940E+000	9	...........
	46	0.626667	7.16362E-001	1.00802E-004	0.00000E+000	7.22109E-005	5.99601E-002	7.16605E-001	3.57990E+000	9	...........
	47	0.64	7.25316E-001	1.00448E-004	0.00000E+000	7.28565E-005	5.99601E-002	7.25545E-001	3.58140E+000	9	...........
	48	0.653333	7.34028E-001	1.01257E-004	0.00000E+000	7.43258E-005	5.99601E-002	7.34263E-001	3.58140E+000	9	...........
	49	0.666667	7.42611E-001	1.01647E-004	0.00000E+000	7.54843E-005	5.99601E-002	7.42874E-001	3.58140E+000	9	...........
	50	0.68	7.51048E-001	1.01961E-004	0.00000E+000	7.65774E-005	5.99601E-002	7.51281E-001	3.58140E+000	9	...........
	51	0.693333	7.59305E-001	1.01263E-004	0.00000E+000	7.68892E-005	5.99601E-002	7.59537E-001	3.58140E+000	9	...........
	52	0.706667	7.67391E-001	1.01076E-004	0.00000E+000	7.75650E-005	5.99601E-002	7.67660E-001	3.58140E+000	9	...........
	53	0.72	7.75332E-001	1.00879E-004	0.00000E+000	7.82149E-005	5.99601E-002	7.75602E-001	3.58140E+000	9	...........
	54	0.733333	7.83122E-001	1.00599E-004	0.00000E+000	7.87813E-005	5.99601E-002	7.83419E-001	3.58140E+000	9	...........
	55	0.746667	7.90785E-001	1.00475E-004	0.00000E+000	7.94541E-005	5.99601E-002	7.91077E-001	3.58140E+000	9	...........
	56	0.76	7.98319E-001	1.01465E-004	0.00000E+000	8.10013E-005	5.99601E-002	7.98606E-001	3.58140E+000	9	...........
	57	0.773333	8.05697E-001	1.01720E-004	0.00000E+000	8.19555E-005	5.99601E-002	8.05985E-001	3.58140E+000	9	...........
	58	0.786667	8.12922E-001	1.01264E-004	0.00000E+000	8.23195E-005	5.99601E-002	8.13238E-001	3.58140E+000	9	...........
	59	0.8	8.20061E-001	1.00372E-004	0.00000E+000	8.23110E-005	5.99601E-002	8.20373E-001	3.58140E+000	9	...........
	60	0.813333	8.27066E-001	1.00516E-004	0.00000E+000	8.31331E-005	5.99601E-002	8.27368E-001	3.58140E+000	9	...........
	61	0.826667	8.33918E-001	1.00962E-004	0.00000E+000	8.41937E-005	5.99601E-002	8.34257E-001	3.58140E+000	9	...........
	62	0.84	8.40677E-001	1.02031E-004	0.00000E+000	8.57748E-005	5.99601E-002	8.41020E-001	3.58140E+000	9	...........
	63	0.853333	8.47333E-001	1.00478E-004	0.00000E+000	8.51385E-005	5.99601E-002	8.47671E-001	3.58140E+000	9	...........
	64	0.866667	8.53842E-001	1.01226E-004	0.00000E+000	8.64312E-005	5.99601E-002	8.54186E-001	3.58140E+000	9	...........
	65	0.88	8.60241E-001	1.00525E-004	0.00000E+000	8.64757E-005	5.99601E-002	8.60606E-001	3.58140E+000	9	...........
	66	0.893333	8.66547E-001	1.00414E-004	0.00000E+000	8.70130E-005	5.99601E-002	8.66914E-001	3.58140E+000	9	...........
	67	0.906667	8.72765E-001	1.00942E-004	0.00000E+000	8.80985E-005	5.99601E-002	8.73121E-001	3.58140E+000	9	...........
	68	0.92	8.78820E-001	1.00936E-004	0.00000E+000	8.87042E-005	5.99601E-002	8.79177E-001	3.58140E+000	9	...........
	69	0.933333	8.84816E-001	1.00637E-004	0.00000E+000	8.90448E-005	5.99601E-002	8.85169E-001	3.58140E+000	9	...........
	70	0.946667	8.90679E-001	1.01598E-004	0.00000E+000	9.04914E-005	5.99601E-002	8.91027E-001	3.58140E+000	9	...........
	71	0.96	8.96444E-001	1.00150E-004	0.00000E+000	8.97788E-005	5.99601E-002	8.96812E-001	3.58140E+000	9	...........
	72	0.97333	9.02125E-001	1.00330E-004	0.00000E+000	9.05104E-005	5.99601E-002	9.02465E-001	3.58140E+000	9	...........
	73	0.98667	9.07696E-001	1.01255E-004	0.00000E+000	9.19091E-005	5.99601E-002	9.08037E-001	3.58140E+000	9	...........
	74	1	9.13186E-001	1.01088E-004	0.00000E+000	9.23119E-005	5.99601E-002	9.13507E-001	3.58140E+000	9	...........
	75	1.01333	9.18551E-001	1.00883E-004	0.00000E+000	9.26666E-005	5.99601E-002	9.18892E-001	3.58140E+000	9	...........
	76	1.02667	9.23890E-001	1.00983E-004	0.00000E+000	9.32976E-005	5.99601E-002	9.24173E-001	3.58140E+000	9	...........
	77	1.04	9.29075E-001	1.01274E-004	0.00000E+000	9.40913E-005	5.99601E-002	9.29373E-001	3.58140E+000	9	...........
	78	1.05333	9.34138E-001	1.01079E-004	0.00000E+000	9.44220E-005	5.99601E-002	9.34473E-001	3.58140E+000	9	...........
	79	1.06667	9.39130E-001	9.98759E-005	0.00000E+000	9.37965E-005	5.99601E-002	9.39484E-001	3.58140E+000	9	...........
	80	1.08	9.44023E-001	1.01446E-004	0.00000E+000	9.57674E-005	5.99601E-002	9.44373E-001	3.58140E+000	9	...........
	81	1.09333	9.48873E-001	1.01914E-004	0.00000E+000	9.67034E-005	5.99601E-002	9.49216E-001	3.58140E+000	9	...........
	82	1.10667	9.53608E-001	1.00945E-004	0.00000E+000	9.62618E-005	5.99601E-002	9.53934E-001	3.58140E+000	9	...........
	83	1.12	9.58206E-001	1.00762E-004	0.00000E+000	9.65503E-005	5.99601E-002	9.58588E-001	3.58140E+000	9	...........
	84	1.13333	9.62746E-001	1.01309E-004	0.00000E+000	9.75344E-005	5.99601E-002	9.63130E-001	3.58140E+000	9	...........
	85	1.14667	9.67201E-001	1.00234E-004	0.00000E+000	9.69468E-005	5.99601E-002	9.67588E-001	3.58140E+000	9	...........
	86	1.16	9.71581E-001	1.01029E-004	0.00000E+000	9.81581E-005	5.99601E-002	9.71970E-001	3.58140E+000	9	...........
	87	1.17333	9.75918E-001	1.01493E-004	0.00000E+000	9.90488E-005	5.99601E-002	9.76268E-001	3.58140E+000	9	...........
	88	1.18667	9.80094E-001	1.01139E-004	0.00000E+000	9.91254E-005	5.99601E-002	9.80451E-001	3.58140E+000	9	...........
	89	1.2	9.84201E-001	1.00617E-004	0.00000E+000	9.90271E-005	5.99601E-002	9.84572E-001	3.58140E+000	9	...........
	90	1.21333	9.88227E-001	1.01224E-004	0.00000E+000	1.00032E-004	5.99601E-002	9.88591E-001	3.58140E+000	9	...........
	91	1.22667	9.92157E-001	9.98634E-005	0.00000E+000	9.90802E-005	5.99601E-002	9.92542E-001	3.58140E+000	9	...........
	92	1.24	9.96036E-001	1.01769E-004	0.00000E+000	1.01366E-004	5.99601E-002	9.96415E-001	3.58140E+000	9	...........
	93	1.24833	9.99146E-001	1.01025E-004	0.00000E+000	1.00938E-004	5.99601E-002	9.99511E-001	3.58140E+000	9	...........
STARTTIMEOFFSET	QUANT	813.241	Start Time Offset (s)
