EXPLAIN
TAG	PWR800_CHARGE
TITLE	LABEL	PWR Cyclic Charge Discharge (Cell) - Charge Step	Test &Identifier
DATE	LABEL	13-7-2017	Date
TIME	LABEL	15:48:27	Time
NOTES	NOTES	2	&Notes...
	supercap test cell
	6M KOH
PSTAT	PSTAT	IFC5000-01520	Potentiostat
CAPACITY	QUANT	1.00000E-003	Capacity (A-hr)
CELLTYPE	SELECTOR	1	&Cell Type
WORKINGCONNECTION	SELECTOR	0	&Working Lead
MAXCHARGETIME	VARIABLEANDUNITS	1.00000E+002	s	1.00000E+002	second(s)	Max &Charge Time
CHARGECURRENT	QUANT	1.00000E-004	&Charge Current (A) 
VOLTAGEFINISH	TWOPARAM	F	1.00000E-003	3.60000E+003	&Voltage Finish	 I (A) < 	Max Time(s)
SAMPLETIME	QUANT	1.00000E-002	Sa&mple Period (s)
CHARGESTOPAT1	MULTIPARAM	4	1.00000E+000	Charge Stop At &1	Voltage > Limit	V
CHARGESTOPAT2	MULTIPARAM	0	0.00000E+000	Charge Stop At &2	None	N/A
AESBHCSELECTOR	TOGGLE	F	Save Both Half Cells
IRCOMP	TOGGLE	F	IR &Measure
EOC	QUANT	0	Open Circuit (V)
SEQUENCER	TOGGLE	TRUE	Run as Sequence
PSTATMODEL	IQUANT	53	Pstat Model
PSTATSECTION	LABEL	IFC5000-01520	Pstat Section
PSTATSERIALNO	LABEL	01520	Pstat Serial Number
CTRLMODE	IQUANT	0	Control Mode
ELECTROMETER	IQUANT	1	RE=0 or CS=1
IESTAB	IQUANT	0	I/E Stability
CASPEED	IQUANT	4	Control Amp Speed
CONVENTION	IQUANT	1	Current Convention
ICHRANGE	IQUANT	2	Ich Range
ICHRANGEMODE	TOGGLE	T	Ich Auto Range
ICHOFFSETENABLE	TOGGLE	F	Ich Offset Enable
ICHOFFSET	QUANT	0	Ich Offset (V)
ICHFILTER	IQUANT	1	Ich Filter
VCHRANGE	IQUANT	2	Vch Range
VCHRANGEMODE	TOGGLE	T	Vch Auto Range
VCHOFFSETENABLE	TOGGLE	F	Vch Offset Enable
VCHOFFSET	QUANT	0	Vch Offset (V)
VCHFILTER	IQUANT	1	Vch Filter
IERANGELOWERLIMIT	IQUANT	9	I/E Range Lower Limit
IERANGEMODE	TOGGLE	F	I/E AutoRange
IERANGE	IQUANT	9	I/E Range
ACHSELECT	IQUANT	1	Ach Select
ACHRANGE	IQUANT	2	Ach Range
ACHOFFSETENABLE	TOGGLE	F	Ach Offset Enable
ACHOFFSET	QUANT	0	Ach Offset (V)
ACHFILTER	IQUANT	1	Ach Filter
CABLEID	IQUANT	14	Cable ID
DCCALDATE	LABEL	5-7-2017	DC Calibration Date
ACCALDATE	LABEL	12/3/2015	AC Calibration Date
FRAMEWORKVERSION	QUANT	7.01	Framework Version
INSTRUMENTVERSION	LABEL	4.00	Instrument Version
CURVE	TABLE	90
	Pt	T	Vf	Im	Vu	Pwr	Sig	Ach	Temp	IERange	Over
	#	s	V	A	V	W	V	V	deg C	#	bits
	0	0.013333	1.33222E-001	1.00473E-004	0.00000E+000	1.33852E-005	5.99601E-002	1.33262E-001	3.57860E+000	9	...........
	1	0.026667	1.48497E-001	1.01495E-004	0.00000E+000	1.50717E-005	5.99601E-002	1.48512E-001	3.57860E+000	9	...........
	2	0.04	1.63328E-001	1.01389E-004	0.00000E+000	1.65596E-005	5.99601E-002	1.63357E-001	3.57860E+000	9	...........
	3	0.053333	1.77900E-001	1.00754E-004	0.00000E+000	1.79242E-005	5.99601E-002	1.77935E-001	3.57860E+000	9	...........
	4	0.066667	1.92292E-001	1.00556E-004	0.00000E+000	1.93362E-005	5.99601E-002	1.92318E-001	3.57860E+000	9	...........
	5	0.08	2.06536E-001	9.96353E-005	0.00000E+000	2.05783E-005	5.99601E-002	2.06564E-001	3.57860E+000	9	...........
	6	0.093333	2.20680E-001	1.00752E-004	0.00000E+000	2.22340E-005	5.99601E-002	2.20711E-001	3.57860E+000	9	...........
	7	0.106667	2.34760E-001	1.00721E-004	0.00000E+000	2.36452E-005	5.99601E-002	2.34797E-001	3.57860E+000	9	...........
	8	0.12	2.48790E-001	1.00830E-004	0.00000E+000	2.50856E-005	5.99601E-002	2.48835E-001	3.57860E+000	9	...........
	9	0.133333	2.62800E-001	1.01523E-004	0.00000E+000	2.66803E-005	5.99601E-002	2.62849E-001	3.57860E+000	9	...........
	10	0.146667	2.76804E-001	1.01729E-004	0.00000E+000	2.81591E-005	5.99601E-002	2.76858E-001	3.57860E+000	9	...........
	11	0.16	2.90808E-001	1.00834E-004	0.00000E+000	2.93235E-005	5.99601E-002	2.90869E-001	3.57860E+000	9	...........
	12	0.173333	3.04832E-001	1.01107E-004	0.00000E+000	3.08208E-005	5.99601E-002	3.04888E-001	3.57860E+000	9	...........
	13	0.186667	3.18875E-001	1.01678E-004	0.00000E+000	3.24227E-005	5.99601E-002	3.18934E-001	3.57860E+000	9	...........
	14	0.2	3.32941E-001	1.00696E-004	0.00000E+000	3.35258E-005	5.99601E-002	3.33002E-001	3.57860E+000	9	...........
	15	0.213333	3.47039E-001	1.01449E-004	0.00000E+000	3.52069E-005	5.99601E-002	3.47095E-001	3.57860E+000	9	...........
	16	0.226667	3.61152E-001	1.01497E-004	0.00000E+000	3.66559E-005	5.99601E-002	3.61218E-001	3.57860E+000	9	...........
	17	0.24	3.75290E-001	1.00888E-004	0.00000E+000	3.78621E-005	5.99601E-002	3.75362E-001	3.57860E+000	9	...........
	18	0.253333	3.89445E-001	1.01020E-004	0.00000E+000	3.93417E-005	5.99601E-002	3.89510E-001	3.57860E+000	9	...........
	19	0.266667	4.03592E-001	1.00193E-004	0.00000E+000	4.04369E-005	5.99601E-002	4.03661E-001	3.57860E+000	9	...........
	20	0.28	4.17714E-001	1.00513E-004	0.00000E+000	4.19855E-005	5.99601E-002	4.17795E-001	3.57860E+000	9	...........
	21	0.293333	4.31804E-001	1.00654E-004	0.00000E+000	4.34629E-005	5.99601E-002	4.31889E-001	3.57860E+000	9	...........
	22	0.306667	4.45839E-001	1.00995E-004	0.00000E+000	4.50275E-005	5.99601E-002	4.45921E-001	3.57860E+000	9	...........
	23	0.32	4.59796E-001	1.00969E-004	0.00000E+000	4.64251E-005	5.99601E-002	4.59883E-001	3.57860E+000	9	...........
	24	0.333333	4.73652E-001	1.00704E-004	0.00000E+000	4.76987E-005	5.99601E-002	4.73741E-001	3.57860E+000	9	...........
	25	0.346667	4.87378E-001	1.00125E-004	0.00000E+000	4.87987E-005	5.99601E-002	4.87467E-001	3.57860E+000	9	...........
	26	0.36	5.00959E-001	1.01296E-004	0.00000E+000	5.07451E-005	5.99601E-002	5.01061E-001	3.57860E+000	9	...........
	27	0.373333	5.14377E-001	1.01008E-004	0.00000E+000	5.19564E-005	5.99601E-002	5.14485E-001	3.57860E+000	9	...........
	28	0.386667	5.27613E-001	1.01309E-004	0.00000E+000	5.34517E-005	5.99601E-002	5.27716E-001	3.57860E+000	9	...........
	29	0.4	5.40299E-001	1.01476E-004	0.00000E+000	5.48275E-005	5.99601E-002	5.40537E-001	3.57860E+000	9	...........
	30	0.413333	5.53115E-001	1.01572E-004	0.00000E+000	5.61810E-005	5.99601E-002	5.53357E-001	3.57860E+000	9	...........
	31	0.426667	5.65747E-001	1.00698E-004	0.00000E+000	5.69696E-005	5.99601E-002	5.66004E-001	3.57860E+000	9	...........
	32	0.44	5.78138E-001	1.01480E-004	0.00000E+000	5.86697E-005	5.99601E-002	5.78371E-001	3.57860E+000	9	...........
	33	0.453333	5.90311E-001	1.00222E-004	0.00000E+000	5.91620E-005	5.99601E-002	5.90545E-001	3.57860E+000	9	...........
	34	0.466667	6.02223E-001	1.00828E-004	0.00000E+000	6.07210E-005	5.99601E-002	6.02482E-001	3.57860E+000	9	...........
	35	0.48	6.13940E-001	1.00619E-004	0.00000E+000	6.17739E-005	5.99601E-002	6.14177E-001	3.57860E+000	9	...........
	36	0.493333	6.25428E-001	1.01704E-004	0.00000E+000	6.36088E-005	5.99601E-002	6.25656E-001	3.57921E+000	9	...........
	37	0.506667	6.36654E-001	1.00273E-004	0.00000E+000	6.38392E-005	5.99601E-002	6.36897E-001	3.57930E+000	9	...........
	38	0.52	6.47681E-001	9.98009E-005	0.00000E+000	6.46391E-005	5.99601E-002	6.47938E-001	3.57930E+000	9	...........
	39	0.533333	6.58470E-001	9.99937E-005	0.00000E+000	6.58428E-005	5.99601E-002	6.58734E-001	3.57930E+000	9	...........
	40	0.546667	6.69067E-001	1.01406E-004	0.00000E+000	6.78478E-005	5.99601E-002	6.69342E-001	3.57930E+000	9	...........
	41	0.56	6.79449E-001	9.99322E-005	0.00000E+000	6.78988E-005	5.99601E-002	6.79684E-001	3.57930E+000	9	...........
	42	0.573333	6.89579E-001	1.01190E-004	0.00000E+000	6.97783E-005	5.99601E-002	6.89857E-001	3.57930E+000	9	...........
	43	0.586667	6.99514E-001	1.00643E-004	0.00000E+000	7.04010E-005	5.99601E-002	6.99823E-001	3.57930E+000	9	...........
	44	0.6	7.09274E-001	1.00402E-004	0.00000E+000	7.12126E-005	5.99601E-002	7.09576E-001	3.57930E+000	9	...........
	45	0.613333	7.18847E-001	1.01189E-004	0.00000E+000	7.27392E-005	5.99601E-002	7.19095E-001	3.57930E+000	9	...........
	46	0.626667	7.28233E-001	1.01226E-004	0.00000E+000	7.37163E-005	5.99601E-002	7.28436E-001	3.57930E+000	9	...........
	47	0.64	7.37375E-001	1.00981E-004	0.00000E+000	7.44612E-005	5.99601E-002	7.37595E-001	3.57930E+000	9	...........
	48	0.653333	7.46416E-001	1.01515E-004	0.00000E+000	7.57723E-005	5.99601E-002	7.46638E-001	3.57930E+000	9	...........
	49	0.666667	7.55231E-001	1.00864E-004	0.00000E+000	7.61753E-005	5.99601E-002	7.55476E-001	3.57930E+000	9	...........
	50	0.68	7.63870E-001	1.00821E-004	0.00000E+000	7.70141E-005	5.99601E-002	7.64144E-001	3.57930E+000	9	...........
	51	0.693333	7.72376E-001	1.00870E-004	0.00000E+000	7.79095E-005	5.99601E-002	7.72661E-001	3.57930E+000	9	...........
	52	0.706667	7.80692E-001	1.01536E-004	0.00000E+000	7.92681E-005	5.99601E-002	7.80992E-001	3.57930E+000	9	...........
	53	0.72	7.88843E-001	1.01078E-004	0.00000E+000	7.97349E-005	5.99601E-002	7.89175E-001	3.57930E+000	9	...........
	54	0.733333	7.96896E-001	1.00306E-004	0.00000E+000	7.99336E-005	5.99601E-002	7.97216E-001	3.57930E+000	9	...........
	55	0.746667	8.04721E-001	1.00876E-004	0.00000E+000	8.11772E-005	5.99601E-002	8.05062E-001	3.57930E+000	9	...........
	56	0.76	8.12422E-001	1.00332E-004	0.00000E+000	8.15121E-005	5.99601E-002	8.12773E-001	3.57930E+000	9	...........
	57	0.773333	8.20007E-001	1.00784E-004	0.00000E+000	8.26440E-005	5.99601E-002	8.20343E-001	3.57930E+000	9	...........
	58	0.786667	8.27438E-001	1.00886E-004	0.00000E+000	8.34766E-005	5.99601E-002	8.27746E-001	3.57930E+000	9	...........
	59	0.8	8.34710E-001	1.01203E-004	0.00000E+000	8.44754E-005	5.99601E-002	8.35051E-001	3.57930E+000	9	...........
	60	0.813333	8.41869E-001	1.00745E-004	0.00000E+000	8.48140E-005	5.99601E-002	8.42202E-001	3.57930E+000	9	...........
	61	0.826667	8.48914E-001	1.00027E-004	0.00000E+000	8.49143E-005	5.99601E-002	8.49266E-001	3.57930E+000	9	...........
	62	0.84	8.55805E-001	1.00502E-004	0.00000E+000	8.60102E-005	5.99601E-002	8.56168E-001	3.57930E+000	9	...........
	63	0.853333	8.62583E-001	1.01103E-004	0.00000E+000	8.72099E-005	5.99601E-002	8.62933E-001	3.57930E+000	9	...........
	64	0.866667	8.69236E-001	1.01163E-004	0.00000E+000	8.79343E-005	5.99601E-002	8.69634E-001	3.57930E+000	9	...........
	65	0.88	8.75788E-001	1.00926E-004	0.00000E+000	8.83899E-005	5.99601E-002	8.76158E-001	3.57930E+000	9	...........
	66	0.893333	8.82208E-001	1.00948E-004	0.00000E+000	8.90571E-005	5.99601E-002	8.82574E-001	3.57930E+000	9	...........
	67	0.906667	8.88521E-001	1.00309E-004	0.00000E+000	8.91270E-005	5.99601E-002	8.88897E-001	3.57930E+000	9	...........
	68	0.92	8.94682E-001	1.00900E-004	0.00000E+000	9.02735E-005	5.99601E-002	8.95075E-001	3.57930E+000	9	...........
	69	0.933333	9.00756E-001	1.00840E-004	0.00000E+000	9.08319E-005	5.99601E-002	9.01133E-001	3.57930E+000	9	...........
	70	0.946667	9.06699E-001	1.00483E-004	0.00000E+000	9.11082E-005	5.99601E-002	9.07109E-001	3.57930E+000	9	...........
	71	0.96	9.12595E-001	1.01020E-004	0.00000E+000	9.21903E-005	5.99601E-002	9.12960E-001	3.57930E+000	9	...........
	72	0.97333	9.18315E-001	1.01428E-004	0.00000E+000	9.31431E-005	5.99601E-002	9.18677E-001	3.57930E+000	9	...........
	73	0.98667	9.24018E-001	1.01267E-004	0.00000E+000	9.35724E-005	5.99601E-002	9.24322E-001	3.57930E+000	9	...........
	74	1	9.29550E-001	1.00566E-004	0.00000E+000	9.34808E-005	5.99601E-002	9.29843E-001	3.57930E+000	9	...........
	75	1.01333	9.34962E-001	1.01513E-004	0.00000E+000	9.49106E-005	5.99601E-002	9.35263E-001	3.57930E+000	9	...........
	76	1.02667	9.40251E-001	1.00763E-004	0.00000E+000	9.47422E-005	5.99601E-002	9.40569E-001	3.57930E+000	9	...........
	77	1.04	9.45466E-001	1.01680E-004	0.00000E+000	9.61354E-005	5.99601E-002	9.45784E-001	3.57930E+000	9	...........
	78	1.05333	9.50633E-001	9.96405E-005	0.00000E+000	9.47215E-005	5.99601E-002	9.50924E-001	3.57930E+000	9	...........
	79	1.06667	9.55623E-001	1.01337E-004	0.00000E+000	9.68397E-005	5.99601E-002	9.55936E-001	3.57930E+000	9	...........
	80	1.08	9.60506E-001	1.00208E-004	0.00000E+000	9.62507E-005	5.99601E-002	9.60846E-001	3.57930E+000	9	...........
	81	1.09333	9.65317E-001	1.00598E-004	0.00000E+000	9.71089E-005	5.99601E-002	9.65638E-001	3.57930E+000	9	...........
	82	1.10667	9.70020E-001	9.96259E-005	0.00000E+000	9.66391E-005	5.99601E-002	9.70373E-001	3.57930E+000	9	...........
	83	1.12	9.74713E-001	1.01236E-004	0.00000E+000	9.86757E-005	5.99601E-002	9.75041E-001	3.57930E+000	9	...........
	84	1.13333	9.79217E-001	1.01367E-004	0.00000E+000	9.92602E-005	5.99601E-002	9.79561E-001	3.57930E+000	9	...........
	85	1.14667	9.83619E-001	1.00991E-004	0.00000E+000	9.93364E-005	5.99601E-002	9.84010E-001	3.57930E+000	9	...........
	86	1.16	9.87967E-001	1.01513E-004	0.00000E+000	1.00291E-004	5.99601E-002	9.88357E-001	3.57930E+000	9	...........
	87	1.17333	9.92192E-001	9.99207E-005	0.00000E+000	9.91406E-005	5.99601E-002	9.92587E-001	3.57930E+000	9	...........
	88	1.18667	9.96340E-001	1.00675E-004	0.00000E+000	1.00307E-004	5.99601E-002	9.96720E-001	3.57930E+000	9	...........
	89	1.19333	9.99411E-001	1.01092E-004	0.00000E+000	1.01032E-004	5.99601E-002	9.99795E-001	3.57930E+000	9	...........
STARTTIMEOFFSET	QUANT	2097.277	Start Time Offset (s)
