EXPLAIN
TAG	PWR800_CHARGE
TITLE	LABEL	PWR Cyclic Charge Discharge (Cell) - Charge Step	Test &Identifier
DATE	LABEL	13-7-2017	Date
TIME	LABEL	15:24:51	Time
NOTES	NOTES	2	&Notes...
	supercap test cell
	6M KOH
PSTAT	PSTAT	IFC5000-01520	Potentiostat
CAPACITY	QUANT	1.00000E-003	Capacity (A-hr)
CELLTYPE	SELECTOR	1	&Cell Type
WORKINGCONNECTION	SELECTOR	0	&Working Lead
MAXCHARGETIME	VARIABLEANDUNITS	1.00000E+002	s	1.00000E+002	second(s)	Max &Charge Time
CHARGECURRENT	QUANT	1.00000E-004	&Charge Current (A) 
VOLTAGEFINISH	TWOPARAM	F	1.00000E-003	3.60000E+003	&Voltage Finish	 I (A) < 	Max Time(s)
SAMPLETIME	QUANT	1.00000E-002	Sa&mple Period (s)
CHARGESTOPAT1	MULTIPARAM	4	1.00000E+000	Charge Stop At &1	Voltage > Limit	V
CHARGESTOPAT2	MULTIPARAM	0	0.00000E+000	Charge Stop At &2	None	N/A
AESBHCSELECTOR	TOGGLE	F	Save Both Half Cells
IRCOMP	TOGGLE	F	IR &Measure
EOC	QUANT	0	Open Circuit (V)
SEQUENCER	TOGGLE	TRUE	Run as Sequence
PSTATMODEL	IQUANT	53	Pstat Model
PSTATSECTION	LABEL	IFC5000-01520	Pstat Section
PSTATSERIALNO	LABEL	01520	Pstat Serial Number
CTRLMODE	IQUANT	0	Control Mode
ELECTROMETER	IQUANT	1	RE=0 or CS=1
IESTAB	IQUANT	0	I/E Stability
CASPEED	IQUANT	4	Control Amp Speed
CONVENTION	IQUANT	1	Current Convention
ICHRANGE	IQUANT	2	Ich Range
ICHRANGEMODE	TOGGLE	T	Ich Auto Range
ICHOFFSETENABLE	TOGGLE	F	Ich Offset Enable
ICHOFFSET	QUANT	0	Ich Offset (V)
ICHFILTER	IQUANT	1	Ich Filter
VCHRANGE	IQUANT	2	Vch Range
VCHRANGEMODE	TOGGLE	T	Vch Auto Range
VCHOFFSETENABLE	TOGGLE	F	Vch Offset Enable
VCHOFFSET	QUANT	0	Vch Offset (V)
VCHFILTER	IQUANT	1	Vch Filter
IERANGELOWERLIMIT	IQUANT	9	I/E Range Lower Limit
IERANGEMODE	TOGGLE	F	I/E AutoRange
IERANGE	IQUANT	9	I/E Range
ACHSELECT	IQUANT	1	Ach Select
ACHRANGE	IQUANT	2	Ach Range
ACHOFFSETENABLE	TOGGLE	F	Ach Offset Enable
ACHOFFSET	QUANT	0	Ach Offset (V)
ACHFILTER	IQUANT	1	Ach Filter
CABLEID	IQUANT	14	Cable ID
DCCALDATE	LABEL	5-7-2017	DC Calibration Date
ACCALDATE	LABEL	12/3/2015	AC Calibration Date
FRAMEWORKVERSION	QUANT	7.01	Framework Version
INSTRUMENTVERSION	LABEL	4.00	Instrument Version
CURVE	TABLE	93
	Pt	T	Vf	Im	Vu	Pwr	Sig	Ach	Temp	IERange	Over
	#	s	V	A	V	W	V	V	deg C	#	bits
	0	0.013333	1.35276E-001	1.00498E-004	0.00000E+000	1.35949E-005	5.99601E-002	1.35323E-001	3.57880E+000	9	...........
	1	0.026667	1.50592E-001	1.01648E-004	0.00000E+000	1.53074E-005	5.99601E-002	1.50614E-001	3.57880E+000	9	...........
	2	0.04	1.65461E-001	1.00104E-004	0.00000E+000	1.65634E-005	5.99601E-002	1.65486E-001	3.57880E+000	9	...........
	3	0.053333	1.80064E-001	1.00690E-004	0.00000E+000	1.81306E-005	5.99601E-002	1.80091E-001	3.57880E+000	9	...........
	4	0.066667	1.94473E-001	1.00151E-004	0.00000E+000	1.94767E-005	5.99601E-002	1.94504E-001	3.57880E+000	9	...........
	5	0.08	2.08742E-001	1.00547E-004	0.00000E+000	2.09884E-005	5.99601E-002	2.08773E-001	3.57880E+000	9	...........
	6	0.093333	2.22911E-001	1.00808E-004	0.00000E+000	2.24713E-005	5.99601E-002	2.22945E-001	3.57880E+000	9	...........
	7	0.106667	2.37003E-001	1.00794E-004	0.00000E+000	2.38884E-005	5.99601E-002	2.37045E-001	3.57880E+000	9	...........
	8	0.12	2.51042E-001	1.00545E-004	0.00000E+000	2.52410E-005	5.99601E-002	2.51093E-001	3.57880E+000	9	...........
	9	0.133333	2.65057E-001	1.00936E-004	0.00000E+000	2.67537E-005	5.99601E-002	2.65108E-001	3.57880E+000	9	...........
	10	0.146667	2.79060E-001	1.01163E-004	0.00000E+000	2.82305E-005	5.99601E-002	2.79112E-001	3.57880E+000	9	...........
	11	0.16	2.93049E-001	1.00309E-004	0.00000E+000	2.93955E-005	5.99601E-002	2.93103E-001	3.57880E+000	9	...........
	12	0.173333	3.07056E-001	1.00154E-004	0.00000E+000	3.07530E-005	5.99601E-002	3.07109E-001	3.57880E+000	9	...........
	13	0.186667	3.21066E-001	1.00348E-004	0.00000E+000	3.22183E-005	5.99601E-002	3.21123E-001	3.57880E+000	9	...........
	14	0.2	3.35082E-001	1.01190E-004	0.00000E+000	3.39069E-005	5.99601E-002	3.35141E-001	3.57880E+000	9	...........
	15	0.213333	3.49112E-001	1.00634E-004	0.00000E+000	3.51327E-005	5.99601E-002	3.49179E-001	3.57880E+000	9	...........
	16	0.226667	3.63147E-001	1.00973E-004	0.00000E+000	3.66680E-005	5.99601E-002	3.63221E-001	3.57880E+000	9	...........
	17	0.24	3.77185E-001	1.00448E-004	0.00000E+000	3.78874E-005	5.99601E-002	3.77255E-001	3.57880E+000	9	...........
	18	0.253333	3.91203E-001	1.00676E-004	0.00000E+000	3.93848E-005	5.99601E-002	3.91277E-001	3.57880E+000	9	...........
	19	0.266667	4.05203E-001	1.01729E-004	0.00000E+000	4.12211E-005	5.99601E-002	4.05279E-001	3.57880E+000	9	...........
	20	0.28	4.19142E-001	1.01467E-004	0.00000E+000	4.25290E-005	5.99601E-002	4.19228E-001	3.57880E+000	9	...........
	21	0.293333	4.33025E-001	1.01832E-004	0.00000E+000	4.40956E-005	5.99601E-002	4.33116E-001	3.57880E+000	9	...........
	22	0.306667	4.46827E-001	1.00803E-004	0.00000E+000	4.50416E-005	5.99601E-002	4.46918E-001	3.57880E+000	9	...........
	23	0.32	4.60522E-001	1.00905E-004	0.00000E+000	4.64692E-005	5.99601E-002	4.60615E-001	3.57880E+000	9	...........
	24	0.333333	4.74097E-001	1.02037E-004	0.00000E+000	4.83753E-005	5.99601E-002	4.74187E-001	3.57880E+000	9	...........
	25	0.346667	4.87513E-001	1.01932E-004	0.00000E+000	4.96929E-005	5.99601E-002	4.87614E-001	3.57880E+000	9	...........
	26	0.36	5.00767E-001	1.00344E-004	0.00000E+000	5.02488E-005	5.99601E-002	5.00868E-001	3.57880E+000	9	...........
	27	0.373333	5.13837E-001	1.00878E-004	0.00000E+000	5.18350E-005	5.99601E-002	5.13946E-001	3.57880E+000	9	...........
	28	0.386667	5.26718E-001	1.01800E-004	0.00000E+000	5.36201E-005	5.99601E-002	5.26827E-001	3.57880E+000	9	...........
	29	0.4	5.39073E-001	1.00371E-004	0.00000E+000	5.41072E-005	5.99601E-002	5.39313E-001	3.57880E+000	9	...........
	30	0.413333	5.51475E-001	1.00495E-004	0.00000E+000	5.54204E-005	5.99601E-002	5.51767E-001	3.57880E+000	9	...........
	31	0.426667	5.63755E-001	1.00583E-004	0.00000E+000	5.67044E-005	5.99601E-002	5.64027E-001	3.57880E+000	9	...........
	32	0.44	5.75753E-001	1.01123E-004	0.00000E+000	5.82219E-005	5.99601E-002	5.76027E-001	3.57880E+000	9	...........
	33	0.453333	5.87564E-001	1.00927E-004	0.00000E+000	5.93012E-005	5.99601E-002	5.87833E-001	3.57880E+000	9	...........
	34	0.466667	5.99109E-001	1.01569E-004	0.00000E+000	6.08509E-005	5.99601E-002	5.99396E-001	3.57880E+000	9	...........
	35	0.48	6.10450E-001	1.00630E-004	0.00000E+000	6.14297E-005	5.99601E-002	6.10722E-001	3.57880E+000	9	...........
	36	0.493333	6.21597E-001	1.01375E-004	0.00000E+000	6.30146E-005	5.99601E-002	6.21826E-001	3.57880E+000	9	...........
	37	0.506667	6.32460E-001	1.00901E-004	0.00000E+000	6.38160E-005	5.99601E-002	6.32727E-001	3.58011E+000	9	...........
	38	0.52	6.43157E-001	1.00413E-004	0.00000E+000	6.45810E-005	5.99601E-002	6.43399E-001	3.58030E+000	9	...........
	39	0.533333	6.53603E-001	9.99718E-005	0.00000E+000	6.53419E-005	5.99601E-002	6.53848E-001	3.58030E+000	9	...........
	40	0.546667	6.63852E-001	1.01442E-004	0.00000E+000	6.73424E-005	5.99601E-002	6.64114E-001	3.58030E+000	9	...........
	41	0.56	6.73909E-001	1.00664E-004	0.00000E+000	6.78381E-005	5.99601E-002	6.74139E-001	3.58030E+000	9	...........
	42	0.573333	6.83725E-001	1.01334E-004	0.00000E+000	6.92843E-005	5.99601E-002	6.83985E-001	3.58030E+000	9	...........
	43	0.586667	6.93365E-001	1.01151E-004	0.00000E+000	7.01347E-005	5.99601E-002	6.93632E-001	3.58030E+000	9	...........
	44	0.6	7.02815E-001	1.00290E-004	0.00000E+000	7.04850E-005	5.99601E-002	7.03050E-001	3.58030E+000	9	...........
	45	0.613333	7.12062E-001	1.00378E-004	0.00000E+000	7.14755E-005	5.99601E-002	7.12324E-001	3.58030E+000	9	...........
	46	0.626667	7.21179E-001	1.00361E-004	0.00000E+000	7.23786E-005	5.99601E-002	7.21448E-001	3.58030E+000	9	...........
	47	0.64	7.30080E-001	1.00452E-004	0.00000E+000	7.33381E-005	5.99601E-002	7.30341E-001	3.58030E+000	9	...........
	48	0.653333	7.38802E-001	1.00600E-004	0.00000E+000	7.43235E-005	5.99601E-002	7.39070E-001	3.58030E+000	9	...........
	49	0.666667	7.47393E-001	1.00791E-004	0.00000E+000	7.53302E-005	5.99601E-002	7.47638E-001	3.58030E+000	9	...........
	50	0.68	7.55803E-001	1.01336E-004	0.00000E+000	7.65898E-005	5.99601E-002	7.56064E-001	3.58030E+000	9	...........
	51	0.693333	7.64040E-001	1.00769E-004	0.00000E+000	7.69914E-005	5.99601E-002	7.64292E-001	3.58030E+000	9	...........
	52	0.706667	7.72129E-001	1.01036E-004	0.00000E+000	7.80125E-005	5.99601E-002	7.72392E-001	3.58030E+000	9	...........
	53	0.72	7.80075E-001	1.01698E-004	0.00000E+000	7.93322E-005	5.99601E-002	7.80355E-001	3.58030E+000	9	...........
	54	0.733333	7.87863E-001	1.01824E-004	0.00000E+000	8.02235E-005	5.99601E-002	7.88126E-001	3.58030E+000	9	...........
	55	0.746667	7.95534E-001	1.00095E-004	0.00000E+000	7.96288E-005	5.99601E-002	7.95819E-001	3.58030E+000	9	...........
	56	0.76	8.03037E-001	1.01223E-004	0.00000E+000	8.12859E-005	5.99601E-002	8.03323E-001	3.58030E+000	9	...........
	57	0.773333	8.10388E-001	1.00508E-004	0.00000E+000	8.14508E-005	5.99601E-002	8.10700E-001	3.58030E+000	9	...........
	58	0.786667	8.17615E-001	1.00483E-004	0.00000E+000	8.21567E-005	5.99601E-002	8.17956E-001	3.58030E+000	9	...........
	59	0.8	8.24745E-001	1.01217E-004	0.00000E+000	8.34781E-005	5.99601E-002	8.25078E-001	3.58030E+000	9	...........
	60	0.813333	8.31708E-001	1.00227E-004	0.00000E+000	8.33596E-005	5.99601E-002	8.32041E-001	3.58030E+000	9	...........
	61	0.826667	8.38559E-001	1.01886E-004	0.00000E+000	8.54372E-005	5.99601E-002	8.38922E-001	3.58030E+000	9	...........
	62	0.84	8.45324E-001	1.01188E-004	0.00000E+000	8.55364E-005	5.99601E-002	8.45663E-001	3.58030E+000	9	...........
	63	0.853333	8.51940E-001	1.01371E-004	0.00000E+000	8.63621E-005	5.99601E-002	8.52272E-001	3.58030E+000	9	...........
	64	0.866667	8.58421E-001	1.01536E-004	0.00000E+000	8.71604E-005	5.99601E-002	8.58788E-001	3.58030E+000	9	...........
	65	0.88	8.64820E-001	1.01013E-004	0.00000E+000	8.73577E-005	5.99601E-002	8.65176E-001	3.58030E+000	9	...........
	66	0.893333	8.71115E-001	1.00099E-004	0.00000E+000	8.71976E-005	5.99601E-002	8.71469E-001	3.58030E+000	9	...........
	67	0.906667	8.77283E-001	1.00673E-004	0.00000E+000	8.83187E-005	5.99601E-002	8.77648E-001	3.58030E+000	9	...........
	68	0.92	8.83354E-001	1.01086E-004	0.00000E+000	8.92944E-005	5.99601E-002	8.83727E-001	3.58030E+000	9	...........
	69	0.933333	8.89290E-001	1.00084E-004	0.00000E+000	8.90040E-005	5.99601E-002	8.89679E-001	3.58030E+000	9	...........
	70	0.946667	8.95175E-001	1.00144E-004	0.00000E+000	8.96461E-005	5.99601E-002	8.95539E-001	3.58030E+000	9	...........
	71	0.96	9.00912E-001	1.00451E-004	0.00000E+000	9.04976E-005	5.99601E-002	9.01309E-001	3.58030E+000	9	...........
	72	0.97333	9.06568E-001	1.01051E-004	0.00000E+000	9.16097E-005	5.99601E-002	9.06959E-001	3.58030E+000	9	...........
	73	0.98667	9.12126E-001	1.01271E-004	0.00000E+000	9.23719E-005	5.99601E-002	9.12498E-001	3.58030E+000	9	...........
	74	1	9.17582E-001	1.00497E-004	0.00000E+000	9.22141E-005	5.99601E-002	9.17958E-001	3.58030E+000	9	...........
	75	1.01333	9.22988E-001	1.01713E-004	0.00000E+000	9.38796E-005	5.99601E-002	9.23332E-001	3.58030E+000	9	...........
	76	1.02667	9.28257E-001	1.00405E-004	0.00000E+000	9.32019E-005	5.99601E-002	9.28583E-001	3.58030E+000	9	...........
	77	1.04	9.33409E-001	1.01068E-004	0.00000E+000	9.43376E-005	5.99601E-002	9.33758E-001	3.58030E+000	9	...........
	78	1.05333	9.38466E-001	1.01397E-004	0.00000E+000	9.51577E-005	5.99601E-002	9.38803E-001	3.58030E+000	9	...........
	79	1.06667	9.43428E-001	1.01375E-004	0.00000E+000	9.56402E-005	5.99601E-002	9.43773E-001	3.58030E+000	9	...........
	80	1.08	9.48342E-001	1.00159E-004	0.00000E+000	9.49853E-005	5.99601E-002	9.48675E-001	3.58030E+000	9	...........
	81	1.09333	9.53134E-001	1.00999E-004	0.00000E+000	9.62656E-005	5.99601E-002	9.53469E-001	3.58030E+000	9	...........
	82	1.10667	9.57812E-001	1.00850E-004	0.00000E+000	9.65954E-005	5.99601E-002	9.58195E-001	3.58030E+000	9	...........
	83	1.12	9.62421E-001	1.00828E-004	0.00000E+000	9.70392E-005	5.99601E-002	9.62793E-001	3.58030E+000	9	...........
	84	1.13333	9.66934E-001	1.01270E-004	0.00000E+000	9.79214E-005	5.99601E-002	9.67314E-001	3.58030E+000	9	...........
	85	1.14667	9.71370E-001	1.01439E-004	0.00000E+000	9.85346E-005	5.99601E-002	9.71759E-001	3.58030E+000	9	...........
	86	1.16	9.75756E-001	1.00958E-004	0.00000E+000	9.85108E-005	5.99601E-002	9.76121E-001	3.58030E+000	9	...........
	87	1.17333	9.80017E-001	1.00676E-004	0.00000E+000	9.86643E-005	5.99601E-002	9.80365E-001	3.58030E+000	9	...........
	88	1.18667	9.84168E-001	9.98249E-005	0.00000E+000	9.82444E-005	5.99601E-002	9.84552E-001	3.58030E+000	9	...........
	89	1.2	9.88269E-001	1.01130E-004	0.00000E+000	9.99440E-005	5.99601E-002	9.88650E-001	3.58030E+000	9	...........
	90	1.21333	9.92261E-001	1.00722E-004	0.00000E+000	9.99424E-005	5.99601E-002	9.92634E-001	3.58030E+000	9	...........
	91	1.22667	9.96200E-001	1.01191E-004	0.00000E+000	1.00806E-004	5.99601E-002	9.96550E-001	3.58030E+000	9	...........
	92	1.235	9.99324E-001	1.00105E-004	0.00000E+000	1.00037E-004	5.99601E-002	9.99693E-001	3.58030E+000	9	...........
STARTTIMEOFFSET	QUANT	1033.586	Start Time Offset (s)
