EXPLAIN
TAG	PWR800_CHARGE
TITLE	LABEL	PWR Cyclic Charge Discharge (Cell) - Charge Step	Test &Identifier
DATE	LABEL	13-7-2017	Date
TIME	LABEL	15:53:31	Time
NOTES	NOTES	2	&Notes...
	supercap test cell
	6M KOH
PSTAT	PSTAT	IFC5000-01520	Potentiostat
CAPACITY	QUANT	1.00000E-003	Capacity (A-hr)
CELLTYPE	SELECTOR	1	&Cell Type
WORKINGCONNECTION	SELECTOR	0	&Working Lead
MAXCHARGETIME	VARIABLEANDUNITS	1.00000E+002	s	1.00000E+002	second(s)	Max &Charge Time
CHARGECURRENT	QUANT	1.00000E-004	&Charge Current (A) 
VOLTAGEFINISH	TWOPARAM	F	1.00000E-003	3.60000E+003	&Voltage Finish	 I (A) < 	Max Time(s)
SAMPLETIME	QUANT	1.00000E-002	Sa&mple Period (s)
CHARGESTOPAT1	MULTIPARAM	4	1.00000E+000	Charge Stop At &1	Voltage > Limit	V
CHARGESTOPAT2	MULTIPARAM	0	0.00000E+000	Charge Stop At &2	None	N/A
AESBHCSELECTOR	TOGGLE	F	Save Both Half Cells
IRCOMP	TOGGLE	F	IR &Measure
EOC	QUANT	0	Open Circuit (V)
SEQUENCER	TOGGLE	TRUE	Run as Sequence
PSTATMODEL	IQUANT	53	Pstat Model
PSTATSECTION	LABEL	IFC5000-01520	Pstat Section
PSTATSERIALNO	LABEL	01520	Pstat Serial Number
CTRLMODE	IQUANT	0	Control Mode
ELECTROMETER	IQUANT	1	RE=0 or CS=1
IESTAB	IQUANT	0	I/E Stability
CASPEED	IQUANT	4	Control Amp Speed
CONVENTION	IQUANT	1	Current Convention
ICHRANGE	IQUANT	2	Ich Range
ICHRANGEMODE	TOGGLE	T	Ich Auto Range
ICHOFFSETENABLE	TOGGLE	F	Ich Offset Enable
ICHOFFSET	QUANT	0	Ich Offset (V)
ICHFILTER	IQUANT	1	Ich Filter
VCHRANGE	IQUANT	2	Vch Range
VCHRANGEMODE	TOGGLE	T	Vch Auto Range
VCHOFFSETENABLE	TOGGLE	F	Vch Offset Enable
VCHOFFSET	QUANT	0	Vch Offset (V)
VCHFILTER	IQUANT	1	Vch Filter
IERANGELOWERLIMIT	IQUANT	9	I/E Range Lower Limit
IERANGEMODE	TOGGLE	F	I/E AutoRange
IERANGE	IQUANT	9	I/E Range
ACHSELECT	IQUANT	1	Ach Select
ACHRANGE	IQUANT	2	Ach Range
ACHOFFSETENABLE	TOGGLE	F	Ach Offset Enable
ACHOFFSET	QUANT	0	Ach Offset (V)
ACHFILTER	IQUANT	1	Ach Filter
CABLEID	IQUANT	14	Cable ID
DCCALDATE	LABEL	5-7-2017	DC Calibration Date
ACCALDATE	LABEL	12/3/2015	AC Calibration Date
FRAMEWORKVERSION	QUANT	7.01	Framework Version
INSTRUMENTVERSION	LABEL	4.00	Instrument Version
CURVE	TABLE	89
	Pt	T	Vf	Im	Vu	Pwr	Sig	Ach	Temp	IERange	Over
	#	s	V	A	V	W	V	V	deg C	#	bits
	0	0.013333	1.33763E-001	1.01734E-004	0.00000E+000	1.36082E-005	5.99601E-002	1.33802E-001	3.57860E+000	9	...........
	1	0.026667	1.49066E-001	1.00721E-004	0.00000E+000	1.50141E-005	5.99601E-002	1.49084E-001	3.57860E+000	9	...........
	2	0.04	1.63938E-001	1.00206E-004	0.00000E+000	1.64276E-005	5.99601E-002	1.63959E-001	3.57860E+000	9	...........
	3	0.053333	1.78543E-001	1.01327E-004	0.00000E+000	1.80913E-005	5.99601E-002	1.78571E-001	3.57860E+000	9	...........
	4	0.066667	1.92958E-001	1.00342E-004	0.00000E+000	1.93618E-005	5.99601E-002	1.92992E-001	3.57860E+000	9	...........
	5	0.08	2.07239E-001	1.01225E-004	0.00000E+000	2.09778E-005	5.99601E-002	2.07277E-001	3.57860E+000	9	...........
	6	0.093333	2.21421E-001	9.98343E-005	0.00000E+000	2.21054E-005	5.99601E-002	2.21457E-001	3.57860E+000	9	...........
	7	0.106667	2.35535E-001	1.01033E-004	0.00000E+000	2.37970E-005	5.99601E-002	2.35578E-001	3.57860E+000	9	...........
	8	0.12	2.49607E-001	1.00923E-004	0.00000E+000	2.51910E-005	5.99601E-002	2.49656E-001	3.57860E+000	9	...........
	9	0.133333	2.63649E-001	1.01428E-004	0.00000E+000	2.67415E-005	5.99601E-002	2.63700E-001	3.57860E+000	9	...........
	10	0.146667	2.77688E-001	1.00344E-004	0.00000E+000	2.78642E-005	5.99601E-002	2.77743E-001	3.57860E+000	9	...........
	11	0.16	2.91740E-001	1.00823E-004	0.00000E+000	2.94141E-005	5.99601E-002	2.91791E-001	3.57860E+000	9	...........
	12	0.173333	3.05811E-001	1.01549E-004	0.00000E+000	3.10549E-005	5.99601E-002	3.05866E-001	3.57860E+000	9	...........
	13	0.186667	3.19893E-001	1.00738E-004	0.00000E+000	3.22253E-005	5.99601E-002	3.19947E-001	3.57860E+000	9	...........
	14	0.2	3.33997E-001	1.01430E-004	0.00000E+000	3.38775E-005	5.99601E-002	3.34057E-001	3.57860E+000	9	...........
	15	0.213333	3.48140E-001	1.01078E-004	0.00000E+000	3.51894E-005	5.99601E-002	3.48208E-001	3.57860E+000	9	...........
	16	0.226667	3.62313E-001	1.01033E-004	0.00000E+000	3.66057E-005	5.99601E-002	3.62379E-001	3.57860E+000	9	...........
	17	0.24	3.76502E-001	1.00778E-004	0.00000E+000	3.79432E-005	5.99601E-002	3.76567E-001	3.57860E+000	9	...........
	18	0.253333	3.90707E-001	1.01350E-004	0.00000E+000	3.95982E-005	5.99601E-002	3.90779E-001	3.57860E+000	9	...........
	19	0.266667	4.04909E-001	1.00866E-004	0.00000E+000	4.08415E-005	5.99601E-002	4.04987E-001	3.57860E+000	9	...........
	20	0.28	4.19095E-001	1.00342E-004	0.00000E+000	4.20527E-005	5.99601E-002	4.19179E-001	3.57860E+000	9	...........
	21	0.293333	4.33251E-001	1.00344E-004	0.00000E+000	4.34740E-005	5.99601E-002	4.33336E-001	3.57860E+000	9	...........
	22	0.306667	4.47340E-001	1.01476E-004	0.00000E+000	4.53944E-005	5.99601E-002	4.47429E-001	3.57860E+000	9	...........
	23	0.32	4.61359E-001	1.01076E-004	0.00000E+000	4.66324E-005	5.99601E-002	4.61443E-001	3.57860E+000	9	...........
	24	0.333333	4.75266E-001	1.01217E-004	0.00000E+000	4.81050E-005	5.99601E-002	4.75360E-001	3.57860E+000	9	...........
	25	0.346667	4.89048E-001	1.00866E-004	0.00000E+000	4.93282E-005	5.99601E-002	4.89144E-001	3.57860E+000	9	...........
	26	0.36	5.02682E-001	1.00793E-004	0.00000E+000	5.06667E-005	5.99601E-002	5.02786E-001	3.57860E+000	9	...........
	27	0.373333	5.16150E-001	1.01115E-004	0.00000E+000	5.21904E-005	5.99601E-002	5.16255E-001	3.57860E+000	9	...........
	28	0.386667	5.29390E-001	1.00269E-004	0.00000E+000	5.30813E-005	5.99601E-002	5.29518E-001	3.57860E+000	9	...........
	29	0.4	5.42159E-001	1.00632E-004	0.00000E+000	5.45588E-005	5.99601E-002	5.42434E-001	3.57860E+000	9	...........
	30	0.413333	5.55047E-001	1.00961E-004	0.00000E+000	5.60378E-005	5.99601E-002	5.55309E-001	3.57860E+000	9	...........
	31	0.426667	5.67721E-001	1.00995E-004	0.00000E+000	5.73370E-005	5.99601E-002	5.68005E-001	3.57860E+000	9	...........
	32	0.44	5.80146E-001	1.01006E-004	0.00000E+000	5.85984E-005	5.99601E-002	5.80440E-001	3.57860E+000	9	...........
	33	0.453333	5.92365E-001	1.00182E-004	0.00000E+000	5.93445E-005	5.99601E-002	5.92652E-001	3.57860E+000	9	...........
	34	0.466667	6.04307E-001	9.97499E-005	0.00000E+000	6.02796E-005	5.99601E-002	6.04638E-001	3.57860E+000	9	...........
	35	0.48	6.16102E-001	1.00963E-004	0.00000E+000	6.22032E-005	5.99601E-002	6.16368E-001	3.57860E+000	9	...........
	36	0.493333	6.27610E-001	1.00278E-004	0.00000E+000	6.29355E-005	5.99601E-002	6.27887E-001	3.57860E+000	9	...........
	37	0.506667	6.38908E-001	9.97343E-005	0.00000E+000	6.37210E-005	5.99601E-002	6.39158E-001	3.57958E+000	9	...........
	38	0.52	6.49964E-001	1.00982E-004	0.00000E+000	6.56350E-005	5.99601E-002	6.50218E-001	3.57990E+000	9	...........
	39	0.533333	6.60776E-001	1.02001E-004	0.00000E+000	6.74000E-005	5.99601E-002	6.61055E-001	3.57990E+000	9	...........
	40	0.546667	6.71416E-001	1.01129E-004	0.00000E+000	6.78998E-005	5.99601E-002	6.71682E-001	3.57990E+000	9	...........
	41	0.56	6.81813E-001	1.00418E-004	0.00000E+000	6.84661E-005	5.99601E-002	6.82087E-001	3.57990E+000	9	...........
	42	0.573333	6.92015E-001	1.00094E-004	0.00000E+000	6.92663E-005	5.99601E-002	6.92283E-001	3.57990E+000	9	...........
	43	0.586667	7.01988E-001	1.00989E-004	0.00000E+000	7.08929E-005	5.99601E-002	7.02265E-001	3.57990E+000	9	...........
	44	0.6	7.11768E-001	9.99843E-005	0.00000E+000	7.11656E-005	5.99601E-002	7.12033E-001	3.57990E+000	9	...........
	45	0.613333	7.21394E-001	1.00734E-004	0.00000E+000	7.26693E-005	5.99601E-002	7.21648E-001	3.57990E+000	9	...........
	46	0.626667	7.30748E-001	1.00983E-004	0.00000E+000	7.37934E-005	5.99601E-002	7.31049E-001	3.57990E+000	9	...........
	47	0.64	7.39957E-001	1.01536E-004	0.00000E+000	7.51321E-005	5.99601E-002	7.40264E-001	3.57990E+000	9	...........
	48	0.653333	7.49006E-001	1.00829E-004	0.00000E+000	7.55217E-005	5.99601E-002	7.49281E-001	3.57990E+000	9	...........
	49	0.666667	7.57855E-001	1.00417E-004	0.00000E+000	7.61013E-005	5.99601E-002	7.58132E-001	3.57990E+000	9	...........
	50	0.68	7.66517E-001	9.97165E-005	0.00000E+000	7.64344E-005	5.99601E-002	7.66824E-001	3.57990E+000	9	...........
	51	0.693333	7.75045E-001	1.00994E-004	0.00000E+000	7.82748E-005	5.99601E-002	7.75347E-001	3.57990E+000	9	...........
	52	0.706667	7.83382E-001	1.00358E-004	0.00000E+000	7.86189E-005	5.99601E-002	7.83712E-001	3.57990E+000	9	...........
	53	0.72	7.91605E-001	1.01043E-004	0.00000E+000	7.99860E-005	5.99601E-002	7.91892E-001	3.57990E+000	9	...........
	54	0.733333	7.99624E-001	1.00404E-004	0.00000E+000	8.02856E-005	5.99601E-002	7.99926E-001	3.57990E+000	9	...........
	55	0.746667	8.07494E-001	1.00280E-004	0.00000E+000	8.09756E-005	5.99601E-002	8.07806E-001	3.57990E+000	9	...........
	56	0.76	8.15216E-001	1.01161E-004	0.00000E+000	8.24678E-005	5.99601E-002	8.15546E-001	3.57990E+000	9	...........
	57	0.773333	8.22817E-001	1.01605E-004	0.00000E+000	8.36027E-005	5.99601E-002	8.23136E-001	3.57990E+000	9	...........
	58	0.786667	8.30233E-001	1.00327E-004	0.00000E+000	8.32949E-005	5.99601E-002	8.30563E-001	3.57990E+000	9	...........
	59	0.8	8.37528E-001	1.00508E-004	0.00000E+000	8.41786E-005	5.99601E-002	8.37888E-001	3.57990E+000	9	...........
	60	0.813333	8.44732E-001	1.01469E-004	0.00000E+000	8.57141E-005	5.99601E-002	8.45060E-001	3.57990E+000	9	...........
	61	0.826667	8.51762E-001	1.01262E-004	0.00000E+000	8.62509E-005	5.99601E-002	8.52104E-001	3.57990E+000	9	...........
	62	0.84	8.58675E-001	1.00469E-004	0.00000E+000	8.62700E-005	5.99601E-002	8.59037E-001	3.57990E+000	9	...........
	63	0.853333	8.65458E-001	1.01169E-004	0.00000E+000	8.75574E-005	5.99601E-002	8.65812E-001	3.57990E+000	9	...........
	64	0.866667	8.72149E-001	1.01535E-004	0.00000E+000	8.85533E-005	5.99601E-002	8.72524E-001	3.57990E+000	9	...........
	65	0.88	8.78686E-001	1.01149E-004	0.00000E+000	8.88783E-005	5.99601E-002	8.79036E-001	3.57990E+000	9	...........
	66	0.893333	8.85100E-001	1.00142E-004	0.00000E+000	8.86353E-005	5.99601E-002	8.85488E-001	3.57990E+000	9	...........
	67	0.906667	8.91415E-001	1.01227E-004	0.00000E+000	9.02355E-005	5.99601E-002	8.91772E-001	3.57990E+000	9	...........
	68	0.92	8.97616E-001	1.01108E-004	0.00000E+000	9.07566E-005	5.99601E-002	8.97978E-001	3.57990E+000	9	...........
	69	0.933333	9.03680E-001	1.01119E-004	0.00000E+000	9.13792E-005	5.99601E-002	9.04044E-001	3.57990E+000	9	...........
	70	0.946667	9.09660E-001	9.98645E-005	0.00000E+000	9.08427E-005	5.99601E-002	9.09989E-001	3.57990E+000	9	...........
	71	0.96	9.15512E-001	1.00901E-004	0.00000E+000	9.23762E-005	5.99601E-002	9.15855E-001	3.57990E+000	9	...........
	72	0.97333	9.21299E-001	1.00504E-004	0.00000E+000	9.25945E-005	5.99601E-002	9.21612E-001	3.57990E+000	9	...........
	73	0.98667	9.26954E-001	1.01266E-004	0.00000E+000	9.38688E-005	5.99601E-002	9.27254E-001	3.57990E+000	9	...........
	74	1	9.32477E-001	1.00226E-004	0.00000E+000	9.34585E-005	5.99601E-002	9.32788E-001	3.57990E+000	9	...........
	75	1.01333	9.37868E-001	1.00956E-004	0.00000E+000	9.46838E-005	5.99601E-002	9.38229E-001	3.57990E+000	9	...........
	76	1.02667	9.43194E-001	1.00363E-004	0.00000E+000	9.46613E-005	5.99601E-002	9.43518E-001	3.57990E+000	9	...........
	77	1.04	9.48422E-001	1.01901E-004	0.00000E+000	9.66455E-005	5.99601E-002	9.48779E-001	3.57990E+000	9	...........
	78	1.05333	9.53531E-001	1.00399E-004	0.00000E+000	9.57336E-005	5.99601E-002	9.53873E-001	3.57990E+000	9	...........
	79	1.06667	9.58524E-001	1.00914E-004	0.00000E+000	9.67282E-005	5.99601E-002	9.58883E-001	3.57990E+000	9	...........
	80	1.08	9.63429E-001	1.01638E-004	0.00000E+000	9.79207E-005	5.99601E-002	9.63788E-001	3.57990E+000	9	...........
	81	1.09333	9.68201E-001	1.00924E-004	0.00000E+000	9.77147E-005	5.99601E-002	9.68593E-001	3.57990E+000	9	...........
	82	1.10667	9.72945E-001	9.98416E-005	0.00000E+000	9.71403E-005	5.99601E-002	9.73335E-001	3.57990E+000	9	...........
	83	1.12	9.77561E-001	1.01818E-004	0.00000E+000	9.95334E-005	5.99601E-002	9.77946E-001	3.57990E+000	9	...........
	84	1.13333	9.82049E-001	1.00953E-004	0.00000E+000	9.91411E-005	5.99601E-002	9.82437E-001	3.57990E+000	9	...........
	85	1.14667	9.86487E-001	1.01043E-004	0.00000E+000	9.96775E-005	5.99601E-002	9.86871E-001	3.57990E+000	9	...........
	86	1.16	9.90801E-001	1.01684E-004	0.00000E+000	1.00748E-004	5.99601E-002	9.91184E-001	3.57990E+000	9	...........
	87	1.17333	9.95013E-001	1.01687E-004	0.00000E+000	1.01180E-004	5.99601E-002	9.95419E-001	3.57990E+000	9	...........
	88	1.185	9.98897E-001	1.01077E-004	0.00000E+000	1.00965E-004	5.99601E-002	9.99310E-001	3.57990E+000	9	...........
STARTTIMEOFFSET	QUANT	2325.148	Start Time Offset (s)
