EXPLAIN
TAG	PWR800_CHARGE
TITLE	LABEL	PWR Cyclic Charge Discharge (Cell) - Charge Step	Test &Identifier
DATE	LABEL	13-7-2017	Date
TIME	LABEL	15:07:28	Time
NOTES	NOTES	2	&Notes...
	supercap test cell
	6M KOH
PSTAT	PSTAT	IFC5000-01520	Potentiostat
CAPACITY	QUANT	1.00000E-003	Capacity (A-hr)
CELLTYPE	SELECTOR	1	&Cell Type
WORKINGCONNECTION	SELECTOR	0	&Working Lead
MAXCHARGETIME	VARIABLEANDUNITS	1.00000E+002	s	1.00000E+002	second(s)	Max &Charge Time
CHARGECURRENT	QUANT	1.00000E-004	&Charge Current (A) 
VOLTAGEFINISH	TWOPARAM	F	1.00000E-003	3.60000E+003	&Voltage Finish	 I (A) < 	Max Time(s)
SAMPLETIME	QUANT	1.00000E-002	Sa&mple Period (s)
CHARGESTOPAT1	MULTIPARAM	4	1.00000E+000	Charge Stop At &1	Voltage > Limit	V
CHARGESTOPAT2	MULTIPARAM	0	0.00000E+000	Charge Stop At &2	None	N/A
AESBHCSELECTOR	TOGGLE	F	Save Both Half Cells
IRCOMP	TOGGLE	F	IR &Measure
EOC	QUANT	0	Open Circuit (V)
SEQUENCER	TOGGLE	TRUE	Run as Sequence
PSTATMODEL	IQUANT	53	Pstat Model
PSTATSECTION	LABEL	IFC5000-01520	Pstat Section
PSTATSERIALNO	LABEL	01520	Pstat Serial Number
CTRLMODE	IQUANT	0	Control Mode
ELECTROMETER	IQUANT	1	RE=0 or CS=1
IESTAB	IQUANT	0	I/E Stability
CASPEED	IQUANT	4	Control Amp Speed
CONVENTION	IQUANT	1	Current Convention
ICHRANGE	IQUANT	2	Ich Range
ICHRANGEMODE	TOGGLE	T	Ich Auto Range
ICHOFFSETENABLE	TOGGLE	F	Ich Offset Enable
ICHOFFSET	QUANT	0	Ich Offset (V)
ICHFILTER	IQUANT	1	Ich Filter
VCHRANGE	IQUANT	2	Vch Range
VCHRANGEMODE	TOGGLE	T	Vch Auto Range
VCHOFFSETENABLE	TOGGLE	F	Vch Offset Enable
VCHOFFSET	QUANT	0	Vch Offset (V)
VCHFILTER	IQUANT	1	Vch Filter
IERANGELOWERLIMIT	IQUANT	9	I/E Range Lower Limit
IERANGEMODE	TOGGLE	F	I/E AutoRange
IERANGE	IQUANT	9	I/E Range
ACHSELECT	IQUANT	1	Ach Select
ACHRANGE	IQUANT	2	Ach Range
ACHOFFSETENABLE	TOGGLE	F	Ach Offset Enable
ACHOFFSET	QUANT	0	Ach Offset (V)
ACHFILTER	IQUANT	1	Ach Filter
CABLEID	IQUANT	14	Cable ID
DCCALDATE	LABEL	5-7-2017	DC Calibration Date
ACCALDATE	LABEL	12/3/2015	AC Calibration Date
FRAMEWORKVERSION	QUANT	7.01	Framework Version
INSTRUMENTVERSION	LABEL	4.00	Instrument Version
CURVE	TABLE	99
	Pt	T	Vf	Im	Vu	Pwr	Sig	Ach	Temp	IERange	Over
	#	s	V	A	V	W	V	V	deg C	#	bits
	0	0.013333	1.33691E-001	1.01081E-004	0.00000E+000	1.35136E-005	5.99601E-002	1.33744E-001	3.57930E+000	9	...........
	1	0.026667	1.49064E-001	1.00765E-004	0.00000E+000	1.50204E-005	5.99601E-002	1.49095E-001	3.57930E+000	9	...........
	2	0.04	1.64001E-001	1.01103E-004	0.00000E+000	1.65810E-005	5.99601E-002	1.64027E-001	3.57930E+000	9	...........
	3	0.053333	1.78658E-001	1.00532E-004	0.00000E+000	1.79609E-005	5.99601E-002	1.78694E-001	3.57930E+000	9	...........
	4	0.066667	1.93124E-001	1.02146E-004	0.00000E+000	1.97269E-005	5.99601E-002	1.93156E-001	3.57930E+000	9	...........
	5	0.08	2.07441E-001	1.00922E-004	0.00000E+000	2.09353E-005	5.99601E-002	2.07482E-001	3.57930E+000	9	...........
	6	0.093333	2.21656E-001	1.01491E-004	0.00000E+000	2.24961E-005	5.99601E-002	2.21698E-001	3.57930E+000	9	...........
	7	0.106667	2.35789E-001	1.01431E-004	0.00000E+000	2.39164E-005	5.99601E-002	2.35832E-001	3.57930E+000	9	...........
	8	0.12	2.49857E-001	1.00202E-004	0.00000E+000	2.50362E-005	5.99601E-002	2.49908E-001	3.57930E+000	9	...........
	9	0.133333	2.63888E-001	1.01038E-004	0.00000E+000	2.66626E-005	5.99601E-002	2.63939E-001	3.57930E+000	9	...........
	10	0.146667	2.77889E-001	1.01629E-004	0.00000E+000	2.82417E-005	5.99601E-002	2.77948E-001	3.57930E+000	9	...........
	11	0.16	2.91866E-001	1.00922E-004	0.00000E+000	2.94557E-005	5.99601E-002	2.91927E-001	3.57930E+000	9	...........
	12	0.173333	3.05820E-001	1.00292E-004	0.00000E+000	3.06712E-005	5.99601E-002	3.05891E-001	3.57930E+000	9	...........
	13	0.186667	3.19773E-001	1.01306E-004	0.00000E+000	3.23951E-005	5.99601E-002	3.19837E-001	3.57930E+000	9	...........
	14	0.2	3.33700E-001	1.00279E-004	0.00000E+000	3.34631E-005	5.99601E-002	3.33764E-001	3.57930E+000	9	...........
	15	0.213333	3.47611E-001	1.00134E-004	0.00000E+000	3.48078E-005	5.99601E-002	3.47682E-001	3.57930E+000	9	...........
	16	0.226667	3.61497E-001	1.01261E-004	0.00000E+000	3.66054E-005	5.99601E-002	3.61576E-001	3.57930E+000	9	...........
	17	0.24	3.75355E-001	1.01106E-004	0.00000E+000	3.79508E-005	5.99601E-002	3.75427E-001	3.57930E+000	9	...........
	18	0.253333	3.89159E-001	1.00820E-004	0.00000E+000	3.92350E-005	5.99601E-002	3.89235E-001	3.57930E+000	9	...........
	19	0.266667	4.02898E-001	1.01214E-004	0.00000E+000	4.07788E-005	5.99601E-002	4.02983E-001	3.57930E+000	9	...........
	20	0.28	4.16564E-001	1.00772E-004	0.00000E+000	4.19780E-005	5.99601E-002	4.16649E-001	3.57930E+000	9	...........
	21	0.293333	4.30134E-001	1.01291E-004	0.00000E+000	4.35686E-005	5.99601E-002	4.30222E-001	3.57930E+000	9	...........
	22	0.306667	4.43583E-001	1.02225E-004	0.00000E+000	4.53455E-005	5.99601E-002	4.43678E-001	3.57930E+000	9	...........
	23	0.32	4.56899E-001	1.01547E-004	0.00000E+000	4.63968E-005	5.99601E-002	4.56992E-001	3.57930E+000	9	...........
	24	0.333333	4.70062E-001	1.00456E-004	0.00000E+000	4.72207E-005	5.99601E-002	4.70160E-001	3.57930E+000	9	...........
	25	0.346667	4.83063E-001	9.98395E-005	0.00000E+000	4.82287E-005	5.99601E-002	4.83162E-001	3.57930E+000	9	...........
	26	0.36	4.95876E-001	1.01969E-004	0.00000E+000	5.05640E-005	5.99601E-002	4.95988E-001	3.57930E+000	9	...........
	27	0.373333	5.08493E-001	1.01619E-004	0.00000E+000	5.16726E-005	5.99601E-002	5.08606E-001	3.57930E+000	9	...........
	28	0.386667	5.20914E-001	1.02339E-004	0.00000E+000	5.33098E-005	5.99601E-002	5.21033E-001	3.57930E+000	9	...........
	29	0.4	5.32974E-001	1.00970E-004	0.00000E+000	5.38144E-005	5.99601E-002	5.33173E-001	3.57930E+000	9	...........
	30	0.413333	5.44740E-001	1.00791E-004	0.00000E+000	5.49048E-005	5.99601E-002	5.45035E-001	3.57930E+000	9	...........
	31	0.426667	5.56492E-001	1.00005E-004	0.00000E+000	5.56521E-005	5.99601E-002	5.56835E-001	3.57930E+000	9	...........
	32	0.44	5.68091E-001	1.01123E-004	0.00000E+000	5.74471E-005	5.99601E-002	5.68385E-001	3.57930E+000	9	...........
	33	0.453333	5.79403E-001	1.00957E-004	0.00000E+000	5.84950E-005	5.99601E-002	5.79707E-001	3.57930E+000	9	...........
	34	0.466667	5.90517E-001	9.94550E-005	0.00000E+000	5.87299E-005	5.99601E-002	5.90808E-001	3.57930E+000	9	...........
	35	0.48	6.01391E-001	1.00282E-004	0.00000E+000	6.03089E-005	5.99601E-002	6.01708E-001	3.57930E+000	9	...........
	36	0.493333	6.12050E-001	1.01149E-004	0.00000E+000	6.19083E-005	5.99601E-002	6.12367E-001	3.57930E+000	9	...........
	37	0.506667	6.22535E-001	1.00660E-004	0.00000E+000	6.26647E-005	5.99601E-002	6.22821E-001	3.57930E+000	9	...........
	38	0.52	6.32747E-001	1.01765E-004	0.00000E+000	6.43914E-005	5.99601E-002	6.33037E-001	3.57930E+000	9	...........
	39	0.533333	6.42799E-001	1.01943E-004	0.00000E+000	6.55289E-005	5.99601E-002	6.43087E-001	3.57930E+000	9	...........
	40	0.546667	6.52623E-001	1.01273E-004	0.00000E+000	6.60931E-005	5.99601E-002	6.52884E-001	3.57930E+000	9	...........
	41	0.56	6.62235E-001	1.01408E-004	0.00000E+000	6.71556E-005	5.99601E-002	6.62513E-001	3.57930E+000	9	...........
	42	0.573333	6.71708E-001	1.00228E-004	0.00000E+000	6.73241E-005	5.99601E-002	6.71937E-001	3.57930E+000	9	...........
	43	0.586667	6.80937E-001	1.00939E-004	0.00000E+000	6.87329E-005	5.99601E-002	6.81194E-001	3.57930E+000	9	...........
	44	0.6	6.90013E-001	1.00373E-004	0.00000E+000	6.92586E-005	5.99601E-002	6.90254E-001	3.57930E+000	9	...........
	45	0.613333	6.98878E-001	1.01072E-004	0.00000E+000	7.06371E-005	5.99601E-002	6.99162E-001	3.57930E+000	9	...........
	46	0.626667	7.07595E-001	1.01802E-004	0.00000E+000	7.20349E-005	5.99601E-002	7.07868E-001	3.57930E+000	9	...........
	47	0.64	7.16150E-001	1.01634E-004	0.00000E+000	7.27849E-005	5.99601E-002	7.16429E-001	3.57930E+000	9	...........
	48	0.653333	7.24533E-001	1.00988E-004	0.00000E+000	7.31689E-005	5.99601E-002	7.24798E-001	3.57930E+000	9	...........
	49	0.666667	7.32741E-001	1.01140E-004	0.00000E+000	7.41092E-005	5.99601E-002	7.33003E-001	3.57930E+000	9	...........
	50	0.68	7.40779E-001	1.00152E-004	0.00000E+000	7.41905E-005	5.99601E-002	7.41066E-001	3.57930E+000	9	...........
	51	0.693333	7.48717E-001	1.00044E-004	0.00000E+000	7.49044E-005	5.99601E-002	7.48946E-001	3.57930E+000	9	...........
	52	0.706667	7.56490E-001	1.00701E-004	0.00000E+000	7.61794E-005	5.99601E-002	7.56709E-001	3.57930E+000	9	...........
	53	0.72	7.64079E-001	9.96561E-005	0.00000E+000	7.61451E-005	5.99601E-002	7.64316E-001	3.57930E+000	9	...........
	54	0.733333	7.71597E-001	1.01256E-004	0.00000E+000	7.81291E-005	5.99601E-002	7.71825E-001	3.57930E+000	9	...........
	55	0.746667	7.78937E-001	1.00458E-004	0.00000E+000	7.82507E-005	5.99601E-002	7.79156E-001	3.57930E+000	9	...........
	56	0.76	7.86146E-001	1.00934E-004	0.00000E+000	7.93492E-005	5.99601E-002	7.86376E-001	3.57930E+000	9	...........
	57	0.773333	7.93242E-001	1.00098E-004	0.00000E+000	7.94018E-005	5.99601E-002	7.93486E-001	3.57930E+000	9	...........
	58	0.786667	8.00197E-001	1.01270E-004	0.00000E+000	8.10360E-005	5.99601E-002	8.00455E-001	3.57930E+000	9	...........
	59	0.8	8.06998E-001	1.01132E-004	0.00000E+000	8.16137E-005	5.99601E-002	8.07316E-001	3.57930E+000	9	...........
	60	0.813333	8.13712E-001	1.00570E-004	0.00000E+000	8.18349E-005	5.99601E-002	8.14026E-001	3.57930E+000	9	...........
	61	0.826667	8.20345E-001	1.00869E-004	0.00000E+000	8.27472E-005	5.99601E-002	8.20670E-001	3.57930E+000	9	...........
	62	0.84	8.26851E-001	1.01090E-004	0.00000E+000	8.35861E-005	5.99601E-002	8.27150E-001	3.57930E+000	9	...........
	63	0.853333	8.33188E-001	1.01306E-004	0.00000E+000	8.44073E-005	5.99601E-002	8.33520E-001	3.57930E+000	9	...........
	64	0.866667	8.39469E-001	1.01643E-004	0.00000E+000	8.53261E-005	5.99601E-002	8.39758E-001	3.57930E+000	9	...........
	65	0.88	8.45645E-001	1.00759E-004	0.00000E+000	8.52068E-005	5.99601E-002	8.45966E-001	3.57975E+000	9	...........
	66	0.893333	8.51715E-001	1.01323E-004	0.00000E+000	8.62984E-005	5.99601E-002	8.52028E-001	3.58020E+000	9	...........
	67	0.906667	8.57666E-001	1.00963E-004	0.00000E+000	8.65922E-005	5.99601E-002	8.57999E-001	3.58020E+000	9	...........
	68	0.92	8.63532E-001	1.01251E-004	0.00000E+000	8.74337E-005	5.99601E-002	8.63892E-001	3.58020E+000	9	...........
	69	0.933333	8.69304E-001	1.00344E-004	0.00000E+000	8.72292E-005	5.99601E-002	8.69683E-001	3.58020E+000	9	...........
	70	0.946667	8.74999E-001	1.00382E-004	0.00000E+000	8.78344E-005	5.99601E-002	8.75356E-001	3.58020E+000	9	...........
	71	0.96	8.80576E-001	1.01040E-004	0.00000E+000	8.89731E-005	5.99601E-002	8.80947E-001	3.58020E+000	9	...........
	72	0.97333	8.86089E-001	1.01199E-004	0.00000E+000	8.96714E-005	5.99601E-002	8.86470E-001	3.58020E+000	9	...........
	73	0.98667	8.91463E-001	1.02189E-004	0.00000E+000	9.10977E-005	5.99601E-002	8.91837E-001	3.58020E+000	9	...........
	74	1	8.96773E-001	1.01709E-004	0.00000E+000	9.12095E-005	5.99601E-002	8.97180E-001	3.58020E+000	9	...........
	75	1.01333	9.01999E-001	1.00242E-004	0.00000E+000	9.04178E-005	5.99601E-002	9.02403E-001	3.58020E+000	9	...........
	76	1.02667	9.07128E-001	1.00390E-004	0.00000E+000	9.10662E-005	5.99601E-002	9.07548E-001	3.58020E+000	9	...........
	77	1.04	9.12187E-001	1.01325E-004	0.00000E+000	9.24276E-005	5.99601E-002	9.12570E-001	3.58020E+000	9	...........
	78	1.05333	9.17137E-001	1.00105E-004	0.00000E+000	9.18101E-005	5.99601E-002	9.17532E-001	3.58020E+000	9	...........
	79	1.06667	9.22070E-001	1.01892E-004	0.00000E+000	9.39515E-005	5.99601E-002	9.22447E-001	3.58020E+000	9	...........
	80	1.08	9.26853E-001	1.00350E-004	0.00000E+000	9.30097E-005	5.99601E-002	9.27237E-001	3.58020E+000	9	...........
	81	1.09333	9.31543E-001	1.00297E-004	0.00000E+000	9.34309E-005	5.99601E-002	9.31923E-001	3.58020E+000	9	...........
	82	1.10667	9.36162E-001	1.01815E-004	0.00000E+000	9.53153E-005	5.99601E-002	9.36554E-001	3.58020E+000	9	...........
	83	1.12	9.40719E-001	1.00096E-004	0.00000E+000	9.41620E-005	5.99601E-002	9.41112E-001	3.58020E+000	9	...........
	84	1.13333	9.45204E-001	1.01078E-004	0.00000E+000	9.55396E-005	5.99601E-002	9.45580E-001	3.58020E+000	9	...........
	85	1.14667	9.49620E-001	1.00753E-004	0.00000E+000	9.56773E-005	5.99601E-002	9.49981E-001	3.58020E+000	9	...........
	86	1.16	9.53925E-001	1.01010E-004	0.00000E+000	9.63555E-005	5.99601E-002	9.54293E-001	3.58020E+000	9	...........
	87	1.17333	9.58159E-001	1.01075E-004	0.00000E+000	9.68461E-005	5.99601E-002	9.58530E-001	3.58020E+000	9	...........
	88	1.18667	9.62317E-001	1.01557E-004	0.00000E+000	9.77296E-005	5.99601E-002	9.62683E-001	3.58020E+000	9	...........
	89	1.2	9.66392E-001	1.01488E-004	0.00000E+000	9.80770E-005	5.99601E-002	9.66759E-001	3.58020E+000	9	...........
	90	1.21333	9.70378E-001	1.01096E-004	0.00000E+000	9.81013E-005	5.99601E-002	9.70755E-001	3.58020E+000	9	...........
	91	1.22667	9.74370E-001	1.00755E-004	0.00000E+000	9.81730E-005	5.99601E-002	9.74719E-001	3.58020E+000	9	...........
	92	1.24	9.78224E-001	1.00724E-004	0.00000E+000	9.85307E-005	5.99601E-002	9.78583E-001	3.58020E+000	9	...........
	93	1.25333	9.81994E-001	1.01108E-004	0.00000E+000	9.92880E-005	5.99601E-002	9.82360E-001	3.58020E+000	9	...........
	94	1.26667	9.85702E-001	1.00559E-004	0.00000E+000	9.91216E-005	5.99601E-002	9.86075E-001	3.58020E+000	9	...........
	95	1.28	9.89320E-001	1.01519E-004	0.00000E+000	1.00435E-004	5.99601E-002	9.89734E-001	3.58020E+000	9	...........
	96	1.29333	9.92862E-001	1.01851E-004	0.00000E+000	1.01124E-004	5.99601E-002	9.93267E-001	3.58020E+000	9	...........
	97	1.30667	9.96368E-001	1.00427E-004	0.00000E+000	1.00062E-004	5.99601E-002	9.96767E-001	3.58020E+000	9	...........
	98	1.31667	9.99352E-001	1.00440E-004	0.00000E+000	1.00375E-004	5.99601E-002	9.99771E-001	3.58020E+000	9	...........
STARTTIMEOFFSET	QUANT	242.2266	Start Time Offset (s)
