EXPLAIN
TAG	PWR800_CHARGE
TITLE	LABEL	PWR Cyclic Charge Discharge (Cell) - Charge Step	Test &Identifier
DATE	LABEL	13-7-2017	Date
TIME	LABEL	15:28:43	Time
NOTES	NOTES	2	&Notes...
	supercap test cell
	6M KOH
PSTAT	PSTAT	IFC5000-01520	Potentiostat
CAPACITY	QUANT	1.00000E-003	Capacity (A-hr)
CELLTYPE	SELECTOR	1	&Cell Type
WORKINGCONNECTION	SELECTOR	0	&Working Lead
MAXCHARGETIME	VARIABLEANDUNITS	1.00000E+002	s	1.00000E+002	second(s)	Max &Charge Time
CHARGECURRENT	QUANT	1.00000E-004	&Charge Current (A) 
VOLTAGEFINISH	TWOPARAM	F	1.00000E-003	3.60000E+003	&Voltage Finish	 I (A) < 	Max Time(s)
SAMPLETIME	QUANT	1.00000E-002	Sa&mple Period (s)
CHARGESTOPAT1	MULTIPARAM	4	1.00000E+000	Charge Stop At &1	Voltage > Limit	V
CHARGESTOPAT2	MULTIPARAM	0	0.00000E+000	Charge Stop At &2	None	N/A
AESBHCSELECTOR	TOGGLE	F	Save Both Half Cells
IRCOMP	TOGGLE	F	IR &Measure
EOC	QUANT	0	Open Circuit (V)
SEQUENCER	TOGGLE	TRUE	Run as Sequence
PSTATMODEL	IQUANT	53	Pstat Model
PSTATSECTION	LABEL	IFC5000-01520	Pstat Section
PSTATSERIALNO	LABEL	01520	Pstat Serial Number
CTRLMODE	IQUANT	0	Control Mode
ELECTROMETER	IQUANT	1	RE=0 or CS=1
IESTAB	IQUANT	0	I/E Stability
CASPEED	IQUANT	4	Control Amp Speed
CONVENTION	IQUANT	1	Current Convention
ICHRANGE	IQUANT	2	Ich Range
ICHRANGEMODE	TOGGLE	T	Ich Auto Range
ICHOFFSETENABLE	TOGGLE	F	Ich Offset Enable
ICHOFFSET	QUANT	0	Ich Offset (V)
ICHFILTER	IQUANT	1	Ich Filter
VCHRANGE	IQUANT	2	Vch Range
VCHRANGEMODE	TOGGLE	T	Vch Auto Range
VCHOFFSETENABLE	TOGGLE	F	Vch Offset Enable
VCHOFFSET	QUANT	0	Vch Offset (V)
VCHFILTER	IQUANT	1	Vch Filter
IERANGELOWERLIMIT	IQUANT	9	I/E Range Lower Limit
IERANGEMODE	TOGGLE	F	I/E AutoRange
IERANGE	IQUANT	9	I/E Range
ACHSELECT	IQUANT	1	Ach Select
ACHRANGE	IQUANT	2	Ach Range
ACHOFFSETENABLE	TOGGLE	F	Ach Offset Enable
ACHOFFSET	QUANT	0	Ach Offset (V)
ACHFILTER	IQUANT	1	Ach Filter
CABLEID	IQUANT	14	Cable ID
DCCALDATE	LABEL	5-7-2017	DC Calibration Date
ACCALDATE	LABEL	12/3/2015	AC Calibration Date
FRAMEWORKVERSION	QUANT	7.01	Framework Version
INSTRUMENTVERSION	LABEL	4.00	Instrument Version
CURVE	TABLE	92
	Pt	T	Vf	Im	Vu	Pwr	Sig	Ach	Temp	IERange	Over
	#	s	V	A	V	W	V	V	deg C	#	bits
	0	0.013333	1.32407E-001	1.01252E-004	0.00000E+000	1.34065E-005	5.99601E-002	1.32453E-001	3.57880E+000	9	...........
	1	0.026667	1.47691E-001	1.00888E-004	0.00000E+000	1.49002E-005	5.99601E-002	1.47709E-001	3.57880E+000	9	...........
	2	0.04	1.62518E-001	1.01094E-004	0.00000E+000	1.64295E-005	5.99601E-002	1.62544E-001	3.57880E+000	9	...........
	3	0.053333	1.77085E-001	1.00638E-004	0.00000E+000	1.78214E-005	5.99601E-002	1.77113E-001	3.57880E+000	9	...........
	4	0.066667	1.91460E-001	1.02143E-004	0.00000E+000	1.95563E-005	5.99601E-002	1.91486E-001	3.57880E+000	9	...........
	5	0.08	2.05678E-001	1.00979E-004	0.00000E+000	2.07692E-005	5.99601E-002	2.05712E-001	3.57880E+000	9	...........
	6	0.093333	2.19802E-001	1.00654E-004	0.00000E+000	2.21240E-005	5.99601E-002	2.19838E-001	3.57880E+000	9	...........
	7	0.106667	2.33852E-001	1.01367E-004	0.00000E+000	2.37049E-005	5.99601E-002	2.33887E-001	3.57880E+000	9	...........
	8	0.12	2.47851E-001	1.01293E-004	0.00000E+000	2.51055E-005	5.99601E-002	2.47900E-001	3.57880E+000	9	...........
	9	0.133333	2.61823E-001	1.00083E-004	0.00000E+000	2.62041E-005	5.99601E-002	2.61869E-001	3.57880E+000	9	...........
	10	0.146667	2.75783E-001	1.00879E-004	0.00000E+000	2.78208E-005	5.99601E-002	2.75836E-001	3.57880E+000	9	...........
	11	0.16	2.89744E-001	1.01365E-004	0.00000E+000	2.93699E-005	5.99601E-002	2.89798E-001	3.57880E+000	9	...........
	12	0.173333	3.03714E-001	1.01557E-004	0.00000E+000	3.08441E-005	5.99601E-002	3.03772E-001	3.57880E+000	9	...........
	13	0.186667	3.17698E-001	1.01424E-004	0.00000E+000	3.22222E-005	5.99601E-002	3.17760E-001	3.57880E+000	9	...........
	14	0.2	3.31695E-001	1.01165E-004	0.00000E+000	3.35559E-005	5.99601E-002	3.31756E-001	3.57880E+000	9	...........
	15	0.213333	3.45714E-001	1.00747E-004	0.00000E+000	3.48296E-005	5.99601E-002	3.45778E-001	3.57880E+000	9	...........
	16	0.226667	3.59750E-001	1.01770E-004	0.00000E+000	3.66117E-005	5.99601E-002	3.59817E-001	3.57880E+000	9	...........
	17	0.24	3.73790E-001	1.00919E-004	0.00000E+000	3.77225E-005	5.99601E-002	3.73857E-001	3.57880E+000	9	...........
	18	0.253333	3.87833E-001	1.01141E-004	0.00000E+000	3.92257E-005	5.99601E-002	3.87902E-001	3.57880E+000	9	...........
	19	0.266667	4.01859E-001	1.00614E-004	0.00000E+000	4.04324E-005	5.99601E-002	4.01930E-001	3.57880E+000	9	...........
	20	0.28	4.15842E-001	1.00156E-004	0.00000E+000	4.16492E-005	5.99601E-002	4.15926E-001	3.57880E+000	9	...........
	21	0.293333	4.29786E-001	1.01026E-004	0.00000E+000	4.34196E-005	5.99601E-002	4.29864E-001	3.57880E+000	9	...........
	22	0.306667	4.43654E-001	1.00767E-004	0.00000E+000	4.47055E-005	5.99601E-002	4.43743E-001	3.57880E+000	9	...........
	23	0.32	4.57433E-001	1.01286E-004	0.00000E+000	4.63314E-005	5.99601E-002	4.57518E-001	3.57880E+000	9	...........
	24	0.333333	4.71099E-001	1.00403E-004	0.00000E+000	4.72998E-005	5.99601E-002	4.71187E-001	3.57880E+000	9	...........
	25	0.346667	4.84625E-001	1.00828E-004	0.00000E+000	4.88639E-005	5.99601E-002	4.84721E-001	3.57880E+000	9	...........
	26	0.36	4.97998E-001	1.00683E-004	0.00000E+000	5.01401E-005	5.99601E-002	4.98100E-001	3.57880E+000	9	...........
	27	0.373333	5.11203E-001	1.01380E-004	0.00000E+000	5.18260E-005	5.99601E-002	5.11306E-001	3.57880E+000	9	...........
	28	0.386667	5.24217E-001	1.00088E-004	0.00000E+000	5.24681E-005	5.99601E-002	5.24329E-001	3.57880E+000	9	...........
	29	0.4	5.36823E-001	9.97384E-005	0.00000E+000	5.35419E-005	5.99601E-002	5.36977E-001	3.57880E+000	9	...........
	30	0.413333	5.49311E-001	1.00906E-004	0.00000E+000	5.54289E-005	5.99601E-002	5.49532E-001	3.57880E+000	9	...........
	31	0.426667	5.61695E-001	1.00349E-004	0.00000E+000	5.63655E-005	5.99601E-002	5.61956E-001	3.57880E+000	9	...........
	32	0.44	5.73877E-001	1.00735E-004	0.00000E+000	5.78098E-005	5.99601E-002	5.74137E-001	3.57880E+000	9	...........
	33	0.453333	5.85800E-001	1.01202E-004	0.00000E+000	5.92843E-005	5.99601E-002	5.86092E-001	3.57880E+000	9	...........
	34	0.466667	5.97531E-001	1.00724E-004	0.00000E+000	6.01857E-005	5.99601E-002	5.97817E-001	3.57880E+000	9	...........
	35	0.48	6.08998E-001	1.00861E-004	0.00000E+000	6.14238E-005	5.99601E-002	6.09316E-001	3.57880E+000	9	...........
	36	0.493333	6.20321E-001	9.99124E-005	0.00000E+000	6.19777E-005	5.99601E-002	6.20577E-001	3.57880E+000	9	...........
	37	0.506667	6.31343E-001	1.01143E-004	0.00000E+000	6.38559E-005	5.99601E-002	6.31614E-001	3.57880E+000	9	...........
	38	0.52	6.42165E-001	1.00788E-004	0.00000E+000	6.47223E-005	5.99601E-002	6.42453E-001	3.57880E+000	9	...........
	39	0.533333	6.52781E-001	1.01005E-004	0.00000E+000	6.59344E-005	5.99601E-002	6.53058E-001	3.57880E+000	9	...........
	40	0.546667	6.63185E-001	1.00662E-004	0.00000E+000	6.67572E-005	5.99601E-002	6.63478E-001	3.57880E+000	9	...........
	41	0.56	6.73365E-001	1.01016E-004	0.00000E+000	6.80205E-005	5.99601E-002	6.73644E-001	3.57880E+000	9	...........
	42	0.573333	6.83343E-001	1.00650E-004	0.00000E+000	6.87785E-005	5.99601E-002	6.83634E-001	3.57880E+000	9	...........
	43	0.586667	6.93103E-001	1.01442E-004	0.00000E+000	7.03096E-005	5.99601E-002	6.93412E-001	3.57880E+000	9	...........
	44	0.6	7.02696E-001	1.01324E-004	0.00000E+000	7.12001E-005	5.99601E-002	7.02983E-001	3.57880E+000	9	...........
	45	0.613333	7.12072E-001	1.01169E-004	0.00000E+000	7.20396E-005	5.99601E-002	7.12388E-001	3.57880E+000	9	...........
	46	0.626667	7.21323E-001	1.01398E-004	0.00000E+000	7.31408E-005	5.99601E-002	7.21595E-001	3.57880E+000	9	...........
	47	0.64	7.30340E-001	1.00601E-004	0.00000E+000	7.34730E-005	5.99601E-002	7.30606E-001	3.57993E+000	9	...........
	48	0.653333	7.39165E-001	1.00100E-004	0.00000E+000	7.39903E-005	5.99601E-002	7.39451E-001	3.58060E+000	9	...........
	49	0.666667	7.47853E-001	1.00109E-004	0.00000E+000	7.48670E-005	5.99601E-002	7.48128E-001	3.58060E+000	9	...........
	50	0.68	7.56373E-001	1.00744E-004	0.00000E+000	7.62000E-005	5.99601E-002	7.56636E-001	3.58060E+000	9	...........
	51	0.693333	7.64733E-001	1.00847E-004	0.00000E+000	7.71210E-005	5.99601E-002	7.65007E-001	3.58060E+000	9	...........
	52	0.706667	7.72932E-001	1.00734E-004	0.00000E+000	7.78609E-005	5.99601E-002	7.73217E-001	3.58060E+000	9	...........
	53	0.72	7.80999E-001	1.00950E-004	0.00000E+000	7.88419E-005	5.99601E-002	7.81252E-001	3.58060E+000	9	...........
	54	0.733333	7.88870E-001	1.00814E-004	0.00000E+000	7.95289E-005	5.99601E-002	7.89160E-001	3.58060E+000	9	...........
	55	0.746667	7.96633E-001	1.00779E-004	0.00000E+000	8.02841E-005	5.99601E-002	7.96915E-001	3.58060E+000	9	...........
	56	0.76	8.04224E-001	1.00548E-004	0.00000E+000	8.08630E-005	5.99601E-002	8.04531E-001	3.58060E+000	9	...........
	57	0.773333	8.11666E-001	1.01512E-004	0.00000E+000	8.23936E-005	5.99601E-002	8.11983E-001	3.58060E+000	9	...........
	58	0.786667	8.18994E-001	1.01468E-004	0.00000E+000	8.31017E-005	5.99601E-002	8.19323E-001	3.58060E+000	9	...........
	59	0.8	8.26197E-001	1.00798E-004	0.00000E+000	8.32790E-005	5.99601E-002	8.26511E-001	3.58060E+000	9	...........
	60	0.813333	8.33257E-001	1.01162E-004	0.00000E+000	8.42936E-005	5.99601E-002	8.33567E-001	3.58060E+000	9	...........
	61	0.826667	8.40186E-001	1.00550E-004	0.00000E+000	8.44807E-005	5.99601E-002	8.40512E-001	3.58060E+000	9	...........
	62	0.84	8.47026E-001	1.01170E-004	0.00000E+000	8.56936E-005	5.99601E-002	8.47351E-001	3.58060E+000	9	...........
	63	0.853333	8.53706E-001	1.00522E-004	0.00000E+000	8.58161E-005	5.99601E-002	8.54028E-001	3.58060E+000	9	...........
	64	0.866667	8.60262E-001	1.00595E-004	0.00000E+000	8.65379E-005	5.99601E-002	8.60621E-001	3.58060E+000	9	...........
	65	0.88	8.66729E-001	1.00604E-004	0.00000E+000	8.71966E-005	5.99601E-002	8.67093E-001	3.58060E+000	9	...........
	66	0.893333	8.73105E-001	1.00076E-004	0.00000E+000	8.73769E-005	5.99601E-002	8.73443E-001	3.58060E+000	9	...........
	67	0.906667	8.79338E-001	1.01162E-004	0.00000E+000	8.89552E-005	5.99601E-002	8.79674E-001	3.58060E+000	9	...........
	68	0.92	8.85476E-001	1.00596E-004	0.00000E+000	8.90753E-005	5.99601E-002	8.85810E-001	3.58060E+000	9	...........
	69	0.933333	8.91473E-001	1.01316E-004	0.00000E+000	9.03204E-005	5.99601E-002	8.91829E-001	3.58060E+000	9	...........
	70	0.946667	8.97394E-001	1.01044E-004	0.00000E+000	9.06762E-005	5.99601E-002	8.97772E-001	3.58060E+000	9	...........
	71	0.96	9.03200E-001	1.01380E-004	0.00000E+000	9.15668E-005	5.99601E-002	9.03588E-001	3.58060E+000	9	...........
	72	0.97333	9.08894E-001	1.00694E-004	0.00000E+000	9.15200E-005	5.99601E-002	9.09283E-001	3.58060E+000	9	...........
	73	0.98667	9.14493E-001	1.00918E-004	0.00000E+000	9.22887E-005	5.99601E-002	9.14898E-001	3.58060E+000	9	...........
	74	1	9.20034E-001	1.01436E-004	0.00000E+000	9.33242E-005	5.99601E-002	9.20397E-001	3.58060E+000	9	...........
	75	1.01333	9.25465E-001	1.01552E-004	0.00000E+000	9.39831E-005	5.99601E-002	9.25823E-001	3.58060E+000	9	...........
	76	1.02667	9.30795E-001	1.01027E-004	0.00000E+000	9.40357E-005	5.99601E-002	9.31093E-001	3.58060E+000	9	...........
	77	1.04	9.35965E-001	1.00644E-004	0.00000E+000	9.41991E-005	5.99601E-002	9.36313E-001	3.58060E+000	9	...........
	78	1.05333	9.41074E-001	1.01010E-004	0.00000E+000	9.50575E-005	5.99601E-002	9.41433E-001	3.58060E+000	9	...........
	79	1.06667	9.46105E-001	1.01404E-004	0.00000E+000	9.59392E-005	5.99601E-002	9.46443E-001	3.58060E+000	9	...........
	80	1.08	9.51048E-001	1.00809E-004	0.00000E+000	9.58746E-005	5.99601E-002	9.51386E-001	3.58060E+000	9	...........
	81	1.09333	9.55852E-001	1.01321E-004	0.00000E+000	9.68479E-005	5.99601E-002	9.56203E-001	3.58060E+000	9	...........
	82	1.10667	9.60570E-001	1.00542E-004	0.00000E+000	9.65774E-005	5.99601E-002	9.60938E-001	3.58060E+000	9	...........
	83	1.12	9.65197E-001	1.01992E-004	0.00000E+000	9.84424E-005	5.99601E-002	9.65574E-001	3.58060E+000	9	...........
	84	1.13333	9.69744E-001	1.01029E-004	0.00000E+000	9.79725E-005	5.99601E-002	9.70113E-001	3.58060E+000	9	...........
	85	1.14667	9.74257E-001	1.00867E-004	0.00000E+000	9.82701E-005	5.99601E-002	9.74574E-001	3.58060E+000	9	...........
	86	1.16	9.78602E-001	1.00674E-004	0.00000E+000	9.85198E-005	5.99601E-002	9.78953E-001	3.58060E+000	9	...........
	87	1.17333	9.82858E-001	1.01164E-004	0.00000E+000	9.94296E-005	5.99601E-002	9.83209E-001	3.58060E+000	9	...........
	88	1.18667	9.87052E-001	1.01469E-004	0.00000E+000	1.00155E-004	5.99601E-002	9.87432E-001	3.58060E+000	9	...........
	89	1.2	9.91136E-001	1.00482E-004	0.00000E+000	9.95917E-005	5.99601E-002	9.91502E-001	3.58060E+000	9	...........
	90	1.21333	9.95130E-001	1.01485E-004	0.00000E+000	1.00990E-004	5.99601E-002	9.95524E-001	3.58060E+000	9	...........
	91	1.225	9.98828E-001	9.99717E-005	0.00000E+000	9.98545E-005	5.99601E-002	9.99216E-001	3.58060E+000	9	...........
STARTTIMEOFFSET	QUANT	1208.749	Start Time Offset (s)
