EXPLAIN
TAG	PWR800_CHARGE
TITLE	LABEL	PWR Cyclic Charge Discharge (Cell) - Charge Step	Test &Identifier
DATE	LABEL	13-7-2017	Date
TIME	LABEL	15:43:03	Time
NOTES	NOTES	2	&Notes...
	supercap test cell
	6M KOH
PSTAT	PSTAT	IFC5000-01520	Potentiostat
CAPACITY	QUANT	1.00000E-003	Capacity (A-hr)
CELLTYPE	SELECTOR	1	&Cell Type
WORKINGCONNECTION	SELECTOR	0	&Working Lead
MAXCHARGETIME	VARIABLEANDUNITS	1.00000E+002	s	1.00000E+002	second(s)	Max &Charge Time
CHARGECURRENT	QUANT	1.00000E-004	&Charge Current (A) 
VOLTAGEFINISH	TWOPARAM	F	1.00000E-003	3.60000E+003	&Voltage Finish	 I (A) < 	Max Time(s)
SAMPLETIME	QUANT	1.00000E-002	Sa&mple Period (s)
CHARGESTOPAT1	MULTIPARAM	4	1.00000E+000	Charge Stop At &1	Voltage > Limit	V
CHARGESTOPAT2	MULTIPARAM	0	0.00000E+000	Charge Stop At &2	None	N/A
AESBHCSELECTOR	TOGGLE	F	Save Both Half Cells
IRCOMP	TOGGLE	F	IR &Measure
EOC	QUANT	0	Open Circuit (V)
SEQUENCER	TOGGLE	TRUE	Run as Sequence
PSTATMODEL	IQUANT	53	Pstat Model
PSTATSECTION	LABEL	IFC5000-01520	Pstat Section
PSTATSERIALNO	LABEL	01520	Pstat Serial Number
CTRLMODE	IQUANT	0	Control Mode
ELECTROMETER	IQUANT	1	RE=0 or CS=1
IESTAB	IQUANT	0	I/E Stability
CASPEED	IQUANT	4	Control Amp Speed
CONVENTION	IQUANT	1	Current Convention
ICHRANGE	IQUANT	2	Ich Range
ICHRANGEMODE	TOGGLE	T	Ich Auto Range
ICHOFFSETENABLE	TOGGLE	F	Ich Offset Enable
ICHOFFSET	QUANT	0	Ich Offset (V)
ICHFILTER	IQUANT	1	Ich Filter
VCHRANGE	IQUANT	2	Vch Range
VCHRANGEMODE	TOGGLE	T	Vch Auto Range
VCHOFFSETENABLE	TOGGLE	F	Vch Offset Enable
VCHOFFSET	QUANT	0	Vch Offset (V)
VCHFILTER	IQUANT	1	Vch Filter
IERANGELOWERLIMIT	IQUANT	9	I/E Range Lower Limit
IERANGEMODE	TOGGLE	F	I/E AutoRange
IERANGE	IQUANT	9	I/E Range
ACHSELECT	IQUANT	1	Ach Select
ACHRANGE	IQUANT	2	Ach Range
ACHOFFSETENABLE	TOGGLE	F	Ach Offset Enable
ACHOFFSET	QUANT	0	Ach Offset (V)
ACHFILTER	IQUANT	1	Ach Filter
CABLEID	IQUANT	14	Cable ID
DCCALDATE	LABEL	5-7-2017	DC Calibration Date
ACCALDATE	LABEL	12/3/2015	AC Calibration Date
FRAMEWORKVERSION	QUANT	7.01	Framework Version
INSTRUMENTVERSION	LABEL	4.00	Instrument Version
CURVE	TABLE	90
	Pt	T	Vf	Im	Vu	Pwr	Sig	Ach	Temp	IERange	Over
	#	s	V	A	V	W	V	V	deg C	#	bits
	0	0.013333	1.33241E-001	1.00384E-004	0.00000E+000	1.33753E-005	5.99601E-002	1.33291E-001	3.58000E+000	9	...........
	1	0.026667	1.48530E-001	1.00645E-004	0.00000E+000	1.49488E-005	5.99601E-002	1.48555E-001	3.58000E+000	9	...........
	2	0.04	1.63381E-001	1.01088E-004	0.00000E+000	1.65158E-005	5.99601E-002	1.63417E-001	3.58000E+000	9	...........
	3	0.053333	1.77968E-001	1.00423E-004	0.00000E+000	1.78721E-005	5.99601E-002	1.77999E-001	3.58000E+000	9	...........
	4	0.066667	1.92359E-001	1.00719E-004	0.00000E+000	1.93741E-005	5.99601E-002	1.92390E-001	3.58000E+000	9	...........
	5	0.08	2.06609E-001	1.01054E-004	0.00000E+000	2.08787E-005	5.99601E-002	2.06641E-001	3.58000E+000	9	...........
	6	0.093333	2.20754E-001	1.00493E-004	0.00000E+000	2.21842E-005	5.99601E-002	2.20792E-001	3.58000E+000	9	...........
	7	0.106667	2.34832E-001	1.00354E-004	0.00000E+000	2.35664E-005	5.99601E-002	2.34870E-001	3.58000E+000	9	...........
	8	0.12	2.48863E-001	1.00854E-004	0.00000E+000	2.50989E-005	5.99601E-002	2.48902E-001	3.57985E+000	9	...........
	9	0.133333	2.62871E-001	1.01069E-004	0.00000E+000	2.65681E-005	5.99601E-002	2.62913E-001	3.57960E+000	9	...........
	10	0.146667	2.76870E-001	1.00951E-004	0.00000E+000	2.79504E-005	5.99601E-002	2.76920E-001	3.57960E+000	9	...........
	11	0.16	2.90872E-001	1.01686E-004	0.00000E+000	2.95775E-005	5.99601E-002	2.90924E-001	3.57960E+000	9	...........
	12	0.173333	3.04890E-001	1.00087E-004	0.00000E+000	3.05157E-005	5.99601E-002	3.04940E-001	3.57960E+000	9	...........
	13	0.186667	3.18923E-001	1.00057E-004	0.00000E+000	3.19106E-005	5.99601E-002	3.18981E-001	3.57960E+000	9	...........
	14	0.2	3.32983E-001	1.00506E-004	0.00000E+000	3.34669E-005	5.99601E-002	3.33040E-001	3.57960E+000	9	...........
	15	0.213333	3.47069E-001	1.00578E-004	0.00000E+000	3.49076E-005	5.99601E-002	3.47132E-001	3.57960E+000	9	...........
	16	0.226667	3.61175E-001	1.00214E-004	0.00000E+000	3.61947E-005	5.99601E-002	3.61242E-001	3.57960E+000	9	...........
	17	0.24	3.75311E-001	1.01463E-004	0.00000E+000	3.80801E-005	5.99601E-002	3.75381E-001	3.57960E+000	9	...........
	18	0.253333	3.89443E-001	1.00667E-004	0.00000E+000	3.92040E-005	5.99601E-002	3.89514E-001	3.57960E+000	9	...........
	19	0.266667	4.03575E-001	1.01716E-004	0.00000E+000	4.10500E-005	5.99601E-002	4.03648E-001	3.57960E+000	9	...........
	20	0.28	4.17682E-001	1.00867E-004	0.00000E+000	4.21303E-005	5.99601E-002	4.17766E-001	3.57960E+000	9	...........
	21	0.293333	4.31759E-001	1.00642E-004	0.00000E+000	4.34530E-005	5.99601E-002	4.31844E-001	3.57960E+000	9	...........
	22	0.306667	4.45770E-001	1.00562E-004	0.00000E+000	4.48273E-005	5.99601E-002	4.45859E-001	3.57960E+000	9	...........
	23	0.32	4.59701E-001	1.00833E-004	0.00000E+000	4.63532E-005	5.99601E-002	4.59792E-001	3.57960E+000	9	...........
	24	0.333333	4.73526E-001	1.00513E-004	0.00000E+000	4.75953E-005	5.99601E-002	4.73616E-001	3.57960E+000	9	...........
	25	0.346667	4.87226E-001	1.01496E-004	0.00000E+000	4.94516E-005	5.99601E-002	4.87320E-001	3.57960E+000	9	...........
	26	0.36	5.00770E-001	1.00975E-004	0.00000E+000	5.05653E-005	5.99601E-002	5.00873E-001	3.57960E+000	9	...........
	27	0.373333	5.14154E-001	1.01207E-004	0.00000E+000	5.20362E-005	5.99601E-002	5.14261E-001	3.57960E+000	9	...........
	28	0.386667	5.27350E-001	1.00166E-004	0.00000E+000	5.28223E-005	5.99601E-002	5.27455E-001	3.57960E+000	9	...........
	29	0.4	5.40026E-001	1.00961E-004	0.00000E+000	5.45213E-005	5.99601E-002	5.40227E-001	3.57960E+000	9	...........
	30	0.413333	5.52781E-001	1.00624E-004	0.00000E+000	5.56230E-005	5.99601E-002	5.53021E-001	3.57960E+000	9	...........
	31	0.426667	5.65354E-001	1.00890E-004	0.00000E+000	5.70384E-005	5.99601E-002	5.65624E-001	3.57960E+000	9	...........
	32	0.44	5.77680E-001	1.00858E-004	0.00000E+000	5.82639E-005	5.99601E-002	5.77982E-001	3.57960E+000	9	...........
	33	0.453333	5.89819E-001	9.96780E-005	0.00000E+000	5.87920E-005	5.99601E-002	5.90108E-001	3.57960E+000	9	...........
	34	0.466667	6.01700E-001	1.00759E-004	0.00000E+000	6.06270E-005	5.99601E-002	6.01998E-001	3.57960E+000	9	...........
	35	0.48	6.13366E-001	1.00712E-004	0.00000E+000	6.17730E-005	5.99601E-002	6.13671E-001	3.57960E+000	9	...........
	36	0.493333	6.24822E-001	1.00925E-004	0.00000E+000	6.30603E-005	5.99601E-002	6.25086E-001	3.57960E+000	9	...........
	37	0.506667	6.36014E-001	1.00249E-004	0.00000E+000	6.37597E-005	5.99601E-002	6.36297E-001	3.57960E+000	9	...........
	38	0.52	6.47013E-001	1.00279E-004	0.00000E+000	6.48819E-005	5.99601E-002	6.47293E-001	3.57960E+000	9	...........
	39	0.533333	6.57770E-001	1.01178E-004	0.00000E+000	6.65520E-005	5.99601E-002	6.58047E-001	3.57960E+000	9	...........
	40	0.546667	6.68313E-001	1.00673E-004	0.00000E+000	6.72811E-005	5.99601E-002	6.68619E-001	3.57960E+000	9	...........
	41	0.56	6.78627E-001	1.01408E-004	0.00000E+000	6.88179E-005	5.99601E-002	6.78933E-001	3.57960E+000	9	...........
	42	0.573333	6.88742E-001	1.00735E-004	0.00000E+000	6.93808E-005	5.99601E-002	6.89048E-001	3.57960E+000	9	...........
	43	0.586667	6.98655E-001	1.00842E-004	0.00000E+000	7.04536E-005	5.99601E-002	6.98959E-001	3.57960E+000	9	...........
	44	0.6	7.08376E-001	1.00616E-004	0.00000E+000	7.12737E-005	5.99601E-002	7.08691E-001	3.57960E+000	9	...........
	45	0.613333	7.17906E-001	1.00407E-004	0.00000E+000	7.20830E-005	5.99601E-002	7.18231E-001	3.57960E+000	9	...........
	46	0.626667	7.27263E-001	1.00195E-004	0.00000E+000	7.28679E-005	5.99601E-002	7.27583E-001	3.57960E+000	9	...........
	47	0.64	7.36401E-001	1.02080E-004	0.00000E+000	7.51715E-005	5.99601E-002	7.36708E-001	3.57960E+000	9	...........
	48	0.653333	7.45387E-001	1.01067E-004	0.00000E+000	7.53339E-005	5.99601E-002	7.45711E-001	3.57960E+000	9	...........
	49	0.666667	7.54183E-001	1.00574E-004	0.00000E+000	7.58512E-005	5.99601E-002	7.54501E-001	3.57960E+000	9	...........
	50	0.68	7.62816E-001	1.01167E-004	0.00000E+000	7.71717E-005	5.99601E-002	7.63121E-001	3.57960E+000	9	...........
	51	0.693333	7.71256E-001	1.00973E-004	0.00000E+000	7.78761E-005	5.99601E-002	7.71590E-001	3.57960E+000	9	...........
	52	0.706667	7.79585E-001	1.00467E-004	0.00000E+000	7.83223E-005	5.99601E-002	7.79896E-001	3.57960E+000	9	...........
	53	0.72	7.87721E-001	1.00505E-004	0.00000E+000	7.91701E-005	5.99601E-002	7.88027E-001	3.57960E+000	9	...........
	54	0.733333	7.95750E-001	1.00958E-004	0.00000E+000	8.03377E-005	5.99601E-002	7.96036E-001	3.57960E+000	9	...........
	55	0.746667	8.03557E-001	1.01474E-004	0.00000E+000	8.15403E-005	5.99601E-002	8.03882E-001	3.57960E+000	9	...........
	56	0.76	8.11243E-001	1.01058E-004	0.00000E+000	8.19829E-005	5.99601E-002	8.11567E-001	3.57960E+000	9	...........
	57	0.773333	8.18802E-001	1.01834E-004	0.00000E+000	8.33815E-005	5.99601E-002	8.19126E-001	3.57960E+000	9	...........
	58	0.786667	8.26217E-001	1.00479E-004	0.00000E+000	8.30176E-005	5.99601E-002	8.26540E-001	3.57960E+000	9	...........
	59	0.8	8.33468E-001	1.01524E-004	0.00000E+000	8.46172E-005	5.99601E-002	8.33811E-001	3.57960E+000	9	...........
	60	0.813333	8.40593E-001	1.00296E-004	0.00000E+000	8.43080E-005	5.99601E-002	8.40925E-001	3.57960E+000	9	...........
	61	0.826667	8.47633E-001	1.01095E-004	0.00000E+000	8.56915E-005	5.99601E-002	8.47987E-001	3.57960E+000	9	...........
	62	0.84	8.54504E-001	1.00351E-004	0.00000E+000	8.57503E-005	5.99601E-002	8.54856E-001	3.57960E+000	9	...........
	63	0.853333	8.61291E-001	1.00421E-004	0.00000E+000	8.64916E-005	5.99601E-002	8.61616E-001	3.57960E+000	9	...........
	64	0.866667	8.67928E-001	1.01269E-004	0.00000E+000	8.78942E-005	5.99601E-002	8.68264E-001	3.57960E+000	9	...........
	65	0.88	8.74461E-001	1.00759E-004	0.00000E+000	8.81102E-005	5.99601E-002	8.74788E-001	3.57960E+000	9	...........
	66	0.893333	8.80844E-001	1.01131E-004	0.00000E+000	8.90810E-005	5.99601E-002	8.81197E-001	3.57960E+000	9	...........
	67	0.906667	8.87137E-001	1.01411E-004	0.00000E+000	8.99651E-005	5.99601E-002	8.87479E-001	3.57960E+000	9	...........
	68	0.92	8.93327E-001	1.01807E-004	0.00000E+000	9.09465E-005	5.99601E-002	8.93645E-001	3.57960E+000	9	...........
	69	0.933333	8.99360E-001	1.00603E-004	0.00000E+000	9.04785E-005	5.99601E-002	8.99727E-001	3.57960E+000	9	...........
	70	0.946667	9.05302E-001	1.00459E-004	0.00000E+000	9.09461E-005	5.99601E-002	9.05692E-001	3.57960E+000	9	...........
	71	0.96	9.11156E-001	1.00618E-004	0.00000E+000	9.16784E-005	5.99601E-002	9.11530E-001	3.57960E+000	9	...........
	72	0.97333	9.16904E-001	1.00688E-004	0.00000E+000	9.23208E-005	5.99601E-002	9.17270E-001	3.57960E+000	9	...........
	73	0.98667	9.22580E-001	9.98947E-005	0.00000E+000	9.21608E-005	5.99601E-002	9.22933E-001	3.57960E+000	9	...........
	74	1	9.28104E-001	1.01003E-004	0.00000E+000	9.37416E-005	5.99601E-002	9.28429E-001	3.57960E+000	9	...........
	75	1.01333	9.33514E-001	1.00597E-004	0.00000E+000	9.39086E-005	5.99601E-002	9.33861E-001	3.57960E+000	9	...........
	76	1.02667	9.38851E-001	1.01456E-004	0.00000E+000	9.52525E-005	5.99601E-002	9.39174E-001	3.57960E+000	9	...........
	77	1.04	9.44030E-001	1.00549E-004	0.00000E+000	9.49213E-005	5.99601E-002	9.44388E-001	3.57960E+000	9	...........
	78	1.05333	9.49180E-001	1.01426E-004	0.00000E+000	9.62718E-005	5.99601E-002	9.49531E-001	3.57960E+000	9	...........
	79	1.06667	9.54194E-001	1.01362E-004	0.00000E+000	9.67187E-005	5.99601E-002	9.54543E-001	3.57960E+000	9	...........
	80	1.08	9.59083E-001	1.01041E-004	0.00000E+000	9.69065E-005	5.99601E-002	9.59458E-001	3.57960E+000	9	...........
	81	1.09333	9.63889E-001	1.00145E-004	0.00000E+000	9.65284E-005	5.99601E-002	9.64273E-001	3.57960E+000	9	...........
	82	1.10667	9.68596E-001	1.00767E-004	0.00000E+000	9.76022E-005	5.99601E-002	9.68996E-001	3.57960E+000	9	...........
	83	1.12	9.73257E-001	1.00061E-004	0.00000E+000	9.73855E-005	5.99601E-002	9.73634E-001	3.57945E+000	9	...........
	84	1.13333	9.77772E-001	1.00481E-004	0.00000E+000	9.82477E-005	5.99601E-002	9.78164E-001	3.57920E+000	9	...........
	85	1.14667	9.82218E-001	1.00629E-004	0.00000E+000	9.88399E-005	5.99601E-002	9.82585E-001	3.57920E+000	9	...........
	86	1.16	9.86560E-001	1.01644E-004	0.00000E+000	1.00278E-004	5.99601E-002	9.86932E-001	3.57920E+000	9	...........
	87	1.17333	9.90796E-001	1.00766E-004	0.00000E+000	9.98383E-005	5.99601E-002	9.91171E-001	3.57920E+000	9	...........
	88	1.18667	9.94965E-001	1.01221E-004	0.00000E+000	1.00711E-004	5.99601E-002	9.95327E-001	3.57920E+000	9	...........
	89	1.19833	9.98787E-001	1.01835E-004	0.00000E+000	1.01712E-004	5.99601E-002	9.99159E-001	3.57920E+000	9	...........
STARTTIMEOFFSET	QUANT	1854.287	Start Time Offset (s)
