EXPLAIN
TAG	PWR800_CHARGE
TITLE	LABEL	PWR Cyclic Charge Discharge (Cell) - Charge Step	Test &Identifier
DATE	LABEL	13-7-2017	Date
TIME	LABEL	15:05:27	Time
NOTES	NOTES	2	&Notes...
	supercap test cell
	6M KOH
PSTAT	PSTAT	IFC5000-01520	Potentiostat
CAPACITY	QUANT	1.00000E-003	Capacity (A-hr)
CELLTYPE	SELECTOR	1	&Cell Type
WORKINGCONNECTION	SELECTOR	0	&Working Lead
MAXCHARGETIME	VARIABLEANDUNITS	1.00000E+002	s	1.00000E+002	second(s)	Max &Charge Time
CHARGECURRENT	QUANT	1.00000E-004	&Charge Current (A) 
VOLTAGEFINISH	TWOPARAM	F	1.00000E-003	3.60000E+003	&Voltage Finish	 I (A) < 	Max Time(s)
SAMPLETIME	QUANT	1.00000E-002	Sa&mple Period (s)
CHARGESTOPAT1	MULTIPARAM	4	1.00000E+000	Charge Stop At &1	Voltage > Limit	V
CHARGESTOPAT2	MULTIPARAM	0	0.00000E+000	Charge Stop At &2	None	N/A
AESBHCSELECTOR	TOGGLE	F	Save Both Half Cells
IRCOMP	TOGGLE	F	IR &Measure
EOC	QUANT	0	Open Circuit (V)
SEQUENCER	TOGGLE	TRUE	Run as Sequence
PSTATMODEL	IQUANT	53	Pstat Model
PSTATSECTION	LABEL	IFC5000-01520	Pstat Section
PSTATSERIALNO	LABEL	01520	Pstat Serial Number
CTRLMODE	IQUANT	0	Control Mode
ELECTROMETER	IQUANT	1	RE=0 or CS=1
IESTAB	IQUANT	0	I/E Stability
CASPEED	IQUANT	4	Control Amp Speed
CONVENTION	IQUANT	1	Current Convention
ICHRANGE	IQUANT	2	Ich Range
ICHRANGEMODE	TOGGLE	T	Ich Auto Range
ICHOFFSETENABLE	TOGGLE	F	Ich Offset Enable
ICHOFFSET	QUANT	0	Ich Offset (V)
ICHFILTER	IQUANT	1	Ich Filter
VCHRANGE	IQUANT	2	Vch Range
VCHRANGEMODE	TOGGLE	T	Vch Auto Range
VCHOFFSETENABLE	TOGGLE	F	Vch Offset Enable
VCHOFFSET	QUANT	0	Vch Offset (V)
VCHFILTER	IQUANT	1	Vch Filter
IERANGELOWERLIMIT	IQUANT	9	I/E Range Lower Limit
IERANGEMODE	TOGGLE	F	I/E AutoRange
IERANGE	IQUANT	9	I/E Range
ACHSELECT	IQUANT	1	Ach Select
ACHRANGE	IQUANT	2	Ach Range
ACHOFFSETENABLE	TOGGLE	F	Ach Offset Enable
ACHOFFSET	QUANT	0	Ach Offset (V)
ACHFILTER	IQUANT	1	Ach Filter
CABLEID	IQUANT	14	Cable ID
DCCALDATE	LABEL	5-7-2017	DC Calibration Date
ACCALDATE	LABEL	12/3/2015	AC Calibration Date
FRAMEWORKVERSION	QUANT	7.01	Framework Version
INSTRUMENTVERSION	LABEL	4.00	Instrument Version
CURVE	TABLE	101
	Pt	T	Vf	Im	Vu	Pwr	Sig	Ach	Temp	IERange	Over
	#	s	V	A	V	W	V	V	deg C	#	bits
	0	0.013333	1.35874E-001	1.01745E-004	0.00000E+000	1.38245E-005	5.99601E-002	1.35926E-001	3.58020E+000	9	...........
	1	0.026667	1.51471E-001	1.00880E-004	0.00000E+000	1.52804E-005	5.99601E-002	1.51494E-001	3.58020E+000	9	...........
	2	0.04	1.66626E-001	1.01497E-004	0.00000E+000	1.69121E-005	5.99601E-002	1.66656E-001	3.58020E+000	9	...........
	3	0.053333	1.81511E-001	1.01239E-004	0.00000E+000	1.83759E-005	5.99601E-002	1.81545E-001	3.58020E+000	9	...........
	4	0.066667	1.96200E-001	1.01491E-004	0.00000E+000	1.99125E-005	5.99601E-002	1.96236E-001	3.58020E+000	9	...........
	5	0.08	2.10737E-001	1.01124E-004	0.00000E+000	2.13106E-005	5.99601E-002	2.10774E-001	3.58020E+000	9	...........
	6	0.093333	2.25169E-001	1.00434E-004	0.00000E+000	2.26147E-005	5.99601E-002	2.25204E-001	3.58020E+000	9	...........
	7	0.106667	2.39509E-001	9.98343E-005	0.00000E+000	2.39113E-005	5.99601E-002	2.39549E-001	3.58020E+000	9	...........
	8	0.12	2.53781E-001	1.01650E-004	0.00000E+000	2.57969E-005	5.99601E-002	2.53833E-001	3.58020E+000	9	...........
	9	0.133333	2.68003E-001	1.01231E-004	0.00000E+000	2.71303E-005	5.99601E-002	2.68059E-001	3.58020E+000	9	...........
	10	0.146667	2.82191E-001	1.00793E-004	0.00000E+000	2.84428E-005	5.99601E-002	2.82244E-001	3.58020E+000	9	...........
	11	0.16	2.96342E-001	1.00281E-004	0.00000E+000	2.97175E-005	5.99601E-002	2.96396E-001	3.58020E+000	9	...........
	12	0.173333	3.10471E-001	1.00375E-004	0.00000E+000	3.11636E-005	5.99601E-002	3.10528E-001	3.58020E+000	9	...........
	13	0.186667	3.24560E-001	9.99603E-005	0.00000E+000	3.24432E-005	5.99601E-002	3.24626E-001	3.58020E+000	9	...........
	14	0.2	3.38616E-001	1.00242E-004	0.00000E+000	3.39434E-005	5.99601E-002	3.38687E-001	3.58020E+000	9	...........
	15	0.213333	3.52638E-001	1.01131E-004	0.00000E+000	3.56628E-005	5.99601E-002	3.52707E-001	3.58020E+000	9	...........
	16	0.226667	3.66608E-001	1.01033E-004	0.00000E+000	3.70396E-005	5.99601E-002	3.66681E-001	3.58020E+000	9	...........
	17	0.24	3.80525E-001	1.01071E-004	0.00000E+000	3.84600E-005	5.99601E-002	3.80594E-001	3.58020E+000	9	...........
	18	0.253333	3.94365E-001	1.01384E-004	0.00000E+000	3.99822E-005	5.99601E-002	3.94440E-001	3.58020E+000	9	...........
	19	0.266667	4.08111E-001	1.00176E-004	0.00000E+000	4.08829E-005	5.99601E-002	4.08190E-001	3.58020E+000	9	...........
	20	0.28	4.21754E-001	1.01436E-004	0.00000E+000	4.27809E-005	5.99601E-002	4.21836E-001	3.57920E+000	9	...........
	21	0.293333	4.35274E-001	1.00203E-004	0.00000E+000	4.36158E-005	5.99601E-002	4.35363E-001	3.57920E+000	9	...........
	22	0.306667	4.48645E-001	1.00010E-004	0.00000E+000	4.48692E-005	5.99601E-002	4.48739E-001	3.57920E+000	9	...........
	23	0.32	4.61868E-001	1.01113E-004	0.00000E+000	4.67007E-005	5.99601E-002	4.61960E-001	3.57920E+000	9	...........
	24	0.333333	4.74910E-001	1.01410E-004	0.00000E+000	4.81604E-005	5.99601E-002	4.75011E-001	3.57920E+000	9	...........
	25	0.346667	4.87769E-001	1.00952E-004	0.00000E+000	4.92414E-005	5.99601E-002	4.87870E-001	3.57920E+000	9	...........
	26	0.36	5.00423E-001	1.00528E-004	0.00000E+000	5.03066E-005	5.99601E-002	5.00531E-001	3.57920E+000	9	...........
	27	0.373333	5.12879E-001	1.01055E-004	0.00000E+000	5.18292E-005	5.99601E-002	5.12989E-001	3.57920E+000	9	...........
	28	0.386667	5.25109E-001	1.00007E-004	0.00000E+000	5.25146E-005	5.99601E-002	5.25223E-001	3.57920E+000	9	...........
	29	0.4	5.36853E-001	1.01362E-004	0.00000E+000	5.44163E-005	5.99601E-002	5.37065E-001	3.57920E+000	9	...........
	30	0.413333	5.48548E-001	1.00506E-004	0.00000E+000	5.51325E-005	5.99601E-002	5.48797E-001	3.57920E+000	9	...........
	31	0.426667	5.60096E-001	1.00962E-004	0.00000E+000	5.65482E-005	5.99601E-002	5.60365E-001	3.57920E+000	9	...........
	32	0.44	5.71451E-001	1.01325E-004	0.00000E+000	5.79024E-005	5.99601E-002	5.71705E-001	3.57920E+000	9	...........
	33	0.453333	5.82518E-001	1.00626E-004	0.00000E+000	5.86165E-005	5.99601E-002	5.82795E-001	3.57920E+000	9	...........
	34	0.466667	5.93414E-001	1.00294E-004	0.00000E+000	5.95158E-005	5.99601E-002	5.93676E-001	3.57920E+000	9	...........
	35	0.48	6.04047E-001	1.00435E-004	0.00000E+000	6.06677E-005	5.99601E-002	6.04335E-001	3.57920E+000	9	...........
	36	0.493333	6.14487E-001	9.98728E-005	0.00000E+000	6.13706E-005	5.99601E-002	6.14772E-001	3.57920E+000	9	...........
	37	0.506667	6.24716E-001	1.00684E-004	0.00000E+000	6.28992E-005	5.99601E-002	6.24968E-001	3.57920E+000	9	...........
	38	0.52	6.34695E-001	1.01600E-004	0.00000E+000	6.44852E-005	5.99601E-002	6.34973E-001	3.57920E+000	9	...........
	39	0.533333	6.44517E-001	1.00982E-004	0.00000E+000	6.50849E-005	5.99601E-002	6.44777E-001	3.57920E+000	9	...........
	40	0.546667	6.54123E-001	1.00929E-004	0.00000E+000	6.60202E-005	5.99601E-002	6.54391E-001	3.57920E+000	9	...........
	41	0.56	6.63517E-001	1.01437E-004	0.00000E+000	6.73049E-005	5.99601E-002	6.63803E-001	3.57920E+000	9	...........
	42	0.573333	6.72745E-001	1.00730E-004	0.00000E+000	6.77658E-005	5.99601E-002	6.73008E-001	3.57920E+000	9	...........
	43	0.586667	6.81792E-001	1.01154E-004	0.00000E+000	6.89662E-005	5.99601E-002	6.82033E-001	3.57920E+000	9	...........
	44	0.6	6.90635E-001	1.00990E-004	0.00000E+000	6.97471E-005	5.99601E-002	6.90870E-001	3.57920E+000	9	...........
	45	0.613333	6.99311E-001	1.01326E-004	0.00000E+000	7.08586E-005	5.99601E-002	6.99549E-001	3.57920E+000	9	...........
	46	0.626667	7.07793E-001	9.98374E-005	0.00000E+000	7.06642E-005	5.99601E-002	7.08071E-001	3.57920E+000	9	...........
	47	0.64	7.16157E-001	1.01462E-004	0.00000E+000	7.26625E-005	5.99601E-002	7.16405E-001	3.57920E+000	9	...........
	48	0.653333	7.24349E-001	9.98332E-005	0.00000E+000	7.23141E-005	5.99601E-002	7.24588E-001	3.57920E+000	9	...........
	49	0.666667	7.32346E-001	1.00620E-004	0.00000E+000	7.36885E-005	5.99601E-002	7.32599E-001	3.57920E+000	9	...........
	50	0.68	7.40231E-001	1.01841E-004	0.00000E+000	7.53858E-005	5.99601E-002	7.40495E-001	3.57920E+000	9	...........
	51	0.693333	7.47953E-001	1.01146E-004	0.00000E+000	7.56524E-005	5.99601E-002	7.48225E-001	3.57920E+000	9	...........
	52	0.706667	7.55527E-001	1.01779E-004	0.00000E+000	7.68971E-005	5.99601E-002	7.55838E-001	3.57920E+000	9	...........
	53	0.72	7.62956E-001	1.01188E-004	0.00000E+000	7.72017E-005	5.99601E-002	7.63225E-001	3.57920E+000	9	...........
	54	0.733333	7.70269E-001	1.01550E-004	0.00000E+000	7.82210E-005	5.99601E-002	7.70567E-001	3.57920E+000	9	...........
	55	0.746667	7.77436E-001	1.00680E-004	0.00000E+000	7.82725E-005	5.99601E-002	7.77750E-001	3.57920E+000	9	...........
	56	0.76	7.84500E-001	1.01332E-004	0.00000E+000	7.94954E-005	5.99601E-002	7.84791E-001	3.57920E+000	9	...........
	57	0.773333	7.91408E-001	1.00721E-004	0.00000E+000	7.97113E-005	5.99601E-002	7.91705E-001	3.57920E+000	9	...........
	58	0.786667	7.98225E-001	1.02022E-004	0.00000E+000	8.14367E-005	5.99601E-002	7.98528E-001	3.57920E+000	9	...........
	59	0.8	8.04880E-001	1.00317E-004	0.00000E+000	8.07429E-005	5.99601E-002	8.05185E-001	3.57920E+000	9	...........
	60	0.813333	8.11424E-001	1.00673E-004	0.00000E+000	8.16885E-005	5.99601E-002	8.11732E-001	3.57920E+000	9	...........
	61	0.826667	8.17885E-001	1.01195E-004	0.00000E+000	8.27658E-005	5.99601E-002	8.18228E-001	3.57920E+000	9	...........
	62	0.84	8.24234E-001	1.00152E-004	0.00000E+000	8.25487E-005	5.99601E-002	8.24566E-001	3.57920E+000	9	...........
	63	0.853333	8.30470E-001	1.01471E-004	0.00000E+000	8.42686E-005	5.99601E-002	8.30806E-001	3.57920E+000	9	...........
	64	0.866667	8.36586E-001	1.00841E-004	0.00000E+000	8.43619E-005	5.99601E-002	8.36928E-001	3.57920E+000	9	...........
	65	0.88	8.42623E-001	1.00164E-004	0.00000E+000	8.44001E-005	5.99601E-002	8.42962E-001	3.57920E+000	9	...........
	66	0.893333	8.48581E-001	1.00295E-004	0.00000E+000	8.51083E-005	5.99601E-002	8.48906E-001	3.57920E+000	9	...........
	67	0.906667	8.54400E-001	1.01557E-004	0.00000E+000	8.67698E-005	5.99601E-002	8.54738E-001	3.57920E+000	9	...........
	68	0.92	8.60133E-001	1.00540E-004	0.00000E+000	8.64774E-005	5.99601E-002	8.60474E-001	3.57920E+000	9	...........
	69	0.933333	8.65766E-001	1.01096E-004	0.00000E+000	8.75255E-005	5.99601E-002	8.66108E-001	3.57920E+000	9	...........
	70	0.946667	8.71356E-001	1.02060E-004	0.00000E+000	8.89304E-005	5.99601E-002	8.71706E-001	3.57920E+000	9	...........
	71	0.96	8.76827E-001	1.00151E-004	0.00000E+000	8.78151E-005	5.99601E-002	8.77163E-001	3.57920E+000	9	...........
	72	0.97333	8.82172E-001	1.00723E-004	0.00000E+000	8.88550E-005	5.99601E-002	8.82536E-001	3.57920E+000	9	...........
	73	0.98667	8.87478E-001	1.00333E-004	0.00000E+000	8.90436E-005	5.99601E-002	8.87829E-001	3.57920E+000	9	...........
	74	1	8.92665E-001	1.01172E-004	0.00000E+000	9.03128E-005	5.99601E-002	8.93029E-001	3.57920E+000	9	...........
	75	1.01333	8.97788E-001	1.01074E-004	0.00000E+000	9.07431E-005	5.99601E-002	8.98164E-001	3.57920E+000	9	...........
	76	1.02667	9.02833E-001	1.00363E-004	0.00000E+000	9.06105E-005	5.99601E-002	9.03213E-001	3.57920E+000	9	...........
	77	1.04	9.07772E-001	1.00905E-004	0.00000E+000	9.15990E-005	5.99601E-002	9.08158E-001	3.57920E+000	9	...........
	78	1.05333	9.12645E-001	9.91289E-005	0.00000E+000	9.04695E-005	5.99601E-002	9.13047E-001	3.57920E+000	9	...........
	79	1.06667	9.17444E-001	1.01270E-004	0.00000E+000	9.29096E-005	5.99601E-002	9.17838E-001	3.57920E+000	9	...........
	80	1.08	9.22215E-001	1.00937E-004	0.00000E+000	9.30852E-005	5.99601E-002	9.22559E-001	3.57920E+000	9	...........
	81	1.09333	9.26850E-001	1.00925E-004	0.00000E+000	9.35425E-005	5.99601E-002	9.27214E-001	3.57920E+000	9	...........
	82	1.10667	9.31396E-001	1.00520E-004	0.00000E+000	9.36237E-005	5.99601E-002	9.31742E-001	3.57920E+000	9	...........
	83	1.12	9.35844E-001	1.01160E-004	0.00000E+000	9.46695E-005	5.99601E-002	9.36240E-001	3.57920E+000	9	...........
	84	1.13333	9.40258E-001	1.00838E-004	0.00000E+000	9.48133E-005	5.99601E-002	9.40628E-001	3.57920E+000	9	...........
	85	1.14667	9.44574E-001	1.01010E-004	0.00000E+000	9.54110E-005	5.99601E-002	9.44935E-001	3.57920E+000	9	...........
	86	1.16	9.48877E-001	1.00951E-004	0.00000E+000	9.57903E-005	5.99601E-002	9.49233E-001	3.57920E+000	9	...........
	87	1.17333	9.53049E-001	1.01376E-004	0.00000E+000	9.66165E-005	5.99601E-002	9.53408E-001	3.57920E+000	9	...........
	88	1.18667	9.57148E-001	1.01685E-004	0.00000E+000	9.73272E-005	5.99601E-002	9.57518E-001	3.57920E+000	9	...........
	89	1.2	9.61160E-001	1.01667E-004	0.00000E+000	9.77182E-005	5.99601E-002	9.61558E-001	3.57920E+000	9	...........
	90	1.21333	9.65098E-001	1.00915E-004	0.00000E+000	9.73926E-005	5.99601E-002	9.65516E-001	3.57920E+000	9	...........
	91	1.22667	9.69012E-001	1.00184E-004	0.00000E+000	9.70798E-005	5.99601E-002	9.69408E-001	3.57920E+000	9	...........
	92	1.24	9.72856E-001	1.00806E-004	0.00000E+000	9.80701E-005	5.99601E-002	9.73266E-001	3.57920E+000	9	...........
	93	1.25333	9.76609E-001	1.00103E-004	0.00000E+000	9.77615E-005	5.99601E-002	9.77001E-001	3.57920E+000	9	...........
	94	1.26667	9.80298E-001	1.00855E-004	0.00000E+000	9.88682E-005	5.99601E-002	9.80685E-001	3.57920E+000	9	...........
	95	1.28	9.83881E-001	1.00463E-004	0.00000E+000	9.88432E-005	5.99601E-002	9.84304E-001	3.58050E+000	9	...........
	96	1.29333	9.87461E-001	1.01894E-004	0.00000E+000	1.00616E-004	5.99601E-002	9.87849E-001	3.58050E+000	9	...........
	97	1.30667	9.90923E-001	1.00646E-004	0.00000E+000	9.97323E-005	5.99601E-002	9.91316E-001	3.58050E+000	9	...........
	98	1.32	9.94321E-001	1.00663E-004	0.00000E+000	1.00091E-004	5.99601E-002	9.94736E-001	3.58050E+000	9	...........
	99	1.33333	9.97671E-001	1.01363E-004	0.00000E+000	1.01127E-004	5.99601E-002	9.98094E-001	3.58050E+000	9	...........
	100	1.33833	9.99916E-001	1.01737E-004	0.00000E+000	1.01729E-004	5.99601E-002	1.00034E+000	3.58050E+000	9	...........
STARTTIMEOFFSET	QUANT	149.995	Start Time Offset (s)
