EXPLAIN
TAG	PWR800_CHARGE
TITLE	LABEL	PWR Cyclic Charge Discharge (Cell) - Charge Step	Test &Identifier
DATE	LABEL	13-7-2017	Date
TIME	LABEL	15:45:54	Time
NOTES	NOTES	2	&Notes...
	supercap test cell
	6M KOH
PSTAT	PSTAT	IFC5000-01520	Potentiostat
CAPACITY	QUANT	1.00000E-003	Capacity (A-hr)
CELLTYPE	SELECTOR	1	&Cell Type
WORKINGCONNECTION	SELECTOR	0	&Working Lead
MAXCHARGETIME	VARIABLEANDUNITS	1.00000E+002	s	1.00000E+002	second(s)	Max &Charge Time
CHARGECURRENT	QUANT	1.00000E-004	&Charge Current (A) 
VOLTAGEFINISH	TWOPARAM	F	1.00000E-003	3.60000E+003	&Voltage Finish	 I (A) < 	Max Time(s)
SAMPLETIME	QUANT	1.00000E-002	Sa&mple Period (s)
CHARGESTOPAT1	MULTIPARAM	4	1.00000E+000	Charge Stop At &1	Voltage > Limit	V
CHARGESTOPAT2	MULTIPARAM	0	0.00000E+000	Charge Stop At &2	None	N/A
AESBHCSELECTOR	TOGGLE	F	Save Both Half Cells
IRCOMP	TOGGLE	F	IR &Measure
EOC	QUANT	0	Open Circuit (V)
SEQUENCER	TOGGLE	TRUE	Run as Sequence
PSTATMODEL	IQUANT	53	Pstat Model
PSTATSECTION	LABEL	IFC5000-01520	Pstat Section
PSTATSERIALNO	LABEL	01520	Pstat Serial Number
CTRLMODE	IQUANT	0	Control Mode
ELECTROMETER	IQUANT	1	RE=0 or CS=1
IESTAB	IQUANT	0	I/E Stability
CASPEED	IQUANT	4	Control Amp Speed
CONVENTION	IQUANT	1	Current Convention
ICHRANGE	IQUANT	2	Ich Range
ICHRANGEMODE	TOGGLE	T	Ich Auto Range
ICHOFFSETENABLE	TOGGLE	F	Ich Offset Enable
ICHOFFSET	QUANT	0	Ich Offset (V)
ICHFILTER	IQUANT	1	Ich Filter
VCHRANGE	IQUANT	2	Vch Range
VCHRANGEMODE	TOGGLE	T	Vch Auto Range
VCHOFFSETENABLE	TOGGLE	F	Vch Offset Enable
VCHOFFSET	QUANT	0	Vch Offset (V)
VCHFILTER	IQUANT	1	Vch Filter
IERANGELOWERLIMIT	IQUANT	9	I/E Range Lower Limit
IERANGEMODE	TOGGLE	F	I/E AutoRange
IERANGE	IQUANT	9	I/E Range
ACHSELECT	IQUANT	1	Ach Select
ACHRANGE	IQUANT	2	Ach Range
ACHOFFSETENABLE	TOGGLE	F	Ach Offset Enable
ACHOFFSET	QUANT	0	Ach Offset (V)
ACHFILTER	IQUANT	1	Ach Filter
CABLEID	IQUANT	14	Cable ID
DCCALDATE	LABEL	5-7-2017	DC Calibration Date
ACCALDATE	LABEL	12/3/2015	AC Calibration Date
FRAMEWORKVERSION	QUANT	7.01	Framework Version
INSTRUMENTVERSION	LABEL	4.00	Instrument Version
CURVE	TABLE	90
	Pt	T	Vf	Im	Vu	Pwr	Sig	Ach	Temp	IERange	Over
	#	s	V	A	V	W	V	V	deg C	#	bits
	0	0.013333	1.33459E-001	1.00535E-004	0.00000E+000	1.34173E-005	5.99601E-002	1.33496E-001	3.57891E+000	9	...........
	1	0.026667	1.48778E-001	1.01713E-004	0.00000E+000	1.51326E-005	5.99601E-002	1.48797E-001	3.57910E+000	9	...........
	2	0.04	1.63654E-001	1.00962E-004	0.00000E+000	1.65228E-005	5.99601E-002	1.63676E-001	3.57910E+000	9	...........
	3	0.053333	1.78264E-001	1.00224E-004	0.00000E+000	1.78663E-005	5.99601E-002	1.78290E-001	3.57910E+000	9	...........
	4	0.066667	1.92680E-001	1.00871E-004	0.00000E+000	1.94358E-005	5.99601E-002	1.92709E-001	3.57910E+000	9	...........
	5	0.08	2.06953E-001	9.99155E-005	0.00000E+000	2.06778E-005	5.99601E-002	2.06985E-001	3.57910E+000	9	...........
	6	0.093333	2.21129E-001	1.00787E-004	0.00000E+000	2.22868E-005	5.99601E-002	2.21165E-001	3.57910E+000	9	...........
	7	0.106667	2.35236E-001	1.01559E-004	0.00000E+000	2.38903E-005	5.99601E-002	2.35274E-001	3.57910E+000	9	...........
	8	0.12	2.49294E-001	1.01799E-004	0.00000E+000	2.53779E-005	5.99601E-002	2.49342E-001	3.57910E+000	9	...........
	9	0.133333	2.63331E-001	1.01545E-004	0.00000E+000	2.67399E-005	5.99601E-002	2.63382E-001	3.57910E+000	9	...........
	10	0.146667	2.77359E-001	1.00524E-004	0.00000E+000	2.78812E-005	5.99601E-002	2.77411E-001	3.57910E+000	9	...........
	11	0.16	2.91391E-001	1.00789E-004	0.00000E+000	2.93689E-005	5.99601E-002	2.91443E-001	3.57910E+000	9	...........
	12	0.173333	3.05439E-001	1.01003E-004	0.00000E+000	3.08504E-005	5.99601E-002	3.05495E-001	3.57910E+000	9	...........
	13	0.186667	3.19508E-001	1.00916E-004	0.00000E+000	3.22434E-005	5.99601E-002	3.19563E-001	3.57910E+000	9	...........
	14	0.2	3.33592E-001	1.00536E-004	0.00000E+000	3.35382E-005	5.99601E-002	3.33657E-001	3.57910E+000	9	...........
	15	0.213333	3.47713E-001	1.01319E-004	0.00000E+000	3.52299E-005	5.99601E-002	3.47778E-001	3.57910E+000	9	...........
	16	0.226667	3.61856E-001	1.01021E-004	0.00000E+000	3.65551E-005	5.99601E-002	3.61924E-001	3.57910E+000	9	...........
	17	0.24	3.76011E-001	1.00520E-004	0.00000E+000	3.77966E-005	5.99601E-002	3.76084E-001	3.57910E+000	9	...........
	18	0.253333	3.90184E-001	1.00184E-004	0.00000E+000	3.90903E-005	5.99601E-002	3.90257E-001	3.57910E+000	9	...........
	19	0.266667	4.04347E-001	1.01605E-004	0.00000E+000	4.10839E-005	5.99601E-002	4.04425E-001	3.57910E+000	9	...........
	20	0.28	4.18493E-001	1.00961E-004	0.00000E+000	4.22513E-005	5.99601E-002	4.18574E-001	3.57910E+000	9	...........
	21	0.293333	4.32600E-001	1.00943E-004	0.00000E+000	4.36679E-005	5.99601E-002	4.32686E-001	3.57910E+000	9	...........
	22	0.306667	4.46642E-001	9.97353E-005	0.00000E+000	4.45460E-005	5.99601E-002	4.46732E-001	3.57910E+000	9	...........
	23	0.32	4.60609E-001	1.00669E-004	0.00000E+000	4.63690E-005	5.99601E-002	4.60701E-001	3.57910E+000	9	...........
	24	0.333333	4.74459E-001	1.00351E-004	0.00000E+000	4.76125E-005	5.99601E-002	4.74553E-001	3.57910E+000	9	...........
	25	0.346667	4.88181E-001	1.00737E-004	0.00000E+000	4.91777E-005	5.99601E-002	4.88284E-001	3.57910E+000	9	...........
	26	0.36	5.01760E-001	1.01327E-004	0.00000E+000	5.08420E-005	5.99601E-002	5.01854E-001	3.57910E+000	9	...........
	27	0.373333	5.15174E-001	1.01372E-004	0.00000E+000	5.22243E-005	5.99601E-002	5.15280E-001	3.57910E+000	9	...........
	28	0.386667	5.28398E-001	1.01086E-004	0.00000E+000	5.34135E-005	5.99601E-002	5.28474E-001	3.57910E+000	9	...........
	29	0.4	5.41079E-001	1.00489E-004	0.00000E+000	5.43722E-005	5.99601E-002	5.41296E-001	3.57910E+000	9	...........
	30	0.413333	5.53879E-001	1.00757E-004	0.00000E+000	5.58074E-005	5.99601E-002	5.54114E-001	3.57910E+000	9	...........
	31	0.426667	5.66466E-001	1.00441E-004	0.00000E+000	5.68962E-005	5.99601E-002	5.66710E-001	3.57910E+000	9	...........
	32	0.44	5.78835E-001	1.00166E-004	0.00000E+000	5.79794E-005	5.99601E-002	5.79092E-001	3.57910E+000	9	...........
	33	0.453333	5.91011E-001	1.00549E-004	0.00000E+000	5.94256E-005	5.99601E-002	5.91268E-001	3.57910E+000	9	...........
	34	0.466667	6.02902E-001	1.00183E-004	0.00000E+000	6.04007E-005	5.99601E-002	6.03180E-001	3.57910E+000	9	...........
	35	0.48	6.14599E-001	1.01654E-004	0.00000E+000	6.24767E-005	5.99601E-002	6.14883E-001	3.57910E+000	9	...........
	36	0.493333	6.26053E-001	1.01245E-004	0.00000E+000	6.33847E-005	5.99601E-002	6.26311E-001	3.57910E+000	9	...........
	37	0.506667	6.37271E-001	1.00830E-004	0.00000E+000	6.42562E-005	5.99601E-002	6.37506E-001	3.57910E+000	9	...........
	38	0.52	6.48279E-001	1.00834E-004	0.00000E+000	6.53688E-005	5.99601E-002	6.48517E-001	3.57910E+000	9	...........
	39	0.533333	6.59052E-001	1.00739E-004	0.00000E+000	6.63920E-005	5.99601E-002	6.59283E-001	3.57910E+000	9	...........
	40	0.546667	6.69610E-001	1.00386E-004	0.00000E+000	6.72198E-005	5.99601E-002	6.69825E-001	3.57910E+000	9	...........
	41	0.56	6.79959E-001	1.01652E-004	0.00000E+000	6.91194E-005	5.99601E-002	6.80158E-001	3.57910E+000	9	...........
	42	0.573333	6.90086E-001	9.99947E-005	0.00000E+000	6.90050E-005	5.99601E-002	6.90302E-001	3.57910E+000	9	...........
	43	0.586667	7.00011E-001	1.01217E-004	0.00000E+000	7.08529E-005	5.99601E-002	7.00252E-001	3.57910E+000	9	...........
	44	0.6	7.09725E-001	1.00583E-004	0.00000E+000	7.13865E-005	5.99601E-002	7.09988E-001	3.57910E+000	9	...........
	45	0.613333	7.19302E-001	1.00616E-004	0.00000E+000	7.23731E-005	5.99601E-002	7.19573E-001	3.57910E+000	9	...........
	46	0.626667	7.28626E-001	1.00761E-004	0.00000E+000	7.34167E-005	5.99601E-002	7.28940E-001	3.57910E+000	9	...........
	47	0.64	7.37767E-001	1.01159E-004	0.00000E+000	7.46314E-005	5.99601E-002	7.38078E-001	3.57910E+000	9	...........
	48	0.653333	7.46802E-001	1.01374E-004	0.00000E+000	7.57065E-005	5.99601E-002	7.47069E-001	3.57910E+000	9	...........
	49	0.666667	7.55593E-001	1.01036E-004	0.00000E+000	7.63418E-005	5.99601E-002	7.55879E-001	3.57910E+000	9	...........
	50	0.68	7.64224E-001	1.00887E-004	0.00000E+000	7.70999E-005	5.99601E-002	7.64506E-001	3.57910E+000	9	...........
	51	0.693333	7.72686E-001	1.00340E-004	0.00000E+000	7.75310E-005	5.99601E-002	7.72980E-001	3.57910E+000	9	...........
	52	0.706667	7.81005E-001	1.01328E-004	0.00000E+000	7.91379E-005	5.99601E-002	7.81287E-001	3.57910E+000	9	...........
	53	0.72	7.89152E-001	1.00775E-004	0.00000E+000	7.95268E-005	5.99601E-002	7.89445E-001	3.57910E+000	9	...........
	54	0.733333	7.97170E-001	1.01072E-004	0.00000E+000	8.05716E-005	5.99601E-002	7.97444E-001	3.57910E+000	9	...........
	55	0.746667	8.05005E-001	1.01222E-004	0.00000E+000	8.14843E-005	5.99601E-002	8.05295E-001	3.57910E+000	9	...........
	56	0.76	8.12687E-001	1.01051E-004	0.00000E+000	8.21230E-005	5.99601E-002	8.12972E-001	3.57910E+000	9	...........
	57	0.773333	8.20227E-001	1.00627E-004	0.00000E+000	8.25371E-005	5.99601E-002	8.20537E-001	3.57910E+000	9	...........
	58	0.786667	8.27637E-001	1.00798E-004	0.00000E+000	8.34242E-005	5.99601E-002	8.27927E-001	3.57910E+000	9	...........
	59	0.8	8.34914E-001	1.01297E-004	0.00000E+000	8.45743E-005	5.99601E-002	8.35222E-001	3.57910E+000	9	...........
	60	0.813333	8.42060E-001	1.01304E-004	0.00000E+000	8.53044E-005	5.99601E-002	8.42366E-001	3.57910E+000	9	...........
	61	0.826667	8.49104E-001	1.00550E-004	0.00000E+000	8.53774E-005	5.99601E-002	8.49388E-001	3.57910E+000	9	...........
	62	0.84	8.55964E-001	1.00887E-004	0.00000E+000	8.63553E-005	5.99601E-002	8.56267E-001	3.57910E+000	9	...........
	63	0.853333	8.62735E-001	1.00845E-004	0.00000E+000	8.70025E-005	5.99601E-002	8.63036E-001	3.57910E+000	9	...........
	64	0.866667	8.69383E-001	1.01469E-004	0.00000E+000	8.82154E-005	5.99601E-002	8.69694E-001	3.57910E+000	9	...........
	65	0.88	8.75915E-001	1.01092E-004	0.00000E+000	8.85479E-005	5.99601E-002	8.76246E-001	3.57910E+000	9	...........
	66	0.893333	8.82327E-001	1.01561E-004	0.00000E+000	8.96098E-005	5.99601E-002	8.82651E-001	3.57910E+000	9	...........
	67	0.906667	8.88619E-001	1.00150E-004	0.00000E+000	8.89951E-005	5.99601E-002	8.88953E-001	3.57910E+000	9	...........
	68	0.92	8.94793E-001	1.00722E-004	0.00000E+000	9.01253E-005	5.99601E-002	8.95148E-001	3.57910E+000	9	...........
	69	0.933333	9.00863E-001	1.00317E-004	0.00000E+000	9.03716E-005	5.99601E-002	9.01213E-001	3.57910E+000	9	...........
	70	0.946667	9.06805E-001	9.98822E-005	0.00000E+000	9.05737E-005	5.99601E-002	9.07174E-001	3.57910E+000	9	...........
	71	0.96	9.12671E-001	1.01039E-004	0.00000E+000	9.22151E-005	5.99601E-002	9.13017E-001	3.57910E+000	9	...........
	72	0.97333	9.18391E-001	1.00909E-004	0.00000E+000	9.26744E-005	5.99601E-002	9.18743E-001	3.57910E+000	9	...........
	73	0.98667	9.24070E-001	1.01740E-004	0.00000E+000	9.40148E-005	5.99601E-002	9.24377E-001	3.57910E+000	9	...........
	74	1	9.29594E-001	1.00582E-004	0.00000E+000	9.35007E-005	5.99601E-002	9.29889E-001	3.57910E+000	9	...........
	75	1.01333	9.35000E-001	1.00374E-004	0.00000E+000	9.38496E-005	5.99601E-002	9.35293E-001	3.57897E+000	9	...........
	76	1.02667	9.40303E-001	1.00456E-004	0.00000E+000	9.44593E-005	5.99601E-002	9.40601E-001	3.57890E+000	9	...........
	77	1.04	9.45507E-001	9.99874E-005	0.00000E+000	9.45388E-005	5.99601E-002	9.45833E-001	3.57890E+000	9	...........
	78	1.05333	9.50642E-001	1.00955E-004	0.00000E+000	9.59723E-005	5.99601E-002	9.50956E-001	3.57890E+000	9	...........
	79	1.06667	9.55648E-001	1.00932E-004	0.00000E+000	9.64559E-005	5.99601E-002	9.55971E-001	3.57890E+000	9	...........
	80	1.08	9.60546E-001	1.00566E-004	0.00000E+000	9.65980E-005	5.99601E-002	9.60924E-001	3.57890E+000	9	...........
	81	1.09333	9.65354E-001	1.01440E-004	0.00000E+000	9.79254E-005	5.99601E-002	9.65709E-001	3.57890E+000	9	...........
	82	1.10667	9.70047E-001	1.01205E-004	0.00000E+000	9.81740E-005	5.99601E-002	9.70445E-001	3.57890E+000	9	...........
	83	1.12	9.74719E-001	1.00321E-004	0.00000E+000	9.77846E-005	5.99601E-002	9.75089E-001	3.57890E+000	9	...........
	84	1.13333	9.79235E-001	1.00400E-004	0.00000E+000	9.83152E-005	5.99601E-002	9.79590E-001	3.57890E+000	9	...........
	85	1.14667	9.83652E-001	1.01673E-004	0.00000E+000	1.00011E-004	5.99601E-002	9.84010E-001	3.57890E+000	9	...........
	86	1.16	9.87964E-001	1.00930E-004	0.00000E+000	9.97155E-005	5.99601E-002	9.88335E-001	3.57890E+000	9	...........
	87	1.17333	9.92203E-001	1.01207E-004	0.00000E+000	1.00418E-004	5.99601E-002	9.92539E-001	3.57890E+000	9	...........
	88	1.18667	9.96347E-001	1.00647E-004	0.00000E+000	1.00279E-004	5.99601E-002	9.96709E-001	3.57890E+000	9	...........
	89	1.19333	9.99421E-001	1.00237E-004	0.00000E+000	1.00179E-004	5.99601E-002	9.99777E-001	3.57890E+000	9	...........
STARTTIMEOFFSET	QUANT	1982.866	Start Time Offset (s)
