EXPLAIN
TAG	PWR800_CHARGE
TITLE	LABEL	PWR Cyclic Charge Discharge (Cell) - Charge Step	Test &Identifier
DATE	LABEL	13-7-2017	Date
TIME	LABEL	15:35:02	Time
NOTES	NOTES	2	&Notes...
	supercap test cell
	6M KOH
PSTAT	PSTAT	IFC5000-01520	Potentiostat
CAPACITY	QUANT	1.00000E-003	Capacity (A-hr)
CELLTYPE	SELECTOR	1	&Cell Type
WORKINGCONNECTION	SELECTOR	0	&Working Lead
MAXCHARGETIME	VARIABLEANDUNITS	1.00000E+002	s	1.00000E+002	second(s)	Max &Charge Time
CHARGECURRENT	QUANT	1.00000E-004	&Charge Current (A) 
VOLTAGEFINISH	TWOPARAM	F	1.00000E-003	3.60000E+003	&Voltage Finish	 I (A) < 	Max Time(s)
SAMPLETIME	QUANT	1.00000E-002	Sa&mple Period (s)
CHARGESTOPAT1	MULTIPARAM	4	1.00000E+000	Charge Stop At &1	Voltage > Limit	V
CHARGESTOPAT2	MULTIPARAM	0	0.00000E+000	Charge Stop At &2	None	N/A
AESBHCSELECTOR	TOGGLE	F	Save Both Half Cells
IRCOMP	TOGGLE	F	IR &Measure
EOC	QUANT	0	Open Circuit (V)
SEQUENCER	TOGGLE	TRUE	Run as Sequence
PSTATMODEL	IQUANT	53	Pstat Model
PSTATSECTION	LABEL	IFC5000-01520	Pstat Section
PSTATSERIALNO	LABEL	01520	Pstat Serial Number
CTRLMODE	IQUANT	0	Control Mode
ELECTROMETER	IQUANT	1	RE=0 or CS=1
IESTAB	IQUANT	0	I/E Stability
CASPEED	IQUANT	4	Control Amp Speed
CONVENTION	IQUANT	1	Current Convention
ICHRANGE	IQUANT	2	Ich Range
ICHRANGEMODE	TOGGLE	T	Ich Auto Range
ICHOFFSETENABLE	TOGGLE	F	Ich Offset Enable
ICHOFFSET	QUANT	0	Ich Offset (V)
ICHFILTER	IQUANT	1	Ich Filter
VCHRANGE	IQUANT	2	Vch Range
VCHRANGEMODE	TOGGLE	T	Vch Auto Range
VCHOFFSETENABLE	TOGGLE	F	Vch Offset Enable
VCHOFFSET	QUANT	0	Vch Offset (V)
VCHFILTER	IQUANT	1	Vch Filter
IERANGELOWERLIMIT	IQUANT	9	I/E Range Lower Limit
IERANGEMODE	TOGGLE	F	I/E AutoRange
IERANGE	IQUANT	9	I/E Range
ACHSELECT	IQUANT	1	Ach Select
ACHRANGE	IQUANT	2	Ach Range
ACHOFFSETENABLE	TOGGLE	F	Ach Offset Enable
ACHOFFSET	QUANT	0	Ach Offset (V)
ACHFILTER	IQUANT	1	Ach Filter
CABLEID	IQUANT	14	Cable ID
DCCALDATE	LABEL	5-7-2017	DC Calibration Date
ACCALDATE	LABEL	12/3/2015	AC Calibration Date
FRAMEWORKVERSION	QUANT	7.01	Framework Version
INSTRUMENTVERSION	LABEL	4.00	Instrument Version
CURVE	TABLE	91
	Pt	T	Vf	Im	Vu	Pwr	Sig	Ach	Temp	IERange	Over
	#	s	V	A	V	W	V	V	deg C	#	bits
	0	0.013333	1.32780E-001	1.00911E-004	0.00000E+000	1.33989E-005	5.99601E-002	1.32831E-001	3.58000E+000	9	...........
	1	0.026667	1.48067E-001	1.00594E-004	0.00000E+000	1.48947E-005	5.99601E-002	1.48089E-001	3.58000E+000	9	...........
	2	0.04	1.62903E-001	1.00061E-004	0.00000E+000	1.63003E-005	5.99601E-002	1.62932E-001	3.58000E+000	9	...........
	3	0.053333	1.77479E-001	1.01512E-004	0.00000E+000	1.80162E-005	5.99601E-002	1.77511E-001	3.58000E+000	9	...........
	4	0.066667	1.91866E-001	1.00320E-004	0.00000E+000	1.92480E-005	5.99601E-002	1.91893E-001	3.58000E+000	9	...........
	5	0.08	2.06102E-001	1.00603E-004	0.00000E+000	2.07345E-005	5.99601E-002	2.06138E-001	3.58000E+000	9	...........
	6	0.093333	2.20242E-001	1.00938E-004	0.00000E+000	2.22307E-005	5.99601E-002	2.20276E-001	3.58000E+000	9	...........
	7	0.106667	2.34311E-001	1.00435E-004	0.00000E+000	2.35331E-005	5.99601E-002	2.34347E-001	3.58000E+000	9	...........
	8	0.12	2.48330E-001	1.00583E-004	0.00000E+000	2.49779E-005	5.99601E-002	2.48369E-001	3.58000E+000	9	...........
	9	0.133333	2.62322E-001	1.01002E-004	0.00000E+000	2.64952E-005	5.99601E-002	2.62371E-001	3.58000E+000	9	...........
	10	0.146667	2.76306E-001	1.01147E-004	0.00000E+000	2.79476E-005	5.99601E-002	2.76355E-001	3.58000E+000	9	...........
	11	0.16	2.90286E-001	1.00633E-004	0.00000E+000	2.92124E-005	5.99601E-002	2.90339E-001	3.58000E+000	9	...........
	12	0.173333	3.04285E-001	1.01519E-004	0.00000E+000	3.08907E-005	5.99601E-002	3.04340E-001	3.58000E+000	9	...........
	13	0.186667	3.18295E-001	1.00682E-004	0.00000E+000	3.20467E-005	5.99601E-002	3.18353E-001	3.58000E+000	9	...........
	14	0.2	3.32319E-001	9.97322E-005	0.00000E+000	3.31429E-005	5.99601E-002	3.32381E-001	3.58000E+000	9	...........
	15	0.213333	3.46380E-001	1.01491E-004	0.00000E+000	3.51544E-005	5.99601E-002	3.46438E-001	3.58000E+000	9	...........
	16	0.226667	3.60450E-001	1.01349E-004	0.00000E+000	3.65313E-005	5.99601E-002	3.60515E-001	3.58000E+000	9	...........
	17	0.24	3.74532E-001	1.00942E-004	0.00000E+000	3.78059E-005	5.99601E-002	3.74604E-001	3.58000E+000	9	...........
	18	0.253333	3.88623E-001	1.00695E-004	0.00000E+000	3.91324E-005	5.99601E-002	3.88697E-001	3.58000E+000	9	...........
	19	0.266667	4.02702E-001	1.01190E-004	0.00000E+000	4.07493E-005	5.99601E-002	4.02777E-001	3.58000E+000	9	...........
	20	0.28	4.16750E-001	1.01135E-004	0.00000E+000	4.21478E-005	5.99601E-002	4.16833E-001	3.58000E+000	9	...........
	21	0.293333	4.30752E-001	1.01288E-004	0.00000E+000	4.36299E-005	5.99601E-002	4.30836E-001	3.58000E+000	9	...........
	22	0.306667	4.44694E-001	1.01871E-004	0.00000E+000	4.53015E-005	5.99601E-002	4.44782E-001	3.58000E+000	9	...........
	23	0.32	4.58542E-001	1.00747E-004	0.00000E+000	4.61967E-005	5.99601E-002	4.58635E-001	3.58000E+000	9	...........
	24	0.333333	4.72290E-001	1.01874E-004	0.00000E+000	4.81142E-005	5.99601E-002	4.72379E-001	3.58000E+000	9	...........
	25	0.346667	4.85895E-001	1.01585E-004	0.00000E+000	4.93594E-005	5.99601E-002	4.85994E-001	3.58000E+000	9	...........
	26	0.36	4.99355E-001	1.01176E-004	0.00000E+000	5.05229E-005	5.99601E-002	4.99462E-001	3.58000E+000	9	...........
	27	0.373333	5.12641E-001	1.00470E-004	0.00000E+000	5.15049E-005	5.99601E-002	5.12748E-001	3.58000E+000	9	...........
	28	0.386667	5.25744E-001	1.01918E-004	0.00000E+000	5.35828E-005	5.99601E-002	5.25854E-001	3.57931E+000	9	...........
	29	0.4	5.38366E-001	1.01648E-004	0.00000E+000	5.47239E-005	5.99601E-002	5.38568E-001	3.57890E+000	9	...........
	30	0.413333	5.50995E-001	1.01246E-004	0.00000E+000	5.57861E-005	5.99601E-002	5.51226E-001	3.57890E+000	9	...........
	31	0.426667	5.63466E-001	1.00344E-004	0.00000E+000	5.65403E-005	5.99601E-002	5.63712E-001	3.57890E+000	9	...........
	32	0.44	5.75718E-001	1.01378E-004	0.00000E+000	5.83653E-005	5.99601E-002	5.75981E-001	3.57890E+000	9	...........
	33	0.453333	5.87745E-001	1.00759E-004	0.00000E+000	5.92209E-005	5.99601E-002	5.88013E-001	3.57890E+000	9	...........
	34	0.466667	5.99553E-001	1.00659E-004	0.00000E+000	6.03507E-005	5.99601E-002	5.99808E-001	3.57890E+000	9	...........
	35	0.48	6.11109E-001	1.00393E-004	0.00000E+000	6.13508E-005	5.99601E-002	6.11406E-001	3.57890E+000	9	...........
	36	0.493333	6.22504E-001	1.00207E-004	0.00000E+000	6.23794E-005	5.99601E-002	6.22744E-001	3.57890E+000	9	...........
	37	0.506667	6.33597E-001	1.01112E-004	0.00000E+000	6.40640E-005	5.99601E-002	6.33871E-001	3.57890E+000	9	...........
	38	0.52	6.44511E-001	1.01414E-004	0.00000E+000	6.53623E-005	5.99601E-002	6.44746E-001	3.57890E+000	9	...........
	39	0.533333	6.55162E-001	1.00004E-004	0.00000E+000	6.55189E-005	5.99601E-002	6.55434E-001	3.57890E+000	9	...........
	40	0.546667	6.65620E-001	1.01082E-004	0.00000E+000	6.72825E-005	5.99601E-002	6.65913E-001	3.57890E+000	9	...........
	41	0.56	6.75884E-001	1.00880E-004	0.00000E+000	6.81834E-005	5.99601E-002	6.76140E-001	3.57890E+000	9	...........
	42	0.573333	6.85917E-001	1.00765E-004	0.00000E+000	6.91162E-005	5.99601E-002	6.86203E-001	3.57890E+000	9	...........
	43	0.586667	6.95757E-001	1.00128E-004	0.00000E+000	6.96648E-005	5.99601E-002	6.96027E-001	3.57890E+000	9	...........
	44	0.6	7.05411E-001	1.01801E-004	0.00000E+000	7.18118E-005	5.99601E-002	7.05647E-001	3.57890E+000	9	...........
	45	0.613333	7.14848E-001	1.01145E-004	0.00000E+000	7.23033E-005	5.99601E-002	7.15100E-001	3.57890E+000	9	...........
	46	0.626667	7.24149E-001	1.01196E-004	0.00000E+000	7.32810E-005	5.99601E-002	7.24400E-001	3.57890E+000	9	...........
	47	0.64	7.33201E-001	1.00458E-004	0.00000E+000	7.36562E-005	5.99601E-002	7.33470E-001	3.57890E+000	9	...........
	48	0.653333	7.42127E-001	1.01198E-004	0.00000E+000	7.51018E-005	5.99601E-002	7.42399E-001	3.57890E+000	9	...........
	49	0.666667	7.50861E-001	1.01115E-004	0.00000E+000	7.59232E-005	5.99601E-002	7.51160E-001	3.57890E+000	9	...........
	50	0.68	7.59440E-001	1.00370E-004	0.00000E+000	7.62248E-005	5.99601E-002	7.59729E-001	3.57890E+000	9	...........
	51	0.693333	7.67815E-001	1.00901E-004	0.00000E+000	7.74735E-005	5.99601E-002	7.68150E-001	3.57890E+000	9	...........
	52	0.706667	7.76065E-001	1.00286E-004	0.00000E+000	7.78288E-005	5.99601E-002	7.76384E-001	3.57890E+000	9	...........
	53	0.72	7.84158E-001	1.00883E-004	0.00000E+000	7.91085E-005	5.99601E-002	7.84454E-001	3.57890E+000	9	...........
	54	0.733333	7.92087E-001	1.01019E-004	0.00000E+000	8.00157E-005	5.99601E-002	7.92356E-001	3.57890E+000	9	...........
	55	0.746667	7.99873E-001	1.00664E-004	0.00000E+000	8.05181E-005	5.99601E-002	8.00110E-001	3.57890E+000	9	...........
	56	0.76	8.07481E-001	1.00173E-004	0.00000E+000	8.08877E-005	5.99601E-002	8.07763E-001	3.57890E+000	9	...........
	57	0.773333	8.14990E-001	1.00708E-004	0.00000E+000	8.20764E-005	5.99601E-002	8.15275E-001	3.57890E+000	9	...........
	58	0.786667	8.22364E-001	1.00950E-004	0.00000E+000	8.30178E-005	5.99601E-002	8.22677E-001	3.57890E+000	9	...........
	59	0.8	8.29578E-001	1.00496E-004	0.00000E+000	8.33692E-005	5.99601E-002	8.29901E-001	3.57890E+000	9	...........
	60	0.813333	8.36663E-001	1.00267E-004	0.00000E+000	8.38894E-005	5.99601E-002	8.37008E-001	3.57890E+000	9	...........
	61	0.826667	8.43663E-001	1.00722E-004	0.00000E+000	8.49754E-005	5.99601E-002	8.44008E-001	3.57890E+000	9	...........
	62	0.84	8.50507E-001	1.01172E-004	0.00000E+000	8.60475E-005	5.99601E-002	8.50872E-001	3.57890E+000	9	...........
	63	0.853333	8.57224E-001	1.01779E-004	0.00000E+000	8.72479E-005	5.99601E-002	8.57587E-001	3.57890E+000	9	...........
	64	0.866667	8.63832E-001	1.00235E-004	0.00000E+000	8.65865E-005	5.99601E-002	8.64164E-001	3.57890E+000	9	...........
	65	0.88	8.70346E-001	1.00992E-004	0.00000E+000	8.78978E-005	5.99601E-002	8.70686E-001	3.57890E+000	9	...........
	66	0.893333	8.76737E-001	1.01499E-004	0.00000E+000	8.89881E-005	5.99601E-002	8.77053E-001	3.57890E+000	9	...........
	67	0.906667	8.83002E-001	1.00406E-004	0.00000E+000	8.86589E-005	5.99601E-002	8.83308E-001	3.57890E+000	9	...........
	68	0.92	8.89160E-001	1.00764E-004	0.00000E+000	8.95950E-005	5.99601E-002	8.89455E-001	3.57890E+000	9	...........
	69	0.933333	8.95194E-001	1.01254E-004	0.00000E+000	9.06422E-005	5.99601E-002	8.95517E-001	3.57890E+000	9	...........
	70	0.946667	9.01127E-001	1.02058E-004	0.00000E+000	9.19669E-005	5.99601E-002	9.01460E-001	3.57890E+000	9	...........
	71	0.96	9.06957E-001	1.01215E-004	0.00000E+000	9.17974E-005	5.99601E-002	9.07307E-001	3.57890E+000	9	...........
	72	0.97333	9.12675E-001	9.99916E-005	0.00000E+000	9.12598E-005	5.99601E-002	9.13023E-001	3.57890E+000	9	...........
	73	0.98667	9.18305E-001	1.00955E-004	0.00000E+000	9.27077E-005	5.99601E-002	9.18637E-001	3.57890E+000	9	...........
	74	1	9.23872E-001	1.00921E-004	0.00000E+000	9.32380E-005	5.99601E-002	9.24190E-001	3.57890E+000	9	...........
	75	1.01333	9.29256E-001	1.01162E-004	0.00000E+000	9.40051E-005	5.99601E-002	9.29589E-001	3.57890E+000	9	...........
	76	1.02667	9.34558E-001	1.00726E-004	0.00000E+000	9.41344E-005	5.99601E-002	9.34913E-001	3.57890E+000	9	...........
	77	1.04	9.39774E-001	1.00100E-004	0.00000E+000	9.40713E-005	5.99601E-002	9.40113E-001	3.57890E+000	9	...........
	78	1.05333	9.44876E-001	1.01206E-004	0.00000E+000	9.56275E-005	5.99601E-002	9.45226E-001	3.57890E+000	9	...........
	79	1.06667	9.49926E-001	1.00414E-004	0.00000E+000	9.53855E-005	5.99601E-002	9.50270E-001	3.57890E+000	9	...........
	80	1.08	9.54832E-001	1.01116E-004	0.00000E+000	9.65486E-005	5.99601E-002	9.55179E-001	3.57890E+000	9	...........
	81	1.09333	9.59664E-001	1.00840E-004	0.00000E+000	9.67722E-005	5.99601E-002	9.60014E-001	3.57890E+000	9	...........
	82	1.10667	9.64349E-001	1.01321E-004	0.00000E+000	9.77088E-005	5.99601E-002	9.64741E-001	3.57890E+000	9	...........
	83	1.12	9.68990E-001	1.01207E-004	0.00000E+000	9.80690E-005	5.99601E-002	9.69384E-001	3.57890E+000	9	...........
	84	1.13333	9.73542E-001	1.01310E-004	0.00000E+000	9.86292E-005	5.99601E-002	9.73951E-001	3.57890E+000	9	...........
	85	1.14667	9.78020E-001	1.00713E-004	0.00000E+000	9.84990E-005	5.99601E-002	9.78385E-001	3.57890E+000	9	...........
	86	1.16	9.82332E-001	1.00580E-004	0.00000E+000	9.88032E-005	5.99601E-002	9.82728E-001	3.57890E+000	9	...........
	87	1.17333	9.86597E-001	9.93331E-005	0.00000E+000	9.80018E-005	5.99601E-002	9.86997E-001	3.57890E+000	9	...........
	88	1.18667	9.90766E-001	1.00868E-004	0.00000E+000	9.99364E-005	5.99601E-002	9.91151E-001	3.57890E+000	9	...........
	89	1.2	9.94839E-001	1.01172E-004	0.00000E+000	1.00650E-004	5.99601E-002	9.95224E-001	3.57890E+000	9	...........
	90	1.21167	9.98613E-001	1.01392E-004	0.00000E+000	1.01252E-004	5.99601E-002	9.98979E-001	3.57890E+000	9	...........
STARTTIMEOFFSET	QUANT	1494.215	Start Time Offset (s)
