EXPLAIN
TAG	PWR800_CHARGE
TITLE	LABEL	PWR Cyclic Charge Discharge (Cell) - Charge Step	Test &Identifier
DATE	LABEL	13-7-2017	Date
TIME	LABEL	15:37:43	Time
NOTES	NOTES	2	&Notes...
	supercap test cell
	6M KOH
PSTAT	PSTAT	IFC5000-01520	Potentiostat
CAPACITY	QUANT	1.00000E-003	Capacity (A-hr)
CELLTYPE	SELECTOR	1	&Cell Type
WORKINGCONNECTION	SELECTOR	0	&Working Lead
MAXCHARGETIME	VARIABLEANDUNITS	1.00000E+002	s	1.00000E+002	second(s)	Max &Charge Time
CHARGECURRENT	QUANT	1.00000E-004	&Charge Current (A) 
VOLTAGEFINISH	TWOPARAM	F	1.00000E-003	3.60000E+003	&Voltage Finish	 I (A) < 	Max Time(s)
SAMPLETIME	QUANT	1.00000E-002	Sa&mple Period (s)
CHARGESTOPAT1	MULTIPARAM	4	1.00000E+000	Charge Stop At &1	Voltage > Limit	V
CHARGESTOPAT2	MULTIPARAM	0	0.00000E+000	Charge Stop At &2	None	N/A
AESBHCSELECTOR	TOGGLE	F	Save Both Half Cells
IRCOMP	TOGGLE	F	IR &Measure
EOC	QUANT	0	Open Circuit (V)
SEQUENCER	TOGGLE	TRUE	Run as Sequence
PSTATMODEL	IQUANT	53	Pstat Model
PSTATSECTION	LABEL	IFC5000-01520	Pstat Section
PSTATSERIALNO	LABEL	01520	Pstat Serial Number
CTRLMODE	IQUANT	0	Control Mode
ELECTROMETER	IQUANT	1	RE=0 or CS=1
IESTAB	IQUANT	0	I/E Stability
CASPEED	IQUANT	4	Control Amp Speed
CONVENTION	IQUANT	1	Current Convention
ICHRANGE	IQUANT	2	Ich Range
ICHRANGEMODE	TOGGLE	T	Ich Auto Range
ICHOFFSETENABLE	TOGGLE	F	Ich Offset Enable
ICHOFFSET	QUANT	0	Ich Offset (V)
ICHFILTER	IQUANT	1	Ich Filter
VCHRANGE	IQUANT	2	Vch Range
VCHRANGEMODE	TOGGLE	T	Vch Auto Range
VCHOFFSETENABLE	TOGGLE	F	Vch Offset Enable
VCHOFFSET	QUANT	0	Vch Offset (V)
VCHFILTER	IQUANT	1	Vch Filter
IERANGELOWERLIMIT	IQUANT	9	I/E Range Lower Limit
IERANGEMODE	TOGGLE	F	I/E AutoRange
IERANGE	IQUANT	9	I/E Range
ACHSELECT	IQUANT	1	Ach Select
ACHRANGE	IQUANT	2	Ach Range
ACHOFFSETENABLE	TOGGLE	F	Ach Offset Enable
ACHOFFSET	QUANT	0	Ach Offset (V)
ACHFILTER	IQUANT	1	Ach Filter
CABLEID	IQUANT	14	Cable ID
DCCALDATE	LABEL	5-7-2017	DC Calibration Date
ACCALDATE	LABEL	12/3/2015	AC Calibration Date
FRAMEWORKVERSION	QUANT	7.01	Framework Version
INSTRUMENTVERSION	LABEL	4.00	Instrument Version
CURVE	TABLE	91
	Pt	T	Vf	Im	Vu	Pwr	Sig	Ach	Temp	IERange	Over
	#	s	V	A	V	W	V	V	deg C	#	bits
	0	0.013333	1.32574E-001	1.01207E-004	0.00000E+000	1.34175E-005	5.99601E-002	1.32622E-001	3.57900E+000	9	...........
	1	0.026667	1.47877E-001	1.00355E-004	0.00000E+000	1.48402E-005	5.99601E-002	1.47897E-001	3.57900E+000	9	...........
	2	0.04	1.62741E-001	1.01682E-004	0.00000E+000	1.65477E-005	5.99601E-002	1.62759E-001	3.57900E+000	9	...........
	3	0.053333	1.77323E-001	1.00971E-004	0.00000E+000	1.79045E-005	5.99601E-002	1.77348E-001	3.57900E+000	9	...........
	4	0.066667	1.91715E-001	1.00905E-004	0.00000E+000	1.93451E-005	5.99601E-002	1.91745E-001	3.57900E+000	9	...........
	5	0.08	2.05960E-001	1.01454E-004	0.00000E+000	2.08955E-005	5.99601E-002	2.05993E-001	3.57900E+000	9	...........
	6	0.093333	2.20107E-001	1.01065E-004	0.00000E+000	2.22450E-005	5.99601E-002	2.20141E-001	3.57900E+000	9	...........
	7	0.106667	2.34178E-001	1.00915E-004	0.00000E+000	2.36320E-005	5.99601E-002	2.34220E-001	3.57900E+000	9	...........
	8	0.12	2.48203E-001	1.00425E-004	0.00000E+000	2.49258E-005	5.99601E-002	2.48250E-001	3.57900E+000	9	...........
	9	0.133333	2.62205E-001	1.00645E-004	0.00000E+000	2.63896E-005	5.99601E-002	2.62255E-001	3.57900E+000	9	...........
	10	0.146667	2.76202E-001	1.00650E-004	0.00000E+000	2.77998E-005	5.99601E-002	2.76249E-001	3.57900E+000	9	...........
	11	0.16	2.90188E-001	1.01180E-004	0.00000E+000	2.93614E-005	5.99601E-002	2.90243E-001	3.57900E+000	9	...........
	12	0.173333	3.04190E-001	1.00149E-004	0.00000E+000	3.04643E-005	5.99601E-002	3.04244E-001	3.57900E+000	9	...........
	13	0.186667	3.18208E-001	1.00617E-004	0.00000E+000	3.20171E-005	5.99601E-002	3.18272E-001	3.57900E+000	9	...........
	14	0.2	3.32250E-001	1.00484E-004	0.00000E+000	3.33859E-005	5.99601E-002	3.32308E-001	3.57900E+000	9	...........
	15	0.213333	3.46314E-001	1.00279E-004	0.00000E+000	3.47281E-005	5.99601E-002	3.46375E-001	3.57900E+000	9	...........
	16	0.226667	3.60396E-001	1.00232E-004	0.00000E+000	3.61233E-005	5.99601E-002	3.60469E-001	3.57900E+000	9	...........
	17	0.24	3.74509E-001	1.00962E-004	0.00000E+000	3.78111E-005	5.99601E-002	3.74575E-001	3.57900E+000	9	...........
	18	0.253333	3.88616E-001	1.00999E-004	0.00000E+000	3.92499E-005	5.99601E-002	3.88690E-001	3.57900E+000	9	...........
	19	0.266667	4.02713E-001	1.00465E-004	0.00000E+000	4.04584E-005	5.99601E-002	4.02785E-001	3.57900E+000	9	...........
	20	0.28	4.16786E-001	1.00833E-004	0.00000E+000	4.20260E-005	5.99601E-002	4.16868E-001	3.57900E+000	9	...........
	21	0.293333	4.30822E-001	1.00821E-004	0.00000E+000	4.34358E-005	5.99601E-002	4.30907E-001	3.57900E+000	9	...........
	22	0.306667	4.44787E-001	1.00635E-004	0.00000E+000	4.47613E-005	5.99601E-002	4.44878E-001	3.57900E+000	9	...........
	23	0.32	4.58679E-001	1.01196E-004	0.00000E+000	4.64165E-005	5.99601E-002	4.58767E-001	3.57900E+000	9	...........
	24	0.333333	4.72456E-001	1.01161E-004	0.00000E+000	4.77939E-005	5.99601E-002	4.72548E-001	3.57900E+000	9	...........
	25	0.346667	4.86102E-001	1.01383E-004	0.00000E+000	4.92823E-005	5.99601E-002	4.86196E-001	3.57900E+000	9	...........
	26	0.36	4.99588E-001	1.00929E-004	0.00000E+000	5.04230E-005	5.99601E-002	4.99689E-001	3.57900E+000	9	...........
	27	0.373333	5.12913E-001	1.00310E-004	0.00000E+000	5.14505E-005	5.99601E-002	5.13018E-001	3.57900E+000	9	...........
	28	0.386667	5.26055E-001	1.01583E-004	0.00000E+000	5.34380E-005	5.99601E-002	5.26162E-001	3.57900E+000	9	...........
	29	0.4	5.38692E-001	1.01951E-004	0.00000E+000	5.49204E-005	5.99601E-002	5.38904E-001	3.57900E+000	9	...........
	30	0.413333	5.51378E-001	1.00229E-004	0.00000E+000	5.52641E-005	5.99601E-002	5.51622E-001	3.57900E+000	9	...........
	31	0.426667	5.63912E-001	1.00808E-004	0.00000E+000	5.68471E-005	5.99601E-002	5.64147E-001	3.57900E+000	9	...........
	32	0.44	5.76204E-001	1.00417E-004	0.00000E+000	5.78605E-005	5.99601E-002	5.76441E-001	3.57900E+000	9	...........
	33	0.453333	5.88246E-001	1.00379E-004	0.00000E+000	5.90477E-005	5.99601E-002	5.88512E-001	3.57900E+000	9	...........
	34	0.466667	6.00094E-001	1.00782E-004	0.00000E+000	6.04789E-005	5.99601E-002	6.00352E-001	3.57900E+000	9	...........
	35	0.48	6.11706E-001	1.01038E-004	0.00000E+000	6.18054E-005	5.99601E-002	6.11958E-001	3.57900E+000	9	...........
	36	0.493333	6.23097E-001	1.00301E-004	0.00000E+000	6.24972E-005	5.99601E-002	6.23331E-001	3.57900E+000	9	...........
	37	0.506667	6.34230E-001	1.01476E-004	0.00000E+000	6.43593E-005	5.99601E-002	6.34484E-001	3.57900E+000	9	...........
	38	0.52	6.45166E-001	1.00438E-004	0.00000E+000	6.47989E-005	5.99601E-002	6.45437E-001	3.57900E+000	9	...........
	39	0.533333	6.55878E-001	1.01117E-004	0.00000E+000	6.63203E-005	5.99601E-002	6.56117E-001	3.57900E+000	9	...........
	40	0.546667	6.66383E-001	1.01193E-004	0.00000E+000	6.74332E-005	5.99601E-002	6.66647E-001	3.57900E+000	9	...........
	41	0.56	6.76670E-001	1.00851E-004	0.00000E+000	6.82430E-005	5.99601E-002	6.76927E-001	3.57900E+000	9	...........
	42	0.573333	6.86753E-001	1.00990E-004	0.00000E+000	6.93550E-005	5.99601E-002	6.87010E-001	3.57900E+000	9	...........
	43	0.586667	6.96588E-001	1.00621E-004	0.00000E+000	7.00913E-005	5.99601E-002	6.96878E-001	3.57900E+000	9	...........
	44	0.6	7.06271E-001	1.02218E-004	0.00000E+000	7.21937E-005	5.99601E-002	7.06550E-001	3.57900E+000	9	...........
	45	0.613333	7.15752E-001	1.00548E-004	0.00000E+000	7.19674E-005	5.99601E-002	7.16028E-001	3.57900E+000	9	...........
	46	0.626667	7.25073E-001	1.01210E-004	0.00000E+000	7.33843E-005	5.99601E-002	7.25346E-001	3.57900E+000	9	...........
	47	0.64	7.34156E-001	1.00429E-004	0.00000E+000	7.37307E-005	5.99601E-002	7.34438E-001	3.57900E+000	9	...........
	48	0.653333	7.43079E-001	1.00372E-004	0.00000E+000	7.45842E-005	5.99601E-002	7.43385E-001	3.57900E+000	9	...........
	49	0.666667	7.51863E-001	1.00723E-004	0.00000E+000	7.57299E-005	5.99601E-002	7.52160E-001	3.57900E+000	9	...........
	50	0.68	7.60466E-001	1.00062E-004	0.00000E+000	7.60941E-005	5.99601E-002	7.60725E-001	3.57921E+000	9	...........
	51	0.693333	7.68881E-001	1.01304E-004	0.00000E+000	7.78910E-005	5.99601E-002	7.69164E-001	3.57990E+000	9	...........
	52	0.706667	7.77139E-001	1.01260E-004	0.00000E+000	7.86927E-005	5.99601E-002	7.77415E-001	3.57990E+000	9	...........
	53	0.72	7.85252E-001	1.01191E-004	0.00000E+000	7.94602E-005	5.99601E-002	7.85534E-001	3.57990E+000	9	...........
	54	0.733333	7.93197E-001	1.00588E-004	0.00000E+000	7.97858E-005	5.99601E-002	7.93504E-001	3.57990E+000	9	...........
	55	0.746667	8.01027E-001	1.00589E-004	0.00000E+000	8.05742E-005	5.99601E-002	8.01293E-001	3.57990E+000	9	...........
	56	0.76	8.08659E-001	1.01488E-004	0.00000E+000	8.20690E-005	5.99601E-002	8.08965E-001	3.57990E+000	9	...........
	57	0.773333	8.16196E-001	1.00426E-004	0.00000E+000	8.19673E-005	5.99601E-002	8.16497E-001	3.57990E+000	9	...........
	58	0.786667	8.23566E-001	1.01293E-004	0.00000E+000	8.34214E-005	5.99601E-002	8.23892E-001	3.57990E+000	9	...........
	59	0.8	8.30826E-001	1.01140E-004	0.00000E+000	8.40295E-005	5.99601E-002	8.31145E-001	3.57990E+000	9	...........
	60	0.813333	8.37916E-001	1.01105E-004	0.00000E+000	8.47178E-005	5.99601E-002	8.38260E-001	3.57990E+000	9	...........
	61	0.826667	8.44937E-001	1.00940E-004	0.00000E+000	8.52877E-005	5.99601E-002	8.45294E-001	3.57990E+000	9	...........
	62	0.84	8.51794E-001	1.01876E-004	0.00000E+000	8.67777E-005	5.99601E-002	8.52142E-001	3.57990E+000	9	...........
	63	0.853333	8.58531E-001	1.00571E-004	0.00000E+000	8.63432E-005	5.99601E-002	8.58906E-001	3.57990E+000	9	...........
	64	0.866667	8.65145E-001	1.00982E-004	0.00000E+000	8.73644E-005	5.99601E-002	8.65526E-001	3.57990E+000	9	...........
	65	0.88	8.71692E-001	1.00092E-004	0.00000E+000	8.72491E-005	5.99601E-002	8.72047E-001	3.57990E+000	9	...........
	66	0.893333	8.78072E-001	1.00469E-004	0.00000E+000	8.82188E-005	5.99601E-002	8.78419E-001	3.57990E+000	9	...........
	67	0.906667	8.84351E-001	1.00665E-004	0.00000E+000	8.90229E-005	5.99601E-002	8.84731E-001	3.57990E+000	9	...........
	68	0.92	8.90512E-001	1.00629E-004	0.00000E+000	8.96115E-005	5.99601E-002	8.90855E-001	3.57990E+000	9	...........
	69	0.933333	8.96568E-001	1.00171E-004	0.00000E+000	8.98099E-005	5.99601E-002	8.96949E-001	3.57990E+000	9	...........
	70	0.946667	9.02500E-001	1.01502E-004	0.00000E+000	9.16058E-005	5.99601E-002	9.02884E-001	3.57990E+000	9	...........
	71	0.96	9.08355E-001	1.01587E-004	0.00000E+000	9.22768E-005	5.99601E-002	9.08724E-001	3.57990E+000	9	...........
	72	0.97333	9.14077E-001	1.00738E-004	0.00000E+000	9.20819E-005	5.99601E-002	9.14444E-001	3.57990E+000	9	...........
	73	0.98667	9.19704E-001	1.00347E-004	0.00000E+000	9.22894E-005	5.99601E-002	9.20074E-001	3.57990E+000	9	...........
	74	1	9.25267E-001	9.97197E-005	0.00000E+000	9.22673E-005	5.99601E-002	9.25619E-001	3.57990E+000	9	...........
	75	1.01333	9.30675E-001	1.00435E-004	0.00000E+000	9.34728E-005	5.99601E-002	9.31024E-001	3.57990E+000	9	...........
	76	1.02667	9.36006E-001	1.00904E-004	0.00000E+000	9.44470E-005	5.99601E-002	9.36365E-001	3.57990E+000	9	...........
	77	1.04	9.41219E-001	1.01414E-004	0.00000E+000	9.54526E-005	5.99601E-002	9.41570E-001	3.57990E+000	9	...........
	78	1.05333	9.46354E-001	1.01091E-004	0.00000E+000	9.56676E-005	5.99601E-002	9.46696E-001	3.57990E+000	9	...........
	79	1.06667	9.51378E-001	1.01077E-004	0.00000E+000	9.61627E-005	5.99601E-002	9.51734E-001	3.57990E+000	9	...........
	80	1.08	9.56286E-001	1.01379E-004	0.00000E+000	9.69477E-005	5.99601E-002	9.56620E-001	3.57990E+000	9	...........
	81	1.09333	9.61085E-001	1.01038E-004	0.00000E+000	9.71058E-005	5.99601E-002	9.61456E-001	3.57990E+000	9	...........
	82	1.10667	9.65801E-001	1.01147E-004	0.00000E+000	9.76879E-005	5.99601E-002	9.66175E-001	3.57990E+000	9	...........
	83	1.12	9.70413E-001	1.00065E-004	0.00000E+000	9.71039E-005	5.99601E-002	9.70799E-001	3.57990E+000	9	...........
	84	1.13333	9.75001E-001	1.00514E-004	0.00000E+000	9.80008E-005	5.99601E-002	9.75354E-001	3.57990E+000	9	...........
	85	1.14667	9.79457E-001	1.00801E-004	0.00000E+000	9.87304E-005	5.99601E-002	9.79806E-001	3.57990E+000	9	...........
	86	1.16	9.83771E-001	1.01103E-004	0.00000E+000	9.94625E-005	5.99601E-002	9.84144E-001	3.57990E+000	9	...........
	87	1.17333	9.88035E-001	1.00680E-004	0.00000E+000	9.94757E-005	5.99601E-002	9.88402E-001	3.57990E+000	9	...........
	88	1.18667	9.92196E-001	1.01698E-004	0.00000E+000	1.00905E-004	5.99601E-002	9.92586E-001	3.57990E+000	9	...........
	89	1.2	9.96276E-001	1.00406E-004	0.00000E+000	1.00032E-004	5.99601E-002	9.96661E-001	3.57990E+000	9	...........
	90	1.20667	9.99291E-001	1.01098E-004	0.00000E+000	1.01026E-004	5.99601E-002	9.99677E-001	3.57990E+000	9	...........
STARTTIMEOFFSET	QUANT	1614.67	Start Time Offset (s)
