EXPLAIN
TAG	PWR800_CHARGE
TITLE	LABEL	PWR Cyclic Charge Discharge (Cell) - Charge Step	Test &Identifier
DATE	LABEL	13-7-2017	Date
TIME	LABEL	15:16:26	Time
NOTES	NOTES	2	&Notes...
	supercap test cell
	6M KOH
PSTAT	PSTAT	IFC5000-01520	Potentiostat
CAPACITY	QUANT	1.00000E-003	Capacity (A-hr)
CELLTYPE	SELECTOR	1	&Cell Type
WORKINGCONNECTION	SELECTOR	0	&Working Lead
MAXCHARGETIME	VARIABLEANDUNITS	1.00000E+002	s	1.00000E+002	second(s)	Max &Charge Time
CHARGECURRENT	QUANT	1.00000E-004	&Charge Current (A) 
VOLTAGEFINISH	TWOPARAM	F	1.00000E-003	3.60000E+003	&Voltage Finish	 I (A) < 	Max Time(s)
SAMPLETIME	QUANT	1.00000E-002	Sa&mple Period (s)
CHARGESTOPAT1	MULTIPARAM	4	1.00000E+000	Charge Stop At &1	Voltage > Limit	V
CHARGESTOPAT2	MULTIPARAM	0	0.00000E+000	Charge Stop At &2	None	N/A
AESBHCSELECTOR	TOGGLE	F	Save Both Half Cells
IRCOMP	TOGGLE	F	IR &Measure
EOC	QUANT	0	Open Circuit (V)
SEQUENCER	TOGGLE	TRUE	Run as Sequence
PSTATMODEL	IQUANT	53	Pstat Model
PSTATSECTION	LABEL	IFC5000-01520	Pstat Section
PSTATSERIALNO	LABEL	01520	Pstat Serial Number
CTRLMODE	IQUANT	0	Control Mode
ELECTROMETER	IQUANT	1	RE=0 or CS=1
IESTAB	IQUANT	0	I/E Stability
CASPEED	IQUANT	4	Control Amp Speed
CONVENTION	IQUANT	1	Current Convention
ICHRANGE	IQUANT	2	Ich Range
ICHRANGEMODE	TOGGLE	T	Ich Auto Range
ICHOFFSETENABLE	TOGGLE	F	Ich Offset Enable
ICHOFFSET	QUANT	0	Ich Offset (V)
ICHFILTER	IQUANT	1	Ich Filter
VCHRANGE	IQUANT	2	Vch Range
VCHRANGEMODE	TOGGLE	T	Vch Auto Range
VCHOFFSETENABLE	TOGGLE	F	Vch Offset Enable
VCHOFFSET	QUANT	0	Vch Offset (V)
VCHFILTER	IQUANT	1	Vch Filter
IERANGELOWERLIMIT	IQUANT	9	I/E Range Lower Limit
IERANGEMODE	TOGGLE	F	I/E AutoRange
IERANGE	IQUANT	9	I/E Range
ACHSELECT	IQUANT	1	Ach Select
ACHRANGE	IQUANT	2	Ach Range
ACHOFFSETENABLE	TOGGLE	F	Ach Offset Enable
ACHOFFSET	QUANT	0	Ach Offset (V)
ACHFILTER	IQUANT	1	Ach Filter
CABLEID	IQUANT	14	Cable ID
DCCALDATE	LABEL	5-7-2017	DC Calibration Date
ACCALDATE	LABEL	12/3/2015	AC Calibration Date
FRAMEWORKVERSION	QUANT	7.01	Framework Version
INSTRUMENTVERSION	LABEL	4.00	Instrument Version
CURVE	TABLE	95
	Pt	T	Vf	Im	Vu	Pwr	Sig	Ach	Temp	IERange	Over
	#	s	V	A	V	W	V	V	deg C	#	bits
	0	0.013333	1.31766E-001	1.00606E-004	0.00000E+000	1.32565E-005	5.99601E-002	1.31810E-001	3.57870E+000	9	...........
	1	0.026667	1.46988E-001	1.00075E-004	0.00000E+000	1.47098E-005	5.99601E-002	1.47008E-001	3.57870E+000	9	...........
	2	0.04	1.61771E-001	1.01157E-004	0.00000E+000	1.63643E-005	5.99601E-002	1.61793E-001	3.57870E+000	9	...........
	3	0.053333	1.76280E-001	1.00856E-004	0.00000E+000	1.77789E-005	5.99601E-002	1.76309E-001	3.57870E+000	9	...........
	4	0.066667	1.90595E-001	1.01614E-004	0.00000E+000	1.93671E-005	5.99601E-002	1.90627E-001	3.57870E+000	9	...........
	5	0.08	2.04763E-001	1.01167E-004	0.00000E+000	2.07152E-005	5.99601E-002	2.04799E-001	3.57870E+000	9	...........
	6	0.093333	2.18824E-001	1.01390E-004	0.00000E+000	2.21866E-005	5.99601E-002	2.18862E-001	3.57870E+000	9	...........
	7	0.106667	2.32812E-001	1.00172E-004	0.00000E+000	2.33212E-005	5.99601E-002	2.32850E-001	3.57870E+000	9	...........
	8	0.12	2.46747E-001	1.01343E-004	0.00000E+000	2.50061E-005	5.99601E-002	2.46793E-001	3.57870E+000	9	...........
	9	0.133333	2.60645E-001	1.00676E-004	0.00000E+000	2.62407E-005	5.99601E-002	2.60697E-001	3.57870E+000	9	...........
	10	0.146667	2.74530E-001	1.00452E-004	0.00000E+000	2.75772E-005	5.99601E-002	2.74585E-001	3.57870E+000	9	...........
	11	0.16	2.88410E-001	1.01235E-004	0.00000E+000	2.91971E-005	5.99601E-002	2.88470E-001	3.57870E+000	9	...........
	12	0.173333	3.02287E-001	1.00297E-004	0.00000E+000	3.03184E-005	5.99601E-002	3.02346E-001	3.57870E+000	9	...........
	13	0.186667	3.16173E-001	1.01038E-004	0.00000E+000	3.19454E-005	5.99601E-002	3.16235E-001	3.57870E+000	9	...........
	14	0.2	3.30066E-001	1.01068E-004	0.00000E+000	3.33591E-005	5.99601E-002	3.30130E-001	3.57870E+000	9	...........
	15	0.213333	3.43961E-001	1.01231E-004	0.00000E+000	3.48197E-005	5.99601E-002	3.44022E-001	3.57870E+000	9	...........
	16	0.226667	3.57859E-001	9.97342E-005	0.00000E+000	3.56907E-005	5.99601E-002	3.57932E-001	3.57870E+000	9	...........
	17	0.24	3.71750E-001	1.00928E-004	0.00000E+000	3.75201E-005	5.99601E-002	3.71821E-001	3.57870E+000	9	...........
	18	0.253333	3.85633E-001	1.01156E-004	0.00000E+000	3.90092E-005	5.99601E-002	3.85700E-001	3.57870E+000	9	...........
	19	0.266667	3.99486E-001	1.00730E-004	0.00000E+000	4.02404E-005	5.99601E-002	3.99565E-001	3.57870E+000	9	...........
	20	0.28	4.13290E-001	1.01209E-004	0.00000E+000	4.18285E-005	5.99601E-002	4.13373E-001	3.57870E+000	9	...........
	21	0.293333	4.27032E-001	1.00723E-004	0.00000E+000	4.30120E-005	5.99601E-002	4.27123E-001	3.57870E+000	9	...........
	22	0.306667	4.40700E-001	1.01044E-004	0.00000E+000	4.45301E-005	5.99601E-002	4.40793E-001	3.57870E+000	9	...........
	23	0.32	4.54262E-001	1.00770E-004	0.00000E+000	4.57759E-005	5.99601E-002	4.54358E-001	3.57870E+000	9	...........
	24	0.333333	4.67711E-001	1.01713E-004	0.00000E+000	4.75722E-005	5.99601E-002	4.67807E-001	3.57870E+000	9	...........
	25	0.346667	4.81019E-001	1.01611E-004	0.00000E+000	4.88767E-005	5.99601E-002	4.81119E-001	3.57870E+000	9	...........
	26	0.36	4.94164E-001	1.01075E-004	0.00000E+000	4.99477E-005	5.99601E-002	4.94270E-001	3.57870E+000	9	...........
	27	0.373333	5.07132E-001	1.00427E-004	0.00000E+000	5.09298E-005	5.99601E-002	5.07241E-001	3.57870E+000	9	...........
	28	0.386667	5.19920E-001	1.01229E-004	0.00000E+000	5.26312E-005	5.99601E-002	5.20032E-001	3.57870E+000	9	...........
	29	0.4	5.32360E-001	1.00141E-004	0.00000E+000	5.33109E-005	5.99601E-002	5.32537E-001	3.57870E+000	9	...........
	30	0.413333	5.44535E-001	1.00753E-004	0.00000E+000	5.48637E-005	5.99601E-002	5.44775E-001	3.57870E+000	9	...........
	31	0.426667	5.56673E-001	1.00977E-004	0.00000E+000	5.62113E-005	5.99601E-002	5.56964E-001	3.57870E+000	9	...........
	32	0.44	5.68657E-001	1.00458E-004	0.00000E+000	5.71263E-005	5.99601E-002	5.68931E-001	3.57870E+000	9	...........
	33	0.453333	5.80332E-001	1.00299E-004	0.00000E+000	5.82067E-005	5.99601E-002	5.80643E-001	3.57870E+000	9	...........
	34	0.466667	5.91855E-001	1.01685E-004	0.00000E+000	6.01826E-005	5.99601E-002	5.92160E-001	3.57870E+000	9	...........
	35	0.48	6.03113E-001	1.01776E-004	0.00000E+000	6.13826E-005	5.99601E-002	6.03427E-001	3.57870E+000	9	...........
	36	0.493333	6.14183E-001	1.00628E-004	0.00000E+000	6.18042E-005	5.99601E-002	6.14506E-001	3.57870E+000	9	...........
	37	0.506667	6.25047E-001	1.00712E-004	0.00000E+000	6.29495E-005	5.99601E-002	6.25314E-001	3.57870E+000	9	...........
	38	0.52	6.35644E-001	1.00351E-004	0.00000E+000	6.37875E-005	5.99601E-002	6.35941E-001	3.57870E+000	9	...........
	39	0.533333	6.46070E-001	1.00862E-004	0.00000E+000	6.51637E-005	5.99601E-002	6.46371E-001	3.57870E+000	9	...........
	40	0.546667	6.56263E-001	1.01054E-004	0.00000E+000	6.63182E-005	5.99601E-002	6.56552E-001	3.57870E+000	9	...........
	41	0.56	6.66280E-001	1.00587E-004	0.00000E+000	6.70188E-005	5.99601E-002	6.66570E-001	3.57885E+000	9	...........
	42	0.573333	6.76065E-001	1.00443E-004	0.00000E+000	6.79058E-005	5.99601E-002	6.76345E-001	3.57930E+000	9	...........
	43	0.586667	6.85660E-001	1.01021E-004	0.00000E+000	6.92660E-005	5.99601E-002	6.85958E-001	3.57930E+000	9	...........
	44	0.6	6.95067E-001	1.00250E-004	0.00000E+000	6.96805E-005	5.99601E-002	6.95378E-001	3.57930E+000	9	...........
	45	0.613333	7.04318E-001	1.00557E-004	0.00000E+000	7.08243E-005	5.99601E-002	7.04587E-001	3.57930E+000	9	...........
	46	0.626667	7.13320E-001	1.00996E-004	0.00000E+000	7.20425E-005	5.99601E-002	7.13643E-001	3.57930E+000	9	...........
	47	0.64	7.22242E-001	1.00010E-004	0.00000E+000	7.22317E-005	5.99601E-002	7.22525E-001	3.57930E+000	9	...........
	48	0.653333	7.30929E-001	1.00683E-004	0.00000E+000	7.35924E-005	5.99601E-002	7.31229E-001	3.57930E+000	9	...........
	49	0.666667	7.39455E-001	1.00745E-004	0.00000E+000	7.44963E-005	5.99601E-002	7.39779E-001	3.57930E+000	9	...........
	50	0.68	7.47859E-001	1.00350E-004	0.00000E+000	7.50477E-005	5.99601E-002	7.48144E-001	3.57930E+000	9	...........
	51	0.693333	7.56056E-001	1.00065E-004	0.00000E+000	7.56544E-005	5.99601E-002	7.56352E-001	3.57930E+000	9	...........
	52	0.706667	7.64115E-001	1.00154E-004	0.00000E+000	7.65293E-005	5.99601E-002	7.64432E-001	3.57930E+000	9	...........
	53	0.72	7.72059E-001	1.00908E-004	0.00000E+000	7.79073E-005	5.99601E-002	7.72352E-001	3.57930E+000	9	...........
	54	0.733333	7.79810E-001	1.00585E-004	0.00000E+000	7.84375E-005	5.99601E-002	7.80110E-001	3.57930E+000	9	...........
	55	0.746667	7.87432E-001	1.00797E-004	0.00000E+000	7.93708E-005	5.99601E-002	7.87721E-001	3.57930E+000	9	...........
	56	0.76	7.94925E-001	1.00988E-004	0.00000E+000	8.02776E-005	5.99601E-002	7.95236E-001	3.57930E+000	9	...........
	57	0.773333	8.02278E-001	1.00980E-004	0.00000E+000	8.10143E-005	5.99601E-002	8.02588E-001	3.57930E+000	9	...........
	58	0.786667	8.09496E-001	1.00318E-004	0.00000E+000	8.12067E-005	5.99601E-002	8.09777E-001	3.57930E+000	9	...........
	59	0.8	8.16557E-001	1.01217E-004	0.00000E+000	8.26493E-005	5.99601E-002	8.16890E-001	3.57930E+000	9	...........
	60	0.813333	8.23520E-001	1.01264E-004	0.00000E+000	8.33927E-005	5.99601E-002	8.23840E-001	3.57930E+000	9	...........
	61	0.826667	8.30355E-001	1.00858E-004	0.00000E+000	8.37483E-005	5.99601E-002	8.30675E-001	3.57930E+000	9	...........
	62	0.84	8.37062E-001	1.00093E-004	0.00000E+000	8.37838E-005	5.99601E-002	8.37381E-001	3.57930E+000	9	...........
	63	0.853333	8.43673E-001	9.97228E-005	0.00000E+000	8.41334E-005	5.99601E-002	8.44016E-001	3.57930E+000	9	...........
	64	0.866667	8.50179E-001	1.00933E-004	0.00000E+000	8.58116E-005	5.99601E-002	8.50531E-001	3.57930E+000	9	...........
	65	0.88	8.56559E-001	1.00929E-004	0.00000E+000	8.64519E-005	5.99601E-002	8.56901E-001	3.57930E+000	9	...........
	66	0.893333	8.62828E-001	1.00761E-004	0.00000E+000	8.69390E-005	5.99601E-002	8.63171E-001	3.57930E+000	9	...........
	67	0.906667	8.69001E-001	9.99478E-005	0.00000E+000	8.68548E-005	5.99601E-002	8.69347E-001	3.57930E+000	9	...........
	68	0.92	8.75075E-001	1.00165E-004	0.00000E+000	8.76515E-005	5.99601E-002	8.75432E-001	3.57930E+000	9	...........
	69	0.933333	8.81032E-001	1.01738E-004	0.00000E+000	8.96342E-005	5.99601E-002	8.81382E-001	3.57930E+000	9	...........
	70	0.946667	8.86888E-001	1.00898E-004	0.00000E+000	8.94852E-005	5.99601E-002	8.87238E-001	3.57930E+000	9	...........
	71	0.96	8.92626E-001	1.01196E-004	0.00000E+000	9.03302E-005	5.99601E-002	8.92993E-001	3.57930E+000	9	...........
	72	0.97333	8.98292E-001	1.00880E-004	0.00000E+000	9.06200E-005	5.99601E-002	8.98650E-001	3.57930E+000	9	...........
	73	0.98667	9.03824E-001	1.00613E-004	0.00000E+000	9.09361E-005	5.99601E-002	9.04193E-001	3.57930E+000	9	...........
	74	1	9.09316E-001	1.00167E-004	0.00000E+000	9.10831E-005	5.99601E-002	9.09657E-001	3.57930E+000	9	...........
	75	1.01333	9.14656E-001	1.00721E-004	0.00000E+000	9.21250E-005	5.99601E-002	9.15037E-001	3.57930E+000	9	...........
	76	1.02667	9.19938E-001	1.00393E-004	0.00000E+000	9.23550E-005	5.99601E-002	9.20308E-001	3.57930E+000	9	...........
	77	1.04	9.25166E-001	1.00593E-004	0.00000E+000	9.30650E-005	5.99601E-002	9.25507E-001	3.57930E+000	9	...........
	78	1.05333	9.30249E-001	9.96728E-005	0.00000E+000	9.27205E-005	5.99601E-002	9.30559E-001	3.57930E+000	9	...........
	79	1.06667	9.35228E-001	1.00578E-004	0.00000E+000	9.40636E-005	5.99601E-002	9.35573E-001	3.57930E+000	9	...........
	80	1.08	9.40129E-001	1.01158E-004	0.00000E+000	9.51020E-005	5.99601E-002	9.40473E-001	3.57930E+000	9	...........
	81	1.09333	9.44946E-001	1.00480E-004	0.00000E+000	9.49484E-005	5.99601E-002	9.45269E-001	3.57930E+000	9	...........
	82	1.10667	9.49687E-001	9.97332E-005	0.00000E+000	9.47154E-005	5.99601E-002	9.50020E-001	3.57930E+000	9	...........
	83	1.12	9.54305E-001	1.01124E-004	0.00000E+000	9.65033E-005	5.99601E-002	9.54630E-001	3.57930E+000	9	...........
	84	1.13333	9.58852E-001	1.01473E-004	0.00000E+000	9.72977E-005	5.99601E-002	9.59213E-001	3.57930E+000	9	...........
	85	1.14667	9.63291E-001	1.00486E-004	0.00000E+000	9.67978E-005	5.99601E-002	9.63658E-001	3.57930E+000	9	...........
	86	1.16	9.67670E-001	1.00894E-004	0.00000E+000	9.76320E-005	5.99601E-002	9.68031E-001	3.57930E+000	9	...........
	87	1.17333	9.71962E-001	1.00572E-004	0.00000E+000	9.77521E-005	5.99601E-002	9.72359E-001	3.57930E+000	9	...........
	88	1.18667	9.76185E-001	1.01096E-004	0.00000E+000	9.86884E-005	5.99601E-002	9.76569E-001	3.57930E+000	9	...........
	89	1.2	9.80314E-001	1.00420E-004	0.00000E+000	9.84429E-005	5.99601E-002	9.80689E-001	3.57930E+000	9	...........
	90	1.21333	9.84353E-001	1.01331E-004	0.00000E+000	9.97459E-005	5.99601E-002	9.84737E-001	3.57930E+000	9	...........
	91	1.22667	9.88299E-001	1.00739E-004	0.00000E+000	9.95599E-005	5.99601E-002	9.88692E-001	3.57930E+000	9	...........
	92	1.24	9.92178E-001	1.01207E-004	0.00000E+000	1.00416E-004	5.99601E-002	9.92584E-001	3.57930E+000	9	...........
	93	1.25333	9.95982E-001	1.00846E-004	0.00000E+000	1.00441E-004	5.99601E-002	9.96365E-001	3.57930E+000	9	...........
	94	1.26333	9.99239E-001	1.01702E-004	0.00000E+000	1.01625E-004	5.99601E-002	9.99631E-001	3.57930E+000	9	...........
STARTTIMEOFFSET	QUANT	651.7775	Start Time Offset (s)
