EXPLAIN
TAG	PWR800_CHARGE
TITLE	LABEL	PWR Cyclic Charge Discharge (Cell) - Charge Step	Test &Identifier
DATE	LABEL	13-7-2017	Date
TIME	LABEL	15:16:16	Time
NOTES	NOTES	2	&Notes...
	supercap test cell
	6M KOH
PSTAT	PSTAT	IFC5000-01520	Potentiostat
CAPACITY	QUANT	1.00000E-003	Capacity (A-hr)
CELLTYPE	SELECTOR	1	&Cell Type
WORKINGCONNECTION	SELECTOR	0	&Working Lead
MAXCHARGETIME	VARIABLEANDUNITS	1.00000E+002	s	1.00000E+002	second(s)	Max &Charge Time
CHARGECURRENT	QUANT	1.00000E-004	&Charge Current (A) 
VOLTAGEFINISH	TWOPARAM	F	1.00000E-003	3.60000E+003	&Voltage Finish	 I (A) < 	Max Time(s)
SAMPLETIME	QUANT	1.00000E-002	Sa&mple Period (s)
CHARGESTOPAT1	MULTIPARAM	4	1.00000E+000	Charge Stop At &1	Voltage > Limit	V
CHARGESTOPAT2	MULTIPARAM	0	0.00000E+000	Charge Stop At &2	None	N/A
AESBHCSELECTOR	TOGGLE	F	Save Both Half Cells
IRCOMP	TOGGLE	F	IR &Measure
EOC	QUANT	0	Open Circuit (V)
SEQUENCER	TOGGLE	TRUE	Run as Sequence
PSTATMODEL	IQUANT	53	Pstat Model
PSTATSECTION	LABEL	IFC5000-01520	Pstat Section
PSTATSERIALNO	LABEL	01520	Pstat Serial Number
CTRLMODE	IQUANT	0	Control Mode
ELECTROMETER	IQUANT	1	RE=0 or CS=1
IESTAB	IQUANT	0	I/E Stability
CASPEED	IQUANT	4	Control Amp Speed
CONVENTION	IQUANT	1	Current Convention
ICHRANGE	IQUANT	2	Ich Range
ICHRANGEMODE	TOGGLE	T	Ich Auto Range
ICHOFFSETENABLE	TOGGLE	F	Ich Offset Enable
ICHOFFSET	QUANT	0	Ich Offset (V)
ICHFILTER	IQUANT	1	Ich Filter
VCHRANGE	IQUANT	2	Vch Range
VCHRANGEMODE	TOGGLE	T	Vch Auto Range
VCHOFFSETENABLE	TOGGLE	F	Vch Offset Enable
VCHOFFSET	QUANT	0	Vch Offset (V)
VCHFILTER	IQUANT	1	Vch Filter
IERANGELOWERLIMIT	IQUANT	9	I/E Range Lower Limit
IERANGEMODE	TOGGLE	F	I/E AutoRange
IERANGE	IQUANT	9	I/E Range
ACHSELECT	IQUANT	1	Ach Select
ACHRANGE	IQUANT	2	Ach Range
ACHOFFSETENABLE	TOGGLE	F	Ach Offset Enable
ACHOFFSET	QUANT	0	Ach Offset (V)
ACHFILTER	IQUANT	1	Ach Filter
CABLEID	IQUANT	14	Cable ID
DCCALDATE	LABEL	5-7-2017	DC Calibration Date
ACCALDATE	LABEL	12/3/2015	AC Calibration Date
FRAMEWORKVERSION	QUANT	7.01	Framework Version
INSTRUMENTVERSION	LABEL	4.00	Instrument Version
CURVE	TABLE	95
	Pt	T	Vf	Im	Vu	Pwr	Sig	Ach	Temp	IERange	Over
	#	s	V	A	V	W	V	V	deg C	#	bits
	0	0.013333	1.34329E-001	1.00827E-004	0.00000E+000	1.35440E-005	5.99601E-002	1.34387E-001	3.58010E+000	9	...........
	1	0.026667	1.49544E-001	1.00242E-004	0.00000E+000	1.49906E-005	5.99601E-002	1.49567E-001	3.58010E+000	9	...........
	2	0.04	1.64323E-001	1.01041E-004	0.00000E+000	1.66033E-005	5.99601E-002	1.64348E-001	3.58010E+000	9	...........
	3	0.053333	1.78830E-001	1.00840E-004	0.00000E+000	1.80332E-005	5.99601E-002	1.78859E-001	3.58010E+000	9	...........
	4	0.066667	1.93146E-001	1.01036E-004	0.00000E+000	1.95146E-005	5.99601E-002	1.93179E-001	3.58010E+000	9	...........
	5	0.08	2.07316E-001	1.01275E-004	0.00000E+000	2.09960E-005	5.99601E-002	2.07357E-001	3.58010E+000	9	...........
	6	0.093333	2.21387E-001	1.00424E-004	0.00000E+000	2.22326E-005	5.99601E-002	2.21432E-001	3.58010E+000	9	...........
	7	0.106667	2.35390E-001	1.00421E-004	0.00000E+000	2.36381E-005	5.99601E-002	2.35430E-001	3.58010E+000	9	...........
	8	0.12	2.49331E-001	1.01230E-004	0.00000E+000	2.52399E-005	5.99601E-002	2.49380E-001	3.58010E+000	9	...........
	9	0.133333	2.63241E-001	1.01414E-004	0.00000E+000	2.66963E-005	5.99601E-002	2.63293E-001	3.58010E+000	9	...........
	10	0.146667	2.77131E-001	1.00977E-004	0.00000E+000	2.79839E-005	5.99601E-002	2.77186E-001	3.58010E+000	9	...........
	11	0.16	2.91014E-001	1.01595E-004	0.00000E+000	2.95656E-005	5.99601E-002	2.91076E-001	3.58010E+000	9	...........
	12	0.173333	3.04897E-001	1.01670E-004	0.00000E+000	3.09989E-005	5.99601E-002	3.04963E-001	3.58010E+000	9	...........
	13	0.186667	3.18785E-001	1.00982E-004	0.00000E+000	3.21917E-005	5.99601E-002	3.18848E-001	3.58010E+000	9	...........
	14	0.2	3.32677E-001	1.00454E-004	0.00000E+000	3.34188E-005	5.99601E-002	3.32740E-001	3.58010E+000	9	...........
	15	0.213333	3.46574E-001	1.01671E-004	0.00000E+000	3.52366E-005	5.99601E-002	3.46647E-001	3.58010E+000	9	...........
	16	0.226667	3.60478E-001	1.01020E-004	0.00000E+000	3.64155E-005	5.99601E-002	3.60548E-001	3.58010E+000	9	...........
	17	0.24	3.74371E-001	1.00925E-004	0.00000E+000	3.77835E-005	5.99601E-002	3.74447E-001	3.58010E+000	9	...........
	18	0.253333	3.88247E-001	1.00687E-004	0.00000E+000	3.90913E-005	5.99601E-002	3.88327E-001	3.58010E+000	9	...........
	19	0.266667	4.02092E-001	1.01062E-004	0.00000E+000	4.06361E-005	5.99601E-002	4.02174E-001	3.57997E+000	9	...........
	20	0.28	4.15890E-001	1.01297E-004	0.00000E+000	4.21285E-005	5.99601E-002	4.15971E-001	3.57960E+000	9	...........
	21	0.293333	4.29613E-001	1.00526E-004	0.00000E+000	4.31873E-005	5.99601E-002	4.29705E-001	3.57960E+000	9	...........
	22	0.306667	4.43256E-001	1.02043E-004	0.00000E+000	4.52312E-005	5.99601E-002	4.43349E-001	3.57960E+000	9	...........
	23	0.32	4.56791E-001	1.00471E-004	0.00000E+000	4.58942E-005	5.99601E-002	4.56885E-001	3.57960E+000	9	...........
	24	0.333333	4.70205E-001	1.00247E-004	0.00000E+000	4.71365E-005	5.99601E-002	4.70301E-001	3.57960E+000	9	...........
	25	0.346667	4.83463E-001	1.00345E-004	0.00000E+000	4.85130E-005	5.99601E-002	4.83563E-001	3.57960E+000	9	...........
	26	0.36	4.96563E-001	1.00956E-004	0.00000E+000	5.01312E-005	5.99601E-002	4.96665E-001	3.57960E+000	9	...........
	27	0.373333	5.09482E-001	1.00897E-004	0.00000E+000	5.14052E-005	5.99601E-002	5.09596E-001	3.57960E+000	9	...........
	28	0.386667	5.22215E-001	1.00162E-004	0.00000E+000	5.23063E-005	5.99601E-002	5.22327E-001	3.57960E+000	9	...........
	29	0.4	5.34564E-001	1.00867E-004	0.00000E+000	5.39197E-005	5.99601E-002	5.34742E-001	3.57960E+000	9	...........
	30	0.413333	5.46702E-001	1.00062E-004	0.00000E+000	5.47044E-005	5.99601E-002	5.46970E-001	3.57960E+000	9	...........
	31	0.426667	5.58798E-001	1.00433E-004	0.00000E+000	5.61220E-005	5.99601E-002	5.59076E-001	3.57960E+000	9	...........
	32	0.44	5.70697E-001	1.00600E-004	0.00000E+000	5.74122E-005	5.99601E-002	5.70958E-001	3.57960E+000	9	...........
	33	0.453333	5.82313E-001	1.01235E-004	0.00000E+000	5.89502E-005	5.99601E-002	5.82625E-001	3.57960E+000	9	...........
	34	0.466667	5.93783E-001	1.00376E-004	0.00000E+000	5.96016E-005	5.99601E-002	5.94063E-001	3.57960E+000	9	...........
	35	0.48	6.04971E-001	1.00359E-004	0.00000E+000	6.07145E-005	5.99601E-002	6.05286E-001	3.57960E+000	9	...........
	36	0.493333	6.16035E-001	1.01464E-004	0.00000E+000	6.25053E-005	5.99601E-002	6.16284E-001	3.57960E+000	9	...........
	37	0.506667	6.26788E-001	1.00880E-004	0.00000E+000	6.32306E-005	5.99601E-002	6.27046E-001	3.57960E+000	9	...........
	38	0.52	6.37324E-001	1.01228E-004	0.00000E+000	6.45153E-005	5.99601E-002	6.37614E-001	3.57960E+000	9	...........
	39	0.533333	6.47693E-001	1.01426E-004	0.00000E+000	6.56931E-005	5.99601E-002	6.47976E-001	3.57960E+000	9	...........
	40	0.546667	6.57846E-001	1.00505E-004	0.00000E+000	6.61169E-005	5.99601E-002	6.58121E-001	3.57960E+000	9	...........
	41	0.56	6.67808E-001	1.00573E-004	0.00000E+000	6.71635E-005	5.99601E-002	6.68087E-001	3.57960E+000	9	...........
	42	0.573333	6.77548E-001	1.00496E-004	0.00000E+000	6.80908E-005	5.99601E-002	6.77839E-001	3.57960E+000	9	...........
	43	0.586667	6.87085E-001	1.00500E-004	0.00000E+000	6.90521E-005	5.99601E-002	6.87392E-001	3.57960E+000	9	...........
	44	0.6	6.96444E-001	1.01114E-004	0.00000E+000	7.04200E-005	5.99601E-002	6.96743E-001	3.57960E+000	9	...........
	45	0.613333	7.05638E-001	1.00702E-004	0.00000E+000	7.10593E-005	5.99601E-002	7.05890E-001	3.57960E+000	9	...........
	46	0.626667	7.14619E-001	1.00646E-004	0.00000E+000	7.19235E-005	5.99601E-002	7.14895E-001	3.57960E+000	9	...........
	47	0.64	7.23464E-001	1.01637E-004	0.00000E+000	7.35305E-005	5.99601E-002	7.23723E-001	3.57960E+000	9	...........
	48	0.653333	7.32086E-001	1.00951E-004	0.00000E+000	7.39049E-005	5.99601E-002	7.32370E-001	3.57960E+000	9	...........
	49	0.666667	7.40594E-001	1.00918E-004	0.00000E+000	7.47391E-005	5.99601E-002	7.40863E-001	3.57960E+000	9	...........
	50	0.68	7.48931E-001	1.00867E-004	0.00000E+000	7.55422E-005	5.99601E-002	7.49189E-001	3.57960E+000	9	...........
	51	0.693333	7.57079E-001	1.00524E-004	0.00000E+000	7.61046E-005	5.99601E-002	7.57367E-001	3.57960E+000	9	...........
	52	0.706667	7.65119E-001	1.00638E-004	0.00000E+000	7.69997E-005	5.99601E-002	7.65376E-001	3.57960E+000	9	...........
	53	0.72	7.72993E-001	1.01502E-004	0.00000E+000	7.84606E-005	5.99601E-002	7.73242E-001	3.57960E+000	9	...........
	54	0.733333	7.80724E-001	1.00708E-004	0.00000E+000	7.86254E-005	5.99601E-002	7.80979E-001	3.57960E+000	9	...........
	55	0.746667	7.88282E-001	1.00513E-004	0.00000E+000	7.92322E-005	5.99601E-002	7.88549E-001	3.57960E+000	9	...........
	56	0.76	7.95761E-001	1.01262E-004	0.00000E+000	8.05800E-005	5.99601E-002	7.96035E-001	3.57960E+000	9	...........
	57	0.773333	8.03056E-001	1.02440E-004	0.00000E+000	8.22650E-005	5.99601E-002	8.03321E-001	3.57960E+000	9	...........
	58	0.786667	8.10232E-001	1.01691E-004	0.00000E+000	8.23932E-005	5.99601E-002	8.10531E-001	3.57960E+000	9	...........
	59	0.8	8.17280E-001	1.01838E-004	0.00000E+000	8.32300E-005	5.99601E-002	8.17590E-001	3.57960E+000	9	...........
	60	0.813333	8.24215E-001	1.01172E-004	0.00000E+000	8.33875E-005	5.99601E-002	8.24540E-001	3.57960E+000	9	...........
	61	0.826667	8.31027E-001	1.00710E-004	0.00000E+000	8.36932E-005	5.99601E-002	8.31330E-001	3.57960E+000	9	...........
	62	0.84	8.37697E-001	1.00856E-004	0.00000E+000	8.44871E-005	5.99601E-002	8.38038E-001	3.57960E+000	9	...........
	63	0.853333	8.44292E-001	1.01473E-004	0.00000E+000	8.56730E-005	5.99601E-002	8.44631E-001	3.57960E+000	9	...........
	64	0.866667	8.50752E-001	1.00433E-004	0.00000E+000	8.54439E-005	5.99601E-002	8.51107E-001	3.57960E+000	9	...........
	65	0.88	8.57091E-001	1.00779E-004	0.00000E+000	8.63770E-005	5.99601E-002	8.57459E-001	3.57960E+000	9	...........
	66	0.893333	8.63334E-001	1.01037E-004	0.00000E+000	8.72284E-005	5.99601E-002	8.63731E-001	3.57960E+000	9	...........
	67	0.906667	8.69502E-001	1.00874E-004	0.00000E+000	8.77102E-005	5.99601E-002	8.69887E-001	3.57960E+000	9	...........
	68	0.92	8.75536E-001	1.00330E-004	0.00000E+000	8.78427E-005	5.99601E-002	8.75934E-001	3.57960E+000	9	...........
	69	0.933333	8.81465E-001	1.00728E-004	0.00000E+000	8.87884E-005	5.99601E-002	8.81839E-001	3.57960E+000	9	...........
	70	0.946667	8.87311E-001	1.01265E-004	0.00000E+000	8.98533E-005	5.99601E-002	8.87672E-001	3.57960E+000	9	...........
	71	0.96	8.93024E-001	1.01343E-004	0.00000E+000	9.05017E-005	5.99601E-002	8.93397E-001	3.57960E+000	9	...........
	72	0.97333	8.98671E-001	1.00421E-004	0.00000E+000	9.02453E-005	5.99601E-002	8.99055E-001	3.57960E+000	9	...........
	73	0.98667	9.04193E-001	1.00395E-004	0.00000E+000	9.07763E-005	5.99601E-002	9.04573E-001	3.57960E+000	9	...........
	74	1	9.09645E-001	1.01900E-004	0.00000E+000	9.26931E-005	5.99601E-002	9.10029E-001	3.57960E+000	9	...........
	75	1.01333	9.14981E-001	1.00798E-004	0.00000E+000	9.22282E-005	5.99601E-002	9.15367E-001	3.57960E+000	9	...........
	76	1.02667	9.20249E-001	1.00995E-004	0.00000E+000	9.29405E-005	5.99601E-002	9.20623E-001	3.57960E+000	9	...........
	77	1.04	9.25441E-001	1.00445E-004	0.00000E+000	9.29557E-005	5.99601E-002	9.25788E-001	3.57960E+000	9	...........
	78	1.05333	9.30515E-001	1.01754E-004	0.00000E+000	9.46841E-005	5.99601E-002	9.30853E-001	3.57960E+000	9	...........
	79	1.06667	9.35465E-001	1.00266E-004	0.00000E+000	9.37949E-005	5.99601E-002	9.35850E-001	3.57960E+000	9	...........
	80	1.08	9.40340E-001	1.00895E-004	0.00000E+000	9.48755E-005	5.99601E-002	9.40720E-001	3.57960E+000	9	...........
	81	1.09333	9.45132E-001	1.01551E-004	0.00000E+000	9.59794E-005	5.99601E-002	9.45523E-001	3.57960E+000	9	...........
	82	1.10667	9.49885E-001	1.00499E-004	0.00000E+000	9.54625E-005	5.99601E-002	9.50254E-001	3.57960E+000	9	...........
	83	1.12	9.54495E-001	1.01309E-004	0.00000E+000	9.66985E-005	5.99601E-002	9.54858E-001	3.57960E+000	9	...........
	84	1.13333	9.59016E-001	1.00902E-004	0.00000E+000	9.67668E-005	5.99601E-002	9.59379E-001	3.57960E+000	9	...........
	85	1.14667	9.63444E-001	1.00880E-004	0.00000E+000	9.71925E-005	5.99601E-002	9.63865E-001	3.57960E+000	9	...........
	86	1.16	9.67804E-001	1.01216E-004	0.00000E+000	9.79571E-005	5.99601E-002	9.68189E-001	3.57960E+000	9	...........
	87	1.17333	9.72106E-001	1.00348E-004	0.00000E+000	9.75488E-005	5.99601E-002	9.72506E-001	3.57960E+000	9	...........
	88	1.18667	9.76317E-001	1.00267E-004	0.00000E+000	9.78921E-005	5.99601E-002	9.76711E-001	3.57960E+000	9	...........
	89	1.2	9.80429E-001	1.01505E-004	0.00000E+000	9.95189E-005	5.99601E-002	9.80798E-001	3.57960E+000	9	...........
	90	1.21333	9.84428E-001	1.00670E-004	0.00000E+000	9.91022E-005	5.99601E-002	9.84834E-001	3.57960E+000	9	...........
	91	1.22667	9.88374E-001	1.01450E-004	0.00000E+000	1.00271E-004	5.99601E-002	9.88780E-001	3.57960E+000	9	...........
	92	1.24	9.92234E-001	1.00545E-004	0.00000E+000	9.97640E-005	5.99601E-002	9.92627E-001	3.57960E+000	9	...........
	93	1.25333	9.96008E-001	1.01003E-004	0.00000E+000	1.00600E-004	5.99601E-002	9.96419E-001	3.57960E+000	9	...........
	94	1.26333	9.99281E-001	1.00212E-004	0.00000E+000	1.00140E-004	5.99601E-002	9.99659E-001	3.57960E+000	9	...........
STARTTIMEOFFSET	QUANT	644.3992	Start Time Offset (s)
