EXPLAIN
TAG	PWR800_CHARGE
TITLE	LABEL	PWR Cyclic Charge Discharge (Cell) - Charge Step	Test &Identifier
DATE	LABEL	13-7-2017	Date
TIME	LABEL	15:28:40	Time
NOTES	NOTES	2	&Notes...
	supercap test cell
	6M KOH
PSTAT	PSTAT	IFC5000-01520	Potentiostat
CAPACITY	QUANT	1.00000E-003	Capacity (A-hr)
CELLTYPE	SELECTOR	1	&Cell Type
WORKINGCONNECTION	SELECTOR	0	&Working Lead
MAXCHARGETIME	VARIABLEANDUNITS	1.00000E+002	s	1.00000E+002	second(s)	Max &Charge Time
CHARGECURRENT	QUANT	1.00000E-004	&Charge Current (A) 
VOLTAGEFINISH	TWOPARAM	F	1.00000E-003	3.60000E+003	&Voltage Finish	 I (A) < 	Max Time(s)
SAMPLETIME	QUANT	1.00000E-002	Sa&mple Period (s)
CHARGESTOPAT1	MULTIPARAM	4	1.00000E+000	Charge Stop At &1	Voltage > Limit	V
CHARGESTOPAT2	MULTIPARAM	0	0.00000E+000	Charge Stop At &2	None	N/A
AESBHCSELECTOR	TOGGLE	F	Save Both Half Cells
IRCOMP	TOGGLE	F	IR &Measure
EOC	QUANT	0	Open Circuit (V)
SEQUENCER	TOGGLE	TRUE	Run as Sequence
PSTATMODEL	IQUANT	53	Pstat Model
PSTATSECTION	LABEL	IFC5000-01520	Pstat Section
PSTATSERIALNO	LABEL	01520	Pstat Serial Number
CTRLMODE	IQUANT	0	Control Mode
ELECTROMETER	IQUANT	1	RE=0 or CS=1
IESTAB	IQUANT	0	I/E Stability
CASPEED	IQUANT	4	Control Amp Speed
CONVENTION	IQUANT	1	Current Convention
ICHRANGE	IQUANT	2	Ich Range
ICHRANGEMODE	TOGGLE	T	Ich Auto Range
ICHOFFSETENABLE	TOGGLE	F	Ich Offset Enable
ICHOFFSET	QUANT	0	Ich Offset (V)
ICHFILTER	IQUANT	1	Ich Filter
VCHRANGE	IQUANT	2	Vch Range
VCHRANGEMODE	TOGGLE	T	Vch Auto Range
VCHOFFSETENABLE	TOGGLE	F	Vch Offset Enable
VCHOFFSET	QUANT	0	Vch Offset (V)
VCHFILTER	IQUANT	1	Vch Filter
IERANGELOWERLIMIT	IQUANT	9	I/E Range Lower Limit
IERANGEMODE	TOGGLE	F	I/E AutoRange
IERANGE	IQUANT	9	I/E Range
ACHSELECT	IQUANT	1	Ach Select
ACHRANGE	IQUANT	2	Ach Range
ACHOFFSETENABLE	TOGGLE	F	Ach Offset Enable
ACHOFFSET	QUANT	0	Ach Offset (V)
ACHFILTER	IQUANT	1	Ach Filter
CABLEID	IQUANT	14	Cable ID
DCCALDATE	LABEL	5-7-2017	DC Calibration Date
ACCALDATE	LABEL	12/3/2015	AC Calibration Date
FRAMEWORKVERSION	QUANT	7.01	Framework Version
INSTRUMENTVERSION	LABEL	4.00	Instrument Version
CURVE	TABLE	92
	Pt	T	Vf	Im	Vu	Pwr	Sig	Ach	Temp	IERange	Over
	#	s	V	A	V	W	V	V	deg C	#	bits
	0	0.013333	1.34035E-001	1.00986E-004	0.00000E+000	1.35356E-005	5.99601E-002	1.34092E-001	3.57900E+000	9	...........
	1	0.026667	1.49304E-001	1.01458E-004	0.00000E+000	1.51480E-005	5.99601E-002	1.49332E-001	3.57900E+000	9	...........
	2	0.04	1.64130E-001	1.00435E-004	0.00000E+000	1.64845E-005	5.99601E-002	1.64161E-001	3.57900E+000	9	...........
	3	0.053333	1.78690E-001	1.01153E-004	0.00000E+000	1.80751E-005	5.99601E-002	1.78724E-001	3.57900E+000	9	...........
	4	0.066667	1.93060E-001	1.00315E-004	0.00000E+000	1.93668E-005	5.99601E-002	1.93097E-001	3.57900E+000	9	...........
	5	0.08	2.07292E-001	1.00133E-004	0.00000E+000	2.07568E-005	5.99601E-002	2.07324E-001	3.57900E+000	9	...........
	6	0.093333	2.21412E-001	1.00988E-004	0.00000E+000	2.23598E-005	5.99601E-002	2.21455E-001	3.57900E+000	9	...........
	7	0.106667	2.35471E-001	1.00542E-004	0.00000E+000	2.36746E-005	5.99601E-002	2.35517E-001	3.57900E+000	9	...........
	8	0.12	2.49481E-001	1.01794E-004	0.00000E+000	2.53956E-005	5.99601E-002	2.49529E-001	3.57900E+000	9	...........
	9	0.133333	2.63461E-001	1.00393E-004	0.00000E+000	2.64495E-005	5.99601E-002	2.63508E-001	3.57900E+000	9	...........
	10	0.146667	2.77425E-001	1.00459E-004	0.00000E+000	2.78699E-005	5.99601E-002	2.77483E-001	3.57900E+000	9	...........
	11	0.16	2.91388E-001	1.01037E-004	0.00000E+000	2.94408E-005	5.99601E-002	2.91437E-001	3.57900E+000	9	...........
	12	0.173333	3.05360E-001	1.00524E-004	0.00000E+000	3.06961E-005	5.99601E-002	3.05418E-001	3.57900E+000	9	...........
	13	0.186667	3.19350E-001	1.00666E-004	0.00000E+000	3.21476E-005	5.99601E-002	3.19408E-001	3.57900E+000	9	...........
	14	0.2	3.33354E-001	1.00429E-004	0.00000E+000	3.34785E-005	5.99601E-002	3.33420E-001	3.57900E+000	9	...........
	15	0.213333	3.47376E-001	1.00443E-004	0.00000E+000	3.48914E-005	5.99601E-002	3.47440E-001	3.57900E+000	9	...........
	16	0.226667	3.61408E-001	1.00306E-004	0.00000E+000	3.62514E-005	5.99601E-002	3.61478E-001	3.57900E+000	9	...........
	17	0.24	3.75454E-001	1.01088E-004	0.00000E+000	3.79538E-005	5.99601E-002	3.75525E-001	3.57900E+000	9	...........
	18	0.253333	3.89494E-001	1.01510E-004	0.00000E+000	3.95374E-005	5.99601E-002	3.89565E-001	3.57900E+000	9	...........
	19	0.266667	4.03512E-001	1.01117E-004	0.00000E+000	4.08019E-005	5.99601E-002	4.03589E-001	3.57900E+000	9	...........
	20	0.28	4.17488E-001	1.00958E-004	0.00000E+000	4.21489E-005	5.99601E-002	4.17576E-001	3.57900E+000	9	...........
	21	0.293333	4.31425E-001	1.01613E-004	0.00000E+000	4.38382E-005	5.99601E-002	4.31508E-001	3.57900E+000	9	...........
	22	0.306667	4.45277E-001	1.00872E-004	0.00000E+000	4.49160E-005	5.99601E-002	4.45368E-001	3.57900E+000	9	...........
	23	0.32	4.59048E-001	1.01015E-004	0.00000E+000	4.63706E-005	5.99601E-002	4.59134E-001	3.57900E+000	9	...........
	24	0.333333	4.72690E-001	1.01535E-004	0.00000E+000	4.79944E-005	5.99601E-002	4.72784E-001	3.57900E+000	9	...........
	25	0.346667	4.86203E-001	1.01423E-004	0.00000E+000	4.93123E-005	5.99601E-002	4.86300E-001	3.57900E+000	9	...........
	26	0.36	4.99549E-001	1.02006E-004	0.00000E+000	5.09567E-005	5.99601E-002	4.99656E-001	3.57900E+000	9	...........
	27	0.373333	5.12731E-001	1.01726E-004	0.00000E+000	5.21582E-005	5.99601E-002	5.12837E-001	3.57900E+000	9	...........
	28	0.386667	5.25719E-001	1.00705E-004	0.00000E+000	5.29427E-005	5.99601E-002	5.25833E-001	3.57900E+000	9	...........
	29	0.4	5.38249E-001	1.01640E-004	0.00000E+000	5.47076E-005	5.99601E-002	5.38422E-001	3.57900E+000	9	...........
	30	0.413333	5.50724E-001	1.01363E-004	0.00000E+000	5.58228E-005	5.99601E-002	5.50985E-001	3.57900E+000	9	...........
	31	0.426667	5.63087E-001	1.01051E-004	0.00000E+000	5.69006E-005	5.99601E-002	5.63365E-001	3.57900E+000	9	...........
	32	0.44	5.75215E-001	1.01566E-004	0.00000E+000	5.84222E-005	5.99601E-002	5.75483E-001	3.57900E+000	9	...........
	33	0.453333	5.87132E-001	1.00852E-004	0.00000E+000	5.92136E-005	5.99601E-002	5.87371E-001	3.57900E+000	9	...........
	34	0.466667	5.98814E-001	1.01328E-004	0.00000E+000	6.06768E-005	5.99601E-002	5.99057E-001	3.57900E+000	9	...........
	35	0.48	6.10248E-001	1.00447E-004	0.00000E+000	6.12975E-005	5.99601E-002	6.10502E-001	3.57900E+000	9	...........
	36	0.493333	6.21534E-001	1.00304E-004	0.00000E+000	6.23424E-005	5.99601E-002	6.21756E-001	3.57900E+000	9	...........
	37	0.506667	6.32510E-001	1.00780E-004	0.00000E+000	6.37446E-005	5.99601E-002	6.32749E-001	3.57900E+000	9	...........
	38	0.52	6.43300E-001	1.00723E-004	0.00000E+000	6.47951E-005	5.99601E-002	6.43569E-001	3.57900E+000	9	...........
	39	0.533333	6.53883E-001	1.00951E-004	0.00000E+000	6.60103E-005	5.99601E-002	6.54152E-001	3.57900E+000	9	...........
	40	0.546667	6.64237E-001	1.01185E-004	0.00000E+000	6.72105E-005	5.99601E-002	6.64503E-001	3.57900E+000	9	...........
	41	0.56	6.74388E-001	1.01516E-004	0.00000E+000	6.84611E-005	5.99601E-002	6.74658E-001	3.57900E+000	9	...........
	42	0.573333	6.84287E-001	1.00071E-004	0.00000E+000	6.84771E-005	5.99601E-002	6.84592E-001	3.57900E+000	9	...........
	43	0.586667	6.94059E-001	1.00788E-004	0.00000E+000	6.99526E-005	5.99601E-002	6.94353E-001	3.57900E+000	9	...........
	44	0.6	7.03601E-001	1.01041E-004	0.00000E+000	7.10924E-005	5.99601E-002	7.03895E-001	3.57900E+000	9	...........
	45	0.613333	7.12976E-001	1.00985E-004	0.00000E+000	7.19996E-005	5.99601E-002	7.13266E-001	3.57900E+000	9	...........
	46	0.626667	7.22181E-001	1.01297E-004	0.00000E+000	7.31548E-005	5.99601E-002	7.22446E-001	3.57900E+000	9	...........
	47	0.64	7.31170E-001	1.00621E-004	0.00000E+000	7.35710E-005	5.99601E-002	7.31464E-001	3.57900E+000	9	...........
	48	0.653333	7.40007E-001	1.00687E-004	0.00000E+000	7.45088E-005	5.99601E-002	7.40305E-001	3.57900E+000	9	...........
	49	0.666667	7.48676E-001	1.00897E-004	0.00000E+000	7.55391E-005	5.99601E-002	7.48970E-001	3.57900E+000	9	...........
	50	0.68	7.57173E-001	1.01518E-004	0.00000E+000	7.68666E-005	5.99601E-002	7.57449E-001	3.57900E+000	9	...........
	51	0.693333	7.65501E-001	1.00007E-004	0.00000E+000	7.65556E-005	5.99601E-002	7.65782E-001	3.57900E+000	9	...........
	52	0.706667	7.73662E-001	1.00743E-004	0.00000E+000	7.79409E-005	5.99601E-002	7.73969E-001	3.57900E+000	9	...........
	53	0.72	7.81674E-001	1.00509E-004	0.00000E+000	7.85656E-005	5.99601E-002	7.81985E-001	3.57900E+000	9	...........
	54	0.733333	7.89537E-001	1.00081E-004	0.00000E+000	7.90178E-005	5.99601E-002	7.89831E-001	3.57900E+000	9	...........
	55	0.746667	7.97276E-001	1.01118E-004	0.00000E+000	8.06189E-005	5.99601E-002	7.97567E-001	3.57900E+000	9	...........
	56	0.76	8.04824E-001	1.01128E-004	0.00000E+000	8.13905E-005	5.99601E-002	8.05138E-001	3.57900E+000	9	...........
	57	0.773333	8.12267E-001	1.00738E-004	0.00000E+000	8.18258E-005	5.99601E-002	8.12577E-001	3.57900E+000	9	...........
	58	0.786667	8.19581E-001	1.00968E-004	0.00000E+000	8.27513E-005	5.99601E-002	8.19883E-001	3.57911E+000	9	...........
	59	0.8	8.26751E-001	1.00842E-004	0.00000E+000	8.33710E-005	5.99601E-002	8.27072E-001	3.57990E+000	9	...........
	60	0.813333	8.33785E-001	1.01498E-004	0.00000E+000	8.46276E-005	5.99601E-002	8.34118E-001	3.57990E+000	9	...........
	61	0.826667	8.40686E-001	1.01107E-004	0.00000E+000	8.49996E-005	5.99601E-002	8.41020E-001	3.57990E+000	9	...........
	62	0.84	8.47525E-001	1.01005E-004	0.00000E+000	8.56045E-005	5.99601E-002	8.47857E-001	3.57990E+000	9	...........
	63	0.853333	8.54202E-001	1.00626E-004	0.00000E+000	8.59550E-005	5.99601E-002	8.54536E-001	3.57990E+000	9	...........
	64	0.866667	8.60778E-001	1.00101E-004	0.00000E+000	8.61648E-005	5.99601E-002	8.61109E-001	3.57990E+000	9	...........
	65	0.88	8.67222E-001	1.01167E-004	0.00000E+000	8.77341E-005	5.99601E-002	8.67557E-001	3.57990E+000	9	...........
	66	0.893333	8.73566E-001	1.00559E-004	0.00000E+000	8.78452E-005	5.99601E-002	8.73918E-001	3.57990E+000	9	...........
	67	0.906667	8.79790E-001	1.01376E-004	0.00000E+000	8.91899E-005	5.99601E-002	8.80126E-001	3.57990E+000	9	...........
	68	0.92	8.85910E-001	1.01085E-004	0.00000E+000	8.95518E-005	5.99601E-002	8.86241E-001	3.57990E+000	9	...........
	69	0.933333	8.91897E-001	1.00067E-004	0.00000E+000	8.92491E-005	5.99601E-002	8.92229E-001	3.57990E+000	9	...........
	70	0.946667	8.97797E-001	1.00463E-004	0.00000E+000	9.01950E-005	5.99601E-002	8.98152E-001	3.57990E+000	9	...........
	71	0.96	9.03614E-001	1.01123E-004	0.00000E+000	9.13762E-005	5.99601E-002	9.03967E-001	3.57990E+000	9	...........
	72	0.97333	9.09281E-001	1.01076E-004	0.00000E+000	9.19067E-005	5.99601E-002	9.09644E-001	3.57990E+000	9	...........
	73	0.98667	9.14866E-001	1.00450E-004	0.00000E+000	9.18983E-005	5.99601E-002	9.15233E-001	3.57990E+000	9	...........
	74	1	9.20395E-001	1.00904E-004	0.00000E+000	9.28718E-005	5.99601E-002	9.20739E-001	3.57990E+000	9	...........
	75	1.01333	9.25814E-001	1.01243E-004	0.00000E+000	9.37321E-005	5.99601E-002	9.26145E-001	3.57990E+000	9	...........
	76	1.02667	9.31096E-001	1.01135E-004	0.00000E+000	9.41659E-005	5.99601E-002	9.31427E-001	3.57990E+000	9	...........
	77	1.04	9.36290E-001	1.00530E-004	0.00000E+000	9.41255E-005	5.99601E-002	9.36643E-001	3.57990E+000	9	...........
	78	1.05333	9.41379E-001	1.00668E-004	0.00000E+000	9.47666E-005	5.99601E-002	9.41720E-001	3.57990E+000	9	...........
	79	1.06667	9.46399E-001	1.01275E-004	0.00000E+000	9.58467E-005	5.99601E-002	9.46753E-001	3.57990E+000	9	...........
	80	1.08	9.51295E-001	1.01553E-004	0.00000E+000	9.66073E-005	5.99601E-002	9.51651E-001	3.57990E+000	9	...........
	81	1.09333	9.56104E-001	1.00560E-004	0.00000E+000	9.61462E-005	5.99601E-002	9.56439E-001	3.57990E+000	9	...........
	82	1.10667	9.60814E-001	1.00685E-004	0.00000E+000	9.67400E-005	5.99601E-002	9.61176E-001	3.57990E+000	9	...........
	83	1.12	9.65418E-001	1.01351E-004	0.00000E+000	9.78463E-005	5.99601E-002	9.65791E-001	3.57990E+000	9	...........
	84	1.13333	9.69935E-001	1.01324E-004	0.00000E+000	9.82778E-005	5.99601E-002	9.70320E-001	3.57990E+000	9	...........
	85	1.14667	9.74432E-001	1.01255E-004	0.00000E+000	9.86665E-005	5.99601E-002	9.74813E-001	3.57990E+000	9	...........
	86	1.16	9.78772E-001	1.00929E-004	0.00000E+000	9.87868E-005	5.99601E-002	9.79146E-001	3.57990E+000	9	...........
	87	1.17333	9.83038E-001	9.99364E-005	0.00000E+000	9.82413E-005	5.99601E-002	9.83430E-001	3.57990E+000	9	...........
	88	1.18667	9.87209E-001	1.01304E-004	0.00000E+000	1.00009E-004	5.99601E-002	9.87595E-001	3.57990E+000	9	...........
	89	1.2	9.91309E-001	1.00642E-004	0.00000E+000	9.97671E-005	5.99601E-002	9.91681E-001	3.57990E+000	9	...........
	90	1.21333	9.95292E-001	1.00581E-004	0.00000E+000	1.00108E-004	5.99601E-002	9.95679E-001	3.57990E+000	9	...........
	91	1.225	9.98991E-001	1.01635E-004	0.00000E+000	1.01533E-004	5.99601E-002	9.99395E-001	3.57990E+000	9	...........
STARTTIMEOFFSET	QUANT	1206.358	Start Time Offset (s)
