EXPLAIN
TAG	PWR800_CHARGE
TITLE	LABEL	PWR Cyclic Charge Discharge (Cell) - Charge Step	Test &Identifier
DATE	LABEL	13-7-2017	Date
TIME	LABEL	15:14:46	Time
NOTES	NOTES	2	&Notes...
	supercap test cell
	6M KOH
PSTAT	PSTAT	IFC5000-01520	Potentiostat
CAPACITY	QUANT	1.00000E-003	Capacity (A-hr)
CELLTYPE	SELECTOR	1	&Cell Type
WORKINGCONNECTION	SELECTOR	0	&Working Lead
MAXCHARGETIME	VARIABLEANDUNITS	1.00000E+002	s	1.00000E+002	second(s)	Max &Charge Time
CHARGECURRENT	QUANT	1.00000E-004	&Charge Current (A) 
VOLTAGEFINISH	TWOPARAM	F	1.00000E-003	3.60000E+003	&Voltage Finish	 I (A) < 	Max Time(s)
SAMPLETIME	QUANT	1.00000E-002	Sa&mple Period (s)
CHARGESTOPAT1	MULTIPARAM	4	1.00000E+000	Charge Stop At &1	Voltage > Limit	V
CHARGESTOPAT2	MULTIPARAM	0	0.00000E+000	Charge Stop At &2	None	N/A
AESBHCSELECTOR	TOGGLE	F	Save Both Half Cells
IRCOMP	TOGGLE	F	IR &Measure
EOC	QUANT	0	Open Circuit (V)
SEQUENCER	TOGGLE	TRUE	Run as Sequence
PSTATMODEL	IQUANT	53	Pstat Model
PSTATSECTION	LABEL	IFC5000-01520	Pstat Section
PSTATSERIALNO	LABEL	01520	Pstat Serial Number
CTRLMODE	IQUANT	0	Control Mode
ELECTROMETER	IQUANT	1	RE=0 or CS=1
IESTAB	IQUANT	0	I/E Stability
CASPEED	IQUANT	4	Control Amp Speed
CONVENTION	IQUANT	1	Current Convention
ICHRANGE	IQUANT	2	Ich Range
ICHRANGEMODE	TOGGLE	T	Ich Auto Range
ICHOFFSETENABLE	TOGGLE	F	Ich Offset Enable
ICHOFFSET	QUANT	0	Ich Offset (V)
ICHFILTER	IQUANT	1	Ich Filter
VCHRANGE	IQUANT	2	Vch Range
VCHRANGEMODE	TOGGLE	T	Vch Auto Range
VCHOFFSETENABLE	TOGGLE	F	Vch Offset Enable
VCHOFFSET	QUANT	0	Vch Offset (V)
VCHFILTER	IQUANT	1	Vch Filter
IERANGELOWERLIMIT	IQUANT	9	I/E Range Lower Limit
IERANGEMODE	TOGGLE	F	I/E AutoRange
IERANGE	IQUANT	9	I/E Range
ACHSELECT	IQUANT	1	Ach Select
ACHRANGE	IQUANT	2	Ach Range
ACHOFFSETENABLE	TOGGLE	F	Ach Offset Enable
ACHOFFSET	QUANT	0	Ach Offset (V)
ACHFILTER	IQUANT	1	Ach Filter
CABLEID	IQUANT	14	Cable ID
DCCALDATE	LABEL	5-7-2017	DC Calibration Date
ACCALDATE	LABEL	12/3/2015	AC Calibration Date
FRAMEWORKVERSION	QUANT	7.01	Framework Version
INSTRUMENTVERSION	LABEL	4.00	Instrument Version
CURVE	TABLE	95
	Pt	T	Vf	Im	Vu	Pwr	Sig	Ach	Temp	IERange	Over
	#	s	V	A	V	W	V	V	deg C	#	bits
	0	0.013333	1.39626E-001	1.00325E-004	0.00000E+000	1.40080E-005	5.99601E-002	1.39671E-001	3.58010E+000	9	...........
	1	0.026667	1.54851E-001	1.01076E-004	0.00000E+000	1.56518E-005	5.99601E-002	1.54874E-001	3.58010E+000	9	...........
	2	0.04	1.69633E-001	1.01620E-004	0.00000E+000	1.72381E-005	5.99601E-002	1.69664E-001	3.58010E+000	9	...........
	3	0.053333	1.84158E-001	1.00684E-004	0.00000E+000	1.85418E-005	5.99601E-002	1.84186E-001	3.58010E+000	9	...........
	4	0.066667	1.98488E-001	1.01067E-004	0.00000E+000	2.00605E-005	5.99601E-002	1.98526E-001	3.58010E+000	9	...........
	5	0.08	2.12679E-001	1.00368E-004	0.00000E+000	2.13461E-005	5.99601E-002	2.12717E-001	3.58010E+000	9	...........
	6	0.093333	2.26768E-001	1.01769E-004	0.00000E+000	2.30779E-005	5.99601E-002	2.26809E-001	3.58010E+000	9	...........
	7	0.106667	2.40773E-001	1.00494E-004	0.00000E+000	2.41962E-005	5.99601E-002	2.40816E-001	3.58010E+000	9	...........
	8	0.12	2.54731E-001	1.00761E-004	0.00000E+000	2.56668E-005	5.99601E-002	2.54781E-001	3.58010E+000	9	...........
	9	0.133333	2.68658E-001	1.00587E-004	0.00000E+000	2.70233E-005	5.99601E-002	2.68708E-001	3.58010E+000	9	...........
	10	0.146667	2.82561E-001	1.01089E-004	0.00000E+000	2.85637E-005	5.99601E-002	2.82618E-001	3.58010E+000	9	...........
	11	0.16	2.96450E-001	1.01460E-004	0.00000E+000	3.00777E-005	5.99601E-002	2.96513E-001	3.58010E+000	9	...........
	12	0.173333	3.10341E-001	1.00930E-004	0.00000E+000	3.13228E-005	5.99601E-002	3.10401E-001	3.58010E+000	9	...........
	13	0.186667	3.24230E-001	1.00649E-004	0.00000E+000	3.26335E-005	5.99601E-002	3.24296E-001	3.57976E+000	9	...........
	14	0.2	3.38116E-001	1.01440E-004	0.00000E+000	3.42984E-005	5.99601E-002	3.38186E-001	3.57920E+000	9	...........
	15	0.213333	3.52000E-001	1.00694E-004	0.00000E+000	3.54443E-005	5.99601E-002	3.52067E-001	3.57920E+000	9	...........
	16	0.226667	3.65886E-001	1.00980E-004	0.00000E+000	3.69473E-005	5.99601E-002	3.65955E-001	3.57920E+000	9	...........
	17	0.24	3.79742E-001	1.00320E-004	0.00000E+000	3.80956E-005	5.99601E-002	3.79821E-001	3.57920E+000	9	...........
	18	0.253333	3.93571E-001	1.01020E-004	0.00000E+000	3.97585E-005	5.99601E-002	3.93649E-001	3.57920E+000	9	...........
	19	0.266667	4.07357E-001	1.01795E-004	0.00000E+000	4.14670E-005	5.99601E-002	4.07432E-001	3.57920E+000	9	...........
	20	0.28	4.21071E-001	1.01952E-004	0.00000E+000	4.29292E-005	5.99601E-002	4.21162E-001	3.57920E+000	9	...........
	21	0.293333	4.34718E-001	1.00425E-004	0.00000E+000	4.36565E-005	5.99601E-002	4.34805E-001	3.57920E+000	9	...........
	22	0.306667	4.48262E-001	1.00802E-004	0.00000E+000	4.51858E-005	5.99601E-002	4.48358E-001	3.57920E+000	9	...........
	23	0.32	4.61691E-001	1.00678E-004	0.00000E+000	4.64822E-005	5.99601E-002	4.61786E-001	3.57920E+000	9	...........
	24	0.333333	4.74981E-001	1.01843E-004	0.00000E+000	4.83735E-005	5.99601E-002	4.75078E-001	3.57920E+000	9	...........
	25	0.346667	4.88113E-001	1.00349E-004	0.00000E+000	4.89816E-005	5.99601E-002	4.88214E-001	3.57920E+000	9	...........
	26	0.36	5.01075E-001	1.01212E-004	0.00000E+000	5.07147E-005	5.99601E-002	5.01180E-001	3.57920E+000	9	...........
	27	0.373333	5.13855E-001	1.00974E-004	0.00000E+000	5.18860E-005	5.99601E-002	5.13963E-001	3.57920E+000	9	...........
	28	0.386667	5.26435E-001	1.00894E-004	0.00000E+000	5.31141E-005	5.99601E-002	5.26545E-001	3.57920E+000	9	...........
	29	0.4	5.38486E-001	1.00859E-004	0.00000E+000	5.43115E-005	5.99601E-002	5.38736E-001	3.57920E+000	9	...........
	30	0.413333	5.50614E-001	1.00181E-004	0.00000E+000	5.51611E-005	5.99601E-002	5.50861E-001	3.57920E+000	9	...........
	31	0.426667	5.62528E-001	1.01616E-004	0.00000E+000	5.71618E-005	5.99601E-002	5.62835E-001	3.57920E+000	9	...........
	32	0.44	5.74270E-001	1.00242E-004	0.00000E+000	5.75658E-005	5.99601E-002	5.74528E-001	3.57920E+000	9	...........
	33	0.453333	5.85755E-001	1.01287E-004	0.00000E+000	5.93292E-005	5.99601E-002	5.86016E-001	3.57920E+000	9	...........
	34	0.466667	5.97038E-001	1.01358E-004	0.00000E+000	6.05143E-005	5.99601E-002	5.97322E-001	3.57920E+000	9	...........
	35	0.48	6.08077E-001	1.00521E-004	0.00000E+000	6.11245E-005	5.99601E-002	6.08384E-001	3.57920E+000	9	...........
	36	0.493333	6.18979E-001	1.01125E-004	0.00000E+000	6.25944E-005	5.99601E-002	6.19232E-001	3.57920E+000	9	...........
	37	0.506667	6.29570E-001	1.00934E-004	0.00000E+000	6.35454E-005	5.99601E-002	6.29847E-001	3.57920E+000	9	...........
	38	0.52	6.40002E-001	1.01058E-004	0.00000E+000	6.46776E-005	5.99601E-002	6.40274E-001	3.57920E+000	9	...........
	39	0.533333	6.50212E-001	1.01589E-004	0.00000E+000	6.60542E-005	5.99601E-002	6.50497E-001	3.57920E+000	9	...........
	40	0.546667	6.60212E-001	1.01503E-004	0.00000E+000	6.70137E-005	5.99601E-002	6.60480E-001	3.57920E+000	9	...........
	41	0.56	6.70030E-001	1.01101E-004	0.00000E+000	6.77409E-005	5.99601E-002	6.70310E-001	3.57920E+000	9	...........
	42	0.573333	6.79631E-001	1.00969E-004	0.00000E+000	6.86216E-005	5.99601E-002	6.79913E-001	3.57920E+000	9	...........
	43	0.586667	6.89025E-001	1.00698E-004	0.00000E+000	6.93834E-005	5.99601E-002	6.89327E-001	3.57920E+000	9	...........
	44	0.6	6.98282E-001	1.00321E-004	0.00000E+000	7.00522E-005	5.99601E-002	6.98529E-001	3.57920E+000	9	...........
	45	0.613333	7.07323E-001	1.00903E-004	0.00000E+000	7.13712E-005	5.99601E-002	7.07593E-001	3.57920E+000	9	...........
	46	0.626667	7.16209E-001	1.01022E-004	0.00000E+000	7.23528E-005	5.99601E-002	7.16475E-001	3.57920E+000	9	...........
	47	0.64	7.24912E-001	1.00878E-004	0.00000E+000	7.31278E-005	5.99601E-002	7.25175E-001	3.57920E+000	9	...........
	48	0.653333	7.33437E-001	1.01440E-004	0.00000E+000	7.43998E-005	5.99601E-002	7.33733E-001	3.57920E+000	9	...........
	49	0.666667	7.41849E-001	1.00735E-004	0.00000E+000	7.47306E-005	5.99601E-002	7.42135E-001	3.57920E+000	9	...........
	50	0.68	7.50056E-001	1.00241E-004	0.00000E+000	7.51861E-005	5.99601E-002	7.50350E-001	3.57920E+000	9	...........
	51	0.693333	7.58110E-001	1.00647E-004	0.00000E+000	7.63015E-005	5.99601E-002	7.58417E-001	3.57920E+000	9	...........
	52	0.706667	7.66025E-001	9.96696E-005	0.00000E+000	7.63494E-005	5.99601E-002	7.66332E-001	3.57920E+000	9	...........
	53	0.72	7.73814E-001	1.00656E-004	0.00000E+000	7.78892E-005	5.99601E-002	7.74094E-001	3.57920E+000	9	...........
	54	0.733333	7.81429E-001	1.01321E-004	0.00000E+000	7.91752E-005	5.99601E-002	7.81729E-001	3.57920E+000	9	...........
	55	0.746667	7.88911E-001	1.01173E-004	0.00000E+000	7.98165E-005	5.99601E-002	7.89227E-001	3.57920E+000	9	...........
	56	0.76	7.96307E-001	1.00874E-004	0.00000E+000	8.03267E-005	5.99601E-002	7.96606E-001	3.57920E+000	9	...........
	57	0.773333	8.03518E-001	1.01146E-004	0.00000E+000	8.12727E-005	5.99601E-002	8.03810E-001	3.57920E+000	9	...........
	58	0.786667	8.10612E-001	1.00679E-004	0.00000E+000	8.16118E-005	5.99601E-002	8.10896E-001	3.57920E+000	9	...........
	59	0.8	8.17574E-001	1.01785E-004	0.00000E+000	8.32165E-005	5.99601E-002	8.17878E-001	3.57920E+000	9	...........
	60	0.813333	8.24425E-001	1.01454E-004	0.00000E+000	8.36415E-005	5.99601E-002	8.24721E-001	3.57920E+000	9	...........
	61	0.826667	8.31140E-001	1.00066E-004	0.00000E+000	8.31685E-005	5.99601E-002	8.31455E-001	3.57920E+000	9	...........
	62	0.84	8.37762E-001	1.00149E-004	0.00000E+000	8.39010E-005	5.99601E-002	8.38067E-001	3.57920E+000	9	...........
	63	0.853333	8.44266E-001	1.00246E-004	0.00000E+000	8.46341E-005	5.99601E-002	8.44603E-001	3.57920E+000	9	...........
	64	0.866667	8.50667E-001	1.01738E-004	0.00000E+000	8.65450E-005	5.99601E-002	8.51008E-001	3.57920E+000	9	...........
	65	0.88	8.56942E-001	1.00776E-004	0.00000E+000	8.63593E-005	5.99601E-002	8.57307E-001	3.57920E+000	9	...........
	66	0.893333	8.63120E-001	1.00772E-004	0.00000E+000	8.69783E-005	5.99601E-002	8.63476E-001	3.57920E+000	9	...........
	67	0.906667	8.69196E-001	1.00465E-004	0.00000E+000	8.73235E-005	5.99601E-002	8.69554E-001	3.57920E+000	9	...........
	68	0.92	8.75162E-001	1.00828E-004	0.00000E+000	8.82411E-005	5.99601E-002	8.75527E-001	3.57920E+000	9	...........
	69	0.933333	8.81048E-001	9.97238E-005	0.00000E+000	8.78615E-005	5.99601E-002	8.81406E-001	3.57920E+000	9	...........
	70	0.946667	8.86817E-001	1.00511E-004	0.00000E+000	8.91353E-005	5.99601E-002	8.87183E-001	3.57920E+000	9	...........
	71	0.96	8.92462E-001	1.01724E-004	0.00000E+000	9.07851E-005	5.99601E-002	8.92849E-001	3.57920E+000	9	...........
	72	0.97333	8.98046E-001	1.00507E-004	0.00000E+000	9.02602E-005	5.99601E-002	8.98442E-001	3.57920E+000	9	...........
	73	0.98667	9.03512E-001	9.97405E-005	0.00000E+000	9.01167E-005	5.99601E-002	9.03924E-001	3.57920E+000	9	...........
	74	1	9.08921E-001	1.00758E-004	0.00000E+000	9.15815E-005	5.99601E-002	9.09295E-001	3.57920E+000	9	...........
	75	1.01333	9.14217E-001	1.00968E-004	0.00000E+000	9.23065E-005	5.99601E-002	9.14598E-001	3.57920E+000	9	...........
	76	1.02667	9.19431E-001	1.01442E-004	0.00000E+000	9.32688E-005	5.99601E-002	9.19819E-001	3.57920E+000	9	...........
	77	1.04	9.24589E-001	1.00571E-004	0.00000E+000	9.29868E-005	5.99601E-002	9.24925E-001	3.57920E+000	9	...........
	78	1.05333	9.29620E-001	1.00160E-004	0.00000E+000	9.31111E-005	5.99601E-002	9.29927E-001	3.57920E+000	9	...........
	79	1.06667	9.34539E-001	1.01056E-004	0.00000E+000	9.44412E-005	5.99601E-002	9.34874E-001	3.57920E+000	9	...........
	80	1.08	9.39385E-001	1.00938E-004	0.00000E+000	9.48193E-005	5.99601E-002	9.39716E-001	3.57920E+000	9	...........
	81	1.09333	9.44133E-001	9.99655E-005	0.00000E+000	9.43808E-005	5.99601E-002	9.44454E-001	3.57920E+000	9	...........
	82	1.10667	9.48852E-001	1.00075E-004	0.00000E+000	9.49563E-005	5.99601E-002	9.49173E-001	3.57920E+000	9	...........
	83	1.12	9.53435E-001	1.01195E-004	0.00000E+000	9.64828E-005	5.99601E-002	9.53773E-001	3.57920E+000	9	...........
	84	1.13333	9.57918E-001	1.01249E-004	0.00000E+000	9.69884E-005	5.99601E-002	9.58281E-001	3.57920E+000	9	...........
	85	1.14667	9.62317E-001	1.00393E-004	0.00000E+000	9.66096E-005	5.99601E-002	9.62694E-001	3.57920E+000	9	...........
	86	1.16	9.66649E-001	1.01279E-004	0.00000E+000	9.79016E-005	5.99601E-002	9.67048E-001	3.57920E+000	9	...........
	87	1.17333	9.70893E-001	1.01430E-004	0.00000E+000	9.84781E-005	5.99601E-002	9.71318E-001	3.57920E+000	9	...........
	88	1.18667	9.75091E-001	9.98009E-005	0.00000E+000	9.73149E-005	5.99601E-002	9.75495E-001	3.57920E+000	9	...........
	89	1.2	9.79187E-001	1.00528E-004	0.00000E+000	9.84359E-005	5.99601E-002	9.79571E-001	3.57920E+000	9	...........
	90	1.21333	9.83186E-001	1.01522E-004	0.00000E+000	9.98151E-005	5.99601E-002	9.83571E-001	3.57920E+000	9	...........
	91	1.22667	9.87098E-001	1.00408E-004	0.00000E+000	9.91128E-005	5.99601E-002	9.87504E-001	3.57920E+000	9	...........
	92	1.24	9.90950E-001	1.00220E-004	0.00000E+000	9.93128E-005	5.99601E-002	9.91365E-001	3.57920E+000	9	...........
	93	1.25333	9.94707E-001	1.01012E-004	0.00000E+000	1.00477E-004	5.99601E-002	9.95110E-001	3.57920E+000	9	...........
	94	1.26667	9.98428E-001	1.01057E-004	0.00000E+000	1.00899E-004	5.99601E-002	9.98817E-001	3.57920E+000	9	...........
STARTTIMEOFFSET	QUANT	575.3981	Start Time Offset (s)
