EXPLAIN
TAG	PWR800_CHARGE
TITLE	LABEL	PWR Cyclic Charge Discharge (Cell) - Charge Step	Test &Identifier
DATE	LABEL	13-7-2017	Date
TIME	LABEL	15:09:43	Time
NOTES	NOTES	2	&Notes...
	supercap test cell
	6M KOH
PSTAT	PSTAT	IFC5000-01520	Potentiostat
CAPACITY	QUANT	1.00000E-003	Capacity (A-hr)
CELLTYPE	SELECTOR	1	&Cell Type
WORKINGCONNECTION	SELECTOR	0	&Working Lead
MAXCHARGETIME	VARIABLEANDUNITS	1.00000E+002	s	1.00000E+002	second(s)	Max &Charge Time
CHARGECURRENT	QUANT	1.00000E-004	&Charge Current (A) 
VOLTAGEFINISH	TWOPARAM	F	1.00000E-003	3.60000E+003	&Voltage Finish	 I (A) < 	Max Time(s)
SAMPLETIME	QUANT	1.00000E-002	Sa&mple Period (s)
CHARGESTOPAT1	MULTIPARAM	4	1.00000E+000	Charge Stop At &1	Voltage > Limit	V
CHARGESTOPAT2	MULTIPARAM	0	0.00000E+000	Charge Stop At &2	None	N/A
AESBHCSELECTOR	TOGGLE	F	Save Both Half Cells
IRCOMP	TOGGLE	F	IR &Measure
EOC	QUANT	0	Open Circuit (V)
SEQUENCER	TOGGLE	TRUE	Run as Sequence
PSTATMODEL	IQUANT	53	Pstat Model
PSTATSECTION	LABEL	IFC5000-01520	Pstat Section
PSTATSERIALNO	LABEL	01520	Pstat Serial Number
CTRLMODE	IQUANT	0	Control Mode
ELECTROMETER	IQUANT	1	RE=0 or CS=1
IESTAB	IQUANT	0	I/E Stability
CASPEED	IQUANT	4	Control Amp Speed
CONVENTION	IQUANT	1	Current Convention
ICHRANGE	IQUANT	2	Ich Range
ICHRANGEMODE	TOGGLE	T	Ich Auto Range
ICHOFFSETENABLE	TOGGLE	F	Ich Offset Enable
ICHOFFSET	QUANT	0	Ich Offset (V)
ICHFILTER	IQUANT	1	Ich Filter
VCHRANGE	IQUANT	2	Vch Range
VCHRANGEMODE	TOGGLE	T	Vch Auto Range
VCHOFFSETENABLE	TOGGLE	F	Vch Offset Enable
VCHOFFSET	QUANT	0	Vch Offset (V)
VCHFILTER	IQUANT	1	Vch Filter
IERANGELOWERLIMIT	IQUANT	9	I/E Range Lower Limit
IERANGEMODE	TOGGLE	F	I/E AutoRange
IERANGE	IQUANT	9	I/E Range
ACHSELECT	IQUANT	1	Ach Select
ACHRANGE	IQUANT	2	Ach Range
ACHOFFSETENABLE	TOGGLE	F	Ach Offset Enable
ACHOFFSET	QUANT	0	Ach Offset (V)
ACHFILTER	IQUANT	1	Ach Filter
CABLEID	IQUANT	14	Cable ID
DCCALDATE	LABEL	5-7-2017	DC Calibration Date
ACCALDATE	LABEL	12/3/2015	AC Calibration Date
FRAMEWORKVERSION	QUANT	7.01	Framework Version
INSTRUMENTVERSION	LABEL	4.00	Instrument Version
CURVE	TABLE	98
	Pt	T	Vf	Im	Vu	Pwr	Sig	Ach	Temp	IERange	Over
	#	s	V	A	V	W	V	V	deg C	#	bits
	0	0.013333	1.32425E-001	1.01116E-004	0.00000E+000	1.33902E-005	5.99601E-002	1.32467E-001	3.57870E+000	9	...........
	1	0.026667	1.47703E-001	1.00550E-004	0.00000E+000	1.48516E-005	5.99601E-002	1.47723E-001	3.57870E+000	9	...........
	2	0.04	1.62536E-001	1.00851E-004	0.00000E+000	1.63919E-005	5.99601E-002	1.62561E-001	3.57870E+000	9	...........
	3	0.053333	1.77098E-001	1.01388E-004	0.00000E+000	1.79556E-005	5.99601E-002	1.77129E-001	3.57870E+000	9	...........
	4	0.066667	1.91464E-001	1.01260E-004	0.00000E+000	1.93876E-005	5.99601E-002	1.91500E-001	3.57870E+000	9	...........
	5	0.08	2.05687E-001	1.01709E-004	0.00000E+000	2.09202E-005	5.99601E-002	2.05721E-001	3.57870E+000	9	...........
	6	0.093333	2.19799E-001	1.00881E-004	0.00000E+000	2.21736E-005	5.99601E-002	2.19841E-001	3.57870E+000	9	...........
	7	0.106667	2.33841E-001	1.00794E-004	0.00000E+000	2.35698E-005	5.99601E-002	2.33876E-001	3.57870E+000	9	...........
	8	0.12	2.47816E-001	1.00453E-004	0.00000E+000	2.48939E-005	5.99601E-002	2.47867E-001	3.57870E+000	9	...........
	9	0.133333	2.61754E-001	1.00449E-004	0.00000E+000	2.62929E-005	5.99601E-002	2.61809E-001	3.57870E+000	9	...........
	10	0.146667	2.75674E-001	1.00824E-004	0.00000E+000	2.77946E-005	5.99601E-002	2.75732E-001	3.57870E+000	9	...........
	11	0.16	2.89580E-001	1.00246E-004	0.00000E+000	2.90292E-005	5.99601E-002	2.89637E-001	3.57870E+000	9	...........
	12	0.173333	3.03478E-001	1.00638E-004	0.00000E+000	3.05413E-005	5.99601E-002	3.03537E-001	3.57870E+000	9	...........
	13	0.186667	3.17365E-001	1.01477E-004	0.00000E+000	3.22053E-005	5.99601E-002	3.17427E-001	3.57870E+000	9	...........
	14	0.2	3.31246E-001	1.01024E-004	0.00000E+000	3.34638E-005	5.99601E-002	3.31310E-001	3.57870E+000	9	...........
	15	0.213333	3.45122E-001	1.01080E-004	0.00000E+000	3.48851E-005	5.99601E-002	3.45189E-001	3.57870E+000	9	...........
	16	0.226667	3.58983E-001	1.00367E-004	0.00000E+000	3.60299E-005	5.99601E-002	3.59047E-001	3.57870E+000	9	...........
	17	0.24	3.72824E-001	1.00285E-004	0.00000E+000	3.73888E-005	5.99601E-002	3.72887E-001	3.57870E+000	9	...........
	18	0.253333	3.86634E-001	1.00707E-004	0.00000E+000	3.89369E-005	5.99601E-002	3.86701E-001	3.57870E+000	9	...........
	19	0.266667	4.00396E-001	1.01095E-004	0.00000E+000	4.04780E-005	5.99601E-002	4.00462E-001	3.57870E+000	9	...........
	20	0.28	4.14087E-001	1.00678E-004	0.00000E+000	4.16895E-005	5.99601E-002	4.14170E-001	3.57870E+000	9	...........
	21	0.293333	4.27705E-001	1.01295E-004	0.00000E+000	4.33244E-005	5.99601E-002	4.27788E-001	3.57870E+000	9	...........
	22	0.306667	4.41222E-001	1.00709E-004	0.00000E+000	4.44353E-005	5.99601E-002	4.41316E-001	3.57870E+000	9	...........
	23	0.32	4.54626E-001	1.00431E-004	0.00000E+000	4.56587E-005	5.99601E-002	4.54718E-001	3.57870E+000	9	...........
	24	0.333333	4.67892E-001	1.00466E-004	0.00000E+000	4.70071E-005	5.99601E-002	4.67982E-001	3.57870E+000	9	...........
	25	0.346667	4.81002E-001	1.00777E-004	0.00000E+000	4.84740E-005	5.99601E-002	4.81100E-001	3.57870E+000	9	...........
	26	0.36	4.93944E-001	1.01204E-004	0.00000E+000	4.99893E-005	5.99601E-002	4.94047E-001	3.57870E+000	9	...........
	27	0.373333	5.06700E-001	1.01036E-004	0.00000E+000	5.11947E-005	5.99601E-002	5.06808E-001	3.57870E+000	9	...........
	28	0.386667	5.19265E-001	1.01630E-004	0.00000E+000	5.27732E-005	5.99601E-002	5.19374E-001	3.57870E+000	9	...........
	29	0.4	5.31514E-001	1.00495E-004	0.00000E+000	5.34144E-005	5.99601E-002	5.31669E-001	3.57870E+000	9	...........
	30	0.413333	5.43393E-001	1.01026E-004	0.00000E+000	5.48970E-005	5.99601E-002	5.43641E-001	3.57870E+000	9	...........
	31	0.426667	5.55289E-001	1.01230E-004	0.00000E+000	5.62121E-005	5.99601E-002	5.55564E-001	3.57870E+000	9	...........
	32	0.44	5.67019E-001	9.98884E-005	0.00000E+000	5.66386E-005	5.99601E-002	5.67273E-001	3.57900E+000	9	...........
	33	0.453333	5.78481E-001	1.00419E-004	0.00000E+000	5.80904E-005	5.99601E-002	5.78771E-001	3.57900E+000	9	...........
	34	0.466667	5.89741E-001	1.00690E-004	0.00000E+000	5.93808E-005	5.99601E-002	5.90038E-001	3.57900E+000	9	...........
	35	0.48	6.00768E-001	1.01906E-004	0.00000E+000	6.12216E-005	5.99601E-002	6.01053E-001	3.57900E+000	9	...........
	36	0.493333	6.11599E-001	1.00550E-004	0.00000E+000	6.14963E-005	5.99601E-002	6.11902E-001	3.57900E+000	9	...........
	37	0.506667	6.22240E-001	1.00284E-004	0.00000E+000	6.24010E-005	5.99601E-002	6.22514E-001	3.57900E+000	9	...........
	38	0.52	6.32610E-001	1.01000E-004	0.00000E+000	6.38937E-005	5.99601E-002	6.32886E-001	3.57900E+000	9	...........
	39	0.533333	6.42805E-001	1.01118E-004	0.00000E+000	6.49991E-005	5.99601E-002	6.43103E-001	3.57900E+000	9	...........
	40	0.546667	6.52803E-001	1.00721E-004	0.00000E+000	6.57509E-005	5.99601E-002	6.53078E-001	3.57900E+000	9	...........
	41	0.56	6.62574E-001	1.00765E-004	0.00000E+000	6.67640E-005	5.99601E-002	6.62872E-001	3.57900E+000	9	...........
	42	0.573333	6.72170E-001	1.01715E-004	0.00000E+000	6.83697E-005	5.99601E-002	6.72449E-001	3.57900E+000	9	...........
	43	0.586667	6.81550E-001	1.00856E-004	0.00000E+000	6.87386E-005	5.99601E-002	6.81844E-001	3.57900E+000	9	...........
	44	0.6	6.90767E-001	1.00726E-004	0.00000E+000	6.95782E-005	5.99601E-002	6.91059E-001	3.57900E+000	9	...........
	45	0.613333	6.99781E-001	1.00782E-004	0.00000E+000	7.05256E-005	5.99601E-002	7.00082E-001	3.57900E+000	9	...........
	46	0.626667	7.08613E-001	1.00595E-004	0.00000E+000	7.12828E-005	5.99601E-002	7.08934E-001	3.57900E+000	9	...........
	47	0.64	7.17310E-001	1.01374E-004	0.00000E+000	7.27167E-005	5.99601E-002	7.17606E-001	3.57900E+000	9	...........
	48	0.653333	7.25818E-001	1.00021E-004	0.00000E+000	7.25969E-005	5.99601E-002	7.26118E-001	3.57900E+000	9	...........
	49	0.666667	7.34163E-001	1.00030E-004	0.00000E+000	7.34384E-005	5.99601E-002	7.34451E-001	3.57900E+000	9	...........
	50	0.68	7.42352E-001	1.00316E-004	0.00000E+000	7.44695E-005	5.99601E-002	7.42656E-001	3.57900E+000	9	...........
	51	0.693333	7.50374E-001	1.00429E-004	0.00000E+000	7.53594E-005	5.99601E-002	7.50684E-001	3.57900E+000	9	...........
	52	0.706667	7.58283E-001	1.00764E-004	0.00000E+000	7.64073E-005	5.99601E-002	7.58564E-001	3.57900E+000	9	...........
	53	0.72	7.66008E-001	9.94717E-005	0.00000E+000	7.61961E-005	5.99601E-002	7.66326E-001	3.57900E+000	9	...........
	54	0.733333	7.73616E-001	1.01092E-004	0.00000E+000	7.82063E-005	5.99601E-002	7.73912E-001	3.57900E+000	9	...........
	55	0.746667	7.81061E-001	1.00891E-004	0.00000E+000	7.88019E-005	5.99601E-002	7.81352E-001	3.57900E+000	9	...........
	56	0.76	7.88372E-001	1.00074E-004	0.00000E+000	7.88954E-005	5.99601E-002	7.88651E-001	3.57900E+000	9	...........
	57	0.773333	7.95604E-001	1.00369E-004	0.00000E+000	7.98538E-005	5.99601E-002	7.95880E-001	3.57900E+000	9	...........
	58	0.786667	8.02647E-001	1.02192E-004	0.00000E+000	8.20241E-005	5.99601E-002	8.02945E-001	3.57900E+000	9	...........
	59	0.8	8.09576E-001	1.01573E-004	0.00000E+000	8.22312E-005	5.99601E-002	8.09922E-001	3.57900E+000	9	...........
	60	0.813333	8.16402E-001	1.01558E-004	0.00000E+000	8.29118E-005	5.99601E-002	8.16738E-001	3.57900E+000	9	...........
	61	0.826667	8.23106E-001	1.00449E-004	0.00000E+000	8.26801E-005	5.99601E-002	8.23467E-001	3.57900E+000	9	...........
	62	0.84	8.29693E-001	1.00446E-004	0.00000E+000	8.33392E-005	5.99601E-002	8.30043E-001	3.57900E+000	9	...........
	63	0.853333	8.36155E-001	1.00231E-004	0.00000E+000	8.38089E-005	5.99601E-002	8.36520E-001	3.57900E+000	9	...........
	64	0.866667	8.42518E-001	1.01534E-004	0.00000E+000	8.55438E-005	5.99601E-002	8.42871E-001	3.57900E+000	9	...........
	65	0.88	8.48790E-001	9.99749E-005	0.00000E+000	8.48577E-005	5.99601E-002	8.49152E-001	3.57900E+000	9	...........
	66	0.893333	8.54942E-001	1.00653E-004	0.00000E+000	8.60527E-005	5.99601E-002	8.55293E-001	3.57900E+000	9	...........
	67	0.906667	8.60981E-001	1.02186E-004	0.00000E+000	8.79800E-005	5.99601E-002	8.61352E-001	3.57900E+000	9	...........
	68	0.92	8.66921E-001	1.00913E-004	0.00000E+000	8.74832E-005	5.99601E-002	8.67309E-001	3.57900E+000	9	...........
	69	0.933333	8.72814E-001	1.00849E-004	0.00000E+000	8.80225E-005	5.99601E-002	8.73168E-001	3.57900E+000	9	...........
	70	0.946667	8.78546E-001	1.00849E-004	0.00000E+000	8.86006E-005	5.99601E-002	8.78923E-001	3.57900E+000	9	...........
	71	0.96	8.84209E-001	1.01409E-004	0.00000E+000	8.96664E-005	5.99601E-002	8.84580E-001	3.57900E+000	9	...........
	72	0.97333	8.89759E-001	1.01420E-004	0.00000E+000	9.02394E-005	5.99601E-002	8.90105E-001	3.57900E+000	9	...........
	73	0.98667	8.95206E-001	1.00832E-004	0.00000E+000	9.02658E-005	5.99601E-002	8.95589E-001	3.57900E+000	9	...........
	74	1	9.00591E-001	1.00918E-004	0.00000E+000	9.08856E-005	5.99601E-002	9.00960E-001	3.57900E+000	9	...........
	75	1.01333	9.05884E-001	1.01097E-004	0.00000E+000	9.15822E-005	5.99601E-002	9.06247E-001	3.57900E+000	9	...........
	76	1.02667	9.11087E-001	1.00876E-004	0.00000E+000	9.19069E-005	5.99601E-002	9.11432E-001	3.57900E+000	9	...........
	77	1.04	9.16181E-001	1.01741E-004	0.00000E+000	9.32131E-005	5.99601E-002	9.16560E-001	3.57900E+000	9	...........
	78	1.05333	9.21238E-001	1.02091E-004	0.00000E+000	9.40501E-005	5.99601E-002	9.21600E-001	3.57900E+000	9	...........
	79	1.06667	9.26190E-001	1.01057E-004	0.00000E+000	9.35984E-005	5.99601E-002	9.26530E-001	3.57900E+000	9	...........
	80	1.08	9.31014E-001	1.01170E-004	0.00000E+000	9.41907E-005	5.99601E-002	9.31372E-001	3.57900E+000	9	...........
	81	1.09333	9.35776E-001	1.00289E-004	0.00000E+000	9.38476E-005	5.99601E-002	9.36128E-001	3.57900E+000	9	...........
	82	1.10667	9.40441E-001	1.00964E-004	0.00000E+000	9.49504E-005	5.99601E-002	9.40793E-001	3.57900E+000	9	...........
	83	1.12	9.45041E-001	1.01237E-004	0.00000E+000	9.56727E-005	5.99601E-002	9.45404E-001	3.57900E+000	9	...........
	84	1.13333	9.49594E-001	1.00026E-004	0.00000E+000	9.49840E-005	5.99601E-002	9.49925E-001	3.57900E+000	9	...........
	85	1.14667	9.54018E-001	1.00712E-004	0.00000E+000	9.60806E-005	5.99601E-002	9.54364E-001	3.57900E+000	9	...........
	86	1.16	9.58342E-001	1.00915E-004	0.00000E+000	9.67108E-005	5.99601E-002	9.58711E-001	3.57900E+000	9	...........
	87	1.17333	9.62590E-001	1.00646E-004	0.00000E+000	9.68807E-005	5.99601E-002	9.62991E-001	3.57900E+000	9	...........
	88	1.18667	9.66764E-001	1.01304E-004	0.00000E+000	9.79374E-005	5.99601E-002	9.67158E-001	3.57900E+000	9	...........
	89	1.2	9.70865E-001	1.01625E-004	0.00000E+000	9.86644E-005	5.99601E-002	9.71251E-001	3.57900E+000	9	...........
	90	1.21333	9.74953E-001	1.01856E-004	0.00000E+000	9.93044E-005	5.99601E-002	9.75278E-001	3.57900E+000	9	...........
	91	1.22667	9.78882E-001	1.00588E-004	0.00000E+000	9.84633E-005	5.99601E-002	9.79218E-001	3.57900E+000	9	...........
	92	1.24	9.82728E-001	1.01347E-004	0.00000E+000	9.95967E-005	5.99601E-002	9.83114E-001	3.57900E+000	9	...........
	93	1.25333	9.86521E-001	1.01051E-004	0.00000E+000	9.96891E-005	5.99601E-002	9.86931E-001	3.57900E+000	9	...........
	94	1.26667	9.90249E-001	1.00951E-004	0.00000E+000	9.99668E-005	5.99601E-002	9.90634E-001	3.57900E+000	9	...........
	95	1.28	9.93856E-001	1.01310E-004	0.00000E+000	1.00687E-004	5.99601E-002	9.94265E-001	3.57900E+000	9	...........
	96	1.29333	9.97449E-001	9.99708E-005	0.00000E+000	9.97157E-005	5.99601E-002	9.97842E-001	3.57900E+000	9	...........
	97	1.29833	9.99873E-001	1.00284E-004	0.00000E+000	1.00271E-004	5.99601E-002	1.00024E+000	3.57900E+000	9	...........
STARTTIMEOFFSET	QUANT	346.0533	Start Time Offset (s)
