EXPLAIN
TAG	PWR800_CHARGE
TITLE	LABEL	PWR Cyclic Charge Discharge (Cell) - Charge Step	Test &Identifier
DATE	LABEL	13-7-2017	Date
TIME	LABEL	15:33:18	Time
NOTES	NOTES	2	&Notes...
	supercap test cell
	6M KOH
PSTAT	PSTAT	IFC5000-01520	Potentiostat
CAPACITY	QUANT	1.00000E-003	Capacity (A-hr)
CELLTYPE	SELECTOR	1	&Cell Type
WORKINGCONNECTION	SELECTOR	0	&Working Lead
MAXCHARGETIME	VARIABLEANDUNITS	1.00000E+002	s	1.00000E+002	second(s)	Max &Charge Time
CHARGECURRENT	QUANT	1.00000E-004	&Charge Current (A) 
VOLTAGEFINISH	TWOPARAM	F	1.00000E-003	3.60000E+003	&Voltage Finish	 I (A) < 	Max Time(s)
SAMPLETIME	QUANT	1.00000E-002	Sa&mple Period (s)
CHARGESTOPAT1	MULTIPARAM	4	1.00000E+000	Charge Stop At &1	Voltage > Limit	V
CHARGESTOPAT2	MULTIPARAM	0	0.00000E+000	Charge Stop At &2	None	N/A
AESBHCSELECTOR	TOGGLE	F	Save Both Half Cells
IRCOMP	TOGGLE	F	IR &Measure
EOC	QUANT	0	Open Circuit (V)
SEQUENCER	TOGGLE	TRUE	Run as Sequence
PSTATMODEL	IQUANT	53	Pstat Model
PSTATSECTION	LABEL	IFC5000-01520	Pstat Section
PSTATSERIALNO	LABEL	01520	Pstat Serial Number
CTRLMODE	IQUANT	0	Control Mode
ELECTROMETER	IQUANT	1	RE=0 or CS=1
IESTAB	IQUANT	0	I/E Stability
CASPEED	IQUANT	4	Control Amp Speed
CONVENTION	IQUANT	1	Current Convention
ICHRANGE	IQUANT	2	Ich Range
ICHRANGEMODE	TOGGLE	T	Ich Auto Range
ICHOFFSETENABLE	TOGGLE	F	Ich Offset Enable
ICHOFFSET	QUANT	0	Ich Offset (V)
ICHFILTER	IQUANT	1	Ich Filter
VCHRANGE	IQUANT	2	Vch Range
VCHRANGEMODE	TOGGLE	T	Vch Auto Range
VCHOFFSETENABLE	TOGGLE	F	Vch Offset Enable
VCHOFFSET	QUANT	0	Vch Offset (V)
VCHFILTER	IQUANT	1	Vch Filter
IERANGELOWERLIMIT	IQUANT	9	I/E Range Lower Limit
IERANGEMODE	TOGGLE	F	I/E AutoRange
IERANGE	IQUANT	9	I/E Range
ACHSELECT	IQUANT	1	Ach Select
ACHRANGE	IQUANT	2	Ach Range
ACHOFFSETENABLE	TOGGLE	F	Ach Offset Enable
ACHOFFSET	QUANT	0	Ach Offset (V)
ACHFILTER	IQUANT	1	Ach Filter
CABLEID	IQUANT	14	Cable ID
DCCALDATE	LABEL	5-7-2017	DC Calibration Date
ACCALDATE	LABEL	12/3/2015	AC Calibration Date
FRAMEWORKVERSION	QUANT	7.01	Framework Version
INSTRUMENTVERSION	LABEL	4.00	Instrument Version
CURVE	TABLE	92
	Pt	T	Vf	Im	Vu	Pwr	Sig	Ach	Temp	IERange	Over
	#	s	V	A	V	W	V	V	deg C	#	bits
	0	0.013333	1.32407E-001	1.01350E-004	0.00000E+000	1.34194E-005	5.99601E-002	1.32449E-001	3.58000E+000	9	...........
	1	0.026667	1.47700E-001	1.01066E-004	0.00000E+000	1.49274E-005	5.99601E-002	1.47717E-001	3.58000E+000	9	...........
	2	0.04	1.62550E-001	1.00809E-004	0.00000E+000	1.63865E-005	5.99601E-002	1.62574E-001	3.58000E+000	9	...........
	3	0.053333	1.77132E-001	1.00906E-004	0.00000E+000	1.78737E-005	5.99601E-002	1.77160E-001	3.58000E+000	9	...........
	4	0.066667	1.91515E-001	1.01113E-004	0.00000E+000	1.93646E-005	5.99601E-002	1.91543E-001	3.58000E+000	9	...........
	5	0.08	2.05748E-001	1.00120E-004	0.00000E+000	2.05994E-005	5.99601E-002	2.05782E-001	3.58000E+000	9	...........
	6	0.093333	2.19884E-001	1.00878E-004	0.00000E+000	2.21815E-005	5.99601E-002	2.19922E-001	3.58000E+000	9	...........
	7	0.106667	2.33952E-001	1.00575E-004	0.00000E+000	2.35297E-005	5.99601E-002	2.33990E-001	3.58000E+000	9	...........
	8	0.12	2.47969E-001	1.00244E-004	0.00000E+000	2.48574E-005	5.99601E-002	2.48017E-001	3.58000E+000	9	...........
	9	0.133333	2.61964E-001	1.00757E-004	0.00000E+000	2.63948E-005	5.99601E-002	2.62007E-001	3.58000E+000	9	...........
	10	0.146667	2.75944E-001	1.01169E-004	0.00000E+000	2.79170E-005	5.99601E-002	2.75998E-001	3.58000E+000	9	...........
	11	0.16	2.89923E-001	1.00664E-004	0.00000E+000	2.91847E-005	5.99601E-002	2.89981E-001	3.58000E+000	9	...........
	12	0.173333	3.03916E-001	1.02125E-004	0.00000E+000	3.10376E-005	5.99601E-002	3.03974E-001	3.58000E+000	9	...........
	13	0.186667	3.17922E-001	1.00802E-004	0.00000E+000	3.20472E-005	5.99601E-002	3.17977E-001	3.57986E+000	9	...........
	14	0.2	3.31946E-001	1.00243E-004	0.00000E+000	3.32751E-005	5.99601E-002	3.32006E-001	3.57890E+000	9	...........
	15	0.213333	3.45993E-001	1.00495E-004	0.00000E+000	3.47705E-005	5.99601E-002	3.46056E-001	3.57890E+000	9	...........
	16	0.226667	3.60062E-001	1.00878E-004	0.00000E+000	3.63224E-005	5.99601E-002	3.60123E-001	3.57890E+000	9	...........
	17	0.24	3.74137E-001	1.01396E-004	0.00000E+000	3.79360E-005	5.99601E-002	3.74205E-001	3.57890E+000	9	...........
	18	0.253333	3.88216E-001	1.00447E-004	0.00000E+000	3.89951E-005	5.99601E-002	3.88286E-001	3.57890E+000	9	...........
	19	0.266667	4.02285E-001	1.00242E-004	0.00000E+000	4.03257E-005	5.99601E-002	4.02357E-001	3.57890E+000	9	...........
	20	0.28	4.16325E-001	1.00172E-004	0.00000E+000	4.17040E-005	5.99601E-002	4.16405E-001	3.57890E+000	9	...........
	21	0.293333	4.30317E-001	1.01404E-004	0.00000E+000	4.36361E-005	5.99601E-002	4.30401E-001	3.57890E+000	9	...........
	22	0.306667	4.44247E-001	1.01385E-004	0.00000E+000	4.50398E-005	5.99601E-002	4.44334E-001	3.57890E+000	9	...........
	23	0.32	4.58084E-001	1.01427E-004	0.00000E+000	4.64622E-005	5.99601E-002	4.58170E-001	3.57890E+000	9	...........
	24	0.333333	4.71809E-001	1.00334E-004	0.00000E+000	4.73386E-005	5.99601E-002	4.71899E-001	3.57890E+000	9	...........
	25	0.346667	4.85402E-001	1.01623E-004	0.00000E+000	4.93281E-005	5.99601E-002	4.85501E-001	3.57890E+000	9	...........
	26	0.36	4.98840E-001	1.00228E-004	0.00000E+000	4.99978E-005	5.99601E-002	4.98944E-001	3.57890E+000	9	...........
	27	0.373333	5.12109E-001	1.00734E-004	0.00000E+000	5.15871E-005	5.99601E-002	5.12213E-001	3.57890E+000	9	...........
	28	0.386667	5.25196E-001	1.00644E-004	0.00000E+000	5.28577E-005	5.99601E-002	5.25306E-001	3.57890E+000	9	...........
	29	0.4	5.37817E-001	1.00849E-004	0.00000E+000	5.42383E-005	5.99601E-002	5.38009E-001	3.57890E+000	9	...........
	30	0.413333	5.50417E-001	1.01157E-004	0.00000E+000	5.56788E-005	5.99601E-002	5.50674E-001	3.57890E+000	9	...........
	31	0.426667	5.62901E-001	1.01032E-004	0.00000E+000	5.68712E-005	5.99601E-002	5.63171E-001	3.57890E+000	9	...........
	32	0.44	5.75146E-001	9.99645E-005	0.00000E+000	5.74942E-005	5.99601E-002	5.75382E-001	3.57890E+000	9	...........
	33	0.453333	5.87122E-001	1.00947E-004	0.00000E+000	5.92682E-005	5.99601E-002	5.87356E-001	3.57890E+000	9	...........
	34	0.466667	5.98898E-001	1.00918E-004	0.00000E+000	6.04395E-005	5.99601E-002	5.99146E-001	3.57890E+000	9	...........
	35	0.48	6.10440E-001	1.01386E-004	0.00000E+000	6.18898E-005	5.99601E-002	6.10688E-001	3.57890E+000	9	...........
	36	0.493333	6.21801E-001	1.00591E-004	0.00000E+000	6.25474E-005	5.99601E-002	6.22007E-001	3.57890E+000	9	...........
	37	0.506667	6.32867E-001	1.01070E-004	0.00000E+000	6.39638E-005	5.99601E-002	6.33106E-001	3.57890E+000	9	...........
	38	0.52	6.43773E-001	1.00900E-004	0.00000E+000	6.49568E-005	5.99601E-002	6.44001E-001	3.57890E+000	9	...........
	39	0.533333	6.54436E-001	1.01032E-004	0.00000E+000	6.61192E-005	5.99601E-002	6.54656E-001	3.57890E+000	9	...........
	40	0.546667	6.64873E-001	1.01229E-004	0.00000E+000	6.73047E-005	5.99601E-002	6.65115E-001	3.57890E+000	9	...........
	41	0.56	6.75112E-001	9.99780E-005	0.00000E+000	6.74964E-005	5.99601E-002	6.75360E-001	3.57890E+000	9	...........
	42	0.573333	6.85125E-001	1.01418E-004	0.00000E+000	6.94839E-005	5.99601E-002	6.85380E-001	3.57890E+000	9	...........
	43	0.586667	6.94952E-001	1.01294E-004	0.00000E+000	7.03944E-005	5.99601E-002	6.95213E-001	3.57890E+000	9	...........
	44	0.6	7.04577E-001	1.01195E-004	0.00000E+000	7.12996E-005	5.99601E-002	7.04844E-001	3.57890E+000	9	...........
	45	0.613333	7.14028E-001	1.00879E-004	0.00000E+000	7.20306E-005	5.99601E-002	7.14296E-001	3.57890E+000	9	...........
	46	0.626667	7.23310E-001	1.00991E-004	0.00000E+000	7.30476E-005	5.99601E-002	7.23558E-001	3.57890E+000	9	...........
	47	0.64	7.32371E-001	1.00404E-004	0.00000E+000	7.35331E-005	5.99601E-002	7.32643E-001	3.57890E+000	9	...........
	48	0.653333	7.41254E-001	1.00957E-004	0.00000E+000	7.48351E-005	5.99601E-002	7.41559E-001	3.57890E+000	9	...........
	49	0.666667	7.50005E-001	1.00905E-004	0.00000E+000	7.56795E-005	5.99601E-002	7.50265E-001	3.57890E+000	9	...........
	50	0.68	7.58566E-001	1.00184E-004	0.00000E+000	7.59964E-005	5.99601E-002	7.58822E-001	3.57890E+000	9	...........
	51	0.693333	7.66949E-001	1.00858E-004	0.00000E+000	7.73532E-005	5.99601E-002	7.67214E-001	3.57890E+000	9	...........
	52	0.706667	7.75173E-001	1.01577E-004	0.00000E+000	7.87400E-005	5.99601E-002	7.75464E-001	3.57890E+000	9	...........
	53	0.72	7.83238E-001	1.01391E-004	0.00000E+000	7.94132E-005	5.99601E-002	7.83520E-001	3.57890E+000	9	...........
	54	0.733333	7.91179E-001	1.00591E-004	0.00000E+000	7.95852E-005	5.99601E-002	7.91464E-001	3.57890E+000	9	...........
	55	0.746667	7.98973E-001	1.00728E-004	0.00000E+000	8.04791E-005	5.99601E-002	7.99257E-001	3.57890E+000	9	...........
	56	0.76	8.06562E-001	1.01989E-004	0.00000E+000	8.22604E-005	5.99601E-002	8.06875E-001	3.57890E+000	9	...........
	57	0.773333	8.14034E-001	1.01281E-004	0.00000E+000	8.24465E-005	5.99601E-002	8.14350E-001	3.57890E+000	9	...........
	58	0.786667	8.21413E-001	1.00607E-004	0.00000E+000	8.26401E-005	5.99601E-002	8.21743E-001	3.57890E+000	9	...........
	59	0.8	8.28629E-001	1.01398E-004	0.00000E+000	8.40214E-005	5.99601E-002	8.28947E-001	3.57890E+000	9	...........
	60	0.813333	8.35695E-001	1.01256E-004	0.00000E+000	8.46195E-005	5.99601E-002	8.36036E-001	3.57890E+000	9	...........
	61	0.826667	8.42667E-001	1.01592E-004	0.00000E+000	8.56081E-005	5.99601E-002	8.42990E-001	3.57890E+000	9	...........
	62	0.84	8.49525E-001	1.00522E-004	0.00000E+000	8.53959E-005	5.99601E-002	8.49856E-001	3.57890E+000	9	...........
	63	0.853333	8.56240E-001	1.00486E-004	0.00000E+000	8.60406E-005	5.99601E-002	8.56564E-001	3.57890E+000	9	...........
	64	0.866667	8.62837E-001	1.00164E-004	0.00000E+000	8.64247E-005	5.99601E-002	8.63177E-001	3.57890E+000	9	...........
	65	0.88	8.69340E-001	1.00939E-004	0.00000E+000	8.77500E-005	5.99601E-002	8.69678E-001	3.57890E+000	9	...........
	66	0.893333	8.75724E-001	1.00461E-004	0.00000E+000	8.79765E-005	5.99601E-002	8.76076E-001	3.57890E+000	9	...........
	67	0.906667	8.82005E-001	1.00797E-004	0.00000E+000	8.89034E-005	5.99601E-002	8.82361E-001	3.57890E+000	9	...........
	68	0.92	8.88153E-001	1.00967E-004	0.00000E+000	8.96740E-005	5.99601E-002	8.88501E-001	3.57890E+000	9	...........
	69	0.933333	8.94179E-001	1.00978E-004	0.00000E+000	9.02927E-005	5.99601E-002	8.94543E-001	3.57890E+000	9	...........
	70	0.946667	9.00108E-001	1.00664E-004	0.00000E+000	9.06081E-005	5.99601E-002	9.00447E-001	3.57890E+000	9	...........
	71	0.96	9.05918E-001	1.00119E-004	0.00000E+000	9.06993E-005	5.99601E-002	9.06295E-001	3.57890E+000	9	...........
	72	0.97333	9.11638E-001	1.00728E-004	0.00000E+000	9.18277E-005	5.99601E-002	9.12014E-001	3.57890E+000	9	...........
	73	0.98667	9.17274E-001	1.01177E-004	0.00000E+000	9.28073E-005	5.99601E-002	9.17613E-001	3.57890E+000	9	...........
	74	1	9.22809E-001	1.01222E-004	0.00000E+000	9.34086E-005	5.99601E-002	9.23123E-001	3.57890E+000	9	...........
	75	1.01333	9.28212E-001	1.00986E-004	0.00000E+000	9.37360E-005	5.99601E-002	9.28539E-001	3.57890E+000	9	...........
	76	1.02667	9.33504E-001	1.01616E-004	0.00000E+000	9.48588E-005	5.99601E-002	9.33834E-001	3.57890E+000	9	...........
	77	1.04	9.38723E-001	1.00651E-004	0.00000E+000	9.44835E-005	5.99601E-002	9.39050E-001	3.57890E+000	9	...........
	78	1.05333	9.43818E-001	1.00751E-004	0.00000E+000	9.50907E-005	5.99601E-002	9.44161E-001	3.57890E+000	9	...........
	79	1.06667	9.48860E-001	1.00036E-004	0.00000E+000	9.49205E-005	5.99601E-002	9.49215E-001	3.57890E+000	9	...........
	80	1.08	9.53786E-001	1.01218E-004	0.00000E+000	9.65403E-005	5.99601E-002	9.54124E-001	3.57890E+000	9	...........
	81	1.09333	9.58589E-001	1.01364E-004	0.00000E+000	9.71662E-005	5.99601E-002	9.58946E-001	3.57890E+000	9	...........
	82	1.10667	9.63307E-001	1.00852E-004	0.00000E+000	9.71517E-005	5.99601E-002	9.63654E-001	3.57890E+000	9	...........
	83	1.12	9.67955E-001	1.01018E-004	0.00000E+000	9.77808E-005	5.99601E-002	9.68284E-001	3.57890E+000	9	...........
	84	1.13333	9.72498E-001	1.00543E-004	0.00000E+000	9.77777E-005	5.99601E-002	9.72861E-001	3.57890E+000	9	...........
	85	1.14667	9.76983E-001	1.01303E-004	0.00000E+000	9.89716E-005	5.99601E-002	9.77320E-001	3.57890E+000	9	...........
	86	1.16	9.81334E-001	1.01248E-004	0.00000E+000	9.93582E-005	5.99601E-002	9.81664E-001	3.57890E+000	9	...........
	87	1.17333	9.85561E-001	1.01066E-004	0.00000E+000	9.96065E-005	5.99601E-002	9.85947E-001	3.57890E+000	9	...........
	88	1.18667	9.89758E-001	1.01390E-004	0.00000E+000	1.00351E-004	5.99601E-002	9.90125E-001	3.57895E+000	9	...........
	89	1.2	9.93829E-001	1.00874E-004	0.00000E+000	1.00252E-004	5.99601E-002	9.94204E-001	3.57930E+000	9	...........
	90	1.21333	9.97836E-001	1.01042E-004	0.00000E+000	1.00823E-004	5.99601E-002	9.98229E-001	3.57930E+000	9	...........
	91	1.215	1.00005E+000	1.02057E-004	0.00000E+000	1.02061E-004	5.99601E-002	1.00043E+000	3.57930E+000	9	...........
STARTTIMEOFFSET	QUANT	1415.986	Start Time Offset (s)
