EXPLAIN
TAG	PWR800_CHARGE
TITLE	LABEL	PWR Cyclic Charge Discharge (Cell) - Charge Step	Test &Identifier
DATE	LABEL	13-7-2017	Date
TIME	LABEL	15:19:30	Time
NOTES	NOTES	2	&Notes...
	supercap test cell
	6M KOH
PSTAT	PSTAT	IFC5000-01520	Potentiostat
CAPACITY	QUANT	1.00000E-003	Capacity (A-hr)
CELLTYPE	SELECTOR	1	&Cell Type
WORKINGCONNECTION	SELECTOR	0	&Working Lead
MAXCHARGETIME	VARIABLEANDUNITS	1.00000E+002	s	1.00000E+002	second(s)	Max &Charge Time
CHARGECURRENT	QUANT	1.00000E-004	&Charge Current (A) 
VOLTAGEFINISH	TWOPARAM	F	1.00000E-003	3.60000E+003	&Voltage Finish	 I (A) < 	Max Time(s)
SAMPLETIME	QUANT	1.00000E-002	Sa&mple Period (s)
CHARGESTOPAT1	MULTIPARAM	4	1.00000E+000	Charge Stop At &1	Voltage > Limit	V
CHARGESTOPAT2	MULTIPARAM	0	0.00000E+000	Charge Stop At &2	None	N/A
AESBHCSELECTOR	TOGGLE	F	Save Both Half Cells
IRCOMP	TOGGLE	F	IR &Measure
EOC	QUANT	0	Open Circuit (V)
SEQUENCER	TOGGLE	TRUE	Run as Sequence
PSTATMODEL	IQUANT	53	Pstat Model
PSTATSECTION	LABEL	IFC5000-01520	Pstat Section
PSTATSERIALNO	LABEL	01520	Pstat Serial Number
CTRLMODE	IQUANT	0	Control Mode
ELECTROMETER	IQUANT	1	RE=0 or CS=1
IESTAB	IQUANT	0	I/E Stability
CASPEED	IQUANT	4	Control Amp Speed
CONVENTION	IQUANT	1	Current Convention
ICHRANGE	IQUANT	2	Ich Range
ICHRANGEMODE	TOGGLE	T	Ich Auto Range
ICHOFFSETENABLE	TOGGLE	F	Ich Offset Enable
ICHOFFSET	QUANT	0	Ich Offset (V)
ICHFILTER	IQUANT	1	Ich Filter
VCHRANGE	IQUANT	2	Vch Range
VCHRANGEMODE	TOGGLE	T	Vch Auto Range
VCHOFFSETENABLE	TOGGLE	F	Vch Offset Enable
VCHOFFSET	QUANT	0	Vch Offset (V)
VCHFILTER	IQUANT	1	Vch Filter
IERANGELOWERLIMIT	IQUANT	9	I/E Range Lower Limit
IERANGEMODE	TOGGLE	F	I/E AutoRange
IERANGE	IQUANT	9	I/E Range
ACHSELECT	IQUANT	1	Ach Select
ACHRANGE	IQUANT	2	Ach Range
ACHOFFSETENABLE	TOGGLE	F	Ach Offset Enable
ACHOFFSET	QUANT	0	Ach Offset (V)
ACHFILTER	IQUANT	1	Ach Filter
CABLEID	IQUANT	14	Cable ID
DCCALDATE	LABEL	5-7-2017	DC Calibration Date
ACCALDATE	LABEL	12/3/2015	AC Calibration Date
FRAMEWORKVERSION	QUANT	7.01	Framework Version
INSTRUMENTVERSION	LABEL	4.00	Instrument Version
CURVE	TABLE	94
	Pt	T	Vf	Im	Vu	Pwr	Sig	Ach	Temp	IERange	Over
	#	s	V	A	V	W	V	V	deg C	#	bits
	0	0.013333	1.32317E-001	1.00880E-004	0.00000E+000	1.33481E-005	5.99601E-002	1.32360E-001	3.57880E+000	9	...........
	1	0.026667	1.47529E-001	1.01145E-004	0.00000E+000	1.49218E-005	5.99601E-002	1.47553E-001	3.57880E+000	9	...........
	2	0.04	1.62310E-001	1.00596E-004	0.00000E+000	1.63278E-005	5.99601E-002	1.62331E-001	3.57880E+000	9	...........
	3	0.053333	1.76813E-001	1.00672E-004	0.00000E+000	1.78001E-005	5.99601E-002	1.76840E-001	3.57880E+000	9	...........
	4	0.066667	1.91130E-001	9.98270E-005	0.00000E+000	1.90800E-005	5.99601E-002	1.91157E-001	3.57880E+000	9	...........
	5	0.08	2.05298E-001	1.01484E-004	0.00000E+000	2.08344E-005	5.99601E-002	2.05331E-001	3.57880E+000	9	...........
	6	0.093333	2.19359E-001	1.00883E-004	0.00000E+000	2.21297E-005	5.99601E-002	2.19397E-001	3.57880E+000	9	...........
	7	0.106667	2.33359E-001	1.00247E-004	0.00000E+000	2.33935E-005	5.99601E-002	2.33388E-001	3.57880E+000	9	...........
	8	0.12	2.47296E-001	1.01318E-004	0.00000E+000	2.50555E-005	5.99601E-002	2.47340E-001	3.57880E+000	9	...........
	9	0.133333	2.61207E-001	1.01921E-004	0.00000E+000	2.66225E-005	5.99601E-002	2.61259E-001	3.57880E+000	9	...........
	10	0.146667	2.75110E-001	1.01022E-004	0.00000E+000	2.77922E-005	5.99601E-002	2.75163E-001	3.57880E+000	9	...........
	11	0.16	2.89000E-001	1.02240E-004	0.00000E+000	2.95474E-005	5.99601E-002	2.89057E-001	3.57880E+000	9	...........
	12	0.173333	3.02894E-001	1.00029E-004	0.00000E+000	3.02982E-005	5.99601E-002	3.02951E-001	3.57880E+000	9	...........
	13	0.186667	3.16800E-001	1.00569E-004	0.00000E+000	3.18602E-005	5.99601E-002	3.16859E-001	3.57880E+000	9	...........
	14	0.2	3.30712E-001	1.00933E-004	0.00000E+000	3.33800E-005	5.99601E-002	3.30772E-001	3.57880E+000	9	...........
	15	0.213333	3.44632E-001	1.00244E-004	0.00000E+000	3.45472E-005	5.99601E-002	3.44697E-001	3.57880E+000	9	...........
	16	0.226667	3.58563E-001	1.00980E-004	0.00000E+000	3.62078E-005	5.99601E-002	3.58630E-001	3.57880E+000	9	...........
	17	0.24	3.72488E-001	1.00647E-004	0.00000E+000	3.74898E-005	5.99601E-002	3.72562E-001	3.57880E+000	9	...........
	18	0.253333	3.86406E-001	1.00958E-004	0.00000E+000	3.90110E-005	5.99601E-002	3.86483E-001	3.57880E+000	9	...........
	19	0.266667	4.00302E-001	1.00503E-004	0.00000E+000	4.02317E-005	5.99601E-002	4.00378E-001	3.57880E+000	9	...........
	20	0.28	4.14155E-001	1.00628E-004	0.00000E+000	4.16757E-005	5.99601E-002	4.14235E-001	3.57880E+000	9	...........
	21	0.293333	4.27951E-001	1.00698E-004	0.00000E+000	4.30938E-005	5.99601E-002	4.28036E-001	3.57880E+000	9	...........
	22	0.306667	4.41668E-001	1.00558E-004	0.00000E+000	4.44134E-005	5.99601E-002	4.41760E-001	3.57880E+000	9	...........
	23	0.32	4.55290E-001	1.01069E-004	0.00000E+000	4.60156E-005	5.99601E-002	4.55379E-001	3.57880E+000	9	...........
	24	0.333333	4.68795E-001	1.01212E-004	0.00000E+000	4.74475E-005	5.99601E-002	4.68887E-001	3.57880E+000	9	...........
	25	0.346667	4.82157E-001	1.00283E-004	0.00000E+000	4.83523E-005	5.99601E-002	4.82256E-001	3.57880E+000	9	...........
	26	0.36	4.95369E-001	1.00968E-004	0.00000E+000	5.00164E-005	5.99601E-002	4.95474E-001	3.57880E+000	9	...........
	27	0.373333	5.08401E-001	1.00216E-004	0.00000E+000	5.09497E-005	5.99601E-002	5.08504E-001	3.57880E+000	9	...........
	28	0.386667	5.21245E-001	1.00289E-004	0.00000E+000	5.22749E-005	5.99601E-002	5.21350E-001	3.57880E+000	9	...........
	29	0.4	5.33703E-001	1.00468E-004	0.00000E+000	5.36199E-005	5.99601E-002	5.33878E-001	3.57880E+000	9	...........
	30	0.413333	5.45968E-001	1.00965E-004	0.00000E+000	5.51235E-005	5.99601E-002	5.46209E-001	3.57880E+000	9	...........
	31	0.426667	5.58184E-001	1.01512E-004	0.00000E+000	5.66622E-005	5.99601E-002	5.58449E-001	3.57880E+000	9	...........
	32	0.44	5.70215E-001	1.00864E-004	0.00000E+000	5.75139E-005	5.99601E-002	5.70471E-001	3.57880E+000	9	...........
	33	0.453333	5.81977E-001	1.01479E-004	0.00000E+000	5.90586E-005	5.99601E-002	5.82245E-001	3.57880E+000	9	...........
	34	0.466667	5.93555E-001	1.00511E-004	0.00000E+000	5.96591E-005	5.99601E-002	5.93815E-001	3.57880E+000	9	...........
	35	0.48	6.04865E-001	1.01128E-004	0.00000E+000	6.11690E-005	5.99601E-002	6.05150E-001	3.57880E+000	9	...........
	36	0.493333	6.16003E-001	1.00900E-004	0.00000E+000	6.21548E-005	5.99601E-002	6.16268E-001	3.57880E+000	9	...........
	37	0.506667	6.26866E-001	1.00943E-004	0.00000E+000	6.32776E-005	5.99601E-002	6.27148E-001	3.57880E+000	9	...........
	38	0.52	6.37537E-001	1.00715E-004	0.00000E+000	6.42093E-005	5.99601E-002	6.37811E-001	3.57880E+000	9	...........
	39	0.533333	6.48002E-001	1.00555E-004	0.00000E+000	6.51600E-005	5.99601E-002	6.48294E-001	3.57880E+000	9	...........
	40	0.546667	6.58265E-001	1.00536E-004	0.00000E+000	6.61796E-005	5.99601E-002	6.58539E-001	3.57880E+000	9	...........
	41	0.56	6.68296E-001	1.01930E-004	0.00000E+000	6.81191E-005	5.99601E-002	6.68598E-001	3.57880E+000	9	...........
	42	0.573333	6.78152E-001	1.00815E-004	0.00000E+000	6.83677E-005	5.99601E-002	6.78452E-001	3.57982E+000	9	...........
	43	0.586667	6.87792E-001	1.01030E-004	0.00000E+000	6.94879E-005	5.99601E-002	6.88087E-001	3.58030E+000	9	...........
	44	0.6	6.97264E-001	1.00791E-004	0.00000E+000	7.02778E-005	5.99601E-002	6.97535E-001	3.58030E+000	9	...........
	45	0.613333	7.06506E-001	1.00833E-004	0.00000E+000	7.12395E-005	5.99601E-002	7.06796E-001	3.58030E+000	9	...........
	46	0.626667	7.15625E-001	1.00425E-004	0.00000E+000	7.18666E-005	5.99601E-002	7.15895E-001	3.58030E+000	9	...........
	47	0.64	7.24555E-001	9.96321E-005	0.00000E+000	7.21890E-005	5.99601E-002	7.24814E-001	3.58030E+000	9	...........
	48	0.653333	7.33281E-001	1.00787E-004	0.00000E+000	7.39049E-005	5.99601E-002	7.33559E-001	3.58030E+000	9	...........
	49	0.666667	7.41861E-001	1.00297E-004	0.00000E+000	7.44063E-005	5.99601E-002	7.42116E-001	3.58030E+000	9	...........
	50	0.68	7.50274E-001	1.00827E-004	0.00000E+000	7.56480E-005	5.99601E-002	7.50521E-001	3.58030E+000	9	...........
	51	0.693333	7.58544E-001	1.01891E-004	0.00000E+000	7.72888E-005	5.99601E-002	7.58766E-001	3.58030E+000	9	...........
	52	0.706667	7.66636E-001	1.01049E-004	0.00000E+000	7.74679E-005	5.99601E-002	7.66895E-001	3.58030E+000	9	...........
	53	0.72	7.74574E-001	1.00292E-004	0.00000E+000	7.76833E-005	5.99601E-002	7.74824E-001	3.58030E+000	9	...........
	54	0.733333	7.82382E-001	1.01319E-004	0.00000E+000	7.92701E-005	5.99601E-002	7.82622E-001	3.58030E+000	9	...........
	55	0.746667	7.90035E-001	1.00585E-004	0.00000E+000	7.94660E-005	5.99601E-002	7.90265E-001	3.58030E+000	9	...........
	56	0.76	7.97575E-001	1.01536E-004	0.00000E+000	8.09823E-005	5.99601E-002	7.97802E-001	3.58030E+000	9	...........
	57	0.773333	8.04938E-001	1.01464E-004	0.00000E+000	8.16720E-005	5.99601E-002	8.05193E-001	3.58030E+000	9	...........
	58	0.786667	8.12162E-001	1.01062E-004	0.00000E+000	8.20784E-005	5.99601E-002	8.12471E-001	3.58030E+000	9	...........
	59	0.8	8.19296E-001	1.00964E-004	0.00000E+000	8.27191E-005	5.99601E-002	8.19600E-001	3.58030E+000	9	...........
	60	0.813333	8.26283E-001	1.00627E-004	0.00000E+000	8.31465E-005	5.99601E-002	8.26590E-001	3.58030E+000	9	...........
	61	0.826667	8.33123E-001	1.00345E-004	0.00000E+000	8.35996E-005	5.99601E-002	8.33446E-001	3.58030E+000	9	...........
	62	0.84	8.39852E-001	1.00627E-004	0.00000E+000	8.45119E-005	5.99601E-002	8.40182E-001	3.58030E+000	9	...........
	63	0.853333	8.46511E-001	1.01130E-004	0.00000E+000	8.56079E-005	5.99601E-002	8.46812E-001	3.58030E+000	9	...........
	64	0.866667	8.53010E-001	1.00989E-004	0.00000E+000	8.61444E-005	5.99601E-002	8.53318E-001	3.58030E+000	9	...........
	65	0.88	8.59397E-001	1.00205E-004	0.00000E+000	8.61160E-005	5.99601E-002	8.59724E-001	3.58030E+000	9	...........
	66	0.893333	8.65671E-001	1.00913E-004	0.00000E+000	8.73572E-005	5.99601E-002	8.66017E-001	3.58030E+000	9	...........
	67	0.906667	8.71887E-001	1.00088E-004	0.00000E+000	8.72659E-005	5.99601E-002	8.72219E-001	3.58030E+000	9	...........
	68	0.92	8.77967E-001	1.00804E-004	0.00000E+000	8.85028E-005	5.99601E-002	8.78309E-001	3.58030E+000	9	...........
	69	0.933333	8.83958E-001	9.99739E-005	0.00000E+000	8.83727E-005	5.99601E-002	8.84317E-001	3.58030E+000	9	...........
	70	0.946667	8.89832E-001	1.00451E-004	0.00000E+000	8.93845E-005	5.99601E-002	8.90178E-001	3.58030E+000	9	...........
	71	0.96	8.95609E-001	1.01096E-004	0.00000E+000	9.05424E-005	5.99601E-002	8.95970E-001	3.58030E+000	9	...........
	72	0.97333	9.01268E-001	1.00884E-004	0.00000E+000	9.09240E-005	5.99601E-002	9.01643E-001	3.58030E+000	9	...........
	73	0.98667	9.06847E-001	1.01165E-004	0.00000E+000	9.17409E-005	5.99601E-002	9.07229E-001	3.58030E+000	9	...........
	74	1	9.12327E-001	1.00863E-004	0.00000E+000	9.20197E-005	5.99601E-002	9.12689E-001	3.58030E+000	9	...........
	75	1.01333	9.17703E-001	1.01271E-004	0.00000E+000	9.29367E-005	5.99601E-002	9.18073E-001	3.58030E+000	9	...........
	76	1.02667	9.23035E-001	1.00516E-004	0.00000E+000	9.27795E-005	5.99601E-002	9.23363E-001	3.58030E+000	9	...........
	77	1.04	9.28206E-001	1.01212E-004	0.00000E+000	9.39452E-005	5.99601E-002	9.28537E-001	3.58030E+000	9	...........
	78	1.05333	9.33305E-001	1.00630E-004	0.00000E+000	9.39187E-005	5.99601E-002	9.33629E-001	3.58030E+000	9	...........
	79	1.06667	9.38283E-001	1.00908E-004	0.00000E+000	9.46807E-005	5.99601E-002	9.38631E-001	3.58030E+000	9	...........
	80	1.08	9.43191E-001	9.98166E-005	0.00000E+000	9.41461E-005	5.99601E-002	9.43525E-001	3.58030E+000	9	...........
	81	1.09333	9.48024E-001	1.02335E-004	0.00000E+000	9.70159E-005	5.99601E-002	9.48376E-001	3.58030E+000	9	...........
	82	1.10667	9.52747E-001	1.00433E-004	0.00000E+000	9.56876E-005	5.99601E-002	9.53080E-001	3.58030E+000	9	...........
	83	1.12	9.57383E-001	1.00741E-004	0.00000E+000	9.64474E-005	5.99601E-002	9.57726E-001	3.58030E+000	9	...........
	84	1.13333	9.61931E-001	1.01122E-004	0.00000E+000	9.72724E-005	5.99601E-002	9.62288E-001	3.58030E+000	9	...........
	85	1.14667	9.66391E-001	1.00510E-004	0.00000E+000	9.71324E-005	5.99601E-002	9.66736E-001	3.58030E+000	9	...........
	86	1.16	9.70742E-001	1.00583E-004	0.00000E+000	9.76405E-005	5.99601E-002	9.71125E-001	3.58030E+000	9	...........
	87	1.17333	9.75088E-001	1.00720E-004	0.00000E+000	9.82108E-005	5.99601E-002	9.75421E-001	3.58030E+000	9	...........
	88	1.18667	9.79291E-001	1.01119E-004	0.00000E+000	9.90248E-005	5.99601E-002	9.79603E-001	3.58030E+000	9	...........
	89	1.2	9.83377E-001	1.00441E-004	0.00000E+000	9.87711E-005	5.99601E-002	9.83712E-001	3.58030E+000	9	...........
	90	1.21333	9.87401E-001	1.01082E-004	0.00000E+000	9.98089E-005	5.99601E-002	9.87750E-001	3.58030E+000	9	...........
	91	1.22667	9.91344E-001	1.00332E-004	0.00000E+000	9.94638E-005	5.99601E-002	9.91707E-001	3.58030E+000	9	...........
	92	1.24	9.95196E-001	1.01786E-004	0.00000E+000	1.01297E-004	5.99601E-002	9.95577E-001	3.58030E+000	9	...........
	93	1.25167	9.98776E-001	1.01030E-004	0.00000E+000	1.00907E-004	5.99601E-002	9.99149E-001	3.58030E+000	9	...........
STARTTIMEOFFSET	QUANT	791.3112	Start Time Offset (s)
