EXPLAIN
TAG	PWR800_CHARGE
TITLE	LABEL	PWR Cyclic Charge Discharge (Cell) - Charge Step	Test &Identifier
DATE	LABEL	13-7-2017	Date
TIME	LABEL	15:08:11	Time
NOTES	NOTES	2	&Notes...
	supercap test cell
	6M KOH
PSTAT	PSTAT	IFC5000-01520	Potentiostat
CAPACITY	QUANT	1.00000E-003	Capacity (A-hr)
CELLTYPE	SELECTOR	1	&Cell Type
WORKINGCONNECTION	SELECTOR	0	&Working Lead
MAXCHARGETIME	VARIABLEANDUNITS	1.00000E+002	s	1.00000E+002	second(s)	Max &Charge Time
CHARGECURRENT	QUANT	1.00000E-004	&Charge Current (A) 
VOLTAGEFINISH	TWOPARAM	F	1.00000E-003	3.60000E+003	&Voltage Finish	 I (A) < 	Max Time(s)
SAMPLETIME	QUANT	1.00000E-002	Sa&mple Period (s)
CHARGESTOPAT1	MULTIPARAM	4	1.00000E+000	Charge Stop At &1	Voltage > Limit	V
CHARGESTOPAT2	MULTIPARAM	0	0.00000E+000	Charge Stop At &2	None	N/A
AESBHCSELECTOR	TOGGLE	F	Save Both Half Cells
IRCOMP	TOGGLE	F	IR &Measure
EOC	QUANT	0	Open Circuit (V)
SEQUENCER	TOGGLE	TRUE	Run as Sequence
PSTATMODEL	IQUANT	53	Pstat Model
PSTATSECTION	LABEL	IFC5000-01520	Pstat Section
PSTATSERIALNO	LABEL	01520	Pstat Serial Number
CTRLMODE	IQUANT	0	Control Mode
ELECTROMETER	IQUANT	1	RE=0 or CS=1
IESTAB	IQUANT	0	I/E Stability
CASPEED	IQUANT	4	Control Amp Speed
CONVENTION	IQUANT	1	Current Convention
ICHRANGE	IQUANT	2	Ich Range
ICHRANGEMODE	TOGGLE	T	Ich Auto Range
ICHOFFSETENABLE	TOGGLE	F	Ich Offset Enable
ICHOFFSET	QUANT	0	Ich Offset (V)
ICHFILTER	IQUANT	1	Ich Filter
VCHRANGE	IQUANT	2	Vch Range
VCHRANGEMODE	TOGGLE	T	Vch Auto Range
VCHOFFSETENABLE	TOGGLE	F	Vch Offset Enable
VCHOFFSET	QUANT	0	Vch Offset (V)
VCHFILTER	IQUANT	1	Vch Filter
IERANGELOWERLIMIT	IQUANT	9	I/E Range Lower Limit
IERANGEMODE	TOGGLE	F	I/E AutoRange
IERANGE	IQUANT	9	I/E Range
ACHSELECT	IQUANT	1	Ach Select
ACHRANGE	IQUANT	2	Ach Range
ACHOFFSETENABLE	TOGGLE	F	Ach Offset Enable
ACHOFFSET	QUANT	0	Ach Offset (V)
ACHFILTER	IQUANT	1	Ach Filter
CABLEID	IQUANT	14	Cable ID
DCCALDATE	LABEL	5-7-2017	DC Calibration Date
ACCALDATE	LABEL	12/3/2015	AC Calibration Date
FRAMEWORKVERSION	QUANT	7.01	Framework Version
INSTRUMENTVERSION	LABEL	4.00	Instrument Version
CURVE	TABLE	99
	Pt	T	Vf	Im	Vu	Pwr	Sig	Ach	Temp	IERange	Over
	#	s	V	A	V	W	V	V	deg C	#	bits
	0	0.013333	1.34869E-001	1.01710E-004	0.00000E+000	1.37174E-005	5.99601E-002	1.34908E-001	3.57920E+000	9	...........
	1	0.026667	1.50208E-001	1.00794E-004	0.00000E+000	1.51401E-005	5.99601E-002	1.50227E-001	3.57920E+000	9	...........
	2	0.04	1.65102E-001	1.00829E-004	0.00000E+000	1.66472E-005	5.99601E-002	1.65133E-001	3.57920E+000	9	...........
	3	0.053333	1.79738E-001	1.01558E-004	0.00000E+000	1.82537E-005	5.99601E-002	1.79762E-001	3.57920E+000	9	...........
	4	0.066667	1.94168E-001	1.00770E-004	0.00000E+000	1.95663E-005	5.99601E-002	1.94203E-001	3.57920E+000	9	...........
	5	0.08	2.08455E-001	1.01191E-004	0.00000E+000	2.10937E-005	5.99601E-002	2.08484E-001	3.57920E+000	9	...........
	6	0.093333	2.22630E-001	1.00081E-004	0.00000E+000	2.22811E-005	5.99601E-002	2.22668E-001	3.57920E+000	9	...........
	7	0.106667	2.36728E-001	1.01193E-004	0.00000E+000	2.39552E-005	5.99601E-002	2.36773E-001	3.57920E+000	9	...........
	8	0.12	2.50772E-001	1.01213E-004	0.00000E+000	2.53813E-005	5.99601E-002	2.50817E-001	3.57920E+000	9	...........
	9	0.133333	2.64761E-001	1.00374E-004	0.00000E+000	2.65751E-005	5.99601E-002	2.64813E-001	3.57920E+000	9	...........
	10	0.146667	2.78737E-001	1.00754E-004	0.00000E+000	2.80839E-005	5.99601E-002	2.78791E-001	3.57920E+000	9	...........
	11	0.16	2.92680E-001	1.01265E-004	0.00000E+000	2.96381E-005	5.99601E-002	2.92735E-001	3.57920E+000	9	...........
	12	0.173333	3.06620E-001	1.01423E-004	0.00000E+000	3.10983E-005	5.99601E-002	3.06673E-001	3.57920E+000	9	...........
	13	0.186667	3.20542E-001	1.00494E-004	0.00000E+000	3.22125E-005	5.99601E-002	3.20595E-001	3.57920E+000	9	...........
	14	0.2	3.34446E-001	1.00514E-004	0.00000E+000	3.36164E-005	5.99601E-002	3.34503E-001	3.57920E+000	9	...........
	15	0.213333	3.48344E-001	1.00334E-004	0.00000E+000	3.49509E-005	5.99601E-002	3.48403E-001	3.57920E+000	9	...........
	16	0.226667	3.62215E-001	1.00981E-004	0.00000E+000	3.65769E-005	5.99601E-002	3.62286E-001	3.57920E+000	9	...........
	17	0.24	3.76059E-001	1.01301E-004	0.00000E+000	3.80952E-005	5.99601E-002	3.76130E-001	3.57920E+000	9	...........
	18	0.253333	3.89859E-001	1.01876E-004	0.00000E+000	3.97174E-005	5.99601E-002	3.89931E-001	3.57920E+000	9	...........
	19	0.266667	4.03596E-001	1.01600E-004	0.00000E+000	4.10055E-005	5.99601E-002	4.03674E-001	3.57920E+000	9	...........
	20	0.28	4.17257E-001	1.00665E-004	0.00000E+000	4.20031E-005	5.99601E-002	4.17336E-001	3.57920E+000	9	...........
	21	0.293333	4.30822E-001	1.01268E-004	0.00000E+000	4.36284E-005	5.99601E-002	4.30909E-001	3.57920E+000	9	...........
	22	0.306667	4.44276E-001	1.01702E-004	0.00000E+000	4.51840E-005	5.99601E-002	4.44370E-001	3.57920E+000	9	...........
	23	0.32	4.57599E-001	1.00778E-004	0.00000E+000	4.61160E-005	5.99601E-002	4.57692E-001	3.57920E+000	9	...........
	24	0.333333	4.70780E-001	1.00983E-004	0.00000E+000	4.75410E-005	5.99601E-002	4.70871E-001	3.57920E+000	9	...........
	25	0.346667	4.83795E-001	1.00850E-004	0.00000E+000	4.87908E-005	5.99601E-002	4.83888E-001	3.57920E+000	9	...........
	26	0.36	4.96618E-001	1.00962E-004	0.00000E+000	5.01393E-005	5.99601E-002	4.96720E-001	3.57920E+000	9	...........
	27	0.373333	5.09256E-001	1.00635E-004	0.00000E+000	5.12492E-005	5.99601E-002	5.09361E-001	3.57920E+000	9	...........
	28	0.386667	5.21700E-001	1.00501E-004	0.00000E+000	5.24314E-005	5.99601E-002	5.21806E-001	3.57920E+000	9	...........
	29	0.4	5.33732E-001	1.00995E-004	0.00000E+000	5.39043E-005	5.99601E-002	5.33917E-001	3.57920E+000	9	...........
	30	0.413333	5.45579E-001	1.01611E-004	0.00000E+000	5.54367E-005	5.99601E-002	5.45849E-001	3.57920E+000	9	...........
	31	0.426667	5.57367E-001	1.01418E-004	0.00000E+000	5.65271E-005	5.99601E-002	5.57629E-001	3.57920E+000	9	...........
	32	0.44	5.68957E-001	1.00001E-004	0.00000E+000	5.68962E-005	5.99601E-002	5.69225E-001	3.57920E+000	9	...........
	33	0.453333	5.80270E-001	9.99687E-005	0.00000E+000	5.80088E-005	5.99601E-002	5.80556E-001	3.57920E+000	9	...........
	34	0.466667	5.91402E-001	1.00774E-004	0.00000E+000	5.95980E-005	5.99601E-002	5.91708E-001	3.57920E+000	9	...........
	35	0.48	6.02288E-001	1.02045E-004	0.00000E+000	6.14605E-005	5.99601E-002	6.02630E-001	3.57920E+000	9	...........
	36	0.493333	6.12990E-001	1.00852E-004	0.00000E+000	6.18214E-005	5.99601E-002	6.13311E-001	3.57920E+000	9	...........
	37	0.506667	6.23484E-001	1.00947E-004	0.00000E+000	6.29389E-005	5.99601E-002	6.23791E-001	3.57920E+000	9	...........
	38	0.52	6.33712E-001	1.00817E-004	0.00000E+000	6.38888E-005	5.99601E-002	6.34034E-001	3.57920E+000	9	...........
	39	0.533333	6.43788E-001	1.01302E-004	0.00000E+000	6.52172E-005	5.99601E-002	6.44109E-001	3.57920E+000	9	...........
	40	0.546667	6.53639E-001	1.00922E-004	0.00000E+000	6.59666E-005	5.99601E-002	6.53973E-001	3.57920E+000	9	...........
	41	0.56	6.63298E-001	1.00825E-004	0.00000E+000	6.68771E-005	5.99601E-002	6.63624E-001	3.57920E+000	9	...........
	42	0.573333	6.72771E-001	1.00633E-004	0.00000E+000	6.77033E-005	5.99601E-002	6.73060E-001	3.57920E+000	9	...........
	43	0.586667	6.82043E-001	1.01535E-004	0.00000E+000	6.92510E-005	5.99601E-002	6.82320E-001	3.57920E+000	9	...........
	44	0.6	6.91134E-001	1.01166E-004	0.00000E+000	6.99192E-005	5.99601E-002	6.91422E-001	3.57920E+000	9	...........
	45	0.613333	7.00040E-001	1.01201E-004	0.00000E+000	7.08449E-005	5.99601E-002	7.00327E-001	3.57920E+000	9	...........
	46	0.626667	7.08766E-001	1.01558E-004	0.00000E+000	7.19805E-005	5.99601E-002	7.09071E-001	3.57920E+000	9	...........
	47	0.64	7.17352E-001	1.00608E-004	0.00000E+000	7.21716E-005	5.99601E-002	7.17651E-001	3.57920E+000	9	...........
	48	0.653333	7.25767E-001	1.00579E-004	0.00000E+000	7.29971E-005	5.99601E-002	7.26048E-001	3.57920E+000	9	...........
	49	0.666667	7.33993E-001	1.01493E-004	0.00000E+000	7.44951E-005	5.99601E-002	7.34271E-001	3.57920E+000	9	...........
	50	0.68	7.42064E-001	1.00670E-004	0.00000E+000	7.47035E-005	5.99601E-002	7.42375E-001	3.57920E+000	9	...........
	51	0.693333	7.50015E-001	1.00883E-004	0.00000E+000	7.56641E-005	5.99601E-002	7.50316E-001	3.57920E+000	9	...........
	52	0.706667	7.57803E-001	1.00776E-004	0.00000E+000	7.63684E-005	5.99601E-002	7.58086E-001	3.57920E+000	9	...........
	53	0.72	7.65424E-001	1.00908E-004	0.00000E+000	7.72378E-005	5.99601E-002	7.65741E-001	3.57920E+000	9	...........
	54	0.733333	7.72937E-001	1.01007E-004	0.00000E+000	7.80724E-005	5.99601E-002	7.73236E-001	3.57920E+000	9	...........
	55	0.746667	7.80286E-001	1.00822E-004	0.00000E+000	7.86700E-005	5.99601E-002	7.80599E-001	3.57920E+000	9	...........
	56	0.76	7.87536E-001	1.00137E-004	0.00000E+000	7.88619E-005	5.99601E-002	7.87831E-001	3.57920E+000	9	...........
	57	0.773333	7.94645E-001	1.00423E-004	0.00000E+000	7.98006E-005	5.99601E-002	7.94933E-001	3.57920E+000	9	...........
	58	0.786667	8.01601E-001	1.01788E-004	0.00000E+000	8.15932E-005	5.99601E-002	8.01927E-001	3.57920E+000	9	...........
	59	0.8	8.08450E-001	1.00721E-004	0.00000E+000	8.14278E-005	5.99601E-002	8.08785E-001	3.57920E+000	9	...........
	60	0.813333	8.15195E-001	1.00983E-004	0.00000E+000	8.23212E-005	5.99601E-002	8.15513E-001	3.57958E+000	9	...........
	61	0.826667	8.21823E-001	1.01076E-004	0.00000E+000	8.30667E-005	5.99601E-002	8.22156E-001	3.58020E+000	9	...........
	62	0.84	8.28333E-001	1.01207E-004	0.00000E+000	8.38334E-005	5.99601E-002	8.28652E-001	3.58020E+000	9	...........
	63	0.853333	8.34702E-001	9.92133E-005	0.00000E+000	8.28136E-005	5.99601E-002	8.35070E-001	3.58020E+000	9	...........
	64	0.866667	8.41010E-001	1.00492E-004	0.00000E+000	8.45145E-005	5.99601E-002	8.41343E-001	3.58020E+000	9	...........
	65	0.88	8.47243E-001	1.01660E-004	0.00000E+000	8.61305E-005	5.99601E-002	8.47547E-001	3.58020E+000	9	...........
	66	0.893333	8.53339E-001	1.01043E-004	0.00000E+000	8.62238E-005	5.99601E-002	8.53609E-001	3.58020E+000	9	...........
	67	0.906667	8.59289E-001	1.01289E-004	0.00000E+000	8.70363E-005	5.99601E-002	8.59598E-001	3.58020E+000	9	...........
	68	0.92	8.65160E-001	1.01544E-004	0.00000E+000	8.78518E-005	5.99601E-002	8.65496E-001	3.58020E+000	9	...........
	69	0.933333	8.70988E-001	1.00861E-004	0.00000E+000	8.78483E-005	5.99601E-002	8.71302E-001	3.58020E+000	9	...........
	70	0.946667	8.76673E-001	1.00814E-004	0.00000E+000	8.83806E-005	5.99601E-002	8.77014E-001	3.58020E+000	9	...........
	71	0.96	8.82266E-001	1.01147E-004	0.00000E+000	8.92386E-005	5.99601E-002	8.82627E-001	3.58020E+000	9	...........
	72	0.97333	8.87780E-001	1.01307E-004	0.00000E+000	8.99387E-005	5.99601E-002	8.88132E-001	3.58020E+000	9	...........
	73	0.98667	8.93187E-001	9.99134E-005	0.00000E+000	8.92414E-005	5.99601E-002	8.93552E-001	3.58020E+000	9	...........
	74	1	8.98532E-001	1.00010E-004	0.00000E+000	8.98625E-005	5.99601E-002	8.98885E-001	3.58020E+000	9	...........
	75	1.01333	9.03754E-001	1.00734E-004	0.00000E+000	9.10392E-005	5.99601E-002	9.04119E-001	3.58020E+000	9	...........
	76	1.02667	9.08896E-001	1.00649E-004	0.00000E+000	9.14795E-005	5.99601E-002	9.09239E-001	3.58020E+000	9	...........
	77	1.04	9.13949E-001	1.01235E-004	0.00000E+000	9.25232E-005	5.99601E-002	9.14292E-001	3.58020E+000	9	...........
	78	1.05333	9.18922E-001	1.02014E-004	0.00000E+000	9.37428E-005	5.99601E-002	9.19265E-001	3.58020E+000	9	...........
	79	1.06667	9.23868E-001	1.01108E-004	0.00000E+000	9.34109E-005	5.99601E-002	9.24167E-001	3.58020E+000	9	...........
	80	1.08	9.28671E-001	1.00666E-004	0.00000E+000	9.34853E-005	5.99601E-002	9.28987E-001	3.58020E+000	9	...........
	81	1.09333	9.33384E-001	1.00517E-004	0.00000E+000	9.38207E-005	5.99601E-002	9.33718E-001	3.58020E+000	9	...........
	82	1.10667	9.38017E-001	1.00818E-004	0.00000E+000	9.45688E-005	5.99601E-002	9.38350E-001	3.58020E+000	9	...........
	83	1.12	9.42560E-001	1.01909E-004	0.00000E+000	9.60550E-005	5.99601E-002	9.42913E-001	3.58020E+000	9	...........
	84	1.13333	9.47054E-001	1.01907E-004	0.00000E+000	9.65110E-005	5.99601E-002	9.47409E-001	3.58020E+000	9	...........
	85	1.14667	9.51456E-001	1.00073E-004	0.00000E+000	9.52149E-005	5.99601E-002	9.51819E-001	3.58020E+000	9	...........
	86	1.16	9.55772E-001	1.00332E-004	0.00000E+000	9.58948E-005	5.99601E-002	9.56133E-001	3.58020E+000	9	...........
	87	1.17333	9.60004E-001	1.00981E-004	0.00000E+000	9.69425E-005	5.99601E-002	9.60374E-001	3.58020E+000	9	...........
	88	1.18667	9.64164E-001	1.00652E-004	0.00000E+000	9.70452E-005	5.99601E-002	9.64563E-001	3.58020E+000	9	...........
	89	1.2	9.68249E-001	1.02155E-004	0.00000E+000	9.89111E-005	5.99601E-002	9.68600E-001	3.58020E+000	9	...........
	90	1.21333	9.72280E-001	1.01228E-004	0.00000E+000	9.84222E-005	5.99601E-002	9.72619E-001	3.58020E+000	9	...........
	91	1.22667	9.76233E-001	1.00386E-004	0.00000E+000	9.80006E-005	5.99601E-002	9.76564E-001	3.58020E+000	9	...........
	92	1.24	9.80072E-001	1.00916E-004	0.00000E+000	9.89047E-005	5.99601E-002	9.80431E-001	3.58020E+000	9	...........
	93	1.25333	9.83838E-001	1.01641E-004	0.00000E+000	9.99981E-005	5.99601E-002	9.84204E-001	3.58020E+000	9	...........
	94	1.26667	9.87546E-001	1.01099E-004	0.00000E+000	9.98401E-005	5.99601E-002	9.87924E-001	3.58020E+000	9	...........
	95	1.28	9.91174E-001	1.00712E-004	0.00000E+000	9.98227E-005	5.99601E-002	9.91540E-001	3.58020E+000	9	...........
	96	1.29333	9.94717E-001	1.01274E-004	0.00000E+000	1.00739E-004	5.99601E-002	9.95102E-001	3.58020E+000	9	...........
	97	1.30667	9.98220E-001	1.00380E-004	0.00000E+000	1.00202E-004	5.99601E-002	9.98607E-001	3.58020E+000	9	...........
	98	1.30833	1.00016E+000	1.01190E-004	0.00000E+000	1.01206E-004	5.99601E-002	1.00052E+000	3.58020E+000	9	...........
STARTTIMEOFFSET	QUANT	275.2733	Start Time Offset (s)
