EXPLAIN
TAG	PWR800_CHARGE
TITLE	LABEL	PWR Cyclic Charge Discharge (Cell) - Charge Step	Test &Identifier
DATE	LABEL	13-7-2017	Date
TIME	LABEL	15:14:23	Time
NOTES	NOTES	2	&Notes...
	supercap test cell
	6M KOH
PSTAT	PSTAT	IFC5000-01520	Potentiostat
CAPACITY	QUANT	1.00000E-003	Capacity (A-hr)
CELLTYPE	SELECTOR	1	&Cell Type
WORKINGCONNECTION	SELECTOR	0	&Working Lead
MAXCHARGETIME	VARIABLEANDUNITS	1.00000E+002	s	1.00000E+002	second(s)	Max &Charge Time
CHARGECURRENT	QUANT	1.00000E-004	&Charge Current (A) 
VOLTAGEFINISH	TWOPARAM	F	1.00000E-003	3.60000E+003	&Voltage Finish	 I (A) < 	Max Time(s)
SAMPLETIME	QUANT	1.00000E-002	Sa&mple Period (s)
CHARGESTOPAT1	MULTIPARAM	4	1.00000E+000	Charge Stop At &1	Voltage > Limit	V
CHARGESTOPAT2	MULTIPARAM	0	0.00000E+000	Charge Stop At &2	None	N/A
AESBHCSELECTOR	TOGGLE	F	Save Both Half Cells
IRCOMP	TOGGLE	F	IR &Measure
EOC	QUANT	0	Open Circuit (V)
SEQUENCER	TOGGLE	TRUE	Run as Sequence
PSTATMODEL	IQUANT	53	Pstat Model
PSTATSECTION	LABEL	IFC5000-01520	Pstat Section
PSTATSERIALNO	LABEL	01520	Pstat Serial Number
CTRLMODE	IQUANT	0	Control Mode
ELECTROMETER	IQUANT	1	RE=0 or CS=1
IESTAB	IQUANT	0	I/E Stability
CASPEED	IQUANT	4	Control Amp Speed
CONVENTION	IQUANT	1	Current Convention
ICHRANGE	IQUANT	2	Ich Range
ICHRANGEMODE	TOGGLE	T	Ich Auto Range
ICHOFFSETENABLE	TOGGLE	F	Ich Offset Enable
ICHOFFSET	QUANT	0	Ich Offset (V)
ICHFILTER	IQUANT	1	Ich Filter
VCHRANGE	IQUANT	2	Vch Range
VCHRANGEMODE	TOGGLE	T	Vch Auto Range
VCHOFFSETENABLE	TOGGLE	F	Vch Offset Enable
VCHOFFSET	QUANT	0	Vch Offset (V)
VCHFILTER	IQUANT	1	Vch Filter
IERANGELOWERLIMIT	IQUANT	9	I/E Range Lower Limit
IERANGEMODE	TOGGLE	F	I/E AutoRange
IERANGE	IQUANT	9	I/E Range
ACHSELECT	IQUANT	1	Ach Select
ACHRANGE	IQUANT	2	Ach Range
ACHOFFSETENABLE	TOGGLE	F	Ach Offset Enable
ACHOFFSET	QUANT	0	Ach Offset (V)
ACHFILTER	IQUANT	1	Ach Filter
CABLEID	IQUANT	14	Cable ID
DCCALDATE	LABEL	5-7-2017	DC Calibration Date
ACCALDATE	LABEL	12/3/2015	AC Calibration Date
FRAMEWORKVERSION	QUANT	7.01	Framework Version
INSTRUMENTVERSION	LABEL	4.00	Instrument Version
CURVE	TABLE	96
	Pt	T	Vf	Im	Vu	Pwr	Sig	Ach	Temp	IERange	Over
	#	s	V	A	V	W	V	V	deg C	#	bits
	0	0.013333	1.34961E-001	1.00579E-004	0.00000E+000	1.35742E-005	5.99601E-002	1.34997E-001	3.57910E+000	9	...........
	1	0.026667	1.50191E-001	1.01375E-004	0.00000E+000	1.52256E-005	5.99601E-002	1.50208E-001	3.57910E+000	9	...........
	2	0.04	1.64977E-001	1.00812E-004	0.00000E+000	1.66316E-005	5.99601E-002	1.65001E-001	3.57910E+000	9	...........
	3	0.053333	1.79494E-001	1.00780E-004	0.00000E+000	1.80894E-005	5.99601E-002	1.79528E-001	3.57910E+000	9	...........
	4	0.066667	1.93821E-001	1.01471E-004	0.00000E+000	1.96672E-005	5.99601E-002	1.93860E-001	3.57910E+000	9	...........
	5	0.08	2.08007E-001	1.00943E-004	0.00000E+000	2.09968E-005	5.99601E-002	2.08038E-001	3.57910E+000	9	...........
	6	0.093333	2.22078E-001	1.01002E-004	0.00000E+000	2.24304E-005	5.99601E-002	2.22120E-001	3.57910E+000	9	...........
	7	0.106667	2.36086E-001	1.01138E-004	0.00000E+000	2.38772E-005	5.99601E-002	2.36129E-001	3.57910E+000	9	...........
	8	0.12	2.50031E-001	1.00475E-004	0.00000E+000	2.51219E-005	5.99601E-002	2.50078E-001	3.57910E+000	9	...........
	9	0.133333	2.63945E-001	1.01270E-004	0.00000E+000	2.67297E-005	5.99601E-002	2.64000E-001	3.57910E+000	9	...........
	10	0.146667	2.77839E-001	9.93613E-005	0.00000E+000	2.76064E-005	5.99601E-002	2.77896E-001	3.57910E+000	9	...........
	11	0.16	2.91725E-001	1.00779E-004	0.00000E+000	2.93998E-005	5.99601E-002	2.91779E-001	3.57910E+000	9	...........
	12	0.173333	3.05606E-001	1.00980E-004	0.00000E+000	3.08601E-005	5.99601E-002	3.05671E-001	3.57910E+000	9	...........
	13	0.186667	3.19490E-001	1.00360E-004	0.00000E+000	3.20641E-005	5.99601E-002	3.19549E-001	3.57910E+000	9	...........
	14	0.2	3.33371E-001	1.01244E-004	0.00000E+000	3.37518E-005	5.99601E-002	3.33437E-001	3.57910E+000	9	...........
	15	0.213333	3.47253E-001	1.00968E-004	0.00000E+000	3.50614E-005	5.99601E-002	3.47323E-001	3.57910E+000	9	...........
	16	0.226667	3.61138E-001	1.00797E-004	0.00000E+000	3.64017E-005	5.99601E-002	3.61209E-001	3.57910E+000	9	...........
	17	0.24	3.75012E-001	1.01649E-004	0.00000E+000	3.81197E-005	5.99601E-002	3.75086E-001	3.57910E+000	9	...........
	18	0.253333	3.88858E-001	1.00772E-004	0.00000E+000	3.91860E-005	5.99601E-002	3.88928E-001	3.57910E+000	9	...........
	19	0.266667	4.02662E-001	1.00595E-004	0.00000E+000	4.05057E-005	5.99601E-002	4.02741E-001	3.57910E+000	9	...........
	20	0.28	4.16414E-001	1.01603E-004	0.00000E+000	4.23091E-005	5.99601E-002	4.16503E-001	3.57910E+000	9	...........
	21	0.293333	4.30106E-001	1.00836E-004	0.00000E+000	4.33699E-005	5.99601E-002	4.30195E-001	3.57910E+000	9	...........
	22	0.306667	4.43696E-001	1.00868E-004	0.00000E+000	4.47547E-005	5.99601E-002	4.43792E-001	3.57910E+000	9	...........
	23	0.32	4.57183E-001	1.00110E-004	0.00000E+000	4.57687E-005	5.99601E-002	4.57275E-001	3.57910E+000	9	...........
	24	0.333333	4.70537E-001	1.01046E-004	0.00000E+000	4.75458E-005	5.99601E-002	4.70632E-001	3.57910E+000	9	...........
	25	0.346667	4.83739E-001	1.01197E-004	0.00000E+000	4.89529E-005	5.99601E-002	4.83840E-001	3.57910E+000	9	...........
	26	0.36	4.96782E-001	1.00279E-004	0.00000E+000	4.98169E-005	5.99601E-002	4.96889E-001	3.57910E+000	9	...........
	27	0.373333	5.09643E-001	1.01645E-004	0.00000E+000	5.18027E-005	5.99601E-002	5.09747E-001	3.57910E+000	9	...........
	28	0.386667	5.22317E-001	1.02063E-004	0.00000E+000	5.33092E-005	5.99601E-002	5.22418E-001	3.57910E+000	9	...........
	29	0.4	5.34593E-001	1.00559E-004	0.00000E+000	5.37583E-005	5.99601E-002	5.34750E-001	3.57910E+000	9	...........
	30	0.413333	5.46666E-001	1.00691E-004	0.00000E+000	5.50442E-005	5.99601E-002	5.46930E-001	3.57910E+000	9	...........
	31	0.426667	5.58714E-001	1.00848E-004	0.00000E+000	5.63452E-005	5.99601E-002	5.58976E-001	3.57910E+000	9	...........
	32	0.44	5.70562E-001	1.00557E-004	0.00000E+000	5.73742E-005	5.99601E-002	5.70812E-001	3.57910E+000	9	...........
	33	0.453333	5.82133E-001	1.01997E-004	0.00000E+000	5.93759E-005	5.99601E-002	5.82420E-001	3.57910E+000	9	...........
	34	0.466667	5.93511E-001	1.01538E-004	0.00000E+000	6.02637E-005	5.99601E-002	5.93798E-001	3.57910E+000	9	...........
	35	0.48	6.04646E-001	1.00129E-004	0.00000E+000	6.05427E-005	5.99601E-002	6.04935E-001	3.57910E+000	9	...........
	36	0.493333	6.15601E-001	1.00790E-004	0.00000E+000	6.20463E-005	5.99601E-002	6.15877E-001	3.57910E+000	9	...........
	37	0.506667	6.26313E-001	1.01119E-004	0.00000E+000	6.33321E-005	5.99601E-002	6.26584E-001	3.57910E+000	9	...........
	38	0.52	6.36797E-001	1.01774E-004	0.00000E+000	6.48095E-005	5.99601E-002	6.37068E-001	3.57910E+000	9	...........
	39	0.533333	6.47123E-001	1.00380E-004	0.00000E+000	6.49584E-005	5.99601E-002	6.47379E-001	3.57910E+000	9	...........
	40	0.546667	6.57209E-001	1.01091E-004	0.00000E+000	6.64378E-005	5.99601E-002	6.57452E-001	3.57910E+000	9	...........
	41	0.56	6.67078E-001	1.00818E-004	0.00000E+000	6.72533E-005	5.99601E-002	6.67375E-001	3.57910E+000	9	...........
	42	0.573333	6.76772E-001	1.01526E-004	0.00000E+000	6.87101E-005	5.99601E-002	6.77068E-001	3.57910E+000	9	...........
	43	0.586667	6.86256E-001	1.01129E-004	0.00000E+000	6.94006E-005	5.99601E-002	6.86540E-001	3.57910E+000	9	...........
	44	0.6	6.95569E-001	1.00226E-004	0.00000E+000	6.97141E-005	5.99601E-002	6.95855E-001	3.57910E+000	9	...........
	45	0.613333	7.04703E-001	1.01027E-004	0.00000E+000	7.11942E-005	5.99601E-002	7.04974E-001	3.57910E+000	9	...........
	46	0.626667	7.13621E-001	1.01010E-004	0.00000E+000	7.20826E-005	5.99601E-002	7.13939E-001	3.57910E+000	9	...........
	47	0.64	7.22453E-001	1.01524E-004	0.00000E+000	7.33465E-005	5.99601E-002	7.22733E-001	3.57910E+000	9	...........
	48	0.653333	7.31029E-001	1.00743E-004	0.00000E+000	7.36459E-005	5.99601E-002	7.31331E-001	3.57910E+000	9	...........
	49	0.666667	7.39473E-001	1.01387E-004	0.00000E+000	7.49728E-005	5.99601E-002	7.39759E-001	3.57910E+000	9	...........
	50	0.68	7.47764E-001	1.01303E-004	0.00000E+000	7.57510E-005	5.99601E-002	7.48070E-001	3.57910E+000	9	...........
	51	0.693333	7.55886E-001	1.00900E-004	0.00000E+000	7.62690E-005	5.99601E-002	7.56181E-001	3.57910E+000	9	...........
	52	0.706667	7.63860E-001	1.00932E-004	0.00000E+000	7.70982E-005	5.99601E-002	7.64161E-001	3.57910E+000	9	...........
	53	0.72	7.71698E-001	1.00888E-004	0.00000E+000	7.78548E-005	5.99601E-002	7.72011E-001	3.57910E+000	9	...........
	54	0.733333	7.79368E-001	1.00376E-004	0.00000E+000	7.82299E-005	5.99601E-002	7.79699E-001	3.57910E+000	9	...........
	55	0.746667	7.86902E-001	1.00176E-004	0.00000E+000	7.88287E-005	5.99601E-002	7.87215E-001	3.57910E+000	9	...........
	56	0.76	7.94311E-001	1.00453E-004	0.00000E+000	7.97911E-005	5.99601E-002	7.94627E-001	3.57910E+000	9	...........
	57	0.773333	8.01574E-001	1.01236E-004	0.00000E+000	8.11478E-005	5.99601E-002	8.01880E-001	3.57910E+000	9	...........
	58	0.786667	8.08723E-001	1.00716E-004	0.00000E+000	8.14511E-005	5.99601E-002	8.09050E-001	3.57910E+000	9	...........
	59	0.8	8.15725E-001	1.01839E-004	0.00000E+000	8.30725E-005	5.99601E-002	8.16065E-001	3.57910E+000	9	...........
	60	0.813333	8.22614E-001	1.00889E-004	0.00000E+000	8.29924E-005	5.99601E-002	8.22962E-001	3.57910E+000	9	...........
	61	0.826667	8.29392E-001	1.00173E-004	0.00000E+000	8.30826E-005	5.99601E-002	8.29710E-001	3.57910E+000	9	...........
	62	0.84	8.36023E-001	1.01007E-004	0.00000E+000	8.44445E-005	5.99601E-002	8.36372E-001	3.57910E+000	9	...........
	63	0.853333	8.42568E-001	1.01214E-004	0.00000E+000	8.52794E-005	5.99601E-002	8.42915E-001	3.57910E+000	9	...........
	64	0.866667	8.49029E-001	1.00786E-004	0.00000E+000	8.55698E-005	5.99601E-002	8.49386E-001	3.57910E+000	9	...........
	65	0.88	8.55351E-001	1.01182E-004	0.00000E+000	8.65466E-005	5.99601E-002	8.55719E-001	3.57910E+000	9	...........
	66	0.893333	8.61557E-001	1.00954E-004	0.00000E+000	8.69779E-005	5.99601E-002	8.61933E-001	3.57910E+000	9	...........
	67	0.906667	8.67677E-001	1.01764E-004	0.00000E+000	8.82981E-005	5.99601E-002	8.68058E-001	3.57910E+000	9	...........
	68	0.92	8.73704E-001	1.00680E-004	0.00000E+000	8.79648E-005	5.99601E-002	8.74089E-001	3.57910E+000	9	...........
	69	0.933333	8.79588E-001	1.01515E-004	0.00000E+000	8.92912E-005	5.99601E-002	8.79967E-001	3.57910E+000	9	...........
	70	0.946667	8.85437E-001	1.01268E-004	0.00000E+000	8.96664E-005	5.99601E-002	8.85800E-001	3.57910E+000	9	...........
	71	0.96	8.91113E-001	1.01069E-004	0.00000E+000	9.00638E-005	5.99601E-002	8.91496E-001	3.57910E+000	9	...........
	72	0.97333	8.96742E-001	1.01216E-004	0.00000E+000	9.07644E-005	5.99601E-002	8.97113E-001	3.57910E+000	9	...........
	73	0.98667	9.02247E-001	1.01415E-004	0.00000E+000	9.15012E-005	5.99601E-002	9.02638E-001	3.57895E+000	9	...........
	74	1	9.07663E-001	1.00894E-004	0.00000E+000	9.15776E-005	5.99601E-002	9.08057E-001	3.57870E+000	9	...........
	75	1.01333	9.12995E-001	1.01249E-004	0.00000E+000	9.24400E-005	5.99601E-002	9.13384E-001	3.57870E+000	9	...........
	76	1.02667	9.18216E-001	1.00274E-004	0.00000E+000	9.20731E-005	5.99601E-002	9.18609E-001	3.57870E+000	9	...........
	77	1.04	9.23414E-001	1.00631E-004	0.00000E+000	9.29244E-005	5.99601E-002	9.23747E-001	3.57870E+000	9	...........
	78	1.05333	9.28457E-001	1.01272E-004	0.00000E+000	9.40268E-005	5.99601E-002	9.28802E-001	3.57870E+000	9	...........
	79	1.06667	9.33400E-001	1.00786E-004	0.00000E+000	9.40732E-005	5.99601E-002	9.33768E-001	3.57870E+000	9	...........
	80	1.08	9.38256E-001	1.01342E-004	0.00000E+000	9.50846E-005	5.99601E-002	9.38653E-001	3.57870E+000	9	...........
	81	1.09333	9.43034E-001	1.01828E-004	0.00000E+000	9.60277E-005	5.99601E-002	9.43418E-001	3.57870E+000	9	...........
	82	1.10667	9.47755E-001	1.00507E-004	0.00000E+000	9.52564E-005	5.99601E-002	9.48144E-001	3.57870E+000	9	...........
	83	1.12	9.52350E-001	9.96269E-005	0.00000E+000	9.48797E-005	5.99601E-002	9.52734E-001	3.57870E+000	9	...........
	84	1.13333	9.56869E-001	1.01044E-004	0.00000E+000	9.66858E-005	5.99601E-002	9.57254E-001	3.57870E+000	9	...........
	85	1.14667	9.61298E-001	1.01367E-004	0.00000E+000	9.74438E-005	5.99601E-002	9.61708E-001	3.57870E+000	9	...........
	86	1.16	9.65636E-001	1.01715E-004	0.00000E+000	9.82195E-005	5.99601E-002	9.66073E-001	3.57870E+000	9	...........
	87	1.17333	9.69895E-001	1.01159E-004	0.00000E+000	9.81131E-005	5.99601E-002	9.70334E-001	3.57870E+000	9	...........
	88	1.18667	9.74149E-001	1.01389E-004	0.00000E+000	9.87678E-005	5.99601E-002	9.74553E-001	3.57870E+000	9	...........
	89	1.2	9.78243E-001	1.01481E-004	0.00000E+000	9.92736E-005	5.99601E-002	9.78641E-001	3.57870E+000	9	...........
	90	1.21333	9.82257E-001	1.01252E-004	0.00000E+000	9.94557E-005	5.99601E-002	9.82646E-001	3.57870E+000	9	...........
	91	1.22667	9.86193E-001	1.01410E-004	0.00000E+000	1.00009E-004	5.99601E-002	9.86585E-001	3.57870E+000	9	...........
	92	1.24	9.90066E-001	1.01126E-004	0.00000E+000	1.00122E-004	5.99601E-002	9.90430E-001	3.57870E+000	9	...........
	93	1.25333	9.93830E-001	9.99353E-005	0.00000E+000	9.93187E-005	5.99601E-002	9.94224E-001	3.57870E+000	9	...........
	94	1.26667	9.97541E-001	1.01229E-004	0.00000E+000	1.00980E-004	5.99601E-002	9.97919E-001	3.57870E+000	9	...........
	95	1.27	9.99791E-001	9.96728E-005	0.00000E+000	9.96519E-005	5.99601E-002	1.00018E+000	3.57870E+000	9	...........
STARTTIMEOFFSET	QUANT	558.0948	Start Time Offset (s)
