EXPLAIN
TAG	PWR800_CHARGE
TITLE	LABEL	PWR Cyclic Charge Discharge (Cell) - Charge Step	Test &Identifier
DATE	LABEL	13-7-2017	Date
TIME	LABEL	15:22:59	Time
NOTES	NOTES	2	&Notes...
	supercap test cell
	6M KOH
PSTAT	PSTAT	IFC5000-01520	Potentiostat
CAPACITY	QUANT	1.00000E-003	Capacity (A-hr)
CELLTYPE	SELECTOR	1	&Cell Type
WORKINGCONNECTION	SELECTOR	0	&Working Lead
MAXCHARGETIME	VARIABLEANDUNITS	1.00000E+002	s	1.00000E+002	second(s)	Max &Charge Time
CHARGECURRENT	QUANT	1.00000E-004	&Charge Current (A) 
VOLTAGEFINISH	TWOPARAM	F	1.00000E-003	3.60000E+003	&Voltage Finish	 I (A) < 	Max Time(s)
SAMPLETIME	QUANT	1.00000E-002	Sa&mple Period (s)
CHARGESTOPAT1	MULTIPARAM	4	1.00000E+000	Charge Stop At &1	Voltage > Limit	V
CHARGESTOPAT2	MULTIPARAM	0	0.00000E+000	Charge Stop At &2	None	N/A
AESBHCSELECTOR	TOGGLE	F	Save Both Half Cells
IRCOMP	TOGGLE	F	IR &Measure
EOC	QUANT	0	Open Circuit (V)
SEQUENCER	TOGGLE	TRUE	Run as Sequence
PSTATMODEL	IQUANT	53	Pstat Model
PSTATSECTION	LABEL	IFC5000-01520	Pstat Section
PSTATSERIALNO	LABEL	01520	Pstat Serial Number
CTRLMODE	IQUANT	0	Control Mode
ELECTROMETER	IQUANT	1	RE=0 or CS=1
IESTAB	IQUANT	0	I/E Stability
CASPEED	IQUANT	4	Control Amp Speed
CONVENTION	IQUANT	1	Current Convention
ICHRANGE	IQUANT	2	Ich Range
ICHRANGEMODE	TOGGLE	T	Ich Auto Range
ICHOFFSETENABLE	TOGGLE	F	Ich Offset Enable
ICHOFFSET	QUANT	0	Ich Offset (V)
ICHFILTER	IQUANT	1	Ich Filter
VCHRANGE	IQUANT	2	Vch Range
VCHRANGEMODE	TOGGLE	T	Vch Auto Range
VCHOFFSETENABLE	TOGGLE	F	Vch Offset Enable
VCHOFFSET	QUANT	0	Vch Offset (V)
VCHFILTER	IQUANT	1	Vch Filter
IERANGELOWERLIMIT	IQUANT	9	I/E Range Lower Limit
IERANGEMODE	TOGGLE	F	I/E AutoRange
IERANGE	IQUANT	9	I/E Range
ACHSELECT	IQUANT	1	Ach Select
ACHRANGE	IQUANT	2	Ach Range
ACHOFFSETENABLE	TOGGLE	F	Ach Offset Enable
ACHOFFSET	QUANT	0	Ach Offset (V)
ACHFILTER	IQUANT	1	Ach Filter
CABLEID	IQUANT	14	Cable ID
DCCALDATE	LABEL	5-7-2017	DC Calibration Date
ACCALDATE	LABEL	12/3/2015	AC Calibration Date
FRAMEWORKVERSION	QUANT	7.01	Framework Version
INSTRUMENTVERSION	LABEL	4.00	Instrument Version
CURVE	TABLE	93
	Pt	T	Vf	Im	Vu	Pwr	Sig	Ach	Temp	IERange	Over
	#	s	V	A	V	W	V	V	deg C	#	bits
	0	0.013333	1.32626E-001	1.01279E-004	0.00000E+000	1.34322E-005	5.99601E-002	1.32657E-001	3.57850E+000	9	...........
	1	0.026667	1.47859E-001	1.01298E-004	0.00000E+000	1.49778E-005	5.99601E-002	1.47876E-001	3.57850E+000	9	...........
	2	0.04	1.62653E-001	1.00647E-004	0.00000E+000	1.63705E-005	5.99601E-002	1.62675E-001	3.57850E+000	9	...........
	3	0.053333	1.77180E-001	1.00825E-004	0.00000E+000	1.78642E-005	5.99601E-002	1.77208E-001	3.57850E+000	9	...........
	4	0.066667	1.91516E-001	1.01328E-004	0.00000E+000	1.94060E-005	5.99601E-002	1.91548E-001	3.57850E+000	9	...........
	5	0.08	2.05712E-001	1.00976E-004	0.00000E+000	2.07720E-005	5.99601E-002	2.05747E-001	3.57850E+000	9	...........
	6	0.093333	2.19800E-001	1.01418E-004	0.00000E+000	2.22916E-005	5.99601E-002	2.19839E-001	3.57850E+000	9	...........
	7	0.106667	2.33816E-001	1.01428E-004	0.00000E+000	2.37156E-005	5.99601E-002	2.33857E-001	3.57850E+000	9	...........
	8	0.12	2.47783E-001	1.00225E-004	0.00000E+000	2.48340E-005	5.99601E-002	2.47828E-001	3.57850E+000	9	...........
	9	0.133333	2.61719E-001	1.00332E-004	0.00000E+000	2.62589E-005	5.99601E-002	2.61770E-001	3.57850E+000	9	...........
	10	0.146667	2.75641E-001	1.01237E-004	0.00000E+000	2.79050E-005	5.99601E-002	2.75700E-001	3.57850E+000	9	...........
	11	0.16	2.89562E-001	1.01043E-004	0.00000E+000	2.92582E-005	5.99601E-002	2.89617E-001	3.57850E+000	9	...........
	12	0.173333	3.03483E-001	1.00949E-004	0.00000E+000	3.06364E-005	5.99601E-002	3.03542E-001	3.57850E+000	9	...........
	13	0.186667	3.17415E-001	1.00941E-004	0.00000E+000	3.20401E-005	5.99601E-002	3.17481E-001	3.57850E+000	9	...........
	14	0.2	3.31363E-001	1.00663E-004	0.00000E+000	3.33559E-005	5.99601E-002	3.31423E-001	3.57850E+000	9	...........
	15	0.213333	3.45327E-001	1.00788E-004	0.00000E+000	3.48047E-005	5.99601E-002	3.45393E-001	3.57850E+000	9	...........
	16	0.226667	3.59299E-001	1.01068E-004	0.00000E+000	3.63136E-005	5.99601E-002	3.59366E-001	3.57850E+000	9	...........
	17	0.24	3.73273E-001	1.00221E-004	0.00000E+000	3.74097E-005	5.99601E-002	3.73342E-001	3.57850E+000	9	...........
	18	0.253333	3.87240E-001	1.00918E-004	0.00000E+000	3.90794E-005	5.99601E-002	3.87313E-001	3.57850E+000	9	...........
	19	0.266667	4.01182E-001	1.00597E-004	0.00000E+000	4.03576E-005	5.99601E-002	4.01261E-001	3.57850E+000	9	...........
	20	0.28	4.15087E-001	1.01276E-004	0.00000E+000	4.20385E-005	5.99601E-002	4.15170E-001	3.57850E+000	9	...........
	21	0.293333	4.28939E-001	1.00879E-004	0.00000E+000	4.32711E-005	5.99601E-002	4.29028E-001	3.57850E+000	9	...........
	22	0.306667	4.42721E-001	1.00367E-004	0.00000E+000	4.44344E-005	5.99601E-002	4.42812E-001	3.57850E+000	9	...........
	23	0.32	4.56402E-001	1.00991E-004	0.00000E+000	4.60924E-005	5.99601E-002	4.56491E-001	3.57850E+000	9	...........
	24	0.333333	4.69968E-001	1.00783E-004	0.00000E+000	4.73650E-005	5.99601E-002	4.70063E-001	3.57850E+000	9	...........
	25	0.346667	4.83395E-001	1.00871E-004	0.00000E+000	4.87606E-005	5.99601E-002	4.83499E-001	3.57850E+000	9	...........
	26	0.36	4.96667E-001	1.00410E-004	0.00000E+000	4.98705E-005	5.99601E-002	4.96769E-001	3.57850E+000	9	...........
	27	0.373333	5.09759E-001	1.00492E-004	0.00000E+000	5.12265E-005	5.99601E-002	5.09873E-001	3.57850E+000	9	...........
	28	0.386667	5.22677E-001	1.00544E-004	0.00000E+000	5.25519E-005	5.99601E-002	5.22789E-001	3.57850E+000	9	...........
	29	0.4	5.35212E-001	1.00464E-004	0.00000E+000	5.37693E-005	5.99601E-002	5.35344E-001	3.57850E+000	9	...........
	30	0.413333	5.47558E-001	1.01050E-004	0.00000E+000	5.53308E-005	5.99601E-002	5.47776E-001	3.57850E+000	9	...........
	31	0.426667	5.59817E-001	1.00068E-004	0.00000E+000	5.60196E-005	5.99601E-002	5.60085E-001	3.57850E+000	9	...........
	32	0.44	5.71912E-001	1.00203E-004	0.00000E+000	5.73073E-005	5.99601E-002	5.72158E-001	3.57850E+000	9	...........
	33	0.453333	5.83715E-001	1.00917E-004	0.00000E+000	5.89066E-005	5.99601E-002	5.83987E-001	3.57850E+000	9	...........
	34	0.466667	5.95366E-001	1.01519E-004	0.00000E+000	6.04410E-005	5.99601E-002	5.95646E-001	3.57850E+000	9	...........
	35	0.48	6.06731E-001	1.01270E-004	0.00000E+000	6.14436E-005	5.99601E-002	6.07029E-001	3.57850E+000	9	...........
	36	0.493333	6.17955E-001	1.00805E-004	0.00000E+000	6.22931E-005	5.99601E-002	6.18201E-001	3.57850E+000	9	...........
	37	0.506667	6.28895E-001	1.01237E-004	0.00000E+000	6.36672E-005	5.99601E-002	6.29151E-001	3.57850E+000	9	...........
	38	0.52	6.39618E-001	1.02210E-004	0.00000E+000	6.53752E-005	5.99601E-002	6.39891E-001	3.57850E+000	9	...........
	39	0.533333	6.50134E-001	1.00631E-004	0.00000E+000	6.54239E-005	5.99601E-002	6.50407E-001	3.57850E+000	9	...........
	40	0.546667	6.60430E-001	1.00917E-004	0.00000E+000	6.66485E-005	5.99601E-002	6.60718E-001	3.57850E+000	9	...........
	41	0.56	6.70558E-001	1.01789E-004	0.00000E+000	6.82553E-005	5.99601E-002	6.70815E-001	3.57850E+000	9	...........
	42	0.573333	6.80429E-001	1.00327E-004	0.00000E+000	6.82655E-005	5.99601E-002	6.80717E-001	3.57850E+000	9	...........
	43	0.586667	6.90124E-001	1.01758E-004	0.00000E+000	7.02253E-005	5.99601E-002	6.90408E-001	3.57850E+000	9	...........
	44	0.6	6.99639E-001	1.01244E-004	0.00000E+000	7.08342E-005	5.99601E-002	6.99907E-001	3.57850E+000	9	...........
	45	0.613333	7.08945E-001	1.01182E-004	0.00000E+000	7.17328E-005	5.99601E-002	7.09211E-001	3.57850E+000	9	...........
	46	0.626667	7.18084E-001	1.00891E-004	0.00000E+000	7.24481E-005	5.99601E-002	7.18390E-001	3.57850E+000	9	...........
	47	0.64	7.27064E-001	1.00477E-004	0.00000E+000	7.30533E-005	5.99601E-002	7.27336E-001	3.57850E+000	9	...........
	48	0.653333	7.35817E-001	1.00633E-004	0.00000E+000	7.40478E-005	5.99601E-002	7.36106E-001	3.57850E+000	9	...........
	49	0.666667	7.44455E-001	1.00694E-004	0.00000E+000	7.49621E-005	5.99601E-002	7.44749E-001	3.57850E+000	9	...........
	50	0.68	7.52873E-001	1.01040E-004	0.00000E+000	7.60701E-005	5.99601E-002	7.53182E-001	3.57938E+000	9	...........
	51	0.693333	7.61172E-001	1.00643E-004	0.00000E+000	7.66064E-005	5.99601E-002	7.61469E-001	3.58000E+000	9	...........
	52	0.706667	7.69327E-001	1.00515E-004	0.00000E+000	7.73286E-005	5.99601E-002	7.69620E-001	3.58000E+000	9	...........
	53	0.72	7.77294E-001	1.01389E-004	0.00000E+000	7.88088E-005	5.99601E-002	7.77585E-001	3.58000E+000	9	...........
	54	0.733333	7.85134E-001	1.01127E-004	0.00000E+000	7.93985E-005	5.99601E-002	7.85419E-001	3.58000E+000	9	...........
	55	0.746667	7.92832E-001	1.00811E-004	0.00000E+000	7.99258E-005	5.99601E-002	7.93141E-001	3.58000E+000	9	...........
	56	0.76	8.00381E-001	1.01353E-004	0.00000E+000	8.11213E-005	5.99601E-002	8.00671E-001	3.58000E+000	9	...........
	57	0.773333	8.07785E-001	1.01285E-004	0.00000E+000	8.18161E-005	5.99601E-002	8.08086E-001	3.58000E+000	9	...........
	58	0.786667	8.15033E-001	1.00746E-004	0.00000E+000	8.21112E-005	5.99601E-002	8.15366E-001	3.58000E+000	9	...........
	59	0.8	8.22208E-001	1.00567E-004	0.00000E+000	8.26867E-005	5.99601E-002	8.22543E-001	3.58000E+000	9	...........
	60	0.813333	8.29224E-001	1.00975E-004	0.00000E+000	8.37310E-005	5.99601E-002	8.29550E-001	3.58000E+000	9	...........
	61	0.826667	8.36108E-001	1.00792E-004	0.00000E+000	8.42728E-005	5.99601E-002	8.36467E-001	3.58000E+000	9	...........
	62	0.84	8.42894E-001	1.00367E-004	0.00000E+000	8.45985E-005	5.99601E-002	8.43253E-001	3.58000E+000	9	...........
	63	0.853333	8.49569E-001	1.00088E-004	0.00000E+000	8.50321E-005	5.99601E-002	8.49913E-001	3.58000E+000	9	...........
	64	0.866667	8.56108E-001	1.01374E-004	0.00000E+000	8.67872E-005	5.99601E-002	8.56417E-001	3.58000E+000	9	...........
	65	0.88	8.62526E-001	1.00911E-004	0.00000E+000	8.70380E-005	5.99601E-002	8.62833E-001	3.58000E+000	9	...........
	66	0.893333	8.68866E-001	1.00547E-004	0.00000E+000	8.73618E-005	5.99601E-002	8.69161E-001	3.58000E+000	9	...........
	67	0.906667	8.75089E-001	1.00929E-004	0.00000E+000	8.83221E-005	5.99601E-002	8.75376E-001	3.58000E+000	9	...........
	68	0.92	8.81181E-001	1.00425E-004	0.00000E+000	8.84926E-005	5.99601E-002	8.81454E-001	3.58000E+000	9	...........
	69	0.933333	8.87196E-001	1.01417E-004	0.00000E+000	8.99766E-005	5.99601E-002	8.87459E-001	3.58000E+000	9	...........
	70	0.946667	8.93058E-001	1.01013E-004	0.00000E+000	9.02101E-005	5.99601E-002	8.93373E-001	3.58000E+000	9	...........
	71	0.96	8.98845E-001	1.00717E-004	0.00000E+000	9.05287E-005	5.99601E-002	8.99183E-001	3.58000E+000	9	...........
	72	0.97333	9.04536E-001	1.01391E-004	0.00000E+000	9.17116E-005	5.99601E-002	9.04868E-001	3.58000E+000	9	...........
	73	0.98667	9.10114E-001	1.00703E-004	0.00000E+000	9.16514E-005	5.99601E-002	9.10455E-001	3.58000E+000	9	...........
	74	1	9.15580E-001	1.00603E-004	0.00000E+000	9.21102E-005	5.99601E-002	9.15968E-001	3.58000E+000	9	...........
	75	1.01333	9.21023E-001	1.01745E-004	0.00000E+000	9.37096E-005	5.99601E-002	9.21354E-001	3.58000E+000	9	...........
	76	1.02667	9.26323E-001	1.00408E-004	0.00000E+000	9.30105E-005	5.99601E-002	9.26663E-001	3.58000E+000	9	...........
	77	1.04	9.31512E-001	1.00246E-004	0.00000E+000	9.33802E-005	5.99601E-002	9.31830E-001	3.58000E+000	9	...........
	78	1.05333	9.36610E-001	9.94592E-005	0.00000E+000	9.31545E-005	5.99601E-002	9.36942E-001	3.58000E+000	9	...........
	79	1.06667	9.41601E-001	1.00796E-004	0.00000E+000	9.49095E-005	5.99601E-002	9.41938E-001	3.58000E+000	9	...........
	80	1.08	9.46536E-001	1.00993E-004	0.00000E+000	9.55934E-005	5.99601E-002	9.46878E-001	3.58000E+000	9	...........
	81	1.09333	9.51349E-001	1.00799E-004	0.00000E+000	9.58951E-005	5.99601E-002	9.51700E-001	3.58000E+000	9	...........
	82	1.10667	9.56081E-001	1.01480E-004	0.00000E+000	9.70235E-005	5.99601E-002	9.56428E-001	3.58000E+000	9	...........
	83	1.12	9.60710E-001	1.00404E-004	0.00000E+000	9.64593E-005	5.99601E-002	9.61070E-001	3.58000E+000	9	...........
	84	1.13333	9.65243E-001	1.01079E-004	0.00000E+000	9.75661E-005	5.99601E-002	9.65635E-001	3.58000E+000	9	...........
	85	1.14667	9.69675E-001	1.00231E-004	0.00000E+000	9.71917E-005	5.99601E-002	9.70090E-001	3.58000E+000	9	...........
	86	1.16	9.74099E-001	1.00725E-004	0.00000E+000	9.81162E-005	5.99601E-002	9.74480E-001	3.58000E+000	9	...........
	87	1.17333	9.78364E-001	1.01452E-004	0.00000E+000	9.92573E-005	5.99601E-002	9.78746E-001	3.58000E+000	9	...........
	88	1.18667	9.82556E-001	1.00855E-004	0.00000E+000	9.90960E-005	5.99601E-002	9.82957E-001	3.58000E+000	9	...........
	89	1.2	9.86659E-001	1.01198E-004	0.00000E+000	9.98480E-005	5.99601E-002	9.87077E-001	3.58000E+000	9	...........
	90	1.21333	9.90690E-001	1.00947E-004	0.00000E+000	1.00007E-004	5.99601E-002	9.91096E-001	3.58000E+000	9	...........
	91	1.22667	9.94622E-001	1.01750E-004	0.00000E+000	1.01203E-004	5.99601E-002	9.95011E-001	3.58000E+000	9	...........
	92	1.24	9.98490E-001	1.01044E-004	0.00000E+000	1.00891E-004	5.99601E-002	9.98910E-001	3.58000E+000	9	...........
STARTTIMEOFFSET	QUANT	949.1268	Start Time Offset (s)
