EXPLAIN
TAG	PWR800_CHARGE
TITLE	LABEL	PWR Cyclic Charge Discharge (Cell) - Charge Step	Test &Identifier
DATE	LABEL	13-7-2017	Date
TIME	LABEL	15:10:06	Time
NOTES	NOTES	2	&Notes...
	supercap test cell
	6M KOH
PSTAT	PSTAT	IFC5000-01520	Potentiostat
CAPACITY	QUANT	1.00000E-003	Capacity (A-hr)
CELLTYPE	SELECTOR	1	&Cell Type
WORKINGCONNECTION	SELECTOR	0	&Working Lead
MAXCHARGETIME	VARIABLEANDUNITS	1.00000E+002	s	1.00000E+002	second(s)	Max &Charge Time
CHARGECURRENT	QUANT	1.00000E-004	&Charge Current (A) 
VOLTAGEFINISH	TWOPARAM	F	1.00000E-003	3.60000E+003	&Voltage Finish	 I (A) < 	Max Time(s)
SAMPLETIME	QUANT	1.00000E-002	Sa&mple Period (s)
CHARGESTOPAT1	MULTIPARAM	4	1.00000E+000	Charge Stop At &1	Voltage > Limit	V
CHARGESTOPAT2	MULTIPARAM	0	0.00000E+000	Charge Stop At &2	None	N/A
AESBHCSELECTOR	TOGGLE	F	Save Both Half Cells
IRCOMP	TOGGLE	F	IR &Measure
EOC	QUANT	0	Open Circuit (V)
SEQUENCER	TOGGLE	TRUE	Run as Sequence
PSTATMODEL	IQUANT	53	Pstat Model
PSTATSECTION	LABEL	IFC5000-01520	Pstat Section
PSTATSERIALNO	LABEL	01520	Pstat Serial Number
CTRLMODE	IQUANT	0	Control Mode
ELECTROMETER	IQUANT	1	RE=0 or CS=1
IESTAB	IQUANT	0	I/E Stability
CASPEED	IQUANT	4	Control Amp Speed
CONVENTION	IQUANT	1	Current Convention
ICHRANGE	IQUANT	2	Ich Range
ICHRANGEMODE	TOGGLE	T	Ich Auto Range
ICHOFFSETENABLE	TOGGLE	F	Ich Offset Enable
ICHOFFSET	QUANT	0	Ich Offset (V)
ICHFILTER	IQUANT	1	Ich Filter
VCHRANGE	IQUANT	2	Vch Range
VCHRANGEMODE	TOGGLE	T	Vch Auto Range
VCHOFFSETENABLE	TOGGLE	F	Vch Offset Enable
VCHOFFSET	QUANT	0	Vch Offset (V)
VCHFILTER	IQUANT	1	Vch Filter
IERANGELOWERLIMIT	IQUANT	9	I/E Range Lower Limit
IERANGEMODE	TOGGLE	F	I/E AutoRange
IERANGE	IQUANT	9	I/E Range
ACHSELECT	IQUANT	1	Ach Select
ACHRANGE	IQUANT	2	Ach Range
ACHOFFSETENABLE	TOGGLE	F	Ach Offset Enable
ACHOFFSET	QUANT	0	Ach Offset (V)
ACHFILTER	IQUANT	1	Ach Filter
CABLEID	IQUANT	14	Cable ID
DCCALDATE	LABEL	5-7-2017	DC Calibration Date
ACCALDATE	LABEL	12/3/2015	AC Calibration Date
FRAMEWORKVERSION	QUANT	7.01	Framework Version
INSTRUMENTVERSION	LABEL	4.00	Instrument Version
CURVE	TABLE	98
	Pt	T	Vf	Im	Vu	Pwr	Sig	Ach	Temp	IERange	Over
	#	s	V	A	V	W	V	V	deg C	#	bits
	0	0.013333	1.34091E-001	1.00823E-004	0.00000E+000	1.35195E-005	5.99601E-002	1.34137E-001	3.57880E+000	9	...........
	1	0.026667	1.49361E-001	1.00941E-004	0.00000E+000	1.50767E-005	5.99601E-002	1.49382E-001	3.57880E+000	9	...........
	2	0.04	1.64189E-001	1.00550E-004	0.00000E+000	1.65092E-005	5.99601E-002	1.64218E-001	3.57880E+000	9	...........
	3	0.053333	1.78747E-001	1.00145E-004	0.00000E+000	1.79006E-005	5.99601E-002	1.78775E-001	3.57880E+000	9	...........
	4	0.066667	1.93110E-001	1.00618E-004	0.00000E+000	1.94303E-005	5.99601E-002	1.93147E-001	3.57880E+000	9	...........
	5	0.08	2.07328E-001	1.00675E-004	0.00000E+000	2.08727E-005	5.99601E-002	2.07367E-001	3.57880E+000	9	...........
	6	0.093333	2.21437E-001	1.00617E-004	0.00000E+000	2.22802E-005	5.99601E-002	2.21475E-001	3.57880E+000	9	...........
	7	0.106667	2.35466E-001	1.01311E-004	0.00000E+000	2.38552E-005	5.99601E-002	2.35507E-001	3.57880E+000	9	...........
	8	0.12	2.49440E-001	1.00682E-004	0.00000E+000	2.51142E-005	5.99601E-002	2.49490E-001	3.57880E+000	9	...........
	9	0.133333	2.63381E-001	1.01141E-004	0.00000E+000	2.66385E-005	5.99601E-002	2.63434E-001	3.57880E+000	9	...........
	10	0.146667	2.77293E-001	1.01295E-004	0.00000E+000	2.80884E-005	5.99601E-002	2.77351E-001	3.57880E+000	9	...........
	11	0.16	2.91196E-001	1.00766E-004	0.00000E+000	2.93425E-005	5.99601E-002	2.91250E-001	3.57880E+000	9	...........
	12	0.173333	3.05083E-001	1.00906E-004	0.00000E+000	3.07848E-005	5.99601E-002	3.05144E-001	3.57880E+000	9	...........
	13	0.186667	3.18974E-001	1.00088E-004	0.00000E+000	3.19256E-005	5.99601E-002	3.19032E-001	3.57880E+000	9	...........
	14	0.2	3.32850E-001	1.00892E-004	0.00000E+000	3.35818E-005	5.99601E-002	3.32917E-001	3.57880E+000	9	...........
	15	0.213333	3.46723E-001	1.02078E-004	0.00000E+000	3.53929E-005	5.99601E-002	3.46796E-001	3.57880E+000	9	...........
	16	0.226667	3.60580E-001	1.00317E-004	0.00000E+000	3.61721E-005	5.99601E-002	3.60654E-001	3.57880E+000	9	...........
	17	0.24	3.74419E-001	9.92300E-005	0.00000E+000	3.71535E-005	5.99601E-002	3.74494E-001	3.57880E+000	9	...........
	18	0.253333	3.88225E-001	1.01652E-004	0.00000E+000	3.94640E-005	5.99601E-002	3.88302E-001	3.57880E+000	9	...........
	19	0.266667	4.01983E-001	1.01714E-004	0.00000E+000	4.08872E-005	5.99601E-002	4.02063E-001	3.57880E+000	9	...........
	20	0.28	4.15668E-001	1.00009E-004	0.00000E+000	4.15707E-005	5.99601E-002	4.15753E-001	3.57880E+000	9	...........
	21	0.293333	4.29270E-001	1.00883E-004	0.00000E+000	4.33062E-005	5.99601E-002	4.29365E-001	3.57880E+000	9	...........
	22	0.306667	4.42774E-001	1.00468E-004	0.00000E+000	4.44845E-005	5.99601E-002	4.42865E-001	3.57880E+000	9	...........
	23	0.32	4.56164E-001	1.00463E-004	0.00000E+000	4.58274E-005	5.99601E-002	4.56258E-001	3.57880E+000	9	...........
	24	0.333333	4.69411E-001	1.01232E-004	0.00000E+000	4.75196E-005	5.99601E-002	4.69508E-001	3.57880E+000	9	...........
	25	0.346667	4.82501E-001	1.00442E-004	0.00000E+000	4.84632E-005	5.99601E-002	4.82606E-001	3.57880E+000	9	...........
	26	0.36	4.95420E-001	1.01610E-004	0.00000E+000	5.03394E-005	5.99601E-002	4.95528E-001	3.57882E+000	9	...........
	27	0.373333	5.08155E-001	1.01568E-004	0.00000E+000	5.16123E-005	5.99601E-002	5.08272E-001	3.57900E+000	9	...........
	28	0.386667	5.20693E-001	1.00650E-004	0.00000E+000	5.24078E-005	5.99601E-002	5.20808E-001	3.57900E+000	9	...........
	29	0.4	5.32877E-001	1.01224E-004	0.00000E+000	5.39400E-005	5.99601E-002	5.33059E-001	3.57900E+000	9	...........
	30	0.413333	5.44782E-001	1.01327E-004	0.00000E+000	5.52012E-005	5.99601E-002	5.45051E-001	3.57900E+000	9	...........
	31	0.426667	5.56678E-001	1.00812E-004	0.00000E+000	5.61196E-005	5.99601E-002	5.56956E-001	3.57900E+000	9	...........
	32	0.44	5.68370E-001	1.01077E-004	0.00000E+000	5.74493E-005	5.99601E-002	5.68640E-001	3.57900E+000	9	...........
	33	0.453333	5.79794E-001	1.01243E-004	0.00000E+000	5.87001E-005	5.99601E-002	5.80107E-001	3.57900E+000	9	...........
	34	0.466667	5.91055E-001	1.01102E-004	0.00000E+000	5.97570E-005	5.99601E-002	5.91366E-001	3.57900E+000	9	...........
	35	0.48	6.02043E-001	1.00841E-004	0.00000E+000	6.07104E-005	5.99601E-002	6.02387E-001	3.57900E+000	9	...........
	36	0.493333	6.12867E-001	1.00271E-004	0.00000E+000	6.14526E-005	5.99601E-002	6.13186E-001	3.57900E+000	9	...........
	37	0.506667	6.23502E-001	1.01209E-004	0.00000E+000	6.31037E-005	5.99601E-002	6.23779E-001	3.57900E+000	9	...........
	38	0.52	6.33847E-001	1.01548E-004	0.00000E+000	6.43660E-005	5.99601E-002	6.34134E-001	3.57900E+000	9	...........
	39	0.533333	6.44042E-001	1.00807E-004	0.00000E+000	6.49242E-005	5.99601E-002	6.44314E-001	3.57900E+000	9	...........
	40	0.546667	6.53988E-001	1.00794E-004	0.00000E+000	6.59180E-005	5.99601E-002	6.54283E-001	3.57900E+000	9	...........
	41	0.56	6.63754E-001	1.01887E-004	0.00000E+000	6.76278E-005	5.99601E-002	6.64045E-001	3.57900E+000	9	...........
	42	0.573333	6.73323E-001	1.00492E-004	0.00000E+000	6.76633E-005	5.99601E-002	6.73614E-001	3.57900E+000	9	...........
	43	0.586667	6.82702E-001	1.00914E-004	0.00000E+000	6.88940E-005	5.99601E-002	6.82995E-001	3.57900E+000	9	...........
	44	0.6	6.91881E-001	1.00949E-004	0.00000E+000	6.98447E-005	5.99601E-002	6.92197E-001	3.57900E+000	9	...........
	45	0.613333	7.00894E-001	1.00030E-004	0.00000E+000	7.01106E-005	5.99601E-002	7.01183E-001	3.57900E+000	9	...........
	46	0.626667	7.09711E-001	1.01229E-004	0.00000E+000	7.18436E-005	5.99601E-002	7.10011E-001	3.57900E+000	9	...........
	47	0.64	7.18397E-001	1.00176E-004	0.00000E+000	7.19661E-005	5.99601E-002	7.18698E-001	3.57900E+000	9	...........
	48	0.653333	7.26894E-001	1.01371E-004	0.00000E+000	7.36860E-005	5.99601E-002	7.27195E-001	3.57900E+000	9	...........
	49	0.666667	7.35203E-001	1.00568E-004	0.00000E+000	7.39377E-005	5.99601E-002	7.35534E-001	3.57900E+000	9	...........
	50	0.68	7.43409E-001	1.00804E-004	0.00000E+000	7.49388E-005	5.99601E-002	7.43716E-001	3.57900E+000	9	...........
	51	0.693333	7.51438E-001	1.00718E-004	0.00000E+000	7.56832E-005	5.99601E-002	7.51739E-001	3.57900E+000	9	...........
	52	0.706667	7.59298E-001	1.00118E-004	0.00000E+000	7.60192E-005	5.99601E-002	7.59607E-001	3.57900E+000	9	...........
	53	0.72	7.67025E-001	1.00235E-004	0.00000E+000	7.68830E-005	5.99601E-002	7.67335E-001	3.57900E+000	9	...........
	54	0.733333	7.74613E-001	1.01133E-004	0.00000E+000	7.83393E-005	5.99601E-002	7.74922E-001	3.57900E+000	9	...........
	55	0.746667	7.82049E-001	1.01116E-004	0.00000E+000	7.90775E-005	5.99601E-002	7.82384E-001	3.57900E+000	9	...........
	56	0.76	7.89377E-001	1.00771E-004	0.00000E+000	7.95462E-005	5.99601E-002	7.89681E-001	3.57900E+000	9	...........
	57	0.773333	7.96576E-001	1.01163E-004	0.00000E+000	8.05837E-005	5.99601E-002	7.96885E-001	3.57900E+000	9	...........
	58	0.786667	8.03600E-001	1.00539E-004	0.00000E+000	8.07928E-005	5.99601E-002	8.03925E-001	3.57900E+000	9	...........
	59	0.8	8.10530E-001	1.00718E-004	0.00000E+000	8.16348E-005	5.99601E-002	8.10845E-001	3.57900E+000	9	...........
	60	0.813333	8.17342E-001	1.00578E-004	0.00000E+000	8.22068E-005	5.99601E-002	8.17665E-001	3.57900E+000	9	...........
	61	0.826667	8.24051E-001	1.00927E-004	0.00000E+000	8.31692E-005	5.99601E-002	8.24385E-001	3.57900E+000	9	...........
	62	0.84	8.30625E-001	1.00861E-004	0.00000E+000	8.37772E-005	5.99601E-002	8.30945E-001	3.57900E+000	9	...........
	63	0.853333	8.37082E-001	1.01011E-004	0.00000E+000	8.45541E-005	5.99601E-002	8.37410E-001	3.57900E+000	9	...........
	64	0.866667	8.43441E-001	1.01019E-004	0.00000E+000	8.52034E-005	5.99601E-002	8.43774E-001	3.57900E+000	9	...........
	65	0.88	8.49708E-001	1.00637E-004	0.00000E+000	8.55117E-005	5.99601E-002	8.50049E-001	3.57900E+000	9	...........
	66	0.893333	8.55842E-001	1.00914E-004	0.00000E+000	8.63661E-005	5.99601E-002	8.56176E-001	3.57900E+000	9	...........
	67	0.906667	8.61895E-001	1.00350E-004	0.00000E+000	8.64912E-005	5.99601E-002	8.62232E-001	3.57900E+000	9	...........
	68	0.92	8.67826E-001	1.00601E-004	0.00000E+000	8.73042E-005	5.99601E-002	8.68194E-001	3.57900E+000	9	...........
	69	0.933333	8.73707E-001	1.01355E-004	0.00000E+000	8.85549E-005	5.99601E-002	8.74043E-001	3.57900E+000	9	...........
	70	0.946667	8.79418E-001	1.01375E-004	0.00000E+000	8.91512E-005	5.99601E-002	8.79786E-001	3.57900E+000	9	...........
	71	0.96	8.85086E-001	1.00886E-004	0.00000E+000	8.92924E-005	5.99601E-002	8.85449E-001	3.57900E+000	9	...........
	72	0.97333	8.90627E-001	1.01779E-004	0.00000E+000	9.06475E-005	5.99601E-002	8.90994E-001	3.57900E+000	9	...........
	73	0.98667	8.96110E-001	1.01807E-004	0.00000E+000	9.12299E-005	5.99601E-002	8.96475E-001	3.57900E+000	9	...........
	74	1	9.01486E-001	1.01456E-004	0.00000E+000	9.14616E-005	5.99601E-002	9.01843E-001	3.57900E+000	9	...........
	75	1.01333	9.06753E-001	1.00571E-004	0.00000E+000	9.11929E-005	5.99601E-002	9.07133E-001	3.57900E+000	9	...........
	76	1.02667	9.11953E-001	1.00439E-004	0.00000E+000	9.15953E-005	5.99601E-002	9.12327E-001	3.57900E+000	9	...........
	77	1.04	9.17020E-001	1.01296E-004	0.00000E+000	9.28905E-005	5.99601E-002	9.17403E-001	3.57900E+000	9	...........
	78	1.05333	9.22126E-001	1.01163E-004	0.00000E+000	9.32847E-005	5.99601E-002	9.22443E-001	3.57900E+000	9	...........
	79	1.06667	9.27054E-001	1.00544E-004	0.00000E+000	9.32095E-005	5.99601E-002	9.27390E-001	3.57900E+000	9	...........
	80	1.08	9.31893E-001	1.01169E-004	0.00000E+000	9.42786E-005	5.99601E-002	9.32223E-001	3.57900E+000	9	...........
	81	1.09333	9.36643E-001	1.01543E-004	0.00000E+000	9.51095E-005	5.99601E-002	9.37000E-001	3.57900E+000	9	...........
	82	1.10667	9.41307E-001	1.01044E-004	0.00000E+000	9.51133E-005	5.99601E-002	9.41670E-001	3.57900E+000	9	...........
	83	1.12	9.45889E-001	1.00294E-004	0.00000E+000	9.48667E-005	5.99601E-002	9.46265E-001	3.57900E+000	9	...........
	84	1.13333	9.50410E-001	1.00548E-004	0.00000E+000	9.55618E-005	5.99601E-002	9.50768E-001	3.57900E+000	9	...........
	85	1.14667	9.54849E-001	1.01204E-004	0.00000E+000	9.66349E-005	5.99601E-002	9.55210E-001	3.57900E+000	9	...........
	86	1.16	9.59168E-001	1.01824E-004	0.00000E+000	9.76666E-005	5.99601E-002	9.59543E-001	3.57900E+000	9	...........
	87	1.17333	9.63420E-001	1.00589E-004	0.00000E+000	9.69091E-005	5.99601E-002	9.63815E-001	3.57900E+000	9	...........
	88	1.18667	9.67597E-001	1.00743E-004	0.00000E+000	9.74784E-005	5.99601E-002	9.67993E-001	3.57900E+000	9	...........
	89	1.2	9.71707E-001	1.00518E-004	0.00000E+000	9.76738E-005	5.99601E-002	9.72119E-001	3.57900E+000	9	...........
	90	1.21333	9.75751E-001	1.00862E-004	0.00000E+000	9.84158E-005	5.99601E-002	9.76110E-001	3.57900E+000	9	...........
	91	1.22667	9.79686E-001	1.01050E-004	0.00000E+000	9.89974E-005	5.99601E-002	9.80039E-001	3.57900E+000	9	...........
	92	1.24	9.83552E-001	1.01332E-004	0.00000E+000	9.96658E-005	5.99601E-002	9.83916E-001	3.57900E+000	9	...........
	93	1.25333	9.87330E-001	1.01014E-004	0.00000E+000	9.97338E-005	5.99601E-002	9.87709E-001	3.57900E+000	9	...........
	94	1.26667	9.91041E-001	1.00615E-004	0.00000E+000	9.97133E-005	5.99601E-002	9.91436E-001	3.57900E+000	9	...........
	95	1.28	9.94633E-001	1.01406E-004	0.00000E+000	1.00862E-004	5.99601E-002	9.95047E-001	3.57900E+000	9	...........
	96	1.29333	9.98233E-001	1.01344E-004	0.00000E+000	1.01165E-004	5.99601E-002	9.98632E-001	3.57900E+000	9	...........
	97	1.295	1.00020E+000	9.92144E-005	0.00000E+000	9.92338E-005	5.99601E-002	1.00059E+000	3.57900E+000	9	...........
STARTTIMEOFFSET	QUANT	363.6699	Start Time Offset (s)
