EXPLAIN
TAG	PWR800_CHARGE
TITLE	LABEL	PWR Cyclic Charge Discharge (Cell) - Charge Step	Test &Identifier
DATE	LABEL	13-7-2017	Date
TIME	LABEL	15:05:11	Time
NOTES	NOTES	2	&Notes...
	supercap test cell
	6M KOH
PSTAT	PSTAT	IFC5000-01520	Potentiostat
CAPACITY	QUANT	1.00000E-003	Capacity (A-hr)
CELLTYPE	SELECTOR	1	&Cell Type
WORKINGCONNECTION	SELECTOR	0	&Working Lead
MAXCHARGETIME	VARIABLEANDUNITS	1.00000E+002	s	1.00000E+002	second(s)	Max &Charge Time
CHARGECURRENT	QUANT	1.00000E-004	&Charge Current (A) 
VOLTAGEFINISH	TWOPARAM	F	1.00000E-003	3.60000E+003	&Voltage Finish	 I (A) < 	Max Time(s)
SAMPLETIME	QUANT	1.00000E-002	Sa&mple Period (s)
CHARGESTOPAT1	MULTIPARAM	4	1.00000E+000	Charge Stop At &1	Voltage > Limit	V
CHARGESTOPAT2	MULTIPARAM	0	0.00000E+000	Charge Stop At &2	None	N/A
AESBHCSELECTOR	TOGGLE	F	Save Both Half Cells
IRCOMP	TOGGLE	F	IR &Measure
EOC	QUANT	0	Open Circuit (V)
SEQUENCER	TOGGLE	TRUE	Run as Sequence
PSTATMODEL	IQUANT	53	Pstat Model
PSTATSECTION	LABEL	IFC5000-01520	Pstat Section
PSTATSERIALNO	LABEL	01520	Pstat Serial Number
CTRLMODE	IQUANT	0	Control Mode
ELECTROMETER	IQUANT	1	RE=0 or CS=1
IESTAB	IQUANT	0	I/E Stability
CASPEED	IQUANT	4	Control Amp Speed
CONVENTION	IQUANT	1	Current Convention
ICHRANGE	IQUANT	2	Ich Range
ICHRANGEMODE	TOGGLE	T	Ich Auto Range
ICHOFFSETENABLE	TOGGLE	F	Ich Offset Enable
ICHOFFSET	QUANT	0	Ich Offset (V)
ICHFILTER	IQUANT	1	Ich Filter
VCHRANGE	IQUANT	2	Vch Range
VCHRANGEMODE	TOGGLE	T	Vch Auto Range
VCHOFFSETENABLE	TOGGLE	F	Vch Offset Enable
VCHOFFSET	QUANT	0	Vch Offset (V)
VCHFILTER	IQUANT	1	Vch Filter
IERANGELOWERLIMIT	IQUANT	9	I/E Range Lower Limit
IERANGEMODE	TOGGLE	F	I/E AutoRange
IERANGE	IQUANT	9	I/E Range
ACHSELECT	IQUANT	1	Ach Select
ACHRANGE	IQUANT	2	Ach Range
ACHOFFSETENABLE	TOGGLE	F	Ach Offset Enable
ACHOFFSET	QUANT	0	Ach Offset (V)
ACHFILTER	IQUANT	1	Ach Filter
CABLEID	IQUANT	14	Cable ID
DCCALDATE	LABEL	5-7-2017	DC Calibration Date
ACCALDATE	LABEL	12/3/2015	AC Calibration Date
FRAMEWORKVERSION	QUANT	7.01	Framework Version
INSTRUMENTVERSION	LABEL	4.00	Instrument Version
CURVE	TABLE	101
	Pt	T	Vf	Im	Vu	Pwr	Sig	Ach	Temp	IERange	Over
	#	s	V	A	V	W	V	V	deg C	#	bits
	0	0.013333	1.34607E-001	1.00903E-004	0.00000E+000	1.35823E-005	5.99601E-002	1.34656E-001	3.58020E+000	9	...........
	1	0.026667	1.50270E-001	9.98103E-005	0.00000E+000	1.49985E-005	5.99601E-002	1.50290E-001	3.58020E+000	9	...........
	2	0.04	1.65481E-001	1.00942E-004	0.00000E+000	1.67039E-005	5.99601E-002	1.65511E-001	3.58020E+000	9	...........
	3	0.053333	1.80416E-001	1.00980E-004	0.00000E+000	1.82185E-005	5.99601E-002	1.80452E-001	3.58020E+000	9	...........
	4	0.066667	1.95159E-001	1.01586E-004	0.00000E+000	1.98253E-005	5.99601E-002	1.95197E-001	3.57997E+000	9	...........
	5	0.08	2.09755E-001	1.00933E-004	0.00000E+000	2.11713E-005	5.99601E-002	2.09790E-001	3.57920E+000	9	...........
	6	0.093333	2.24232E-001	1.01453E-004	0.00000E+000	2.27491E-005	5.99601E-002	2.24271E-001	3.57920E+000	9	...........
	7	0.106667	2.38620E-001	1.01515E-004	0.00000E+000	2.42235E-005	5.99601E-002	2.38660E-001	3.57920E+000	9	...........
	8	0.12	2.52942E-001	1.01151E-004	0.00000E+000	2.55854E-005	5.99601E-002	2.52990E-001	3.57920E+000	9	...........
	9	0.133333	2.67212E-001	1.01603E-004	0.00000E+000	2.71496E-005	5.99601E-002	2.67265E-001	3.57920E+000	9	...........
	10	0.146667	2.81451E-001	1.01047E-004	0.00000E+000	2.84398E-005	5.99601E-002	2.81500E-001	3.57920E+000	9	...........
	11	0.16	2.95638E-001	1.00899E-004	0.00000E+000	2.98296E-005	5.99601E-002	2.95692E-001	3.57920E+000	9	...........
	12	0.173333	3.09798E-001	1.00489E-004	0.00000E+000	3.11312E-005	5.99601E-002	3.09859E-001	3.57920E+000	9	...........
	13	0.186667	3.23927E-001	1.01496E-004	0.00000E+000	3.28773E-005	5.99601E-002	3.23987E-001	3.57920E+000	9	...........
	14	0.2	3.38019E-001	1.02267E-004	0.00000E+000	3.45682E-005	5.99601E-002	3.38080E-001	3.57920E+000	9	...........
	15	0.213333	3.52073E-001	1.01499E-004	0.00000E+000	3.57352E-005	5.99601E-002	3.52139E-001	3.57920E+000	9	...........
	16	0.226667	3.66070E-001	1.01048E-004	0.00000E+000	3.69906E-005	5.99601E-002	3.66140E-001	3.57920E+000	9	...........
	17	0.24	3.80002E-001	9.96092E-005	0.00000E+000	3.78517E-005	5.99601E-002	3.80077E-001	3.57920E+000	9	...........
	18	0.253333	3.93869E-001	1.01323E-004	0.00000E+000	3.99080E-005	5.99601E-002	3.93951E-001	3.57920E+000	9	...........
	19	0.266667	4.07633E-001	1.00543E-004	0.00000E+000	4.09846E-005	5.99601E-002	4.07719E-001	3.57920E+000	9	...........
	20	0.28	4.21295E-001	1.00255E-004	0.00000E+000	4.22370E-005	5.99601E-002	4.21384E-001	3.57920E+000	9	...........
	21	0.293333	4.34837E-001	1.00891E-004	0.00000E+000	4.38711E-005	5.99601E-002	4.34922E-001	3.57920E+000	9	...........
	22	0.306667	4.48231E-001	1.01100E-004	0.00000E+000	4.53162E-005	5.99601E-002	4.48322E-001	3.57920E+000	9	...........
	23	0.32	4.61459E-001	1.01583E-004	0.00000E+000	4.68762E-005	5.99601E-002	4.61549E-001	3.57920E+000	9	...........
	24	0.333333	4.74516E-001	1.00842E-004	0.00000E+000	4.78510E-005	5.99601E-002	4.74608E-001	3.57920E+000	9	...........
	25	0.346667	4.87374E-001	1.01920E-004	0.00000E+000	4.96733E-005	5.99601E-002	4.87481E-001	3.57920E+000	9	...........
	26	0.36	5.00041E-001	1.00619E-004	0.00000E+000	5.03136E-005	5.99601E-002	5.00149E-001	3.57920E+000	9	...........
	27	0.373333	5.12496E-001	1.00610E-004	0.00000E+000	5.15625E-005	5.99601E-002	5.12609E-001	3.57920E+000	9	...........
	28	0.386667	5.24737E-001	1.00543E-004	0.00000E+000	5.27585E-005	5.99601E-002	5.24850E-001	3.57920E+000	9	...........
	29	0.4	5.36529E-001	1.00896E-004	0.00000E+000	5.41336E-005	5.99601E-002	5.36701E-001	3.57920E+000	9	...........
	30	0.413333	5.48163E-001	1.00917E-004	0.00000E+000	5.53188E-005	5.99601E-002	5.48432E-001	3.57920E+000	9	...........
	31	0.426667	5.59711E-001	1.00550E-004	0.00000E+000	5.62789E-005	5.99601E-002	5.59995E-001	3.57920E+000	9	...........
	32	0.44	5.71068E-001	1.00449E-004	0.00000E+000	5.73632E-005	5.99601E-002	5.71323E-001	3.57920E+000	9	...........
	33	0.453333	5.82135E-001	1.01460E-004	0.00000E+000	5.90632E-005	5.99601E-002	5.82415E-001	3.57920E+000	9	...........
	34	0.466667	5.93032E-001	1.01375E-004	0.00000E+000	6.01187E-005	5.99601E-002	5.93303E-001	3.57920E+000	9	...........
	35	0.48	6.03641E-001	1.01087E-004	0.00000E+000	6.10200E-005	5.99601E-002	6.03963E-001	3.57920E+000	9	...........
	36	0.493333	6.14110E-001	1.00113E-004	0.00000E+000	6.14807E-005	5.99601E-002	6.14383E-001	3.57920E+000	9	...........
	37	0.506667	6.24325E-001	1.00123E-004	0.00000E+000	6.25092E-005	5.99601E-002	6.24596E-001	3.57920E+000	9	...........
	38	0.52	6.34288E-001	1.01284E-004	0.00000E+000	6.42430E-005	5.99601E-002	6.34584E-001	3.57920E+000	9	...........
	39	0.533333	6.44112E-001	1.01548E-004	0.00000E+000	6.54084E-005	5.99601E-002	6.44389E-001	3.57920E+000	9	...........
	40	0.546667	6.53709E-001	1.00134E-004	0.00000E+000	6.54587E-005	5.99601E-002	6.53982E-001	3.57920E+000	9	...........
	41	0.56	6.63101E-001	1.00941E-004	0.00000E+000	6.69340E-005	5.99601E-002	6.63395E-001	3.57920E+000	9	...........
	42	0.573333	6.72302E-001	1.00745E-004	0.00000E+000	6.77310E-005	5.99601E-002	6.72612E-001	3.57920E+000	9	...........
	43	0.586667	6.81331E-001	1.01411E-004	0.00000E+000	6.90942E-005	5.99601E-002	6.81632E-001	3.57920E+000	9	...........
	44	0.6	6.90153E-001	1.01021E-004	0.00000E+000	6.97199E-005	5.99601E-002	6.90458E-001	3.57920E+000	9	...........
	45	0.613333	6.98820E-001	1.01389E-004	0.00000E+000	7.08525E-005	5.99601E-002	6.99118E-001	3.57920E+000	9	...........
	46	0.626667	7.07315E-001	1.01356E-004	0.00000E+000	7.16910E-005	5.99601E-002	7.07601E-001	3.57920E+000	9	...........
	47	0.64	7.15643E-001	1.00519E-004	0.00000E+000	7.19356E-005	5.99601E-002	7.15930E-001	3.57920E+000	9	...........
	48	0.653333	7.23820E-001	1.00071E-004	0.00000E+000	7.24332E-005	5.99601E-002	7.24103E-001	3.57920E+000	9	...........
	49	0.666667	7.31817E-001	1.00994E-004	0.00000E+000	7.39090E-005	5.99601E-002	7.32088E-001	3.57920E+000	9	...........
	50	0.68	7.39657E-001	1.01037E-004	0.00000E+000	7.47325E-005	5.99601E-002	7.39938E-001	3.57920E+000	9	...........
	51	0.693333	7.47380E-001	1.01138E-004	0.00000E+000	7.55883E-005	5.99601E-002	7.47662E-001	3.57920E+000	9	...........
	52	0.706667	7.54937E-001	1.01485E-004	0.00000E+000	7.66145E-005	5.99601E-002	7.55216E-001	3.57920E+000	9	...........
	53	0.72	7.62353E-001	1.01060E-004	0.00000E+000	7.70431E-005	5.99601E-002	7.62645E-001	3.57920E+000	9	...........
	54	0.733333	7.69647E-001	1.01652E-004	0.00000E+000	7.82364E-005	5.99601E-002	7.69950E-001	3.57920E+000	9	...........
	55	0.746667	7.76800E-001	1.00906E-004	0.00000E+000	7.83841E-005	5.99601E-002	7.77087E-001	3.57920E+000	9	...........
	56	0.76	7.83841E-001	1.01165E-004	0.00000E+000	7.92971E-005	5.99601E-002	7.84139E-001	3.57920E+000	9	...........
	57	0.773333	7.90731E-001	1.00459E-004	0.00000E+000	7.94364E-005	5.99601E-002	7.91051E-001	3.57920E+000	9	...........
	58	0.786667	7.97539E-001	1.01124E-004	0.00000E+000	8.06504E-005	5.99601E-002	7.97847E-001	3.57920E+000	9	...........
	59	0.8	8.04202E-001	1.00370E-004	0.00000E+000	8.07176E-005	5.99601E-002	8.04507E-001	3.57920E+000	9	...........
	60	0.813333	8.10715E-001	1.00844E-004	0.00000E+000	8.17556E-005	5.99601E-002	8.11030E-001	3.57920E+000	9	...........
	61	0.826667	8.17157E-001	1.01063E-004	0.00000E+000	8.25841E-005	5.99601E-002	8.17508E-001	3.57920E+000	9	...........
	62	0.84	8.23500E-001	1.00509E-004	0.00000E+000	8.27695E-005	5.99601E-002	8.23830E-001	3.57920E+000	9	...........
	63	0.853333	8.29727E-001	1.00802E-004	0.00000E+000	8.36383E-005	5.99601E-002	8.30057E-001	3.57920E+000	9	...........
	64	0.866667	8.35840E-001	1.00934E-004	0.00000E+000	8.43651E-005	5.99601E-002	8.36188E-001	3.57920E+000	9	...........
	65	0.88	8.41859E-001	1.00501E-004	0.00000E+000	8.46077E-005	5.99601E-002	8.42210E-001	3.57920E+000	9	...........
	66	0.893333	8.47807E-001	1.00198E-004	0.00000E+000	8.49485E-005	5.99601E-002	8.48158E-001	3.57920E+000	9	...........
	67	0.906667	8.53612E-001	1.00574E-004	0.00000E+000	8.58512E-005	5.99601E-002	8.53966E-001	3.57920E+000	9	...........
	68	0.92	8.59334E-001	1.01275E-004	0.00000E+000	8.70292E-005	5.99601E-002	8.59692E-001	3.57920E+000	9	...........
	69	0.933333	8.64956E-001	1.01065E-004	0.00000E+000	8.74166E-005	5.99601E-002	8.65351E-001	3.57920E+000	9	...........
	70	0.946667	8.70544E-001	1.00304E-004	0.00000E+000	8.73192E-005	5.99601E-002	8.70903E-001	3.57920E+000	9	...........
	71	0.96	8.76018E-001	1.00502E-004	0.00000E+000	8.80416E-005	5.99601E-002	8.76362E-001	3.57920E+000	9	...........
	72	0.97333	8.81382E-001	1.00396E-004	0.00000E+000	8.84871E-005	5.99601E-002	8.81723E-001	3.57920E+000	9	...........
	73	0.98667	8.86654E-001	1.01447E-004	0.00000E+000	8.99485E-005	5.99601E-002	8.86999E-001	3.57920E+000	9	...........
	74	1	8.91820E-001	9.99906E-005	0.00000E+000	8.91736E-005	5.99601E-002	8.92183E-001	3.57920E+000	9	...........
	75	1.01333	8.96962E-001	1.00917E-004	0.00000E+000	9.05185E-005	5.99601E-002	8.97303E-001	3.57920E+000	9	...........
	76	1.02667	9.01977E-001	1.00991E-004	0.00000E+000	9.10914E-005	5.99601E-002	9.02347E-001	3.57920E+000	9	...........
	77	1.04	9.06913E-001	1.01147E-004	0.00000E+000	9.17316E-005	5.99601E-002	9.07317E-001	3.57920E+000	9	...........
	78	1.05333	9.11786E-001	1.00151E-004	0.00000E+000	9.13163E-005	5.99601E-002	9.12153E-001	3.57920E+000	9	...........
	79	1.06667	9.16569E-001	1.00347E-004	0.00000E+000	9.19748E-005	5.99601E-002	9.16960E-001	3.57920E+000	9	...........
	80	1.08	9.21311E-001	1.00236E-004	0.00000E+000	9.23489E-005	5.99601E-002	9.21667E-001	3.57920E+000	9	...........
	81	1.09333	9.25971E-001	1.00928E-004	0.00000E+000	9.34566E-005	5.99601E-002	9.26298E-001	3.57920E+000	9	...........
	82	1.10667	9.30492E-001	1.02049E-004	0.00000E+000	9.49560E-005	5.99601E-002	9.30843E-001	3.57920E+000	9	...........
	83	1.12	9.34956E-001	1.00601E-004	0.00000E+000	9.40576E-005	5.99601E-002	9.35334E-001	3.57920E+000	9	...........
	84	1.13333	9.39357E-001	1.00856E-004	0.00000E+000	9.47402E-005	5.99601E-002	9.39729E-001	3.57920E+000	9	...........
	85	1.14667	9.43631E-001	1.00254E-004	0.00000E+000	9.46030E-005	5.99601E-002	9.44020E-001	3.57920E+000	9	...........
	86	1.16	9.47933E-001	1.01488E-004	0.00000E+000	9.62036E-005	5.99601E-002	9.48304E-001	3.57920E+000	9	...........
	87	1.17333	9.52101E-001	1.00788E-004	0.00000E+000	9.59599E-005	5.99601E-002	9.52483E-001	3.57920E+000	9	...........
	88	1.18667	9.56215E-001	1.01293E-004	0.00000E+000	9.68578E-005	5.99601E-002	9.56571E-001	3.57920E+000	9	...........
	89	1.2	9.60208E-001	1.00891E-004	0.00000E+000	9.68761E-005	5.99601E-002	9.60618E-001	3.57920E+000	9	...........
	90	1.21333	9.64178E-001	1.00888E-004	0.00000E+000	9.72736E-005	5.99601E-002	9.64566E-001	3.57920E+000	9	...........
	91	1.22667	9.68064E-001	1.00171E-004	0.00000E+000	9.69718E-005	5.99601E-002	9.68450E-001	3.57920E+000	9	...........
	92	1.24	9.71903E-001	1.00255E-004	0.00000E+000	9.74383E-005	5.99601E-002	9.72284E-001	3.57920E+000	9	...........
	93	1.25333	9.75681E-001	1.01140E-004	0.00000E+000	9.86801E-005	5.99601E-002	9.76034E-001	3.57920E+000	9	...........
	94	1.26667	9.79337E-001	1.00413E-004	0.00000E+000	9.83377E-005	5.99601E-002	9.79705E-001	3.57920E+000	9	...........
	95	1.28	9.82926E-001	1.01030E-004	0.00000E+000	9.93054E-005	5.99601E-002	9.83310E-001	3.57920E+000	9	...........
	96	1.29333	9.86459E-001	1.00037E-004	0.00000E+000	9.86828E-005	5.99601E-002	9.86852E-001	3.57920E+000	9	...........
	97	1.30667	9.89952E-001	1.00381E-004	0.00000E+000	9.93727E-005	5.99601E-002	9.90320E-001	3.57920E+000	9	...........
	98	1.32	9.93326E-001	1.01313E-004	0.00000E+000	1.00637E-004	5.99601E-002	9.93720E-001	3.57920E+000	9	...........
	99	1.33333	9.96675E-001	1.00304E-004	0.00000E+000	9.99706E-005	5.99601E-002	9.97067E-001	3.57920E+000	9	...........
	100	1.34167	9.99352E-001	1.00470E-004	0.00000E+000	1.00404E-004	5.99601E-002	9.99735E-001	3.57920E+000	9	...........
STARTTIMEOFFSET	QUANT	137.085	Start Time Offset (s)
