EXPLAIN
TAG	PWR800_CHARGE
TITLE	LABEL	PWR Cyclic Charge Discharge (Cell) - Charge Step	Test &Identifier
DATE	LABEL	13-7-2017	Date
TIME	LABEL	15:13:24	Time
NOTES	NOTES	2	&Notes...
	supercap test cell
	6M KOH
PSTAT	PSTAT	IFC5000-01520	Potentiostat
CAPACITY	QUANT	1.00000E-003	Capacity (A-hr)
CELLTYPE	SELECTOR	1	&Cell Type
WORKINGCONNECTION	SELECTOR	0	&Working Lead
MAXCHARGETIME	VARIABLEANDUNITS	1.00000E+002	s	1.00000E+002	second(s)	Max &Charge Time
CHARGECURRENT	QUANT	1.00000E-004	&Charge Current (A) 
VOLTAGEFINISH	TWOPARAM	F	1.00000E-003	3.60000E+003	&Voltage Finish	 I (A) < 	Max Time(s)
SAMPLETIME	QUANT	1.00000E-002	Sa&mple Period (s)
CHARGESTOPAT1	MULTIPARAM	4	1.00000E+000	Charge Stop At &1	Voltage > Limit	V
CHARGESTOPAT2	MULTIPARAM	0	0.00000E+000	Charge Stop At &2	None	N/A
AESBHCSELECTOR	TOGGLE	F	Save Both Half Cells
IRCOMP	TOGGLE	F	IR &Measure
EOC	QUANT	0	Open Circuit (V)
SEQUENCER	TOGGLE	TRUE	Run as Sequence
PSTATMODEL	IQUANT	53	Pstat Model
PSTATSECTION	LABEL	IFC5000-01520	Pstat Section
PSTATSERIALNO	LABEL	01520	Pstat Serial Number
CTRLMODE	IQUANT	0	Control Mode
ELECTROMETER	IQUANT	1	RE=0 or CS=1
IESTAB	IQUANT	0	I/E Stability
CASPEED	IQUANT	4	Control Amp Speed
CONVENTION	IQUANT	1	Current Convention
ICHRANGE	IQUANT	2	Ich Range
ICHRANGEMODE	TOGGLE	T	Ich Auto Range
ICHOFFSETENABLE	TOGGLE	F	Ich Offset Enable
ICHOFFSET	QUANT	0	Ich Offset (V)
ICHFILTER	IQUANT	1	Ich Filter
VCHRANGE	IQUANT	2	Vch Range
VCHRANGEMODE	TOGGLE	T	Vch Auto Range
VCHOFFSETENABLE	TOGGLE	F	Vch Offset Enable
VCHOFFSET	QUANT	0	Vch Offset (V)
VCHFILTER	IQUANT	1	Vch Filter
IERANGELOWERLIMIT	IQUANT	9	I/E Range Lower Limit
IERANGEMODE	TOGGLE	F	I/E AutoRange
IERANGE	IQUANT	9	I/E Range
ACHSELECT	IQUANT	1	Ach Select
ACHRANGE	IQUANT	2	Ach Range
ACHOFFSETENABLE	TOGGLE	F	Ach Offset Enable
ACHOFFSET	QUANT	0	Ach Offset (V)
ACHFILTER	IQUANT	1	Ach Filter
CABLEID	IQUANT	14	Cable ID
DCCALDATE	LABEL	5-7-2017	DC Calibration Date
ACCALDATE	LABEL	12/3/2015	AC Calibration Date
FRAMEWORKVERSION	QUANT	7.01	Framework Version
INSTRUMENTVERSION	LABEL	4.00	Instrument Version
CURVE	TABLE	96
	Pt	T	Vf	Im	Vu	Pwr	Sig	Ach	Temp	IERange	Over
	#	s	V	A	V	W	V	V	deg C	#	bits
	0	0.013333	1.32696E-001	1.02005E-004	0.00000E+000	1.35356E-005	5.99601E-002	1.32742E-001	3.57920E+000	9	...........
	1	0.026667	1.47912E-001	1.01000E-004	0.00000E+000	1.49392E-005	5.99601E-002	1.47930E-001	3.57920E+000	9	...........
	2	0.04	1.62687E-001	1.00771E-004	0.00000E+000	1.63941E-005	5.99601E-002	1.62711E-001	3.57920E+000	9	...........
	3	0.053333	1.77184E-001	9.99051E-005	0.00000E+000	1.77015E-005	5.99601E-002	1.77219E-001	3.57920E+000	9	...........
	4	0.066667	1.91499E-001	1.00995E-004	0.00000E+000	1.93405E-005	5.99601E-002	1.91536E-001	3.57920E+000	9	...........
	5	0.08	2.05668E-001	1.01422E-004	0.00000E+000	2.08593E-005	5.99601E-002	2.05707E-001	3.57920E+000	9	...........
	6	0.093333	2.19728E-001	1.01272E-004	0.00000E+000	2.22523E-005	5.99601E-002	2.19771E-001	3.57920E+000	9	...........
	7	0.106667	2.33720E-001	1.01046E-004	0.00000E+000	2.36165E-005	5.99601E-002	2.33758E-001	3.57920E+000	9	...........
	8	0.12	2.47657E-001	1.01245E-004	0.00000E+000	2.50741E-005	5.99601E-002	2.47703E-001	3.57920E+000	9	...........
	9	0.133333	2.61555E-001	1.00649E-004	0.00000E+000	2.63253E-005	5.99601E-002	2.61609E-001	3.57920E+000	9	...........
	10	0.146667	2.75440E-001	1.01640E-004	0.00000E+000	2.79957E-005	5.99601E-002	2.75497E-001	3.57920E+000	9	...........
	11	0.16	2.89309E-001	1.01374E-004	0.00000E+000	2.93285E-005	5.99601E-002	2.89364E-001	3.57920E+000	9	...........
	12	0.173333	3.03175E-001	1.00399E-004	0.00000E+000	3.04385E-005	5.99601E-002	3.03236E-001	3.57920E+000	9	...........
	13	0.186667	3.17046E-001	1.02026E-004	0.00000E+000	3.23471E-005	5.99601E-002	3.17103E-001	3.57920E+000	9	...........
	14	0.2	3.30918E-001	1.01231E-004	0.00000E+000	3.34993E-005	5.99601E-002	3.30982E-001	3.57920E+000	9	...........
	15	0.213333	3.44795E-001	1.00477E-004	0.00000E+000	3.46440E-005	5.99601E-002	3.44860E-001	3.57920E+000	9	...........
	16	0.226667	3.58659E-001	1.01092E-004	0.00000E+000	3.62575E-005	5.99601E-002	3.58727E-001	3.57920E+000	9	...........
	17	0.24	3.72514E-001	1.01188E-004	0.00000E+000	3.76939E-005	5.99601E-002	3.72585E-001	3.57920E+000	9	...........
	18	0.253333	3.86348E-001	1.01079E-004	0.00000E+000	3.90518E-005	5.99601E-002	3.86425E-001	3.57920E+000	9	...........
	19	0.266667	4.00155E-001	1.00390E-004	0.00000E+000	4.01714E-005	5.99601E-002	4.00236E-001	3.57920E+000	9	...........
	20	0.28	4.13906E-001	1.00456E-004	0.00000E+000	4.15795E-005	5.99601E-002	4.13997E-001	3.57920E+000	9	...........
	21	0.293333	4.27596E-001	1.01730E-004	0.00000E+000	4.34996E-005	5.99601E-002	4.27686E-001	3.57920E+000	9	...........
	22	0.306667	4.41188E-001	1.00733E-004	0.00000E+000	4.44424E-005	5.99601E-002	4.41287E-001	3.57920E+000	9	...........
	23	0.32	4.54683E-001	9.99030E-005	0.00000E+000	4.54242E-005	5.99601E-002	4.54778E-001	3.57920E+000	9	...........
	24	0.333333	4.68050E-001	1.01307E-004	0.00000E+000	4.74169E-005	5.99601E-002	4.68144E-001	3.57920E+000	9	...........
	25	0.346667	4.81267E-001	1.01148E-004	0.00000E+000	4.86792E-005	5.99601E-002	4.81365E-001	3.57920E+000	9	...........
	26	0.36	4.94319E-001	1.00757E-004	0.00000E+000	4.98063E-005	5.99601E-002	4.94425E-001	3.57920E+000	9	...........
	27	0.373333	5.07193E-001	1.00738E-004	0.00000E+000	5.10934E-005	5.99601E-002	5.07301E-001	3.57920E+000	9	...........
	28	0.386667	5.19874E-001	1.00799E-004	0.00000E+000	5.24028E-005	5.99601E-002	5.19991E-001	3.57920E+000	9	...........
	29	0.4	5.32213E-001	1.00280E-004	0.00000E+000	5.33705E-005	5.99601E-002	5.32383E-001	3.57920E+000	9	...........
	30	0.413333	5.44284E-001	1.00371E-004	0.00000E+000	5.46302E-005	5.99601E-002	5.44531E-001	3.57920E+000	9	...........
	31	0.426667	5.56306E-001	1.01072E-004	0.00000E+000	5.62270E-005	5.99601E-002	5.56597E-001	3.57920E+000	9	...........
	32	0.44	5.68195E-001	1.01044E-004	0.00000E+000	5.74127E-005	5.99601E-002	5.68453E-001	3.57920E+000	9	...........
	33	0.453333	5.79808E-001	1.01265E-004	0.00000E+000	5.87142E-005	5.99601E-002	5.80068E-001	3.57920E+000	9	...........
	34	0.466667	5.91205E-001	1.00778E-004	0.00000E+000	5.95806E-005	5.99601E-002	5.91490E-001	3.57920E+000	9	...........
	35	0.48	6.02372E-001	1.01179E-004	0.00000E+000	6.09476E-005	5.99601E-002	6.02646E-001	3.57920E+000	9	...........
	36	0.493333	6.13351E-001	1.01298E-004	0.00000E+000	6.21313E-005	5.99601E-002	6.13601E-001	3.57920E+000	9	...........
	37	0.506667	6.24106E-001	1.01426E-004	0.00000E+000	6.33007E-005	5.99601E-002	6.24317E-001	3.57920E+000	9	...........
	38	0.52	6.34617E-001	1.01961E-004	0.00000E+000	6.47060E-005	5.99601E-002	6.34859E-001	3.57920E+000	9	...........
	39	0.533333	6.44945E-001	1.00317E-004	0.00000E+000	6.46987E-005	5.99601E-002	6.45203E-001	3.57920E+000	9	...........
	40	0.546667	6.55038E-001	1.00770E-004	0.00000E+000	6.60081E-005	5.99601E-002	6.55298E-001	3.57920E+000	9	...........
	41	0.56	6.64951E-001	1.00060E-004	0.00000E+000	6.65352E-005	5.99601E-002	6.65214E-001	3.57920E+000	9	...........
	42	0.573333	6.74664E-001	1.01255E-004	0.00000E+000	6.83134E-005	5.99601E-002	6.74952E-001	3.57920E+000	9	...........
	43	0.586667	6.84166E-001	1.00118E-004	0.00000E+000	6.84971E-005	5.99601E-002	6.84455E-001	3.57920E+000	9	...........
	44	0.6	6.93486E-001	1.00475E-004	0.00000E+000	6.96781E-005	5.99601E-002	6.93773E-001	3.57920E+000	9	...........
	45	0.613333	7.02642E-001	1.01284E-004	0.00000E+000	7.11661E-005	5.99601E-002	7.02932E-001	3.57920E+000	9	...........
	46	0.626667	7.11589E-001	1.00341E-004	0.00000E+000	7.14013E-005	5.99601E-002	7.11898E-001	3.57920E+000	9	...........
	47	0.64	7.20404E-001	1.01011E-004	0.00000E+000	7.27684E-005	5.99601E-002	7.20724E-001	3.57920E+000	9	...........
	48	0.653333	7.29026E-001	1.01056E-004	0.00000E+000	7.36727E-005	5.99601E-002	7.29325E-001	3.57920E+000	9	...........
	49	0.666667	7.37449E-001	1.00665E-004	0.00000E+000	7.42350E-005	5.99601E-002	7.37783E-001	3.57920E+000	9	...........
	50	0.68	7.45788E-001	1.00532E-004	0.00000E+000	7.49758E-005	5.99601E-002	7.46101E-001	3.57920E+000	9	...........
	51	0.693333	7.53915E-001	1.01174E-004	0.00000E+000	7.62767E-005	5.99601E-002	7.54235E-001	3.57920E+000	9	...........
	52	0.706667	7.61910E-001	1.00890E-004	0.00000E+000	7.68689E-005	5.99601E-002	7.62216E-001	3.57920E+000	9	...........
	53	0.72	7.69765E-001	1.00252E-004	0.00000E+000	7.71705E-005	5.99601E-002	7.70081E-001	3.57920E+000	9	...........
	54	0.733333	7.77439E-001	1.01222E-004	0.00000E+000	7.86940E-005	5.99601E-002	7.77782E-001	3.57920E+000	9	...........
	55	0.746667	7.85014E-001	1.00101E-004	0.00000E+000	7.85807E-005	5.99601E-002	7.85315E-001	3.57920E+000	9	...........
	56	0.76	7.92429E-001	1.01164E-004	0.00000E+000	8.01651E-005	5.99601E-002	7.92741E-001	3.57920E+000	9	...........
	57	0.773333	7.99722E-001	1.01040E-004	0.00000E+000	8.08037E-005	5.99601E-002	8.00011E-001	3.57920E+000	9	...........
	58	0.786667	8.06870E-001	1.01720E-004	0.00000E+000	8.20748E-005	5.99601E-002	8.07166E-001	3.57920E+000	9	...........
	59	0.8	8.13890E-001	1.00851E-004	0.00000E+000	8.20817E-005	5.99601E-002	8.14191E-001	3.57920E+000	9	...........
	60	0.813333	8.20806E-001	1.00394E-004	0.00000E+000	8.24038E-005	5.99601E-002	8.21115E-001	3.57920E+000	9	...........
	61	0.826667	8.27597E-001	1.01642E-004	0.00000E+000	8.41186E-005	5.99601E-002	8.27907E-001	3.57920E+000	9	...........
	62	0.84	8.34262E-001	1.00648E-004	0.00000E+000	8.39668E-005	5.99601E-002	8.34602E-001	3.57920E+000	9	...........
	63	0.853333	8.40796E-001	1.01658E-004	0.00000E+000	8.54733E-005	5.99601E-002	8.41143E-001	3.57920E+000	9	...........
	64	0.866667	8.47261E-001	1.01328E-004	0.00000E+000	8.58515E-005	5.99601E-002	8.47616E-001	3.57920E+000	9	...........
	65	0.88	8.53594E-001	1.00827E-004	0.00000E+000	8.60655E-005	5.99601E-002	8.53926E-001	3.57920E+000	9	...........
	66	0.893333	8.59813E-001	1.00418E-004	0.00000E+000	8.63405E-005	5.99601E-002	8.60169E-001	3.57920E+000	9	...........
	67	0.906667	8.65935E-001	1.01234E-004	0.00000E+000	8.76617E-005	5.99601E-002	8.66309E-001	3.57954E+000	9	...........
	68	0.92	8.71972E-001	1.00172E-004	0.00000E+000	8.73471E-005	5.99601E-002	8.72334E-001	3.58010E+000	9	...........
	69	0.933333	8.77866E-001	1.01349E-004	0.00000E+000	8.89710E-005	5.99601E-002	8.78244E-001	3.58010E+000	9	...........
	70	0.946667	8.83714E-001	1.01014E-004	0.00000E+000	8.92672E-005	5.99601E-002	8.84077E-001	3.58010E+000	9	...........
	71	0.96	8.89413E-001	1.01151E-004	0.00000E+000	8.99652E-005	5.99601E-002	8.89782E-001	3.58010E+000	9	...........
	72	0.97333	8.95026E-001	1.00645E-004	0.00000E+000	9.00798E-005	5.99601E-002	8.95404E-001	3.58010E+000	9	...........
	73	0.98667	9.00544E-001	1.01475E-004	0.00000E+000	9.13829E-005	5.99601E-002	9.00939E-001	3.58010E+000	9	...........
	74	1	9.05966E-001	1.00691E-004	0.00000E+000	9.12224E-005	5.99601E-002	9.06372E-001	3.58010E+000	9	...........
	75	1.01333	9.11317E-001	1.01001E-004	0.00000E+000	9.20441E-005	5.99601E-002	9.11687E-001	3.58010E+000	9	...........
	76	1.02667	9.16538E-001	1.00250E-004	0.00000E+000	9.18829E-005	5.99601E-002	9.16940E-001	3.58010E+000	9	...........
	77	1.04	9.21727E-001	1.01678E-004	0.00000E+000	9.37197E-005	5.99601E-002	9.22104E-001	3.58010E+000	9	...........
	78	1.05333	9.26796E-001	1.00630E-004	0.00000E+000	9.32638E-005	5.99601E-002	9.27167E-001	3.58010E+000	9	...........
	79	1.06667	9.31770E-001	1.00323E-004	0.00000E+000	9.34778E-005	5.99601E-002	9.32129E-001	3.58010E+000	9	...........
	80	1.08	9.36633E-001	1.00943E-004	0.00000E+000	9.45464E-005	5.99601E-002	9.37027E-001	3.58010E+000	9	...........
	81	1.09333	9.41414E-001	1.01088E-004	0.00000E+000	9.51654E-005	5.99601E-002	9.41801E-001	3.58010E+000	9	...........
	82	1.10667	9.46129E-001	1.01274E-004	0.00000E+000	9.58184E-005	5.99601E-002	9.46529E-001	3.58010E+000	9	...........
	83	1.12	9.50774E-001	1.00160E-004	0.00000E+000	9.52299E-005	5.99601E-002	9.51153E-001	3.58010E+000	9	...........
	84	1.13333	9.55297E-001	1.01419E-004	0.00000E+000	9.68852E-005	5.99601E-002	9.55690E-001	3.58010E+000	9	...........
	85	1.14667	9.59740E-001	1.01151E-004	0.00000E+000	9.70788E-005	5.99601E-002	9.60143E-001	3.58010E+000	9	...........
	86	1.16	9.64100E-001	1.02156E-004	0.00000E+000	9.84882E-005	5.99601E-002	9.64496E-001	3.58010E+000	9	...........
	87	1.17333	9.68358E-001	1.01337E-004	0.00000E+000	9.81302E-005	5.99601E-002	9.68778E-001	3.58010E+000	9	...........
	88	1.18667	9.72598E-001	1.01661E-004	0.00000E+000	9.88750E-005	5.99601E-002	9.72990E-001	3.58010E+000	9	...........
	89	1.2	9.76717E-001	1.01648E-004	0.00000E+000	9.92816E-005	5.99601E-002	9.77101E-001	3.58010E+000	9	...........
	90	1.21333	9.80759E-001	1.00688E-004	0.00000E+000	9.87502E-005	5.99601E-002	9.81101E-001	3.58010E+000	9	...........
	91	1.22667	9.84674E-001	1.00507E-004	0.00000E+000	9.89670E-005	5.99601E-002	9.85052E-001	3.58010E+000	9	...........
	92	1.24	9.88552E-001	1.00107E-004	0.00000E+000	9.89612E-005	5.99601E-002	9.88929E-001	3.58010E+000	9	...........
	93	1.25333	9.92352E-001	1.00571E-004	0.00000E+000	9.98017E-005	5.99601E-002	9.92715E-001	3.58010E+000	9	...........
	94	1.26667	9.96045E-001	1.01795E-004	0.00000E+000	1.01392E-004	5.99601E-002	9.96432E-001	3.58010E+000	9	...........
	95	1.27667	9.99264E-001	1.00437E-004	0.00000E+000	1.00363E-004	5.99601E-002	9.99617E-001	3.58010E+000	9	...........
STARTTIMEOFFSET	QUANT	513.4965	Start Time Offset (s)
