EXPLAIN
TAG	PWR800_CHARGE
TITLE	LABEL	PWR Cyclic Charge Discharge (Cell) - Charge Step	Test &Identifier
DATE	LABEL	13-7-2017	Date
TIME	LABEL	15:53:22	Time
NOTES	NOTES	2	&Notes...
	supercap test cell
	6M KOH
PSTAT	PSTAT	IFC5000-01520	Potentiostat
CAPACITY	QUANT	1.00000E-003	Capacity (A-hr)
CELLTYPE	SELECTOR	1	&Cell Type
WORKINGCONNECTION	SELECTOR	0	&Working Lead
MAXCHARGETIME	VARIABLEANDUNITS	1.00000E+002	s	1.00000E+002	second(s)	Max &Charge Time
CHARGECURRENT	QUANT	1.00000E-004	&Charge Current (A) 
VOLTAGEFINISH	TWOPARAM	F	1.00000E-003	3.60000E+003	&Voltage Finish	 I (A) < 	Max Time(s)
SAMPLETIME	QUANT	1.00000E-002	Sa&mple Period (s)
CHARGESTOPAT1	MULTIPARAM	4	1.00000E+000	Charge Stop At &1	Voltage > Limit	V
CHARGESTOPAT2	MULTIPARAM	0	0.00000E+000	Charge Stop At &2	None	N/A
AESBHCSELECTOR	TOGGLE	F	Save Both Half Cells
IRCOMP	TOGGLE	F	IR &Measure
EOC	QUANT	0	Open Circuit (V)
SEQUENCER	TOGGLE	TRUE	Run as Sequence
PSTATMODEL	IQUANT	53	Pstat Model
PSTATSECTION	LABEL	IFC5000-01520	Pstat Section
PSTATSERIALNO	LABEL	01520	Pstat Serial Number
CTRLMODE	IQUANT	0	Control Mode
ELECTROMETER	IQUANT	1	RE=0 or CS=1
IESTAB	IQUANT	0	I/E Stability
CASPEED	IQUANT	4	Control Amp Speed
CONVENTION	IQUANT	1	Current Convention
ICHRANGE	IQUANT	2	Ich Range
ICHRANGEMODE	TOGGLE	T	Ich Auto Range
ICHOFFSETENABLE	TOGGLE	F	Ich Offset Enable
ICHOFFSET	QUANT	0	Ich Offset (V)
ICHFILTER	IQUANT	1	Ich Filter
VCHRANGE	IQUANT	2	Vch Range
VCHRANGEMODE	TOGGLE	T	Vch Auto Range
VCHOFFSETENABLE	TOGGLE	F	Vch Offset Enable
VCHOFFSET	QUANT	0	Vch Offset (V)
VCHFILTER	IQUANT	1	Vch Filter
IERANGELOWERLIMIT	IQUANT	9	I/E Range Lower Limit
IERANGEMODE	TOGGLE	F	I/E AutoRange
IERANGE	IQUANT	9	I/E Range
ACHSELECT	IQUANT	1	Ach Select
ACHRANGE	IQUANT	2	Ach Range
ACHOFFSETENABLE	TOGGLE	F	Ach Offset Enable
ACHOFFSET	QUANT	0	Ach Offset (V)
ACHFILTER	IQUANT	1	Ach Filter
CABLEID	IQUANT	14	Cable ID
DCCALDATE	LABEL	5-7-2017	DC Calibration Date
ACCALDATE	LABEL	12/3/2015	AC Calibration Date
FRAMEWORKVERSION	QUANT	7.01	Framework Version
INSTRUMENTVERSION	LABEL	4.00	Instrument Version
CURVE	TABLE	89
	Pt	T	Vf	Im	Vu	Pwr	Sig	Ach	Temp	IERange	Over
	#	s	V	A	V	W	V	V	deg C	#	bits
	0	0.013333	1.33387E-001	1.00931E-004	0.00000E+000	1.34629E-005	5.99601E-002	1.33432E-001	3.57920E+000	9	...........
	1	0.026667	1.48698E-001	1.01070E-004	0.00000E+000	1.50289E-005	5.99601E-002	1.48715E-001	3.57920E+000	9	...........
	2	0.04	1.63574E-001	1.00449E-004	0.00000E+000	1.64308E-005	5.99601E-002	1.63597E-001	3.57920E+000	9	...........
	3	0.053333	1.78183E-001	1.01371E-004	0.00000E+000	1.80626E-005	5.99601E-002	1.78205E-001	3.57920E+000	9	...........
	4	0.066667	1.92603E-001	1.01113E-004	0.00000E+000	1.94746E-005	5.99601E-002	1.92630E-001	3.57920E+000	9	...........
	5	0.08	2.06877E-001	1.00156E-004	0.00000E+000	2.07200E-005	5.99601E-002	2.06902E-001	3.57920E+000	9	...........
	6	0.093333	2.21052E-001	1.01101E-004	0.00000E+000	2.23486E-005	5.99601E-002	2.21084E-001	3.57920E+000	9	...........
	7	0.106667	2.35171E-001	1.01239E-004	0.00000E+000	2.38084E-005	5.99601E-002	2.35205E-001	3.57920E+000	9	...........
	8	0.12	2.49234E-001	1.00695E-004	0.00000E+000	2.50966E-005	5.99601E-002	2.49279E-001	3.57920E+000	9	...........
	9	0.133333	2.63283E-001	1.01060E-004	0.00000E+000	2.66072E-005	5.99601E-002	2.63329E-001	3.57920E+000	9	...........
	10	0.146667	2.77318E-001	1.01044E-004	0.00000E+000	2.80213E-005	5.99601E-002	2.77371E-001	3.57920E+000	9	...........
	11	0.16	2.91367E-001	1.01381E-004	0.00000E+000	2.95392E-005	5.99601E-002	2.91412E-001	3.57920E+000	9	...........
	12	0.173333	3.05422E-001	1.01849E-004	0.00000E+000	3.11071E-005	5.99601E-002	3.05481E-001	3.57920E+000	9	...........
	13	0.186667	3.19513E-001	1.00720E-004	0.00000E+000	3.21813E-005	5.99601E-002	3.19569E-001	3.57920E+000	9	...........
	14	0.2	3.33619E-001	1.00710E-004	0.00000E+000	3.35989E-005	5.99601E-002	3.33674E-001	3.57920E+000	9	...........
	15	0.213333	3.47760E-001	1.00717E-004	0.00000E+000	3.50252E-005	5.99601E-002	3.47817E-001	3.57920E+000	9	...........
	16	0.226667	3.61918E-001	1.01023E-004	0.00000E+000	3.65621E-005	5.99601E-002	3.61987E-001	3.57920E+000	9	...........
	17	0.24	3.76110E-001	1.00571E-004	0.00000E+000	3.78257E-005	5.99601E-002	3.76174E-001	3.57920E+000	9	...........
	18	0.253333	3.90317E-001	1.01320E-004	0.00000E+000	3.95469E-005	5.99601E-002	3.90385E-001	3.57920E+000	9	...........
	19	0.266667	4.04512E-001	1.01049E-004	0.00000E+000	4.08756E-005	5.99601E-002	4.04585E-001	3.57920E+000	9	...........
	20	0.28	4.18688E-001	1.01607E-004	0.00000E+000	4.25414E-005	5.99601E-002	4.18774E-001	3.57920E+000	9	...........
	21	0.293333	4.32832E-001	1.00713E-004	0.00000E+000	4.35917E-005	5.99601E-002	4.32915E-001	3.57920E+000	9	...........
	22	0.306667	4.46920E-001	1.00584E-004	0.00000E+000	4.49532E-005	5.99601E-002	4.47006E-001	3.57920E+000	9	...........
	23	0.32	4.60926E-001	1.00953E-004	0.00000E+000	4.65320E-005	5.99601E-002	4.61012E-001	3.57920E+000	9	...........
	24	0.333333	4.74828E-001	1.01024E-004	0.00000E+000	4.79691E-005	5.99601E-002	4.74926E-001	3.57920E+000	9	...........
	25	0.346667	4.88613E-001	1.00866E-004	0.00000E+000	4.92843E-005	5.99601E-002	4.88712E-001	3.57920E+000	9	...........
	26	0.36	5.02247E-001	1.00066E-004	0.00000E+000	5.02577E-005	5.99601E-002	5.02351E-001	3.57920E+000	9	...........
	27	0.373333	5.15719E-001	9.98134E-005	0.00000E+000	5.14757E-005	5.99601E-002	5.15823E-001	3.57920E+000	9	...........
	28	0.386667	5.28955E-001	1.00066E-004	0.00000E+000	5.29302E-005	5.99601E-002	5.29079E-001	3.57920E+000	9	...........
	29	0.4	5.41740E-001	1.01062E-004	0.00000E+000	5.47492E-005	5.99601E-002	5.41951E-001	3.57920E+000	9	...........
	30	0.413333	5.54608E-001	1.00794E-004	0.00000E+000	5.59010E-005	5.99601E-002	5.54859E-001	3.57920E+000	9	...........
	31	0.426667	5.67302E-001	1.01077E-004	0.00000E+000	5.73414E-005	5.99601E-002	5.67544E-001	3.57920E+000	9	...........
	32	0.44	5.79726E-001	1.01192E-004	0.00000E+000	5.86635E-005	5.99601E-002	5.79968E-001	3.57920E+000	9	...........
	33	0.453333	5.91950E-001	1.01390E-004	0.00000E+000	6.00177E-005	5.99601E-002	5.92200E-001	3.57920E+000	9	...........
	34	0.466667	6.03903E-001	1.00985E-004	0.00000E+000	6.09849E-005	5.99601E-002	6.04177E-001	3.57920E+000	9	...........
	35	0.48	6.15698E-001	1.01013E-004	0.00000E+000	6.21932E-005	5.99601E-002	6.15942E-001	3.57920E+000	9	...........
	36	0.493333	6.27217E-001	1.01664E-004	0.00000E+000	6.37653E-005	5.99601E-002	6.27454E-001	3.57920E+000	9	...........
	37	0.506667	6.38494E-001	1.00653E-004	0.00000E+000	6.42664E-005	5.99601E-002	6.38774E-001	3.57920E+000	9	...........
	38	0.52	6.49558E-001	1.01622E-004	0.00000E+000	6.60094E-005	5.99601E-002	6.49847E-001	3.57920E+000	9	...........
	39	0.533333	6.60389E-001	1.00956E-004	0.00000E+000	6.66705E-005	5.99601E-002	6.60678E-001	3.57920E+000	9	...........
	40	0.546667	6.71012E-001	1.01116E-004	0.00000E+000	6.78499E-005	5.99601E-002	6.71293E-001	3.57920E+000	9	...........
	41	0.56	6.81410E-001	1.01262E-004	0.00000E+000	6.90007E-005	5.99601E-002	6.81700E-001	3.57920E+000	9	...........
	42	0.573333	6.91583E-001	1.00258E-004	0.00000E+000	6.93370E-005	5.99601E-002	6.91847E-001	3.57920E+000	9	...........
	43	0.586667	7.01577E-001	1.00647E-004	0.00000E+000	7.06116E-005	5.99601E-002	7.01853E-001	3.57920E+000	9	...........
	44	0.6	7.11342E-001	1.00957E-004	0.00000E+000	7.18152E-005	5.99601E-002	7.11640E-001	3.57920E+000	9	...........
	45	0.613333	7.20993E-001	1.00646E-004	0.00000E+000	7.25650E-005	5.99601E-002	7.21251E-001	3.57920E+000	9	...........
	46	0.626667	7.30376E-001	1.00583E-004	0.00000E+000	7.34637E-005	5.99601E-002	7.30661E-001	3.57920E+000	9	...........
	47	0.64	7.39581E-001	1.01272E-004	0.00000E+000	7.48989E-005	5.99601E-002	7.39878E-001	3.57920E+000	9	...........
	48	0.653333	7.48633E-001	1.00376E-004	0.00000E+000	7.51448E-005	5.99601E-002	7.48924E-001	3.57920E+000	9	...........
	49	0.666667	7.57503E-001	1.01099E-004	0.00000E+000	7.65828E-005	5.99601E-002	7.57785E-001	3.57920E+000	9	...........
	50	0.68	7.66185E-001	1.01211E-004	0.00000E+000	7.75460E-005	5.99601E-002	7.66497E-001	3.57920E+000	9	...........
	51	0.693333	7.74711E-001	1.01375E-004	0.00000E+000	7.85365E-005	5.99601E-002	7.75024E-001	3.57920E+000	9	...........
	52	0.706667	7.83037E-001	1.00952E-004	0.00000E+000	7.90493E-005	5.99601E-002	7.83339E-001	3.57920E+000	9	...........
	53	0.72	7.91238E-001	1.01360E-004	0.00000E+000	8.01995E-005	5.99601E-002	7.91521E-001	3.57920E+000	9	...........
	54	0.733333	7.99284E-001	1.00699E-004	0.00000E+000	8.04872E-005	5.99601E-002	7.99555E-001	3.57920E+000	9	...........
	55	0.746667	8.07139E-001	1.00738E-004	0.00000E+000	8.13092E-005	5.99601E-002	8.07426E-001	3.57920E+000	9	...........
	56	0.76	8.14865E-001	1.01331E-004	0.00000E+000	8.25715E-005	5.99601E-002	8.15181E-001	3.57920E+000	9	...........
	57	0.773333	8.22465E-001	1.01110E-004	0.00000E+000	8.31591E-005	5.99601E-002	8.22791E-001	3.57940E+000	9	...........
	58	0.786667	8.29901E-001	1.01196E-004	0.00000E+000	8.39826E-005	5.99601E-002	8.30238E-001	3.58000E+000	9	...........
	59	0.8	8.37193E-001	1.00721E-004	0.00000E+000	8.43229E-005	5.99601E-002	8.37558E-001	3.58000E+000	9	...........
	60	0.813333	8.44376E-001	9.98978E-005	0.00000E+000	8.43513E-005	5.99601E-002	8.44703E-001	3.58000E+000	9	...........
	61	0.826667	8.51436E-001	1.02028E-004	0.00000E+000	8.68707E-005	5.99601E-002	8.51752E-001	3.58000E+000	9	...........
	62	0.84	8.58340E-001	1.01137E-004	0.00000E+000	8.68096E-005	5.99601E-002	8.58659E-001	3.58000E+000	9	...........
	63	0.853333	8.65116E-001	1.01180E-004	0.00000E+000	8.75328E-005	5.99601E-002	8.65452E-001	3.58000E+000	9	...........
	64	0.866667	8.71817E-001	1.00814E-004	0.00000E+000	8.78911E-005	5.99601E-002	8.72161E-001	3.58000E+000	9	...........
	65	0.88	8.78364E-001	1.01273E-004	0.00000E+000	8.89546E-005	5.99601E-002	8.78694E-001	3.58000E+000	9	...........
	66	0.893333	8.84781E-001	1.00950E-004	0.00000E+000	8.93188E-005	5.99601E-002	8.85133E-001	3.58000E+000	9	...........
	67	0.906667	8.91083E-001	1.00774E-004	0.00000E+000	8.97981E-005	5.99601E-002	8.91437E-001	3.58000E+000	9	...........
	68	0.92	8.97296E-001	1.00302E-004	0.00000E+000	9.00006E-005	5.99601E-002	8.97650E-001	3.58000E+000	9	...........
	69	0.933333	9.03367E-001	1.01108E-004	0.00000E+000	9.13380E-005	5.99601E-002	9.03724E-001	3.58000E+000	9	...........
	70	0.946667	9.09353E-001	1.00900E-004	0.00000E+000	9.17538E-005	5.99601E-002	9.09692E-001	3.58000E+000	9	...........
	71	0.96	9.15212E-001	1.00772E-004	0.00000E+000	9.22277E-005	5.99601E-002	9.15545E-001	3.58000E+000	9	...........
	72	0.97333	9.21002E-001	1.00476E-004	0.00000E+000	9.25386E-005	5.99601E-002	9.21299E-001	3.58000E+000	9	...........
	73	0.98667	9.26654E-001	1.00621E-004	0.00000E+000	9.32407E-005	5.99601E-002	9.26963E-001	3.58000E+000	9	...........
	74	1	9.32165E-001	1.00783E-004	0.00000E+000	9.39467E-005	5.99601E-002	9.32494E-001	3.58000E+000	9	...........
	75	1.01333	9.37594E-001	1.01230E-004	0.00000E+000	9.49130E-005	5.99601E-002	9.37928E-001	3.58000E+000	9	...........
	76	1.02667	9.42902E-001	1.01378E-004	0.00000E+000	9.55899E-005	5.99601E-002	9.43240E-001	3.58000E+000	9	...........
	77	1.04	9.48139E-001	1.00949E-004	0.00000E+000	9.57138E-005	5.99601E-002	9.48496E-001	3.58000E+000	9	...........
	78	1.05333	9.53252E-001	1.00830E-004	0.00000E+000	9.61167E-005	5.99601E-002	9.53605E-001	3.58000E+000	9	...........
	79	1.06667	9.58239E-001	1.00699E-004	0.00000E+000	9.64938E-005	5.99601E-002	9.58611E-001	3.58000E+000	9	...........
	80	1.08	9.63167E-001	1.00793E-004	0.00000E+000	9.70803E-005	5.99601E-002	9.63551E-001	3.58000E+000	9	...........
	81	1.09333	9.67962E-001	1.01167E-004	0.00000E+000	9.79256E-005	5.99601E-002	9.68331E-001	3.58000E+000	9	...........
	82	1.10667	9.72692E-001	1.01000E-004	0.00000E+000	9.82420E-005	5.99601E-002	9.73043E-001	3.58000E+000	9	...........
	83	1.12	9.77325E-001	1.00544E-004	0.00000E+000	9.82640E-005	5.99601E-002	9.77643E-001	3.58000E+000	9	...........
	84	1.13333	9.81833E-001	1.00797E-004	0.00000E+000	9.89658E-005	5.99601E-002	9.82175E-001	3.58000E+000	9	...........
	85	1.14667	9.86223E-001	1.00918E-004	0.00000E+000	9.95275E-005	5.99601E-002	9.86585E-001	3.58000E+000	9	...........
	86	1.16	9.90584E-001	1.01035E-004	0.00000E+000	1.00083E-004	5.99601E-002	9.90961E-001	3.58000E+000	9	...........
	87	1.17333	9.94797E-001	1.00165E-004	0.00000E+000	9.96433E-005	5.99601E-002	9.95166E-001	3.58000E+000	9	...........
	88	1.185	9.98683E-001	1.00181E-004	0.00000E+000	1.00049E-004	5.99601E-002	9.99080E-001	3.58000E+000	9	...........
STARTTIMEOFFSET	QUANT	2318.194	Start Time Offset (s)
