EXPLAIN
TAG	PWR800_CHARGE
TITLE	LABEL	PWR Cyclic Charge Discharge (Cell) - Charge Step	Test &Identifier
DATE	LABEL	13-7-2017	Date
TIME	LABEL	15:34:31	Time
NOTES	NOTES	2	&Notes...
	supercap test cell
	6M KOH
PSTAT	PSTAT	IFC5000-01520	Potentiostat
CAPACITY	QUANT	1.00000E-003	Capacity (A-hr)
CELLTYPE	SELECTOR	1	&Cell Type
WORKINGCONNECTION	SELECTOR	0	&Working Lead
MAXCHARGETIME	VARIABLEANDUNITS	1.00000E+002	s	1.00000E+002	second(s)	Max &Charge Time
CHARGECURRENT	QUANT	1.00000E-004	&Charge Current (A) 
VOLTAGEFINISH	TWOPARAM	F	1.00000E-003	3.60000E+003	&Voltage Finish	 I (A) < 	Max Time(s)
SAMPLETIME	QUANT	1.00000E-002	Sa&mple Period (s)
CHARGESTOPAT1	MULTIPARAM	4	1.00000E+000	Charge Stop At &1	Voltage > Limit	V
CHARGESTOPAT2	MULTIPARAM	0	0.00000E+000	Charge Stop At &2	None	N/A
AESBHCSELECTOR	TOGGLE	F	Save Both Half Cells
IRCOMP	TOGGLE	F	IR &Measure
EOC	QUANT	0	Open Circuit (V)
SEQUENCER	TOGGLE	TRUE	Run as Sequence
PSTATMODEL	IQUANT	53	Pstat Model
PSTATSECTION	LABEL	IFC5000-01520	Pstat Section
PSTATSERIALNO	LABEL	01520	Pstat Serial Number
CTRLMODE	IQUANT	0	Control Mode
ELECTROMETER	IQUANT	1	RE=0 or CS=1
IESTAB	IQUANT	0	I/E Stability
CASPEED	IQUANT	4	Control Amp Speed
CONVENTION	IQUANT	1	Current Convention
ICHRANGE	IQUANT	2	Ich Range
ICHRANGEMODE	TOGGLE	T	Ich Auto Range
ICHOFFSETENABLE	TOGGLE	F	Ich Offset Enable
ICHOFFSET	QUANT	0	Ich Offset (V)
ICHFILTER	IQUANT	1	Ich Filter
VCHRANGE	IQUANT	2	Vch Range
VCHRANGEMODE	TOGGLE	T	Vch Auto Range
VCHOFFSETENABLE	TOGGLE	F	Vch Offset Enable
VCHOFFSET	QUANT	0	Vch Offset (V)
VCHFILTER	IQUANT	1	Vch Filter
IERANGELOWERLIMIT	IQUANT	9	I/E Range Lower Limit
IERANGEMODE	TOGGLE	F	I/E AutoRange
IERANGE	IQUANT	9	I/E Range
ACHSELECT	IQUANT	1	Ach Select
ACHRANGE	IQUANT	2	Ach Range
ACHOFFSETENABLE	TOGGLE	F	Ach Offset Enable
ACHOFFSET	QUANT	0	Ach Offset (V)
ACHFILTER	IQUANT	1	Ach Filter
CABLEID	IQUANT	14	Cable ID
DCCALDATE	LABEL	5-7-2017	DC Calibration Date
ACCALDATE	LABEL	12/3/2015	AC Calibration Date
FRAMEWORKVERSION	QUANT	7.01	Framework Version
INSTRUMENTVERSION	LABEL	4.00	Instrument Version
CURVE	TABLE	91
	Pt	T	Vf	Im	Vu	Pwr	Sig	Ach	Temp	IERange	Over
	#	s	V	A	V	W	V	V	deg C	#	bits
	0	0.013333	1.35432E-001	1.00830E-004	0.00000E+000	1.36556E-005	5.99601E-002	1.35471E-001	3.57850E+000	9	...........
	1	0.026667	1.50702E-001	1.00813E-004	0.00000E+000	1.51926E-005	5.99601E-002	1.50728E-001	3.57850E+000	9	...........
	2	0.04	1.65549E-001	1.01086E-004	0.00000E+000	1.67347E-005	5.99601E-002	1.65572E-001	3.57850E+000	9	...........
	3	0.053333	1.80131E-001	1.00473E-004	0.00000E+000	1.80983E-005	5.99601E-002	1.80156E-001	3.57850E+000	9	...........
	4	0.066667	1.94516E-001	1.00334E-004	0.00000E+000	1.95166E-005	5.99601E-002	1.94544E-001	3.57850E+000	9	...........
	5	0.08	2.08759E-001	1.01485E-004	0.00000E+000	2.11858E-005	5.99601E-002	2.08793E-001	3.57850E+000	9	...........
	6	0.093333	2.22901E-001	1.00203E-004	0.00000E+000	2.23353E-005	5.99601E-002	2.22942E-001	3.57850E+000	9	...........
	7	0.106667	2.36983E-001	1.00878E-004	0.00000E+000	2.39064E-005	5.99601E-002	2.37021E-001	3.57850E+000	9	...........
	8	0.12	2.51005E-001	1.01028E-004	0.00000E+000	2.53586E-005	5.99601E-002	2.51052E-001	3.57850E+000	9	...........
	9	0.133333	2.64999E-001	1.00369E-004	0.00000E+000	2.65976E-005	5.99601E-002	2.65053E-001	3.57850E+000	9	...........
	10	0.146667	2.78992E-001	1.01015E-004	0.00000E+000	2.81823E-005	5.99601E-002	2.79045E-001	3.57850E+000	9	...........
	11	0.16	2.92980E-001	1.00563E-004	0.00000E+000	2.94628E-005	5.99601E-002	2.93033E-001	3.57850E+000	9	...........
	12	0.173333	3.06980E-001	1.00356E-004	0.00000E+000	3.08074E-005	5.99601E-002	3.07028E-001	3.57850E+000	9	...........
	13	0.186667	3.20994E-001	9.99072E-005	0.00000E+000	3.20696E-005	5.99601E-002	3.21048E-001	3.57850E+000	9	...........
	14	0.2	3.35022E-001	1.01893E-004	0.00000E+000	3.41365E-005	5.99601E-002	3.35084E-001	3.57850E+000	9	...........
	15	0.213333	3.49079E-001	1.00569E-004	0.00000E+000	3.51065E-005	5.99601E-002	3.49144E-001	3.57850E+000	9	...........
	16	0.226667	3.63158E-001	9.99364E-005	0.00000E+000	3.62927E-005	5.99601E-002	3.63220E-001	3.57850E+000	9	...........
	17	0.24	3.77230E-001	1.00866E-004	0.00000E+000	3.80496E-005	5.99601E-002	3.77298E-001	3.57850E+000	9	...........
	18	0.253333	3.91307E-001	1.00915E-004	0.00000E+000	3.94887E-005	5.99601E-002	3.91375E-001	3.57850E+000	9	...........
	19	0.266667	4.05366E-001	1.00897E-004	0.00000E+000	4.09002E-005	5.99601E-002	4.05445E-001	3.57850E+000	9	...........
	20	0.28	4.19397E-001	1.00978E-004	0.00000E+000	4.23500E-005	5.99601E-002	4.19484E-001	3.57850E+000	9	...........
	21	0.293333	4.33373E-001	1.01121E-004	0.00000E+000	4.38231E-005	5.99601E-002	4.33461E-001	3.57850E+000	9	...........
	22	0.306667	4.47282E-001	1.00827E-004	0.00000E+000	4.50982E-005	5.99601E-002	4.47371E-001	3.57850E+000	9	...........
	23	0.32	4.61097E-001	1.00869E-004	0.00000E+000	4.65104E-005	5.99601E-002	4.61190E-001	3.57850E+000	9	...........
	24	0.333333	4.74801E-001	1.01847E-004	0.00000E+000	4.83571E-005	5.99601E-002	4.74893E-001	3.57850E+000	9	...........
	25	0.346667	4.88362E-001	1.01435E-004	0.00000E+000	4.95368E-005	5.99601E-002	4.88459E-001	3.57850E+000	9	...........
	26	0.36	5.01764E-001	1.01245E-004	0.00000E+000	5.08011E-005	5.99601E-002	5.01867E-001	3.57850E+000	9	...........
	27	0.373333	5.15003E-001	1.01078E-004	0.00000E+000	5.20556E-005	5.99601E-002	5.15108E-001	3.57850E+000	9	...........
	28	0.386667	5.28044E-001	1.01023E-004	0.00000E+000	5.33446E-005	5.99601E-002	5.28156E-001	3.57850E+000	9	...........
	29	0.4	5.40521E-001	1.00507E-004	0.00000E+000	5.43263E-005	5.99601E-002	5.40796E-001	3.57850E+000	9	...........
	30	0.413333	5.53162E-001	1.00988E-004	0.00000E+000	5.58625E-005	5.99601E-002	5.53427E-001	3.57850E+000	9	...........
	31	0.426667	5.65597E-001	1.00991E-004	0.00000E+000	5.71200E-005	5.99601E-002	5.65861E-001	3.57850E+000	9	...........
	32	0.44	5.77757E-001	1.01090E-004	0.00000E+000	5.84054E-005	5.99601E-002	5.78043E-001	3.57850E+000	9	...........
	33	0.453333	5.89734E-001	1.00848E-004	0.00000E+000	5.94735E-005	5.99601E-002	5.90016E-001	3.57850E+000	9	...........
	34	0.466667	6.01475E-001	1.01257E-004	0.00000E+000	6.09038E-005	5.99601E-002	6.01758E-001	3.57850E+000	9	...........
	35	0.48	6.12985E-001	1.01188E-004	0.00000E+000	6.20266E-005	5.99601E-002	6.13257E-001	3.57850E+000	9	...........
	36	0.493333	6.24293E-001	1.00803E-004	0.00000E+000	6.29308E-005	5.99601E-002	6.24553E-001	3.57850E+000	9	...........
	37	0.506667	6.35330E-001	1.01564E-004	0.00000E+000	6.45265E-005	5.99601E-002	6.35597E-001	3.57850E+000	9	...........
	38	0.52	6.46188E-001	1.00199E-004	0.00000E+000	6.47473E-005	5.99601E-002	6.46422E-001	3.57850E+000	9	...........
	39	0.533333	6.56785E-001	1.00481E-004	0.00000E+000	6.59946E-005	5.99601E-002	6.57049E-001	3.57850E+000	9	...........
	40	0.546667	6.67222E-001	1.01099E-004	0.00000E+000	6.74555E-005	5.99601E-002	6.67474E-001	3.57850E+000	9	...........
	41	0.56	6.77413E-001	1.01317E-004	0.00000E+000	6.86334E-005	5.99601E-002	6.77654E-001	3.57850E+000	9	...........
	42	0.573333	6.87389E-001	1.01068E-004	0.00000E+000	6.94730E-005	5.99601E-002	6.87643E-001	3.57850E+000	9	...........
	43	0.586667	6.97194E-001	1.00850E-004	0.00000E+000	7.03121E-005	5.99601E-002	6.97420E-001	3.57850E+000	9	...........
	44	0.6	7.06791E-001	1.01173E-004	0.00000E+000	7.15083E-005	5.99601E-002	7.07020E-001	3.57850E+000	9	...........
	45	0.613333	7.16202E-001	1.00737E-004	0.00000E+000	7.21477E-005	5.99601E-002	7.16434E-001	3.57850E+000	9	...........
	46	0.626667	7.25430E-001	1.00822E-004	0.00000E+000	7.31392E-005	5.99601E-002	7.25680E-001	3.57850E+000	9	...........
	47	0.64	7.34479E-001	1.00444E-004	0.00000E+000	7.37739E-005	5.99601E-002	7.34709E-001	3.57850E+000	9	...........
	48	0.653333	7.43350E-001	1.00880E-004	0.00000E+000	7.49894E-005	5.99601E-002	7.43614E-001	3.57850E+000	9	...........
	49	0.666667	7.52043E-001	1.00803E-004	0.00000E+000	7.58084E-005	5.99601E-002	7.52306E-001	3.57850E+000	9	...........
	50	0.68	7.60555E-001	1.01054E-004	0.00000E+000	7.68574E-005	5.99601E-002	7.60826E-001	3.57850E+000	9	...........
	51	0.693333	7.68919E-001	1.00909E-004	0.00000E+000	7.75913E-005	5.99601E-002	7.69202E-001	3.57850E+000	9	...........
	52	0.706667	7.77116E-001	1.01280E-004	0.00000E+000	7.87066E-005	5.99601E-002	7.77406E-001	3.57850E+000	9	...........
	53	0.72	7.85154E-001	1.01346E-004	0.00000E+000	7.95723E-005	5.99601E-002	7.85450E-001	3.57850E+000	9	...........
	54	0.733333	7.93072E-001	9.99457E-005	0.00000E+000	7.92642E-005	5.99601E-002	7.93365E-001	3.57850E+000	9	...........
	55	0.746667	8.00816E-001	1.00336E-004	0.00000E+000	8.03511E-005	5.99601E-002	8.01113E-001	3.57869E+000	9	...........
	56	0.76	8.08395E-001	1.00814E-004	0.00000E+000	8.14973E-005	5.99601E-002	8.08702E-001	3.58000E+000	9	...........
	57	0.773333	8.15852E-001	1.01374E-004	0.00000E+000	8.27063E-005	5.99601E-002	8.16157E-001	3.58000E+000	9	...........
	58	0.786667	8.23193E-001	1.00893E-004	0.00000E+000	8.30543E-005	5.99601E-002	8.23508E-001	3.58000E+000	9	...........
	59	0.8	8.30372E-001	1.01092E-004	0.00000E+000	8.39438E-005	5.99601E-002	8.30702E-001	3.58000E+000	9	...........
	60	0.813333	8.37430E-001	1.00873E-004	0.00000E+000	8.44741E-005	5.99601E-002	8.37771E-001	3.58000E+000	9	...........
	61	0.826667	8.44388E-001	1.00943E-004	0.00000E+000	8.52350E-005	5.99601E-002	8.44727E-001	3.58000E+000	9	...........
	62	0.84	8.51212E-001	1.00270E-004	0.00000E+000	8.53509E-005	5.99601E-002	8.51548E-001	3.58000E+000	9	...........
	63	0.853333	8.57892E-001	1.00324E-004	0.00000E+000	8.60671E-005	5.99601E-002	8.58224E-001	3.58000E+000	9	...........
	64	0.866667	8.64468E-001	1.00855E-004	0.00000E+000	8.71862E-005	5.99601E-002	8.64817E-001	3.58000E+000	9	...........
	65	0.88	8.70976E-001	1.01392E-004	0.00000E+000	8.83099E-005	5.99601E-002	8.71293E-001	3.58000E+000	9	...........
	66	0.893333	8.77301E-001	1.00503E-004	0.00000E+000	8.81715E-005	5.99601E-002	8.77643E-001	3.58000E+000	9	...........
	67	0.906667	8.83550E-001	1.01417E-004	0.00000E+000	8.96069E-005	5.99601E-002	8.83896E-001	3.58000E+000	9	...........
	68	0.92	8.89670E-001	1.00722E-004	0.00000E+000	8.96093E-005	5.99601E-002	8.90017E-001	3.58000E+000	9	...........
	69	0.933333	8.95680E-001	1.01179E-004	0.00000E+000	9.06243E-005	5.99601E-002	8.96060E-001	3.58000E+000	9	...........
	70	0.946667	9.01605E-001	1.00707E-004	0.00000E+000	9.07982E-005	5.99601E-002	9.01952E-001	3.58000E+000	9	...........
	71	0.96	9.07402E-001	1.00769E-004	0.00000E+000	9.14378E-005	5.99601E-002	9.07780E-001	3.58000E+000	9	...........
	72	0.97333	9.13091E-001	1.00828E-004	0.00000E+000	9.20654E-005	5.99601E-002	9.13468E-001	3.58000E+000	9	...........
	73	0.98667	9.18705E-001	1.00854E-004	0.00000E+000	9.26553E-005	5.99601E-002	9.19087E-001	3.58000E+000	9	...........
	74	1	9.24243E-001	1.00212E-004	0.00000E+000	9.26207E-005	5.99601E-002	9.24568E-001	3.58000E+000	9	...........
	75	1.01333	9.29637E-001	1.00394E-004	0.00000E+000	9.33298E-005	5.99601E-002	9.29958E-001	3.58000E+000	9	...........
	76	1.02667	9.34907E-001	1.01328E-004	0.00000E+000	9.47326E-005	5.99601E-002	9.35255E-001	3.58000E+000	9	...........
	77	1.04	9.40084E-001	1.00372E-004	0.00000E+000	9.43580E-005	5.99601E-002	9.40454E-001	3.58000E+000	9	...........
	78	1.05333	9.45198E-001	1.01130E-004	0.00000E+000	9.55883E-005	5.99601E-002	9.45523E-001	3.58000E+000	9	...........
	79	1.06667	9.50216E-001	1.01299E-004	0.00000E+000	9.62561E-005	5.99601E-002	9.50553E-001	3.58000E+000	9	...........
	80	1.08	9.55096E-001	1.00627E-004	0.00000E+000	9.61085E-005	5.99601E-002	9.55441E-001	3.58000E+000	9	...........
	81	1.09333	9.59885E-001	1.01377E-004	0.00000E+000	9.73105E-005	5.99601E-002	9.60275E-001	3.58000E+000	9	...........
	82	1.10667	9.64608E-001	1.01023E-004	0.00000E+000	9.74476E-005	5.99601E-002	9.64973E-001	3.58000E+000	9	...........
	83	1.12	9.69195E-001	1.01188E-004	0.00000E+000	9.80706E-005	5.99601E-002	9.69593E-001	3.58000E+000	9	...........
	84	1.13333	9.73774E-001	1.01420E-004	0.00000E+000	9.87602E-005	5.99601E-002	9.74133E-001	3.58000E+000	9	...........
	85	1.14667	9.78206E-001	1.00812E-004	0.00000E+000	9.86144E-005	5.99601E-002	9.78546E-001	3.58000E+000	9	...........
	86	1.16	9.82536E-001	1.01530E-004	0.00000E+000	9.97573E-005	5.99601E-002	9.82893E-001	3.58000E+000	9	...........
	87	1.17333	9.86782E-001	1.01116E-004	0.00000E+000	9.97793E-005	5.99601E-002	9.87154E-001	3.58000E+000	9	...........
	88	1.18667	9.90935E-001	1.01171E-004	0.00000E+000	1.00254E-004	5.99601E-002	9.91306E-001	3.58000E+000	9	...........
	89	1.2	9.95002E-001	1.00457E-004	0.00000E+000	9.99552E-005	5.99601E-002	9.95364E-001	3.58000E+000	9	...........
	90	1.21167	9.98768E-001	1.01433E-004	0.00000E+000	1.01308E-004	5.99601E-002	9.99132E-001	3.58000E+000	9	...........
STARTTIMEOFFSET	QUANT	1470.534	Start Time Offset (s)
