EXPLAIN
TAG	PWR800_CHARGE
TITLE	LABEL	PWR Cyclic Charge Discharge (Cell) - Charge Step	Test &Identifier
DATE	LABEL	13-7-2017	Date
TIME	LABEL	15:34:25	Time
NOTES	NOTES	2	&Notes...
	supercap test cell
	6M KOH
PSTAT	PSTAT	IFC5000-01520	Potentiostat
CAPACITY	QUANT	1.00000E-003	Capacity (A-hr)
CELLTYPE	SELECTOR	1	&Cell Type
WORKINGCONNECTION	SELECTOR	0	&Working Lead
MAXCHARGETIME	VARIABLEANDUNITS	1.00000E+002	s	1.00000E+002	second(s)	Max &Charge Time
CHARGECURRENT	QUANT	1.00000E-004	&Charge Current (A) 
VOLTAGEFINISH	TWOPARAM	F	1.00000E-003	3.60000E+003	&Voltage Finish	 I (A) < 	Max Time(s)
SAMPLETIME	QUANT	1.00000E-002	Sa&mple Period (s)
CHARGESTOPAT1	MULTIPARAM	4	1.00000E+000	Charge Stop At &1	Voltage > Limit	V
CHARGESTOPAT2	MULTIPARAM	0	0.00000E+000	Charge Stop At &2	None	N/A
AESBHCSELECTOR	TOGGLE	F	Save Both Half Cells
IRCOMP	TOGGLE	F	IR &Measure
EOC	QUANT	0	Open Circuit (V)
SEQUENCER	TOGGLE	TRUE	Run as Sequence
PSTATMODEL	IQUANT	53	Pstat Model
PSTATSECTION	LABEL	IFC5000-01520	Pstat Section
PSTATSERIALNO	LABEL	01520	Pstat Serial Number
CTRLMODE	IQUANT	0	Control Mode
ELECTROMETER	IQUANT	1	RE=0 or CS=1
IESTAB	IQUANT	0	I/E Stability
CASPEED	IQUANT	4	Control Amp Speed
CONVENTION	IQUANT	1	Current Convention
ICHRANGE	IQUANT	2	Ich Range
ICHRANGEMODE	TOGGLE	T	Ich Auto Range
ICHOFFSETENABLE	TOGGLE	F	Ich Offset Enable
ICHOFFSET	QUANT	0	Ich Offset (V)
ICHFILTER	IQUANT	1	Ich Filter
VCHRANGE	IQUANT	2	Vch Range
VCHRANGEMODE	TOGGLE	T	Vch Auto Range
VCHOFFSETENABLE	TOGGLE	F	Vch Offset Enable
VCHOFFSET	QUANT	0	Vch Offset (V)
VCHFILTER	IQUANT	1	Vch Filter
IERANGELOWERLIMIT	IQUANT	9	I/E Range Lower Limit
IERANGEMODE	TOGGLE	F	I/E AutoRange
IERANGE	IQUANT	9	I/E Range
ACHSELECT	IQUANT	1	Ach Select
ACHRANGE	IQUANT	2	Ach Range
ACHOFFSETENABLE	TOGGLE	F	Ach Offset Enable
ACHOFFSET	QUANT	0	Ach Offset (V)
ACHFILTER	IQUANT	1	Ach Filter
CABLEID	IQUANT	14	Cable ID
DCCALDATE	LABEL	5-7-2017	DC Calibration Date
ACCALDATE	LABEL	12/3/2015	AC Calibration Date
FRAMEWORKVERSION	QUANT	7.01	Framework Version
INSTRUMENTVERSION	LABEL	4.00	Instrument Version
CURVE	TABLE	91
	Pt	T	Vf	Im	Vu	Pwr	Sig	Ach	Temp	IERange	Over
	#	s	V	A	V	W	V	V	deg C	#	bits
	0	0.013333	1.31965E-001	1.00695E-004	0.00000E+000	1.32882E-005	5.99601E-002	1.32018E-001	3.57850E+000	9	...........
	1	0.026667	1.47249E-001	1.00801E-004	0.00000E+000	1.48429E-005	5.99601E-002	1.47268E-001	3.57850E+000	9	...........
	2	0.04	1.62084E-001	1.00269E-004	0.00000E+000	1.62520E-005	5.99601E-002	1.62106E-001	3.57850E+000	9	...........
	3	0.053333	1.76653E-001	1.01107E-004	0.00000E+000	1.78609E-005	5.99601E-002	1.76682E-001	3.57875E+000	9	...........
	4	0.066667	1.91024E-001	1.01219E-004	0.00000E+000	1.93353E-005	5.99601E-002	1.91057E-001	3.57900E+000	9	...........
	5	0.08	2.05256E-001	1.00802E-004	0.00000E+000	2.06903E-005	5.99601E-002	2.05293E-001	3.57900E+000	9	...........
	6	0.093333	2.19394E-001	1.00333E-004	0.00000E+000	2.20125E-005	5.99601E-002	2.19430E-001	3.57900E+000	9	...........
	7	0.106667	2.33455E-001	1.00424E-004	0.00000E+000	2.34445E-005	5.99601E-002	2.33490E-001	3.57900E+000	9	...........
	8	0.12	2.47469E-001	1.00645E-004	0.00000E+000	2.49064E-005	5.99601E-002	2.47513E-001	3.57900E+000	9	...........
	9	0.133333	2.61452E-001	1.01518E-004	0.00000E+000	2.65420E-005	5.99601E-002	2.61500E-001	3.57900E+000	9	...........
	10	0.146667	2.75421E-001	1.00054E-004	0.00000E+000	2.75570E-005	5.99601E-002	2.75473E-001	3.57900E+000	9	...........
	11	0.16	2.89398E-001	1.01057E-004	0.00000E+000	2.92458E-005	5.99601E-002	2.89455E-001	3.57900E+000	9	...........
	12	0.173333	3.03386E-001	1.01377E-004	0.00000E+000	3.07564E-005	5.99601E-002	3.03445E-001	3.57900E+000	9	...........
	13	0.186667	3.17390E-001	1.01439E-004	0.00000E+000	3.21957E-005	5.99601E-002	3.17451E-001	3.57900E+000	9	...........
	14	0.2	3.31413E-001	1.00925E-004	0.00000E+000	3.34479E-005	5.99601E-002	3.31477E-001	3.57900E+000	9	...........
	15	0.213333	3.45457E-001	1.00453E-004	0.00000E+000	3.47023E-005	5.99601E-002	3.45523E-001	3.57900E+000	9	...........
	16	0.226667	3.59526E-001	1.00100E-004	0.00000E+000	3.59885E-005	5.99601E-002	3.59589E-001	3.57900E+000	9	...........
	17	0.24	3.73609E-001	1.00839E-004	0.00000E+000	3.76743E-005	5.99601E-002	3.73675E-001	3.57900E+000	9	...........
	18	0.253333	3.87695E-001	1.01220E-004	0.00000E+000	3.92424E-005	5.99601E-002	3.87760E-001	3.57900E+000	9	...........
	19	0.266667	4.01765E-001	1.01022E-004	0.00000E+000	4.05871E-005	5.99601E-002	4.01842E-001	3.57900E+000	9	...........
	20	0.28	4.15806E-001	1.00724E-004	0.00000E+000	4.18816E-005	5.99601E-002	4.15893E-001	3.57900E+000	9	...........
	21	0.293333	4.29816E-001	1.00763E-004	0.00000E+000	4.33094E-005	5.99601E-002	4.29901E-001	3.57900E+000	9	...........
	22	0.306667	4.43762E-001	1.01329E-004	0.00000E+000	4.49662E-005	5.99601E-002	4.43850E-001	3.57900E+000	9	...........
	23	0.32	4.57615E-001	1.00836E-004	0.00000E+000	4.61439E-005	5.99601E-002	4.57710E-001	3.57900E+000	9	...........
	24	0.333333	4.71362E-001	1.00887E-004	0.00000E+000	4.75541E-005	5.99601E-002	4.71460E-001	3.57900E+000	9	...........
	25	0.346667	4.84984E-001	1.01148E-004	0.00000E+000	4.90552E-005	5.99601E-002	4.85082E-001	3.57900E+000	9	...........
	26	0.36	4.98445E-001	1.00629E-004	0.00000E+000	5.01581E-005	5.99601E-002	4.98548E-001	3.57900E+000	9	...........
	27	0.373333	5.11748E-001	9.97957E-005	0.00000E+000	5.10703E-005	5.99601E-002	5.11853E-001	3.57900E+000	9	...........
	28	0.386667	5.24855E-001	9.99791E-005	0.00000E+000	5.24746E-005	5.99601E-002	5.24973E-001	3.57900E+000	9	...........
	29	0.4	5.37507E-001	1.00847E-004	0.00000E+000	5.42059E-005	5.99601E-002	5.37735E-001	3.57900E+000	9	...........
	30	0.413333	5.50159E-001	9.99885E-005	0.00000E+000	5.50095E-005	5.99601E-002	5.50412E-001	3.57900E+000	9	...........
	31	0.426667	5.62633E-001	1.01004E-004	0.00000E+000	5.68284E-005	5.99601E-002	5.62923E-001	3.57900E+000	9	...........
	32	0.44	5.74913E-001	1.00521E-004	0.00000E+000	5.77907E-005	5.99601E-002	5.75175E-001	3.57900E+000	9	...........
	33	0.453333	5.86943E-001	1.01304E-004	0.00000E+000	5.94599E-005	5.99601E-002	5.87226E-001	3.57900E+000	9	...........
	34	0.466667	5.98756E-001	1.00161E-004	0.00000E+000	5.99723E-005	5.99601E-002	5.99052E-001	3.57900E+000	9	...........
	35	0.48	6.10323E-001	1.01129E-004	0.00000E+000	6.17216E-005	5.99601E-002	6.10602E-001	3.57900E+000	9	...........
	36	0.493333	6.21735E-001	1.00360E-004	0.00000E+000	6.23976E-005	5.99601E-002	6.21982E-001	3.57900E+000	9	...........
	37	0.506667	6.32848E-001	1.01035E-004	0.00000E+000	6.39395E-005	5.99601E-002	6.33112E-001	3.57900E+000	9	...........
	38	0.52	6.43762E-001	1.01053E-004	0.00000E+000	6.50542E-005	5.99601E-002	6.44034E-001	3.57900E+000	9	...........
	39	0.533333	6.54462E-001	1.02012E-004	0.00000E+000	6.67629E-005	5.99601E-002	6.54706E-001	3.57900E+000	9	...........
	40	0.546667	6.64946E-001	1.01113E-004	0.00000E+000	6.72345E-005	5.99601E-002	6.65220E-001	3.57900E+000	9	...........
	41	0.56	6.75198E-001	1.01341E-004	0.00000E+000	6.84252E-005	5.99601E-002	6.75478E-001	3.57900E+000	9	...........
	42	0.573333	6.85241E-001	1.01107E-004	0.00000E+000	6.92830E-005	5.99601E-002	6.85519E-001	3.57900E+000	9	...........
	43	0.586667	6.95121E-001	1.01518E-004	0.00000E+000	7.05672E-005	5.99601E-002	6.95377E-001	3.57900E+000	9	...........
	44	0.6	7.04778E-001	1.01585E-004	0.00000E+000	7.15946E-005	5.99601E-002	7.05028E-001	3.57900E+000	9	...........
	45	0.613333	7.14237E-001	1.00410E-004	0.00000E+000	7.17168E-005	5.99601E-002	7.14499E-001	3.57900E+000	9	...........
	46	0.626667	7.23559E-001	1.01050E-004	0.00000E+000	7.31157E-005	5.99601E-002	7.23795E-001	3.57900E+000	9	...........
	47	0.64	7.32618E-001	1.00681E-004	0.00000E+000	7.37610E-005	5.99601E-002	7.32895E-001	3.57900E+000	9	...........
	48	0.653333	7.41551E-001	1.01002E-004	0.00000E+000	7.48982E-005	5.99601E-002	7.41825E-001	3.57900E+000	9	...........
	49	0.666667	7.50310E-001	1.01377E-004	0.00000E+000	7.60644E-005	5.99601E-002	7.50574E-001	3.57900E+000	9	...........
	50	0.68	7.58879E-001	1.01078E-004	0.00000E+000	7.67062E-005	5.99601E-002	7.59157E-001	3.57900E+000	9	...........
	51	0.693333	7.67284E-001	1.00992E-004	0.00000E+000	7.74894E-005	5.99601E-002	7.67575E-001	3.57900E+000	9	...........
	52	0.706667	7.75529E-001	1.00973E-004	0.00000E+000	7.83076E-005	5.99601E-002	7.75824E-001	3.57900E+000	9	...........
	53	0.72	7.83654E-001	1.00287E-004	0.00000E+000	7.85907E-005	5.99601E-002	7.83919E-001	3.57900E+000	9	...........
	54	0.733333	7.91590E-001	1.00812E-004	0.00000E+000	7.98015E-005	5.99601E-002	7.91876E-001	3.57900E+000	9	...........
	55	0.746667	7.99412E-001	1.01364E-004	0.00000E+000	8.10314E-005	5.99601E-002	7.99681E-001	3.57900E+000	9	...........
	56	0.76	8.07042E-001	1.01751E-004	0.00000E+000	8.21176E-005	5.99601E-002	8.07351E-001	3.57900E+000	9	...........
	57	0.773333	8.14540E-001	1.00993E-004	0.00000E+000	8.22627E-005	5.99601E-002	8.14855E-001	3.57900E+000	9	...........
	58	0.786667	8.21931E-001	1.00625E-004	0.00000E+000	8.27069E-005	5.99601E-002	8.22240E-001	3.57900E+000	9	...........
	59	0.8	8.29157E-001	1.00639E-004	0.00000E+000	8.34452E-005	5.99601E-002	8.29467E-001	3.57900E+000	9	...........
	60	0.813333	8.36250E-001	1.01172E-004	0.00000E+000	8.46052E-005	5.99601E-002	8.36573E-001	3.57900E+000	9	...........
	61	0.826667	8.43232E-001	1.01547E-004	0.00000E+000	8.56278E-005	5.99601E-002	8.43561E-001	3.57900E+000	9	...........
	62	0.84	8.50111E-001	1.01716E-004	0.00000E+000	8.64698E-005	5.99601E-002	8.50441E-001	3.57900E+000	9	...........
	63	0.853333	8.56836E-001	1.01502E-004	0.00000E+000	8.69708E-005	5.99601E-002	8.57184E-001	3.57900E+000	9	...........
	64	0.866667	8.63438E-001	1.00588E-004	0.00000E+000	8.68511E-005	5.99601E-002	8.63811E-001	3.57900E+000	9	...........
	65	0.88	8.69973E-001	1.00878E-004	0.00000E+000	8.77613E-005	5.99601E-002	8.70322E-001	3.57900E+000	9	...........
	66	0.893333	8.76354E-001	1.01493E-004	0.00000E+000	8.89438E-005	5.99601E-002	8.76727E-001	3.57900E+000	9	...........
	67	0.906667	8.82618E-001	1.00574E-004	0.00000E+000	8.87684E-005	5.99601E-002	8.82973E-001	3.57900E+000	9	...........
	68	0.92	8.88799E-001	1.01276E-004	0.00000E+000	9.00142E-005	5.99601E-002	8.89139E-001	3.57900E+000	9	...........
	69	0.933333	8.94812E-001	1.01364E-004	0.00000E+000	9.07015E-005	5.99601E-002	8.95198E-001	3.57900E+000	9	...........
	70	0.946667	9.00772E-001	1.01185E-004	0.00000E+000	9.11442E-005	5.99601E-002	9.01153E-001	3.57900E+000	9	...........
	71	0.96	9.06597E-001	1.01252E-004	0.00000E+000	9.17950E-005	5.99601E-002	9.06990E-001	3.57900E+000	9	...........
	72	0.97333	9.12321E-001	1.00730E-004	0.00000E+000	9.18984E-005	5.99601E-002	9.12714E-001	3.57900E+000	9	...........
	73	0.98667	9.17937E-001	1.00477E-004	0.00000E+000	9.22316E-005	5.99601E-002	9.18348E-001	3.57900E+000	9	...........
	74	1	9.23503E-001	1.00528E-004	0.00000E+000	9.28380E-005	5.99601E-002	9.23855E-001	3.57900E+000	9	...........
	75	1.01333	9.28915E-001	9.99385E-005	0.00000E+000	9.28343E-005	5.99601E-002	9.29282E-001	3.57900E+000	9	...........
	76	1.02667	9.34229E-001	1.00769E-004	0.00000E+000	9.41412E-005	5.99601E-002	9.34598E-001	3.57900E+000	9	...........
	77	1.04	9.39434E-001	1.00602E-004	0.00000E+000	9.45090E-005	5.99601E-002	9.39805E-001	3.57900E+000	9	...........
	78	1.05333	9.44554E-001	1.00677E-004	0.00000E+000	9.50950E-005	5.99601E-002	9.44945E-001	3.57895E+000	9	...........
	79	1.06667	9.49617E-001	1.00783E-004	0.00000E+000	9.57057E-005	5.99601E-002	9.49976E-001	3.57890E+000	9	...........
	80	1.08	9.54539E-001	1.01057E-004	0.00000E+000	9.64633E-005	5.99601E-002	9.54881E-001	3.57890E+000	9	...........
	81	1.09333	9.59343E-001	1.01108E-004	0.00000E+000	9.69978E-005	5.99601E-002	9.59735E-001	3.57890E+000	9	...........
	82	1.10667	9.64083E-001	1.00729E-004	0.00000E+000	9.71113E-005	5.99601E-002	9.64461E-001	3.57890E+000	9	...........
	83	1.12	9.68706E-001	1.00467E-004	0.00000E+000	9.73227E-005	5.99601E-002	9.69115E-001	3.57890E+000	9	...........
	84	1.13333	9.73286E-001	1.01032E-004	0.00000E+000	9.83335E-005	5.99601E-002	9.73653E-001	3.57890E+000	9	...........
	85	1.14667	9.77767E-001	1.01092E-004	0.00000E+000	9.88442E-005	5.99601E-002	9.78084E-001	3.57890E+000	9	...........
	86	1.16	9.82092E-001	9.94696E-005	0.00000E+000	9.76883E-005	5.99601E-002	9.82448E-001	3.57890E+000	9	...........
	87	1.17333	9.86351E-001	1.01030E-004	0.00000E+000	9.96514E-005	5.99601E-002	9.86734E-001	3.57890E+000	9	...........
	88	1.18667	9.90540E-001	1.00804E-004	0.00000E+000	9.98507E-005	5.99601E-002	9.90905E-001	3.57890E+000	9	...........
	89	1.2	9.94622E-001	1.01166E-004	0.00000E+000	1.00622E-004	5.99601E-002	9.94981E-001	3.57890E+000	9	...........
	90	1.21333	9.98614E-001	1.00774E-004	0.00000E+000	1.00634E-004	5.99601E-002	9.99004E-001	3.57890E+000	9	...........
STARTTIMEOFFSET	QUANT	1465.794	Start Time Offset (s)
