EXPLAIN
TAG	PWR800_CHARGE
TITLE	LABEL	PWR Cyclic Charge Discharge (Cell) - Charge Step	Test &Identifier
DATE	LABEL	13-7-2017	Date
TIME	LABEL	15:50:34	Time
NOTES	NOTES	2	&Notes...
	supercap test cell
	6M KOH
PSTAT	PSTAT	IFC5000-01520	Potentiostat
CAPACITY	QUANT	1.00000E-003	Capacity (A-hr)
CELLTYPE	SELECTOR	1	&Cell Type
WORKINGCONNECTION	SELECTOR	0	&Working Lead
MAXCHARGETIME	VARIABLEANDUNITS	1.00000E+002	s	1.00000E+002	second(s)	Max &Charge Time
CHARGECURRENT	QUANT	1.00000E-004	&Charge Current (A) 
VOLTAGEFINISH	TWOPARAM	F	1.00000E-003	3.60000E+003	&Voltage Finish	 I (A) < 	Max Time(s)
SAMPLETIME	QUANT	1.00000E-002	Sa&mple Period (s)
CHARGESTOPAT1	MULTIPARAM	4	1.00000E+000	Charge Stop At &1	Voltage > Limit	V
CHARGESTOPAT2	MULTIPARAM	0	0.00000E+000	Charge Stop At &2	None	N/A
AESBHCSELECTOR	TOGGLE	F	Save Both Half Cells
IRCOMP	TOGGLE	F	IR &Measure
EOC	QUANT	0	Open Circuit (V)
SEQUENCER	TOGGLE	TRUE	Run as Sequence
PSTATMODEL	IQUANT	53	Pstat Model
PSTATSECTION	LABEL	IFC5000-01520	Pstat Section
PSTATSERIALNO	LABEL	01520	Pstat Serial Number
CTRLMODE	IQUANT	0	Control Mode
ELECTROMETER	IQUANT	1	RE=0 or CS=1
IESTAB	IQUANT	0	I/E Stability
CASPEED	IQUANT	4	Control Amp Speed
CONVENTION	IQUANT	1	Current Convention
ICHRANGE	IQUANT	2	Ich Range
ICHRANGEMODE	TOGGLE	T	Ich Auto Range
ICHOFFSETENABLE	TOGGLE	F	Ich Offset Enable
ICHOFFSET	QUANT	0	Ich Offset (V)
ICHFILTER	IQUANT	1	Ich Filter
VCHRANGE	IQUANT	2	Vch Range
VCHRANGEMODE	TOGGLE	T	Vch Auto Range
VCHOFFSETENABLE	TOGGLE	F	Vch Offset Enable
VCHOFFSET	QUANT	0	Vch Offset (V)
VCHFILTER	IQUANT	1	Vch Filter
IERANGELOWERLIMIT	IQUANT	9	I/E Range Lower Limit
IERANGEMODE	TOGGLE	F	I/E AutoRange
IERANGE	IQUANT	9	I/E Range
ACHSELECT	IQUANT	1	Ach Select
ACHRANGE	IQUANT	2	Ach Range
ACHOFFSETENABLE	TOGGLE	F	Ach Offset Enable
ACHOFFSET	QUANT	0	Ach Offset (V)
ACHFILTER	IQUANT	1	Ach Filter
CABLEID	IQUANT	14	Cable ID
DCCALDATE	LABEL	5-7-2017	DC Calibration Date
ACCALDATE	LABEL	12/3/2015	AC Calibration Date
FRAMEWORKVERSION	QUANT	7.01	Framework Version
INSTRUMENTVERSION	LABEL	4.00	Instrument Version
CURVE	TABLE	90
	Pt	T	Vf	Im	Vu	Pwr	Sig	Ach	Temp	IERange	Over
	#	s	V	A	V	W	V	V	deg C	#	bits
	0	0.013333	1.35610E-001	1.01221E-004	0.00000E+000	1.37266E-005	5.99601E-002	1.35655E-001	3.58000E+000	9	...........
	1	0.026667	1.50893E-001	1.00588E-004	0.00000E+000	1.51779E-005	5.99601E-002	1.50905E-001	3.58000E+000	9	...........
	2	0.04	1.65741E-001	1.01044E-004	0.00000E+000	1.67471E-005	5.99601E-002	1.65766E-001	3.58000E+000	9	...........
	3	0.053333	1.80331E-001	1.01626E-004	0.00000E+000	1.83264E-005	5.99601E-002	1.80363E-001	3.58000E+000	9	...........
	4	0.066667	1.94738E-001	1.00463E-004	0.00000E+000	1.95638E-005	5.99601E-002	1.94765E-001	3.58000E+000	9	...........
	5	0.08	2.09005E-001	1.01270E-004	0.00000E+000	2.11660E-005	5.99601E-002	2.09045E-001	3.58000E+000	9	...........
	6	0.093333	2.23179E-001	1.00892E-004	0.00000E+000	2.25170E-005	5.99601E-002	2.23216E-001	3.58000E+000	9	...........
	7	0.106667	2.37285E-001	1.00431E-004	0.00000E+000	2.38308E-005	5.99601E-002	2.37328E-001	3.58000E+000	9	...........
	8	0.12	2.51347E-001	1.00595E-004	0.00000E+000	2.52843E-005	5.99601E-002	2.51392E-001	3.58000E+000	9	...........
	9	0.133333	2.65382E-001	1.00938E-004	0.00000E+000	2.67871E-005	5.99601E-002	2.65434E-001	3.58000E+000	9	...........
	10	0.146667	2.79414E-001	1.00178E-004	0.00000E+000	2.79912E-005	5.99601E-002	2.79465E-001	3.58000E+000	9	...........
	11	0.16	2.93446E-001	1.00867E-004	0.00000E+000	2.95990E-005	5.99601E-002	2.93497E-001	3.58000E+000	9	...........
	12	0.173333	3.07501E-001	1.00840E-004	0.00000E+000	3.10083E-005	5.99601E-002	3.07560E-001	3.58000E+000	9	...........
	13	0.186667	3.21571E-001	1.00838E-004	0.00000E+000	3.24265E-005	5.99601E-002	3.21634E-001	3.58000E+000	9	...........
	14	0.2	3.35675E-001	1.01553E-004	0.00000E+000	3.40890E-005	5.99601E-002	3.35736E-001	3.58000E+000	9	...........
	15	0.213333	3.49800E-001	1.01049E-004	0.00000E+000	3.53469E-005	5.99601E-002	3.49862E-001	3.58000E+000	9	...........
	16	0.226667	3.63950E-001	1.01089E-004	0.00000E+000	3.67912E-005	5.99601E-002	3.64015E-001	3.58000E+000	9	...........
	17	0.24	3.78114E-001	1.00046E-004	0.00000E+000	3.78287E-005	5.99601E-002	3.78182E-001	3.58000E+000	9	...........
	18	0.253333	3.92282E-001	1.00196E-004	0.00000E+000	3.93050E-005	5.99601E-002	3.92359E-001	3.58000E+000	9	...........
	19	0.266667	4.06453E-001	1.00856E-004	0.00000E+000	4.09934E-005	5.99601E-002	4.06530E-001	3.58000E+000	9	...........
	20	0.28	4.20594E-001	1.00012E-004	0.00000E+000	4.20647E-005	5.99601E-002	4.20677E-001	3.58000E+000	9	...........
	21	0.293333	4.34709E-001	1.01328E-004	0.00000E+000	4.40483E-005	5.99601E-002	4.34793E-001	3.57985E+000	9	...........
	22	0.306667	4.48755E-001	1.00591E-004	0.00000E+000	4.51406E-005	5.99601E-002	4.48844E-001	3.57880E+000	9	...........
	23	0.32	4.62718E-001	1.00610E-004	0.00000E+000	4.65542E-005	5.99601E-002	4.62807E-001	3.57880E+000	9	...........
	24	0.333333	4.76572E-001	1.00920E-004	0.00000E+000	4.80956E-005	5.99601E-002	4.76663E-001	3.57880E+000	9	...........
	25	0.346667	4.90298E-001	1.00573E-004	0.00000E+000	4.93107E-005	5.99601E-002	4.90394E-001	3.57880E+000	9	...........
	26	0.36	5.03869E-001	9.96905E-005	0.00000E+000	5.02310E-005	5.99601E-002	5.03971E-001	3.57880E+000	9	...........
	27	0.373333	5.17278E-001	1.01076E-004	0.00000E+000	5.22845E-005	5.99601E-002	5.17376E-001	3.57880E+000	9	...........
	28	0.386667	5.30447E-001	1.00911E-004	0.00000E+000	5.35276E-005	5.99601E-002	5.30512E-001	3.57880E+000	9	...........
	29	0.4	5.43148E-001	1.01414E-004	0.00000E+000	5.50827E-005	5.99601E-002	5.43326E-001	3.57880E+000	9	...........
	30	0.413333	5.55964E-001	1.00555E-004	0.00000E+000	5.59051E-005	5.99601E-002	5.56185E-001	3.57880E+000	9	...........
	31	0.426667	5.68580E-001	1.00906E-004	0.00000E+000	5.73734E-005	5.99601E-002	5.68793E-001	3.57880E+000	9	...........
	32	0.44	5.80921E-001	1.00983E-004	0.00000E+000	5.86634E-005	5.99601E-002	5.81172E-001	3.57880E+000	9	...........
	33	0.453333	5.93067E-001	1.00777E-004	0.00000E+000	5.97676E-005	5.99601E-002	5.93342E-001	3.57880E+000	9	...........
	34	0.466667	6.04929E-001	1.01626E-004	0.00000E+000	6.14767E-005	5.99601E-002	6.05262E-001	3.57880E+000	9	...........
	35	0.48	6.16652E-001	1.01270E-004	0.00000E+000	6.24483E-005	5.99601E-002	6.16938E-001	3.57880E+000	9	...........
	36	0.493333	6.28094E-001	1.00244E-004	0.00000E+000	6.29624E-005	5.99601E-002	6.28386E-001	3.57880E+000	9	...........
	37	0.506667	6.39309E-001	1.01374E-004	0.00000E+000	6.48094E-005	5.99601E-002	6.39612E-001	3.57880E+000	9	...........
	38	0.52	6.50314E-001	1.00018E-004	0.00000E+000	6.50429E-005	5.99601E-002	6.50581E-001	3.57880E+000	9	...........
	39	0.533333	6.61063E-001	1.00368E-004	0.00000E+000	6.63494E-005	5.99601E-002	6.61385E-001	3.57880E+000	9	...........
	40	0.546667	6.71662E-001	1.00673E-004	0.00000E+000	6.76182E-005	5.99601E-002	6.71927E-001	3.57880E+000	9	...........
	41	0.56	6.81971E-001	1.00667E-004	0.00000E+000	6.86518E-005	5.99601E-002	6.82285E-001	3.57880E+000	9	...........
	42	0.573333	6.92097E-001	1.00924E-004	0.00000E+000	6.98493E-005	5.99601E-002	6.92383E-001	3.57880E+000	9	...........
	43	0.586667	7.02007E-001	1.00433E-004	0.00000E+000	7.05049E-005	5.99601E-002	7.02314E-001	3.57880E+000	9	...........
	44	0.6	7.11706E-001	1.00366E-004	0.00000E+000	7.14308E-005	5.99601E-002	7.12054E-001	3.57880E+000	9	...........
	45	0.613333	7.21316E-001	1.00967E-004	0.00000E+000	7.28289E-005	5.99601E-002	7.21591E-001	3.57880E+000	9	...........
	46	0.626667	7.30638E-001	1.00655E-004	0.00000E+000	7.35425E-005	5.99601E-002	7.30934E-001	3.57880E+000	9	...........
	47	0.64	7.39756E-001	1.01313E-004	0.00000E+000	7.49467E-005	5.99601E-002	7.40083E-001	3.57880E+000	9	...........
	48	0.653333	7.48754E-001	1.01154E-004	0.00000E+000	7.57398E-005	5.99601E-002	7.49083E-001	3.57880E+000	9	...........
	49	0.666667	7.57570E-001	1.01238E-004	0.00000E+000	7.66947E-005	5.99601E-002	7.57870E-001	3.57880E+000	9	...........
	50	0.68	7.66197E-001	1.00904E-004	0.00000E+000	7.73126E-005	5.99601E-002	7.66507E-001	3.57880E+000	9	...........
	51	0.693333	7.74664E-001	1.01791E-004	0.00000E+000	7.88538E-005	5.99601E-002	7.74975E-001	3.57880E+000	9	...........
	52	0.706667	7.82962E-001	1.00381E-004	0.00000E+000	7.85947E-005	5.99601E-002	7.83282E-001	3.57880E+000	9	...........
	53	0.72	7.91133E-001	1.00550E-004	0.00000E+000	7.95484E-005	5.99601E-002	7.91435E-001	3.57880E+000	9	...........
	54	0.733333	7.99123E-001	1.01163E-004	0.00000E+000	8.08414E-005	5.99601E-002	7.99419E-001	3.57880E+000	9	...........
	55	0.746667	8.06946E-001	1.01526E-004	0.00000E+000	8.19262E-005	5.99601E-002	8.07266E-001	3.57880E+000	9	...........
	56	0.76	8.14628E-001	1.00730E-004	0.00000E+000	8.20577E-005	5.99601E-002	8.14945E-001	3.57880E+000	9	...........
	57	0.773333	8.22215E-001	1.01840E-004	0.00000E+000	8.37343E-005	5.99601E-002	8.22528E-001	3.57880E+000	9	...........
	58	0.786667	8.29618E-001	1.01052E-004	0.00000E+000	8.38348E-005	5.99601E-002	8.29912E-001	3.57880E+000	9	...........
	59	0.8	8.36886E-001	1.00583E-004	0.00000E+000	8.41768E-005	5.99601E-002	8.37195E-001	3.57880E+000	9	...........
	60	0.813333	8.44036E-001	1.00793E-004	0.00000E+000	8.50727E-005	5.99601E-002	8.44367E-001	3.57880E+000	9	...........
	61	0.826667	8.51036E-001	1.00367E-004	0.00000E+000	8.54156E-005	5.99601E-002	8.51366E-001	3.57880E+000	9	...........
	62	0.84	8.57919E-001	1.00815E-004	0.00000E+000	8.64908E-005	5.99601E-002	8.58263E-001	3.57880E+000	9	...........
	63	0.853333	8.64673E-001	1.01736E-004	0.00000E+000	8.79682E-005	5.99601E-002	8.65018E-001	3.57880E+000	9	...........
	64	0.866667	8.71346E-001	1.00189E-004	0.00000E+000	8.72989E-005	5.99601E-002	8.71692E-001	3.57880E+000	9	...........
	65	0.88	8.77852E-001	1.00596E-004	0.00000E+000	8.83083E-005	5.99601E-002	8.78217E-001	3.57880E+000	9	...........
	66	0.893333	8.84256E-001	1.01794E-004	0.00000E+000	9.00120E-005	5.99601E-002	8.84609E-001	3.57880E+000	9	...........
	67	0.906667	8.90546E-001	1.01972E-004	0.00000E+000	9.08109E-005	5.99601E-002	8.90877E-001	3.57880E+000	9	...........
	68	0.92	8.96704E-001	1.01040E-004	0.00000E+000	9.06027E-005	5.99601E-002	8.97082E-001	3.57880E+000	9	...........
	69	0.933333	9.02768E-001	1.00856E-004	0.00000E+000	9.10498E-005	5.99601E-002	9.03113E-001	3.57880E+000	9	...........
	70	0.946667	9.08700E-001	1.00235E-004	0.00000E+000	9.10839E-005	5.99601E-002	9.09063E-001	3.57880E+000	9	...........
	71	0.96	9.14516E-001	1.00890E-004	0.00000E+000	9.22652E-005	5.99601E-002	9.14913E-001	3.57880E+000	9	...........
	72	0.97333	9.20288E-001	1.01118E-004	0.00000E+000	9.30575E-005	5.99601E-002	9.20628E-001	3.57880E+000	9	...........
	73	0.98667	9.25926E-001	1.01413E-004	0.00000E+000	9.39007E-005	5.99601E-002	9.26260E-001	3.57880E+000	9	...........
	74	1	9.31431E-001	1.01583E-004	0.00000E+000	9.46171E-005	5.99601E-002	9.31770E-001	3.57880E+000	9	...........
	75	1.01333	9.36826E-001	1.01444E-004	0.00000E+000	9.50354E-005	5.99601E-002	9.37175E-001	3.57880E+000	9	...........
	76	1.02667	9.42130E-001	1.00556E-004	0.00000E+000	9.47371E-005	5.99601E-002	9.42479E-001	3.57880E+000	9	...........
	77	1.04	9.47330E-001	1.00820E-004	0.00000E+000	9.55097E-005	5.99601E-002	9.47695E-001	3.57880E+000	9	...........
	78	1.05333	9.52443E-001	1.00184E-004	0.00000E+000	9.54199E-005	5.99601E-002	9.52808E-001	3.57880E+000	9	...........
	79	1.06667	9.57444E-001	1.00816E-004	0.00000E+000	9.65254E-005	5.99601E-002	9.57785E-001	3.57880E+000	9	...........
	80	1.08	9.62326E-001	1.00855E-004	0.00000E+000	9.70557E-005	5.99601E-002	9.62679E-001	3.57880E+000	9	...........
	81	1.09333	9.67108E-001	1.01351E-004	0.00000E+000	9.80176E-005	5.99601E-002	9.67485E-001	3.57880E+000	9	...........
	82	1.10667	9.71846E-001	1.00912E-004	0.00000E+000	9.80705E-005	5.99601E-002	9.72188E-001	3.57880E+000	9	...........
	83	1.12	9.76454E-001	1.00080E-004	0.00000E+000	9.77236E-005	5.99601E-002	9.76810E-001	3.57880E+000	9	...........
	84	1.13333	9.80956E-001	1.01180E-004	0.00000E+000	9.92536E-005	5.99601E-002	9.81318E-001	3.57880E+000	9	...........
	85	1.14667	9.85366E-001	1.01298E-004	0.00000E+000	9.98157E-005	5.99601E-002	9.85722E-001	3.57880E+000	9	...........
	86	1.16	9.89673E-001	1.01641E-004	0.00000E+000	1.00591E-004	5.99601E-002	9.90055E-001	3.57880E+000	9	...........
	87	1.17333	9.93884E-001	1.01181E-004	0.00000E+000	1.00563E-004	5.99601E-002	9.94271E-001	3.57880E+000	9	...........
	88	1.18667	9.98029E-001	1.00259E-004	0.00000E+000	1.00062E-004	5.99601E-002	9.98431E-001	3.57880E+000	9	...........
	89	1.18833	1.00034E+000	1.02007E-004	0.00000E+000	1.02041E-004	5.99601E-002	1.00070E+000	3.57880E+000	9	...........
STARTTIMEOFFSET	QUANT	2192.809	Start Time Offset (s)
