EXPLAIN
TAG	PWR800_CHARGE
TITLE	LABEL	PWR Cyclic Charge Discharge (Cell) - Charge Step	Test &Identifier
DATE	LABEL	13-7-2017	Date
TIME	LABEL	15:09:30	Time
NOTES	NOTES	2	&Notes...
	supercap test cell
	6M KOH
PSTAT	PSTAT	IFC5000-01520	Potentiostat
CAPACITY	QUANT	1.00000E-003	Capacity (A-hr)
CELLTYPE	SELECTOR	1	&Cell Type
WORKINGCONNECTION	SELECTOR	0	&Working Lead
MAXCHARGETIME	VARIABLEANDUNITS	1.00000E+002	s	1.00000E+002	second(s)	Max &Charge Time
CHARGECURRENT	QUANT	1.00000E-004	&Charge Current (A) 
VOLTAGEFINISH	TWOPARAM	F	1.00000E-003	3.60000E+003	&Voltage Finish	 I (A) < 	Max Time(s)
SAMPLETIME	QUANT	1.00000E-002	Sa&mple Period (s)
CHARGESTOPAT1	MULTIPARAM	4	1.00000E+000	Charge Stop At &1	Voltage > Limit	V
CHARGESTOPAT2	MULTIPARAM	0	0.00000E+000	Charge Stop At &2	None	N/A
AESBHCSELECTOR	TOGGLE	F	Save Both Half Cells
IRCOMP	TOGGLE	F	IR &Measure
EOC	QUANT	0	Open Circuit (V)
SEQUENCER	TOGGLE	TRUE	Run as Sequence
PSTATMODEL	IQUANT	53	Pstat Model
PSTATSECTION	LABEL	IFC5000-01520	Pstat Section
PSTATSERIALNO	LABEL	01520	Pstat Serial Number
CTRLMODE	IQUANT	0	Control Mode
ELECTROMETER	IQUANT	1	RE=0 or CS=1
IESTAB	IQUANT	0	I/E Stability
CASPEED	IQUANT	4	Control Amp Speed
CONVENTION	IQUANT	1	Current Convention
ICHRANGE	IQUANT	2	Ich Range
ICHRANGEMODE	TOGGLE	T	Ich Auto Range
ICHOFFSETENABLE	TOGGLE	F	Ich Offset Enable
ICHOFFSET	QUANT	0	Ich Offset (V)
ICHFILTER	IQUANT	1	Ich Filter
VCHRANGE	IQUANT	2	Vch Range
VCHRANGEMODE	TOGGLE	T	Vch Auto Range
VCHOFFSETENABLE	TOGGLE	F	Vch Offset Enable
VCHOFFSET	QUANT	0	Vch Offset (V)
VCHFILTER	IQUANT	1	Vch Filter
IERANGELOWERLIMIT	IQUANT	9	I/E Range Lower Limit
IERANGEMODE	TOGGLE	F	I/E AutoRange
IERANGE	IQUANT	9	I/E Range
ACHSELECT	IQUANT	1	Ach Select
ACHRANGE	IQUANT	2	Ach Range
ACHOFFSETENABLE	TOGGLE	F	Ach Offset Enable
ACHOFFSET	QUANT	0	Ach Offset (V)
ACHFILTER	IQUANT	1	Ach Filter
CABLEID	IQUANT	14	Cable ID
DCCALDATE	LABEL	5-7-2017	DC Calibration Date
ACCALDATE	LABEL	12/3/2015	AC Calibration Date
FRAMEWORKVERSION	QUANT	7.01	Framework Version
INSTRUMENTVERSION	LABEL	4.00	Instrument Version
CURVE	TABLE	98
	Pt	T	Vf	Im	Vu	Pwr	Sig	Ach	Temp	IERange	Over
	#	s	V	A	V	W	V	V	deg C	#	bits
	0	0.013333	1.33739E-001	1.00640E-004	0.00000E+000	1.34594E-005	5.99601E-002	1.33786E-001	3.57870E+000	9	...........
	1	0.026667	1.49002E-001	1.00247E-004	0.00000E+000	1.49370E-005	5.99601E-002	1.49025E-001	3.57870E+000	9	...........
	2	0.04	1.63821E-001	9.99947E-005	0.00000E+000	1.63813E-005	5.99601E-002	1.63850E-001	3.57870E+000	9	...........
	3	0.053333	1.78381E-001	1.00779E-004	0.00000E+000	1.79771E-005	5.99601E-002	1.78407E-001	3.57870E+000	9	...........
	4	0.066667	1.92740E-001	1.01972E-004	0.00000E+000	1.96541E-005	5.99601E-002	1.92772E-001	3.57870E+000	9	...........
	5	0.08	2.06958E-001	1.00828E-004	0.00000E+000	2.08673E-005	5.99601E-002	2.06991E-001	3.57870E+000	9	...........
	6	0.093333	2.21065E-001	1.01218E-004	0.00000E+000	2.23758E-005	5.99601E-002	2.21103E-001	3.57870E+000	9	...........
	7	0.106667	2.35098E-001	1.00929E-004	0.00000E+000	2.37283E-005	5.99601E-002	2.35135E-001	3.57870E+000	9	...........
	8	0.12	2.49072E-001	1.01743E-004	0.00000E+000	2.53413E-005	5.99601E-002	2.49113E-001	3.57870E+000	9	...........
	9	0.133333	2.63003E-001	1.00398E-004	0.00000E+000	2.64050E-005	5.99601E-002	2.63059E-001	3.57870E+000	9	...........
	10	0.146667	2.76920E-001	1.01437E-004	0.00000E+000	2.80899E-005	5.99601E-002	2.76975E-001	3.57870E+000	9	...........
	11	0.16	2.90812E-001	1.00672E-004	0.00000E+000	2.92766E-005	5.99601E-002	2.90872E-001	3.57870E+000	9	...........
	12	0.173333	3.04702E-001	1.01085E-004	0.00000E+000	3.08006E-005	5.99601E-002	3.04764E-001	3.57870E+000	9	...........
	13	0.186667	3.18587E-001	1.00867E-004	0.00000E+000	3.21349E-005	5.99601E-002	3.18652E-001	3.57870E+000	9	...........
	14	0.2	3.32455E-001	1.00028E-004	0.00000E+000	3.32549E-005	5.99601E-002	3.32525E-001	3.57870E+000	9	...........
	15	0.213333	3.46329E-001	1.01498E-004	0.00000E+000	3.51518E-005	5.99601E-002	3.46396E-001	3.57870E+000	9	...........
	16	0.226667	3.60184E-001	1.00779E-004	0.00000E+000	3.62990E-005	5.99601E-002	3.60252E-001	3.57870E+000	9	...........
	17	0.24	3.74013E-001	1.00144E-004	0.00000E+000	3.74550E-005	5.99601E-002	3.74086E-001	3.57870E+000	9	...........
	18	0.253333	3.87799E-001	1.01053E-004	0.00000E+000	3.91884E-005	5.99601E-002	3.87882E-001	3.57870E+000	9	...........
	19	0.266667	4.01544E-001	1.01514E-004	0.00000E+000	4.07622E-005	5.99601E-002	4.01626E-001	3.57870E+000	9	...........
	20	0.28	4.15214E-001	1.01698E-004	0.00000E+000	4.22265E-005	5.99601E-002	4.15299E-001	3.57870E+000	9	...........
	21	0.293333	4.28800E-001	1.01158E-004	0.00000E+000	4.33767E-005	5.99601E-002	4.28893E-001	3.57870E+000	9	...........
	22	0.306667	4.42292E-001	1.00241E-004	0.00000E+000	4.43356E-005	5.99601E-002	4.42389E-001	3.57870E+000	9	...........
	23	0.32	4.55660E-001	1.00702E-004	0.00000E+000	4.58859E-005	5.99601E-002	4.55759E-001	3.57870E+000	9	...........
	24	0.333333	4.68892E-001	9.99676E-005	0.00000E+000	4.68740E-005	5.99601E-002	4.68991E-001	3.57870E+000	9	...........
	25	0.346667	4.81968E-001	1.00788E-004	0.00000E+000	4.85764E-005	5.99601E-002	4.82065E-001	3.57870E+000	9	...........
	26	0.36	4.94867E-001	9.93446E-005	0.00000E+000	4.91623E-005	5.99601E-002	4.94971E-001	3.57870E+000	9	...........
	27	0.373333	5.07584E-001	1.01515E-004	0.00000E+000	5.15273E-005	5.99601E-002	5.07695E-001	3.57870E+000	9	...........
	28	0.386667	5.20108E-001	1.01162E-004	0.00000E+000	5.26149E-005	5.99601E-002	5.20219E-001	3.57870E+000	9	...........
	29	0.4	5.32269E-001	1.00798E-004	0.00000E+000	5.36516E-005	5.99601E-002	5.32450E-001	3.57870E+000	9	...........
	30	0.413333	5.44175E-001	1.00650E-004	0.00000E+000	5.47712E-005	5.99601E-002	5.44426E-001	3.57870E+000	9	...........
	31	0.426667	5.56023E-001	1.00551E-004	0.00000E+000	5.59087E-005	5.99601E-002	5.56314E-001	3.57870E+000	9	...........
	32	0.44	5.67719E-001	1.01326E-004	0.00000E+000	5.75248E-005	5.99601E-002	5.67993E-001	3.57870E+000	9	...........
	33	0.453333	5.79153E-001	1.00409E-004	0.00000E+000	5.81524E-005	5.99601E-002	5.79402E-001	3.57870E+000	9	...........
	34	0.466667	5.90356E-001	1.00363E-004	0.00000E+000	5.92496E-005	5.99601E-002	5.90642E-001	3.57870E+000	9	...........
	35	0.48	6.01350E-001	1.01309E-004	0.00000E+000	6.09219E-005	5.99601E-002	6.01651E-001	3.57870E+000	9	...........
	36	0.493333	6.12134E-001	1.00965E-004	0.00000E+000	6.18039E-005	5.99601E-002	6.12431E-001	3.57870E+000	9	...........
	37	0.506667	6.22723E-001	1.00389E-004	0.00000E+000	6.25142E-005	5.99601E-002	6.22982E-001	3.57870E+000	9	...........
	38	0.52	6.33037E-001	1.01538E-004	0.00000E+000	6.42771E-005	5.99601E-002	6.33321E-001	3.57870E+000	9	...........
	39	0.533333	6.43209E-001	1.00350E-004	0.00000E+000	6.45460E-005	5.99601E-002	6.43461E-001	3.57870E+000	9	...........
	40	0.546667	6.53147E-001	1.00639E-004	0.00000E+000	6.57318E-005	5.99601E-002	6.53397E-001	3.57870E+000	9	...........
	41	0.56	6.62879E-001	1.00630E-004	0.00000E+000	6.67057E-005	5.99601E-002	6.63140E-001	3.57870E+000	9	...........
	42	0.573333	6.72434E-001	1.00791E-004	0.00000E+000	6.77751E-005	5.99601E-002	6.72693E-001	3.57870E+000	9	...........
	43	0.586667	6.81781E-001	1.01701E-004	0.00000E+000	6.93380E-005	5.99601E-002	6.82060E-001	3.57913E+000	9	...........
	44	0.6	6.90933E-001	1.01562E-004	0.00000E+000	7.01723E-005	5.99601E-002	6.91210E-001	3.57970E+000	9	...........
	45	0.613333	6.99924E-001	1.00555E-004	0.00000E+000	7.03810E-005	5.99601E-002	7.00208E-001	3.57970E+000	9	...........
	46	0.626667	7.08723E-001	1.01496E-004	0.00000E+000	7.19326E-005	5.99601E-002	7.09038E-001	3.57970E+000	9	...........
	47	0.64	7.17398E-001	1.01042E-004	0.00000E+000	7.24872E-005	5.99601E-002	7.17696E-001	3.57970E+000	9	...........
	48	0.653333	7.25895E-001	1.01486E-004	0.00000E+000	7.36679E-005	5.99601E-002	7.26155E-001	3.57970E+000	9	...........
	49	0.666667	7.34208E-001	1.00532E-004	0.00000E+000	7.38116E-005	5.99601E-002	7.34488E-001	3.57970E+000	9	...........
	50	0.68	7.42368E-001	1.00709E-004	0.00000E+000	7.47635E-005	5.99601E-002	7.42664E-001	3.57970E+000	9	...........
	51	0.693333	7.50379E-001	1.01419E-004	0.00000E+000	7.61026E-005	5.99601E-002	7.50669E-001	3.57970E+000	9	...........
	52	0.706667	7.58252E-001	1.00827E-004	0.00000E+000	7.64524E-005	5.99601E-002	7.58530E-001	3.57970E+000	9	...........
	53	0.72	7.65932E-001	1.00528E-004	0.00000E+000	7.69977E-005	5.99601E-002	7.66244E-001	3.57970E+000	9	...........
	54	0.733333	7.73516E-001	1.01226E-004	0.00000E+000	7.83001E-005	5.99601E-002	7.73826E-001	3.57970E+000	9	...........
	55	0.746667	7.80963E-001	1.00705E-004	0.00000E+000	7.86471E-005	5.99601E-002	7.81269E-001	3.57970E+000	9	...........
	56	0.76	7.88259E-001	1.01604E-004	0.00000E+000	8.00906E-005	5.99601E-002	7.88542E-001	3.57970E+000	9	...........
	57	0.773333	7.95464E-001	1.01115E-004	0.00000E+000	8.04332E-005	5.99601E-002	7.95748E-001	3.57970E+000	9	...........
	58	0.786667	8.02510E-001	1.00490E-004	0.00000E+000	8.06440E-005	5.99601E-002	8.02790E-001	3.57970E+000	9	...........
	59	0.8	8.09399E-001	1.01033E-004	0.00000E+000	8.17764E-005	5.99601E-002	8.09720E-001	3.57970E+000	9	...........
	60	0.813333	8.16203E-001	1.00781E-004	0.00000E+000	8.22580E-005	5.99601E-002	8.16536E-001	3.57970E+000	9	...........
	61	0.826667	8.22877E-001	1.01488E-004	0.00000E+000	8.35119E-005	5.99601E-002	8.23218E-001	3.57970E+000	9	...........
	62	0.84	8.29450E-001	1.01323E-004	0.00000E+000	8.40425E-005	5.99601E-002	8.29747E-001	3.57970E+000	9	...........
	63	0.853333	8.35897E-001	1.00025E-004	0.00000E+000	8.36105E-005	5.99601E-002	8.36227E-001	3.57970E+000	9	...........
	64	0.866667	8.42249E-001	1.01250E-004	0.00000E+000	8.52779E-005	5.99601E-002	8.42560E-001	3.57970E+000	9	...........
	65	0.88	8.48499E-001	1.00617E-004	0.00000E+000	8.53732E-005	5.99601E-002	8.48852E-001	3.57970E+000	9	...........
	66	0.893333	8.54634E-001	1.00283E-004	0.00000E+000	8.57055E-005	5.99601E-002	8.54971E-001	3.57970E+000	9	...........
	67	0.906667	8.60673E-001	1.00580E-004	0.00000E+000	8.65667E-005	5.99601E-002	8.61014E-001	3.57970E+000	9	...........
	68	0.92	8.66578E-001	1.01555E-004	0.00000E+000	8.80057E-005	5.99601E-002	8.66958E-001	3.57970E+000	9	...........
	69	0.933333	8.72453E-001	1.00857E-004	0.00000E+000	8.79933E-005	5.99601E-002	8.72807E-001	3.57970E+000	9	...........
	70	0.946667	8.78190E-001	1.01350E-004	0.00000E+000	8.90047E-005	5.99601E-002	8.78524E-001	3.57970E+000	9	...........
	71	0.96	8.83829E-001	1.01555E-004	0.00000E+000	8.97577E-005	5.99601E-002	8.84184E-001	3.57970E+000	9	...........
	72	0.97333	8.89374E-001	1.01050E-004	0.00000E+000	8.98714E-005	5.99601E-002	8.89731E-001	3.57970E+000	9	...........
	73	0.98667	8.94823E-001	1.01285E-004	0.00000E+000	9.06318E-005	5.99601E-002	8.95180E-001	3.57970E+000	9	...........
	74	1	9.00202E-001	1.00225E-004	0.00000E+000	9.02227E-005	5.99601E-002	9.00543E-001	3.57970E+000	9	...........
	75	1.01333	9.05460E-001	1.00825E-004	0.00000E+000	9.12931E-005	5.99601E-002	9.05832E-001	3.57970E+000	9	...........
	76	1.02667	9.10653E-001	1.01689E-004	0.00000E+000	9.26032E-005	5.99601E-002	9.11004E-001	3.57970E+000	9	...........
	77	1.04	9.15751E-001	1.01664E-004	0.00000E+000	9.30988E-005	5.99601E-002	9.16107E-001	3.57970E+000	9	...........
	78	1.05333	9.20788E-001	1.00730E-004	0.00000E+000	9.27512E-005	5.99601E-002	9.21148E-001	3.57970E+000	9	...........
	79	1.06667	9.25730E-001	9.99364E-005	0.00000E+000	9.25141E-005	5.99601E-002	9.26073E-001	3.57970E+000	9	...........
	80	1.08	9.30560E-001	1.00914E-004	0.00000E+000	9.39063E-005	5.99601E-002	9.30889E-001	3.57970E+000	9	...........
	81	1.09333	9.35308E-001	1.01271E-004	0.00000E+000	9.47196E-005	5.99601E-002	9.35652E-001	3.57970E+000	9	...........
	82	1.10667	9.39964E-001	1.00979E-004	0.00000E+000	9.49169E-005	5.99601E-002	9.40329E-001	3.57970E+000	9	...........
	83	1.12	9.44559E-001	1.00741E-004	0.00000E+000	9.51556E-005	5.99601E-002	9.44916E-001	3.57970E+000	9	...........
	84	1.13333	9.49097E-001	1.01369E-004	0.00000E+000	9.62090E-005	5.99601E-002	9.49449E-001	3.57970E+000	9	...........
	85	1.14667	9.53514E-001	1.00042E-004	0.00000E+000	9.53911E-005	5.99601E-002	9.53879E-001	3.57970E+000	9	...........
	86	1.16	9.57840E-001	1.00748E-004	0.00000E+000	9.65005E-005	5.99601E-002	9.58205E-001	3.57970E+000	9	...........
	87	1.17333	9.62085E-001	1.01030E-004	0.00000E+000	9.71997E-005	5.99601E-002	9.62463E-001	3.57970E+000	9	...........
	88	1.18667	9.66271E-001	1.01164E-004	0.00000E+000	9.77516E-005	5.99601E-002	9.66626E-001	3.57970E+000	9	...........
	89	1.2	9.70349E-001	1.01798E-004	0.00000E+000	9.87798E-005	5.99601E-002	9.70743E-001	3.57970E+000	9	...........
	90	1.21333	9.74427E-001	1.00700E-004	0.00000E+000	9.81248E-005	5.99601E-002	9.74776E-001	3.57970E+000	9	...........
	91	1.22667	9.78362E-001	1.00955E-004	0.00000E+000	9.87708E-005	5.99601E-002	9.78701E-001	3.57970E+000	9	...........
	92	1.24	9.82222E-001	1.00576E-004	0.00000E+000	9.87880E-005	5.99601E-002	9.82580E-001	3.57970E+000	9	...........
	93	1.25333	9.86002E-001	1.01093E-004	0.00000E+000	9.96778E-005	5.99601E-002	9.86381E-001	3.57970E+000	9	...........
	94	1.26667	9.89723E-001	1.01076E-004	0.00000E+000	1.00037E-004	5.99601E-002	9.90088E-001	3.57970E+000	9	...........
	95	1.28	9.93336E-001	1.00457E-004	0.00000E+000	9.97879E-005	5.99601E-002	9.93694E-001	3.57970E+000	9	...........
	96	1.29333	9.96907E-001	1.00293E-004	0.00000E+000	9.99825E-005	5.99601E-002	9.97282E-001	3.57970E+000	9	...........
	97	1.3	9.99533E-001	1.00602E-004	0.00000E+000	1.00555E-004	5.99601E-002	9.99920E-001	3.57970E+000	9	...........
STARTTIMEOFFSET	QUANT	335.9749	Start Time Offset (s)
