EXPLAIN
TAG	PWR800_CHARGE
TITLE	LABEL	PWR Cyclic Charge Discharge (Cell) - Charge Step	Test &Identifier
DATE	LABEL	13-7-2017	Date
TIME	LABEL	15:29:34	Time
NOTES	NOTES	2	&Notes...
	supercap test cell
	6M KOH
PSTAT	PSTAT	IFC5000-01520	Potentiostat
CAPACITY	QUANT	1.00000E-003	Capacity (A-hr)
CELLTYPE	SELECTOR	1	&Cell Type
WORKINGCONNECTION	SELECTOR	0	&Working Lead
MAXCHARGETIME	VARIABLEANDUNITS	1.00000E+002	s	1.00000E+002	second(s)	Max &Charge Time
CHARGECURRENT	QUANT	1.00000E-004	&Charge Current (A) 
VOLTAGEFINISH	TWOPARAM	F	1.00000E-003	3.60000E+003	&Voltage Finish	 I (A) < 	Max Time(s)
SAMPLETIME	QUANT	1.00000E-002	Sa&mple Period (s)
CHARGESTOPAT1	MULTIPARAM	4	1.00000E+000	Charge Stop At &1	Voltage > Limit	V
CHARGESTOPAT2	MULTIPARAM	0	0.00000E+000	Charge Stop At &2	None	N/A
AESBHCSELECTOR	TOGGLE	F	Save Both Half Cells
IRCOMP	TOGGLE	F	IR &Measure
EOC	QUANT	0	Open Circuit (V)
SEQUENCER	TOGGLE	TRUE	Run as Sequence
PSTATMODEL	IQUANT	53	Pstat Model
PSTATSECTION	LABEL	IFC5000-01520	Pstat Section
PSTATSERIALNO	LABEL	01520	Pstat Serial Number
CTRLMODE	IQUANT	0	Control Mode
ELECTROMETER	IQUANT	1	RE=0 or CS=1
IESTAB	IQUANT	0	I/E Stability
CASPEED	IQUANT	4	Control Amp Speed
CONVENTION	IQUANT	1	Current Convention
ICHRANGE	IQUANT	2	Ich Range
ICHRANGEMODE	TOGGLE	T	Ich Auto Range
ICHOFFSETENABLE	TOGGLE	F	Ich Offset Enable
ICHOFFSET	QUANT	0	Ich Offset (V)
ICHFILTER	IQUANT	1	Ich Filter
VCHRANGE	IQUANT	2	Vch Range
VCHRANGEMODE	TOGGLE	T	Vch Auto Range
VCHOFFSETENABLE	TOGGLE	F	Vch Offset Enable
VCHOFFSET	QUANT	0	Vch Offset (V)
VCHFILTER	IQUANT	1	Vch Filter
IERANGELOWERLIMIT	IQUANT	9	I/E Range Lower Limit
IERANGEMODE	TOGGLE	F	I/E AutoRange
IERANGE	IQUANT	9	I/E Range
ACHSELECT	IQUANT	1	Ach Select
ACHRANGE	IQUANT	2	Ach Range
ACHOFFSETENABLE	TOGGLE	F	Ach Offset Enable
ACHOFFSET	QUANT	0	Ach Offset (V)
ACHFILTER	IQUANT	1	Ach Filter
CABLEID	IQUANT	14	Cable ID
DCCALDATE	LABEL	5-7-2017	DC Calibration Date
ACCALDATE	LABEL	12/3/2015	AC Calibration Date
FRAMEWORKVERSION	QUANT	7.01	Framework Version
INSTRUMENTVERSION	LABEL	4.00	Instrument Version
CURVE	TABLE	92
	Pt	T	Vf	Im	Vu	Pwr	Sig	Ach	Temp	IERange	Over
	#	s	V	A	V	W	V	V	deg C	#	bits
	0	0.013333	1.35084E-001	1.00890E-004	0.00000E+000	1.36285E-005	5.99601E-002	1.35125E-001	3.57940E+000	9	...........
	1	0.026667	1.50352E-001	1.00656E-004	0.00000E+000	1.51338E-005	5.99601E-002	1.50368E-001	3.57940E+000	9	...........
	2	0.04	1.65179E-001	1.00919E-004	0.00000E+000	1.66697E-005	5.99601E-002	1.65208E-001	3.57940E+000	9	...........
	3	0.053333	1.79750E-001	1.00279E-004	0.00000E+000	1.80251E-005	5.99601E-002	1.79784E-001	3.57940E+000	9	...........
	4	0.066667	1.94130E-001	1.01122E-004	0.00000E+000	1.96308E-005	5.99601E-002	1.94170E-001	3.57940E+000	9	...........
	5	0.08	2.08372E-001	1.00674E-004	0.00000E+000	2.09777E-005	5.99601E-002	2.08404E-001	3.57940E+000	9	...........
	6	0.093333	2.22508E-001	1.00296E-004	0.00000E+000	2.23166E-005	5.99601E-002	2.22546E-001	3.57940E+000	9	...........
	7	0.106667	2.36578E-001	1.01261E-004	0.00000E+000	2.39560E-005	5.99601E-002	2.36619E-001	3.57940E+000	9	...........
	8	0.12	2.50597E-001	1.00070E-004	0.00000E+000	2.50772E-005	5.99601E-002	2.50637E-001	3.57940E+000	9	...........
	9	0.133333	2.64585E-001	1.01390E-004	0.00000E+000	2.68262E-005	5.99601E-002	2.64641E-001	3.57940E+000	9	...........
	10	0.146667	2.78573E-001	1.00497E-004	0.00000E+000	2.79957E-005	5.99601E-002	2.78622E-001	3.57940E+000	9	...........
	11	0.16	2.92551E-001	1.01396E-004	0.00000E+000	2.96635E-005	5.99601E-002	2.92613E-001	3.57940E+000	9	...........
	12	0.173333	3.06538E-001	1.01907E-004	0.00000E+000	3.12382E-005	5.99601E-002	3.06601E-001	3.57940E+000	9	...........
	13	0.186667	3.20543E-001	1.01338E-004	0.00000E+000	3.24831E-005	5.99601E-002	3.20601E-001	3.57940E+000	9	...........
	14	0.2	3.34552E-001	1.00807E-004	0.00000E+000	3.37253E-005	5.99601E-002	3.34618E-001	3.57940E+000	9	...........
	15	0.213333	3.48584E-001	1.01611E-004	0.00000E+000	3.54199E-005	5.99601E-002	3.48649E-001	3.57940E+000	9	...........
	16	0.226667	3.62636E-001	1.00576E-004	0.00000E+000	3.64725E-005	5.99601E-002	3.62704E-001	3.57940E+000	9	...........
	17	0.24	3.76686E-001	1.00704E-004	0.00000E+000	3.79339E-005	5.99601E-002	3.76763E-001	3.57940E+000	9	...........
	18	0.253333	3.90743E-001	1.00637E-004	0.00000E+000	3.93230E-005	5.99601E-002	3.90813E-001	3.57940E+000	9	...........
	19	0.266667	4.04772E-001	1.01165E-004	0.00000E+000	4.09486E-005	5.99601E-002	4.04852E-001	3.57940E+000	9	...........
	20	0.28	4.18763E-001	1.00859E-004	0.00000E+000	4.22362E-005	5.99601E-002	4.18848E-001	3.57940E+000	9	...........
	21	0.293333	4.32706E-001	1.00899E-004	0.00000E+000	4.36597E-005	5.99601E-002	4.32791E-001	3.57940E+000	9	...........
	22	0.306667	4.46570E-001	1.01528E-004	0.00000E+000	4.53396E-005	5.99601E-002	4.46664E-001	3.57940E+000	9	...........
	23	0.32	4.60342E-001	1.00291E-004	0.00000E+000	4.61680E-005	5.99601E-002	4.60436E-001	3.57940E+000	9	...........
	24	0.333333	4.73987E-001	1.00209E-004	0.00000E+000	4.74979E-005	5.99601E-002	4.74086E-001	3.57940E+000	9	...........
	25	0.346667	4.87501E-001	1.01360E-004	0.00000E+000	4.94129E-005	5.99601E-002	4.87602E-001	3.57940E+000	9	...........
	26	0.36	5.00845E-001	1.01366E-004	0.00000E+000	5.07686E-005	5.99601E-002	5.00952E-001	3.57940E+000	9	...........
	27	0.373333	5.14019E-001	1.00682E-004	0.00000E+000	5.17526E-005	5.99601E-002	5.14132E-001	3.57940E+000	9	...........
	28	0.386667	5.27003E-001	1.01378E-004	0.00000E+000	5.34266E-005	5.99601E-002	5.27117E-001	3.57940E+000	9	...........
	29	0.4	5.39465E-001	9.99124E-005	0.00000E+000	5.38992E-005	5.99601E-002	5.39710E-001	3.57940E+000	9	...........
	30	0.413333	5.52000E-001	1.00775E-004	0.00000E+000	5.56279E-005	5.99601E-002	5.52292E-001	3.57940E+000	9	...........
	31	0.426667	5.64355E-001	1.00993E-004	0.00000E+000	5.69958E-005	5.99601E-002	5.64657E-001	3.57940E+000	9	...........
	32	0.44	5.76479E-001	1.01629E-004	0.00000E+000	5.85873E-005	5.99601E-002	5.76761E-001	3.57940E+000	9	...........
	33	0.453333	5.88391E-001	1.00762E-004	0.00000E+000	5.92872E-005	5.99601E-002	5.88672E-001	3.57940E+000	9	...........
	34	0.466667	6.00037E-001	1.01124E-004	0.00000E+000	6.06782E-005	5.99601E-002	6.00346E-001	3.57940E+000	9	...........
	35	0.48	6.11475E-001	1.00247E-004	0.00000E+000	6.12984E-005	5.99601E-002	6.11773E-001	3.57940E+000	9	...........
	36	0.493333	6.22734E-001	1.01226E-004	0.00000E+000	6.30370E-005	5.99601E-002	6.22984E-001	3.57940E+000	9	...........
	37	0.506667	6.33722E-001	1.00580E-004	0.00000E+000	6.37399E-005	5.99601E-002	6.33984E-001	3.57940E+000	9	...........
	38	0.52	6.44503E-001	1.01133E-004	0.00000E+000	6.51809E-005	5.99601E-002	6.44788E-001	3.57940E+000	9	...........
	39	0.533333	6.55067E-001	1.01718E-004	0.00000E+000	6.66321E-005	5.99601E-002	6.55352E-001	3.57940E+000	9	...........
	40	0.546667	6.65412E-001	1.00630E-004	0.00000E+000	6.69606E-005	5.99601E-002	6.65712E-001	3.57940E+000	9	...........
	41	0.56	6.75556E-001	1.01571E-004	0.00000E+000	6.86170E-005	5.99601E-002	6.75848E-001	3.57940E+000	9	...........
	42	0.573333	6.85464E-001	1.00695E-004	0.00000E+000	6.90227E-005	5.99601E-002	6.85778E-001	3.57940E+000	9	...........
	43	0.586667	6.95222E-001	1.01443E-004	0.00000E+000	7.05254E-005	5.99601E-002	6.95510E-001	3.57940E+000	9	...........
	44	0.6	7.04764E-001	1.00677E-004	0.00000E+000	7.09537E-005	5.99601E-002	7.05060E-001	3.57940E+000	9	...........
	45	0.613333	7.14119E-001	1.00927E-004	0.00000E+000	7.20740E-005	5.99601E-002	7.14405E-001	3.57940E+000	9	...........
	46	0.626667	7.23324E-001	1.01111E-004	0.00000E+000	7.31357E-005	5.99601E-002	7.23583E-001	3.57940E+000	9	...........
	47	0.64	7.32291E-001	1.01380E-004	0.00000E+000	7.42400E-005	5.99601E-002	7.32591E-001	3.57940E+000	9	...........
	48	0.653333	7.41110E-001	1.00688E-004	0.00000E+000	7.46206E-005	5.99601E-002	7.41408E-001	3.57940E+000	9	...........
	49	0.666667	7.49765E-001	9.99583E-005	0.00000E+000	7.49452E-005	5.99601E-002	7.50059E-001	3.57940E+000	9	...........
	50	0.68	7.58263E-001	1.00939E-004	0.00000E+000	7.65380E-005	5.99601E-002	7.58529E-001	3.57940E+000	9	...........
	51	0.693333	7.66551E-001	1.00909E-004	0.00000E+000	7.73523E-005	5.99601E-002	7.66866E-001	3.57940E+000	9	...........
	52	0.706667	7.74742E-001	1.00995E-004	0.00000E+000	7.82450E-005	5.99601E-002	7.75045E-001	3.57940E+000	9	...........
	53	0.72	7.82731E-001	1.00693E-004	0.00000E+000	7.88153E-005	5.99601E-002	7.83047E-001	3.57940E+000	9	...........
	54	0.733333	7.90604E-001	1.00947E-004	0.00000E+000	7.98091E-005	5.99601E-002	7.90909E-001	3.57940E+000	9	...........
	55	0.746667	7.98334E-001	1.00589E-004	0.00000E+000	8.03033E-005	5.99601E-002	7.98631E-001	3.57940E+000	9	...........
	56	0.76	8.05874E-001	1.00632E-004	0.00000E+000	8.10970E-005	5.99601E-002	8.06210E-001	3.57940E+000	9	...........
	57	0.773333	8.13307E-001	1.01264E-004	0.00000E+000	8.23585E-005	5.99601E-002	8.13636E-001	3.57940E+000	9	...........
	58	0.786667	8.20621E-001	1.00621E-004	0.00000E+000	8.25716E-005	5.99601E-002	8.20966E-001	3.57940E+000	9	...........
	59	0.8	8.27785E-001	1.00876E-004	0.00000E+000	8.35038E-005	5.99601E-002	8.28122E-001	3.57940E+000	9	...........
	60	0.813333	8.34817E-001	1.00664E-004	0.00000E+000	8.40357E-005	5.99601E-002	8.35153E-001	3.57940E+000	9	...........
	61	0.826667	8.41730E-001	1.00763E-004	0.00000E+000	8.48149E-005	5.99601E-002	8.42052E-001	3.57940E+000	9	...........
	62	0.84	8.48528E-001	1.01184E-004	0.00000E+000	8.58570E-005	5.99601E-002	8.48878E-001	3.57940E+000	9	...........
	63	0.853333	8.55220E-001	1.00809E-004	0.00000E+000	8.62143E-005	5.99601E-002	8.55549E-001	3.57940E+000	9	...........
	64	0.866667	8.61764E-001	1.00754E-004	0.00000E+000	8.68264E-005	5.99601E-002	8.62126E-001	3.57940E+000	9	...........
	65	0.88	8.68207E-001	1.01234E-004	0.00000E+000	8.78917E-005	5.99601E-002	8.68566E-001	3.57940E+000	9	...........
	66	0.893333	8.74525E-001	1.00915E-004	0.00000E+000	8.82524E-005	5.99601E-002	8.74909E-001	3.57940E+000	9	...........
	67	0.906667	8.80737E-001	1.00480E-004	0.00000E+000	8.84967E-005	5.99601E-002	8.81117E-001	3.57940E+000	9	...........
	68	0.92	8.86867E-001	1.02224E-004	0.00000E+000	9.06594E-005	5.99601E-002	8.87238E-001	3.57940E+000	9	...........
	69	0.933333	8.92855E-001	1.01001E-004	0.00000E+000	9.01794E-005	5.99601E-002	8.93234E-001	3.57940E+000	9	...........
	70	0.946667	8.98747E-001	1.01127E-004	0.00000E+000	9.08879E-005	5.99601E-002	8.99144E-001	3.57940E+000	9	...........
	71	0.96	9.04530E-001	1.01055E-004	0.00000E+000	9.14075E-005	5.99601E-002	9.04938E-001	3.57955E+000	9	...........
	72	0.97333	9.10219E-001	1.00319E-004	0.00000E+000	9.13120E-005	5.99601E-002	9.10608E-001	3.57970E+000	9	...........
	73	0.98667	9.15799E-001	1.00932E-004	0.00000E+000	9.24338E-005	5.99601E-002	9.16202E-001	3.57970E+000	9	...........
	74	1	9.21326E-001	1.00527E-004	0.00000E+000	9.26182E-005	5.99601E-002	9.21683E-001	3.57970E+000	9	...........
	75	1.01333	9.26721E-001	1.01108E-004	0.00000E+000	9.36994E-005	5.99601E-002	9.27069E-001	3.57970E+000	9	...........
	76	1.02667	9.32017E-001	1.01350E-004	0.00000E+000	9.44601E-005	5.99601E-002	9.32335E-001	3.57970E+000	9	...........
	77	1.04	9.37189E-001	1.00469E-004	0.00000E+000	9.41582E-005	5.99601E-002	9.37553E-001	3.57970E+000	9	...........
	78	1.05333	9.42286E-001	1.01293E-004	0.00000E+000	9.54469E-005	5.99601E-002	9.42635E-001	3.57970E+000	9	...........
	79	1.06667	9.47283E-001	1.00499E-004	0.00000E+000	9.52010E-005	5.99601E-002	9.47669E-001	3.57970E+000	9	...........
	80	1.08	9.52192E-001	1.00832E-004	0.00000E+000	9.60118E-005	5.99601E-002	9.52563E-001	3.57970E+000	9	...........
	81	1.09333	9.56999E-001	1.00511E-004	0.00000E+000	9.61894E-005	5.99601E-002	9.57346E-001	3.57970E+000	9	...........
	82	1.10667	9.61701E-001	1.00476E-004	0.00000E+000	9.66279E-005	5.99601E-002	9.62084E-001	3.57970E+000	9	...........
	83	1.12	9.66295E-001	1.01949E-004	0.00000E+000	9.85131E-005	5.99601E-002	9.66685E-001	3.57970E+000	9	...........
	84	1.13333	9.70856E-001	1.01353E-004	0.00000E+000	9.83995E-005	5.99601E-002	9.71225E-001	3.57970E+000	9	...........
	85	1.14667	9.75311E-001	1.00250E-004	0.00000E+000	9.77749E-005	5.99601E-002	9.75676E-001	3.57970E+000	9	...........
	86	1.16	9.79666E-001	1.01406E-004	0.00000E+000	9.93445E-005	5.99601E-002	9.80010E-001	3.57970E+000	9	...........
	87	1.17333	9.83906E-001	1.01153E-004	0.00000E+000	9.95254E-005	5.99601E-002	9.84277E-001	3.57970E+000	9	...........
	88	1.18667	9.88070E-001	1.00498E-004	0.00000E+000	9.92990E-005	5.99601E-002	9.88444E-001	3.57970E+000	9	...........
	89	1.2	9.92138E-001	1.01896E-004	0.00000E+000	1.01095E-004	5.99601E-002	9.92511E-001	3.57970E+000	9	...........
	90	1.21333	9.96128E-001	1.00318E-004	0.00000E+000	9.99293E-005	5.99601E-002	9.96510E-001	3.57970E+000	9	...........
	91	1.22167	9.99346E-001	1.00115E-004	0.00000E+000	1.00049E-004	5.99601E-002	9.99729E-001	3.57970E+000	9	...........
STARTTIMEOFFSET	QUANT	1246.983	Start Time Offset (s)
