EXPLAIN
TAG	PWR800_CHARGE
TITLE	LABEL	PWR Cyclic Charge Discharge (Cell) - Charge Step	Test &Identifier
DATE	LABEL	13-7-2017	Date
TIME	LABEL	15:54:42	Time
NOTES	NOTES	2	&Notes...
	supercap test cell
	6M KOH
PSTAT	PSTAT	IFC5000-01520	Potentiostat
CAPACITY	QUANT	1.00000E-003	Capacity (A-hr)
CELLTYPE	SELECTOR	1	&Cell Type
WORKINGCONNECTION	SELECTOR	0	&Working Lead
MAXCHARGETIME	VARIABLEANDUNITS	1.00000E+002	s	1.00000E+002	second(s)	Max &Charge Time
CHARGECURRENT	QUANT	1.00000E-004	&Charge Current (A) 
VOLTAGEFINISH	TWOPARAM	F	1.00000E-003	3.60000E+003	&Voltage Finish	 I (A) < 	Max Time(s)
SAMPLETIME	QUANT	1.00000E-002	Sa&mple Period (s)
CHARGESTOPAT1	MULTIPARAM	4	1.00000E+000	Charge Stop At &1	Voltage > Limit	V
CHARGESTOPAT2	MULTIPARAM	0	0.00000E+000	Charge Stop At &2	None	N/A
AESBHCSELECTOR	TOGGLE	F	Save Both Half Cells
IRCOMP	TOGGLE	F	IR &Measure
EOC	QUANT	0	Open Circuit (V)
SEQUENCER	TOGGLE	TRUE	Run as Sequence
PSTATMODEL	IQUANT	53	Pstat Model
PSTATSECTION	LABEL	IFC5000-01520	Pstat Section
PSTATSERIALNO	LABEL	01520	Pstat Serial Number
CTRLMODE	IQUANT	0	Control Mode
ELECTROMETER	IQUANT	1	RE=0 or CS=1
IESTAB	IQUANT	0	I/E Stability
CASPEED	IQUANT	4	Control Amp Speed
CONVENTION	IQUANT	1	Current Convention
ICHRANGE	IQUANT	2	Ich Range
ICHRANGEMODE	TOGGLE	T	Ich Auto Range
ICHOFFSETENABLE	TOGGLE	F	Ich Offset Enable
ICHOFFSET	QUANT	0	Ich Offset (V)
ICHFILTER	IQUANT	1	Ich Filter
VCHRANGE	IQUANT	2	Vch Range
VCHRANGEMODE	TOGGLE	T	Vch Auto Range
VCHOFFSETENABLE	TOGGLE	F	Vch Offset Enable
VCHOFFSET	QUANT	0	Vch Offset (V)
VCHFILTER	IQUANT	1	Vch Filter
IERANGELOWERLIMIT	IQUANT	9	I/E Range Lower Limit
IERANGEMODE	TOGGLE	F	I/E AutoRange
IERANGE	IQUANT	9	I/E Range
ACHSELECT	IQUANT	1	Ach Select
ACHRANGE	IQUANT	2	Ach Range
ACHOFFSETENABLE	TOGGLE	F	Ach Offset Enable
ACHOFFSET	QUANT	0	Ach Offset (V)
ACHFILTER	IQUANT	1	Ach Filter
CABLEID	IQUANT	14	Cable ID
DCCALDATE	LABEL	5-7-2017	DC Calibration Date
ACCALDATE	LABEL	12/3/2015	AC Calibration Date
FRAMEWORKVERSION	QUANT	7.01	Framework Version
INSTRUMENTVERSION	LABEL	4.00	Instrument Version
CURVE	TABLE	89
	Pt	T	Vf	Im	Vu	Pwr	Sig	Ach	Temp	IERange	Over
	#	s	V	A	V	W	V	V	deg C	#	bits
	0	0.013333	1.33223E-001	1.00360E-004	0.00000E+000	1.33704E-005	5.99601E-002	1.33245E-001	3.57850E+000	9	...........
	1	0.026667	1.48541E-001	1.01229E-004	0.00000E+000	1.50367E-005	5.99601E-002	1.48555E-001	3.57850E+000	9	...........
	2	0.04	1.63415E-001	1.01010E-004	0.00000E+000	1.65065E-005	5.99601E-002	1.63436E-001	3.57850E+000	9	...........
	3	0.053333	1.78031E-001	1.00338E-004	0.00000E+000	1.78632E-005	5.99601E-002	1.78060E-001	3.57850E+000	9	...........
	4	0.066667	1.92457E-001	1.00631E-004	0.00000E+000	1.93672E-005	5.99601E-002	1.92486E-001	3.57850E+000	9	...........
	5	0.08	2.06739E-001	1.01239E-004	0.00000E+000	2.09300E-005	5.99601E-002	2.06769E-001	3.57850E+000	9	...........
	6	0.093333	2.20922E-001	1.00576E-004	0.00000E+000	2.22195E-005	5.99601E-002	2.20959E-001	3.57850E+000	9	...........
	7	0.106667	2.35040E-001	1.00304E-004	0.00000E+000	2.35755E-005	5.99601E-002	2.35082E-001	3.57850E+000	9	...........
	8	0.12	2.49106E-001	1.01125E-004	0.00000E+000	2.51908E-005	5.99601E-002	2.49159E-001	3.57850E+000	9	...........
	9	0.133333	2.63153E-001	1.00983E-004	0.00000E+000	2.65741E-005	5.99601E-002	2.63203E-001	3.57850E+000	9	...........
	10	0.146667	2.77192E-001	1.00041E-004	0.00000E+000	2.77305E-005	5.99601E-002	2.77246E-001	3.57850E+000	9	...........
	11	0.16	2.91239E-001	1.01020E-004	0.00000E+000	2.94210E-005	5.99601E-002	2.91293E-001	3.57850E+000	9	...........
	12	0.173333	3.05303E-001	1.01712E-004	0.00000E+000	3.10529E-005	5.99601E-002	3.05360E-001	3.57850E+000	9	...........
	13	0.186667	3.19383E-001	1.01073E-004	0.00000E+000	3.22811E-005	5.99601E-002	3.19442E-001	3.57850E+000	9	...........
	14	0.2	3.33497E-001	1.01446E-004	0.00000E+000	3.38320E-005	5.99601E-002	3.33558E-001	3.57850E+000	9	...........
	15	0.213333	3.47637E-001	1.00408E-004	0.00000E+000	3.49057E-005	5.99601E-002	3.47705E-001	3.57850E+000	9	...........
	16	0.226667	3.61809E-001	1.00838E-004	0.00000E+000	3.64840E-005	5.99601E-002	3.61874E-001	3.57850E+000	9	...........
	17	0.24	3.76005E-001	1.00852E-004	0.00000E+000	3.79210E-005	5.99601E-002	3.76073E-001	3.57850E+000	9	...........
	18	0.253333	3.90216E-001	1.01036E-004	0.00000E+000	3.94256E-005	5.99601E-002	3.90285E-001	3.57850E+000	9	...........
	19	0.266667	4.04418E-001	9.99124E-005	0.00000E+000	4.04064E-005	5.99601E-002	4.04495E-001	3.57850E+000	9	...........
	20	0.28	4.18605E-001	1.02011E-004	0.00000E+000	4.27022E-005	5.99601E-002	4.18690E-001	3.57850E+000	9	...........
	21	0.293333	4.32761E-001	1.01513E-004	0.00000E+000	4.39308E-005	5.99601E-002	4.32847E-001	3.57850E+000	9	...........
	22	0.306667	4.46853E-001	1.00924E-004	0.00000E+000	4.50982E-005	5.99601E-002	4.46944E-001	3.57850E+000	9	...........
	23	0.32	4.60875E-001	1.01220E-004	0.00000E+000	4.66498E-005	5.99601E-002	4.60965E-001	3.57850E+000	9	...........
	24	0.333333	4.74789E-001	1.01824E-004	0.00000E+000	4.83451E-005	5.99601E-002	4.74883E-001	3.57850E+000	9	...........
	25	0.346667	4.88580E-001	1.00813E-004	0.00000E+000	4.92551E-005	5.99601E-002	4.88675E-001	3.57850E+000	9	...........
	26	0.36	5.02226E-001	1.00579E-004	0.00000E+000	5.05135E-005	5.99601E-002	5.02331E-001	3.57850E+000	9	...........
	27	0.373333	5.15709E-001	1.00953E-004	0.00000E+000	5.20625E-005	5.99601E-002	5.15820E-001	3.57850E+000	9	...........
	28	0.386667	5.28957E-001	1.01276E-004	0.00000E+000	5.35708E-005	5.99601E-002	5.29091E-001	3.57850E+000	9	...........
	29	0.4	5.41749E-001	1.01176E-004	0.00000E+000	5.48121E-005	5.99601E-002	5.42029E-001	3.57850E+000	9	...........
	30	0.413333	5.54640E-001	1.00638E-004	0.00000E+000	5.58176E-005	5.99601E-002	5.54952E-001	3.57850E+000	9	...........
	31	0.426667	5.67339E-001	1.00534E-004	0.00000E+000	5.70371E-005	5.99601E-002	5.67626E-001	3.57850E+000	9	...........
	32	0.44	5.79787E-001	1.00782E-004	0.00000E+000	5.84323E-005	5.99601E-002	5.80092E-001	3.57850E+000	9	...........
	33	0.453333	5.92034E-001	1.01569E-004	0.00000E+000	6.01323E-005	5.99601E-002	5.92327E-001	3.57850E+000	9	...........
	34	0.466667	6.03995E-001	1.01053E-004	0.00000E+000	6.10356E-005	5.99601E-002	6.04335E-001	3.57850E+000	9	...........
	35	0.48	6.15807E-001	1.00431E-004	0.00000E+000	6.18462E-005	5.99601E-002	6.16107E-001	3.57850E+000	9	...........
	36	0.493333	6.27331E-001	1.00380E-004	0.00000E+000	6.29716E-005	5.99601E-002	6.27612E-001	3.57850E+000	9	...........
	37	0.506667	6.38632E-001	1.01170E-004	0.00000E+000	6.46104E-005	5.99601E-002	6.38927E-001	3.57850E+000	9	...........
	38	0.52	6.49710E-001	1.01462E-004	0.00000E+000	6.59207E-005	5.99601E-002	6.49997E-001	3.57850E+000	9	...........
	39	0.533333	6.60551E-001	1.00390E-004	0.00000E+000	6.63124E-005	5.99601E-002	6.60830E-001	3.57850E+000	9	...........
	40	0.546667	6.71201E-001	1.00588E-004	0.00000E+000	6.75144E-005	5.99601E-002	6.71470E-001	3.57885E+000	9	...........
	41	0.56	6.81603E-001	1.00804E-004	0.00000E+000	6.87085E-005	5.99601E-002	6.81878E-001	3.57920E+000	9	...........
	42	0.573333	6.91802E-001	1.01294E-004	0.00000E+000	7.00754E-005	5.99601E-002	6.92068E-001	3.57920E+000	9	...........
	43	0.586667	7.01787E-001	1.00899E-004	0.00000E+000	7.08097E-005	5.99601E-002	7.02069E-001	3.57920E+000	9	...........
	44	0.6	7.11599E-001	1.01536E-004	0.00000E+000	7.22527E-005	5.99601E-002	7.11866E-001	3.57920E+000	9	...........
	45	0.613333	7.21229E-001	1.00739E-004	0.00000E+000	7.26556E-005	5.99601E-002	7.21486E-001	3.57920E+000	9	...........
	46	0.626667	7.30628E-001	1.00762E-004	0.00000E+000	7.36192E-005	5.99601E-002	7.30879E-001	3.57920E+000	9	...........
	47	0.64	7.39852E-001	1.00340E-004	0.00000E+000	7.42365E-005	5.99601E-002	7.40105E-001	3.57920E+000	9	...........
	48	0.653333	7.48894E-001	1.01154E-004	0.00000E+000	7.57539E-005	5.99601E-002	7.49154E-001	3.57920E+000	9	...........
	49	0.666667	7.57778E-001	1.00316E-004	0.00000E+000	7.60169E-005	5.99601E-002	7.58030E-001	3.57920E+000	9	...........
	50	0.68	7.66471E-001	1.01418E-004	0.00000E+000	7.77339E-005	5.99601E-002	7.66721E-001	3.57920E+000	9	...........
	51	0.693333	7.74995E-001	1.00156E-004	0.00000E+000	7.76206E-005	5.99601E-002	7.75266E-001	3.57920E+000	9	...........
	52	0.706667	7.83361E-001	1.01244E-004	0.00000E+000	7.93106E-005	5.99601E-002	7.83619E-001	3.57920E+000	9	...........
	53	0.72	7.91575E-001	1.01008E-004	0.00000E+000	7.99558E-005	5.99601E-002	7.91822E-001	3.57920E+000	9	...........
	54	0.733333	7.99629E-001	1.00485E-004	0.00000E+000	8.03511E-005	5.99601E-002	7.99877E-001	3.57920E+000	9	...........
	55	0.746667	8.07484E-001	1.00413E-004	0.00000E+000	8.10815E-005	5.99601E-002	8.07770E-001	3.57920E+000	9	...........
	56	0.76	8.15224E-001	1.00585E-004	0.00000E+000	8.19997E-005	5.99601E-002	8.15490E-001	3.57920E+000	9	...........
	57	0.773333	8.22834E-001	1.00783E-004	0.00000E+000	8.29281E-005	5.99601E-002	8.23107E-001	3.57920E+000	9	...........
	58	0.786667	8.30251E-001	1.00443E-004	0.00000E+000	8.33927E-005	5.99601E-002	8.30577E-001	3.57920E+000	9	...........
	59	0.8	8.37572E-001	1.01587E-004	0.00000E+000	8.50862E-005	5.99601E-002	8.37884E-001	3.57920E+000	9	...........
	60	0.813333	8.44756E-001	1.01013E-004	0.00000E+000	8.53310E-005	5.99601E-002	8.45086E-001	3.57920E+000	9	...........
	61	0.826667	8.51804E-001	1.00471E-004	0.00000E+000	8.55815E-005	5.99601E-002	8.52156E-001	3.57920E+000	9	...........
	62	0.84	8.58730E-001	1.00778E-004	0.00000E+000	8.65413E-005	5.99601E-002	8.59088E-001	3.57920E+000	9	...........
	63	0.853333	8.65543E-001	1.00502E-004	0.00000E+000	8.69889E-005	5.99601E-002	8.65881E-001	3.57920E+000	9	...........
	64	0.866667	8.72229E-001	1.01675E-004	0.00000E+000	8.86841E-005	5.99601E-002	8.72579E-001	3.57920E+000	9	...........
	65	0.88	8.78770E-001	1.01044E-004	0.00000E+000	8.87943E-005	5.99601E-002	8.79129E-001	3.57920E+000	9	...........
	66	0.893333	8.85207E-001	1.00003E-004	0.00000E+000	8.85234E-005	5.99601E-002	8.85569E-001	3.57920E+000	9	...........
	67	0.906667	8.91528E-001	1.01047E-004	0.00000E+000	9.00863E-005	5.99601E-002	8.91867E-001	3.57920E+000	9	...........
	68	0.92	8.97718E-001	1.00470E-004	0.00000E+000	9.01936E-005	5.99601E-002	8.98062E-001	3.57920E+000	9	...........
	69	0.933333	9.03795E-001	1.01251E-004	0.00000E+000	9.15104E-005	5.99601E-002	9.04147E-001	3.57920E+000	9	...........
	70	0.946667	9.09785E-001	1.00377E-004	0.00000E+000	9.13216E-005	5.99601E-002	9.10113E-001	3.57920E+000	9	...........
	71	0.96	9.15635E-001	1.00998E-004	0.00000E+000	9.24773E-005	5.99601E-002	9.15988E-001	3.57920E+000	9	...........
	72	0.97333	9.21437E-001	1.00747E-004	0.00000E+000	9.28320E-005	5.99601E-002	9.21758E-001	3.57920E+000	9	...........
	73	0.98667	9.27090E-001	1.01616E-004	0.00000E+000	9.42071E-005	5.99601E-002	9.27418E-001	3.57920E+000	9	...........
	74	1	9.32612E-001	1.00575E-004	0.00000E+000	9.37975E-005	5.99601E-002	9.32953E-001	3.57920E+000	9	...........
	75	1.01333	9.38047E-001	9.98957E-005	0.00000E+000	9.37069E-005	5.99601E-002	9.38386E-001	3.57920E+000	9	...........
	76	1.02667	9.43346E-001	1.00573E-004	0.00000E+000	9.48751E-005	5.99601E-002	9.43690E-001	3.57920E+000	9	...........
	77	1.04	9.48600E-001	1.00842E-004	0.00000E+000	9.56585E-005	5.99601E-002	9.48906E-001	3.57920E+000	9	...........
	78	1.05333	9.53709E-001	1.00719E-004	0.00000E+000	9.60565E-005	5.99601E-002	9.53979E-001	3.57920E+000	9	...........
	79	1.06667	9.58715E-001	1.00292E-004	0.00000E+000	9.61511E-005	5.99601E-002	9.58985E-001	3.57920E+000	9	...........
	80	1.08	9.63598E-001	1.01133E-004	0.00000E+000	9.74520E-005	5.99601E-002	9.63900E-001	3.57920E+000	9	...........
	81	1.09333	9.68406E-001	9.99478E-005	0.00000E+000	9.67900E-005	5.99601E-002	9.68701E-001	3.57920E+000	9	...........
	82	1.10667	9.73139E-001	1.00022E-004	0.00000E+000	9.73351E-005	5.99601E-002	9.73431E-001	3.57920E+000	9	...........
	83	1.12	9.77757E-001	1.00455E-004	0.00000E+000	9.82208E-005	5.99601E-002	9.78060E-001	3.57920E+000	9	...........
	84	1.13333	9.82264E-001	1.01150E-004	0.00000E+000	9.93562E-005	5.99601E-002	9.82595E-001	3.57920E+000	9	...........
	85	1.14667	9.86690E-001	1.00834E-004	0.00000E+000	9.94924E-005	5.99601E-002	9.87021E-001	3.57920E+000	9	...........
	86	1.16	9.90978E-001	1.00410E-004	0.00000E+000	9.95045E-005	5.99601E-002	9.91345E-001	3.57920E+000	9	...........
	87	1.17333	9.95191E-001	1.00891E-004	0.00000E+000	1.00406E-004	5.99601E-002	9.95570E-001	3.57920E+000	9	...........
	88	1.18333	9.98866E-001	1.01302E-004	0.00000E+000	1.01187E-004	5.99601E-002	9.99231E-001	3.57920E+000	9	...........
STARTTIMEOFFSET	QUANT	2378.441	Start Time Offset (s)
