EXPLAIN
TAG	PWR800_CHARGE
TITLE	LABEL	PWR Cyclic Charge Discharge (Cell) - Charge Step	Test &Identifier
DATE	LABEL	13-7-2017	Date
TIME	LABEL	15:40:29	Time
NOTES	NOTES	2	&Notes...
	supercap test cell
	6M KOH
PSTAT	PSTAT	IFC5000-01520	Potentiostat
CAPACITY	QUANT	1.00000E-003	Capacity (A-hr)
CELLTYPE	SELECTOR	1	&Cell Type
WORKINGCONNECTION	SELECTOR	0	&Working Lead
MAXCHARGETIME	VARIABLEANDUNITS	1.00000E+002	s	1.00000E+002	second(s)	Max &Charge Time
CHARGECURRENT	QUANT	1.00000E-004	&Charge Current (A) 
VOLTAGEFINISH	TWOPARAM	F	1.00000E-003	3.60000E+003	&Voltage Finish	 I (A) < 	Max Time(s)
SAMPLETIME	QUANT	1.00000E-002	Sa&mple Period (s)
CHARGESTOPAT1	MULTIPARAM	4	1.00000E+000	Charge Stop At &1	Voltage > Limit	V
CHARGESTOPAT2	MULTIPARAM	0	0.00000E+000	Charge Stop At &2	None	N/A
AESBHCSELECTOR	TOGGLE	F	Save Both Half Cells
IRCOMP	TOGGLE	F	IR &Measure
EOC	QUANT	0	Open Circuit (V)
SEQUENCER	TOGGLE	TRUE	Run as Sequence
PSTATMODEL	IQUANT	53	Pstat Model
PSTATSECTION	LABEL	IFC5000-01520	Pstat Section
PSTATSERIALNO	LABEL	01520	Pstat Serial Number
CTRLMODE	IQUANT	0	Control Mode
ELECTROMETER	IQUANT	1	RE=0 or CS=1
IESTAB	IQUANT	0	I/E Stability
CASPEED	IQUANT	4	Control Amp Speed
CONVENTION	IQUANT	1	Current Convention
ICHRANGE	IQUANT	2	Ich Range
ICHRANGEMODE	TOGGLE	T	Ich Auto Range
ICHOFFSETENABLE	TOGGLE	F	Ich Offset Enable
ICHOFFSET	QUANT	0	Ich Offset (V)
ICHFILTER	IQUANT	1	Ich Filter
VCHRANGE	IQUANT	2	Vch Range
VCHRANGEMODE	TOGGLE	T	Vch Auto Range
VCHOFFSETENABLE	TOGGLE	F	Vch Offset Enable
VCHOFFSET	QUANT	0	Vch Offset (V)
VCHFILTER	IQUANT	1	Vch Filter
IERANGELOWERLIMIT	IQUANT	9	I/E Range Lower Limit
IERANGEMODE	TOGGLE	F	I/E AutoRange
IERANGE	IQUANT	9	I/E Range
ACHSELECT	IQUANT	1	Ach Select
ACHRANGE	IQUANT	2	Ach Range
ACHOFFSETENABLE	TOGGLE	F	Ach Offset Enable
ACHOFFSET	QUANT	0	Ach Offset (V)
ACHFILTER	IQUANT	1	Ach Filter
CABLEID	IQUANT	14	Cable ID
DCCALDATE	LABEL	5-7-2017	DC Calibration Date
ACCALDATE	LABEL	12/3/2015	AC Calibration Date
FRAMEWORKVERSION	QUANT	7.01	Framework Version
INSTRUMENTVERSION	LABEL	4.00	Instrument Version
CURVE	TABLE	91
	Pt	T	Vf	Im	Vu	Pwr	Sig	Ach	Temp	IERange	Over
	#	s	V	A	V	W	V	V	deg C	#	bits
	0	0.013333	1.33763E-001	1.01297E-004	0.00000E+000	1.35498E-005	5.99601E-002	1.33807E-001	3.57870E+000	9	...........
	1	0.026667	1.49061E-001	1.01157E-004	0.00000E+000	1.50786E-005	5.99601E-002	1.49082E-001	3.57870E+000	9	...........
	2	0.04	1.63913E-001	1.00595E-004	0.00000E+000	1.64888E-005	5.99601E-002	1.63942E-001	3.57900E+000	9	...........
	3	0.053333	1.78504E-001	1.01118E-004	0.00000E+000	1.80499E-005	5.99601E-002	1.78534E-001	3.57910E+000	9	...........
	4	0.066667	1.92894E-001	1.01553E-004	0.00000E+000	1.95891E-005	5.99601E-002	1.92926E-001	3.57910E+000	9	...........
	5	0.08	2.07152E-001	1.00429E-004	0.00000E+000	2.08041E-005	5.99601E-002	2.07182E-001	3.57910E+000	9	...........
	6	0.093333	2.21303E-001	1.00439E-004	0.00000E+000	2.22274E-005	5.99601E-002	2.21340E-001	3.57910E+000	9	...........
	7	0.106667	2.35392E-001	9.99801E-005	0.00000E+000	2.35346E-005	5.99601E-002	2.35426E-001	3.57910E+000	9	...........
	8	0.12	2.49430E-001	1.01128E-004	0.00000E+000	2.52245E-005	5.99601E-002	2.49474E-001	3.57910E+000	9	...........
	9	0.133333	2.63436E-001	1.01400E-004	0.00000E+000	2.67125E-005	5.99601E-002	2.63490E-001	3.57910E+000	9	...........
	10	0.146667	2.77442E-001	1.00644E-004	0.00000E+000	2.79228E-005	5.99601E-002	2.77496E-001	3.57910E+000	9	...........
	11	0.16	2.91449E-001	1.01403E-004	0.00000E+000	2.95540E-005	5.99601E-002	2.91502E-001	3.57910E+000	9	...........
	12	0.173333	3.05467E-001	1.00852E-004	0.00000E+000	3.08070E-005	5.99601E-002	3.05524E-001	3.57910E+000	9	...........
	13	0.186667	3.19501E-001	1.01125E-004	0.00000E+000	3.23096E-005	5.99601E-002	3.19561E-001	3.57910E+000	9	...........
	14	0.2	3.33566E-001	1.00883E-004	0.00000E+000	3.36513E-005	5.99601E-002	3.33630E-001	3.57910E+000	9	...........
	15	0.213333	3.47656E-001	1.00189E-004	0.00000E+000	3.48311E-005	5.99601E-002	3.47718E-001	3.57910E+000	9	...........
	16	0.226667	3.61766E-001	1.00592E-004	0.00000E+000	3.63906E-005	5.99601E-002	3.61831E-001	3.57910E+000	9	...........
	17	0.24	3.75893E-001	1.00265E-004	0.00000E+000	3.76888E-005	5.99601E-002	3.75962E-001	3.57910E+000	9	...........
	18	0.253333	3.90022E-001	1.00587E-004	0.00000E+000	3.92310E-005	5.99601E-002	3.90094E-001	3.57910E+000	9	...........
	19	0.266667	4.04150E-001	1.00547E-004	0.00000E+000	4.06360E-005	5.99601E-002	4.04219E-001	3.57910E+000	9	...........
	20	0.28	4.18244E-001	1.00021E-004	0.00000E+000	4.18331E-005	5.99601E-002	4.18323E-001	3.57910E+000	9	...........
	21	0.293333	4.32298E-001	1.01637E-004	0.00000E+000	4.39374E-005	5.99601E-002	4.32377E-001	3.57910E+000	9	...........
	22	0.306667	4.46291E-001	1.00346E-004	0.00000E+000	4.47835E-005	5.99601E-002	4.46378E-001	3.57910E+000	9	...........
	23	0.32	4.60193E-001	1.00538E-004	0.00000E+000	4.62667E-005	5.99601E-002	4.60285E-001	3.57910E+000	9	...........
	24	0.333333	4.73990E-001	1.00680E-004	0.00000E+000	4.77214E-005	5.99601E-002	4.74086E-001	3.57910E+000	9	...........
	25	0.346667	4.87658E-001	9.99489E-005	0.00000E+000	4.87409E-005	5.99601E-002	4.87757E-001	3.57910E+000	9	...........
	26	0.36	5.01172E-001	1.01103E-004	0.00000E+000	5.06701E-005	5.99601E-002	5.01274E-001	3.57910E+000	9	...........
	27	0.373333	5.14518E-001	1.01368E-004	0.00000E+000	5.21556E-005	5.99601E-002	5.14624E-001	3.57910E+000	9	...........
	28	0.386667	5.27673E-001	1.00963E-004	0.00000E+000	5.32753E-005	5.99601E-002	5.27786E-001	3.57910E+000	9	...........
	29	0.4	5.40267E-001	1.00662E-004	0.00000E+000	5.43841E-005	5.99601E-002	5.40519E-001	3.57910E+000	9	...........
	30	0.413333	5.53027E-001	1.00405E-004	0.00000E+000	5.55268E-005	5.99601E-002	5.53267E-001	3.57910E+000	9	...........
	31	0.426667	5.65567E-001	1.00471E-004	0.00000E+000	5.68230E-005	5.99601E-002	5.65811E-001	3.57910E+000	9	...........
	32	0.44	5.77866E-001	1.00874E-004	0.00000E+000	5.82917E-005	5.99601E-002	5.78132E-001	3.57910E+000	9	...........
	33	0.453333	5.89948E-001	1.00026E-004	0.00000E+000	5.90101E-005	5.99601E-002	5.90226E-001	3.57910E+000	9	...........
	34	0.466667	6.01788E-001	1.00327E-004	0.00000E+000	6.03756E-005	5.99601E-002	6.02067E-001	3.57910E+000	9	...........
	35	0.48	6.13438E-001	1.00912E-004	0.00000E+000	6.19030E-005	5.99601E-002	6.13712E-001	3.57910E+000	9	...........
	36	0.493333	6.24845E-001	1.01083E-004	0.00000E+000	6.31615E-005	5.99601E-002	6.25102E-001	3.57910E+000	9	...........
	37	0.506667	6.36009E-001	1.00430E-004	0.00000E+000	6.38745E-005	5.99601E-002	6.36258E-001	3.57910E+000	9	...........
	38	0.52	6.46953E-001	1.00742E-004	0.00000E+000	6.51752E-005	5.99601E-002	6.47203E-001	3.57910E+000	9	...........
	39	0.533333	6.57677E-001	1.00525E-004	0.00000E+000	6.61130E-005	5.99601E-002	6.57937E-001	3.57910E+000	9	...........
	40	0.546667	6.68186E-001	1.00729E-004	0.00000E+000	6.73059E-005	5.99601E-002	6.68450E-001	3.57910E+000	9	...........
	41	0.56	6.78475E-001	1.01354E-004	0.00000E+000	6.87664E-005	5.99601E-002	6.78777E-001	3.57910E+000	9	...........
	42	0.573333	6.88550E-001	1.00997E-004	0.00000E+000	6.95415E-005	5.99601E-002	6.88843E-001	3.57910E+000	9	...........
	43	0.586667	6.98441E-001	1.00082E-004	0.00000E+000	6.99015E-005	5.99601E-002	6.98722E-001	3.57910E+000	9	...........
	44	0.6	7.08101E-001	1.00706E-004	0.00000E+000	7.13102E-005	5.99601E-002	7.08401E-001	3.57910E+000	9	...........
	45	0.613333	7.17607E-001	1.01748E-004	0.00000E+000	7.30152E-005	5.99601E-002	7.17893E-001	3.57910E+000	9	...........
	46	0.626667	7.26918E-001	1.02142E-004	0.00000E+000	7.42488E-005	5.99601E-002	7.27219E-001	3.57910E+000	9	...........
	47	0.64	7.36000E-001	1.00231E-004	0.00000E+000	7.37702E-005	5.99601E-002	7.36303E-001	3.57910E+000	9	...........
	48	0.653333	7.44983E-001	1.00847E-004	0.00000E+000	7.51293E-005	5.99601E-002	7.45265E-001	3.57910E+000	9	...........
	49	0.666667	7.53727E-001	1.00762E-004	0.00000E+000	7.59467E-005	5.99601E-002	7.54024E-001	3.57910E+000	9	...........
	50	0.68	7.62339E-001	1.00403E-004	0.00000E+000	7.65413E-005	5.99601E-002	7.62634E-001	3.57910E+000	9	...........
	51	0.693333	7.70786E-001	1.01101E-004	0.00000E+000	7.79274E-005	5.99601E-002	7.71116E-001	3.57910E+000	9	...........
	52	0.706667	7.79051E-001	1.00991E-004	0.00000E+000	7.86769E-005	5.99601E-002	7.79372E-001	3.57910E+000	9	...........
	53	0.72	7.87157E-001	1.00701E-004	0.00000E+000	7.92676E-005	5.99601E-002	7.87447E-001	3.57910E+000	9	...........
	54	0.733333	7.95150E-001	1.00480E-004	0.00000E+000	7.98969E-005	5.99601E-002	7.95437E-001	3.57910E+000	9	...........
	55	0.746667	8.02947E-001	1.00976E-004	0.00000E+000	8.10785E-005	5.99601E-002	8.03252E-001	3.57910E+000	9	...........
	56	0.76	8.10602E-001	1.01234E-004	0.00000E+000	8.20601E-005	5.99601E-002	8.10901E-001	3.57910E+000	9	...........
	57	0.773333	8.18126E-001	1.01276E-004	0.00000E+000	8.28568E-005	5.99601E-002	8.18456E-001	3.57910E+000	9	...........
	58	0.786667	8.25517E-001	1.01512E-004	0.00000E+000	8.37996E-005	5.99601E-002	8.25837E-001	3.57910E+000	9	...........
	59	0.8	8.32743E-001	1.00526E-004	0.00000E+000	8.37124E-005	5.99601E-002	8.33070E-001	3.57910E+000	9	...........
	60	0.813333	8.39874E-001	1.00884E-004	0.00000E+000	8.47303E-005	5.99601E-002	8.40199E-001	3.57910E+000	9	...........
	61	0.826667	8.46877E-001	1.00381E-004	0.00000E+000	8.50106E-005	5.99601E-002	8.47213E-001	3.57910E+000	9	...........
	62	0.84	8.53748E-001	1.01521E-004	0.00000E+000	8.66734E-005	5.99601E-002	8.54073E-001	3.57910E+000	9	...........
	63	0.853333	8.60481E-001	1.00547E-004	0.00000E+000	8.65187E-005	5.99601E-002	8.60814E-001	3.57910E+000	9	...........
	64	0.866667	8.67098E-001	1.00472E-004	0.00000E+000	8.71190E-005	5.99601E-002	8.67443E-001	3.57910E+000	9	...........
	65	0.88	8.73644E-001	1.01512E-004	0.00000E+000	8.86851E-005	5.99601E-002	8.73967E-001	3.57910E+000	9	...........
	66	0.893333	8.80008E-001	1.01328E-004	0.00000E+000	8.91697E-005	5.99601E-002	8.80367E-001	3.57910E+000	9	...........
	67	0.906667	8.86300E-001	1.00861E-004	0.00000E+000	8.93927E-005	5.99601E-002	8.86644E-001	3.57910E+000	9	...........
	68	0.92	8.92431E-001	1.00953E-004	0.00000E+000	9.00938E-005	5.99601E-002	8.92793E-001	3.57910E+000	9	...........
	69	0.933333	8.98505E-001	1.00424E-004	0.00000E+000	9.02314E-005	5.99601E-002	8.98869E-001	3.57910E+000	9	...........
	70	0.946667	9.04421E-001	1.00300E-004	0.00000E+000	9.07134E-005	5.99601E-002	9.04818E-001	3.57910E+000	9	...........
	71	0.96	9.10295E-001	1.00660E-004	0.00000E+000	9.16308E-005	5.99601E-002	9.10635E-001	3.57910E+000	9	...........
	72	0.97333	9.16006E-001	1.00398E-004	0.00000E+000	9.19651E-005	5.99601E-002	9.16383E-001	3.57910E+000	9	...........
	73	0.98667	9.21670E-001	1.01103E-004	0.00000E+000	9.31838E-005	5.99601E-002	9.21995E-001	3.57910E+000	9	...........
	74	1	9.27193E-001	1.00864E-004	0.00000E+000	9.35201E-005	5.99601E-002	9.27503E-001	3.57910E+000	9	...........
	75	1.01333	9.32597E-001	1.00980E-004	0.00000E+000	9.41740E-005	5.99601E-002	9.32915E-001	3.57910E+000	9	...........
	76	1.02667	9.37918E-001	1.00925E-004	0.00000E+000	9.46595E-005	5.99601E-002	9.38233E-001	3.57910E+000	9	...........
	77	1.04	9.43119E-001	1.01131E-004	0.00000E+000	9.53789E-005	5.99601E-002	9.43420E-001	3.57895E+000	9	...........
	78	1.05333	9.48246E-001	1.00948E-004	0.00000E+000	9.57235E-005	5.99601E-002	9.48574E-001	3.57890E+000	9	...........
	79	1.06667	9.53240E-001	1.01604E-004	0.00000E+000	9.68534E-005	5.99601E-002	9.53545E-001	3.57890E+000	9	...........
	80	1.08	9.58158E-001	1.00771E-004	0.00000E+000	9.65545E-005	5.99601E-002	9.58468E-001	3.57890E+000	9	...........
	81	1.09333	9.62942E-001	1.01130E-004	0.00000E+000	9.73827E-005	5.99601E-002	9.63293E-001	3.57890E+000	9	...........
	82	1.10667	9.67679E-001	1.01350E-004	0.00000E+000	9.80745E-005	5.99601E-002	9.67975E-001	3.57890E+000	9	...........
	83	1.12	9.72302E-001	1.00842E-004	0.00000E+000	9.80487E-005	5.99601E-002	9.72639E-001	3.57890E+000	9	...........
	84	1.13333	9.76834E-001	1.00907E-004	0.00000E+000	9.85698E-005	5.99601E-002	9.77159E-001	3.57890E+000	9	...........
	85	1.14667	9.81255E-001	1.00115E-004	0.00000E+000	9.82379E-005	5.99601E-002	9.81588E-001	3.57890E+000	9	...........
	86	1.16	9.85581E-001	1.01232E-004	0.00000E+000	9.97728E-005	5.99601E-002	9.85947E-001	3.57890E+000	9	...........
	87	1.17333	9.89840E-001	1.00712E-004	0.00000E+000	9.96883E-005	5.99601E-002	9.90174E-001	3.57890E+000	9	...........
	88	1.18667	9.93968E-001	1.00774E-004	0.00000E+000	1.00166E-004	5.99601E-002	9.94315E-001	3.57890E+000	9	...........
	89	1.2	9.98053E-001	1.01115E-004	0.00000E+000	1.00918E-004	5.99601E-002	9.98396E-001	3.57890E+000	9	...........
	90	1.20167	1.00032E+000	9.95227E-005	0.00000E+000	9.95542E-005	5.99601E-002	1.00066E+000	3.57890E+000	9	...........
STARTTIMEOFFSET	QUANT	1739.42	Start Time Offset (s)
