EXPLAIN
TAG	PWR800_CHARGE
TITLE	LABEL	PWR Cyclic Charge Discharge (Cell) - Charge Step	Test &Identifier
DATE	LABEL	13-7-2017	Date
TIME	LABEL	15:17:15	Time
NOTES	NOTES	2	&Notes...
	supercap test cell
	6M KOH
PSTAT	PSTAT	IFC5000-01520	Potentiostat
CAPACITY	QUANT	1.00000E-003	Capacity (A-hr)
CELLTYPE	SELECTOR	1	&Cell Type
WORKINGCONNECTION	SELECTOR	0	&Working Lead
MAXCHARGETIME	VARIABLEANDUNITS	1.00000E+002	s	1.00000E+002	second(s)	Max &Charge Time
CHARGECURRENT	QUANT	1.00000E-004	&Charge Current (A) 
VOLTAGEFINISH	TWOPARAM	F	1.00000E-003	3.60000E+003	&Voltage Finish	 I (A) < 	Max Time(s)
SAMPLETIME	QUANT	1.00000E-002	Sa&mple Period (s)
CHARGESTOPAT1	MULTIPARAM	4	1.00000E+000	Charge Stop At &1	Voltage > Limit	V
CHARGESTOPAT2	MULTIPARAM	0	0.00000E+000	Charge Stop At &2	None	N/A
AESBHCSELECTOR	TOGGLE	F	Save Both Half Cells
IRCOMP	TOGGLE	F	IR &Measure
EOC	QUANT	0	Open Circuit (V)
SEQUENCER	TOGGLE	TRUE	Run as Sequence
PSTATMODEL	IQUANT	53	Pstat Model
PSTATSECTION	LABEL	IFC5000-01520	Pstat Section
PSTATSERIALNO	LABEL	01520	Pstat Serial Number
CTRLMODE	IQUANT	0	Control Mode
ELECTROMETER	IQUANT	1	RE=0 or CS=1
IESTAB	IQUANT	0	I/E Stability
CASPEED	IQUANT	4	Control Amp Speed
CONVENTION	IQUANT	1	Current Convention
ICHRANGE	IQUANT	2	Ich Range
ICHRANGEMODE	TOGGLE	T	Ich Auto Range
ICHOFFSETENABLE	TOGGLE	F	Ich Offset Enable
ICHOFFSET	QUANT	0	Ich Offset (V)
ICHFILTER	IQUANT	1	Ich Filter
VCHRANGE	IQUANT	2	Vch Range
VCHRANGEMODE	TOGGLE	T	Vch Auto Range
VCHOFFSETENABLE	TOGGLE	F	Vch Offset Enable
VCHOFFSET	QUANT	0	Vch Offset (V)
VCHFILTER	IQUANT	1	Vch Filter
IERANGELOWERLIMIT	IQUANT	9	I/E Range Lower Limit
IERANGEMODE	TOGGLE	F	I/E AutoRange
IERANGE	IQUANT	9	I/E Range
ACHSELECT	IQUANT	1	Ach Select
ACHRANGE	IQUANT	2	Ach Range
ACHOFFSETENABLE	TOGGLE	F	Ach Offset Enable
ACHOFFSET	QUANT	0	Ach Offset (V)
ACHFILTER	IQUANT	1	Ach Filter
CABLEID	IQUANT	14	Cable ID
DCCALDATE	LABEL	5-7-2017	DC Calibration Date
ACCALDATE	LABEL	12/3/2015	AC Calibration Date
FRAMEWORKVERSION	QUANT	7.01	Framework Version
INSTRUMENTVERSION	LABEL	4.00	Instrument Version
CURVE	TABLE	95
	Pt	T	Vf	Im	Vu	Pwr	Sig	Ach	Temp	IERange	Over
	#	s	V	A	V	W	V	V	deg C	#	bits
	0	0.013333	1.33138E-001	1.00792E-004	0.00000E+000	1.34192E-005	5.99601E-002	1.33181E-001	3.58010E+000	9	...........
	1	0.026667	1.48350E-001	1.00237E-004	0.00000E+000	1.48703E-005	5.99601E-002	1.48363E-001	3.58010E+000	9	...........
	2	0.04	1.63117E-001	1.00468E-004	0.00000E+000	1.63880E-005	5.99601E-002	1.63145E-001	3.58010E+000	9	...........
	3	0.053333	1.77624E-001	1.01628E-004	0.00000E+000	1.80517E-005	5.99601E-002	1.77650E-001	3.58010E+000	9	...........
	4	0.066667	1.91931E-001	1.00781E-004	0.00000E+000	1.93431E-005	5.99601E-002	1.91967E-001	3.58010E+000	9	...........
	5	0.08	2.06095E-001	1.00759E-004	0.00000E+000	2.07661E-005	5.99601E-002	2.06135E-001	3.58010E+000	9	...........
	6	0.093333	2.20160E-001	1.00491E-004	0.00000E+000	2.21240E-005	5.99601E-002	2.20198E-001	3.58010E+000	9	...........
	7	0.106667	2.34151E-001	1.01262E-004	0.00000E+000	2.37105E-005	5.99601E-002	2.34187E-001	3.57960E+000	9	...........
	8	0.12	2.48091E-001	1.01011E-004	0.00000E+000	2.50598E-005	5.99601E-002	2.48139E-001	3.57960E+000	9	...........
	9	0.133333	2.62001E-001	1.01264E-004	0.00000E+000	2.65312E-005	5.99601E-002	2.62048E-001	3.57960E+000	9	...........
	10	0.146667	2.75888E-001	1.00714E-004	0.00000E+000	2.77857E-005	5.99601E-002	2.75941E-001	3.57960E+000	9	...........
	11	0.16	2.89766E-001	1.01303E-004	0.00000E+000	2.93543E-005	5.99601E-002	2.89825E-001	3.57960E+000	9	...........
	12	0.173333	3.03649E-001	1.00952E-004	0.00000E+000	3.06540E-005	5.99601E-002	3.03706E-001	3.57960E+000	9	...........
	13	0.186667	3.17536E-001	1.00792E-004	0.00000E+000	3.20050E-005	5.99601E-002	3.17603E-001	3.57960E+000	9	...........
	14	0.2	3.31432E-001	1.02060E-004	0.00000E+000	3.38258E-005	5.99601E-002	3.31497E-001	3.57960E+000	9	...........
	15	0.213333	3.45335E-001	1.00195E-004	0.00000E+000	3.46007E-005	5.99601E-002	3.45396E-001	3.57960E+000	9	...........
	16	0.226667	3.59240E-001	1.01368E-004	0.00000E+000	3.64155E-005	5.99601E-002	3.59315E-001	3.57960E+000	9	...........
	17	0.24	3.73147E-001	1.00920E-004	0.00000E+000	3.76580E-005	5.99601E-002	3.73225E-001	3.57960E+000	9	...........
	18	0.253333	3.87039E-001	9.99728E-005	0.00000E+000	3.86934E-005	5.99601E-002	3.87112E-001	3.57960E+000	9	...........
	19	0.266667	4.00906E-001	1.01016E-004	0.00000E+000	4.04978E-005	5.99601E-002	4.00979E-001	3.57960E+000	9	...........
	20	0.28	4.14716E-001	1.00410E-004	0.00000E+000	4.16418E-005	5.99601E-002	4.14799E-001	3.57960E+000	9	...........
	21	0.293333	4.28467E-001	1.00554E-004	0.00000E+000	4.30842E-005	5.99601E-002	4.28562E-001	3.57960E+000	9	...........
	22	0.306667	4.42146E-001	1.01340E-004	0.00000E+000	4.48070E-005	5.99601E-002	4.42232E-001	3.57960E+000	9	...........
	23	0.32	4.55711E-001	1.00324E-004	0.00000E+000	4.57187E-005	5.99601E-002	4.55804E-001	3.57960E+000	9	...........
	24	0.333333	4.69157E-001	1.00511E-004	0.00000E+000	4.71556E-005	5.99601E-002	4.69258E-001	3.57960E+000	9	...........
	25	0.346667	4.82467E-001	1.01019E-004	0.00000E+000	4.87383E-005	5.99601E-002	4.82567E-001	3.57960E+000	9	...........
	26	0.36	4.95607E-001	1.01128E-004	0.00000E+000	5.01199E-005	5.99601E-002	4.95717E-001	3.57960E+000	9	...........
	27	0.373333	5.08581E-001	1.00896E-004	0.00000E+000	5.13137E-005	5.99601E-002	5.08687E-001	3.57960E+000	9	...........
	28	0.386667	5.21360E-001	1.01116E-004	0.00000E+000	5.27177E-005	5.99601E-002	5.21480E-001	3.57960E+000	9	...........
	29	0.4	5.33752E-001	1.00764E-004	0.00000E+000	5.37828E-005	5.99601E-002	5.33956E-001	3.57960E+000	9	...........
	30	0.413333	5.45967E-001	1.00312E-004	0.00000E+000	5.47673E-005	5.99601E-002	5.46250E-001	3.57960E+000	9	...........
	31	0.426667	5.58094E-001	1.00740E-004	0.00000E+000	5.62222E-005	5.99601E-002	5.58400E-001	3.57960E+000	9	...........
	32	0.44	5.70071E-001	1.01422E-004	0.00000E+000	5.78178E-005	5.99601E-002	5.70320E-001	3.57960E+000	9	...........
	33	0.453333	5.81741E-001	1.01644E-004	0.00000E+000	5.91305E-005	5.99601E-002	5.82040E-001	3.57960E+000	9	...........
	34	0.466667	5.93246E-001	1.01964E-004	0.00000E+000	6.04896E-005	5.99601E-002	5.93551E-001	3.57960E+000	9	...........
	35	0.48	6.04502E-001	1.00602E-004	0.00000E+000	6.08142E-005	5.99601E-002	6.04802E-001	3.57960E+000	9	...........
	36	0.493333	6.15561E-001	1.01292E-004	0.00000E+000	6.23514E-005	5.99601E-002	6.15868E-001	3.57960E+000	9	...........
	37	0.506667	6.26403E-001	1.00870E-004	0.00000E+000	6.31852E-005	5.99601E-002	6.26692E-001	3.57960E+000	9	...........
	38	0.52	6.37012E-001	1.00397E-004	0.00000E+000	6.39540E-005	5.99601E-002	6.37293E-001	3.57960E+000	9	...........
	39	0.533333	6.47424E-001	1.01175E-004	0.00000E+000	6.55033E-005	5.99601E-002	6.47677E-001	3.57960E+000	9	...........
	40	0.546667	6.57611E-001	1.01187E-004	0.00000E+000	6.65414E-005	5.99601E-002	6.57843E-001	3.57960E+000	9	...........
	41	0.56	6.67611E-001	1.00867E-004	0.00000E+000	6.73397E-005	5.99601E-002	6.67832E-001	3.57960E+000	9	...........
	42	0.573333	6.77387E-001	1.01191E-004	0.00000E+000	6.85453E-005	5.99601E-002	6.77610E-001	3.57960E+000	9	...........
	43	0.586667	6.86975E-001	1.00869E-004	0.00000E+000	6.92944E-005	5.99601E-002	6.87203E-001	3.57960E+000	9	...........
	44	0.6	6.96409E-001	1.00300E-004	0.00000E+000	6.98498E-005	5.99601E-002	6.96629E-001	3.57960E+000	9	...........
	45	0.613333	7.05602E-001	1.00365E-004	0.00000E+000	7.08175E-005	5.99601E-002	7.05850E-001	3.57960E+000	9	...........
	46	0.626667	7.14637E-001	1.00909E-004	0.00000E+000	7.21136E-005	5.99601E-002	7.14898E-001	3.57960E+000	9	...........
	47	0.64	7.23516E-001	1.00377E-004	0.00000E+000	7.26245E-005	5.99601E-002	7.23769E-001	3.57960E+000	9	...........
	48	0.653333	7.32206E-001	1.00833E-004	0.00000E+000	7.38308E-005	5.99601E-002	7.32476E-001	3.57960E+000	9	...........
	49	0.666667	7.40733E-001	9.98020E-005	0.00000E+000	7.39266E-005	5.99601E-002	7.41005E-001	3.57960E+000	9	...........
	50	0.68	7.49113E-001	1.01253E-004	0.00000E+000	7.58502E-005	5.99601E-002	7.49389E-001	3.57960E+000	9	...........
	51	0.693333	7.57319E-001	1.00868E-004	0.00000E+000	7.63891E-005	5.99601E-002	7.57577E-001	3.57960E+000	9	...........
	52	0.706667	7.65363E-001	1.00300E-004	0.00000E+000	7.67659E-005	5.99601E-002	7.65652E-001	3.57960E+000	9	...........
	53	0.72	7.73261E-001	1.00242E-004	0.00000E+000	7.75130E-005	5.99601E-002	7.73566E-001	3.57960E+000	9	...........
	54	0.733333	7.81033E-001	1.00870E-004	0.00000E+000	7.87827E-005	5.99601E-002	7.81337E-001	3.57960E+000	9	...........
	55	0.746667	7.88619E-001	1.00936E-004	0.00000E+000	7.95997E-005	5.99601E-002	7.88921E-001	3.57960E+000	9	...........
	56	0.76	7.96111E-001	1.00744E-004	0.00000E+000	8.02032E-005	5.99601E-002	7.96427E-001	3.57960E+000	9	...........
	57	0.773333	8.03457E-001	1.01387E-004	0.00000E+000	8.14598E-005	5.99601E-002	8.03791E-001	3.57960E+000	9	...........
	58	0.786667	8.10635E-001	1.01294E-004	0.00000E+000	8.21124E-005	5.99601E-002	8.10965E-001	3.57960E+000	9	...........
	59	0.8	8.17740E-001	1.00698E-004	0.00000E+000	8.23448E-005	5.99601E-002	8.18077E-001	3.57960E+000	9	...........
	60	0.813333	8.24701E-001	1.00549E-004	0.00000E+000	8.29229E-005	5.99601E-002	8.25038E-001	3.57960E+000	9	...........
	61	0.826667	8.31514E-001	9.98103E-005	0.00000E+000	8.29936E-005	5.99601E-002	8.31853E-001	3.57960E+000	9	...........
	62	0.84	8.38214E-001	1.00406E-004	0.00000E+000	8.41619E-005	5.99601E-002	8.38573E-001	3.57960E+000	9	...........
	63	0.853333	8.44845E-001	1.01339E-004	0.00000E+000	8.56155E-005	5.99601E-002	8.45197E-001	3.57960E+000	9	...........
	64	0.866667	8.51340E-001	1.00252E-004	0.00000E+000	8.53486E-005	5.99601E-002	8.51708E-001	3.57960E+000	9	...........
	65	0.88	8.57712E-001	1.00211E-004	0.00000E+000	8.59526E-005	5.99601E-002	8.58114E-001	3.57960E+000	9	...........
	66	0.893333	8.63963E-001	9.99197E-005	0.00000E+000	8.63269E-005	5.99601E-002	8.64359E-001	3.57960E+000	9	...........
	67	0.906667	8.70157E-001	1.00285E-004	0.00000E+000	8.72640E-005	5.99601E-002	8.70522E-001	3.57960E+000	9	...........
	68	0.92	8.76170E-001	1.00407E-004	0.00000E+000	8.79739E-005	5.99601E-002	8.76564E-001	3.57960E+000	9	...........
	69	0.933333	8.82137E-001	1.00584E-004	0.00000E+000	8.87293E-005	5.99601E-002	8.82508E-001	3.57960E+000	9	...........
	70	0.946667	8.87962E-001	1.00135E-004	0.00000E+000	8.89164E-005	5.99601E-002	8.88353E-001	3.57960E+000	9	...........
	71	0.96	8.93726E-001	1.00850E-004	0.00000E+000	9.01323E-005	5.99601E-002	8.94098E-001	3.57960E+000	9	...........
	72	0.97333	8.99376E-001	1.01917E-004	0.00000E+000	9.16617E-005	5.99601E-002	8.99743E-001	3.57960E+000	9	...........
	73	0.98667	9.04911E-001	1.00261E-004	0.00000E+000	9.07277E-005	5.99601E-002	9.05318E-001	3.57960E+000	9	...........
	74	1	9.10405E-001	1.01139E-004	0.00000E+000	9.20772E-005	5.99601E-002	9.10753E-001	3.57960E+000	9	...........
	75	1.01333	9.15741E-001	1.00470E-004	0.00000E+000	9.20043E-005	5.99601E-002	9.16122E-001	3.57960E+000	9	...........
	76	1.02667	9.21041E-001	1.00789E-004	0.00000E+000	9.28304E-005	5.99601E-002	9.21399E-001	3.57960E+000	9	...........
	77	1.04	9.26238E-001	1.01566E-004	0.00000E+000	9.40741E-005	5.99601E-002	9.26585E-001	3.57960E+000	9	...........
	78	1.05333	9.31327E-001	1.00890E-004	0.00000E+000	9.39613E-005	5.99601E-002	9.31670E-001	3.57960E+000	9	...........
	79	1.06667	9.36297E-001	1.01227E-004	0.00000E+000	9.47788E-005	5.99601E-002	9.36680E-001	3.57960E+000	9	...........
	80	1.08	9.41197E-001	1.01341E-004	0.00000E+000	9.53817E-005	5.99601E-002	9.41576E-001	3.57960E+000	9	...........
	81	1.09333	9.46000E-001	1.00622E-004	0.00000E+000	9.51883E-005	5.99601E-002	9.46374E-001	3.57960E+000	9	...........
	82	1.10667	9.50743E-001	1.01640E-004	0.00000E+000	9.66334E-005	5.99601E-002	9.51086E-001	3.57990E+000	9	...........
	83	1.12	9.55355E-001	1.01201E-004	0.00000E+000	9.66830E-005	5.99601E-002	9.55719E-001	3.57990E+000	9	...........
	84	1.13333	9.59902E-001	1.00745E-004	0.00000E+000	9.67053E-005	5.99601E-002	9.60253E-001	3.57990E+000	9	...........
	85	1.14667	9.64333E-001	1.00866E-004	0.00000E+000	9.72681E-005	5.99601E-002	9.64719E-001	3.57990E+000	9	...........
	86	1.16	9.68699E-001	1.00008E-004	0.00000E+000	9.68779E-005	5.99601E-002	9.69090E-001	3.57990E+000	9	...........
	87	1.17333	9.73016E-001	1.01209E-004	0.00000E+000	9.84775E-005	5.99601E-002	9.73380E-001	3.57990E+000	9	...........
	88	1.18667	9.77231E-001	1.01579E-004	0.00000E+000	9.92666E-005	5.99601E-002	9.77578E-001	3.57990E+000	9	...........
	89	1.2	9.81333E-001	1.01691E-004	0.00000E+000	9.97926E-005	5.99601E-002	9.81687E-001	3.57990E+000	9	...........
	90	1.21333	9.85346E-001	1.00122E-004	0.00000E+000	9.86546E-005	5.99601E-002	9.85715E-001	3.57990E+000	9	...........
	91	1.22667	9.89315E-001	1.00817E-004	0.00000E+000	9.97395E-005	5.99601E-002	9.89661E-001	3.57990E+000	9	...........
	92	1.24	9.93154E-001	1.00841E-004	0.00000E+000	1.00150E-004	5.99601E-002	9.93517E-001	3.57990E+000	9	...........
	93	1.25333	9.96935E-001	1.00083E-004	0.00000E+000	9.97765E-005	5.99601E-002	9.97334E-001	3.57990E+000	9	...........
	94	1.26	9.99728E-001	1.01675E-004	0.00000E+000	1.01648E-004	5.99601E-002	1.00012E+000	3.57990E+000	9	...........
STARTTIMEOFFSET	QUANT	688.6175	Start Time Offset (s)
