EXPLAIN
TAG	PWR800_CHARGE
TITLE	LABEL	PWR Cyclic Charge Discharge (Cell) - Charge Step	Test &Identifier
DATE	LABEL	13-7-2017	Date
TIME	LABEL	15:12:05	Time
NOTES	NOTES	2	&Notes...
	supercap test cell
	6M KOH
PSTAT	PSTAT	IFC5000-01520	Potentiostat
CAPACITY	QUANT	1.00000E-003	Capacity (A-hr)
CELLTYPE	SELECTOR	1	&Cell Type
WORKINGCONNECTION	SELECTOR	0	&Working Lead
MAXCHARGETIME	VARIABLEANDUNITS	1.00000E+002	s	1.00000E+002	second(s)	Max &Charge Time
CHARGECURRENT	QUANT	1.00000E-004	&Charge Current (A) 
VOLTAGEFINISH	TWOPARAM	F	1.00000E-003	3.60000E+003	&Voltage Finish	 I (A) < 	Max Time(s)
SAMPLETIME	QUANT	1.00000E-002	Sa&mple Period (s)
CHARGESTOPAT1	MULTIPARAM	4	1.00000E+000	Charge Stop At &1	Voltage > Limit	V
CHARGESTOPAT2	MULTIPARAM	0	0.00000E+000	Charge Stop At &2	None	N/A
AESBHCSELECTOR	TOGGLE	F	Save Both Half Cells
IRCOMP	TOGGLE	F	IR &Measure
EOC	QUANT	0	Open Circuit (V)
SEQUENCER	TOGGLE	TRUE	Run as Sequence
PSTATMODEL	IQUANT	53	Pstat Model
PSTATSECTION	LABEL	IFC5000-01520	Pstat Section
PSTATSERIALNO	LABEL	01520	Pstat Serial Number
CTRLMODE	IQUANT	0	Control Mode
ELECTROMETER	IQUANT	1	RE=0 or CS=1
IESTAB	IQUANT	0	I/E Stability
CASPEED	IQUANT	4	Control Amp Speed
CONVENTION	IQUANT	1	Current Convention
ICHRANGE	IQUANT	2	Ich Range
ICHRANGEMODE	TOGGLE	T	Ich Auto Range
ICHOFFSETENABLE	TOGGLE	F	Ich Offset Enable
ICHOFFSET	QUANT	0	Ich Offset (V)
ICHFILTER	IQUANT	1	Ich Filter
VCHRANGE	IQUANT	2	Vch Range
VCHRANGEMODE	TOGGLE	T	Vch Auto Range
VCHOFFSETENABLE	TOGGLE	F	Vch Offset Enable
VCHOFFSET	QUANT	0	Vch Offset (V)
VCHFILTER	IQUANT	1	Vch Filter
IERANGELOWERLIMIT	IQUANT	9	I/E Range Lower Limit
IERANGEMODE	TOGGLE	F	I/E AutoRange
IERANGE	IQUANT	9	I/E Range
ACHSELECT	IQUANT	1	Ach Select
ACHRANGE	IQUANT	2	Ach Range
ACHOFFSETENABLE	TOGGLE	F	Ach Offset Enable
ACHOFFSET	QUANT	0	Ach Offset (V)
ACHFILTER	IQUANT	1	Ach Filter
CABLEID	IQUANT	14	Cable ID
DCCALDATE	LABEL	5-7-2017	DC Calibration Date
ACCALDATE	LABEL	12/3/2015	AC Calibration Date
FRAMEWORKVERSION	QUANT	7.01	Framework Version
INSTRUMENTVERSION	LABEL	4.00	Instrument Version
CURVE	TABLE	97
	Pt	T	Vf	Im	Vu	Pwr	Sig	Ach	Temp	IERange	Over
	#	s	V	A	V	W	V	V	deg C	#	bits
	0	0.013333	1.32479E-001	1.00569E-004	0.00000E+000	1.33233E-005	5.99601E-002	1.32515E-001	3.57970E+000	9	...........
	1	0.026667	1.47695E-001	1.00964E-004	0.00000E+000	1.49118E-005	5.99601E-002	1.47714E-001	3.57970E+000	9	...........
	2	0.04	1.62474E-001	1.00823E-004	0.00000E+000	1.63812E-005	5.99601E-002	1.62500E-001	3.57970E+000	9	...........
	3	0.053333	1.76986E-001	1.00989E-004	0.00000E+000	1.78736E-005	5.99601E-002	1.77011E-001	3.57970E+000	9	...........
	4	0.066667	1.91304E-001	1.00705E-004	0.00000E+000	1.92653E-005	5.99601E-002	1.91336E-001	3.57970E+000	9	...........
	5	0.08	2.05473E-001	1.00863E-004	0.00000E+000	2.07246E-005	5.99601E-002	2.05508E-001	3.57970E+000	9	...........
	6	0.093333	2.19537E-001	1.01030E-004	0.00000E+000	2.21799E-005	5.99601E-002	2.19577E-001	3.57970E+000	9	...........
	7	0.106667	2.33524E-001	1.01472E-004	0.00000E+000	2.36962E-005	5.99601E-002	2.33562E-001	3.57970E+000	9	...........
	8	0.12	2.47451E-001	1.01888E-004	0.00000E+000	2.52123E-005	5.99601E-002	2.47497E-001	3.57970E+000	9	...........
	9	0.133333	2.61348E-001	1.00496E-004	0.00000E+000	2.62644E-005	5.99601E-002	2.61393E-001	3.57970E+000	9	...........
	10	0.146667	2.75221E-001	1.01250E-004	0.00000E+000	2.78661E-005	5.99601E-002	2.75273E-001	3.57970E+000	9	...........
	11	0.16	2.89081E-001	1.00303E-004	0.00000E+000	2.89958E-005	5.99601E-002	2.89136E-001	3.57970E+000	9	...........
	12	0.173333	3.02933E-001	1.00664E-004	0.00000E+000	3.04944E-005	5.99601E-002	3.02990E-001	3.57970E+000	9	...........
	13	0.186667	3.16792E-001	1.01242E-004	0.00000E+000	3.20726E-005	5.99601E-002	3.16858E-001	3.57970E+000	9	...........
	14	0.2	3.30647E-001	1.01008E-004	0.00000E+000	3.33981E-005	5.99601E-002	3.30710E-001	3.57970E+000	9	...........
	15	0.213333	3.44503E-001	1.00305E-004	0.00000E+000	3.45555E-005	5.99601E-002	3.44571E-001	3.57970E+000	9	...........
	16	0.226667	3.58359E-001	1.00147E-004	0.00000E+000	3.58885E-005	5.99601E-002	3.58431E-001	3.57970E+000	9	...........
	17	0.24	3.72205E-001	1.00738E-004	0.00000E+000	3.74951E-005	5.99601E-002	3.72278E-001	3.57970E+000	9	...........
	18	0.253333	3.86024E-001	1.00796E-004	0.00000E+000	3.89096E-005	5.99601E-002	3.86101E-001	3.57970E+000	9	...........
	19	0.266667	3.99805E-001	1.00853E-004	0.00000E+000	4.03216E-005	5.99601E-002	3.99883E-001	3.57970E+000	9	...........
	20	0.28	4.13529E-001	1.01737E-004	0.00000E+000	4.20711E-005	5.99601E-002	4.13611E-001	3.57970E+000	9	...........
	21	0.293333	4.27182E-001	1.01135E-004	0.00000E+000	4.32029E-005	5.99601E-002	4.27273E-001	3.57970E+000	9	...........
	22	0.306667	4.40750E-001	1.00746E-004	0.00000E+000	4.44037E-005	5.99601E-002	4.40840E-001	3.57970E+000	9	...........
	23	0.32	4.54208E-001	1.00807E-004	0.00000E+000	4.57875E-005	5.99601E-002	4.54300E-001	3.57970E+000	9	...........
	24	0.333333	4.67528E-001	1.00572E-004	0.00000E+000	4.70202E-005	5.99601E-002	4.67632E-001	3.57970E+000	9	...........
	25	0.346667	4.80711E-001	1.00945E-004	0.00000E+000	4.85253E-005	5.99601E-002	4.80807E-001	3.57970E+000	9	...........
	26	0.36	4.93730E-001	1.01237E-004	0.00000E+000	4.99835E-005	5.99601E-002	4.93830E-001	3.57970E+000	9	...........
	27	0.373333	5.06573E-001	1.00664E-004	0.00000E+000	5.09934E-005	5.99601E-002	5.06675E-001	3.57970E+000	9	...........
	28	0.386667	5.19217E-001	1.00609E-004	0.00000E+000	5.22381E-005	5.99601E-002	5.19323E-001	3.57970E+000	9	...........
	29	0.4	5.31556E-001	1.00493E-004	0.00000E+000	5.34176E-005	5.99601E-002	5.31703E-001	3.57970E+000	9	...........
	30	0.413333	5.43507E-001	1.01519E-004	0.00000E+000	5.51763E-005	5.99601E-002	5.43771E-001	3.57970E+000	9	...........
	31	0.426667	5.55544E-001	1.01133E-004	0.00000E+000	5.61841E-005	5.99601E-002	5.55780E-001	3.57970E+000	9	...........
	32	0.44	5.67349E-001	1.00454E-004	0.00000E+000	5.69925E-005	5.99601E-002	5.67612E-001	3.57970E+000	9	...........
	33	0.453333	5.78909E-001	1.01082E-004	0.00000E+000	5.85176E-005	5.99601E-002	5.79207E-001	3.57970E+000	9	...........
	34	0.466667	5.90278E-001	1.00564E-004	0.00000E+000	5.93605E-005	5.99601E-002	5.90573E-001	3.57970E+000	9	...........
	35	0.48	6.01412E-001	1.01411E-004	0.00000E+000	6.09896E-005	5.99601E-002	6.01735E-001	3.57970E+000	9	...........
	36	0.493333	6.12343E-001	1.01303E-004	0.00000E+000	6.20324E-005	5.99601E-002	6.12650E-001	3.57970E+000	9	...........
	37	0.506667	6.23050E-001	1.00495E-004	0.00000E+000	6.26133E-005	5.99601E-002	6.23327E-001	3.57970E+000	9	...........
	38	0.52	6.33518E-001	1.00862E-004	0.00000E+000	6.38976E-005	5.99601E-002	6.33777E-001	3.57970E+000	9	...........
	39	0.533333	6.43834E-001	1.00868E-004	0.00000E+000	6.49422E-005	5.99601E-002	6.44076E-001	3.57970E+000	9	...........
	40	0.546667	6.53907E-001	1.00815E-004	0.00000E+000	6.59234E-005	5.99601E-002	6.54136E-001	3.57970E+000	9	...........
	41	0.56	6.63781E-001	1.01573E-004	0.00000E+000	6.74223E-005	5.99601E-002	6.64032E-001	3.57970E+000	9	...........
	42	0.573333	6.73489E-001	1.00374E-004	0.00000E+000	6.76008E-005	5.99601E-002	6.73718E-001	3.57970E+000	9	...........
	43	0.586667	6.82954E-001	1.00980E-004	0.00000E+000	6.89649E-005	5.99601E-002	6.83213E-001	3.57970E+000	9	...........
	44	0.6	6.92246E-001	1.00869E-004	0.00000E+000	6.98261E-005	5.99601E-002	6.92500E-001	3.57970E+000	9	...........
	45	0.613333	7.01351E-001	1.00944E-004	0.00000E+000	7.07970E-005	5.99601E-002	7.01590E-001	3.57970E+000	9	...........
	46	0.626667	7.10239E-001	1.00687E-004	0.00000E+000	7.15115E-005	5.99601E-002	7.10523E-001	3.57970E+000	9	...........
	47	0.64	7.19033E-001	1.00601E-004	0.00000E+000	7.23355E-005	5.99601E-002	7.19281E-001	3.57970E+000	9	...........
	48	0.653333	7.27633E-001	1.01304E-004	0.00000E+000	7.37124E-005	5.99601E-002	7.27884E-001	3.57970E+000	9	...........
	49	0.666667	7.36023E-001	1.01248E-004	0.00000E+000	7.45210E-005	5.99601E-002	7.36273E-001	3.57970E+000	9	...........
	50	0.68	7.44310E-001	1.01228E-004	0.00000E+000	7.53453E-005	5.99601E-002	7.44573E-001	3.57970E+000	9	...........
	51	0.693333	7.52413E-001	1.00693E-004	0.00000E+000	7.57626E-005	5.99601E-002	7.52687E-001	3.57970E+000	9	...........
	52	0.706667	7.60385E-001	1.00758E-004	0.00000E+000	7.66152E-005	5.99601E-002	7.60649E-001	3.57970E+000	9	...........
	53	0.72	7.68187E-001	1.00392E-004	0.00000E+000	7.71195E-005	5.99601E-002	7.68491E-001	3.57970E+000	9	...........
	54	0.733333	7.75857E-001	1.00834E-004	0.00000E+000	7.82331E-005	5.99601E-002	7.76184E-001	3.57970E+000	9	...........
	55	0.746667	7.83378E-001	1.00550E-004	0.00000E+000	7.87687E-005	5.99601E-002	7.83702E-001	3.57970E+000	9	...........
	56	0.76	7.90777E-001	1.00575E-004	0.00000E+000	7.95325E-005	5.99601E-002	7.91102E-001	3.57970E+000	9	...........
	57	0.773333	7.98056E-001	9.99749E-005	0.00000E+000	7.97856E-005	5.99601E-002	7.98366E-001	3.57970E+000	9	...........
	58	0.786667	8.05157E-001	1.00019E-004	0.00000E+000	8.05307E-005	5.99601E-002	8.05488E-001	3.57970E+000	9	...........
	59	0.8	8.12144E-001	1.00471E-004	0.00000E+000	8.15968E-005	5.99601E-002	8.12451E-001	3.57970E+000	9	...........
	60	0.813333	8.19015E-001	1.00421E-004	0.00000E+000	8.22462E-005	5.99601E-002	8.19336E-001	3.57970E+000	9	...........
	61	0.826667	8.25808E-001	1.00679E-004	0.00000E+000	8.31417E-005	5.99601E-002	8.26076E-001	3.57970E+000	9	...........
	62	0.84	8.32452E-001	1.00712E-004	0.00000E+000	8.38375E-005	5.99601E-002	8.32733E-001	3.57992E+000	9	...........
	63	0.853333	8.38956E-001	1.01638E-004	0.00000E+000	8.52697E-005	5.99601E-002	8.39288E-001	3.58020E+000	9	...........
	64	0.866667	8.45403E-001	1.01413E-004	0.00000E+000	8.57346E-005	5.99601E-002	8.45729E-001	3.58020E+000	9	...........
	65	0.88	8.51727E-001	1.00987E-004	0.00000E+000	8.60131E-005	5.99601E-002	8.52066E-001	3.58020E+000	9	...........
	66	0.893333	8.57913E-001	1.00767E-004	0.00000E+000	8.64492E-005	5.99601E-002	8.58279E-001	3.58020E+000	9	...........
	67	0.906667	8.64023E-001	1.00737E-004	0.00000E+000	8.70387E-005	5.99601E-002	8.64388E-001	3.58020E+000	9	...........
	68	0.92	8.70034E-001	1.00258E-004	0.00000E+000	8.72282E-005	5.99601E-002	8.70419E-001	3.58020E+000	9	...........
	69	0.933333	8.75933E-001	1.01454E-004	0.00000E+000	8.88672E-005	5.99601E-002	8.76334E-001	3.58020E+000	9	...........
	70	0.946667	8.81735E-001	1.01356E-004	0.00000E+000	8.93695E-005	5.99601E-002	8.82118E-001	3.58020E+000	9	...........
	71	0.96	8.87439E-001	1.01369E-004	0.00000E+000	8.99588E-005	5.99601E-002	8.87820E-001	3.58020E+000	9	...........
	72	0.97333	8.93044E-001	1.01772E-004	0.00000E+000	9.08870E-005	5.99601E-002	8.93424E-001	3.58020E+000	9	...........
	73	0.98667	8.98561E-001	1.00340E-004	0.00000E+000	9.01612E-005	5.99601E-002	8.98940E-001	3.58020E+000	9	...........
	74	1	9.03961E-001	1.00306E-004	0.00000E+000	9.06729E-005	5.99601E-002	9.04359E-001	3.58020E+000	9	...........
	75	1.01333	9.09317E-001	1.00990E-004	0.00000E+000	9.18317E-005	5.99601E-002	9.09678E-001	3.58020E+000	9	...........
	76	1.02667	9.14522E-001	1.01026E-004	0.00000E+000	9.23907E-005	5.99601E-002	9.14900E-001	3.58020E+000	9	...........
	77	1.04	9.19688E-001	1.00961E-004	0.00000E+000	9.28522E-005	5.99601E-002	9.20050E-001	3.58020E+000	9	...........
	78	1.05333	9.24773E-001	9.99635E-005	0.00000E+000	9.24435E-005	5.99601E-002	9.25117E-001	3.58020E+000	9	...........
	79	1.06667	9.29743E-001	1.00918E-004	0.00000E+000	9.38276E-005	5.99601E-002	9.30081E-001	3.58020E+000	9	...........
	80	1.08	9.34624E-001	1.01326E-004	0.00000E+000	9.47020E-005	5.99601E-002	9.34980E-001	3.58020E+000	9	...........
	81	1.09333	9.39397E-001	1.00959E-004	0.00000E+000	9.48411E-005	5.99601E-002	9.39754E-001	3.58020E+000	9	...........
	82	1.10667	9.44080E-001	1.00976E-004	0.00000E+000	9.53296E-005	5.99601E-002	9.44443E-001	3.58020E+000	9	...........
	83	1.12	9.48753E-001	1.00557E-004	0.00000E+000	9.54041E-005	5.99601E-002	9.49078E-001	3.58020E+000	9	...........
	84	1.13333	9.53271E-001	1.01197E-004	0.00000E+000	9.64682E-005	5.99601E-002	9.53598E-001	3.58020E+000	9	...........
	85	1.14667	9.57699E-001	1.00299E-004	0.00000E+000	9.60562E-005	5.99601E-002	9.58040E-001	3.58020E+000	9	...........
	86	1.16	9.62033E-001	1.00918E-004	0.00000E+000	9.70863E-005	5.99601E-002	9.62388E-001	3.58020E+000	9	...........
	87	1.17333	9.66306E-001	1.01369E-004	0.00000E+000	9.79534E-005	5.99601E-002	9.66681E-001	3.58020E+000	9	...........
	88	1.18667	9.70510E-001	1.02261E-004	0.00000E+000	9.92452E-005	5.99601E-002	9.70863E-001	3.58020E+000	9	...........
	89	1.2	9.74663E-001	1.00693E-004	0.00000E+000	9.81415E-005	5.99601E-002	9.75001E-001	3.58020E+000	9	...........
	90	1.21333	9.78672E-001	1.01201E-004	0.00000E+000	9.90428E-005	5.99601E-002	9.79039E-001	3.58020E+000	9	...........
	91	1.22667	9.82633E-001	1.00694E-004	0.00000E+000	9.89451E-005	5.99601E-002	9.82989E-001	3.58020E+000	9	...........
	92	1.24	9.86495E-001	1.00851E-004	0.00000E+000	9.94891E-005	5.99601E-002	9.86871E-001	3.58020E+000	9	...........
	93	1.25333	9.90296E-001	1.00992E-004	0.00000E+000	1.00012E-004	5.99601E-002	9.90670E-001	3.58020E+000	9	...........
	94	1.26667	9.93989E-001	1.01171E-004	0.00000E+000	1.00563E-004	5.99601E-002	9.94412E-001	3.58020E+000	9	...........
	95	1.28	9.97648E-001	1.00447E-004	0.00000E+000	1.00211E-004	5.99601E-002	9.98066E-001	3.58020E+000	9	...........
	96	1.28333	9.99876E-001	9.99978E-005	0.00000E+000	9.99854E-005	5.99601E-002	1.00032E+000	3.58020E+000	9	...........
STARTTIMEOFFSET	QUANT	453.7999	Start Time Offset (s)
