EXPLAIN
TAG	PWR800_CHARGE
TITLE	LABEL	PWR Cyclic Charge Discharge (Cell) - Charge Step	Test &Identifier
DATE	LABEL	13-7-2017	Date
TIME	LABEL	15:51:46	Time
NOTES	NOTES	2	&Notes...
	supercap test cell
	6M KOH
PSTAT	PSTAT	IFC5000-01520	Potentiostat
CAPACITY	QUANT	1.00000E-003	Capacity (A-hr)
CELLTYPE	SELECTOR	1	&Cell Type
WORKINGCONNECTION	SELECTOR	0	&Working Lead
MAXCHARGETIME	VARIABLEANDUNITS	1.00000E+002	s	1.00000E+002	second(s)	Max &Charge Time
CHARGECURRENT	QUANT	1.00000E-004	&Charge Current (A) 
VOLTAGEFINISH	TWOPARAM	F	1.00000E-003	3.60000E+003	&Voltage Finish	 I (A) < 	Max Time(s)
SAMPLETIME	QUANT	1.00000E-002	Sa&mple Period (s)
CHARGESTOPAT1	MULTIPARAM	4	1.00000E+000	Charge Stop At &1	Voltage > Limit	V
CHARGESTOPAT2	MULTIPARAM	0	0.00000E+000	Charge Stop At &2	None	N/A
AESBHCSELECTOR	TOGGLE	F	Save Both Half Cells
IRCOMP	TOGGLE	F	IR &Measure
EOC	QUANT	0	Open Circuit (V)
SEQUENCER	TOGGLE	TRUE	Run as Sequence
PSTATMODEL	IQUANT	53	Pstat Model
PSTATSECTION	LABEL	IFC5000-01520	Pstat Section
PSTATSERIALNO	LABEL	01520	Pstat Serial Number
CTRLMODE	IQUANT	0	Control Mode
ELECTROMETER	IQUANT	1	RE=0 or CS=1
IESTAB	IQUANT	0	I/E Stability
CASPEED	IQUANT	4	Control Amp Speed
CONVENTION	IQUANT	1	Current Convention
ICHRANGE	IQUANT	2	Ich Range
ICHRANGEMODE	TOGGLE	T	Ich Auto Range
ICHOFFSETENABLE	TOGGLE	F	Ich Offset Enable
ICHOFFSET	QUANT	0	Ich Offset (V)
ICHFILTER	IQUANT	1	Ich Filter
VCHRANGE	IQUANT	2	Vch Range
VCHRANGEMODE	TOGGLE	T	Vch Auto Range
VCHOFFSETENABLE	TOGGLE	F	Vch Offset Enable
VCHOFFSET	QUANT	0	Vch Offset (V)
VCHFILTER	IQUANT	1	Vch Filter
IERANGELOWERLIMIT	IQUANT	9	I/E Range Lower Limit
IERANGEMODE	TOGGLE	F	I/E AutoRange
IERANGE	IQUANT	9	I/E Range
ACHSELECT	IQUANT	1	Ach Select
ACHRANGE	IQUANT	2	Ach Range
ACHOFFSETENABLE	TOGGLE	F	Ach Offset Enable
ACHOFFSET	QUANT	0	Ach Offset (V)
ACHFILTER	IQUANT	1	Ach Filter
CABLEID	IQUANT	14	Cable ID
DCCALDATE	LABEL	5-7-2017	DC Calibration Date
ACCALDATE	LABEL	12/3/2015	AC Calibration Date
FRAMEWORKVERSION	QUANT	7.01	Framework Version
INSTRUMENTVERSION	LABEL	4.00	Instrument Version
CURVE	TABLE	89
	Pt	T	Vf	Im	Vu	Pwr	Sig	Ach	Temp	IERange	Over
	#	s	V	A	V	W	V	V	deg C	#	bits
	0	0.013333	1.33045E-001	1.01347E-004	0.00000E+000	1.34837E-005	5.99601E-002	1.33084E-001	3.57970E+000	9	...........
	1	0.026667	1.48358E-001	1.01168E-004	0.00000E+000	1.50091E-005	5.99601E-002	1.48384E-001	3.57970E+000	9	...........
	2	0.04	1.63232E-001	9.99166E-005	0.00000E+000	1.63096E-005	5.99601E-002	1.63258E-001	3.57970E+000	9	...........
	3	0.053333	1.77840E-001	1.01275E-004	0.00000E+000	1.80108E-005	5.99601E-002	1.77873E-001	3.57970E+000	9	...........
	4	0.066667	1.92255E-001	1.00581E-004	0.00000E+000	1.93373E-005	5.99601E-002	1.92292E-001	3.57970E+000	9	...........
	5	0.08	2.06531E-001	1.01431E-004	0.00000E+000	2.09487E-005	5.99601E-002	2.06568E-001	3.57970E+000	9	...........
	6	0.093333	2.20707E-001	1.01380E-004	0.00000E+000	2.23753E-005	5.99601E-002	2.20743E-001	3.57970E+000	9	...........
	7	0.106667	2.34819E-001	1.01036E-004	0.00000E+000	2.37250E-005	5.99601E-002	2.34861E-001	3.57970E+000	9	...........
	8	0.12	2.48882E-001	1.00795E-004	0.00000E+000	2.50860E-005	5.99601E-002	2.48925E-001	3.57970E+000	9	...........
	9	0.133333	2.62915E-001	1.00432E-004	0.00000E+000	2.64052E-005	5.99601E-002	2.62961E-001	3.57970E+000	9	...........
	10	0.146667	2.76950E-001	1.01305E-004	0.00000E+000	2.80565E-005	5.99601E-002	2.77000E-001	3.57970E+000	9	...........
	11	0.16	2.90987E-001	1.00786E-004	0.00000E+000	2.93272E-005	5.99601E-002	2.91045E-001	3.57970E+000	9	...........
	12	0.173333	3.05042E-001	1.00879E-004	0.00000E+000	3.07724E-005	5.99601E-002	3.05104E-001	3.57970E+000	9	...........
	13	0.186667	3.19122E-001	1.00630E-004	0.00000E+000	3.21133E-005	5.99601E-002	3.19183E-001	3.57970E+000	9	...........
	14	0.2	3.33217E-001	1.01155E-004	0.00000E+000	3.37067E-005	5.99601E-002	3.33282E-001	3.57970E+000	9	...........
	15	0.213333	3.47348E-001	1.01108E-004	0.00000E+000	3.51198E-005	5.99601E-002	3.47418E-001	3.57970E+000	9	...........
	16	0.226667	3.61507E-001	1.01197E-004	0.00000E+000	3.65834E-005	5.99601E-002	3.61579E-001	3.57970E+000	9	...........
	17	0.24	3.75684E-001	9.99749E-005	0.00000E+000	3.75589E-005	5.99601E-002	3.75755E-001	3.57970E+000	9	...........
	18	0.253333	3.89873E-001	9.99447E-005	0.00000E+000	3.89657E-005	5.99601E-002	3.89951E-001	3.57970E+000	9	...........
	19	0.266667	4.04072E-001	1.00279E-004	0.00000E+000	4.05200E-005	5.99601E-002	4.04150E-001	3.57970E+000	9	...........
	20	0.28	4.18242E-001	1.01562E-004	0.00000E+000	4.24773E-005	5.99601E-002	4.18326E-001	3.57970E+000	9	...........
	21	0.293333	4.32373E-001	1.00782E-004	0.00000E+000	4.35756E-005	5.99601E-002	4.32461E-001	3.57970E+000	9	...........
	22	0.306667	4.46451E-001	9.96394E-005	0.00000E+000	4.44841E-005	5.99601E-002	4.46538E-001	3.57970E+000	9	...........
	23	0.32	4.60458E-001	1.00573E-004	0.00000E+000	4.63096E-005	5.99601E-002	4.60546E-001	3.57970E+000	9	...........
	24	0.333333	4.74350E-001	1.01863E-004	0.00000E+000	4.83187E-005	5.99601E-002	4.74441E-001	3.57970E+000	9	...........
	25	0.346667	4.88125E-001	1.01087E-004	0.00000E+000	4.93429E-005	5.99601E-002	4.88221E-001	3.57970E+000	9	...........
	26	0.36	5.01752E-001	1.01271E-004	0.00000E+000	5.08129E-005	5.99601E-002	5.01851E-001	3.57970E+000	9	...........
	27	0.373333	5.15220E-001	1.00438E-004	0.00000E+000	5.17474E-005	5.99601E-002	5.15318E-001	3.57970E+000	9	...........
	28	0.386667	5.28499E-001	1.00844E-004	0.00000E+000	5.32959E-005	5.99601E-002	5.28576E-001	3.57970E+000	9	...........
	29	0.4	5.41268E-001	1.00457E-004	0.00000E+000	5.43743E-005	5.99601E-002	5.41479E-001	3.57970E+000	9	...........
	30	0.413333	5.54109E-001	1.00478E-004	0.00000E+000	5.56758E-005	5.99601E-002	5.54351E-001	3.57970E+000	9	...........
	31	0.426667	5.66778E-001	1.00227E-004	0.00000E+000	5.68065E-005	5.99601E-002	5.67041E-001	3.57970E+000	9	...........
	32	0.44	5.79195E-001	1.00588E-004	0.00000E+000	5.82599E-005	5.99601E-002	5.79453E-001	3.57970E+000	9	...........
	33	0.453333	5.91410E-001	1.00866E-004	0.00000E+000	5.96530E-005	5.99601E-002	5.91665E-001	3.57970E+000	9	...........
	34	0.466667	6.03376E-001	1.00732E-004	0.00000E+000	6.07795E-005	5.99601E-002	6.03637E-001	3.57970E+000	9	...........
	35	0.48	6.15149E-001	1.00631E-004	0.00000E+000	6.19032E-005	5.99601E-002	6.15392E-001	3.57970E+000	9	...........
	36	0.493333	6.26639E-001	1.01016E-004	0.00000E+000	6.33004E-005	5.99601E-002	6.26887E-001	3.57970E+000	9	...........
	37	0.506667	6.37905E-001	1.01195E-004	0.00000E+000	6.45527E-005	5.99601E-002	6.38171E-001	3.57970E+000	9	...........
	38	0.52	6.48983E-001	1.01074E-004	0.00000E+000	6.55953E-005	5.99601E-002	6.49218E-001	3.57970E+000	9	...........
	39	0.533333	6.59783E-001	1.01392E-004	0.00000E+000	6.68966E-005	5.99601E-002	6.60054E-001	3.57970E+000	9	...........
	40	0.546667	6.70397E-001	1.00819E-004	0.00000E+000	6.75886E-005	5.99601E-002	6.70684E-001	3.57970E+000	9	...........
	41	0.56	6.80813E-001	1.00675E-004	0.00000E+000	6.85409E-005	5.99601E-002	6.81075E-001	3.57970E+000	9	...........
	42	0.573333	6.90994E-001	1.01030E-004	0.00000E+000	6.98114E-005	5.99601E-002	6.91255E-001	3.57970E+000	9	...........
	43	0.586667	7.00958E-001	1.00370E-004	0.00000E+000	7.03550E-005	5.99601E-002	7.01239E-001	3.57970E+000	9	...........
	44	0.6	7.10733E-001	1.01282E-004	0.00000E+000	7.19848E-005	5.99601E-002	7.11021E-001	3.57970E+000	9	...........
	45	0.613333	7.20358E-001	1.01366E-004	0.00000E+000	7.30197E-005	5.99601E-002	7.20621E-001	3.57970E+000	9	...........
	46	0.626667	7.29730E-001	1.00695E-004	0.00000E+000	7.34801E-005	5.99601E-002	7.30015E-001	3.57970E+000	9	...........
	47	0.64	7.38919E-001	1.00618E-004	0.00000E+000	7.43484E-005	5.99601E-002	7.39229E-001	3.57970E+000	9	...........
	48	0.653333	7.47968E-001	1.00525E-004	0.00000E+000	7.51895E-005	5.99601E-002	7.48250E-001	3.57970E+000	9	...........
	49	0.666667	7.56822E-001	1.01491E-004	0.00000E+000	7.68106E-005	5.99601E-002	7.57122E-001	3.57970E+000	9	...........
	50	0.68	7.65498E-001	1.00580E-004	0.00000E+000	7.69940E-005	5.99601E-002	7.65794E-001	3.57970E+000	9	...........
	51	0.693333	7.74018E-001	1.01325E-004	0.00000E+000	7.84275E-005	5.99601E-002	7.74275E-001	3.57970E+000	9	...........
	52	0.706667	7.82366E-001	1.01086E-004	0.00000E+000	7.90859E-005	5.99601E-002	7.82632E-001	3.57970E+000	9	...........
	53	0.72	7.90550E-001	1.00150E-004	0.00000E+000	7.91735E-005	5.99601E-002	7.90824E-001	3.57970E+000	9	...........
	54	0.733333	7.98614E-001	1.01292E-004	0.00000E+000	8.08931E-005	5.99601E-002	7.98861E-001	3.57970E+000	9	...........
	55	0.746667	8.06483E-001	1.00687E-004	0.00000E+000	8.12020E-005	5.99601E-002	8.06718E-001	3.57970E+000	9	...........
	56	0.76	8.14192E-001	1.00579E-004	0.00000E+000	8.18908E-005	5.99601E-002	8.14425E-001	3.57970E+000	9	...........
	57	0.773333	8.21790E-001	1.01172E-004	0.00000E+000	8.31422E-005	5.99601E-002	8.22037E-001	3.57970E+000	9	...........
	58	0.786667	8.29234E-001	1.00607E-004	0.00000E+000	8.34270E-005	5.99601E-002	8.29473E-001	3.57970E+000	9	...........
	59	0.8	8.36524E-001	1.01265E-004	0.00000E+000	8.47105E-005	5.99601E-002	8.36792E-001	3.57970E+000	9	...........
	60	0.813333	8.43713E-001	9.98645E-005	0.00000E+000	8.42570E-005	5.99601E-002	8.43978E-001	3.57970E+000	9	...........
	61	0.826667	8.50775E-001	1.01902E-004	0.00000E+000	8.66960E-005	5.99601E-002	8.51063E-001	3.57970E+000	9	...........
	62	0.84	8.57670E-001	1.01060E-004	0.00000E+000	8.66757E-005	5.99601E-002	8.57989E-001	3.57970E+000	9	...........
	63	0.853333	8.64441E-001	1.00978E-004	0.00000E+000	8.72897E-005	5.99601E-002	8.64786E-001	3.57970E+000	9	...........
	64	0.866667	8.71150E-001	1.01622E-004	0.00000E+000	8.85281E-005	5.99601E-002	8.71483E-001	3.57970E+000	9	...........
	65	0.88	8.77681E-001	1.01101E-004	0.00000E+000	8.87346E-005	5.99601E-002	8.78046E-001	3.57970E+000	9	...........
	66	0.893333	8.84128E-001	1.00971E-004	0.00000E+000	8.92713E-005	5.99601E-002	8.84478E-001	3.57970E+000	9	...........
	67	0.906667	8.90437E-001	1.00674E-004	0.00000E+000	8.96439E-005	5.99601E-002	8.90768E-001	3.57970E+000	9	...........
	68	0.92	8.96638E-001	1.00356E-004	0.00000E+000	8.99832E-005	5.99601E-002	8.97012E-001	3.57970E+000	9	...........
	69	0.933333	9.02718E-001	1.00961E-004	0.00000E+000	9.11389E-005	5.99601E-002	9.03073E-001	3.57970E+000	9	...........
	70	0.946667	9.08675E-001	1.00832E-004	0.00000E+000	9.16239E-005	5.99601E-002	9.09047E-001	3.57970E+000	9	...........
	71	0.96	9.14533E-001	1.00531E-004	0.00000E+000	9.19392E-005	5.99601E-002	9.14912E-001	3.57970E+000	9	...........
	72	0.97333	9.20328E-001	1.00690E-004	0.00000E+000	9.26675E-005	5.99601E-002	9.20659E-001	3.57970E+000	9	...........
	73	0.98667	9.25967E-001	1.00484E-004	0.00000E+000	9.30453E-005	5.99601E-002	9.26308E-001	3.57874E+000	9	...........
	74	1	9.31502E-001	1.00801E-004	0.00000E+000	9.38965E-005	5.99601E-002	9.31832E-001	3.57860E+000	9	...........
	75	1.01333	9.36916E-001	1.01451E-004	0.00000E+000	9.50514E-005	5.99601E-002	9.37259E-001	3.57860E+000	9	...........
	76	1.02667	9.42218E-001	1.01169E-004	0.00000E+000	9.53232E-005	5.99601E-002	9.42570E-001	3.57860E+000	9	...........
	77	1.04	9.47460E-001	1.00492E-004	0.00000E+000	9.52119E-005	5.99601E-002	9.47811E-001	3.57860E+000	9	...........
	78	1.05333	9.52575E-001	1.00662E-004	0.00000E+000	9.58876E-005	5.99601E-002	9.52905E-001	3.57860E+000	9	...........
	79	1.06667	9.57567E-001	1.01162E-004	0.00000E+000	9.68690E-005	5.99601E-002	9.57905E-001	3.57860E+000	9	...........
	80	1.08	9.62463E-001	1.01433E-004	0.00000E+000	9.76251E-005	5.99601E-002	9.62850E-001	3.57860E+000	9	...........
	81	1.09333	9.67265E-001	1.01181E-004	0.00000E+000	9.78693E-005	5.99601E-002	9.67645E-001	3.57860E+000	9	...........
	82	1.10667	9.71979E-001	1.01379E-004	0.00000E+000	9.85387E-005	5.99601E-002	9.72378E-001	3.57860E+000	9	...........
	83	1.12	9.76655E-001	1.00647E-004	0.00000E+000	9.82973E-005	5.99601E-002	9.77003E-001	3.57860E+000	9	...........
	84	1.13333	9.81130E-001	1.00977E-004	0.00000E+000	9.90718E-005	5.99601E-002	9.81509E-001	3.57860E+000	9	...........
	85	1.14667	9.85571E-001	1.00882E-004	0.00000E+000	9.94267E-005	5.99601E-002	9.85932E-001	3.57860E+000	9	...........
	86	1.16	9.89879E-001	1.00780E-004	0.00000E+000	9.97603E-005	5.99601E-002	9.90266E-001	3.57860E+000	9	...........
	87	1.17333	9.94113E-001	1.00863E-004	0.00000E+000	1.00269E-004	5.99601E-002	9.94467E-001	3.57860E+000	9	...........
	88	1.18667	9.98247E-001	9.99124E-005	0.00000E+000	9.97372E-005	5.99601E-002	9.98647E-001	3.57860E+000	9	...........
STARTTIMEOFFSET	QUANT	2246.265	Start Time Offset (s)
