EXPLAIN
TAG	PWR800_CHARGE
TITLE	LABEL	PWR Cyclic Charge Discharge (Cell) - Charge Step	Test &Identifier
DATE	LABEL	13-7-2017	Date
TIME	LABEL	15:39:42	Time
NOTES	NOTES	2	&Notes...
	supercap test cell
	6M KOH
PSTAT	PSTAT	IFC5000-01520	Potentiostat
CAPACITY	QUANT	1.00000E-003	Capacity (A-hr)
CELLTYPE	SELECTOR	1	&Cell Type
WORKINGCONNECTION	SELECTOR	0	&Working Lead
MAXCHARGETIME	VARIABLEANDUNITS	1.00000E+002	s	1.00000E+002	second(s)	Max &Charge Time
CHARGECURRENT	QUANT	1.00000E-004	&Charge Current (A) 
VOLTAGEFINISH	TWOPARAM	F	1.00000E-003	3.60000E+003	&Voltage Finish	 I (A) < 	Max Time(s)
SAMPLETIME	QUANT	1.00000E-002	Sa&mple Period (s)
CHARGESTOPAT1	MULTIPARAM	4	1.00000E+000	Charge Stop At &1	Voltage > Limit	V
CHARGESTOPAT2	MULTIPARAM	0	0.00000E+000	Charge Stop At &2	None	N/A
AESBHCSELECTOR	TOGGLE	F	Save Both Half Cells
IRCOMP	TOGGLE	F	IR &Measure
EOC	QUANT	0	Open Circuit (V)
SEQUENCER	TOGGLE	TRUE	Run as Sequence
PSTATMODEL	IQUANT	53	Pstat Model
PSTATSECTION	LABEL	IFC5000-01520	Pstat Section
PSTATSERIALNO	LABEL	01520	Pstat Serial Number
CTRLMODE	IQUANT	0	Control Mode
ELECTROMETER	IQUANT	1	RE=0 or CS=1
IESTAB	IQUANT	0	I/E Stability
CASPEED	IQUANT	4	Control Amp Speed
CONVENTION	IQUANT	1	Current Convention
ICHRANGE	IQUANT	2	Ich Range
ICHRANGEMODE	TOGGLE	T	Ich Auto Range
ICHOFFSETENABLE	TOGGLE	F	Ich Offset Enable
ICHOFFSET	QUANT	0	Ich Offset (V)
ICHFILTER	IQUANT	1	Ich Filter
VCHRANGE	IQUANT	2	Vch Range
VCHRANGEMODE	TOGGLE	T	Vch Auto Range
VCHOFFSETENABLE	TOGGLE	F	Vch Offset Enable
VCHOFFSET	QUANT	0	Vch Offset (V)
VCHFILTER	IQUANT	1	Vch Filter
IERANGELOWERLIMIT	IQUANT	9	I/E Range Lower Limit
IERANGEMODE	TOGGLE	F	I/E AutoRange
IERANGE	IQUANT	9	I/E Range
ACHSELECT	IQUANT	1	Ach Select
ACHRANGE	IQUANT	2	Ach Range
ACHOFFSETENABLE	TOGGLE	F	Ach Offset Enable
ACHOFFSET	QUANT	0	Ach Offset (V)
ACHFILTER	IQUANT	1	Ach Filter
CABLEID	IQUANT	14	Cable ID
DCCALDATE	LABEL	5-7-2017	DC Calibration Date
ACCALDATE	LABEL	12/3/2015	AC Calibration Date
FRAMEWORKVERSION	QUANT	7.01	Framework Version
INSTRUMENTVERSION	LABEL	4.00	Instrument Version
CURVE	TABLE	91
	Pt	T	Vf	Im	Vu	Pwr	Sig	Ach	Temp	IERange	Over
	#	s	V	A	V	W	V	V	deg C	#	bits
	0	0.013333	1.34219E-001	1.00502E-004	0.00000E+000	1.34893E-005	5.99601E-002	1.34260E-001	3.57850E+000	9	...........
	1	0.026667	1.49504E-001	1.01301E-004	0.00000E+000	1.51450E-005	5.99601E-002	1.49522E-001	3.57850E+000	9	...........
	2	0.04	1.64348E-001	1.00956E-004	0.00000E+000	1.65920E-005	5.99601E-002	1.64374E-001	3.57850E+000	9	...........
	3	0.053333	1.78929E-001	1.01044E-004	0.00000E+000	1.80797E-005	5.99601E-002	1.78960E-001	3.57850E+000	9	...........
	4	0.066667	1.93321E-001	1.01522E-004	0.00000E+000	1.96264E-005	5.99601E-002	1.93353E-001	3.57850E+000	9	...........
	5	0.08	2.07574E-001	1.00616E-004	0.00000E+000	2.08852E-005	5.99601E-002	2.07609E-001	3.57850E+000	9	...........
	6	0.093333	2.21721E-001	1.00772E-004	0.00000E+000	2.23433E-005	5.99601E-002	2.21761E-001	3.57850E+000	9	...........
	7	0.106667	2.35801E-001	1.00706E-004	0.00000E+000	2.37467E-005	5.99601E-002	2.35843E-001	3.57850E+000	9	...........
	8	0.12	2.49836E-001	1.01230E-004	0.00000E+000	2.52910E-005	5.99601E-002	2.49887E-001	3.57850E+000	9	...........
	9	0.133333	2.63851E-001	1.01004E-004	0.00000E+000	2.66501E-005	5.99601E-002	2.63906E-001	3.57850E+000	9	...........
	10	0.146667	2.77859E-001	9.99812E-005	0.00000E+000	2.77807E-005	5.99601E-002	2.77910E-001	3.57850E+000	9	...........
	11	0.16	2.91863E-001	1.01682E-004	0.00000E+000	2.96771E-005	5.99601E-002	2.91914E-001	3.57850E+000	9	...........
	12	0.173333	3.05875E-001	1.00543E-004	0.00000E+000	3.07535E-005	5.99601E-002	3.05935E-001	3.57850E+000	9	...........
	13	0.186667	3.19913E-001	1.01098E-004	0.00000E+000	3.23426E-005	5.99601E-002	3.19978E-001	3.57850E+000	9	...........
	14	0.2	3.33965E-001	1.01125E-004	0.00000E+000	3.37723E-005	5.99601E-002	3.34033E-001	3.57850E+000	9	...........
	15	0.213333	3.48052E-001	1.00522E-004	0.00000E+000	3.49868E-005	5.99601E-002	3.48117E-001	3.57850E+000	9	...........
	16	0.226667	3.62156E-001	1.00335E-004	0.00000E+000	3.63370E-005	5.99601E-002	3.62227E-001	3.57850E+000	9	...........
	17	0.24	3.76279E-001	1.00241E-004	0.00000E+000	3.77184E-005	5.99601E-002	3.76349E-001	3.57850E+000	9	...........
	18	0.253333	3.90402E-001	1.00525E-004	0.00000E+000	3.92451E-005	5.99601E-002	3.90475E-001	3.57850E+000	9	...........
	19	0.266667	4.04522E-001	1.01257E-004	0.00000E+000	4.09609E-005	5.99601E-002	4.04593E-001	3.57850E+000	9	...........
	20	0.28	4.18615E-001	1.00776E-004	0.00000E+000	4.21864E-005	5.99601E-002	4.18696E-001	3.57850E+000	9	...........
	21	0.293333	4.32656E-001	1.00311E-004	0.00000E+000	4.34004E-005	5.99601E-002	4.32742E-001	3.57850E+000	9	...........
	22	0.306667	4.46644E-001	1.00278E-004	0.00000E+000	4.47886E-005	5.99601E-002	4.46727E-001	3.57850E+000	9	...........
	23	0.32	4.60532E-001	1.00645E-004	0.00000E+000	4.63502E-005	5.99601E-002	4.60617E-001	3.57850E+000	9	...........
	24	0.333333	4.74314E-001	1.00126E-004	0.00000E+000	4.74911E-005	5.99601E-002	4.74401E-001	3.57850E+000	9	...........
	25	0.346667	4.87963E-001	1.01015E-004	0.00000E+000	4.92914E-005	5.99601E-002	4.88057E-001	3.57850E+000	9	...........
	26	0.36	5.01462E-001	1.00128E-004	0.00000E+000	5.02104E-005	5.99601E-002	5.01562E-001	3.57850E+000	9	...........
	27	0.373333	5.14793E-001	1.00612E-004	0.00000E+000	5.17941E-005	5.99601E-002	5.14896E-001	3.57850E+000	9	...........
	28	0.386667	5.27935E-001	1.01213E-004	0.00000E+000	5.34337E-005	5.99601E-002	5.28046E-001	3.57850E+000	9	...........
	29	0.4	5.40522E-001	1.01997E-004	0.00000E+000	5.51318E-005	5.99601E-002	5.40742E-001	3.57850E+000	9	...........
	30	0.413333	5.53258E-001	1.01354E-004	0.00000E+000	5.60752E-005	5.99601E-002	5.53487E-001	3.57850E+000	9	...........
	31	0.426667	5.65767E-001	1.01001E-004	0.00000E+000	5.71431E-005	5.99601E-002	5.66023E-001	3.57850E+000	9	...........
	32	0.44	5.78095E-001	1.01090E-004	0.00000E+000	5.84395E-005	5.99601E-002	5.78338E-001	3.57850E+000	9	...........
	33	0.453333	5.90129E-001	1.00985E-004	0.00000E+000	5.95939E-005	5.99601E-002	5.90418E-001	3.57850E+000	9	...........
	34	0.466667	6.01968E-001	1.00506E-004	0.00000E+000	6.05015E-005	5.99601E-002	6.02240E-001	3.57850E+000	9	...........
	35	0.48	6.13576E-001	1.00801E-004	0.00000E+000	6.18491E-005	5.99601E-002	6.13867E-001	3.57850E+000	9	...........
	36	0.493333	6.24956E-001	1.01079E-004	0.00000E+000	6.31701E-005	5.99601E-002	6.25239E-001	3.57850E+000	9	...........
	37	0.506667	6.36113E-001	1.01550E-004	0.00000E+000	6.45974E-005	5.99601E-002	6.36393E-001	3.57850E+000	9	...........
	38	0.52	6.47042E-001	1.00407E-004	0.00000E+000	6.49677E-005	5.99601E-002	6.47316E-001	3.57850E+000	9	...........
	39	0.533333	6.57755E-001	1.00624E-004	0.00000E+000	6.61859E-005	5.99601E-002	6.58038E-001	3.57850E+000	9	...........
	40	0.546667	6.68240E-001	1.01266E-004	0.00000E+000	6.76698E-005	5.99601E-002	6.68532E-001	3.57850E+000	9	...........
	41	0.56	6.78521E-001	1.00336E-004	0.00000E+000	6.80804E-005	5.99601E-002	6.78794E-001	3.57850E+000	9	...........
	42	0.573333	6.88592E-001	9.99082E-005	0.00000E+000	6.87960E-005	5.99601E-002	6.88878E-001	3.57850E+000	9	...........
	43	0.586667	6.98458E-001	1.00271E-004	0.00000E+000	7.00350E-005	5.99601E-002	6.98750E-001	3.57850E+000	9	...........
	44	0.6	7.08112E-001	1.01491E-004	0.00000E+000	7.18669E-005	5.99601E-002	7.08403E-001	3.57850E+000	9	...........
	45	0.613333	7.17627E-001	1.00299E-004	0.00000E+000	7.19772E-005	5.99601E-002	7.17903E-001	3.57850E+000	9	...........
	46	0.626667	7.26923E-001	1.00974E-004	0.00000E+000	7.34003E-005	5.99601E-002	7.27200E-001	3.57850E+000	9	...........
	47	0.64	7.36005E-001	1.02211E-004	0.00000E+000	7.52276E-005	5.99601E-002	7.36294E-001	3.57850E+000	9	...........
	48	0.653333	7.44951E-001	1.00794E-004	0.00000E+000	7.50864E-005	5.99601E-002	7.45234E-001	3.57850E+000	9	...........
	49	0.666667	7.53729E-001	1.00623E-004	0.00000E+000	7.58424E-005	5.99601E-002	7.53994E-001	3.57850E+000	9	...........
	50	0.68	7.62291E-001	1.00481E-004	0.00000E+000	7.65959E-005	5.99601E-002	7.62574E-001	3.57850E+000	9	...........
	51	0.693333	7.70736E-001	1.00843E-004	0.00000E+000	7.77232E-005	5.99601E-002	7.71004E-001	3.57850E+000	9	...........
	52	0.706667	7.78983E-001	1.00489E-004	0.00000E+000	7.82789E-005	5.99601E-002	7.79275E-001	3.57850E+000	9	...........
	53	0.72	7.87100E-001	1.00569E-004	0.00000E+000	7.91577E-005	5.99601E-002	7.87380E-001	3.57850E+000	9	...........
	54	0.733333	7.95063E-001	1.00336E-004	0.00000E+000	7.97738E-005	5.99601E-002	7.95341E-001	3.57850E+000	9	...........
	55	0.746667	8.02873E-001	1.00723E-004	0.00000E+000	8.08678E-005	5.99601E-002	8.03138E-001	3.57850E+000	9	...........
	56	0.76	8.10480E-001	1.01633E-004	0.00000E+000	8.23711E-005	5.99601E-002	8.10820E-001	3.57850E+000	9	...........
	57	0.773333	8.18022E-001	1.01131E-004	0.00000E+000	8.27278E-005	5.99601E-002	8.18342E-001	3.57850E+000	9	...........
	58	0.786667	8.25391E-001	1.00474E-004	0.00000E+000	8.29304E-005	5.99601E-002	8.25720E-001	3.57850E+000	9	...........
	59	0.8	8.32625E-001	9.99322E-005	0.00000E+000	8.32061E-005	5.99601E-002	8.32961E-001	3.57850E+000	9	...........
	60	0.813333	8.39731E-001	9.94269E-005	0.00000E+000	8.34918E-005	5.99601E-002	8.40043E-001	3.57850E+000	9	...........
	61	0.826667	8.46743E-001	1.01039E-004	0.00000E+000	8.55538E-005	5.99601E-002	8.47061E-001	3.57850E+000	9	...........
	62	0.84	8.53587E-001	1.00816E-004	0.00000E+000	8.60550E-005	5.99601E-002	8.53922E-001	3.57850E+000	9	...........
	63	0.853333	8.60342E-001	1.00488E-004	0.00000E+000	8.64536E-005	5.99601E-002	8.60663E-001	3.57850E+000	9	...........
	64	0.866667	8.66951E-001	1.01281E-004	0.00000E+000	8.78060E-005	5.99601E-002	8.67251E-001	3.57973E+000	9	...........
	65	0.88	8.73474E-001	1.00959E-004	0.00000E+000	8.81855E-005	5.99601E-002	8.73759E-001	3.57990E+000	9	...........
	66	0.893333	8.79850E-001	1.02012E-004	0.00000E+000	8.97551E-005	5.99601E-002	8.80113E-001	3.57990E+000	9	...........
	67	0.906667	8.86121E-001	1.00526E-004	0.00000E+000	8.90783E-005	5.99601E-002	8.86386E-001	3.57990E+000	9	...........
	68	0.92	8.92271E-001	1.00697E-004	0.00000E+000	8.98490E-005	5.99601E-002	8.92514E-001	3.57990E+000	9	...........
	69	0.933333	8.98318E-001	1.01309E-004	0.00000E+000	9.10073E-005	5.99601E-002	8.98592E-001	3.57990E+000	9	...........
	70	0.946667	9.04234E-001	1.00608E-004	0.00000E+000	9.09736E-005	5.99601E-002	9.04525E-001	3.57990E+000	9	...........
	71	0.96	9.10074E-001	1.01217E-004	0.00000E+000	9.21148E-005	5.99601E-002	9.10353E-001	3.57990E+000	9	...........
	72	0.97333	9.15791E-001	1.00603E-004	0.00000E+000	9.21315E-005	5.99601E-002	9.16083E-001	3.57990E+000	9	...........
	73	0.98667	9.21448E-001	1.00766E-004	0.00000E+000	9.28504E-005	5.99601E-002	9.21734E-001	3.57990E+000	9	...........
	74	1	9.26989E-001	1.00709E-004	0.00000E+000	9.33566E-005	5.99601E-002	9.27258E-001	3.57990E+000	9	...........
	75	1.01333	9.32380E-001	1.00872E-004	0.00000E+000	9.40510E-005	5.99601E-002	9.32678E-001	3.57990E+000	9	...........
	76	1.02667	9.37678E-001	1.00608E-004	0.00000E+000	9.43383E-005	5.99601E-002	9.38012E-001	3.57990E+000	9	...........
	77	1.04	9.42879E-001	1.00639E-004	0.00000E+000	9.48900E-005	5.99601E-002	9.43205E-001	3.57990E+000	9	...........
	78	1.05333	9.48009E-001	1.00919E-004	0.00000E+000	9.56720E-005	5.99601E-002	9.48341E-001	3.57990E+000	9	...........
	79	1.06667	9.53020E-001	1.01579E-004	0.00000E+000	9.68072E-005	5.99601E-002	9.53321E-001	3.57990E+000	9	...........
	80	1.08	9.57908E-001	1.00876E-004	0.00000E+000	9.66301E-005	5.99601E-002	9.58228E-001	3.57990E+000	9	...........
	81	1.09333	9.62707E-001	1.00843E-004	0.00000E+000	9.70821E-005	5.99601E-002	9.63043E-001	3.57990E+000	9	...........
	82	1.10667	9.67415E-001	1.00691E-004	0.00000E+000	9.74097E-005	5.99601E-002	9.67776E-001	3.57990E+000	9	...........
	83	1.12	9.72049E-001	1.00138E-004	0.00000E+000	9.73396E-005	5.99601E-002	9.72401E-001	3.57990E+000	9	...........
	84	1.13333	9.76574E-001	1.01108E-004	0.00000E+000	9.87399E-005	5.99601E-002	9.76933E-001	3.57990E+000	9	...........
	85	1.14667	9.81020E-001	1.00797E-004	0.00000E+000	9.88839E-005	5.99601E-002	9.81353E-001	3.57990E+000	9	...........
	86	1.16	9.85329E-001	1.00790E-004	0.00000E+000	9.93110E-005	5.99601E-002	9.85716E-001	3.57990E+000	9	...........
	87	1.17333	9.89578E-001	1.01419E-004	0.00000E+000	1.00362E-004	5.99601E-002	9.89951E-001	3.57990E+000	9	...........
	88	1.18667	9.93731E-001	1.01476E-004	0.00000E+000	1.00840E-004	5.99601E-002	9.94102E-001	3.57990E+000	9	...........
	89	1.2	9.97801E-001	1.00620E-004	0.00000E+000	1.00399E-004	5.99601E-002	9.98194E-001	3.57990E+000	9	...........
	90	1.20167	1.00007E+000	1.00523E-004	0.00000E+000	1.00530E-004	5.99601E-002	1.00045E+000	3.57990E+000	9	...........
STARTTIMEOFFSET	QUANT	1704.156	Start Time Offset (s)
