EXPLAIN
TAG	PWR800_CHARGE
TITLE	LABEL	PWR Cyclic Charge Discharge (Cell) - Charge Step	Test &Identifier
DATE	LABEL	13-7-2017	Date
TIME	LABEL	15:06:18	Time
NOTES	NOTES	2	&Notes...
	supercap test cell
	6M KOH
PSTAT	PSTAT	IFC5000-01520	Potentiostat
CAPACITY	QUANT	1.00000E-003	Capacity (A-hr)
CELLTYPE	SELECTOR	1	&Cell Type
WORKINGCONNECTION	SELECTOR	0	&Working Lead
MAXCHARGETIME	VARIABLEANDUNITS	1.00000E+002	s	1.00000E+002	second(s)	Max &Charge Time
CHARGECURRENT	QUANT	1.00000E-004	&Charge Current (A) 
VOLTAGEFINISH	TWOPARAM	F	1.00000E-003	3.60000E+003	&Voltage Finish	 I (A) < 	Max Time(s)
SAMPLETIME	QUANT	1.00000E-002	Sa&mple Period (s)
CHARGESTOPAT1	MULTIPARAM	4	1.00000E+000	Charge Stop At &1	Voltage > Limit	V
CHARGESTOPAT2	MULTIPARAM	0	0.00000E+000	Charge Stop At &2	None	N/A
AESBHCSELECTOR	TOGGLE	F	Save Both Half Cells
IRCOMP	TOGGLE	F	IR &Measure
EOC	QUANT	0	Open Circuit (V)
SEQUENCER	TOGGLE	TRUE	Run as Sequence
PSTATMODEL	IQUANT	53	Pstat Model
PSTATSECTION	LABEL	IFC5000-01520	Pstat Section
PSTATSERIALNO	LABEL	01520	Pstat Serial Number
CTRLMODE	IQUANT	0	Control Mode
ELECTROMETER	IQUANT	1	RE=0 or CS=1
IESTAB	IQUANT	0	I/E Stability
CASPEED	IQUANT	4	Control Amp Speed
CONVENTION	IQUANT	1	Current Convention
ICHRANGE	IQUANT	2	Ich Range
ICHRANGEMODE	TOGGLE	T	Ich Auto Range
ICHOFFSETENABLE	TOGGLE	F	Ich Offset Enable
ICHOFFSET	QUANT	0	Ich Offset (V)
ICHFILTER	IQUANT	1	Ich Filter
VCHRANGE	IQUANT	2	Vch Range
VCHRANGEMODE	TOGGLE	T	Vch Auto Range
VCHOFFSETENABLE	TOGGLE	F	Vch Offset Enable
VCHOFFSET	QUANT	0	Vch Offset (V)
VCHFILTER	IQUANT	1	Vch Filter
IERANGELOWERLIMIT	IQUANT	9	I/E Range Lower Limit
IERANGEMODE	TOGGLE	F	I/E AutoRange
IERANGE	IQUANT	9	I/E Range
ACHSELECT	IQUANT	1	Ach Select
ACHRANGE	IQUANT	2	Ach Range
ACHOFFSETENABLE	TOGGLE	F	Ach Offset Enable
ACHOFFSET	QUANT	0	Ach Offset (V)
ACHFILTER	IQUANT	1	Ach Filter
CABLEID	IQUANT	14	Cable ID
DCCALDATE	LABEL	5-7-2017	DC Calibration Date
ACCALDATE	LABEL	12/3/2015	AC Calibration Date
FRAMEWORKVERSION	QUANT	7.01	Framework Version
INSTRUMENTVERSION	LABEL	4.00	Instrument Version
CURVE	TABLE	100
	Pt	T	Vf	Im	Vu	Pwr	Sig	Ach	Temp	IERange	Over
	#	s	V	A	V	W	V	V	deg C	#	bits
	0	0.013333	1.34033E-001	9.98874E-005	0.00000E+000	1.33882E-005	5.99601E-002	1.34084E-001	3.58000E+000	9	...........
	1	0.026667	1.49503E-001	1.01150E-004	0.00000E+000	1.51222E-005	5.99601E-002	1.49524E-001	3.58000E+000	9	...........
	2	0.04	1.64524E-001	1.01816E-004	0.00000E+000	1.67512E-005	5.99601E-002	1.64542E-001	3.58000E+000	9	...........
	3	0.053333	1.79271E-001	1.01077E-004	0.00000E+000	1.81202E-005	5.99601E-002	1.79297E-001	3.58000E+000	9	...........
	4	0.066667	1.93824E-001	1.00955E-004	0.00000E+000	1.95675E-005	5.99601E-002	1.93859E-001	3.58000E+000	9	...........
	5	0.08	2.08232E-001	1.00035E-004	0.00000E+000	2.08305E-005	5.99601E-002	2.08267E-001	3.58000E+000	9	...........
	6	0.093333	2.22536E-001	1.00949E-004	0.00000E+000	2.24649E-005	5.99601E-002	2.22569E-001	3.58000E+000	9	...........
	7	0.106667	2.36752E-001	1.01155E-004	0.00000E+000	2.39488E-005	5.99601E-002	2.36795E-001	3.58000E+000	9	...........
	8	0.12	2.50907E-001	1.00013E-004	0.00000E+000	2.50941E-005	5.99601E-002	2.50952E-001	3.58000E+000	9	...........
	9	0.133333	2.65014E-001	1.01361E-004	0.00000E+000	2.68619E-005	5.99601E-002	2.65069E-001	3.58000E+000	9	...........
	10	0.146667	2.79090E-001	1.00824E-004	0.00000E+000	2.81390E-005	5.99601E-002	2.79146E-001	3.58000E+000	9	...........
	11	0.16	2.93138E-001	1.01615E-004	0.00000E+000	2.97872E-005	5.99601E-002	2.93188E-001	3.58000E+000	9	...........
	12	0.173333	3.07164E-001	1.01260E-004	0.00000E+000	3.11033E-005	5.99601E-002	3.07221E-001	3.58000E+000	9	...........
	13	0.186667	3.21167E-001	1.01344E-004	0.00000E+000	3.25483E-005	5.99601E-002	3.21229E-001	3.58000E+000	9	...........
	14	0.2	3.35147E-001	1.00989E-004	0.00000E+000	3.38460E-005	5.99601E-002	3.35211E-001	3.58000E+000	9	...........
	15	0.213333	3.49104E-001	1.00333E-004	0.00000E+000	3.50268E-005	5.99601E-002	3.49170E-001	3.58000E+000	9	...........
	16	0.226667	3.63022E-001	1.01191E-004	0.00000E+000	3.67345E-005	5.99601E-002	3.63089E-001	3.58000E+000	9	...........
	17	0.24	3.76891E-001	1.01029E-004	0.00000E+000	3.80770E-005	5.99601E-002	3.76964E-001	3.58000E+000	9	...........
	18	0.253333	3.90704E-001	9.99697E-005	0.00000E+000	3.90585E-005	5.99601E-002	3.90780E-001	3.58000E+000	9	...........
	19	0.266667	4.04442E-001	1.02008E-004	0.00000E+000	4.12562E-005	5.99601E-002	4.04524E-001	3.58000E+000	9	...........
	20	0.28	4.18085E-001	1.01118E-004	0.00000E+000	4.22759E-005	5.99601E-002	4.18174E-001	3.58000E+000	9	...........
	21	0.293333	4.31628E-001	1.01425E-004	0.00000E+000	4.37780E-005	5.99601E-002	4.31723E-001	3.58000E+000	9	...........
	22	0.306667	4.45043E-001	1.00209E-004	0.00000E+000	4.45975E-005	5.99601E-002	4.45136E-001	3.58000E+000	9	...........
	23	0.32	4.58317E-001	1.00766E-004	0.00000E+000	4.61826E-005	5.99601E-002	4.58412E-001	3.58000E+000	9	...........
	24	0.333333	4.71429E-001	1.00084E-004	0.00000E+000	4.71827E-005	5.99601E-002	4.71531E-001	3.58000E+000	9	...........
	25	0.346667	4.84362E-001	1.01135E-004	0.00000E+000	4.89858E-005	5.99601E-002	4.84461E-001	3.58000E+000	9	...........
	26	0.36	4.97103E-001	1.01811E-004	0.00000E+000	5.06104E-005	5.99601E-002	4.97211E-001	3.58000E+000	9	...........
	27	0.373333	5.09654E-001	1.01202E-004	0.00000E+000	5.15781E-005	5.99601E-002	5.09760E-001	3.58000E+000	9	...........
	28	0.386667	5.21983E-001	1.00011E-004	0.00000E+000	5.22043E-005	5.99601E-002	5.22095E-001	3.58000E+000	9	...........
	29	0.4	5.33924E-001	1.01664E-004	0.00000E+000	5.42807E-005	5.99601E-002	5.34106E-001	3.58000E+000	9	...........
	30	0.413333	5.45651E-001	9.88841E-005	0.00000E+000	5.39562E-005	5.99601E-002	5.45912E-001	3.58000E+000	9	...........
	31	0.426667	5.57297E-001	1.00349E-004	0.00000E+000	5.59242E-005	5.99601E-002	5.57612E-001	3.58000E+000	9	...........
	32	0.44	5.68784E-001	1.01436E-004	0.00000E+000	5.76950E-005	5.99601E-002	5.69062E-001	3.58000E+000	9	...........
	33	0.453333	5.79977E-001	1.01215E-004	0.00000E+000	5.87022E-005	5.99601E-002	5.80293E-001	3.58000E+000	9	...........
	34	0.466667	5.91015E-001	1.00836E-004	0.00000E+000	5.95953E-005	5.99601E-002	5.91321E-001	3.58000E+000	9	...........
	35	0.48	6.01771E-001	1.00299E-004	0.00000E+000	6.03570E-005	5.99601E-002	6.02093E-001	3.58000E+000	9	...........
	36	0.493333	6.12359E-001	1.01190E-004	0.00000E+000	6.19645E-005	5.99601E-002	6.12666E-001	3.58000E+000	9	...........
	37	0.506667	6.22747E-001	1.02255E-004	0.00000E+000	6.36787E-005	5.99601E-002	6.23018E-001	3.58000E+000	9	...........
	38	0.52	6.32850E-001	1.00499E-004	0.00000E+000	6.36008E-005	5.99601E-002	6.33131E-001	3.58000E+000	9	...........
	39	0.533333	6.42788E-001	1.00864E-004	0.00000E+000	6.48339E-005	5.99601E-002	6.43068E-001	3.58000E+000	9	...........
	40	0.546667	6.52506E-001	1.01587E-004	0.00000E+000	6.62860E-005	5.99601E-002	6.52803E-001	3.58000E+000	9	...........
	41	0.56	6.62032E-001	1.00308E-004	0.00000E+000	6.64074E-005	5.99601E-002	6.62332E-001	3.58000E+000	9	...........
	42	0.573333	6.71392E-001	1.00297E-004	0.00000E+000	6.73385E-005	5.99601E-002	6.71669E-001	3.58000E+000	9	...........
	43	0.586667	6.80537E-001	1.01231E-004	0.00000E+000	6.88917E-005	5.99601E-002	6.80815E-001	3.58000E+000	9	...........
	44	0.6	6.89494E-001	1.01146E-004	0.00000E+000	6.97395E-005	5.99601E-002	6.89782E-001	3.58000E+000	9	...........
	45	0.613333	6.98291E-001	1.01434E-004	0.00000E+000	7.08301E-005	5.99601E-002	6.98552E-001	3.58000E+000	9	...........
	46	0.626667	7.06881E-001	1.00890E-004	0.00000E+000	7.13171E-005	5.99601E-002	7.07166E-001	3.58000E+000	9	...........
	47	0.64	7.15323E-001	1.01103E-004	0.00000E+000	7.23215E-005	5.99601E-002	7.15598E-001	3.58000E+000	9	...........
	48	0.653333	7.23665E-001	1.00228E-004	0.00000E+000	7.25316E-005	5.99601E-002	7.23880E-001	3.58000E+000	9	...........
	49	0.666667	7.31754E-001	1.01253E-004	0.00000E+000	7.40926E-005	5.99601E-002	7.32023E-001	3.58000E+000	9	...........
	50	0.68	7.39727E-001	1.01275E-004	0.00000E+000	7.49160E-005	5.99601E-002	7.39988E-001	3.58000E+000	9	...........
	51	0.693333	7.47556E-001	1.00898E-004	0.00000E+000	7.54270E-005	5.99601E-002	7.47825E-001	3.58000E+000	9	...........
	52	0.706667	7.55242E-001	1.00360E-004	0.00000E+000	7.57964E-005	5.99601E-002	7.55516E-001	3.58000E+000	9	...........
	53	0.72	7.62767E-001	1.01741E-004	0.00000E+000	7.76046E-005	5.99601E-002	7.63035E-001	3.58000E+000	9	...........
	54	0.733333	7.70185E-001	1.01046E-004	0.00000E+000	7.78241E-005	5.99601E-002	7.70467E-001	3.58000E+000	9	...........
	55	0.746667	7.77446E-001	1.01501E-004	0.00000E+000	7.89118E-005	5.99601E-002	7.77725E-001	3.58000E+000	9	...........
	56	0.76	7.84605E-001	1.01325E-004	0.00000E+000	7.95003E-005	5.99601E-002	7.84855E-001	3.58000E+000	9	...........
	57	0.773333	7.91585E-001	9.96530E-005	0.00000E+000	7.88838E-005	5.99601E-002	7.91881E-001	3.58000E+000	9	...........
	58	0.786667	7.98468E-001	1.01024E-004	0.00000E+000	8.06645E-005	5.99601E-002	7.98777E-001	3.58000E+000	9	...........
	59	0.8	8.05233E-001	1.02153E-004	0.00000E+000	8.22573E-005	5.99601E-002	8.05563E-001	3.58000E+000	9	...........
	60	0.813333	8.11862E-001	1.01042E-004	0.00000E+000	8.20320E-005	5.99601E-002	8.12201E-001	3.58000E+000	9	...........
	61	0.826667	8.18413E-001	1.00701E-004	0.00000E+000	8.24151E-005	5.99601E-002	8.18742E-001	3.58000E+000	9	...........
	62	0.84	8.24815E-001	1.00646E-004	0.00000E+000	8.30143E-005	5.99601E-002	8.25176E-001	3.58000E+000	9	...........
	63	0.853333	8.31135E-001	1.00320E-004	0.00000E+000	8.33793E-005	5.99601E-002	8.31477E-001	3.58000E+000	9	...........
	64	0.866667	8.37335E-001	1.00763E-004	0.00000E+000	8.43720E-005	5.99601E-002	8.37698E-001	3.58000E+000	9	...........
	65	0.88	8.43438E-001	1.00290E-004	0.00000E+000	8.45880E-005	5.99601E-002	8.43812E-001	3.58000E+000	9	...........
	66	0.893333	8.49462E-001	1.00755E-004	0.00000E+000	8.55878E-005	5.99601E-002	8.49836E-001	3.58000E+000	9	...........
	67	0.906667	8.55358E-001	1.00697E-004	0.00000E+000	8.61319E-005	5.99601E-002	8.55726E-001	3.58000E+000	9	...........
	68	0.92	8.61166E-001	1.00535E-004	0.00000E+000	8.65777E-005	5.99601E-002	8.61533E-001	3.58000E+000	9	...........
	69	0.933333	8.66872E-001	1.01784E-004	0.00000E+000	8.82334E-005	5.99601E-002	8.67279E-001	3.58000E+000	9	...........
	70	0.946667	8.72538E-001	1.01547E-004	0.00000E+000	8.86037E-005	5.99601E-002	8.72912E-001	3.58000E+000	9	...........
	71	0.96	8.78068E-001	1.01811E-004	0.00000E+000	8.93968E-005	5.99601E-002	8.78424E-001	3.57990E+000	9	...........
	72	0.97333	8.83504E-001	1.00986E-004	0.00000E+000	8.92212E-005	5.99601E-002	8.83846E-001	3.57960E+000	9	...........
	73	0.98667	8.88851E-001	1.01167E-004	0.00000E+000	8.99223E-005	5.99601E-002	8.89198E-001	3.57960E+000	9	...........
	74	1	8.94099E-001	1.01232E-004	0.00000E+000	9.05119E-005	5.99601E-002	8.94454E-001	3.57960E+000	9	...........
	75	1.01333	8.99279E-001	1.01697E-004	0.00000E+000	9.14541E-005	5.99601E-002	8.99643E-001	3.57960E+000	9	...........
	76	1.02667	9.04373E-001	1.00554E-004	0.00000E+000	9.09385E-005	5.99601E-002	9.04719E-001	3.57960E+000	9	...........
	77	1.04	9.09388E-001	1.01823E-004	0.00000E+000	9.25968E-005	5.99601E-002	9.09717E-001	3.57960E+000	9	...........
	78	1.05333	9.14304E-001	1.00037E-004	0.00000E+000	9.14647E-005	5.99601E-002	9.14662E-001	3.57960E+000	9	...........
	79	1.06667	9.19142E-001	1.01242E-004	0.00000E+000	9.30557E-005	5.99601E-002	9.19495E-001	3.57960E+000	9	...........
	80	1.08	9.23987E-001	1.00346E-004	0.00000E+000	9.27182E-005	5.99601E-002	9.24258E-001	3.57960E+000	9	...........
	81	1.09333	9.28626E-001	1.00341E-004	0.00000E+000	9.31789E-005	5.99601E-002	9.28968E-001	3.57960E+000	9	...........
	82	1.10667	9.33244E-001	1.01537E-004	0.00000E+000	9.47585E-005	5.99601E-002	9.33539E-001	3.57960E+000	9	...........
	83	1.12	9.37771E-001	1.01033E-004	0.00000E+000	9.47462E-005	5.99601E-002	9.38075E-001	3.57960E+000	9	...........
	84	1.13333	9.42190E-001	1.00252E-004	0.00000E+000	9.44565E-005	5.99601E-002	9.42505E-001	3.57960E+000	9	...........
	85	1.14667	9.46595E-001	1.00529E-004	0.00000E+000	9.51604E-005	5.99601E-002	9.46911E-001	3.57960E+000	9	...........
	86	1.16	9.50870E-001	1.00806E-004	0.00000E+000	9.58538E-005	5.99601E-002	9.51219E-001	3.57960E+000	9	...........
	87	1.17333	9.55102E-001	1.01143E-004	0.00000E+000	9.66018E-005	5.99601E-002	9.55415E-001	3.57960E+000	9	...........
	88	1.18667	9.59238E-001	1.01376E-004	0.00000E+000	9.72440E-005	5.99601E-002	9.59563E-001	3.57960E+000	9	...........
	89	1.2	9.63277E-001	1.01100E-004	0.00000E+000	9.73875E-005	5.99601E-002	9.63643E-001	3.57960E+000	9	...........
	90	1.21333	9.67276E-001	1.00836E-004	0.00000E+000	9.75358E-005	5.99601E-002	9.67613E-001	3.57960E+000	9	...........
	91	1.22667	9.71185E-001	1.00749E-004	0.00000E+000	9.78460E-005	5.99601E-002	9.71569E-001	3.57960E+000	9	...........
	92	1.24	9.75084E-001	1.01070E-004	0.00000E+000	9.85517E-005	5.99601E-002	9.75408E-001	3.57960E+000	9	...........
	93	1.25333	9.78841E-001	1.00696E-004	0.00000E+000	9.85653E-005	5.99601E-002	9.79194E-001	3.57960E+000	9	...........
	94	1.26667	9.82537E-001	1.01330E-004	0.00000E+000	9.95609E-005	5.99601E-002	9.82881E-001	3.57960E+000	9	...........
	95	1.28	9.86136E-001	1.00480E-004	0.00000E+000	9.90872E-005	5.99601E-002	9.86509E-001	3.57960E+000	9	...........
	96	1.29333	9.89711E-001	1.00515E-004	0.00000E+000	9.94804E-005	5.99601E-002	9.90069E-001	3.57960E+000	9	...........
	97	1.30667	9.93157E-001	1.01673E-004	0.00000E+000	1.00977E-004	5.99601E-002	9.93540E-001	3.57960E+000	9	...........
	98	1.32	9.96589E-001	1.01928E-004	0.00000E+000	1.01581E-004	5.99601E-002	9.96982E-001	3.57960E+000	9	...........
	99	1.32833	9.99336E-001	1.00256E-004	0.00000E+000	1.00190E-004	5.99601E-002	9.99705E-001	3.57960E+000	9	...........
STARTTIMEOFFSET	QUANT	188.5699	Start Time Offset (s)
