EXPLAIN
TAG	PWR800_CHARGE
TITLE	LABEL	PWR Cyclic Charge Discharge (Cell) - Charge Step	Test &Identifier
DATE	LABEL	13-7-2017	Date
TIME	LABEL	15:12:11	Time
NOTES	NOTES	2	&Notes...
	supercap test cell
	6M KOH
PSTAT	PSTAT	IFC5000-01520	Potentiostat
CAPACITY	QUANT	1.00000E-003	Capacity (A-hr)
CELLTYPE	SELECTOR	1	&Cell Type
WORKINGCONNECTION	SELECTOR	0	&Working Lead
MAXCHARGETIME	VARIABLEANDUNITS	1.00000E+002	s	1.00000E+002	second(s)	Max &Charge Time
CHARGECURRENT	QUANT	1.00000E-004	&Charge Current (A) 
VOLTAGEFINISH	TWOPARAM	F	1.00000E-003	3.60000E+003	&Voltage Finish	 I (A) < 	Max Time(s)
SAMPLETIME	QUANT	1.00000E-002	Sa&mple Period (s)
CHARGESTOPAT1	MULTIPARAM	4	1.00000E+000	Charge Stop At &1	Voltage > Limit	V
CHARGESTOPAT2	MULTIPARAM	0	0.00000E+000	Charge Stop At &2	None	N/A
AESBHCSELECTOR	TOGGLE	F	Save Both Half Cells
IRCOMP	TOGGLE	F	IR &Measure
EOC	QUANT	0	Open Circuit (V)
SEQUENCER	TOGGLE	TRUE	Run as Sequence
PSTATMODEL	IQUANT	53	Pstat Model
PSTATSECTION	LABEL	IFC5000-01520	Pstat Section
PSTATSERIALNO	LABEL	01520	Pstat Serial Number
CTRLMODE	IQUANT	0	Control Mode
ELECTROMETER	IQUANT	1	RE=0 or CS=1
IESTAB	IQUANT	0	I/E Stability
CASPEED	IQUANT	4	Control Amp Speed
CONVENTION	IQUANT	1	Current Convention
ICHRANGE	IQUANT	2	Ich Range
ICHRANGEMODE	TOGGLE	T	Ich Auto Range
ICHOFFSETENABLE	TOGGLE	F	Ich Offset Enable
ICHOFFSET	QUANT	0	Ich Offset (V)
ICHFILTER	IQUANT	1	Ich Filter
VCHRANGE	IQUANT	2	Vch Range
VCHRANGEMODE	TOGGLE	T	Vch Auto Range
VCHOFFSETENABLE	TOGGLE	F	Vch Offset Enable
VCHOFFSET	QUANT	0	Vch Offset (V)
VCHFILTER	IQUANT	1	Vch Filter
IERANGELOWERLIMIT	IQUANT	9	I/E Range Lower Limit
IERANGEMODE	TOGGLE	F	I/E AutoRange
IERANGE	IQUANT	9	I/E Range
ACHSELECT	IQUANT	1	Ach Select
ACHRANGE	IQUANT	2	Ach Range
ACHOFFSETENABLE	TOGGLE	F	Ach Offset Enable
ACHOFFSET	QUANT	0	Ach Offset (V)
ACHFILTER	IQUANT	1	Ach Filter
CABLEID	IQUANT	14	Cable ID
DCCALDATE	LABEL	5-7-2017	DC Calibration Date
ACCALDATE	LABEL	12/3/2015	AC Calibration Date
FRAMEWORKVERSION	QUANT	7.01	Framework Version
INSTRUMENTVERSION	LABEL	4.00	Instrument Version
CURVE	TABLE	97
	Pt	T	Vf	Im	Vu	Pwr	Sig	Ach	Temp	IERange	Over
	#	s	V	A	V	W	V	V	deg C	#	bits
	0	0.013333	1.32315E-001	9.99051E-005	0.00000E+000	1.32189E-005	5.99601E-002	1.32343E-001	3.58020E+000	9	...........
	1	0.026667	1.47532E-001	1.00841E-004	0.00000E+000	1.48772E-005	5.99601E-002	1.47546E-001	3.58020E+000	9	...........
	2	0.04	1.62302E-001	1.00315E-004	0.00000E+000	1.62812E-005	5.99601E-002	1.62322E-001	3.58020E+000	9	...........
	3	0.053333	1.76799E-001	1.00783E-004	0.00000E+000	1.78184E-005	5.99601E-002	1.76829E-001	3.58020E+000	9	...........
	4	0.066667	1.91109E-001	1.01251E-004	0.00000E+000	1.93500E-005	5.99601E-002	1.91143E-001	3.58020E+000	9	...........
	5	0.08	2.05275E-001	1.00607E-004	0.00000E+000	2.06522E-005	5.99601E-002	2.05310E-001	3.58020E+000	9	...........
	6	0.093333	2.19337E-001	1.01323E-004	0.00000E+000	2.22239E-005	5.99601E-002	2.19371E-001	3.58020E+000	9	...........
	7	0.106667	2.33320E-001	1.00838E-004	0.00000E+000	2.35274E-005	5.99601E-002	2.33362E-001	3.58020E+000	9	...........
	8	0.12	2.47252E-001	1.01833E-004	0.00000E+000	2.51783E-005	5.99601E-002	2.47293E-001	3.58020E+000	9	...........
	9	0.133333	2.61136E-001	1.01390E-004	0.00000E+000	2.64766E-005	5.99601E-002	2.61188E-001	3.58020E+000	9	...........
	10	0.146667	2.75011E-001	1.00881E-004	0.00000E+000	2.77435E-005	5.99601E-002	2.75065E-001	3.58020E+000	9	...........
	11	0.16	2.88869E-001	1.00531E-004	0.00000E+000	2.90404E-005	5.99601E-002	2.88928E-001	3.58020E+000	9	...........
	12	0.173333	3.02728E-001	1.00266E-004	0.00000E+000	3.03533E-005	5.99601E-002	3.02785E-001	3.58020E+000	9	...........
	13	0.186667	3.16577E-001	1.00735E-004	0.00000E+000	3.18906E-005	5.99601E-002	3.16640E-001	3.58020E+000	9	...........
	14	0.2	3.30430E-001	1.00758E-004	0.00000E+000	3.32936E-005	5.99601E-002	3.30497E-001	3.58020E+000	9	...........
	15	0.213333	3.44283E-001	1.00588E-004	0.00000E+000	3.46306E-005	5.99601E-002	3.44348E-001	3.58020E+000	9	...........
	16	0.226667	3.58131E-001	1.00739E-004	0.00000E+000	3.60777E-005	5.99601E-002	3.58201E-001	3.58020E+000	9	...........
	17	0.24	3.71964E-001	1.00709E-004	0.00000E+000	3.74603E-005	5.99601E-002	3.72036E-001	3.58020E+000	9	...........
	18	0.253333	3.85779E-001	1.01420E-004	0.00000E+000	3.91257E-005	5.99601E-002	3.85853E-001	3.58020E+000	9	...........
	19	0.266667	3.99561E-001	1.00535E-004	0.00000E+000	4.01701E-005	5.99601E-002	3.99635E-001	3.58020E+000	9	...........
	20	0.28	4.13278E-001	1.01573E-004	0.00000E+000	4.19780E-005	5.99601E-002	4.13368E-001	3.58020E+000	9	...........
	21	0.293333	4.26938E-001	1.00491E-004	0.00000E+000	4.29033E-005	5.99601E-002	4.27027E-001	3.58020E+000	9	...........
	22	0.306667	4.40502E-001	1.00381E-004	0.00000E+000	4.42181E-005	5.99601E-002	4.40589E-001	3.58020E+000	9	...........
	23	0.32	4.53953E-001	1.00181E-004	0.00000E+000	4.54775E-005	5.99601E-002	4.54045E-001	3.58020E+000	9	...........
	24	0.333333	4.67279E-001	1.01336E-004	0.00000E+000	4.73520E-005	5.99601E-002	4.67375E-001	3.57900E+000	9	...........
	25	0.346667	4.80458E-001	1.01291E-004	0.00000E+000	4.86659E-005	5.99601E-002	4.80556E-001	3.57900E+000	9	...........
	26	0.36	4.93466E-001	1.01174E-004	0.00000E+000	4.99260E-005	5.99601E-002	4.93571E-001	3.57900E+000	9	...........
	27	0.373333	5.06304E-001	1.00901E-004	0.00000E+000	5.10866E-005	5.99601E-002	5.06411E-001	3.57900E+000	9	...........
	28	0.386667	5.18950E-001	1.00658E-004	0.00000E+000	5.22366E-005	5.99601E-002	5.19062E-001	3.57900E+000	9	...........
	29	0.4	5.31297E-001	1.01276E-004	0.00000E+000	5.38077E-005	5.99601E-002	5.31453E-001	3.57900E+000	9	...........
	30	0.413333	5.43298E-001	1.00791E-004	0.00000E+000	5.47594E-005	5.99601E-002	5.43552E-001	3.57900E+000	9	...........
	31	0.426667	5.55294E-001	1.01310E-004	0.00000E+000	5.62566E-005	5.99601E-002	5.55594E-001	3.57900E+000	9	...........
	32	0.44	5.67115E-001	1.00119E-004	0.00000E+000	5.67788E-005	5.99601E-002	5.67405E-001	3.57900E+000	9	...........
	33	0.453333	5.78704E-001	1.00932E-004	0.00000E+000	5.84100E-005	5.99601E-002	5.78980E-001	3.57900E+000	9	...........
	34	0.466667	5.90063E-001	1.01549E-004	0.00000E+000	5.99205E-005	5.99601E-002	5.90356E-001	3.57900E+000	9	...........
	35	0.48	6.01187E-001	1.00873E-004	0.00000E+000	6.06436E-005	5.99601E-002	6.01500E-001	3.57900E+000	9	...........
	36	0.493333	6.12121E-001	9.98228E-005	0.00000E+000	6.11037E-005	5.99601E-002	6.12426E-001	3.57900E+000	9	...........
	37	0.506667	6.22832E-001	1.01693E-004	0.00000E+000	6.33376E-005	5.99601E-002	6.23103E-001	3.57900E+000	9	...........
	38	0.52	6.33327E-001	1.00459E-004	0.00000E+000	6.36236E-005	5.99601E-002	6.33596E-001	3.57900E+000	9	...........
	39	0.533333	6.43606E-001	1.00821E-004	0.00000E+000	6.48889E-005	5.99601E-002	6.43884E-001	3.57900E+000	9	...........
	40	0.546667	6.53687E-001	1.01760E-004	0.00000E+000	6.65189E-005	5.99601E-002	6.53943E-001	3.57900E+000	9	...........
	41	0.56	6.63545E-001	1.00667E-004	0.00000E+000	6.67970E-005	5.99601E-002	6.63809E-001	3.57900E+000	9	...........
	42	0.573333	6.73233E-001	1.01091E-004	0.00000E+000	6.80576E-005	5.99601E-002	6.73489E-001	3.57900E+000	9	...........
	43	0.586667	6.82702E-001	1.00924E-004	0.00000E+000	6.89011E-005	5.99601E-002	6.82978E-001	3.57900E+000	9	...........
	44	0.6	6.91993E-001	1.01246E-004	0.00000E+000	7.00616E-005	5.99601E-002	6.92285E-001	3.57900E+000	9	...........
	45	0.613333	7.01106E-001	1.01012E-004	0.00000E+000	7.08198E-005	5.99601E-002	7.01384E-001	3.57900E+000	9	...........
	46	0.626667	7.10024E-001	1.00826E-004	0.00000E+000	7.15890E-005	5.99601E-002	7.10328E-001	3.57900E+000	9	...........
	47	0.64	7.18826E-001	1.01026E-004	0.00000E+000	7.26202E-005	5.99601E-002	7.19121E-001	3.57900E+000	9	...........
	48	0.653333	7.27417E-001	1.01595E-004	0.00000E+000	7.39019E-005	5.99601E-002	7.27699E-001	3.57900E+000	9	...........
	49	0.666667	7.35817E-001	1.00172E-004	0.00000E+000	7.37082E-005	5.99601E-002	7.36144E-001	3.57900E+000	9	...........
	50	0.68	7.44103E-001	1.00302E-004	0.00000E+000	7.46350E-005	5.99601E-002	7.44421E-001	3.57900E+000	9	...........
	51	0.693333	7.52206E-001	1.00364E-004	0.00000E+000	7.54940E-005	5.99601E-002	7.52529E-001	3.57900E+000	9	...........
	52	0.706667	7.60181E-001	1.00709E-004	0.00000E+000	7.65574E-005	5.99601E-002	7.60476E-001	3.57900E+000	9	...........
	53	0.72	7.68002E-001	1.00993E-004	0.00000E+000	7.75627E-005	5.99601E-002	7.68319E-001	3.57900E+000	9	...........
	54	0.733333	7.75679E-001	1.00544E-004	0.00000E+000	7.79897E-005	5.99601E-002	7.75990E-001	3.57900E+000	9	...........
	55	0.746667	7.83223E-001	1.00681E-004	0.00000E+000	7.88560E-005	5.99601E-002	7.83525E-001	3.57900E+000	9	...........
	56	0.76	7.90614E-001	1.00186E-004	0.00000E+000	7.92088E-005	5.99601E-002	7.90914E-001	3.57900E+000	9	...........
	57	0.773333	7.97885E-001	1.01062E-004	0.00000E+000	8.06356E-005	5.99601E-002	7.98185E-001	3.57900E+000	9	...........
	58	0.786667	8.05000E-001	1.00723E-004	0.00000E+000	8.10820E-005	5.99601E-002	8.05330E-001	3.57900E+000	9	...........
	59	0.8	8.11974E-001	1.00488E-004	0.00000E+000	8.15933E-005	5.99601E-002	8.12330E-001	3.57900E+000	9	...........
	60	0.813333	8.18875E-001	1.01541E-004	0.00000E+000	8.31493E-005	5.99601E-002	8.19241E-001	3.57900E+000	9	...........
	61	0.826667	8.25648E-001	1.00870E-004	0.00000E+000	8.32830E-005	5.99601E-002	8.26003E-001	3.57900E+000	9	...........
	62	0.84	8.32287E-001	1.00612E-004	0.00000E+000	8.37376E-005	5.99601E-002	8.32637E-001	3.57900E+000	9	...........
	63	0.853333	8.38814E-001	1.01351E-004	0.00000E+000	8.50148E-005	5.99601E-002	8.39159E-001	3.57900E+000	9	...........
	64	0.866667	8.45238E-001	1.01578E-004	0.00000E+000	8.58579E-005	5.99601E-002	8.45600E-001	3.57900E+000	9	...........
	65	0.88	8.51566E-001	1.00852E-004	0.00000E+000	8.58823E-005	5.99601E-002	8.51923E-001	3.57900E+000	9	...........
	66	0.893333	8.57765E-001	1.01224E-004	0.00000E+000	8.68265E-005	5.99601E-002	8.58151E-001	3.57900E+000	9	...........
	67	0.906667	8.63868E-001	1.01035E-004	0.00000E+000	8.72805E-005	5.99601E-002	8.64214E-001	3.57900E+000	9	...........
	68	0.92	8.69898E-001	1.00282E-004	0.00000E+000	8.72353E-005	5.99601E-002	8.70254E-001	3.57900E+000	9	...........
	69	0.933333	8.75801E-001	1.01415E-004	0.00000E+000	8.88192E-005	5.99601E-002	8.76188E-001	3.57900E+000	9	...........
	70	0.946667	8.81640E-001	1.00572E-004	0.00000E+000	8.86682E-005	5.99601E-002	8.81967E-001	3.57900E+000	9	...........
	71	0.96	8.87323E-001	1.00801E-004	0.00000E+000	8.94432E-005	5.99601E-002	8.87680E-001	3.57900E+000	9	...........
	72	0.97333	8.92936E-001	1.00627E-004	0.00000E+000	8.98536E-005	5.99601E-002	8.93293E-001	3.57900E+000	9	...........
	73	0.98667	8.98451E-001	1.00070E-004	0.00000E+000	8.99077E-005	5.99601E-002	8.98842E-001	3.57900E+000	9	...........
	74	1	9.03878E-001	1.01096E-004	0.00000E+000	9.13784E-005	5.99601E-002	9.04259E-001	3.57900E+000	9	...........
	75	1.01333	9.09221E-001	1.00458E-004	0.00000E+000	9.13389E-005	5.99601E-002	9.09568E-001	3.57900E+000	9	...........
	76	1.02667	9.14427E-001	1.00309E-004	0.00000E+000	9.17256E-005	5.99601E-002	9.14808E-001	3.57900E+000	9	...........
	77	1.04	9.19594E-001	1.01200E-004	0.00000E+000	9.30631E-005	5.99601E-002	9.19950E-001	3.57900E+000	9	...........
	78	1.05333	9.24686E-001	1.02002E-004	0.00000E+000	9.43202E-005	5.99601E-002	9.25017E-001	3.57900E+000	9	...........
	79	1.06667	9.29653E-001	1.00663E-004	0.00000E+000	9.35812E-005	5.99601E-002	9.29980E-001	3.57900E+000	9	...........
	80	1.08	9.34511E-001	1.01542E-004	0.00000E+000	9.48920E-005	5.99601E-002	9.34867E-001	3.57900E+000	9	...........
	81	1.09333	9.39297E-001	1.00555E-004	0.00000E+000	9.44513E-005	5.99601E-002	9.39649E-001	3.57900E+000	9	...........
	82	1.10667	9.43997E-001	1.01534E-004	0.00000E+000	9.58474E-005	5.99601E-002	9.44345E-001	3.57900E+000	9	...........
	83	1.12	9.48667E-001	1.00538E-004	0.00000E+000	9.53767E-005	5.99601E-002	9.48980E-001	3.57900E+000	9	...........
	84	1.13333	9.53179E-001	1.01512E-004	0.00000E+000	9.67588E-005	5.99601E-002	9.53503E-001	3.57900E+000	9	...........
	85	1.14667	9.57612E-001	1.00563E-004	0.00000E+000	9.62999E-005	5.99601E-002	9.57956E-001	3.57900E+000	9	...........
	86	1.16	9.61989E-001	1.01163E-004	0.00000E+000	9.73174E-005	5.99601E-002	9.62330E-001	3.57900E+000	9	...........
	87	1.17333	9.66261E-001	1.00826E-004	0.00000E+000	9.74244E-005	5.99601E-002	9.66630E-001	3.57900E+000	9	...........
	88	1.18667	9.70450E-001	1.00845E-004	0.00000E+000	9.78649E-005	5.99601E-002	9.70850E-001	3.57900E+000	9	...........
	89	1.2	9.74618E-001	1.00677E-004	0.00000E+000	9.81218E-005	5.99601E-002	9.74986E-001	3.57900E+000	9	...........
	90	1.21333	9.78653E-001	1.00499E-004	0.00000E+000	9.83537E-005	5.99601E-002	9.79009E-001	3.57900E+000	9	...........
	91	1.22667	9.82597E-001	1.01309E-004	0.00000E+000	9.95455E-005	5.99601E-002	9.82961E-001	3.57900E+000	9	...........
	92	1.24	9.86481E-001	1.00662E-004	0.00000E+000	9.93007E-005	5.99601E-002	9.86864E-001	3.57900E+000	9	...........
	93	1.25333	9.90267E-001	1.00694E-004	0.00000E+000	9.97138E-005	5.99601E-002	9.90650E-001	3.57900E+000	9	...........
	94	1.26667	9.93981E-001	1.01906E-004	0.00000E+000	1.01292E-004	5.99601E-002	9.94357E-001	3.57900E+000	9	...........
	95	1.28	9.97618E-001	1.01017E-004	0.00000E+000	1.00776E-004	5.99601E-002	9.98022E-001	3.57900E+000	9	...........
	96	1.28333	9.99851E-001	1.00410E-004	0.00000E+000	1.00395E-004	5.99601E-002	1.00026E+000	3.57900E+000	9	...........
STARTTIMEOFFSET	QUANT	458.7916	Start Time Offset (s)
