EXPLAIN
TAG	PWR800_CHARGE
TITLE	LABEL	PWR Cyclic Charge Discharge (Cell) - Charge Step	Test &Identifier
DATE	LABEL	13-7-2017	Date
TIME	LABEL	15:07:14	Time
NOTES	NOTES	2	&Notes...
	supercap test cell
	6M KOH
PSTAT	PSTAT	IFC5000-01520	Potentiostat
CAPACITY	QUANT	1.00000E-003	Capacity (A-hr)
CELLTYPE	SELECTOR	1	&Cell Type
WORKINGCONNECTION	SELECTOR	0	&Working Lead
MAXCHARGETIME	VARIABLEANDUNITS	1.00000E+002	s	1.00000E+002	second(s)	Max &Charge Time
CHARGECURRENT	QUANT	1.00000E-004	&Charge Current (A) 
VOLTAGEFINISH	TWOPARAM	F	1.00000E-003	3.60000E+003	&Voltage Finish	 I (A) < 	Max Time(s)
SAMPLETIME	QUANT	1.00000E-002	Sa&mple Period (s)
CHARGESTOPAT1	MULTIPARAM	4	1.00000E+000	Charge Stop At &1	Voltage > Limit	V
CHARGESTOPAT2	MULTIPARAM	0	0.00000E+000	Charge Stop At &2	None	N/A
AESBHCSELECTOR	TOGGLE	F	Save Both Half Cells
IRCOMP	TOGGLE	F	IR &Measure
EOC	QUANT	0	Open Circuit (V)
SEQUENCER	TOGGLE	TRUE	Run as Sequence
PSTATMODEL	IQUANT	53	Pstat Model
PSTATSECTION	LABEL	IFC5000-01520	Pstat Section
PSTATSERIALNO	LABEL	01520	Pstat Serial Number
CTRLMODE	IQUANT	0	Control Mode
ELECTROMETER	IQUANT	1	RE=0 or CS=1
IESTAB	IQUANT	0	I/E Stability
CASPEED	IQUANT	4	Control Amp Speed
CONVENTION	IQUANT	1	Current Convention
ICHRANGE	IQUANT	2	Ich Range
ICHRANGEMODE	TOGGLE	T	Ich Auto Range
ICHOFFSETENABLE	TOGGLE	F	Ich Offset Enable
ICHOFFSET	QUANT	0	Ich Offset (V)
ICHFILTER	IQUANT	1	Ich Filter
VCHRANGE	IQUANT	2	Vch Range
VCHRANGEMODE	TOGGLE	T	Vch Auto Range
VCHOFFSETENABLE	TOGGLE	F	Vch Offset Enable
VCHOFFSET	QUANT	0	Vch Offset (V)
VCHFILTER	IQUANT	1	Vch Filter
IERANGELOWERLIMIT	IQUANT	9	I/E Range Lower Limit
IERANGEMODE	TOGGLE	F	I/E AutoRange
IERANGE	IQUANT	9	I/E Range
ACHSELECT	IQUANT	1	Ach Select
ACHRANGE	IQUANT	2	Ach Range
ACHOFFSETENABLE	TOGGLE	F	Ach Offset Enable
ACHOFFSET	QUANT	0	Ach Offset (V)
ACHFILTER	IQUANT	1	Ach Filter
CABLEID	IQUANT	14	Cable ID
DCCALDATE	LABEL	5-7-2017	DC Calibration Date
ACCALDATE	LABEL	12/3/2015	AC Calibration Date
FRAMEWORKVERSION	QUANT	7.01	Framework Version
INSTRUMENTVERSION	LABEL	4.00	Instrument Version
CURVE	TABLE	99
	Pt	T	Vf	Im	Vu	Pwr	Sig	Ach	Temp	IERange	Over
	#	s	V	A	V	W	V	V	deg C	#	bits
	0	0.013333	1.34169E-001	1.00579E-004	0.00000E+000	1.34946E-005	5.99601E-002	1.34200E-001	3.58020E+000	9	...........
	1	0.026667	1.49569E-001	1.01264E-004	0.00000E+000	1.51459E-005	5.99601E-002	1.49590E-001	3.58020E+000	9	...........
	2	0.04	1.64521E-001	1.01925E-004	0.00000E+000	1.67688E-005	5.99601E-002	1.64544E-001	3.58020E+000	9	...........
	3	0.053333	1.79206E-001	1.01374E-004	0.00000E+000	1.81669E-005	5.99601E-002	1.79234E-001	3.58020E+000	9	...........
	4	0.066667	1.93691E-001	1.00744E-004	0.00000E+000	1.95131E-005	5.99601E-002	1.93720E-001	3.58020E+000	9	...........
	5	0.08	2.08026E-001	1.00224E-004	0.00000E+000	2.08492E-005	5.99601E-002	2.08066E-001	3.58020E+000	9	...........
	6	0.093333	2.22262E-001	1.00701E-004	0.00000E+000	2.23820E-005	5.99601E-002	2.22295E-001	3.58020E+000	9	...........
	7	0.106667	2.36414E-001	1.01038E-004	0.00000E+000	2.38867E-005	5.99601E-002	2.36453E-001	3.58020E+000	9	...........
	8	0.12	2.50503E-001	1.01751E-004	0.00000E+000	2.54890E-005	5.99601E-002	2.50552E-001	3.58020E+000	9	...........
	9	0.133333	2.64544E-001	1.00816E-004	0.00000E+000	2.66702E-005	5.99601E-002	2.64598E-001	3.58020E+000	9	...........
	10	0.146667	2.78559E-001	1.01485E-004	0.00000E+000	2.82695E-005	5.99601E-002	2.78608E-001	3.58020E+000	9	...........
	11	0.16	2.92543E-001	1.00434E-004	0.00000E+000	2.93814E-005	5.99601E-002	2.92604E-001	3.58020E+000	9	...........
	12	0.173333	3.06519E-001	1.01045E-004	0.00000E+000	3.09722E-005	5.99601E-002	3.06587E-001	3.58020E+000	9	...........
	13	0.186667	3.20482E-001	1.01334E-004	0.00000E+000	3.24755E-005	5.99601E-002	3.20546E-001	3.58020E+000	9	...........
	14	0.2	3.34417E-001	1.00595E-004	0.00000E+000	3.36406E-005	5.99601E-002	3.34481E-001	3.58020E+000	9	...........
	15	0.213333	3.48336E-001	1.00525E-004	0.00000E+000	3.50165E-005	5.99601E-002	3.48408E-001	3.58020E+000	9	...........
	16	0.226667	3.62233E-001	1.00625E-004	0.00000E+000	3.64497E-005	5.99601E-002	3.62303E-001	3.57913E+000	9	...........
	17	0.24	3.76084E-001	1.00069E-004	0.00000E+000	3.76342E-005	5.99601E-002	3.76158E-001	3.57910E+000	9	...........
	18	0.253333	3.89887E-001	1.00720E-004	0.00000E+000	3.92694E-005	5.99601E-002	3.89962E-001	3.57910E+000	9	...........
	19	0.266667	4.03623E-001	1.01334E-004	0.00000E+000	4.09005E-005	5.99601E-002	4.03702E-001	3.57910E+000	9	...........
	20	0.28	4.17271E-001	1.00505E-004	0.00000E+000	4.19379E-005	5.99601E-002	4.17363E-001	3.57910E+000	9	...........
	21	0.293333	4.30835E-001	1.00520E-004	0.00000E+000	4.33074E-005	5.99601E-002	4.30918E-001	3.57910E+000	9	...........
	22	0.306667	4.44266E-001	1.01113E-004	0.00000E+000	4.49209E-005	5.99601E-002	4.44368E-001	3.57910E+000	9	...........
	23	0.32	4.57576E-001	1.00776E-004	0.00000E+000	4.61127E-005	5.99601E-002	4.57669E-001	3.57910E+000	9	...........
	24	0.333333	4.70728E-001	1.01007E-004	0.00000E+000	4.75470E-005	5.99601E-002	4.70825E-001	3.57910E+000	9	...........
	25	0.346667	4.83711E-001	1.00911E-004	0.00000E+000	4.88115E-005	5.99601E-002	4.83813E-001	3.57910E+000	9	...........
	26	0.36	4.96509E-001	1.01116E-004	0.00000E+000	5.02049E-005	5.99601E-002	4.96616E-001	3.57910E+000	9	...........
	27	0.373333	5.09109E-001	1.00350E-004	0.00000E+000	5.10891E-005	5.99601E-002	5.09220E-001	3.57910E+000	9	...........
	28	0.386667	5.21505E-001	1.00701E-004	0.00000E+000	5.25161E-005	5.99601E-002	5.21615E-001	3.57910E+000	9	...........
	29	0.4	5.33547E-001	1.00534E-004	0.00000E+000	5.36398E-005	5.99601E-002	5.33664E-001	3.57910E+000	9	...........
	30	0.413333	5.45287E-001	1.01163E-004	0.00000E+000	5.51627E-005	5.99601E-002	5.45532E-001	3.57910E+000	9	...........
	31	0.426667	5.57010E-001	1.01167E-004	0.00000E+000	5.63509E-005	5.99601E-002	5.57255E-001	3.57910E+000	9	...........
	32	0.44	5.68563E-001	1.00453E-004	0.00000E+000	5.71139E-005	5.99601E-002	5.68811E-001	3.57910E+000	9	...........
	33	0.453333	5.79824E-001	1.00677E-004	0.00000E+000	5.83751E-005	5.99601E-002	5.80103E-001	3.57910E+000	9	...........
	34	0.466667	5.90904E-001	1.01086E-004	0.00000E+000	5.97318E-005	5.99601E-002	5.91215E-001	3.57910E+000	9	...........
	35	0.48	6.01735E-001	9.99583E-005	0.00000E+000	6.01484E-005	5.99601E-002	6.02052E-001	3.57910E+000	9	...........
	36	0.493333	6.12380E-001	1.00895E-004	0.00000E+000	6.17860E-005	5.99601E-002	6.12686E-001	3.57910E+000	9	...........
	37	0.506667	6.22805E-001	1.01624E-004	0.00000E+000	6.32921E-005	5.99601E-002	6.23103E-001	3.57910E+000	9	...........
	38	0.52	6.32992E-001	1.01513E-004	0.00000E+000	6.42567E-005	5.99601E-002	6.33283E-001	3.57910E+000	9	...........
	39	0.533333	6.43007E-001	1.00599E-004	0.00000E+000	6.46858E-005	5.99601E-002	6.43317E-001	3.57910E+000	9	...........
	40	0.546667	6.52804E-001	1.00559E-004	0.00000E+000	6.56456E-005	5.99601E-002	6.53109E-001	3.57910E+000	9	...........
	41	0.56	6.62401E-001	9.98020E-005	0.00000E+000	6.61090E-005	5.99601E-002	6.62719E-001	3.57910E+000	9	...........
	42	0.573333	6.71836E-001	1.00795E-004	0.00000E+000	6.77176E-005	5.99601E-002	6.72145E-001	3.57910E+000	9	...........
	43	0.586667	6.81044E-001	1.00695E-004	0.00000E+000	6.85777E-005	5.99601E-002	6.81367E-001	3.57910E+000	9	...........
	44	0.6	6.90089E-001	1.02389E-004	0.00000E+000	7.06575E-005	5.99601E-002	6.90410E-001	3.57910E+000	9	...........
	45	0.613333	6.98962E-001	1.01032E-004	0.00000E+000	7.06179E-005	5.99601E-002	6.99260E-001	3.57910E+000	9	...........
	46	0.626667	7.07633E-001	1.00332E-004	0.00000E+000	7.09984E-005	5.99601E-002	7.07946E-001	3.57910E+000	9	...........
	47	0.64	7.16161E-001	1.00823E-004	0.00000E+000	7.22055E-005	5.99601E-002	7.16470E-001	3.57910E+000	9	...........
	48	0.653333	7.24543E-001	1.00339E-004	0.00000E+000	7.26996E-005	5.99601E-002	7.24810E-001	3.57910E+000	9	...........
	49	0.666667	7.32696E-001	1.01762E-004	0.00000E+000	7.45604E-005	5.99601E-002	7.33015E-001	3.57910E+000	9	...........
	50	0.68	7.40733E-001	9.97947E-005	0.00000E+000	7.39212E-005	5.99601E-002	7.41049E-001	3.57910E+000	9	...........
	51	0.693333	7.48642E-001	1.01781E-004	0.00000E+000	7.61972E-005	5.99601E-002	7.48942E-001	3.57910E+000	9	...........
	52	0.706667	7.56373E-001	9.92341E-005	0.00000E+000	7.50581E-005	5.99601E-002	7.56679E-001	3.57910E+000	9	...........
	53	0.72	7.63978E-001	1.01446E-004	0.00000E+000	7.75025E-005	5.99601E-002	7.64284E-001	3.57910E+000	9	...........
	54	0.733333	7.71434E-001	1.00977E-004	0.00000E+000	7.78973E-005	5.99601E-002	7.71742E-001	3.57910E+000	9	...........
	55	0.746667	7.78753E-001	1.00451E-004	0.00000E+000	7.82266E-005	5.99601E-002	7.79076E-001	3.57910E+000	9	...........
	56	0.76	7.85942E-001	1.00782E-004	0.00000E+000	7.92091E-005	5.99601E-002	7.86235E-001	3.57910E+000	9	...........
	57	0.773333	7.93020E-001	1.00465E-004	0.00000E+000	7.96704E-005	5.99601E-002	7.93319E-001	3.57910E+000	9	...........
	58	0.786667	7.99947E-001	1.01523E-004	0.00000E+000	8.12132E-005	5.99601E-002	8.00250E-001	3.57910E+000	9	...........
	59	0.8	8.06760E-001	1.01380E-004	0.00000E+000	8.17896E-005	5.99601E-002	8.07070E-001	3.57910E+000	9	...........
	60	0.813333	8.13443E-001	1.00191E-004	0.00000E+000	8.14994E-005	5.99601E-002	8.13771E-001	3.57910E+000	9	...........
	61	0.826667	8.20055E-001	1.01117E-004	0.00000E+000	8.29213E-005	5.99601E-002	8.20382E-001	3.57910E+000	9	...........
	62	0.84	8.26511E-001	1.00642E-004	0.00000E+000	8.31815E-005	5.99601E-002	8.26843E-001	3.57910E+000	9	...........
	63	0.853333	8.32860E-001	1.01442E-004	0.00000E+000	8.44869E-005	5.99601E-002	8.33232E-001	3.57910E+000	9	...........
	64	0.866667	8.39119E-001	1.01297E-004	0.00000E+000	8.50003E-005	5.99601E-002	8.39501E-001	3.57910E+000	9	...........
	65	0.88	8.45315E-001	1.01654E-004	0.00000E+000	8.59300E-005	5.99601E-002	8.45670E-001	3.57910E+000	9	...........
	66	0.893333	8.51327E-001	1.00775E-004	0.00000E+000	8.57926E-005	5.99601E-002	8.51709E-001	3.57910E+000	9	...........
	67	0.906667	8.57283E-001	1.00723E-004	0.00000E+000	8.63481E-005	5.99601E-002	8.57667E-001	3.57910E+000	9	...........
	68	0.92	8.63162E-001	1.00430E-004	0.00000E+000	8.66875E-005	5.99601E-002	8.63513E-001	3.57910E+000	9	...........
	69	0.933333	8.68933E-001	1.01388E-004	0.00000E+000	8.80991E-005	5.99601E-002	8.69267E-001	3.57910E+000	9	...........
	70	0.946667	8.74578E-001	1.00415E-004	0.00000E+000	8.78204E-005	5.99601E-002	8.74939E-001	3.57910E+000	9	...........
	71	0.96	8.80152E-001	1.02573E-004	0.00000E+000	9.02801E-005	5.99601E-002	8.80498E-001	3.57910E+000	9	...........
	72	0.97333	8.85624E-001	1.00722E-004	0.00000E+000	8.92018E-005	5.99601E-002	8.85977E-001	3.57910E+000	9	...........
	73	0.98667	8.91018E-001	9.94894E-005	0.00000E+000	8.86469E-005	5.99601E-002	8.91348E-001	3.57910E+000	9	...........
	74	1	8.96311E-001	1.00006E-004	0.00000E+000	8.96367E-005	5.99601E-002	8.96670E-001	3.57910E+000	9	...........
	75	1.01333	9.01513E-001	1.01652E-004	0.00000E+000	9.16410E-005	5.99601E-002	9.01867E-001	3.57910E+000	9	...........
	76	1.02667	9.06629E-001	1.00182E-004	0.00000E+000	9.08281E-005	5.99601E-002	9.07000E-001	3.57910E+000	9	...........
	77	1.04	9.11660E-001	9.95477E-005	0.00000E+000	9.07537E-005	5.99601E-002	9.12032E-001	3.57910E+000	9	...........
	78	1.05333	9.16614E-001	1.00925E-004	0.00000E+000	9.25094E-005	5.99601E-002	9.17004E-001	3.57910E+000	9	...........
	79	1.06667	9.21549E-001	1.01776E-004	0.00000E+000	9.37919E-005	5.99601E-002	9.21878E-001	3.57910E+000	9	...........
	80	1.08	9.26343E-001	9.99228E-005	0.00000E+000	9.25628E-005	5.99601E-002	9.26675E-001	3.57910E+000	9	...........
	81	1.09333	9.31034E-001	1.01085E-004	0.00000E+000	9.41132E-005	5.99601E-002	9.31389E-001	3.57910E+000	9	...........
	82	1.10667	9.35657E-001	1.00982E-004	0.00000E+000	9.44849E-005	5.99601E-002	9.36008E-001	3.57910E+000	9	...........
	83	1.12	9.40200E-001	1.00184E-004	0.00000E+000	9.41933E-005	5.99601E-002	9.40561E-001	3.57910E+000	9	...........
	84	1.13333	9.44656E-001	9.99145E-005	0.00000E+000	9.43848E-005	5.99601E-002	9.45045E-001	3.57910E+000	9	...........
	85	1.14667	9.49071E-001	1.00891E-004	0.00000E+000	9.57525E-005	5.99601E-002	9.49431E-001	3.57910E+000	9	...........
	86	1.16	9.53360E-001	1.00762E-004	0.00000E+000	9.60620E-005	5.99601E-002	9.53739E-001	3.57910E+000	9	...........
	87	1.17333	9.57589E-001	1.01263E-004	0.00000E+000	9.69680E-005	5.99601E-002	9.57949E-001	3.57910E+000	9	...........
	88	1.18667	9.61747E-001	1.01698E-004	0.00000E+000	9.78079E-005	5.99601E-002	9.62094E-001	3.57910E+000	9	...........
	89	1.2	9.65822E-001	1.00843E-004	0.00000E+000	9.73962E-005	5.99601E-002	9.66170E-001	3.57910E+000	9	...........
	90	1.21333	9.69791E-001	1.01316E-004	0.00000E+000	9.82552E-005	5.99601E-002	9.70160E-001	3.57910E+000	9	...........
	91	1.22667	9.73766E-001	1.01190E-004	0.00000E+000	9.85352E-005	5.99601E-002	9.74115E-001	3.57920E+000	9	...........
	92	1.24	9.77620E-001	1.01325E-004	0.00000E+000	9.90576E-005	5.99601E-002	9.77966E-001	3.57920E+000	9	...........
	93	1.25333	9.81383E-001	1.00367E-004	0.00000E+000	9.84981E-005	5.99601E-002	9.81744E-001	3.57920E+000	9	...........
	94	1.26667	9.85088E-001	1.00666E-004	0.00000E+000	9.91646E-005	5.99601E-002	9.85457E-001	3.57920E+000	9	...........
	95	1.28	9.88719E-001	1.00732E-004	0.00000E+000	9.95960E-005	5.99601E-002	9.89099E-001	3.57920E+000	9	...........
	96	1.29333	9.92238E-001	1.00350E-004	0.00000E+000	9.95711E-005	5.99601E-002	9.92642E-001	3.57920E+000	9	...........
	97	1.30667	9.95729E-001	1.00637E-004	0.00000E+000	1.00207E-004	5.99601E-002	9.96107E-001	3.57920E+000	9	...........
	98	1.31833	9.98950E-001	1.01089E-004	0.00000E+000	1.00982E-004	5.99601E-002	9.99327E-001	3.57920E+000	9	...........
STARTTIMEOFFSET	QUANT	232.0367	Start Time Offset (s)
