EXPLAIN
TAG	PWR800_CHARGE
TITLE	LABEL	PWR Cyclic Charge Discharge (Cell) - Charge Step	Test &Identifier
DATE	LABEL	13-7-2017	Date
TIME	LABEL	15:34:40	Time
NOTES	NOTES	2	&Notes...
	supercap test cell
	6M KOH
PSTAT	PSTAT	IFC5000-01520	Potentiostat
CAPACITY	QUANT	1.00000E-003	Capacity (A-hr)
CELLTYPE	SELECTOR	1	&Cell Type
WORKINGCONNECTION	SELECTOR	0	&Working Lead
MAXCHARGETIME	VARIABLEANDUNITS	1.00000E+002	s	1.00000E+002	second(s)	Max &Charge Time
CHARGECURRENT	QUANT	1.00000E-004	&Charge Current (A) 
VOLTAGEFINISH	TWOPARAM	F	1.00000E-003	3.60000E+003	&Voltage Finish	 I (A) < 	Max Time(s)
SAMPLETIME	QUANT	1.00000E-002	Sa&mple Period (s)
CHARGESTOPAT1	MULTIPARAM	4	1.00000E+000	Charge Stop At &1	Voltage > Limit	V
CHARGESTOPAT2	MULTIPARAM	0	0.00000E+000	Charge Stop At &2	None	N/A
AESBHCSELECTOR	TOGGLE	F	Save Both Half Cells
IRCOMP	TOGGLE	F	IR &Measure
EOC	QUANT	0	Open Circuit (V)
SEQUENCER	TOGGLE	TRUE	Run as Sequence
PSTATMODEL	IQUANT	53	Pstat Model
PSTATSECTION	LABEL	IFC5000-01520	Pstat Section
PSTATSERIALNO	LABEL	01520	Pstat Serial Number
CTRLMODE	IQUANT	0	Control Mode
ELECTROMETER	IQUANT	1	RE=0 or CS=1
IESTAB	IQUANT	0	I/E Stability
CASPEED	IQUANT	4	Control Amp Speed
CONVENTION	IQUANT	1	Current Convention
ICHRANGE	IQUANT	2	Ich Range
ICHRANGEMODE	TOGGLE	T	Ich Auto Range
ICHOFFSETENABLE	TOGGLE	F	Ich Offset Enable
ICHOFFSET	QUANT	0	Ich Offset (V)
ICHFILTER	IQUANT	1	Ich Filter
VCHRANGE	IQUANT	2	Vch Range
VCHRANGEMODE	TOGGLE	T	Vch Auto Range
VCHOFFSETENABLE	TOGGLE	F	Vch Offset Enable
VCHOFFSET	QUANT	0	Vch Offset (V)
VCHFILTER	IQUANT	1	Vch Filter
IERANGELOWERLIMIT	IQUANT	9	I/E Range Lower Limit
IERANGEMODE	TOGGLE	F	I/E AutoRange
IERANGE	IQUANT	9	I/E Range
ACHSELECT	IQUANT	1	Ach Select
ACHRANGE	IQUANT	2	Ach Range
ACHOFFSETENABLE	TOGGLE	F	Ach Offset Enable
ACHOFFSET	QUANT	0	Ach Offset (V)
ACHFILTER	IQUANT	1	Ach Filter
CABLEID	IQUANT	14	Cable ID
DCCALDATE	LABEL	5-7-2017	DC Calibration Date
ACCALDATE	LABEL	12/3/2015	AC Calibration Date
FRAMEWORKVERSION	QUANT	7.01	Framework Version
INSTRUMENTVERSION	LABEL	4.00	Instrument Version
CURVE	TABLE	91
	Pt	T	Vf	Im	Vu	Pwr	Sig	Ach	Temp	IERange	Over
	#	s	V	A	V	W	V	V	deg C	#	bits
	0	0.013333	1.38059E-001	1.01492E-004	0.00000E+000	1.40119E-005	5.99601E-002	1.38110E-001	3.58000E+000	9	...........
	1	0.026667	1.53332E-001	1.00267E-004	0.00000E+000	1.53741E-005	5.99601E-002	1.53352E-001	3.58000E+000	9	...........
	2	0.04	1.68172E-001	1.00751E-004	0.00000E+000	1.69435E-005	5.99601E-002	1.68193E-001	3.58000E+000	9	...........
	3	0.053333	1.82745E-001	1.00422E-004	0.00000E+000	1.83516E-005	5.99601E-002	1.82775E-001	3.58000E+000	9	...........
	4	0.066667	1.97134E-001	1.01029E-004	0.00000E+000	1.99163E-005	5.99601E-002	1.97168E-001	3.58000E+000	9	...........
	5	0.08	2.11382E-001	1.01300E-004	0.00000E+000	2.14130E-005	5.99601E-002	2.11418E-001	3.58000E+000	9	...........
	6	0.093333	2.25534E-001	1.01006E-004	0.00000E+000	2.27804E-005	5.99601E-002	2.25571E-001	3.58000E+000	9	...........
	7	0.106667	2.39611E-001	1.00930E-004	0.00000E+000	2.41840E-005	5.99601E-002	2.39653E-001	3.58000E+000	9	...........
	8	0.12	2.53644E-001	1.01169E-004	0.00000E+000	2.56609E-005	5.99601E-002	2.53691E-001	3.58000E+000	9	...........
	9	0.133333	2.67653E-001	1.00701E-004	0.00000E+000	2.69529E-005	5.99601E-002	2.67702E-001	3.58000E+000	9	...........
	10	0.146667	2.81642E-001	1.00511E-004	0.00000E+000	2.83082E-005	5.99601E-002	2.81699E-001	3.58000E+000	9	...........
	11	0.16	2.95641E-001	1.01585E-004	0.00000E+000	3.00326E-005	5.99601E-002	2.95696E-001	3.58000E+000	9	...........
	12	0.173333	3.09651E-001	1.00933E-004	0.00000E+000	3.12541E-005	5.99601E-002	3.09703E-001	3.58000E+000	9	...........
	13	0.186667	3.23664E-001	1.00943E-004	0.00000E+000	3.26716E-005	5.99601E-002	3.23732E-001	3.58000E+000	9	...........
	14	0.2	3.37704E-001	1.00813E-004	0.00000E+000	3.40448E-005	5.99601E-002	3.37767E-001	3.58000E+000	9	...........
	15	0.213333	3.51761E-001	1.01180E-004	0.00000E+000	3.55913E-005	5.99601E-002	3.51830E-001	3.58000E+000	9	...........
	16	0.226667	3.65833E-001	1.00433E-004	0.00000E+000	3.67418E-005	5.99601E-002	3.65901E-001	3.58000E+000	9	...........
	17	0.24	3.79911E-001	1.00103E-004	0.00000E+000	3.80302E-005	5.99601E-002	3.79978E-001	3.58000E+000	9	...........
	18	0.253333	3.93984E-001	1.00648E-004	0.00000E+000	3.96537E-005	5.99601E-002	3.94053E-001	3.58000E+000	9	...........
	19	0.266667	4.08035E-001	1.00757E-004	0.00000E+000	4.11126E-005	5.99601E-002	4.08112E-001	3.58000E+000	9	...........
	20	0.28	4.22051E-001	1.01623E-004	0.00000E+000	4.28901E-005	5.99601E-002	4.22133E-001	3.58000E+000	9	...........
	21	0.293333	4.36014E-001	1.00332E-004	0.00000E+000	4.37463E-005	5.99601E-002	4.36096E-001	3.58000E+000	9	...........
	22	0.306667	4.49898E-001	1.00312E-004	0.00000E+000	4.51304E-005	5.99601E-002	4.49988E-001	3.58000E+000	9	...........
	23	0.32	4.63682E-001	1.00758E-004	0.00000E+000	4.67198E-005	5.99601E-002	4.63775E-001	3.57890E+000	9	...........
	24	0.333333	4.77347E-001	1.01479E-004	0.00000E+000	4.84409E-005	5.99601E-002	4.77445E-001	3.57880E+000	9	...........
	25	0.346667	4.90871E-001	1.00259E-004	0.00000E+000	4.92144E-005	5.99601E-002	4.90970E-001	3.57880E+000	9	...........
	26	0.36	5.04223E-001	1.01976E-004	0.00000E+000	5.14188E-005	5.99601E-002	5.04325E-001	3.57880E+000	9	...........
	27	0.373333	5.17405E-001	1.00682E-004	0.00000E+000	5.20936E-005	5.99601E-002	5.17511E-001	3.57880E+000	9	...........
	28	0.386667	5.30354E-001	1.01170E-004	0.00000E+000	5.36559E-005	5.99601E-002	5.30442E-001	3.57880E+000	9	...........
	29	0.4	5.42840E-001	1.01276E-004	0.00000E+000	5.49767E-005	5.99601E-002	5.43094E-001	3.57880E+000	9	...........
	30	0.413333	5.55418E-001	1.02186E-004	0.00000E+000	5.67558E-005	5.99601E-002	5.55672E-001	3.57880E+000	9	...........
	31	0.426667	5.67768E-001	1.00682E-004	0.00000E+000	5.71642E-005	5.99601E-002	5.68031E-001	3.57880E+000	9	...........
	32	0.44	5.79894E-001	1.00821E-004	0.00000E+000	5.84655E-005	5.99601E-002	5.80161E-001	3.57880E+000	9	...........
	33	0.453333	5.91795E-001	1.00740E-004	0.00000E+000	5.96172E-005	5.99601E-002	5.92078E-001	3.57880E+000	9	...........
	34	0.466667	6.03452E-001	1.00556E-004	0.00000E+000	6.06809E-005	5.99601E-002	6.03742E-001	3.57880E+000	9	...........
	35	0.48	6.14932E-001	1.00813E-004	0.00000E+000	6.19929E-005	5.99601E-002	6.15194E-001	3.57880E+000	9	...........
	36	0.493333	6.26159E-001	1.01228E-004	0.00000E+000	6.33850E-005	5.99601E-002	6.26399E-001	3.57880E+000	9	...........
	37	0.506667	6.37157E-001	1.01072E-004	0.00000E+000	6.43987E-005	5.99601E-002	6.37386E-001	3.57880E+000	9	...........
	38	0.52	6.47936E-001	1.00972E-004	0.00000E+000	6.54234E-005	5.99601E-002	6.48191E-001	3.57880E+000	9	...........
	39	0.533333	6.58500E-001	1.01040E-004	0.00000E+000	6.65346E-005	5.99601E-002	6.58753E-001	3.57880E+000	9	...........
	40	0.546667	6.68850E-001	1.00922E-004	0.00000E+000	6.75017E-005	5.99601E-002	6.69107E-001	3.57880E+000	9	...........
	41	0.56	6.78996E-001	1.00515E-004	0.00000E+000	6.82490E-005	5.99601E-002	6.79238E-001	3.57880E+000	9	...........
	42	0.573333	6.88912E-001	1.00570E-004	0.00000E+000	6.92838E-005	5.99601E-002	6.89174E-001	3.57880E+000	9	...........
	43	0.586667	6.98652E-001	1.01172E-004	0.00000E+000	7.06841E-005	5.99601E-002	6.98942E-001	3.57880E+000	9	...........
	44	0.6	7.08192E-001	1.00167E-004	0.00000E+000	7.09372E-005	5.99601E-002	7.08463E-001	3.57880E+000	9	...........
	45	0.613333	7.17559E-001	1.00883E-004	0.00000E+000	7.23898E-005	5.99601E-002	7.17836E-001	3.57880E+000	9	...........
	46	0.626667	7.26743E-001	1.00955E-004	0.00000E+000	7.33685E-005	5.99601E-002	7.27023E-001	3.57880E+000	9	...........
	47	0.64	7.35712E-001	1.00418E-004	0.00000E+000	7.38785E-005	5.99601E-002	7.36006E-001	3.57880E+000	9	...........
	48	0.653333	7.44548E-001	1.00845E-004	0.00000E+000	7.50839E-005	5.99601E-002	7.44828E-001	3.57880E+000	9	...........
	49	0.666667	7.53194E-001	1.00384E-004	0.00000E+000	7.56089E-005	5.99601E-002	7.53445E-001	3.57880E+000	9	...........
	50	0.68	7.61673E-001	1.01232E-004	0.00000E+000	7.71060E-005	5.99601E-002	7.61936E-001	3.57880E+000	9	...........
	51	0.693333	7.69986E-001	1.00894E-004	0.00000E+000	7.76869E-005	5.99601E-002	7.70267E-001	3.57880E+000	9	...........
	52	0.706667	7.78140E-001	1.00656E-004	0.00000E+000	7.83247E-005	5.99601E-002	7.78436E-001	3.57880E+000	9	...........
	53	0.72	7.86163E-001	1.00550E-004	0.00000E+000	7.90488E-005	5.99601E-002	7.86426E-001	3.57880E+000	9	...........
	54	0.733333	7.94012E-001	1.00122E-004	0.00000E+000	7.94980E-005	5.99601E-002	7.94311E-001	3.57880E+000	9	...........
	55	0.746667	8.01733E-001	1.00295E-004	0.00000E+000	8.04096E-005	5.99601E-002	8.02035E-001	3.57880E+000	9	...........
	56	0.76	8.09314E-001	1.01195E-004	0.00000E+000	8.18985E-005	5.99601E-002	8.09606E-001	3.57880E+000	9	...........
	57	0.773333	8.16718E-001	1.00497E-004	0.00000E+000	8.20777E-005	5.99601E-002	8.17048E-001	3.57880E+000	9	...........
	58	0.786667	8.24028E-001	1.00658E-004	0.00000E+000	8.29454E-005	5.99601E-002	8.24362E-001	3.57880E+000	9	...........
	59	0.8	8.31194E-001	1.01039E-004	0.00000E+000	8.39827E-005	5.99601E-002	8.31550E-001	3.57880E+000	9	...........
	60	0.813333	8.38214E-001	1.01057E-004	0.00000E+000	8.47077E-005	5.99601E-002	8.38542E-001	3.57880E+000	9	...........
	61	0.826667	8.45149E-001	1.00371E-004	0.00000E+000	8.48283E-005	5.99601E-002	8.45508E-001	3.57880E+000	9	...........
	62	0.84	8.51944E-001	1.00869E-004	0.00000E+000	8.59346E-005	5.99601E-002	8.52284E-001	3.57880E+000	9	...........
	63	0.853333	8.58609E-001	1.00730E-004	0.00000E+000	8.64879E-005	5.99601E-002	8.58948E-001	3.57880E+000	9	...........
	64	0.866667	8.65155E-001	1.01005E-004	0.00000E+000	8.73853E-005	5.99601E-002	8.65521E-001	3.57880E+000	9	...........
	65	0.88	8.71630E-001	1.00966E-004	0.00000E+000	8.80048E-005	5.99601E-002	8.71987E-001	3.57880E+000	9	...........
	66	0.893333	8.77940E-001	1.01463E-004	0.00000E+000	8.90782E-005	5.99601E-002	8.78299E-001	3.57880E+000	9	...........
	67	0.906667	8.84176E-001	1.00920E-004	0.00000E+000	8.92309E-005	5.99601E-002	8.84524E-001	3.57880E+000	9	...........
	68	0.92	8.90268E-001	1.00557E-004	0.00000E+000	8.95230E-005	5.99601E-002	8.90617E-001	3.57880E+000	9	...........
	69	0.933333	8.96268E-001	1.00050E-004	0.00000E+000	8.96715E-005	5.99601E-002	8.96610E-001	3.57880E+000	9	...........
	70	0.946667	9.02146E-001	1.00833E-004	0.00000E+000	9.09665E-005	5.99601E-002	9.02500E-001	3.57880E+000	9	...........
	71	0.96	9.07924E-001	1.00996E-004	0.00000E+000	9.16967E-005	5.99601E-002	9.08272E-001	3.57880E+000	9	...........
	72	0.97333	9.13609E-001	1.00632E-004	0.00000E+000	9.19386E-005	5.99601E-002	9.13948E-001	3.57880E+000	9	...........
	73	0.98667	9.19186E-001	1.00763E-004	0.00000E+000	9.26196E-005	5.99601E-002	9.19519E-001	3.57880E+000	9	...........
	74	1	9.24704E-001	1.00338E-004	0.00000E+000	9.27825E-005	5.99601E-002	9.25005E-001	3.57880E+000	9	...........
	75	1.01333	9.30100E-001	1.00867E-004	0.00000E+000	9.38162E-005	5.99601E-002	9.30378E-001	3.57880E+000	9	...........
	76	1.02667	9.35360E-001	1.00927E-004	0.00000E+000	9.44032E-005	5.99601E-002	9.35679E-001	3.57880E+000	9	...........
	77	1.04	9.40523E-001	1.00500E-004	0.00000E+000	9.45226E-005	5.99601E-002	9.40856E-001	3.57880E+000	9	...........
	78	1.05333	9.45613E-001	9.98426E-005	0.00000E+000	9.44125E-005	5.99601E-002	9.45949E-001	3.57880E+000	9	...........
	79	1.06667	9.50603E-001	1.01345E-004	0.00000E+000	9.63388E-005	5.99601E-002	9.50941E-001	3.57880E+000	9	...........
	80	1.08	9.55511E-001	1.00558E-004	0.00000E+000	9.60846E-005	5.99601E-002	9.55830E-001	3.57880E+000	9	...........
	81	1.09333	9.60278E-001	1.01870E-004	0.00000E+000	9.78236E-005	5.99601E-002	9.60633E-001	3.57880E+000	9	...........
	82	1.10667	9.64964E-001	1.01102E-004	0.00000E+000	9.75601E-005	5.99601E-002	9.65326E-001	3.57880E+000	9	...........
	83	1.12	9.69562E-001	1.01207E-004	0.00000E+000	9.81269E-005	5.99601E-002	9.69966E-001	3.57880E+000	9	...........
	84	1.13333	9.74094E-001	1.01180E-004	0.00000E+000	9.85592E-005	5.99601E-002	9.74498E-001	3.57880E+000	9	...........
	85	1.14667	9.78518E-001	9.99583E-005	0.00000E+000	9.78110E-005	5.99601E-002	9.78900E-001	3.57880E+000	9	...........
	86	1.16	9.82857E-001	1.00747E-004	0.00000E+000	9.90199E-005	5.99601E-002	9.83201E-001	3.57880E+000	9	...........
	87	1.17333	9.87079E-001	1.01073E-004	0.00000E+000	9.97671E-005	5.99601E-002	9.87474E-001	3.57880E+000	9	...........
	88	1.18667	9.91233E-001	1.01315E-004	0.00000E+000	1.00427E-004	5.99601E-002	9.91616E-001	3.57880E+000	9	...........
	89	1.2	9.95275E-001	1.01042E-004	0.00000E+000	1.00564E-004	5.99601E-002	9.95662E-001	3.57880E+000	9	...........
	90	1.21167	9.99031E-001	1.00587E-004	0.00000E+000	1.00490E-004	5.99601E-002	9.99416E-001	3.57880E+000	9	...........
STARTTIMEOFFSET	QUANT	1477.641	Start Time Offset (s)
