EXPLAIN
TAG	PWR800_CHARGE
TITLE	LABEL	PWR Cyclic Charge Discharge (Cell) - Charge Step	Test &Identifier
DATE	LABEL	13-7-2017	Date
TIME	LABEL	15:38:52	Time
NOTES	NOTES	2	&Notes...
	supercap test cell
	6M KOH
PSTAT	PSTAT	IFC5000-01520	Potentiostat
CAPACITY	QUANT	1.00000E-003	Capacity (A-hr)
CELLTYPE	SELECTOR	1	&Cell Type
WORKINGCONNECTION	SELECTOR	0	&Working Lead
MAXCHARGETIME	VARIABLEANDUNITS	1.00000E+002	s	1.00000E+002	second(s)	Max &Charge Time
CHARGECURRENT	QUANT	1.00000E-004	&Charge Current (A) 
VOLTAGEFINISH	TWOPARAM	F	1.00000E-003	3.60000E+003	&Voltage Finish	 I (A) < 	Max Time(s)
SAMPLETIME	QUANT	1.00000E-002	Sa&mple Period (s)
CHARGESTOPAT1	MULTIPARAM	4	1.00000E+000	Charge Stop At &1	Voltage > Limit	V
CHARGESTOPAT2	MULTIPARAM	0	0.00000E+000	Charge Stop At &2	None	N/A
AESBHCSELECTOR	TOGGLE	F	Save Both Half Cells
IRCOMP	TOGGLE	F	IR &Measure
EOC	QUANT	0	Open Circuit (V)
SEQUENCER	TOGGLE	TRUE	Run as Sequence
PSTATMODEL	IQUANT	53	Pstat Model
PSTATSECTION	LABEL	IFC5000-01520	Pstat Section
PSTATSERIALNO	LABEL	01520	Pstat Serial Number
CTRLMODE	IQUANT	0	Control Mode
ELECTROMETER	IQUANT	1	RE=0 or CS=1
IESTAB	IQUANT	0	I/E Stability
CASPEED	IQUANT	4	Control Amp Speed
CONVENTION	IQUANT	1	Current Convention
ICHRANGE	IQUANT	2	Ich Range
ICHRANGEMODE	TOGGLE	T	Ich Auto Range
ICHOFFSETENABLE	TOGGLE	F	Ich Offset Enable
ICHOFFSET	QUANT	0	Ich Offset (V)
ICHFILTER	IQUANT	1	Ich Filter
VCHRANGE	IQUANT	2	Vch Range
VCHRANGEMODE	TOGGLE	T	Vch Auto Range
VCHOFFSETENABLE	TOGGLE	F	Vch Offset Enable
VCHOFFSET	QUANT	0	Vch Offset (V)
VCHFILTER	IQUANT	1	Vch Filter
IERANGELOWERLIMIT	IQUANT	9	I/E Range Lower Limit
IERANGEMODE	TOGGLE	F	I/E AutoRange
IERANGE	IQUANT	9	I/E Range
ACHSELECT	IQUANT	1	Ach Select
ACHRANGE	IQUANT	2	Ach Range
ACHOFFSETENABLE	TOGGLE	F	Ach Offset Enable
ACHOFFSET	QUANT	0	Ach Offset (V)
ACHFILTER	IQUANT	1	Ach Filter
CABLEID	IQUANT	14	Cable ID
DCCALDATE	LABEL	5-7-2017	DC Calibration Date
ACCALDATE	LABEL	12/3/2015	AC Calibration Date
FRAMEWORKVERSION	QUANT	7.01	Framework Version
INSTRUMENTVERSION	LABEL	4.00	Instrument Version
CURVE	TABLE	91
	Pt	T	Vf	Im	Vu	Pwr	Sig	Ach	Temp	IERange	Over
	#	s	V	A	V	W	V	V	deg C	#	bits
	0	0.013333	1.33986E-001	1.01348E-004	0.00000E+000	1.35792E-005	5.99601E-002	1.34034E-001	3.57980E+000	9	...........
	1	0.026667	1.49285E-001	1.00672E-004	0.00000E+000	1.50288E-005	5.99601E-002	1.49307E-001	3.57980E+000	9	...........
	2	0.04	1.64144E-001	1.00688E-004	0.00000E+000	1.65273E-005	5.99601E-002	1.64163E-001	3.57980E+000	9	...........
	3	0.053333	1.78736E-001	1.01041E-004	0.00000E+000	1.80596E-005	5.99601E-002	1.78760E-001	3.57980E+000	9	...........
	4	0.066667	1.93130E-001	1.00623E-004	0.00000E+000	1.94333E-005	5.99601E-002	1.93166E-001	3.57980E+000	9	...........
	5	0.08	2.07388E-001	1.00838E-004	0.00000E+000	2.09125E-005	5.99601E-002	2.07421E-001	3.57980E+000	9	...........
	6	0.093333	2.21549E-001	1.01534E-004	0.00000E+000	2.24946E-005	5.99601E-002	2.21584E-001	3.57980E+000	9	...........
	7	0.106667	2.35632E-001	1.00738E-004	0.00000E+000	2.37370E-005	5.99601E-002	2.35671E-001	3.57980E+000	9	...........
	8	0.12	2.49669E-001	1.00876E-004	0.00000E+000	2.51857E-005	5.99601E-002	2.49715E-001	3.57980E+000	9	...........
	9	0.133333	2.63686E-001	1.01153E-004	0.00000E+000	2.66727E-005	5.99601E-002	2.63732E-001	3.57980E+000	9	...........
	10	0.146667	2.77690E-001	1.01756E-004	0.00000E+000	2.82565E-005	5.99601E-002	2.77741E-001	3.57980E+000	9	...........
	11	0.16	2.91695E-001	1.01095E-004	0.00000E+000	2.94889E-005	5.99601E-002	2.91746E-001	3.57980E+000	9	...........
	12	0.173333	3.05703E-001	9.98926E-005	0.00000E+000	3.05375E-005	5.99601E-002	3.05764E-001	3.57980E+000	9	...........
	13	0.186667	3.19745E-001	1.00154E-004	0.00000E+000	3.20238E-005	5.99601E-002	3.19804E-001	3.57980E+000	9	...........
	14	0.2	3.33808E-001	1.01876E-004	0.00000E+000	3.40072E-005	5.99601E-002	3.33867E-001	3.57980E+000	9	...........
	15	0.213333	3.47890E-001	1.00772E-004	0.00000E+000	3.50575E-005	5.99601E-002	3.47953E-001	3.57980E+000	9	...........
	16	0.226667	3.61986E-001	1.01015E-004	0.00000E+000	3.65659E-005	5.99601E-002	3.62061E-001	3.57980E+000	9	...........
	17	0.24	3.76109E-001	1.01831E-004	0.00000E+000	3.82994E-005	5.99601E-002	3.76172E-001	3.57980E+000	9	...........
	18	0.253333	3.90227E-001	1.00616E-004	0.00000E+000	3.92629E-005	5.99601E-002	3.90297E-001	3.57980E+000	9	...........
	19	0.266667	4.04338E-001	1.00571E-004	0.00000E+000	4.06646E-005	5.99601E-002	4.04413E-001	3.57980E+000	9	...........
	20	0.28	4.18420E-001	1.00249E-004	0.00000E+000	4.19462E-005	5.99601E-002	4.18500E-001	3.57980E+000	9	...........
	21	0.293333	4.32459E-001	1.00770E-004	0.00000E+000	4.35788E-005	5.99601E-002	4.32545E-001	3.57980E+000	9	...........
	22	0.306667	4.46438E-001	1.01492E-004	0.00000E+000	4.53098E-005	5.99601E-002	4.46523E-001	3.57980E+000	9	...........
	23	0.32	4.60320E-001	1.00664E-004	0.00000E+000	4.63375E-005	5.99601E-002	4.60410E-001	3.57980E+000	9	...........
	24	0.333333	4.74089E-001	1.00478E-004	0.00000E+000	4.76356E-005	5.99601E-002	4.74186E-001	3.57980E+000	9	...........
	25	0.346667	4.87728E-001	1.01288E-004	0.00000E+000	4.94008E-005	5.99601E-002	4.87827E-001	3.57980E+000	9	...........
	26	0.36	5.01215E-001	1.01161E-004	0.00000E+000	5.07032E-005	5.99601E-002	5.01324E-001	3.57980E+000	9	...........
	27	0.373333	5.14530E-001	9.99082E-005	0.00000E+000	5.14058E-005	5.99601E-002	5.14636E-001	3.57980E+000	9	...........
	28	0.386667	5.27662E-001	1.00619E-004	0.00000E+000	5.30927E-005	5.99601E-002	5.27770E-001	3.57980E+000	9	...........
	29	0.4	5.40224E-001	9.97978E-005	0.00000E+000	5.39131E-005	5.99601E-002	5.40499E-001	3.57980E+000	9	...........
	30	0.413333	5.52942E-001	1.01069E-004	0.00000E+000	5.58852E-005	5.99601E-002	5.53207E-001	3.57980E+000	9	...........
	31	0.426667	5.65470E-001	1.00376E-004	0.00000E+000	5.67597E-005	5.99601E-002	5.65721E-001	3.57980E+000	9	...........
	32	0.44	5.77746E-001	1.01048E-004	0.00000E+000	5.83801E-005	5.99601E-002	5.77991E-001	3.57980E+000	9	...........
	33	0.453333	5.89791E-001	9.99697E-005	0.00000E+000	5.89612E-005	5.99601E-002	5.90065E-001	3.57980E+000	9	...........
	34	0.466667	6.01590E-001	1.00520E-004	0.00000E+000	6.04717E-005	5.99601E-002	6.01868E-001	3.57980E+000	9	...........
	35	0.48	6.13204E-001	1.00458E-004	0.00000E+000	6.16015E-005	5.99601E-002	6.13454E-001	3.57980E+000	9	...........
	36	0.493333	6.24580E-001	1.00809E-004	0.00000E+000	6.29636E-005	5.99601E-002	6.24821E-001	3.57980E+000	9	...........
	37	0.506667	6.35690E-001	1.00289E-004	0.00000E+000	6.37524E-005	5.99601E-002	6.35972E-001	3.57980E+000	9	...........
	38	0.52	6.46610E-001	1.01304E-004	0.00000E+000	6.55045E-005	5.99601E-002	6.46886E-001	3.57980E+000	9	...........
	39	0.533333	6.57312E-001	1.01056E-004	0.00000E+000	6.64256E-005	5.99601E-002	6.57565E-001	3.57980E+000	9	...........
	40	0.546667	6.67806E-001	1.01346E-004	0.00000E+000	6.76795E-005	5.99601E-002	6.68074E-001	3.57980E+000	9	...........
	41	0.56	6.78047E-001	1.00548E-004	0.00000E+000	6.81762E-005	5.99601E-002	6.78359E-001	3.57980E+000	9	...........
	42	0.573333	6.88100E-001	1.00490E-004	0.00000E+000	6.91469E-005	5.99601E-002	6.88397E-001	3.57980E+000	9	...........
	43	0.586667	6.97978E-001	1.00720E-004	0.00000E+000	7.03003E-005	5.99601E-002	6.98243E-001	3.57980E+000	9	...........
	44	0.6	7.07625E-001	1.00880E-004	0.00000E+000	7.13855E-005	5.99601E-002	7.07909E-001	3.57980E+000	9	...........
	45	0.613333	7.17110E-001	1.01012E-004	0.00000E+000	7.24365E-005	5.99601E-002	7.17381E-001	3.57980E+000	9	...........
	46	0.626667	7.26396E-001	9.99291E-005	0.00000E+000	7.25881E-005	5.99601E-002	7.26663E-001	3.57980E+000	9	...........
	47	0.64	7.35473E-001	1.00264E-004	0.00000E+000	7.37411E-005	5.99601E-002	7.35740E-001	3.57980E+000	9	...........
	48	0.653333	7.44402E-001	1.00623E-004	0.00000E+000	7.49039E-005	5.99601E-002	7.44684E-001	3.57980E+000	9	...........
	49	0.666667	7.53167E-001	1.01206E-004	0.00000E+000	7.62254E-005	5.99601E-002	7.53446E-001	3.57980E+000	9	...........
	50	0.68	7.61743E-001	1.01303E-004	0.00000E+000	7.71671E-005	5.99601E-002	7.61996E-001	3.57980E+000	9	...........
	51	0.693333	7.70135E-001	1.00901E-004	0.00000E+000	7.77075E-005	5.99601E-002	7.70430E-001	3.57980E+000	9	...........
	52	0.706667	7.78410E-001	1.00720E-004	0.00000E+000	7.84014E-005	5.99601E-002	7.78667E-001	3.57980E+000	9	...........
	53	0.72	7.86500E-001	1.00976E-004	0.00000E+000	7.94177E-005	5.99601E-002	7.86781E-001	3.57980E+000	9	...........
	54	0.733333	7.94456E-001	1.01829E-004	0.00000E+000	8.08991E-005	5.99601E-002	7.94731E-001	3.57980E+000	9	...........
	55	0.746667	8.02240E-001	1.00640E-004	0.00000E+000	8.07372E-005	5.99601E-002	8.02525E-001	3.57980E+000	9	...........
	56	0.76	8.09878E-001	1.00439E-004	0.00000E+000	8.13430E-005	5.99601E-002	8.10162E-001	3.57980E+000	9	...........
	57	0.773333	8.17391E-001	1.01074E-004	0.00000E+000	8.26171E-005	5.99601E-002	8.17706E-001	3.57980E+000	9	...........
	58	0.786667	8.24761E-001	1.00619E-004	0.00000E+000	8.29865E-005	5.99601E-002	8.25073E-001	3.57980E+000	9	...........
	59	0.8	8.31976E-001	1.00719E-004	0.00000E+000	8.37957E-005	5.99601E-002	8.32297E-001	3.57980E+000	9	...........
	60	0.813333	8.39059E-001	1.01361E-004	0.00000E+000	8.50476E-005	5.99601E-002	8.39396E-001	3.57980E+000	9	...........
	61	0.826667	8.46090E-001	1.00627E-004	0.00000E+000	8.51397E-005	5.99601E-002	8.46406E-001	3.57980E+000	9	...........
	62	0.84	8.52937E-001	1.00448E-004	0.00000E+000	8.56757E-005	5.99601E-002	8.53253E-001	3.57980E+000	9	...........
	63	0.853333	8.59653E-001	1.01303E-004	0.00000E+000	8.70857E-005	5.99601E-002	8.59989E-001	3.57980E+000	9	...........
	64	0.866667	8.66254E-001	1.00784E-004	0.00000E+000	8.73050E-005	5.99601E-002	8.66591E-001	3.57980E+000	9	...........
	65	0.88	8.72791E-001	1.00178E-004	0.00000E+000	8.74346E-005	5.99601E-002	8.73116E-001	3.57980E+000	9	...........
	66	0.893333	8.79164E-001	1.00510E-004	0.00000E+000	8.83652E-005	5.99601E-002	8.79486E-001	3.57980E+000	9	...........
	67	0.906667	8.85447E-001	1.01372E-004	0.00000E+000	8.97597E-005	5.99601E-002	8.85764E-001	3.57980E+000	9	...........
	68	0.92	8.91605E-001	1.01867E-004	0.00000E+000	9.08251E-005	5.99601E-002	8.91907E-001	3.57997E+000	9	...........
	69	0.933333	8.97613E-001	1.00624E-004	0.00000E+000	9.03214E-005	5.99601E-002	8.97965E-001	3.58000E+000	9	...........
	70	0.946667	9.03553E-001	1.00848E-004	0.00000E+000	9.11215E-005	5.99601E-002	9.03892E-001	3.58000E+000	9	...........
	71	0.96	9.09380E-001	1.00333E-004	0.00000E+000	9.12411E-005	5.99601E-002	9.09705E-001	3.58000E+000	9	...........
	72	0.97333	9.15092E-001	1.00647E-004	0.00000E+000	9.21012E-005	5.99601E-002	9.15422E-001	3.58000E+000	9	...........
	73	0.98667	9.20727E-001	1.00174E-004	0.00000E+000	9.22328E-005	5.99601E-002	9.21052E-001	3.58000E+000	9	...........
	74	1	9.26275E-001	1.01652E-004	0.00000E+000	9.41580E-005	5.99601E-002	9.26577E-001	3.58000E+000	9	...........
	75	1.01333	9.31665E-001	1.00932E-004	0.00000E+000	9.40351E-005	5.99601E-002	9.31984E-001	3.58000E+000	9	...........
	76	1.02667	9.36945E-001	1.00467E-004	0.00000E+000	9.41318E-005	5.99601E-002	9.37292E-001	3.58000E+000	9	...........
	77	1.04	9.42165E-001	1.00472E-004	0.00000E+000	9.46611E-005	5.99601E-002	9.42491E-001	3.58000E+000	9	...........
	78	1.05333	9.47284E-001	1.00818E-004	0.00000E+000	9.55031E-005	5.99601E-002	9.47631E-001	3.58000E+000	9	...........
	79	1.06667	9.52291E-001	1.00811E-004	0.00000E+000	9.60009E-005	5.99601E-002	9.52628E-001	3.58000E+000	9	...........
	80	1.08	9.57200E-001	1.00525E-004	0.00000E+000	9.62226E-005	5.99601E-002	9.57535E-001	3.58000E+000	9	...........
	81	1.09333	9.62033E-001	1.00878E-004	0.00000E+000	9.70482E-005	5.99601E-002	9.62364E-001	3.58000E+000	9	...........
	82	1.10667	9.66729E-001	1.00324E-004	0.00000E+000	9.69860E-005	5.99601E-002	9.67068E-001	3.58000E+000	9	...........
	83	1.12	9.71340E-001	1.00881E-004	0.00000E+000	9.79901E-005	5.99601E-002	9.71729E-001	3.58000E+000	9	...........
	84	1.13333	9.75918E-001	1.00955E-004	0.00000E+000	9.85242E-005	5.99601E-002	9.76266E-001	3.58000E+000	9	...........
	85	1.14667	9.80344E-001	1.00289E-004	0.00000E+000	9.83172E-005	5.99601E-002	9.80694E-001	3.58000E+000	9	...........
	86	1.16	9.84669E-001	1.00246E-004	0.00000E+000	9.87090E-005	5.99601E-002	9.85049E-001	3.58000E+000	9	...........
	87	1.17333	9.88938E-001	1.02204E-004	0.00000E+000	1.01073E-004	5.99601E-002	9.89306E-001	3.58000E+000	9	...........
	88	1.18667	9.93068E-001	1.00146E-004	0.00000E+000	9.94516E-005	5.99601E-002	9.93442E-001	3.58000E+000	9	...........
	89	1.2	9.97152E-001	1.00787E-004	0.00000E+000	1.00500E-004	5.99601E-002	9.97529E-001	3.58000E+000	9	...........
	90	1.205	9.99906E-001	1.01006E-004	0.00000E+000	1.00997E-004	5.99601E-002	1.00029E+000	3.58000E+000	9	...........
STARTTIMEOFFSET	QUANT	1666.508	Start Time Offset (s)
