EXPLAIN
TAG	PWR800_CHARGE
TITLE	LABEL	PWR Cyclic Charge Discharge (Cell) - Charge Step	Test &Identifier
DATE	LABEL	13-7-2017	Date
TIME	LABEL	15:20:57	Time
NOTES	NOTES	2	&Notes...
	supercap test cell
	6M KOH
PSTAT	PSTAT	IFC5000-01520	Potentiostat
CAPACITY	QUANT	1.00000E-003	Capacity (A-hr)
CELLTYPE	SELECTOR	1	&Cell Type
WORKINGCONNECTION	SELECTOR	0	&Working Lead
MAXCHARGETIME	VARIABLEANDUNITS	1.00000E+002	s	1.00000E+002	second(s)	Max &Charge Time
CHARGECURRENT	QUANT	1.00000E-004	&Charge Current (A) 
VOLTAGEFINISH	TWOPARAM	F	1.00000E-003	3.60000E+003	&Voltage Finish	 I (A) < 	Max Time(s)
SAMPLETIME	QUANT	1.00000E-002	Sa&mple Period (s)
CHARGESTOPAT1	MULTIPARAM	4	1.00000E+000	Charge Stop At &1	Voltage > Limit	V
CHARGESTOPAT2	MULTIPARAM	0	0.00000E+000	Charge Stop At &2	None	N/A
AESBHCSELECTOR	TOGGLE	F	Save Both Half Cells
IRCOMP	TOGGLE	F	IR &Measure
EOC	QUANT	0	Open Circuit (V)
SEQUENCER	TOGGLE	TRUE	Run as Sequence
PSTATMODEL	IQUANT	53	Pstat Model
PSTATSECTION	LABEL	IFC5000-01520	Pstat Section
PSTATSERIALNO	LABEL	01520	Pstat Serial Number
CTRLMODE	IQUANT	0	Control Mode
ELECTROMETER	IQUANT	1	RE=0 or CS=1
IESTAB	IQUANT	0	I/E Stability
CASPEED	IQUANT	4	Control Amp Speed
CONVENTION	IQUANT	1	Current Convention
ICHRANGE	IQUANT	2	Ich Range
ICHRANGEMODE	TOGGLE	T	Ich Auto Range
ICHOFFSETENABLE	TOGGLE	F	Ich Offset Enable
ICHOFFSET	QUANT	0	Ich Offset (V)
ICHFILTER	IQUANT	1	Ich Filter
VCHRANGE	IQUANT	2	Vch Range
VCHRANGEMODE	TOGGLE	T	Vch Auto Range
VCHOFFSETENABLE	TOGGLE	F	Vch Offset Enable
VCHOFFSET	QUANT	0	Vch Offset (V)
VCHFILTER	IQUANT	1	Vch Filter
IERANGELOWERLIMIT	IQUANT	9	I/E Range Lower Limit
IERANGEMODE	TOGGLE	F	I/E AutoRange
IERANGE	IQUANT	9	I/E Range
ACHSELECT	IQUANT	1	Ach Select
ACHRANGE	IQUANT	2	Ach Range
ACHOFFSETENABLE	TOGGLE	F	Ach Offset Enable
ACHOFFSET	QUANT	0	Ach Offset (V)
ACHFILTER	IQUANT	1	Ach Filter
CABLEID	IQUANT	14	Cable ID
DCCALDATE	LABEL	5-7-2017	DC Calibration Date
ACCALDATE	LABEL	12/3/2015	AC Calibration Date
FRAMEWORKVERSION	QUANT	7.01	Framework Version
INSTRUMENTVERSION	LABEL	4.00	Instrument Version
CURVE	TABLE	94
	Pt	T	Vf	Im	Vu	Pwr	Sig	Ach	Temp	IERange	Over
	#	s	V	A	V	W	V	V	deg C	#	bits
	0	0.013333	1.32177E-001	1.01488E-004	0.00000E+000	1.34143E-005	5.99601E-002	1.32215E-001	3.57910E+000	9	...........
	1	0.026667	1.47396E-001	1.01292E-004	0.00000E+000	1.49300E-005	5.99601E-002	1.47418E-001	3.57910E+000	9	...........
	2	0.04	1.62178E-001	1.00767E-004	0.00000E+000	1.63421E-005	5.99601E-002	1.62200E-001	3.57910E+000	9	...........
	3	0.053333	1.76677E-001	1.00370E-004	0.00000E+000	1.77330E-005	5.99601E-002	1.76706E-001	3.57910E+000	9	...........
	4	0.066667	1.90993E-001	1.00619E-004	0.00000E+000	1.92175E-005	5.99601E-002	1.91027E-001	3.57910E+000	9	...........
	5	0.08	2.05164E-001	1.00264E-004	0.00000E+000	2.05705E-005	5.99601E-002	2.05201E-001	3.57910E+000	9	...........
	6	0.093333	2.19233E-001	1.00629E-004	0.00000E+000	2.20613E-005	5.99601E-002	2.19267E-001	3.57910E+000	9	...........
	7	0.106667	2.33229E-001	1.00594E-004	0.00000E+000	2.34614E-005	5.99601E-002	2.33265E-001	3.57910E+000	9	...........
	8	0.12	2.47170E-001	1.01469E-004	0.00000E+000	2.50801E-005	5.99601E-002	2.47217E-001	3.57910E+000	9	...........
	9	0.133333	2.61080E-001	1.00551E-004	0.00000E+000	2.62519E-005	5.99601E-002	2.61132E-001	3.57910E+000	9	...........
	10	0.146667	2.74981E-001	1.00422E-004	0.00000E+000	2.76141E-005	5.99601E-002	2.75037E-001	3.57910E+000	9	...........
	11	0.16	2.88870E-001	1.00719E-004	0.00000E+000	2.90947E-005	5.99601E-002	2.88927E-001	3.57910E+000	9	...........
	12	0.173333	3.02775E-001	1.01587E-004	0.00000E+000	3.07579E-005	5.99601E-002	3.02830E-001	3.57910E+000	9	...........
	13	0.186667	3.16683E-001	1.00209E-004	0.00000E+000	3.17346E-005	5.99601E-002	3.16748E-001	3.57910E+000	9	...........
	14	0.2	3.30599E-001	1.01703E-004	0.00000E+000	3.36230E-005	5.99601E-002	3.30666E-001	3.57910E+000	9	...........
	15	0.213333	3.44533E-001	1.00800E-004	0.00000E+000	3.47289E-005	5.99601E-002	3.44593E-001	3.57910E+000	9	...........
	16	0.226667	3.58472E-001	1.00709E-004	0.00000E+000	3.61015E-005	5.99601E-002	3.58540E-001	3.57910E+000	9	...........
	17	0.24	3.72416E-001	1.01591E-004	0.00000E+000	3.78341E-005	5.99601E-002	3.72488E-001	3.57910E+000	9	...........
	18	0.253333	3.86351E-001	1.00838E-004	0.00000E+000	3.89587E-005	5.99601E-002	3.86421E-001	3.57910E+000	9	...........
	19	0.266667	4.00263E-001	1.01417E-004	0.00000E+000	4.05934E-005	5.99601E-002	4.00340E-001	3.57910E+000	9	...........
	20	0.28	4.14139E-001	1.00891E-004	0.00000E+000	4.17828E-005	5.99601E-002	4.14223E-001	3.57910E+000	9	...........
	21	0.293333	4.27962E-001	1.00648E-004	0.00000E+000	4.30735E-005	5.99601E-002	4.28049E-001	3.57910E+000	9	...........
	22	0.306667	4.41714E-001	1.00683E-004	0.00000E+000	4.44733E-005	5.99601E-002	4.41802E-001	3.57910E+000	9	...........
	23	0.32	4.55360E-001	1.00795E-004	0.00000E+000	4.58980E-005	5.99601E-002	4.55459E-001	3.57910E+000	9	...........
	24	0.333333	4.68896E-001	1.00720E-004	0.00000E+000	4.72272E-005	5.99601E-002	4.68993E-001	3.57910E+000	9	...........
	25	0.346667	4.82288E-001	9.99635E-005	0.00000E+000	4.82112E-005	5.99601E-002	4.82388E-001	3.57910E+000	9	...........
	26	0.36	4.95520E-001	1.00890E-004	0.00000E+000	4.99929E-005	5.99601E-002	4.95628E-001	3.57910E+000	9	...........
	27	0.373333	5.08590E-001	1.00870E-004	0.00000E+000	5.13014E-005	5.99601E-002	5.08698E-001	3.57910E+000	9	...........
	28	0.386667	5.21469E-001	1.01356E-004	0.00000E+000	5.28543E-005	5.99601E-002	5.21585E-001	3.57910E+000	9	...........
	29	0.4	5.33960E-001	1.01821E-004	0.00000E+000	5.43684E-005	5.99601E-002	5.34155E-001	3.57910E+000	9	...........
	30	0.413333	5.46281E-001	1.00191E-004	0.00000E+000	5.47322E-005	5.99601E-002	5.46522E-001	3.57910E+000	9	...........
	31	0.426667	5.58524E-001	1.00310E-004	0.00000E+000	5.60258E-005	5.99601E-002	5.58785E-001	3.57910E+000	9	...........
	32	0.44	5.70581E-001	1.00566E-004	0.00000E+000	5.73809E-005	5.99601E-002	5.70837E-001	3.57910E+000	9	...........
	33	0.453333	5.82373E-001	1.00307E-004	0.00000E+000	5.84162E-005	5.99601E-002	5.82651E-001	3.57910E+000	9	...........
	34	0.466667	5.94002E-001	1.00632E-004	0.00000E+000	5.97758E-005	5.99601E-002	5.94252E-001	3.57910E+000	9	...........
	35	0.48	6.05324E-001	1.01108E-004	0.00000E+000	6.12034E-005	5.99601E-002	6.05605E-001	3.57910E+000	9	...........
	36	0.493333	6.16518E-001	1.01575E-004	0.00000E+000	6.26230E-005	5.99601E-002	6.16789E-001	3.57910E+000	9	...........
	37	0.506667	6.27440E-001	1.00753E-004	0.00000E+000	6.32166E-005	5.99601E-002	6.27709E-001	3.57910E+000	9	...........
	38	0.52	6.38140E-001	1.01433E-004	0.00000E+000	6.47281E-005	5.99601E-002	6.38411E-001	3.57910E+000	9	...........
	39	0.533333	6.48646E-001	1.01013E-004	0.00000E+000	6.55215E-005	5.99601E-002	6.48918E-001	3.57910E+000	9	...........
	40	0.546667	6.58931E-001	1.01288E-004	0.00000E+000	6.67416E-005	5.99601E-002	6.59194E-001	3.57910E+000	9	...........
	41	0.56	6.69019E-001	1.01641E-004	0.00000E+000	6.79997E-005	5.99601E-002	6.69274E-001	3.57910E+000	9	...........
	42	0.573333	6.78899E-001	1.01255E-004	0.00000E+000	6.87421E-005	5.99601E-002	6.79143E-001	3.57910E+000	9	...........
	43	0.586667	6.88563E-001	1.00847E-004	0.00000E+000	6.94395E-005	5.99601E-002	6.88835E-001	3.57910E+000	9	...........
	44	0.6	6.98072E-001	1.01214E-004	0.00000E+000	7.06545E-005	5.99601E-002	6.98328E-001	3.57910E+000	9	...........
	45	0.613333	7.07348E-001	1.00034E-004	0.00000E+000	7.07591E-005	5.99601E-002	7.07638E-001	3.57910E+000	9	...........
	46	0.626667	7.16472E-001	1.00390E-004	0.00000E+000	7.19264E-005	5.99601E-002	7.16773E-001	3.57910E+000	9	...........
	47	0.64	7.25452E-001	1.01193E-004	0.00000E+000	7.34106E-005	5.99601E-002	7.25714E-001	3.57910E+000	9	...........
	48	0.653333	7.34207E-001	9.99468E-005	0.00000E+000	7.33816E-005	5.99601E-002	7.34460E-001	3.57910E+000	9	...........
	49	0.666667	7.42783E-001	1.01446E-004	0.00000E+000	7.53525E-005	5.99601E-002	7.43070E-001	3.57910E+000	9	...........
	50	0.68	7.51240E-001	1.00875E-004	0.00000E+000	7.57814E-005	5.99601E-002	7.51499E-001	3.57910E+000	9	...........
	51	0.693333	7.59521E-001	9.99489E-005	0.00000E+000	7.59133E-005	5.99601E-002	7.59766E-001	3.57910E+000	9	...........
	52	0.706667	7.67644E-001	1.01143E-004	0.00000E+000	7.76417E-005	5.99601E-002	7.67912E-001	3.57910E+000	9	...........
	53	0.72	7.75624E-001	1.00393E-004	0.00000E+000	7.78670E-005	5.99601E-002	7.75860E-001	3.57910E+000	9	...........
	54	0.733333	7.83433E-001	1.01069E-004	0.00000E+000	7.91808E-005	5.99601E-002	7.83699E-001	3.57910E+000	9	...........
	55	0.746667	7.91118E-001	1.00671E-004	0.00000E+000	7.96425E-005	5.99601E-002	7.91399E-001	3.57910E+000	9	...........
	56	0.76	7.98690E-001	1.00626E-004	0.00000E+000	8.03691E-005	5.99601E-002	7.98927E-001	3.57910E+000	9	...........
	57	0.773333	8.06049E-001	1.00523E-004	0.00000E+000	8.10265E-005	5.99601E-002	8.06343E-001	3.57910E+000	9	...........
	58	0.786667	8.13295E-001	1.00664E-004	0.00000E+000	8.18692E-005	5.99601E-002	8.13608E-001	3.57910E+000	9	...........
	59	0.8	8.20463E-001	1.00494E-004	0.00000E+000	8.24515E-005	5.99601E-002	8.20756E-001	3.57910E+000	9	...........
	60	0.813333	8.27469E-001	1.01256E-004	0.00000E+000	8.37865E-005	5.99601E-002	8.27738E-001	3.57910E+000	9	...........
	61	0.826667	8.34320E-001	1.00195E-004	0.00000E+000	8.35945E-005	5.99601E-002	8.34640E-001	3.57910E+000	9	...........
	62	0.84	8.41094E-001	9.93008E-005	0.00000E+000	8.35213E-005	5.99601E-002	8.41394E-001	3.57910E+000	9	...........
	63	0.853333	8.47768E-001	1.00737E-004	0.00000E+000	8.54013E-005	5.99601E-002	8.48068E-001	3.57910E+000	9	...........
	64	0.866667	8.54293E-001	1.00474E-004	0.00000E+000	8.58343E-005	5.99601E-002	8.54596E-001	3.57910E+000	9	...........
	65	0.88	8.60703E-001	1.00705E-004	0.00000E+000	8.66774E-005	5.99601E-002	8.61031E-001	3.57910E+000	9	...........
	66	0.893333	8.67013E-001	1.01222E-004	0.00000E+000	8.77609E-005	5.99601E-002	8.67373E-001	3.57910E+000	9	...........
	67	0.906667	8.73247E-001	1.00316E-004	0.00000E+000	8.76003E-005	5.99601E-002	8.73591E-001	3.57910E+000	9	...........
	68	0.92	8.79330E-001	1.00758E-004	0.00000E+000	8.85999E-005	5.99601E-002	8.79693E-001	3.57910E+000	9	...........
	69	0.933333	8.85357E-001	1.01149E-004	0.00000E+000	8.95531E-005	5.99601E-002	8.85698E-001	3.57910E+000	9	...........
	70	0.946667	8.91230E-001	1.01350E-004	0.00000E+000	9.03263E-005	5.99601E-002	8.91577E-001	3.57910E+000	9	...........
	71	0.96	8.96997E-001	1.00249E-004	0.00000E+000	8.99230E-005	5.99601E-002	8.97387E-001	3.57949E+000	9	...........
	72	0.97333	9.02685E-001	1.00488E-004	0.00000E+000	9.07086E-005	5.99601E-002	9.03054E-001	3.57980E+000	9	...........
	73	0.98667	9.08266E-001	1.00346E-004	0.00000E+000	9.11407E-005	5.99601E-002	9.08637E-001	3.57980E+000	9	...........
	74	1	9.13752E-001	1.01259E-004	0.00000E+000	9.25251E-005	5.99601E-002	9.14129E-001	3.57980E+000	9	...........
	75	1.01333	9.19151E-001	1.00227E-004	0.00000E+000	9.21238E-005	5.99601E-002	9.19510E-001	3.57980E+000	9	...........
	76	1.02667	9.24466E-001	1.00572E-004	0.00000E+000	9.29753E-005	5.99601E-002	9.24810E-001	3.57980E+000	9	...........
	77	1.04	9.29642E-001	1.00530E-004	0.00000E+000	9.34572E-005	5.99601E-002	9.30001E-001	3.57980E+000	9	...........
	78	1.05333	9.34724E-001	1.01236E-004	0.00000E+000	9.46274E-005	5.99601E-002	9.35084E-001	3.57980E+000	9	...........
	79	1.06667	9.39741E-001	9.99728E-005	0.00000E+000	9.39486E-005	5.99601E-002	9.40080E-001	3.57980E+000	9	...........
	80	1.08	9.44658E-001	1.01358E-004	0.00000E+000	9.57482E-005	5.99601E-002	9.44993E-001	3.57980E+000	9	...........
	81	1.09333	9.49512E-001	1.01196E-004	0.00000E+000	9.60869E-005	5.99601E-002	9.49849E-001	3.57980E+000	9	...........
	82	1.10667	9.54215E-001	1.00943E-004	0.00000E+000	9.63212E-005	5.99601E-002	9.54554E-001	3.57980E+000	9	...........
	83	1.12	9.58853E-001	1.00057E-004	0.00000E+000	9.59402E-005	5.99601E-002	9.59216E-001	3.57980E+000	9	...........
	84	1.13333	9.63392E-001	1.01114E-004	0.00000E+000	9.74122E-005	5.99601E-002	9.63749E-001	3.57980E+000	9	...........
	85	1.14667	9.67852E-001	1.00970E-004	0.00000E+000	9.77239E-005	5.99601E-002	9.68238E-001	3.57980E+000	9	...........
	86	1.16	9.72232E-001	1.01152E-004	0.00000E+000	9.83435E-005	5.99601E-002	9.72633E-001	3.57980E+000	9	...........
	87	1.17333	9.76565E-001	1.00212E-004	0.00000E+000	9.78640E-005	5.99601E-002	9.76914E-001	3.57980E+000	9	...........
	88	1.18667	9.80753E-001	1.01010E-004	0.00000E+000	9.90653E-005	5.99601E-002	9.81089E-001	3.57980E+000	9	...........
	89	1.2	9.84845E-001	9.97488E-005	0.00000E+000	9.82372E-005	5.99601E-002	9.85224E-001	3.57980E+000	9	...........
	90	1.21333	9.88897E-001	1.00759E-004	0.00000E+000	9.96407E-005	5.99601E-002	9.89250E-001	3.57980E+000	9	...........
	91	1.22667	9.92792E-001	1.01650E-004	0.00000E+000	1.00918E-004	5.99601E-002	9.93190E-001	3.57980E+000	9	...........
	92	1.24	9.96685E-001	1.00024E-004	0.00000E+000	9.96923E-005	5.99601E-002	9.97055E-001	3.57980E+000	9	...........
	93	1.24667	9.99548E-001	1.00646E-004	0.00000E+000	1.00600E-004	5.99601E-002	9.99932E-001	3.57980E+000	9	...........
STARTTIMEOFFSET	QUANT	857.0376	Start Time Offset (s)
