EXPLAIN
TAG	PWR800_CHARGE
TITLE	LABEL	PWR Cyclic Charge Discharge (Cell) - Charge Step	Test &Identifier
DATE	LABEL	13-7-2017	Date
TIME	LABEL	15:31:53	Time
NOTES	NOTES	2	&Notes...
	supercap test cell
	6M KOH
PSTAT	PSTAT	IFC5000-01520	Potentiostat
CAPACITY	QUANT	1.00000E-003	Capacity (A-hr)
CELLTYPE	SELECTOR	1	&Cell Type
WORKINGCONNECTION	SELECTOR	0	&Working Lead
MAXCHARGETIME	VARIABLEANDUNITS	1.00000E+002	s	1.00000E+002	second(s)	Max &Charge Time
CHARGECURRENT	QUANT	1.00000E-004	&Charge Current (A) 
VOLTAGEFINISH	TWOPARAM	F	1.00000E-003	3.60000E+003	&Voltage Finish	 I (A) < 	Max Time(s)
SAMPLETIME	QUANT	1.00000E-002	Sa&mple Period (s)
CHARGESTOPAT1	MULTIPARAM	4	1.00000E+000	Charge Stop At &1	Voltage > Limit	V
CHARGESTOPAT2	MULTIPARAM	0	0.00000E+000	Charge Stop At &2	None	N/A
AESBHCSELECTOR	TOGGLE	F	Save Both Half Cells
IRCOMP	TOGGLE	F	IR &Measure
EOC	QUANT	0	Open Circuit (V)
SEQUENCER	TOGGLE	TRUE	Run as Sequence
PSTATMODEL	IQUANT	53	Pstat Model
PSTATSECTION	LABEL	IFC5000-01520	Pstat Section
PSTATSERIALNO	LABEL	01520	Pstat Serial Number
CTRLMODE	IQUANT	0	Control Mode
ELECTROMETER	IQUANT	1	RE=0 or CS=1
IESTAB	IQUANT	0	I/E Stability
CASPEED	IQUANT	4	Control Amp Speed
CONVENTION	IQUANT	1	Current Convention
ICHRANGE	IQUANT	2	Ich Range
ICHRANGEMODE	TOGGLE	T	Ich Auto Range
ICHOFFSETENABLE	TOGGLE	F	Ich Offset Enable
ICHOFFSET	QUANT	0	Ich Offset (V)
ICHFILTER	IQUANT	1	Ich Filter
VCHRANGE	IQUANT	2	Vch Range
VCHRANGEMODE	TOGGLE	T	Vch Auto Range
VCHOFFSETENABLE	TOGGLE	F	Vch Offset Enable
VCHOFFSET	QUANT	0	Vch Offset (V)
VCHFILTER	IQUANT	1	Vch Filter
IERANGELOWERLIMIT	IQUANT	9	I/E Range Lower Limit
IERANGEMODE	TOGGLE	F	I/E AutoRange
IERANGE	IQUANT	9	I/E Range
ACHSELECT	IQUANT	1	Ach Select
ACHRANGE	IQUANT	2	Ach Range
ACHOFFSETENABLE	TOGGLE	F	Ach Offset Enable
ACHOFFSET	QUANT	0	Ach Offset (V)
ACHFILTER	IQUANT	1	Ach Filter
CABLEID	IQUANT	14	Cable ID
DCCALDATE	LABEL	5-7-2017	DC Calibration Date
ACCALDATE	LABEL	12/3/2015	AC Calibration Date
FRAMEWORKVERSION	QUANT	7.01	Framework Version
INSTRUMENTVERSION	LABEL	4.00	Instrument Version
CURVE	TABLE	92
	Pt	T	Vf	Im	Vu	Pwr	Sig	Ach	Temp	IERange	Over
	#	s	V	A	V	W	V	V	deg C	#	bits
	0	0.013333	1.34061E-001	1.01125E-004	0.00000E+000	1.35569E-005	5.99601E-002	1.34112E-001	3.58000E+000	9	...........
	1	0.026667	1.49337E-001	1.00809E-004	0.00000E+000	1.50546E-005	5.99601E-002	1.49359E-001	3.58000E+000	9	...........
	2	0.04	1.64174E-001	1.00772E-004	0.00000E+000	1.65442E-005	5.99601E-002	1.64200E-001	3.58000E+000	9	...........
	3	0.053333	1.78743E-001	1.01737E-004	0.00000E+000	1.81847E-005	5.99601E-002	1.78776E-001	3.58000E+000	9	...........
	4	0.066667	1.93123E-001	1.00759E-004	0.00000E+000	1.94590E-005	5.99601E-002	1.93155E-001	3.58000E+000	9	...........
	5	0.08	2.07356E-001	1.00265E-004	0.00000E+000	2.07904E-005	5.99601E-002	2.07396E-001	3.58000E+000	9	...........
	6	0.093333	2.21494E-001	1.01421E-004	0.00000E+000	2.24641E-005	5.99601E-002	2.21534E-001	3.58000E+000	9	...........
	7	0.106667	2.35560E-001	1.00278E-004	0.00000E+000	2.36215E-005	5.99601E-002	2.35600E-001	3.58000E+000	9	...........
	8	0.12	2.49578E-001	1.00572E-004	0.00000E+000	2.51006E-005	5.99601E-002	2.49623E-001	3.58000E+000	9	...........
	9	0.133333	2.63569E-001	1.00072E-004	0.00000E+000	2.63759E-005	5.99601E-002	2.63619E-001	3.58000E+000	9	...........
	10	0.146667	2.77548E-001	1.00998E-004	0.00000E+000	2.80318E-005	5.99601E-002	2.77606E-001	3.58000E+000	9	...........
	11	0.16	2.91529E-001	1.00368E-004	0.00000E+000	2.92601E-005	5.99601E-002	2.91584E-001	3.58000E+000	9	...........
	12	0.173333	3.05515E-001	1.00144E-004	0.00000E+000	3.05954E-005	5.99601E-002	3.05578E-001	3.58000E+000	9	...........
	13	0.186667	3.19521E-001	1.00704E-004	0.00000E+000	3.21771E-005	5.99601E-002	3.19583E-001	3.58000E+000	9	...........
	14	0.2	3.33534E-001	1.00939E-004	0.00000E+000	3.36665E-005	5.99601E-002	3.33602E-001	3.58000E+000	9	...........
	15	0.213333	3.47574E-001	1.00554E-004	0.00000E+000	3.49500E-005	5.99601E-002	3.47643E-001	3.58000E+000	9	...........
	16	0.226667	3.61628E-001	1.00839E-004	0.00000E+000	3.64661E-005	5.99601E-002	3.61696E-001	3.58000E+000	9	...........
	17	0.24	3.75694E-001	1.00674E-004	0.00000E+000	3.78226E-005	5.99601E-002	3.75765E-001	3.58000E+000	9	...........
	18	0.253333	3.89761E-001	1.01626E-004	0.00000E+000	3.96100E-005	5.99601E-002	3.89837E-001	3.58000E+000	9	...........
	19	0.266667	4.03814E-001	1.00251E-004	0.00000E+000	4.04827E-005	5.99601E-002	4.03893E-001	3.58000E+000	9	...........
	20	0.28	4.17824E-001	1.00499E-004	0.00000E+000	4.19909E-005	5.99601E-002	4.17911E-001	3.58000E+000	9	...........
	21	0.293333	4.31796E-001	1.00186E-004	0.00000E+000	4.32601E-005	5.99601E-002	4.31883E-001	3.58000E+000	9	...........
	22	0.306667	4.45696E-001	1.01194E-004	0.00000E+000	4.51018E-005	5.99601E-002	4.45785E-001	3.58000E+000	9	...........
	23	0.32	4.59498E-001	1.00498E-004	0.00000E+000	4.61786E-005	5.99601E-002	4.59585E-001	3.58000E+000	9	...........
	24	0.333333	4.73185E-001	1.00870E-004	0.00000E+000	4.77301E-005	5.99601E-002	4.73273E-001	3.58000E+000	9	...........
	25	0.346667	4.86739E-001	1.00344E-004	0.00000E+000	4.88412E-005	5.99601E-002	4.86829E-001	3.57938E+000	9	...........
	26	0.36	5.00123E-001	1.00530E-004	0.00000E+000	5.02774E-005	5.99601E-002	5.00229E-001	3.57900E+000	9	...........
	27	0.373333	5.13347E-001	1.02153E-004	0.00000E+000	5.24402E-005	5.99601E-002	5.13453E-001	3.57900E+000	9	...........
	28	0.386667	5.26384E-001	1.00837E-004	0.00000E+000	5.30787E-005	5.99601E-002	5.26493E-001	3.57900E+000	9	...........
	29	0.4	5.38899E-001	1.01419E-004	0.00000E+000	5.46546E-005	5.99601E-002	5.39147E-001	3.57900E+000	9	...........
	30	0.413333	5.51468E-001	1.00922E-004	0.00000E+000	5.56552E-005	5.99601E-002	5.51740E-001	3.57900E+000	9	...........
	31	0.426667	5.63904E-001	1.00799E-004	0.00000E+000	5.68409E-005	5.99601E-002	5.64165E-001	3.57900E+000	9	...........
	32	0.44	5.76076E-001	1.00351E-004	0.00000E+000	5.78098E-005	5.99601E-002	5.76351E-001	3.57900E+000	9	...........
	33	0.453333	5.88020E-001	1.01400E-004	0.00000E+000	5.96254E-005	5.99601E-002	5.88345E-001	3.57900E+000	9	...........
	34	0.466667	5.99752E-001	1.00759E-004	0.00000E+000	6.04307E-005	5.99601E-002	6.00046E-001	3.57900E+000	9	...........
	35	0.48	6.11240E-001	1.01127E-004	0.00000E+000	6.18130E-005	5.99601E-002	6.11548E-001	3.57900E+000	9	...........
	36	0.493333	6.22570E-001	1.01120E-004	0.00000E+000	6.29543E-005	5.99601E-002	6.22827E-001	3.57900E+000	9	...........
	37	0.506667	6.33593E-001	1.01845E-004	0.00000E+000	6.45284E-005	5.99601E-002	6.33869E-001	3.57900E+000	9	...........
	38	0.52	6.44452E-001	1.01171E-004	0.00000E+000	6.51999E-005	5.99601E-002	6.44717E-001	3.57900E+000	9	...........
	39	0.533333	6.55052E-001	1.01385E-004	0.00000E+000	6.64122E-005	5.99601E-002	6.55335E-001	3.57900E+000	9	...........
	40	0.546667	6.65459E-001	1.00873E-004	0.00000E+000	6.71268E-005	5.99601E-002	6.65747E-001	3.57900E+000	9	...........
	41	0.56	6.75652E-001	1.00670E-004	0.00000E+000	6.80178E-005	5.99601E-002	6.75929E-001	3.57900E+000	9	...........
	42	0.573333	6.85621E-001	1.01061E-004	0.00000E+000	6.92892E-005	5.99601E-002	6.85899E-001	3.57900E+000	9	...........
	43	0.586667	6.95438E-001	1.00671E-004	0.00000E+000	7.00104E-005	5.99601E-002	6.95688E-001	3.57900E+000	9	...........
	44	0.6	7.05002E-001	1.00352E-004	0.00000E+000	7.07484E-005	5.99601E-002	7.05276E-001	3.57900E+000	9	...........
	45	0.613333	7.14410E-001	1.00603E-004	0.00000E+000	7.18720E-005	5.99601E-002	7.14689E-001	3.57900E+000	9	...........
	46	0.626667	7.23649E-001	1.01322E-004	0.00000E+000	7.33216E-005	5.99601E-002	7.23919E-001	3.57900E+000	9	...........
	47	0.64	7.32670E-001	1.01634E-004	0.00000E+000	7.44639E-005	5.99601E-002	7.32946E-001	3.57900E+000	9	...........
	48	0.653333	7.41527E-001	1.01192E-004	0.00000E+000	7.50365E-005	5.99601E-002	7.41824E-001	3.57900E+000	9	...........
	49	0.666667	7.50232E-001	1.01338E-004	0.00000E+000	7.60268E-005	5.99601E-002	7.50510E-001	3.57900E+000	9	...........
	50	0.68	7.58756E-001	1.01191E-004	0.00000E+000	7.67791E-005	5.99601E-002	7.59047E-001	3.57900E+000	9	...........
	51	0.693333	7.67109E-001	1.01086E-004	0.00000E+000	7.75436E-005	5.99601E-002	7.67412E-001	3.57900E+000	9	...........
	52	0.706667	7.75300E-001	1.00914E-004	0.00000E+000	7.82384E-005	5.99601E-002	7.75634E-001	3.57900E+000	9	...........
	53	0.72	7.83351E-001	1.00554E-004	0.00000E+000	7.87692E-005	5.99601E-002	7.83671E-001	3.57900E+000	9	...........
	54	0.733333	7.91250E-001	1.01111E-004	0.00000E+000	8.00038E-005	5.99601E-002	7.91569E-001	3.57900E+000	9	...........
	55	0.746667	7.99035E-001	1.00354E-004	0.00000E+000	8.01865E-005	5.99601E-002	7.99329E-001	3.57900E+000	9	...........
	56	0.76	8.06605E-001	1.00721E-004	0.00000E+000	8.12419E-005	5.99601E-002	8.06916E-001	3.57900E+000	9	...........
	57	0.773333	8.14055E-001	1.00793E-004	0.00000E+000	8.20509E-005	5.99601E-002	8.14391E-001	3.57900E+000	9	...........
	58	0.786667	8.21407E-001	1.00070E-004	0.00000E+000	8.21980E-005	5.99601E-002	8.21741E-001	3.57900E+000	9	...........
	59	0.8	8.28600E-001	1.00683E-004	0.00000E+000	8.34263E-005	5.99601E-002	8.28923E-001	3.57900E+000	9	...........
	60	0.813333	8.35657E-001	1.01331E-004	0.00000E+000	8.46783E-005	5.99601E-002	8.35997E-001	3.57900E+000	9	...........
	61	0.826667	8.42593E-001	1.00784E-004	0.00000E+000	8.49203E-005	5.99601E-002	8.42936E-001	3.57900E+000	9	...........
	62	0.84	8.49432E-001	1.00947E-004	0.00000E+000	8.57476E-005	5.99601E-002	8.49751E-001	3.57900E+000	9	...........
	63	0.853333	8.56108E-001	1.01389E-004	0.00000E+000	8.67997E-005	5.99601E-002	8.56459E-001	3.57900E+000	9	...........
	64	0.866667	8.62700E-001	1.00293E-004	0.00000E+000	8.65225E-005	5.99601E-002	8.63043E-001	3.57900E+000	9	...........
	65	0.88	8.69158E-001	1.00581E-004	0.00000E+000	8.74210E-005	5.99601E-002	8.69518E-001	3.57900E+000	9	...........
	66	0.893333	8.75525E-001	1.00442E-004	0.00000E+000	8.79392E-005	5.99601E-002	8.75866E-001	3.57900E+000	9	...........
	67	0.906667	8.81779E-001	1.00881E-004	0.00000E+000	8.89550E-005	5.99601E-002	8.82107E-001	3.57900E+000	9	...........
	68	0.92	8.87888E-001	1.00773E-004	0.00000E+000	8.94752E-005	5.99601E-002	8.88241E-001	3.57900E+000	9	...........
	69	0.933333	8.93913E-001	1.00209E-004	0.00000E+000	8.95784E-005	5.99601E-002	8.94264E-001	3.57900E+000	9	...........
	70	0.946667	8.99822E-001	1.00903E-004	0.00000E+000	9.07949E-005	5.99601E-002	9.00187E-001	3.57900E+000	9	...........
	71	0.96	9.05627E-001	1.01784E-004	0.00000E+000	9.21781E-005	5.99601E-002	9.05995E-001	3.57900E+000	9	...........
	72	0.97333	9.11353E-001	1.01419E-004	0.00000E+000	9.24285E-005	5.99601E-002	9.11695E-001	3.57900E+000	9	...........
	73	0.98667	9.16940E-001	1.00849E-004	0.00000E+000	9.24726E-005	5.99601E-002	9.17302E-001	3.57900E+000	9	...........
	74	1	9.22487E-001	1.00320E-004	0.00000E+000	9.25437E-005	5.99601E-002	9.22808E-001	3.57900E+000	9	...........
	75	1.01333	9.27896E-001	1.00901E-004	0.00000E+000	9.36257E-005	5.99601E-002	9.28225E-001	3.57900E+000	9	...........
	76	1.02667	9.33170E-001	1.01099E-004	0.00000E+000	9.43427E-005	5.99601E-002	9.33511E-001	3.57900E+000	9	...........
	77	1.04	9.38353E-001	1.00478E-004	0.00000E+000	9.42840E-005	5.99601E-002	9.38699E-001	3.57900E+000	9	...........
	78	1.05333	9.43454E-001	1.01626E-004	0.00000E+000	9.58797E-005	5.99601E-002	9.43781E-001	3.57900E+000	9	...........
	79	1.06667	9.48502E-001	1.02344E-004	0.00000E+000	9.70736E-005	5.99601E-002	9.48828E-001	3.57900E+000	9	...........
	80	1.08	9.53374E-001	1.00345E-004	0.00000E+000	9.56661E-005	5.99601E-002	9.53734E-001	3.57900E+000	9	...........
	81	1.09333	9.58201E-001	1.01260E-004	0.00000E+000	9.70270E-005	5.99601E-002	9.58546E-001	3.57900E+000	9	...........
	82	1.10667	9.62897E-001	1.00391E-004	0.00000E+000	9.66659E-005	5.99601E-002	9.63258E-001	3.57900E+000	9	...........
	83	1.12	9.67513E-001	1.01390E-004	0.00000E+000	9.80959E-005	5.99601E-002	9.67869E-001	3.57900E+000	9	...........
	84	1.13333	9.72052E-001	1.00356E-004	0.00000E+000	9.75515E-005	5.99601E-002	9.72438E-001	3.57900E+000	9	...........
	85	1.14667	9.76504E-001	1.00559E-004	0.00000E+000	9.81966E-005	5.99601E-002	9.76889E-001	3.57900E+000	9	...........
	86	1.16	9.80870E-001	1.00633E-004	0.00000E+000	9.87083E-005	5.99601E-002	9.81218E-001	3.57900E+000	9	...........
	87	1.17333	9.85111E-001	1.01202E-004	0.00000E+000	9.96954E-005	5.99601E-002	9.85487E-001	3.57900E+000	9	...........
	88	1.18667	9.89292E-001	1.01074E-004	0.00000E+000	9.99918E-005	5.99601E-002	9.89650E-001	3.57900E+000	9	...........
	89	1.2	9.93347E-001	1.00665E-004	0.00000E+000	9.99950E-005	5.99601E-002	9.93726E-001	3.57900E+000	9	...........
	90	1.21333	9.97374E-001	1.01087E-004	0.00000E+000	1.00821E-004	5.99601E-002	9.97740E-001	3.57900E+000	9	...........
	91	1.21667	9.99846E-001	1.01494E-004	0.00000E+000	1.01478E-004	5.99601E-002	1.00020E+000	3.57900E+000	9	...........
STARTTIMEOFFSET	QUANT	1351.831	Start Time Offset (s)
