EXPLAIN
TAG	PWR800_CHARGE
TITLE	LABEL	PWR Cyclic Charge Discharge (Cell) - Charge Step	Test &Identifier
DATE	LABEL	13-7-2017	Date
TIME	LABEL	15:18:09	Time
NOTES	NOTES	2	&Notes...
	supercap test cell
	6M KOH
PSTAT	PSTAT	IFC5000-01520	Potentiostat
CAPACITY	QUANT	1.00000E-003	Capacity (A-hr)
CELLTYPE	SELECTOR	1	&Cell Type
WORKINGCONNECTION	SELECTOR	0	&Working Lead
MAXCHARGETIME	VARIABLEANDUNITS	1.00000E+002	s	1.00000E+002	second(s)	Max &Charge Time
CHARGECURRENT	QUANT	1.00000E-004	&Charge Current (A) 
VOLTAGEFINISH	TWOPARAM	F	1.00000E-003	3.60000E+003	&Voltage Finish	 I (A) < 	Max Time(s)
SAMPLETIME	QUANT	1.00000E-002	Sa&mple Period (s)
CHARGESTOPAT1	MULTIPARAM	4	1.00000E+000	Charge Stop At &1	Voltage > Limit	V
CHARGESTOPAT2	MULTIPARAM	0	0.00000E+000	Charge Stop At &2	None	N/A
AESBHCSELECTOR	TOGGLE	F	Save Both Half Cells
IRCOMP	TOGGLE	F	IR &Measure
EOC	QUANT	0	Open Circuit (V)
SEQUENCER	TOGGLE	TRUE	Run as Sequence
PSTATMODEL	IQUANT	53	Pstat Model
PSTATSECTION	LABEL	IFC5000-01520	Pstat Section
PSTATSERIALNO	LABEL	01520	Pstat Serial Number
CTRLMODE	IQUANT	0	Control Mode
ELECTROMETER	IQUANT	1	RE=0 or CS=1
IESTAB	IQUANT	0	I/E Stability
CASPEED	IQUANT	4	Control Amp Speed
CONVENTION	IQUANT	1	Current Convention
ICHRANGE	IQUANT	2	Ich Range
ICHRANGEMODE	TOGGLE	T	Ich Auto Range
ICHOFFSETENABLE	TOGGLE	F	Ich Offset Enable
ICHOFFSET	QUANT	0	Ich Offset (V)
ICHFILTER	IQUANT	1	Ich Filter
VCHRANGE	IQUANT	2	Vch Range
VCHRANGEMODE	TOGGLE	T	Vch Auto Range
VCHOFFSETENABLE	TOGGLE	F	Vch Offset Enable
VCHOFFSET	QUANT	0	Vch Offset (V)
VCHFILTER	IQUANT	1	Vch Filter
IERANGELOWERLIMIT	IQUANT	9	I/E Range Lower Limit
IERANGEMODE	TOGGLE	F	I/E AutoRange
IERANGE	IQUANT	9	I/E Range
ACHSELECT	IQUANT	1	Ach Select
ACHRANGE	IQUANT	2	Ach Range
ACHOFFSETENABLE	TOGGLE	F	Ach Offset Enable
ACHOFFSET	QUANT	0	Ach Offset (V)
ACHFILTER	IQUANT	1	Ach Filter
CABLEID	IQUANT	14	Cable ID
DCCALDATE	LABEL	5-7-2017	DC Calibration Date
ACCALDATE	LABEL	12/3/2015	AC Calibration Date
FRAMEWORKVERSION	QUANT	7.01	Framework Version
INSTRUMENTVERSION	LABEL	4.00	Instrument Version
CURVE	TABLE	95
	Pt	T	Vf	Im	Vu	Pwr	Sig	Ach	Temp	IERange	Over
	#	s	V	A	V	W	V	V	deg C	#	bits
	0	0.013333	1.32890E-001	1.00258E-004	0.00000E+000	1.33233E-005	5.99601E-002	1.32944E-001	3.58010E+000	9	...........
	1	0.026667	1.48123E-001	1.00905E-004	0.00000E+000	1.49464E-005	5.99601E-002	1.48142E-001	3.58010E+000	9	...........
	2	0.04	1.62897E-001	1.00385E-004	0.00000E+000	1.63524E-005	5.99601E-002	1.62925E-001	3.58010E+000	9	...........
	3	0.053333	1.77412E-001	1.01336E-004	0.00000E+000	1.79781E-005	5.99601E-002	1.77444E-001	3.58010E+000	9	...........
	4	0.066667	1.91728E-001	1.01146E-004	0.00000E+000	1.93925E-005	5.99601E-002	1.91763E-001	3.58010E+000	9	...........
	5	0.08	2.05902E-001	1.00927E-004	0.00000E+000	2.07811E-005	5.99601E-002	2.05938E-001	3.58010E+000	9	...........
	6	0.093333	2.19977E-001	1.01497E-004	0.00000E+000	2.23270E-005	5.99601E-002	2.20013E-001	3.58010E+000	9	...........
	7	0.106667	2.33970E-001	1.01640E-004	0.00000E+000	2.37807E-005	5.99601E-002	2.34014E-001	3.58010E+000	9	...........
	8	0.12	2.47913E-001	1.00771E-004	0.00000E+000	2.49824E-005	5.99601E-002	2.47958E-001	3.58010E+000	9	...........
	9	0.133333	2.61823E-001	1.00660E-004	0.00000E+000	2.63553E-005	5.99601E-002	2.61878E-001	3.58010E+000	9	...........
	10	0.146667	2.75716E-001	1.00594E-004	0.00000E+000	2.77353E-005	5.99601E-002	2.75769E-001	3.58010E+000	9	...........
	11	0.16	2.89598E-001	1.01319E-004	0.00000E+000	2.93418E-005	5.99601E-002	2.89659E-001	3.58010E+000	9	...........
	12	0.173333	3.03490E-001	1.00771E-004	0.00000E+000	3.05830E-005	5.99601E-002	3.03547E-001	3.58010E+000	9	...........
	13	0.186667	3.17383E-001	1.01427E-004	0.00000E+000	3.21914E-005	5.99601E-002	3.17448E-001	3.58010E+000	9	...........
	14	0.2	3.31286E-001	1.01486E-004	0.00000E+000	3.36207E-005	5.99601E-002	3.31353E-001	3.58010E+000	9	...........
	15	0.213333	3.45197E-001	1.00460E-004	0.00000E+000	3.46786E-005	5.99601E-002	3.45265E-001	3.58010E+000	9	...........
	16	0.226667	3.59112E-001	1.00377E-004	0.00000E+000	3.60467E-005	5.99601E-002	3.59185E-001	3.58010E+000	9	...........
	17	0.24	3.73026E-001	1.01175E-004	0.00000E+000	3.77409E-005	5.99601E-002	3.73101E-001	3.58010E+000	9	...........
	18	0.253333	3.86931E-001	1.01285E-004	0.00000E+000	3.91902E-005	5.99601E-002	3.87008E-001	3.58010E+000	9	...........
	19	0.266667	4.00806E-001	1.00465E-004	0.00000E+000	4.02668E-005	5.99601E-002	4.00884E-001	3.57982E+000	9	...........
	20	0.28	4.14637E-001	1.01115E-004	0.00000E+000	4.19259E-005	5.99601E-002	4.14726E-001	3.57900E+000	9	...........
	21	0.293333	4.28408E-001	1.01492E-004	0.00000E+000	4.34800E-005	5.99601E-002	4.28499E-001	3.57900E+000	9	...........
	22	0.306667	4.42100E-001	1.00739E-004	0.00000E+000	4.45366E-005	5.99601E-002	4.42193E-001	3.57900E+000	9	...........
	23	0.32	4.55689E-001	1.00488E-004	0.00000E+000	4.57911E-005	5.99601E-002	4.55789E-001	3.57900E+000	9	...........
	24	0.333333	4.69171E-001	1.01818E-004	0.00000E+000	4.77700E-005	5.99601E-002	4.69265E-001	3.57900E+000	9	...........
	25	0.346667	4.82496E-001	1.00926E-004	0.00000E+000	4.86964E-005	5.99601E-002	4.82595E-001	3.57900E+000	9	...........
	26	0.36	4.95668E-001	1.01008E-004	0.00000E+000	5.00667E-005	5.99601E-002	4.95773E-001	3.57900E+000	9	...........
	27	0.373333	5.08659E-001	1.00541E-004	0.00000E+000	5.11410E-005	5.99601E-002	5.08772E-001	3.57900E+000	9	...........
	28	0.386667	5.21469E-001	1.01553E-004	0.00000E+000	5.29569E-005	5.99601E-002	5.21580E-001	3.57900E+000	9	...........
	29	0.4	5.33881E-001	1.00819E-004	0.00000E+000	5.38253E-005	5.99601E-002	5.34068E-001	3.57900E+000	9	...........
	30	0.413333	5.46117E-001	1.00379E-004	0.00000E+000	5.48188E-005	5.99601E-002	5.46364E-001	3.57900E+000	9	...........
	31	0.426667	5.58253E-001	9.99218E-005	0.00000E+000	5.57816E-005	5.99601E-002	5.58565E-001	3.57900E+000	9	...........
	32	0.44	5.70260E-001	1.01122E-004	0.00000E+000	5.76658E-005	5.99601E-002	5.70512E-001	3.57900E+000	9	...........
	33	0.453333	5.81968E-001	9.99749E-005	0.00000E+000	5.81822E-005	5.99601E-002	5.82247E-001	3.57900E+000	9	...........
	34	0.466667	5.93509E-001	1.01554E-004	0.00000E+000	6.02735E-005	5.99601E-002	5.93776E-001	3.57900E+000	9	...........
	35	0.48	6.04762E-001	1.00595E-004	0.00000E+000	6.08360E-005	5.99601E-002	6.05070E-001	3.57900E+000	9	...........
	36	0.493333	6.15879E-001	1.00706E-004	0.00000E+000	6.20229E-005	5.99601E-002	6.16157E-001	3.57900E+000	9	...........
	37	0.506667	6.26728E-001	1.01437E-004	0.00000E+000	6.35732E-005	5.99601E-002	6.26988E-001	3.57900E+000	9	...........
	38	0.52	6.37371E-001	1.01100E-004	0.00000E+000	6.44383E-005	5.99601E-002	6.37646E-001	3.57900E+000	9	...........
	39	0.533333	6.47808E-001	1.01106E-004	0.00000E+000	6.54976E-005	5.99601E-002	6.48077E-001	3.57900E+000	9	...........
	40	0.546667	6.58011E-001	1.01000E-004	0.00000E+000	6.64592E-005	5.99601E-002	6.58308E-001	3.57900E+000	9	...........
	41	0.56	6.68041E-001	1.00684E-004	0.00000E+000	6.72613E-005	5.99601E-002	6.68327E-001	3.57900E+000	9	...........
	42	0.573333	6.77866E-001	1.00681E-004	0.00000E+000	6.82484E-005	5.99601E-002	6.78152E-001	3.57900E+000	9	...........
	43	0.586667	6.87473E-001	1.01696E-004	0.00000E+000	6.99133E-005	5.99601E-002	6.87769E-001	3.57900E+000	9	...........
	44	0.6	6.96902E-001	1.00363E-004	0.00000E+000	6.99428E-005	5.99601E-002	6.97204E-001	3.57900E+000	9	...........
	45	0.613333	7.06137E-001	1.01451E-004	0.00000E+000	7.16385E-005	5.99601E-002	7.06439E-001	3.57900E+000	9	...........
	46	0.626667	7.15205E-001	1.01637E-004	0.00000E+000	7.26910E-005	5.99601E-002	7.15491E-001	3.57900E+000	9	...........
	47	0.64	7.24113E-001	1.00872E-004	0.00000E+000	7.30427E-005	5.99601E-002	7.24386E-001	3.57900E+000	9	...........
	48	0.653333	7.32794E-001	1.00817E-004	0.00000E+000	7.38779E-005	5.99601E-002	7.33100E-001	3.57900E+000	9	...........
	49	0.666667	7.41345E-001	1.01281E-004	0.00000E+000	7.50845E-005	5.99601E-002	7.41660E-001	3.57900E+000	9	...........
	50	0.68	7.49706E-001	1.01352E-004	0.00000E+000	7.59844E-005	5.99601E-002	7.50040E-001	3.57900E+000	9	...........
	51	0.693333	7.57957E-001	1.00909E-004	0.00000E+000	7.64850E-005	5.99601E-002	7.58262E-001	3.57900E+000	9	...........
	52	0.706667	7.66003E-001	1.00197E-004	0.00000E+000	7.67511E-005	5.99601E-002	7.66344E-001	3.57900E+000	9	...........
	53	0.72	7.73905E-001	9.98176E-005	0.00000E+000	7.72493E-005	5.99601E-002	7.74252E-001	3.57900E+000	9	...........
	54	0.733333	7.81707E-001	1.00517E-004	0.00000E+000	7.85746E-005	5.99601E-002	7.82025E-001	3.57900E+000	9	...........
	55	0.746667	7.89331E-001	1.01533E-004	0.00000E+000	8.01427E-005	5.99601E-002	7.89686E-001	3.57900E+000	9	...........
	56	0.76	7.96877E-001	1.00360E-004	0.00000E+000	7.99749E-005	5.99601E-002	7.97168E-001	3.57900E+000	9	...........
	57	0.773333	8.04197E-001	1.01416E-004	0.00000E+000	8.15584E-005	5.99601E-002	8.04557E-001	3.57900E+000	9	...........
	58	0.786667	8.11430E-001	1.00526E-004	0.00000E+000	8.15699E-005	5.99601E-002	8.11780E-001	3.57900E+000	9	...........
	59	0.8	8.18528E-001	1.01017E-004	0.00000E+000	8.26851E-005	5.99601E-002	8.18878E-001	3.57900E+000	9	...........
	60	0.813333	8.25509E-001	1.01753E-004	0.00000E+000	8.39984E-005	5.99601E-002	8.25853E-001	3.57900E+000	9	...........
	61	0.826667	8.32349E-001	1.00672E-004	0.00000E+000	8.37942E-005	5.99601E-002	8.32691E-001	3.57900E+000	9	...........
	62	0.84	8.39055E-001	1.00483E-004	0.00000E+000	8.43111E-005	5.99601E-002	8.39410E-001	3.57900E+000	9	...........
	63	0.853333	8.45680E-001	1.00543E-004	0.00000E+000	8.50270E-005	5.99601E-002	8.46032E-001	3.57900E+000	9	...........
	64	0.866667	8.52186E-001	9.96488E-005	0.00000E+000	8.49194E-005	5.99601E-002	8.52514E-001	3.57900E+000	9	...........
	65	0.88	8.58571E-001	1.01309E-004	0.00000E+000	8.69806E-005	5.99601E-002	8.58922E-001	3.57900E+000	9	...........
	66	0.893333	8.64842E-001	1.01073E-004	0.00000E+000	8.74123E-005	5.99601E-002	8.65188E-001	3.57900E+000	9	...........
	67	0.906667	8.71041E-001	1.00252E-004	0.00000E+000	8.73236E-005	5.99601E-002	8.71397E-001	3.57900E+000	9	...........
	68	0.92	8.77107E-001	1.01859E-004	0.00000E+000	8.93409E-005	5.99601E-002	8.77442E-001	3.57900E+000	9	...........
	69	0.933333	8.83079E-001	1.01132E-004	0.00000E+000	8.93080E-005	5.99601E-002	8.83423E-001	3.57900E+000	9	...........
	70	0.946667	8.88919E-001	1.00973E-004	0.00000E+000	8.97568E-005	5.99601E-002	8.89286E-001	3.57900E+000	9	...........
	71	0.96	8.94683E-001	1.01069E-004	0.00000E+000	9.04247E-005	5.99601E-002	8.95025E-001	3.57900E+000	9	...........
	72	0.97333	9.00327E-001	1.00373E-004	0.00000E+000	9.03684E-005	5.99601E-002	9.00713E-001	3.57900E+000	9	...........
	73	0.98667	9.05895E-001	1.00865E-004	0.00000E+000	9.13728E-005	5.99601E-002	9.06292E-001	3.57900E+000	9	...........
	74	1	9.11373E-001	1.01483E-004	0.00000E+000	9.24885E-005	5.99601E-002	9.11718E-001	3.57900E+000	9	...........
	75	1.01333	9.16728E-001	1.00373E-004	0.00000E+000	9.20146E-005	5.99601E-002	9.17104E-001	3.57900E+000	9	...........
	76	1.02667	9.22053E-001	1.02432E-004	0.00000E+000	9.44475E-005	5.99601E-002	9.22382E-001	3.57900E+000	9	...........
	77	1.04	9.27209E-001	1.00954E-004	0.00000E+000	9.36057E-005	5.99601E-002	9.27557E-001	3.57900E+000	9	...........
	78	1.05333	9.32302E-001	1.00502E-004	0.00000E+000	9.36983E-005	5.99601E-002	9.32648E-001	3.57900E+000	9	...........
	79	1.06667	9.37280E-001	1.00606E-004	0.00000E+000	9.42963E-005	5.99601E-002	9.37634E-001	3.57900E+000	9	...........
	80	1.08	9.42186E-001	1.01296E-004	0.00000E+000	9.54397E-005	5.99601E-002	9.42511E-001	3.57900E+000	9	...........
	81	1.09333	9.46998E-001	1.01663E-004	0.00000E+000	9.62744E-005	5.99601E-002	9.47346E-001	3.57900E+000	9	...........
	82	1.10667	9.51739E-001	1.01113E-004	0.00000E+000	9.62329E-005	5.99601E-002	9.52066E-001	3.57900E+000	9	...........
	83	1.12	9.56349E-001	1.01105E-004	0.00000E+000	9.66920E-005	5.99601E-002	9.56695E-001	3.57900E+000	9	...........
	84	1.13333	9.60870E-001	1.01079E-004	0.00000E+000	9.71241E-005	5.99601E-002	9.61255E-001	3.57900E+000	9	...........
	85	1.14667	9.65318E-001	1.00132E-004	0.00000E+000	9.66595E-005	5.99601E-002	9.65691E-001	3.57900E+000	9	...........
	86	1.16	9.69695E-001	1.00393E-004	0.00000E+000	9.73503E-005	5.99601E-002	9.70073E-001	3.57900E+000	9	...........
	87	1.17333	9.74023E-001	1.00694E-004	0.00000E+000	9.80781E-005	5.99601E-002	9.74393E-001	3.57900E+000	9	...........
	88	1.18667	9.78227E-001	1.01373E-004	0.00000E+000	9.91659E-005	5.99601E-002	9.78586E-001	3.57900E+000	9	...........
	89	1.2	9.82316E-001	1.01728E-004	0.00000E+000	9.99294E-005	5.99601E-002	9.82690E-001	3.57900E+000	9	...........
	90	1.21333	9.86348E-001	1.00993E-004	0.00000E+000	9.96141E-005	5.99601E-002	9.86730E-001	3.57900E+000	9	...........
	91	1.22667	9.90301E-001	1.00320E-004	0.00000E+000	9.93468E-005	5.99601E-002	9.90676E-001	3.57900E+000	9	...........
	92	1.24	9.94148E-001	1.01181E-004	0.00000E+000	1.00589E-004	5.99601E-002	9.94525E-001	3.57900E+000	9	...........
	93	1.25333	9.97935E-001	1.00655E-004	0.00000E+000	1.00447E-004	5.99601E-002	9.98316E-001	3.57900E+000	9	...........
	94	1.255	1.00002E+000	1.00556E-004	0.00000E+000	1.00558E-004	5.99601E-002	1.00038E+000	3.57900E+000	9	...........
STARTTIMEOFFSET	QUANT	730.2709	Start Time Offset (s)
