EXPLAIN
TAG	PWR800_CHARGE
TITLE	LABEL	PWR Cyclic Charge Discharge (Cell) - Charge Step	Test &Identifier
DATE	LABEL	13-7-2017	Date
TIME	LABEL	15:07:54	Time
NOTES	NOTES	2	&Notes...
	supercap test cell
	6M KOH
PSTAT	PSTAT	IFC5000-01520	Potentiostat
CAPACITY	QUANT	1.00000E-003	Capacity (A-hr)
CELLTYPE	SELECTOR	1	&Cell Type
WORKINGCONNECTION	SELECTOR	0	&Working Lead
MAXCHARGETIME	VARIABLEANDUNITS	1.00000E+002	s	1.00000E+002	second(s)	Max &Charge Time
CHARGECURRENT	QUANT	1.00000E-004	&Charge Current (A) 
VOLTAGEFINISH	TWOPARAM	F	1.00000E-003	3.60000E+003	&Voltage Finish	 I (A) < 	Max Time(s)
SAMPLETIME	QUANT	1.00000E-002	Sa&mple Period (s)
CHARGESTOPAT1	MULTIPARAM	4	1.00000E+000	Charge Stop At &1	Voltage > Limit	V
CHARGESTOPAT2	MULTIPARAM	0	0.00000E+000	Charge Stop At &2	None	N/A
AESBHCSELECTOR	TOGGLE	F	Save Both Half Cells
IRCOMP	TOGGLE	F	IR &Measure
EOC	QUANT	0	Open Circuit (V)
SEQUENCER	TOGGLE	TRUE	Run as Sequence
PSTATMODEL	IQUANT	53	Pstat Model
PSTATSECTION	LABEL	IFC5000-01520	Pstat Section
PSTATSERIALNO	LABEL	01520	Pstat Serial Number
CTRLMODE	IQUANT	0	Control Mode
ELECTROMETER	IQUANT	1	RE=0 or CS=1
IESTAB	IQUANT	0	I/E Stability
CASPEED	IQUANT	4	Control Amp Speed
CONVENTION	IQUANT	1	Current Convention
ICHRANGE	IQUANT	2	Ich Range
ICHRANGEMODE	TOGGLE	T	Ich Auto Range
ICHOFFSETENABLE	TOGGLE	F	Ich Offset Enable
ICHOFFSET	QUANT	0	Ich Offset (V)
ICHFILTER	IQUANT	1	Ich Filter
VCHRANGE	IQUANT	2	Vch Range
VCHRANGEMODE	TOGGLE	T	Vch Auto Range
VCHOFFSETENABLE	TOGGLE	F	Vch Offset Enable
VCHOFFSET	QUANT	0	Vch Offset (V)
VCHFILTER	IQUANT	1	Vch Filter
IERANGELOWERLIMIT	IQUANT	9	I/E Range Lower Limit
IERANGEMODE	TOGGLE	F	I/E AutoRange
IERANGE	IQUANT	9	I/E Range
ACHSELECT	IQUANT	1	Ach Select
ACHRANGE	IQUANT	2	Ach Range
ACHOFFSETENABLE	TOGGLE	F	Ach Offset Enable
ACHOFFSET	QUANT	0	Ach Offset (V)
ACHFILTER	IQUANT	1	Ach Filter
CABLEID	IQUANT	14	Cable ID
DCCALDATE	LABEL	5-7-2017	DC Calibration Date
ACCALDATE	LABEL	12/3/2015	AC Calibration Date
FRAMEWORKVERSION	QUANT	7.01	Framework Version
INSTRUMENTVERSION	LABEL	4.00	Instrument Version
CURVE	TABLE	99
	Pt	T	Vf	Im	Vu	Pwr	Sig	Ach	Temp	IERange	Over
	#	s	V	A	V	W	V	V	deg C	#	bits
	0	0.013333	1.33373E-001	1.01095E-004	0.00000E+000	1.34834E-005	5.99601E-002	1.33422E-001	3.57880E+000	9	...........
	1	0.026667	1.48726E-001	1.01154E-004	0.00000E+000	1.50442E-005	5.99601E-002	1.48746E-001	3.57880E+000	9	...........
	2	0.04	1.63625E-001	1.01205E-004	0.00000E+000	1.65598E-005	5.99601E-002	1.63651E-001	3.57880E+000	9	...........
	3	0.053333	1.78256E-001	1.00173E-004	0.00000E+000	1.78564E-005	5.99601E-002	1.78285E-001	3.57880E+000	9	...........
	4	0.066667	1.92690E-001	1.00565E-004	0.00000E+000	1.93778E-005	5.99601E-002	1.92722E-001	3.57880E+000	9	...........
	5	0.08	2.06981E-001	1.00011E-004	0.00000E+000	2.07005E-005	5.99601E-002	2.07017E-001	3.57880E+000	9	...........
	6	0.093333	2.21159E-001	1.00326E-004	0.00000E+000	2.21880E-005	5.99601E-002	2.21195E-001	3.57880E+000	9	...........
	7	0.106667	2.35262E-001	1.01093E-004	0.00000E+000	2.37833E-005	5.99601E-002	2.35301E-001	3.57880E+000	9	...........
	8	0.12	2.49303E-001	1.01612E-004	0.00000E+000	2.53322E-005	5.99601E-002	2.49346E-001	3.57880E+000	9	...........
	9	0.133333	2.63297E-001	1.00932E-004	0.00000E+000	2.65752E-005	5.99601E-002	2.63347E-001	3.57880E+000	9	...........
	10	0.146667	2.77273E-001	1.01607E-004	0.00000E+000	2.81727E-005	5.99601E-002	2.77325E-001	3.57880E+000	9	...........
	11	0.16	2.91219E-001	1.00680E-004	0.00000E+000	2.93200E-005	5.99601E-002	2.91274E-001	3.57880E+000	9	...........
	12	0.173333	3.05154E-001	1.00249E-004	0.00000E+000	3.05914E-005	5.99601E-002	3.05206E-001	3.57880E+000	9	...........
	13	0.186667	3.19077E-001	1.00992E-004	0.00000E+000	3.22242E-005	5.99601E-002	3.19137E-001	3.57880E+000	9	...........
	14	0.2	3.32982E-001	1.00374E-004	0.00000E+000	3.34227E-005	5.99601E-002	3.33042E-001	3.57880E+000	9	...........
	15	0.213333	3.46880E-001	1.00849E-004	0.00000E+000	3.49825E-005	5.99601E-002	3.46944E-001	3.57880E+000	9	...........
	16	0.226667	3.60748E-001	1.00786E-004	0.00000E+000	3.63581E-005	5.99601E-002	3.60822E-001	3.57880E+000	9	...........
	17	0.24	3.74597E-001	1.00797E-004	0.00000E+000	3.77582E-005	5.99601E-002	3.74666E-001	3.57880E+000	9	...........
	18	0.253333	3.88395E-001	9.98436E-005	0.00000E+000	3.87788E-005	5.99601E-002	3.88464E-001	3.57880E+000	9	...........
	19	0.266667	4.02133E-001	1.00874E-004	0.00000E+000	4.05648E-005	5.99601E-002	4.02212E-001	3.57880E+000	9	...........
	20	0.28	4.15793E-001	1.00903E-004	0.00000E+000	4.19549E-005	5.99601E-002	4.15875E-001	3.57880E+000	9	...........
	21	0.293333	4.29363E-001	1.01597E-004	0.00000E+000	4.36221E-005	5.99601E-002	4.29454E-001	3.57880E+000	9	...........
	22	0.306667	4.42830E-001	9.97030E-005	0.00000E+000	4.41515E-005	5.99601E-002	4.42919E-001	3.57880E+000	9	...........
	23	0.32	4.56159E-001	1.01412E-004	0.00000E+000	4.62598E-005	5.99601E-002	4.56247E-001	3.57880E+000	9	...........
	24	0.333333	4.69350E-001	1.00571E-004	0.00000E+000	4.72030E-005	5.99601E-002	4.69447E-001	3.57880E+000	9	...........
	25	0.346667	4.82373E-001	1.00704E-004	0.00000E+000	4.85770E-005	5.99601E-002	4.82472E-001	3.57880E+000	9	...........
	26	0.36	4.95210E-001	1.01636E-004	0.00000E+000	5.03310E-005	5.99601E-002	4.95317E-001	3.57902E+000	9	...........
	27	0.373333	5.07865E-001	1.01786E-004	0.00000E+000	5.16934E-005	5.99601E-002	5.07975E-001	3.57910E+000	9	...........
	28	0.386667	5.20313E-001	1.00347E-004	0.00000E+000	5.22118E-005	5.99601E-002	5.20424E-001	3.57910E+000	9	...........
	29	0.4	5.32403E-001	1.01149E-004	0.00000E+000	5.38521E-005	5.99601E-002	5.32574E-001	3.57910E+000	9	...........
	30	0.413333	5.44219E-001	1.01188E-004	0.00000E+000	5.50682E-005	5.99601E-002	5.44472E-001	3.57910E+000	9	...........
	31	0.426667	5.55984E-001	1.00773E-004	0.00000E+000	5.60282E-005	5.99601E-002	5.56286E-001	3.57910E+000	9	...........
	32	0.44	5.67582E-001	1.01093E-004	0.00000E+000	5.73785E-005	5.99601E-002	5.67871E-001	3.57910E+000	9	...........
	33	0.453333	5.78918E-001	1.01406E-004	0.00000E+000	5.87060E-005	5.99601E-002	5.79220E-001	3.57910E+000	9	...........
	34	0.466667	5.90050E-001	1.00928E-004	0.00000E+000	5.95527E-005	5.99601E-002	5.90378E-001	3.57910E+000	9	...........
	35	0.48	6.00952E-001	1.01064E-004	0.00000E+000	6.07345E-005	5.99601E-002	6.01287E-001	3.57910E+000	9	...........
	36	0.493333	6.11651E-001	1.00960E-004	0.00000E+000	6.17520E-005	5.99601E-002	6.11987E-001	3.57910E+000	9	...........
	37	0.506667	6.22208E-001	1.01184E-004	0.00000E+000	6.29572E-005	5.99601E-002	6.22471E-001	3.57910E+000	9	...........
	38	0.52	6.32463E-001	1.02227E-004	0.00000E+000	6.46551E-005	5.99601E-002	6.32753E-001	3.57910E+000	9	...........
	39	0.533333	6.42521E-001	1.01070E-004	0.00000E+000	6.49396E-005	5.99601E-002	6.42812E-001	3.57910E+000	9	...........
	40	0.546667	6.52394E-001	1.00336E-004	0.00000E+000	6.54589E-005	5.99601E-002	6.52697E-001	3.57910E+000	9	...........
	41	0.56	6.62049E-001	9.99093E-005	0.00000E+000	6.61448E-005	5.99601E-002	6.62328E-001	3.57910E+000	9	...........
	42	0.573333	6.71550E-001	1.01073E-004	0.00000E+000	6.78756E-005	5.99601E-002	6.71820E-001	3.57910E+000	9	...........
	43	0.586667	6.80819E-001	1.00344E-004	0.00000E+000	6.83160E-005	5.99601E-002	6.81108E-001	3.57910E+000	9	...........
	44	0.6	6.89916E-001	1.00639E-004	0.00000E+000	6.94322E-005	5.99601E-002	6.90192E-001	3.57910E+000	9	...........
	45	0.613333	6.98831E-001	1.00169E-004	0.00000E+000	7.00010E-005	5.99601E-002	6.99120E-001	3.57910E+000	9	...........
	46	0.626667	7.07567E-001	1.00588E-004	0.00000E+000	7.11724E-005	5.99601E-002	7.07863E-001	3.57910E+000	9	...........
	47	0.64	7.16139E-001	1.00768E-004	0.00000E+000	7.21637E-005	5.99601E-002	7.16444E-001	3.57910E+000	9	...........
	48	0.653333	7.24560E-001	1.00424E-004	0.00000E+000	7.27632E-005	5.99601E-002	7.24840E-001	3.57910E+000	9	...........
	49	0.666667	7.32783E-001	1.00932E-004	0.00000E+000	7.39616E-005	5.99601E-002	7.33101E-001	3.57910E+000	9	...........
	50	0.68	7.40864E-001	1.01252E-004	0.00000E+000	7.50142E-005	5.99601E-002	7.41185E-001	3.57910E+000	9	...........
	51	0.693333	7.48816E-001	1.00921E-004	0.00000E+000	7.55712E-005	5.99601E-002	7.49129E-001	3.57910E+000	9	...........
	52	0.706667	7.56616E-001	1.00473E-004	0.00000E+000	7.60194E-005	5.99601E-002	7.56911E-001	3.57910E+000	9	...........
	53	0.72	7.64238E-001	1.00946E-004	0.00000E+000	7.71467E-005	5.99601E-002	7.64560E-001	3.57910E+000	9	...........
	54	0.733333	7.71752E-001	1.00467E-004	0.00000E+000	7.75353E-005	5.99601E-002	7.72087E-001	3.57910E+000	9	...........
	55	0.746667	7.79129E-001	1.01052E-004	0.00000E+000	7.87328E-005	5.99601E-002	7.79446E-001	3.57910E+000	9	...........
	56	0.76	7.86372E-001	1.00511E-004	0.00000E+000	7.90394E-005	5.99601E-002	7.86707E-001	3.57910E+000	9	...........
	57	0.773333	7.93503E-001	1.00361E-004	0.00000E+000	7.96372E-005	5.99601E-002	7.93822E-001	3.57910E+000	9	...........
	58	0.786667	8.00474E-001	1.00820E-004	0.00000E+000	8.07037E-005	5.99601E-002	8.00796E-001	3.57910E+000	9	...........
	59	0.8	8.07315E-001	1.00877E-004	0.00000E+000	8.14397E-005	5.99601E-002	8.07638E-001	3.57910E+000	9	...........
	60	0.813333	8.14059E-001	1.01400E-004	0.00000E+000	8.25457E-005	5.99601E-002	8.14385E-001	3.57910E+000	9	...........
	61	0.826667	8.20688E-001	1.01738E-004	0.00000E+000	8.34950E-005	5.99601E-002	8.21052E-001	3.57910E+000	9	...........
	62	0.84	8.27202E-001	1.01188E-004	0.00000E+000	8.37027E-005	5.99601E-002	8.27543E-001	3.57910E+000	9	...........
	63	0.853333	8.33588E-001	1.00625E-004	0.00000E+000	8.38799E-005	5.99601E-002	8.33938E-001	3.57910E+000	9	...........
	64	0.866667	8.39878E-001	1.00690E-004	0.00000E+000	8.45670E-005	5.99601E-002	8.40230E-001	3.57910E+000	9	...........
	65	0.88	8.46105E-001	1.01058E-004	0.00000E+000	8.55061E-005	5.99601E-002	8.46453E-001	3.57910E+000	9	...........
	66	0.893333	8.52188E-001	1.01248E-004	0.00000E+000	8.62824E-005	5.99601E-002	8.52527E-001	3.57910E+000	9	...........
	67	0.906667	8.58177E-001	1.00871E-004	0.00000E+000	8.65652E-005	5.99601E-002	8.58536E-001	3.57910E+000	9	...........
	68	0.92	8.64047E-001	1.00419E-004	0.00000E+000	8.67665E-005	5.99601E-002	8.64409E-001	3.57910E+000	9	...........
	69	0.933333	8.69868E-001	1.00409E-004	0.00000E+000	8.73429E-005	5.99601E-002	8.70231E-001	3.57910E+000	9	...........
	70	0.946667	8.75571E-001	1.00902E-004	0.00000E+000	8.83471E-005	5.99601E-002	8.75928E-001	3.57910E+000	9	...........
	71	0.96	8.81173E-001	1.02035E-004	0.00000E+000	8.99103E-005	5.99601E-002	8.81523E-001	3.57910E+000	9	...........
	72	0.97333	8.86679E-001	1.00777E-004	0.00000E+000	8.93570E-005	5.99601E-002	8.87057E-001	3.57910E+000	9	...........
	73	0.98667	8.92085E-001	1.01351E-004	0.00000E+000	9.04139E-005	5.99601E-002	8.92457E-001	3.57910E+000	9	...........
	74	1	8.97402E-001	9.98489E-005	0.00000E+000	8.96045E-005	5.99601E-002	8.97812E-001	3.57910E+000	9	...........
	75	1.01333	9.02635E-001	1.00737E-004	0.00000E+000	9.09283E-005	5.99601E-002	9.03023E-001	3.57910E+000	9	...........
	76	1.02667	9.07796E-001	1.00451E-004	0.00000E+000	9.11890E-005	5.99601E-002	9.08177E-001	3.57910E+000	9	...........
	77	1.04	9.12873E-001	1.02288E-004	0.00000E+000	9.33758E-005	5.99601E-002	9.13229E-001	3.57910E+000	9	...........
	78	1.05333	9.17862E-001	1.00775E-004	0.00000E+000	9.24976E-005	5.99601E-002	9.18214E-001	3.57910E+000	9	...........
	79	1.06667	9.22811E-001	1.00999E-004	0.00000E+000	9.32031E-005	5.99601E-002	9.23123E-001	3.57910E+000	9	...........
	80	1.08	9.27614E-001	1.01030E-004	0.00000E+000	9.37172E-005	5.99601E-002	9.27932E-001	3.57910E+000	9	...........
	81	1.09333	9.32336E-001	1.00453E-004	0.00000E+000	9.36561E-005	5.99601E-002	9.32668E-001	3.57910E+000	9	...........
	82	1.10667	9.36948E-001	1.01539E-004	0.00000E+000	9.51365E-005	5.99601E-002	9.37314E-001	3.57910E+000	9	...........
	83	1.12	9.41516E-001	1.00376E-004	0.00000E+000	9.45056E-005	5.99601E-002	9.41874E-001	3.57910E+000	9	...........
	84	1.13333	9.46016E-001	1.00401E-004	0.00000E+000	9.49810E-005	5.99601E-002	9.46359E-001	3.57910E+000	9	...........
	85	1.14667	9.50425E-001	1.01299E-004	0.00000E+000	9.62773E-005	5.99601E-002	9.50773E-001	3.57910E+000	9	...........
	86	1.16	9.54738E-001	1.01318E-004	0.00000E+000	9.67321E-005	5.99601E-002	9.55101E-001	3.57910E+000	9	...........
	87	1.17333	9.58977E-001	9.94154E-005	0.00000E+000	9.53371E-005	5.99601E-002	9.59346E-001	3.57910E+000	9	...........
	88	1.18667	9.63142E-001	1.00179E-004	0.00000E+000	9.64868E-005	5.99601E-002	9.63523E-001	3.57910E+000	9	...........
	89	1.2	9.67236E-001	1.01032E-004	0.00000E+000	9.77222E-005	5.99601E-002	9.67621E-001	3.57910E+000	9	...........
	90	1.21333	9.71238E-001	1.00616E-004	0.00000E+000	9.77218E-005	5.99601E-002	9.71628E-001	3.57910E+000	9	...........
	91	1.22667	9.75221E-001	1.00660E-004	0.00000E+000	9.81662E-005	5.99601E-002	9.75576E-001	3.57910E+000	9	...........
	92	1.24	9.79053E-001	1.00241E-004	0.00000E+000	9.81409E-005	5.99601E-002	9.79430E-001	3.57910E+000	9	...........
	93	1.25333	9.82818E-001	1.01455E-004	0.00000E+000	9.97123E-005	5.99601E-002	9.83198E-001	3.57910E+000	9	...........
	94	1.26667	9.86537E-001	1.00580E-004	0.00000E+000	9.92262E-005	5.99601E-002	9.86928E-001	3.57910E+000	9	...........
	95	1.28	9.90181E-001	1.00839E-004	0.00000E+000	9.98485E-005	5.99601E-002	9.90572E-001	3.57910E+000	9	...........
	96	1.29333	9.93714E-001	1.00086E-004	0.00000E+000	9.94572E-005	5.99601E-002	9.94111E-001	3.57910E+000	9	...........
	97	1.30667	9.97224E-001	1.00844E-004	0.00000E+000	1.00564E-004	5.99601E-002	9.97629E-001	3.57910E+000	9	...........
	98	1.31167	9.99603E-001	1.00159E-004	0.00000E+000	1.00119E-004	5.99601E-002	9.99971E-001	3.57910E+000	9	...........
STARTTIMEOFFSET	QUANT	262.5816	Start Time Offset (s)
