EXPLAIN
TAG	PWR800_CHARGE
TITLE	LABEL	PWR Cyclic Charge Discharge (Cell) - Charge Step	Test &Identifier
DATE	LABEL	13-7-2017	Date
TIME	LABEL	15:08:04	Time
NOTES	NOTES	2	&Notes...
	supercap test cell
	6M KOH
PSTAT	PSTAT	IFC5000-01520	Potentiostat
CAPACITY	QUANT	1.00000E-003	Capacity (A-hr)
CELLTYPE	SELECTOR	1	&Cell Type
WORKINGCONNECTION	SELECTOR	0	&Working Lead
MAXCHARGETIME	VARIABLEANDUNITS	1.00000E+002	s	1.00000E+002	second(s)	Max &Charge Time
CHARGECURRENT	QUANT	1.00000E-004	&Charge Current (A) 
VOLTAGEFINISH	TWOPARAM	F	1.00000E-003	3.60000E+003	&Voltage Finish	 I (A) < 	Max Time(s)
SAMPLETIME	QUANT	1.00000E-002	Sa&mple Period (s)
CHARGESTOPAT1	MULTIPARAM	4	1.00000E+000	Charge Stop At &1	Voltage > Limit	V
CHARGESTOPAT2	MULTIPARAM	0	0.00000E+000	Charge Stop At &2	None	N/A
AESBHCSELECTOR	TOGGLE	F	Save Both Half Cells
IRCOMP	TOGGLE	F	IR &Measure
EOC	QUANT	0	Open Circuit (V)
SEQUENCER	TOGGLE	TRUE	Run as Sequence
PSTATMODEL	IQUANT	53	Pstat Model
PSTATSECTION	LABEL	IFC5000-01520	Pstat Section
PSTATSERIALNO	LABEL	01520	Pstat Serial Number
CTRLMODE	IQUANT	0	Control Mode
ELECTROMETER	IQUANT	1	RE=0 or CS=1
IESTAB	IQUANT	0	I/E Stability
CASPEED	IQUANT	4	Control Amp Speed
CONVENTION	IQUANT	1	Current Convention
ICHRANGE	IQUANT	2	Ich Range
ICHRANGEMODE	TOGGLE	T	Ich Auto Range
ICHOFFSETENABLE	TOGGLE	F	Ich Offset Enable
ICHOFFSET	QUANT	0	Ich Offset (V)
ICHFILTER	IQUANT	1	Ich Filter
VCHRANGE	IQUANT	2	Vch Range
VCHRANGEMODE	TOGGLE	T	Vch Auto Range
VCHOFFSETENABLE	TOGGLE	F	Vch Offset Enable
VCHOFFSET	QUANT	0	Vch Offset (V)
VCHFILTER	IQUANT	1	Vch Filter
IERANGELOWERLIMIT	IQUANT	9	I/E Range Lower Limit
IERANGEMODE	TOGGLE	F	I/E AutoRange
IERANGE	IQUANT	9	I/E Range
ACHSELECT	IQUANT	1	Ach Select
ACHRANGE	IQUANT	2	Ach Range
ACHOFFSETENABLE	TOGGLE	F	Ach Offset Enable
ACHOFFSET	QUANT	0	Ach Offset (V)
ACHFILTER	IQUANT	1	Ach Filter
CABLEID	IQUANT	14	Cable ID
DCCALDATE	LABEL	5-7-2017	DC Calibration Date
ACCALDATE	LABEL	12/3/2015	AC Calibration Date
FRAMEWORKVERSION	QUANT	7.01	Framework Version
INSTRUMENTVERSION	LABEL	4.00	Instrument Version
CURVE	TABLE	99
	Pt	T	Vf	Im	Vu	Pwr	Sig	Ach	Temp	IERange	Over
	#	s	V	A	V	W	V	V	deg C	#	bits
	0	0.013333	1.33779E-001	1.01073E-004	0.00000E+000	1.35214E-005	5.99601E-002	1.33834E-001	3.57880E+000	9	...........
	1	0.026667	1.49118E-001	1.00834E-004	0.00000E+000	1.50362E-005	5.99601E-002	1.49135E-001	3.57880E+000	9	...........
	2	0.04	1.63999E-001	1.01325E-004	0.00000E+000	1.66172E-005	5.99601E-002	1.64028E-001	3.57880E+000	9	...........
	3	0.053333	1.78619E-001	1.00020E-004	0.00000E+000	1.78654E-005	5.99601E-002	1.78655E-001	3.57880E+000	9	...........
	4	0.066667	1.93047E-001	1.00472E-004	0.00000E+000	1.93958E-005	5.99601E-002	1.93084E-001	3.57880E+000	9	...........
	5	0.08	2.07327E-001	1.01050E-004	0.00000E+000	2.09504E-005	5.99601E-002	2.07362E-001	3.57880E+000	9	...........
	6	0.093333	2.21495E-001	1.00520E-004	0.00000E+000	2.22646E-005	5.99601E-002	2.21531E-001	3.57880E+000	9	...........
	7	0.106667	2.35597E-001	1.01151E-004	0.00000E+000	2.38309E-005	5.99601E-002	2.35637E-001	3.57880E+000	9	...........
	8	0.12	2.49633E-001	1.01477E-004	0.00000E+000	2.53321E-005	5.99601E-002	2.49675E-001	3.57880E+000	9	...........
	9	0.133333	2.63622E-001	1.01353E-004	0.00000E+000	2.67190E-005	5.99601E-002	2.63676E-001	3.57880E+000	9	...........
	10	0.146667	2.77590E-001	1.00868E-004	0.00000E+000	2.79999E-005	5.99601E-002	2.77638E-001	3.57880E+000	9	...........
	11	0.16	2.91535E-001	1.00874E-004	0.00000E+000	2.94084E-005	5.99601E-002	2.91585E-001	3.57880E+000	9	...........
	12	0.173333	3.05464E-001	1.00969E-004	0.00000E+000	3.08424E-005	5.99601E-002	3.05519E-001	3.57880E+000	9	...........
	13	0.186667	3.19388E-001	1.00873E-004	0.00000E+000	3.22176E-005	5.99601E-002	3.19443E-001	3.57880E+000	9	...........
	14	0.2	3.33295E-001	1.01419E-004	0.00000E+000	3.38024E-005	5.99601E-002	3.33354E-001	3.57880E+000	9	...........
	15	0.213333	3.47195E-001	1.01083E-004	0.00000E+000	3.50957E-005	5.99601E-002	3.47252E-001	3.57880E+000	9	...........
	16	0.226667	3.61058E-001	1.00920E-004	0.00000E+000	3.64380E-005	5.99601E-002	3.61127E-001	3.57880E+000	9	...........
	17	0.24	3.74904E-001	9.98447E-005	0.00000E+000	3.74321E-005	5.99601E-002	3.74971E-001	3.57880E+000	9	...........
	18	0.253333	3.88702E-001	1.00514E-004	0.00000E+000	3.90698E-005	5.99601E-002	3.88773E-001	3.57880E+000	9	...........
	19	0.266667	4.02443E-001	1.00772E-004	0.00000E+000	4.05550E-005	5.99601E-002	4.02523E-001	3.57880E+000	9	...........
	20	0.28	4.16106E-001	1.01222E-004	0.00000E+000	4.21192E-005	5.99601E-002	4.16190E-001	3.57880E+000	9	...........
	21	0.293333	4.29683E-001	1.01022E-004	0.00000E+000	4.34074E-005	5.99601E-002	4.29771E-001	3.57880E+000	9	...........
	22	0.306667	4.43152E-001	1.02338E-004	0.00000E+000	4.53513E-005	5.99601E-002	4.43239E-001	3.57880E+000	9	...........
	23	0.32	4.56486E-001	1.01455E-004	0.00000E+000	4.63130E-005	5.99601E-002	4.56575E-001	3.57880E+000	9	...........
	24	0.333333	4.69679E-001	1.01349E-004	0.00000E+000	4.76016E-005	5.99601E-002	4.69777E-001	3.57880E+000	9	...........
	25	0.346667	4.82708E-001	1.01952E-004	0.00000E+000	4.92132E-005	5.99601E-002	4.82807E-001	3.57880E+000	9	...........
	26	0.36	4.95553E-001	9.99051E-005	0.00000E+000	4.95083E-005	5.99601E-002	4.95654E-001	3.57880E+000	9	...........
	27	0.373333	5.08210E-001	1.00850E-004	0.00000E+000	5.12531E-005	5.99601E-002	5.08319E-001	3.57880E+000	9	...........
	28	0.386667	5.20665E-001	1.00995E-004	0.00000E+000	5.25846E-005	5.99601E-002	5.20776E-001	3.57880E+000	9	...........
	29	0.4	5.32768E-001	1.00285E-004	0.00000E+000	5.34289E-005	5.99601E-002	5.32945E-001	3.57880E+000	9	...........
	30	0.413333	5.44580E-001	1.01600E-004	0.00000E+000	5.53295E-005	5.99601E-002	5.44856E-001	3.57880E+000	9	...........
	31	0.426667	5.56366E-001	1.01492E-004	0.00000E+000	5.64666E-005	5.99601E-002	5.56665E-001	3.57880E+000	9	...........
	32	0.44	5.67999E-001	1.00749E-004	0.00000E+000	5.72253E-005	5.99601E-002	5.68251E-001	3.57906E+000	9	...........
	33	0.453333	5.79336E-001	1.00794E-004	0.00000E+000	5.83935E-005	5.99601E-002	5.79620E-001	3.57910E+000	9	...........
	34	0.466667	5.90486E-001	1.00839E-004	0.00000E+000	5.95438E-005	5.99601E-002	5.90777E-001	3.57910E+000	9	...........
	35	0.48	6.01406E-001	1.01303E-004	0.00000E+000	6.09244E-005	5.99601E-002	6.01696E-001	3.57910E+000	9	...........
	36	0.493333	6.12119E-001	1.00610E-004	0.00000E+000	6.15856E-005	5.99601E-002	6.12387E-001	3.57910E+000	9	...........
	37	0.506667	6.22645E-001	1.00246E-004	0.00000E+000	6.24176E-005	5.99601E-002	6.22881E-001	3.57910E+000	9	...........
	38	0.52	6.32887E-001	1.00798E-004	0.00000E+000	6.37937E-005	5.99601E-002	6.33153E-001	3.57910E+000	9	...........
	39	0.533333	6.42968E-001	1.00513E-004	0.00000E+000	6.46263E-005	5.99601E-002	6.43273E-001	3.57910E+000	9	...........
	40	0.546667	6.52853E-001	1.00713E-004	0.00000E+000	6.57505E-005	5.99601E-002	6.53137E-001	3.57910E+000	9	...........
	41	0.56	6.62506E-001	1.00826E-004	0.00000E+000	6.67980E-005	5.99601E-002	6.62790E-001	3.57910E+000	9	...........
	42	0.573333	6.71995E-001	1.01466E-004	0.00000E+000	6.81845E-005	5.99601E-002	6.72274E-001	3.57910E+000	9	...........
	43	0.586667	6.81259E-001	1.01268E-004	0.00000E+000	6.89897E-005	5.99601E-002	6.81557E-001	3.57910E+000	9	...........
	44	0.6	6.90382E-001	1.00957E-004	0.00000E+000	6.96991E-005	5.99601E-002	6.90647E-001	3.57910E+000	9	...........
	45	0.613333	6.99287E-001	1.01160E-004	0.00000E+000	7.07396E-005	5.99601E-002	6.99597E-001	3.57910E+000	9	...........
	46	0.626667	7.08021E-001	1.00595E-004	0.00000E+000	7.12232E-005	5.99601E-002	7.08344E-001	3.57910E+000	9	...........
	47	0.64	7.16613E-001	1.01750E-004	0.00000E+000	7.29155E-005	5.99601E-002	7.16915E-001	3.57910E+000	9	...........
	48	0.653333	7.25066E-001	1.00799E-004	0.00000E+000	7.30859E-005	5.99601E-002	7.25334E-001	3.57910E+000	9	...........
	49	0.666667	7.33291E-001	1.00415E-004	0.00000E+000	7.36331E-005	5.99601E-002	7.33584E-001	3.57910E+000	9	...........
	50	0.68	7.41402E-001	1.01244E-004	0.00000E+000	7.50624E-005	5.99601E-002	7.41685E-001	3.57910E+000	9	...........
	51	0.693333	7.49320E-001	1.01133E-004	0.00000E+000	7.57813E-005	5.99601E-002	7.49629E-001	3.57910E+000	9	...........
	52	0.706667	7.57155E-001	1.01131E-004	0.00000E+000	7.65722E-005	5.99601E-002	7.57404E-001	3.57910E+000	9	...........
	53	0.72	7.64762E-001	1.00565E-004	0.00000E+000	7.69080E-005	5.99601E-002	7.65054E-001	3.57910E+000	9	...........
	54	0.733333	7.72283E-001	1.00924E-004	0.00000E+000	7.79420E-005	5.99601E-002	7.72577E-001	3.57910E+000	9	...........
	55	0.746667	7.79651E-001	1.00491E-004	0.00000E+000	7.83476E-005	5.99601E-002	7.79942E-001	3.57910E+000	9	...........
	56	0.76	7.86904E-001	1.01270E-004	0.00000E+000	7.96897E-005	5.99601E-002	7.87202E-001	3.57910E+000	9	...........
	57	0.773333	7.94014E-001	1.00471E-004	0.00000E+000	7.97752E-005	5.99601E-002	7.94337E-001	3.57910E+000	9	...........
	58	0.786667	8.01034E-001	1.00802E-004	0.00000E+000	8.07459E-005	5.99601E-002	8.01330E-001	3.57910E+000	9	...........
	59	0.8	8.07854E-001	1.00052E-004	0.00000E+000	8.08274E-005	5.99601E-002	8.08196E-001	3.57910E+000	9	...........
	60	0.813333	8.14595E-001	1.01718E-004	0.00000E+000	8.28590E-005	5.99601E-002	8.14946E-001	3.57910E+000	9	...........
	61	0.826667	8.21259E-001	1.00739E-004	0.00000E+000	8.27325E-005	5.99601E-002	8.21592E-001	3.57910E+000	9	...........
	62	0.84	8.27762E-001	1.01035E-004	0.00000E+000	8.36326E-005	5.99601E-002	8.28102E-001	3.57910E+000	9	...........
	63	0.853333	8.34177E-001	1.00893E-004	0.00000E+000	8.41625E-005	5.99601E-002	8.34516E-001	3.57910E+000	9	...........
	64	0.866667	8.40458E-001	1.00922E-004	0.00000E+000	8.48207E-005	5.99601E-002	8.40803E-001	3.57910E+000	9	...........
	65	0.88	8.46681E-001	1.01413E-004	0.00000E+000	8.58642E-005	5.99601E-002	8.47039E-001	3.57910E+000	9	...........
	66	0.893333	8.52765E-001	1.00624E-004	0.00000E+000	8.58087E-005	5.99601E-002	8.53133E-001	3.57910E+000	9	...........
	67	0.906667	8.58765E-001	1.00568E-004	0.00000E+000	8.63641E-005	5.99601E-002	8.59141E-001	3.57910E+000	9	...........
	68	0.92	8.64652E-001	1.01324E-004	0.00000E+000	8.76102E-005	5.99601E-002	8.65027E-001	3.57910E+000	9	...........
	69	0.933333	8.70457E-001	1.00541E-004	0.00000E+000	8.75163E-005	5.99601E-002	8.70816E-001	3.57910E+000	9	...........
	70	0.946667	8.76153E-001	1.01127E-004	0.00000E+000	8.86029E-005	5.99601E-002	8.76518E-001	3.57910E+000	9	...........
	71	0.96	8.81749E-001	1.00556E-004	0.00000E+000	8.86654E-005	5.99601E-002	8.82128E-001	3.57910E+000	9	...........
	72	0.97333	8.87268E-001	1.00169E-004	0.00000E+000	8.88765E-005	5.99601E-002	8.87627E-001	3.57910E+000	9	...........
	73	0.98667	8.92691E-001	1.00821E-004	0.00000E+000	9.00020E-005	5.99601E-002	8.93062E-001	3.57910E+000	9	...........
	74	1	8.98038E-001	1.01322E-004	0.00000E+000	9.09911E-005	5.99601E-002	8.98398E-001	3.57910E+000	9	...........
	75	1.01333	9.03254E-001	1.01114E-004	0.00000E+000	9.13314E-005	5.99601E-002	9.03632E-001	3.57910E+000	9	...........
	76	1.02667	9.08407E-001	1.00853E-004	0.00000E+000	9.16158E-005	5.99601E-002	9.08762E-001	3.57910E+000	9	...........
	77	1.04	9.13483E-001	1.01229E-004	0.00000E+000	9.24713E-005	5.99601E-002	9.13828E-001	3.57910E+000	9	...........
	78	1.05333	9.18458E-001	1.01125E-004	0.00000E+000	9.28793E-005	5.99601E-002	9.18824E-001	3.57910E+000	9	...........
	79	1.06667	9.23409E-001	1.00558E-004	0.00000E+000	9.28565E-005	5.99601E-002	9.23752E-001	3.57910E+000	9	...........
	80	1.08	9.28223E-001	1.01015E-004	0.00000E+000	9.37642E-005	5.99601E-002	9.28557E-001	3.57910E+000	9	...........
	81	1.09333	9.32938E-001	1.00035E-004	0.00000E+000	9.33267E-005	5.99601E-002	9.33302E-001	3.57910E+000	9	...........
	82	1.10667	9.37563E-001	1.00928E-004	0.00000E+000	9.46266E-005	5.99601E-002	9.37955E-001	3.57910E+000	9	...........
	83	1.12	9.42135E-001	1.00445E-004	0.00000E+000	9.46325E-005	5.99601E-002	9.42488E-001	3.57910E+000	9	...........
	84	1.13333	9.46636E-001	1.01286E-004	0.00000E+000	9.58806E-005	5.99601E-002	9.46998E-001	3.57910E+000	9	...........
	85	1.14667	9.51040E-001	1.01259E-004	0.00000E+000	9.63010E-005	5.99601E-002	9.51414E-001	3.57910E+000	9	...........
	86	1.16	9.55353E-001	9.99978E-005	0.00000E+000	9.55333E-005	5.99601E-002	9.55735E-001	3.57910E+000	9	...........
	87	1.17333	9.59611E-001	1.00415E-004	0.00000E+000	9.63590E-005	5.99601E-002	9.59983E-001	3.57910E+000	9	...........
	88	1.18667	9.63739E-001	1.00771E-004	0.00000E+000	9.71169E-005	5.99601E-002	9.64153E-001	3.57910E+000	9	...........
	89	1.2	9.67817E-001	1.00571E-004	0.00000E+000	9.73342E-005	5.99601E-002	9.68234E-001	3.57910E+000	9	...........
	90	1.21333	9.71831E-001	1.01735E-004	0.00000E+000	9.88689E-005	5.99601E-002	9.72259E-001	3.57910E+000	9	...........
	91	1.22667	9.75800E-001	1.01002E-004	0.00000E+000	9.85579E-005	5.99601E-002	9.76214E-001	3.57910E+000	9	...........
	92	1.24	9.79640E-001	1.00971E-004	0.00000E+000	9.89152E-005	5.99601E-002	9.80033E-001	3.57910E+000	9	...........
	93	1.25333	9.83411E-001	1.01167E-004	0.00000E+000	9.94886E-005	5.99601E-002	9.83821E-001	3.57910E+000	9	...........
	94	1.26667	9.87131E-001	9.99499E-005	0.00000E+000	9.86637E-005	5.99601E-002	9.87524E-001	3.57910E+000	9	...........
	95	1.28	9.90776E-001	1.00159E-004	0.00000E+000	9.92355E-005	5.99601E-002	9.91159E-001	3.57910E+000	9	...........
	96	1.29333	9.94319E-001	1.00417E-004	0.00000E+000	9.98462E-005	5.99601E-002	9.94709E-001	3.57910E+000	9	...........
	97	1.30667	9.97831E-001	1.01479E-004	0.00000E+000	1.01259E-004	5.99601E-002	9.98244E-001	3.57910E+000	9	...........
	98	1.31	9.99981E-001	9.95352E-005	0.00000E+000	9.95333E-005	5.99601E-002	1.00040E+000	3.57910E+000	9	...........
STARTTIMEOFFSET	QUANT	270.1983	Start Time Offset (s)
