EXPLAIN
TAG	PWR800_CHARGE
TITLE	LABEL	PWR Cyclic Charge Discharge (Cell) - Charge Step	Test &Identifier
DATE	LABEL	13-7-2017	Date
TIME	LABEL	15:22:11	Time
NOTES	NOTES	2	&Notes...
	supercap test cell
	6M KOH
PSTAT	PSTAT	IFC5000-01520	Potentiostat
CAPACITY	QUANT	1.00000E-003	Capacity (A-hr)
CELLTYPE	SELECTOR	1	&Cell Type
WORKINGCONNECTION	SELECTOR	0	&Working Lead
MAXCHARGETIME	VARIABLEANDUNITS	1.00000E+002	s	1.00000E+002	second(s)	Max &Charge Time
CHARGECURRENT	QUANT	1.00000E-004	&Charge Current (A) 
VOLTAGEFINISH	TWOPARAM	F	1.00000E-003	3.60000E+003	&Voltage Finish	 I (A) < 	Max Time(s)
SAMPLETIME	QUANT	1.00000E-002	Sa&mple Period (s)
CHARGESTOPAT1	MULTIPARAM	4	1.00000E+000	Charge Stop At &1	Voltage > Limit	V
CHARGESTOPAT2	MULTIPARAM	0	0.00000E+000	Charge Stop At &2	None	N/A
AESBHCSELECTOR	TOGGLE	F	Save Both Half Cells
IRCOMP	TOGGLE	F	IR &Measure
EOC	QUANT	0	Open Circuit (V)
SEQUENCER	TOGGLE	TRUE	Run as Sequence
PSTATMODEL	IQUANT	53	Pstat Model
PSTATSECTION	LABEL	IFC5000-01520	Pstat Section
PSTATSERIALNO	LABEL	01520	Pstat Serial Number
CTRLMODE	IQUANT	0	Control Mode
ELECTROMETER	IQUANT	1	RE=0 or CS=1
IESTAB	IQUANT	0	I/E Stability
CASPEED	IQUANT	4	Control Amp Speed
CONVENTION	IQUANT	1	Current Convention
ICHRANGE	IQUANT	2	Ich Range
ICHRANGEMODE	TOGGLE	T	Ich Auto Range
ICHOFFSETENABLE	TOGGLE	F	Ich Offset Enable
ICHOFFSET	QUANT	0	Ich Offset (V)
ICHFILTER	IQUANT	1	Ich Filter
VCHRANGE	IQUANT	2	Vch Range
VCHRANGEMODE	TOGGLE	T	Vch Auto Range
VCHOFFSETENABLE	TOGGLE	F	Vch Offset Enable
VCHOFFSET	QUANT	0	Vch Offset (V)
VCHFILTER	IQUANT	1	Vch Filter
IERANGELOWERLIMIT	IQUANT	9	I/E Range Lower Limit
IERANGEMODE	TOGGLE	F	I/E AutoRange
IERANGE	IQUANT	9	I/E Range
ACHSELECT	IQUANT	1	Ach Select
ACHRANGE	IQUANT	2	Ach Range
ACHOFFSETENABLE	TOGGLE	F	Ach Offset Enable
ACHOFFSET	QUANT	0	Ach Offset (V)
ACHFILTER	IQUANT	1	Ach Filter
CABLEID	IQUANT	14	Cable ID
DCCALDATE	LABEL	5-7-2017	DC Calibration Date
ACCALDATE	LABEL	12/3/2015	AC Calibration Date
FRAMEWORKVERSION	QUANT	7.01	Framework Version
INSTRUMENTVERSION	LABEL	4.00	Instrument Version
CURVE	TABLE	94
	Pt	T	Vf	Im	Vu	Pwr	Sig	Ach	Temp	IERange	Over
	#	s	V	A	V	W	V	V	deg C	#	bits
	0	0.013333	1.34273E-001	1.00459E-004	0.00000E+000	1.34890E-005	5.99601E-002	1.34320E-001	3.57860E+000	9	...........
	1	0.026667	1.49511E-001	1.01878E-004	0.00000E+000	1.52320E-005	5.99601E-002	1.49533E-001	3.57860E+000	9	...........
	2	0.04	1.64311E-001	1.00560E-004	0.00000E+000	1.65232E-005	5.99601E-002	1.64342E-001	3.57860E+000	9	...........
	3	0.053333	1.78848E-001	1.00971E-004	0.00000E+000	1.80585E-005	5.99601E-002	1.78878E-001	3.57860E+000	9	...........
	4	0.066667	1.93189E-001	1.01168E-004	0.00000E+000	1.95445E-005	5.99601E-002	1.93221E-001	3.57860E+000	9	...........
	5	0.08	2.07381E-001	1.00855E-004	0.00000E+000	2.09155E-005	5.99601E-002	2.07420E-001	3.57860E+000	9	...........
	6	0.093333	2.21486E-001	1.00718E-004	0.00000E+000	2.23076E-005	5.99601E-002	2.21521E-001	3.57860E+000	9	...........
	7	0.106667	2.35509E-001	1.00674E-004	0.00000E+000	2.37096E-005	5.99601E-002	2.35544E-001	3.57860E+000	9	...........
	8	0.12	2.49477E-001	1.00143E-004	0.00000E+000	2.49833E-005	5.99601E-002	2.49524E-001	3.57860E+000	9	...........
	9	0.133333	2.63420E-001	1.01318E-004	0.00000E+000	2.66892E-005	5.99601E-002	2.63474E-001	3.57860E+000	9	...........
	10	0.146667	2.77349E-001	1.01418E-004	0.00000E+000	2.81281E-005	5.99601E-002	2.77403E-001	3.57860E+000	9	...........
	11	0.16	2.91267E-001	1.00169E-004	0.00000E+000	2.91758E-005	5.99601E-002	2.91325E-001	3.57860E+000	9	...........
	12	0.173333	3.05196E-001	1.01216E-004	0.00000E+000	3.08906E-005	5.99601E-002	3.05254E-001	3.57860E+000	9	...........
	13	0.186667	3.19128E-001	1.00682E-004	0.00000E+000	3.21305E-005	5.99601E-002	3.19191E-001	3.57860E+000	9	...........
	14	0.2	3.33072E-001	1.01495E-004	0.00000E+000	3.38052E-005	5.99601E-002	3.33140E-001	3.57860E+000	9	...........
	15	0.213333	3.47036E-001	1.00796E-004	0.00000E+000	3.49799E-005	5.99601E-002	3.47097E-001	3.57860E+000	9	...........
	16	0.226667	3.60999E-001	1.00970E-004	0.00000E+000	3.64501E-005	5.99601E-002	3.61067E-001	3.57860E+000	9	...........
	17	0.24	3.74964E-001	1.00123E-004	0.00000E+000	3.75424E-005	5.99601E-002	3.75035E-001	3.57860E+000	9	...........
	18	0.253333	3.88926E-001	1.00624E-004	0.00000E+000	3.91353E-005	5.99601E-002	3.88997E-001	3.57860E+000	9	...........
	19	0.266667	4.02856E-001	1.01775E-004	0.00000E+000	4.10008E-005	5.99601E-002	4.02935E-001	3.57860E+000	9	...........
	20	0.28	4.16746E-001	1.01677E-004	0.00000E+000	4.23736E-005	5.99601E-002	4.16826E-001	3.57860E+000	9	...........
	21	0.293333	4.30578E-001	1.02307E-004	0.00000E+000	4.40510E-005	5.99601E-002	4.30668E-001	3.57860E+000	9	...........
	22	0.306667	4.44335E-001	1.00782E-004	0.00000E+000	4.47811E-005	5.99601E-002	4.44425E-001	3.57860E+000	9	...........
	23	0.32	4.57990E-001	1.00304E-004	0.00000E+000	4.59383E-005	5.99601E-002	4.58075E-001	3.57860E+000	9	...........
	24	0.333333	4.71520E-001	1.00395E-004	0.00000E+000	4.73382E-005	5.99601E-002	4.71615E-001	3.57860E+000	9	...........
	25	0.346667	4.84913E-001	1.00812E-004	0.00000E+000	4.88848E-005	5.99601E-002	4.85009E-001	3.57860E+000	9	...........
	26	0.36	4.98137E-001	9.97197E-005	0.00000E+000	4.96740E-005	5.99601E-002	4.98238E-001	3.57860E+000	9	...........
	27	0.373333	5.11189E-001	1.00771E-004	0.00000E+000	5.15130E-005	5.99601E-002	5.11293E-001	3.57860E+000	9	...........
	28	0.386667	5.24054E-001	1.01926E-004	0.00000E+000	5.34149E-005	5.99601E-002	5.24163E-001	3.57860E+000	9	...........
	29	0.4	5.36489E-001	1.00381E-004	0.00000E+000	5.38534E-005	5.99601E-002	5.36647E-001	3.57860E+000	9	...........
	30	0.413333	5.48833E-001	1.00456E-004	0.00000E+000	5.51337E-005	5.99601E-002	5.49057E-001	3.57860E+000	9	...........
	31	0.426667	5.61069E-001	1.00431E-004	0.00000E+000	5.63488E-005	5.99601E-002	5.61325E-001	3.57860E+000	9	...........
	32	0.44	5.73098E-001	1.01152E-004	0.00000E+000	5.79702E-005	5.99601E-002	5.73340E-001	3.57860E+000	9	...........
	33	0.453333	5.84871E-001	1.00583E-004	0.00000E+000	5.88283E-005	5.99601E-002	5.85151E-001	3.57860E+000	9	...........
	34	0.466667	5.96459E-001	1.00675E-004	0.00000E+000	6.00486E-005	5.99601E-002	5.96718E-001	3.57860E+000	9	...........
	35	0.48	6.07752E-001	1.01067E-004	0.00000E+000	6.14236E-005	5.99601E-002	6.08034E-001	3.57860E+000	9	...........
	36	0.493333	6.18949E-001	1.00145E-004	0.00000E+000	6.19845E-005	5.99601E-002	6.19139E-001	3.57860E+000	9	...........
	37	0.506667	6.29828E-001	1.00993E-004	0.00000E+000	6.36081E-005	5.99601E-002	6.30031E-001	3.57860E+000	9	...........
	38	0.52	6.40481E-001	1.01901E-004	0.00000E+000	6.52658E-005	5.99601E-002	6.40711E-001	3.57860E+000	9	...........
	39	0.533333	6.50997E-001	1.02085E-004	0.00000E+000	6.64569E-005	5.99601E-002	6.51209E-001	3.57860E+000	9	...........
	40	0.546667	6.61243E-001	1.00459E-004	0.00000E+000	6.64281E-005	5.99601E-002	6.61475E-001	3.58002E+000	9	...........
	41	0.56	6.71303E-001	1.00129E-004	0.00000E+000	6.72170E-005	5.99601E-002	6.71547E-001	3.58010E+000	9	...........
	42	0.573333	6.81158E-001	1.00524E-004	0.00000E+000	6.84727E-005	5.99601E-002	6.81409E-001	3.58010E+000	9	...........
	43	0.586667	6.90802E-001	1.00617E-004	0.00000E+000	6.95062E-005	5.99601E-002	6.91065E-001	3.58010E+000	9	...........
	44	0.6	7.00278E-001	1.01489E-004	0.00000E+000	7.10703E-005	5.99601E-002	7.00548E-001	3.58010E+000	9	...........
	45	0.613333	7.09545E-001	1.00680E-004	0.00000E+000	7.14372E-005	5.99601E-002	7.09813E-001	3.58010E+000	9	...........
	46	0.626667	7.18667E-001	1.00271E-004	0.00000E+000	7.20613E-005	5.99601E-002	7.18938E-001	3.58010E+000	9	...........
	47	0.64	7.27579E-001	1.01380E-004	0.00000E+000	7.37623E-005	5.99601E-002	7.27843E-001	3.58010E+000	9	...........
	48	0.653333	7.36304E-001	1.00822E-004	0.00000E+000	7.42356E-005	5.99601E-002	7.36595E-001	3.58010E+000	9	...........
	49	0.666667	7.44923E-001	1.01931E-004	0.00000E+000	7.59304E-005	5.99601E-002	7.45180E-001	3.58010E+000	9	...........
	50	0.68	7.53326E-001	1.01085E-004	0.00000E+000	7.61496E-005	5.99601E-002	7.53586E-001	3.58010E+000	9	...........
	51	0.693333	7.61588E-001	1.00250E-004	0.00000E+000	7.63492E-005	5.99601E-002	7.61832E-001	3.58010E+000	9	...........
	52	0.706667	7.69677E-001	9.92862E-005	0.00000E+000	7.64183E-005	5.99601E-002	7.69979E-001	3.58010E+000	9	...........
	53	0.72	7.77628E-001	1.01202E-004	0.00000E+000	7.86977E-005	5.99601E-002	7.77905E-001	3.58010E+000	9	...........
	54	0.733333	7.85423E-001	1.01284E-004	0.00000E+000	7.95504E-005	5.99601E-002	7.85711E-001	3.58010E+000	9	...........
	55	0.746667	7.93088E-001	1.01410E-004	0.00000E+000	8.04268E-005	5.99601E-002	7.93420E-001	3.58010E+000	9	...........
	56	0.76	8.00614E-001	1.01771E-004	0.00000E+000	8.14794E-005	5.99601E-002	8.00927E-001	3.58010E+000	9	...........
	57	0.773333	8.07983E-001	1.00605E-004	0.00000E+000	8.12873E-005	5.99601E-002	8.08308E-001	3.58010E+000	9	...........
	58	0.786667	8.15203E-001	1.01479E-004	0.00000E+000	8.27263E-005	5.99601E-002	8.15570E-001	3.58010E+000	9	...........
	59	0.8	8.22340E-001	1.00833E-004	0.00000E+000	8.29194E-005	5.99601E-002	8.22718E-001	3.58010E+000	9	...........
	60	0.813333	8.29350E-001	1.00315E-004	0.00000E+000	8.31959E-005	5.99601E-002	8.29691E-001	3.58010E+000	9	...........
	61	0.826667	8.36222E-001	1.00622E-004	0.00000E+000	8.41422E-005	5.99601E-002	8.36586E-001	3.58010E+000	9	...........
	62	0.84	8.42975E-001	1.00424E-004	0.00000E+000	8.46550E-005	5.99601E-002	8.43342E-001	3.58010E+000	9	...........
	63	0.853333	8.49624E-001	1.01609E-004	0.00000E+000	8.63291E-005	5.99601E-002	8.49991E-001	3.58010E+000	9	...........
	64	0.866667	8.56140E-001	1.01397E-004	0.00000E+000	8.68101E-005	5.99601E-002	8.56509E-001	3.58010E+000	9	...........
	65	0.88	8.62538E-001	1.01336E-004	0.00000E+000	8.74058E-005	5.99601E-002	8.62896E-001	3.58010E+000	9	...........
	66	0.893333	8.68858E-001	1.01555E-004	0.00000E+000	8.82372E-005	5.99601E-002	8.69217E-001	3.58010E+000	9	...........
	67	0.906667	8.75060E-001	1.01164E-004	0.00000E+000	8.85243E-005	5.99601E-002	8.75417E-001	3.58010E+000	9	...........
	68	0.92	8.81123E-001	1.02160E-004	0.00000E+000	9.00153E-005	5.99601E-002	8.81473E-001	3.58010E+000	9	...........
	69	0.933333	8.87118E-001	1.00226E-004	0.00000E+000	8.89123E-005	5.99601E-002	8.87457E-001	3.58010E+000	9	...........
	70	0.946667	8.92989E-001	1.00913E-004	0.00000E+000	9.01138E-005	5.99601E-002	8.93352E-001	3.58010E+000	9	...........
	71	0.96	8.98751E-001	1.01157E-004	0.00000E+000	9.09154E-005	5.99601E-002	8.99143E-001	3.58010E+000	9	...........
	72	0.97333	9.04414E-001	1.00721E-004	0.00000E+000	9.10934E-005	5.99601E-002	9.04787E-001	3.58010E+000	9	...........
	73	0.98667	9.09993E-001	1.00331E-004	0.00000E+000	9.13007E-005	5.99601E-002	9.10343E-001	3.58010E+000	9	...........
	74	1	9.15451E-001	1.00854E-004	0.00000E+000	9.23271E-005	5.99601E-002	9.15818E-001	3.58010E+000	9	...........
	75	1.01333	9.20861E-001	1.00867E-004	0.00000E+000	9.28842E-005	5.99601E-002	9.21182E-001	3.58010E+000	9	...........
	76	1.02667	9.26150E-001	1.01142E-004	0.00000E+000	9.36725E-005	5.99601E-002	9.26489E-001	3.58010E+000	9	...........
	77	1.04	9.31326E-001	1.00465E-004	0.00000E+000	9.35653E-005	5.99601E-002	9.31657E-001	3.58010E+000	9	...........
	78	1.05333	9.36400E-001	1.00791E-004	0.00000E+000	9.43804E-005	5.99601E-002	9.36743E-001	3.58010E+000	9	...........
	79	1.06667	9.41377E-001	1.01004E-004	0.00000E+000	9.50831E-005	5.99601E-002	9.41724E-001	3.58010E+000	9	...........
	80	1.08	9.46286E-001	1.00515E-004	0.00000E+000	9.51156E-005	5.99601E-002	9.46639E-001	3.58010E+000	9	...........
	81	1.09333	9.51115E-001	1.00483E-004	0.00000E+000	9.55713E-005	5.99601E-002	9.51449E-001	3.58010E+000	9	...........
	82	1.10667	9.55832E-001	1.00861E-004	0.00000E+000	9.64057E-005	5.99601E-002	9.56150E-001	3.58010E+000	9	...........
	83	1.12	9.60436E-001	1.01047E-004	0.00000E+000	9.70492E-005	5.99601E-002	9.60764E-001	3.58010E+000	9	...........
	84	1.13333	9.64971E-001	1.00931E-004	0.00000E+000	9.73958E-005	5.99601E-002	9.65313E-001	3.58010E+000	9	...........
	85	1.14667	9.69398E-001	1.00851E-004	0.00000E+000	9.77649E-005	5.99601E-002	9.69759E-001	3.58010E+000	9	...........
	86	1.16	9.73793E-001	1.00622E-004	0.00000E+000	9.79849E-005	5.99601E-002	9.74144E-001	3.58010E+000	9	...........
	87	1.17333	9.78077E-001	1.01400E-004	0.00000E+000	9.91772E-005	5.99601E-002	9.78424E-001	3.58010E+000	9	...........
	88	1.18667	9.82247E-001	1.01157E-004	0.00000E+000	9.93616E-005	5.99601E-002	9.82606E-001	3.58010E+000	9	...........
	89	1.2	9.86321E-001	1.00880E-004	0.00000E+000	9.95004E-005	5.99601E-002	9.86726E-001	3.58010E+000	9	...........
	90	1.21333	9.90361E-001	1.01368E-004	0.00000E+000	1.00391E-004	5.99601E-002	9.90730E-001	3.58010E+000	9	...........
	91	1.22667	9.94279E-001	1.00721E-004	0.00000E+000	1.00145E-004	5.99601E-002	9.94660E-001	3.58010E+000	9	...........
	92	1.24	9.98145E-001	1.00594E-004	0.00000E+000	1.00407E-004	5.99601E-002	9.98562E-001	3.58010E+000	9	...........
	93	1.24167	1.00025E+000	1.04424E-004	0.00000E+000	1.04449E-004	5.99601E-002	1.00070E+000	3.58010E+000	9	...........
STARTTIMEOFFSET	QUANT	912.8089	Start Time Offset (s)
