EXPLAIN
TAG	PWR800_CHARGE
TITLE	LABEL	PWR Cyclic Charge Discharge (Cell) - Charge Step	Test &Identifier
DATE	LABEL	13-7-2017	Date
TIME	LABEL	15:37:27	Time
NOTES	NOTES	2	&Notes...
	supercap test cell
	6M KOH
PSTAT	PSTAT	IFC5000-01520	Potentiostat
CAPACITY	QUANT	1.00000E-003	Capacity (A-hr)
CELLTYPE	SELECTOR	1	&Cell Type
WORKINGCONNECTION	SELECTOR	0	&Working Lead
MAXCHARGETIME	VARIABLEANDUNITS	1.00000E+002	s	1.00000E+002	second(s)	Max &Charge Time
CHARGECURRENT	QUANT	1.00000E-004	&Charge Current (A) 
VOLTAGEFINISH	TWOPARAM	F	1.00000E-003	3.60000E+003	&Voltage Finish	 I (A) < 	Max Time(s)
SAMPLETIME	QUANT	1.00000E-002	Sa&mple Period (s)
CHARGESTOPAT1	MULTIPARAM	4	1.00000E+000	Charge Stop At &1	Voltage > Limit	V
CHARGESTOPAT2	MULTIPARAM	0	0.00000E+000	Charge Stop At &2	None	N/A
AESBHCSELECTOR	TOGGLE	F	Save Both Half Cells
IRCOMP	TOGGLE	F	IR &Measure
EOC	QUANT	0	Open Circuit (V)
SEQUENCER	TOGGLE	TRUE	Run as Sequence
PSTATMODEL	IQUANT	53	Pstat Model
PSTATSECTION	LABEL	IFC5000-01520	Pstat Section
PSTATSERIALNO	LABEL	01520	Pstat Serial Number
CTRLMODE	IQUANT	0	Control Mode
ELECTROMETER	IQUANT	1	RE=0 or CS=1
IESTAB	IQUANT	0	I/E Stability
CASPEED	IQUANT	4	Control Amp Speed
CONVENTION	IQUANT	1	Current Convention
ICHRANGE	IQUANT	2	Ich Range
ICHRANGEMODE	TOGGLE	T	Ich Auto Range
ICHOFFSETENABLE	TOGGLE	F	Ich Offset Enable
ICHOFFSET	QUANT	0	Ich Offset (V)
ICHFILTER	IQUANT	1	Ich Filter
VCHRANGE	IQUANT	2	Vch Range
VCHRANGEMODE	TOGGLE	T	Vch Auto Range
VCHOFFSETENABLE	TOGGLE	F	Vch Offset Enable
VCHOFFSET	QUANT	0	Vch Offset (V)
VCHFILTER	IQUANT	1	Vch Filter
IERANGELOWERLIMIT	IQUANT	9	I/E Range Lower Limit
IERANGEMODE	TOGGLE	F	I/E AutoRange
IERANGE	IQUANT	9	I/E Range
ACHSELECT	IQUANT	1	Ach Select
ACHRANGE	IQUANT	2	Ach Range
ACHOFFSETENABLE	TOGGLE	F	Ach Offset Enable
ACHOFFSET	QUANT	0	Ach Offset (V)
ACHFILTER	IQUANT	1	Ach Filter
CABLEID	IQUANT	14	Cable ID
DCCALDATE	LABEL	5-7-2017	DC Calibration Date
ACCALDATE	LABEL	12/3/2015	AC Calibration Date
FRAMEWORKVERSION	QUANT	7.01	Framework Version
INSTRUMENTVERSION	LABEL	4.00	Instrument Version
CURVE	TABLE	91
	Pt	T	Vf	Im	Vu	Pwr	Sig	Ach	Temp	IERange	Over
	#	s	V	A	V	W	V	V	deg C	#	bits
	0	0.013333	1.33482E-001	1.01344E-004	0.00000E+000	1.35276E-005	5.99601E-002	1.33524E-001	3.57990E+000	9	...........
	1	0.026667	1.48782E-001	9.99364E-005	0.00000E+000	1.48687E-005	5.99601E-002	1.48797E-001	3.57990E+000	9	...........
	2	0.04	1.63629E-001	1.01358E-004	0.00000E+000	1.65850E-005	5.99601E-002	1.63657E-001	3.57990E+000	9	...........
	3	0.053333	1.78213E-001	9.96457E-005	0.00000E+000	1.77581E-005	5.99601E-002	1.78241E-001	3.57990E+000	9	...........
	4	0.066667	1.92601E-001	1.01023E-004	0.00000E+000	1.94571E-005	5.99601E-002	1.92633E-001	3.57990E+000	9	...........
	5	0.08	2.06852E-001	1.00620E-004	0.00000E+000	2.08134E-005	5.99601E-002	2.06884E-001	3.57990E+000	9	...........
	6	0.093333	2.20996E-001	1.00632E-004	0.00000E+000	2.22393E-005	5.99601E-002	2.21035E-001	3.57990E+000	9	...........
	7	0.106667	2.35078E-001	9.96738E-005	0.00000E+000	2.34311E-005	5.99601E-002	2.35113E-001	3.57990E+000	9	...........
	8	0.12	2.49109E-001	1.01366E-004	0.00000E+000	2.52511E-005	5.99601E-002	2.49153E-001	3.57990E+000	9	...........
	9	0.133333	2.63114E-001	1.00767E-004	0.00000E+000	2.65131E-005	5.99601E-002	2.63167E-001	3.57990E+000	9	...........
	10	0.146667	2.77109E-001	1.00012E-004	0.00000E+000	2.77144E-005	5.99601E-002	2.77160E-001	3.57990E+000	9	...........
	11	0.16	2.91104E-001	1.00080E-004	0.00000E+000	2.91337E-005	5.99601E-002	2.91161E-001	3.57990E+000	9	...........
	12	0.173333	3.05115E-001	1.01394E-004	0.00000E+000	3.09368E-005	5.99601E-002	3.05175E-001	3.57990E+000	9	...........
	13	0.186667	3.19144E-001	1.00652E-004	0.00000E+000	3.21225E-005	5.99601E-002	3.19203E-001	3.57990E+000	9	...........
	14	0.2	3.33184E-001	1.00957E-004	0.00000E+000	3.36374E-005	5.99601E-002	3.33247E-001	3.57990E+000	9	...........
	15	0.213333	3.47259E-001	1.00521E-004	0.00000E+000	3.49068E-005	5.99601E-002	3.47322E-001	3.57990E+000	9	...........
	16	0.226667	3.61352E-001	1.00900E-004	0.00000E+000	3.64604E-005	5.99601E-002	3.61421E-001	3.57990E+000	9	...........
	17	0.24	3.75456E-001	1.00723E-004	0.00000E+000	3.78170E-005	5.99601E-002	3.75527E-001	3.57990E+000	9	...........
	18	0.253333	3.89566E-001	1.00808E-004	0.00000E+000	3.92715E-005	5.99601E-002	3.89641E-001	3.57990E+000	9	...........
	19	0.266667	4.03663E-001	1.00570E-004	0.00000E+000	4.05963E-005	5.99601E-002	4.03738E-001	3.57990E+000	9	...........
	20	0.28	4.17729E-001	1.00580E-004	0.00000E+000	4.20153E-005	5.99601E-002	4.17813E-001	3.57990E+000	9	...........
	21	0.293333	4.31755E-001	1.00821E-004	0.00000E+000	4.35300E-005	5.99601E-002	4.31844E-001	3.57990E+000	9	...........
	22	0.306667	4.45717E-001	1.00191E-004	0.00000E+000	4.46566E-005	5.99601E-002	4.45810E-001	3.57990E+000	9	...........
	23	0.32	4.59592E-001	1.00951E-004	0.00000E+000	4.63963E-005	5.99601E-002	4.59684E-001	3.57965E+000	9	...........
	24	0.333333	4.73351E-001	1.00664E-004	0.00000E+000	4.76492E-005	5.99601E-002	4.73447E-001	3.57890E+000	9	...........
	25	0.346667	4.86989E-001	1.01077E-004	0.00000E+000	4.92235E-005	5.99601E-002	4.87082E-001	3.57890E+000	9	...........
	26	0.36	5.00468E-001	1.00602E-004	0.00000E+000	5.03482E-005	5.99601E-002	5.00570E-001	3.57890E+000	9	...........
	27	0.373333	5.13776E-001	1.01167E-004	0.00000E+000	5.19771E-005	5.99601E-002	5.13880E-001	3.57890E+000	9	...........
	28	0.386667	5.26899E-001	1.01113E-004	0.00000E+000	5.32762E-005	5.99601E-002	5.27012E-001	3.57890E+000	9	...........
	29	0.4	5.39529E-001	1.00737E-004	0.00000E+000	5.43503E-005	5.99601E-002	5.39757E-001	3.57890E+000	9	...........
	30	0.413333	5.52193E-001	1.00704E-004	0.00000E+000	5.56082E-005	5.99601E-002	5.52466E-001	3.57890E+000	9	...........
	31	0.426667	5.64684E-001	1.01710E-004	0.00000E+000	5.74338E-005	5.99601E-002	5.64961E-001	3.57890E+000	9	...........
	32	0.44	5.76953E-001	1.01427E-004	0.00000E+000	5.85188E-005	5.99601E-002	5.77261E-001	3.57890E+000	9	...........
	33	0.453333	5.89010E-001	1.01639E-004	0.00000E+000	5.98663E-005	5.99601E-002	5.89302E-001	3.57890E+000	9	...........
	34	0.466667	6.00817E-001	1.01506E-004	0.00000E+000	6.09868E-005	5.99601E-002	6.01112E-001	3.57890E+000	9	...........
	35	0.48	6.12404E-001	1.00751E-004	0.00000E+000	6.17004E-005	5.99601E-002	6.12700E-001	3.57890E+000	9	...........
	36	0.493333	6.23791E-001	1.01120E-004	0.00000E+000	6.30777E-005	5.99601E-002	6.24067E-001	3.57890E+000	9	...........
	37	0.506667	6.34915E-001	1.01086E-004	0.00000E+000	6.41807E-005	5.99601E-002	6.35183E-001	3.57890E+000	9	...........
	38	0.52	6.45843E-001	1.00680E-004	0.00000E+000	6.50236E-005	5.99601E-002	6.46109E-001	3.57890E+000	9	...........
	39	0.533333	6.56527E-001	1.01328E-004	0.00000E+000	6.65247E-005	5.99601E-002	6.56783E-001	3.57890E+000	9	...........
	40	0.546667	6.67018E-001	1.01021E-004	0.00000E+000	6.73828E-005	5.99601E-002	6.67263E-001	3.57890E+000	9	...........
	41	0.56	6.77285E-001	1.00912E-004	0.00000E+000	6.83459E-005	5.99601E-002	6.77523E-001	3.57890E+000	9	...........
	42	0.573333	6.87325E-001	1.00574E-004	0.00000E+000	6.91271E-005	5.99601E-002	6.87585E-001	3.57890E+000	9	...........
	43	0.586667	6.97200E-001	1.00429E-004	0.00000E+000	7.00193E-005	5.99601E-002	6.97449E-001	3.57890E+000	9	...........
	44	0.6	7.06839E-001	1.01489E-004	0.00000E+000	7.17362E-005	5.99601E-002	7.07113E-001	3.57890E+000	9	...........
	45	0.613333	7.16319E-001	9.99593E-005	0.00000E+000	7.16027E-005	5.99601E-002	7.16591E-001	3.57890E+000	9	...........
	46	0.626667	7.25635E-001	1.01197E-004	0.00000E+000	7.34321E-005	5.99601E-002	7.25871E-001	3.57890E+000	9	...........
	47	0.64	7.34702E-001	1.00306E-004	0.00000E+000	7.36952E-005	5.99601E-002	7.34971E-001	3.57890E+000	9	...........
	48	0.653333	7.43611E-001	1.00898E-004	0.00000E+000	7.50289E-005	5.99601E-002	7.43911E-001	3.57890E+000	9	...........
	49	0.666667	7.52380E-001	1.00697E-004	0.00000E+000	7.57623E-005	5.99601E-002	7.52675E-001	3.57890E+000	9	...........
	50	0.68	7.60958E-001	1.00917E-004	0.00000E+000	7.67934E-005	5.99601E-002	7.61257E-001	3.57890E+000	9	...........
	51	0.693333	7.69370E-001	1.00724E-004	0.00000E+000	7.74940E-005	5.99601E-002	7.69676E-001	3.57890E+000	9	...........
	52	0.706667	7.77636E-001	1.00710E-004	0.00000E+000	7.83161E-005	5.99601E-002	7.77941E-001	3.57890E+000	9	...........
	53	0.72	7.85726E-001	1.01572E-004	0.00000E+000	7.98078E-005	5.99601E-002	7.86002E-001	3.57890E+000	9	...........
	54	0.733333	7.93672E-001	1.00832E-004	0.00000E+000	8.00279E-005	5.99601E-002	7.93965E-001	3.57890E+000	9	...........
	55	0.746667	8.01481E-001	1.00638E-004	0.00000E+000	8.06591E-005	5.99601E-002	8.01746E-001	3.57890E+000	9	...........
	56	0.76	8.09103E-001	1.00861E-004	0.00000E+000	8.16065E-005	5.99601E-002	8.09411E-001	3.57890E+000	9	...........
	57	0.773333	8.16608E-001	1.00614E-004	0.00000E+000	8.21619E-005	5.99601E-002	8.16960E-001	3.57890E+000	9	...........
	58	0.786667	8.23988E-001	1.00807E-004	0.00000E+000	8.30641E-005	5.99601E-002	8.24328E-001	3.57890E+000	9	...........
	59	0.8	8.31212E-001	1.00747E-004	0.00000E+000	8.37421E-005	5.99601E-002	8.31567E-001	3.57890E+000	9	...........
	60	0.813333	8.38329E-001	1.00992E-004	0.00000E+000	8.46643E-005	5.99601E-002	8.38665E-001	3.57890E+000	9	...........
	61	0.826667	8.45319E-001	1.00548E-004	0.00000E+000	8.49951E-005	5.99601E-002	8.45672E-001	3.57890E+000	9	...........
	62	0.84	8.52170E-001	1.00767E-004	0.00000E+000	8.58704E-005	5.99601E-002	8.52516E-001	3.57890E+000	9	...........
	63	0.853333	8.58911E-001	1.01099E-004	0.00000E+000	8.68352E-005	5.99601E-002	8.59256E-001	3.57890E+000	9	...........
	64	0.866667	8.65526E-001	1.01072E-004	0.00000E+000	8.74805E-005	5.99601E-002	8.65871E-001	3.57890E+000	9	...........
	65	0.88	8.72052E-001	1.00320E-004	0.00000E+000	8.74841E-005	5.99601E-002	8.72401E-001	3.57890E+000	9	...........
	66	0.893333	8.78420E-001	1.00258E-004	0.00000E+000	8.80689E-005	5.99601E-002	8.78761E-001	3.57890E+000	9	...........
	67	0.906667	8.84691E-001	1.00543E-004	0.00000E+000	8.89493E-005	5.99601E-002	8.85041E-001	3.57890E+000	9	...........
	68	0.92	8.90848E-001	1.00886E-004	0.00000E+000	8.98737E-005	5.99601E-002	8.91200E-001	3.57890E+000	9	...........
	69	0.933333	8.96890E-001	1.00547E-004	0.00000E+000	9.01796E-005	5.99601E-002	8.97264E-001	3.57890E+000	9	...........
	70	0.946667	9.02830E-001	1.00897E-004	0.00000E+000	9.10928E-005	5.99601E-002	9.03179E-001	3.57890E+000	9	...........
	71	0.96	9.08659E-001	1.00784E-004	0.00000E+000	9.15787E-005	5.99601E-002	9.08998E-001	3.57890E+000	9	...........
	72	0.97333	9.14358E-001	1.01044E-004	0.00000E+000	9.23903E-005	5.99601E-002	9.14713E-001	3.57890E+000	9	...........
	73	0.98667	9.19986E-001	1.01335E-004	0.00000E+000	9.32264E-005	5.99601E-002	9.20339E-001	3.57890E+000	9	...........
	74	1	9.25550E-001	1.00559E-004	0.00000E+000	9.30727E-005	5.99601E-002	9.25878E-001	3.57890E+000	9	...........
	75	1.01333	9.30952E-001	1.00220E-004	0.00000E+000	9.32998E-005	5.99601E-002	9.31282E-001	3.57890E+000	9	...........
	76	1.02667	9.36252E-001	1.01684E-004	0.00000E+000	9.52015E-005	5.99601E-002	9.36600E-001	3.57890E+000	9	...........
	77	1.04	9.41452E-001	1.00744E-004	0.00000E+000	9.48455E-005	5.99601E-002	9.41811E-001	3.57890E+000	9	...........
	78	1.05333	9.46558E-001	1.00410E-004	0.00000E+000	9.50442E-005	5.99601E-002	9.46938E-001	3.57890E+000	9	...........
	79	1.06667	9.51601E-001	1.00806E-004	0.00000E+000	9.59274E-005	5.99601E-002	9.51968E-001	3.57890E+000	9	...........
	80	1.08	9.56479E-001	1.00407E-004	0.00000E+000	9.60375E-005	5.99601E-002	9.56871E-001	3.57890E+000	9	...........
	81	1.09333	9.61305E-001	1.01403E-004	0.00000E+000	9.74796E-005	5.99601E-002	9.61693E-001	3.57890E+000	9	...........
	82	1.10667	9.66003E-001	1.00663E-004	0.00000E+000	9.72404E-005	5.99601E-002	9.66378E-001	3.57890E+000	9	...........
	83	1.12	9.70630E-001	9.98843E-005	0.00000E+000	9.69507E-005	5.99601E-002	9.71016E-001	3.57890E+000	9	...........
	84	1.13333	9.75216E-001	1.01551E-004	0.00000E+000	9.90344E-005	5.99601E-002	9.75554E-001	3.57890E+000	9	...........
	85	1.14667	9.79637E-001	1.01239E-004	0.00000E+000	9.91772E-005	5.99601E-002	9.79950E-001	3.57890E+000	9	...........
	86	1.16	9.83969E-001	1.00358E-004	0.00000E+000	9.87495E-005	5.99601E-002	9.84280E-001	3.57890E+000	9	...........
	87	1.17333	9.88228E-001	1.00496E-004	0.00000E+000	9.93128E-005	5.99601E-002	9.88522E-001	3.57890E+000	9	...........
	88	1.18667	9.92392E-001	1.01280E-004	0.00000E+000	1.00510E-004	5.99601E-002	9.92684E-001	3.57890E+000	9	...........
	89	1.2	9.96485E-001	1.00593E-004	0.00000E+000	1.00239E-004	5.99601E-002	9.96769E-001	3.57890E+000	9	...........
	90	1.20667	9.99486E-001	1.00881E-004	0.00000E+000	1.00829E-004	5.99601E-002	9.99815E-001	3.57890E+000	9	...........
STARTTIMEOFFSET	QUANT	1602.88	Start Time Offset (s)
