EXPLAIN
TAG	PWR800_CHARGE
TITLE	LABEL	PWR Cyclic Charge Discharge (Cell) - Charge Step	Test &Identifier
DATE	LABEL	13-7-2017	Date
TIME	LABEL	15:13:40	Time
NOTES	NOTES	2	&Notes...
	supercap test cell
	6M KOH
PSTAT	PSTAT	IFC5000-01520	Potentiostat
CAPACITY	QUANT	1.00000E-003	Capacity (A-hr)
CELLTYPE	SELECTOR	1	&Cell Type
WORKINGCONNECTION	SELECTOR	0	&Working Lead
MAXCHARGETIME	VARIABLEANDUNITS	1.00000E+002	s	1.00000E+002	second(s)	Max &Charge Time
CHARGECURRENT	QUANT	1.00000E-004	&Charge Current (A) 
VOLTAGEFINISH	TWOPARAM	F	1.00000E-003	3.60000E+003	&Voltage Finish	 I (A) < 	Max Time(s)
SAMPLETIME	QUANT	1.00000E-002	Sa&mple Period (s)
CHARGESTOPAT1	MULTIPARAM	4	1.00000E+000	Charge Stop At &1	Voltage > Limit	V
CHARGESTOPAT2	MULTIPARAM	0	0.00000E+000	Charge Stop At &2	None	N/A
AESBHCSELECTOR	TOGGLE	F	Save Both Half Cells
IRCOMP	TOGGLE	F	IR &Measure
EOC	QUANT	0	Open Circuit (V)
SEQUENCER	TOGGLE	TRUE	Run as Sequence
PSTATMODEL	IQUANT	53	Pstat Model
PSTATSECTION	LABEL	IFC5000-01520	Pstat Section
PSTATSERIALNO	LABEL	01520	Pstat Serial Number
CTRLMODE	IQUANT	0	Control Mode
ELECTROMETER	IQUANT	1	RE=0 or CS=1
IESTAB	IQUANT	0	I/E Stability
CASPEED	IQUANT	4	Control Amp Speed
CONVENTION	IQUANT	1	Current Convention
ICHRANGE	IQUANT	2	Ich Range
ICHRANGEMODE	TOGGLE	T	Ich Auto Range
ICHOFFSETENABLE	TOGGLE	F	Ich Offset Enable
ICHOFFSET	QUANT	0	Ich Offset (V)
ICHFILTER	IQUANT	1	Ich Filter
VCHRANGE	IQUANT	2	Vch Range
VCHRANGEMODE	TOGGLE	T	Vch Auto Range
VCHOFFSETENABLE	TOGGLE	F	Vch Offset Enable
VCHOFFSET	QUANT	0	Vch Offset (V)
VCHFILTER	IQUANT	1	Vch Filter
IERANGELOWERLIMIT	IQUANT	9	I/E Range Lower Limit
IERANGEMODE	TOGGLE	F	I/E AutoRange
IERANGE	IQUANT	9	I/E Range
ACHSELECT	IQUANT	1	Ach Select
ACHRANGE	IQUANT	2	Ach Range
ACHOFFSETENABLE	TOGGLE	F	Ach Offset Enable
ACHOFFSET	QUANT	0	Ach Offset (V)
ACHFILTER	IQUANT	1	Ach Filter
CABLEID	IQUANT	14	Cable ID
DCCALDATE	LABEL	5-7-2017	DC Calibration Date
ACCALDATE	LABEL	12/3/2015	AC Calibration Date
FRAMEWORKVERSION	QUANT	7.01	Framework Version
INSTRUMENTVERSION	LABEL	4.00	Instrument Version
CURVE	TABLE	96
	Pt	T	Vf	Im	Vu	Pwr	Sig	Ach	Temp	IERange	Over
	#	s	V	A	V	W	V	V	deg C	#	bits
	0	0.013333	1.30799E-001	1.00121E-004	0.00000E+000	1.30957E-005	5.99601E-002	1.30846E-001	3.57870E+000	9	...........
	1	0.026667	1.46029E-001	1.01021E-004	0.00000E+000	1.47520E-005	5.99601E-002	1.46051E-001	3.57870E+000	9	...........
	2	0.04	1.60805E-001	1.00992E-004	0.00000E+000	1.62400E-005	5.99601E-002	1.60831E-001	3.57870E+000	9	...........
	3	0.053333	1.75309E-001	1.00606E-004	0.00000E+000	1.76372E-005	5.99601E-002	1.75340E-001	3.57870E+000	9	...........
	4	0.066667	1.89625E-001	1.00358E-004	0.00000E+000	1.90304E-005	5.99601E-002	1.89657E-001	3.57870E+000	9	...........
	5	0.08	2.03786E-001	1.00607E-004	0.00000E+000	2.05024E-005	5.99601E-002	2.03830E-001	3.57870E+000	9	...........
	6	0.093333	2.17851E-001	1.00595E-004	0.00000E+000	2.19147E-005	5.99601E-002	2.17888E-001	3.57870E+000	9	...........
	7	0.106667	2.31837E-001	9.99770E-005	0.00000E+000	2.31784E-005	5.99601E-002	2.31877E-001	3.57870E+000	9	...........
	8	0.12	2.45766E-001	9.97947E-005	0.00000E+000	2.45262E-005	5.99601E-002	2.45816E-001	3.57870E+000	9	...........
	9	0.133333	2.59658E-001	1.00773E-004	0.00000E+000	2.61665E-005	5.99601E-002	2.59715E-001	3.57870E+000	9	...........
	10	0.146667	2.73535E-001	1.00827E-004	0.00000E+000	2.75798E-005	5.99601E-002	2.73592E-001	3.57870E+000	9	...........
	11	0.16	2.87404E-001	1.01091E-004	0.00000E+000	2.90539E-005	5.99601E-002	2.87462E-001	3.57870E+000	9	...........
	12	0.173333	3.01268E-001	1.01231E-004	0.00000E+000	3.04978E-005	5.99601E-002	3.01332E-001	3.57870E+000	9	...........
	13	0.186667	3.15142E-001	1.01080E-004	0.00000E+000	3.18547E-005	5.99601E-002	3.15198E-001	3.57870E+000	9	...........
	14	0.2	3.29009E-001	1.00663E-004	0.00000E+000	3.31188E-005	5.99601E-002	3.29075E-001	3.57870E+000	9	...........
	15	0.213333	3.42885E-001	1.01075E-004	0.00000E+000	3.46572E-005	5.99601E-002	3.42953E-001	3.57870E+000	9	...........
	16	0.226667	3.56758E-001	1.00404E-004	0.00000E+000	3.58200E-005	5.99601E-002	3.56828E-001	3.57870E+000	9	...........
	17	0.24	3.70622E-001	1.00653E-004	0.00000E+000	3.73043E-005	5.99601E-002	3.70694E-001	3.57870E+000	9	...........
	18	0.253333	3.84470E-001	1.00535E-004	0.00000E+000	3.86529E-005	5.99601E-002	3.84548E-001	3.57870E+000	9	...........
	19	0.266667	3.98288E-001	1.01245E-004	0.00000E+000	4.03247E-005	5.99601E-002	3.98363E-001	3.57870E+000	9	...........
	20	0.28	4.12057E-001	1.00950E-004	0.00000E+000	4.15972E-005	5.99601E-002	4.12141E-001	3.57870E+000	9	...........
	21	0.293333	4.25768E-001	1.01136E-004	0.00000E+000	4.30603E-005	5.99601E-002	4.25862E-001	3.57870E+000	9	...........
	22	0.306667	4.39395E-001	1.01145E-004	0.00000E+000	4.44426E-005	5.99601E-002	4.39484E-001	3.57870E+000	9	...........
	23	0.32	4.52916E-001	1.01590E-004	0.00000E+000	4.60117E-005	5.99601E-002	4.53009E-001	3.57870E+000	9	...........
	24	0.333333	4.66318E-001	1.00419E-004	0.00000E+000	4.68271E-005	5.99601E-002	4.66415E-001	3.57870E+000	9	...........
	25	0.346667	4.79578E-001	1.01098E-004	0.00000E+000	4.84844E-005	5.99601E-002	4.79677E-001	3.57870E+000	9	...........
	26	0.36	4.92667E-001	1.00931E-004	0.00000E+000	4.97256E-005	5.99601E-002	4.92773E-001	3.57870E+000	9	...........
	27	0.373333	5.05594E-001	1.00102E-004	0.00000E+000	5.06110E-005	5.99601E-002	5.05700E-001	3.57870E+000	9	...........
	28	0.386667	5.18323E-001	1.01305E-004	0.00000E+000	5.25089E-005	5.99601E-002	5.18433E-001	3.57870E+000	9	...........
	29	0.4	5.30757E-001	1.01620E-004	0.00000E+000	5.39355E-005	5.99601E-002	5.30887E-001	3.57870E+000	9	...........
	30	0.413333	5.42817E-001	1.00740E-004	0.00000E+000	5.46832E-005	5.99601E-002	5.43050E-001	3.57870E+000	9	...........
	31	0.426667	5.54900E-001	1.01113E-004	0.00000E+000	5.61074E-005	5.99601E-002	5.55134E-001	3.57870E+000	9	...........
	32	0.44	5.66837E-001	1.00637E-004	0.00000E+000	5.70445E-005	5.99601E-002	5.67059E-001	3.57870E+000	9	...........
	33	0.453333	5.78446E-001	1.02016E-004	0.00000E+000	5.90108E-005	5.99601E-002	5.78710E-001	3.57870E+000	9	...........
	34	0.466667	5.89917E-001	1.01115E-004	0.00000E+000	5.96493E-005	5.99601E-002	5.90188E-001	3.57870E+000	9	...........
	35	0.48	6.01125E-001	1.00857E-004	0.00000E+000	6.06279E-005	5.99601E-002	6.01392E-001	3.57870E+000	9	...........
	36	0.493333	6.12134E-001	1.01103E-004	0.00000E+000	6.18887E-005	5.99601E-002	6.12419E-001	3.57870E+000	9	...........
	37	0.506667	6.22969E-001	1.01188E-004	0.00000E+000	6.30368E-005	5.99601E-002	6.23183E-001	3.57870E+000	9	...........
	38	0.52	6.33507E-001	1.01187E-004	0.00000E+000	6.41024E-005	5.99601E-002	6.33761E-001	3.57870E+000	9	...........
	39	0.533333	6.43882E-001	1.00199E-004	0.00000E+000	6.45163E-005	5.99601E-002	6.44133E-001	3.57870E+000	9	...........
	40	0.546667	6.54023E-001	1.01083E-004	0.00000E+000	6.61109E-005	5.99601E-002	6.54302E-001	3.57870E+000	9	...........
	41	0.56	6.63987E-001	1.01668E-004	0.00000E+000	6.75062E-005	5.99601E-002	6.64248E-001	3.57870E+000	9	...........
	42	0.573333	6.73770E-001	1.02169E-004	0.00000E+000	6.88385E-005	5.99601E-002	6.74013E-001	3.57870E+000	9	...........
	43	0.586667	6.83296E-001	1.01365E-004	0.00000E+000	6.92622E-005	5.99601E-002	6.83555E-001	3.57870E+000	9	...........
	44	0.6	6.92665E-001	1.01087E-004	0.00000E+000	7.00192E-005	5.99601E-002	6.92937E-001	3.57870E+000	9	...........
	45	0.613333	7.01816E-001	1.01298E-004	0.00000E+000	7.10926E-005	5.99601E-002	7.02116E-001	3.57870E+000	9	...........
	46	0.626667	7.10822E-001	1.00907E-004	0.00000E+000	7.17272E-005	5.99601E-002	7.11121E-001	3.57870E+000	9	...........
	47	0.64	7.19687E-001	1.00913E-004	0.00000E+000	7.26255E-005	5.99601E-002	7.19966E-001	3.57870E+000	9	...........
	48	0.653333	7.28346E-001	1.01179E-004	0.00000E+000	7.36935E-005	5.99601E-002	7.28619E-001	3.57894E+000	9	...........
	49	0.666667	7.36836E-001	1.00793E-004	0.00000E+000	7.42678E-005	5.99601E-002	7.37111E-001	3.58030E+000	9	...........
	50	0.68	7.45177E-001	1.02032E-004	0.00000E+000	7.60316E-005	5.99601E-002	7.45480E-001	3.58030E+000	9	...........
	51	0.693333	7.53356E-001	1.00518E-004	0.00000E+000	7.57257E-005	5.99601E-002	7.53649E-001	3.58030E+000	9	...........
	52	0.706667	7.61378E-001	1.00729E-004	0.00000E+000	7.66930E-005	5.99601E-002	7.61645E-001	3.58030E+000	9	...........
	53	0.72	7.69261E-001	1.00508E-004	0.00000E+000	7.73171E-005	5.99601E-002	7.69564E-001	3.58030E+000	9	...........
	54	0.733333	7.76989E-001	1.00361E-004	0.00000E+000	7.79797E-005	5.99601E-002	7.77285E-001	3.58030E+000	9	...........
	55	0.746667	7.84570E-001	1.01321E-004	0.00000E+000	7.94935E-005	5.99601E-002	7.84872E-001	3.58030E+000	9	...........
	56	0.76	7.92019E-001	1.01404E-004	0.00000E+000	8.03142E-005	5.99601E-002	7.92345E-001	3.58030E+000	9	...........
	57	0.773333	7.99352E-001	1.00594E-004	0.00000E+000	8.04098E-005	5.99601E-002	7.99651E-001	3.58030E+000	9	...........
	58	0.786667	8.06515E-001	1.01045E-004	0.00000E+000	8.14942E-005	5.99601E-002	8.06840E-001	3.58030E+000	9	...........
	59	0.8	8.13552E-001	1.00193E-004	0.00000E+000	8.15120E-005	5.99601E-002	8.13887E-001	3.58030E+000	9	...........
	60	0.813333	8.20515E-001	1.00836E-004	0.00000E+000	8.27370E-005	5.99601E-002	8.20845E-001	3.58030E+000	9	...........
	61	0.826667	8.27295E-001	1.00865E-004	0.00000E+000	8.34448E-005	5.99601E-002	8.27638E-001	3.58030E+000	9	...........
	62	0.84	8.33968E-001	1.00790E-004	0.00000E+000	8.40554E-005	5.99601E-002	8.34345E-001	3.58030E+000	9	...........
	63	0.853333	8.40537E-001	1.00868E-004	0.00000E+000	8.47831E-005	5.99601E-002	8.40908E-001	3.58030E+000	9	...........
	64	0.866667	8.47049E-001	1.01231E-004	0.00000E+000	8.57480E-005	5.99601E-002	8.47408E-001	3.58030E+000	9	...........
	65	0.88	8.53377E-001	9.98478E-005	0.00000E+000	8.52078E-005	5.99601E-002	8.53754E-001	3.58030E+000	9	...........
	66	0.893333	8.59625E-001	1.00341E-004	0.00000E+000	8.62553E-005	5.99601E-002	8.60007E-001	3.58030E+000	9	...........
	67	0.906667	8.65756E-001	1.00879E-004	0.00000E+000	8.73369E-005	5.99601E-002	8.66154E-001	3.58030E+000	9	...........
	68	0.92	8.71827E-001	1.00759E-004	0.00000E+000	8.78449E-005	5.99601E-002	8.72192E-001	3.58030E+000	9	...........
	69	0.933333	8.77760E-001	1.00975E-004	0.00000E+000	8.86319E-005	5.99601E-002	8.78121E-001	3.58030E+000	9	...........
	70	0.946667	8.83612E-001	1.01274E-004	0.00000E+000	8.94870E-005	5.99601E-002	8.83969E-001	3.58030E+000	9	...........
	71	0.96	8.89335E-001	1.00888E-004	0.00000E+000	8.97229E-005	5.99601E-002	8.89679E-001	3.58030E+000	9	...........
	72	0.97333	8.94972E-001	1.00680E-004	0.00000E+000	9.01060E-005	5.99601E-002	8.95318E-001	3.58030E+000	9	...........
	73	0.98667	9.00498E-001	1.00933E-004	0.00000E+000	9.08904E-005	5.99601E-002	9.00863E-001	3.58030E+000	9	...........
	74	1	9.05935E-001	1.01515E-004	0.00000E+000	9.19658E-005	5.99601E-002	9.06332E-001	3.58030E+000	9	...........
	75	1.01333	9.11297E-001	1.00577E-004	0.00000E+000	9.16556E-005	5.99601E-002	9.11668E-001	3.58030E+000	9	...........
	76	1.02667	9.16533E-001	1.00996E-004	0.00000E+000	9.25661E-005	5.99601E-002	9.16938E-001	3.58030E+000	9	...........
	77	1.04	9.21741E-001	1.00700E-004	0.00000E+000	9.28194E-005	5.99601E-002	9.22093E-001	3.58030E+000	9	...........
	78	1.05333	9.26805E-001	1.01425E-004	0.00000E+000	9.40014E-005	5.99601E-002	9.27180E-001	3.58030E+000	9	...........
	79	1.06667	9.31808E-001	1.01155E-004	0.00000E+000	9.42574E-005	5.99601E-002	9.32155E-001	3.58030E+000	9	...........
	80	1.08	9.36683E-001	1.00894E-004	0.00000E+000	9.45055E-005	5.99601E-002	9.37068E-001	3.58030E+000	9	...........
	81	1.09333	9.41484E-001	1.00774E-004	0.00000E+000	9.48772E-005	5.99601E-002	9.41870E-001	3.58030E+000	9	...........
	82	1.10667	9.46206E-001	1.01044E-004	0.00000E+000	9.56084E-005	5.99601E-002	9.46604E-001	3.58030E+000	9	...........
	83	1.12	9.50848E-001	1.01622E-004	0.00000E+000	9.66272E-005	5.99601E-002	9.51243E-001	3.58030E+000	9	...........
	84	1.13333	9.55407E-001	1.00642E-004	0.00000E+000	9.61538E-005	5.99601E-002	9.55779E-001	3.58030E+000	9	...........
	85	1.14667	9.59834E-001	1.00916E-004	0.00000E+000	9.68623E-005	5.99601E-002	9.60240E-001	3.58030E+000	9	...........
	86	1.16	9.64219E-001	1.00588E-004	0.00000E+000	9.69884E-005	5.99601E-002	9.64604E-001	3.58030E+000	9	...........
	87	1.17333	9.68501E-001	1.02499E-004	0.00000E+000	9.92707E-005	5.99601E-002	9.68899E-001	3.58030E+000	9	...........
	88	1.18667	9.72740E-001	1.01189E-004	0.00000E+000	9.84303E-005	5.99601E-002	9.73136E-001	3.58030E+000	9	...........
	89	1.2	9.76878E-001	1.01197E-004	0.00000E+000	9.88571E-005	5.99601E-002	9.77245E-001	3.58030E+000	9	...........
	90	1.21333	9.80898E-001	1.01329E-004	0.00000E+000	9.93937E-005	5.99601E-002	9.81290E-001	3.58030E+000	9	...........
	91	1.22667	9.84862E-001	1.01317E-004	0.00000E+000	9.97831E-005	5.99601E-002	9.85229E-001	3.58030E+000	9	...........
	92	1.24	9.88747E-001	9.99374E-005	0.00000E+000	9.88128E-005	5.99601E-002	9.89132E-001	3.58030E+000	9	...........
	93	1.25333	9.92531E-001	1.00731E-004	0.00000E+000	9.99789E-005	5.99601E-002	9.92909E-001	3.58030E+000	9	...........
	94	1.26667	9.96241E-001	1.01007E-004	0.00000E+000	1.00628E-004	5.99601E-002	9.96624E-001	3.58030E+000	9	...........
	95	1.275	9.99220E-001	1.02052E-004	0.00000E+000	1.01972E-004	5.99601E-002	9.99625E-001	3.58030E+000	9	...........
STARTTIMEOFFSET	QUANT	525.9099	Start Time Offset (s)
