EXPLAIN
TAG	PWR800_CHARGE
TITLE	LABEL	PWR Cyclic Charge Discharge (Cell) - Charge Step	Test &Identifier
DATE	LABEL	13-7-2017	Date
TIME	LABEL	15:04:34	Time
NOTES	NOTES	2	&Notes...
	supercap test cell
	6M KOH
PSTAT	PSTAT	IFC5000-01520	Potentiostat
CAPACITY	QUANT	1.00000E-003	Capacity (A-hr)
CELLTYPE	SELECTOR	1	&Cell Type
WORKINGCONNECTION	SELECTOR	0	&Working Lead
MAXCHARGETIME	VARIABLEANDUNITS	1.00000E+002	s	1.00000E+002	second(s)	Max &Charge Time
CHARGECURRENT	QUANT	1.00000E-004	&Charge Current (A) 
VOLTAGEFINISH	TWOPARAM	F	1.00000E-003	3.60000E+003	&Voltage Finish	 I (A) < 	Max Time(s)
SAMPLETIME	QUANT	1.00000E-002	Sa&mple Period (s)
CHARGESTOPAT1	MULTIPARAM	4	1.00000E+000	Charge Stop At &1	Voltage > Limit	V
CHARGESTOPAT2	MULTIPARAM	0	0.00000E+000	Charge Stop At &2	None	N/A
AESBHCSELECTOR	TOGGLE	F	Save Both Half Cells
IRCOMP	TOGGLE	F	IR &Measure
EOC	QUANT	0	Open Circuit (V)
SEQUENCER	TOGGLE	TRUE	Run as Sequence
PSTATMODEL	IQUANT	53	Pstat Model
PSTATSECTION	LABEL	IFC5000-01520	Pstat Section
PSTATSERIALNO	LABEL	01520	Pstat Serial Number
CTRLMODE	IQUANT	0	Control Mode
ELECTROMETER	IQUANT	1	RE=0 or CS=1
IESTAB	IQUANT	0	I/E Stability
CASPEED	IQUANT	4	Control Amp Speed
CONVENTION	IQUANT	1	Current Convention
ICHRANGE	IQUANT	2	Ich Range
ICHRANGEMODE	TOGGLE	T	Ich Auto Range
ICHOFFSETENABLE	TOGGLE	F	Ich Offset Enable
ICHOFFSET	QUANT	0	Ich Offset (V)
ICHFILTER	IQUANT	1	Ich Filter
VCHRANGE	IQUANT	2	Vch Range
VCHRANGEMODE	TOGGLE	T	Vch Auto Range
VCHOFFSETENABLE	TOGGLE	F	Vch Offset Enable
VCHOFFSET	QUANT	0	Vch Offset (V)
VCHFILTER	IQUANT	1	Vch Filter
IERANGELOWERLIMIT	IQUANT	9	I/E Range Lower Limit
IERANGEMODE	TOGGLE	F	I/E AutoRange
IERANGE	IQUANT	9	I/E Range
ACHSELECT	IQUANT	1	Ach Select
ACHRANGE	IQUANT	2	Ach Range
ACHOFFSETENABLE	TOGGLE	F	Ach Offset Enable
ACHOFFSET	QUANT	0	Ach Offset (V)
ACHFILTER	IQUANT	1	Ach Filter
CABLEID	IQUANT	14	Cable ID
DCCALDATE	LABEL	5-7-2017	DC Calibration Date
ACCALDATE	LABEL	12/3/2015	AC Calibration Date
FRAMEWORKVERSION	QUANT	7.01	Framework Version
INSTRUMENTVERSION	LABEL	4.00	Instrument Version
CURVE	TABLE	102
	Pt	T	Vf	Im	Vu	Pwr	Sig	Ach	Temp	IERange	Over
	#	s	V	A	V	W	V	V	deg C	#	bits
	0	0.013333	1.42012E-001	1.00588E-004	0.00000E+000	1.42846E-005	5.99601E-002	1.42060E-001	3.58020E+000	9	...........
	1	0.026667	1.57862E-001	1.01552E-004	0.00000E+000	1.60312E-005	5.99601E-002	1.57891E-001	3.58020E+000	9	...........
	2	0.04	1.73268E-001	1.00164E-004	0.00000E+000	1.73551E-005	5.99601E-002	1.73302E-001	3.58020E+000	9	...........
	3	0.053333	1.88408E-001	1.00321E-004	0.00000E+000	1.89013E-005	5.99601E-002	1.88446E-001	3.58020E+000	9	...........
	4	0.066667	2.03338E-001	1.01053E-004	0.00000E+000	2.05480E-005	5.99601E-002	2.03380E-001	3.58020E+000	9	...........
	5	0.08	2.18119E-001	1.00956E-004	0.00000E+000	2.20205E-005	5.99601E-002	2.18161E-001	3.58020E+000	9	...........
	6	0.093333	2.32783E-001	1.00602E-004	0.00000E+000	2.34185E-005	5.99601E-002	2.32827E-001	3.58020E+000	9	...........
	7	0.106667	2.47356E-001	1.01187E-004	0.00000E+000	2.50291E-005	5.99601E-002	2.47405E-001	3.58020E+000	9	...........
	8	0.12	2.61849E-001	1.01086E-004	0.00000E+000	2.64691E-005	5.99601E-002	2.61903E-001	3.58020E+000	9	...........
	9	0.133333	2.76282E-001	1.00306E-004	0.00000E+000	2.77128E-005	5.99601E-002	2.76336E-001	3.58020E+000	9	...........
	10	0.146667	2.90662E-001	1.00488E-004	0.00000E+000	2.92079E-005	5.99601E-002	2.90720E-001	3.58020E+000	9	...........
	11	0.16	3.04991E-001	9.99072E-005	0.00000E+000	3.04708E-005	5.99601E-002	3.05059E-001	3.58020E+000	9	...........
	12	0.173333	3.19280E-001	1.01025E-004	0.00000E+000	3.22553E-005	5.99601E-002	3.19347E-001	3.58020E+000	9	...........
	13	0.186667	3.33512E-001	1.00768E-004	0.00000E+000	3.36073E-005	5.99601E-002	3.33579E-001	3.57979E+000	9	...........
	14	0.2	3.47691E-001	1.01542E-004	0.00000E+000	3.53052E-005	5.99601E-002	3.47757E-001	3.57910E+000	9	...........
	15	0.213333	3.61808E-001	1.00307E-004	0.00000E+000	3.62920E-005	5.99601E-002	3.61875E-001	3.57910E+000	9	...........
	16	0.226667	3.75846E-001	1.01777E-004	0.00000E+000	3.82526E-005	5.99601E-002	3.75913E-001	3.57910E+000	9	...........
	17	0.24	3.89792E-001	1.00741E-004	0.00000E+000	3.92679E-005	5.99601E-002	3.89869E-001	3.57910E+000	9	...........
	18	0.253333	4.03632E-001	1.01061E-004	0.00000E+000	4.07913E-005	5.99601E-002	4.03711E-001	3.57910E+000	9	...........
	19	0.266667	4.17351E-001	1.00787E-004	0.00000E+000	4.20633E-005	5.99601E-002	4.17446E-001	3.57910E+000	9	...........
	20	0.28	4.30939E-001	1.01030E-004	0.00000E+000	4.35379E-005	5.99601E-002	4.31023E-001	3.57910E+000	9	...........
	21	0.293333	4.44373E-001	1.00854E-004	0.00000E+000	4.48170E-005	5.99601E-002	4.44464E-001	3.57910E+000	9	...........
	22	0.306667	4.57640E-001	1.00217E-004	0.00000E+000	4.58631E-005	5.99601E-002	4.57729E-001	3.57910E+000	9	...........
	23	0.32	4.70718E-001	1.00766E-004	0.00000E+000	4.74322E-005	5.99601E-002	4.70814E-001	3.57910E+000	9	...........
	24	0.333333	4.83591E-001	1.01013E-004	0.00000E+000	4.88488E-005	5.99601E-002	4.83694E-001	3.57910E+000	9	...........
	25	0.346667	4.96262E-001	1.01602E-004	0.00000E+000	5.04214E-005	5.99601E-002	4.96379E-001	3.57910E+000	9	...........
	26	0.36	5.08716E-001	1.00339E-004	0.00000E+000	5.10438E-005	5.99601E-002	5.08827E-001	3.57910E+000	9	...........
	27	0.373333	5.20953E-001	1.00591E-004	0.00000E+000	5.24030E-005	5.99601E-002	5.21066E-001	3.57910E+000	9	...........
	28	0.386667	5.32810E-001	1.01676E-004	0.00000E+000	5.41741E-005	5.99601E-002	5.32991E-001	3.57910E+000	9	...........
	29	0.4	5.44388E-001	1.01481E-004	0.00000E+000	5.52453E-005	5.99601E-002	5.44631E-001	3.57910E+000	9	...........
	30	0.413333	5.55901E-001	1.00316E-004	0.00000E+000	5.57655E-005	5.99601E-002	5.56187E-001	3.57910E+000	9	...........
	31	0.426667	5.67234E-001	1.01046E-004	0.00000E+000	5.73167E-005	5.99601E-002	5.67501E-001	3.57910E+000	9	...........
	32	0.44	5.78278E-001	1.00942E-004	0.00000E+000	5.83724E-005	5.99601E-002	5.78538E-001	3.57910E+000	9	...........
	33	0.453333	5.89114E-001	1.01610E-004	0.00000E+000	5.98597E-005	5.99601E-002	5.89373E-001	3.57910E+000	9	...........
	34	0.466667	5.99714E-001	1.01256E-004	0.00000E+000	6.07249E-005	5.99601E-002	6.00007E-001	3.57910E+000	9	...........
	35	0.48	6.10108E-001	1.00740E-004	0.00000E+000	6.14621E-005	5.99601E-002	6.10397E-001	3.57910E+000	9	...........
	36	0.493333	6.20333E-001	1.01557E-004	0.00000E+000	6.29989E-005	5.99601E-002	6.20579E-001	3.57910E+000	9	...........
	37	0.506667	6.30267E-001	1.01519E-004	0.00000E+000	6.39841E-005	5.99601E-002	6.30552E-001	3.57910E+000	9	...........
	38	0.52	6.40025E-001	1.00571E-004	0.00000E+000	6.43679E-005	5.99601E-002	6.40327E-001	3.57910E+000	9	...........
	39	0.533333	6.49585E-001	1.00837E-004	0.00000E+000	6.55019E-005	5.99601E-002	6.49876E-001	3.57910E+000	9	...........
	40	0.546667	6.58931E-001	1.00703E-004	0.00000E+000	6.63565E-005	5.99601E-002	6.59238E-001	3.57910E+000	9	...........
	41	0.56	6.68122E-001	1.00871E-004	0.00000E+000	6.73941E-005	5.99601E-002	6.68400E-001	3.57910E+000	9	...........
	42	0.573333	6.77073E-001	1.01657E-004	0.00000E+000	6.88289E-005	5.99601E-002	6.77395E-001	3.57910E+000	9	...........
	43	0.586667	6.85861E-001	1.00309E-004	0.00000E+000	6.87983E-005	5.99601E-002	6.86179E-001	3.57910E+000	9	...........
	44	0.6	6.94486E-001	1.00370E-004	0.00000E+000	6.97054E-005	5.99601E-002	6.94805E-001	3.57910E+000	9	...........
	45	0.613333	7.02921E-001	1.01817E-004	0.00000E+000	7.15693E-005	5.99601E-002	7.03240E-001	3.57910E+000	9	...........
	46	0.626667	7.11191E-001	1.00662E-004	0.00000E+000	7.15895E-005	5.99601E-002	7.11505E-001	3.57910E+000	9	...........
	47	0.64	7.19351E-001	1.00639E-004	0.00000E+000	7.23945E-005	5.99601E-002	7.19646E-001	3.57910E+000	9	...........
	48	0.653333	7.27310E-001	1.00858E-004	0.00000E+000	7.33554E-005	5.99601E-002	7.27620E-001	3.57910E+000	9	...........
	49	0.666667	7.35081E-001	9.99562E-005	0.00000E+000	7.34758E-005	5.99601E-002	7.35409E-001	3.57910E+000	9	...........
	50	0.68	7.42762E-001	1.01453E-004	0.00000E+000	7.53557E-005	5.99601E-002	7.43086E-001	3.57910E+000	9	...........
	51	0.693333	7.50290E-001	1.01223E-004	0.00000E+000	7.59467E-005	5.99601E-002	7.50586E-001	3.57910E+000	9	...........
	52	0.706667	7.57656E-001	1.00909E-004	0.00000E+000	7.64547E-005	5.99601E-002	7.57964E-001	3.57910E+000	9	...........
	53	0.72	7.64892E-001	1.00243E-004	0.00000E+000	7.66748E-005	5.99601E-002	7.65210E-001	3.57910E+000	9	...........
	54	0.733333	7.72009E-001	1.01118E-004	0.00000E+000	7.80639E-005	5.99601E-002	7.72312E-001	3.57910E+000	9	...........
	55	0.746667	7.78996E-001	1.01551E-004	0.00000E+000	7.91080E-005	5.99601E-002	7.79305E-001	3.57910E+000	9	...........
	56	0.76	7.85858E-001	1.02034E-004	0.00000E+000	8.01840E-005	5.99601E-002	7.86137E-001	3.57910E+000	9	...........
	57	0.773333	7.92613E-001	9.99478E-005	0.00000E+000	7.92200E-005	5.99601E-002	7.92900E-001	3.57910E+000	9	...........
	58	0.786667	7.99232E-001	1.00406E-004	0.00000E+000	8.02479E-005	5.99601E-002	7.99537E-001	3.57910E+000	9	...........
	59	0.8	8.05744E-001	1.00847E-004	0.00000E+000	8.12569E-005	5.99601E-002	8.06035E-001	3.57910E+000	9	...........
	60	0.813333	8.12124E-001	1.01359E-004	0.00000E+000	8.23157E-005	5.99601E-002	8.12437E-001	3.57910E+000	9	...........
	61	0.826667	8.18439E-001	1.00773E-004	0.00000E+000	8.24766E-005	5.99601E-002	8.18748E-001	3.57910E+000	9	...........
	62	0.84	8.24637E-001	1.01225E-004	0.00000E+000	8.34741E-005	5.99601E-002	8.24955E-001	3.57910E+000	9	...........
	63	0.853333	8.30700E-001	1.00521E-004	0.00000E+000	8.35027E-005	5.99601E-002	8.31055E-001	3.57910E+000	9	...........
	64	0.866667	8.36684E-001	1.00674E-004	0.00000E+000	8.42324E-005	5.99601E-002	8.37031E-001	3.57910E+000	9	...........
	65	0.88	8.42577E-001	1.00631E-004	0.00000E+000	8.47896E-005	5.99601E-002	8.42917E-001	3.57910E+000	9	...........
	66	0.893333	8.48392E-001	1.01276E-004	0.00000E+000	8.59220E-005	5.99601E-002	8.48752E-001	3.57910E+000	9	...........
	67	0.906667	8.54092E-001	1.01089E-004	0.00000E+000	8.63391E-005	5.99601E-002	8.54441E-001	3.57910E+000	9	...........
	68	0.92	8.59685E-001	1.00599E-004	0.00000E+000	8.64835E-005	5.99601E-002	8.60068E-001	3.57910E+000	9	...........
	69	0.933333	8.65202E-001	1.00286E-004	0.00000E+000	8.67681E-005	5.99601E-002	8.65567E-001	3.57910E+000	9	...........
	70	0.946667	8.70644E-001	1.00393E-004	0.00000E+000	8.74064E-005	5.99601E-002	8.71037E-001	3.57910E+000	9	...........
	71	0.96	8.75991E-001	1.00459E-004	0.00000E+000	8.80016E-005	5.99601E-002	8.76371E-001	3.57910E+000	9	...........
	72	0.97333	8.81250E-001	1.01229E-004	0.00000E+000	8.92083E-005	5.99601E-002	8.81624E-001	3.57910E+000	9	...........
	73	0.98667	8.86409E-001	1.00958E-004	0.00000E+000	8.94905E-005	5.99601E-002	8.86784E-001	3.57910E+000	9	...........
	74	1	8.91495E-001	1.01269E-004	0.00000E+000	9.02807E-005	5.99601E-002	8.91862E-001	3.57910E+000	9	...........
	75	1.01333	8.96488E-001	1.01265E-004	0.00000E+000	9.07826E-005	5.99601E-002	8.96895E-001	3.57910E+000	9	...........
	76	1.02667	9.01427E-001	1.01055E-004	0.00000E+000	9.10940E-005	5.99601E-002	9.01822E-001	3.57910E+000	9	...........
	77	1.04	9.06259E-001	1.01404E-004	0.00000E+000	9.18986E-005	5.99601E-002	9.06680E-001	3.57910E+000	9	...........
	78	1.05333	9.11063E-001	1.01234E-004	0.00000E+000	9.22301E-005	5.99601E-002	9.11424E-001	3.57910E+000	9	...........
	79	1.06667	9.15740E-001	1.01572E-004	0.00000E+000	9.30137E-005	5.99601E-002	9.16147E-001	3.57910E+000	9	...........
	80	1.08	9.20367E-001	1.02197E-004	0.00000E+000	9.40589E-005	5.99601E-002	9.20773E-001	3.57910E+000	9	...........
	81	1.09333	9.24961E-001	1.00321E-004	0.00000E+000	9.27928E-005	5.99601E-002	9.25305E-001	3.57910E+000	9	...........
	82	1.10667	9.29425E-001	1.01320E-004	0.00000E+000	9.41693E-005	5.99601E-002	9.29784E-001	3.57910E+000	9	...........
	83	1.12	9.33812E-001	1.01629E-004	0.00000E+000	9.49027E-005	5.99601E-002	9.34183E-001	3.57910E+000	9	...........
	84	1.13333	9.38129E-001	1.00516E-004	0.00000E+000	9.42967E-005	5.99601E-002	9.38501E-001	3.57910E+000	9	...........
	85	1.14667	9.42373E-001	1.00458E-004	0.00000E+000	9.46693E-005	5.99601E-002	9.42738E-001	3.57910E+000	9	...........
	86	1.16	9.46559E-001	1.01026E-004	0.00000E+000	9.56272E-005	5.99601E-002	9.46946E-001	3.57910E+000	9	...........
	87	1.17333	9.50704E-001	1.01222E-004	0.00000E+000	9.62322E-005	5.99601E-002	9.51065E-001	3.57910E+000	9	...........
	88	1.18667	9.54752E-001	1.02021E-004	0.00000E+000	9.74049E-005	5.99601E-002	9.55103E-001	3.57914E+000	9	...........
	89	1.2	9.58702E-001	1.00894E-004	0.00000E+000	9.67271E-005	5.99601E-002	9.59101E-001	3.57920E+000	9	...........
	90	1.21333	9.62622E-001	1.01178E-004	0.00000E+000	9.73965E-005	5.99601E-002	9.63008E-001	3.57920E+000	9	...........
	91	1.22667	9.66441E-001	1.00784E-004	0.00000E+000	9.74023E-005	5.99601E-002	9.66836E-001	3.57920E+000	9	...........
	92	1.24	9.70216E-001	1.00812E-004	0.00000E+000	9.78090E-005	5.99601E-002	9.70611E-001	3.57920E+000	9	...........
	93	1.25333	9.73955E-001	1.01148E-004	0.00000E+000	9.85137E-005	5.99601E-002	9.74329E-001	3.57920E+000	9	...........
	94	1.26667	9.77576E-001	1.00363E-004	0.00000E+000	9.81120E-005	5.99601E-002	9.77964E-001	3.57920E+000	9	...........
	95	1.28	9.81133E-001	1.00322E-004	0.00000E+000	9.84291E-005	5.99601E-002	9.81528E-001	3.57920E+000	9	...........
	96	1.29333	9.84634E-001	1.00914E-004	0.00000E+000	9.93630E-005	5.99601E-002	9.85034E-001	3.57920E+000	9	...........
	97	1.30667	9.88072E-001	1.00938E-004	0.00000E+000	9.97336E-005	5.99601E-002	9.88491E-001	3.57920E+000	9	...........
	98	1.32	9.91444E-001	1.01679E-004	0.00000E+000	1.00809E-004	5.99601E-002	9.91840E-001	3.57920E+000	9	...........
	99	1.33333	9.94743E-001	1.00122E-004	0.00000E+000	9.95955E-005	5.99601E-002	9.95146E-001	3.57920E+000	9	...........
	100	1.34667	9.98018E-001	1.01535E-004	0.00000E+000	1.01333E-004	5.99601E-002	9.98426E-001	3.57920E+000	9	...........
	101	1.35	1.00004E+000	1.01190E-004	0.00000E+000	1.01194E-004	5.99601E-002	1.00041E+000	3.57920E+000	9	...........
STARTTIMEOFFSET	QUANT	108.615	Start Time Offset (s)
