EXPLAIN
TAG	PWR800_CHARGE
TITLE	LABEL	PWR Cyclic Charge Discharge (Cell) - Charge Step	Test &Identifier
DATE	LABEL	13-7-2017	Date
TIME	LABEL	15:04:10	Time
NOTES	NOTES	2	&Notes...
	supercap test cell
	6M KOH
PSTAT	PSTAT	IFC5000-01520	Potentiostat
CAPACITY	QUANT	1.00000E-003	Capacity (A-hr)
CELLTYPE	SELECTOR	1	&Cell Type
WORKINGCONNECTION	SELECTOR	0	&Working Lead
MAXCHARGETIME	VARIABLEANDUNITS	1.00000E+002	s	1.00000E+002	second(s)	Max &Charge Time
CHARGECURRENT	QUANT	1.00000E-004	&Charge Current (A) 
VOLTAGEFINISH	TWOPARAM	F	1.00000E-003	3.60000E+003	&Voltage Finish	 I (A) < 	Max Time(s)
SAMPLETIME	QUANT	1.00000E-002	Sa&mple Period (s)
CHARGESTOPAT1	MULTIPARAM	4	1.00000E+000	Charge Stop At &1	Voltage > Limit	V
CHARGESTOPAT2	MULTIPARAM	0	0.00000E+000	Charge Stop At &2	None	N/A
AESBHCSELECTOR	TOGGLE	F	Save Both Half Cells
IRCOMP	TOGGLE	F	IR &Measure
EOC	QUANT	0	Open Circuit (V)
SEQUENCER	TOGGLE	TRUE	Run as Sequence
PSTATMODEL	IQUANT	53	Pstat Model
PSTATSECTION	LABEL	IFC5000-01520	Pstat Section
PSTATSERIALNO	LABEL	01520	Pstat Serial Number
CTRLMODE	IQUANT	0	Control Mode
ELECTROMETER	IQUANT	1	RE=0 or CS=1
IESTAB	IQUANT	0	I/E Stability
CASPEED	IQUANT	4	Control Amp Speed
CONVENTION	IQUANT	1	Current Convention
ICHRANGE	IQUANT	2	Ich Range
ICHRANGEMODE	TOGGLE	T	Ich Auto Range
ICHOFFSETENABLE	TOGGLE	F	Ich Offset Enable
ICHOFFSET	QUANT	0	Ich Offset (V)
ICHFILTER	IQUANT	1	Ich Filter
VCHRANGE	IQUANT	2	Vch Range
VCHRANGEMODE	TOGGLE	T	Vch Auto Range
VCHOFFSETENABLE	TOGGLE	F	Vch Offset Enable
VCHOFFSET	QUANT	0	Vch Offset (V)
VCHFILTER	IQUANT	1	Vch Filter
IERANGELOWERLIMIT	IQUANT	9	I/E Range Lower Limit
IERANGEMODE	TOGGLE	F	I/E AutoRange
IERANGE	IQUANT	9	I/E Range
ACHSELECT	IQUANT	1	Ach Select
ACHRANGE	IQUANT	2	Ach Range
ACHOFFSETENABLE	TOGGLE	F	Ach Offset Enable
ACHOFFSET	QUANT	0	Ach Offset (V)
ACHFILTER	IQUANT	1	Ach Filter
CABLEID	IQUANT	14	Cable ID
DCCALDATE	LABEL	5-7-2017	DC Calibration Date
ACCALDATE	LABEL	12/3/2015	AC Calibration Date
FRAMEWORKVERSION	QUANT	7.01	Framework Version
INSTRUMENTVERSION	LABEL	4.00	Instrument Version
CURVE	TABLE	102
	Pt	T	Vf	Im	Vu	Pwr	Sig	Ach	Temp	IERange	Over
	#	s	V	A	V	W	V	V	deg C	#	bits
	0	0.013333	1.38266E-001	1.00703E-004	0.00000E+000	1.39238E-005	5.99601E-002	1.38314E-001	3.57930E+000	9	...........
	1	0.026667	1.54264E-001	1.00335E-004	0.00000E+000	1.54782E-005	5.99601E-002	1.54286E-001	3.57930E+000	9	...........
	2	0.04	1.69813E-001	1.01220E-004	0.00000E+000	1.71885E-005	5.99601E-002	1.69840E-001	3.57930E+000	9	...........
	3	0.053333	1.85095E-001	1.01397E-004	0.00000E+000	1.87681E-005	5.99601E-002	1.85124E-001	3.57930E+000	9	...........
	4	0.066667	2.00161E-001	1.01063E-004	0.00000E+000	2.02288E-005	5.99601E-002	2.00193E-001	3.57930E+000	9	...........
	5	0.08	2.15079E-001	1.00072E-004	0.00000E+000	2.15233E-005	5.99601E-002	2.15115E-001	3.57930E+000	9	...........
	6	0.093333	2.29885E-001	1.01338E-004	0.00000E+000	2.32960E-005	5.99601E-002	2.29926E-001	3.57930E+000	9	...........
	7	0.106667	2.44589E-001	1.01494E-004	0.00000E+000	2.48244E-005	5.99601E-002	2.44631E-001	3.57930E+000	9	...........
	8	0.12	2.59215E-001	1.01427E-004	0.00000E+000	2.62915E-005	5.99601E-002	2.59269E-001	3.57930E+000	9	...........
	9	0.133333	2.73783E-001	1.00743E-004	0.00000E+000	2.75817E-005	5.99601E-002	2.73836E-001	3.57930E+000	9	...........
	10	0.146667	2.88285E-001	1.01245E-004	0.00000E+000	2.91874E-005	5.99601E-002	2.88346E-001	3.57930E+000	9	...........
	11	0.16	3.02745E-001	1.00449E-004	0.00000E+000	3.04104E-005	5.99601E-002	3.02803E-001	3.57930E+000	9	...........
	12	0.173333	3.17143E-001	1.01197E-004	0.00000E+000	3.20940E-005	5.99601E-002	3.17211E-001	3.57930E+000	9	...........
	13	0.186667	3.31497E-001	1.00375E-004	0.00000E+000	3.32740E-005	5.99601E-002	3.31563E-001	3.57930E+000	9	...........
	14	0.2	3.45789E-001	1.02095E-004	0.00000E+000	3.53034E-005	5.99601E-002	3.45860E-001	3.57930E+000	9	...........
	15	0.213333	3.60007E-001	1.01452E-004	0.00000E+000	3.65235E-005	5.99601E-002	3.60078E-001	3.57930E+000	9	...........
	16	0.226667	3.74145E-001	1.01279E-004	0.00000E+000	3.78932E-005	5.99601E-002	3.74224E-001	3.57930E+000	9	...........
	17	0.24	3.88192E-001	1.00840E-004	0.00000E+000	3.91452E-005	5.99601E-002	3.88273E-001	3.57930E+000	9	...........
	18	0.253333	4.02133E-001	1.02387E-004	0.00000E+000	4.11731E-005	5.99601E-002	4.02211E-001	3.57930E+000	9	...........
	19	0.266667	4.15942E-001	1.01326E-004	0.00000E+000	4.21458E-005	5.99601E-002	4.16024E-001	3.57930E+000	9	...........
	20	0.28	4.29608E-001	1.00712E-004	0.00000E+000	4.32665E-005	5.99601E-002	4.29700E-001	3.57930E+000	9	...........
	21	0.293333	4.43113E-001	1.01356E-004	0.00000E+000	4.49124E-005	5.99601E-002	4.43210E-001	3.57930E+000	9	...........
	22	0.306667	4.56451E-001	1.00832E-004	0.00000E+000	4.60250E-005	5.99601E-002	4.56544E-001	3.57930E+000	9	...........
	23	0.32	4.69590E-001	1.01035E-004	0.00000E+000	4.74448E-005	5.99601E-002	4.69690E-001	3.57930E+000	9	...........
	24	0.333333	4.82531E-001	1.00549E-004	0.00000E+000	4.85180E-005	5.99601E-002	4.82637E-001	3.57930E+000	9	...........
	25	0.346667	4.95254E-001	1.01472E-004	0.00000E+000	5.02545E-005	5.99601E-002	4.95365E-001	3.57930E+000	9	...........
	26	0.36	5.07749E-001	1.01004E-004	0.00000E+000	5.12848E-005	5.99601E-002	5.07860E-001	3.57930E+000	9	...........
	27	0.373333	5.20024E-001	1.01081E-004	0.00000E+000	5.25647E-005	5.99601E-002	5.20134E-001	3.57930E+000	9	...........
	28	0.386667	5.31956E-001	1.01340E-004	0.00000E+000	5.39083E-005	5.99601E-002	5.32078E-001	3.57930E+000	9	...........
	29	0.4	5.43486E-001	1.00947E-004	0.00000E+000	5.48633E-005	5.99601E-002	5.43747E-001	3.57930E+000	9	...........
	30	0.413333	5.55034E-001	1.00674E-004	0.00000E+000	5.58775E-005	5.99601E-002	5.55312E-001	3.57930E+000	9	...........
	31	0.426667	5.66369E-001	1.01237E-004	0.00000E+000	5.73373E-005	5.99601E-002	5.66655E-001	3.57930E+000	9	...........
	32	0.44	5.77436E-001	1.00494E-004	0.00000E+000	5.80287E-005	5.99601E-002	5.77732E-001	3.57930E+000	9	...........
	33	0.453333	5.88291E-001	1.01135E-004	0.00000E+000	5.94966E-005	5.99601E-002	5.88590E-001	3.57930E+000	9	...........
	34	0.466667	5.98889E-001	1.01240E-004	0.00000E+000	6.06314E-005	5.99601E-002	5.99216E-001	3.57930E+000	9	...........
	35	0.48	6.09293E-001	1.00877E-004	0.00000E+000	6.14638E-005	5.99601E-002	6.09597E-001	3.57930E+000	9	...........
	36	0.493333	6.19530E-001	1.00657E-004	0.00000E+000	6.23603E-005	5.99601E-002	6.19804E-001	3.57930E+000	9	...........
	37	0.506667	6.29447E-001	1.00319E-004	0.00000E+000	6.31453E-005	5.99601E-002	6.29736E-001	3.57930E+000	9	...........
	38	0.52	6.39231E-001	1.00880E-004	0.00000E+000	6.44859E-005	5.99601E-002	6.39498E-001	3.57930E+000	9	...........
	39	0.533333	6.48782E-001	1.00877E-004	0.00000E+000	6.54473E-005	5.99601E-002	6.49034E-001	3.57930E+000	9	...........
	40	0.546667	6.58113E-001	1.00990E-004	0.00000E+000	6.64627E-005	5.99601E-002	6.58392E-001	3.57930E+000	9	...........
	41	0.56	6.67298E-001	1.00968E-004	0.00000E+000	6.73756E-005	5.99601E-002	6.67563E-001	3.57930E+000	9	...........
	42	0.573333	6.76248E-001	9.97426E-005	0.00000E+000	6.74507E-005	5.99601E-002	6.76519E-001	3.57930E+000	9	...........
	43	0.586667	6.85036E-001	1.01153E-004	0.00000E+000	6.92936E-005	5.99601E-002	6.85322E-001	3.57930E+000	9	...........
	44	0.6	6.93649E-001	1.01070E-004	0.00000E+000	7.01071E-005	5.99601E-002	6.93924E-001	3.57930E+000	9	...........
	45	0.613333	7.02081E-001	1.00503E-004	0.00000E+000	7.05613E-005	5.99601E-002	7.02358E-001	3.57930E+000	9	...........
	46	0.626667	7.10329E-001	1.01401E-004	0.00000E+000	7.20283E-005	5.99601E-002	7.10601E-001	3.57930E+000	9	...........
	47	0.64	7.18468E-001	1.00747E-004	0.00000E+000	7.23835E-005	5.99601E-002	7.18728E-001	3.57930E+000	9	...........
	48	0.653333	7.26420E-001	1.00629E-004	0.00000E+000	7.30991E-005	5.99601E-002	7.26635E-001	3.57930E+000	9	...........
	49	0.666667	7.34174E-001	1.00174E-004	0.00000E+000	7.35451E-005	5.99601E-002	7.34414E-001	3.57930E+000	9	...........
	50	0.68	7.41833E-001	1.00772E-004	0.00000E+000	7.47560E-005	5.99601E-002	7.42071E-001	3.57930E+000	9	...........
	51	0.693333	7.49320E-001	1.00736E-004	0.00000E+000	7.54831E-005	5.99601E-002	7.49569E-001	3.57930E+000	9	...........
	52	0.706667	7.56697E-001	1.01063E-004	0.00000E+000	7.64738E-005	5.99601E-002	7.56915E-001	3.57930E+000	9	...........
	53	0.72	7.63911E-001	1.01044E-004	0.00000E+000	7.71886E-005	5.99601E-002	7.64161E-001	3.57930E+000	9	...........
	54	0.733333	7.70990E-001	1.00588E-004	0.00000E+000	7.75520E-005	5.99601E-002	7.71266E-001	3.57930E+000	9	...........
	55	0.746667	7.77961E-001	1.01063E-004	0.00000E+000	7.86228E-005	5.99601E-002	7.78236E-001	3.57930E+000	9	...........
	56	0.76	7.84819E-001	1.00513E-004	0.00000E+000	7.88841E-005	5.99601E-002	7.85075E-001	3.57930E+000	9	...........
	57	0.773333	7.91528E-001	1.01370E-004	0.00000E+000	8.02372E-005	5.99601E-002	7.91809E-001	3.57930E+000	9	...........
	58	0.786667	7.98135E-001	1.01116E-004	0.00000E+000	8.07041E-005	5.99601E-002	7.98407E-001	3.57930E+000	9	...........
	59	0.8	8.04618E-001	1.01508E-004	0.00000E+000	8.16747E-005	5.99601E-002	8.04911E-001	3.57930E+000	9	...........
	60	0.813333	8.10969E-001	1.01686E-004	0.00000E+000	8.24639E-005	5.99601E-002	8.11286E-001	3.57930E+000	9	...........
	61	0.826667	8.17230E-001	1.01073E-004	0.00000E+000	8.25999E-005	5.99601E-002	8.17565E-001	3.57930E+000	9	...........
	62	0.84	8.23421E-001	1.01647E-004	0.00000E+000	8.36984E-005	5.99601E-002	8.23742E-001	3.57930E+000	9	...........
	63	0.853333	8.29450E-001	1.00507E-004	0.00000E+000	8.33658E-005	5.99601E-002	8.29772E-001	3.57930E+000	9	...........
	64	0.866667	8.35423E-001	1.01289E-004	0.00000E+000	8.46189E-005	5.99601E-002	8.35745E-001	3.57930E+000	9	...........
	65	0.88	8.41285E-001	1.00897E-004	0.00000E+000	8.48831E-005	5.99601E-002	8.41607E-001	3.58020E+000	9	...........
	66	0.893333	8.47088E-001	1.00980E-004	0.00000E+000	8.55393E-005	5.99601E-002	8.47413E-001	3.58020E+000	9	...........
	67	0.906667	8.52734E-001	1.00766E-004	0.00000E+000	8.59264E-005	5.99601E-002	8.53077E-001	3.58020E+000	9	...........
	68	0.92	8.58309E-001	1.01622E-004	0.00000E+000	8.72232E-005	5.99601E-002	8.58677E-001	3.58020E+000	9	...........
	69	0.933333	8.63813E-001	1.00677E-004	0.00000E+000	8.69663E-005	5.99601E-002	8.64159E-001	3.58020E+000	9	...........
	70	0.946667	8.69219E-001	1.00975E-004	0.00000E+000	8.77695E-005	5.99601E-002	8.69578E-001	3.58020E+000	9	...........
	71	0.96	8.74565E-001	1.01612E-004	0.00000E+000	8.88660E-005	5.99601E-002	8.74911E-001	3.58020E+000	9	...........
	72	0.97333	8.79783E-001	1.00749E-004	0.00000E+000	8.86373E-005	5.99601E-002	8.80131E-001	3.58020E+000	9	...........
	73	0.98667	8.84947E-001	1.01075E-004	0.00000E+000	8.94462E-005	5.99601E-002	8.85275E-001	3.58020E+000	9	...........
	74	1	8.90012E-001	1.00352E-004	0.00000E+000	8.93145E-005	5.99601E-002	8.90332E-001	3.58020E+000	9	...........
	75	1.01333	8.95006E-001	1.01056E-004	0.00000E+000	9.04461E-005	5.99601E-002	8.95317E-001	3.58020E+000	9	...........
	76	1.02667	8.99903E-001	1.01686E-004	0.00000E+000	9.15072E-005	5.99601E-002	9.00240E-001	3.58020E+000	9	...........
	77	1.04	9.04718E-001	1.00420E-004	0.00000E+000	9.08516E-005	5.99601E-002	9.05052E-001	3.58020E+000	9	...........
	78	1.05333	9.09470E-001	1.00834E-004	0.00000E+000	9.17059E-005	5.99601E-002	9.09825E-001	3.58020E+000	9	...........
	79	1.06667	9.14143E-001	1.01437E-004	0.00000E+000	9.27276E-005	5.99601E-002	9.14497E-001	3.58020E+000	9	...........
	80	1.08	9.18725E-001	1.00478E-004	0.00000E+000	9.23118E-005	5.99601E-002	9.19098E-001	3.58020E+000	9	...........
	81	1.09333	9.23331E-001	1.01156E-004	0.00000E+000	9.34009E-005	5.99601E-002	9.23647E-001	3.58020E+000	9	...........
	82	1.10667	9.27761E-001	1.01213E-004	0.00000E+000	9.39011E-005	5.99601E-002	9.28087E-001	3.58020E+000	9	...........
	83	1.12	9.32120E-001	1.00615E-004	0.00000E+000	9.37849E-005	5.99601E-002	9.32478E-001	3.58020E+000	9	...........
	84	1.13333	9.36435E-001	1.00360E-004	0.00000E+000	9.39810E-005	5.99601E-002	9.36794E-001	3.58020E+000	9	...........
	85	1.14667	9.40674E-001	1.00193E-004	0.00000E+000	9.42487E-005	5.99601E-002	9.41020E-001	3.58020E+000	9	...........
	86	1.16	9.44841E-001	1.01160E-004	0.00000E+000	9.55796E-005	5.99601E-002	9.45195E-001	3.58020E+000	9	...........
	87	1.17333	9.48986E-001	1.01625E-004	0.00000E+000	9.64409E-005	5.99601E-002	9.49310E-001	3.58020E+000	9	...........
	88	1.18667	9.52986E-001	1.00469E-004	0.00000E+000	9.57454E-005	5.99601E-002	9.53321E-001	3.58020E+000	9	...........
	89	1.2	9.56936E-001	1.00745E-004	0.00000E+000	9.64064E-005	5.99601E-002	9.57285E-001	3.58020E+000	9	...........
	90	1.21333	9.60815E-001	1.01448E-004	0.00000E+000	9.74729E-005	5.99601E-002	9.61188E-001	3.58020E+000	9	...........
	91	1.22667	9.64633E-001	1.01118E-004	0.00000E+000	9.75416E-005	5.99601E-002	9.65021E-001	3.58020E+000	9	...........
	92	1.24	9.68399E-001	1.01168E-004	0.00000E+000	9.79709E-005	5.99601E-002	9.68796E-001	3.58020E+000	9	...........
	93	1.25333	9.72114E-001	1.00726E-004	0.00000E+000	9.79173E-005	5.99601E-002	9.72524E-001	3.58020E+000	9	...........
	94	1.26667	9.75781E-001	1.01043E-004	0.00000E+000	9.85957E-005	5.99601E-002	9.76165E-001	3.58020E+000	9	...........
	95	1.28	9.79320E-001	9.99228E-005	0.00000E+000	9.78564E-005	5.99601E-002	9.79715E-001	3.58020E+000	9	...........
	96	1.29333	9.82832E-001	1.00477E-004	0.00000E+000	9.87521E-005	5.99601E-002	9.83201E-001	3.58020E+000	9	...........
	97	1.30667	9.86272E-001	1.00158E-004	0.00000E+000	9.87833E-005	5.99601E-002	9.86655E-001	3.58020E+000	9	...........
	98	1.32	9.89658E-001	1.01137E-004	0.00000E+000	1.00091E-004	5.99601E-002	9.90059E-001	3.58020E+000	9	...........
	99	1.33333	9.92953E-001	1.01159E-004	0.00000E+000	1.00446E-004	5.99601E-002	9.93344E-001	3.58020E+000	9	...........
	100	1.34667	9.96210E-001	1.00384E-004	0.00000E+000	1.00004E-004	5.99601E-002	9.96597E-001	3.58020E+000	9	...........
	101	1.35667	9.99027E-001	1.01502E-004	0.00000E+000	1.01404E-004	5.99601E-002	9.99414E-001	3.58020E+000	9	...........
STARTTIMEOFFSET	QUANT	90.42167	Start Time Offset (s)
