EXPLAIN
TAG	PWR800_CHARGE
TITLE	LABEL	PWR Cyclic Charge Discharge (Cell) - Charge Step	Test &Identifier
DATE	LABEL	13-7-2017	Date
TIME	LABEL	15:39:14	Time
NOTES	NOTES	2	&Notes...
	supercap test cell
	6M KOH
PSTAT	PSTAT	IFC5000-01520	Potentiostat
CAPACITY	QUANT	1.00000E-003	Capacity (A-hr)
CELLTYPE	SELECTOR	1	&Cell Type
WORKINGCONNECTION	SELECTOR	0	&Working Lead
MAXCHARGETIME	VARIABLEANDUNITS	1.00000E+002	s	1.00000E+002	second(s)	Max &Charge Time
CHARGECURRENT	QUANT	1.00000E-004	&Charge Current (A) 
VOLTAGEFINISH	TWOPARAM	F	1.00000E-003	3.60000E+003	&Voltage Finish	 I (A) < 	Max Time(s)
SAMPLETIME	QUANT	1.00000E-002	Sa&mple Period (s)
CHARGESTOPAT1	MULTIPARAM	4	1.00000E+000	Charge Stop At &1	Voltage > Limit	V
CHARGESTOPAT2	MULTIPARAM	0	0.00000E+000	Charge Stop At &2	None	N/A
AESBHCSELECTOR	TOGGLE	F	Save Both Half Cells
IRCOMP	TOGGLE	F	IR &Measure
EOC	QUANT	0	Open Circuit (V)
SEQUENCER	TOGGLE	TRUE	Run as Sequence
PSTATMODEL	IQUANT	53	Pstat Model
PSTATSECTION	LABEL	IFC5000-01520	Pstat Section
PSTATSERIALNO	LABEL	01520	Pstat Serial Number
CTRLMODE	IQUANT	0	Control Mode
ELECTROMETER	IQUANT	1	RE=0 or CS=1
IESTAB	IQUANT	0	I/E Stability
CASPEED	IQUANT	4	Control Amp Speed
CONVENTION	IQUANT	1	Current Convention
ICHRANGE	IQUANT	2	Ich Range
ICHRANGEMODE	TOGGLE	T	Ich Auto Range
ICHOFFSETENABLE	TOGGLE	F	Ich Offset Enable
ICHOFFSET	QUANT	0	Ich Offset (V)
ICHFILTER	IQUANT	1	Ich Filter
VCHRANGE	IQUANT	2	Vch Range
VCHRANGEMODE	TOGGLE	T	Vch Auto Range
VCHOFFSETENABLE	TOGGLE	F	Vch Offset Enable
VCHOFFSET	QUANT	0	Vch Offset (V)
VCHFILTER	IQUANT	1	Vch Filter
IERANGELOWERLIMIT	IQUANT	9	I/E Range Lower Limit
IERANGEMODE	TOGGLE	F	I/E AutoRange
IERANGE	IQUANT	9	I/E Range
ACHSELECT	IQUANT	1	Ach Select
ACHRANGE	IQUANT	2	Ach Range
ACHOFFSETENABLE	TOGGLE	F	Ach Offset Enable
ACHOFFSET	QUANT	0	Ach Offset (V)
ACHFILTER	IQUANT	1	Ach Filter
CABLEID	IQUANT	14	Cable ID
DCCALDATE	LABEL	5-7-2017	DC Calibration Date
ACCALDATE	LABEL	12/3/2015	AC Calibration Date
FRAMEWORKVERSION	QUANT	7.01	Framework Version
INSTRUMENTVERSION	LABEL	4.00	Instrument Version
CURVE	TABLE	91
	Pt	T	Vf	Im	Vu	Pwr	Sig	Ach	Temp	IERange	Over
	#	s	V	A	V	W	V	V	deg C	#	bits
	0	0.013333	1.33134E-001	1.00966E-004	0.00000E+000	1.34420E-005	5.99601E-002	1.33182E-001	3.57900E+000	9	...........
	1	0.026667	1.48431E-001	1.00522E-004	0.00000E+000	1.49205E-005	5.99601E-002	1.48451E-001	3.57900E+000	9	...........
	2	0.04	1.63291E-001	1.01013E-004	0.00000E+000	1.64944E-005	5.99601E-002	1.63318E-001	3.57900E+000	9	...........
	3	0.053333	1.77878E-001	1.01113E-004	0.00000E+000	1.79857E-005	5.99601E-002	1.77905E-001	3.57900E+000	9	...........
	4	0.066667	1.92267E-001	1.00791E-004	0.00000E+000	1.93787E-005	5.99601E-002	1.92295E-001	3.57900E+000	9	...........
	5	0.08	2.06511E-001	1.00876E-004	0.00000E+000	2.08321E-005	5.99601E-002	2.06544E-001	3.57900E+000	9	...........
	6	0.093333	2.20657E-001	1.00861E-004	0.00000E+000	2.22556E-005	5.99601E-002	2.20694E-001	3.57900E+000	9	...........
	7	0.106667	2.34733E-001	1.00589E-004	0.00000E+000	2.36114E-005	5.99601E-002	2.34772E-001	3.57900E+000	9	...........
	8	0.12	2.48761E-001	1.00775E-004	0.00000E+000	2.50689E-005	5.99601E-002	2.48808E-001	3.57900E+000	9	...........
	9	0.133333	2.62766E-001	1.00627E-004	0.00000E+000	2.64414E-005	5.99601E-002	2.62813E-001	3.57900E+000	9	...........
	10	0.146667	2.76751E-001	9.99166E-005	0.00000E+000	2.76521E-005	5.99601E-002	2.76807E-001	3.57900E+000	9	...........
	11	0.16	2.90750E-001	1.00482E-004	0.00000E+000	2.92153E-005	5.99601E-002	2.90804E-001	3.57900E+000	9	...........
	12	0.173333	3.04765E-001	1.00979E-004	0.00000E+000	3.07749E-005	5.99601E-002	3.04821E-001	3.57900E+000	9	...........
	13	0.186667	3.18792E-001	1.01045E-004	0.00000E+000	3.22124E-005	5.99601E-002	3.18848E-001	3.57900E+000	9	...........
	14	0.2	3.32838E-001	1.01011E-004	0.00000E+000	3.36202E-005	5.99601E-002	3.32898E-001	3.57900E+000	9	...........
	15	0.213333	3.46917E-001	1.00336E-004	0.00000E+000	3.48084E-005	5.99601E-002	3.46981E-001	3.57900E+000	9	...........
	16	0.226667	3.61011E-001	1.01760E-004	0.00000E+000	3.67364E-005	5.99601E-002	3.61083E-001	3.57900E+000	9	...........
	17	0.24	3.75124E-001	1.01513E-004	0.00000E+000	3.80799E-005	5.99601E-002	3.75194E-001	3.57900E+000	9	...........
	18	0.253333	3.89246E-001	1.01227E-004	0.00000E+000	3.94023E-005	5.99601E-002	3.89317E-001	3.57900E+000	9	...........
	19	0.266667	4.03352E-001	1.00991E-004	0.00000E+000	4.07348E-005	5.99601E-002	4.03431E-001	3.57900E+000	9	...........
	20	0.28	4.17441E-001	1.01120E-004	0.00000E+000	4.22116E-005	5.99601E-002	4.17526E-001	3.57900E+000	9	...........
	21	0.293333	4.31486E-001	1.00806E-004	0.00000E+000	4.34965E-005	5.99601E-002	4.31573E-001	3.57900E+000	9	...........
	22	0.306667	4.45469E-001	1.00293E-004	0.00000E+000	4.46773E-005	5.99601E-002	4.45555E-001	3.57900E+000	9	...........
	23	0.32	4.59370E-001	1.00309E-004	0.00000E+000	4.60791E-005	5.99601E-002	4.59459E-001	3.57900E+000	9	...........
	24	0.333333	4.73159E-001	1.00786E-004	0.00000E+000	4.76876E-005	5.99601E-002	4.73256E-001	3.57900E+000	9	...........
	25	0.346667	4.86812E-001	1.01589E-004	0.00000E+000	4.94546E-005	5.99601E-002	4.86912E-001	3.57900E+000	9	...........
	26	0.36	5.00314E-001	1.01412E-004	0.00000E+000	5.07377E-005	5.99601E-002	5.00420E-001	3.57900E+000	9	...........
	27	0.373333	5.13656E-001	1.00723E-004	0.00000E+000	5.17369E-005	5.99601E-002	5.13765E-001	3.57900E+000	9	...........
	28	0.386667	5.26809E-001	1.01179E-004	0.00000E+000	5.33022E-005	5.99601E-002	5.26921E-001	3.57900E+000	9	...........
	29	0.4	5.39443E-001	1.00348E-004	0.00000E+000	5.41320E-005	5.99601E-002	5.39660E-001	3.57900E+000	9	...........
	30	0.413333	5.52161E-001	1.01307E-004	0.00000E+000	5.59380E-005	5.99601E-002	5.52422E-001	3.57900E+000	9	...........
	31	0.426667	5.64686E-001	1.00411E-004	0.00000E+000	5.67010E-005	5.99601E-002	5.64961E-001	3.57900E+000	9	...........
	32	0.44	5.76975E-001	1.00995E-004	0.00000E+000	5.82715E-005	5.99601E-002	5.77255E-001	3.57900E+000	9	...........
	33	0.453333	5.89060E-001	1.01304E-004	0.00000E+000	5.96744E-005	5.99601E-002	5.89356E-001	3.57900E+000	9	...........
	34	0.466667	6.00910E-001	1.00528E-004	0.00000E+000	6.04084E-005	5.99601E-002	6.01210E-001	3.57900E+000	9	...........
	35	0.48	6.12530E-001	1.00914E-004	0.00000E+000	6.18127E-005	5.99601E-002	6.12826E-001	3.57900E+000	9	...........
	36	0.493333	6.23933E-001	1.00904E-004	0.00000E+000	6.29575E-005	5.99601E-002	6.24206E-001	3.57900E+000	9	...........
	37	0.506667	6.35082E-001	1.01242E-004	0.00000E+000	6.42969E-005	5.99601E-002	6.35389E-001	3.57900E+000	9	...........
	38	0.52	6.46035E-001	1.01447E-004	0.00000E+000	6.55384E-005	5.99601E-002	6.46309E-001	3.57900E+000	9	...........
	39	0.533333	6.56739E-001	1.00855E-004	0.00000E+000	6.62356E-005	5.99601E-002	6.57023E-001	3.57900E+000	9	...........
	40	0.546667	6.67261E-001	1.00634E-004	0.00000E+000	6.71494E-005	5.99601E-002	6.67530E-001	3.57900E+000	9	...........
	41	0.56	6.77551E-001	1.01944E-004	0.00000E+000	6.90723E-005	5.99601E-002	6.77835E-001	3.57900E+000	9	...........
	42	0.573333	6.87624E-001	1.00593E-004	0.00000E+000	6.91700E-005	5.99601E-002	6.87907E-001	3.57900E+000	9	...........
	43	0.586667	6.97499E-001	1.01113E-004	0.00000E+000	7.05260E-005	5.99601E-002	6.97785E-001	3.57900E+000	9	...........
	44	0.6	7.07184E-001	1.01611E-004	0.00000E+000	7.18575E-005	5.99601E-002	7.07474E-001	3.57900E+000	9	...........
	45	0.613333	7.16673E-001	1.01296E-004	0.00000E+000	7.25961E-005	5.99601E-002	7.16983E-001	3.57900E+000	9	...........
	46	0.626667	7.26013E-001	1.00390E-004	0.00000E+000	7.28842E-005	5.99601E-002	7.26296E-001	3.57900E+000	9	...........
	47	0.64	7.35123E-001	1.00840E-004	0.00000E+000	7.41296E-005	5.99601E-002	7.35421E-001	3.57900E+000	9	...........
	48	0.653333	7.44085E-001	1.00589E-004	0.00000E+000	7.48465E-005	5.99601E-002	7.44389E-001	3.57900E+000	9	...........
	49	0.666667	7.52853E-001	1.00111E-004	0.00000E+000	7.53692E-005	5.99601E-002	7.53145E-001	3.57900E+000	9	...........
	50	0.68	7.61437E-001	1.00467E-004	0.00000E+000	7.64990E-005	5.99601E-002	7.61726E-001	3.57900E+000	9	...........
	51	0.693333	7.69885E-001	1.00674E-004	0.00000E+000	7.75074E-005	5.99601E-002	7.70164E-001	3.57900E+000	9	...........
	52	0.706667	7.78148E-001	1.00893E-004	0.00000E+000	7.85095E-005	5.99601E-002	7.78455E-001	3.57900E+000	9	...........
	53	0.72	7.86251E-001	1.01441E-004	0.00000E+000	7.97579E-005	5.99601E-002	7.86566E-001	3.57900E+000	9	...........
	54	0.733333	7.94229E-001	1.01029E-004	0.00000E+000	8.02404E-005	5.99601E-002	7.94531E-001	3.57900E+000	9	...........
	55	0.746667	8.02043E-001	1.01503E-004	0.00000E+000	8.14100E-005	5.99601E-002	8.02356E-001	3.57900E+000	9	...........
	56	0.76	8.09698E-001	1.00988E-004	0.00000E+000	8.17695E-005	5.99601E-002	8.10007E-001	3.57900E+000	9	...........
	57	0.773333	8.17235E-001	1.00966E-004	0.00000E+000	8.25127E-005	5.99601E-002	8.17558E-001	3.57900E+000	9	...........
	58	0.786667	8.24617E-001	9.97540E-005	0.00000E+000	8.22589E-005	5.99601E-002	8.24953E-001	3.57900E+000	9	...........
	59	0.8	8.31861E-001	1.00607E-004	0.00000E+000	8.36914E-005	5.99601E-002	8.32171E-001	3.57900E+000	9	...........
	60	0.813333	8.38953E-001	1.00148E-004	0.00000E+000	8.40193E-005	5.99601E-002	8.39302E-001	3.57900E+000	9	...........
	61	0.826667	8.45979E-001	1.00678E-004	0.00000E+000	8.51716E-005	5.99601E-002	8.46316E-001	3.57900E+000	9	...........
	62	0.84	8.52842E-001	1.01104E-004	0.00000E+000	8.62260E-005	5.99601E-002	8.53181E-001	3.57900E+000	9	...........
	63	0.853333	8.59582E-001	1.01835E-004	0.00000E+000	8.75352E-005	5.99601E-002	8.59932E-001	3.57900E+000	9	...........
	64	0.866667	8.66205E-001	1.00886E-004	0.00000E+000	8.73876E-005	5.99601E-002	8.66551E-001	3.57900E+000	9	...........
	65	0.88	8.72754E-001	1.01313E-004	0.00000E+000	8.84211E-005	5.99601E-002	8.73078E-001	3.57900E+000	9	...........
	66	0.893333	8.79133E-001	1.00583E-004	0.00000E+000	8.84261E-005	5.99601E-002	8.79474E-001	3.57900E+000	9	...........
	67	0.906667	8.85430E-001	1.00834E-004	0.00000E+000	8.92819E-005	5.99601E-002	8.85752E-001	3.57900E+000	9	...........
	68	0.92	8.91577E-001	1.01605E-004	0.00000E+000	9.05891E-005	5.99601E-002	8.91899E-001	3.57900E+000	9	...........
	69	0.933333	8.97604E-001	1.00262E-004	0.00000E+000	8.99961E-005	5.99601E-002	8.97970E-001	3.57900E+000	9	...........
	70	0.946667	9.03548E-001	1.00789E-004	0.00000E+000	9.10674E-005	5.99601E-002	9.03880E-001	3.57900E+000	9	...........
	71	0.96	9.09395E-001	1.00507E-004	0.00000E+000	9.14009E-005	5.99601E-002	9.09718E-001	3.57900E+000	9	...........
	72	0.97333	9.15113E-001	1.01090E-004	0.00000E+000	9.25086E-005	5.99601E-002	9.15455E-001	3.57880E+000	9	...........
	73	0.98667	9.20777E-001	1.00803E-004	0.00000E+000	9.28173E-005	5.99601E-002	9.21082E-001	3.57860E+000	9	...........
	74	1	9.26319E-001	1.00748E-004	0.00000E+000	9.33248E-005	5.99601E-002	9.26614E-001	3.57860E+000	9	...........
	75	1.01333	9.31710E-001	1.00557E-004	0.00000E+000	9.36902E-005	5.99601E-002	9.32003E-001	3.57860E+000	9	...........
	76	1.02667	9.37018E-001	1.00830E-004	0.00000E+000	9.44798E-005	5.99601E-002	9.37323E-001	3.57860E+000	9	...........
	77	1.04	9.42227E-001	1.01209E-004	0.00000E+000	9.53614E-005	5.99601E-002	9.42518E-001	3.57860E+000	9	...........
	78	1.05333	9.47354E-001	1.00750E-004	0.00000E+000	9.54460E-005	5.99601E-002	9.47659E-001	3.57860E+000	9	...........
	79	1.06667	9.52392E-001	1.01514E-004	0.00000E+000	9.66809E-005	5.99601E-002	9.52665E-001	3.57860E+000	9	...........
	80	1.08	9.57293E-001	1.01538E-004	0.00000E+000	9.72014E-005	5.99601E-002	9.57588E-001	3.57860E+000	9	...........
	81	1.09333	9.62092E-001	1.00742E-004	0.00000E+000	9.69228E-005	5.99601E-002	9.62401E-001	3.57860E+000	9	...........
	82	1.10667	9.66811E-001	1.01193E-004	0.00000E+000	9.78344E-005	5.99601E-002	9.67143E-001	3.57860E+000	9	...........
	83	1.12	9.71452E-001	1.01214E-004	0.00000E+000	9.83242E-005	5.99601E-002	9.71784E-001	3.57860E+000	9	...........
	84	1.13333	9.76002E-001	1.01016E-004	0.00000E+000	9.85916E-005	5.99601E-002	9.76346E-001	3.57860E+000	9	...........
	85	1.14667	9.80438E-001	1.01293E-004	0.00000E+000	9.93114E-005	5.99601E-002	9.80765E-001	3.57860E+000	9	...........
	86	1.16	9.84770E-001	1.00601E-004	0.00000E+000	9.90690E-005	5.99601E-002	9.85112E-001	3.57860E+000	9	...........
	87	1.17333	9.89023E-001	1.01129E-004	0.00000E+000	1.00019E-004	5.99601E-002	9.89357E-001	3.57860E+000	9	...........
	88	1.18667	9.93166E-001	1.00682E-004	0.00000E+000	9.99943E-005	5.99601E-002	9.93521E-001	3.57860E+000	9	...........
	89	1.2	9.97253E-001	1.00881E-004	0.00000E+000	1.00604E-004	5.99601E-002	9.97597E-001	3.57860E+000	9	...........
	90	1.205	1.00001E+000	1.00826E-004	0.00000E+000	1.00827E-004	5.99601E-002	1.00035E+000	3.57860E+000	9	...........
STARTTIMEOFFSET	QUANT	1682.981	Start Time Offset (s)
