EXPLAIN
TAG	PWR800_CHARGE
TITLE	LABEL	PWR Cyclic Charge Discharge (Cell) - Charge Step	Test &Identifier
DATE	LABEL	13-7-2017	Date
TIME	LABEL	15:15:57	Time
NOTES	NOTES	2	&Notes...
	supercap test cell
	6M KOH
PSTAT	PSTAT	IFC5000-01520	Potentiostat
CAPACITY	QUANT	1.00000E-003	Capacity (A-hr)
CELLTYPE	SELECTOR	1	&Cell Type
WORKINGCONNECTION	SELECTOR	0	&Working Lead
MAXCHARGETIME	VARIABLEANDUNITS	1.00000E+002	s	1.00000E+002	second(s)	Max &Charge Time
CHARGECURRENT	QUANT	1.00000E-004	&Charge Current (A) 
VOLTAGEFINISH	TWOPARAM	F	1.00000E-003	3.60000E+003	&Voltage Finish	 I (A) < 	Max Time(s)
SAMPLETIME	QUANT	1.00000E-002	Sa&mple Period (s)
CHARGESTOPAT1	MULTIPARAM	4	1.00000E+000	Charge Stop At &1	Voltage > Limit	V
CHARGESTOPAT2	MULTIPARAM	0	0.00000E+000	Charge Stop At &2	None	N/A
AESBHCSELECTOR	TOGGLE	F	Save Both Half Cells
IRCOMP	TOGGLE	F	IR &Measure
EOC	QUANT	0	Open Circuit (V)
SEQUENCER	TOGGLE	TRUE	Run as Sequence
PSTATMODEL	IQUANT	53	Pstat Model
PSTATSECTION	LABEL	IFC5000-01520	Pstat Section
PSTATSERIALNO	LABEL	01520	Pstat Serial Number
CTRLMODE	IQUANT	0	Control Mode
ELECTROMETER	IQUANT	1	RE=0 or CS=1
IESTAB	IQUANT	0	I/E Stability
CASPEED	IQUANT	4	Control Amp Speed
CONVENTION	IQUANT	1	Current Convention
ICHRANGE	IQUANT	2	Ich Range
ICHRANGEMODE	TOGGLE	T	Ich Auto Range
ICHOFFSETENABLE	TOGGLE	F	Ich Offset Enable
ICHOFFSET	QUANT	0	Ich Offset (V)
ICHFILTER	IQUANT	1	Ich Filter
VCHRANGE	IQUANT	2	Vch Range
VCHRANGEMODE	TOGGLE	T	Vch Auto Range
VCHOFFSETENABLE	TOGGLE	F	Vch Offset Enable
VCHOFFSET	QUANT	0	Vch Offset (V)
VCHFILTER	IQUANT	1	Vch Filter
IERANGELOWERLIMIT	IQUANT	9	I/E Range Lower Limit
IERANGEMODE	TOGGLE	F	I/E AutoRange
IERANGE	IQUANT	9	I/E Range
ACHSELECT	IQUANT	1	Ach Select
ACHRANGE	IQUANT	2	Ach Range
ACHOFFSETENABLE	TOGGLE	F	Ach Offset Enable
ACHOFFSET	QUANT	0	Ach Offset (V)
ACHFILTER	IQUANT	1	Ach Filter
CABLEID	IQUANT	14	Cable ID
DCCALDATE	LABEL	5-7-2017	DC Calibration Date
ACCALDATE	LABEL	12/3/2015	AC Calibration Date
FRAMEWORKVERSION	QUANT	7.01	Framework Version
INSTRUMENTVERSION	LABEL	4.00	Instrument Version
CURVE	TABLE	95
	Pt	T	Vf	Im	Vu	Pwr	Sig	Ach	Temp	IERange	Over
	#	s	V	A	V	W	V	V	deg C	#	bits
	0	0.013333	1.32661E-001	9.96176E-005	0.00000E+000	1.32154E-005	5.99601E-002	1.32722E-001	3.57870E+000	9	...........
	1	0.026667	1.47882E-001	1.02085E-004	0.00000E+000	1.50965E-005	5.99601E-002	1.47908E-001	3.57870E+000	9	...........
	2	0.04	1.62649E-001	1.01155E-004	0.00000E+000	1.64528E-005	5.99601E-002	1.62676E-001	3.57870E+000	9	...........
	3	0.053333	1.77137E-001	1.00307E-004	0.00000E+000	1.77682E-005	5.99601E-002	1.77173E-001	3.57870E+000	9	...........
	4	0.066667	1.91446E-001	1.01232E-004	0.00000E+000	1.93806E-005	5.99601E-002	1.91482E-001	3.57870E+000	9	...........
	5	0.08	2.05609E-001	1.00718E-004	0.00000E+000	2.07085E-005	5.99601E-002	2.05643E-001	3.57870E+000	9	...........
	6	0.093333	2.19659E-001	1.01409E-004	0.00000E+000	2.22753E-005	5.99601E-002	2.19700E-001	3.57870E+000	9	...........
	7	0.106667	2.33640E-001	1.00651E-004	0.00000E+000	2.35161E-005	5.99601E-002	2.33682E-001	3.57870E+000	9	...........
	8	0.12	2.47566E-001	1.00744E-004	0.00000E+000	2.49407E-005	5.99601E-002	2.47618E-001	3.57870E+000	9	...........
	9	0.133333	2.61456E-001	1.01290E-004	0.00000E+000	2.64828E-005	5.99601E-002	2.61510E-001	3.57870E+000	9	...........
	10	0.146667	2.75328E-001	9.97665E-005	0.00000E+000	2.74685E-005	5.99601E-002	2.75376E-001	3.57870E+000	9	...........
	11	0.16	2.89187E-001	1.01121E-004	0.00000E+000	2.92429E-005	5.99601E-002	2.89245E-001	3.57870E+000	9	...........
	12	0.173333	3.03051E-001	1.00331E-004	0.00000E+000	3.04055E-005	5.99601E-002	3.03108E-001	3.57870E+000	9	...........
	13	0.186667	3.16924E-001	1.01394E-004	0.00000E+000	3.21342E-005	5.99601E-002	3.16983E-001	3.57870E+000	9	...........
	14	0.2	3.30799E-001	1.00229E-004	0.00000E+000	3.31557E-005	5.99601E-002	3.30862E-001	3.57870E+000	9	...........
	15	0.213333	3.44681E-001	1.00680E-004	0.00000E+000	3.47025E-005	5.99601E-002	3.44747E-001	3.57870E+000	9	...........
	16	0.226667	3.58572E-001	1.00347E-004	0.00000E+000	3.59816E-005	5.99601E-002	3.58638E-001	3.57870E+000	9	...........
	17	0.24	3.72452E-001	1.01388E-004	0.00000E+000	3.77620E-005	5.99601E-002	3.72526E-001	3.57870E+000	9	...........
	18	0.253333	3.86322E-001	1.00602E-004	0.00000E+000	3.88648E-005	5.99601E-002	3.86397E-001	3.57870E+000	9	...........
	19	0.266667	4.00164E-001	1.01118E-004	0.00000E+000	4.04637E-005	5.99601E-002	4.00239E-001	3.57870E+000	9	...........
	20	0.28	4.13949E-001	1.01119E-004	0.00000E+000	4.18581E-005	5.99601E-002	4.14034E-001	3.57870E+000	9	...........
	21	0.293333	4.27677E-001	1.00963E-004	0.00000E+000	4.31794E-005	5.99601E-002	4.27762E-001	3.57870E+000	9	...........
	22	0.306667	4.41322E-001	1.00442E-004	0.00000E+000	4.43271E-005	5.99601E-002	4.41416E-001	3.57870E+000	9	...........
	23	0.32	4.54863E-001	1.01195E-004	0.00000E+000	4.60299E-005	5.99601E-002	4.54955E-001	3.57870E+000	9	...........
	24	0.333333	4.68285E-001	1.00317E-004	0.00000E+000	4.69768E-005	5.99601E-002	4.68379E-001	3.57870E+000	9	...........
	25	0.346667	4.81571E-001	1.01241E-004	0.00000E+000	4.87546E-005	5.99601E-002	4.81660E-001	3.57870E+000	9	...........
	26	0.36	4.94692E-001	1.00942E-004	0.00000E+000	4.99351E-005	5.99601E-002	4.94791E-001	3.57870E+000	9	...........
	27	0.373333	5.07635E-001	1.00843E-004	0.00000E+000	5.11914E-005	5.99601E-002	5.07745E-001	3.57870E+000	9	...........
	28	0.386667	5.20395E-001	1.00295E-004	0.00000E+000	5.21929E-005	5.99601E-002	5.20507E-001	3.57870E+000	9	...........
	29	0.4	5.32816E-001	1.02148E-004	0.00000E+000	5.44262E-005	5.99601E-002	5.32995E-001	3.57870E+000	9	...........
	30	0.413333	5.44954E-001	1.00961E-004	0.00000E+000	5.50189E-005	5.99601E-002	5.45195E-001	3.57870E+000	9	...........
	31	0.426667	5.57086E-001	1.01053E-004	0.00000E+000	5.62954E-005	5.99601E-002	5.57367E-001	3.57870E+000	9	...........
	32	0.44	5.69042E-001	1.00629E-004	0.00000E+000	5.72622E-005	5.99601E-002	5.69287E-001	3.57870E+000	9	...........
	33	0.453333	5.80699E-001	1.01041E-004	0.00000E+000	5.86742E-005	5.99601E-002	5.80980E-001	3.57870E+000	9	...........
	34	0.466667	5.92178E-001	1.00542E-004	0.00000E+000	5.95386E-005	5.99601E-002	5.92478E-001	3.57870E+000	9	...........
	35	0.48	6.03413E-001	1.01538E-004	0.00000E+000	6.12692E-005	5.99601E-002	6.03723E-001	3.57870E+000	9	...........
	36	0.493333	6.14479E-001	1.01540E-004	0.00000E+000	6.23940E-005	5.99601E-002	6.14767E-001	3.57870E+000	9	...........
	37	0.506667	6.25299E-001	1.00665E-004	0.00000E+000	6.29455E-005	5.99601E-002	6.25557E-001	3.57870E+000	9	...........
	38	0.52	6.35889E-001	1.01739E-004	0.00000E+000	6.46946E-005	5.99601E-002	6.36167E-001	3.57870E+000	9	...........
	39	0.533333	6.46292E-001	1.01027E-004	0.00000E+000	6.52930E-005	5.99601E-002	6.46547E-001	3.57870E+000	9	...........
	40	0.546667	6.56470E-001	1.00120E-004	0.00000E+000	6.57256E-005	5.99601E-002	6.56719E-001	3.57870E+000	9	...........
	41	0.56	6.66444E-001	1.01856E-004	0.00000E+000	6.78810E-005	5.99601E-002	6.66714E-001	3.57870E+000	9	...........
	42	0.573333	6.76225E-001	1.00853E-004	0.00000E+000	6.81995E-005	5.99601E-002	6.76505E-001	3.57870E+000	9	...........
	43	0.586667	6.85800E-001	1.01375E-004	0.00000E+000	6.95231E-005	5.99601E-002	6.86085E-001	3.57870E+000	9	...........
	44	0.6	6.95216E-001	1.01122E-004	0.00000E+000	7.03016E-005	5.99601E-002	6.95487E-001	3.57870E+000	9	...........
	45	0.613333	7.04397E-001	1.00655E-004	0.00000E+000	7.09013E-005	5.99601E-002	7.04680E-001	3.57870E+000	9	...........
	46	0.626667	7.13435E-001	1.01318E-004	0.00000E+000	7.22838E-005	5.99601E-002	7.13729E-001	3.57870E+000	9	...........
	47	0.64	7.22330E-001	1.01018E-004	0.00000E+000	7.29682E-005	5.99601E-002	7.22593E-001	3.57870E+000	9	...........
	48	0.653333	7.30985E-001	1.00956E-004	0.00000E+000	7.37976E-005	5.99601E-002	7.31300E-001	3.57870E+000	9	...........
	49	0.666667	7.39507E-001	1.00506E-004	0.00000E+000	7.43251E-005	5.99601E-002	7.39788E-001	3.57870E+000	9	...........
	50	0.68	7.47863E-001	1.01110E-004	0.00000E+000	7.56161E-005	5.99601E-002	7.48165E-001	3.57870E+000	9	...........
	51	0.693333	7.56080E-001	1.01823E-004	0.00000E+000	7.69865E-005	5.99601E-002	7.56369E-001	3.57870E+000	9	...........
	52	0.706667	7.64126E-001	1.01650E-004	0.00000E+000	7.76736E-005	5.99601E-002	7.64419E-001	3.57870E+000	9	...........
	53	0.72	7.72011E-001	9.98155E-005	0.00000E+000	7.70586E-005	5.99601E-002	7.72326E-001	3.57870E+000	9	...........
	54	0.733333	7.79781E-001	1.01291E-004	0.00000E+000	7.89846E-005	5.99601E-002	7.80057E-001	3.57922E+000	9	...........
	55	0.746667	7.87374E-001	1.00754E-004	0.00000E+000	7.93312E-005	5.99601E-002	7.87624E-001	3.58010E+000	9	...........
	56	0.76	7.94864E-001	1.01509E-004	0.00000E+000	8.06855E-005	5.99601E-002	7.95112E-001	3.58010E+000	9	...........
	57	0.773333	8.02198E-001	1.01554E-004	0.00000E+000	8.14667E-005	5.99601E-002	8.02457E-001	3.58010E+000	9	...........
	58	0.786667	8.09382E-001	1.00710E-004	0.00000E+000	8.15132E-005	5.99601E-002	8.09691E-001	3.58010E+000	9	...........
	59	0.8	8.16451E-001	9.99645E-005	0.00000E+000	8.16161E-005	5.99601E-002	8.16782E-001	3.58010E+000	9	...........
	60	0.813333	8.23415E-001	9.99968E-005	0.00000E+000	8.23388E-005	5.99601E-002	8.23748E-001	3.58010E+000	9	...........
	61	0.826667	8.30226E-001	1.00367E-004	0.00000E+000	8.33270E-005	5.99601E-002	8.30565E-001	3.58010E+000	9	...........
	62	0.84	8.36947E-001	1.01053E-004	0.00000E+000	8.45762E-005	5.99601E-002	8.37295E-001	3.58010E+000	9	...........
	63	0.853333	8.43551E-001	1.01149E-004	0.00000E+000	8.53244E-005	5.99601E-002	8.43891E-001	3.58010E+000	9	...........
	64	0.866667	8.50034E-001	1.01097E-004	0.00000E+000	8.59359E-005	5.99601E-002	8.50386E-001	3.58010E+000	9	...........
	65	0.88	8.56375E-001	1.01378E-004	0.00000E+000	8.68179E-005	5.99601E-002	8.56742E-001	3.58010E+000	9	...........
	66	0.893333	8.62658E-001	1.00759E-004	0.00000E+000	8.69209E-005	5.99601E-002	8.62993E-001	3.58010E+000	9	...........
	67	0.906667	8.68831E-001	1.01730E-004	0.00000E+000	8.83866E-005	5.99601E-002	8.69161E-001	3.58010E+000	9	...........
	68	0.92	8.74892E-001	1.00870E-004	0.00000E+000	8.82503E-005	5.99601E-002	8.75227E-001	3.58010E+000	9	...........
	69	0.933333	8.80828E-001	9.97415E-005	0.00000E+000	8.78552E-005	5.99601E-002	8.81172E-001	3.58010E+000	9	...........
	70	0.946667	8.86684E-001	9.99968E-005	0.00000E+000	8.86656E-005	5.99601E-002	8.87051E-001	3.58010E+000	9	...........
	71	0.96	8.92407E-001	1.01057E-004	0.00000E+000	9.01844E-005	5.99601E-002	8.92773E-001	3.58010E+000	9	...........
	72	0.97333	8.98077E-001	1.01615E-004	0.00000E+000	9.12580E-005	5.99601E-002	8.98435E-001	3.58010E+000	9	...........
	73	0.98667	9.03609E-001	1.00901E-004	0.00000E+000	9.11752E-005	5.99601E-002	9.03979E-001	3.58010E+000	9	...........
	74	1	9.09079E-001	1.01067E-004	0.00000E+000	9.18777E-005	5.99601E-002	9.09425E-001	3.58010E+000	9	...........
	75	1.01333	9.14426E-001	1.00666E-004	0.00000E+000	9.20513E-005	5.99601E-002	9.14789E-001	3.58010E+000	9	...........
	76	1.02667	9.19706E-001	1.00867E-004	0.00000E+000	9.27678E-005	5.99601E-002	9.20038E-001	3.58010E+000	9	...........
	77	1.04	9.24898E-001	1.00729E-004	0.00000E+000	9.31643E-005	5.99601E-002	9.25204E-001	3.58010E+000	9	...........
	78	1.05333	9.29976E-001	1.00336E-004	0.00000E+000	9.33105E-005	5.99601E-002	9.30282E-001	3.58010E+000	9	...........
	79	1.06667	9.34950E-001	1.00978E-004	0.00000E+000	9.44096E-005	5.99601E-002	9.35292E-001	3.58010E+000	9	...........
	80	1.08	9.39846E-001	1.00977E-004	0.00000E+000	9.49031E-005	5.99601E-002	9.40193E-001	3.58010E+000	9	...........
	81	1.09333	9.44643E-001	1.00893E-004	0.00000E+000	9.53077E-005	5.99601E-002	9.45001E-001	3.58010E+000	9	...........
	82	1.10667	9.49389E-001	9.99364E-005	0.00000E+000	9.48784E-005	5.99601E-002	9.49759E-001	3.58010E+000	9	...........
	83	1.12	9.54017E-001	1.01723E-004	0.00000E+000	9.70456E-005	5.99601E-002	9.54386E-001	3.58010E+000	9	...........
	84	1.13333	9.58549E-001	1.01433E-004	0.00000E+000	9.72281E-005	5.99601E-002	9.58953E-001	3.58010E+000	9	...........
	85	1.14667	9.63006E-001	1.00801E-004	0.00000E+000	9.70721E-005	5.99601E-002	9.63388E-001	3.58010E+000	9	...........
	86	1.16	9.67335E-001	1.00538E-004	0.00000E+000	9.72535E-005	5.99601E-002	9.67769E-001	3.58010E+000	9	...........
	87	1.17333	9.71672E-001	1.01236E-004	0.00000E+000	9.83678E-005	5.99601E-002	9.72060E-001	3.58010E+000	9	...........
	88	1.18667	9.75901E-001	1.00961E-004	0.00000E+000	9.85275E-005	5.99601E-002	9.76270E-001	3.58010E+000	9	...........
	89	1.2	9.80005E-001	1.00876E-004	0.00000E+000	9.88591E-005	5.99601E-002	9.80384E-001	3.58010E+000	9	...........
	90	1.21333	9.84054E-001	1.01081E-004	0.00000E+000	9.94696E-005	5.99601E-002	9.84409E-001	3.58010E+000	9	...........
	91	1.22667	9.87990E-001	1.01578E-004	0.00000E+000	1.00358E-004	5.99601E-002	9.88372E-001	3.58010E+000	9	...........
	92	1.24	9.91872E-001	1.00657E-004	0.00000E+000	9.98392E-005	5.99601E-002	9.92235E-001	3.58010E+000	9	...........
	93	1.25333	9.95684E-001	1.00753E-004	0.00000E+000	1.00318E-004	5.99601E-002	9.96019E-001	3.58010E+000	9	...........
	94	1.26333	9.98952E-001	1.00198E-004	0.00000E+000	1.00093E-004	5.99601E-002	9.99281E-001	3.58010E+000	9	...........
STARTTIMEOFFSET	QUANT	629.6395	Start Time Offset (s)
