EXPLAIN
TAG	PWR800_CHARGE
TITLE	LABEL	PWR Cyclic Charge Discharge (Cell) - Charge Step	Test &Identifier
DATE	LABEL	13-7-2017	Date
TIME	LABEL	15:02:20	Time
NOTES	NOTES	2	&Notes...
	supercap test cell
	6M KOH
PSTAT	PSTAT	IFC5000-01520	Potentiostat
CAPACITY	QUANT	1.00000E-003	Capacity (A-hr)
CELLTYPE	SELECTOR	1	&Cell Type
WORKINGCONNECTION	SELECTOR	0	&Working Lead
MAXCHARGETIME	VARIABLEANDUNITS	1.00000E+002	s	1.00000E+002	second(s)	Max &Charge Time
CHARGECURRENT	QUANT	1.00000E-004	&Charge Current (A) 
VOLTAGEFINISH	TWOPARAM	F	1.00000E-003	3.60000E+003	&Voltage Finish	 I (A) < 	Max Time(s)
SAMPLETIME	QUANT	1.00000E-002	Sa&mple Period (s)
CHARGESTOPAT1	MULTIPARAM	4	1.00000E+000	Charge Stop At &1	Voltage > Limit	V
CHARGESTOPAT2	MULTIPARAM	0	0.00000E+000	Charge Stop At &2	None	N/A
AESBHCSELECTOR	TOGGLE	F	Save Both Half Cells
IRCOMP	TOGGLE	F	IR &Measure
EOC	QUANT	0	Open Circuit (V)
SEQUENCER	TOGGLE	TRUE	Run as Sequence
PSTATMODEL	IQUANT	53	Pstat Model
PSTATSECTION	LABEL	IFC5000-01520	Pstat Section
PSTATSERIALNO	LABEL	01520	Pstat Serial Number
CTRLMODE	IQUANT	0	Control Mode
ELECTROMETER	IQUANT	1	RE=0 or CS=1
IESTAB	IQUANT	0	I/E Stability
CASPEED	IQUANT	4	Control Amp Speed
CONVENTION	IQUANT	1	Current Convention
ICHRANGE	IQUANT	2	Ich Range
ICHRANGEMODE	TOGGLE	T	Ich Auto Range
ICHOFFSETENABLE	TOGGLE	F	Ich Offset Enable
ICHOFFSET	QUANT	0	Ich Offset (V)
ICHFILTER	IQUANT	1	Ich Filter
VCHRANGE	IQUANT	2	Vch Range
VCHRANGEMODE	TOGGLE	T	Vch Auto Range
VCHOFFSETENABLE	TOGGLE	F	Vch Offset Enable
VCHOFFSET	QUANT	0	Vch Offset (V)
VCHFILTER	IQUANT	1	Vch Filter
IERANGELOWERLIMIT	IQUANT	9	I/E Range Lower Limit
IERANGEMODE	TOGGLE	F	I/E AutoRange
IERANGE	IQUANT	9	I/E Range
ACHSELECT	IQUANT	1	Ach Select
ACHRANGE	IQUANT	2	Ach Range
ACHOFFSETENABLE	TOGGLE	F	Ach Offset Enable
ACHOFFSET	QUANT	0	Ach Offset (V)
ACHFILTER	IQUANT	1	Ach Filter
CABLEID	IQUANT	14	Cable ID
DCCALDATE	LABEL	5-7-2017	DC Calibration Date
ACCALDATE	LABEL	12/3/2015	AC Calibration Date
FRAMEWORKVERSION	QUANT	7.01	Framework Version
INSTRUMENTVERSION	LABEL	4.00	Instrument Version
CURVE	TABLE	116
	Pt	T	Vf	Im	Vu	Pwr	Sig	Ach	Temp	IERange	Over
	#	s	V	A	V	W	V	V	deg C	#	bits
	0	0.013333	1.64527E-001	1.01007E-004	0.00000E+000	1.66185E-005	5.99601E-002	1.64585E-001	3.57900E+000	9	...........
	1	0.026667	1.84197E-001	1.00681E-004	0.00000E+000	1.85452E-005	5.99601E-002	1.84231E-001	3.57900E+000	9	...........
	2	0.04	2.03252E-001	1.01570E-004	0.00000E+000	2.06443E-005	5.99601E-002	2.03289E-001	3.57900E+000	9	...........
	3	0.053333	2.21863E-001	1.01171E-004	0.00000E+000	2.24461E-005	5.99601E-002	2.21904E-001	3.57900E+000	9	...........
	4	0.066667	2.40100E-001	1.00532E-004	0.00000E+000	2.41378E-005	5.99601E-002	2.40145E-001	3.57900E+000	9	...........
	5	0.08	2.58003E-001	1.01168E-004	0.00000E+000	2.61016E-005	5.99601E-002	2.58055E-001	3.57900E+000	9	...........
	6	0.093333	2.75610E-001	1.01296E-004	0.00000E+000	2.79182E-005	5.99601E-002	2.75668E-001	3.57900E+000	9	...........
	7	0.106667	2.92920E-001	1.00819E-004	0.00000E+000	2.95319E-005	5.99601E-002	2.92972E-001	3.57900E+000	9	...........
	8	0.12	3.09938E-001	1.01541E-004	0.00000E+000	3.14714E-005	5.99601E-002	3.10000E-001	3.57900E+000	9	...........
	9	0.133333	3.26665E-001	1.01007E-004	0.00000E+000	3.29956E-005	5.99601E-002	3.26727E-001	3.57900E+000	9	...........
	10	0.146667	3.43088E-001	1.00979E-004	0.00000E+000	3.46448E-005	5.99601E-002	3.43157E-001	3.57900E+000	9	...........
	11	0.16	3.59204E-001	1.01016E-004	0.00000E+000	3.62853E-005	5.99601E-002	3.59275E-001	3.57900E+000	9	...........
	12	0.173333	3.75005E-001	1.01854E-004	0.00000E+000	3.81959E-005	5.99601E-002	3.75080E-001	3.57900E+000	9	...........
	13	0.186667	3.90474E-001	1.00575E-004	0.00000E+000	3.92720E-005	5.99601E-002	3.90553E-001	3.57900E+000	9	...........
	14	0.2	4.05609E-001	1.00343E-004	0.00000E+000	4.06999E-005	5.99601E-002	4.05691E-001	3.57900E+000	9	...........
	15	0.213333	4.20389E-001	1.00846E-004	0.00000E+000	4.23945E-005	5.99601E-002	4.20478E-001	3.57900E+000	9	...........
	16	0.226667	4.34817E-001	1.01359E-004	0.00000E+000	4.40725E-005	5.99601E-002	4.34910E-001	3.57900E+000	9	...........
	17	0.24	4.48888E-001	1.00761E-004	0.00000E+000	4.52302E-005	5.99601E-002	4.48983E-001	3.57900E+000	9	...........
	18	0.253333	4.62601E-001	1.01561E-004	0.00000E+000	4.69821E-005	5.99601E-002	4.62699E-001	3.57900E+000	9	...........
	19	0.266667	4.75955E-001	1.00588E-004	0.00000E+000	4.78752E-005	5.99601E-002	4.76059E-001	3.57900E+000	9	...........
	20	0.28	4.88958E-001	1.00591E-004	0.00000E+000	4.91846E-005	5.99601E-002	4.89061E-001	3.57900E+000	9	...........
	21	0.293333	5.01609E-001	1.00726E-004	0.00000E+000	5.05251E-005	5.99601E-002	5.01719E-001	3.57900E+000	9	...........
	22	0.306667	5.13919E-001	1.01191E-004	0.00000E+000	5.20038E-005	5.99601E-002	5.14032E-001	3.57900E+000	9	...........
	23	0.32	5.25892E-001	1.00869E-004	0.00000E+000	5.30461E-005	5.99601E-002	5.26006E-001	3.57900E+000	9	...........
	24	0.333333	5.37258E-001	1.01146E-004	0.00000E+000	5.43415E-005	5.99601E-002	5.37485E-001	3.57900E+000	9	...........
	25	0.346667	5.48489E-001	1.01575E-004	0.00000E+000	5.57129E-005	5.99601E-002	5.48785E-001	3.57900E+000	9	...........
	26	0.36	5.59543E-001	1.00961E-004	0.00000E+000	5.64918E-005	5.99601E-002	5.59826E-001	3.57900E+000	9	...........
	27	0.373333	5.70277E-001	1.01020E-004	0.00000E+000	5.76094E-005	5.99601E-002	5.70553E-001	3.57900E+000	9	...........
	28	0.386667	5.80710E-001	1.01227E-004	0.00000E+000	5.87837E-005	5.99601E-002	5.81015E-001	3.57900E+000	9	...........
	29	0.4	5.90871E-001	1.00922E-004	0.00000E+000	5.96319E-005	5.99601E-002	5.91196E-001	3.57900E+000	9	...........
	30	0.413333	6.00758E-001	1.00707E-004	0.00000E+000	6.05008E-005	5.99601E-002	6.01096E-001	3.57900E+000	9	...........
	31	0.426667	6.10403E-001	1.01123E-004	0.00000E+000	6.17259E-005	5.99601E-002	6.10709E-001	3.57900E+000	9	...........
	32	0.44	6.19837E-001	1.00762E-004	0.00000E+000	6.24557E-005	5.99601E-002	6.20119E-001	3.57900E+000	9	...........
	33	0.453333	6.28969E-001	1.00805E-004	0.00000E+000	6.34034E-005	5.99601E-002	6.29257E-001	3.57900E+000	9	...........
	34	0.466667	6.37888E-001	1.01259E-004	0.00000E+000	6.45916E-005	5.99601E-002	6.38188E-001	3.57900E+000	9	...........
	35	0.48	6.46598E-001	1.00553E-004	0.00000E+000	6.50175E-005	5.99601E-002	6.46867E-001	3.57900E+000	9	...........
	36	0.493333	6.55075E-001	1.00684E-004	0.00000E+000	6.59558E-005	5.99601E-002	6.55351E-001	3.57900E+000	9	...........
	37	0.506667	6.63349E-001	1.00942E-004	0.00000E+000	6.69596E-005	5.99601E-002	6.63634E-001	3.57900E+000	9	...........
	38	0.52	6.71453E-001	1.01297E-004	0.00000E+000	6.80163E-005	5.99601E-002	6.71714E-001	3.57900E+000	9	...........
	39	0.533333	6.79332E-001	1.01063E-004	0.00000E+000	6.86551E-005	5.99601E-002	6.79618E-001	3.57900E+000	9	...........
	40	0.546667	6.87028E-001	1.00607E-004	0.00000E+000	6.91200E-005	5.99601E-002	6.87322E-001	3.57900E+000	9	...........
	41	0.56	6.94577E-001	1.01313E-004	0.00000E+000	7.03695E-005	5.99601E-002	6.94843E-001	3.57900E+000	9	...........
	42	0.573333	7.01923E-001	1.00805E-004	0.00000E+000	7.07576E-005	5.99601E-002	7.02183E-001	3.57900E+000	9	...........
	43	0.586667	7.09068E-001	1.00930E-004	0.00000E+000	7.15665E-005	5.99601E-002	7.09395E-001	3.57900E+000	9	...........
	44	0.6	7.16131E-001	1.01573E-004	0.00000E+000	7.27397E-005	5.99601E-002	7.16430E-001	3.57900E+000	9	...........
	45	0.613333	7.23021E-001	1.00792E-004	0.00000E+000	7.28746E-005	5.99601E-002	7.23324E-001	3.57900E+000	9	...........
	46	0.626667	7.29759E-001	1.00721E-004	0.00000E+000	7.35020E-005	5.99601E-002	7.30080E-001	3.57900E+000	9	...........
	47	0.64	7.36332E-001	1.00767E-004	0.00000E+000	7.41978E-005	5.99601E-002	7.36660E-001	3.57900E+000	9	...........
	48	0.653333	7.42830E-001	1.01511E-004	0.00000E+000	7.54051E-005	5.99601E-002	7.43163E-001	3.57900E+000	9	...........
	49	0.666667	7.49175E-001	1.01080E-004	0.00000E+000	7.57268E-005	5.99601E-002	7.49474E-001	3.57914E+000	9	...........
	50	0.68	7.55387E-001	1.00637E-004	0.00000E+000	7.60195E-005	5.99601E-002	7.55695E-001	3.58010E+000	9	...........
	51	0.693333	7.61468E-001	1.00459E-004	0.00000E+000	7.64966E-005	5.99601E-002	7.61786E-001	3.58010E+000	9	...........
	52	0.706667	7.67449E-001	1.01146E-004	0.00000E+000	7.76244E-005	5.99601E-002	7.67771E-001	3.58010E+000	9	...........
	53	0.72	7.73306E-001	1.00237E-004	0.00000E+000	7.75142E-005	5.99601E-002	7.73600E-001	3.58010E+000	9	...........
	54	0.733333	7.79029E-001	1.00751E-004	0.00000E+000	7.84881E-005	5.99601E-002	7.79360E-001	3.58010E+000	9	...........
	55	0.746667	7.84690E-001	1.01331E-004	0.00000E+000	7.95138E-005	5.99601E-002	7.84975E-001	3.58010E+000	9	...........
	56	0.76	7.90202E-001	1.01209E-004	0.00000E+000	7.99752E-005	5.99601E-002	7.90514E-001	3.58010E+000	9	...........
	57	0.773333	7.95669E-001	1.00614E-004	0.00000E+000	8.00551E-005	5.99601E-002	7.95973E-001	3.58010E+000	9	...........
	58	0.786667	8.00990E-001	1.00831E-004	0.00000E+000	8.07649E-005	5.99601E-002	8.01306E-001	3.58010E+000	9	...........
	59	0.8	8.06219E-001	1.00675E-004	0.00000E+000	8.11662E-005	5.99601E-002	8.06542E-001	3.58010E+000	9	...........
	60	0.813333	8.11368E-001	1.01235E-004	0.00000E+000	8.21384E-005	5.99601E-002	8.11692E-001	3.58010E+000	9	...........
	61	0.826667	8.16414E-001	1.00474E-004	0.00000E+000	8.20284E-005	5.99601E-002	8.16768E-001	3.58010E+000	9	...........
	62	0.84	8.21405E-001	1.01286E-004	0.00000E+000	8.31965E-005	5.99601E-002	8.21758E-001	3.58010E+000	9	...........
	63	0.853333	8.26282E-001	1.01125E-004	0.00000E+000	8.35579E-005	5.99601E-002	8.26641E-001	3.58010E+000	9	...........
	64	0.866667	8.31090E-001	1.01229E-004	0.00000E+000	8.41307E-005	5.99601E-002	8.31428E-001	3.58010E+000	9	...........
	65	0.88	8.35815E-001	1.00834E-004	0.00000E+000	8.42790E-005	5.99601E-002	8.36181E-001	3.58010E+000	9	...........
	66	0.893333	8.40467E-001	1.00375E-004	0.00000E+000	8.43619E-005	5.99601E-002	8.40824E-001	3.58010E+000	9	...........
	67	0.906667	8.45060E-001	1.01443E-004	0.00000E+000	8.57254E-005	5.99601E-002	8.45416E-001	3.58010E+000	9	...........
	68	0.92	8.49574E-001	1.00692E-004	0.00000E+000	8.55451E-005	5.99601E-002	8.49914E-001	3.58010E+000	9	...........
	69	0.933333	8.53972E-001	1.01080E-004	0.00000E+000	8.63198E-005	5.99601E-002	8.54332E-001	3.58010E+000	9	...........
	70	0.946667	8.58314E-001	1.01004E-004	0.00000E+000	8.66934E-005	5.99601E-002	8.58692E-001	3.58010E+000	9	...........
	71	0.96	8.62613E-001	1.00901E-004	0.00000E+000	8.70386E-005	5.99601E-002	8.62991E-001	3.58010E+000	9	...........
	72	0.97333	8.66834E-001	1.01393E-004	0.00000E+000	8.78909E-005	5.99601E-002	8.67196E-001	3.58010E+000	9	...........
	73	0.98667	8.70997E-001	1.01342E-004	0.00000E+000	8.82685E-005	5.99601E-002	8.71368E-001	3.58010E+000	9	...........
	74	1	8.75089E-001	1.00691E-004	0.00000E+000	8.81133E-005	5.99601E-002	8.75459E-001	3.58010E+000	9	...........
	75	1.01333	8.79083E-001	1.01160E-004	0.00000E+000	8.89276E-005	5.99601E-002	8.79461E-001	3.58010E+000	9	...........
	76	1.02667	8.83064E-001	1.01586E-004	0.00000E+000	8.97067E-005	5.99601E-002	8.83432E-001	3.58010E+000	9	...........
	77	1.04	8.86954E-001	1.01031E-004	0.00000E+000	8.96102E-005	5.99601E-002	8.87328E-001	3.58010E+000	9	...........
	78	1.05333	8.90803E-001	1.01029E-004	0.00000E+000	8.99972E-005	5.99601E-002	8.91178E-001	3.58010E+000	9	...........
	79	1.06667	8.94596E-001	1.01433E-004	0.00000E+000	9.07411E-005	5.99601E-002	8.94967E-001	3.58010E+000	9	...........
	80	1.08	8.98336E-001	1.01041E-004	0.00000E+000	9.07686E-005	5.99601E-002	8.98694E-001	3.58010E+000	9	...........
	81	1.09333	9.02001E-001	1.01745E-004	0.00000E+000	9.17742E-005	5.99601E-002	9.02365E-001	3.58010E+000	9	...........
	82	1.10667	9.05611E-001	1.01040E-004	0.00000E+000	9.15027E-005	5.99601E-002	9.05982E-001	3.58010E+000	9	...........
	83	1.12	9.09219E-001	1.00987E-004	0.00000E+000	9.18189E-005	5.99601E-002	9.09549E-001	3.58010E+000	9	...........
	84	1.13333	9.12733E-001	1.01163E-004	0.00000E+000	9.23345E-005	5.99601E-002	9.13064E-001	3.58010E+000	9	...........
	85	1.14667	9.16196E-001	1.00795E-004	0.00000E+000	9.23479E-005	5.99601E-002	9.16555E-001	3.58010E+000	9	...........
	86	1.16	9.19628E-001	1.01073E-004	0.00000E+000	9.29496E-005	5.99601E-002	9.19978E-001	3.58010E+000	9	...........
	87	1.17333	9.23044E-001	1.01462E-004	0.00000E+000	9.36536E-005	5.99601E-002	9.23387E-001	3.58010E+000	9	...........
	88	1.18667	9.26363E-001	1.00579E-004	0.00000E+000	9.31728E-005	5.99601E-002	9.26695E-001	3.58010E+000	9	...........
	89	1.2	9.29625E-001	1.01237E-004	0.00000E+000	9.41121E-005	5.99601E-002	9.29968E-001	3.58010E+000	9	...........
	90	1.21333	9.32859E-001	1.00865E-004	0.00000E+000	9.40925E-005	5.99601E-002	9.33204E-001	3.58010E+000	9	...........
	91	1.22667	9.36027E-001	1.00748E-004	0.00000E+000	9.43029E-005	5.99601E-002	9.36362E-001	3.58010E+000	9	...........
	92	1.24	9.39166E-001	1.00897E-004	0.00000E+000	9.47590E-005	5.99601E-002	9.39513E-001	3.58010E+000	9	...........
	93	1.25333	9.42266E-001	1.01176E-004	0.00000E+000	9.53349E-005	5.99601E-002	9.42563E-001	3.58010E+000	9	...........
	94	1.26667	9.45312E-001	1.01273E-004	0.00000E+000	9.57347E-005	5.99601E-002	9.45635E-001	3.58010E+000	9	...........
	95	1.28	9.48356E-001	1.00345E-004	0.00000E+000	9.51625E-005	5.99601E-002	9.48679E-001	3.58010E+000	9	...........
	96	1.29333	9.51309E-001	1.00710E-004	0.00000E+000	9.58068E-005	5.99601E-002	9.51656E-001	3.58010E+000	9	...........
	97	1.30667	9.54235E-001	1.00587E-004	0.00000E+000	9.59832E-005	5.99601E-002	9.54581E-001	3.58010E+000	9	...........
	98	1.32	9.57134E-001	1.01464E-004	0.00000E+000	9.71144E-005	5.99601E-002	9.57466E-001	3.58010E+000	9	...........
	99	1.33333	9.59975E-001	1.00716E-004	0.00000E+000	9.66846E-005	5.99601E-002	9.60351E-001	3.58010E+000	9	...........
	100	1.34667	9.62763E-001	1.01176E-004	0.00000E+000	9.74088E-005	5.99601E-002	9.63166E-001	3.58010E+000	9	...........
	101	1.36	9.65541E-001	1.01052E-004	0.00000E+000	9.75700E-005	5.99601E-002	9.65928E-001	3.58010E+000	9	...........
	102	1.37333	9.68259E-001	1.00798E-004	0.00000E+000	9.75986E-005	5.99601E-002	9.68676E-001	3.58010E+000	9	...........
	103	1.38667	9.70949E-001	1.00856E-004	0.00000E+000	9.79264E-005	5.99601E-002	9.71381E-001	3.58010E+000	9	...........
	104	1.4	9.73675E-001	1.00813E-004	0.00000E+000	9.81587E-005	5.99601E-002	9.74041E-001	3.58010E+000	9	...........
	105	1.41333	9.76287E-001	1.01275E-004	0.00000E+000	9.88737E-005	5.99601E-002	9.76668E-001	3.58010E+000	9	...........
	106	1.42667	9.78879E-001	1.00942E-004	0.00000E+000	9.88098E-005	5.99601E-002	9.79245E-001	3.58010E+000	9	...........
	107	1.44	9.81422E-001	1.00596E-004	0.00000E+000	9.87270E-005	5.99601E-002	9.81782E-001	3.58010E+000	9	...........
	108	1.45333	9.83908E-001	1.01248E-004	0.00000E+000	9.96188E-005	5.99601E-002	9.84310E-001	3.58010E+000	9	...........
	109	1.46667	9.86406E-001	1.01497E-004	0.00000E+000	1.00117E-004	5.99601E-002	9.86794E-001	3.58010E+000	9	...........
	110	1.48	9.88843E-001	9.99239E-005	0.00000E+000	9.88090E-005	5.99601E-002	9.89225E-001	3.58010E+000	9	...........
	111	1.49333	9.91250E-001	1.01027E-004	0.00000E+000	1.00143E-004	5.99601E-002	9.91600E-001	3.58010E+000	9	...........
	112	1.50667	9.93591E-001	1.00569E-004	0.00000E+000	9.99243E-005	5.99601E-002	9.93999E-001	3.58010E+000	9	...........
	113	1.52	9.95958E-001	1.01130E-004	0.00000E+000	1.00722E-004	5.99601E-002	9.96350E-001	3.58010E+000	9	...........
	114	1.53333	9.98279E-001	1.01359E-004	0.00000E+000	1.01184E-004	5.99601E-002	9.98679E-001	3.58010E+000	9	...........
	115	1.53833	9.99836E-001	1.00812E-004	0.00000E+000	1.00795E-004	5.99601E-002	1.00024E+000	3.58010E+000	9	...........
STARTTIMEOFFSET	QUANT	6.221667	Start Time Offset (s)
