EXPLAIN
TAG	PWR800_CHARGE
TITLE	LABEL	PWR Cyclic Charge Discharge (Cell) - Charge Step	Test &Identifier
DATE	LABEL	13-7-2017	Date
TIME	LABEL	15:42:56	Time
NOTES	NOTES	2	&Notes...
	supercap test cell
	6M KOH
PSTAT	PSTAT	IFC5000-01520	Potentiostat
CAPACITY	QUANT	1.00000E-003	Capacity (A-hr)
CELLTYPE	SELECTOR	1	&Cell Type
WORKINGCONNECTION	SELECTOR	0	&Working Lead
MAXCHARGETIME	VARIABLEANDUNITS	1.00000E+002	s	1.00000E+002	second(s)	Max &Charge Time
CHARGECURRENT	QUANT	1.00000E-004	&Charge Current (A) 
VOLTAGEFINISH	TWOPARAM	F	1.00000E-003	3.60000E+003	&Voltage Finish	 I (A) < 	Max Time(s)
SAMPLETIME	QUANT	1.00000E-002	Sa&mple Period (s)
CHARGESTOPAT1	MULTIPARAM	4	1.00000E+000	Charge Stop At &1	Voltage > Limit	V
CHARGESTOPAT2	MULTIPARAM	0	0.00000E+000	Charge Stop At &2	None	N/A
AESBHCSELECTOR	TOGGLE	F	Save Both Half Cells
IRCOMP	TOGGLE	F	IR &Measure
EOC	QUANT	0	Open Circuit (V)
SEQUENCER	TOGGLE	TRUE	Run as Sequence
PSTATMODEL	IQUANT	53	Pstat Model
PSTATSECTION	LABEL	IFC5000-01520	Pstat Section
PSTATSERIALNO	LABEL	01520	Pstat Serial Number
CTRLMODE	IQUANT	0	Control Mode
ELECTROMETER	IQUANT	1	RE=0 or CS=1
IESTAB	IQUANT	0	I/E Stability
CASPEED	IQUANT	4	Control Amp Speed
CONVENTION	IQUANT	1	Current Convention
ICHRANGE	IQUANT	2	Ich Range
ICHRANGEMODE	TOGGLE	T	Ich Auto Range
ICHOFFSETENABLE	TOGGLE	F	Ich Offset Enable
ICHOFFSET	QUANT	0	Ich Offset (V)
ICHFILTER	IQUANT	1	Ich Filter
VCHRANGE	IQUANT	2	Vch Range
VCHRANGEMODE	TOGGLE	T	Vch Auto Range
VCHOFFSETENABLE	TOGGLE	F	Vch Offset Enable
VCHOFFSET	QUANT	0	Vch Offset (V)
VCHFILTER	IQUANT	1	Vch Filter
IERANGELOWERLIMIT	IQUANT	9	I/E Range Lower Limit
IERANGEMODE	TOGGLE	F	I/E AutoRange
IERANGE	IQUANT	9	I/E Range
ACHSELECT	IQUANT	1	Ach Select
ACHRANGE	IQUANT	2	Ach Range
ACHOFFSETENABLE	TOGGLE	F	Ach Offset Enable
ACHOFFSET	QUANT	0	Ach Offset (V)
ACHFILTER	IQUANT	1	Ach Filter
CABLEID	IQUANT	14	Cable ID
DCCALDATE	LABEL	5-7-2017	DC Calibration Date
ACCALDATE	LABEL	12/3/2015	AC Calibration Date
FRAMEWORKVERSION	QUANT	7.01	Framework Version
INSTRUMENTVERSION	LABEL	4.00	Instrument Version
CURVE	TABLE	90
	Pt	T	Vf	Im	Vu	Pwr	Sig	Ach	Temp	IERange	Over
	#	s	V	A	V	W	V	V	deg C	#	bits
	0	0.013333	1.32922E-001	9.95311E-005	0.00000E+000	1.32299E-005	5.99601E-002	1.32972E-001	3.57990E+000	9	...........
	1	0.026667	1.48224E-001	1.01119E-004	0.00000E+000	1.49883E-005	5.99601E-002	1.48244E-001	3.57990E+000	9	...........
	2	0.04	1.63072E-001	1.00696E-004	0.00000E+000	1.64207E-005	5.99601E-002	1.63096E-001	3.57990E+000	9	...........
	3	0.053333	1.77652E-001	1.00759E-004	0.00000E+000	1.79001E-005	5.99601E-002	1.77683E-001	3.57990E+000	9	...........
	4	0.066667	1.92047E-001	1.00373E-004	0.00000E+000	1.92763E-005	5.99601E-002	1.92076E-001	3.57990E+000	9	...........
	5	0.08	2.06294E-001	1.01223E-004	0.00000E+000	2.08817E-005	5.99601E-002	2.06327E-001	3.57990E+000	9	...........
	6	0.093333	2.20447E-001	1.01142E-004	0.00000E+000	2.22964E-005	5.99601E-002	2.20484E-001	3.57990E+000	9	...........
	7	0.106667	2.34527E-001	1.01555E-004	0.00000E+000	2.38175E-005	5.99601E-002	2.34563E-001	3.57990E+000	9	...........
	8	0.12	2.48555E-001	1.01533E-004	0.00000E+000	2.52364E-005	5.99601E-002	2.48599E-001	3.57990E+000	9	...........
	9	0.133333	2.62557E-001	1.00420E-004	0.00000E+000	2.63659E-005	5.99601E-002	2.62605E-001	3.57990E+000	9	...........
	10	0.146667	2.76551E-001	1.01196E-004	0.00000E+000	2.79859E-005	5.99601E-002	2.76608E-001	3.57990E+000	9	...........
	11	0.16	2.90550E-001	1.00926E-004	0.00000E+000	2.93241E-005	5.99601E-002	2.90602E-001	3.57990E+000	9	...........
	12	0.173333	3.04558E-001	1.00500E-004	0.00000E+000	3.06081E-005	5.99601E-002	3.04618E-001	3.57990E+000	9	...........
	13	0.186667	3.18591E-001	1.00474E-004	0.00000E+000	3.20101E-005	5.99601E-002	3.18656E-001	3.57990E+000	9	...........
	14	0.2	3.32646E-001	1.00169E-004	0.00000E+000	3.33207E-005	5.99601E-002	3.32708E-001	3.57990E+000	9	...........
	15	0.213333	3.46730E-001	1.01055E-004	0.00000E+000	3.50389E-005	5.99601E-002	3.46797E-001	3.57990E+000	9	...........
	16	0.226667	3.60838E-001	1.01851E-004	0.00000E+000	3.67519E-005	5.99601E-002	3.60906E-001	3.57990E+000	9	...........
	17	0.24	3.74959E-001	1.00134E-004	0.00000E+000	3.75463E-005	5.99601E-002	3.75028E-001	3.57990E+000	9	...........
	18	0.253333	3.89094E-001	1.00756E-004	0.00000E+000	3.92037E-005	5.99601E-002	3.89164E-001	3.57990E+000	9	...........
	19	0.266667	4.03224E-001	1.00996E-004	0.00000E+000	4.07240E-005	5.99601E-002	4.03301E-001	3.57990E+000	9	...........
	20	0.28	4.17334E-001	1.01035E-004	0.00000E+000	4.21652E-005	5.99601E-002	4.17414E-001	3.57990E+000	9	...........
	21	0.293333	4.31404E-001	1.01565E-004	0.00000E+000	4.38155E-005	5.99601E-002	4.31488E-001	3.57990E+000	9	...........
	22	0.306667	4.45408E-001	1.01484E-004	0.00000E+000	4.52016E-005	5.99601E-002	4.45502E-001	3.57990E+000	9	...........
	23	0.32	4.59333E-001	1.01095E-004	0.00000E+000	4.64362E-005	5.99601E-002	4.59424E-001	3.57990E+000	9	...........
	24	0.333333	4.73156E-001	1.00525E-004	0.00000E+000	4.75641E-005	5.99601E-002	4.73256E-001	3.57990E+000	9	...........
	25	0.346667	4.86852E-001	1.01027E-004	0.00000E+000	4.91853E-005	5.99601E-002	4.86954E-001	3.57990E+000	9	...........
	26	0.36	5.00395E-001	1.01135E-004	0.00000E+000	5.06072E-005	5.99601E-002	5.00499E-001	3.57984E+000	9	...........
	27	0.373333	5.13775E-001	1.00439E-004	0.00000E+000	5.16028E-005	5.99601E-002	5.13885E-001	3.57880E+000	9	...........
	28	0.386667	5.26980E-001	1.01041E-004	0.00000E+000	5.32464E-005	5.99601E-002	5.27087E-001	3.57880E+000	9	...........
	29	0.4	5.39663E-001	1.00922E-004	0.00000E+000	5.44639E-005	5.99601E-002	5.39862E-001	3.57880E+000	9	...........
	30	0.413333	5.52419E-001	1.01044E-004	0.00000E+000	5.58186E-005	5.99601E-002	5.52696E-001	3.57880E+000	9	...........
	31	0.426667	5.64995E-001	1.00813E-004	0.00000E+000	5.69586E-005	5.99601E-002	5.65266E-001	3.57880E+000	9	...........
	32	0.44	5.77332E-001	1.00991E-004	0.00000E+000	5.83052E-005	5.99601E-002	5.77638E-001	3.57880E+000	9	...........
	33	0.453333	5.89469E-001	1.01135E-004	0.00000E+000	5.96157E-005	5.99601E-002	5.89737E-001	3.57880E+000	9	...........
	34	0.466667	6.01339E-001	1.00582E-004	0.00000E+000	6.04840E-005	5.99601E-002	6.01646E-001	3.57880E+000	9	...........
	35	0.48	6.13008E-001	1.01053E-004	0.00000E+000	6.19465E-005	5.99601E-002	6.13326E-001	3.57880E+000	9	...........
	36	0.493333	6.24466E-001	1.01439E-004	0.00000E+000	6.33451E-005	5.99601E-002	6.24743E-001	3.57880E+000	9	...........
	37	0.506667	6.35641E-001	1.00888E-004	0.00000E+000	6.41283E-005	5.99601E-002	6.35941E-001	3.57880E+000	9	...........
	38	0.52	6.46637E-001	1.00666E-004	0.00000E+000	6.50941E-005	5.99601E-002	6.46929E-001	3.57880E+000	9	...........
	39	0.533333	6.57393E-001	1.01476E-004	0.00000E+000	6.67098E-005	5.99601E-002	6.57694E-001	3.57880E+000	9	...........
	40	0.546667	6.67963E-001	1.01403E-004	0.00000E+000	6.77337E-005	5.99601E-002	6.68243E-001	3.57880E+000	9	...........
	41	0.56	6.78292E-001	1.00482E-004	0.00000E+000	6.81564E-005	5.99601E-002	6.78584E-001	3.57880E+000	9	...........
	42	0.573333	6.88411E-001	1.01214E-004	0.00000E+000	6.96766E-005	5.99601E-002	6.88685E-001	3.57880E+000	9	...........
	43	0.586667	6.98336E-001	1.01637E-004	0.00000E+000	7.09766E-005	5.99601E-002	6.98599E-001	3.57880E+000	9	...........
	44	0.6	7.08039E-001	1.00649E-004	0.00000E+000	7.12635E-005	5.99601E-002	7.08329E-001	3.57880E+000	9	...........
	45	0.613333	7.17577E-001	1.01797E-004	0.00000E+000	7.30473E-005	5.99601E-002	7.17874E-001	3.57880E+000	9	...........
	46	0.626667	7.26948E-001	1.00972E-004	0.00000E+000	7.34014E-005	5.99601E-002	7.27226E-001	3.57880E+000	9	...........
	47	0.64	7.36078E-001	1.00862E-004	0.00000E+000	7.42420E-005	5.99601E-002	7.36355E-001	3.57880E+000	9	...........
	48	0.653333	7.45082E-001	1.01484E-004	0.00000E+000	7.56136E-005	5.99601E-002	7.45363E-001	3.57880E+000	9	...........
	49	0.666667	7.53875E-001	1.01367E-004	0.00000E+000	7.64180E-005	5.99601E-002	7.54160E-001	3.57880E+000	9	...........
	50	0.68	7.62511E-001	1.01349E-004	0.00000E+000	7.72798E-005	5.99601E-002	7.62794E-001	3.57880E+000	9	...........
	51	0.693333	7.70983E-001	1.00701E-004	0.00000E+000	7.76388E-005	5.99601E-002	7.71262E-001	3.57880E+000	9	...........
	52	0.706667	7.79263E-001	1.00831E-004	0.00000E+000	7.85742E-005	5.99601E-002	7.79562E-001	3.57880E+000	9	...........
	53	0.72	7.87412E-001	1.01342E-004	0.00000E+000	7.97979E-005	5.99601E-002	7.87680E-001	3.57880E+000	9	...........
	54	0.733333	7.95409E-001	1.02087E-004	0.00000E+000	8.12008E-005	5.99601E-002	7.95687E-001	3.57880E+000	9	...........
	55	0.746667	8.03243E-001	1.00660E-004	0.00000E+000	8.08549E-005	5.99601E-002	8.03513E-001	3.57880E+000	9	...........
	56	0.76	8.10900E-001	1.01219E-004	0.00000E+000	8.20784E-005	5.99601E-002	8.11207E-001	3.57880E+000	9	...........
	57	0.773333	8.18464E-001	1.00965E-004	0.00000E+000	8.26360E-005	5.99601E-002	8.18765E-001	3.57880E+000	9	...........
	58	0.786667	8.25867E-001	1.01188E-004	0.00000E+000	8.35675E-005	5.99601E-002	8.26186E-001	3.57880E+000	9	...........
	59	0.8	8.33114E-001	1.01236E-004	0.00000E+000	8.43408E-005	5.99601E-002	8.33478E-001	3.57880E+000	9	...........
	60	0.813333	8.40267E-001	9.98874E-005	0.00000E+000	8.39321E-005	5.99601E-002	8.40600E-001	3.57880E+000	9	...........
	61	0.826667	8.47303E-001	1.00434E-004	0.00000E+000	8.50984E-005	5.99601E-002	8.47616E-001	3.57880E+000	9	...........
	62	0.84	8.54172E-001	1.00946E-004	0.00000E+000	8.62252E-005	5.99601E-002	8.54516E-001	3.57880E+000	9	...........
	63	0.853333	8.60940E-001	9.99124E-005	0.00000E+000	8.60186E-005	5.99601E-002	8.61284E-001	3.57880E+000	9	...........
	64	0.866667	8.67582E-001	1.01344E-004	0.00000E+000	8.79242E-005	5.99601E-002	8.67931E-001	3.57880E+000	9	...........
	65	0.88	8.74129E-001	1.00683E-004	0.00000E+000	8.80103E-005	5.99601E-002	8.74471E-001	3.57880E+000	9	...........
	66	0.893333	8.80528E-001	1.00090E-004	0.00000E+000	8.81316E-005	5.99601E-002	8.80853E-001	3.57880E+000	9	...........
	67	0.906667	8.86817E-001	1.00369E-004	0.00000E+000	8.90087E-005	5.99601E-002	8.87151E-001	3.57880E+000	9	...........
	68	0.92	8.93011E-001	9.99374E-005	0.00000E+000	8.92453E-005	5.99601E-002	8.93332E-001	3.57880E+000	9	...........
	69	0.933333	8.99047E-001	1.01254E-004	0.00000E+000	9.10325E-005	5.99601E-002	8.99417E-001	3.57880E+000	9	...........
	70	0.946667	9.05023E-001	1.01249E-004	0.00000E+000	9.16328E-005	5.99601E-002	9.05368E-001	3.57880E+000	9	...........
	71	0.96	9.10884E-001	1.00632E-004	0.00000E+000	9.16644E-005	5.99601E-002	9.11222E-001	3.57880E+000	9	...........
	72	0.97333	9.16595E-001	1.00622E-004	0.00000E+000	9.22296E-005	5.99601E-002	9.16967E-001	3.57880E+000	9	...........
	73	0.98667	9.22277E-001	1.01136E-004	0.00000E+000	9.32750E-005	5.99601E-002	9.22605E-001	3.57880E+000	9	...........
	74	1	9.27818E-001	1.01231E-004	0.00000E+000	9.39244E-005	5.99601E-002	9.28137E-001	3.57880E+000	9	...........
	75	1.01333	9.33228E-001	1.00956E-004	0.00000E+000	9.42153E-005	5.99601E-002	9.33570E-001	3.57880E+000	9	...........
	76	1.02667	9.38538E-001	1.01169E-004	0.00000E+000	9.49509E-005	5.99601E-002	9.38895E-001	3.57880E+000	9	...........
	77	1.04	9.43768E-001	1.00710E-004	0.00000E+000	9.50473E-005	5.99601E-002	9.44113E-001	3.57880E+000	9	...........
	78	1.05333	9.48903E-001	1.00843E-004	0.00000E+000	9.56901E-005	5.99601E-002	9.49253E-001	3.57880E+000	9	...........
	79	1.06667	9.53890E-001	1.00982E-004	0.00000E+000	9.63261E-005	5.99601E-002	9.54256E-001	3.57880E+000	9	...........
	80	1.08	9.58808E-001	1.00334E-004	0.00000E+000	9.62014E-005	5.99601E-002	9.59165E-001	3.57880E+000	9	...........
	81	1.09333	9.63611E-001	1.00929E-004	0.00000E+000	9.72566E-005	5.99601E-002	9.63974E-001	3.57880E+000	9	...........
	82	1.10667	9.68337E-001	1.00410E-004	0.00000E+000	9.72311E-005	5.99601E-002	9.68703E-001	3.57880E+000	9	...........
	83	1.12	9.72971E-001	1.00895E-004	0.00000E+000	9.81678E-005	5.99601E-002	9.73353E-001	3.57880E+000	9	...........
	84	1.13333	9.77540E-001	1.01097E-004	0.00000E+000	9.88264E-005	5.99601E-002	9.77888E-001	3.57880E+000	9	...........
	85	1.14667	9.81956E-001	1.01181E-004	0.00000E+000	9.93557E-005	5.99601E-002	9.82306E-001	3.57880E+000	9	...........
	86	1.16	9.86282E-001	1.00912E-004	0.00000E+000	9.95273E-005	5.99601E-002	9.86675E-001	3.57880E+000	9	...........
	87	1.17333	9.90565E-001	1.01166E-004	0.00000E+000	1.00211E-004	5.99601E-002	9.90940E-001	3.57880E+000	9	...........
	88	1.18667	9.94698E-001	1.00498E-004	0.00000E+000	9.99651E-005	5.99601E-002	9.95094E-001	3.57880E+000	9	...........
	89	1.19833	9.98544E-001	1.00591E-004	0.00000E+000	1.00444E-004	5.99601E-002	9.98916E-001	3.57880E+000	9	...........
STARTTIMEOFFSET	QUANT	1849.605	Start Time Offset (s)
