EXPLAIN
TAG	PWR800_CHARGE
TITLE	LABEL	PWR Cyclic Charge Discharge (Cell) - Charge Step	Test &Identifier
DATE	LABEL	13-7-2017	Date
TIME	LABEL	15:45:51	Time
NOTES	NOTES	2	&Notes...
	supercap test cell
	6M KOH
PSTAT	PSTAT	IFC5000-01520	Potentiostat
CAPACITY	QUANT	1.00000E-003	Capacity (A-hr)
CELLTYPE	SELECTOR	1	&Cell Type
WORKINGCONNECTION	SELECTOR	0	&Working Lead
MAXCHARGETIME	VARIABLEANDUNITS	1.00000E+002	s	1.00000E+002	second(s)	Max &Charge Time
CHARGECURRENT	QUANT	1.00000E-004	&Charge Current (A) 
VOLTAGEFINISH	TWOPARAM	F	1.00000E-003	3.60000E+003	&Voltage Finish	 I (A) < 	Max Time(s)
SAMPLETIME	QUANT	1.00000E-002	Sa&mple Period (s)
CHARGESTOPAT1	MULTIPARAM	4	1.00000E+000	Charge Stop At &1	Voltage > Limit	V
CHARGESTOPAT2	MULTIPARAM	0	0.00000E+000	Charge Stop At &2	None	N/A
AESBHCSELECTOR	TOGGLE	F	Save Both Half Cells
IRCOMP	TOGGLE	F	IR &Measure
EOC	QUANT	0	Open Circuit (V)
SEQUENCER	TOGGLE	TRUE	Run as Sequence
PSTATMODEL	IQUANT	53	Pstat Model
PSTATSECTION	LABEL	IFC5000-01520	Pstat Section
PSTATSERIALNO	LABEL	01520	Pstat Serial Number
CTRLMODE	IQUANT	0	Control Mode
ELECTROMETER	IQUANT	1	RE=0 or CS=1
IESTAB	IQUANT	0	I/E Stability
CASPEED	IQUANT	4	Control Amp Speed
CONVENTION	IQUANT	1	Current Convention
ICHRANGE	IQUANT	2	Ich Range
ICHRANGEMODE	TOGGLE	T	Ich Auto Range
ICHOFFSETENABLE	TOGGLE	F	Ich Offset Enable
ICHOFFSET	QUANT	0	Ich Offset (V)
ICHFILTER	IQUANT	1	Ich Filter
VCHRANGE	IQUANT	2	Vch Range
VCHRANGEMODE	TOGGLE	T	Vch Auto Range
VCHOFFSETENABLE	TOGGLE	F	Vch Offset Enable
VCHOFFSET	QUANT	0	Vch Offset (V)
VCHFILTER	IQUANT	1	Vch Filter
IERANGELOWERLIMIT	IQUANT	9	I/E Range Lower Limit
IERANGEMODE	TOGGLE	F	I/E AutoRange
IERANGE	IQUANT	9	I/E Range
ACHSELECT	IQUANT	1	Ach Select
ACHRANGE	IQUANT	2	Ach Range
ACHOFFSETENABLE	TOGGLE	F	Ach Offset Enable
ACHOFFSET	QUANT	0	Ach Offset (V)
ACHFILTER	IQUANT	1	Ach Filter
CABLEID	IQUANT	14	Cable ID
DCCALDATE	LABEL	5-7-2017	DC Calibration Date
ACCALDATE	LABEL	12/3/2015	AC Calibration Date
FRAMEWORKVERSION	QUANT	7.01	Framework Version
INSTRUMENTVERSION	LABEL	4.00	Instrument Version
CURVE	TABLE	90
	Pt	T	Vf	Im	Vu	Pwr	Sig	Ach	Temp	IERange	Over
	#	s	V	A	V	W	V	V	deg C	#	bits
	0	0.013333	1.33200E-001	1.00707E-004	0.00000E+000	1.34142E-005	5.99601E-002	1.33237E-001	3.58000E+000	9	...........
	1	0.026667	1.48517E-001	1.00820E-004	0.00000E+000	1.49734E-005	5.99601E-002	1.48535E-001	3.58000E+000	9	...........
	2	0.04	1.63396E-001	1.00377E-004	0.00000E+000	1.64012E-005	5.99601E-002	1.63418E-001	3.58000E+000	9	...........
	3	0.053333	1.77998E-001	1.00068E-004	0.00000E+000	1.78118E-005	5.99601E-002	1.78029E-001	3.58000E+000	9	...........
	4	0.066667	1.92418E-001	1.00871E-004	0.00000E+000	1.94094E-005	5.99601E-002	1.92445E-001	3.58000E+000	9	...........
	5	0.08	2.06690E-001	9.95446E-005	0.00000E+000	2.05749E-005	5.99601E-002	2.06721E-001	3.58000E+000	9	...........
	6	0.093333	2.20857E-001	1.01082E-004	0.00000E+000	2.23248E-005	5.99601E-002	2.20893E-001	3.58000E+000	9	...........
	7	0.106667	2.34962E-001	1.01781E-004	0.00000E+000	2.39146E-005	5.99601E-002	2.35006E-001	3.58000E+000	9	...........
	8	0.12	2.49022E-001	1.01103E-004	0.00000E+000	2.51769E-005	5.99601E-002	2.49066E-001	3.57913E+000	9	...........
	9	0.133333	2.63058E-001	1.01315E-004	0.00000E+000	2.66516E-005	5.99601E-002	2.63106E-001	3.57900E+000	9	...........
	10	0.146667	2.77083E-001	1.00119E-004	0.00000E+000	2.77411E-005	5.99601E-002	2.77134E-001	3.57900E+000	9	...........
	11	0.16	2.91113E-001	1.01775E-004	0.00000E+000	2.96281E-005	5.99601E-002	2.91160E-001	3.57900E+000	9	...........
	12	0.173333	3.05151E-001	1.01033E-004	0.00000E+000	3.08305E-005	5.99601E-002	3.05211E-001	3.57900E+000	9	...........
	13	0.186667	3.19213E-001	1.00598E-004	0.00000E+000	3.21122E-005	5.99601E-002	3.19275E-001	3.57900E+000	9	...........
	14	0.2	3.33305E-001	1.01806E-004	0.00000E+000	3.39323E-005	5.99601E-002	3.33362E-001	3.57900E+000	9	...........
	15	0.213333	3.47423E-001	1.00799E-004	0.00000E+000	3.50199E-005	5.99601E-002	3.47482E-001	3.57900E+000	9	...........
	16	0.226667	3.61570E-001	1.01104E-004	0.00000E+000	3.65563E-005	5.99601E-002	3.61630E-001	3.57900E+000	9	...........
	17	0.24	3.75729E-001	9.98478E-005	0.00000E+000	3.75157E-005	5.99601E-002	3.75795E-001	3.57900E+000	9	...........
	18	0.253333	3.89903E-001	1.00683E-004	0.00000E+000	3.92567E-005	5.99601E-002	3.89972E-001	3.57900E+000	9	...........
	19	0.266667	4.04068E-001	1.00451E-004	0.00000E+000	4.05890E-005	5.99601E-002	4.04139E-001	3.57900E+000	9	...........
	20	0.28	4.18205E-001	1.01476E-004	0.00000E+000	4.24379E-005	5.99601E-002	4.18290E-001	3.57900E+000	9	...........
	21	0.293333	4.32308E-001	1.01778E-004	0.00000E+000	4.39997E-005	5.99601E-002	4.32395E-001	3.57900E+000	9	...........
	22	0.306667	4.46353E-001	1.00063E-004	0.00000E+000	4.46636E-005	5.99601E-002	4.46437E-001	3.57900E+000	9	...........
	23	0.32	4.60314E-001	1.01404E-004	0.00000E+000	4.66779E-005	5.99601E-002	4.60404E-001	3.57900E+000	9	...........
	24	0.333333	4.74168E-001	1.01161E-004	0.00000E+000	4.79671E-005	5.99601E-002	4.74265E-001	3.57900E+000	9	...........
	25	0.346667	4.87902E-001	1.00254E-004	0.00000E+000	4.89142E-005	5.99601E-002	4.87998E-001	3.57900E+000	9	...........
	26	0.36	5.01477E-001	1.00612E-004	0.00000E+000	5.04543E-005	5.99601E-002	5.01580E-001	3.57900E+000	9	...........
	27	0.373333	5.14886E-001	1.00532E-004	0.00000E+000	5.17627E-005	5.99601E-002	5.14996E-001	3.57900E+000	9	...........
	28	0.386667	5.28122E-001	1.01772E-004	0.00000E+000	5.37482E-005	5.99601E-002	5.28226E-001	3.57900E+000	9	...........
	29	0.4	5.40780E-001	1.01448E-004	0.00000E+000	5.48611E-005	5.99601E-002	5.41044E-001	3.57900E+000	9	...........
	30	0.413333	5.53614E-001	1.01175E-004	0.00000E+000	5.60119E-005	5.99601E-002	5.53861E-001	3.57900E+000	9	...........
	31	0.426667	5.66232E-001	1.01045E-004	0.00000E+000	5.72149E-005	5.99601E-002	5.66499E-001	3.57900E+000	9	...........
	32	0.44	5.78605E-001	1.00747E-004	0.00000E+000	5.82927E-005	5.99601E-002	5.78885E-001	3.57900E+000	9	...........
	33	0.453333	5.90756E-001	1.01006E-004	0.00000E+000	5.96701E-005	5.99601E-002	5.91017E-001	3.57900E+000	9	...........
	34	0.466667	6.02660E-001	1.00016E-004	0.00000E+000	6.02754E-005	5.99601E-002	6.02918E-001	3.57900E+000	9	...........
	35	0.48	6.14368E-001	1.01099E-004	0.00000E+000	6.21121E-005	5.99601E-002	6.14625E-001	3.57900E+000	9	...........
	36	0.493333	6.25844E-001	1.01504E-004	0.00000E+000	6.35259E-005	5.99601E-002	6.26073E-001	3.57900E+000	9	...........
	37	0.506667	6.37042E-001	1.01137E-004	0.00000E+000	6.44283E-005	5.99601E-002	6.37298E-001	3.57900E+000	9	...........
	38	0.52	6.48071E-001	1.01383E-004	0.00000E+000	6.57031E-005	5.99601E-002	6.48313E-001	3.57900E+000	9	...........
	39	0.533333	6.58837E-001	1.00829E-004	0.00000E+000	6.64301E-005	5.99601E-002	6.59073E-001	3.57900E+000	9	...........
	40	0.546667	6.69429E-001	1.00610E-004	0.00000E+000	6.73516E-005	5.99601E-002	6.69668E-001	3.57900E+000	9	...........
	41	0.56	6.79751E-001	1.01104E-004	0.00000E+000	6.87258E-005	5.99601E-002	6.80019E-001	3.57900E+000	9	...........
	42	0.573333	6.89901E-001	1.00907E-004	0.00000E+000	6.96162E-005	5.99601E-002	6.90159E-001	3.57900E+000	9	...........
	43	0.586667	6.99839E-001	1.00778E-004	0.00000E+000	7.05285E-005	5.99601E-002	7.00120E-001	3.57900E+000	9	...........
	44	0.6	7.09536E-001	1.00571E-004	0.00000E+000	7.13587E-005	5.99601E-002	7.09843E-001	3.57900E+000	9	...........
	45	0.613333	7.19128E-001	1.00980E-004	0.00000E+000	7.26178E-005	5.99601E-002	7.19409E-001	3.57900E+000	9	...........
	46	0.626667	7.28467E-001	1.01177E-004	0.00000E+000	7.37043E-005	5.99601E-002	7.28760E-001	3.57900E+000	9	...........
	47	0.64	7.37623E-001	1.00856E-004	0.00000E+000	7.43939E-005	5.99601E-002	7.37914E-001	3.57900E+000	9	...........
	48	0.653333	7.46635E-001	1.01167E-004	0.00000E+000	7.55347E-005	5.99601E-002	7.46922E-001	3.57900E+000	9	...........
	49	0.666667	7.55473E-001	1.00346E-004	0.00000E+000	7.58086E-005	5.99601E-002	7.55742E-001	3.57900E+000	9	...........
	50	0.68	7.64078E-001	1.01297E-004	0.00000E+000	7.73988E-005	5.99601E-002	7.64369E-001	3.57900E+000	9	...........
	51	0.693333	7.72573E-001	1.01206E-004	0.00000E+000	7.81894E-005	5.99601E-002	7.72875E-001	3.57900E+000	9	...........
	52	0.706667	7.80871E-001	1.01325E-004	0.00000E+000	7.91219E-005	5.99601E-002	7.81180E-001	3.57900E+000	9	...........
	53	0.72	7.88999E-001	1.00856E-004	0.00000E+000	7.95756E-005	5.99601E-002	7.89320E-001	3.57900E+000	9	...........
	54	0.733333	7.97052E-001	1.00539E-004	0.00000E+000	8.01345E-005	5.99601E-002	7.97323E-001	3.57900E+000	9	...........
	55	0.746667	8.04894E-001	1.01006E-004	0.00000E+000	8.12994E-005	5.99601E-002	8.05161E-001	3.57900E+000	9	...........
	56	0.76	8.12562E-001	1.01066E-004	0.00000E+000	8.21222E-005	5.99601E-002	8.12858E-001	3.57900E+000	9	...........
	57	0.773333	8.20142E-001	1.01640E-004	0.00000E+000	8.33591E-005	5.99601E-002	8.20443E-001	3.57900E+000	9	...........
	58	0.786667	8.27559E-001	1.01325E-004	0.00000E+000	8.38525E-005	5.99601E-002	8.27846E-001	3.57900E+000	9	...........
	59	0.8	8.34824E-001	1.00947E-004	0.00000E+000	8.42729E-005	5.99601E-002	8.35147E-001	3.57900E+000	9	...........
	60	0.813333	8.41965E-001	1.01090E-004	0.00000E+000	8.51140E-005	5.99601E-002	8.42283E-001	3.57900E+000	9	...........
	61	0.826667	8.48996E-001	1.00831E-004	0.00000E+000	8.56055E-005	5.99601E-002	8.49343E-001	3.57900E+000	9	...........
	62	0.84	8.55865E-001	1.01668E-004	0.00000E+000	8.70141E-005	5.99601E-002	8.56224E-001	3.57900E+000	9	...........
	63	0.853333	8.62649E-001	1.01269E-004	0.00000E+000	8.73595E-005	5.99601E-002	8.63002E-001	3.57900E+000	9	...........
	64	0.866667	8.69303E-001	1.00798E-004	0.00000E+000	8.76240E-005	5.99601E-002	8.69654E-001	3.57900E+000	9	...........
	65	0.88	8.75839E-001	1.00521E-004	0.00000E+000	8.80401E-005	5.99601E-002	8.76213E-001	3.57900E+000	9	...........
	66	0.893333	8.82257E-001	1.00985E-004	0.00000E+000	8.90943E-005	5.99601E-002	8.82618E-001	3.57900E+000	9	...........
	67	0.906667	8.88542E-001	1.00932E-004	0.00000E+000	8.96827E-005	5.99601E-002	8.88897E-001	3.57900E+000	9	...........
	68	0.92	8.94725E-001	1.00731E-004	0.00000E+000	9.01268E-005	5.99601E-002	8.95093E-001	3.57900E+000	9	...........
	69	0.933333	9.00798E-001	1.01348E-004	0.00000E+000	9.12942E-005	5.99601E-002	9.01153E-001	3.57900E+000	9	...........
	70	0.946667	9.06737E-001	1.01066E-004	0.00000E+000	9.16400E-005	5.99601E-002	9.07089E-001	3.57900E+000	9	...........
	71	0.96	9.12591E-001	1.01352E-004	0.00000E+000	9.24932E-005	5.99601E-002	9.12945E-001	3.57900E+000	9	...........
	72	0.97333	9.18333E-001	1.00832E-004	0.00000E+000	9.25977E-005	5.99601E-002	9.18689E-001	3.57900E+000	9	...........
	73	0.98667	9.24022E-001	1.00502E-004	0.00000E+000	9.28661E-005	5.99601E-002	9.24355E-001	3.57900E+000	9	...........
	74	1	9.29549E-001	1.01831E-004	0.00000E+000	9.46564E-005	5.99601E-002	9.29880E-001	3.57900E+000	9	...........
	75	1.01333	9.34964E-001	1.00793E-004	0.00000E+000	9.42377E-005	5.99601E-002	9.35325E-001	3.57900E+000	9	...........
	76	1.02667	9.40278E-001	1.00529E-004	0.00000E+000	9.45254E-005	5.99601E-002	9.40639E-001	3.57900E+000	9	...........
	77	1.04	9.45503E-001	1.00923E-004	0.00000E+000	9.54231E-005	5.99601E-002	9.45850E-001	3.57900E+000	9	...........
	78	1.05333	9.50645E-001	1.01063E-004	0.00000E+000	9.60747E-005	5.99601E-002	9.51013E-001	3.57900E+000	9	...........
	79	1.06667	9.55658E-001	1.00761E-004	0.00000E+000	9.62926E-005	5.99601E-002	9.56010E-001	3.57900E+000	9	...........
	80	1.08	9.60548E-001	1.01032E-004	0.00000E+000	9.70465E-005	5.99601E-002	9.60948E-001	3.57900E+000	9	...........
	81	1.09333	9.65363E-001	1.01567E-004	0.00000E+000	9.80490E-005	5.99601E-002	9.65751E-001	3.57900E+000	9	...........
	82	1.10667	9.70077E-001	1.01351E-004	0.00000E+000	9.83186E-005	5.99601E-002	9.70440E-001	3.57900E+000	9	...........
	83	1.12	9.74752E-001	1.00721E-004	0.00000E+000	9.81779E-005	5.99601E-002	9.75058E-001	3.57900E+000	9	...........
	84	1.13333	9.79255E-001	1.00924E-004	0.00000E+000	9.88304E-005	5.99601E-002	9.79583E-001	3.57900E+000	9	...........
	85	1.14667	9.83680E-001	1.00102E-004	0.00000E+000	9.84684E-005	5.99601E-002	9.83994E-001	3.57900E+000	9	...........
	86	1.16	9.88020E-001	1.00851E-004	0.00000E+000	9.96430E-005	5.99601E-002	9.88357E-001	3.57900E+000	9	...........
	87	1.17333	9.92248E-001	1.00138E-004	0.00000E+000	9.93622E-005	5.99601E-002	9.92586E-001	3.57900E+000	9	...........
	88	1.18667	9.96403E-001	1.01501E-004	0.00000E+000	1.01136E-004	5.99601E-002	9.96749E-001	3.57900E+000	9	...........
	89	1.19333	9.99476E-001	1.01404E-004	0.00000E+000	1.01351E-004	5.99601E-002	9.99815E-001	3.57900E+000	9	...........
STARTTIMEOFFSET	QUANT	1980.531	Start Time Offset (s)
