EXPLAIN
TAG	PWR800_CHARGE
TITLE	LABEL	PWR Cyclic Charge Discharge (Cell) - Charge Step	Test &Identifier
DATE	LABEL	13-7-2017	Date
TIME	LABEL	15:29:12	Time
NOTES	NOTES	2	&Notes...
	supercap test cell
	6M KOH
PSTAT	PSTAT	IFC5000-01520	Potentiostat
CAPACITY	QUANT	1.00000E-003	Capacity (A-hr)
CELLTYPE	SELECTOR	1	&Cell Type
WORKINGCONNECTION	SELECTOR	0	&Working Lead
MAXCHARGETIME	VARIABLEANDUNITS	1.00000E+002	s	1.00000E+002	second(s)	Max &Charge Time
CHARGECURRENT	QUANT	1.00000E-004	&Charge Current (A) 
VOLTAGEFINISH	TWOPARAM	F	1.00000E-003	3.60000E+003	&Voltage Finish	 I (A) < 	Max Time(s)
SAMPLETIME	QUANT	1.00000E-002	Sa&mple Period (s)
CHARGESTOPAT1	MULTIPARAM	4	1.00000E+000	Charge Stop At &1	Voltage > Limit	V
CHARGESTOPAT2	MULTIPARAM	0	0.00000E+000	Charge Stop At &2	None	N/A
AESBHCSELECTOR	TOGGLE	F	Save Both Half Cells
IRCOMP	TOGGLE	F	IR &Measure
EOC	QUANT	0	Open Circuit (V)
SEQUENCER	TOGGLE	TRUE	Run as Sequence
PSTATMODEL	IQUANT	53	Pstat Model
PSTATSECTION	LABEL	IFC5000-01520	Pstat Section
PSTATSERIALNO	LABEL	01520	Pstat Serial Number
CTRLMODE	IQUANT	0	Control Mode
ELECTROMETER	IQUANT	1	RE=0 or CS=1
IESTAB	IQUANT	0	I/E Stability
CASPEED	IQUANT	4	Control Amp Speed
CONVENTION	IQUANT	1	Current Convention
ICHRANGE	IQUANT	2	Ich Range
ICHRANGEMODE	TOGGLE	T	Ich Auto Range
ICHOFFSETENABLE	TOGGLE	F	Ich Offset Enable
ICHOFFSET	QUANT	0	Ich Offset (V)
ICHFILTER	IQUANT	1	Ich Filter
VCHRANGE	IQUANT	2	Vch Range
VCHRANGEMODE	TOGGLE	T	Vch Auto Range
VCHOFFSETENABLE	TOGGLE	F	Vch Offset Enable
VCHOFFSET	QUANT	0	Vch Offset (V)
VCHFILTER	IQUANT	1	Vch Filter
IERANGELOWERLIMIT	IQUANT	9	I/E Range Lower Limit
IERANGEMODE	TOGGLE	F	I/E AutoRange
IERANGE	IQUANT	9	I/E Range
ACHSELECT	IQUANT	1	Ach Select
ACHRANGE	IQUANT	2	Ach Range
ACHOFFSETENABLE	TOGGLE	F	Ach Offset Enable
ACHOFFSET	QUANT	0	Ach Offset (V)
ACHFILTER	IQUANT	1	Ach Filter
CABLEID	IQUANT	14	Cable ID
DCCALDATE	LABEL	5-7-2017	DC Calibration Date
ACCALDATE	LABEL	12/3/2015	AC Calibration Date
FRAMEWORKVERSION	QUANT	7.01	Framework Version
INSTRUMENTVERSION	LABEL	4.00	Instrument Version
CURVE	TABLE	92
	Pt	T	Vf	Im	Vu	Pwr	Sig	Ach	Temp	IERange	Over
	#	s	V	A	V	W	V	V	deg C	#	bits
	0	0.013333	1.33801E-001	1.01599E-004	0.00000E+000	1.35941E-005	5.99601E-002	1.33846E-001	3.57990E+000	9	...........
	1	0.026667	1.49076E-001	1.01189E-004	0.00000E+000	1.50848E-005	5.99601E-002	1.49089E-001	3.57990E+000	9	...........
	2	0.04	1.63901E-001	1.00541E-004	0.00000E+000	1.64787E-005	5.99601E-002	1.63927E-001	3.57990E+000	9	...........
	3	0.053333	1.78464E-001	1.00842E-004	0.00000E+000	1.79966E-005	5.99601E-002	1.78491E-001	3.57990E+000	9	...........
	4	0.066667	1.92838E-001	1.01488E-004	0.00000E+000	1.95707E-005	5.99601E-002	1.92865E-001	3.57990E+000	9	...........
	5	0.08	2.07059E-001	1.01491E-004	0.00000E+000	2.10146E-005	5.99601E-002	2.07095E-001	3.57990E+000	9	...........
	6	0.093333	2.21180E-001	1.00316E-004	0.00000E+000	2.21878E-005	5.99601E-002	2.21219E-001	3.57990E+000	9	...........
	7	0.106667	2.35236E-001	1.00547E-004	0.00000E+000	2.36523E-005	5.99601E-002	2.35279E-001	3.57990E+000	9	...........
	8	0.12	2.49243E-001	1.01285E-004	0.00000E+000	2.52445E-005	5.99601E-002	2.49291E-001	3.57990E+000	9	...........
	9	0.133333	2.63221E-001	1.00486E-004	0.00000E+000	2.64502E-005	5.99601E-002	2.63270E-001	3.57990E+000	9	...........
	10	0.146667	2.77188E-001	1.00368E-004	0.00000E+000	2.78207E-005	5.99601E-002	2.77243E-001	3.57902E+000	9	...........
	11	0.16	2.91154E-001	1.00509E-004	0.00000E+000	2.92637E-005	5.99601E-002	2.91209E-001	3.57890E+000	9	...........
	12	0.173333	3.05129E-001	1.00048E-004	0.00000E+000	3.05275E-005	5.99601E-002	3.05187E-001	3.57890E+000	9	...........
	13	0.186667	3.19123E-001	1.01126E-004	0.00000E+000	3.22717E-005	5.99601E-002	3.19182E-001	3.57890E+000	9	...........
	14	0.2	3.33120E-001	1.00708E-004	0.00000E+000	3.35480E-005	5.99601E-002	3.33182E-001	3.57890E+000	9	...........
	15	0.213333	3.47149E-001	1.00866E-004	0.00000E+000	3.50154E-005	5.99601E-002	3.47207E-001	3.57890E+000	9	...........
	16	0.226667	3.61182E-001	1.01378E-004	0.00000E+000	3.66161E-005	5.99601E-002	3.61254E-001	3.57890E+000	9	...........
	17	0.24	3.75232E-001	1.00022E-004	0.00000E+000	3.75314E-005	5.99601E-002	3.75294E-001	3.57890E+000	9	...........
	18	0.253333	3.89266E-001	1.00692E-004	0.00000E+000	3.91959E-005	5.99601E-002	3.89338E-001	3.57890E+000	9	...........
	19	0.266667	4.03288E-001	1.01626E-004	0.00000E+000	4.09847E-005	5.99601E-002	4.03367E-001	3.57890E+000	9	...........
	20	0.28	4.17276E-001	1.01062E-004	0.00000E+000	4.21706E-005	5.99601E-002	4.17362E-001	3.57890E+000	9	...........
	21	0.293333	4.31214E-001	1.01214E-004	0.00000E+000	4.36448E-005	5.99601E-002	4.31301E-001	3.57890E+000	9	...........
	22	0.306667	4.45077E-001	1.01092E-004	0.00000E+000	4.49936E-005	5.99601E-002	4.45166E-001	3.57890E+000	9	...........
	23	0.32	4.58841E-001	1.01604E-004	0.00000E+000	4.66203E-005	5.99601E-002	4.58938E-001	3.57890E+000	9	...........
	24	0.333333	4.72492E-001	1.00847E-004	0.00000E+000	4.76494E-005	5.99601E-002	4.72584E-001	3.57890E+000	9	...........
	25	0.346667	4.85999E-001	1.00919E-004	0.00000E+000	4.90465E-005	5.99601E-002	4.86099E-001	3.57890E+000	9	...........
	26	0.36	4.99356E-001	1.00395E-004	0.00000E+000	5.01327E-005	5.99601E-002	4.99455E-001	3.57890E+000	9	...........
	27	0.373333	5.12540E-001	1.01377E-004	0.00000E+000	5.19600E-005	5.99601E-002	5.12650E-001	3.57890E+000	9	...........
	28	0.386667	5.25541E-001	1.01191E-004	0.00000E+000	5.31799E-005	5.99601E-002	5.25644E-001	3.57890E+000	9	...........
	29	0.4	5.38074E-001	1.00734E-004	0.00000E+000	5.42026E-005	5.99601E-002	5.38244E-001	3.57890E+000	9	...........
	30	0.413333	5.50571E-001	1.01672E-004	0.00000E+000	5.59778E-005	5.99601E-002	5.50804E-001	3.57890E+000	9	...........
	31	0.426667	5.62937E-001	1.00312E-004	0.00000E+000	5.64696E-005	5.99601E-002	5.63188E-001	3.57890E+000	9	...........
	32	0.44	5.75084E-001	1.00316E-004	0.00000E+000	5.76899E-005	5.99601E-002	5.75327E-001	3.57890E+000	9	...........
	33	0.453333	5.86977E-001	1.00372E-004	0.00000E+000	5.89160E-005	5.99601E-002	5.87262E-001	3.57890E+000	9	...........
	34	0.466667	5.98683E-001	1.00562E-004	0.00000E+000	6.02044E-005	5.99601E-002	5.98942E-001	3.57890E+000	9	...........
	35	0.48	6.10137E-001	1.01330E-004	0.00000E+000	6.18254E-005	5.99601E-002	6.10416E-001	3.57890E+000	9	...........
	36	0.493333	6.21427E-001	1.01098E-004	0.00000E+000	6.28251E-005	5.99601E-002	6.21666E-001	3.57890E+000	9	...........
	37	0.506667	6.32426E-001	1.01273E-004	0.00000E+000	6.40478E-005	5.99601E-002	6.32673E-001	3.57890E+000	9	...........
	38	0.52	6.43220E-001	1.00570E-004	0.00000E+000	6.46886E-005	5.99601E-002	6.43503E-001	3.57890E+000	9	...........
	39	0.533333	6.53808E-001	1.01399E-004	0.00000E+000	6.62956E-005	5.99601E-002	6.54064E-001	3.57890E+000	9	...........
	40	0.546667	6.64174E-001	9.97863E-005	0.00000E+000	6.62755E-005	5.99601E-002	6.64430E-001	3.57890E+000	9	...........
	41	0.56	6.74346E-001	1.00866E-004	0.00000E+000	6.80184E-005	5.99601E-002	6.74615E-001	3.57890E+000	9	...........
	42	0.573333	6.84273E-001	1.01310E-004	0.00000E+000	6.93234E-005	5.99601E-002	6.84565E-001	3.57890E+000	9	...........
	43	0.586667	6.94037E-001	1.00953E-004	0.00000E+000	7.00653E-005	5.99601E-002	6.94325E-001	3.57890E+000	9	...........
	44	0.6	7.03611E-001	1.01375E-004	0.00000E+000	7.13288E-005	5.99601E-002	7.03908E-001	3.57890E+000	9	...........
	45	0.613333	7.12971E-001	1.00194E-004	0.00000E+000	7.14352E-005	5.99601E-002	7.13283E-001	3.57890E+000	9	...........
	46	0.626667	7.22211E-001	1.00737E-004	0.00000E+000	7.27530E-005	5.99601E-002	7.22486E-001	3.57890E+000	9	...........
	47	0.64	7.31198E-001	1.00682E-004	0.00000E+000	7.36187E-005	5.99601E-002	7.31508E-001	3.57890E+000	9	...........
	48	0.653333	7.40035E-001	1.00839E-004	0.00000E+000	7.46241E-005	5.99601E-002	7.40338E-001	3.57890E+000	9	...........
	49	0.666667	7.48707E-001	1.01278E-004	0.00000E+000	7.58278E-005	5.99601E-002	7.49019E-001	3.57890E+000	9	...........
	50	0.68	7.57215E-001	1.00907E-004	0.00000E+000	7.64086E-005	5.99601E-002	7.57505E-001	3.57890E+000	9	...........
	51	0.693333	7.65536E-001	1.00981E-004	0.00000E+000	7.73048E-005	5.99601E-002	7.65836E-001	3.57890E+000	9	...........
	52	0.706667	7.73730E-001	1.00453E-004	0.00000E+000	7.77236E-005	5.99601E-002	7.74024E-001	3.57890E+000	9	...........
	53	0.72	7.81734E-001	1.01079E-004	0.00000E+000	7.90172E-005	5.99601E-002	7.82022E-001	3.57890E+000	9	...........
	54	0.733333	7.89615E-001	1.00915E-004	0.00000E+000	7.96837E-005	5.99601E-002	7.89902E-001	3.57890E+000	9	...........
	55	0.746667	7.97354E-001	1.00840E-004	0.00000E+000	8.04049E-005	5.99601E-002	7.97637E-001	3.57890E+000	9	...........
	56	0.76	8.04944E-001	1.00624E-004	0.00000E+000	8.09967E-005	5.99601E-002	8.05213E-001	3.57890E+000	9	...........
	57	0.773333	8.12359E-001	1.00689E-004	0.00000E+000	8.17953E-005	5.99601E-002	8.12650E-001	3.57890E+000	9	...........
	58	0.786667	8.19688E-001	1.00730E-004	0.00000E+000	8.25674E-005	5.99601E-002	8.19988E-001	3.57890E+000	9	...........
	59	0.8	8.26863E-001	1.01519E-004	0.00000E+000	8.39423E-005	5.99601E-002	8.27181E-001	3.57890E+000	9	...........
	60	0.813333	8.33900E-001	1.01611E-004	0.00000E+000	8.47331E-005	5.99601E-002	8.34227E-001	3.57890E+000	9	...........
	61	0.826667	8.40831E-001	1.00915E-004	0.00000E+000	8.48522E-005	5.99601E-002	8.41141E-001	3.57890E+000	9	...........
	62	0.84	8.47648E-001	1.00355E-004	0.00000E+000	8.50659E-005	5.99601E-002	8.47987E-001	3.57890E+000	9	...........
	63	0.853333	8.54332E-001	1.00363E-004	0.00000E+000	8.57429E-005	5.99601E-002	8.54638E-001	3.57890E+000	9	...........
	64	0.866667	8.60895E-001	1.00683E-004	0.00000E+000	8.66778E-005	5.99601E-002	8.61221E-001	3.57890E+000	9	...........
	65	0.88	8.67341E-001	1.01003E-004	0.00000E+000	8.76042E-005	5.99601E-002	8.67678E-001	3.57890E+000	9	...........
	66	0.893333	8.73704E-001	1.00588E-004	0.00000E+000	8.78838E-005	5.99601E-002	8.74014E-001	3.57890E+000	9	...........
	67	0.906667	8.79942E-001	1.01135E-004	0.00000E+000	8.89925E-005	5.99601E-002	8.80253E-001	3.57890E+000	9	...........
	68	0.92	8.86045E-001	1.01591E-004	0.00000E+000	9.00141E-005	5.99601E-002	8.86387E-001	3.57890E+000	9	...........
	69	0.933333	8.92061E-001	1.00026E-004	0.00000E+000	8.92293E-005	5.99601E-002	8.92407E-001	3.57890E+000	9	...........
	70	0.946667	8.97957E-001	1.00121E-004	0.00000E+000	8.99042E-005	5.99601E-002	8.98332E-001	3.57890E+000	9	...........
	71	0.96	9.03767E-001	9.98395E-005	0.00000E+000	9.02316E-005	5.99601E-002	9.04129E-001	3.57890E+000	9	...........
	72	0.97333	9.09470E-001	1.00651E-004	0.00000E+000	9.15392E-005	5.99601E-002	9.09818E-001	3.57890E+000	9	...........
	73	0.98667	9.15042E-001	1.00034E-004	0.00000E+000	9.15356E-005	5.99601E-002	9.15415E-001	3.57890E+000	9	...........
	74	1	9.20577E-001	1.00946E-004	0.00000E+000	9.29285E-005	5.99601E-002	9.20909E-001	3.57890E+000	9	...........
	75	1.01333	9.25997E-001	1.01361E-004	0.00000E+000	9.38597E-005	5.99601E-002	9.26328E-001	3.57890E+000	9	...........
	76	1.02667	9.31297E-001	1.01491E-004	0.00000E+000	9.45181E-005	5.99601E-002	9.31614E-001	3.57890E+000	9	...........
	77	1.04	9.36478E-001	1.00682E-004	0.00000E+000	9.42868E-005	5.99601E-002	9.36810E-001	3.57890E+000	9	...........
	78	1.05333	9.41573E-001	1.00996E-004	0.00000E+000	9.50951E-005	5.99601E-002	9.41915E-001	3.57890E+000	9	...........
	79	1.06667	9.46605E-001	1.01985E-004	0.00000E+000	9.65392E-005	5.99601E-002	9.46959E-001	3.57890E+000	9	...........
	80	1.08	9.51514E-001	1.01257E-004	0.00000E+000	9.63480E-005	5.99601E-002	9.51883E-001	3.57890E+000	9	...........
	81	1.09333	9.56317E-001	1.01171E-004	0.00000E+000	9.67516E-005	5.99601E-002	9.56656E-001	3.57890E+000	9	...........
	82	1.10667	9.61018E-001	1.01276E-004	0.00000E+000	9.73283E-005	5.99601E-002	9.61413E-001	3.57890E+000	9	...........
	83	1.12	9.65633E-001	1.00590E-004	0.00000E+000	9.71327E-005	5.99601E-002	9.66019E-001	3.57890E+000	9	...........
	84	1.13333	9.70175E-001	1.00459E-004	0.00000E+000	9.74632E-005	5.99601E-002	9.70556E-001	3.57890E+000	9	...........
	85	1.14667	9.74657E-001	1.01185E-004	0.00000E+000	9.86202E-005	5.99601E-002	9.75028E-001	3.57899E+000	9	...........
	86	1.16	9.79007E-001	1.01587E-004	0.00000E+000	9.94541E-005	5.99601E-002	9.79364E-001	3.57900E+000	9	...........
	87	1.17333	9.83274E-001	1.00832E-004	0.00000E+000	9.91458E-005	5.99601E-002	9.83622E-001	3.57900E+000	9	...........
	88	1.18667	9.87436E-001	1.00395E-004	0.00000E+000	9.91335E-005	5.99601E-002	9.87830E-001	3.57900E+000	9	...........
	89	1.2	9.91529E-001	1.00610E-004	0.00000E+000	9.97582E-005	5.99601E-002	9.91907E-001	3.57900E+000	9	...........
	90	1.21333	9.95536E-001	1.00564E-004	0.00000E+000	1.00115E-004	5.99601E-002	9.95910E-001	3.57900E+000	9	...........
	91	1.22333	9.98996E-001	1.01283E-004	0.00000E+000	1.01181E-004	5.99601E-002	9.99389E-001	3.57900E+000	9	...........
STARTTIMEOFFSET	QUANT	1230.267	Start Time Offset (s)
