EXPLAIN
TAG	PWR800_CHARGE
TITLE	LABEL	PWR Cyclic Charge Discharge (Cell) - Charge Step	Test &Identifier
DATE	LABEL	13-7-2017	Date
TIME	LABEL	15:48:36	Time
NOTES	NOTES	2	&Notes...
	supercap test cell
	6M KOH
PSTAT	PSTAT	IFC5000-01520	Potentiostat
CAPACITY	QUANT	1.00000E-003	Capacity (A-hr)
CELLTYPE	SELECTOR	1	&Cell Type
WORKINGCONNECTION	SELECTOR	0	&Working Lead
MAXCHARGETIME	VARIABLEANDUNITS	1.00000E+002	s	1.00000E+002	second(s)	Max &Charge Time
CHARGECURRENT	QUANT	1.00000E-004	&Charge Current (A) 
VOLTAGEFINISH	TWOPARAM	F	1.00000E-003	3.60000E+003	&Voltage Finish	 I (A) < 	Max Time(s)
SAMPLETIME	QUANT	1.00000E-002	Sa&mple Period (s)
CHARGESTOPAT1	MULTIPARAM	4	1.00000E+000	Charge Stop At &1	Voltage > Limit	V
CHARGESTOPAT2	MULTIPARAM	0	0.00000E+000	Charge Stop At &2	None	N/A
AESBHCSELECTOR	TOGGLE	F	Save Both Half Cells
IRCOMP	TOGGLE	F	IR &Measure
EOC	QUANT	0	Open Circuit (V)
SEQUENCER	TOGGLE	TRUE	Run as Sequence
PSTATMODEL	IQUANT	53	Pstat Model
PSTATSECTION	LABEL	IFC5000-01520	Pstat Section
PSTATSERIALNO	LABEL	01520	Pstat Serial Number
CTRLMODE	IQUANT	0	Control Mode
ELECTROMETER	IQUANT	1	RE=0 or CS=1
IESTAB	IQUANT	0	I/E Stability
CASPEED	IQUANT	4	Control Amp Speed
CONVENTION	IQUANT	1	Current Convention
ICHRANGE	IQUANT	2	Ich Range
ICHRANGEMODE	TOGGLE	T	Ich Auto Range
ICHOFFSETENABLE	TOGGLE	F	Ich Offset Enable
ICHOFFSET	QUANT	0	Ich Offset (V)
ICHFILTER	IQUANT	1	Ich Filter
VCHRANGE	IQUANT	2	Vch Range
VCHRANGEMODE	TOGGLE	T	Vch Auto Range
VCHOFFSETENABLE	TOGGLE	F	Vch Offset Enable
VCHOFFSET	QUANT	0	Vch Offset (V)
VCHFILTER	IQUANT	1	Vch Filter
IERANGELOWERLIMIT	IQUANT	9	I/E Range Lower Limit
IERANGEMODE	TOGGLE	F	I/E AutoRange
IERANGE	IQUANT	9	I/E Range
ACHSELECT	IQUANT	1	Ach Select
ACHRANGE	IQUANT	2	Ach Range
ACHOFFSETENABLE	TOGGLE	F	Ach Offset Enable
ACHOFFSET	QUANT	0	Ach Offset (V)
ACHFILTER	IQUANT	1	Ach Filter
CABLEID	IQUANT	14	Cable ID
DCCALDATE	LABEL	5-7-2017	DC Calibration Date
ACCALDATE	LABEL	12/3/2015	AC Calibration Date
FRAMEWORKVERSION	QUANT	7.01	Framework Version
INSTRUMENTVERSION	LABEL	4.00	Instrument Version
CURVE	TABLE	90
	Pt	T	Vf	Im	Vu	Pwr	Sig	Ach	Temp	IERange	Over
	#	s	V	A	V	W	V	V	deg C	#	bits
	0	0.013333	1.33411E-001	1.01128E-004	0.00000E+000	1.34916E-005	5.99601E-002	1.33457E-001	3.58000E+000	9	...........
	1	0.026667	1.48680E-001	1.01952E-004	0.00000E+000	1.51583E-005	5.99601E-002	1.48699E-001	3.58000E+000	9	...........
	2	0.04	1.63509E-001	1.00222E-004	0.00000E+000	1.63872E-005	5.99601E-002	1.63531E-001	3.58000E+000	9	...........
	3	0.053333	1.78076E-001	1.00624E-004	0.00000E+000	1.79187E-005	5.99601E-002	1.78109E-001	3.58000E+000	9	...........
	4	0.066667	1.92465E-001	1.01775E-004	0.00000E+000	1.95882E-005	5.99601E-002	1.92491E-001	3.58000E+000	9	...........
	5	0.08	2.06704E-001	1.00977E-004	0.00000E+000	2.08724E-005	5.99601E-002	2.06735E-001	3.58000E+000	9	...........
	6	0.093333	2.20847E-001	1.01087E-004	0.00000E+000	2.23247E-005	5.99601E-002	2.20883E-001	3.58000E+000	9	...........
	7	0.106667	2.34928E-001	1.01565E-004	0.00000E+000	2.38605E-005	5.99601E-002	2.34963E-001	3.58000E+000	9	...........
	8	0.12	2.48949E-001	1.01464E-004	0.00000E+000	2.52593E-005	5.99601E-002	2.48998E-001	3.58000E+000	9	...........
	9	0.133333	2.62954E-001	1.00485E-004	0.00000E+000	2.64231E-005	5.99601E-002	2.63008E-001	3.58000E+000	9	...........
	10	0.146667	2.76956E-001	1.01300E-004	0.00000E+000	2.80557E-005	5.99601E-002	2.77009E-001	3.58000E+000	9	...........
	11	0.16	2.90964E-001	1.00502E-004	0.00000E+000	2.92425E-005	5.99601E-002	2.91008E-001	3.58000E+000	9	...........
	12	0.173333	3.04980E-001	1.01447E-004	0.00000E+000	3.09394E-005	5.99601E-002	3.05029E-001	3.58000E+000	9	...........
	13	0.186667	3.19025E-001	1.00699E-004	0.00000E+000	3.21255E-005	5.99601E-002	3.19078E-001	3.58000E+000	9	...........
	14	0.2	3.33084E-001	1.01166E-004	0.00000E+000	3.36967E-005	5.99601E-002	3.33142E-001	3.57893E+000	9	...........
	15	0.213333	3.47176E-001	1.01402E-004	0.00000E+000	3.52044E-005	5.99601E-002	3.47239E-001	3.57890E+000	9	...........
	16	0.226667	3.61296E-001	1.01400E-004	0.00000E+000	3.66355E-005	5.99601E-002	3.61353E-001	3.57890E+000	9	...........
	17	0.24	3.75436E-001	1.00258E-004	0.00000E+000	3.76406E-005	5.99601E-002	3.75495E-001	3.57890E+000	9	...........
	18	0.253333	3.89580E-001	1.00408E-004	0.00000E+000	3.91171E-005	5.99601E-002	3.89650E-001	3.57890E+000	9	...........
	19	0.266667	4.03725E-001	1.00572E-004	0.00000E+000	4.06034E-005	5.99601E-002	4.03796E-001	3.57890E+000	9	...........
	20	0.28	4.17849E-001	1.01107E-004	0.00000E+000	4.22477E-005	5.99601E-002	4.17930E-001	3.57890E+000	9	...........
	21	0.293333	4.31939E-001	1.01386E-004	0.00000E+000	4.37925E-005	5.99601E-002	4.32023E-001	3.57890E+000	9	...........
	22	0.306667	4.45974E-001	1.01244E-004	0.00000E+000	4.51522E-005	5.99601E-002	4.46059E-001	3.57890E+000	9	...........
	23	0.32	4.59925E-001	1.00660E-004	0.00000E+000	4.62963E-005	5.99601E-002	4.60014E-001	3.57890E+000	9	...........
	24	0.333333	4.73773E-001	1.00564E-004	0.00000E+000	4.76443E-005	5.99601E-002	4.73871E-001	3.57890E+000	9	...........
	25	0.346667	4.87502E-001	1.00123E-004	0.00000E+000	4.88101E-005	5.99601E-002	4.87594E-001	3.57890E+000	9	...........
	26	0.36	5.01078E-001	1.00556E-004	0.00000E+000	5.03866E-005	5.99601E-002	5.01176E-001	3.57890E+000	9	...........
	27	0.373333	5.14489E-001	9.99374E-005	0.00000E+000	5.14167E-005	5.99601E-002	5.14591E-001	3.57890E+000	9	...........
	28	0.386667	5.27726E-001	1.00098E-004	0.00000E+000	5.28242E-005	5.99601E-002	5.27828E-001	3.57890E+000	9	...........
	29	0.4	5.40395E-001	1.00470E-004	0.00000E+000	5.42934E-005	5.99601E-002	5.40647E-001	3.57890E+000	9	...........
	30	0.413333	5.53230E-001	1.00571E-004	0.00000E+000	5.56388E-005	5.99601E-002	5.53479E-001	3.57890E+000	9	...........
	31	0.426667	5.65867E-001	9.99760E-005	0.00000E+000	5.65731E-005	5.99601E-002	5.66110E-001	3.57890E+000	9	...........
	32	0.44	5.78211E-001	9.98655E-005	0.00000E+000	5.77434E-005	5.99601E-002	5.78476E-001	3.57890E+000	9	...........
	33	0.453333	5.90385E-001	9.97270E-005	0.00000E+000	5.88773E-005	5.99601E-002	5.90672E-001	3.57890E+000	9	...........
	34	0.466667	6.02304E-001	1.00249E-004	0.00000E+000	6.03803E-005	5.99601E-002	6.02580E-001	3.57890E+000	9	...........
	35	0.48	6.14008E-001	1.00546E-004	0.00000E+000	6.17360E-005	5.99601E-002	6.14291E-001	3.57890E+000	9	...........
	36	0.493333	6.25490E-001	1.00715E-004	0.00000E+000	6.29960E-005	5.99601E-002	6.25747E-001	3.57890E+000	9	...........
	37	0.506667	6.36744E-001	1.02170E-004	0.00000E+000	6.50563E-005	5.99601E-002	6.36997E-001	3.57890E+000	9	...........
	38	0.52	6.47763E-001	1.00730E-004	0.00000E+000	6.52494E-005	5.99601E-002	6.48031E-001	3.57890E+000	9	...........
	39	0.533333	6.58546E-001	1.00230E-004	0.00000E+000	6.60062E-005	5.99601E-002	6.58819E-001	3.57890E+000	9	...........
	40	0.546667	6.69136E-001	1.00946E-004	0.00000E+000	6.75466E-005	5.99601E-002	6.69410E-001	3.57890E+000	9	...........
	41	0.56	6.79489E-001	1.00060E-004	0.00000E+000	6.79899E-005	5.99601E-002	6.79742E-001	3.57890E+000	9	...........
	42	0.573333	6.89650E-001	1.01448E-004	0.00000E+000	6.99637E-005	5.99601E-002	6.89914E-001	3.57890E+000	9	...........
	43	0.586667	6.99606E-001	1.01151E-004	0.00000E+000	7.07660E-005	5.99601E-002	6.99865E-001	3.57890E+000	9	...........
	44	0.6	7.09352E-001	1.00261E-004	0.00000E+000	7.11207E-005	5.99601E-002	7.09635E-001	3.57890E+000	9	...........
	45	0.613333	7.18915E-001	1.00838E-004	0.00000E+000	7.24936E-005	5.99601E-002	7.19184E-001	3.57890E+000	9	...........
	46	0.626667	7.28306E-001	1.02519E-004	0.00000E+000	7.46653E-005	5.99601E-002	7.28583E-001	3.57890E+000	9	...........
	47	0.64	7.37441E-001	1.00983E-004	0.00000E+000	7.44694E-005	5.99601E-002	7.37728E-001	3.57890E+000	9	...........
	48	0.653333	7.46477E-001	1.00274E-004	0.00000E+000	7.48522E-005	5.99601E-002	7.46758E-001	3.57890E+000	9	...........
	49	0.666667	7.55307E-001	1.00841E-004	0.00000E+000	7.61657E-005	5.99601E-002	7.55586E-001	3.57890E+000	9	...........
	50	0.68	7.63959E-001	1.00224E-004	0.00000E+000	7.65669E-005	5.99601E-002	7.64230E-001	3.57890E+000	9	...........
	51	0.693333	7.72446E-001	1.00923E-004	0.00000E+000	7.79576E-005	5.99601E-002	7.72744E-001	3.57890E+000	9	...........
	52	0.706667	7.80769E-001	1.00646E-004	0.00000E+000	7.85812E-005	5.99601E-002	7.81064E-001	3.57890E+000	9	...........
	53	0.72	7.88933E-001	1.00639E-004	0.00000E+000	7.93971E-005	5.99601E-002	7.89209E-001	3.57890E+000	9	...........
	54	0.733333	7.96980E-001	1.01461E-004	0.00000E+000	8.08621E-005	5.99601E-002	7.97241E-001	3.57890E+000	9	...........
	55	0.746667	8.04828E-001	1.00881E-004	0.00000E+000	8.11921E-005	5.99601E-002	8.05097E-001	3.57890E+000	9	...........
	56	0.76	8.12510E-001	1.01441E-004	0.00000E+000	8.24218E-005	5.99601E-002	8.12807E-001	3.57890E+000	9	...........
	57	0.773333	8.20086E-001	1.01393E-004	0.00000E+000	8.31509E-005	5.99601E-002	8.20370E-001	3.57890E+000	9	...........
	58	0.786667	8.27535E-001	1.00937E-004	0.00000E+000	8.35285E-005	5.99601E-002	8.27770E-001	3.57890E+000	9	...........
	59	0.8	8.34796E-001	1.01065E-004	0.00000E+000	8.43685E-005	5.99601E-002	8.35076E-001	3.57890E+000	9	...........
	60	0.813333	8.41938E-001	1.01478E-004	0.00000E+000	8.54384E-005	5.99601E-002	8.42245E-001	3.57890E+000	9	...........
	61	0.826667	8.48994E-001	1.00563E-004	0.00000E+000	8.53770E-005	5.99601E-002	8.49279E-001	3.57890E+000	9	...........
	62	0.84	8.55889E-001	1.00685E-004	0.00000E+000	8.61756E-005	5.99601E-002	8.56183E-001	3.57890E+000	9	...........
	63	0.853333	8.62678E-001	1.01058E-004	0.00000E+000	8.71809E-005	5.99601E-002	8.62974E-001	3.57890E+000	9	...........
	64	0.866667	8.69315E-001	1.00692E-004	0.00000E+000	8.75329E-005	5.99601E-002	8.69646E-001	3.57890E+000	9	...........
	65	0.88	8.75865E-001	1.00939E-004	0.00000E+000	8.84086E-005	5.99601E-002	8.76199E-001	3.57890E+000	9	...........
	66	0.893333	8.82280E-001	1.00916E-004	0.00000E+000	8.90359E-005	5.99601E-002	8.82608E-001	3.57890E+000	9	...........
	67	0.906667	8.88565E-001	1.00297E-004	0.00000E+000	8.91203E-005	5.99601E-002	8.88898E-001	3.57890E+000	9	...........
	68	0.92	8.94740E-001	1.01021E-004	0.00000E+000	9.03875E-005	5.99601E-002	8.95102E-001	3.57890E+000	9	...........
	69	0.933333	9.00834E-001	1.00970E-004	0.00000E+000	9.09572E-005	5.99601E-002	9.01182E-001	3.57890E+000	9	...........
	70	0.946667	9.06774E-001	1.00726E-004	0.00000E+000	9.13358E-005	5.99601E-002	9.07155E-001	3.57890E+000	9	...........
	71	0.96	9.12663E-001	1.01331E-004	0.00000E+000	9.24814E-005	5.99601E-002	9.12988E-001	3.57890E+000	9	...........
	72	0.97333	9.18388E-001	1.01156E-004	0.00000E+000	9.29009E-005	5.99601E-002	9.18773E-001	3.57890E+000	9	...........
	73	0.98667	9.24078E-001	1.00839E-004	0.00000E+000	9.31828E-005	5.99601E-002	9.24397E-001	3.57890E+000	9	...........
	74	1	9.29614E-001	1.01510E-004	0.00000E+000	9.43647E-005	5.99601E-002	9.29952E-001	3.57890E+000	9	...........
	75	1.01333	9.35032E-001	1.00974E-004	0.00000E+000	9.44140E-005	5.99601E-002	9.35365E-001	3.57890E+000	9	...........
	76	1.02667	9.40341E-001	1.00137E-004	0.00000E+000	9.41634E-005	5.99601E-002	9.40665E-001	3.57890E+000	9	...........
	77	1.04	9.45551E-001	1.00739E-004	0.00000E+000	9.52535E-005	5.99601E-002	9.45890E-001	3.57890E+000	9	...........
	78	1.05333	9.50690E-001	1.01664E-004	0.00000E+000	9.66508E-005	5.99601E-002	9.51025E-001	3.57890E+000	9	...........
	79	1.06667	9.55698E-001	1.01022E-004	0.00000E+000	9.65466E-005	5.99601E-002	9.56019E-001	3.57890E+000	9	...........
	80	1.08	9.60605E-001	1.01265E-004	0.00000E+000	9.72755E-005	5.99601E-002	9.60951E-001	3.57890E+000	9	...........
	81	1.09333	9.65386E-001	1.00903E-004	0.00000E+000	9.74105E-005	5.99601E-002	9.65761E-001	3.57890E+000	9	...........
	82	1.10667	9.70102E-001	1.00361E-004	0.00000E+000	9.73609E-005	5.99601E-002	9.70465E-001	3.57890E+000	9	...........
	83	1.12	9.74785E-001	1.00638E-004	0.00000E+000	9.81000E-005	5.99601E-002	9.75106E-001	3.57890E+000	9	...........
	84	1.13333	9.79301E-001	1.00637E-004	0.00000E+000	9.85534E-005	5.99601E-002	9.79608E-001	3.57890E+000	9	...........
	85	1.14667	9.83714E-001	1.00278E-004	0.00000E+000	9.86450E-005	5.99601E-002	9.84012E-001	3.57890E+000	9	...........
	86	1.16	9.88030E-001	1.01149E-004	0.00000E+000	9.99384E-005	5.99601E-002	9.88350E-001	3.57890E+000	9	...........
	87	1.17333	9.92267E-001	1.00449E-004	0.00000E+000	9.96722E-005	5.99601E-002	9.92585E-001	3.57890E+000	9	...........
	88	1.18667	9.96431E-001	1.01856E-004	0.00000E+000	1.01492E-004	5.99601E-002	9.96742E-001	3.57890E+000	9	...........
	89	1.19333	9.99481E-001	1.00575E-004	0.00000E+000	1.00523E-004	5.99601E-002	9.99832E-001	3.57900E+000	9	...........
STARTTIMEOFFSET	QUANT	2104.278	Start Time Offset (s)
