EXPLAIN
TAG	PWR800_CHARGE
TITLE	LABEL	PWR Cyclic Charge Discharge (Cell) - Charge Step	Test &Identifier
DATE	LABEL	13-7-2017	Date
TIME	LABEL	15:23:37	Time
NOTES	NOTES	2	&Notes...
	supercap test cell
	6M KOH
PSTAT	PSTAT	IFC5000-01520	Potentiostat
CAPACITY	QUANT	1.00000E-003	Capacity (A-hr)
CELLTYPE	SELECTOR	1	&Cell Type
WORKINGCONNECTION	SELECTOR	0	&Working Lead
MAXCHARGETIME	VARIABLEANDUNITS	1.00000E+002	s	1.00000E+002	second(s)	Max &Charge Time
CHARGECURRENT	QUANT	1.00000E-004	&Charge Current (A) 
VOLTAGEFINISH	TWOPARAM	F	1.00000E-003	3.60000E+003	&Voltage Finish	 I (A) < 	Max Time(s)
SAMPLETIME	QUANT	1.00000E-002	Sa&mple Period (s)
CHARGESTOPAT1	MULTIPARAM	4	1.00000E+000	Charge Stop At &1	Voltage > Limit	V
CHARGESTOPAT2	MULTIPARAM	0	0.00000E+000	Charge Stop At &2	None	N/A
AESBHCSELECTOR	TOGGLE	F	Save Both Half Cells
IRCOMP	TOGGLE	F	IR &Measure
EOC	QUANT	0	Open Circuit (V)
SEQUENCER	TOGGLE	TRUE	Run as Sequence
PSTATMODEL	IQUANT	53	Pstat Model
PSTATSECTION	LABEL	IFC5000-01520	Pstat Section
PSTATSERIALNO	LABEL	01520	Pstat Serial Number
CTRLMODE	IQUANT	0	Control Mode
ELECTROMETER	IQUANT	1	RE=0 or CS=1
IESTAB	IQUANT	0	I/E Stability
CASPEED	IQUANT	4	Control Amp Speed
CONVENTION	IQUANT	1	Current Convention
ICHRANGE	IQUANT	2	Ich Range
ICHRANGEMODE	TOGGLE	T	Ich Auto Range
ICHOFFSETENABLE	TOGGLE	F	Ich Offset Enable
ICHOFFSET	QUANT	0	Ich Offset (V)
ICHFILTER	IQUANT	1	Ich Filter
VCHRANGE	IQUANT	2	Vch Range
VCHRANGEMODE	TOGGLE	T	Vch Auto Range
VCHOFFSETENABLE	TOGGLE	F	Vch Offset Enable
VCHOFFSET	QUANT	0	Vch Offset (V)
VCHFILTER	IQUANT	1	Vch Filter
IERANGELOWERLIMIT	IQUANT	9	I/E Range Lower Limit
IERANGEMODE	TOGGLE	F	I/E AutoRange
IERANGE	IQUANT	9	I/E Range
ACHSELECT	IQUANT	1	Ach Select
ACHRANGE	IQUANT	2	Ach Range
ACHOFFSETENABLE	TOGGLE	F	Ach Offset Enable
ACHOFFSET	QUANT	0	Ach Offset (V)
ACHFILTER	IQUANT	1	Ach Filter
CABLEID	IQUANT	14	Cable ID
DCCALDATE	LABEL	5-7-2017	DC Calibration Date
ACCALDATE	LABEL	12/3/2015	AC Calibration Date
FRAMEWORKVERSION	QUANT	7.01	Framework Version
INSTRUMENTVERSION	LABEL	4.00	Instrument Version
CURVE	TABLE	93
	Pt	T	Vf	Im	Vu	Pwr	Sig	Ach	Temp	IERange	Over
	#	s	V	A	V	W	V	V	deg C	#	bits
	0	0.013333	1.33498E-001	1.00358E-004	0.00000E+000	1.33976E-005	5.99601E-002	1.33543E-001	3.57860E+000	9	...........
	1	0.026667	1.48755E-001	1.00733E-004	0.00000E+000	1.49846E-005	5.99601E-002	1.48776E-001	3.57860E+000	9	...........
	2	0.04	1.63566E-001	1.00727E-004	0.00000E+000	1.64756E-005	5.99601E-002	1.63594E-001	3.57860E+000	9	...........
	3	0.053333	1.78105E-001	9.97207E-005	0.00000E+000	1.77608E-005	5.99601E-002	1.78132E-001	3.57860E+000	9	...........
	4	0.066667	1.92453E-001	1.00136E-004	0.00000E+000	1.92715E-005	5.99601E-002	1.92484E-001	3.57860E+000	9	...........
	5	0.08	2.06657E-001	1.00970E-004	0.00000E+000	2.08661E-005	5.99601E-002	2.06692E-001	3.57860E+000	9	...........
	6	0.093333	2.20760E-001	1.00576E-004	0.00000E+000	2.22032E-005	5.99601E-002	2.20798E-001	3.57860E+000	9	...........
	7	0.106667	2.34793E-001	1.00865E-004	0.00000E+000	2.36824E-005	5.99601E-002	2.34828E-001	3.57860E+000	9	...........
	8	0.12	2.48770E-001	1.01480E-004	0.00000E+000	2.52453E-005	5.99601E-002	2.48812E-001	3.57860E+000	9	...........
	9	0.133333	2.62715E-001	9.94300E-005	0.00000E+000	2.61217E-005	5.99601E-002	2.62766E-001	3.57860E+000	9	...........
	10	0.146667	2.76653E-001	1.00294E-004	0.00000E+000	2.77466E-005	5.99601E-002	2.76706E-001	3.57860E+000	9	...........
	11	0.16	2.90585E-001	1.00568E-004	0.00000E+000	2.92234E-005	5.99601E-002	2.90639E-001	3.57860E+000	9	...........
	12	0.173333	3.04526E-001	1.00099E-004	0.00000E+000	3.04827E-005	5.99601E-002	3.04583E-001	3.57860E+000	9	...........
	13	0.186667	3.18479E-001	1.00646E-004	0.00000E+000	3.20536E-005	5.99601E-002	3.18539E-001	3.57860E+000	9	...........
	14	0.2	3.32436E-001	1.00768E-004	0.00000E+000	3.34988E-005	5.99601E-002	3.32502E-001	3.57860E+000	9	...........
	15	0.213333	3.46417E-001	1.01513E-004	0.00000E+000	3.51657E-005	5.99601E-002	3.46480E-001	3.57860E+000	9	...........
	16	0.226667	3.60402E-001	1.00846E-004	0.00000E+000	3.63451E-005	5.99601E-002	3.60476E-001	3.57860E+000	9	...........
	17	0.24	3.74396E-001	1.00095E-004	0.00000E+000	3.74751E-005	5.99601E-002	3.74463E-001	3.57860E+000	9	...........
	18	0.253333	3.88380E-001	1.01078E-004	0.00000E+000	3.92567E-005	5.99601E-002	3.88454E-001	3.57860E+000	9	...........
	19	0.266667	4.02339E-001	1.00285E-004	0.00000E+000	4.03487E-005	5.99601E-002	4.02422E-001	3.57860E+000	9	...........
	20	0.28	4.16253E-001	1.00478E-004	0.00000E+000	4.18244E-005	5.99601E-002	4.16343E-001	3.57860E+000	9	...........
	21	0.293333	4.30125E-001	1.00593E-004	0.00000E+000	4.32675E-005	5.99601E-002	4.30215E-001	3.57860E+000	9	...........
	22	0.306667	4.43915E-001	1.01056E-004	0.00000E+000	4.48605E-005	5.99601E-002	4.44013E-001	3.57860E+000	9	...........
	23	0.32	4.57609E-001	1.00293E-004	0.00000E+000	4.58948E-005	5.99601E-002	4.57703E-001	3.57860E+000	9	...........
	24	0.333333	4.71184E-001	1.00986E-004	0.00000E+000	4.75828E-005	5.99601E-002	4.71281E-001	3.57860E+000	9	...........
	25	0.346667	4.84618E-001	1.00917E-004	0.00000E+000	4.89060E-005	5.99601E-002	4.84723E-001	3.57860E+000	9	...........
	26	0.36	4.97897E-001	1.00307E-004	0.00000E+000	4.99427E-005	5.99601E-002	4.98001E-001	3.57860E+000	9	...........
	27	0.373333	5.11000E-001	1.00752E-004	0.00000E+000	5.14843E-005	5.99601E-002	5.11106E-001	3.57860E+000	9	...........
	28	0.386667	5.23914E-001	1.01246E-004	0.00000E+000	5.30442E-005	5.99601E-002	5.24025E-001	3.57860E+000	9	...........
	29	0.4	5.36404E-001	9.98843E-005	0.00000E+000	5.35783E-005	5.99601E-002	5.36538E-001	3.57860E+000	9	...........
	30	0.413333	5.48764E-001	1.00533E-004	0.00000E+000	5.51691E-005	5.99601E-002	5.48995E-001	3.57880E+000	9	...........
	31	0.426667	5.61053E-001	1.00648E-004	0.00000E+000	5.64688E-005	5.99601E-002	5.61295E-001	3.57880E+000	9	...........
	32	0.44	5.73151E-001	1.01026E-004	0.00000E+000	5.79032E-005	5.99601E-002	5.73403E-001	3.57880E+000	9	...........
	33	0.453333	5.84968E-001	1.00578E-004	0.00000E+000	5.88350E-005	5.99601E-002	5.85252E-001	3.57880E+000	9	...........
	34	0.466667	5.96598E-001	1.01184E-004	0.00000E+000	6.03659E-005	5.99601E-002	5.96901E-001	3.57880E+000	9	...........
	35	0.48	6.07957E-001	1.01256E-004	0.00000E+000	6.15596E-005	5.99601E-002	6.08249E-001	3.57880E+000	9	...........
	36	0.493333	6.19187E-001	1.00500E-004	0.00000E+000	6.22283E-005	5.99601E-002	6.19421E-001	3.57880E+000	9	...........
	37	0.506667	6.30104E-001	1.00456E-004	0.00000E+000	6.32979E-005	5.99601E-002	6.30357E-001	3.57880E+000	9	...........
	38	0.52	6.40841E-001	1.00722E-004	0.00000E+000	6.45467E-005	5.99601E-002	6.41097E-001	3.57880E+000	9	...........
	39	0.533333	6.51360E-001	1.00351E-004	0.00000E+000	6.53646E-005	5.99601E-002	6.51614E-001	3.57880E+000	9	...........
	40	0.546667	6.61642E-001	1.00720E-004	0.00000E+000	6.66405E-005	5.99601E-002	6.61920E-001	3.57880E+000	9	...........
	41	0.56	6.71745E-001	1.00221E-004	0.00000E+000	6.73228E-005	5.99601E-002	6.72040E-001	3.57880E+000	9	...........
	42	0.573333	6.81632E-001	1.01373E-004	0.00000E+000	6.90992E-005	5.99601E-002	6.81938E-001	3.57880E+000	9	...........
	43	0.586667	6.91313E-001	1.00900E-004	0.00000E+000	6.97536E-005	5.99601E-002	6.91617E-001	3.57880E+000	9	...........
	44	0.6	7.00824E-001	1.00937E-004	0.00000E+000	7.07388E-005	5.99601E-002	7.01111E-001	3.57880E+000	9	...........
	45	0.613333	7.10139E-001	1.01786E-004	0.00000E+000	7.22820E-005	5.99601E-002	7.10435E-001	3.57880E+000	9	...........
	46	0.626667	7.19301E-001	9.98051E-005	0.00000E+000	7.17899E-005	5.99601E-002	7.19576E-001	3.57880E+000	9	...........
	47	0.64	7.28249E-001	1.01149E-004	0.00000E+000	7.36618E-005	5.99601E-002	7.28525E-001	3.57880E+000	9	...........
	48	0.653333	7.37019E-001	1.01567E-004	0.00000E+000	7.48567E-005	5.99601E-002	7.37310E-001	3.57880E+000	9	...........
	49	0.666667	7.45645E-001	1.01778E-004	0.00000E+000	7.58905E-005	5.99601E-002	7.45934E-001	3.57880E+000	9	...........
	50	0.68	7.54090E-001	1.00721E-004	0.00000E+000	7.59526E-005	5.99601E-002	7.54392E-001	3.57880E+000	9	...........
	51	0.693333	7.62376E-001	1.00863E-004	0.00000E+000	7.68952E-005	5.99601E-002	7.62681E-001	3.57880E+000	9	...........
	52	0.706667	7.70487E-001	1.00250E-004	0.00000E+000	7.72413E-005	5.99601E-002	7.70834E-001	3.57880E+000	9	...........
	53	0.72	7.78454E-001	1.00082E-004	0.00000E+000	7.79094E-005	5.99601E-002	7.78815E-001	3.57880E+000	9	...........
	54	0.733333	7.86315E-001	1.00399E-004	0.00000E+000	7.89452E-005	5.99601E-002	7.86627E-001	3.57880E+000	9	...........
	55	0.746667	7.94007E-001	1.00430E-004	0.00000E+000	7.97423E-005	5.99601E-002	7.94324E-001	3.57880E+000	9	...........
	56	0.76	8.01561E-001	1.01201E-004	0.00000E+000	8.11190E-005	5.99601E-002	8.01873E-001	3.57880E+000	9	...........
	57	0.773333	8.08962E-001	1.01202E-004	0.00000E+000	8.18688E-005	5.99601E-002	8.09270E-001	3.57880E+000	9	...........
	58	0.786667	8.16214E-001	1.01261E-004	0.00000E+000	8.26504E-005	5.99601E-002	8.16555E-001	3.57880E+000	9	...........
	59	0.8	8.23363E-001	9.97822E-005	0.00000E+000	8.21570E-005	5.99601E-002	8.23695E-001	3.57880E+000	9	...........
	60	0.813333	8.30378E-001	1.01222E-004	0.00000E+000	8.40526E-005	5.99601E-002	8.30707E-001	3.57880E+000	9	...........
	61	0.826667	8.37263E-001	1.00212E-004	0.00000E+000	8.39042E-005	5.99601E-002	8.37620E-001	3.57880E+000	9	...........
	62	0.84	8.44061E-001	1.01282E-004	0.00000E+000	8.54886E-005	5.99601E-002	8.44388E-001	3.57880E+000	9	...........
	63	0.853333	8.50717E-001	1.00296E-004	0.00000E+000	8.53234E-005	5.99601E-002	8.51042E-001	3.57880E+000	9	...........
	64	0.866667	8.57265E-001	1.00456E-004	0.00000E+000	8.61176E-005	5.99601E-002	8.57578E-001	3.57880E+000	9	...........
	65	0.88	8.63679E-001	1.00691E-004	0.00000E+000	8.69645E-005	5.99601E-002	8.63993E-001	3.57880E+000	9	...........
	66	0.893333	8.70016E-001	1.00703E-004	0.00000E+000	8.76133E-005	5.99601E-002	8.70344E-001	3.57880E+000	9	...........
	67	0.906667	8.76240E-001	1.01047E-004	0.00000E+000	8.85415E-005	5.99601E-002	8.76557E-001	3.57880E+000	9	...........
	68	0.92	8.82326E-001	1.00865E-004	0.00000E+000	8.89956E-005	5.99601E-002	8.82657E-001	3.57880E+000	9	...........
	69	0.933333	8.88304E-001	1.01525E-004	0.00000E+000	9.01852E-005	5.99601E-002	8.88638E-001	3.57880E+000	9	...........
	70	0.946667	8.94186E-001	1.00333E-004	0.00000E+000	8.97166E-005	5.99601E-002	8.94539E-001	3.57880E+000	9	...........
	71	0.96	8.99979E-001	1.01553E-004	0.00000E+000	9.13959E-005	5.99601E-002	9.00317E-001	3.57880E+000	9	...........
	72	0.97333	9.05647E-001	1.01070E-004	0.00000E+000	9.15337E-005	5.99601E-002	9.06015E-001	3.57880E+000	9	...........
	73	0.98667	9.11232E-001	1.01318E-004	0.00000E+000	9.23241E-005	5.99601E-002	9.11584E-001	3.57880E+000	9	...........
	74	1	9.16696E-001	1.01250E-004	0.00000E+000	9.28157E-005	5.99601E-002	9.17087E-001	3.57880E+000	9	...........
	75	1.01333	9.22132E-001	1.00769E-004	0.00000E+000	9.29222E-005	5.99601E-002	9.22470E-001	3.57880E+000	9	...........
	76	1.02667	9.27405E-001	1.01056E-004	0.00000E+000	9.37203E-005	5.99601E-002	9.27747E-001	3.57880E+000	9	...........
	77	1.04	9.32596E-001	1.00872E-004	0.00000E+000	9.40728E-005	5.99601E-002	9.32953E-001	3.57880E+000	9	...........
	78	1.05333	9.37672E-001	1.00091E-004	0.00000E+000	9.38521E-005	5.99601E-002	9.38054E-001	3.57880E+000	9	...........
	79	1.06667	9.42670E-001	1.00401E-004	0.00000E+000	9.46450E-005	5.99601E-002	9.43021E-001	3.57880E+000	9	...........
	80	1.08	9.47582E-001	1.00691E-004	0.00000E+000	9.54127E-005	5.99601E-002	9.47963E-001	3.57880E+000	9	...........
	81	1.09333	9.52407E-001	1.01540E-004	0.00000E+000	9.67073E-005	5.99601E-002	9.52755E-001	3.57880E+000	9	...........
	82	1.10667	9.57123E-001	1.00749E-004	0.00000E+000	9.64292E-005	5.99601E-002	9.57485E-001	3.57880E+000	9	...........
	83	1.12	9.61752E-001	1.00498E-004	0.00000E+000	9.66541E-005	5.99601E-002	9.62131E-001	3.57880E+000	9	...........
	84	1.13333	9.66284E-001	1.00733E-004	0.00000E+000	9.73370E-005	5.99601E-002	9.66664E-001	3.57880E+000	9	...........
	85	1.14667	9.70709E-001	1.00826E-004	0.00000E+000	9.78728E-005	5.99601E-002	9.71121E-001	3.57880E+000	9	...........
	86	1.16	9.75118E-001	1.01215E-004	0.00000E+000	9.86963E-005	5.99601E-002	9.75506E-001	3.57880E+000	9	...........
	87	1.17333	9.79400E-001	1.01307E-004	0.00000E+000	9.92205E-005	5.99601E-002	9.79759E-001	3.57880E+000	9	...........
	88	1.18667	9.83571E-001	1.00386E-004	0.00000E+000	9.87372E-005	5.99601E-002	9.83969E-001	3.57880E+000	9	...........
	89	1.2	9.87669E-001	1.00324E-004	0.00000E+000	9.90869E-005	5.99601E-002	9.88057E-001	3.57880E+000	9	...........
	90	1.21333	9.91685E-001	1.01775E-004	0.00000E+000	1.00929E-004	5.99601E-002	9.92081E-001	3.57880E+000	9	...........
	91	1.22667	9.95604E-001	1.00316E-004	0.00000E+000	9.98747E-005	5.99601E-002	9.95989E-001	3.57880E+000	9	...........
	92	1.23667	9.98994E-001	1.01811E-004	0.00000E+000	1.01708E-004	5.99601E-002	9.99376E-001	3.57880E+000	9	...........
STARTTIMEOFFSET	QUANT	978.13	Start Time Offset (s)
