EXPLAIN
TAG	PWR800_CHARGE
TITLE	LABEL	PWR Cyclic Charge Discharge (Cell) - Charge Step	Test &Identifier
DATE	LABEL	13-7-2017	Date
TIME	LABEL	15:02:41	Time
NOTES	NOTES	2	&Notes...
	supercap test cell
	6M KOH
PSTAT	PSTAT	IFC5000-01520	Potentiostat
CAPACITY	QUANT	1.00000E-003	Capacity (A-hr)
CELLTYPE	SELECTOR	1	&Cell Type
WORKINGCONNECTION	SELECTOR	0	&Working Lead
MAXCHARGETIME	VARIABLEANDUNITS	1.00000E+002	s	1.00000E+002	second(s)	Max &Charge Time
CHARGECURRENT	QUANT	1.00000E-004	&Charge Current (A) 
VOLTAGEFINISH	TWOPARAM	F	1.00000E-003	3.60000E+003	&Voltage Finish	 I (A) < 	Max Time(s)
SAMPLETIME	QUANT	1.00000E-002	Sa&mple Period (s)
CHARGESTOPAT1	MULTIPARAM	4	1.00000E+000	Charge Stop At &1	Voltage > Limit	V
CHARGESTOPAT2	MULTIPARAM	0	0.00000E+000	Charge Stop At &2	None	N/A
AESBHCSELECTOR	TOGGLE	F	Save Both Half Cells
IRCOMP	TOGGLE	F	IR &Measure
EOC	QUANT	0	Open Circuit (V)
SEQUENCER	TOGGLE	TRUE	Run as Sequence
PSTATMODEL	IQUANT	53	Pstat Model
PSTATSECTION	LABEL	IFC5000-01520	Pstat Section
PSTATSERIALNO	LABEL	01520	Pstat Serial Number
CTRLMODE	IQUANT	0	Control Mode
ELECTROMETER	IQUANT	1	RE=0 or CS=1
IESTAB	IQUANT	0	I/E Stability
CASPEED	IQUANT	4	Control Amp Speed
CONVENTION	IQUANT	1	Current Convention
ICHRANGE	IQUANT	2	Ich Range
ICHRANGEMODE	TOGGLE	T	Ich Auto Range
ICHOFFSETENABLE	TOGGLE	F	Ich Offset Enable
ICHOFFSET	QUANT	0	Ich Offset (V)
ICHFILTER	IQUANT	1	Ich Filter
VCHRANGE	IQUANT	2	Vch Range
VCHRANGEMODE	TOGGLE	T	Vch Auto Range
VCHOFFSETENABLE	TOGGLE	F	Vch Offset Enable
VCHOFFSET	QUANT	0	Vch Offset (V)
VCHFILTER	IQUANT	1	Vch Filter
IERANGELOWERLIMIT	IQUANT	9	I/E Range Lower Limit
IERANGEMODE	TOGGLE	F	I/E AutoRange
IERANGE	IQUANT	9	I/E Range
ACHSELECT	IQUANT	1	Ach Select
ACHRANGE	IQUANT	2	Ach Range
ACHOFFSETENABLE	TOGGLE	F	Ach Offset Enable
ACHOFFSET	QUANT	0	Ach Offset (V)
ACHFILTER	IQUANT	1	Ach Filter
CABLEID	IQUANT	14	Cable ID
DCCALDATE	LABEL	5-7-2017	DC Calibration Date
ACCALDATE	LABEL	12/3/2015	AC Calibration Date
FRAMEWORKVERSION	QUANT	7.01	Framework Version
INSTRUMENTVERSION	LABEL	4.00	Instrument Version
CURVE	TABLE	107
	Pt	T	Vf	Im	Vu	Pwr	Sig	Ach	Temp	IERange	Over
	#	s	V	A	V	W	V	V	deg C	#	bits
	0	0.013333	1.53241E-001	1.00926E-004	0.00000E+000	1.54660E-005	5.99601E-002	1.53291E-001	3.57870E+000	9	...........
	1	0.026667	1.71447E-001	1.00588E-004	0.00000E+000	1.72454E-005	5.99601E-002	1.71481E-001	3.57870E+000	9	...........
	2	0.04	1.89147E-001	1.00292E-004	0.00000E+000	1.89698E-005	5.99601E-002	1.89187E-001	3.57870E+000	9	...........
	3	0.053333	2.06509E-001	1.01612E-004	0.00000E+000	2.09837E-005	5.99601E-002	2.06547E-001	3.57870E+000	9	...........
	4	0.066667	2.23587E-001	1.02003E-004	0.00000E+000	2.28067E-005	5.99601E-002	2.23625E-001	3.57870E+000	9	...........
	5	0.08	2.40436E-001	1.00790E-004	0.00000E+000	2.42335E-005	5.99601E-002	2.40474E-001	3.57870E+000	9	...........
	6	0.093333	2.57084E-001	1.00706E-004	0.00000E+000	2.58900E-005	5.99601E-002	2.57130E-001	3.57870E+000	9	...........
	7	0.106667	2.73545E-001	1.01652E-004	0.00000E+000	2.78065E-005	5.99601E-002	2.73595E-001	3.57870E+000	9	...........
	8	0.12	2.89826E-001	1.00317E-004	0.00000E+000	2.90744E-005	5.99601E-002	2.89878E-001	3.57870E+000	9	...........
	9	0.133333	3.05934E-001	1.00691E-004	0.00000E+000	3.08047E-005	5.99601E-002	3.05998E-001	3.57870E+000	9	...........
	10	0.146667	3.21864E-001	1.01194E-004	0.00000E+000	3.25707E-005	5.99601E-002	3.21924E-001	3.57870E+000	9	...........
	11	0.16	3.37595E-001	1.00982E-004	0.00000E+000	3.40911E-005	5.99601E-002	3.37661E-001	3.57870E+000	9	...........
	12	0.173333	3.53142E-001	1.01210E-004	0.00000E+000	3.57414E-005	5.99601E-002	3.53209E-001	3.57870E+000	9	...........
	13	0.186667	3.68476E-001	1.01128E-004	0.00000E+000	3.72633E-005	5.99601E-002	3.68544E-001	3.57870E+000	9	...........
	14	0.2	3.83577E-001	1.00687E-004	0.00000E+000	3.86211E-005	5.99601E-002	3.83654E-001	3.57870E+000	9	...........
	15	0.213333	3.98440E-001	1.01620E-004	0.00000E+000	4.04895E-005	5.99601E-002	3.98522E-001	3.57870E+000	9	...........
	16	0.226667	4.13049E-001	1.01248E-004	0.00000E+000	4.18204E-005	5.99601E-002	4.13141E-001	3.57870E+000	9	...........
	17	0.24	4.27390E-001	1.01184E-004	0.00000E+000	4.32448E-005	5.99601E-002	4.27475E-001	3.57870E+000	9	...........
	18	0.253333	4.41445E-001	1.00874E-004	0.00000E+000	4.45303E-005	5.99601E-002	4.41542E-001	3.57870E+000	9	...........
	19	0.266667	4.55221E-001	1.01113E-004	0.00000E+000	4.60286E-005	5.99601E-002	4.55314E-001	3.57870E+000	9	...........
	20	0.28	4.68704E-001	1.00615E-004	0.00000E+000	4.71585E-005	5.99601E-002	4.68795E-001	3.57870E+000	9	...........
	21	0.293333	4.81876E-001	1.00740E-004	0.00000E+000	4.85440E-005	5.99601E-002	4.81979E-001	3.57870E+000	9	...........
	22	0.306667	4.94754E-001	1.01454E-004	0.00000E+000	5.01950E-005	5.99601E-002	4.94859E-001	3.57870E+000	9	...........
	23	0.32	5.07332E-001	1.01177E-004	0.00000E+000	5.13304E-005	5.99601E-002	5.07443E-001	3.57870E+000	9	...........
	24	0.333333	5.19606E-001	1.01217E-004	0.00000E+000	5.25929E-005	5.99601E-002	5.19722E-001	3.57870E+000	9	...........
	25	0.346667	5.31490E-001	1.01861E-004	0.00000E+000	5.41379E-005	5.99601E-002	5.31650E-001	3.57870E+000	9	...........
	26	0.36	5.42933E-001	1.01315E-004	0.00000E+000	5.50072E-005	5.99601E-002	5.43187E-001	3.57870E+000	9	...........
	27	0.373333	5.54326E-001	1.01363E-004	0.00000E+000	5.61880E-005	5.99601E-002	5.54594E-001	3.57870E+000	9	...........
	28	0.386667	5.65490E-001	1.00634E-004	0.00000E+000	5.69078E-005	5.99601E-002	5.65740E-001	3.57870E+000	9	...........
	29	0.4	5.76323E-001	1.00169E-004	0.00000E+000	5.77295E-005	5.99601E-002	5.76596E-001	3.57870E+000	9	...........
	30	0.413333	5.86905E-001	1.00936E-004	0.00000E+000	5.92395E-005	5.99601E-002	5.87182E-001	3.57870E+000	9	...........
	31	0.426667	5.97261E-001	1.01017E-004	0.00000E+000	6.03334E-005	5.99601E-002	5.97548E-001	3.57870E+000	9	...........
	32	0.44	6.07330E-001	1.01280E-004	0.00000E+000	6.15106E-005	5.99601E-002	6.07648E-001	3.57870E+000	9	...........
	33	0.453333	6.17246E-001	1.00371E-004	0.00000E+000	6.19535E-005	5.99601E-002	6.17517E-001	3.57870E+000	9	...........
	34	0.466667	6.26832E-001	1.01001E-004	0.00000E+000	6.33108E-005	5.99601E-002	6.27114E-001	3.57870E+000	9	...........
	35	0.48	6.36222E-001	1.01132E-004	0.00000E+000	6.43427E-005	5.99601E-002	6.36508E-001	3.57870E+000	9	...........
	36	0.493333	6.45397E-001	1.01384E-004	0.00000E+000	6.54327E-005	5.99601E-002	6.45694E-001	3.57870E+000	9	...........
	37	0.506667	6.54372E-001	1.01398E-004	0.00000E+000	6.63521E-005	5.99601E-002	6.54646E-001	3.57870E+000	9	...........
	38	0.52	6.63113E-001	1.01574E-004	0.00000E+000	6.73552E-005	5.99601E-002	6.63405E-001	3.57870E+000	9	...........
	39	0.533333	6.71691E-001	1.00768E-004	0.00000E+000	6.76848E-005	5.99601E-002	6.71947E-001	3.57870E+000	9	...........
	40	0.546667	6.80062E-001	1.00952E-004	0.00000E+000	6.86537E-005	5.99601E-002	6.80294E-001	3.57870E+000	9	...........
	41	0.56	6.88235E-001	1.01320E-004	0.00000E+000	6.97319E-005	5.99601E-002	6.88492E-001	3.57870E+000	9	...........
	42	0.573333	6.96257E-001	1.01220E-004	0.00000E+000	7.04752E-005	5.99601E-002	6.96504E-001	3.57870E+000	9	...........
	43	0.586667	7.04078E-001	1.01583E-004	0.00000E+000	7.15220E-005	5.99601E-002	7.04327E-001	3.57870E+000	9	...........
	44	0.6	7.11743E-001	1.01284E-004	0.00000E+000	7.20879E-005	5.99601E-002	7.12001E-001	3.57870E+000	9	...........
	45	0.613333	7.19294E-001	1.01388E-004	0.00000E+000	7.29275E-005	5.99601E-002	7.19535E-001	3.57870E+000	9	...........
	46	0.626667	7.26658E-001	9.99187E-005	0.00000E+000	7.26066E-005	5.99601E-002	7.26893E-001	3.57870E+000	9	...........
	47	0.64	7.33834E-001	1.00963E-004	0.00000E+000	7.40898E-005	5.99601E-002	7.34123E-001	3.57870E+000	9	...........
	48	0.653333	7.40935E-001	1.00871E-004	0.00000E+000	7.47388E-005	5.99601E-002	7.41220E-001	3.57870E+000	9	...........
	49	0.666667	7.47879E-001	1.00474E-004	0.00000E+000	7.51424E-005	5.99601E-002	7.48145E-001	3.57870E+000	9	...........
	50	0.68	7.54665E-001	1.00664E-004	0.00000E+000	7.59673E-005	5.99601E-002	7.54966E-001	3.57870E+000	9	...........
	51	0.693333	7.61347E-001	1.00689E-004	0.00000E+000	7.66589E-005	5.99601E-002	7.61624E-001	3.57870E+000	9	...........
	52	0.706667	7.67880E-001	1.00361E-004	0.00000E+000	7.70656E-005	5.99601E-002	7.68174E-001	3.57870E+000	9	...........
	53	0.72	7.74295E-001	1.01386E-004	0.00000E+000	7.85024E-005	5.99601E-002	7.74611E-001	3.57870E+000	9	...........
	54	0.733333	7.80609E-001	1.01089E-004	0.00000E+000	7.89107E-005	5.99601E-002	7.80930E-001	3.57870E+000	9	...........
	55	0.746667	7.86793E-001	1.00515E-004	0.00000E+000	7.90842E-005	5.99601E-002	7.87119E-001	3.57870E+000	9	...........
	56	0.76	7.92884E-001	1.01489E-004	0.00000E+000	8.04689E-005	5.99601E-002	7.93232E-001	3.57870E+000	9	...........
	57	0.773333	7.98882E-001	1.00511E-004	0.00000E+000	8.02968E-005	5.99601E-002	7.99209E-001	3.57870E+000	9	...........
	58	0.786667	8.04746E-001	1.01810E-004	0.00000E+000	8.19310E-005	5.99601E-002	8.05090E-001	3.57870E+000	9	...........
	59	0.8	8.10496E-001	1.01504E-004	0.00000E+000	8.22689E-005	5.99601E-002	8.10845E-001	3.57870E+000	9	...........
	60	0.813333	8.16174E-001	1.00048E-004	0.00000E+000	8.16565E-005	5.99601E-002	8.16537E-001	3.57870E+000	9	...........
	61	0.826667	8.21786E-001	1.01693E-004	0.00000E+000	8.35699E-005	5.99601E-002	8.22162E-001	3.57870E+000	9	...........
	62	0.84	8.27255E-001	1.01475E-004	0.00000E+000	8.39459E-005	5.99601E-002	8.27623E-001	3.57870E+000	9	...........
	63	0.853333	8.32630E-001	1.00443E-004	0.00000E+000	8.36317E-005	5.99601E-002	8.33028E-001	3.57992E+000	9	...........
	64	0.866667	8.37941E-001	1.00851E-004	0.00000E+000	8.45073E-005	5.99601E-002	8.38318E-001	3.58010E+000	9	...........
	65	0.88	8.43176E-001	1.01156E-004	0.00000E+000	8.52926E-005	5.99601E-002	8.43570E-001	3.58010E+000	9	...........
	66	0.893333	8.48330E-001	1.00758E-004	0.00000E+000	8.54764E-005	5.99601E-002	8.48724E-001	3.58010E+000	9	...........
	67	0.906667	8.53373E-001	1.00237E-004	0.00000E+000	8.55400E-005	5.99601E-002	8.53773E-001	3.58010E+000	9	...........
	68	0.92	8.58352E-001	1.00423E-004	0.00000E+000	8.61983E-005	5.99601E-002	8.58748E-001	3.58010E+000	9	...........
	69	0.933333	8.63258E-001	1.01663E-004	0.00000E+000	8.77612E-005	5.99601E-002	8.63649E-001	3.58010E+000	9	...........
	70	0.946667	8.68100E-001	1.00959E-004	0.00000E+000	8.76429E-005	5.99601E-002	8.68487E-001	3.58010E+000	9	...........
	71	0.96	8.72858E-001	1.00432E-004	0.00000E+000	8.76631E-005	5.99601E-002	8.73238E-001	3.58010E+000	9	...........
	72	0.97333	8.77537E-001	1.00142E-004	0.00000E+000	8.78780E-005	5.99601E-002	8.77901E-001	3.58010E+000	9	...........
	73	0.98667	8.82145E-001	1.01462E-004	0.00000E+000	8.95039E-005	5.99601E-002	8.82507E-001	3.58010E+000	9	...........
	74	1	8.86670E-001	1.01029E-004	0.00000E+000	8.95797E-005	5.99601E-002	8.87040E-001	3.58010E+000	9	...........
	75	1.01333	8.91146E-001	1.01536E-004	0.00000E+000	9.04831E-005	5.99601E-002	8.91497E-001	3.58010E+000	9	...........
	76	1.02667	8.95544E-001	1.01403E-004	0.00000E+000	9.08111E-005	5.99601E-002	8.95898E-001	3.58010E+000	9	...........
	77	1.04	8.99865E-001	1.00460E-004	0.00000E+000	9.04009E-005	5.99601E-002	9.00207E-001	3.58010E+000	9	...........
	78	1.05333	9.04131E-001	1.01160E-004	0.00000E+000	9.14614E-005	5.99601E-002	9.04504E-001	3.58010E+000	9	...........
	79	1.06667	9.08341E-001	1.01237E-004	0.00000E+000	9.19574E-005	5.99601E-002	9.08707E-001	3.58010E+000	9	...........
	80	1.08	9.12471E-001	1.01786E-004	0.00000E+000	9.28765E-005	5.99601E-002	9.12830E-001	3.58010E+000	9	...........
	81	1.09333	9.16539E-001	1.00331E-004	0.00000E+000	9.19575E-005	5.99601E-002	9.16899E-001	3.58010E+000	9	...........
	82	1.10667	9.20582E-001	1.01069E-004	0.00000E+000	9.30422E-005	5.99601E-002	9.20945E-001	3.58010E+000	9	...........
	83	1.12	9.24549E-001	1.01450E-004	0.00000E+000	9.37958E-005	5.99601E-002	9.24883E-001	3.58010E+000	9	...........
	84	1.13333	9.28432E-001	1.00383E-004	0.00000E+000	9.31991E-005	5.99601E-002	9.28763E-001	3.58010E+000	9	...........
	85	1.14667	9.32245E-001	1.00511E-004	0.00000E+000	9.37013E-005	5.99601E-002	9.32600E-001	3.58010E+000	9	...........
	86	1.16	9.36029E-001	1.00783E-004	0.00000E+000	9.43362E-005	5.99601E-002	9.36395E-001	3.58010E+000	9	...........
	87	1.17333	9.39744E-001	1.00893E-004	0.00000E+000	9.48134E-005	5.99601E-002	9.40105E-001	3.58010E+000	9	...........
	88	1.18667	9.43400E-001	1.00663E-004	0.00000E+000	9.49651E-005	5.99601E-002	9.43775E-001	3.58010E+000	9	...........
	89	1.2	9.47034E-001	1.01064E-004	0.00000E+000	9.57107E-005	5.99601E-002	9.47390E-001	3.58010E+000	9	...........
	90	1.21333	9.50577E-001	1.00652E-004	0.00000E+000	9.56776E-005	5.99601E-002	9.50966E-001	3.58010E+000	9	...........
	91	1.22667	9.54102E-001	1.02206E-004	0.00000E+000	9.75145E-005	5.99601E-002	9.54461E-001	3.58010E+000	9	...........
	92	1.24	9.57538E-001	1.00867E-004	0.00000E+000	9.65838E-005	5.99601E-002	9.57923E-001	3.58010E+000	9	...........
	93	1.25333	9.60928E-001	1.00828E-004	0.00000E+000	9.68887E-005	5.99601E-002	9.61325E-001	3.58010E+000	9	...........
	94	1.26667	9.64253E-001	9.98864E-005	0.00000E+000	9.63157E-005	5.99601E-002	9.64668E-001	3.58010E+000	9	...........
	95	1.28	9.67535E-001	1.01205E-004	0.00000E+000	9.79198E-005	5.99601E-002	9.67969E-001	3.58010E+000	9	...........
	96	1.29333	9.70788E-001	1.01027E-004	0.00000E+000	9.80760E-005	5.99601E-002	9.71229E-001	3.58010E+000	9	...........
	97	1.30667	9.74040E-001	1.01480E-004	0.00000E+000	9.88460E-005	5.99601E-002	9.74445E-001	3.58010E+000	9	...........
	98	1.32	9.77209E-001	1.01174E-004	0.00000E+000	9.88683E-005	5.99601E-002	9.77600E-001	3.58010E+000	9	...........
	99	1.33333	9.80298E-001	1.00360E-004	0.00000E+000	9.83831E-005	5.99601E-002	9.80690E-001	3.58010E+000	9	...........
	100	1.34667	9.83361E-001	1.00937E-004	0.00000E+000	9.92571E-005	5.99601E-002	9.83732E-001	3.58010E+000	9	...........
	101	1.36	9.86357E-001	1.00489E-004	0.00000E+000	9.91176E-005	5.99601E-002	9.86765E-001	3.58010E+000	9	...........
	102	1.37333	9.89363E-001	1.01498E-004	0.00000E+000	1.00419E-004	5.99601E-002	9.89726E-001	3.58010E+000	9	...........
	103	1.38667	9.92257E-001	1.00783E-004	0.00000E+000	1.00003E-004	5.99601E-002	9.92649E-001	3.58010E+000	9	...........
	104	1.4	9.95135E-001	1.00939E-004	0.00000E+000	1.00448E-004	5.99601E-002	9.95511E-001	3.58010E+000	9	...........
	105	1.41333	9.97976E-001	1.01735E-004	0.00000E+000	1.01529E-004	5.99601E-002	9.98360E-001	3.58010E+000	9	...........
	106	1.41833	9.99883E-001	9.99617E-005	0.00000E+000	9.99500E-005	5.99601E-002	1.00029E+000	3.58010E+000	9	...........
STARTTIMEOFFSET	QUANT	22.3	Start Time Offset (s)
