EXPLAIN
TAG	PWR800_CHARGE
TITLE	LABEL	PWR Cyclic Charge Discharge (Cell) - Charge Step	Test &Identifier
DATE	LABEL	13-7-2017	Date
TIME	LABEL	15:24:19	Time
NOTES	NOTES	2	&Notes...
	supercap test cell
	6M KOH
PSTAT	PSTAT	IFC5000-01520	Potentiostat
CAPACITY	QUANT	1.00000E-003	Capacity (A-hr)
CELLTYPE	SELECTOR	1	&Cell Type
WORKINGCONNECTION	SELECTOR	0	&Working Lead
MAXCHARGETIME	VARIABLEANDUNITS	1.00000E+002	s	1.00000E+002	second(s)	Max &Charge Time
CHARGECURRENT	QUANT	1.00000E-004	&Charge Current (A) 
VOLTAGEFINISH	TWOPARAM	F	1.00000E-003	3.60000E+003	&Voltage Finish	 I (A) < 	Max Time(s)
SAMPLETIME	QUANT	1.00000E-002	Sa&mple Period (s)
CHARGESTOPAT1	MULTIPARAM	4	1.00000E+000	Charge Stop At &1	Voltage > Limit	V
CHARGESTOPAT2	MULTIPARAM	0	0.00000E+000	Charge Stop At &2	None	N/A
AESBHCSELECTOR	TOGGLE	F	Save Both Half Cells
IRCOMP	TOGGLE	F	IR &Measure
EOC	QUANT	0	Open Circuit (V)
SEQUENCER	TOGGLE	TRUE	Run as Sequence
PSTATMODEL	IQUANT	53	Pstat Model
PSTATSECTION	LABEL	IFC5000-01520	Pstat Section
PSTATSERIALNO	LABEL	01520	Pstat Serial Number
CTRLMODE	IQUANT	0	Control Mode
ELECTROMETER	IQUANT	1	RE=0 or CS=1
IESTAB	IQUANT	0	I/E Stability
CASPEED	IQUANT	4	Control Amp Speed
CONVENTION	IQUANT	1	Current Convention
ICHRANGE	IQUANT	2	Ich Range
ICHRANGEMODE	TOGGLE	T	Ich Auto Range
ICHOFFSETENABLE	TOGGLE	F	Ich Offset Enable
ICHOFFSET	QUANT	0	Ich Offset (V)
ICHFILTER	IQUANT	1	Ich Filter
VCHRANGE	IQUANT	2	Vch Range
VCHRANGEMODE	TOGGLE	T	Vch Auto Range
VCHOFFSETENABLE	TOGGLE	F	Vch Offset Enable
VCHOFFSET	QUANT	0	Vch Offset (V)
VCHFILTER	IQUANT	1	Vch Filter
IERANGELOWERLIMIT	IQUANT	9	I/E Range Lower Limit
IERANGEMODE	TOGGLE	F	I/E AutoRange
IERANGE	IQUANT	9	I/E Range
ACHSELECT	IQUANT	1	Ach Select
ACHRANGE	IQUANT	2	Ach Range
ACHOFFSETENABLE	TOGGLE	F	Ach Offset Enable
ACHOFFSET	QUANT	0	Ach Offset (V)
ACHFILTER	IQUANT	1	Ach Filter
CABLEID	IQUANT	14	Cable ID
DCCALDATE	LABEL	5-7-2017	DC Calibration Date
ACCALDATE	LABEL	12/3/2015	AC Calibration Date
FRAMEWORKVERSION	QUANT	7.01	Framework Version
INSTRUMENTVERSION	LABEL	4.00	Instrument Version
CURVE	TABLE	93
	Pt	T	Vf	Im	Vu	Pwr	Sig	Ach	Temp	IERange	Over
	#	s	V	A	V	W	V	V	deg C	#	bits
	0	0.013333	1.32570E-001	1.00103E-004	0.00000E+000	1.32707E-005	5.99601E-002	1.32605E-001	3.57940E+000	9	...........
	1	0.026667	1.47817E-001	1.00646E-004	0.00000E+000	1.48772E-005	5.99601E-002	1.47831E-001	3.57940E+000	9	...........
	2	0.04	1.62622E-001	1.01299E-004	0.00000E+000	1.64735E-005	5.99601E-002	1.62652E-001	3.57940E+000	9	...........
	3	0.053333	1.77157E-001	1.01070E-004	0.00000E+000	1.79052E-005	5.99601E-002	1.77190E-001	3.57940E+000	9	...........
	4	0.066667	1.91502E-001	1.01036E-004	0.00000E+000	1.93485E-005	5.99601E-002	1.91537E-001	3.57940E+000	9	...........
	5	0.08	2.05697E-001	1.00477E-004	0.00000E+000	2.06678E-005	5.99601E-002	2.05736E-001	3.57940E+000	9	...........
	6	0.093333	2.19799E-001	1.00638E-004	0.00000E+000	2.21200E-005	5.99601E-002	2.19840E-001	3.57940E+000	9	...........
	7	0.106667	2.33832E-001	1.01173E-004	0.00000E+000	2.36575E-005	5.99601E-002	2.33872E-001	3.57940E+000	9	...........
	8	0.12	2.47809E-001	1.01083E-004	0.00000E+000	2.50494E-005	5.99601E-002	2.47852E-001	3.57940E+000	9	...........
	9	0.133333	2.61753E-001	1.00242E-004	0.00000E+000	2.62386E-005	5.99601E-002	2.61799E-001	3.57940E+000	9	...........
	10	0.146667	2.75686E-001	1.01068E-004	0.00000E+000	2.78630E-005	5.99601E-002	2.75742E-001	3.57940E+000	9	...........
	11	0.16	2.89616E-001	1.00296E-004	0.00000E+000	2.90472E-005	5.99601E-002	2.89674E-001	3.57940E+000	9	...........
	12	0.173333	3.03556E-001	1.01049E-004	0.00000E+000	3.06740E-005	5.99601E-002	3.03611E-001	3.57940E+000	9	...........
	13	0.186667	3.17508E-001	1.01611E-004	0.00000E+000	3.22622E-005	5.99601E-002	3.17569E-001	3.57940E+000	9	...........
	14	0.2	3.31468E-001	1.01514E-004	0.00000E+000	3.36486E-005	5.99601E-002	3.31529E-001	3.57940E+000	9	...........
	15	0.213333	3.45444E-001	1.00168E-004	0.00000E+000	3.46023E-005	5.99601E-002	3.45509E-001	3.57940E+000	9	...........
	16	0.226667	3.59437E-001	1.00701E-004	0.00000E+000	3.61957E-005	5.99601E-002	3.59510E-001	3.57940E+000	9	...........
	17	0.24	3.73435E-001	1.00588E-004	0.00000E+000	3.75629E-005	5.99601E-002	3.73505E-001	3.57940E+000	9	...........
	18	0.253333	3.87425E-001	1.00916E-004	0.00000E+000	3.90973E-005	5.99601E-002	3.87495E-001	3.57940E+000	9	...........
	19	0.266667	4.01398E-001	1.00119E-004	0.00000E+000	4.01875E-005	5.99601E-002	4.01473E-001	3.57940E+000	9	...........
	20	0.28	4.15330E-001	1.00957E-004	0.00000E+000	4.19307E-005	5.99601E-002	4.15413E-001	3.57940E+000	9	...........
	21	0.293333	4.29210E-001	1.01019E-004	0.00000E+000	4.33583E-005	5.99601E-002	4.29296E-001	3.57940E+000	9	...........
	22	0.306667	4.43014E-001	1.00937E-004	0.00000E+000	4.47163E-005	5.99601E-002	4.43109E-001	3.57940E+000	9	...........
	23	0.32	4.56727E-001	1.00629E-004	0.00000E+000	4.59601E-005	5.99601E-002	4.56813E-001	3.57940E+000	9	...........
	24	0.333333	4.70315E-001	1.01379E-004	0.00000E+000	4.76802E-005	5.99601E-002	4.70417E-001	3.57940E+000	9	...........
	25	0.346667	4.83782E-001	1.00300E-004	0.00000E+000	4.85233E-005	5.99601E-002	4.83879E-001	3.57940E+000	9	...........
	26	0.36	4.97087E-001	1.01022E-004	0.00000E+000	5.02167E-005	5.99601E-002	4.97184E-001	3.57940E+000	9	...........
	27	0.373333	5.10215E-001	1.01068E-004	0.00000E+000	5.15664E-005	5.99601E-002	5.10314E-001	3.57940E+000	9	...........
	28	0.386667	5.23149E-001	1.00563E-004	0.00000E+000	5.26092E-005	5.99601E-002	5.23257E-001	3.57940E+000	9	...........
	29	0.4	5.35662E-001	1.00228E-004	0.00000E+000	5.36884E-005	5.99601E-002	5.35854E-001	3.57940E+000	9	...........
	30	0.413333	5.48080E-001	1.00394E-004	0.00000E+000	5.50238E-005	5.99601E-002	5.48314E-001	3.57940E+000	9	...........
	31	0.426667	5.60379E-001	1.00775E-004	0.00000E+000	5.64722E-005	5.99601E-002	5.60631E-001	3.57940E+000	9	...........
	32	0.44	5.72478E-001	9.98749E-005	0.00000E+000	5.71762E-005	5.99601E-002	5.72735E-001	3.57940E+000	9	...........
	33	0.453333	5.84346E-001	1.00674E-004	0.00000E+000	5.88285E-005	5.99601E-002	5.84605E-001	3.57940E+000	9	...........
	34	0.466667	5.95982E-001	1.00552E-004	0.00000E+000	5.99272E-005	5.99601E-002	5.96258E-001	3.57940E+000	9	...........
	35	0.48	6.07401E-001	1.00618E-004	0.00000E+000	6.11153E-005	5.99601E-002	6.07687E-001	3.57940E+000	9	...........
	36	0.493333	6.18649E-001	1.00888E-004	0.00000E+000	6.24140E-005	5.99601E-002	6.18894E-001	3.57940E+000	9	...........
	37	0.506667	6.29589E-001	1.00246E-004	0.00000E+000	6.31137E-005	5.99601E-002	6.29844E-001	3.57940E+000	9	...........
	38	0.52	6.40337E-001	1.01038E-004	0.00000E+000	6.46981E-005	5.99601E-002	6.40624E-001	3.57940E+000	9	...........
	39	0.533333	6.50887E-001	1.01028E-004	0.00000E+000	6.57580E-005	5.99601E-002	6.51161E-001	3.57940E+000	9	...........
	40	0.546667	6.61200E-001	1.00002E-004	0.00000E+000	6.61213E-005	5.99601E-002	6.61465E-001	3.57940E+000	9	...........
	41	0.56	6.71353E-001	1.00759E-004	0.00000E+000	6.76452E-005	5.99601E-002	6.71605E-001	3.57940E+000	9	...........
	42	0.573333	6.81237E-001	1.01029E-004	0.00000E+000	6.88249E-005	5.99601E-002	6.81510E-001	3.57940E+000	9	...........
	43	0.586667	6.90959E-001	1.01832E-004	0.00000E+000	7.03615E-005	5.99601E-002	6.91240E-001	3.57940E+000	9	...........
	44	0.6	7.00480E-001	1.00518E-004	0.00000E+000	7.04107E-005	5.99601E-002	7.00755E-001	3.57940E+000	9	...........
	45	0.613333	7.09806E-001	1.00664E-004	0.00000E+000	7.14517E-005	5.99601E-002	7.10095E-001	3.57940E+000	9	...........
	46	0.626667	7.18978E-001	9.97457E-005	0.00000E+000	7.17150E-005	5.99601E-002	7.19258E-001	3.57940E+000	9	...........
	47	0.64	7.27959E-001	1.00594E-004	0.00000E+000	7.32282E-005	5.99601E-002	7.28261E-001	3.57940E+000	9	...........
	48	0.653333	7.36735E-001	1.01902E-004	0.00000E+000	7.50751E-005	5.99601E-002	7.37049E-001	3.57940E+000	9	...........
	49	0.666667	7.45387E-001	1.01013E-004	0.00000E+000	7.52935E-005	5.99601E-002	7.45688E-001	3.57940E+000	9	...........
	50	0.68	7.53844E-001	1.01414E-004	0.00000E+000	7.64501E-005	5.99601E-002	7.54141E-001	3.57940E+000	9	...........
	51	0.693333	7.62158E-001	1.00971E-004	0.00000E+000	7.69558E-005	5.99601E-002	7.62430E-001	3.57940E+000	9	...........
	52	0.706667	7.70286E-001	1.01146E-004	0.00000E+000	7.79114E-005	5.99601E-002	7.70606E-001	3.57940E+000	9	...........
	53	0.72	7.78289E-001	1.00548E-004	0.00000E+000	7.82554E-005	5.99601E-002	7.78572E-001	3.57940E+000	9	...........
	54	0.733333	7.86124E-001	1.00572E-004	0.00000E+000	7.90620E-005	5.99601E-002	7.86410E-001	3.57940E+000	9	...........
	55	0.746667	7.93837E-001	1.00892E-004	0.00000E+000	8.00917E-005	5.99601E-002	7.94138E-001	3.57940E+000	9	...........
	56	0.76	8.01404E-001	1.00858E-004	0.00000E+000	8.08283E-005	5.99601E-002	8.01675E-001	3.57940E+000	9	...........
	57	0.773333	8.08824E-001	1.00738E-004	0.00000E+000	8.14790E-005	5.99601E-002	8.09112E-001	3.57940E+000	9	...........
	58	0.786667	8.16098E-001	1.00428E-004	0.00000E+000	8.19592E-005	5.99601E-002	8.16422E-001	3.57940E+000	9	...........
	59	0.8	8.23266E-001	1.00653E-004	0.00000E+000	8.28643E-005	5.99601E-002	8.23587E-001	3.57940E+000	9	...........
	60	0.813333	8.30290E-001	1.00491E-004	0.00000E+000	8.34363E-005	5.99601E-002	8.30591E-001	3.57940E+000	9	...........
	61	0.826667	8.37165E-001	1.01217E-004	0.00000E+000	8.47352E-005	5.99601E-002	8.37489E-001	3.57940E+000	9	...........
	62	0.84	8.43968E-001	1.01175E-004	0.00000E+000	8.53886E-005	5.99601E-002	8.44297E-001	3.57940E+000	9	...........
	63	0.853333	8.50656E-001	1.01039E-004	0.00000E+000	8.59491E-005	5.99601E-002	8.50979E-001	3.57940E+000	9	...........
	64	0.866667	8.57178E-001	1.00597E-004	0.00000E+000	8.62295E-005	5.99601E-002	8.57531E-001	3.57940E+000	9	...........
	65	0.88	8.63646E-001	1.01558E-004	0.00000E+000	8.77097E-005	5.99601E-002	8.63954E-001	3.57940E+000	9	...........
	66	0.893333	8.69973E-001	1.01291E-004	0.00000E+000	8.81203E-005	5.99601E-002	8.70308E-001	3.57940E+000	9	...........
	67	0.906667	8.76218E-001	1.00466E-004	0.00000E+000	8.80298E-005	5.99601E-002	8.76532E-001	3.57940E+000	9	...........
	68	0.92	8.82326E-001	9.97874E-005	0.00000E+000	8.80450E-005	5.99601E-002	8.82653E-001	3.57940E+000	9	...........
	69	0.933333	8.88307E-001	1.00581E-004	0.00000E+000	8.93471E-005	5.99601E-002	8.88644E-001	3.57940E+000	9	...........
	70	0.946667	8.94204E-001	1.01694E-004	0.00000E+000	9.09353E-005	5.99601E-002	8.94557E-001	3.57940E+000	9	...........
	71	0.96	9.00000E-001	1.00262E-004	0.00000E+000	9.02363E-005	5.99601E-002	9.00338E-001	3.57949E+000	9	...........
	72	0.97333	9.05669E-001	1.00683E-004	0.00000E+000	9.11858E-005	5.99601E-002	9.06035E-001	3.57960E+000	9	...........
	73	0.98667	9.11285E-001	1.01572E-004	0.00000E+000	9.25611E-005	5.99601E-002	9.11625E-001	3.57960E+000	9	...........
	74	1	9.16759E-001	1.00843E-004	0.00000E+000	9.24486E-005	5.99601E-002	9.17107E-001	3.57960E+000	9	...........
	75	1.01333	9.22192E-001	1.00535E-004	0.00000E+000	9.27130E-005	5.99601E-002	9.22518E-001	3.57960E+000	9	...........
	76	1.02667	9.27488E-001	1.00783E-004	0.00000E+000	9.34754E-005	5.99601E-002	9.27794E-001	3.57960E+000	9	...........
	77	1.04	9.32664E-001	1.01039E-004	0.00000E+000	9.42351E-005	5.99601E-002	9.32976E-001	3.57960E+000	9	...........
	78	1.05333	9.37772E-001	1.00062E-004	0.00000E+000	9.38357E-005	5.99601E-002	9.38092E-001	3.57960E+000	9	...........
	79	1.06667	9.42772E-001	1.00732E-004	0.00000E+000	9.49677E-005	5.99601E-002	9.43085E-001	3.57960E+000	9	...........
	80	1.08	9.47709E-001	1.02028E-004	0.00000E+000	9.66933E-005	5.99601E-002	9.48044E-001	3.57960E+000	9	...........
	81	1.09333	9.52523E-001	1.00570E-004	0.00000E+000	9.57951E-005	5.99601E-002	9.52861E-001	3.57960E+000	9	...........
	82	1.10667	9.57251E-001	1.00463E-004	0.00000E+000	9.61679E-005	5.99601E-002	9.57573E-001	3.57960E+000	9	...........
	83	1.12	9.61879E-001	1.01255E-004	0.00000E+000	9.73955E-005	5.99601E-002	9.62219E-001	3.57960E+000	9	...........
	84	1.13333	9.66422E-001	1.00710E-004	0.00000E+000	9.73289E-005	5.99601E-002	9.66759E-001	3.57960E+000	9	...........
	85	1.14667	9.70879E-001	1.01174E-004	0.00000E+000	9.82278E-005	5.99601E-002	9.71240E-001	3.57960E+000	9	...........
	86	1.16	9.75263E-001	1.01160E-004	0.00000E+000	9.86572E-005	5.99601E-002	9.75624E-001	3.57960E+000	9	...........
	87	1.17333	9.79552E-001	1.00809E-004	0.00000E+000	9.87481E-005	5.99601E-002	9.79886E-001	3.57960E+000	9	...........
	88	1.18667	9.83723E-001	1.01542E-004	0.00000E+000	9.98891E-005	5.99601E-002	9.84089E-001	3.57960E+000	9	...........
	89	1.2	9.87832E-001	1.00485E-004	0.00000E+000	9.92627E-005	5.99601E-002	9.88186E-001	3.57960E+000	9	...........
	90	1.21333	9.91830E-001	1.00624E-004	0.00000E+000	9.98020E-005	5.99601E-002	9.92167E-001	3.57960E+000	9	...........
	91	1.22667	9.95789E-001	1.00442E-004	0.00000E+000	1.00019E-004	5.99601E-002	9.96106E-001	3.57960E+000	9	...........
	92	1.23667	9.99204E-001	1.01095E-004	0.00000E+000	1.01015E-004	5.99601E-002	9.99512E-001	3.57960E+000	9	...........
STARTTIMEOFFSET	QUANT	1009.508	Start Time Offset (s)
