EXPLAIN
TAG	PWR800_CHARGE
TITLE	LABEL	PWR Cyclic Charge Discharge (Cell) - Charge Step	Test &Identifier
DATE	LABEL	13-7-2017	Date
TIME	LABEL	15:22:27	Time
NOTES	NOTES	2	&Notes...
	supercap test cell
	6M KOH
PSTAT	PSTAT	IFC5000-01520	Potentiostat
CAPACITY	QUANT	1.00000E-003	Capacity (A-hr)
CELLTYPE	SELECTOR	1	&Cell Type
WORKINGCONNECTION	SELECTOR	0	&Working Lead
MAXCHARGETIME	VARIABLEANDUNITS	1.00000E+002	s	1.00000E+002	second(s)	Max &Charge Time
CHARGECURRENT	QUANT	1.00000E-004	&Charge Current (A) 
VOLTAGEFINISH	TWOPARAM	F	1.00000E-003	3.60000E+003	&Voltage Finish	 I (A) < 	Max Time(s)
SAMPLETIME	QUANT	1.00000E-002	Sa&mple Period (s)
CHARGESTOPAT1	MULTIPARAM	4	1.00000E+000	Charge Stop At &1	Voltage > Limit	V
CHARGESTOPAT2	MULTIPARAM	0	0.00000E+000	Charge Stop At &2	None	N/A
AESBHCSELECTOR	TOGGLE	F	Save Both Half Cells
IRCOMP	TOGGLE	F	IR &Measure
EOC	QUANT	0	Open Circuit (V)
SEQUENCER	TOGGLE	TRUE	Run as Sequence
PSTATMODEL	IQUANT	53	Pstat Model
PSTATSECTION	LABEL	IFC5000-01520	Pstat Section
PSTATSERIALNO	LABEL	01520	Pstat Serial Number
CTRLMODE	IQUANT	0	Control Mode
ELECTROMETER	IQUANT	1	RE=0 or CS=1
IESTAB	IQUANT	0	I/E Stability
CASPEED	IQUANT	4	Control Amp Speed
CONVENTION	IQUANT	1	Current Convention
ICHRANGE	IQUANT	2	Ich Range
ICHRANGEMODE	TOGGLE	T	Ich Auto Range
ICHOFFSETENABLE	TOGGLE	F	Ich Offset Enable
ICHOFFSET	QUANT	0	Ich Offset (V)
ICHFILTER	IQUANT	1	Ich Filter
VCHRANGE	IQUANT	2	Vch Range
VCHRANGEMODE	TOGGLE	T	Vch Auto Range
VCHOFFSETENABLE	TOGGLE	F	Vch Offset Enable
VCHOFFSET	QUANT	0	Vch Offset (V)
VCHFILTER	IQUANT	1	Vch Filter
IERANGELOWERLIMIT	IQUANT	9	I/E Range Lower Limit
IERANGEMODE	TOGGLE	F	I/E AutoRange
IERANGE	IQUANT	9	I/E Range
ACHSELECT	IQUANT	1	Ach Select
ACHRANGE	IQUANT	2	Ach Range
ACHOFFSETENABLE	TOGGLE	F	Ach Offset Enable
ACHOFFSET	QUANT	0	Ach Offset (V)
ACHFILTER	IQUANT	1	Ach Filter
CABLEID	IQUANT	14	Cable ID
DCCALDATE	LABEL	5-7-2017	DC Calibration Date
ACCALDATE	LABEL	12/3/2015	AC Calibration Date
FRAMEWORKVERSION	QUANT	7.01	Framework Version
INSTRUMENTVERSION	LABEL	4.00	Instrument Version
CURVE	TABLE	94
	Pt	T	Vf	Im	Vu	Pwr	Sig	Ach	Temp	IERange	Over
	#	s	V	A	V	W	V	V	deg C	#	bits
	0	0.013333	1.32964E-001	1.00474E-004	0.00000E+000	1.33594E-005	5.99601E-002	1.33005E-001	3.57880E+000	9	...........
	1	0.026667	1.48198E-001	1.00787E-004	0.00000E+000	1.49364E-005	5.99601E-002	1.48222E-001	3.57880E+000	9	...........
	2	0.04	1.62993E-001	1.00251E-004	0.00000E+000	1.63402E-005	5.99601E-002	1.63016E-001	3.57880E+000	9	...........
	3	0.053333	1.77518E-001	1.00102E-004	0.00000E+000	1.77700E-005	5.99601E-002	1.77550E-001	3.57880E+000	9	...........
	4	0.066667	1.91859E-001	1.00870E-004	0.00000E+000	1.93528E-005	5.99601E-002	1.91889E-001	3.57880E+000	9	...........
	5	0.08	2.06051E-001	1.01550E-004	0.00000E+000	2.09245E-005	5.99601E-002	2.06085E-001	3.57880E+000	9	...........
	6	0.093333	2.20140E-001	1.00665E-004	0.00000E+000	2.21603E-005	5.99601E-002	2.20182E-001	3.57880E+000	9	...........
	7	0.106667	2.34160E-001	1.00596E-004	0.00000E+000	2.35555E-005	5.99601E-002	2.34200E-001	3.57880E+000	9	...........
	8	0.12	2.48136E-001	1.01085E-004	0.00000E+000	2.50827E-005	5.99601E-002	2.48179E-001	3.57880E+000	9	...........
	9	0.133333	2.62071E-001	1.01662E-004	0.00000E+000	2.66425E-005	5.99601E-002	2.62129E-001	3.57880E+000	9	...........
	10	0.146667	2.76004E-001	1.00652E-004	0.00000E+000	2.77804E-005	5.99601E-002	2.76055E-001	3.57880E+000	9	...........
	11	0.16	2.89926E-001	1.00056E-004	0.00000E+000	2.90089E-005	5.99601E-002	2.89984E-001	3.57880E+000	9	...........
	12	0.173333	3.03853E-001	1.00148E-004	0.00000E+000	3.04302E-005	5.99601E-002	3.03913E-001	3.57880E+000	9	...........
	13	0.186667	3.17792E-001	1.00306E-004	0.00000E+000	3.18765E-005	5.99601E-002	3.17859E-001	3.57880E+000	9	...........
	14	0.2	3.31742E-001	1.00697E-004	0.00000E+000	3.34054E-005	5.99601E-002	3.31807E-001	3.57880E+000	9	...........
	15	0.213333	3.45705E-001	1.01186E-004	0.00000E+000	3.49804E-005	5.99601E-002	3.45772E-001	3.57880E+000	9	...........
	16	0.226667	3.59676E-001	1.01955E-004	0.00000E+000	3.66706E-005	5.99601E-002	3.59751E-001	3.57880E+000	9	...........
	17	0.24	3.73650E-001	9.99155E-005	0.00000E+000	3.73335E-005	5.99601E-002	3.73725E-001	3.57880E+000	9	...........
	18	0.253333	3.87619E-001	1.01029E-004	0.00000E+000	3.91609E-005	5.99601E-002	3.87698E-001	3.57880E+000	9	...........
	19	0.266667	4.01564E-001	1.00642E-004	0.00000E+000	4.04141E-005	5.99601E-002	4.01642E-001	3.57880E+000	9	...........
	20	0.28	4.15467E-001	1.01272E-004	0.00000E+000	4.20752E-005	5.99601E-002	4.15547E-001	3.57880E+000	9	...........
	21	0.293333	4.29313E-001	1.01453E-004	0.00000E+000	4.35552E-005	5.99601E-002	4.29406E-001	3.57880E+000	9	...........
	22	0.306667	4.43091E-001	1.02131E-004	0.00000E+000	4.52531E-005	5.99601E-002	4.43186E-001	3.57880E+000	9	...........
	23	0.32	4.56768E-001	1.00707E-004	0.00000E+000	4.59999E-005	5.99601E-002	4.56864E-001	3.57880E+000	9	...........
	24	0.333333	4.70324E-001	1.01359E-004	0.00000E+000	4.76714E-005	5.99601E-002	4.70426E-001	3.57880E+000	9	...........
	25	0.346667	4.83750E-001	1.01624E-004	0.00000E+000	4.91607E-005	5.99601E-002	4.83849E-001	3.57880E+000	9	...........
	26	0.36	4.97007E-001	1.00923E-004	0.00000E+000	5.01594E-005	5.99601E-002	4.97120E-001	3.57880E+000	9	...........
	27	0.373333	5.10098E-001	1.00987E-004	0.00000E+000	5.15130E-005	5.99601E-002	5.10205E-001	3.57880E+000	9	...........
	28	0.386667	5.22991E-001	1.00750E-004	0.00000E+000	5.26914E-005	5.99601E-002	5.23104E-001	3.57880E+000	9	...........
	29	0.4	5.35447E-001	1.01381E-004	0.00000E+000	5.42844E-005	5.99601E-002	5.35663E-001	3.57880E+000	9	...........
	30	0.413333	5.47806E-001	1.01157E-004	0.00000E+000	5.54147E-005	5.99601E-002	5.48086E-001	3.57880E+000	9	...........
	31	0.426667	5.60073E-001	9.98405E-005	0.00000E+000	5.59180E-005	5.99601E-002	5.60359E-001	3.57880E+000	9	...........
	32	0.44	5.72142E-001	1.00965E-004	0.00000E+000	5.77661E-005	5.99601E-002	5.72436E-001	3.57880E+000	9	...........
	33	0.453333	5.83952E-001	1.00080E-004	0.00000E+000	5.84420E-005	5.99601E-002	5.84253E-001	3.57880E+000	9	...........
	34	0.466667	5.95555E-001	1.01186E-004	0.00000E+000	6.02616E-005	5.99601E-002	5.95851E-001	3.57880E+000	9	...........
	35	0.48	6.06911E-001	1.01424E-004	0.00000E+000	6.15554E-005	5.99601E-002	6.07252E-001	3.57880E+000	9	...........
	36	0.493333	6.18106E-001	1.00052E-004	0.00000E+000	6.18428E-005	5.99601E-002	6.18403E-001	3.57880E+000	9	...........
	37	0.506667	6.29030E-001	1.00650E-004	0.00000E+000	6.33119E-005	5.99601E-002	6.29336E-001	3.57880E+000	9	...........
	38	0.52	6.39749E-001	1.00417E-004	0.00000E+000	6.42415E-005	5.99601E-002	6.40051E-001	3.57880E+000	9	...........
	39	0.533333	6.50254E-001	1.00769E-004	0.00000E+000	6.55254E-005	5.99601E-002	6.50556E-001	3.57880E+000	9	...........
	40	0.546667	6.60574E-001	1.01023E-004	0.00000E+000	6.67332E-005	5.99601E-002	6.60857E-001	3.57880E+000	9	...........
	41	0.56	6.70659E-001	1.01237E-004	0.00000E+000	6.78953E-005	5.99601E-002	6.70950E-001	3.57880E+000	9	...........
	42	0.573333	6.80518E-001	1.00279E-004	0.00000E+000	6.82418E-005	5.99601E-002	6.80814E-001	3.57880E+000	9	...........
	43	0.586667	6.90212E-001	1.01389E-004	0.00000E+000	6.99797E-005	5.99601E-002	6.90485E-001	3.57880E+000	9	...........
	44	0.6	6.99708E-001	1.00231E-004	0.00000E+000	7.01325E-005	5.99601E-002	6.99982E-001	3.57936E+000	9	...........
	45	0.613333	7.08995E-001	1.00390E-004	0.00000E+000	7.11757E-005	5.99601E-002	7.09291E-001	3.58030E+000	9	...........
	46	0.626667	7.18137E-001	1.01020E-004	0.00000E+000	7.25461E-005	5.99601E-002	7.18426E-001	3.58030E+000	9	...........
	47	0.64	7.27079E-001	1.00307E-004	0.00000E+000	7.29313E-005	5.99601E-002	7.27368E-001	3.58030E+000	9	...........
	48	0.653333	7.35822E-001	1.01587E-004	0.00000E+000	7.47498E-005	5.99601E-002	7.36141E-001	3.58030E+000	9	...........
	49	0.666667	7.44454E-001	1.01386E-004	0.00000E+000	7.54769E-005	5.99601E-002	7.44740E-001	3.58030E+000	9	...........
	50	0.68	7.52891E-001	1.00299E-004	0.00000E+000	7.55142E-005	5.99601E-002	7.53214E-001	3.58030E+000	9	...........
	51	0.693333	7.61145E-001	1.00886E-004	0.00000E+000	7.67885E-005	5.99601E-002	7.61491E-001	3.58030E+000	9	...........
	52	0.706667	7.69277E-001	1.00318E-004	0.00000E+000	7.71721E-005	5.99601E-002	7.69614E-001	3.58030E+000	9	...........
	53	0.72	7.77267E-001	1.00349E-004	0.00000E+000	7.79980E-005	5.99601E-002	7.77586E-001	3.58030E+000	9	...........
	54	0.733333	7.85108E-001	1.01155E-004	0.00000E+000	7.94179E-005	5.99601E-002	7.85416E-001	3.58030E+000	9	...........
	55	0.746667	7.92798E-001	1.00677E-004	0.00000E+000	7.98167E-005	5.99601E-002	7.93079E-001	3.58030E+000	9	...........
	56	0.76	8.00326E-001	9.98291E-005	0.00000E+000	7.98958E-005	5.99601E-002	8.00613E-001	3.58030E+000	9	...........
	57	0.773333	8.07716E-001	9.97374E-005	0.00000E+000	8.05595E-005	5.99601E-002	8.08020E-001	3.58030E+000	9	...........
	58	0.786667	8.14973E-001	1.00207E-004	0.00000E+000	8.16662E-005	5.99601E-002	8.15278E-001	3.58030E+000	9	...........
	59	0.8	8.22129E-001	1.00436E-004	0.00000E+000	8.25717E-005	5.99601E-002	8.22448E-001	3.58030E+000	9	...........
	60	0.813333	8.29129E-001	1.01271E-004	0.00000E+000	8.39668E-005	5.99601E-002	8.29442E-001	3.58030E+000	9	...........
	61	0.826667	8.36002E-001	1.00693E-004	0.00000E+000	8.41793E-005	5.99601E-002	8.36326E-001	3.58030E+000	9	...........
	62	0.84	8.42767E-001	1.01251E-004	0.00000E+000	8.53312E-005	5.99601E-002	8.43112E-001	3.58030E+000	9	...........
	63	0.853333	8.49450E-001	1.00568E-004	0.00000E+000	8.54273E-005	5.99601E-002	8.49776E-001	3.58030E+000	9	...........
	64	0.866667	8.55968E-001	1.01418E-004	0.00000E+000	8.68105E-005	5.99601E-002	8.56304E-001	3.58030E+000	9	...........
	65	0.88	8.62386E-001	1.01022E-004	0.00000E+000	8.71200E-005	5.99601E-002	8.62716E-001	3.58030E+000	9	...........
	66	0.893333	8.68705E-001	1.00803E-004	0.00000E+000	8.75683E-005	5.99601E-002	8.69043E-001	3.58030E+000	9	...........
	67	0.906667	8.74922E-001	1.01048E-004	0.00000E+000	8.84092E-005	5.99601E-002	8.75253E-001	3.58030E+000	9	...........
	68	0.92	8.81018E-001	1.01537E-004	0.00000E+000	8.94557E-005	5.99601E-002	8.81367E-001	3.58030E+000	9	...........
	69	0.933333	8.86999E-001	1.00576E-004	0.00000E+000	8.92109E-005	5.99601E-002	8.87353E-001	3.58030E+000	9	...........
	70	0.946667	8.92868E-001	1.00803E-004	0.00000E+000	9.00039E-005	5.99601E-002	8.93222E-001	3.58030E+000	9	...........
	71	0.96	8.98669E-001	1.01259E-004	0.00000E+000	9.09978E-005	5.99601E-002	8.99023E-001	3.58030E+000	9	...........
	72	0.97333	9.04333E-001	1.00352E-004	0.00000E+000	9.07517E-005	5.99601E-002	9.04709E-001	3.58030E+000	9	...........
	73	0.98667	9.09919E-001	1.01270E-004	0.00000E+000	9.21475E-005	5.99601E-002	9.10283E-001	3.58030E+000	9	...........
	74	1	9.15390E-001	1.00067E-004	0.00000E+000	9.15999E-005	5.99601E-002	9.15769E-001	3.58030E+000	9	...........
	75	1.01333	9.20814E-001	1.00690E-004	0.00000E+000	9.27165E-005	5.99601E-002	9.21139E-001	3.58030E+000	9	...........
	76	1.02667	9.26111E-001	1.01075E-004	0.00000E+000	9.36068E-005	5.99601E-002	9.26443E-001	3.58030E+000	9	...........
	77	1.04	9.31304E-001	1.00351E-004	0.00000E+000	9.34574E-005	5.99601E-002	9.31619E-001	3.58030E+000	9	...........
	78	1.05333	9.36352E-001	1.01053E-004	0.00000E+000	9.46215E-005	5.99601E-002	9.36720E-001	3.58030E+000	9	...........
	79	1.06667	9.41364E-001	1.00817E-004	0.00000E+000	9.49053E-005	5.99601E-002	9.41718E-001	3.58030E+000	9	...........
	80	1.08	9.46267E-001	1.01067E-004	0.00000E+000	9.56362E-005	5.99601E-002	9.46629E-001	3.58030E+000	9	...........
	81	1.09333	9.51093E-001	1.01078E-004	0.00000E+000	9.61348E-005	5.99601E-002	9.51435E-001	3.58030E+000	9	...........
	82	1.10667	9.55795E-001	1.00727E-004	0.00000E+000	9.62745E-005	5.99601E-002	9.56159E-001	3.58030E+000	9	...........
	83	1.12	9.60423E-001	1.00746E-004	0.00000E+000	9.67587E-005	5.99601E-002	9.60805E-001	3.58030E+000	9	...........
	84	1.13333	9.64962E-001	1.00577E-004	0.00000E+000	9.70531E-005	5.99601E-002	9.65348E-001	3.58030E+000	9	...........
	85	1.14667	9.69395E-001	1.01600E-004	0.00000E+000	9.84907E-005	5.99601E-002	9.69808E-001	3.58030E+000	9	...........
	86	1.16	9.73821E-001	1.00253E-004	0.00000E+000	9.76286E-005	5.99601E-002	9.74195E-001	3.58030E+000	9	...........
	87	1.17333	9.78083E-001	1.01186E-004	0.00000E+000	9.89679E-005	5.99601E-002	9.78494E-001	3.58030E+000	9	...........
	88	1.18667	9.82283E-001	1.00193E-004	0.00000E+000	9.84176E-005	5.99601E-002	9.82664E-001	3.58030E+000	9	...........
	89	1.2	9.86402E-001	1.01278E-004	0.00000E+000	9.99012E-005	5.99601E-002	9.86785E-001	3.58030E+000	9	...........
	90	1.21333	9.90433E-001	1.01497E-004	0.00000E+000	1.00526E-004	5.99601E-002	9.90807E-001	3.58030E+000	9	...........
	91	1.22667	9.94343E-001	1.01444E-004	0.00000E+000	1.00870E-004	5.99601E-002	9.94724E-001	3.58030E+000	9	...........
	92	1.24	9.98213E-001	1.00492E-004	0.00000E+000	1.00312E-004	5.99601E-002	9.98619E-001	3.58030E+000	9	...........
	93	1.24167	1.00036E+000	9.98561E-005	0.00000E+000	9.98917E-005	5.99601E-002	1.00075E+000	3.58030E+000	9	...........
STARTTIMEOFFSET	QUANT	924.9204	Start Time Offset (s)
