EXPLAIN
TAG	PWR800_CHARGE
TITLE	LABEL	PWR Cyclic Charge Discharge (Cell) - Charge Step	Test &Identifier
DATE	LABEL	13-7-2017	Date
TIME	LABEL	15:27:11	Time
NOTES	NOTES	2	&Notes...
	supercap test cell
	6M KOH
PSTAT	PSTAT	IFC5000-01520	Potentiostat
CAPACITY	QUANT	1.00000E-003	Capacity (A-hr)
CELLTYPE	SELECTOR	1	&Cell Type
WORKINGCONNECTION	SELECTOR	0	&Working Lead
MAXCHARGETIME	VARIABLEANDUNITS	1.00000E+002	s	1.00000E+002	second(s)	Max &Charge Time
CHARGECURRENT	QUANT	1.00000E-004	&Charge Current (A) 
VOLTAGEFINISH	TWOPARAM	F	1.00000E-003	3.60000E+003	&Voltage Finish	 I (A) < 	Max Time(s)
SAMPLETIME	QUANT	1.00000E-002	Sa&mple Period (s)
CHARGESTOPAT1	MULTIPARAM	4	1.00000E+000	Charge Stop At &1	Voltage > Limit	V
CHARGESTOPAT2	MULTIPARAM	0	0.00000E+000	Charge Stop At &2	None	N/A
AESBHCSELECTOR	TOGGLE	F	Save Both Half Cells
IRCOMP	TOGGLE	F	IR &Measure
EOC	QUANT	0	Open Circuit (V)
SEQUENCER	TOGGLE	TRUE	Run as Sequence
PSTATMODEL	IQUANT	53	Pstat Model
PSTATSECTION	LABEL	IFC5000-01520	Pstat Section
PSTATSERIALNO	LABEL	01520	Pstat Serial Number
CTRLMODE	IQUANT	0	Control Mode
ELECTROMETER	IQUANT	1	RE=0 or CS=1
IESTAB	IQUANT	0	I/E Stability
CASPEED	IQUANT	4	Control Amp Speed
CONVENTION	IQUANT	1	Current Convention
ICHRANGE	IQUANT	2	Ich Range
ICHRANGEMODE	TOGGLE	T	Ich Auto Range
ICHOFFSETENABLE	TOGGLE	F	Ich Offset Enable
ICHOFFSET	QUANT	0	Ich Offset (V)
ICHFILTER	IQUANT	1	Ich Filter
VCHRANGE	IQUANT	2	Vch Range
VCHRANGEMODE	TOGGLE	T	Vch Auto Range
VCHOFFSETENABLE	TOGGLE	F	Vch Offset Enable
VCHOFFSET	QUANT	0	Vch Offset (V)
VCHFILTER	IQUANT	1	Vch Filter
IERANGELOWERLIMIT	IQUANT	9	I/E Range Lower Limit
IERANGEMODE	TOGGLE	F	I/E AutoRange
IERANGE	IQUANT	9	I/E Range
ACHSELECT	IQUANT	1	Ach Select
ACHRANGE	IQUANT	2	Ach Range
ACHOFFSETENABLE	TOGGLE	F	Ach Offset Enable
ACHOFFSET	QUANT	0	Ach Offset (V)
ACHFILTER	IQUANT	1	Ach Filter
CABLEID	IQUANT	14	Cable ID
DCCALDATE	LABEL	5-7-2017	DC Calibration Date
ACCALDATE	LABEL	12/3/2015	AC Calibration Date
FRAMEWORKVERSION	QUANT	7.01	Framework Version
INSTRUMENTVERSION	LABEL	4.00	Instrument Version
CURVE	TABLE	93
	Pt	T	Vf	Im	Vu	Pwr	Sig	Ach	Temp	IERange	Over
	#	s	V	A	V	W	V	V	deg C	#	bits
	0	0.013333	1.32857E-001	1.01005E-004	0.00000E+000	1.34193E-005	5.99601E-002	1.32903E-001	3.57850E+000	9	...........
	1	0.026667	1.48122E-001	1.00031E-004	0.00000E+000	1.48169E-005	5.99601E-002	1.48145E-001	3.57850E+000	9	...........
	2	0.04	1.62938E-001	1.00691E-004	0.00000E+000	1.64064E-005	5.99601E-002	1.62968E-001	3.57850E+000	9	...........
	3	0.053333	1.77491E-001	1.01300E-004	0.00000E+000	1.79799E-005	5.99601E-002	1.77519E-001	3.57850E+000	9	...........
	4	0.066667	1.91848E-001	1.00728E-004	0.00000E+000	1.93245E-005	5.99601E-002	1.91881E-001	3.57850E+000	9	...........
	5	0.08	2.06065E-001	1.00527E-004	0.00000E+000	2.07151E-005	5.99601E-002	2.06094E-001	3.57850E+000	9	...........
	6	0.093333	2.20177E-001	1.01324E-004	0.00000E+000	2.23093E-005	5.99601E-002	2.20215E-001	3.57850E+000	9	...........
	7	0.106667	2.34213E-001	1.00799E-004	0.00000E+000	2.36084E-005	5.99601E-002	2.34251E-001	3.57850E+000	9	...........
	8	0.12	2.48202E-001	1.00641E-004	0.00000E+000	2.49792E-005	5.99601E-002	2.48247E-001	3.57850E+000	9	...........
	9	0.133333	2.62162E-001	1.00715E-004	0.00000E+000	2.64035E-005	5.99601E-002	2.62215E-001	3.57850E+000	9	...........
	10	0.146667	2.76113E-001	1.00304E-004	0.00000E+000	2.76953E-005	5.99601E-002	2.76166E-001	3.57850E+000	9	...........
	11	0.16	2.90060E-001	1.01657E-004	0.00000E+000	2.94865E-005	5.99601E-002	2.90116E-001	3.57850E+000	9	...........
	12	0.173333	3.04016E-001	1.00688E-004	0.00000E+000	3.06107E-005	5.99601E-002	3.04073E-001	3.57850E+000	9	...........
	13	0.186667	3.17985E-001	1.00171E-004	0.00000E+000	3.18528E-005	5.99601E-002	3.18046E-001	3.57850E+000	9	...........
	14	0.2	3.31968E-001	1.00563E-004	0.00000E+000	3.33835E-005	5.99601E-002	3.32025E-001	3.57850E+000	9	...........
	15	0.213333	3.45970E-001	1.00866E-004	0.00000E+000	3.48966E-005	5.99601E-002	3.46036E-001	3.57850E+000	9	...........
	16	0.226667	3.59983E-001	1.00889E-004	0.00000E+000	3.63182E-005	5.99601E-002	3.60055E-001	3.57850E+000	9	...........
	17	0.24	3.74003E-001	1.01076E-004	0.00000E+000	3.78028E-005	5.99601E-002	3.74074E-001	3.57850E+000	9	...........
	18	0.253333	3.88026E-001	1.00466E-004	0.00000E+000	3.89832E-005	5.99601E-002	3.88092E-001	3.57850E+000	9	...........
	19	0.266667	4.02022E-001	9.97311E-005	0.00000E+000	4.00941E-005	5.99601E-002	4.02097E-001	3.57850E+000	9	...........
	20	0.28	4.15989E-001	1.00523E-004	0.00000E+000	4.18164E-005	5.99601E-002	4.16072E-001	3.57850E+000	9	...........
	21	0.293333	4.29901E-001	1.00239E-004	0.00000E+000	4.30926E-005	5.99601E-002	4.29993E-001	3.57850E+000	9	...........
	22	0.306667	4.43742E-001	1.00768E-004	0.00000E+000	4.47149E-005	5.99601E-002	4.43836E-001	3.57850E+000	9	...........
	23	0.32	4.57487E-001	1.01377E-004	0.00000E+000	4.63788E-005	5.99601E-002	4.57580E-001	3.57850E+000	9	...........
	24	0.333333	4.71113E-001	1.00358E-004	0.00000E+000	4.72801E-005	5.99601E-002	4.71209E-001	3.57850E+000	9	...........
	25	0.346667	4.84602E-001	1.00674E-004	0.00000E+000	4.87869E-005	5.99601E-002	4.84706E-001	3.57850E+000	9	...........
	26	0.36	4.97942E-001	1.00753E-004	0.00000E+000	5.01692E-005	5.99601E-002	4.98046E-001	3.57850E+000	9	...........
	27	0.373333	5.11105E-001	1.00808E-004	0.00000E+000	5.15237E-005	5.99601E-002	5.11217E-001	3.57850E+000	9	...........
	28	0.386667	5.24087E-001	1.00332E-004	0.00000E+000	5.25829E-005	5.99601E-002	5.24195E-001	3.57850E+000	9	...........
	29	0.4	5.36639E-001	1.00316E-004	0.00000E+000	5.38333E-005	5.99601E-002	5.36814E-001	3.57850E+000	9	...........
	30	0.413333	5.49091E-001	1.00899E-004	0.00000E+000	5.54027E-005	5.99601E-002	5.49347E-001	3.57850E+000	9	...........
	31	0.426667	5.61429E-001	1.00800E-004	0.00000E+000	5.65921E-005	5.99601E-002	5.61697E-001	3.57850E+000	9	...........
	32	0.44	5.73561E-001	1.00290E-004	0.00000E+000	5.75222E-005	5.99601E-002	5.73843E-001	3.57850E+000	9	...........
	33	0.453333	5.85460E-001	9.97322E-005	0.00000E+000	5.83892E-005	5.99601E-002	5.85720E-001	3.57850E+000	9	...........
	34	0.466667	5.97151E-001	1.00009E-004	0.00000E+000	5.97206E-005	5.99601E-002	5.97418E-001	3.57850E+000	9	...........
	35	0.48	6.08566E-001	1.00961E-004	0.00000E+000	6.14412E-005	5.99601E-002	6.08869E-001	3.57850E+000	9	...........
	36	0.493333	6.19843E-001	1.00821E-004	0.00000E+000	6.24931E-005	5.99601E-002	6.20094E-001	3.57850E+000	9	...........
	37	0.506667	6.30807E-001	1.00839E-004	0.00000E+000	6.36097E-005	5.99601E-002	6.31092E-001	3.57850E+000	9	...........
	38	0.52	6.41620E-001	9.93102E-005	0.00000E+000	6.37194E-005	5.99601E-002	6.41888E-001	3.57850E+000	9	...........
	39	0.533333	6.52187E-001	1.00120E-004	0.00000E+000	6.52968E-005	5.99601E-002	6.52461E-001	3.57850E+000	9	...........
	40	0.546667	6.62560E-001	1.00957E-004	0.00000E+000	6.68904E-005	5.99601E-002	6.62823E-001	3.57850E+000	9	...........
	41	0.56	6.72721E-001	1.01169E-004	0.00000E+000	6.80585E-005	5.99601E-002	6.73005E-001	3.57850E+000	9	...........
	42	0.573333	6.82661E-001	1.00594E-004	0.00000E+000	6.86715E-005	5.99601E-002	6.82958E-001	3.57850E+000	9	...........
	43	0.586667	6.92399E-001	1.00987E-004	0.00000E+000	6.99230E-005	5.99601E-002	6.92710E-001	3.57850E+000	9	...........
	44	0.6	7.01967E-001	1.00603E-004	0.00000E+000	7.06201E-005	5.99601E-002	7.02278E-001	3.57850E+000	9	...........
	45	0.613333	7.11328E-001	1.00745E-004	0.00000E+000	7.16627E-005	5.99601E-002	7.11646E-001	3.57850E+000	9	...........
	46	0.626667	7.20548E-001	1.01218E-004	0.00000E+000	7.29323E-005	5.99601E-002	7.20836E-001	3.58120E+000	9	...........
	47	0.64	7.29532E-001	1.00921E-004	0.00000E+000	7.36251E-005	5.99601E-002	7.29840E-001	3.58210E+000	9	...........
	48	0.653333	7.38347E-001	1.00626E-004	0.00000E+000	7.42970E-005	5.99601E-002	7.38659E-001	3.58210E+000	9	...........
	49	0.666667	7.47041E-001	1.01309E-004	0.00000E+000	7.56817E-005	5.99601E-002	7.47348E-001	3.58210E+000	9	...........
	50	0.68	7.55518E-001	9.97551E-005	0.00000E+000	7.53668E-005	5.99601E-002	7.55825E-001	3.58210E+000	9	...........
	51	0.693333	7.63822E-001	1.01061E-004	0.00000E+000	7.71923E-005	5.99601E-002	7.64144E-001	3.58210E+000	9	...........
	52	0.706667	7.72017E-001	1.00851E-004	0.00000E+000	7.78588E-005	5.99601E-002	7.72312E-001	3.58210E+000	9	...........
	53	0.72	7.80033E-001	1.00969E-004	0.00000E+000	7.87591E-005	5.99601E-002	7.80335E-001	3.58210E+000	9	...........
	54	0.733333	7.87888E-001	1.01420E-004	0.00000E+000	7.99076E-005	5.99601E-002	7.88211E-001	3.58210E+000	9	...........
	55	0.746667	7.95644E-001	1.00979E-004	0.00000E+000	8.03436E-005	5.99601E-002	7.95950E-001	3.58210E+000	9	...........
	56	0.76	8.03216E-001	1.00475E-004	0.00000E+000	8.07031E-005	5.99601E-002	8.03511E-001	3.58210E+000	9	...........
	57	0.773333	8.10639E-001	1.00809E-004	0.00000E+000	8.17200E-005	5.99601E-002	8.10935E-001	3.58210E+000	9	...........
	58	0.786667	8.17951E-001	1.01620E-004	0.00000E+000	8.31202E-005	5.99601E-002	8.18270E-001	3.58210E+000	9	...........
	59	0.8	8.25136E-001	1.01388E-004	0.00000E+000	8.36587E-005	5.99601E-002	8.25421E-001	3.58210E+000	9	...........
	60	0.813333	8.32165E-001	1.00420E-004	0.00000E+000	8.35659E-005	5.99601E-002	8.32471E-001	3.58210E+000	9	...........
	61	0.826667	8.39075E-001	1.01106E-004	0.00000E+000	8.48359E-005	5.99601E-002	8.39381E-001	3.58210E+000	9	...........
	62	0.84	8.45875E-001	1.01118E-004	0.00000E+000	8.55331E-005	5.99601E-002	8.46223E-001	3.58210E+000	9	...........
	63	0.853333	8.52570E-001	1.01376E-004	0.00000E+000	8.64304E-005	5.99601E-002	8.52909E-001	3.58210E+000	9	...........
	64	0.866667	8.59123E-001	1.00540E-004	0.00000E+000	8.63759E-005	5.99601E-002	8.59496E-001	3.58210E+000	9	...........
	65	0.88	8.65581E-001	1.01301E-004	0.00000E+000	8.76845E-005	5.99601E-002	8.65953E-001	3.58210E+000	9	...........
	66	0.893333	8.71957E-001	1.01449E-004	0.00000E+000	8.84594E-005	5.99601E-002	8.72313E-001	3.58210E+000	9	...........
	67	0.906667	8.78165E-001	1.00786E-004	0.00000E+000	8.85063E-005	5.99601E-002	8.78537E-001	3.58210E+000	9	...........
	68	0.92	8.84305E-001	1.01057E-004	0.00000E+000	8.93656E-005	5.99601E-002	8.84668E-001	3.58210E+000	9	...........
	69	0.933333	8.90307E-001	1.00211E-004	0.00000E+000	8.92189E-005	5.99601E-002	8.90676E-001	3.58210E+000	9	...........
	70	0.946667	8.96200E-001	1.00618E-004	0.00000E+000	9.01737E-005	5.99601E-002	8.96585E-001	3.58210E+000	9	...........
	71	0.96	9.01990E-001	1.01475E-004	0.00000E+000	9.15296E-005	5.99601E-002	9.02348E-001	3.58210E+000	9	...........
	72	0.97333	9.07703E-001	1.00424E-004	0.00000E+000	9.11552E-005	5.99601E-002	9.08047E-001	3.58210E+000	9	...........
	73	0.98667	9.13303E-001	1.01363E-004	0.00000E+000	9.25748E-005	5.99601E-002	9.13645E-001	3.58210E+000	9	...........
	74	1	9.18789E-001	1.00823E-004	0.00000E+000	9.26350E-005	5.99601E-002	9.19135E-001	3.58210E+000	9	...........
	75	1.01333	9.24223E-001	9.99739E-005	0.00000E+000	9.23982E-005	5.99601E-002	9.24527E-001	3.58210E+000	9	...........
	76	1.02667	9.29536E-001	1.00645E-004	0.00000E+000	9.35530E-005	5.99601E-002	9.29815E-001	3.58210E+000	9	...........
	77	1.04	9.34702E-001	1.00882E-004	0.00000E+000	9.42950E-005	5.99601E-002	9.35042E-001	3.58210E+000	9	...........
	78	1.05333	9.39803E-001	1.00189E-004	0.00000E+000	9.41574E-005	5.99601E-002	9.40131E-001	3.58210E+000	9	...........
	79	1.06667	9.44816E-001	1.00549E-004	0.00000E+000	9.50003E-005	5.99601E-002	9.45150E-001	3.58210E+000	9	...........
	80	1.08	9.49749E-001	1.00822E-004	0.00000E+000	9.57555E-005	5.99601E-002	9.50079E-001	3.58210E+000	9	...........
	81	1.09333	9.54556E-001	1.00673E-004	0.00000E+000	9.60980E-005	5.99601E-002	9.54908E-001	3.58210E+000	9	...........
	82	1.10667	9.59278E-001	1.00750E-004	0.00000E+000	9.66474E-005	5.99601E-002	9.59640E-001	3.58210E+000	9	...........
	83	1.12	9.63901E-001	1.01393E-004	0.00000E+000	9.77328E-005	5.99601E-002	9.64251E-001	3.58210E+000	9	...........
	84	1.13333	9.68441E-001	1.00845E-004	0.00000E+000	9.76623E-005	5.99601E-002	9.68806E-001	3.58210E+000	9	...........
	85	1.14667	9.72925E-001	1.01299E-004	0.00000E+000	9.85565E-005	5.99601E-002	9.73309E-001	3.58210E+000	9	...........
	86	1.16	9.77306E-001	1.00980E-004	0.00000E+000	9.86887E-005	5.99601E-002	9.77666E-001	3.58210E+000	9	...........
	87	1.17333	9.81568E-001	1.01129E-004	0.00000E+000	9.92653E-005	5.99601E-002	9.81926E-001	3.58210E+000	9	...........
	88	1.18667	9.85753E-001	1.00814E-004	0.00000E+000	9.93774E-005	5.99601E-002	9.86132E-001	3.58210E+000	9	...........
	89	1.2	9.89864E-001	1.00853E-004	0.00000E+000	9.98309E-005	5.99601E-002	9.90221E-001	3.58210E+000	9	...........
	90	1.21333	9.93855E-001	1.00068E-004	0.00000E+000	9.94527E-005	5.99601E-002	9.94231E-001	3.58210E+000	9	...........
	91	1.22667	9.97811E-001	1.00857E-004	0.00000E+000	1.00637E-004	5.99601E-002	9.98179E-001	3.58210E+000	9	...........
	92	1.23	1.00022E+000	1.01194E-004	0.00000E+000	1.01216E-004	5.99601E-002	1.00062E+000	3.58210E+000	9	...........
STARTTIMEOFFSET	QUANT	1139.308	Start Time Offset (s)
