EXPLAIN
TAG	PWR800_CHARGE
TITLE	LABEL	PWR Cyclic Charge Discharge (Cell) - Charge Step	Test &Identifier
DATE	LABEL	13-7-2017	Date
TIME	LABEL	15:14:13	Time
NOTES	NOTES	2	&Notes...
	supercap test cell
	6M KOH
PSTAT	PSTAT	IFC5000-01520	Potentiostat
CAPACITY	QUANT	1.00000E-003	Capacity (A-hr)
CELLTYPE	SELECTOR	1	&Cell Type
WORKINGCONNECTION	SELECTOR	0	&Working Lead
MAXCHARGETIME	VARIABLEANDUNITS	1.00000E+002	s	1.00000E+002	second(s)	Max &Charge Time
CHARGECURRENT	QUANT	1.00000E-004	&Charge Current (A) 
VOLTAGEFINISH	TWOPARAM	F	1.00000E-003	3.60000E+003	&Voltage Finish	 I (A) < 	Max Time(s)
SAMPLETIME	QUANT	1.00000E-002	Sa&mple Period (s)
CHARGESTOPAT1	MULTIPARAM	4	1.00000E+000	Charge Stop At &1	Voltage > Limit	V
CHARGESTOPAT2	MULTIPARAM	0	0.00000E+000	Charge Stop At &2	None	N/A
AESBHCSELECTOR	TOGGLE	F	Save Both Half Cells
IRCOMP	TOGGLE	F	IR &Measure
EOC	QUANT	0	Open Circuit (V)
SEQUENCER	TOGGLE	TRUE	Run as Sequence
PSTATMODEL	IQUANT	53	Pstat Model
PSTATSECTION	LABEL	IFC5000-01520	Pstat Section
PSTATSERIALNO	LABEL	01520	Pstat Serial Number
CTRLMODE	IQUANT	0	Control Mode
ELECTROMETER	IQUANT	1	RE=0 or CS=1
IESTAB	IQUANT	0	I/E Stability
CASPEED	IQUANT	4	Control Amp Speed
CONVENTION	IQUANT	1	Current Convention
ICHRANGE	IQUANT	2	Ich Range
ICHRANGEMODE	TOGGLE	T	Ich Auto Range
ICHOFFSETENABLE	TOGGLE	F	Ich Offset Enable
ICHOFFSET	QUANT	0	Ich Offset (V)
ICHFILTER	IQUANT	1	Ich Filter
VCHRANGE	IQUANT	2	Vch Range
VCHRANGEMODE	TOGGLE	T	Vch Auto Range
VCHOFFSETENABLE	TOGGLE	F	Vch Offset Enable
VCHOFFSET	QUANT	0	Vch Offset (V)
VCHFILTER	IQUANT	1	Vch Filter
IERANGELOWERLIMIT	IQUANT	9	I/E Range Lower Limit
IERANGEMODE	TOGGLE	F	I/E AutoRange
IERANGE	IQUANT	9	I/E Range
ACHSELECT	IQUANT	1	Ach Select
ACHRANGE	IQUANT	2	Ach Range
ACHOFFSETENABLE	TOGGLE	F	Ach Offset Enable
ACHOFFSET	QUANT	0	Ach Offset (V)
ACHFILTER	IQUANT	1	Ach Filter
CABLEID	IQUANT	14	Cable ID
DCCALDATE	LABEL	5-7-2017	DC Calibration Date
ACCALDATE	LABEL	12/3/2015	AC Calibration Date
FRAMEWORKVERSION	QUANT	7.01	Framework Version
INSTRUMENTVERSION	LABEL	4.00	Instrument Version
CURVE	TABLE	96
	Pt	T	Vf	Im	Vu	Pwr	Sig	Ach	Temp	IERange	Over
	#	s	V	A	V	W	V	V	deg C	#	bits
	0	0.013333	1.32728E-001	1.02027E-004	0.00000E+000	1.35419E-005	5.99601E-002	1.32775E-001	3.57860E+000	9	...........
	1	0.026667	1.47962E-001	1.00963E-004	0.00000E+000	1.49386E-005	5.99601E-002	1.47982E-001	3.57860E+000	9	...........
	2	0.04	1.62752E-001	1.00927E-004	0.00000E+000	1.64261E-005	5.99601E-002	1.62776E-001	3.57860E+000	9	...........
	3	0.053333	1.77268E-001	1.01488E-004	0.00000E+000	1.79905E-005	5.99601E-002	1.77304E-001	3.57860E+000	9	...........
	4	0.066667	1.91604E-001	1.01263E-004	0.00000E+000	1.94023E-005	5.99601E-002	1.91633E-001	3.57860E+000	9	...........
	5	0.08	2.05783E-001	1.00840E-004	0.00000E+000	2.07511E-005	5.99601E-002	2.05820E-001	3.57860E+000	9	...........
	6	0.093333	2.19863E-001	1.01883E-004	0.00000E+000	2.24002E-005	5.99601E-002	2.19899E-001	3.57860E+000	9	...........
	7	0.106667	2.33863E-001	1.01052E-004	0.00000E+000	2.36324E-005	5.99601E-002	2.33904E-001	3.57860E+000	9	...........
	8	0.12	2.47806E-001	1.00367E-004	0.00000E+000	2.48715E-005	5.99601E-002	2.47855E-001	3.57860E+000	9	...........
	9	0.133333	2.61722E-001	1.00863E-004	0.00000E+000	2.63979E-005	5.99601E-002	2.61771E-001	3.57860E+000	9	...........
	10	0.146667	2.75617E-001	1.01783E-004	0.00000E+000	2.80531E-005	5.99601E-002	2.75672E-001	3.57860E+000	9	...........
	11	0.16	2.89502E-001	1.00817E-004	0.00000E+000	2.91866E-005	5.99601E-002	2.89554E-001	3.57860E+000	9	...........
	12	0.173333	3.03380E-001	1.00319E-004	0.00000E+000	3.04347E-005	5.99601E-002	3.03440E-001	3.57860E+000	9	...........
	13	0.186667	3.17265E-001	1.01531E-004	0.00000E+000	3.22124E-005	5.99601E-002	3.17321E-001	3.57860E+000	9	...........
	14	0.2	3.31153E-001	1.01231E-004	0.00000E+000	3.35231E-005	5.99601E-002	3.31206E-001	3.57860E+000	9	...........
	15	0.213333	3.45041E-001	1.01229E-004	0.00000E+000	3.49283E-005	5.99601E-002	3.45102E-001	3.57860E+000	9	...........
	16	0.226667	3.58931E-001	1.00954E-004	0.00000E+000	3.62356E-005	5.99601E-002	3.58996E-001	3.57860E+000	9	...........
	17	0.24	3.72809E-001	1.00638E-004	0.00000E+000	3.75186E-005	5.99601E-002	3.72881E-001	3.57860E+000	9	...........
	18	0.253333	3.86672E-001	1.00748E-004	0.00000E+000	3.89564E-005	5.99601E-002	3.86743E-001	3.57860E+000	9	...........
	19	0.266667	4.00496E-001	1.01449E-004	0.00000E+000	4.06300E-005	5.99601E-002	4.00576E-001	3.57860E+000	9	...........
	20	0.28	4.14275E-001	1.00901E-004	0.00000E+000	4.18008E-005	5.99601E-002	4.14351E-001	3.57860E+000	9	...........
	21	0.293333	4.27978E-001	1.00279E-004	0.00000E+000	4.29173E-005	5.99601E-002	4.28059E-001	3.57860E+000	9	...........
	22	0.306667	4.41591E-001	1.00430E-004	0.00000E+000	4.43491E-005	5.99601E-002	4.41688E-001	3.57860E+000	9	...........
	23	0.32	4.55107E-001	1.01127E-004	0.00000E+000	4.60237E-005	5.99601E-002	4.55201E-001	3.57860E+000	9	...........
	24	0.333333	4.68488E-001	1.02174E-004	0.00000E+000	4.78675E-005	5.99601E-002	4.68590E-001	3.57860E+000	9	...........
	25	0.346667	4.81728E-001	1.01180E-004	0.00000E+000	4.87415E-005	5.99601E-002	4.81829E-001	3.57860E+000	9	...........
	26	0.36	4.94802E-001	1.01756E-004	0.00000E+000	5.03489E-005	5.99601E-002	4.94910E-001	3.57860E+000	9	...........
	27	0.373333	5.07701E-001	1.00376E-004	0.00000E+000	5.09610E-005	5.99601E-002	5.07811E-001	3.57860E+000	9	...........
	28	0.386667	5.20410E-001	1.00372E-004	0.00000E+000	5.22345E-005	5.99601E-002	5.20521E-001	3.57860E+000	9	...........
	29	0.4	5.32779E-001	1.00808E-004	0.00000E+000	5.37086E-005	5.99601E-002	5.32947E-001	3.57860E+000	9	...........
	30	0.413333	5.44874E-001	1.00971E-004	0.00000E+000	5.50165E-005	5.99601E-002	5.45139E-001	3.57860E+000	9	...........
	31	0.426667	5.56935E-001	1.00491E-004	0.00000E+000	5.59667E-005	5.99601E-002	5.57209E-001	3.57860E+000	9	...........
	32	0.44	5.68813E-001	1.00252E-004	0.00000E+000	5.70247E-005	5.99601E-002	5.69087E-001	3.57860E+000	9	...........
	33	0.453333	5.80453E-001	1.00931E-004	0.00000E+000	5.85860E-005	5.99601E-002	5.80723E-001	3.57860E+000	9	...........
	34	0.466667	5.91866E-001	1.01317E-004	0.00000E+000	5.99661E-005	5.99601E-002	5.92150E-001	3.57860E+000	9	...........
	35	0.48	6.03051E-001	1.00846E-004	0.00000E+000	6.08152E-005	5.99601E-002	6.03336E-001	3.57860E+000	9	...........
	36	0.493333	6.14026E-001	1.01919E-004	0.00000E+000	6.25809E-005	5.99601E-002	6.14311E-001	3.57860E+000	9	...........
	37	0.506667	6.24801E-001	1.00603E-004	0.00000E+000	6.28570E-005	5.99601E-002	6.25067E-001	3.57860E+000	9	...........
	38	0.52	6.35323E-001	1.01130E-004	0.00000E+000	6.42504E-005	5.99601E-002	6.35613E-001	3.57860E+000	9	...........
	39	0.533333	6.45670E-001	1.00357E-004	0.00000E+000	6.47977E-005	5.99601E-002	6.45958E-001	3.57860E+000	9	...........
	40	0.546667	6.55788E-001	9.99645E-005	0.00000E+000	6.55555E-005	5.99601E-002	6.56070E-001	3.57860E+000	9	...........
	41	0.56	6.65714E-001	1.01396E-004	0.00000E+000	6.75007E-005	5.99601E-002	6.66013E-001	3.57860E+000	9	...........
	42	0.573333	6.75454E-001	1.01415E-004	0.00000E+000	6.85010E-005	5.99601E-002	6.75734E-001	3.57860E+000	9	...........
	43	0.586667	6.84950E-001	1.00574E-004	0.00000E+000	6.88881E-005	5.99601E-002	6.85244E-001	3.57860E+000	9	...........
	44	0.6	6.94304E-001	1.00920E-004	0.00000E+000	7.00691E-005	5.99601E-002	6.94607E-001	3.57860E+000	9	...........
	45	0.613333	7.03446E-001	1.01105E-004	0.00000E+000	7.11222E-005	5.99601E-002	7.03746E-001	3.57860E+000	9	...........
	46	0.626667	7.12421E-001	1.01494E-004	0.00000E+000	7.23065E-005	5.99601E-002	7.12749E-001	3.57860E+000	9	...........
	47	0.64	7.21267E-001	1.00605E-004	0.00000E+000	7.25632E-005	5.99601E-002	7.21566E-001	3.57860E+000	9	...........
	48	0.653333	7.29869E-001	1.01299E-004	0.00000E+000	7.39351E-005	5.99601E-002	7.30189E-001	3.57860E+000	9	...........
	49	0.666667	7.38332E-001	1.00890E-004	0.00000E+000	7.44901E-005	5.99601E-002	7.38646E-001	3.57860E+000	9	...........
	50	0.68	7.46667E-001	1.00853E-004	0.00000E+000	7.53038E-005	5.99601E-002	7.46979E-001	3.57860E+000	9	...........
	51	0.693333	7.54817E-001	1.00548E-004	0.00000E+000	7.58953E-005	5.99601E-002	7.55139E-001	3.57860E+000	9	...........
	52	0.706667	7.62811E-001	1.01020E-004	0.00000E+000	7.70591E-005	5.99601E-002	7.63115E-001	3.57860E+000	9	...........
	53	0.72	7.70667E-001	1.01364E-004	0.00000E+000	7.81178E-005	5.99601E-002	7.70987E-001	3.57860E+000	9	...........
	54	0.733333	7.78367E-001	1.01060E-004	0.00000E+000	7.86614E-005	5.99601E-002	7.78689E-001	3.57860E+000	9	...........
	55	0.746667	7.85952E-001	9.98864E-005	0.00000E+000	7.85059E-005	5.99601E-002	7.86241E-001	3.58010E+000	9	...........
	56	0.76	7.93377E-001	1.00838E-004	0.00000E+000	8.00023E-005	5.99601E-002	7.93676E-001	3.58010E+000	9	...........
	57	0.773333	8.00687E-001	1.00333E-004	0.00000E+000	8.03356E-005	5.99601E-002	8.00943E-001	3.58010E+000	9	...........
	58	0.786667	8.07825E-001	1.00862E-004	0.00000E+000	8.14785E-005	5.99601E-002	8.08090E-001	3.58010E+000	9	...........
	59	0.8	8.14839E-001	1.00872E-004	0.00000E+000	8.21944E-005	5.99601E-002	8.15118E-001	3.58010E+000	9	...........
	60	0.813333	8.21786E-001	9.98343E-005	0.00000E+000	8.20424E-005	5.99601E-002	8.22071E-001	3.58010E+000	9	...........
	61	0.826667	8.28564E-001	1.00917E-004	0.00000E+000	8.36160E-005	5.99601E-002	8.28868E-001	3.58010E+000	9	...........
	62	0.84	8.35219E-001	1.01370E-004	0.00000E+000	8.46661E-005	5.99601E-002	8.35525E-001	3.58010E+000	9	...........
	63	0.853333	8.41803E-001	1.01323E-004	0.00000E+000	8.52941E-005	5.99601E-002	8.42112E-001	3.58010E+000	9	...........
	64	0.866667	8.48262E-001	1.01654E-004	0.00000E+000	8.62296E-005	5.99601E-002	8.48557E-001	3.58010E+000	9	...........
	65	0.88	8.54602E-001	1.01897E-004	0.00000E+000	8.70816E-005	5.99601E-002	8.54914E-001	3.58010E+000	9	...........
	66	0.893333	8.60840E-001	1.00439E-004	0.00000E+000	8.64615E-005	5.99601E-002	8.61168E-001	3.58010E+000	9	...........
	67	0.906667	8.66964E-001	1.00789E-004	0.00000E+000	8.73801E-005	5.99601E-002	8.67289E-001	3.58010E+000	9	...........
	68	0.92	8.73009E-001	9.95644E-005	0.00000E+000	8.69206E-005	5.99601E-002	8.73314E-001	3.58010E+000	9	...........
	69	0.933333	8.78913E-001	1.01226E-004	0.00000E+000	8.89690E-005	5.99601E-002	8.79214E-001	3.58010E+000	9	...........
	70	0.946667	8.84753E-001	1.00871E-004	0.00000E+000	8.92459E-005	5.99601E-002	8.85034E-001	3.58010E+000	9	...........
	71	0.96	8.90469E-001	1.01508E-004	0.00000E+000	9.03893E-005	5.99601E-002	8.90776E-001	3.58010E+000	9	...........
	72	0.97333	8.96101E-001	1.01342E-004	0.00000E+000	9.08126E-005	5.99601E-002	8.96419E-001	3.58010E+000	9	...........
	73	0.98667	9.01606E-001	1.00385E-004	0.00000E+000	9.05081E-005	5.99601E-002	9.01973E-001	3.58010E+000	9	...........
	74	1	9.07039E-001	1.00964E-004	0.00000E+000	9.15780E-005	5.99601E-002	9.07405E-001	3.58010E+000	9	...........
	75	1.01333	9.12380E-001	1.01231E-004	0.00000E+000	9.23615E-005	5.99601E-002	9.12743E-001	3.58010E+000	9	...........
	76	1.02667	9.17626E-001	1.00012E-004	0.00000E+000	9.17740E-005	5.99601E-002	9.18004E-001	3.58010E+000	9	...........
	77	1.04	9.22841E-001	1.01184E-004	0.00000E+000	9.33763E-005	5.99601E-002	9.23174E-001	3.58010E+000	9	...........
	78	1.05333	9.27887E-001	1.01058E-004	0.00000E+000	9.37708E-005	5.99601E-002	9.28264E-001	3.58010E+000	9	...........
	79	1.06667	9.32857E-001	1.00369E-004	0.00000E+000	9.36297E-005	5.99601E-002	9.33200E-001	3.58010E+000	9	...........
	80	1.08	9.37717E-001	1.00864E-004	0.00000E+000	9.45815E-005	5.99601E-002	9.38099E-001	3.58010E+000	9	...........
	81	1.09333	9.42490E-001	1.00327E-004	0.00000E+000	9.45572E-005	5.99601E-002	9.42866E-001	3.58010E+000	9	...........
	82	1.10667	9.47218E-001	1.00646E-004	0.00000E+000	9.53336E-005	5.99601E-002	9.47621E-001	3.58010E+000	9	...........
	83	1.12	9.51834E-001	1.00589E-004	0.00000E+000	9.57437E-005	5.99601E-002	9.52230E-001	3.58010E+000	9	...........
	84	1.13333	9.56379E-001	1.01065E-004	0.00000E+000	9.66561E-005	5.99601E-002	9.56763E-001	3.58010E+000	9	...........
	85	1.14667	9.60783E-001	1.01215E-004	0.00000E+000	9.72454E-005	5.99601E-002	9.61218E-001	3.58010E+000	9	...........
	86	1.16	9.65158E-001	1.01679E-004	0.00000E+000	9.81367E-005	5.99601E-002	9.65566E-001	3.58010E+000	9	...........
	87	1.17333	9.69438E-001	1.01021E-004	0.00000E+000	9.79336E-005	5.99601E-002	9.69846E-001	3.58010E+000	9	...........
	88	1.18667	9.73673E-001	1.01406E-004	0.00000E+000	9.87367E-005	5.99601E-002	9.74056E-001	3.58010E+000	9	...........
	89	1.2	9.77810E-001	9.99926E-005	0.00000E+000	9.77738E-005	5.99601E-002	9.78173E-001	3.58010E+000	9	...........
	90	1.21333	9.81818E-001	1.01595E-004	0.00000E+000	9.97479E-005	5.99601E-002	9.82177E-001	3.58010E+000	9	...........
	91	1.22667	9.85772E-001	9.98676E-005	0.00000E+000	9.84467E-005	5.99601E-002	9.86152E-001	3.58010E+000	9	...........
	92	1.24	9.89637E-001	1.01052E-004	0.00000E+000	1.00005E-004	5.99601E-002	9.90006E-001	3.58010E+000	9	...........
	93	1.25333	9.93412E-001	1.01085E-004	0.00000E+000	1.00419E-004	5.99601E-002	9.93767E-001	3.58010E+000	9	...........
	94	1.26667	9.97131E-001	1.01652E-004	0.00000E+000	1.01361E-004	5.99601E-002	9.97499E-001	3.58010E+000	9	...........
	95	1.27167	9.99619E-001	1.01209E-004	0.00000E+000	1.01171E-004	5.99601E-002	1.00004E+000	3.58010E+000	9	...........
STARTTIMEOFFSET	QUANT	550.6699	Start Time Offset (s)
