EXPLAIN
TAG	PWR800_CHARGE
TITLE	LABEL	PWR Cyclic Charge Discharge (Cell) - Charge Step	Test &Identifier
DATE	LABEL	13-7-2017	Date
TIME	LABEL	15:42:47	Time
NOTES	NOTES	2	&Notes...
	supercap test cell
	6M KOH
PSTAT	PSTAT	IFC5000-01520	Potentiostat
CAPACITY	QUANT	1.00000E-003	Capacity (A-hr)
CELLTYPE	SELECTOR	1	&Cell Type
WORKINGCONNECTION	SELECTOR	0	&Working Lead
MAXCHARGETIME	VARIABLEANDUNITS	1.00000E+002	s	1.00000E+002	second(s)	Max &Charge Time
CHARGECURRENT	QUANT	1.00000E-004	&Charge Current (A) 
VOLTAGEFINISH	TWOPARAM	F	1.00000E-003	3.60000E+003	&Voltage Finish	 I (A) < 	Max Time(s)
SAMPLETIME	QUANT	1.00000E-002	Sa&mple Period (s)
CHARGESTOPAT1	MULTIPARAM	4	1.00000E+000	Charge Stop At &1	Voltage > Limit	V
CHARGESTOPAT2	MULTIPARAM	0	0.00000E+000	Charge Stop At &2	None	N/A
AESBHCSELECTOR	TOGGLE	F	Save Both Half Cells
IRCOMP	TOGGLE	F	IR &Measure
EOC	QUANT	0	Open Circuit (V)
SEQUENCER	TOGGLE	TRUE	Run as Sequence
PSTATMODEL	IQUANT	53	Pstat Model
PSTATSECTION	LABEL	IFC5000-01520	Pstat Section
PSTATSERIALNO	LABEL	01520	Pstat Serial Number
CTRLMODE	IQUANT	0	Control Mode
ELECTROMETER	IQUANT	1	RE=0 or CS=1
IESTAB	IQUANT	0	I/E Stability
CASPEED	IQUANT	4	Control Amp Speed
CONVENTION	IQUANT	1	Current Convention
ICHRANGE	IQUANT	2	Ich Range
ICHRANGEMODE	TOGGLE	T	Ich Auto Range
ICHOFFSETENABLE	TOGGLE	F	Ich Offset Enable
ICHOFFSET	QUANT	0	Ich Offset (V)
ICHFILTER	IQUANT	1	Ich Filter
VCHRANGE	IQUANT	2	Vch Range
VCHRANGEMODE	TOGGLE	T	Vch Auto Range
VCHOFFSETENABLE	TOGGLE	F	Vch Offset Enable
VCHOFFSET	QUANT	0	Vch Offset (V)
VCHFILTER	IQUANT	1	Vch Filter
IERANGELOWERLIMIT	IQUANT	9	I/E Range Lower Limit
IERANGEMODE	TOGGLE	F	I/E AutoRange
IERANGE	IQUANT	9	I/E Range
ACHSELECT	IQUANT	1	Ach Select
ACHRANGE	IQUANT	2	Ach Range
ACHOFFSETENABLE	TOGGLE	F	Ach Offset Enable
ACHOFFSET	QUANT	0	Ach Offset (V)
ACHFILTER	IQUANT	1	Ach Filter
CABLEID	IQUANT	14	Cable ID
DCCALDATE	LABEL	5-7-2017	DC Calibration Date
ACCALDATE	LABEL	12/3/2015	AC Calibration Date
FRAMEWORKVERSION	QUANT	7.01	Framework Version
INSTRUMENTVERSION	LABEL	4.00	Instrument Version
CURVE	TABLE	90
	Pt	T	Vf	Im	Vu	Pwr	Sig	Ach	Temp	IERange	Over
	#	s	V	A	V	W	V	V	deg C	#	bits
	0	0.013333	1.33422E-001	1.00607E-004	0.00000E+000	1.34232E-005	5.99601E-002	1.33459E-001	3.57900E+000	9	...........
	1	0.026667	1.48702E-001	1.00870E-004	0.00000E+000	1.49995E-005	5.99601E-002	1.48724E-001	3.57900E+000	9	...........
	2	0.04	1.63544E-001	1.00433E-004	0.00000E+000	1.64253E-005	5.99601E-002	1.63564E-001	3.57900E+000	9	...........
	3	0.053333	1.78106E-001	1.00330E-004	0.00000E+000	1.78694E-005	5.99601E-002	1.78133E-001	3.57900E+000	9	...........
	4	0.066667	1.92484E-001	1.00513E-004	0.00000E+000	1.93471E-005	5.99601E-002	1.92514E-001	3.57900E+000	9	...........
	5	0.08	2.06721E-001	1.00621E-004	0.00000E+000	2.08004E-005	5.99601E-002	2.06750E-001	3.57900E+000	9	...........
	6	0.093333	2.20850E-001	1.01594E-004	0.00000E+000	2.24370E-005	5.99601E-002	2.20888E-001	3.57900E+000	9	...........
	7	0.106667	2.34922E-001	1.00631E-004	0.00000E+000	2.36405E-005	5.99601E-002	2.34961E-001	3.57900E+000	9	...........
	8	0.12	2.48937E-001	1.01250E-004	0.00000E+000	2.52049E-005	5.99601E-002	2.48984E-001	3.57900E+000	9	...........
	9	0.133333	2.62929E-001	1.00669E-004	0.00000E+000	2.64688E-005	5.99601E-002	2.62977E-001	3.57900E+000	9	...........
	10	0.146667	2.76912E-001	1.00178E-004	0.00000E+000	2.77405E-005	5.99601E-002	2.76968E-001	3.57900E+000	9	...........
	11	0.16	2.90897E-001	1.00768E-004	0.00000E+000	2.93131E-005	5.99601E-002	2.90951E-001	3.57900E+000	9	...........
	12	0.173333	3.04903E-001	1.01866E-004	0.00000E+000	3.10593E-005	5.99601E-002	3.04959E-001	3.57900E+000	9	...........
	13	0.186667	3.18927E-001	1.00330E-004	0.00000E+000	3.19980E-005	5.99601E-002	3.18988E-001	3.57900E+000	9	...........
	14	0.2	3.32975E-001	1.00949E-004	0.00000E+000	3.36136E-005	5.99601E-002	3.33036E-001	3.57900E+000	9	...........
	15	0.213333	3.47049E-001	1.01323E-004	0.00000E+000	3.51640E-005	5.99601E-002	3.47114E-001	3.57900E+000	9	...........
	16	0.226667	3.61146E-001	1.00499E-004	0.00000E+000	3.62949E-005	5.99601E-002	3.61217E-001	3.57900E+000	9	...........
	17	0.24	3.75271E-001	1.00833E-004	0.00000E+000	3.78399E-005	5.99601E-002	3.75341E-001	3.57900E+000	9	...........
	18	0.253333	3.89399E-001	1.01627E-004	0.00000E+000	3.95736E-005	5.99601E-002	3.89474E-001	3.57900E+000	9	...........
	19	0.266667	4.03516E-001	1.01041E-004	0.00000E+000	4.07716E-005	5.99601E-002	4.03593E-001	3.57900E+000	9	...........
	20	0.28	4.17612E-001	1.01217E-004	0.00000E+000	4.22694E-005	5.99601E-002	4.17704E-001	3.57900E+000	9	...........
	21	0.293333	4.31680E-001	1.01363E-004	0.00000E+000	4.37563E-005	5.99601E-002	4.31766E-001	3.57900E+000	9	...........
	22	0.306667	4.45673E-001	1.00303E-004	0.00000E+000	4.47024E-005	5.99601E-002	4.45766E-001	3.57900E+000	9	...........
	23	0.32	4.59594E-001	1.00552E-004	0.00000E+000	4.62131E-005	5.99601E-002	4.59688E-001	3.57900E+000	9	...........
	24	0.333333	4.73409E-001	1.01570E-004	0.00000E+000	4.80842E-005	5.99601E-002	4.73502E-001	3.57900E+000	9	...........
	25	0.346667	4.87096E-001	1.00587E-004	0.00000E+000	4.89953E-005	5.99601E-002	4.87195E-001	3.57900E+000	9	...........
	26	0.36	5.00633E-001	1.01328E-004	0.00000E+000	5.07283E-005	5.99601E-002	5.00733E-001	3.57900E+000	9	...........
	27	0.373333	5.14005E-001	1.01381E-004	0.00000E+000	5.21106E-005	5.99601E-002	5.14118E-001	3.57900E+000	9	...........
	28	0.386667	5.27199E-001	1.01182E-004	0.00000E+000	5.33433E-005	5.99601E-002	5.27309E-001	3.57900E+000	9	...........
	29	0.4	5.39872E-001	1.01523E-004	0.00000E+000	5.48095E-005	5.99601E-002	5.40066E-001	3.57900E+000	9	...........
	30	0.413333	5.52629E-001	1.00706E-004	0.00000E+000	5.56533E-005	5.99601E-002	5.52874E-001	3.57900E+000	9	...........
	31	0.426667	5.65214E-001	1.01526E-004	0.00000E+000	5.73841E-005	5.99601E-002	5.65481E-001	3.57900E+000	9	...........
	32	0.44	5.77545E-001	1.00837E-004	0.00000E+000	5.82376E-005	5.99601E-002	5.77786E-001	3.57900E+000	9	...........
	33	0.453333	5.89669E-001	1.00358E-004	0.00000E+000	5.91782E-005	5.99601E-002	5.89923E-001	3.57900E+000	9	...........
	34	0.466667	6.01540E-001	1.01062E-004	0.00000E+000	6.07926E-005	5.99601E-002	6.01775E-001	3.57900E+000	9	...........
	35	0.48	6.13211E-001	1.00539E-004	0.00000E+000	6.16513E-005	5.99601E-002	6.13452E-001	3.57900E+000	9	...........
	36	0.493333	6.24644E-001	1.00368E-004	0.00000E+000	6.26940E-005	5.99601E-002	6.24873E-001	3.57900E+000	9	...........
	37	0.506667	6.35821E-001	1.00957E-004	0.00000E+000	6.41909E-005	5.99601E-002	6.36078E-001	3.57900E+000	9	...........
	38	0.52	6.46817E-001	1.00220E-004	0.00000E+000	6.48238E-005	5.99601E-002	6.47063E-001	3.57900E+000	9	...........
	39	0.533333	6.57567E-001	1.01520E-004	0.00000E+000	6.67562E-005	5.99601E-002	6.57822E-001	3.57900E+000	9	...........
	40	0.546667	6.68125E-001	1.01006E-004	0.00000E+000	6.74849E-005	5.99601E-002	6.68382E-001	3.57900E+000	9	...........
	41	0.56	6.78443E-001	1.00447E-004	0.00000E+000	6.81475E-005	5.99601E-002	6.78712E-001	3.57900E+000	9	...........
	42	0.573333	6.88560E-001	1.01748E-004	0.00000E+000	7.00597E-005	5.99601E-002	6.88815E-001	3.57900E+000	9	...........
	43	0.586667	6.98487E-001	1.01413E-004	0.00000E+000	7.08355E-005	5.99601E-002	6.98753E-001	3.57900E+000	9	...........
	44	0.6	7.08187E-001	1.00456E-004	0.00000E+000	7.11418E-005	5.99601E-002	7.08461E-001	3.57900E+000	9	...........
	45	0.613333	7.17718E-001	1.01612E-004	0.00000E+000	7.29286E-005	5.99601E-002	7.17990E-001	3.57900E+000	9	...........
	46	0.626667	7.27090E-001	1.00666E-004	0.00000E+000	7.31930E-005	5.99601E-002	7.27336E-001	3.57900E+000	9	...........
	47	0.64	7.36226E-001	1.00809E-004	0.00000E+000	7.42186E-005	5.99601E-002	7.36484E-001	3.57900E+000	9	...........
	48	0.653333	7.45187E-001	1.00682E-004	0.00000E+000	7.50272E-005	5.99601E-002	7.45466E-001	3.57900E+000	9	...........
	49	0.666667	7.54003E-001	1.00936E-004	0.00000E+000	7.61057E-005	5.99601E-002	7.54271E-001	3.57900E+000	9	...........
	50	0.68	7.62614E-001	1.01192E-004	0.00000E+000	7.71704E-005	5.99601E-002	7.62907E-001	3.57900E+000	9	...........
	51	0.693333	7.71063E-001	1.00854E-004	0.00000E+000	7.77650E-005	5.99601E-002	7.71354E-001	3.57913E+000	9	...........
	52	0.706667	7.79357E-001	1.00396E-004	0.00000E+000	7.82442E-005	5.99601E-002	7.79655E-001	3.58000E+000	9	...........
	53	0.72	7.87495E-001	1.00333E-004	0.00000E+000	7.90120E-005	5.99601E-002	7.87797E-001	3.58000E+000	9	...........
	54	0.733333	7.95484E-001	1.01017E-004	0.00000E+000	8.03573E-005	5.99601E-002	7.95810E-001	3.58000E+000	9	...........
	55	0.746667	8.03328E-001	1.01112E-004	0.00000E+000	8.12258E-005	5.99601E-002	8.03647E-001	3.58000E+000	9	...........
	56	0.76	8.10994E-001	1.00665E-004	0.00000E+000	8.16384E-005	5.99601E-002	8.11305E-001	3.58000E+000	9	...........
	57	0.773333	8.18551E-001	1.00196E-004	0.00000E+000	8.20154E-005	5.99601E-002	8.18863E-001	3.58000E+000	9	...........
	58	0.786667	8.25963E-001	1.01265E-004	0.00000E+000	8.36410E-005	5.99601E-002	8.26273E-001	3.58000E+000	9	...........
	59	0.8	8.33221E-001	1.01234E-004	0.00000E+000	8.43499E-005	5.99601E-002	8.33546E-001	3.58000E+000	9	...........
	60	0.813333	8.40353E-001	1.00568E-004	0.00000E+000	8.45124E-005	5.99601E-002	8.40667E-001	3.58000E+000	9	...........
	61	0.826667	8.47393E-001	1.00528E-004	0.00000E+000	8.51869E-005	5.99601E-002	8.47707E-001	3.58000E+000	9	...........
	62	0.84	8.54257E-001	1.01199E-004	0.00000E+000	8.64501E-005	5.99601E-002	8.54578E-001	3.58000E+000	9	...........
	63	0.853333	8.61033E-001	1.00736E-004	0.00000E+000	8.67366E-005	5.99601E-002	8.61358E-001	3.58000E+000	9	...........
	64	0.866667	8.67670E-001	1.01221E-004	0.00000E+000	8.78264E-005	5.99601E-002	8.68013E-001	3.58000E+000	9	...........
	65	0.88	8.74216E-001	1.00770E-004	0.00000E+000	8.80946E-005	5.99601E-002	8.74548E-001	3.58000E+000	9	...........
	66	0.893333	8.80619E-001	1.00731E-004	0.00000E+000	8.87060E-005	5.99601E-002	8.80946E-001	3.58000E+000	9	...........
	67	0.906667	8.86910E-001	1.00046E-004	0.00000E+000	8.87316E-005	5.99601E-002	8.87250E-001	3.58000E+000	9	...........
	68	0.92	8.93071E-001	1.01131E-004	0.00000E+000	9.03176E-005	5.99601E-002	8.93409E-001	3.58000E+000	9	...........
	69	0.933333	8.99139E-001	9.97728E-005	0.00000E+000	8.97096E-005	5.99601E-002	8.99490E-001	3.58000E+000	9	...........
	70	0.946667	9.05081E-001	1.00832E-004	0.00000E+000	9.12615E-005	5.99601E-002	9.05435E-001	3.58000E+000	9	...........
	71	0.96	9.10939E-001	1.00729E-004	0.00000E+000	9.17582E-005	5.99601E-002	9.11285E-001	3.58000E+000	9	...........
	72	0.97333	9.16681E-001	1.00331E-004	0.00000E+000	9.19718E-005	5.99601E-002	9.17035E-001	3.58000E+000	9	...........
	73	0.98667	9.22352E-001	9.96697E-005	0.00000E+000	9.19305E-005	5.99601E-002	9.22675E-001	3.58000E+000	9	...........
	74	1	9.27888E-001	1.01282E-004	0.00000E+000	9.39788E-005	5.99601E-002	9.28222E-001	3.58000E+000	9	...........
	75	1.01333	9.33280E-001	1.01953E-004	0.00000E+000	9.51511E-005	5.99601E-002	9.33629E-001	3.58000E+000	9	...........
	76	1.02667	9.38607E-001	1.01053E-004	0.00000E+000	9.48493E-005	5.99601E-002	9.38945E-001	3.58000E+000	9	...........
	77	1.04	9.43807E-001	1.01070E-004	0.00000E+000	9.53905E-005	5.99601E-002	9.44171E-001	3.58000E+000	9	...........
	78	1.05333	9.48957E-001	1.01231E-004	0.00000E+000	9.60643E-005	5.99601E-002	9.49306E-001	3.58000E+000	9	...........
	79	1.06667	9.53964E-001	1.00602E-004	0.00000E+000	9.59708E-005	5.99601E-002	9.54321E-001	3.58000E+000	9	...........
	80	1.08	9.58878E-001	1.00995E-004	0.00000E+000	9.68418E-005	5.99601E-002	9.59234E-001	3.58000E+000	9	...........
	81	1.09333	9.63686E-001	1.00595E-004	0.00000E+000	9.69419E-005	5.99601E-002	9.64061E-001	3.58000E+000	9	...........
	82	1.10667	9.68431E-001	1.00880E-004	0.00000E+000	9.76956E-005	5.99601E-002	9.68783E-001	3.58000E+000	9	...........
	83	1.12	9.73065E-001	1.00564E-004	0.00000E+000	9.78549E-005	5.99601E-002	9.73434E-001	3.58000E+000	9	...........
	84	1.13333	9.77606E-001	1.01002E-004	0.00000E+000	9.87404E-005	5.99601E-002	9.77951E-001	3.58000E+000	9	...........
	85	1.14667	9.82056E-001	1.01605E-004	0.00000E+000	9.97822E-005	5.99601E-002	9.82391E-001	3.58000E+000	9	...........
	86	1.16	9.86371E-001	1.00306E-004	0.00000E+000	9.89392E-005	5.99601E-002	9.86729E-001	3.58000E+000	9	...........
	87	1.17333	9.90628E-001	1.01174E-004	0.00000E+000	1.00226E-004	5.99601E-002	9.90995E-001	3.58000E+000	9	...........
	88	1.18667	9.94772E-001	1.00528E-004	0.00000E+000	1.00003E-004	5.99601E-002	9.95114E-001	3.58000E+000	9	...........
	89	1.19833	9.98591E-001	1.00884E-004	0.00000E+000	1.00742E-004	5.99601E-002	9.98949E-001	3.58000E+000	9	...........
STARTTIMEOFFSET	QUANT	1842.575	Start Time Offset (s)
