EXPLAIN
TAG	PWR800_CHARGE
TITLE	LABEL	PWR Cyclic Charge Discharge (Cell) - Charge Step	Test &Identifier
DATE	LABEL	13-7-2017	Date
TIME	LABEL	15:38:46	Time
NOTES	NOTES	2	&Notes...
	supercap test cell
	6M KOH
PSTAT	PSTAT	IFC5000-01520	Potentiostat
CAPACITY	QUANT	1.00000E-003	Capacity (A-hr)
CELLTYPE	SELECTOR	1	&Cell Type
WORKINGCONNECTION	SELECTOR	0	&Working Lead
MAXCHARGETIME	VARIABLEANDUNITS	1.00000E+002	s	1.00000E+002	second(s)	Max &Charge Time
CHARGECURRENT	QUANT	1.00000E-004	&Charge Current (A) 
VOLTAGEFINISH	TWOPARAM	F	1.00000E-003	3.60000E+003	&Voltage Finish	 I (A) < 	Max Time(s)
SAMPLETIME	QUANT	1.00000E-002	Sa&mple Period (s)
CHARGESTOPAT1	MULTIPARAM	4	1.00000E+000	Charge Stop At &1	Voltage > Limit	V
CHARGESTOPAT2	MULTIPARAM	0	0.00000E+000	Charge Stop At &2	None	N/A
AESBHCSELECTOR	TOGGLE	F	Save Both Half Cells
IRCOMP	TOGGLE	F	IR &Measure
EOC	QUANT	0	Open Circuit (V)
SEQUENCER	TOGGLE	TRUE	Run as Sequence
PSTATMODEL	IQUANT	53	Pstat Model
PSTATSECTION	LABEL	IFC5000-01520	Pstat Section
PSTATSERIALNO	LABEL	01520	Pstat Serial Number
CTRLMODE	IQUANT	0	Control Mode
ELECTROMETER	IQUANT	1	RE=0 or CS=1
IESTAB	IQUANT	0	I/E Stability
CASPEED	IQUANT	4	Control Amp Speed
CONVENTION	IQUANT	1	Current Convention
ICHRANGE	IQUANT	2	Ich Range
ICHRANGEMODE	TOGGLE	T	Ich Auto Range
ICHOFFSETENABLE	TOGGLE	F	Ich Offset Enable
ICHOFFSET	QUANT	0	Ich Offset (V)
ICHFILTER	IQUANT	1	Ich Filter
VCHRANGE	IQUANT	2	Vch Range
VCHRANGEMODE	TOGGLE	T	Vch Auto Range
VCHOFFSETENABLE	TOGGLE	F	Vch Offset Enable
VCHOFFSET	QUANT	0	Vch Offset (V)
VCHFILTER	IQUANT	1	Vch Filter
IERANGELOWERLIMIT	IQUANT	9	I/E Range Lower Limit
IERANGEMODE	TOGGLE	F	I/E AutoRange
IERANGE	IQUANT	9	I/E Range
ACHSELECT	IQUANT	1	Ach Select
ACHRANGE	IQUANT	2	Ach Range
ACHOFFSETENABLE	TOGGLE	F	Ach Offset Enable
ACHOFFSET	QUANT	0	Ach Offset (V)
ACHFILTER	IQUANT	1	Ach Filter
CABLEID	IQUANT	14	Cable ID
DCCALDATE	LABEL	5-7-2017	DC Calibration Date
ACCALDATE	LABEL	12/3/2015	AC Calibration Date
FRAMEWORKVERSION	QUANT	7.01	Framework Version
INSTRUMENTVERSION	LABEL	4.00	Instrument Version
CURVE	TABLE	91
	Pt	T	Vf	Im	Vu	Pwr	Sig	Ach	Temp	IERange	Over
	#	s	V	A	V	W	V	V	deg C	#	bits
	0	0.013333	1.33922E-001	1.00780E-004	0.00000E+000	1.34967E-005	5.99601E-002	1.33954E-001	3.57990E+000	9	...........
	1	0.026667	1.49227E-001	1.00079E-004	0.00000E+000	1.49345E-005	5.99601E-002	1.49240E-001	3.57990E+000	9	...........
	2	0.04	1.64088E-001	1.00560E-004	0.00000E+000	1.65008E-005	5.99601E-002	1.64108E-001	3.57990E+000	9	...........
	3	0.053333	1.78686E-001	1.00850E-004	0.00000E+000	1.80205E-005	5.99601E-002	1.78710E-001	3.57990E+000	9	...........
	4	0.066667	1.93088E-001	1.00442E-004	0.00000E+000	1.93941E-005	5.99601E-002	1.93112E-001	3.57990E+000	9	...........
	5	0.08	2.07348E-001	1.00603E-004	0.00000E+000	2.08598E-005	5.99601E-002	2.07376E-001	3.57990E+000	9	...........
	6	0.093333	2.21500E-001	1.00857E-004	0.00000E+000	2.23399E-005	5.99601E-002	2.21531E-001	3.57990E+000	9	...........
	7	0.106667	2.35592E-001	1.01484E-004	0.00000E+000	2.39087E-005	5.99601E-002	2.35627E-001	3.57990E+000	9	...........
	8	0.12	2.49631E-001	1.01042E-004	0.00000E+000	2.52232E-005	5.99601E-002	2.49670E-001	3.57990E+000	9	...........
	9	0.133333	2.63644E-001	9.98832E-005	0.00000E+000	2.63336E-005	5.99601E-002	2.63687E-001	3.57990E+000	9	...........
	10	0.146667	2.77655E-001	1.00956E-004	0.00000E+000	2.80311E-005	5.99601E-002	2.77703E-001	3.57990E+000	9	...........
	11	0.16	2.91658E-001	1.01328E-004	0.00000E+000	2.95532E-005	5.99601E-002	2.91712E-001	3.57990E+000	9	...........
	12	0.173333	3.05680E-001	1.00769E-004	0.00000E+000	3.08030E-005	5.99601E-002	3.05732E-001	3.57940E+000	9	...........
	13	0.186667	3.19725E-001	1.01679E-004	0.00000E+000	3.25094E-005	5.99601E-002	3.19776E-001	3.57890E+000	9	...........
	14	0.2	3.33775E-001	1.00259E-004	0.00000E+000	3.34641E-005	5.99601E-002	3.33835E-001	3.57890E+000	9	...........
	15	0.213333	3.47862E-001	1.00598E-004	0.00000E+000	3.49942E-005	5.99601E-002	3.47925E-001	3.57890E+000	9	...........
	16	0.226667	3.61955E-001	1.00845E-004	0.00000E+000	3.65014E-005	5.99601E-002	3.62028E-001	3.57890E+000	9	...........
	17	0.24	3.76068E-001	1.00433E-004	0.00000E+000	3.77697E-005	5.99601E-002	3.76133E-001	3.57890E+000	9	...........
	18	0.253333	3.90184E-001	1.00866E-004	0.00000E+000	3.93561E-005	5.99601E-002	3.90259E-001	3.57890E+000	9	...........
	19	0.266667	4.04297E-001	1.00995E-004	0.00000E+000	4.08320E-005	5.99601E-002	4.04371E-001	3.57890E+000	9	...........
	20	0.28	4.18378E-001	1.01219E-004	0.00000E+000	4.23477E-005	5.99601E-002	4.18458E-001	3.57890E+000	9	...........
	21	0.293333	4.32420E-001	1.00492E-004	0.00000E+000	4.34547E-005	5.99601E-002	4.32503E-001	3.57890E+000	9	...........
	22	0.306667	4.46396E-001	1.00543E-004	0.00000E+000	4.48818E-005	5.99601E-002	4.46480E-001	3.57890E+000	9	...........
	23	0.32	4.60285E-001	1.00689E-004	0.00000E+000	4.63455E-005	5.99601E-002	4.60372E-001	3.57890E+000	9	...........
	24	0.333333	4.74058E-001	1.01058E-004	0.00000E+000	4.79076E-005	5.99601E-002	4.74156E-001	3.57890E+000	9	...........
	25	0.346667	4.87703E-001	1.00716E-004	0.00000E+000	4.91193E-005	5.99601E-002	4.87798E-001	3.57890E+000	9	...........
	26	0.36	5.01192E-001	9.98905E-005	0.00000E+000	5.00643E-005	5.99601E-002	5.01294E-001	3.57890E+000	9	...........
	27	0.373333	5.14515E-001	1.00271E-004	0.00000E+000	5.15909E-005	5.99601E-002	5.14618E-001	3.57890E+000	9	...........
	28	0.386667	5.27656E-001	1.01205E-004	0.00000E+000	5.34016E-005	5.99601E-002	5.27764E-001	3.57890E+000	9	...........
	29	0.4	5.40229E-001	1.00649E-004	0.00000E+000	5.43735E-005	5.99601E-002	5.40489E-001	3.57890E+000	9	...........
	30	0.413333	5.52971E-001	1.00844E-004	0.00000E+000	5.57637E-005	5.99601E-002	5.53222E-001	3.57890E+000	9	...........
	31	0.426667	5.65494E-001	1.00730E-004	0.00000E+000	5.69624E-005	5.99601E-002	5.65740E-001	3.57890E+000	9	...........
	32	0.44	5.77744E-001	1.00063E-004	0.00000E+000	5.78110E-005	5.99601E-002	5.78026E-001	3.57890E+000	9	...........
	33	0.453333	5.89804E-001	1.01272E-004	0.00000E+000	5.97307E-005	5.99601E-002	5.90090E-001	3.57890E+000	9	...........
	34	0.466667	6.01625E-001	1.00174E-004	0.00000E+000	6.02671E-005	5.99601E-002	6.01901E-001	3.57890E+000	9	...........
	35	0.48	6.13239E-001	1.00182E-004	0.00000E+000	6.14357E-005	5.99601E-002	6.13505E-001	3.57890E+000	9	...........
	36	0.493333	6.24615E-001	1.00559E-004	0.00000E+000	6.28109E-005	5.99601E-002	6.24866E-001	3.57890E+000	9	...........
	37	0.506667	6.35748E-001	1.01329E-004	0.00000E+000	6.44199E-005	5.99601E-002	6.35997E-001	3.57890E+000	9	...........
	38	0.52	6.46653E-001	1.01257E-004	0.00000E+000	6.54784E-005	5.99601E-002	6.46917E-001	3.57890E+000	9	...........
	39	0.533333	6.57373E-001	1.01390E-004	0.00000E+000	6.66509E-005	5.99601E-002	6.57601E-001	3.57890E+000	9	...........
	40	0.546667	6.67842E-001	1.00867E-004	0.00000E+000	6.73631E-005	5.99601E-002	6.68102E-001	3.57890E+000	9	...........
	41	0.56	6.78098E-001	1.00514E-004	0.00000E+000	6.81581E-005	5.99601E-002	6.78365E-001	3.57890E+000	9	...........
	42	0.573333	6.88173E-001	1.01402E-004	0.00000E+000	6.97824E-005	5.99601E-002	6.88440E-001	3.57890E+000	9	...........
	43	0.586667	6.98038E-001	1.00922E-004	0.00000E+000	7.04474E-005	5.99601E-002	6.98304E-001	3.57890E+000	9	...........
	44	0.6	7.07697E-001	1.00874E-004	0.00000E+000	7.13882E-005	5.99601E-002	7.07966E-001	3.57890E+000	9	...........
	45	0.613333	7.17184E-001	1.00716E-004	0.00000E+000	7.22317E-005	5.99601E-002	7.17451E-001	3.57890E+000	9	...........
	46	0.626667	7.26480E-001	1.00772E-004	0.00000E+000	7.32088E-005	5.99601E-002	7.26726E-001	3.57890E+000	9	...........
	47	0.64	7.35540E-001	1.00619E-004	0.00000E+000	7.40091E-005	5.99601E-002	7.35820E-001	3.57890E+000	9	...........
	48	0.653333	7.44499E-001	1.00529E-004	0.00000E+000	7.48439E-005	5.99601E-002	7.44764E-001	3.57890E+000	9	...........
	49	0.666667	7.53249E-001	1.00568E-004	0.00000E+000	7.57525E-005	5.99601E-002	7.53521E-001	3.57890E+000	9	...........
	50	0.68	7.61822E-001	1.00884E-004	0.00000E+000	7.68560E-005	5.99601E-002	7.62082E-001	3.57890E+000	9	...........
	51	0.693333	7.70232E-001	1.00930E-004	0.00000E+000	7.77398E-005	5.99601E-002	7.70531E-001	3.57890E+000	9	...........
	52	0.706667	7.78500E-001	1.00423E-004	0.00000E+000	7.81793E-005	5.99601E-002	7.78789E-001	3.57890E+000	9	...........
	53	0.72	7.86585E-001	1.00351E-004	0.00000E+000	7.89346E-005	5.99601E-002	7.86877E-001	3.57890E+000	9	...........
	54	0.733333	7.94563E-001	1.01485E-004	0.00000E+000	8.06359E-005	5.99601E-002	7.94843E-001	3.57890E+000	9	...........
	55	0.746667	8.02355E-001	1.01168E-004	0.00000E+000	8.11726E-005	5.99601E-002	8.02643E-001	3.57890E+000	9	...........
	56	0.76	8.09981E-001	1.00192E-004	0.00000E+000	8.11533E-005	5.99601E-002	8.10291E-001	3.57890E+000	9	...........
	57	0.773333	8.17494E-001	1.01050E-004	0.00000E+000	8.26078E-005	5.99601E-002	8.17821E-001	3.57890E+000	9	...........
	58	0.786667	8.24889E-001	1.00698E-004	0.00000E+000	8.30647E-005	5.99601E-002	8.25210E-001	3.57890E+000	9	...........
	59	0.8	8.32116E-001	1.01435E-004	0.00000E+000	8.44054E-005	5.99601E-002	8.32423E-001	3.57890E+000	9	...........
	60	0.813333	8.39193E-001	1.00944E-004	0.00000E+000	8.47114E-005	5.99601E-002	8.39537E-001	3.57890E+000	9	...........
	61	0.826667	8.46203E-001	1.00223E-004	0.00000E+000	8.48089E-005	5.99601E-002	8.46541E-001	3.57890E+000	9	...........
	62	0.84	8.53055E-001	1.00543E-004	0.00000E+000	8.57685E-005	5.99601E-002	8.53386E-001	3.57890E+000	9	...........
	63	0.853333	8.59788E-001	1.02249E-004	0.00000E+000	8.79128E-005	5.99601E-002	8.60129E-001	3.57890E+000	9	...........
	64	0.866667	8.66412E-001	1.01671E-004	0.00000E+000	8.80890E-005	5.99601E-002	8.66769E-001	3.57890E+000	9	...........
	65	0.88	8.72945E-001	1.00723E-004	0.00000E+000	8.79257E-005	5.99601E-002	8.73281E-001	3.57890E+000	9	...........
	66	0.893333	8.79300E-001	1.00673E-004	0.00000E+000	8.85218E-005	5.99601E-002	8.79656E-001	3.57890E+000	9	...........
	67	0.906667	8.85600E-001	1.01176E-004	0.00000E+000	8.96017E-005	5.99601E-002	8.85924E-001	3.57890E+000	9	...........
	68	0.92	8.91715E-001	1.01398E-004	0.00000E+000	9.04182E-005	5.99601E-002	8.92069E-001	3.57890E+000	9	...........
	69	0.933333	8.97756E-001	1.00955E-004	0.00000E+000	9.06332E-005	5.99601E-002	8.98117E-001	3.57890E+000	9	...........
	70	0.946667	9.03693E-001	9.97853E-005	0.00000E+000	9.01753E-005	5.99601E-002	9.04009E-001	3.57890E+000	9	...........
	71	0.96	9.09516E-001	1.01449E-004	0.00000E+000	9.22697E-005	5.99601E-002	9.09858E-001	3.57890E+000	9	...........
	72	0.97333	9.15218E-001	1.00552E-004	0.00000E+000	9.20272E-005	5.99601E-002	9.15574E-001	3.57890E+000	9	...........
	73	0.98667	9.20877E-001	1.01843E-004	0.00000E+000	9.37849E-005	5.99601E-002	9.21209E-001	3.57890E+000	9	...........
	74	1	9.26408E-001	1.00714E-004	0.00000E+000	9.33019E-005	5.99601E-002	9.26738E-001	3.57890E+000	9	...........
	75	1.01333	9.31793E-001	1.00919E-004	0.00000E+000	9.40355E-005	5.99601E-002	9.32129E-001	3.57890E+000	9	...........
	76	1.02667	9.37100E-001	1.01800E-004	0.00000E+000	9.53971E-005	5.99601E-002	9.37454E-001	3.57890E+000	9	...........
	77	1.04	9.42317E-001	1.01102E-004	0.00000E+000	9.52704E-005	5.99601E-002	9.42644E-001	3.57890E+000	9	...........
	78	1.05333	9.47437E-001	1.00625E-004	0.00000E+000	9.53359E-005	5.99601E-002	9.47763E-001	3.57890E+000	9	...........
	79	1.06667	9.52437E-001	1.00494E-004	0.00000E+000	9.57140E-005	5.99601E-002	9.52788E-001	3.57890E+000	9	...........
	80	1.08	9.57344E-001	1.00973E-004	0.00000E+000	9.66659E-005	5.99601E-002	9.57706E-001	3.57890E+000	9	...........
	81	1.09333	9.62121E-001	1.01023E-004	0.00000E+000	9.71964E-005	5.99601E-002	9.62533E-001	3.57890E+000	9	...........
	82	1.10667	9.66850E-001	1.00735E-004	0.00000E+000	9.73961E-005	5.99601E-002	9.67241E-001	3.57890E+000	9	...........
	83	1.12	9.71480E-001	1.00646E-004	0.00000E+000	9.77755E-005	5.99601E-002	9.71868E-001	3.57890E+000	9	...........
	84	1.13333	9.76022E-001	1.00084E-004	0.00000E+000	9.76845E-005	5.99601E-002	9.76401E-001	3.57890E+000	9	...........
	85	1.14667	9.80458E-001	1.01137E-004	0.00000E+000	9.91602E-005	5.99601E-002	9.80785E-001	3.57890E+000	9	...........
	86	1.16	9.84777E-001	1.00807E-004	0.00000E+000	9.92728E-005	5.99601E-002	9.85144E-001	3.57890E+000	9	...........
	87	1.17333	9.89038E-001	1.01216E-004	0.00000E+000	1.00106E-004	5.99601E-002	9.89386E-001	3.57895E+000	9	...........
	88	1.18667	9.93166E-001	1.01717E-004	0.00000E+000	1.01022E-004	5.99601E-002	9.93537E-001	3.57900E+000	9	...........
	89	1.2	9.97248E-001	1.00992E-004	0.00000E+000	1.00714E-004	5.99601E-002	9.97622E-001	3.57900E+000	9	...........
	90	1.20333	9.99761E-001	1.00581E-004	0.00000E+000	1.00557E-004	5.99601E-002	1.00014E+000	3.57900E+000	9	...........
STARTTIMEOFFSET	QUANT	1661.799	Start Time Offset (s)
