EXPLAIN
TAG	PWR800_CHARGE
TITLE	LABEL	PWR Cyclic Charge Discharge (Cell) - Charge Step	Test &Identifier
DATE	LABEL	13-7-2017	Date
TIME	LABEL	15:18:26	Time
NOTES	NOTES	2	&Notes...
	supercap test cell
	6M KOH
PSTAT	PSTAT	IFC5000-01520	Potentiostat
CAPACITY	QUANT	1.00000E-003	Capacity (A-hr)
CELLTYPE	SELECTOR	1	&Cell Type
WORKINGCONNECTION	SELECTOR	0	&Working Lead
MAXCHARGETIME	VARIABLEANDUNITS	1.00000E+002	s	1.00000E+002	second(s)	Max &Charge Time
CHARGECURRENT	QUANT	1.00000E-004	&Charge Current (A) 
VOLTAGEFINISH	TWOPARAM	F	1.00000E-003	3.60000E+003	&Voltage Finish	 I (A) < 	Max Time(s)
SAMPLETIME	QUANT	1.00000E-002	Sa&mple Period (s)
CHARGESTOPAT1	MULTIPARAM	4	1.00000E+000	Charge Stop At &1	Voltage > Limit	V
CHARGESTOPAT2	MULTIPARAM	0	0.00000E+000	Charge Stop At &2	None	N/A
AESBHCSELECTOR	TOGGLE	F	Save Both Half Cells
IRCOMP	TOGGLE	F	IR &Measure
EOC	QUANT	0	Open Circuit (V)
SEQUENCER	TOGGLE	TRUE	Run as Sequence
PSTATMODEL	IQUANT	53	Pstat Model
PSTATSECTION	LABEL	IFC5000-01520	Pstat Section
PSTATSERIALNO	LABEL	01520	Pstat Serial Number
CTRLMODE	IQUANT	0	Control Mode
ELECTROMETER	IQUANT	1	RE=0 or CS=1
IESTAB	IQUANT	0	I/E Stability
CASPEED	IQUANT	4	Control Amp Speed
CONVENTION	IQUANT	1	Current Convention
ICHRANGE	IQUANT	2	Ich Range
ICHRANGEMODE	TOGGLE	T	Ich Auto Range
ICHOFFSETENABLE	TOGGLE	F	Ich Offset Enable
ICHOFFSET	QUANT	0	Ich Offset (V)
ICHFILTER	IQUANT	1	Ich Filter
VCHRANGE	IQUANT	2	Vch Range
VCHRANGEMODE	TOGGLE	T	Vch Auto Range
VCHOFFSETENABLE	TOGGLE	F	Vch Offset Enable
VCHOFFSET	QUANT	0	Vch Offset (V)
VCHFILTER	IQUANT	1	Vch Filter
IERANGELOWERLIMIT	IQUANT	9	I/E Range Lower Limit
IERANGEMODE	TOGGLE	F	I/E AutoRange
IERANGE	IQUANT	9	I/E Range
ACHSELECT	IQUANT	1	Ach Select
ACHRANGE	IQUANT	2	Ach Range
ACHOFFSETENABLE	TOGGLE	F	Ach Offset Enable
ACHOFFSET	QUANT	0	Ach Offset (V)
ACHFILTER	IQUANT	1	Ach Filter
CABLEID	IQUANT	14	Cable ID
DCCALDATE	LABEL	5-7-2017	DC Calibration Date
ACCALDATE	LABEL	12/3/2015	AC Calibration Date
FRAMEWORKVERSION	QUANT	7.01	Framework Version
INSTRUMENTVERSION	LABEL	4.00	Instrument Version
CURVE	TABLE	95
	Pt	T	Vf	Im	Vu	Pwr	Sig	Ach	Temp	IERange	Over
	#	s	V	A	V	W	V	V	deg C	#	bits
	0	0.013333	1.31841E-001	1.01525E-004	0.00000E+000	1.33852E-005	5.99601E-002	1.31873E-001	3.58010E+000	9	...........
	1	0.026667	1.47065E-001	1.00547E-004	0.00000E+000	1.47870E-005	5.99601E-002	1.47086E-001	3.58010E+000	9	...........
	2	0.04	1.61851E-001	1.00276E-004	0.00000E+000	1.62297E-005	5.99601E-002	1.61871E-001	3.58010E+000	9	...........
	3	0.053333	1.76360E-001	1.01162E-004	0.00000E+000	1.78409E-005	5.99601E-002	1.76391E-001	3.58010E+000	9	...........
	4	0.066667	1.90678E-001	1.01372E-004	0.00000E+000	1.93294E-005	5.99601E-002	1.90710E-001	3.58010E+000	9	...........
	5	0.08	2.04844E-001	9.99749E-005	0.00000E+000	2.04793E-005	5.99601E-002	2.04886E-001	3.58010E+000	9	...........
	6	0.093333	2.18920E-001	1.01415E-004	0.00000E+000	2.22017E-005	5.99601E-002	2.18956E-001	3.58010E+000	9	...........
	7	0.106667	2.32912E-001	1.00794E-004	0.00000E+000	2.34761E-005	5.99601E-002	2.32951E-001	3.58010E+000	9	...........
	8	0.12	2.46850E-001	1.00467E-004	0.00000E+000	2.48002E-005	5.99601E-002	2.46897E-001	3.58010E+000	9	...........
	9	0.133333	2.60761E-001	1.00146E-004	0.00000E+000	2.61141E-005	5.99601E-002	2.60809E-001	3.57900E+000	9	...........
	10	0.146667	2.74652E-001	1.00939E-004	0.00000E+000	2.77230E-005	5.99601E-002	2.74702E-001	3.57900E+000	9	...........
	11	0.16	2.88534E-001	1.01015E-004	0.00000E+000	2.91462E-005	5.99601E-002	2.88589E-001	3.57900E+000	9	...........
	12	0.173333	3.02420E-001	1.01173E-004	0.00000E+000	3.05967E-005	5.99601E-002	3.02476E-001	3.57900E+000	9	...........
	13	0.186667	3.16316E-001	1.00965E-004	0.00000E+000	3.19368E-005	5.99601E-002	3.16376E-001	3.57900E+000	9	...........
	14	0.2	3.30220E-001	1.00969E-004	0.00000E+000	3.33419E-005	5.99601E-002	3.30283E-001	3.57900E+000	9	...........
	15	0.213333	3.44133E-001	1.00821E-004	0.00000E+000	3.46958E-005	5.99601E-002	3.44201E-001	3.57900E+000	9	...........
	16	0.226667	3.58056E-001	1.01324E-004	0.00000E+000	3.62797E-005	5.99601E-002	3.58123E-001	3.57900E+000	9	...........
	17	0.24	3.71973E-001	1.01075E-004	0.00000E+000	3.75972E-005	5.99601E-002	3.72047E-001	3.57900E+000	9	...........
	18	0.253333	3.85882E-001	1.00840E-004	0.00000E+000	3.89122E-005	5.99601E-002	3.85957E-001	3.57900E+000	9	...........
	19	0.266667	3.99769E-001	1.00540E-004	0.00000E+000	4.01926E-005	5.99601E-002	3.99849E-001	3.57900E+000	9	...........
	20	0.28	4.13610E-001	1.01113E-004	0.00000E+000	4.18213E-005	5.99601E-002	4.13691E-001	3.57900E+000	9	...........
	21	0.293333	4.27395E-001	1.00784E-004	0.00000E+000	4.30748E-005	5.99601E-002	4.27485E-001	3.57900E+000	9	...........
	22	0.306667	4.41108E-001	9.97968E-005	0.00000E+000	4.40212E-005	5.99601E-002	4.41196E-001	3.57900E+000	9	...........
	23	0.32	4.54730E-001	1.00915E-004	0.00000E+000	4.58889E-005	5.99601E-002	4.54818E-001	3.57900E+000	9	...........
	24	0.333333	4.68217E-001	1.00608E-004	0.00000E+000	4.71066E-005	5.99601E-002	4.68310E-001	3.57900E+000	9	...........
	25	0.346667	4.81574E-001	1.00237E-004	0.00000E+000	4.82717E-005	5.99601E-002	4.81670E-001	3.57900E+000	9	...........
	26	0.36	4.94769E-001	1.01152E-004	0.00000E+000	5.00470E-005	5.99601E-002	4.94873E-001	3.57900E+000	9	...........
	27	0.373333	5.07792E-001	1.00368E-004	0.00000E+000	5.09659E-005	5.99601E-002	5.07903E-001	3.57900E+000	9	...........
	28	0.386667	5.20630E-001	1.00790E-004	0.00000E+000	5.24741E-005	5.99601E-002	5.20739E-001	3.57900E+000	9	...........
	29	0.4	5.33143E-001	1.01415E-004	0.00000E+000	5.40686E-005	5.99601E-002	5.33285E-001	3.57900E+000	9	...........
	30	0.413333	5.45354E-001	1.00670E-004	0.00000E+000	5.49007E-005	5.99601E-002	5.45600E-001	3.57900E+000	9	...........
	31	0.426667	5.57556E-001	1.00662E-004	0.00000E+000	5.61245E-005	5.99601E-002	5.57820E-001	3.57900E+000	9	...........
	32	0.44	5.69599E-001	1.00395E-004	0.00000E+000	5.71848E-005	5.99601E-002	5.69823E-001	3.57900E+000	9	...........
	33	0.453333	5.81336E-001	1.01340E-004	0.00000E+000	5.89125E-005	5.99601E-002	5.81598E-001	3.57900E+000	9	...........
	34	0.466667	5.92909E-001	1.00873E-004	0.00000E+000	5.98086E-005	5.99601E-002	5.93155E-001	3.57900E+000	9	...........
	35	0.48	6.04215E-001	1.01383E-004	0.00000E+000	6.12568E-005	5.99601E-002	6.04471E-001	3.57900E+000	9	...........
	36	0.493333	6.15328E-001	1.01145E-004	0.00000E+000	6.22373E-005	5.99601E-002	6.15603E-001	3.57900E+000	9	...........
	37	0.506667	6.26220E-001	1.00575E-004	0.00000E+000	6.29821E-005	5.99601E-002	6.26463E-001	3.57900E+000	9	...........
	38	0.52	6.36874E-001	1.00955E-004	0.00000E+000	6.42959E-005	5.99601E-002	6.37141E-001	3.57900E+000	9	...........
	39	0.533333	6.47344E-001	1.00425E-004	0.00000E+000	6.50096E-005	5.99601E-002	6.47612E-001	3.57900E+000	9	...........
	40	0.546667	6.57591E-001	1.00584E-004	0.00000E+000	6.61434E-005	5.99601E-002	6.57858E-001	3.57900E+000	9	...........
	41	0.56	6.67624E-001	1.00575E-004	0.00000E+000	6.71464E-005	5.99601E-002	6.67924E-001	3.57900E+000	9	...........
	42	0.573333	6.77472E-001	1.01296E-004	0.00000E+000	6.86252E-005	5.99601E-002	6.77759E-001	3.57900E+000	9	...........
	43	0.586667	6.87099E-001	1.00265E-004	0.00000E+000	6.88917E-005	5.99601E-002	6.87384E-001	3.57900E+000	9	...........
	44	0.6	6.96573E-001	1.00781E-004	0.00000E+000	7.02015E-005	5.99601E-002	6.96848E-001	3.57900E+000	9	...........
	45	0.613333	7.05791E-001	1.01092E-004	0.00000E+000	7.13497E-005	5.99601E-002	7.06124E-001	3.57900E+000	9	...........
	46	0.626667	7.14896E-001	1.00864E-004	0.00000E+000	7.21070E-005	5.99601E-002	7.15199E-001	3.57900E+000	9	...........
	47	0.64	7.23816E-001	1.00881E-004	0.00000E+000	7.30196E-005	5.99601E-002	7.24095E-001	3.57900E+000	9	...........
	48	0.653333	7.32526E-001	1.01039E-004	0.00000E+000	7.40134E-005	5.99601E-002	7.32836E-001	3.57900E+000	9	...........
	49	0.666667	7.41099E-001	1.00171E-004	0.00000E+000	7.42365E-005	5.99601E-002	7.41394E-001	3.57900E+000	9	...........
	50	0.68	7.49507E-001	1.00597E-004	0.00000E+000	7.53981E-005	5.99601E-002	7.49802E-001	3.57900E+000	9	...........
	51	0.693333	7.57755E-001	1.01586E-004	0.00000E+000	7.69771E-005	5.99601E-002	7.58074E-001	3.57900E+000	9	...........
	52	0.706667	7.65849E-001	1.00576E-004	0.00000E+000	7.70261E-005	5.99601E-002	7.66160E-001	3.57900E+000	9	...........
	53	0.72	7.73812E-001	1.01254E-004	0.00000E+000	7.83519E-005	5.99601E-002	7.74107E-001	3.57900E+000	9	...........
	54	0.733333	7.81589E-001	1.01451E-004	0.00000E+000	7.92932E-005	5.99601E-002	7.81887E-001	3.57900E+000	9	...........
	55	0.746667	7.89213E-001	1.01804E-004	0.00000E+000	8.03454E-005	5.99601E-002	7.89524E-001	3.57900E+000	9	...........
	56	0.76	7.96772E-001	1.01378E-004	0.00000E+000	8.07754E-005	5.99601E-002	7.97062E-001	3.57900E+000	9	...........
	57	0.773333	8.04155E-001	1.01402E-004	0.00000E+000	8.15432E-005	5.99601E-002	8.04432E-001	3.57900E+000	9	...........
	58	0.786667	8.11365E-001	1.00841E-004	0.00000E+000	8.18186E-005	5.99601E-002	8.11670E-001	3.57900E+000	9	...........
	59	0.8	8.18471E-001	1.01453E-004	0.00000E+000	8.30367E-005	5.99601E-002	8.18802E-001	3.57900E+000	9	...........
	60	0.813333	8.25484E-001	1.01314E-004	0.00000E+000	8.36329E-005	5.99601E-002	8.25778E-001	3.57900E+000	9	...........
	61	0.826667	8.32310E-001	1.00541E-004	0.00000E+000	8.36810E-005	5.99601E-002	8.32642E-001	3.57900E+000	9	...........
	62	0.84	8.39042E-001	1.00608E-004	0.00000E+000	8.44146E-005	5.99601E-002	8.39403E-001	3.57900E+000	9	...........
	63	0.853333	8.45693E-001	9.94800E-005	0.00000E+000	8.41295E-005	5.99601E-002	8.46038E-001	3.57900E+000	9	...........
	64	0.866667	8.52225E-001	1.00901E-004	0.00000E+000	8.59905E-005	5.99601E-002	8.52549E-001	3.57900E+000	9	...........
	65	0.88	8.58613E-001	1.00897E-004	0.00000E+000	8.66314E-005	5.99601E-002	8.58986E-001	3.57900E+000	9	...........
	66	0.893333	8.64904E-001	1.00345E-004	0.00000E+000	8.67886E-005	5.99601E-002	8.65274E-001	3.57900E+000	9	...........
	67	0.906667	8.71113E-001	1.00632E-004	0.00000E+000	8.76622E-005	5.99601E-002	8.71458E-001	3.57900E+000	9	...........
	68	0.92	8.77183E-001	1.00603E-004	0.00000E+000	8.82474E-005	5.99601E-002	8.77514E-001	3.57900E+000	9	...........
	69	0.933333	8.83167E-001	1.00762E-004	0.00000E+000	8.89892E-005	5.99601E-002	8.83492E-001	3.57900E+000	9	...........
	70	0.946667	8.89037E-001	1.00715E-004	0.00000E+000	8.95391E-005	5.99601E-002	8.89354E-001	3.57900E+000	9	...........
	71	0.96	8.94793E-001	1.01372E-004	0.00000E+000	9.07071E-005	5.99601E-002	8.95153E-001	3.57900E+000	9	...........
	72	0.97333	9.00455E-001	1.00516E-004	0.00000E+000	9.05099E-005	5.99601E-002	9.00817E-001	3.57900E+000	9	...........
	73	0.98667	9.06006E-001	1.00798E-004	0.00000E+000	9.13236E-005	5.99601E-002	9.06400E-001	3.57900E+000	9	...........
	74	1	9.11500E-001	1.00892E-004	0.00000E+000	9.19628E-005	5.99601E-002	9.11867E-001	3.57900E+000	9	...........
	75	1.01333	9.16865E-001	1.01550E-004	0.00000E+000	9.31079E-005	5.99601E-002	9.17257E-001	3.57900E+000	9	...........
	76	1.02667	9.22190E-001	1.00414E-004	0.00000E+000	9.26003E-005	5.99601E-002	9.22552E-001	3.57900E+000	9	...........
	77	1.04	9.27398E-001	1.00962E-004	0.00000E+000	9.36316E-005	5.99601E-002	9.27749E-001	3.57900E+000	9	...........
	78	1.05333	9.32480E-001	1.00472E-004	0.00000E+000	9.36880E-005	5.99601E-002	9.32843E-001	3.57900E+000	9	...........
	79	1.06667	9.37462E-001	1.01135E-004	0.00000E+000	9.48098E-005	5.99601E-002	9.37856E-001	3.57900E+000	9	...........
	80	1.08	9.42388E-001	1.01680E-004	0.00000E+000	9.58225E-005	5.99601E-002	9.42748E-001	3.57900E+000	9	...........
	81	1.09333	9.47222E-001	1.00493E-004	0.00000E+000	9.51889E-005	5.99601E-002	9.47576E-001	3.57900E+000	9	...........
	82	1.10667	9.51932E-001	1.01712E-004	0.00000E+000	9.68227E-005	5.99601E-002	9.52320E-001	3.57900E+000	9	...........
	83	1.12	9.56551E-001	1.00894E-004	0.00000E+000	9.65101E-005	5.99601E-002	9.56950E-001	3.57900E+000	9	...........
	84	1.13333	9.61104E-001	1.01484E-004	0.00000E+000	9.75363E-005	5.99601E-002	9.61505E-001	3.57900E+000	9	...........
	85	1.14667	9.65575E-001	1.01713E-004	0.00000E+000	9.82113E-005	5.99601E-002	9.65959E-001	3.57900E+000	9	...........
	86	1.16	9.69947E-001	1.01345E-004	0.00000E+000	9.82993E-005	5.99601E-002	9.70340E-001	3.57900E+000	9	...........
	87	1.17333	9.74269E-001	1.00708E-004	0.00000E+000	9.81171E-005	5.99601E-002	9.74624E-001	3.57900E+000	9	...........
	88	1.18667	9.78457E-001	1.01288E-004	0.00000E+000	9.91056E-005	5.99601E-002	9.78803E-001	3.57900E+000	9	...........
	89	1.2	9.82553E-001	1.01619E-004	0.00000E+000	9.98461E-005	5.99601E-002	9.82881E-001	3.57900E+000	9	...........
	90	1.21333	9.86592E-001	1.01802E-004	0.00000E+000	1.00437E-004	5.99601E-002	9.86936E-001	3.57900E+000	9	...........
	91	1.22667	9.90571E-001	1.01119E-004	0.00000E+000	1.00165E-004	5.99601E-002	9.90896E-001	3.57900E+000	9	...........
	92	1.24	9.94410E-001	1.01212E-004	0.00000E+000	1.00646E-004	5.99601E-002	9.94739E-001	3.57900E+000	9	...........
	93	1.25333	9.98197E-001	1.01001E-004	0.00000E+000	1.00819E-004	5.99601E-002	9.98560E-001	3.57900E+000	9	...........
	94	1.255	1.00029E+000	1.01015E-004	0.00000E+000	1.01044E-004	5.99601E-002	1.00067E+000	3.57900E+000	9	...........
STARTTIMEOFFSET	QUANT	742.491	Start Time Offset (s)
