EXPLAIN
TAG	PWR800_CHARGE
TITLE	LABEL	PWR Cyclic Charge Discharge (Cell) - Charge Step	Test &Identifier
DATE	LABEL	13-7-2017	Date
TIME	LABEL	15:53:44	Time
NOTES	NOTES	2	&Notes...
	supercap test cell
	6M KOH
PSTAT	PSTAT	IFC5000-01520	Potentiostat
CAPACITY	QUANT	1.00000E-003	Capacity (A-hr)
CELLTYPE	SELECTOR	1	&Cell Type
WORKINGCONNECTION	SELECTOR	0	&Working Lead
MAXCHARGETIME	VARIABLEANDUNITS	1.00000E+002	s	1.00000E+002	second(s)	Max &Charge Time
CHARGECURRENT	QUANT	1.00000E-004	&Charge Current (A) 
VOLTAGEFINISH	TWOPARAM	F	1.00000E-003	3.60000E+003	&Voltage Finish	 I (A) < 	Max Time(s)
SAMPLETIME	QUANT	1.00000E-002	Sa&mple Period (s)
CHARGESTOPAT1	MULTIPARAM	4	1.00000E+000	Charge Stop At &1	Voltage > Limit	V
CHARGESTOPAT2	MULTIPARAM	0	0.00000E+000	Charge Stop At &2	None	N/A
AESBHCSELECTOR	TOGGLE	F	Save Both Half Cells
IRCOMP	TOGGLE	F	IR &Measure
EOC	QUANT	0	Open Circuit (V)
SEQUENCER	TOGGLE	TRUE	Run as Sequence
PSTATMODEL	IQUANT	53	Pstat Model
PSTATSECTION	LABEL	IFC5000-01520	Pstat Section
PSTATSERIALNO	LABEL	01520	Pstat Serial Number
CTRLMODE	IQUANT	0	Control Mode
ELECTROMETER	IQUANT	1	RE=0 or CS=1
IESTAB	IQUANT	0	I/E Stability
CASPEED	IQUANT	4	Control Amp Speed
CONVENTION	IQUANT	1	Current Convention
ICHRANGE	IQUANT	2	Ich Range
ICHRANGEMODE	TOGGLE	T	Ich Auto Range
ICHOFFSETENABLE	TOGGLE	F	Ich Offset Enable
ICHOFFSET	QUANT	0	Ich Offset (V)
ICHFILTER	IQUANT	1	Ich Filter
VCHRANGE	IQUANT	2	Vch Range
VCHRANGEMODE	TOGGLE	T	Vch Auto Range
VCHOFFSETENABLE	TOGGLE	F	Vch Offset Enable
VCHOFFSET	QUANT	0	Vch Offset (V)
VCHFILTER	IQUANT	1	Vch Filter
IERANGELOWERLIMIT	IQUANT	9	I/E Range Lower Limit
IERANGEMODE	TOGGLE	F	I/E AutoRange
IERANGE	IQUANT	9	I/E Range
ACHSELECT	IQUANT	1	Ach Select
ACHRANGE	IQUANT	2	Ach Range
ACHOFFSETENABLE	TOGGLE	F	Ach Offset Enable
ACHOFFSET	QUANT	0	Ach Offset (V)
ACHFILTER	IQUANT	1	Ach Filter
CABLEID	IQUANT	14	Cable ID
DCCALDATE	LABEL	5-7-2017	DC Calibration Date
ACCALDATE	LABEL	12/3/2015	AC Calibration Date
FRAMEWORKVERSION	QUANT	7.01	Framework Version
INSTRUMENTVERSION	LABEL	4.00	Instrument Version
CURVE	TABLE	89
	Pt	T	Vf	Im	Vu	Pwr	Sig	Ach	Temp	IERange	Over
	#	s	V	A	V	W	V	V	deg C	#	bits
	0	0.013333	1.35352E-001	1.01651E-004	0.00000E+000	1.37587E-005	5.99601E-002	1.35393E-001	3.58000E+000	9	...........
	1	0.026667	1.50656E-001	1.01262E-004	0.00000E+000	1.52557E-005	5.99601E-002	1.50677E-001	3.58000E+000	9	...........
	2	0.04	1.65534E-001	1.00504E-004	0.00000E+000	1.66368E-005	5.99601E-002	1.65558E-001	3.58000E+000	9	...........
	3	0.053333	1.80149E-001	1.00920E-004	0.00000E+000	1.81806E-005	5.99601E-002	1.80176E-001	3.58000E+000	9	...........
	4	0.066667	1.94576E-001	1.00807E-004	0.00000E+000	1.96147E-005	5.99601E-002	1.94609E-001	3.58000E+000	9	...........
	5	0.08	2.08860E-001	1.00624E-004	0.00000E+000	2.10164E-005	5.99601E-002	2.08892E-001	3.58000E+000	9	...........
	6	0.093333	2.23049E-001	1.00633E-004	0.00000E+000	2.24462E-005	5.99601E-002	2.23089E-001	3.58000E+000	9	...........
	7	0.106667	2.37171E-001	1.00909E-004	0.00000E+000	2.39328E-005	5.99601E-002	2.37209E-001	3.58000E+000	9	...........
	8	0.12	2.51242E-001	1.01317E-004	0.00000E+000	2.54550E-005	5.99601E-002	2.51288E-001	3.57987E+000	9	...........
	9	0.133333	2.65295E-001	1.01832E-004	0.00000E+000	2.70154E-005	5.99601E-002	2.65344E-001	3.57900E+000	9	...........
	10	0.146667	2.79343E-001	1.00945E-004	0.00000E+000	2.81982E-005	5.99601E-002	2.79390E-001	3.57900E+000	9	...........
	11	0.16	2.93396E-001	1.00937E-004	0.00000E+000	2.96144E-005	5.99601E-002	2.93441E-001	3.57900E+000	9	...........
	12	0.173333	3.07463E-001	9.97030E-005	0.00000E+000	3.06550E-005	5.99601E-002	3.07512E-001	3.57900E+000	9	...........
	13	0.186667	3.21554E-001	1.00684E-004	0.00000E+000	3.23755E-005	5.99601E-002	3.21606E-001	3.57900E+000	9	...........
	14	0.2	3.35667E-001	1.00765E-004	0.00000E+000	3.38233E-005	5.99601E-002	3.35722E-001	3.57900E+000	9	...........
	15	0.213333	3.49815E-001	1.01056E-004	0.00000E+000	3.53511E-005	5.99601E-002	3.49874E-001	3.57900E+000	9	...........
	16	0.226667	3.63986E-001	1.00778E-004	0.00000E+000	3.66819E-005	5.99601E-002	3.64052E-001	3.57900E+000	9	...........
	17	0.24	3.78176E-001	1.00392E-004	0.00000E+000	3.79658E-005	5.99601E-002	3.78245E-001	3.57900E+000	9	...........
	18	0.253333	3.92379E-001	1.00772E-004	0.00000E+000	3.95408E-005	5.99601E-002	3.92451E-001	3.57900E+000	9	...........
	19	0.266667	4.06576E-001	1.01268E-004	0.00000E+000	4.11731E-005	5.99601E-002	4.06647E-001	3.57900E+000	9	...........
	20	0.28	4.20743E-001	1.00797E-004	0.00000E+000	4.24096E-005	5.99601E-002	4.20825E-001	3.57900E+000	9	...........
	21	0.293333	4.34878E-001	1.00717E-004	0.00000E+000	4.37994E-005	5.99601E-002	4.34959E-001	3.57900E+000	9	...........
	22	0.306667	4.48955E-001	1.00118E-004	0.00000E+000	4.49483E-005	5.99601E-002	4.49038E-001	3.57900E+000	9	...........
	23	0.32	4.62948E-001	1.01293E-004	0.00000E+000	4.68933E-005	5.99601E-002	4.63038E-001	3.57900E+000	9	...........
	24	0.333333	4.76840E-001	1.00909E-004	0.00000E+000	4.81177E-005	5.99601E-002	4.76930E-001	3.57900E+000	9	...........
	25	0.346667	4.90598E-001	1.01145E-004	0.00000E+000	4.96215E-005	5.99601E-002	4.90690E-001	3.57900E+000	9	...........
	26	0.36	5.04204E-001	1.01573E-004	0.00000E+000	5.12136E-005	5.99601E-002	5.04307E-001	3.57900E+000	9	...........
	27	0.373333	5.17645E-001	1.01338E-004	0.00000E+000	5.24570E-005	5.99601E-002	5.17752E-001	3.57900E+000	9	...........
	28	0.386667	5.30807E-001	1.00451E-004	0.00000E+000	5.33201E-005	5.99601E-002	5.30948E-001	3.57900E+000	9	...........
	29	0.4	5.43617E-001	1.00052E-004	0.00000E+000	5.43900E-005	5.99601E-002	5.43845E-001	3.57900E+000	9	...........
	30	0.413333	5.56448E-001	1.00862E-004	0.00000E+000	5.61243E-005	5.99601E-002	5.56699E-001	3.57900E+000	9	...........
	31	0.426667	5.69098E-001	1.00243E-004	0.00000E+000	5.70479E-005	5.99601E-002	5.69342E-001	3.57900E+000	9	...........
	32	0.44	5.81474E-001	1.00827E-004	0.00000E+000	5.86284E-005	5.99601E-002	5.81743E-001	3.57900E+000	9	...........
	33	0.453333	5.93657E-001	1.00916E-004	0.00000E+000	5.99093E-005	5.99601E-002	5.93905E-001	3.57900E+000	9	...........
	34	0.466667	6.05561E-001	1.00730E-004	0.00000E+000	6.09984E-005	5.99601E-002	6.05840E-001	3.57900E+000	9	...........
	35	0.48	6.17323E-001	1.00341E-004	0.00000E+000	6.19426E-005	5.99601E-002	6.17543E-001	3.57900E+000	9	...........
	36	0.493333	6.28784E-001	1.01144E-004	0.00000E+000	6.35977E-005	5.99601E-002	6.28994E-001	3.57900E+000	9	...........
	37	0.506667	6.40042E-001	1.00849E-004	0.00000E+000	6.45476E-005	5.99601E-002	6.40271E-001	3.57900E+000	9	...........
	38	0.52	6.51077E-001	1.01352E-004	0.00000E+000	6.59881E-005	5.99601E-002	6.51284E-001	3.57900E+000	9	...........
	39	0.533333	6.61856E-001	1.00520E-004	0.00000E+000	6.65297E-005	5.99601E-002	6.62092E-001	3.57900E+000	9	...........
	40	0.546667	6.72446E-001	1.00048E-004	0.00000E+000	6.72768E-005	5.99601E-002	6.72700E-001	3.57900E+000	9	...........
	41	0.56	6.82814E-001	1.01189E-004	0.00000E+000	6.90931E-005	5.99601E-002	6.83088E-001	3.57900E+000	9	...........
	42	0.573333	6.92970E-001	1.01002E-004	0.00000E+000	6.99915E-005	5.99601E-002	6.93244E-001	3.57900E+000	9	...........
	43	0.586667	7.02917E-001	1.00638E-004	0.00000E+000	7.07399E-005	5.99601E-002	7.03192E-001	3.57900E+000	9	...........
	44	0.6	7.12670E-001	1.00919E-004	0.00000E+000	7.19218E-005	5.99601E-002	7.12959E-001	3.57900E+000	9	...........
	45	0.613333	7.22272E-001	1.00646E-004	0.00000E+000	7.26937E-005	5.99601E-002	7.22531E-001	3.57900E+000	9	...........
	46	0.626667	7.31593E-001	1.01125E-004	0.00000E+000	7.39825E-005	5.99601E-002	7.31880E-001	3.57900E+000	9	...........
	47	0.64	7.40800E-001	1.00858E-004	0.00000E+000	7.47160E-005	5.99601E-002	7.41083E-001	3.57900E+000	9	...........
	48	0.653333	7.49795E-001	1.00731E-004	0.00000E+000	7.55278E-005	5.99601E-002	7.50065E-001	3.57900E+000	9	...........
	49	0.666667	7.58632E-001	9.98072E-005	0.00000E+000	7.57169E-005	5.99601E-002	7.58874E-001	3.57900E+000	9	...........
	50	0.68	7.67285E-001	1.01440E-004	0.00000E+000	7.78332E-005	5.99601E-002	7.67527E-001	3.57900E+000	9	...........
	51	0.693333	7.75757E-001	1.01128E-004	0.00000E+000	7.84510E-005	5.99601E-002	7.76021E-001	3.57900E+000	9	...........
	52	0.706667	7.84089E-001	1.00528E-004	0.00000E+000	7.88230E-005	5.99601E-002	7.84331E-001	3.57900E+000	9	...........
	53	0.72	7.92244E-001	1.01515E-004	0.00000E+000	8.04245E-005	5.99601E-002	7.92501E-001	3.57900E+000	9	...........
	54	0.733333	8.00250E-001	1.00528E-004	0.00000E+000	8.04476E-005	5.99601E-002	8.00512E-001	3.57900E+000	9	...........
	55	0.746667	8.08074E-001	1.00385E-004	0.00000E+000	8.11188E-005	5.99601E-002	8.08361E-001	3.57900E+000	9	...........
	56	0.76	8.15808E-001	9.97978E-005	0.00000E+000	8.14158E-005	5.99601E-002	8.16093E-001	3.57900E+000	9	...........
	57	0.773333	8.23377E-001	1.01866E-004	0.00000E+000	8.38741E-005	5.99601E-002	8.23653E-001	3.57900E+000	9	...........
	58	0.786667	8.30785E-001	1.00144E-004	0.00000E+000	8.31979E-005	5.99601E-002	8.31130E-001	3.57900E+000	9	...........
	59	0.8	8.38066E-001	1.00940E-004	0.00000E+000	8.45942E-005	5.99601E-002	8.38383E-001	3.57900E+000	9	...........
	60	0.813333	8.45251E-001	1.00767E-004	0.00000E+000	8.51732E-005	5.99601E-002	8.45574E-001	3.57900E+000	9	...........
	61	0.826667	8.52265E-001	1.00904E-004	0.00000E+000	8.59972E-005	5.99601E-002	8.52596E-001	3.57900E+000	9	...........
	62	0.84	8.59158E-001	9.99999E-005	0.00000E+000	8.59157E-005	5.99601E-002	8.59492E-001	3.57900E+000	9	...........
	63	0.853333	8.65949E-001	1.00619E-004	0.00000E+000	8.71308E-005	5.99601E-002	8.66267E-001	3.57900E+000	9	...........
	64	0.866667	8.72601E-001	1.01045E-004	0.00000E+000	8.81720E-005	5.99601E-002	8.72934E-001	3.57900E+000	9	...........
	65	0.88	8.79131E-001	1.00962E-004	0.00000E+000	8.87585E-005	5.99601E-002	8.79473E-001	3.57900E+000	9	...........
	66	0.893333	8.85562E-001	1.00455E-004	0.00000E+000	8.89594E-005	5.99601E-002	8.85882E-001	3.57900E+000	9	...........
	67	0.906667	8.91841E-001	1.00870E-004	0.00000E+000	8.99599E-005	5.99601E-002	8.92192E-001	3.57900E+000	9	...........
	68	0.92	8.98006E-001	1.00828E-004	0.00000E+000	9.05443E-005	5.99601E-002	8.98388E-001	3.57900E+000	9	...........
	69	0.933333	9.04072E-001	1.01085E-004	0.00000E+000	9.13877E-005	5.99601E-002	9.04439E-001	3.57900E+000	9	...........
	70	0.946667	9.10031E-001	1.00691E-004	0.00000E+000	9.16317E-005	5.99601E-002	9.10379E-001	3.57900E+000	9	...........
	71	0.96	9.15876E-001	9.99364E-005	0.00000E+000	9.15293E-005	5.99601E-002	9.16233E-001	3.57900E+000	9	...........
	72	0.97333	9.21636E-001	1.01461E-004	0.00000E+000	9.35098E-005	5.99601E-002	9.21967E-001	3.57900E+000	9	...........
	73	0.98667	9.27273E-001	1.01398E-004	0.00000E+000	9.40237E-005	5.99601E-002	9.27608E-001	3.57900E+000	9	...........
	74	1	9.32786E-001	1.00504E-004	0.00000E+000	9.37489E-005	5.99601E-002	9.33122E-001	3.57900E+000	9	...........
	75	1.01333	9.38186E-001	1.01369E-004	0.00000E+000	9.51029E-005	5.99601E-002	9.38536E-001	3.57900E+000	9	...........
	76	1.02667	9.43478E-001	1.00836E-004	0.00000E+000	9.51361E-005	5.99601E-002	9.43825E-001	3.57900E+000	9	...........
	77	1.04	9.48718E-001	1.00290E-004	0.00000E+000	9.51466E-005	5.99601E-002	9.49053E-001	3.57900E+000	9	...........
	78	1.05333	9.53800E-001	1.00796E-004	0.00000E+000	9.61392E-005	5.99601E-002	9.54125E-001	3.57900E+000	9	...........
	79	1.06667	9.58775E-001	1.01360E-004	0.00000E+000	9.71810E-005	5.99601E-002	9.59109E-001	3.57900E+000	9	...........
	80	1.08	9.63675E-001	1.01159E-004	0.00000E+000	9.74839E-005	5.99601E-002	9.64019E-001	3.57900E+000	9	...........
	81	1.09333	9.68476E-001	1.00550E-004	0.00000E+000	9.73803E-005	5.99601E-002	9.68826E-001	3.57900E+000	9	...........
	82	1.10667	9.73180E-001	1.02115E-004	0.00000E+000	9.93762E-005	5.99601E-002	9.73551E-001	3.57900E+000	9	...........
	83	1.12	9.77807E-001	1.01396E-004	0.00000E+000	9.91457E-005	5.99601E-002	9.78146E-001	3.57900E+000	9	...........
	84	1.13333	9.82287E-001	1.00647E-004	0.00000E+000	9.88642E-005	5.99601E-002	9.82652E-001	3.57900E+000	9	...........
	85	1.14667	9.86687E-001	1.01367E-004	0.00000E+000	1.00017E-004	5.99601E-002	9.87079E-001	3.57900E+000	9	...........
	86	1.16	9.91016E-001	1.01498E-004	0.00000E+000	1.00586E-004	5.99601E-002	9.91364E-001	3.57900E+000	9	...........
	87	1.17333	9.95211E-001	1.01032E-004	0.00000E+000	1.00549E-004	5.99601E-002	9.95590E-001	3.57900E+000	9	...........
	88	1.18333	9.98864E-001	1.01211E-004	0.00000E+000	1.01096E-004	5.99601E-002	9.99231E-001	3.57900E+000	9	...........
STARTTIMEOFFSET	QUANT	2334.416	Start Time Offset (s)
