EXPLAIN
TAG	PWR800_CHARGE
TITLE	LABEL	PWR Cyclic Charge Discharge (Cell) - Charge Step	Test &Identifier
DATE	LABEL	13-7-2017	Date
TIME	LABEL	15:24:35	Time
NOTES	NOTES	2	&Notes...
	supercap test cell
	6M KOH
PSTAT	PSTAT	IFC5000-01520	Potentiostat
CAPACITY	QUANT	1.00000E-003	Capacity (A-hr)
CELLTYPE	SELECTOR	1	&Cell Type
WORKINGCONNECTION	SELECTOR	0	&Working Lead
MAXCHARGETIME	VARIABLEANDUNITS	1.00000E+002	s	1.00000E+002	second(s)	Max &Charge Time
CHARGECURRENT	QUANT	1.00000E-004	&Charge Current (A) 
VOLTAGEFINISH	TWOPARAM	F	1.00000E-003	3.60000E+003	&Voltage Finish	 I (A) < 	Max Time(s)
SAMPLETIME	QUANT	1.00000E-002	Sa&mple Period (s)
CHARGESTOPAT1	MULTIPARAM	4	1.00000E+000	Charge Stop At &1	Voltage > Limit	V
CHARGESTOPAT2	MULTIPARAM	0	0.00000E+000	Charge Stop At &2	None	N/A
AESBHCSELECTOR	TOGGLE	F	Save Both Half Cells
IRCOMP	TOGGLE	F	IR &Measure
EOC	QUANT	0	Open Circuit (V)
SEQUENCER	TOGGLE	TRUE	Run as Sequence
PSTATMODEL	IQUANT	53	Pstat Model
PSTATSECTION	LABEL	IFC5000-01520	Pstat Section
PSTATSERIALNO	LABEL	01520	Pstat Serial Number
CTRLMODE	IQUANT	0	Control Mode
ELECTROMETER	IQUANT	1	RE=0 or CS=1
IESTAB	IQUANT	0	I/E Stability
CASPEED	IQUANT	4	Control Amp Speed
CONVENTION	IQUANT	1	Current Convention
ICHRANGE	IQUANT	2	Ich Range
ICHRANGEMODE	TOGGLE	T	Ich Auto Range
ICHOFFSETENABLE	TOGGLE	F	Ich Offset Enable
ICHOFFSET	QUANT	0	Ich Offset (V)
ICHFILTER	IQUANT	1	Ich Filter
VCHRANGE	IQUANT	2	Vch Range
VCHRANGEMODE	TOGGLE	T	Vch Auto Range
VCHOFFSETENABLE	TOGGLE	F	Vch Offset Enable
VCHOFFSET	QUANT	0	Vch Offset (V)
VCHFILTER	IQUANT	1	Vch Filter
IERANGELOWERLIMIT	IQUANT	9	I/E Range Lower Limit
IERANGEMODE	TOGGLE	F	I/E AutoRange
IERANGE	IQUANT	9	I/E Range
ACHSELECT	IQUANT	1	Ach Select
ACHRANGE	IQUANT	2	Ach Range
ACHOFFSETENABLE	TOGGLE	F	Ach Offset Enable
ACHOFFSET	QUANT	0	Ach Offset (V)
ACHFILTER	IQUANT	1	Ach Filter
CABLEID	IQUANT	14	Cable ID
DCCALDATE	LABEL	5-7-2017	DC Calibration Date
ACCALDATE	LABEL	12/3/2015	AC Calibration Date
FRAMEWORKVERSION	QUANT	7.01	Framework Version
INSTRUMENTVERSION	LABEL	4.00	Instrument Version
CURVE	TABLE	93
	Pt	T	Vf	Im	Vu	Pwr	Sig	Ach	Temp	IERange	Over
	#	s	V	A	V	W	V	V	deg C	#	bits
	0	0.013333	1.31648E-001	1.00656E-004	0.00000E+000	1.32512E-005	5.99601E-002	1.31692E-001	3.57940E+000	9	...........
	1	0.026667	1.46901E-001	1.01112E-004	0.00000E+000	1.48534E-005	5.99601E-002	1.46921E-001	3.57940E+000	9	...........
	2	0.04	1.61711E-001	1.00526E-004	0.00000E+000	1.62561E-005	5.99601E-002	1.61734E-001	3.57940E+000	9	...........
	3	0.053333	1.76246E-001	9.99926E-005	0.00000E+000	1.76233E-005	5.99601E-002	1.76271E-001	3.57940E+000	9	...........
	4	0.066667	1.90591E-001	1.01326E-004	0.00000E+000	1.93119E-005	5.99601E-002	1.90622E-001	3.57921E+000	9	...........
	5	0.08	2.04795E-001	1.00907E-004	0.00000E+000	2.06653E-005	5.99601E-002	2.04827E-001	3.57890E+000	9	...........
	6	0.093333	2.18889E-001	1.00949E-004	0.00000E+000	2.20966E-005	5.99601E-002	2.18927E-001	3.57890E+000	9	...........
	7	0.106667	2.32918E-001	1.00956E-004	0.00000E+000	2.35146E-005	5.99601E-002	2.32953E-001	3.57890E+000	9	...........
	8	0.12	2.46891E-001	1.01426E-004	0.00000E+000	2.50413E-005	5.99601E-002	2.46940E-001	3.57890E+000	9	...........
	9	0.133333	2.60835E-001	1.01602E-004	0.00000E+000	2.65014E-005	5.99601E-002	2.60886E-001	3.57890E+000	9	...........
	10	0.146667	2.74764E-001	1.00325E-004	0.00000E+000	2.75657E-005	5.99601E-002	2.74818E-001	3.57890E+000	9	...........
	11	0.16	2.88692E-001	1.01077E-004	0.00000E+000	2.91802E-005	5.99601E-002	2.88742E-001	3.57890E+000	9	...........
	12	0.173333	3.02625E-001	1.00297E-004	0.00000E+000	3.03524E-005	5.99601E-002	3.02682E-001	3.57890E+000	9	...........
	13	0.186667	3.16584E-001	9.98749E-005	0.00000E+000	3.16188E-005	5.99601E-002	3.16641E-001	3.57890E+000	9	...........
	14	0.2	3.30543E-001	1.00989E-004	0.00000E+000	3.33811E-005	5.99601E-002	3.30604E-001	3.57890E+000	9	...........
	15	0.213333	3.44523E-001	1.00233E-004	0.00000E+000	3.45327E-005	5.99601E-002	3.44584E-001	3.57890E+000	9	...........
	16	0.226667	3.58515E-001	9.99457E-005	0.00000E+000	3.58320E-005	5.99601E-002	3.58587E-001	3.57890E+000	9	...........
	17	0.24	3.72520E-001	1.00822E-004	0.00000E+000	3.75582E-005	5.99601E-002	3.72588E-001	3.57890E+000	9	...........
	18	0.253333	3.86518E-001	1.00756E-004	0.00000E+000	3.89441E-005	5.99601E-002	3.86591E-001	3.57890E+000	9	...........
	19	0.266667	4.00496E-001	1.00735E-004	0.00000E+000	4.03441E-005	5.99601E-002	4.00581E-001	3.57890E+000	9	...........
	20	0.28	4.14441E-001	1.01444E-004	0.00000E+000	4.20425E-005	5.99601E-002	4.14523E-001	3.57890E+000	9	...........
	21	0.293333	4.28332E-001	1.00383E-004	0.00000E+000	4.29974E-005	5.99601E-002	4.28420E-001	3.57890E+000	9	...........
	22	0.306667	4.42152E-001	9.99343E-005	0.00000E+000	4.41862E-005	5.99601E-002	4.42248E-001	3.57890E+000	9	...........
	23	0.32	4.55883E-001	1.00812E-004	0.00000E+000	4.59582E-005	5.99601E-002	4.55976E-001	3.57890E+000	9	...........
	24	0.333333	4.69489E-001	1.01078E-004	0.00000E+000	4.74551E-005	5.99601E-002	4.69589E-001	3.57890E+000	9	...........
	25	0.346667	4.82965E-001	1.00734E-004	0.00000E+000	4.86512E-005	5.99601E-002	4.83073E-001	3.57890E+000	9	...........
	26	0.36	4.96282E-001	1.01131E-004	0.00000E+000	5.01897E-005	5.99601E-002	4.96389E-001	3.57890E+000	9	...........
	27	0.373333	5.09434E-001	9.96999E-005	0.00000E+000	5.07905E-005	5.99601E-002	5.09546E-001	3.57890E+000	9	...........
	28	0.386667	5.22403E-001	1.01686E-004	0.00000E+000	5.31209E-005	5.99601E-002	5.22517E-001	3.57890E+000	9	...........
	29	0.4	5.34971E-001	1.00657E-004	0.00000E+000	5.38487E-005	5.99601E-002	5.35163E-001	3.57890E+000	9	...........
	30	0.413333	5.47360E-001	1.01765E-004	0.00000E+000	5.57020E-005	5.99601E-002	5.47649E-001	3.57890E+000	9	...........
	31	0.426667	5.59692E-001	1.00992E-004	0.00000E+000	5.65243E-005	5.99601E-002	5.60011E-001	3.57890E+000	9	...........
	32	0.44	5.71858E-001	1.00934E-004	0.00000E+000	5.77202E-005	5.99601E-002	5.72106E-001	3.57890E+000	9	...........
	33	0.453333	5.83718E-001	1.00280E-004	0.00000E+000	5.85354E-005	5.99601E-002	5.84010E-001	3.57890E+000	9	...........
	34	0.466667	5.95400E-001	1.01304E-004	0.00000E+000	6.03166E-005	5.99601E-002	5.95678E-001	3.57890E+000	9	...........
	35	0.48	6.06818E-001	1.00535E-004	0.00000E+000	6.10067E-005	5.99601E-002	6.07112E-001	3.57890E+000	9	...........
	36	0.493333	6.18097E-001	1.00693E-004	0.00000E+000	6.22379E-005	5.99601E-002	6.18343E-001	3.57890E+000	9	...........
	37	0.506667	6.29090E-001	1.00125E-004	0.00000E+000	6.29876E-005	5.99601E-002	6.29354E-001	3.57890E+000	9	...........
	38	0.52	6.39850E-001	1.00155E-004	0.00000E+000	6.40843E-005	5.99601E-002	6.40139E-001	3.57890E+000	9	...........
	39	0.533333	6.50458E-001	1.01280E-004	0.00000E+000	6.58787E-005	5.99601E-002	6.50706E-001	3.57890E+000	9	...........
	40	0.546667	6.60792E-001	1.01371E-004	0.00000E+000	6.69852E-005	5.99601E-002	6.61073E-001	3.57890E+000	9	...........
	41	0.56	6.70952E-001	1.00442E-004	0.00000E+000	6.73915E-005	5.99601E-002	6.71213E-001	3.57890E+000	9	...........
	42	0.573333	6.80892E-001	1.00547E-004	0.00000E+000	6.84616E-005	5.99601E-002	6.81159E-001	3.57890E+000	9	...........
	43	0.586667	6.90600E-001	1.01541E-004	0.00000E+000	7.01242E-005	5.99601E-002	6.90910E-001	3.57890E+000	9	...........
	44	0.6	7.00184E-001	1.00662E-004	0.00000E+000	7.04816E-005	5.99601E-002	7.00462E-001	3.57890E+000	9	...........
	45	0.613333	7.09529E-001	1.01296E-004	0.00000E+000	7.18724E-005	5.99601E-002	7.09814E-001	3.57890E+000	9	...........
	46	0.626667	7.18727E-001	1.00503E-004	0.00000E+000	7.22343E-005	5.99601E-002	7.19000E-001	3.57890E+000	9	...........
	47	0.64	7.27729E-001	1.00444E-004	0.00000E+000	7.30959E-005	5.99601E-002	7.28000E-001	3.57890E+000	9	...........
	48	0.653333	7.36556E-001	1.00287E-004	0.00000E+000	7.38674E-005	5.99601E-002	7.36816E-001	3.57890E+000	9	...........
	49	0.666667	7.45219E-001	1.01661E-004	0.00000E+000	7.57595E-005	5.99601E-002	7.45498E-001	3.57890E+000	9	...........
	50	0.68	7.53705E-001	1.00739E-004	0.00000E+000	7.59272E-005	5.99601E-002	7.53991E-001	3.57890E+000	9	...........
	51	0.693333	7.62036E-001	1.00415E-004	0.00000E+000	7.65195E-005	5.99601E-002	7.62297E-001	3.57890E+000	9	...........
	52	0.706667	7.70221E-001	1.00339E-004	0.00000E+000	7.72829E-005	5.99601E-002	7.70491E-001	3.57890E+000	9	...........
	53	0.72	7.78218E-001	1.01118E-004	0.00000E+000	7.86917E-005	5.99601E-002	7.78509E-001	3.57890E+000	9	...........
	54	0.733333	7.86084E-001	1.00919E-004	0.00000E+000	7.93308E-005	5.99601E-002	7.86380E-001	3.57890E+000	9	...........
	55	0.746667	7.93811E-001	1.00751E-004	0.00000E+000	7.99774E-005	5.99601E-002	7.94111E-001	3.57890E+000	9	...........
	56	0.76	8.01373E-001	1.01108E-004	0.00000E+000	8.10256E-005	5.99601E-002	8.01663E-001	3.57890E+000	9	...........
	57	0.773333	8.08802E-001	1.01093E-004	0.00000E+000	8.17641E-005	5.99601E-002	8.09123E-001	3.57890E+000	9	...........
	58	0.786667	8.16109E-001	1.00335E-004	0.00000E+000	8.18847E-005	5.99601E-002	8.16411E-001	3.57890E+000	9	...........
	59	0.8	8.23309E-001	1.00518E-004	0.00000E+000	8.27572E-005	5.99601E-002	8.23595E-001	3.57890E+000	9	...........
	60	0.813333	8.30323E-001	1.01100E-004	0.00000E+000	8.39458E-005	5.99601E-002	8.30641E-001	3.57890E+000	9	...........
	61	0.826667	8.37225E-001	1.00927E-004	0.00000E+000	8.44987E-005	5.99601E-002	8.37560E-001	3.57890E+000	9	...........
	62	0.84	8.44040E-001	1.01045E-004	0.00000E+000	8.52859E-005	5.99601E-002	8.44367E-001	3.57890E+000	9	...........
	63	0.853333	8.50718E-001	1.01370E-004	0.00000E+000	8.62373E-005	5.99601E-002	8.51042E-001	3.57890E+000	9	...........
	64	0.866667	8.57272E-001	1.01237E-004	0.00000E+000	8.67873E-005	5.99601E-002	8.57629E-001	3.57890E+000	9	...........
	65	0.88	8.63722E-001	1.00591E-004	0.00000E+000	8.68824E-005	5.99601E-002	8.64058E-001	3.57890E+000	9	...........
	66	0.893333	8.70085E-001	1.01091E-004	0.00000E+000	8.79576E-005	5.99601E-002	8.70414E-001	3.57890E+000	9	...........
	67	0.906667	8.76298E-001	1.00656E-004	0.00000E+000	8.82049E-005	5.99601E-002	8.76642E-001	3.57890E+000	9	...........
	68	0.92	8.82408E-001	1.01259E-004	0.00000E+000	8.93513E-005	5.99601E-002	8.82766E-001	3.57890E+000	9	...........
	69	0.933333	8.88440E-001	1.01305E-004	0.00000E+000	9.00038E-005	5.99601E-002	8.88779E-001	3.57890E+000	9	...........
	70	0.946667	8.94351E-001	1.00581E-004	0.00000E+000	8.99550E-005	5.99601E-002	8.94693E-001	3.57890E+000	9	...........
	71	0.96	9.00155E-001	1.00231E-004	0.00000E+000	9.02237E-005	5.99601E-002	9.00470E-001	3.57890E+000	9	...........
	72	0.97333	9.05835E-001	1.00770E-004	0.00000E+000	9.12809E-005	5.99601E-002	9.06172E-001	3.57890E+000	9	...........
	73	0.98667	9.11456E-001	1.00033E-004	0.00000E+000	9.11759E-005	5.99601E-002	9.11779E-001	3.57890E+000	9	...........
	74	1	9.16935E-001	1.00840E-004	0.00000E+000	9.24635E-005	5.99601E-002	9.17263E-001	3.57890E+000	9	...........
	75	1.01333	9.22402E-001	1.01729E-004	0.00000E+000	9.38355E-005	5.99601E-002	9.22699E-001	3.57890E+000	9	...........
	76	1.02667	9.27693E-001	1.00416E-004	0.00000E+000	9.31549E-005	5.99601E-002	9.28007E-001	3.57890E+000	9	...........
	77	1.04	9.32885E-001	1.00451E-004	0.00000E+000	9.37093E-005	5.99601E-002	9.33204E-001	3.57890E+000	9	...........
	78	1.05333	9.37981E-001	1.00694E-004	0.00000E+000	9.44489E-005	5.99601E-002	9.38299E-001	3.57890E+000	9	...........
	79	1.06667	9.42976E-001	1.00441E-004	0.00000E+000	9.47131E-005	5.99601E-002	9.43313E-001	3.57890E+000	9	...........
	80	1.08	9.47926E-001	1.01318E-004	0.00000E+000	9.60418E-005	5.99601E-002	9.48270E-001	3.57890E+000	9	...........
	81	1.09333	9.52742E-001	1.00791E-004	0.00000E+000	9.60276E-005	5.99601E-002	9.53098E-001	3.57890E+000	9	...........
	82	1.10667	9.57465E-001	1.01025E-004	0.00000E+000	9.67281E-005	5.99601E-002	9.57813E-001	3.57890E+000	9	...........
	83	1.12	9.62122E-001	1.00828E-004	0.00000E+000	9.70091E-005	5.99601E-002	9.62450E-001	3.57890E+000	9	...........
	84	1.13333	9.66651E-001	1.00759E-004	0.00000E+000	9.73993E-005	5.99601E-002	9.67000E-001	3.57890E+000	9	...........
	85	1.14667	9.71100E-001	1.00583E-004	0.00000E+000	9.76766E-005	5.99601E-002	9.71475E-001	3.57890E+000	9	...........
	86	1.16	9.75503E-001	1.01140E-004	0.00000E+000	9.86621E-005	5.99601E-002	9.75858E-001	3.57890E+000	9	...........
	87	1.17333	9.79787E-001	1.00799E-004	0.00000E+000	9.87616E-005	5.99601E-002	9.80136E-001	3.57890E+000	9	...........
	88	1.18667	9.83971E-001	1.00876E-004	0.00000E+000	9.92592E-005	5.99601E-002	9.84361E-001	3.57890E+000	9	...........
	89	1.2	9.88102E-001	1.01298E-004	0.00000E+000	1.00093E-004	5.99601E-002	9.88475E-001	3.57890E+000	9	...........
	90	1.21333	9.92092E-001	1.00583E-004	0.00000E+000	9.97880E-005	5.99601E-002	9.92456E-001	3.57890E+000	9	...........
	91	1.22667	9.96032E-001	1.01146E-004	0.00000E+000	1.00745E-004	5.99601E-002	9.96397E-001	3.57890E+000	9	...........
	92	1.235	9.99186E-001	1.01226E-004	0.00000E+000	1.01144E-004	5.99601E-002	9.99557E-001	3.57890E+000	9	...........
STARTTIMEOFFSET	QUANT	1021.568	Start Time Offset (s)
