EXPLAIN
TAG	PWR800_CHARGE
TITLE	LABEL	PWR Cyclic Charge Discharge (Cell) - Charge Step	Test &Identifier
DATE	LABEL	13-7-2017	Date
TIME	LABEL	15:17:44	Time
NOTES	NOTES	2	&Notes...
	supercap test cell
	6M KOH
PSTAT	PSTAT	IFC5000-01520	Potentiostat
CAPACITY	QUANT	1.00000E-003	Capacity (A-hr)
CELLTYPE	SELECTOR	1	&Cell Type
WORKINGCONNECTION	SELECTOR	0	&Working Lead
MAXCHARGETIME	VARIABLEANDUNITS	1.00000E+002	s	1.00000E+002	second(s)	Max &Charge Time
CHARGECURRENT	QUANT	1.00000E-004	&Charge Current (A) 
VOLTAGEFINISH	TWOPARAM	F	1.00000E-003	3.60000E+003	&Voltage Finish	 I (A) < 	Max Time(s)
SAMPLETIME	QUANT	1.00000E-002	Sa&mple Period (s)
CHARGESTOPAT1	MULTIPARAM	4	1.00000E+000	Charge Stop At &1	Voltage > Limit	V
CHARGESTOPAT2	MULTIPARAM	0	0.00000E+000	Charge Stop At &2	None	N/A
AESBHCSELECTOR	TOGGLE	F	Save Both Half Cells
IRCOMP	TOGGLE	F	IR &Measure
EOC	QUANT	0	Open Circuit (V)
SEQUENCER	TOGGLE	TRUE	Run as Sequence
PSTATMODEL	IQUANT	53	Pstat Model
PSTATSECTION	LABEL	IFC5000-01520	Pstat Section
PSTATSERIALNO	LABEL	01520	Pstat Serial Number
CTRLMODE	IQUANT	0	Control Mode
ELECTROMETER	IQUANT	1	RE=0 or CS=1
IESTAB	IQUANT	0	I/E Stability
CASPEED	IQUANT	4	Control Amp Speed
CONVENTION	IQUANT	1	Current Convention
ICHRANGE	IQUANT	2	Ich Range
ICHRANGEMODE	TOGGLE	T	Ich Auto Range
ICHOFFSETENABLE	TOGGLE	F	Ich Offset Enable
ICHOFFSET	QUANT	0	Ich Offset (V)
ICHFILTER	IQUANT	1	Ich Filter
VCHRANGE	IQUANT	2	Vch Range
VCHRANGEMODE	TOGGLE	T	Vch Auto Range
VCHOFFSETENABLE	TOGGLE	F	Vch Offset Enable
VCHOFFSET	QUANT	0	Vch Offset (V)
VCHFILTER	IQUANT	1	Vch Filter
IERANGELOWERLIMIT	IQUANT	9	I/E Range Lower Limit
IERANGEMODE	TOGGLE	F	I/E AutoRange
IERANGE	IQUANT	9	I/E Range
ACHSELECT	IQUANT	1	Ach Select
ACHRANGE	IQUANT	2	Ach Range
ACHOFFSETENABLE	TOGGLE	F	Ach Offset Enable
ACHOFFSET	QUANT	0	Ach Offset (V)
ACHFILTER	IQUANT	1	Ach Filter
CABLEID	IQUANT	14	Cable ID
DCCALDATE	LABEL	5-7-2017	DC Calibration Date
ACCALDATE	LABEL	12/3/2015	AC Calibration Date
FRAMEWORKVERSION	QUANT	7.01	Framework Version
INSTRUMENTVERSION	LABEL	4.00	Instrument Version
CURVE	TABLE	95
	Pt	T	Vf	Im	Vu	Pwr	Sig	Ach	Temp	IERange	Over
	#	s	V	A	V	W	V	V	deg C	#	bits
	0	0.013333	1.33577E-001	1.00728E-004	0.00000E+000	1.34550E-005	5.99601E-002	1.33626E-001	3.58000E+000	9	...........
	1	0.026667	1.48796E-001	1.00681E-004	0.00000E+000	1.49810E-005	5.99601E-002	1.48824E-001	3.58000E+000	9	...........
	2	0.04	1.63580E-001	1.00948E-004	0.00000E+000	1.65131E-005	5.99601E-002	1.63607E-001	3.58000E+000	9	...........
	3	0.053333	1.78082E-001	1.01130E-004	0.00000E+000	1.80095E-005	5.99601E-002	1.78115E-001	3.57950E+000	9	...........
	4	0.066667	1.92399E-001	1.00532E-004	0.00000E+000	1.93423E-005	5.99601E-002	1.92432E-001	3.57900E+000	9	...........
	5	0.08	2.06572E-001	1.01494E-004	0.00000E+000	2.09658E-005	5.99601E-002	2.06603E-001	3.57900E+000	9	...........
	6	0.093333	2.20637E-001	1.00996E-004	0.00000E+000	2.22835E-005	5.99601E-002	2.20673E-001	3.57900E+000	9	...........
	7	0.106667	2.34631E-001	1.00833E-004	0.00000E+000	2.36587E-005	5.99601E-002	2.34671E-001	3.57900E+000	9	...........
	8	0.12	2.48568E-001	1.00818E-004	0.00000E+000	2.50601E-005	5.99601E-002	2.48613E-001	3.57900E+000	9	...........
	9	0.133333	2.62473E-001	1.00617E-004	0.00000E+000	2.64092E-005	5.99601E-002	2.62520E-001	3.57900E+000	9	...........
	10	0.146667	2.76364E-001	1.00360E-004	0.00000E+000	2.77360E-005	5.99601E-002	2.76416E-001	3.57900E+000	9	...........
	11	0.16	2.90250E-001	1.01239E-004	0.00000E+000	2.93845E-005	5.99601E-002	2.90302E-001	3.57900E+000	9	...........
	12	0.173333	3.04136E-001	1.01270E-004	0.00000E+000	3.07999E-005	5.99601E-002	3.04193E-001	3.57900E+000	9	...........
	13	0.186667	3.18029E-001	1.01456E-004	0.00000E+000	3.22661E-005	5.99601E-002	3.18088E-001	3.57900E+000	9	...........
	14	0.2	3.31924E-001	1.00507E-004	0.00000E+000	3.33607E-005	5.99601E-002	3.31988E-001	3.57900E+000	9	...........
	15	0.213333	3.45834E-001	1.01076E-004	0.00000E+000	3.49556E-005	5.99601E-002	3.45898E-001	3.57900E+000	9	...........
	16	0.226667	3.59747E-001	1.00949E-004	0.00000E+000	3.63161E-005	5.99601E-002	3.59817E-001	3.57900E+000	9	...........
	17	0.24	3.73654E-001	1.01698E-004	0.00000E+000	3.79999E-005	5.99601E-002	3.73722E-001	3.57900E+000	9	...........
	18	0.253333	3.87546E-001	1.01508E-004	0.00000E+000	3.93388E-005	5.99601E-002	3.87619E-001	3.57900E+000	9	...........
	19	0.266667	4.01411E-001	1.01546E-004	0.00000E+000	4.07617E-005	5.99601E-002	4.01490E-001	3.57900E+000	9	...........
	20	0.28	4.15225E-001	9.93258E-005	0.00000E+000	4.12426E-005	5.99601E-002	4.15307E-001	3.57900E+000	9	...........
	21	0.293333	4.28977E-001	9.98749E-005	0.00000E+000	4.28441E-005	5.99601E-002	4.29065E-001	3.57900E+000	9	...........
	22	0.306667	4.42647E-001	1.01538E-004	0.00000E+000	4.49454E-005	5.99601E-002	4.42740E-001	3.57900E+000	9	...........
	23	0.32	4.56211E-001	1.00569E-004	0.00000E+000	4.58806E-005	5.99601E-002	4.56309E-001	3.57900E+000	9	...........
	24	0.333333	4.69670E-001	1.01569E-004	0.00000E+000	4.77039E-005	5.99601E-002	4.69759E-001	3.57900E+000	9	...........
	25	0.346667	4.82974E-001	1.01293E-004	0.00000E+000	4.89219E-005	5.99601E-002	4.83072E-001	3.57900E+000	9	...........
	26	0.36	4.96118E-001	1.01992E-004	0.00000E+000	5.06001E-005	5.99601E-002	4.96222E-001	3.57900E+000	9	...........
	27	0.373333	5.09076E-001	1.00627E-004	0.00000E+000	5.12269E-005	5.99601E-002	5.09192E-001	3.57900E+000	9	...........
	28	0.386667	5.21858E-001	1.00189E-004	0.00000E+000	5.22842E-005	5.99601E-002	5.21970E-001	3.57900E+000	9	...........
	29	0.4	5.34246E-001	1.00495E-004	0.00000E+000	5.36889E-005	5.99601E-002	5.34439E-001	3.57900E+000	9	...........
	30	0.413333	5.46468E-001	1.01138E-004	0.00000E+000	5.52685E-005	5.99601E-002	5.46716E-001	3.57900E+000	9	...........
	31	0.426667	5.58608E-001	1.00267E-004	0.00000E+000	5.60097E-005	5.99601E-002	5.58874E-001	3.57900E+000	9	...........
	32	0.44	5.70560E-001	1.01175E-004	0.00000E+000	5.77265E-005	5.99601E-002	5.70810E-001	3.57900E+000	9	...........
	33	0.453333	5.82247E-001	1.01045E-004	0.00000E+000	5.88331E-005	5.99601E-002	5.82532E-001	3.57900E+000	9	...........
	34	0.466667	5.93770E-001	1.01175E-004	0.00000E+000	6.00747E-005	5.99601E-002	5.94031E-001	3.57900E+000	9	...........
	35	0.48	6.04999E-001	1.01101E-004	0.00000E+000	6.11661E-005	5.99601E-002	6.05280E-001	3.57900E+000	9	...........
	36	0.493333	6.16064E-001	1.01119E-004	0.00000E+000	6.22957E-005	5.99601E-002	6.16327E-001	3.57900E+000	9	...........
	37	0.506667	6.26884E-001	1.01885E-004	0.00000E+000	6.38699E-005	5.99601E-002	6.27161E-001	3.57900E+000	9	...........
	38	0.52	6.37487E-001	1.01097E-004	0.00000E+000	6.44480E-005	5.99601E-002	6.37773E-001	3.57900E+000	9	...........
	39	0.533333	6.47890E-001	1.01168E-004	0.00000E+000	6.55456E-005	5.99601E-002	6.48186E-001	3.57900E+000	9	...........
	40	0.546667	6.58073E-001	9.99770E-005	0.00000E+000	6.57922E-005	5.99601E-002	6.58362E-001	3.57900E+000	9	...........
	41	0.56	6.68080E-001	1.02118E-004	0.00000E+000	6.82230E-005	5.99601E-002	6.68375E-001	3.57900E+000	9	...........
	42	0.573333	6.77858E-001	1.00556E-004	0.00000E+000	6.81629E-005	5.99601E-002	6.78157E-001	3.57900E+000	9	...........
	43	0.586667	6.87427E-001	1.00717E-004	0.00000E+000	6.92354E-005	5.99601E-002	6.87749E-001	3.57900E+000	9	...........
	44	0.6	6.96849E-001	1.00293E-004	0.00000E+000	6.98889E-005	5.99601E-002	6.97138E-001	3.57900E+000	9	...........
	45	0.613333	7.06036E-001	1.00688E-004	0.00000E+000	7.10891E-005	5.99601E-002	7.06368E-001	3.57900E+000	9	...........
	46	0.626667	7.15101E-001	1.00773E-004	0.00000E+000	7.20629E-005	5.99601E-002	7.15403E-001	3.57900E+000	9	...........
	47	0.64	7.23985E-001	1.00004E-004	0.00000E+000	7.24015E-005	5.99601E-002	7.24273E-001	3.57900E+000	9	...........
	48	0.653333	7.32682E-001	1.00731E-004	0.00000E+000	7.38041E-005	5.99601E-002	7.32988E-001	3.57900E+000	9	...........
	49	0.666667	7.41223E-001	1.01307E-004	0.00000E+000	7.50914E-005	5.99601E-002	7.41513E-001	3.57900E+000	9	...........
	50	0.68	7.49568E-001	1.00788E-004	0.00000E+000	7.55472E-005	5.99601E-002	7.49869E-001	3.57900E+000	9	...........
	51	0.693333	7.57783E-001	1.00863E-004	0.00000E+000	7.64319E-005	5.99601E-002	7.58069E-001	3.57900E+000	9	...........
	52	0.706667	7.65832E-001	1.00601E-004	0.00000E+000	7.70435E-005	5.99601E-002	7.66135E-001	3.57900E+000	9	...........
	53	0.72	7.73741E-001	1.00508E-004	0.00000E+000	7.77675E-005	5.99601E-002	7.74064E-001	3.57900E+000	9	...........
	54	0.733333	7.81495E-001	1.01097E-004	0.00000E+000	7.90068E-005	5.99601E-002	7.81817E-001	3.57900E+000	9	...........
	55	0.746667	7.89111E-001	1.01195E-004	0.00000E+000	7.98540E-005	5.99601E-002	7.89426E-001	3.57900E+000	9	...........
	56	0.76	7.96618E-001	1.01464E-004	0.00000E+000	8.08279E-005	5.99601E-002	7.96919E-001	3.57900E+000	9	...........
	57	0.773333	8.03926E-001	1.01203E-004	0.00000E+000	8.13600E-005	5.99601E-002	8.04237E-001	3.57900E+000	9	...........
	58	0.786667	8.11116E-001	1.00873E-004	0.00000E+000	8.18197E-005	5.99601E-002	8.11473E-001	3.57900E+000	9	...........
	59	0.8	8.18228E-001	1.01413E-004	0.00000E+000	8.29787E-005	5.99601E-002	8.18562E-001	3.57900E+000	9	...........
	60	0.813333	8.25184E-001	1.00738E-004	0.00000E+000	8.31270E-005	5.99601E-002	8.25516E-001	3.57900E+000	9	...........
	61	0.826667	8.31998E-001	1.01380E-004	0.00000E+000	8.43483E-005	5.99601E-002	8.32340E-001	3.57900E+000	9	...........
	62	0.84	8.38703E-001	1.00674E-004	0.00000E+000	8.44356E-005	5.99601E-002	8.39067E-001	3.57900E+000	9	...........
	63	0.853333	8.45309E-001	1.01410E-004	0.00000E+000	8.57224E-005	5.99601E-002	8.45683E-001	3.57900E+000	9	...........
	64	0.866667	8.51802E-001	1.01311E-004	0.00000E+000	8.62966E-005	5.99601E-002	8.52169E-001	3.57900E+000	9	...........
	65	0.88	8.58175E-001	1.00464E-004	0.00000E+000	8.62153E-005	5.99601E-002	8.58544E-001	3.57900E+000	9	...........
	66	0.893333	8.64457E-001	1.01968E-004	0.00000E+000	8.81470E-005	5.99601E-002	8.64802E-001	3.57900E+000	9	...........
	67	0.906667	8.70593E-001	1.01986E-004	0.00000E+000	8.87881E-005	5.99601E-002	8.70984E-001	3.57900E+000	9	...........
	68	0.92	8.76657E-001	1.01210E-004	0.00000E+000	8.87260E-005	5.99601E-002	8.77008E-001	3.57900E+000	9	...........
	69	0.933333	8.82625E-001	1.00425E-004	0.00000E+000	8.86376E-005	5.99601E-002	8.82958E-001	3.57900E+000	9	...........
	70	0.946667	8.88459E-001	1.00326E-004	0.00000E+000	8.91355E-005	5.99601E-002	8.88822E-001	3.57900E+000	9	...........
	71	0.96	8.94213E-001	1.00481E-004	0.00000E+000	8.98517E-005	5.99601E-002	8.94578E-001	3.57900E+000	9	...........
	72	0.97333	8.99865E-001	1.01408E-004	0.00000E+000	9.12531E-005	5.99601E-002	9.00225E-001	3.57900E+000	9	...........
	73	0.98667	9.05410E-001	1.00931E-004	0.00000E+000	9.13843E-005	5.99601E-002	9.05802E-001	3.57900E+000	9	...........
	74	1	9.10893E-001	1.00521E-004	0.00000E+000	9.15638E-005	5.99601E-002	9.11233E-001	3.57900E+000	9	...........
	75	1.01333	9.16243E-001	1.01922E-004	0.00000E+000	9.33855E-005	5.99601E-002	9.16618E-001	3.57900E+000	9	...........
	76	1.02667	9.21540E-001	1.01218E-004	0.00000E+000	9.32763E-005	5.99601E-002	9.21869E-001	3.57900E+000	9	...........
	77	1.04	9.26709E-001	1.01325E-004	0.00000E+000	9.38990E-005	5.99601E-002	9.27058E-001	3.57900E+000	9	...........
	78	1.05333	9.31795E-001	1.00117E-004	0.00000E+000	9.32881E-005	5.99601E-002	9.32127E-001	3.57915E+000	9	...........
	79	1.06667	9.36759E-001	1.00712E-004	0.00000E+000	9.43424E-005	5.99601E-002	9.37117E-001	3.57930E+000	9	...........
	80	1.08	9.41658E-001	1.00675E-004	0.00000E+000	9.48015E-005	5.99601E-002	9.42015E-001	3.57930E+000	9	...........
	81	1.09333	9.46480E-001	1.01209E-004	0.00000E+000	9.57918E-005	5.99601E-002	9.46848E-001	3.57930E+000	9	...........
	82	1.10667	9.51222E-001	1.01237E-004	0.00000E+000	9.62985E-005	5.99601E-002	9.51578E-001	3.57930E+000	9	...........
	83	1.12	9.55851E-001	1.01950E-004	0.00000E+000	9.74493E-005	5.99601E-002	9.56199E-001	3.57930E+000	9	...........
	84	1.13333	9.60378E-001	1.00318E-004	0.00000E+000	9.63429E-005	5.99601E-002	9.60764E-001	3.57930E+000	9	...........
	85	1.14667	9.64823E-001	1.01335E-004	0.00000E+000	9.77699E-005	5.99601E-002	9.65196E-001	3.57930E+000	9	...........
	86	1.16	9.69165E-001	1.01159E-004	0.00000E+000	9.80393E-005	5.99601E-002	9.69573E-001	3.57930E+000	9	...........
	87	1.17333	9.73494E-001	1.01669E-004	0.00000E+000	9.89742E-005	5.99601E-002	9.73888E-001	3.57930E+000	9	...........
	88	1.18667	9.77709E-001	1.00716E-004	0.00000E+000	9.84707E-005	5.99601E-002	9.78070E-001	3.57930E+000	9	...........
	89	1.2	9.81821E-001	1.01539E-004	0.00000E+000	9.96929E-005	5.99601E-002	9.82172E-001	3.57930E+000	9	...........
	90	1.21333	9.85841E-001	1.00515E-004	0.00000E+000	9.90914E-005	5.99601E-002	9.86226E-001	3.57930E+000	9	...........
	91	1.22667	9.89794E-001	1.02044E-004	0.00000E+000	1.01003E-004	5.99601E-002	9.90165E-001	3.57930E+000	9	...........
	92	1.24	9.93635E-001	9.98707E-005	0.00000E+000	9.92350E-005	5.99601E-002	9.94022E-001	3.57930E+000	9	...........
	93	1.25333	9.97441E-001	1.01071E-004	0.00000E+000	1.00812E-004	5.99601E-002	9.97836E-001	3.57930E+000	9	...........
	94	1.25833	1.00001E+000	1.01570E-004	0.00000E+000	1.01572E-004	5.99601E-002	1.00039E+000	3.57930E+000	9	...........
STARTTIMEOFFSET	QUANT	710.6827	Start Time Offset (s)
