EXPLAIN
TAG	PWR800_CHARGE
TITLE	LABEL	PWR Cyclic Charge Discharge (Cell) - Charge Step	Test &Identifier
DATE	LABEL	13-7-2017	Date
TIME	LABEL	15:40:10	Time
NOTES	NOTES	2	&Notes...
	supercap test cell
	6M KOH
PSTAT	PSTAT	IFC5000-01520	Potentiostat
CAPACITY	QUANT	1.00000E-003	Capacity (A-hr)
CELLTYPE	SELECTOR	1	&Cell Type
WORKINGCONNECTION	SELECTOR	0	&Working Lead
MAXCHARGETIME	VARIABLEANDUNITS	1.00000E+002	s	1.00000E+002	second(s)	Max &Charge Time
CHARGECURRENT	QUANT	1.00000E-004	&Charge Current (A) 
VOLTAGEFINISH	TWOPARAM	F	1.00000E-003	3.60000E+003	&Voltage Finish	 I (A) < 	Max Time(s)
SAMPLETIME	QUANT	1.00000E-002	Sa&mple Period (s)
CHARGESTOPAT1	MULTIPARAM	4	1.00000E+000	Charge Stop At &1	Voltage > Limit	V
CHARGESTOPAT2	MULTIPARAM	0	0.00000E+000	Charge Stop At &2	None	N/A
AESBHCSELECTOR	TOGGLE	F	Save Both Half Cells
IRCOMP	TOGGLE	F	IR &Measure
EOC	QUANT	0	Open Circuit (V)
SEQUENCER	TOGGLE	TRUE	Run as Sequence
PSTATMODEL	IQUANT	53	Pstat Model
PSTATSECTION	LABEL	IFC5000-01520	Pstat Section
PSTATSERIALNO	LABEL	01520	Pstat Serial Number
CTRLMODE	IQUANT	0	Control Mode
ELECTROMETER	IQUANT	1	RE=0 or CS=1
IESTAB	IQUANT	0	I/E Stability
CASPEED	IQUANT	4	Control Amp Speed
CONVENTION	IQUANT	1	Current Convention
ICHRANGE	IQUANT	2	Ich Range
ICHRANGEMODE	TOGGLE	T	Ich Auto Range
ICHOFFSETENABLE	TOGGLE	F	Ich Offset Enable
ICHOFFSET	QUANT	0	Ich Offset (V)
ICHFILTER	IQUANT	1	Ich Filter
VCHRANGE	IQUANT	2	Vch Range
VCHRANGEMODE	TOGGLE	T	Vch Auto Range
VCHOFFSETENABLE	TOGGLE	F	Vch Offset Enable
VCHOFFSET	QUANT	0	Vch Offset (V)
VCHFILTER	IQUANT	1	Vch Filter
IERANGELOWERLIMIT	IQUANT	9	I/E Range Lower Limit
IERANGEMODE	TOGGLE	F	I/E AutoRange
IERANGE	IQUANT	9	I/E Range
ACHSELECT	IQUANT	1	Ach Select
ACHRANGE	IQUANT	2	Ach Range
ACHOFFSETENABLE	TOGGLE	F	Ach Offset Enable
ACHOFFSET	QUANT	0	Ach Offset (V)
ACHFILTER	IQUANT	1	Ach Filter
CABLEID	IQUANT	14	Cable ID
DCCALDATE	LABEL	5-7-2017	DC Calibration Date
ACCALDATE	LABEL	12/3/2015	AC Calibration Date
FRAMEWORKVERSION	QUANT	7.01	Framework Version
INSTRUMENTVERSION	LABEL	4.00	Instrument Version
CURVE	TABLE	91
	Pt	T	Vf	Im	Vu	Pwr	Sig	Ach	Temp	IERange	Over
	#	s	V	A	V	W	V	V	deg C	#	bits
	0	0.013333	1.32997E-001	1.01492E-004	0.00000E+000	1.34981E-005	5.99601E-002	1.33036E-001	3.57850E+000	9	...........
	1	0.026667	1.48281E-001	1.00538E-004	0.00000E+000	1.49078E-005	5.99601E-002	1.48300E-001	3.57850E+000	9	...........
	2	0.04	1.63130E-001	1.00249E-004	0.00000E+000	1.63536E-005	5.99601E-002	1.63152E-001	3.57850E+000	9	...........
	3	0.053333	1.77709E-001	1.00892E-004	0.00000E+000	1.79294E-005	5.99601E-002	1.77742E-001	3.57850E+000	9	...........
	4	0.066667	1.92103E-001	1.00301E-004	0.00000E+000	1.92681E-005	5.99601E-002	1.92133E-001	3.57850E+000	9	...........
	5	0.08	2.06350E-001	1.01234E-004	0.00000E+000	2.08895E-005	5.99601E-002	2.06387E-001	3.57850E+000	9	...........
	6	0.093333	2.20501E-001	1.00975E-004	0.00000E+000	2.22651E-005	5.99601E-002	2.20535E-001	3.57850E+000	9	...........
	7	0.106667	2.34581E-001	1.00176E-004	0.00000E+000	2.34994E-005	5.99601E-002	2.34619E-001	3.57850E+000	9	...........
	8	0.12	2.48612E-001	9.98687E-005	0.00000E+000	2.48286E-005	5.99601E-002	2.48654E-001	3.57850E+000	9	...........
	9	0.133333	2.62625E-001	1.01049E-004	0.00000E+000	2.65380E-005	5.99601E-002	2.62671E-001	3.57850E+000	9	...........
	10	0.146667	2.76625E-001	1.01041E-004	0.00000E+000	2.79504E-005	5.99601E-002	2.76674E-001	3.57850E+000	9	...........
	11	0.16	2.90621E-001	1.00264E-004	0.00000E+000	2.91387E-005	5.99601E-002	2.90676E-001	3.57850E+000	9	...........
	12	0.173333	3.04638E-001	1.00949E-004	0.00000E+000	3.07529E-005	5.99601E-002	3.04694E-001	3.57850E+000	9	...........
	13	0.186667	3.18675E-001	1.00986E-004	0.00000E+000	3.21815E-005	5.99601E-002	3.18735E-001	3.57850E+000	9	...........
	14	0.2	3.32727E-001	1.00694E-004	0.00000E+000	3.35035E-005	5.99601E-002	3.32789E-001	3.57850E+000	9	...........
	15	0.213333	3.46806E-001	1.00343E-004	0.00000E+000	3.47995E-005	5.99601E-002	3.46871E-001	3.57850E+000	9	...........
	16	0.226667	3.60909E-001	1.01528E-004	0.00000E+000	3.66425E-005	5.99601E-002	3.60973E-001	3.57850E+000	9	...........
	17	0.24	3.75023E-001	1.01381E-004	0.00000E+000	3.80203E-005	5.99601E-002	3.75097E-001	3.57850E+000	9	...........
	18	0.253333	3.89149E-001	1.00725E-004	0.00000E+000	3.91971E-005	5.99601E-002	3.89220E-001	3.57850E+000	9	...........
	19	0.266667	4.03264E-001	1.01226E-004	0.00000E+000	4.08209E-005	5.99601E-002	4.03337E-001	3.57850E+000	9	...........
	20	0.28	4.17350E-001	1.01085E-004	0.00000E+000	4.21877E-005	5.99601E-002	4.17435E-001	3.57850E+000	9	...........
	21	0.293333	4.31395E-001	1.01001E-004	0.00000E+000	4.35714E-005	5.99601E-002	4.31481E-001	3.57850E+000	9	...........
	22	0.306667	4.45382E-001	1.00531E-004	0.00000E+000	4.47748E-005	5.99601E-002	4.45472E-001	3.57850E+000	9	...........
	23	0.32	4.59285E-001	1.01281E-004	0.00000E+000	4.65170E-005	5.99601E-002	4.59376E-001	3.57850E+000	9	...........
	24	0.333333	4.73079E-001	1.00952E-004	0.00000E+000	4.77584E-005	5.99601E-002	4.73170E-001	3.57850E+000	9	...........
	25	0.346667	4.86736E-001	1.00795E-004	0.00000E+000	4.90605E-005	5.99601E-002	4.86841E-001	3.57850E+000	9	...........
	26	0.36	5.00252E-001	1.00864E-004	0.00000E+000	5.04573E-005	5.99601E-002	5.00356E-001	3.57850E+000	9	...........
	27	0.373333	5.13604E-001	1.00290E-004	0.00000E+000	5.15091E-005	5.99601E-002	5.13711E-001	3.57850E+000	9	...........
	28	0.386667	5.26773E-001	1.00458E-004	0.00000E+000	5.29187E-005	5.99601E-002	5.26881E-001	3.57850E+000	9	...........
	29	0.4	5.39421E-001	1.00793E-004	0.00000E+000	5.43698E-005	5.99601E-002	5.39641E-001	3.57850E+000	9	...........
	30	0.413333	5.52133E-001	1.01261E-004	0.00000E+000	5.59093E-005	5.99601E-002	5.52405E-001	3.57850E+000	9	...........
	31	0.426667	5.64703E-001	1.00303E-004	0.00000E+000	5.66414E-005	5.99601E-002	5.64957E-001	3.57850E+000	9	...........
	32	0.44	5.76990E-001	9.98561E-005	0.00000E+000	5.76160E-005	5.99601E-002	5.77260E-001	3.57850E+000	9	...........
	33	0.453333	5.89095E-001	1.00402E-004	0.00000E+000	5.91464E-005	5.99601E-002	5.89343E-001	3.57850E+000	9	...........
	34	0.466667	6.00934E-001	1.00296E-004	0.00000E+000	6.02711E-005	5.99601E-002	6.01211E-001	3.57850E+000	9	...........
	35	0.48	6.12560E-001	1.00148E-004	0.00000E+000	6.13466E-005	5.99601E-002	6.12859E-001	3.57850E+000	9	...........
	36	0.493333	6.24005E-001	1.01090E-004	0.00000E+000	6.30805E-005	5.99601E-002	6.24252E-001	3.57850E+000	9	...........
	37	0.506667	6.35132E-001	1.00508E-004	0.00000E+000	6.38361E-005	5.99601E-002	6.35408E-001	3.57850E+000	9	...........
	38	0.52	6.46100E-001	1.00574E-004	0.00000E+000	6.49809E-005	5.99601E-002	6.46368E-001	3.57850E+000	9	...........
	39	0.533333	6.56848E-001	1.01212E-004	0.00000E+000	6.64807E-005	5.99601E-002	6.57106E-001	3.57850E+000	9	...........
	40	0.546667	6.67348E-001	1.00770E-004	0.00000E+000	6.72486E-005	5.99601E-002	6.67629E-001	3.57850E+000	9	...........
	41	0.56	6.77646E-001	1.01655E-004	0.00000E+000	6.88864E-005	5.99601E-002	6.77933E-001	3.57850E+000	9	...........
	42	0.573333	6.87747E-001	1.00831E-004	0.00000E+000	6.93465E-005	5.99601E-002	6.88033E-001	3.57850E+000	9	...........
	43	0.586667	6.97631E-001	1.00285E-004	0.00000E+000	6.99622E-005	5.99601E-002	6.97904E-001	3.57850E+000	9	...........
	44	0.6	7.07325E-001	1.01144E-004	0.00000E+000	7.15417E-005	5.99601E-002	7.07590E-001	3.57850E+000	9	...........
	45	0.613333	7.16831E-001	1.00533E-004	0.00000E+000	7.20655E-005	5.99601E-002	7.17109E-001	3.57850E+000	9	...........
	46	0.626667	7.26177E-001	1.01525E-004	0.00000E+000	7.37253E-005	5.99601E-002	7.26426E-001	3.57850E+000	9	...........
	47	0.64	7.35268E-001	1.01394E-004	0.00000E+000	7.45518E-005	5.99601E-002	7.35539E-001	3.57850E+000	9	...........
	48	0.653333	7.44243E-001	1.01076E-004	0.00000E+000	7.52252E-005	5.99601E-002	7.44516E-001	3.57850E+000	9	...........
	49	0.666667	7.53020E-001	1.01297E-004	0.00000E+000	7.62787E-005	5.99601E-002	7.53294E-001	3.57850E+000	9	...........
	50	0.68	7.61623E-001	1.00869E-004	0.00000E+000	7.68240E-005	5.99601E-002	7.61889E-001	3.57850E+000	9	...........
	51	0.693333	7.70066E-001	1.01414E-004	0.00000E+000	7.80953E-005	5.99601E-002	7.70351E-001	3.57850E+000	9	...........
	52	0.706667	7.78338E-001	1.01459E-004	0.00000E+000	7.89690E-005	5.99601E-002	7.78610E-001	3.57850E+000	9	...........
	53	0.72	7.86450E-001	1.00134E-004	0.00000E+000	7.87506E-005	5.99601E-002	7.86725E-001	3.57850E+000	9	...........
	54	0.733333	7.94453E-001	1.02124E-004	0.00000E+000	8.11329E-005	5.99601E-002	7.94701E-001	3.57850E+000	9	...........
	55	0.746667	8.02257E-001	1.01077E-004	0.00000E+000	8.10899E-005	5.99601E-002	8.02521E-001	3.57850E+000	9	...........
	56	0.76	8.09922E-001	1.00655E-004	0.00000E+000	8.15229E-005	5.99601E-002	8.10177E-001	3.57850E+000	9	...........
	57	0.773333	8.17446E-001	1.00775E-004	0.00000E+000	8.23782E-005	5.99601E-002	8.17728E-001	3.57903E+000	9	...........
	58	0.786667	8.24826E-001	1.00589E-004	0.00000E+000	8.29681E-005	5.99601E-002	8.25125E-001	3.57990E+000	9	...........
	59	0.8	8.32071E-001	1.01527E-004	0.00000E+000	8.44780E-005	5.99601E-002	8.32381E-001	3.57990E+000	9	...........
	60	0.813333	8.39189E-001	1.00491E-004	0.00000E+000	8.43307E-005	5.99601E-002	8.39521E-001	3.57990E+000	9	...........
	61	0.826667	8.46215E-001	1.00727E-004	0.00000E+000	8.52369E-005	5.99601E-002	8.46532E-001	3.57990E+000	9	...........
	62	0.84	8.53075E-001	1.01195E-004	0.00000E+000	8.63269E-005	5.99601E-002	8.53386E-001	3.57990E+000	9	...........
	63	0.853333	8.59819E-001	1.00615E-004	0.00000E+000	8.65104E-005	5.99601E-002	8.60169E-001	3.57990E+000	9	...........
	64	0.866667	8.66448E-001	1.00330E-004	0.00000E+000	8.69309E-005	5.99601E-002	8.66792E-001	3.57990E+000	9	...........
	65	0.88	8.72982E-001	1.01582E-004	0.00000E+000	8.86788E-005	5.99601E-002	8.73337E-001	3.57990E+000	9	...........
	66	0.893333	8.79364E-001	1.00952E-004	0.00000E+000	8.87737E-005	5.99601E-002	8.79711E-001	3.57990E+000	9	...........
	67	0.906667	8.85659E-001	1.00595E-004	0.00000E+000	8.90927E-005	5.99601E-002	8.86004E-001	3.57990E+000	9	...........
	68	0.92	8.91801E-001	1.00562E-004	0.00000E+000	8.96808E-005	5.99601E-002	8.92162E-001	3.57990E+000	9	...........
	69	0.933333	8.97853E-001	1.01069E-004	0.00000E+000	9.07450E-005	5.99601E-002	8.98215E-001	3.57990E+000	9	...........
	70	0.946667	9.03799E-001	1.00239E-004	0.00000E+000	9.05955E-005	5.99601E-002	9.04169E-001	3.57990E+000	9	...........
	71	0.96	9.09638E-001	1.00716E-004	0.00000E+000	9.16148E-005	5.99601E-002	9.09984E-001	3.57990E+000	9	...........
	72	0.97333	9.15372E-001	1.01433E-004	0.00000E+000	9.28485E-005	5.99601E-002	9.15738E-001	3.57990E+000	9	...........
	73	0.98667	9.21024E-001	1.00621E-004	0.00000E+000	9.26743E-005	5.99601E-002	9.21370E-001	3.57990E+000	9	...........
	74	1	9.26580E-001	1.01259E-004	0.00000E+000	9.38241E-005	5.99601E-002	9.26920E-001	3.57990E+000	9	...........
	75	1.01333	9.32002E-001	1.01320E-004	0.00000E+000	9.44304E-005	5.99601E-002	9.32320E-001	3.57990E+000	9	...........
	76	1.02667	9.37284E-001	1.01031E-004	0.00000E+000	9.46951E-005	5.99601E-002	9.37666E-001	3.57990E+000	9	...........
	77	1.04	9.42485E-001	1.00502E-004	0.00000E+000	9.47217E-005	5.99601E-002	9.42861E-001	3.57990E+000	9	...........
	78	1.05333	9.47639E-001	9.96415E-005	0.00000E+000	9.44242E-005	5.99601E-002	9.47995E-001	3.57990E+000	9	...........
	79	1.06667	9.52661E-001	1.00919E-004	0.00000E+000	9.61415E-005	5.99601E-002	9.53000E-001	3.57990E+000	9	...........
	80	1.08	9.57547E-001	1.00794E-004	0.00000E+000	9.65148E-005	5.99601E-002	9.57934E-001	3.57990E+000	9	...........
	81	1.09333	9.62351E-001	1.00344E-004	0.00000E+000	9.65659E-005	5.99601E-002	9.62760E-001	3.57990E+000	9	...........
	82	1.10667	9.67084E-001	9.99697E-005	0.00000E+000	9.66791E-005	5.99601E-002	9.67464E-001	3.57990E+000	9	...........
	83	1.12	9.71718E-001	1.00960E-004	0.00000E+000	9.81042E-005	5.99601E-002	9.72123E-001	3.57990E+000	9	...........
	84	1.13333	9.76271E-001	1.00977E-004	0.00000E+000	9.85811E-005	5.99601E-002	9.76654E-001	3.57990E+000	9	...........
	85	1.14667	9.80709E-001	1.00693E-004	0.00000E+000	9.87503E-005	5.99601E-002	9.81082E-001	3.57990E+000	9	...........
	86	1.16	9.85026E-001	1.00511E-004	0.00000E+000	9.90064E-005	5.99601E-002	9.85432E-001	3.57990E+000	9	...........
	87	1.17333	9.89292E-001	1.01235E-004	0.00000E+000	1.00151E-004	5.99601E-002	9.89692E-001	3.57990E+000	9	...........
	88	1.18667	9.93431E-001	1.00806E-004	0.00000E+000	1.00144E-004	5.99601E-002	9.93842E-001	3.57990E+000	9	...........
	89	1.2	9.97521E-001	1.00544E-004	0.00000E+000	1.00295E-004	5.99601E-002	9.97935E-001	3.57990E+000	9	...........
	90	1.20333	1.00005E+000	1.01769E-004	0.00000E+000	1.01774E-004	5.99601E-002	1.00045E+000	3.57990E+000	9	...........
STARTTIMEOFFSET	QUANT	1725.32	Start Time Offset (s)
