EXPLAIN
TAG	PWR800_CHARGE
TITLE	LABEL	PWR Cyclic Charge Discharge (Cell) - Charge Step	Test &Identifier
DATE	LABEL	13-7-2017	Date
TIME	LABEL	15:46:38	Time
NOTES	NOTES	2	&Notes...
	supercap test cell
	6M KOH
PSTAT	PSTAT	IFC5000-01520	Potentiostat
CAPACITY	QUANT	1.00000E-003	Capacity (A-hr)
CELLTYPE	SELECTOR	1	&Cell Type
WORKINGCONNECTION	SELECTOR	0	&Working Lead
MAXCHARGETIME	VARIABLEANDUNITS	1.00000E+002	s	1.00000E+002	second(s)	Max &Charge Time
CHARGECURRENT	QUANT	1.00000E-004	&Charge Current (A) 
VOLTAGEFINISH	TWOPARAM	F	1.00000E-003	3.60000E+003	&Voltage Finish	 I (A) < 	Max Time(s)
SAMPLETIME	QUANT	1.00000E-002	Sa&mple Period (s)
CHARGESTOPAT1	MULTIPARAM	4	1.00000E+000	Charge Stop At &1	Voltage > Limit	V
CHARGESTOPAT2	MULTIPARAM	0	0.00000E+000	Charge Stop At &2	None	N/A
AESBHCSELECTOR	TOGGLE	F	Save Both Half Cells
IRCOMP	TOGGLE	F	IR &Measure
EOC	QUANT	0	Open Circuit (V)
SEQUENCER	TOGGLE	TRUE	Run as Sequence
PSTATMODEL	IQUANT	53	Pstat Model
PSTATSECTION	LABEL	IFC5000-01520	Pstat Section
PSTATSERIALNO	LABEL	01520	Pstat Serial Number
CTRLMODE	IQUANT	0	Control Mode
ELECTROMETER	IQUANT	1	RE=0 or CS=1
IESTAB	IQUANT	0	I/E Stability
CASPEED	IQUANT	4	Control Amp Speed
CONVENTION	IQUANT	1	Current Convention
ICHRANGE	IQUANT	2	Ich Range
ICHRANGEMODE	TOGGLE	T	Ich Auto Range
ICHOFFSETENABLE	TOGGLE	F	Ich Offset Enable
ICHOFFSET	QUANT	0	Ich Offset (V)
ICHFILTER	IQUANT	1	Ich Filter
VCHRANGE	IQUANT	2	Vch Range
VCHRANGEMODE	TOGGLE	T	Vch Auto Range
VCHOFFSETENABLE	TOGGLE	F	Vch Offset Enable
VCHOFFSET	QUANT	0	Vch Offset (V)
VCHFILTER	IQUANT	1	Vch Filter
IERANGELOWERLIMIT	IQUANT	9	I/E Range Lower Limit
IERANGEMODE	TOGGLE	F	I/E AutoRange
IERANGE	IQUANT	9	I/E Range
ACHSELECT	IQUANT	1	Ach Select
ACHRANGE	IQUANT	2	Ach Range
ACHOFFSETENABLE	TOGGLE	F	Ach Offset Enable
ACHOFFSET	QUANT	0	Ach Offset (V)
ACHFILTER	IQUANT	1	Ach Filter
CABLEID	IQUANT	14	Cable ID
DCCALDATE	LABEL	5-7-2017	DC Calibration Date
ACCALDATE	LABEL	12/3/2015	AC Calibration Date
FRAMEWORKVERSION	QUANT	7.01	Framework Version
INSTRUMENTVERSION	LABEL	4.00	Instrument Version
CURVE	TABLE	90
	Pt	T	Vf	Im	Vu	Pwr	Sig	Ach	Temp	IERange	Over
	#	s	V	A	V	W	V	V	deg C	#	bits
	0	0.013333	1.31364E-001	1.00777E-004	0.00000E+000	1.32385E-005	5.99601E-002	1.31417E-001	3.57920E+000	9	...........
	1	0.026667	1.46648E-001	1.01077E-004	0.00000E+000	1.48228E-005	5.99601E-002	1.46670E-001	3.57920E+000	9	...........
	2	0.04	1.61485E-001	1.00380E-004	0.00000E+000	1.62099E-005	5.99601E-002	1.61507E-001	3.57920E+000	9	...........
	3	0.053333	1.76050E-001	1.00816E-004	0.00000E+000	1.77487E-005	5.99601E-002	1.76079E-001	3.57920E+000	9	...........
	4	0.066667	1.90432E-001	1.00626E-004	0.00000E+000	1.91624E-005	5.99601E-002	1.90457E-001	3.57920E+000	9	...........
	5	0.08	2.04667E-001	1.00764E-004	0.00000E+000	2.06230E-005	5.99601E-002	2.04701E-001	3.57920E+000	9	...........
	6	0.093333	2.18802E-001	1.01117E-004	0.00000E+000	2.21245E-005	5.99601E-002	2.18838E-001	3.57920E+000	9	...........
	7	0.106667	2.32875E-001	1.00529E-004	0.00000E+000	2.34107E-005	5.99601E-002	2.32906E-001	3.57920E+000	9	...........
	8	0.12	2.46891E-001	1.00616E-004	0.00000E+000	2.48411E-005	5.99601E-002	2.46934E-001	3.57920E+000	9	...........
	9	0.133333	2.60885E-001	9.97843E-005	0.00000E+000	2.60322E-005	5.99601E-002	2.60934E-001	3.57920E+000	9	...........
	10	0.146667	2.74872E-001	1.01088E-004	0.00000E+000	2.77862E-005	5.99601E-002	2.74919E-001	3.57920E+000	9	...........
	11	0.16	2.88864E-001	1.00725E-004	0.00000E+000	2.90959E-005	5.99601E-002	2.88913E-001	3.57920E+000	9	...........
	12	0.173333	3.02866E-001	1.00930E-004	0.00000E+000	3.05684E-005	5.99601E-002	3.02930E-001	3.57920E+000	9	...........
	13	0.186667	3.16891E-001	1.00221E-004	0.00000E+000	3.17591E-005	5.99601E-002	3.16951E-001	3.57920E+000	9	...........
	14	0.2	3.30939E-001	1.00470E-004	0.00000E+000	3.32494E-005	5.99601E-002	3.31001E-001	3.57920E+000	9	...........
	15	0.213333	3.45017E-001	1.01220E-004	0.00000E+000	3.49226E-005	5.99601E-002	3.45084E-001	3.57920E+000	9	...........
	16	0.226667	3.59117E-001	1.01126E-004	0.00000E+000	3.63161E-005	5.99601E-002	3.59186E-001	3.57920E+000	9	...........
	17	0.24	3.73235E-001	1.00592E-004	0.00000E+000	3.75444E-005	5.99601E-002	3.73310E-001	3.57920E+000	9	...........
	18	0.253333	3.87369E-001	1.00748E-004	0.00000E+000	3.90267E-005	5.99601E-002	3.87444E-001	3.57920E+000	9	...........
	19	0.266667	4.01506E-001	1.01223E-004	0.00000E+000	4.06417E-005	5.99601E-002	4.01583E-001	3.57920E+000	9	...........
	20	0.28	4.15621E-001	1.00990E-004	0.00000E+000	4.19734E-005	5.99601E-002	4.15709E-001	3.57920E+000	9	...........
	21	0.293333	4.29707E-001	1.01051E-004	0.00000E+000	4.34224E-005	5.99601E-002	4.29801E-001	3.57920E+000	9	...........
	22	0.306667	4.43734E-001	1.00536E-004	0.00000E+000	4.46115E-005	5.99601E-002	4.43832E-001	3.57920E+000	9	...........
	23	0.32	4.57692E-001	1.01510E-004	0.00000E+000	4.64602E-005	5.99601E-002	4.57783E-001	3.57920E+000	9	...........
	24	0.333333	4.71547E-001	9.99353E-005	0.00000E+000	4.71242E-005	5.99601E-002	4.71645E-001	3.57920E+000	9	...........
	25	0.346667	4.85285E-001	1.01871E-004	0.00000E+000	4.94365E-005	5.99601E-002	4.85382E-001	3.57920E+000	9	...........
	26	0.36	4.98875E-001	1.01276E-004	0.00000E+000	5.05242E-005	5.99601E-002	4.98977E-001	3.57920E+000	9	...........
	27	0.373333	5.12300E-001	1.00813E-004	0.00000E+000	5.16463E-005	5.99601E-002	5.12407E-001	3.57920E+000	9	...........
	28	0.386667	5.25551E-001	1.00532E-004	0.00000E+000	5.28348E-005	5.99601E-002	5.25656E-001	3.57920E+000	9	...........
	29	0.4	5.38335E-001	1.01354E-004	0.00000E+000	5.45626E-005	5.99601E-002	5.38527E-001	3.57920E+000	9	...........
	30	0.413333	5.51094E-001	1.00931E-004	0.00000E+000	5.56227E-005	5.99601E-002	5.51356E-001	3.57920E+000	9	...........
	31	0.426667	5.63737E-001	1.01320E-004	0.00000E+000	5.71179E-005	5.99601E-002	5.64040E-001	3.57920E+000	9	...........
	32	0.44	5.76167E-001	1.01186E-004	0.00000E+000	5.82998E-005	5.99601E-002	5.76420E-001	3.57920E+000	9	...........
	33	0.453333	5.88353E-001	1.01354E-004	0.00000E+000	5.96321E-005	5.99601E-002	5.88635E-001	3.57920E+000	9	...........
	34	0.466667	6.00301E-001	1.01475E-004	0.00000E+000	6.09157E-005	5.99601E-002	6.00587E-001	3.57920E+000	9	...........
	35	0.48	6.12031E-001	1.00258E-004	0.00000E+000	6.13612E-005	5.99601E-002	6.12307E-001	3.57920E+000	9	...........
	36	0.493333	6.23552E-001	1.00498E-004	0.00000E+000	6.26657E-005	5.99601E-002	6.23788E-001	3.57920E+000	9	...........
	37	0.506667	6.34811E-001	1.00053E-004	0.00000E+000	6.35148E-005	5.99601E-002	6.35023E-001	3.57920E+000	9	...........
	38	0.52	6.45859E-001	1.01071E-004	0.00000E+000	6.52776E-005	5.99601E-002	6.46096E-001	3.57920E+000	9	...........
	39	0.533333	6.56687E-001	1.01132E-004	0.00000E+000	6.64123E-005	5.99601E-002	6.56906E-001	3.57920E+000	9	...........
	40	0.546667	6.67311E-001	1.00802E-004	0.00000E+000	6.72664E-005	5.99601E-002	6.67532E-001	3.57920E+000	9	...........
	41	0.56	6.77677E-001	1.01714E-004	0.00000E+000	6.89291E-005	5.99601E-002	6.77914E-001	3.57920E+000	9	...........
	42	0.573333	6.87821E-001	1.01206E-004	0.00000E+000	6.96119E-005	5.99601E-002	6.88104E-001	3.57920E+000	9	...........
	43	0.586667	6.97828E-001	1.00397E-004	0.00000E+000	7.00598E-005	5.99601E-002	6.98074E-001	3.57920E+000	9	...........
	44	0.6	7.07584E-001	1.00856E-004	0.00000E+000	7.13644E-005	5.99601E-002	7.07849E-001	3.57920E+000	9	...........
	45	0.613333	7.17189E-001	1.01412E-004	0.00000E+000	7.27313E-005	5.99601E-002	7.17450E-001	3.57920E+000	9	...........
	46	0.626667	7.26601E-001	1.00707E-004	0.00000E+000	7.31741E-005	5.99601E-002	7.26855E-001	3.57920E+000	9	...........
	47	0.64	7.35772E-001	1.00507E-004	0.00000E+000	7.39505E-005	5.99601E-002	7.36054E-001	3.57920E+000	9	...........
	48	0.653333	7.44809E-001	1.00509E-004	0.00000E+000	7.48603E-005	5.99601E-002	7.45106E-001	3.57920E+000	9	...........
	49	0.666667	7.53652E-001	1.00931E-004	0.00000E+000	7.60672E-005	5.99601E-002	7.53955E-001	3.57920E+000	9	...........
	50	0.68	7.62302E-001	1.01217E-004	0.00000E+000	7.71578E-005	5.99601E-002	7.62581E-001	3.57920E+000	9	...........
	51	0.693333	7.70828E-001	1.01062E-004	0.00000E+000	7.79011E-005	5.99601E-002	7.71122E-001	3.57920E+000	9	...........
	52	0.706667	7.79179E-001	1.01239E-004	0.00000E+000	7.88831E-005	5.99601E-002	7.79461E-001	3.57920E+000	9	...........
	53	0.72	7.87351E-001	1.00739E-004	0.00000E+000	7.93167E-005	5.99601E-002	7.87657E-001	3.57920E+000	9	...........
	54	0.733333	7.95399E-001	1.00945E-004	0.00000E+000	8.02915E-005	5.99601E-002	7.95702E-001	3.57920E+000	9	...........
	55	0.746667	8.03265E-001	1.00967E-004	0.00000E+000	8.11030E-005	5.99601E-002	8.03578E-001	3.57920E+000	9	...........
	56	0.76	8.10991E-001	1.01797E-004	0.00000E+000	8.25566E-005	5.99601E-002	8.11286E-001	3.57920E+000	9	...........
	57	0.773333	8.18556E-001	1.01563E-004	0.00000E+000	8.31348E-005	5.99601E-002	8.18891E-001	3.57920E+000	9	...........
	58	0.786667	8.26014E-001	1.01166E-004	0.00000E+000	8.35644E-005	5.99601E-002	8.26326E-001	3.57920E+000	9	...........
	59	0.8	8.33288E-001	1.01434E-004	0.00000E+000	8.45234E-005	5.99601E-002	8.33643E-001	3.57920E+000	9	...........
	60	0.813333	8.40435E-001	1.01146E-004	0.00000E+000	8.50066E-005	5.99601E-002	8.40802E-001	3.57920E+000	9	...........
	61	0.826667	8.47526E-001	1.00672E-004	0.00000E+000	8.53221E-005	5.99601E-002	8.47886E-001	3.57920E+000	9	...........
	62	0.84	8.54428E-001	1.01029E-004	0.00000E+000	8.63223E-005	5.99601E-002	8.54777E-001	3.57920E+000	9	...........
	63	0.853333	8.61230E-001	1.01498E-004	0.00000E+000	8.74132E-005	5.99601E-002	8.61589E-001	3.57920E+000	9	...........
	64	0.866667	8.67873E-001	1.01040E-004	0.00000E+000	8.76897E-005	5.99601E-002	8.68253E-001	3.57920E+000	9	...........
	65	0.88	8.74445E-001	1.00379E-004	0.00000E+000	8.77760E-005	5.99601E-002	8.74798E-001	3.57994E+000	9	...........
	66	0.893333	8.80863E-001	1.01037E-004	0.00000E+000	8.89994E-005	5.99601E-002	8.81241E-001	3.58000E+000	9	...........
	67	0.906667	8.87187E-001	1.00473E-004	0.00000E+000	8.91383E-005	5.99601E-002	8.87549E-001	3.58000E+000	9	...........
	68	0.92	8.93358E-001	1.00321E-004	0.00000E+000	8.96224E-005	5.99601E-002	8.93735E-001	3.58000E+000	9	...........
	69	0.933333	8.99458E-001	1.01008E-004	0.00000E+000	9.08528E-005	5.99601E-002	8.99833E-001	3.58000E+000	9	...........
	70	0.946667	9.05419E-001	1.00991E-004	0.00000E+000	9.14389E-005	5.99601E-002	9.05824E-001	3.58000E+000	9	...........
	71	0.96	9.11304E-001	1.02099E-004	0.00000E+000	9.30436E-005	5.99601E-002	9.11675E-001	3.58000E+000	9	...........
	72	0.97333	9.17044E-001	1.00435E-004	0.00000E+000	9.21037E-005	5.99601E-002	9.17428E-001	3.58000E+000	9	...........
	73	0.98667	9.22749E-001	1.01547E-004	0.00000E+000	9.37025E-005	5.99601E-002	9.23075E-001	3.58000E+000	9	...........
	74	1	9.28278E-001	1.00950E-004	0.00000E+000	9.37098E-005	5.99601E-002	9.28607E-001	3.58000E+000	9	...........
	75	1.01333	9.33709E-001	1.00729E-004	0.00000E+000	9.40518E-005	5.99601E-002	9.34036E-001	3.58000E+000	9	...........
	76	1.02667	9.39021E-001	1.00799E-004	0.00000E+000	9.46524E-005	5.99601E-002	9.39399E-001	3.58000E+000	9	...........
	77	1.04	9.44257E-001	1.00727E-004	0.00000E+000	9.51123E-005	5.99601E-002	9.44618E-001	3.58000E+000	9	...........
	78	1.05333	9.49396E-001	1.00985E-004	0.00000E+000	9.58743E-005	5.99601E-002	9.49754E-001	3.58000E+000	9	...........
	79	1.06667	9.54417E-001	1.00648E-004	0.00000E+000	9.60601E-005	5.99601E-002	9.54769E-001	3.58000E+000	9	...........
	80	1.08	9.59333E-001	1.00629E-004	0.00000E+000	9.65370E-005	5.99601E-002	9.59714E-001	3.58000E+000	9	...........
	81	1.09333	9.64152E-001	1.01476E-004	0.00000E+000	9.78385E-005	5.99601E-002	9.64538E-001	3.58000E+000	9	...........
	82	1.10667	9.68868E-001	9.94227E-005	0.00000E+000	9.63275E-005	5.99601E-002	9.69270E-001	3.58000E+000	9	...........
	83	1.12	9.73524E-001	1.01015E-004	0.00000E+000	9.83402E-005	5.99601E-002	9.73908E-001	3.58000E+000	9	...........
	84	1.13333	9.78070E-001	1.00486E-004	0.00000E+000	9.82829E-005	5.99601E-002	9.78436E-001	3.58000E+000	9	...........
	85	1.14667	9.82511E-001	1.00972E-004	0.00000E+000	9.92061E-005	5.99601E-002	9.82851E-001	3.58000E+000	9	...........
	86	1.16	9.86851E-001	1.00852E-004	0.00000E+000	9.95261E-005	5.99601E-002	9.87204E-001	3.58000E+000	9	...........
	87	1.17333	9.91102E-001	1.01287E-004	0.00000E+000	1.00385E-004	5.99601E-002	9.91436E-001	3.58000E+000	9	...........
	88	1.18667	9.95241E-001	1.00050E-004	0.00000E+000	9.95738E-005	5.99601E-002	9.95572E-001	3.58000E+000	9	...........
	89	1.19667	9.98839E-001	1.01665E-004	0.00000E+000	1.01547E-004	5.99601E-002	9.99181E-001	3.58000E+000	9	...........
STARTTIMEOFFSET	QUANT	2015.513	Start Time Offset (s)
