EXPLAIN
TAG	PWR800_CHARGE
TITLE	LABEL	PWR Cyclic Charge Discharge (Cell) - Charge Step	Test &Identifier
DATE	LABEL	13-7-2017	Date
TIME	LABEL	15:43:15	Time
NOTES	NOTES	2	&Notes...
	supercap test cell
	6M KOH
PSTAT	PSTAT	IFC5000-01520	Potentiostat
CAPACITY	QUANT	1.00000E-003	Capacity (A-hr)
CELLTYPE	SELECTOR	1	&Cell Type
WORKINGCONNECTION	SELECTOR	0	&Working Lead
MAXCHARGETIME	VARIABLEANDUNITS	1.00000E+002	s	1.00000E+002	second(s)	Max &Charge Time
CHARGECURRENT	QUANT	1.00000E-004	&Charge Current (A) 
VOLTAGEFINISH	TWOPARAM	F	1.00000E-003	3.60000E+003	&Voltage Finish	 I (A) < 	Max Time(s)
SAMPLETIME	QUANT	1.00000E-002	Sa&mple Period (s)
CHARGESTOPAT1	MULTIPARAM	4	1.00000E+000	Charge Stop At &1	Voltage > Limit	V
CHARGESTOPAT2	MULTIPARAM	0	0.00000E+000	Charge Stop At &2	None	N/A
AESBHCSELECTOR	TOGGLE	F	Save Both Half Cells
IRCOMP	TOGGLE	F	IR &Measure
EOC	QUANT	0	Open Circuit (V)
SEQUENCER	TOGGLE	TRUE	Run as Sequence
PSTATMODEL	IQUANT	53	Pstat Model
PSTATSECTION	LABEL	IFC5000-01520	Pstat Section
PSTATSERIALNO	LABEL	01520	Pstat Serial Number
CTRLMODE	IQUANT	0	Control Mode
ELECTROMETER	IQUANT	1	RE=0 or CS=1
IESTAB	IQUANT	0	I/E Stability
CASPEED	IQUANT	4	Control Amp Speed
CONVENTION	IQUANT	1	Current Convention
ICHRANGE	IQUANT	2	Ich Range
ICHRANGEMODE	TOGGLE	T	Ich Auto Range
ICHOFFSETENABLE	TOGGLE	F	Ich Offset Enable
ICHOFFSET	QUANT	0	Ich Offset (V)
ICHFILTER	IQUANT	1	Ich Filter
VCHRANGE	IQUANT	2	Vch Range
VCHRANGEMODE	TOGGLE	T	Vch Auto Range
VCHOFFSETENABLE	TOGGLE	F	Vch Offset Enable
VCHOFFSET	QUANT	0	Vch Offset (V)
VCHFILTER	IQUANT	1	Vch Filter
IERANGELOWERLIMIT	IQUANT	9	I/E Range Lower Limit
IERANGEMODE	TOGGLE	F	I/E AutoRange
IERANGE	IQUANT	9	I/E Range
ACHSELECT	IQUANT	1	Ach Select
ACHRANGE	IQUANT	2	Ach Range
ACHOFFSETENABLE	TOGGLE	F	Ach Offset Enable
ACHOFFSET	QUANT	0	Ach Offset (V)
ACHFILTER	IQUANT	1	Ach Filter
CABLEID	IQUANT	14	Cable ID
DCCALDATE	LABEL	5-7-2017	DC Calibration Date
ACCALDATE	LABEL	12/3/2015	AC Calibration Date
FRAMEWORKVERSION	QUANT	7.01	Framework Version
INSTRUMENTVERSION	LABEL	4.00	Instrument Version
CURVE	TABLE	90
	Pt	T	Vf	Im	Vu	Pwr	Sig	Ach	Temp	IERange	Over
	#	s	V	A	V	W	V	V	deg C	#	bits
	0	0.013333	1.33289E-001	1.00848E-004	0.00000E+000	1.34419E-005	5.99601E-002	1.33341E-001	3.57850E+000	9	...........
	1	0.026667	1.48591E-001	1.01247E-004	0.00000E+000	1.50444E-005	5.99601E-002	1.48613E-001	3.57850E+000	9	...........
	2	0.04	1.63440E-001	9.99791E-005	0.00000E+000	1.63405E-005	5.99601E-002	1.63469E-001	3.57850E+000	9	...........
	3	0.053333	1.78027E-001	1.01320E-004	0.00000E+000	1.80377E-005	5.99601E-002	1.78058E-001	3.57850E+000	9	...........
	4	0.066667	1.92420E-001	1.00897E-004	0.00000E+000	1.94146E-005	5.99601E-002	1.92457E-001	3.57850E+000	9	...........
	5	0.08	2.06673E-001	1.01115E-004	0.00000E+000	2.08977E-005	5.99601E-002	2.06709E-001	3.57850E+000	9	...........
	6	0.093333	2.20829E-001	1.00715E-004	0.00000E+000	2.22407E-005	5.99601E-002	2.20859E-001	3.57850E+000	9	...........
	7	0.106667	2.34910E-001	1.00672E-004	0.00000E+000	2.36488E-005	5.99601E-002	2.34947E-001	3.57850E+000	9	...........
	8	0.12	2.48947E-001	1.01124E-004	0.00000E+000	2.51745E-005	5.99601E-002	2.48992E-001	3.57850E+000	9	...........
	9	0.133333	2.62957E-001	1.00554E-004	0.00000E+000	2.64414E-005	5.99601E-002	2.63009E-001	3.57850E+000	9	...........
	10	0.146667	2.76970E-001	9.99166E-005	0.00000E+000	2.76739E-005	5.99601E-002	2.77020E-001	3.57850E+000	9	...........
	11	0.16	2.90974E-001	1.00805E-004	0.00000E+000	2.93317E-005	5.99601E-002	2.91028E-001	3.57850E+000	9	...........
	12	0.173333	3.04992E-001	1.01214E-004	0.00000E+000	3.08694E-005	5.99601E-002	3.05048E-001	3.57850E+000	9	...........
	13	0.186667	3.19036E-001	1.00436E-004	0.00000E+000	3.20429E-005	5.99601E-002	3.19095E-001	3.57850E+000	9	...........
	14	0.2	3.33101E-001	1.00581E-004	0.00000E+000	3.35037E-005	5.99601E-002	3.33163E-001	3.57850E+000	9	...........
	15	0.213333	3.47190E-001	1.00016E-004	0.00000E+000	3.47244E-005	5.99601E-002	3.47256E-001	3.57850E+000	9	...........
	16	0.226667	3.61308E-001	1.00755E-004	0.00000E+000	3.64037E-005	5.99601E-002	3.61376E-001	3.57850E+000	9	...........
	17	0.24	3.75435E-001	1.00977E-004	0.00000E+000	3.79104E-005	5.99601E-002	3.75506E-001	3.57850E+000	9	...........
	18	0.253333	3.89573E-001	1.01767E-004	0.00000E+000	3.96456E-005	5.99601E-002	3.89646E-001	3.57850E+000	9	...........
	19	0.266667	4.03701E-001	1.00485E-004	0.00000E+000	4.05660E-005	5.99601E-002	4.03779E-001	3.57850E+000	9	...........
	20	0.28	4.17807E-001	1.00732E-004	0.00000E+000	4.20867E-005	5.99601E-002	4.17889E-001	3.57850E+000	9	...........
	21	0.293333	4.31875E-001	1.01558E-004	0.00000E+000	4.38601E-005	5.99601E-002	4.31964E-001	3.57850E+000	9	...........
	22	0.306667	4.45889E-001	1.01177E-004	0.00000E+000	4.51138E-005	5.99601E-002	4.45981E-001	3.57850E+000	9	...........
	23	0.32	4.59812E-001	1.01365E-004	0.00000E+000	4.66088E-005	5.99601E-002	4.59904E-001	3.57850E+000	9	...........
	24	0.333333	4.73628E-001	1.00046E-004	0.00000E+000	4.73845E-005	5.99601E-002	4.73726E-001	3.57850E+000	9	...........
	25	0.346667	4.87324E-001	1.01006E-004	0.00000E+000	4.92228E-005	5.99601E-002	4.87425E-001	3.57850E+000	9	...........
	26	0.36	5.00863E-001	1.00651E-004	0.00000E+000	5.04124E-005	5.99601E-002	5.00971E-001	3.57850E+000	9	...........
	27	0.373333	5.14242E-001	1.00868E-004	0.00000E+000	5.18705E-005	5.99601E-002	5.14350E-001	3.57850E+000	9	...........
	28	0.386667	5.27438E-001	1.00790E-004	0.00000E+000	5.31603E-005	5.99601E-002	5.27548E-001	3.57850E+000	9	...........
	29	0.4	5.40066E-001	1.01590E-004	0.00000E+000	5.48652E-005	5.99601E-002	5.40340E-001	3.57850E+000	9	...........
	30	0.413333	5.52850E-001	1.00757E-004	0.00000E+000	5.57037E-005	5.99601E-002	5.53134E-001	3.57850E+000	9	...........
	31	0.426667	5.65433E-001	1.00614E-004	0.00000E+000	5.68902E-005	5.99601E-002	5.65722E-001	3.57850E+000	9	...........
	32	0.44	5.77756E-001	1.00814E-004	0.00000E+000	5.82457E-005	5.99601E-002	5.78050E-001	3.57850E+000	9	...........
	33	0.453333	5.89864E-001	1.00617E-004	0.00000E+000	5.93502E-005	5.99601E-002	5.90176E-001	3.57850E+000	9	...........
	34	0.466667	6.01743E-001	1.01054E-004	0.00000E+000	6.08087E-005	5.99601E-002	6.02070E-001	3.57850E+000	9	...........
	35	0.48	6.13412E-001	1.01098E-004	0.00000E+000	6.20148E-005	5.99601E-002	6.13726E-001	3.57850E+000	9	...........
	36	0.493333	6.24847E-001	1.00836E-004	0.00000E+000	6.30068E-005	5.99601E-002	6.25148E-001	3.57850E+000	9	...........
	37	0.506667	6.36043E-001	1.01252E-004	0.00000E+000	6.44008E-005	5.99601E-002	6.36347E-001	3.57850E+000	9	...........
	38	0.52	6.47012E-001	1.00771E-004	0.00000E+000	6.52000E-005	5.99601E-002	6.47334E-001	3.57850E+000	9	...........
	39	0.533333	6.57786E-001	1.00293E-004	0.00000E+000	6.59711E-005	5.99601E-002	6.58089E-001	3.57850E+000	9	...........
	40	0.546667	6.68346E-001	9.97415E-005	0.00000E+000	6.66619E-005	5.99601E-002	6.68642E-001	3.57850E+000	9	...........
	41	0.56	6.78667E-001	1.01074E-004	0.00000E+000	6.85957E-005	5.99601E-002	6.78969E-001	3.57850E+000	9	...........
	42	0.573333	6.88780E-001	1.00442E-004	0.00000E+000	6.91822E-005	5.99601E-002	6.89083E-001	3.57850E+000	9	...........
	43	0.586667	6.98663E-001	9.98989E-005	0.00000E+000	6.97957E-005	5.99601E-002	6.98963E-001	3.57850E+000	9	...........
	44	0.6	7.08393E-001	1.01319E-004	0.00000E+000	7.17737E-005	5.99601E-002	7.08694E-001	3.57850E+000	9	...........
	45	0.613333	7.17928E-001	1.01345E-004	0.00000E+000	7.27584E-005	5.99601E-002	7.18220E-001	3.57850E+000	9	...........
	46	0.626667	7.27258E-001	1.01053E-004	0.00000E+000	7.34918E-005	5.99601E-002	7.27538E-001	3.57850E+000	9	...........
	47	0.64	7.36396E-001	1.00260E-004	0.00000E+000	7.38314E-005	5.99601E-002	7.36655E-001	3.57850E+000	9	...........
	48	0.653333	7.45378E-001	1.00344E-004	0.00000E+000	7.47940E-005	5.99601E-002	7.45644E-001	3.57850E+000	9	...........
	49	0.666667	7.54176E-001	1.00698E-004	0.00000E+000	7.59441E-005	5.99601E-002	7.54417E-001	3.57850E+000	9	...........
	50	0.68	7.62813E-001	1.01002E-004	0.00000E+000	7.70459E-005	5.99601E-002	7.63036E-001	3.57920E+000	9	...........
	51	0.693333	7.71263E-001	1.01545E-004	0.00000E+000	7.83179E-005	5.99601E-002	7.71517E-001	3.57990E+000	9	...........
	52	0.706667	7.79538E-001	1.00040E-004	0.00000E+000	7.79846E-005	5.99601E-002	7.79805E-001	3.57990E+000	9	...........
	53	0.72	7.87683E-001	1.00457E-004	0.00000E+000	7.91285E-005	5.99601E-002	7.87944E-001	3.57990E+000	9	...........
	54	0.733333	7.95683E-001	1.01158E-004	0.00000E+000	8.04901E-005	5.99601E-002	7.95942E-001	3.57990E+000	9	...........
	55	0.746667	8.03511E-001	1.00045E-004	0.00000E+000	8.03870E-005	5.99601E-002	8.03781E-001	3.57990E+000	9	...........
	56	0.76	8.11192E-001	1.00993E-004	0.00000E+000	8.19246E-005	5.99601E-002	8.11485E-001	3.57990E+000	9	...........
	57	0.773333	8.18731E-001	1.00820E-004	0.00000E+000	8.25444E-005	5.99601E-002	8.19031E-001	3.57990E+000	9	...........
	58	0.786667	8.26141E-001	1.01739E-004	0.00000E+000	8.40506E-005	5.99601E-002	8.26428E-001	3.57990E+000	9	...........
	59	0.8	8.33397E-001	1.01212E-004	0.00000E+000	8.43495E-005	5.99601E-002	8.33721E-001	3.57990E+000	9	...........
	60	0.813333	8.40515E-001	1.00829E-004	0.00000E+000	8.47485E-005	5.99601E-002	8.40837E-001	3.57990E+000	9	...........
	61	0.826667	8.47547E-001	1.01589E-004	0.00000E+000	8.61013E-005	5.99601E-002	8.47876E-001	3.57990E+000	9	...........
	62	0.84	8.54405E-001	1.00518E-004	0.00000E+000	8.58828E-005	5.99601E-002	8.54758E-001	3.57990E+000	9	...........
	63	0.853333	8.61161E-001	1.01171E-004	0.00000E+000	8.71245E-005	5.99601E-002	8.61529E-001	3.57990E+000	9	...........
	64	0.866667	8.67793E-001	9.97051E-005	0.00000E+000	8.65234E-005	5.99601E-002	8.68178E-001	3.57990E+000	9	...........
	65	0.88	8.74346E-001	1.01590E-004	0.00000E+000	8.88247E-005	5.99601E-002	8.74704E-001	3.57990E+000	9	...........
	66	0.893333	8.80753E-001	1.01479E-004	0.00000E+000	8.93783E-005	5.99601E-002	8.81112E-001	3.57990E+000	9	...........
	67	0.906667	8.87057E-001	9.99457E-005	0.00000E+000	8.86576E-005	5.99601E-002	8.87411E-001	3.57990E+000	9	...........
	68	0.92	8.93218E-001	1.00873E-004	0.00000E+000	9.01016E-005	5.99601E-002	8.93598E-001	3.57990E+000	9	...........
	69	0.933333	8.99294E-001	1.01230E-004	0.00000E+000	9.10359E-005	5.99601E-002	8.99658E-001	3.57990E+000	9	...........
	70	0.946667	9.05244E-001	1.00776E-004	0.00000E+000	9.12269E-005	5.99601E-002	9.05618E-001	3.57990E+000	9	...........
	71	0.96	9.11109E-001	1.00945E-004	0.00000E+000	9.19719E-005	5.99601E-002	9.11467E-001	3.57990E+000	9	...........
	72	0.97333	9.16838E-001	1.00472E-004	0.00000E+000	9.21164E-005	5.99601E-002	9.17212E-001	3.57990E+000	9	...........
	73	0.98667	9.22509E-001	1.00399E-004	0.00000E+000	9.26189E-005	5.99601E-002	9.22839E-001	3.57990E+000	9	...........
	74	1	9.28038E-001	1.01350E-004	0.00000E+000	9.40569E-005	5.99601E-002	9.28378E-001	3.57990E+000	9	...........
	75	1.01333	9.33458E-001	1.00977E-004	0.00000E+000	9.42580E-005	5.99601E-002	9.33800E-001	3.57990E+000	9	...........
	76	1.02667	9.38757E-001	1.01721E-004	0.00000E+000	9.54914E-005	5.99601E-002	9.39120E-001	3.57990E+000	9	...........
	77	1.04	9.43979E-001	9.98832E-005	0.00000E+000	9.42877E-005	5.99601E-002	9.44319E-001	3.57990E+000	9	...........
	78	1.05333	9.49121E-001	1.00950E-004	0.00000E+000	9.58139E-005	5.99601E-002	9.49454E-001	3.57990E+000	9	...........
	79	1.06667	9.54129E-001	1.00625E-004	0.00000E+000	9.60093E-005	5.99601E-002	9.54445E-001	3.57990E+000	9	...........
	80	1.08	9.59047E-001	1.01040E-004	0.00000E+000	9.69019E-005	5.99601E-002	9.59366E-001	3.57990E+000	9	...........
	81	1.09333	9.63844E-001	1.01468E-004	0.00000E+000	9.77993E-005	5.99601E-002	9.64188E-001	3.57990E+000	9	...........
	82	1.10667	9.68554E-001	1.00830E-004	0.00000E+000	9.76596E-005	5.99601E-002	9.68889E-001	3.57990E+000	9	...........
	83	1.12	9.73231E-001	1.01483E-004	0.00000E+000	9.87660E-005	5.99601E-002	9.73535E-001	3.57990E+000	9	...........
	84	1.13333	9.77743E-001	1.01106E-004	0.00000E+000	9.88561E-005	5.99601E-002	9.78065E-001	3.57990E+000	9	...........
	85	1.14667	9.82178E-001	1.00392E-004	0.00000E+000	9.86025E-005	5.99601E-002	9.82498E-001	3.57990E+000	9	...........
	86	1.16	9.86496E-001	1.00921E-004	0.00000E+000	9.95581E-005	5.99601E-002	9.86854E-001	3.57990E+000	9	...........
	87	1.17333	9.90749E-001	1.00355E-004	0.00000E+000	9.94268E-005	5.99601E-002	9.91085E-001	3.57990E+000	9	...........
	88	1.18667	9.94877E-001	1.00368E-004	0.00000E+000	9.98535E-005	5.99601E-002	9.95240E-001	3.57990E+000	9	...........
	89	1.19833	9.98733E-001	1.00118E-004	0.00000E+000	9.99912E-005	5.99601E-002	9.99096E-001	3.57990E+000	9	...........
STARTTIMEOFFSET	QUANT	1863.659	Start Time Offset (s)
