EXPLAIN
TAG	PWR800_CHARGE
TITLE	LABEL	PWR Cyclic Charge Discharge (Cell) - Charge Step	Test &Identifier
DATE	LABEL	13-7-2017	Date
TIME	LABEL	15:38:58	Time
NOTES	NOTES	2	&Notes...
	supercap test cell
	6M KOH
PSTAT	PSTAT	IFC5000-01520	Potentiostat
CAPACITY	QUANT	1.00000E-003	Capacity (A-hr)
CELLTYPE	SELECTOR	1	&Cell Type
WORKINGCONNECTION	SELECTOR	0	&Working Lead
MAXCHARGETIME	VARIABLEANDUNITS	1.00000E+002	s	1.00000E+002	second(s)	Max &Charge Time
CHARGECURRENT	QUANT	1.00000E-004	&Charge Current (A) 
VOLTAGEFINISH	TWOPARAM	F	1.00000E-003	3.60000E+003	&Voltage Finish	 I (A) < 	Max Time(s)
SAMPLETIME	QUANT	1.00000E-002	Sa&mple Period (s)
CHARGESTOPAT1	MULTIPARAM	4	1.00000E+000	Charge Stop At &1	Voltage > Limit	V
CHARGESTOPAT2	MULTIPARAM	0	0.00000E+000	Charge Stop At &2	None	N/A
AESBHCSELECTOR	TOGGLE	F	Save Both Half Cells
IRCOMP	TOGGLE	F	IR &Measure
EOC	QUANT	0	Open Circuit (V)
SEQUENCER	TOGGLE	TRUE	Run as Sequence
PSTATMODEL	IQUANT	53	Pstat Model
PSTATSECTION	LABEL	IFC5000-01520	Pstat Section
PSTATSERIALNO	LABEL	01520	Pstat Serial Number
CTRLMODE	IQUANT	0	Control Mode
ELECTROMETER	IQUANT	1	RE=0 or CS=1
IESTAB	IQUANT	0	I/E Stability
CASPEED	IQUANT	4	Control Amp Speed
CONVENTION	IQUANT	1	Current Convention
ICHRANGE	IQUANT	2	Ich Range
ICHRANGEMODE	TOGGLE	T	Ich Auto Range
ICHOFFSETENABLE	TOGGLE	F	Ich Offset Enable
ICHOFFSET	QUANT	0	Ich Offset (V)
ICHFILTER	IQUANT	1	Ich Filter
VCHRANGE	IQUANT	2	Vch Range
VCHRANGEMODE	TOGGLE	T	Vch Auto Range
VCHOFFSETENABLE	TOGGLE	F	Vch Offset Enable
VCHOFFSET	QUANT	0	Vch Offset (V)
VCHFILTER	IQUANT	1	Vch Filter
IERANGELOWERLIMIT	IQUANT	9	I/E Range Lower Limit
IERANGEMODE	TOGGLE	F	I/E AutoRange
IERANGE	IQUANT	9	I/E Range
ACHSELECT	IQUANT	1	Ach Select
ACHRANGE	IQUANT	2	Ach Range
ACHOFFSETENABLE	TOGGLE	F	Ach Offset Enable
ACHOFFSET	QUANT	0	Ach Offset (V)
ACHFILTER	IQUANT	1	Ach Filter
CABLEID	IQUANT	14	Cable ID
DCCALDATE	LABEL	5-7-2017	DC Calibration Date
ACCALDATE	LABEL	12/3/2015	AC Calibration Date
FRAMEWORKVERSION	QUANT	7.01	Framework Version
INSTRUMENTVERSION	LABEL	4.00	Instrument Version
CURVE	TABLE	91
	Pt	T	Vf	Im	Vu	Pwr	Sig	Ach	Temp	IERange	Over
	#	s	V	A	V	W	V	V	deg C	#	bits
	0	0.013333	1.33898E-001	9.98384E-005	0.00000E+000	1.33682E-005	5.99601E-002	1.33944E-001	3.57850E+000	9	...........
	1	0.026667	1.49172E-001	1.00244E-004	0.00000E+000	1.49536E-005	5.99601E-002	1.49187E-001	3.57850E+000	9	...........
	2	0.04	1.64007E-001	1.00682E-004	0.00000E+000	1.65126E-005	5.99601E-002	1.64025E-001	3.57850E+000	9	...........
	3	0.053333	1.78576E-001	1.00976E-004	0.00000E+000	1.80319E-005	5.99601E-002	1.78604E-001	3.57850E+000	9	...........
	4	0.066667	1.92958E-001	9.99676E-005	0.00000E+000	1.92896E-005	5.99601E-002	1.92993E-001	3.57850E+000	9	...........
	5	0.08	2.07205E-001	1.00957E-004	0.00000E+000	2.09189E-005	5.99601E-002	2.07239E-001	3.57850E+000	9	...........
	6	0.093333	2.21348E-001	1.00375E-004	0.00000E+000	2.22178E-005	5.99601E-002	2.21383E-001	3.57850E+000	9	...........
	7	0.106667	2.35425E-001	1.00637E-004	0.00000E+000	2.36923E-005	5.99601E-002	2.35467E-001	3.57850E+000	9	...........
	8	0.12	2.49452E-001	1.01214E-004	0.00000E+000	2.52479E-005	5.99601E-002	2.49499E-001	3.57850E+000	9	...........
	9	0.133333	2.63455E-001	1.00675E-004	0.00000E+000	2.65234E-005	5.99601E-002	2.63510E-001	3.57850E+000	9	...........
	10	0.146667	2.77447E-001	1.00867E-004	0.00000E+000	2.79852E-005	5.99601E-002	2.77501E-001	3.57850E+000	9	...........
	11	0.16	2.91441E-001	1.00297E-004	0.00000E+000	2.92307E-005	5.99601E-002	2.91501E-001	3.57850E+000	9	...........
	12	0.173333	3.05450E-001	1.00545E-004	0.00000E+000	3.07114E-005	5.99601E-002	3.05503E-001	3.57850E+000	9	...........
	13	0.186667	3.19477E-001	9.99655E-005	0.00000E+000	3.19367E-005	5.99601E-002	3.19541E-001	3.57850E+000	9	...........
	14	0.2	3.33527E-001	1.00582E-004	0.00000E+000	3.35470E-005	5.99601E-002	3.33587E-001	3.57850E+000	9	...........
	15	0.213333	3.47595E-001	1.00604E-004	0.00000E+000	3.49696E-005	5.99601E-002	3.47660E-001	3.57850E+000	9	...........
	16	0.226667	3.61694E-001	1.00651E-004	0.00000E+000	3.64049E-005	5.99601E-002	3.61758E-001	3.57850E+000	9	...........
	17	0.24	3.75808E-001	1.01305E-004	0.00000E+000	3.80714E-005	5.99601E-002	3.75874E-001	3.57850E+000	9	...........
	18	0.253333	3.89924E-001	1.00621E-004	0.00000E+000	3.92345E-005	5.99601E-002	3.89998E-001	3.57850E+000	9	...........
	19	0.266667	4.04026E-001	1.00358E-004	0.00000E+000	4.05473E-005	5.99601E-002	4.04108E-001	3.57850E+000	9	...........
	20	0.28	4.18103E-001	1.00656E-004	0.00000E+000	4.20847E-005	5.99601E-002	4.18188E-001	3.57850E+000	9	...........
	21	0.293333	4.32146E-001	1.01197E-004	0.00000E+000	4.37319E-005	5.99601E-002	4.32235E-001	3.57850E+000	9	...........
	22	0.306667	4.46121E-001	1.01087E-004	0.00000E+000	4.50969E-005	5.99601E-002	4.46211E-001	3.57850E+000	9	...........
	23	0.32	4.60001E-001	1.00995E-004	0.00000E+000	4.64578E-005	5.99601E-002	4.60091E-001	3.57850E+000	9	...........
	24	0.333333	4.73776E-001	1.01220E-004	0.00000E+000	4.79556E-005	5.99601E-002	4.73871E-001	3.57850E+000	9	...........
	25	0.346667	4.87416E-001	1.00828E-004	0.00000E+000	4.91452E-005	5.99601E-002	4.87518E-001	3.57850E+000	9	...........
	26	0.36	5.00905E-001	1.00566E-004	0.00000E+000	5.03739E-005	5.99601E-002	5.01007E-001	3.57850E+000	9	...........
	27	0.373333	5.14231E-001	1.01247E-004	0.00000E+000	5.20644E-005	5.99601E-002	5.14338E-001	3.57850E+000	9	...........
	28	0.386667	5.27371E-001	1.01056E-004	0.00000E+000	5.32942E-005	5.99601E-002	5.27487E-001	3.57850E+000	9	...........
	29	0.4	5.40003E-001	1.00345E-004	0.00000E+000	5.41865E-005	5.99601E-002	5.40217E-001	3.57850E+000	9	...........
	30	0.413333	5.52696E-001	1.01074E-004	0.00000E+000	5.58632E-005	5.99601E-002	5.52945E-001	3.57850E+000	9	...........
	31	0.426667	5.65215E-001	1.00614E-004	0.00000E+000	5.68683E-005	5.99601E-002	5.65477E-001	3.57850E+000	9	...........
	32	0.44	5.77475E-001	1.01411E-004	0.00000E+000	5.85621E-005	5.99601E-002	5.77748E-001	3.57850E+000	9	...........
	33	0.453333	5.89531E-001	1.00859E-004	0.00000E+000	5.94597E-005	5.99601E-002	5.89840E-001	3.57850E+000	9	...........
	34	0.466667	6.01364E-001	1.01652E-004	0.00000E+000	6.11300E-005	5.99601E-002	6.01667E-001	3.57850E+000	9	...........
	35	0.48	6.12955E-001	1.00987E-004	0.00000E+000	6.19003E-005	5.99601E-002	6.13264E-001	3.57850E+000	9	...........
	36	0.493333	6.24345E-001	1.01291E-004	0.00000E+000	6.32404E-005	5.99601E-002	6.24616E-001	3.57850E+000	9	...........
	37	0.506667	6.35481E-001	1.00868E-004	0.00000E+000	6.40996E-005	5.99601E-002	6.35741E-001	3.57850E+000	9	...........
	38	0.52	6.46408E-001	1.00431E-004	0.00000E+000	6.49196E-005	5.99601E-002	6.46686E-001	3.57850E+000	9	...........
	39	0.533333	6.57101E-001	1.00771E-004	0.00000E+000	6.62166E-005	5.99601E-002	6.57367E-001	3.57850E+000	9	...........
	40	0.546667	6.67601E-001	1.00968E-004	0.00000E+000	6.74062E-005	5.99601E-002	6.67855E-001	3.57850E+000	9	...........
	41	0.56	6.77876E-001	1.01553E-004	0.00000E+000	6.88406E-005	5.99601E-002	6.78129E-001	3.57850E+000	9	...........
	42	0.573333	6.87919E-001	1.01170E-004	0.00000E+000	6.95968E-005	5.99601E-002	6.88185E-001	3.57850E+000	9	...........
	43	0.586667	6.97798E-001	1.01118E-004	0.00000E+000	7.05599E-005	5.99601E-002	6.98048E-001	3.57850E+000	9	...........
	44	0.6	7.07442E-001	1.02341E-004	0.00000E+000	7.24003E-005	5.99601E-002	7.07710E-001	3.57850E+000	9	...........
	45	0.613333	7.16928E-001	1.01069E-004	0.00000E+000	7.24591E-005	5.99601E-002	7.17218E-001	3.57850E+000	9	...........
	46	0.626667	7.26211E-001	1.01019E-004	0.00000E+000	7.33610E-005	5.99601E-002	7.26476E-001	3.57850E+000	9	...........
	47	0.64	7.35304E-001	1.00533E-004	0.00000E+000	7.39226E-005	5.99601E-002	7.35590E-001	3.58165E+000	9	...........
	48	0.653333	7.44249E-001	1.01619E-004	0.00000E+000	7.56298E-005	5.99601E-002	7.44538E-001	3.58210E+000	9	...........
	49	0.666667	7.53003E-001	1.01607E-004	0.00000E+000	7.65101E-005	5.99601E-002	7.53264E-001	3.58210E+000	9	...........
	50	0.68	7.61597E-001	1.00217E-004	0.00000E+000	7.63247E-005	5.99601E-002	7.61846E-001	3.58210E+000	9	...........
	51	0.693333	7.70020E-001	1.00695E-004	0.00000E+000	7.75370E-005	5.99601E-002	7.70310E-001	3.58210E+000	9	...........
	52	0.706667	7.78288E-001	1.00410E-004	0.00000E+000	7.81482E-005	5.99601E-002	7.78562E-001	3.58210E+000	9	...........
	53	0.72	7.86377E-001	1.00153E-004	0.00000E+000	7.87581E-005	5.99601E-002	7.86650E-001	3.58210E+000	9	...........
	54	0.733333	7.94309E-001	1.00279E-004	0.00000E+000	7.96526E-005	5.99601E-002	7.94605E-001	3.58210E+000	9	...........
	55	0.746667	8.02127E-001	1.00909E-004	0.00000E+000	8.09422E-005	5.99601E-002	8.02397E-001	3.58210E+000	9	...........
	56	0.76	8.09762E-001	1.00662E-004	0.00000E+000	8.15119E-005	5.99601E-002	8.10076E-001	3.58210E+000	9	...........
	57	0.773333	8.17263E-001	1.01489E-004	0.00000E+000	8.29431E-005	5.99601E-002	8.17600E-001	3.58210E+000	9	...........
	58	0.786667	8.24664E-001	1.01127E-004	0.00000E+000	8.33960E-005	5.99601E-002	8.24977E-001	3.58210E+000	9	...........
	59	0.8	8.31894E-001	1.00641E-004	0.00000E+000	8.37224E-005	5.99601E-002	8.32210E-001	3.58210E+000	9	...........
	60	0.813333	8.39003E-001	1.00533E-004	0.00000E+000	8.43478E-005	5.99601E-002	8.39308E-001	3.58210E+000	9	...........
	61	0.826667	8.46017E-001	1.01221E-004	0.00000E+000	8.56347E-005	5.99601E-002	8.46328E-001	3.58210E+000	9	...........
	62	0.84	8.52884E-001	1.00429E-004	0.00000E+000	8.56545E-005	5.99601E-002	8.53201E-001	3.58210E+000	9	...........
	63	0.853333	8.59594E-001	1.01415E-004	0.00000E+000	8.71756E-005	5.99601E-002	8.59943E-001	3.58210E+000	9	...........
	64	0.866667	8.66215E-001	1.00932E-004	0.00000E+000	8.74292E-005	5.99601E-002	8.66572E-001	3.58210E+000	9	...........
	65	0.88	8.72737E-001	1.01006E-004	0.00000E+000	8.81520E-005	5.99601E-002	8.73084E-001	3.58210E+000	9	...........
	66	0.893333	8.79105E-001	1.00683E-004	0.00000E+000	8.85113E-005	5.99601E-002	8.79474E-001	3.58210E+000	9	...........
	67	0.906667	8.85396E-001	1.01166E-004	0.00000E+000	8.95718E-005	5.99601E-002	8.85728E-001	3.58210E+000	9	...........
	68	0.92	8.91518E-001	1.00550E-004	0.00000E+000	8.96422E-005	5.99601E-002	8.91892E-001	3.58210E+000	9	...........
	69	0.933333	8.97576E-001	1.01732E-004	0.00000E+000	9.13118E-005	5.99601E-002	8.97945E-001	3.58210E+000	9	...........
	70	0.946667	9.03513E-001	1.00504E-004	0.00000E+000	9.08068E-005	5.99601E-002	9.03905E-001	3.58210E+000	9	...........
	71	0.96	9.09341E-001	1.00938E-004	0.00000E+000	9.17867E-005	5.99601E-002	9.09733E-001	3.58210E+000	9	...........
	72	0.97333	9.15052E-001	1.01166E-004	0.00000E+000	9.25720E-005	5.99601E-002	9.15449E-001	3.58210E+000	9	...........
	73	0.98667	9.20727E-001	1.01191E-004	0.00000E+000	9.31691E-005	5.99601E-002	9.21063E-001	3.58210E+000	9	...........
	74	1	9.26259E-001	1.01107E-004	0.00000E+000	9.36517E-005	5.99601E-002	9.26585E-001	3.58210E+000	9	...........
	75	1.01333	9.31668E-001	1.00375E-004	0.00000E+000	9.35162E-005	5.99601E-002	9.31993E-001	3.58210E+000	9	...........
	76	1.02667	9.36964E-001	1.00682E-004	0.00000E+000	9.43357E-005	5.99601E-002	9.37294E-001	3.58210E+000	9	...........
	77	1.04	9.42163E-001	1.01243E-004	0.00000E+000	9.53874E-005	5.99601E-002	9.42483E-001	3.58210E+000	9	...........
	78	1.05333	9.47272E-001	1.00992E-004	0.00000E+000	9.56667E-005	5.99601E-002	9.47595E-001	3.58210E+000	9	...........
	79	1.06667	9.52305E-001	1.00728E-004	0.00000E+000	9.59239E-005	5.99601E-002	9.52624E-001	3.58210E+000	9	...........
	80	1.08	9.57199E-001	1.00697E-004	0.00000E+000	9.63870E-005	5.99601E-002	9.57510E-001	3.58210E+000	9	...........
	81	1.09333	9.62016E-001	1.00706E-004	0.00000E+000	9.68811E-005	5.99601E-002	9.62345E-001	3.58210E+000	9	...........
	82	1.10667	9.66727E-001	1.00671E-004	0.00000E+000	9.73213E-005	5.99601E-002	9.67073E-001	3.58210E+000	9	...........
	83	1.12	9.71350E-001	1.00488E-004	0.00000E+000	9.76086E-005	5.99601E-002	9.71706E-001	3.58210E+000	9	...........
	84	1.13333	9.75907E-001	1.00872E-004	0.00000E+000	9.84417E-005	5.99601E-002	9.76254E-001	3.58210E+000	9	...........
	85	1.14667	9.80338E-001	1.00564E-004	0.00000E+000	9.85863E-005	5.99601E-002	9.80670E-001	3.58210E+000	9	...........
	86	1.16	9.84653E-001	1.00868E-004	0.00000E+000	9.93198E-005	5.99601E-002	9.85020E-001	3.58210E+000	9	...........
	87	1.17333	9.88927E-001	1.00753E-004	0.00000E+000	9.96376E-005	5.99601E-002	9.89290E-001	3.58210E+000	9	...........
	88	1.18667	9.93068E-001	9.98030E-005	0.00000E+000	9.91112E-005	5.99601E-002	9.93439E-001	3.58210E+000	9	...........
	89	1.2	9.97152E-001	1.00838E-004	0.00000E+000	1.00550E-004	5.99601E-002	9.97525E-001	3.58210E+000	9	...........
	90	1.205	9.99923E-001	1.00084E-004	0.00000E+000	1.00076E-004	5.99601E-002	1.00031E+000	3.58210E+000	9	...........
STARTTIMEOFFSET	QUANT	1671.214	Start Time Offset (s)
