EXPLAIN
TAG	PWR800_CHARGE
TITLE	LABEL	PWR Cyclic Charge Discharge (Cell) - Charge Step	Test &Identifier
DATE	LABEL	13-7-2017	Date
TIME	LABEL	15:26:58	Time
NOTES	NOTES	2	&Notes...
	supercap test cell
	6M KOH
PSTAT	PSTAT	IFC5000-01520	Potentiostat
CAPACITY	QUANT	1.00000E-003	Capacity (A-hr)
CELLTYPE	SELECTOR	1	&Cell Type
WORKINGCONNECTION	SELECTOR	0	&Working Lead
MAXCHARGETIME	VARIABLEANDUNITS	1.00000E+002	s	1.00000E+002	second(s)	Max &Charge Time
CHARGECURRENT	QUANT	1.00000E-004	&Charge Current (A) 
VOLTAGEFINISH	TWOPARAM	F	1.00000E-003	3.60000E+003	&Voltage Finish	 I (A) < 	Max Time(s)
SAMPLETIME	QUANT	1.00000E-002	Sa&mple Period (s)
CHARGESTOPAT1	MULTIPARAM	4	1.00000E+000	Charge Stop At &1	Voltage > Limit	V
CHARGESTOPAT2	MULTIPARAM	0	0.00000E+000	Charge Stop At &2	None	N/A
AESBHCSELECTOR	TOGGLE	F	Save Both Half Cells
IRCOMP	TOGGLE	F	IR &Measure
EOC	QUANT	0	Open Circuit (V)
SEQUENCER	TOGGLE	TRUE	Run as Sequence
PSTATMODEL	IQUANT	53	Pstat Model
PSTATSECTION	LABEL	IFC5000-01520	Pstat Section
PSTATSERIALNO	LABEL	01520	Pstat Serial Number
CTRLMODE	IQUANT	0	Control Mode
ELECTROMETER	IQUANT	1	RE=0 or CS=1
IESTAB	IQUANT	0	I/E Stability
CASPEED	IQUANT	4	Control Amp Speed
CONVENTION	IQUANT	1	Current Convention
ICHRANGE	IQUANT	2	Ich Range
ICHRANGEMODE	TOGGLE	T	Ich Auto Range
ICHOFFSETENABLE	TOGGLE	F	Ich Offset Enable
ICHOFFSET	QUANT	0	Ich Offset (V)
ICHFILTER	IQUANT	1	Ich Filter
VCHRANGE	IQUANT	2	Vch Range
VCHRANGEMODE	TOGGLE	T	Vch Auto Range
VCHOFFSETENABLE	TOGGLE	F	Vch Offset Enable
VCHOFFSET	QUANT	0	Vch Offset (V)
VCHFILTER	IQUANT	1	Vch Filter
IERANGELOWERLIMIT	IQUANT	9	I/E Range Lower Limit
IERANGEMODE	TOGGLE	F	I/E AutoRange
IERANGE	IQUANT	9	I/E Range
ACHSELECT	IQUANT	1	Ach Select
ACHRANGE	IQUANT	2	Ach Range
ACHOFFSETENABLE	TOGGLE	F	Ach Offset Enable
ACHOFFSET	QUANT	0	Ach Offset (V)
ACHFILTER	IQUANT	1	Ach Filter
CABLEID	IQUANT	14	Cable ID
DCCALDATE	LABEL	5-7-2017	DC Calibration Date
ACCALDATE	LABEL	12/3/2015	AC Calibration Date
FRAMEWORKVERSION	QUANT	7.01	Framework Version
INSTRUMENTVERSION	LABEL	4.00	Instrument Version
CURVE	TABLE	93
	Pt	T	Vf	Im	Vu	Pwr	Sig	Ach	Temp	IERange	Over
	#	s	V	A	V	W	V	V	deg C	#	bits
	0	0.013333	1.33187E-001	1.00385E-004	0.00000E+000	1.33700E-005	5.99601E-002	1.33234E-001	3.58000E+000	9	...........
	1	0.026667	1.48451E-001	1.00768E-004	0.00000E+000	1.49590E-005	5.99601E-002	1.48467E-001	3.58000E+000	9	...........
	2	0.04	1.63263E-001	1.01229E-004	0.00000E+000	1.65270E-005	5.99601E-002	1.63289E-001	3.58000E+000	9	...........
	3	0.053333	1.77811E-001	1.01466E-004	0.00000E+000	1.80417E-005	5.99601E-002	1.77840E-001	3.58000E+000	9	...........
	4	0.066667	1.92167E-001	1.00640E-004	0.00000E+000	1.93396E-005	5.99601E-002	1.92196E-001	3.58000E+000	9	...........
	5	0.08	2.06392E-001	1.01301E-004	0.00000E+000	2.09077E-005	5.99601E-002	2.06421E-001	3.58000E+000	9	...........
	6	0.093333	2.20498E-001	1.01390E-004	0.00000E+000	2.23563E-005	5.99601E-002	2.20536E-001	3.58000E+000	9	...........
	7	0.106667	2.34540E-001	9.99228E-005	0.00000E+000	2.34359E-005	5.99601E-002	2.34579E-001	3.58000E+000	9	...........
	8	0.12	2.48538E-001	1.00566E-004	0.00000E+000	2.49944E-005	5.99601E-002	2.48584E-001	3.58000E+000	9	...........
	9	0.133333	2.62504E-001	1.00967E-004	0.00000E+000	2.65042E-005	5.99601E-002	2.62556E-001	3.58000E+000	9	...........
	10	0.146667	2.76454E-001	1.01202E-004	0.00000E+000	2.79778E-005	5.99601E-002	2.76507E-001	3.58000E+000	9	...........
	11	0.16	2.90402E-001	1.00627E-004	0.00000E+000	2.92223E-005	5.99601E-002	2.90459E-001	3.58000E+000	9	...........
	12	0.173333	3.04361E-001	1.00566E-004	0.00000E+000	3.06083E-005	5.99601E-002	3.04419E-001	3.58000E+000	9	...........
	13	0.186667	3.18340E-001	1.00410E-004	0.00000E+000	3.19646E-005	5.99601E-002	3.18397E-001	3.58000E+000	9	...........
	14	0.2	3.32323E-001	1.00414E-004	0.00000E+000	3.33697E-005	5.99601E-002	3.32384E-001	3.58000E+000	9	...........
	15	0.213333	3.46329E-001	1.01231E-004	0.00000E+000	3.50593E-005	5.99601E-002	3.46393E-001	3.58000E+000	9	...........
	16	0.226667	3.60339E-001	1.01719E-004	0.00000E+000	3.66534E-005	5.99601E-002	3.60406E-001	3.58000E+000	9	...........
	17	0.24	3.74359E-001	1.01193E-004	0.00000E+000	3.78824E-005	5.99601E-002	3.74431E-001	3.58000E+000	9	...........
	18	0.253333	3.88373E-001	1.01147E-004	0.00000E+000	3.92828E-005	5.99601E-002	3.88450E-001	3.58000E+000	9	...........
	19	0.266667	4.02373E-001	1.01403E-004	0.00000E+000	4.08020E-005	5.99601E-002	4.02455E-001	3.58000E+000	9	...........
	20	0.28	4.16340E-001	1.00735E-004	0.00000E+000	4.19402E-005	5.99601E-002	4.16426E-001	3.58000E+000	9	...........
	21	0.293333	4.30253E-001	1.01248E-004	0.00000E+000	4.35623E-005	5.99601E-002	4.30342E-001	3.58000E+000	9	...........
	22	0.306667	4.44095E-001	1.01621E-004	0.00000E+000	4.51294E-005	5.99601E-002	4.44185E-001	3.57932E+000	9	...........
	23	0.32	4.57837E-001	1.00480E-004	0.00000E+000	4.60036E-005	5.99601E-002	4.57929E-001	3.57910E+000	9	...........
	24	0.333333	4.71463E-001	1.01114E-004	0.00000E+000	4.76714E-005	5.99601E-002	4.71553E-001	3.57910E+000	9	...........
	25	0.346667	4.84953E-001	1.00438E-004	0.00000E+000	4.87075E-005	5.99601E-002	4.85049E-001	3.57910E+000	9	...........
	26	0.36	4.98280E-001	1.01415E-004	0.00000E+000	5.05330E-005	5.99601E-002	4.98385E-001	3.57910E+000	9	...........
	27	0.373333	5.11446E-001	1.00456E-004	0.00000E+000	5.13779E-005	5.99601E-002	5.11556E-001	3.57910E+000	9	...........
	28	0.386667	5.24422E-001	9.98009E-005	0.00000E+000	5.23378E-005	5.99601E-002	5.24535E-001	3.57910E+000	9	...........
	29	0.4	5.36926E-001	1.00980E-004	0.00000E+000	5.42190E-005	5.99601E-002	5.37136E-001	3.57910E+000	9	...........
	30	0.413333	5.49419E-001	1.00776E-004	0.00000E+000	5.53684E-005	5.99601E-002	5.49655E-001	3.57910E+000	9	...........
	31	0.426667	5.61769E-001	9.99134E-005	0.00000E+000	5.61283E-005	5.99601E-002	5.62041E-001	3.57910E+000	9	...........
	32	0.44	5.73892E-001	1.01614E-004	0.00000E+000	5.83154E-005	5.99601E-002	5.74161E-001	3.57910E+000	9	...........
	33	0.453333	5.85773E-001	9.96207E-005	0.00000E+000	5.83551E-005	5.99601E-002	5.86072E-001	3.57910E+000	9	...........
	34	0.466667	5.97463E-001	1.01053E-004	0.00000E+000	6.03756E-005	5.99601E-002	5.97763E-001	3.57910E+000	9	...........
	35	0.48	6.08883E-001	1.00974E-004	0.00000E+000	6.14814E-005	5.99601E-002	6.09193E-001	3.57910E+000	9	...........
	36	0.493333	6.20143E-001	1.00532E-004	0.00000E+000	6.23444E-005	5.99601E-002	6.20408E-001	3.57910E+000	9	...........
	37	0.506667	6.31137E-001	1.00567E-004	0.00000E+000	6.34714E-005	5.99601E-002	6.31416E-001	3.57910E+000	9	...........
	38	0.52	6.41905E-001	9.94977E-005	0.00000E+000	6.38681E-005	5.99601E-002	6.42186E-001	3.57910E+000	9	...........
	39	0.533333	6.52471E-001	1.01348E-004	0.00000E+000	6.61267E-005	5.99601E-002	6.52741E-001	3.57910E+000	9	...........
	40	0.546667	6.62805E-001	1.00393E-004	0.00000E+000	6.65408E-005	5.99601E-002	6.63094E-001	3.57910E+000	9	...........
	41	0.56	6.72978E-001	1.00921E-004	0.00000E+000	6.79175E-005	5.99601E-002	6.73223E-001	3.57910E+000	9	...........
	42	0.573333	6.82885E-001	1.00803E-004	0.00000E+000	6.88370E-005	5.99601E-002	6.83159E-001	3.57910E+000	9	...........
	43	0.586667	6.92637E-001	1.01319E-004	0.00000E+000	7.01773E-005	5.99601E-002	6.92913E-001	3.57910E+000	9	...........
	44	0.6	7.02185E-001	1.01591E-004	0.00000E+000	7.13356E-005	5.99601E-002	7.02480E-001	3.57910E+000	9	...........
	45	0.613333	7.11527E-001	1.01260E-004	0.00000E+000	7.20489E-005	5.99601E-002	7.11828E-001	3.57910E+000	9	...........
	46	0.626667	7.20757E-001	1.01960E-004	0.00000E+000	7.34881E-005	5.99601E-002	7.21006E-001	3.57910E+000	9	...........
	47	0.64	7.29740E-001	1.00765E-004	0.00000E+000	7.35320E-005	5.99601E-002	7.29990E-001	3.57910E+000	9	...........
	48	0.653333	7.38529E-001	1.00626E-004	0.00000E+000	7.43153E-005	5.99601E-002	7.38814E-001	3.57910E+000	9	...........
	49	0.666667	7.47203E-001	1.01601E-004	0.00000E+000	7.59168E-005	5.99601E-002	7.47473E-001	3.57910E+000	9	...........
	50	0.68	7.55681E-001	1.01238E-004	0.00000E+000	7.65034E-005	5.99601E-002	7.55951E-001	3.57910E+000	9	...........
	51	0.693333	7.63993E-001	1.01054E-004	0.00000E+000	7.72047E-005	5.99601E-002	7.64272E-001	3.57910E+000	9	...........
	52	0.706667	7.72178E-001	1.00401E-004	0.00000E+000	7.75275E-005	5.99601E-002	7.72452E-001	3.57910E+000	9	...........
	53	0.72	7.80176E-001	1.01143E-004	0.00000E+000	7.89093E-005	5.99601E-002	7.80485E-001	3.57910E+000	9	...........
	54	0.733333	7.88049E-001	1.00598E-004	0.00000E+000	7.92761E-005	5.99601E-002	7.88331E-001	3.57910E+000	9	...........
	55	0.746667	7.95784E-001	1.00371E-004	0.00000E+000	7.98735E-005	5.99601E-002	7.96081E-001	3.57910E+000	9	...........
	56	0.76	8.03355E-001	1.01480E-004	0.00000E+000	8.15248E-005	5.99601E-002	8.03653E-001	3.57910E+000	9	...........
	57	0.773333	8.10764E-001	1.00610E-004	0.00000E+000	8.15713E-005	5.99601E-002	8.11077E-001	3.57910E+000	9	...........
	58	0.786667	8.18093E-001	1.00794E-004	0.00000E+000	8.24587E-005	5.99601E-002	8.18377E-001	3.57910E+000	9	...........
	59	0.8	8.25255E-001	1.00428E-004	0.00000E+000	8.28788E-005	5.99601E-002	8.25557E-001	3.57910E+000	9	...........
	60	0.813333	8.32279E-001	1.00580E-004	0.00000E+000	8.37108E-005	5.99601E-002	8.32592E-001	3.57910E+000	9	...........
	61	0.826667	8.39177E-001	1.00700E-004	0.00000E+000	8.45051E-005	5.99601E-002	8.39491E-001	3.57910E+000	9	...........
	62	0.84	8.45993E-001	1.00332E-004	0.00000E+000	8.48804E-005	5.99601E-002	8.46311E-001	3.57910E+000	9	...........
	63	0.853333	8.52669E-001	1.00773E-004	0.00000E+000	8.59260E-005	5.99601E-002	8.52967E-001	3.57910E+000	9	...........
	64	0.866667	8.59234E-001	1.00536E-004	0.00000E+000	8.63844E-005	5.99601E-002	8.59522E-001	3.57910E+000	9	...........
	65	0.88	8.65655E-001	1.01218E-004	0.00000E+000	8.76198E-005	5.99601E-002	8.65947E-001	3.57910E+000	9	...........
	66	0.893333	8.72023E-001	1.01129E-004	0.00000E+000	8.81871E-005	5.99601E-002	8.72326E-001	3.57910E+000	9	...........
	67	0.906667	8.78240E-001	1.01664E-004	0.00000E+000	8.92852E-005	5.99601E-002	8.78541E-001	3.57910E+000	9	...........
	68	0.92	8.84346E-001	1.00608E-004	0.00000E+000	8.89726E-005	5.99601E-002	8.84647E-001	3.57910E+000	9	...........
	69	0.933333	8.90341E-001	1.00290E-004	0.00000E+000	8.92919E-005	5.99601E-002	8.90661E-001	3.57910E+000	9	...........
	70	0.946667	8.96258E-001	1.00985E-004	0.00000E+000	9.05081E-005	5.99601E-002	8.96575E-001	3.57910E+000	9	...........
	71	0.96	9.02066E-001	1.00924E-004	0.00000E+000	9.10402E-005	5.99601E-002	9.02382E-001	3.57910E+000	9	...........
	72	0.97333	9.07742E-001	1.00821E-004	0.00000E+000	9.15194E-005	5.99601E-002	9.08064E-001	3.57910E+000	9	...........
	73	0.98667	9.13328E-001	1.00365E-004	0.00000E+000	9.16658E-005	5.99601E-002	9.13655E-001	3.57910E+000	9	...........
	74	1	9.18835E-001	1.01142E-004	0.00000E+000	9.29326E-005	5.99601E-002	9.19152E-001	3.57910E+000	9	...........
	75	1.01333	9.24283E-001	1.00553E-004	0.00000E+000	9.29396E-005	5.99601E-002	9.24560E-001	3.57910E+000	9	...........
	76	1.02667	9.29576E-001	9.98166E-005	0.00000E+000	9.27871E-005	5.99601E-002	9.29848E-001	3.57910E+000	9	...........
	77	1.04	9.34753E-001	1.00125E-004	0.00000E+000	9.35921E-005	5.99601E-002	9.35058E-001	3.57910E+000	9	...........
	78	1.05333	9.39835E-001	1.00799E-004	0.00000E+000	9.47345E-005	5.99601E-002	9.40178E-001	3.57910E+000	9	...........
	79	1.06667	9.44844E-001	1.00907E-004	0.00000E+000	9.53418E-005	5.99601E-002	9.45201E-001	3.57910E+000	9	...........
	80	1.08	9.49799E-001	1.01516E-004	0.00000E+000	9.64196E-005	5.99601E-002	9.50141E-001	3.57910E+000	9	...........
	81	1.09333	9.54598E-001	1.00692E-004	0.00000E+000	9.61201E-005	5.99601E-002	9.54960E-001	3.57910E+000	9	...........
	82	1.10667	9.59296E-001	1.00829E-004	0.00000E+000	9.67251E-005	5.99601E-002	9.59686E-001	3.57910E+000	9	...........
	83	1.12	9.63945E-001	1.00319E-004	0.00000E+000	9.67018E-005	5.99601E-002	9.64320E-001	3.57910E+000	9	...........
	84	1.13333	9.68478E-001	1.00353E-004	0.00000E+000	9.71898E-005	5.99601E-002	9.68861E-001	3.57910E+000	9	...........
	85	1.14667	9.72967E-001	1.01340E-004	0.00000E+000	9.86003E-005	5.99601E-002	9.73349E-001	3.57910E+000	9	...........
	86	1.16	9.77340E-001	1.01027E-004	0.00000E+000	9.87380E-005	5.99601E-002	9.77693E-001	3.57910E+000	9	...........
	87	1.17333	9.81588E-001	1.00868E-004	0.00000E+000	9.90106E-005	5.99601E-002	9.81945E-001	3.57910E+000	9	...........
	88	1.18667	9.85777E-001	1.00626E-004	0.00000E+000	9.91949E-005	5.99601E-002	9.86134E-001	3.57910E+000	9	...........
	89	1.2	9.89884E-001	1.01098E-004	0.00000E+000	1.00075E-004	5.99601E-002	9.90219E-001	3.57910E+000	9	...........
	90	1.21333	9.93878E-001	1.01122E-004	0.00000E+000	1.00503E-004	5.99601E-002	9.94211E-001	3.57910E+000	9	...........
	91	1.22667	9.97845E-001	1.00420E-004	0.00000E+000	1.00203E-004	5.99601E-002	9.98174E-001	3.57910E+000	9	...........
	92	1.22833	1.00002E+000	1.00065E-004	0.00000E+000	1.00066E-004	5.99601E-002	1.00034E+000	3.57910E+000	9	...........
STARTTIMEOFFSET	QUANT	1129.712	Start Time Offset (s)
