EXPLAIN
TAG	PWR800_CHARGE
TITLE	LABEL	PWR Cyclic Charge Discharge (Cell) - Charge Step	Test &Identifier
DATE	LABEL	13-7-2017	Date
TIME	LABEL	15:43:49	Time
NOTES	NOTES	2	&Notes...
	supercap test cell
	6M KOH
PSTAT	PSTAT	IFC5000-01520	Potentiostat
CAPACITY	QUANT	1.00000E-003	Capacity (A-hr)
CELLTYPE	SELECTOR	1	&Cell Type
WORKINGCONNECTION	SELECTOR	0	&Working Lead
MAXCHARGETIME	VARIABLEANDUNITS	1.00000E+002	s	1.00000E+002	second(s)	Max &Charge Time
CHARGECURRENT	QUANT	1.00000E-004	&Charge Current (A) 
VOLTAGEFINISH	TWOPARAM	F	1.00000E-003	3.60000E+003	&Voltage Finish	 I (A) < 	Max Time(s)
SAMPLETIME	QUANT	1.00000E-002	Sa&mple Period (s)
CHARGESTOPAT1	MULTIPARAM	4	1.00000E+000	Charge Stop At &1	Voltage > Limit	V
CHARGESTOPAT2	MULTIPARAM	0	0.00000E+000	Charge Stop At &2	None	N/A
AESBHCSELECTOR	TOGGLE	F	Save Both Half Cells
IRCOMP	TOGGLE	F	IR &Measure
EOC	QUANT	0	Open Circuit (V)
SEQUENCER	TOGGLE	TRUE	Run as Sequence
PSTATMODEL	IQUANT	53	Pstat Model
PSTATSECTION	LABEL	IFC5000-01520	Pstat Section
PSTATSERIALNO	LABEL	01520	Pstat Serial Number
CTRLMODE	IQUANT	0	Control Mode
ELECTROMETER	IQUANT	1	RE=0 or CS=1
IESTAB	IQUANT	0	I/E Stability
CASPEED	IQUANT	4	Control Amp Speed
CONVENTION	IQUANT	1	Current Convention
ICHRANGE	IQUANT	2	Ich Range
ICHRANGEMODE	TOGGLE	T	Ich Auto Range
ICHOFFSETENABLE	TOGGLE	F	Ich Offset Enable
ICHOFFSET	QUANT	0	Ich Offset (V)
ICHFILTER	IQUANT	1	Ich Filter
VCHRANGE	IQUANT	2	Vch Range
VCHRANGEMODE	TOGGLE	T	Vch Auto Range
VCHOFFSETENABLE	TOGGLE	F	Vch Offset Enable
VCHOFFSET	QUANT	0	Vch Offset (V)
VCHFILTER	IQUANT	1	Vch Filter
IERANGELOWERLIMIT	IQUANT	9	I/E Range Lower Limit
IERANGEMODE	TOGGLE	F	I/E AutoRange
IERANGE	IQUANT	9	I/E Range
ACHSELECT	IQUANT	1	Ach Select
ACHRANGE	IQUANT	2	Ach Range
ACHOFFSETENABLE	TOGGLE	F	Ach Offset Enable
ACHOFFSET	QUANT	0	Ach Offset (V)
ACHFILTER	IQUANT	1	Ach Filter
CABLEID	IQUANT	14	Cable ID
DCCALDATE	LABEL	5-7-2017	DC Calibration Date
ACCALDATE	LABEL	12/3/2015	AC Calibration Date
FRAMEWORKVERSION	QUANT	7.01	Framework Version
INSTRUMENTVERSION	LABEL	4.00	Instrument Version
CURVE	TABLE	90
	Pt	T	Vf	Im	Vu	Pwr	Sig	Ach	Temp	IERange	Over
	#	s	V	A	V	W	V	V	deg C	#	bits
	0	0.013333	1.33479E-001	1.00140E-004	0.00000E+000	1.33665E-005	5.99601E-002	1.33529E-001	3.58000E+000	9	...........
	1	0.026667	1.48778E-001	1.01138E-004	0.00000E+000	1.50471E-005	5.99601E-002	1.48805E-001	3.58000E+000	9	...........
	2	0.04	1.63641E-001	1.01321E-004	0.00000E+000	1.65803E-005	5.99601E-002	1.63672E-001	3.58000E+000	9	...........
	3	0.053333	1.78239E-001	1.01133E-004	0.00000E+000	1.80259E-005	5.99601E-002	1.78265E-001	3.58000E+000	9	...........
	4	0.066667	1.92646E-001	1.00688E-004	0.00000E+000	1.93971E-005	5.99601E-002	1.92672E-001	3.58000E+000	9	...........
	5	0.08	2.06906E-001	1.00812E-004	0.00000E+000	2.08585E-005	5.99601E-002	2.06934E-001	3.58000E+000	9	...........
	6	0.093333	2.21064E-001	1.01052E-004	0.00000E+000	2.23390E-005	5.99601E-002	2.21099E-001	3.58000E+000	9	...........
	7	0.106667	2.35154E-001	1.00581E-004	0.00000E+000	2.36521E-005	5.99601E-002	2.35192E-001	3.58000E+000	9	...........
	8	0.12	2.49204E-001	1.00957E-004	0.00000E+000	2.51590E-005	5.99601E-002	2.49244E-001	3.58000E+000	9	...........
	9	0.133333	2.63218E-001	1.01213E-004	0.00000E+000	2.66410E-005	5.99601E-002	2.63270E-001	3.58000E+000	9	...........
	10	0.146667	2.77233E-001	1.01178E-004	0.00000E+000	2.80499E-005	5.99601E-002	2.77282E-001	3.58000E+000	9	...........
	11	0.16	2.91245E-001	1.00240E-004	0.00000E+000	2.91942E-005	5.99601E-002	2.91297E-001	3.58000E+000	9	...........
	12	0.173333	3.05272E-001	1.00957E-004	0.00000E+000	3.08195E-005	5.99601E-002	3.05330E-001	3.58000E+000	9	...........
	13	0.186667	3.19323E-001	9.99468E-005	0.00000E+000	3.19153E-005	5.99601E-002	3.19381E-001	3.58000E+000	9	...........
	14	0.2	3.33397E-001	1.01431E-004	0.00000E+000	3.38169E-005	5.99601E-002	3.33463E-001	3.58000E+000	9	...........
	15	0.213333	3.47505E-001	1.00990E-004	0.00000E+000	3.50944E-005	5.99601E-002	3.47564E-001	3.58000E+000	9	...........
	16	0.226667	3.61622E-001	1.01107E-004	0.00000E+000	3.65627E-005	5.99601E-002	3.61694E-001	3.58000E+000	9	...........
	17	0.24	3.75764E-001	1.01063E-004	0.00000E+000	3.79757E-005	5.99601E-002	3.75833E-001	3.58000E+000	9	...........
	18	0.253333	3.89919E-001	9.98384E-005	0.00000E+000	3.89289E-005	5.99601E-002	3.89993E-001	3.58000E+000	9	...........
	19	0.266667	4.04066E-001	1.01850E-004	0.00000E+000	4.11542E-005	5.99601E-002	4.04146E-001	3.58000E+000	9	...........
	20	0.28	4.18188E-001	1.00376E-004	0.00000E+000	4.19761E-005	5.99601E-002	4.18273E-001	3.58000E+000	9	...........
	21	0.293333	4.32282E-001	1.00419E-004	0.00000E+000	4.34092E-005	5.99601E-002	4.32364E-001	3.58000E+000	9	...........
	22	0.306667	4.46306E-001	1.01879E-004	0.00000E+000	4.54694E-005	5.99601E-002	4.46393E-001	3.58000E+000	9	...........
	23	0.32	4.60253E-001	1.00584E-004	0.00000E+000	4.62943E-005	5.99601E-002	4.60330E-001	3.58000E+000	9	...........
	24	0.333333	4.74085E-001	1.00370E-004	0.00000E+000	4.75839E-005	5.99601E-002	4.74174E-001	3.58000E+000	9	...........
	25	0.346667	4.87788E-001	1.01434E-004	0.00000E+000	4.94781E-005	5.99601E-002	4.87880E-001	3.57980E+000	9	...........
	26	0.36	5.01344E-001	1.01135E-004	0.00000E+000	5.07032E-005	5.99601E-002	5.01438E-001	3.57880E+000	9	...........
	27	0.373333	5.14742E-001	1.00474E-004	0.00000E+000	5.17182E-005	5.99601E-002	5.14833E-001	3.57880E+000	9	...........
	28	0.386667	5.27946E-001	1.00766E-004	0.00000E+000	5.31989E-005	5.99601E-002	5.28042E-001	3.57880E+000	9	...........
	29	0.4	5.40594E-001	1.00671E-004	0.00000E+000	5.44221E-005	5.99601E-002	5.40790E-001	3.57880E+000	9	...........
	30	0.413333	5.53385E-001	1.00174E-004	0.00000E+000	5.54347E-005	5.99601E-002	5.53565E-001	3.57880E+000	9	...........
	31	0.426667	5.65976E-001	1.01554E-004	0.00000E+000	5.74773E-005	5.99601E-002	5.66210E-001	3.57880E+000	9	...........
	32	0.44	5.78315E-001	1.00496E-004	0.00000E+000	5.81183E-005	5.99601E-002	5.78560E-001	3.57880E+000	9	...........
	33	0.453333	5.90451E-001	1.00346E-004	0.00000E+000	5.92493E-005	5.99601E-002	5.90712E-001	3.57880E+000	9	...........
	34	0.466667	6.02345E-001	1.01326E-004	0.00000E+000	6.10334E-005	5.99601E-002	6.02602E-001	3.57880E+000	9	...........
	35	0.48	6.14020E-001	1.00523E-004	0.00000E+000	6.17231E-005	5.99601E-002	6.14281E-001	3.57880E+000	9	...........
	36	0.493333	6.25475E-001	1.00122E-004	0.00000E+000	6.26237E-005	5.99601E-002	6.25722E-001	3.57880E+000	9	...........
	37	0.506667	6.36692E-001	1.01058E-004	0.00000E+000	6.43431E-005	5.99601E-002	6.36938E-001	3.57880E+000	9	...........
	38	0.52	6.47675E-001	1.01376E-004	0.00000E+000	6.56588E-005	5.99601E-002	6.47912E-001	3.57880E+000	9	...........
	39	0.533333	6.58446E-001	1.00438E-004	0.00000E+000	6.61327E-005	5.99601E-002	6.58691E-001	3.57880E+000	9	...........
	40	0.546667	6.68997E-001	9.98926E-005	0.00000E+000	6.68279E-005	5.99601E-002	6.69254E-001	3.57880E+000	9	...........
	41	0.56	6.79335E-001	1.00904E-004	0.00000E+000	6.85478E-005	5.99601E-002	6.79582E-001	3.57880E+000	9	...........
	42	0.573333	6.89445E-001	1.00906E-004	0.00000E+000	6.95694E-005	5.99601E-002	6.89694E-001	3.57880E+000	9	...........
	43	0.586667	6.99354E-001	1.00640E-004	0.00000E+000	7.03827E-005	5.99601E-002	6.99618E-001	3.57880E+000	9	...........
	44	0.6	7.09056E-001	1.01098E-004	0.00000E+000	7.16842E-005	5.99601E-002	7.09324E-001	3.57880E+000	9	...........
	45	0.613333	7.18598E-001	1.01254E-004	0.00000E+000	7.27612E-005	5.99601E-002	7.18881E-001	3.57880E+000	9	...........
	46	0.626667	7.27945E-001	1.00081E-004	0.00000E+000	7.28536E-005	5.99601E-002	7.28229E-001	3.57880E+000	9	...........
	47	0.64	7.37065E-001	1.00644E-004	0.00000E+000	7.41810E-005	5.99601E-002	7.37388E-001	3.57880E+000	9	...........
	48	0.653333	7.46062E-001	1.00235E-004	0.00000E+000	7.47818E-005	5.99601E-002	7.46385E-001	3.57880E+000	9	...........
	49	0.666667	7.54862E-001	1.01520E-004	0.00000E+000	7.66336E-005	5.99601E-002	7.55177E-001	3.57880E+000	9	...........
	50	0.68	7.63497E-001	1.00635E-004	0.00000E+000	7.68349E-005	5.99601E-002	7.63819E-001	3.57880E+000	9	...........
	51	0.693333	7.71955E-001	1.00817E-004	0.00000E+000	7.78261E-005	5.99601E-002	7.72304E-001	3.57880E+000	9	...........
	52	0.706667	7.80281E-001	1.01473E-004	0.00000E+000	7.91776E-005	5.99601E-002	7.80579E-001	3.57880E+000	9	...........
	53	0.72	7.88422E-001	1.00309E-004	0.00000E+000	7.90861E-005	5.99601E-002	7.88729E-001	3.57880E+000	9	...........
	54	0.733333	7.96427E-001	1.00896E-004	0.00000E+000	8.03563E-005	5.99601E-002	7.96730E-001	3.57880E+000	9	...........
	55	0.746667	8.04267E-001	1.00558E-004	0.00000E+000	8.08758E-005	5.99601E-002	8.04570E-001	3.57880E+000	9	...........
	56	0.76	8.11936E-001	1.01408E-004	0.00000E+000	8.23365E-005	5.99601E-002	8.12258E-001	3.57880E+000	9	...........
	57	0.773333	8.19483E-001	1.00987E-004	0.00000E+000	8.27568E-005	5.99601E-002	8.19808E-001	3.57880E+000	9	...........
	58	0.786667	8.26882E-001	1.00713E-004	0.00000E+000	8.32774E-005	5.99601E-002	8.27243E-001	3.57880E+000	9	...........
	59	0.8	8.34166E-001	1.00734E-004	0.00000E+000	8.40293E-005	5.99601E-002	8.34498E-001	3.57880E+000	9	...........
	60	0.813333	8.41284E-001	1.00535E-004	0.00000E+000	8.45788E-005	5.99601E-002	8.41648E-001	3.57880E+000	9	...........
	61	0.826667	8.48305E-001	1.00616E-004	0.00000E+000	8.53528E-005	5.99601E-002	8.48689E-001	3.57880E+000	9	...........
	62	0.84	8.55194E-001	1.01196E-004	0.00000E+000	8.65422E-005	5.99601E-002	8.55562E-001	3.57880E+000	9	...........
	63	0.853333	8.61946E-001	1.01107E-004	0.00000E+000	8.71492E-005	5.99601E-002	8.62332E-001	3.57880E+000	9	...........
	64	0.866667	8.68602E-001	1.01402E-004	0.00000E+000	8.80783E-005	5.99601E-002	8.68984E-001	3.57880E+000	9	...........
	65	0.88	8.75154E-001	1.01798E-004	0.00000E+000	8.90891E-005	5.99601E-002	8.75522E-001	3.57880E+000	9	...........
	66	0.893333	8.81550E-001	1.00241E-004	0.00000E+000	8.83671E-005	5.99601E-002	8.81914E-001	3.57880E+000	9	...........
	67	0.906667	8.87852E-001	1.00954E-004	0.00000E+000	8.96325E-005	5.99601E-002	8.88183E-001	3.57880E+000	9	...........
	68	0.92	8.94011E-001	1.00819E-004	0.00000E+000	9.01331E-005	5.99601E-002	8.94376E-001	3.57880E+000	9	...........
	69	0.933333	9.00079E-001	1.01048E-004	0.00000E+000	9.09512E-005	5.99601E-002	9.00434E-001	3.57880E+000	9	...........
	70	0.946667	9.06038E-001	1.00961E-004	0.00000E+000	9.14741E-005	5.99601E-002	9.06404E-001	3.57880E+000	9	...........
	71	0.96	9.11878E-001	1.00390E-004	0.00000E+000	9.15431E-005	5.99601E-002	9.12242E-001	3.57880E+000	9	...........
	72	0.97333	9.17603E-001	1.00722E-004	0.00000E+000	9.24228E-005	5.99601E-002	9.17964E-001	3.57880E+000	9	...........
	73	0.98667	9.23271E-001	1.01040E-004	0.00000E+000	9.32871E-005	5.99601E-002	9.23613E-001	3.57880E+000	9	...........
	74	1	9.28793E-001	1.01605E-004	0.00000E+000	9.43705E-005	5.99601E-002	9.29137E-001	3.57880E+000	9	...........
	75	1.01333	9.34213E-001	1.01095E-004	0.00000E+000	9.44442E-005	5.99601E-002	9.34550E-001	3.57880E+000	9	...........
	76	1.02667	9.39506E-001	1.01641E-004	0.00000E+000	9.54922E-005	5.99601E-002	9.39875E-001	3.57880E+000	9	...........
	77	1.04	9.44719E-001	1.01246E-004	0.00000E+000	9.56491E-005	5.99601E-002	9.45066E-001	3.57880E+000	9	...........
	78	1.05333	9.49871E-001	1.00117E-004	0.00000E+000	9.50979E-005	5.99601E-002	9.50201E-001	3.57880E+000	9	...........
	79	1.06667	9.54846E-001	1.01273E-004	0.00000E+000	9.67002E-005	5.99601E-002	9.55210E-001	3.57880E+000	9	...........
	80	1.08	9.59754E-001	1.00680E-004	0.00000E+000	9.66283E-005	5.99601E-002	9.60106E-001	3.57880E+000	9	...........
	81	1.09333	9.64559E-001	1.00754E-004	0.00000E+000	9.71834E-005	5.99601E-002	9.64933E-001	3.57880E+000	9	...........
	82	1.10667	9.69257E-001	1.01590E-004	0.00000E+000	9.84667E-005	5.99601E-002	9.69646E-001	3.57880E+000	9	...........
	83	1.12	9.73926E-001	1.00979E-004	0.00000E+000	9.83464E-005	5.99601E-002	9.74295E-001	3.57880E+000	9	...........
	84	1.13333	9.78462E-001	1.00953E-004	0.00000E+000	9.87789E-005	5.99601E-002	9.78813E-001	3.57880E+000	9	...........
	85	1.14667	9.82852E-001	1.00897E-004	0.00000E+000	9.91668E-005	5.99601E-002	9.83234E-001	3.57880E+000	9	...........
	86	1.16	9.87206E-001	1.01136E-004	0.00000E+000	9.98417E-005	5.99601E-002	9.87595E-001	3.57880E+000	9	...........
	87	1.17333	9.91440E-001	1.00863E-004	0.00000E+000	9.99993E-005	5.99601E-002	9.91816E-001	3.57880E+000	9	...........
	88	1.18667	9.95602E-001	1.01406E-004	0.00000E+000	1.00960E-004	5.99601E-002	9.95966E-001	3.57880E+000	9	...........
	89	1.19667	9.99184E-001	1.01037E-004	0.00000E+000	1.00955E-004	5.99601E-002	9.99514E-001	3.57880E+000	9	...........
STARTTIMEOFFSET	QUANT	1889.397	Start Time Offset (s)
