EXPLAIN
TAG	PWR800_CHARGE
TITLE	LABEL	PWR Cyclic Charge Discharge (Cell) - Charge Step	Test &Identifier
DATE	LABEL	13-7-2017	Date
TIME	LABEL	15:10:56	Time
NOTES	NOTES	2	&Notes...
	supercap test cell
	6M KOH
PSTAT	PSTAT	IFC5000-01520	Potentiostat
CAPACITY	QUANT	1.00000E-003	Capacity (A-hr)
CELLTYPE	SELECTOR	1	&Cell Type
WORKINGCONNECTION	SELECTOR	0	&Working Lead
MAXCHARGETIME	VARIABLEANDUNITS	1.00000E+002	s	1.00000E+002	second(s)	Max &Charge Time
CHARGECURRENT	QUANT	1.00000E-004	&Charge Current (A) 
VOLTAGEFINISH	TWOPARAM	F	1.00000E-003	3.60000E+003	&Voltage Finish	 I (A) < 	Max Time(s)
SAMPLETIME	QUANT	1.00000E-002	Sa&mple Period (s)
CHARGESTOPAT1	MULTIPARAM	4	1.00000E+000	Charge Stop At &1	Voltage > Limit	V
CHARGESTOPAT2	MULTIPARAM	0	0.00000E+000	Charge Stop At &2	None	N/A
AESBHCSELECTOR	TOGGLE	F	Save Both Half Cells
IRCOMP	TOGGLE	F	IR &Measure
EOC	QUANT	0	Open Circuit (V)
SEQUENCER	TOGGLE	TRUE	Run as Sequence
PSTATMODEL	IQUANT	53	Pstat Model
PSTATSECTION	LABEL	IFC5000-01520	Pstat Section
PSTATSERIALNO	LABEL	01520	Pstat Serial Number
CTRLMODE	IQUANT	0	Control Mode
ELECTROMETER	IQUANT	1	RE=0 or CS=1
IESTAB	IQUANT	0	I/E Stability
CASPEED	IQUANT	4	Control Amp Speed
CONVENTION	IQUANT	1	Current Convention
ICHRANGE	IQUANT	2	Ich Range
ICHRANGEMODE	TOGGLE	T	Ich Auto Range
ICHOFFSETENABLE	TOGGLE	F	Ich Offset Enable
ICHOFFSET	QUANT	0	Ich Offset (V)
ICHFILTER	IQUANT	1	Ich Filter
VCHRANGE	IQUANT	2	Vch Range
VCHRANGEMODE	TOGGLE	T	Vch Auto Range
VCHOFFSETENABLE	TOGGLE	F	Vch Offset Enable
VCHOFFSET	QUANT	0	Vch Offset (V)
VCHFILTER	IQUANT	1	Vch Filter
IERANGELOWERLIMIT	IQUANT	9	I/E Range Lower Limit
IERANGEMODE	TOGGLE	F	I/E AutoRange
IERANGE	IQUANT	9	I/E Range
ACHSELECT	IQUANT	1	Ach Select
ACHRANGE	IQUANT	2	Ach Range
ACHOFFSETENABLE	TOGGLE	F	Ach Offset Enable
ACHOFFSET	QUANT	0	Ach Offset (V)
ACHFILTER	IQUANT	1	Ach Filter
CABLEID	IQUANT	14	Cable ID
DCCALDATE	LABEL	5-7-2017	DC Calibration Date
ACCALDATE	LABEL	12/3/2015	AC Calibration Date
FRAMEWORKVERSION	QUANT	7.01	Framework Version
INSTRUMENTVERSION	LABEL	4.00	Instrument Version
CURVE	TABLE	97
	Pt	T	Vf	Im	Vu	Pwr	Sig	Ach	Temp	IERange	Over
	#	s	V	A	V	W	V	V	deg C	#	bits
	0	0.013333	1.31732E-001	1.01130E-004	0.00000E+000	1.33221E-005	5.99601E-002	1.31788E-001	3.57950E+000	9	...........
	1	0.026667	1.46973E-001	1.01130E-004	0.00000E+000	1.48634E-005	5.99601E-002	1.46998E-001	3.57950E+000	9	...........
	2	0.04	1.61765E-001	1.00569E-004	0.00000E+000	1.62686E-005	5.99601E-002	1.61794E-001	3.57950E+000	9	...........
	3	0.053333	1.76291E-001	1.00672E-004	0.00000E+000	1.77476E-005	5.99601E-002	1.76329E-001	3.57950E+000	9	...........
	4	0.066667	1.90620E-001	1.00495E-004	0.00000E+000	1.91563E-005	5.99601E-002	1.90654E-001	3.57950E+000	9	...........
	5	0.08	2.04803E-001	1.01202E-004	0.00000E+000	2.07265E-005	5.99601E-002	2.04839E-001	3.57950E+000	9	...........
	6	0.093333	2.18883E-001	1.01699E-004	0.00000E+000	2.22603E-005	5.99601E-002	2.18923E-001	3.57950E+000	9	...........
	7	0.106667	2.32888E-001	9.95540E-005	0.00000E+000	2.31849E-005	5.99601E-002	2.32927E-001	3.57950E+000	9	...........
	8	0.12	2.46831E-001	1.01533E-004	0.00000E+000	2.50614E-005	5.99601E-002	2.46881E-001	3.57950E+000	9	...........
	9	0.133333	2.60740E-001	1.00631E-004	0.00000E+000	2.62386E-005	5.99601E-002	2.60795E-001	3.57950E+000	9	...........
	10	0.146667	2.74632E-001	1.00846E-004	0.00000E+000	2.76955E-005	5.99601E-002	2.74687E-001	3.57950E+000	9	...........
	11	0.16	2.88504E-001	1.02161E-004	0.00000E+000	2.94738E-005	5.99601E-002	2.88564E-001	3.57950E+000	9	...........
	12	0.173333	3.02369E-001	1.00998E-004	0.00000E+000	3.05387E-005	5.99601E-002	3.02435E-001	3.57950E+000	9	...........
	13	0.186667	3.16235E-001	1.00428E-004	0.00000E+000	3.17589E-005	5.99601E-002	3.16302E-001	3.57950E+000	9	...........
	14	0.2	3.30098E-001	1.00673E-004	0.00000E+000	3.32319E-005	5.99601E-002	3.30166E-001	3.57950E+000	9	...........
	15	0.213333	3.43957E-001	1.00791E-004	0.00000E+000	3.46676E-005	5.99601E-002	3.44031E-001	3.57950E+000	9	...........
	16	0.226667	3.57812E-001	1.00794E-004	0.00000E+000	3.60653E-005	5.99601E-002	3.57885E-001	3.57950E+000	9	...........
	17	0.24	3.71660E-001	1.01087E-004	0.00000E+000	3.75699E-005	5.99601E-002	3.71727E-001	3.57950E+000	9	...........
	18	0.253333	3.85470E-001	1.00812E-004	0.00000E+000	3.88598E-005	5.99601E-002	3.85542E-001	3.57950E+000	9	...........
	19	0.266667	3.99235E-001	1.01335E-004	0.00000E+000	4.04563E-005	5.99601E-002	3.99316E-001	3.57950E+000	9	...........
	20	0.28	4.12949E-001	1.00648E-004	0.00000E+000	4.15625E-005	5.99601E-002	4.13036E-001	3.57950E+000	9	...........
	21	0.293333	4.26591E-001	1.00847E-004	0.00000E+000	4.30204E-005	5.99601E-002	4.26684E-001	3.57950E+000	9	...........
	22	0.306667	4.40140E-001	1.02246E-004	0.00000E+000	4.50027E-005	5.99601E-002	4.40231E-001	3.57950E+000	9	...........
	23	0.32	4.53574E-001	1.00526E-004	0.00000E+000	4.55960E-005	5.99601E-002	4.53666E-001	3.57950E+000	9	...........
	24	0.333333	4.66877E-001	1.00919E-004	0.00000E+000	4.71167E-005	5.99601E-002	4.66976E-001	3.57950E+000	9	...........
	25	0.346667	4.80032E-001	1.00439E-004	0.00000E+000	4.82137E-005	5.99601E-002	4.80135E-001	3.57950E+000	9	...........
	26	0.36	4.93018E-001	1.00995E-004	0.00000E+000	4.97923E-005	5.99601E-002	4.93127E-001	3.57950E+000	9	...........
	27	0.373333	5.05830E-001	1.00549E-004	0.00000E+000	5.08607E-005	5.99601E-002	5.05936E-001	3.57950E+000	9	...........
	28	0.386667	5.18446E-001	1.01491E-004	0.00000E+000	5.26175E-005	5.99601E-002	5.18560E-001	3.57950E+000	9	...........
	29	0.4	5.30757E-001	1.01182E-004	0.00000E+000	5.37033E-005	5.99601E-002	5.30918E-001	3.57950E+000	9	...........
	30	0.413333	5.42683E-001	1.00796E-004	0.00000E+000	5.47003E-005	5.99601E-002	5.42957E-001	3.57950E+000	9	...........
	31	0.426667	5.54663E-001	1.01554E-004	0.00000E+000	5.63284E-005	5.99601E-002	5.54959E-001	3.57950E+000	9	...........
	32	0.44	5.66467E-001	1.00151E-004	0.00000E+000	5.67322E-005	5.99601E-002	5.66742E-001	3.57950E+000	9	...........
	33	0.453333	5.78008E-001	1.00710E-004	0.00000E+000	5.82114E-005	5.99601E-002	5.78302E-001	3.57950E+000	9	...........
	34	0.466667	5.89318E-001	1.00421E-004	0.00000E+000	5.91798E-005	5.99601E-002	5.89636E-001	3.57950E+000	9	...........
	35	0.48	6.00426E-001	1.01075E-004	0.00000E+000	6.06881E-005	5.99601E-002	6.00733E-001	3.57950E+000	9	...........
	36	0.493333	6.11304E-001	1.00889E-004	0.00000E+000	6.16736E-005	5.99601E-002	6.11643E-001	3.57950E+000	9	...........
	37	0.506667	6.22024E-001	1.01449E-004	0.00000E+000	6.31038E-005	5.99601E-002	6.22318E-001	3.57950E+000	9	...........
	38	0.52	6.32466E-001	1.01707E-004	0.00000E+000	6.43260E-005	5.99601E-002	6.32742E-001	3.57950E+000	9	...........
	39	0.533333	6.42719E-001	1.01105E-004	0.00000E+000	6.49823E-005	5.99601E-002	6.43008E-001	3.57950E+000	9	...........
	40	0.546667	6.52758E-001	1.00697E-004	0.00000E+000	6.57307E-005	5.99601E-002	6.53039E-001	3.57950E+000	9	...........
	41	0.56	6.62599E-001	1.01092E-004	0.00000E+000	6.69833E-005	5.99601E-002	6.62883E-001	3.57950E+000	9	...........
	42	0.573333	6.72269E-001	1.01292E-004	0.00000E+000	6.80953E-005	5.99601E-002	6.72523E-001	3.57950E+000	9	...........
	43	0.586667	6.81698E-001	1.00059E-004	0.00000E+000	6.82103E-005	5.99601E-002	6.81977E-001	3.57950E+000	9	...........
	44	0.6	6.90972E-001	1.01439E-004	0.00000E+000	7.00913E-005	5.99601E-002	6.91223E-001	3.57950E+000	9	...........
	45	0.613333	7.00048E-001	1.00251E-004	0.00000E+000	7.01805E-005	5.99601E-002	7.00317E-001	3.57950E+000	9	...........
	46	0.626667	7.08951E-001	1.01319E-004	0.00000E+000	7.18302E-005	5.99601E-002	7.09216E-001	3.57950E+000	9	...........
	47	0.64	7.17700E-001	1.01379E-004	0.00000E+000	7.27600E-005	5.99601E-002	7.17958E-001	3.57950E+000	9	...........
	48	0.653333	7.26274E-001	1.01516E-004	0.00000E+000	7.37283E-005	5.99601E-002	7.26544E-001	3.57950E+000	9	...........
	49	0.666667	7.34667E-001	1.01568E-004	0.00000E+000	7.46186E-005	5.99601E-002	7.34945E-001	3.57950E+000	9	...........
	50	0.68	7.42927E-001	1.01193E-004	0.00000E+000	7.51789E-005	5.99601E-002	7.43193E-001	3.57950E+000	9	...........
	51	0.693333	7.51005E-001	1.00464E-004	0.00000E+000	7.54487E-005	5.99601E-002	7.51281E-001	3.57950E+000	9	...........
	52	0.706667	7.58944E-001	1.01938E-004	0.00000E+000	7.73651E-005	5.99601E-002	7.59200E-001	3.57950E+000	9	...........
	53	0.72	7.66714E-001	1.00612E-004	0.00000E+000	7.71402E-005	5.99601E-002	7.67010E-001	3.57950E+000	9	...........
	54	0.733333	7.74378E-001	1.00928E-004	0.00000E+000	7.81566E-005	5.99601E-002	7.74642E-001	3.57950E+000	9	...........
	55	0.746667	7.81872E-001	1.01234E-004	0.00000E+000	7.91516E-005	5.99601E-002	7.82142E-001	3.57950E+000	9	...........
	56	0.76	7.89229E-001	1.01747E-004	0.00000E+000	8.03019E-005	5.99601E-002	7.89510E-001	3.57950E+000	9	...........
	57	0.773333	7.96498E-001	1.00617E-004	0.00000E+000	8.01411E-005	5.99601E-002	7.96755E-001	3.57950E+000	9	...........
	58	0.786667	8.03567E-001	1.00925E-004	0.00000E+000	8.11001E-005	5.99601E-002	8.03847E-001	3.57950E+000	9	...........
	59	0.8	8.10524E-001	1.00380E-004	0.00000E+000	8.13605E-005	5.99601E-002	8.10852E-001	3.57950E+000	9	...........
	60	0.813333	8.17414E-001	1.00342E-004	0.00000E+000	8.20206E-005	5.99601E-002	8.17745E-001	3.57950E+000	9	...........
	61	0.826667	8.24175E-001	1.00943E-004	0.00000E+000	8.31945E-005	5.99601E-002	8.24512E-001	3.57950E+000	9	...........
	62	0.84	8.30767E-001	1.01375E-004	0.00000E+000	8.42192E-005	5.99601E-002	8.31115E-001	3.57950E+000	9	...........
	63	0.853333	8.37270E-001	1.00576E-004	0.00000E+000	8.42093E-005	5.99601E-002	8.37638E-001	3.57950E+000	9	...........
	64	0.866667	8.43700E-001	1.01264E-004	0.00000E+000	8.54362E-005	5.99601E-002	8.44043E-001	3.57950E+000	9	...........
	65	0.88	8.50011E-001	1.00540E-004	0.00000E+000	8.54597E-005	5.99601E-002	8.50361E-001	3.57950E+000	9	...........
	66	0.893333	8.56195E-001	1.00421E-004	0.00000E+000	8.59799E-005	5.99601E-002	8.56541E-001	3.57980E+000	9	...........
	67	0.906667	8.62270E-001	1.00484E-004	0.00000E+000	8.66447E-005	5.99601E-002	8.62638E-001	3.58010E+000	9	...........
	68	0.92	8.68260E-001	1.00978E-004	0.00000E+000	8.76754E-005	5.99601E-002	8.68656E-001	3.58010E+000	9	...........
	69	0.933333	8.74156E-001	1.00821E-004	0.00000E+000	8.81332E-005	5.99601E-002	8.74532E-001	3.58010E+000	9	...........
	70	0.946667	8.79937E-001	1.00361E-004	0.00000E+000	8.83117E-005	5.99601E-002	8.80309E-001	3.58010E+000	9	...........
	71	0.96	8.85635E-001	1.00784E-004	0.00000E+000	8.92582E-005	5.99601E-002	8.86004E-001	3.58010E+000	9	...........
	72	0.97333	8.91208E-001	1.00963E-004	0.00000E+000	8.99787E-005	5.99601E-002	8.91568E-001	3.58010E+000	9	...........
	73	0.98667	8.96722E-001	1.01584E-004	0.00000E+000	9.10922E-005	5.99601E-002	8.97074E-001	3.58010E+000	9	...........
	74	1	9.02120E-001	1.00353E-004	0.00000E+000	9.05305E-005	5.99601E-002	9.02475E-001	3.58010E+000	9	...........
	75	1.01333	9.07411E-001	1.00571E-004	0.00000E+000	9.12591E-005	5.99601E-002	9.07799E-001	3.58010E+000	9	...........
	76	1.02667	9.12654E-001	1.00903E-004	0.00000E+000	9.20897E-005	5.99601E-002	9.13023E-001	3.58010E+000	9	...........
	77	1.04	9.17782E-001	1.00704E-004	0.00000E+000	9.24245E-005	5.99601E-002	9.18169E-001	3.58010E+000	9	...........
	78	1.05333	9.22899E-001	1.01128E-004	0.00000E+000	9.33312E-005	5.99601E-002	9.23215E-001	3.58010E+000	9	...........
	79	1.06667	9.27837E-001	1.00986E-004	0.00000E+000	9.36981E-005	5.99601E-002	9.28177E-001	3.58010E+000	9	...........
	80	1.08	9.32686E-001	1.01241E-004	0.00000E+000	9.44259E-005	5.99601E-002	9.33057E-001	3.58010E+000	9	...........
	81	1.09333	9.37462E-001	1.01350E-004	0.00000E+000	9.50119E-005	5.99601E-002	9.37822E-001	3.58010E+000	9	...........
	82	1.10667	9.42153E-001	1.00830E-004	0.00000E+000	9.49976E-005	5.99601E-002	9.42506E-001	3.58010E+000	9	...........
	83	1.12	9.46786E-001	1.00355E-004	0.00000E+000	9.50149E-005	5.99601E-002	9.47134E-001	3.58010E+000	9	...........
	84	1.13333	9.51312E-001	1.01230E-004	0.00000E+000	9.63017E-005	5.99601E-002	9.51679E-001	3.58010E+000	9	...........
	85	1.14667	9.55753E-001	1.00725E-004	0.00000E+000	9.62683E-005	5.99601E-002	9.56113E-001	3.58010E+000	9	...........
	86	1.16	9.60105E-001	1.00765E-004	0.00000E+000	9.67447E-005	5.99601E-002	9.60480E-001	3.58010E+000	9	...........
	87	1.17333	9.64379E-001	9.98832E-005	0.00000E+000	9.63253E-005	5.99601E-002	9.64778E-001	3.58010E+000	9	...........
	88	1.18667	9.68568E-001	1.00847E-004	0.00000E+000	9.76772E-005	5.99601E-002	9.68975E-001	3.58010E+000	9	...........
	89	1.2	9.72708E-001	9.98113E-005	0.00000E+000	9.70873E-005	5.99601E-002	9.73101E-001	3.58010E+000	9	...........
	90	1.21333	9.76755E-001	1.01035E-004	0.00000E+000	9.86860E-005	5.99601E-002	9.77148E-001	3.58010E+000	9	...........
	91	1.22667	9.80714E-001	1.01038E-004	0.00000E+000	9.90890E-005	5.99601E-002	9.81091E-001	3.58010E+000	9	...........
	92	1.24	9.84583E-001	1.00422E-004	0.00000E+000	9.88737E-005	5.99601E-002	9.84964E-001	3.58010E+000	9	...........
	93	1.25333	9.88363E-001	1.00204E-004	0.00000E+000	9.90381E-005	5.99601E-002	9.88764E-001	3.58010E+000	9	...........
	94	1.26667	9.92081E-001	1.00157E-004	0.00000E+000	9.93641E-005	5.99601E-002	9.92481E-001	3.58010E+000	9	...........
	95	1.28	9.95718E-001	1.01295E-004	0.00000E+000	1.00861E-004	5.99601E-002	9.96132E-001	3.58010E+000	9	...........
	96	1.29167	9.99083E-001	1.00864E-004	0.00000E+000	1.00771E-004	5.99601E-002	9.99497E-001	3.58010E+000	9	...........
STARTTIMEOFFSET	QUANT	401.3116	Start Time Offset (s)
