EXPLAIN
TAG	PWR800_CHARGE
TITLE	LABEL	PWR Cyclic Charge Discharge (Cell) - Charge Step	Test &Identifier
DATE	LABEL	13-7-2017	Date
TIME	LABEL	15:31:47	Time
NOTES	NOTES	2	&Notes...
	supercap test cell
	6M KOH
PSTAT	PSTAT	IFC5000-01520	Potentiostat
CAPACITY	QUANT	1.00000E-003	Capacity (A-hr)
CELLTYPE	SELECTOR	1	&Cell Type
WORKINGCONNECTION	SELECTOR	0	&Working Lead
MAXCHARGETIME	VARIABLEANDUNITS	1.00000E+002	s	1.00000E+002	second(s)	Max &Charge Time
CHARGECURRENT	QUANT	1.00000E-004	&Charge Current (A) 
VOLTAGEFINISH	TWOPARAM	F	1.00000E-003	3.60000E+003	&Voltage Finish	 I (A) < 	Max Time(s)
SAMPLETIME	QUANT	1.00000E-002	Sa&mple Period (s)
CHARGESTOPAT1	MULTIPARAM	4	1.00000E+000	Charge Stop At &1	Voltage > Limit	V
CHARGESTOPAT2	MULTIPARAM	0	0.00000E+000	Charge Stop At &2	None	N/A
AESBHCSELECTOR	TOGGLE	F	Save Both Half Cells
IRCOMP	TOGGLE	F	IR &Measure
EOC	QUANT	0	Open Circuit (V)
SEQUENCER	TOGGLE	TRUE	Run as Sequence
PSTATMODEL	IQUANT	53	Pstat Model
PSTATSECTION	LABEL	IFC5000-01520	Pstat Section
PSTATSERIALNO	LABEL	01520	Pstat Serial Number
CTRLMODE	IQUANT	0	Control Mode
ELECTROMETER	IQUANT	1	RE=0 or CS=1
IESTAB	IQUANT	0	I/E Stability
CASPEED	IQUANT	4	Control Amp Speed
CONVENTION	IQUANT	1	Current Convention
ICHRANGE	IQUANT	2	Ich Range
ICHRANGEMODE	TOGGLE	T	Ich Auto Range
ICHOFFSETENABLE	TOGGLE	F	Ich Offset Enable
ICHOFFSET	QUANT	0	Ich Offset (V)
ICHFILTER	IQUANT	1	Ich Filter
VCHRANGE	IQUANT	2	Vch Range
VCHRANGEMODE	TOGGLE	T	Vch Auto Range
VCHOFFSETENABLE	TOGGLE	F	Vch Offset Enable
VCHOFFSET	QUANT	0	Vch Offset (V)
VCHFILTER	IQUANT	1	Vch Filter
IERANGELOWERLIMIT	IQUANT	9	I/E Range Lower Limit
IERANGEMODE	TOGGLE	F	I/E AutoRange
IERANGE	IQUANT	9	I/E Range
ACHSELECT	IQUANT	1	Ach Select
ACHRANGE	IQUANT	2	Ach Range
ACHOFFSETENABLE	TOGGLE	F	Ach Offset Enable
ACHOFFSET	QUANT	0	Ach Offset (V)
ACHFILTER	IQUANT	1	Ach Filter
CABLEID	IQUANT	14	Cable ID
DCCALDATE	LABEL	5-7-2017	DC Calibration Date
ACCALDATE	LABEL	12/3/2015	AC Calibration Date
FRAMEWORKVERSION	QUANT	7.01	Framework Version
INSTRUMENTVERSION	LABEL	4.00	Instrument Version
CURVE	TABLE	92
	Pt	T	Vf	Im	Vu	Pwr	Sig	Ach	Temp	IERange	Over
	#	s	V	A	V	W	V	V	deg C	#	bits
	0	0.013333	1.33419E-001	1.00557E-004	0.00000E+000	1.34163E-005	5.99601E-002	1.33464E-001	3.57860E+000	9	...........
	1	0.026667	1.48693E-001	1.00961E-004	0.00000E+000	1.50121E-005	5.99601E-002	1.48710E-001	3.57860E+000	9	...........
	2	0.04	1.63517E-001	1.01053E-004	0.00000E+000	1.65239E-005	5.99601E-002	1.63540E-001	3.57860E+000	9	...........
	3	0.053333	1.78073E-001	1.00705E-004	0.00000E+000	1.79329E-005	5.99601E-002	1.78104E-001	3.57860E+000	9	...........
	4	0.066667	1.92444E-001	1.00290E-004	0.00000E+000	1.93001E-005	5.99601E-002	1.92472E-001	3.57860E+000	9	...........
	5	0.08	2.06667E-001	1.00203E-004	0.00000E+000	2.07087E-005	5.99601E-002	2.06699E-001	3.57860E+000	9	...........
	6	0.093333	2.20797E-001	1.00457E-004	0.00000E+000	2.21807E-005	5.99601E-002	2.20829E-001	3.57860E+000	9	...........
	7	0.106667	2.34853E-001	1.00706E-004	0.00000E+000	2.36512E-005	5.99601E-002	2.34887E-001	3.57860E+000	9	...........
	8	0.12	2.48861E-001	1.00694E-004	0.00000E+000	2.50588E-005	5.99601E-002	2.48901E-001	3.57860E+000	9	...........
	9	0.133333	2.62839E-001	1.00763E-004	0.00000E+000	2.64843E-005	5.99601E-002	2.62888E-001	3.57860E+000	9	...........
	10	0.146667	2.76808E-001	1.01748E-004	0.00000E+000	2.81647E-005	5.99601E-002	2.76860E-001	3.57860E+000	9	...........
	11	0.16	2.90777E-001	1.00403E-004	0.00000E+000	2.91949E-005	5.99601E-002	2.90828E-001	3.57860E+000	9	...........
	12	0.173333	3.04758E-001	1.01190E-004	0.00000E+000	3.08384E-005	5.99601E-002	3.04812E-001	3.57860E+000	9	...........
	13	0.186667	3.18751E-001	1.01702E-004	0.00000E+000	3.24177E-005	5.99601E-002	3.18815E-001	3.57860E+000	9	...........
	14	0.2	3.32761E-001	1.00841E-004	0.00000E+000	3.35559E-005	5.99601E-002	3.32823E-001	3.57860E+000	9	...........
	15	0.213333	3.46798E-001	9.99708E-005	0.00000E+000	3.46697E-005	5.99601E-002	3.46860E-001	3.57860E+000	9	...........
	16	0.226667	3.60845E-001	1.00125E-004	0.00000E+000	3.61296E-005	5.99601E-002	3.60918E-001	3.57860E+000	9	...........
	17	0.24	3.74906E-001	1.01097E-004	0.00000E+000	3.79019E-005	5.99601E-002	3.74973E-001	3.57860E+000	9	...........
	18	0.253333	3.88964E-001	1.01429E-004	0.00000E+000	3.94524E-005	5.99601E-002	3.89036E-001	3.57860E+000	9	...........
	19	0.266667	4.03010E-001	1.01052E-004	0.00000E+000	4.07251E-005	5.99601E-002	4.03089E-001	3.57860E+000	9	...........
	20	0.28	4.17026E-001	1.00542E-004	0.00000E+000	4.19286E-005	5.99601E-002	4.17110E-001	3.57860E+000	9	...........
	21	0.293333	4.30994E-001	1.01142E-004	0.00000E+000	4.35915E-005	5.99601E-002	4.31082E-001	3.57860E+000	9	...........
	22	0.306667	4.44888E-001	1.00877E-004	0.00000E+000	4.48790E-005	5.99601E-002	4.44978E-001	3.57860E+000	9	...........
	23	0.32	4.58694E-001	1.00827E-004	0.00000E+000	4.62488E-005	5.99601E-002	4.58786E-001	3.57860E+000	9	...........
	24	0.333333	4.72388E-001	1.01728E-004	0.00000E+000	4.80553E-005	5.99601E-002	4.72485E-001	3.57860E+000	9	...........
	25	0.346667	4.85945E-001	1.01332E-004	0.00000E+000	4.92421E-005	5.99601E-002	4.86043E-001	3.57860E+000	9	...........
	26	0.36	4.99350E-001	1.01143E-004	0.00000E+000	5.05057E-005	5.99601E-002	4.99452E-001	3.57860E+000	9	...........
	27	0.373333	5.12578E-001	1.01176E-004	0.00000E+000	5.18607E-005	5.99601E-002	5.12682E-001	3.57860E+000	9	...........
	28	0.386667	5.25617E-001	1.00691E-004	0.00000E+000	5.29247E-005	5.99601E-002	5.25729E-001	3.57860E+000	9	...........
	29	0.4	5.38185E-001	1.01529E-004	0.00000E+000	5.46416E-005	5.99601E-002	5.38360E-001	3.57860E+000	9	...........
	30	0.413333	5.50725E-001	1.00850E-004	0.00000E+000	5.55407E-005	5.99601E-002	5.50975E-001	3.57860E+000	9	...........
	31	0.426667	5.63165E-001	1.00504E-004	0.00000E+000	5.66004E-005	5.99601E-002	5.63447E-001	3.57860E+000	9	...........
	32	0.44	5.75354E-001	1.00889E-004	0.00000E+000	5.80467E-005	5.99601E-002	5.75631E-001	3.57860E+000	9	...........
	33	0.453333	5.87306E-001	1.00773E-004	0.00000E+000	5.91846E-005	5.99601E-002	5.87616E-001	3.57860E+000	9	...........
	34	0.466667	5.99060E-001	1.01601E-004	0.00000E+000	6.08653E-005	5.99601E-002	5.99356E-001	3.57860E+000	9	...........
	35	0.48	6.10567E-001	1.00951E-004	0.00000E+000	6.16375E-005	5.99601E-002	6.10874E-001	3.57860E+000	9	...........
	36	0.493333	6.21891E-001	1.01406E-004	0.00000E+000	6.30638E-005	5.99601E-002	6.22172E-001	3.57860E+000	9	...........
	37	0.506667	6.32922E-001	1.00980E-004	0.00000E+000	6.39126E-005	5.99601E-002	6.33231E-001	3.57860E+000	9	...........
	38	0.52	6.43789E-001	1.00458E-004	0.00000E+000	6.46740E-005	5.99601E-002	6.44097E-001	3.57860E+000	9	...........
	39	0.533333	6.54402E-001	1.00460E-004	0.00000E+000	6.57415E-005	5.99601E-002	6.54696E-001	3.57860E+000	9	...........
	40	0.546667	6.64831E-001	1.01110E-004	0.00000E+000	6.72207E-005	5.99601E-002	6.65135E-001	3.57860E+000	9	...........
	41	0.56	6.75037E-001	1.00617E-004	0.00000E+000	6.79200E-005	5.99601E-002	6.75317E-001	3.57860E+000	9	...........
	42	0.573333	6.85020E-001	1.00094E-004	0.00000E+000	6.85661E-005	5.99601E-002	6.85269E-001	3.57860E+000	9	...........
	43	0.586667	6.94832E-001	1.01182E-004	0.00000E+000	7.03048E-005	5.99601E-002	6.95100E-001	3.57860E+000	9	...........
	44	0.6	7.04428E-001	1.00865E-004	0.00000E+000	7.10519E-005	5.99601E-002	7.04688E-001	3.57860E+000	9	...........
	45	0.613333	7.13830E-001	1.01579E-004	0.00000E+000	7.25105E-005	5.99601E-002	7.14086E-001	3.57860E+000	9	...........
	46	0.626667	7.23085E-001	1.00035E-004	0.00000E+000	7.23341E-005	5.99601E-002	7.23331E-001	3.57860E+000	9	...........
	47	0.64	7.32123E-001	1.01185E-004	0.00000E+000	7.40796E-005	5.99601E-002	7.32365E-001	3.57991E+000	9	...........
	48	0.653333	7.40994E-001	1.01930E-004	0.00000E+000	7.55292E-005	5.99601E-002	7.41250E-001	3.58210E+000	9	...........
	49	0.666667	7.49720E-001	1.00674E-004	0.00000E+000	7.54773E-005	5.99601E-002	7.49949E-001	3.58210E+000	9	...........
	50	0.68	7.58244E-001	9.99520E-005	0.00000E+000	7.57880E-005	5.99601E-002	7.58487E-001	3.58210E+000	9	...........
	51	0.693333	7.66600E-001	1.01140E-004	0.00000E+000	7.75337E-005	5.99601E-002	7.66871E-001	3.58210E+000	9	...........
	52	0.706667	7.74804E-001	1.00602E-004	0.00000E+000	7.79469E-005	5.99601E-002	7.75079E-001	3.58210E+000	9	...........
	53	0.72	7.82860E-001	1.00894E-004	0.00000E+000	7.89857E-005	5.99601E-002	7.83144E-001	3.58210E+000	9	...........
	54	0.733333	7.90762E-001	1.00824E-004	0.00000E+000	7.97279E-005	5.99601E-002	7.91057E-001	3.58210E+000	9	...........
	55	0.746667	7.98530E-001	1.00569E-004	0.00000E+000	8.03072E-005	5.99601E-002	7.98795E-001	3.58210E+000	9	...........
	56	0.76	8.06114E-001	1.00490E-004	0.00000E+000	8.10061E-005	5.99601E-002	8.06425E-001	3.58210E+000	9	...........
	57	0.773333	8.13571E-001	1.01156E-004	0.00000E+000	8.22979E-005	5.99601E-002	8.13885E-001	3.58210E+000	9	...........
	58	0.786667	8.20934E-001	1.00829E-004	0.00000E+000	8.27741E-005	5.99601E-002	8.21245E-001	3.58210E+000	9	...........
	59	0.8	8.28115E-001	1.01060E-004	0.00000E+000	8.36889E-005	5.99601E-002	8.28451E-001	3.58210E+000	9	...........
	60	0.813333	8.35181E-001	1.00103E-004	0.00000E+000	8.36042E-005	5.99601E-002	8.35531E-001	3.58210E+000	9	...........
	61	0.826667	8.42131E-001	1.01204E-004	0.00000E+000	8.52274E-005	5.99601E-002	8.42459E-001	3.58210E+000	9	...........
	62	0.84	8.48973E-001	1.00692E-004	0.00000E+000	8.54845E-005	5.99601E-002	8.49318E-001	3.58210E+000	9	...........
	63	0.853333	8.55674E-001	9.99739E-005	0.00000E+000	8.55450E-005	5.99601E-002	8.56021E-001	3.58210E+000	9	...........
	64	0.866667	8.62263E-001	1.00070E-004	0.00000E+000	8.62864E-005	5.99601E-002	8.62648E-001	3.58210E+000	9	...........
	65	0.88	8.68738E-001	1.00382E-004	0.00000E+000	8.72059E-005	5.99601E-002	8.69106E-001	3.58210E+000	9	...........
	66	0.893333	8.75104E-001	1.00802E-004	0.00000E+000	8.82123E-005	5.99601E-002	8.75467E-001	3.58210E+000	9	...........
	67	0.906667	8.81350E-001	1.00086E-004	0.00000E+000	8.82111E-005	5.99601E-002	8.81707E-001	3.58210E+000	9	...........
	68	0.92	8.87476E-001	1.00396E-004	0.00000E+000	8.90989E-005	5.99601E-002	8.87843E-001	3.58210E+000	9	...........
	69	0.933333	8.93500E-001	1.00985E-004	0.00000E+000	9.02297E-005	5.99601E-002	8.93878E-001	3.58210E+000	9	...........
	70	0.946667	8.99426E-001	1.01147E-004	0.00000E+000	9.09743E-005	5.99601E-002	8.99797E-001	3.58210E+000	9	...........
	71	0.96	9.05245E-001	1.01486E-004	0.00000E+000	9.18694E-005	5.99601E-002	9.05615E-001	3.58210E+000	9	...........
	72	0.97333	9.10967E-001	1.01396E-004	0.00000E+000	9.23684E-005	5.99601E-002	9.11327E-001	3.58210E+000	9	...........
	73	0.98667	9.16554E-001	1.01430E-004	0.00000E+000	9.29665E-005	5.99601E-002	9.16925E-001	3.58210E+000	9	...........
	74	1	9.22113E-001	9.99145E-005	0.00000E+000	9.21325E-005	5.99601E-002	9.22418E-001	3.58210E+000	9	...........
	75	1.01333	9.27500E-001	1.01446E-004	0.00000E+000	9.40913E-005	5.99601E-002	9.27835E-001	3.58210E+000	9	...........
	76	1.02667	9.32826E-001	1.00312E-004	0.00000E+000	9.35741E-005	5.99601E-002	9.33123E-001	3.58210E+000	9	...........
	77	1.04	9.38003E-001	1.01065E-004	0.00000E+000	9.47990E-005	5.99601E-002	9.38361E-001	3.58210E+000	9	...........
	78	1.05333	9.43099E-001	1.01065E-004	0.00000E+000	9.53140E-005	5.99601E-002	9.43448E-001	3.58210E+000	9	...........
	79	1.06667	9.48146E-001	1.01342E-004	0.00000E+000	9.60869E-005	5.99601E-002	9.48496E-001	3.58210E+000	9	...........
	80	1.08	9.53046E-001	1.00951E-004	0.00000E+000	9.62111E-005	5.99601E-002	9.53413E-001	3.58210E+000	9	...........
	81	1.09333	9.57857E-001	1.01298E-004	0.00000E+000	9.70291E-005	5.99601E-002	9.58233E-001	3.58210E+000	9	...........
	82	1.10667	9.62592E-001	1.01193E-004	0.00000E+000	9.74075E-005	5.99601E-002	9.62951E-001	3.58210E+000	9	...........
	83	1.12	9.67204E-001	1.00460E-004	0.00000E+000	9.71657E-005	5.99601E-002	9.67580E-001	3.58210E+000	9	...........
	84	1.13333	9.71743E-001	9.98655E-005	0.00000E+000	9.70436E-005	5.99601E-002	9.72113E-001	3.58210E+000	9	...........
	85	1.14667	9.76225E-001	1.00533E-004	0.00000E+000	9.81432E-005	5.99601E-002	9.76570E-001	3.58210E+000	9	...........
	86	1.16	9.80568E-001	1.00905E-004	0.00000E+000	9.89445E-005	5.99601E-002	9.80930E-001	3.58210E+000	9	...........
	87	1.17333	9.84834E-001	1.00495E-004	0.00000E+000	9.89707E-005	5.99601E-002	9.85206E-001	3.58210E+000	9	...........
	88	1.18667	9.89024E-001	1.00538E-004	0.00000E+000	9.94341E-005	5.99601E-002	9.89391E-001	3.58210E+000	9	...........
	89	1.2	9.93082E-001	1.00223E-004	0.00000E+000	9.95296E-005	5.99601E-002	9.93469E-001	3.58210E+000	9	...........
	90	1.21333	9.97102E-001	1.01244E-004	0.00000E+000	1.00951E-004	5.99601E-002	9.97490E-001	3.58210E+000	9	...........
	91	1.21833	9.99823E-001	1.00631E-004	0.00000E+000	1.00613E-004	5.99601E-002	1.00021E+000	3.58210E+000	9	...........
STARTTIMEOFFSET	QUANT	1347.071	Start Time Offset (s)
