EXPLAIN
TAG	PWR800_CHARGE
TITLE	LABEL	PWR Cyclic Charge Discharge (Cell) - Charge Step	Test &Identifier
DATE	LABEL	13-7-2017	Date
TIME	LABEL	15:42:41	Time
NOTES	NOTES	2	&Notes...
	supercap test cell
	6M KOH
PSTAT	PSTAT	IFC5000-01520	Potentiostat
CAPACITY	QUANT	1.00000E-003	Capacity (A-hr)
CELLTYPE	SELECTOR	1	&Cell Type
WORKINGCONNECTION	SELECTOR	0	&Working Lead
MAXCHARGETIME	VARIABLEANDUNITS	1.00000E+002	s	1.00000E+002	second(s)	Max &Charge Time
CHARGECURRENT	QUANT	1.00000E-004	&Charge Current (A) 
VOLTAGEFINISH	TWOPARAM	F	1.00000E-003	3.60000E+003	&Voltage Finish	 I (A) < 	Max Time(s)
SAMPLETIME	QUANT	1.00000E-002	Sa&mple Period (s)
CHARGESTOPAT1	MULTIPARAM	4	1.00000E+000	Charge Stop At &1	Voltage > Limit	V
CHARGESTOPAT2	MULTIPARAM	0	0.00000E+000	Charge Stop At &2	None	N/A
AESBHCSELECTOR	TOGGLE	F	Save Both Half Cells
IRCOMP	TOGGLE	F	IR &Measure
EOC	QUANT	0	Open Circuit (V)
SEQUENCER	TOGGLE	TRUE	Run as Sequence
PSTATMODEL	IQUANT	53	Pstat Model
PSTATSECTION	LABEL	IFC5000-01520	Pstat Section
PSTATSERIALNO	LABEL	01520	Pstat Serial Number
CTRLMODE	IQUANT	0	Control Mode
ELECTROMETER	IQUANT	1	RE=0 or CS=1
IESTAB	IQUANT	0	I/E Stability
CASPEED	IQUANT	4	Control Amp Speed
CONVENTION	IQUANT	1	Current Convention
ICHRANGE	IQUANT	2	Ich Range
ICHRANGEMODE	TOGGLE	T	Ich Auto Range
ICHOFFSETENABLE	TOGGLE	F	Ich Offset Enable
ICHOFFSET	QUANT	0	Ich Offset (V)
ICHFILTER	IQUANT	1	Ich Filter
VCHRANGE	IQUANT	2	Vch Range
VCHRANGEMODE	TOGGLE	T	Vch Auto Range
VCHOFFSETENABLE	TOGGLE	F	Vch Offset Enable
VCHOFFSET	QUANT	0	Vch Offset (V)
VCHFILTER	IQUANT	1	Vch Filter
IERANGELOWERLIMIT	IQUANT	9	I/E Range Lower Limit
IERANGEMODE	TOGGLE	F	I/E AutoRange
IERANGE	IQUANT	9	I/E Range
ACHSELECT	IQUANT	1	Ach Select
ACHRANGE	IQUANT	2	Ach Range
ACHOFFSETENABLE	TOGGLE	F	Ach Offset Enable
ACHOFFSET	QUANT	0	Ach Offset (V)
ACHFILTER	IQUANT	1	Ach Filter
CABLEID	IQUANT	14	Cable ID
DCCALDATE	LABEL	5-7-2017	DC Calibration Date
ACCALDATE	LABEL	12/3/2015	AC Calibration Date
FRAMEWORKVERSION	QUANT	7.01	Framework Version
INSTRUMENTVERSION	LABEL	4.00	Instrument Version
CURVE	TABLE	90
	Pt	T	Vf	Im	Vu	Pwr	Sig	Ach	Temp	IERange	Over
	#	s	V	A	V	W	V	V	deg C	#	bits
	0	0.013333	1.33775E-001	1.00576E-004	0.00000E+000	1.34545E-005	5.99601E-002	1.33817E-001	3.57900E+000	9	...........
	1	0.026667	1.49011E-001	1.00436E-004	0.00000E+000	1.49661E-005	5.99601E-002	1.49029E-001	3.57900E+000	9	...........
	2	0.04	1.63806E-001	1.00373E-004	0.00000E+000	1.64416E-005	5.99601E-002	1.63831E-001	3.57900E+000	9	...........
	3	0.053333	1.78332E-001	1.01340E-004	0.00000E+000	1.80722E-005	5.99601E-002	1.78365E-001	3.57900E+000	9	...........
	4	0.066667	1.92666E-001	1.00331E-004	0.00000E+000	1.93304E-005	5.99601E-002	1.92704E-001	3.57900E+000	9	...........
	5	0.08	2.06867E-001	1.02214E-004	0.00000E+000	2.11447E-005	5.99601E-002	2.06903E-001	3.57900E+000	9	...........
	6	0.093333	2.20960E-001	1.01020E-004	0.00000E+000	2.23213E-005	5.99601E-002	2.20993E-001	3.57900E+000	9	...........
	7	0.106667	2.34981E-001	1.00924E-004	0.00000E+000	2.37152E-005	5.99601E-002	2.35028E-001	3.57900E+000	9	...........
	8	0.12	2.48962E-001	1.01607E-004	0.00000E+000	2.52962E-005	5.99601E-002	2.49009E-001	3.57900E+000	9	...........
	9	0.133333	2.62916E-001	1.01521E-004	0.00000E+000	2.66915E-005	5.99601E-002	2.62969E-001	3.57900E+000	9	...........
	10	0.146667	2.76865E-001	1.00824E-004	0.00000E+000	2.79146E-005	5.99601E-002	2.76917E-001	3.57900E+000	9	...........
	11	0.16	2.90817E-001	1.00315E-004	0.00000E+000	2.91732E-005	5.99601E-002	2.90872E-001	3.57900E+000	9	...........
	12	0.173333	3.04779E-001	1.01078E-004	0.00000E+000	3.08065E-005	5.99601E-002	3.04842E-001	3.57900E+000	9	...........
	13	0.186667	3.18771E-001	1.01274E-004	0.00000E+000	3.22833E-005	5.99601E-002	3.18832E-001	3.57900E+000	9	...........
	14	0.2	3.32783E-001	1.00640E-004	0.00000E+000	3.34911E-005	5.99601E-002	3.32845E-001	3.57900E+000	9	...........
	15	0.213333	3.46828E-001	1.00390E-004	0.00000E+000	3.48180E-005	5.99601E-002	3.46888E-001	3.57900E+000	9	...........
	16	0.226667	3.60896E-001	1.01200E-004	0.00000E+000	3.65228E-005	5.99601E-002	3.60965E-001	3.57900E+000	9	...........
	17	0.24	3.74984E-001	1.01038E-004	0.00000E+000	3.78875E-005	5.99601E-002	3.75050E-001	3.57900E+000	9	...........
	18	0.253333	3.89089E-001	1.01018E-004	0.00000E+000	3.93049E-005	5.99601E-002	3.89157E-001	3.57900E+000	9	...........
	19	0.266667	4.03191E-001	1.00811E-004	0.00000E+000	4.06459E-005	5.99601E-002	4.03257E-001	3.57900E+000	9	...........
	20	0.28	4.17270E-001	1.00754E-004	0.00000E+000	4.20418E-005	5.99601E-002	4.17353E-001	3.57900E+000	9	...........
	21	0.293333	4.31321E-001	1.00373E-004	0.00000E+000	4.32929E-005	5.99601E-002	4.31407E-001	3.57900E+000	9	...........
	22	0.306667	4.45315E-001	1.00029E-004	0.00000E+000	4.45445E-005	5.99601E-002	4.45396E-001	3.57900E+000	9	...........
	23	0.32	4.59228E-001	1.01364E-004	0.00000E+000	4.65491E-005	5.99601E-002	4.59318E-001	3.57900E+000	9	...........
	24	0.333333	4.73044E-001	1.00725E-004	0.00000E+000	4.76474E-005	5.99601E-002	4.73133E-001	3.57900E+000	9	...........
	25	0.346667	4.86732E-001	1.01230E-004	0.00000E+000	4.92721E-005	5.99601E-002	4.86833E-001	3.57900E+000	9	...........
	26	0.36	5.00280E-001	1.00965E-004	0.00000E+000	5.05107E-005	5.99601E-002	5.00387E-001	3.57900E+000	9	...........
	27	0.373333	5.13666E-001	1.00998E-004	0.00000E+000	5.18793E-005	5.99601E-002	5.13769E-001	3.57900E+000	9	...........
	28	0.386667	5.26869E-001	1.00733E-004	0.00000E+000	5.30733E-005	5.99601E-002	5.26977E-001	3.57900E+000	9	...........
	29	0.4	5.39578E-001	1.02226E-004	0.00000E+000	5.51591E-005	5.99601E-002	5.39745E-001	3.57900E+000	9	...........
	30	0.413333	5.52331E-001	1.00681E-004	0.00000E+000	5.56094E-005	5.99601E-002	5.52560E-001	3.57900E+000	9	...........
	31	0.426667	5.64924E-001	9.97676E-005	0.00000E+000	5.63611E-005	5.99601E-002	5.65153E-001	3.57900E+000	9	...........
	32	0.44	5.77277E-001	1.00696E-004	0.00000E+000	5.81295E-005	5.99601E-002	5.77520E-001	3.57900E+000	9	...........
	33	0.453333	5.89434E-001	1.00850E-004	0.00000E+000	5.94445E-005	5.99601E-002	5.89696E-001	3.57900E+000	9	...........
	34	0.466667	6.01320E-001	1.00745E-004	0.00000E+000	6.05799E-005	5.99601E-002	6.01606E-001	3.57900E+000	9	...........
	35	0.48	6.13008E-001	1.01340E-004	0.00000E+000	6.21221E-005	5.99601E-002	6.13279E-001	3.57900E+000	9	...........
	36	0.493333	6.24490E-001	1.00601E-004	0.00000E+000	6.28244E-005	5.99601E-002	6.24734E-001	3.57900E+000	9	...........
	37	0.506667	6.35718E-001	9.99968E-005	0.00000E+000	6.35697E-005	5.99601E-002	6.35969E-001	3.57900E+000	9	...........
	38	0.52	6.46727E-001	1.00862E-004	0.00000E+000	6.52299E-005	5.99601E-002	6.46968E-001	3.57900E+000	9	...........
	39	0.533333	6.57517E-001	1.00635E-004	0.00000E+000	6.61695E-005	5.99601E-002	6.57757E-001	3.57900E+000	9	...........
	40	0.546667	6.68063E-001	1.00724E-004	0.00000E+000	6.72900E-005	5.99601E-002	6.68339E-001	3.57900E+000	9	...........
	41	0.56	6.78447E-001	1.00937E-004	0.00000E+000	6.84801E-005	5.99601E-002	6.78697E-001	3.57900E+000	9	...........
	42	0.573333	6.88570E-001	1.01764E-004	0.00000E+000	7.00715E-005	5.99601E-002	6.88843E-001	3.57900E+000	9	...........
	43	0.586667	6.98510E-001	1.01088E-004	0.00000E+000	7.06107E-005	5.99601E-002	6.98793E-001	3.57900E+000	9	...........
	44	0.6	7.08238E-001	1.00873E-004	0.00000E+000	7.14421E-005	5.99601E-002	7.08544E-001	3.57900E+000	9	...........
	45	0.613333	7.17812E-001	1.00409E-004	0.00000E+000	7.20750E-005	5.99601E-002	7.18125E-001	3.57900E+000	9	...........
	46	0.626667	7.27184E-001	1.01597E-004	0.00000E+000	7.38798E-005	5.99601E-002	7.27495E-001	3.57900E+000	9	...........
	47	0.64	7.36337E-001	1.00832E-004	0.00000E+000	7.42467E-005	5.99601E-002	7.36654E-001	3.57900E+000	9	...........
	48	0.653333	7.45346E-001	1.00054E-004	0.00000E+000	7.45749E-005	5.99601E-002	7.45646E-001	3.57900E+000	9	...........
	49	0.666667	7.54189E-001	1.01029E-004	0.00000E+000	7.61952E-005	5.99601E-002	7.54465E-001	3.57900E+000	9	...........
	50	0.68	7.62820E-001	1.01492E-004	0.00000E+000	7.74200E-005	5.99601E-002	7.63137E-001	3.57900E+000	9	...........
	51	0.693333	7.71309E-001	1.00770E-004	0.00000E+000	7.77247E-005	5.99601E-002	7.71627E-001	3.57900E+000	9	...........
	52	0.706667	7.79633E-001	1.00175E-004	0.00000E+000	7.80997E-005	5.99601E-002	7.79961E-001	3.57900E+000	9	...........
	53	0.72	7.87784E-001	1.01018E-004	0.00000E+000	7.95802E-005	5.99601E-002	7.88106E-001	3.57900E+000	9	...........
	54	0.733333	7.95827E-001	1.01169E-004	0.00000E+000	8.05129E-005	5.99601E-002	7.96118E-001	3.57900E+000	9	...........
	55	0.746667	8.03667E-001	1.00734E-004	0.00000E+000	8.09570E-005	5.99601E-002	8.03965E-001	3.57900E+000	9	...........
	56	0.76	8.11360E-001	1.01160E-004	0.00000E+000	8.20768E-005	5.99601E-002	8.11682E-001	3.57900E+000	9	...........
	57	0.773333	8.18929E-001	1.01099E-004	0.00000E+000	8.27930E-005	5.99601E-002	8.19247E-001	3.57900E+000	9	...........
	58	0.786667	8.26361E-001	1.01559E-004	0.00000E+000	8.39240E-005	5.99601E-002	8.26691E-001	3.57900E+000	9	...........
	59	0.8	8.33643E-001	1.00227E-004	0.00000E+000	8.35536E-005	5.99601E-002	8.33970E-001	3.57900E+000	9	...........
	60	0.813333	8.40776E-001	1.00268E-004	0.00000E+000	8.43027E-005	5.99601E-002	8.41126E-001	3.57900E+000	9	...........
	61	0.826667	8.47851E-001	1.00891E-004	0.00000E+000	8.55403E-005	5.99601E-002	8.48207E-001	3.57900E+000	9	...........
	62	0.84	8.54730E-001	1.01219E-004	0.00000E+000	8.65148E-005	5.99601E-002	8.55077E-001	3.57900E+000	9	...........
	63	0.853333	8.61509E-001	1.01072E-004	0.00000E+000	8.70744E-005	5.99601E-002	8.61879E-001	3.57900E+000	9	...........
	64	0.866667	8.68175E-001	1.01303E-004	0.00000E+000	8.79490E-005	5.99601E-002	8.68541E-001	3.57900E+000	9	...........
	65	0.88	8.74736E-001	9.97936E-005	0.00000E+000	8.72931E-005	5.99601E-002	8.75094E-001	3.57900E+000	9	...........
	66	0.893333	8.81158E-001	1.00913E-004	0.00000E+000	8.89200E-005	5.99601E-002	8.81498E-001	3.57900E+000	9	...........
	67	0.906667	8.87463E-001	1.01881E-004	0.00000E+000	9.04152E-005	5.99601E-002	8.87812E-001	3.57900E+000	9	...........
	68	0.92	8.93650E-001	1.01632E-004	0.00000E+000	9.08231E-005	5.99601E-002	8.94015E-001	3.57900E+000	9	...........
	69	0.933333	8.99724E-001	1.01106E-004	0.00000E+000	9.09679E-005	5.99601E-002	9.00089E-001	3.57962E+000	9	...........
	70	0.946667	9.05685E-001	1.00741E-004	0.00000E+000	9.12393E-005	5.99601E-002	9.06050E-001	3.58000E+000	9	...........
	71	0.96	9.11541E-001	1.00720E-004	0.00000E+000	9.18103E-005	5.99601E-002	9.11908E-001	3.58000E+000	9	...........
	72	0.97333	9.17294E-001	1.00653E-004	0.00000E+000	9.23286E-005	5.99601E-002	9.17659E-001	3.58000E+000	9	...........
	73	0.98667	9.22993E-001	1.00354E-004	0.00000E+000	9.26261E-005	5.99601E-002	9.23320E-001	3.58000E+000	9	...........
	74	1	9.28501E-001	1.01039E-004	0.00000E+000	9.38145E-005	5.99601E-002	9.28858E-001	3.58000E+000	9	...........
	75	1.01333	9.33937E-001	1.01139E-004	0.00000E+000	9.44571E-005	5.99601E-002	9.34274E-001	3.58000E+000	9	...........
	76	1.02667	9.39254E-001	1.00659E-004	0.00000E+000	9.45447E-005	5.99601E-002	9.39625E-001	3.58000E+000	9	...........
	77	1.04	9.44479E-001	1.00633E-004	0.00000E+000	9.50462E-005	5.99601E-002	9.44814E-001	3.58000E+000	9	...........
	78	1.05333	9.49612E-001	1.00754E-004	0.00000E+000	9.56775E-005	5.99601E-002	9.49968E-001	3.58000E+000	9	...........
	79	1.06667	9.54641E-001	1.00930E-004	0.00000E+000	9.63522E-005	5.99601E-002	9.54963E-001	3.58000E+000	9	...........
	80	1.08	9.59541E-001	1.00265E-004	0.00000E+000	9.62080E-005	5.99601E-002	9.59874E-001	3.58000E+000	9	...........
	81	1.09333	9.64364E-001	1.00306E-004	0.00000E+000	9.67317E-005	5.99601E-002	9.64690E-001	3.58000E+000	9	...........
	82	1.10667	9.69061E-001	1.00992E-004	0.00000E+000	9.78672E-005	5.99601E-002	9.69428E-001	3.58000E+000	9	...........
	83	1.12	9.73748E-001	1.00827E-004	0.00000E+000	9.81802E-005	5.99601E-002	9.74085E-001	3.58000E+000	9	...........
	84	1.13333	9.78283E-001	1.01024E-004	0.00000E+000	9.88302E-005	5.99601E-002	9.78601E-001	3.58000E+000	9	...........
	85	1.14667	9.82717E-001	1.00804E-004	0.00000E+000	9.90621E-005	5.99601E-002	9.83045E-001	3.58000E+000	9	...........
	86	1.16	9.87060E-001	1.00674E-004	0.00000E+000	9.93713E-005	5.99601E-002	9.87389E-001	3.58000E+000	9	...........
	87	1.17333	9.91303E-001	1.00698E-004	0.00000E+000	9.98222E-005	5.99601E-002	9.91642E-001	3.58000E+000	9	...........
	88	1.18667	9.95433E-001	1.00575E-004	0.00000E+000	1.00116E-004	5.99601E-002	9.95814E-001	3.58000E+000	9	...........
	89	1.19667	9.99039E-001	1.00805E-004	0.00000E+000	1.00708E-004	5.99601E-002	9.99369E-001	3.58000E+000	9	...........
STARTTIMEOFFSET	QUANT	1837.885	Start Time Offset (s)
