EXPLAIN
TAG	PWR800_CHARGE
TITLE	LABEL	PWR Cyclic Charge Discharge (Cell) - Charge Step	Test &Identifier
DATE	LABEL	13-7-2017	Date
TIME	LABEL	15:55:10	Time
NOTES	NOTES	2	&Notes...
	supercap test cell
	6M KOH
PSTAT	PSTAT	IFC5000-01520	Potentiostat
CAPACITY	QUANT	1.00000E-003	Capacity (A-hr)
CELLTYPE	SELECTOR	1	&Cell Type
WORKINGCONNECTION	SELECTOR	0	&Working Lead
MAXCHARGETIME	VARIABLEANDUNITS	1.00000E+002	s	1.00000E+002	second(s)	Max &Charge Time
CHARGECURRENT	QUANT	1.00000E-004	&Charge Current (A) 
VOLTAGEFINISH	TWOPARAM	F	1.00000E-003	3.60000E+003	&Voltage Finish	 I (A) < 	Max Time(s)
SAMPLETIME	QUANT	1.00000E-002	Sa&mple Period (s)
CHARGESTOPAT1	MULTIPARAM	4	1.00000E+000	Charge Stop At &1	Voltage > Limit	V
CHARGESTOPAT2	MULTIPARAM	0	0.00000E+000	Charge Stop At &2	None	N/A
AESBHCSELECTOR	TOGGLE	F	Save Both Half Cells
IRCOMP	TOGGLE	F	IR &Measure
EOC	QUANT	0	Open Circuit (V)
SEQUENCER	TOGGLE	TRUE	Run as Sequence
PSTATMODEL	IQUANT	53	Pstat Model
PSTATSECTION	LABEL	IFC5000-01520	Pstat Section
PSTATSERIALNO	LABEL	01520	Pstat Serial Number
CTRLMODE	IQUANT	0	Control Mode
ELECTROMETER	IQUANT	1	RE=0 or CS=1
IESTAB	IQUANT	0	I/E Stability
CASPEED	IQUANT	4	Control Amp Speed
CONVENTION	IQUANT	1	Current Convention
ICHRANGE	IQUANT	2	Ich Range
ICHRANGEMODE	TOGGLE	T	Ich Auto Range
ICHOFFSETENABLE	TOGGLE	F	Ich Offset Enable
ICHOFFSET	QUANT	0	Ich Offset (V)
ICHFILTER	IQUANT	1	Ich Filter
VCHRANGE	IQUANT	2	Vch Range
VCHRANGEMODE	TOGGLE	T	Vch Auto Range
VCHOFFSETENABLE	TOGGLE	F	Vch Offset Enable
VCHOFFSET	QUANT	0	Vch Offset (V)
VCHFILTER	IQUANT	1	Vch Filter
IERANGELOWERLIMIT	IQUANT	9	I/E Range Lower Limit
IERANGEMODE	TOGGLE	F	I/E AutoRange
IERANGE	IQUANT	9	I/E Range
ACHSELECT	IQUANT	1	Ach Select
ACHRANGE	IQUANT	2	Ach Range
ACHOFFSETENABLE	TOGGLE	F	Ach Offset Enable
ACHOFFSET	QUANT	0	Ach Offset (V)
ACHFILTER	IQUANT	1	Ach Filter
CABLEID	IQUANT	14	Cable ID
DCCALDATE	LABEL	5-7-2017	DC Calibration Date
ACCALDATE	LABEL	12/3/2015	AC Calibration Date
FRAMEWORKVERSION	QUANT	7.01	Framework Version
INSTRUMENTVERSION	LABEL	4.00	Instrument Version
CURVE	TABLE	89
	Pt	T	Vf	Im	Vu	Pwr	Sig	Ach	Temp	IERange	Over
	#	s	V	A	V	W	V	V	deg C	#	bits
	0	0.013333	1.34604E-001	1.01492E-004	0.00000E+000	1.36612E-005	5.99601E-002	1.34649E-001	3.57850E+000	9	...........
	1	0.026667	1.49912E-001	1.00516E-004	0.00000E+000	1.50685E-005	5.99601E-002	1.49932E-001	3.57850E+000	9	...........
	2	0.04	1.64786E-001	1.00585E-004	0.00000E+000	1.65751E-005	5.99601E-002	1.64809E-001	3.57850E+000	9	...........
	3	0.053333	1.79398E-001	1.00664E-004	0.00000E+000	1.80589E-005	5.99601E-002	1.79423E-001	3.57850E+000	9	...........
	4	0.066667	1.93826E-001	9.99833E-005	0.00000E+000	1.93794E-005	5.99601E-002	1.93855E-001	3.57850E+000	9	...........
	5	0.08	2.08117E-001	1.00773E-004	0.00000E+000	2.09726E-005	5.99601E-002	2.08137E-001	3.57850E+000	9	...........
	6	0.093333	2.22302E-001	9.97322E-005	0.00000E+000	2.21706E-005	5.99601E-002	2.22329E-001	3.57850E+000	9	...........
	7	0.106667	2.36423E-001	1.01215E-004	0.00000E+000	2.39295E-005	5.99601E-002	2.36456E-001	3.57850E+000	9	...........
	8	0.12	2.50493E-001	1.00333E-004	0.00000E+000	2.51328E-005	5.99601E-002	2.50533E-001	3.57850E+000	9	...........
	9	0.133333	2.64545E-001	1.01129E-004	0.00000E+000	2.67533E-005	5.99601E-002	2.64591E-001	3.57850E+000	9	...........
	10	0.146667	2.78590E-001	1.00734E-004	0.00000E+000	2.80636E-005	5.99601E-002	2.78639E-001	3.57850E+000	9	...........
	11	0.16	2.92639E-001	1.00869E-004	0.00000E+000	2.95182E-005	5.99601E-002	2.92692E-001	3.57850E+000	9	...........
	12	0.173333	3.06710E-001	1.00472E-004	0.00000E+000	3.08157E-005	5.99601E-002	3.06767E-001	3.57850E+000	9	...........
	13	0.186667	3.20799E-001	1.01333E-004	0.00000E+000	3.25073E-005	5.99601E-002	3.20855E-001	3.57850E+000	9	...........
	14	0.2	3.34911E-001	1.00746E-004	0.00000E+000	3.37409E-005	5.99601E-002	3.34972E-001	3.57850E+000	9	...........
	15	0.213333	3.49060E-001	1.00691E-004	0.00000E+000	3.51471E-005	5.99601E-002	3.49123E-001	3.57850E+000	9	...........
	16	0.226667	3.63235E-001	1.00688E-004	0.00000E+000	3.65733E-005	5.99601E-002	3.63301E-001	3.57850E+000	9	...........
	17	0.24	3.77431E-001	1.01237E-004	0.00000E+000	3.82099E-005	5.99601E-002	3.77501E-001	3.57850E+000	9	...........
	18	0.253333	3.91641E-001	1.00999E-004	0.00000E+000	3.95554E-005	5.99601E-002	3.91708E-001	3.57850E+000	9	...........
	19	0.266667	4.05842E-001	1.01362E-004	0.00000E+000	4.11368E-005	5.99601E-002	4.05914E-001	3.57850E+000	9	...........
	20	0.28	4.20014E-001	1.00422E-004	0.00000E+000	4.21786E-005	5.99601E-002	4.20102E-001	3.57850E+000	9	...........
	21	0.293333	4.34162E-001	1.00507E-004	0.00000E+000	4.36365E-005	5.99601E-002	4.34251E-001	3.57850E+000	9	...........
	22	0.306667	4.48259E-001	1.01248E-004	0.00000E+000	4.53854E-005	5.99601E-002	4.48351E-001	3.57850E+000	9	...........
	23	0.32	4.62273E-001	1.01077E-004	0.00000E+000	4.67253E-005	5.99601E-002	4.62365E-001	3.57850E+000	9	...........
	24	0.333333	4.76178E-001	1.00901E-004	0.00000E+000	4.80469E-005	5.99601E-002	4.76275E-001	3.57850E+000	9	...........
	25	0.346667	4.89955E-001	1.01083E-004	0.00000E+000	4.95263E-005	5.99601E-002	4.90056E-001	3.57850E+000	9	...........
	26	0.36	5.03578E-001	9.98311E-005	0.00000E+000	5.02728E-005	5.99601E-002	5.03688E-001	3.57850E+000	9	...........
	27	0.373333	5.17046E-001	1.01127E-004	0.00000E+000	5.22875E-005	5.99601E-002	5.17151E-001	3.57850E+000	9	...........
	28	0.386667	5.30283E-001	1.00928E-004	0.00000E+000	5.35205E-005	5.99601E-002	5.30372E-001	3.57850E+000	9	...........
	29	0.4	5.43058E-001	1.00907E-004	0.00000E+000	5.47986E-005	5.99601E-002	5.43307E-001	3.57850E+000	9	...........
	30	0.413333	5.55939E-001	1.00639E-004	0.00000E+000	5.59490E-005	5.99601E-002	5.56170E-001	3.57850E+000	9	...........
	31	0.426667	5.68613E-001	9.99510E-005	0.00000E+000	5.68334E-005	5.99601E-002	5.68818E-001	3.57850E+000	9	...........
	32	0.44	5.81025E-001	1.00548E-004	0.00000E+000	5.84209E-005	5.99601E-002	5.81248E-001	3.57850E+000	9	...........
	33	0.453333	5.93229E-001	1.01080E-004	0.00000E+000	5.99638E-005	5.99601E-002	5.93468E-001	3.57850E+000	9	...........
	34	0.466667	6.05178E-001	1.01615E-004	0.00000E+000	6.14950E-005	5.99601E-002	6.05442E-001	3.57850E+000	9	...........
	35	0.48	6.16962E-001	1.00854E-004	0.00000E+000	6.22232E-005	5.99601E-002	6.17184E-001	3.57850E+000	9	...........
	36	0.493333	6.28465E-001	1.00839E-004	0.00000E+000	6.33736E-005	5.99601E-002	6.28687E-001	3.57850E+000	9	...........
	37	0.506667	6.39747E-001	1.00643E-004	0.00000E+000	6.43859E-005	5.99601E-002	6.39997E-001	3.57850E+000	9	...........
	38	0.52	6.50798E-001	1.01041E-004	0.00000E+000	6.57572E-005	5.99601E-002	6.51053E-001	3.57850E+000	9	...........
	39	0.533333	6.61636E-001	1.00077E-004	0.00000E+000	6.62146E-005	5.99601E-002	6.61889E-001	3.57850E+000	9	...........
	40	0.546667	6.72249E-001	1.01093E-004	0.00000E+000	6.79595E-005	5.99601E-002	6.72504E-001	3.57850E+000	9	...........
	41	0.56	6.82635E-001	1.00397E-004	0.00000E+000	6.85344E-005	5.99601E-002	6.82925E-001	3.57850E+000	9	...........
	42	0.573333	6.92840E-001	1.01151E-004	0.00000E+000	7.00816E-005	5.99601E-002	6.93119E-001	3.57850E+000	9	...........
	43	0.586667	7.02811E-001	1.00616E-004	0.00000E+000	7.07138E-005	5.99601E-002	7.03086E-001	3.57850E+000	9	...........
	44	0.6	7.12569E-001	1.01098E-004	0.00000E+000	7.20393E-005	5.99601E-002	7.12876E-001	3.57850E+000	9	...........
	45	0.613333	7.22191E-001	1.00141E-004	0.00000E+000	7.23206E-005	5.99601E-002	7.22470E-001	3.57850E+000	9	...........
	46	0.626667	7.31562E-001	1.01991E-004	0.00000E+000	7.46127E-005	5.99601E-002	7.31851E-001	3.57850E+000	9	...........
	47	0.64	7.40761E-001	1.00457E-004	0.00000E+000	7.44149E-005	5.99601E-002	7.41045E-001	3.57850E+000	9	...........
	48	0.653333	7.49794E-001	1.01050E-004	0.00000E+000	7.57667E-005	5.99601E-002	7.50077E-001	3.57850E+000	9	...........
	49	0.666667	7.58651E-001	1.00087E-004	0.00000E+000	7.59314E-005	5.99601E-002	7.58930E-001	3.57850E+000	9	...........
	50	0.68	7.67318E-001	1.00140E-004	0.00000E+000	7.68388E-005	5.99601E-002	7.67621E-001	3.57850E+000	9	...........
	51	0.693333	7.75827E-001	1.01140E-004	0.00000E+000	7.84669E-005	5.99601E-002	7.76125E-001	3.57850E+000	9	...........
	52	0.706667	7.84162E-001	1.00583E-004	0.00000E+000	7.88737E-005	5.99601E-002	7.84467E-001	3.57850E+000	9	...........
	53	0.72	7.92363E-001	1.00596E-004	0.00000E+000	7.97085E-005	5.99601E-002	7.92647E-001	3.57850E+000	9	...........
	54	0.733333	8.00393E-001	1.00767E-004	0.00000E+000	8.06531E-005	5.99601E-002	8.00667E-001	3.57850E+000	9	...........
	55	0.746667	8.08248E-001	1.00856E-004	0.00000E+000	8.15169E-005	5.99601E-002	8.08540E-001	3.57850E+000	9	...........
	56	0.76	8.15984E-001	1.01402E-004	0.00000E+000	8.27427E-005	5.99601E-002	8.16283E-001	3.57850E+000	9	...........
	57	0.773333	8.23587E-001	9.98895E-005	0.00000E+000	8.22677E-005	5.99601E-002	8.23865E-001	3.57850E+000	9	...........
	58	0.786667	8.31001E-001	1.01547E-004	0.00000E+000	8.43858E-005	5.99601E-002	8.31301E-001	3.57850E+000	9	...........
	59	0.8	8.38294E-001	1.00622E-004	0.00000E+000	8.43507E-005	5.99601E-002	8.38615E-001	3.57850E+000	9	...........
	60	0.813333	8.45478E-001	1.01032E-004	0.00000E+000	8.54207E-005	5.99601E-002	8.45803E-001	3.57869E+000	9	...........
	61	0.826667	8.52512E-001	1.00702E-004	0.00000E+000	8.58498E-005	5.99601E-002	8.52841E-001	3.58000E+000	9	...........
	62	0.84	8.59428E-001	1.00353E-004	0.00000E+000	8.62463E-005	5.99601E-002	8.59754E-001	3.58000E+000	9	...........
	63	0.853333	8.66183E-001	1.01794E-004	0.00000E+000	8.81723E-005	5.99601E-002	8.66546E-001	3.58000E+000	9	...........
	64	0.866667	8.72893E-001	1.01323E-004	0.00000E+000	8.84442E-005	5.99601E-002	8.73222E-001	3.58000E+000	9	...........
	65	0.88	8.79421E-001	1.01451E-004	0.00000E+000	8.92184E-005	5.99601E-002	8.79766E-001	3.58000E+000	9	...........
	66	0.893333	8.85835E-001	1.00103E-004	0.00000E+000	8.86748E-005	5.99601E-002	8.86200E-001	3.58000E+000	9	...........
	67	0.906667	8.92137E-001	1.00544E-004	0.00000E+000	8.96989E-005	5.99601E-002	8.92503E-001	3.58000E+000	9	...........
	68	0.92	8.98337E-001	1.00795E-004	0.00000E+000	9.05478E-005	5.99601E-002	8.98692E-001	3.58000E+000	9	...........
	69	0.933333	9.04411E-001	1.01040E-004	0.00000E+000	9.13814E-005	5.99601E-002	9.04788E-001	3.58000E+000	9	...........
	70	0.946667	9.10390E-001	1.01270E-004	0.00000E+000	9.21952E-005	5.99601E-002	9.10755E-001	3.58000E+000	9	...........
	71	0.96	9.16230E-001	1.00906E-004	0.00000E+000	9.24534E-005	5.99601E-002	9.16604E-001	3.58000E+000	9	...........
	72	0.97333	9.22017E-001	1.01528E-004	0.00000E+000	9.36109E-005	5.99601E-002	9.22340E-001	3.58000E+000	9	...........
	73	0.98667	9.27646E-001	1.00477E-004	0.00000E+000	9.32071E-005	5.99601E-002	9.27970E-001	3.58000E+000	9	...........
	74	1	9.33185E-001	1.00360E-004	0.00000E+000	9.36548E-005	5.99601E-002	9.33509E-001	3.58000E+000	9	...........
	75	1.01333	9.38587E-001	1.01513E-004	0.00000E+000	9.52786E-005	5.99601E-002	9.38925E-001	3.58000E+000	9	...........
	76	1.02667	9.43882E-001	1.01210E-004	0.00000E+000	9.55298E-005	5.99601E-002	9.44234E-001	3.58000E+000	9	...........
	77	1.04	9.49129E-001	1.00766E-004	0.00000E+000	9.56396E-005	5.99601E-002	9.49479E-001	3.58000E+000	9	...........
	78	1.05333	9.54217E-001	1.00613E-004	0.00000E+000	9.60062E-005	5.99601E-002	9.54591E-001	3.58000E+000	9	...........
	79	1.06667	9.59207E-001	9.99270E-005	0.00000E+000	9.58507E-005	5.99601E-002	9.59594E-001	3.58000E+000	9	...........
	80	1.08	9.64111E-001	1.00721E-004	0.00000E+000	9.71062E-005	5.99601E-002	9.64479E-001	3.58000E+000	9	...........
	81	1.09333	9.68911E-001	1.00300E-004	0.00000E+000	9.71817E-005	5.99601E-002	9.69278E-001	3.58000E+000	9	...........
	82	1.10667	9.73634E-001	1.00587E-004	0.00000E+000	9.79344E-005	5.99601E-002	9.74021E-001	3.58000E+000	9	...........
	83	1.12	9.78255E-001	1.01106E-004	0.00000E+000	9.89079E-005	5.99601E-002	9.78618E-001	3.58000E+000	9	...........
	84	1.13333	9.82757E-001	1.00401E-004	0.00000E+000	9.86699E-005	5.99601E-002	9.83110E-001	3.58000E+000	9	...........
	85	1.14667	9.87154E-001	1.01268E-004	0.00000E+000	9.99670E-005	5.99601E-002	9.87529E-001	3.58000E+000	9	...........
	86	1.16	9.91470E-001	1.00456E-004	0.00000E+000	9.95994E-005	5.99601E-002	9.91816E-001	3.58000E+000	9	...........
	87	1.17333	9.95682E-001	1.00476E-004	0.00000E+000	1.00042E-004	5.99601E-002	9.96044E-001	3.58000E+000	9	...........
	88	1.18167	9.99044E-001	1.02152E-004	0.00000E+000	1.02054E-004	5.99601E-002	9.99435E-001	3.58000E+000	9	...........
STARTTIMEOFFSET	QUANT	2399.269	Start Time Offset (s)
