EXPLAIN
TAG	PWR800_CHARGE
TITLE	LABEL	PWR Cyclic Charge Discharge (Cell) - Charge Step	Test &Identifier
DATE	LABEL	13-7-2017	Date
TIME	LABEL	15:49:29	Time
NOTES	NOTES	2	&Notes...
	supercap test cell
	6M KOH
PSTAT	PSTAT	IFC5000-01520	Potentiostat
CAPACITY	QUANT	1.00000E-003	Capacity (A-hr)
CELLTYPE	SELECTOR	1	&Cell Type
WORKINGCONNECTION	SELECTOR	0	&Working Lead
MAXCHARGETIME	VARIABLEANDUNITS	1.00000E+002	s	1.00000E+002	second(s)	Max &Charge Time
CHARGECURRENT	QUANT	1.00000E-004	&Charge Current (A) 
VOLTAGEFINISH	TWOPARAM	F	1.00000E-003	3.60000E+003	&Voltage Finish	 I (A) < 	Max Time(s)
SAMPLETIME	QUANT	1.00000E-002	Sa&mple Period (s)
CHARGESTOPAT1	MULTIPARAM	4	1.00000E+000	Charge Stop At &1	Voltage > Limit	V
CHARGESTOPAT2	MULTIPARAM	0	0.00000E+000	Charge Stop At &2	None	N/A
AESBHCSELECTOR	TOGGLE	F	Save Both Half Cells
IRCOMP	TOGGLE	F	IR &Measure
EOC	QUANT	0	Open Circuit (V)
SEQUENCER	TOGGLE	TRUE	Run as Sequence
PSTATMODEL	IQUANT	53	Pstat Model
PSTATSECTION	LABEL	IFC5000-01520	Pstat Section
PSTATSERIALNO	LABEL	01520	Pstat Serial Number
CTRLMODE	IQUANT	0	Control Mode
ELECTROMETER	IQUANT	1	RE=0 or CS=1
IESTAB	IQUANT	0	I/E Stability
CASPEED	IQUANT	4	Control Amp Speed
CONVENTION	IQUANT	1	Current Convention
ICHRANGE	IQUANT	2	Ich Range
ICHRANGEMODE	TOGGLE	T	Ich Auto Range
ICHOFFSETENABLE	TOGGLE	F	Ich Offset Enable
ICHOFFSET	QUANT	0	Ich Offset (V)
ICHFILTER	IQUANT	1	Ich Filter
VCHRANGE	IQUANT	2	Vch Range
VCHRANGEMODE	TOGGLE	T	Vch Auto Range
VCHOFFSETENABLE	TOGGLE	F	Vch Offset Enable
VCHOFFSET	QUANT	0	Vch Offset (V)
VCHFILTER	IQUANT	1	Vch Filter
IERANGELOWERLIMIT	IQUANT	9	I/E Range Lower Limit
IERANGEMODE	TOGGLE	F	I/E AutoRange
IERANGE	IQUANT	9	I/E Range
ACHSELECT	IQUANT	1	Ach Select
ACHRANGE	IQUANT	2	Ach Range
ACHOFFSETENABLE	TOGGLE	F	Ach Offset Enable
ACHOFFSET	QUANT	0	Ach Offset (V)
ACHFILTER	IQUANT	1	Ach Filter
CABLEID	IQUANT	14	Cable ID
DCCALDATE	LABEL	5-7-2017	DC Calibration Date
ACCALDATE	LABEL	12/3/2015	AC Calibration Date
FRAMEWORKVERSION	QUANT	7.01	Framework Version
INSTRUMENTVERSION	LABEL	4.00	Instrument Version
CURVE	TABLE	90
	Pt	T	Vf	Im	Vu	Pwr	Sig	Ach	Temp	IERange	Over
	#	s	V	A	V	W	V	V	deg C	#	bits
	0	0.013333	1.33719E-001	1.00670E-004	0.00000E+000	1.34615E-005	5.99601E-002	1.33759E-001	3.58000E+000	9	...........
	1	0.026667	1.49005E-001	1.01141E-004	0.00000E+000	1.50705E-005	5.99601E-002	1.49016E-001	3.58000E+000	9	...........
	2	0.04	1.63846E-001	1.00491E-004	0.00000E+000	1.64650E-005	5.99601E-002	1.63864E-001	3.58000E+000	9	...........
	3	0.053333	1.78422E-001	1.00222E-004	0.00000E+000	1.78818E-005	5.99601E-002	1.78447E-001	3.58000E+000	9	...........
	4	0.066667	1.92819E-001	1.01380E-004	0.00000E+000	1.95480E-005	5.99601E-002	1.92848E-001	3.58000E+000	9	...........
	5	0.08	2.07077E-001	1.00493E-004	0.00000E+000	2.08097E-005	5.99601E-002	2.07104E-001	3.58000E+000	9	...........
	6	0.093333	2.21235E-001	1.01313E-004	0.00000E+000	2.24139E-005	5.99601E-002	2.21265E-001	3.58000E+000	9	...........
	7	0.106667	2.35320E-001	1.00575E-004	0.00000E+000	2.36673E-005	5.99601E-002	2.35355E-001	3.58000E+000	9	...........
	8	0.12	2.49363E-001	1.01630E-004	0.00000E+000	2.53429E-005	5.99601E-002	2.49407E-001	3.58000E+000	9	...........
	9	0.133333	2.63378E-001	9.94352E-005	0.00000E+000	2.61890E-005	5.99601E-002	2.63428E-001	3.58000E+000	9	...........
	10	0.146667	2.77398E-001	1.01524E-004	0.00000E+000	2.81627E-005	5.99601E-002	2.77446E-001	3.58000E+000	9	...........
	11	0.16	2.91409E-001	1.00436E-004	0.00000E+000	2.92681E-005	5.99601E-002	2.91463E-001	3.58000E+000	9	...........
	12	0.173333	3.05444E-001	1.00840E-004	0.00000E+000	3.08009E-005	5.99601E-002	3.05497E-001	3.58000E+000	9	...........
	13	0.186667	3.19501E-001	1.01085E-004	0.00000E+000	3.22966E-005	5.99601E-002	3.19555E-001	3.58000E+000	9	...........
	14	0.2	3.33574E-001	1.00332E-004	0.00000E+000	3.34682E-005	5.99601E-002	3.33634E-001	3.58000E+000	9	...........
	15	0.213333	3.47685E-001	1.00495E-004	0.00000E+000	3.49405E-005	5.99601E-002	3.47742E-001	3.58000E+000	9	...........
	16	0.226667	3.61818E-001	1.00623E-004	0.00000E+000	3.64072E-005	5.99601E-002	3.61883E-001	3.58000E+000	9	...........
	17	0.24	3.75963E-001	1.01088E-004	0.00000E+000	3.80052E-005	5.99601E-002	3.76033E-001	3.58000E+000	9	...........
	18	0.253333	3.90128E-001	1.01031E-004	0.00000E+000	3.94152E-005	5.99601E-002	3.90191E-001	3.58000E+000	9	...........
	19	0.266667	4.04285E-001	1.01139E-004	0.00000E+000	4.08889E-005	5.99601E-002	4.04353E-001	3.58000E+000	9	...........
	20	0.28	4.18424E-001	1.00914E-004	0.00000E+000	4.22247E-005	5.99601E-002	4.18496E-001	3.58000E+000	9	...........
	21	0.293333	4.32524E-001	1.01018E-004	0.00000E+000	4.36927E-005	5.99601E-002	4.32603E-001	3.58000E+000	9	...........
	22	0.306667	4.46572E-001	1.00507E-004	0.00000E+000	4.48838E-005	5.99601E-002	4.46653E-001	3.58000E+000	9	...........
	23	0.32	4.60541E-001	9.99551E-005	0.00000E+000	4.60334E-005	5.99601E-002	4.60622E-001	3.58000E+000	9	...........
	24	0.333333	4.74405E-001	1.01194E-004	0.00000E+000	4.80069E-005	5.99601E-002	4.74495E-001	3.58000E+000	9	...........
	25	0.346667	4.88141E-001	1.00881E-004	0.00000E+000	4.92443E-005	5.99601E-002	4.88233E-001	3.58000E+000	9	...........
	26	0.36	5.01729E-001	1.00543E-004	0.00000E+000	5.04453E-005	5.99601E-002	5.01829E-001	3.58000E+000	9	...........
	27	0.373333	5.15155E-001	1.00604E-004	0.00000E+000	5.18268E-005	5.99601E-002	5.15257E-001	3.57975E+000	9	...........
	28	0.386667	5.28393E-001	1.00524E-004	0.00000E+000	5.31162E-005	5.99601E-002	5.28465E-001	3.57960E+000	9	...........
	29	0.4	5.41079E-001	1.00429E-004	0.00000E+000	5.43401E-005	5.99601E-002	5.41336E-001	3.57960E+000	9	...........
	30	0.413333	5.53901E-001	1.01719E-004	0.00000E+000	5.63423E-005	5.99601E-002	5.54145E-001	3.57960E+000	9	...........
	31	0.426667	5.66548E-001	1.00495E-004	0.00000E+000	5.69352E-005	5.99601E-002	5.66787E-001	3.57960E+000	9	...........
	32	0.44	5.78929E-001	1.01673E-004	0.00000E+000	5.88616E-005	5.99601E-002	5.79173E-001	3.57960E+000	9	...........
	33	0.453333	5.91106E-001	1.00816E-004	0.00000E+000	5.95928E-005	5.99601E-002	5.91353E-001	3.57960E+000	9	...........
	34	0.466667	6.03001E-001	1.01155E-004	0.00000E+000	6.09967E-005	5.99601E-002	6.03268E-001	3.57960E+000	9	...........
	35	0.48	6.14729E-001	1.00510E-004	0.00000E+000	6.17867E-005	5.99601E-002	6.14982E-001	3.57960E+000	9	...........
	36	0.493333	6.26200E-001	1.00499E-004	0.00000E+000	6.29325E-005	5.99601E-002	6.26456E-001	3.57960E+000	9	...........
	37	0.506667	6.37468E-001	1.00733E-004	0.00000E+000	6.42144E-005	5.99601E-002	6.37711E-001	3.57960E+000	9	...........
	38	0.52	6.48485E-001	1.00125E-004	0.00000E+000	6.49295E-005	5.99601E-002	6.48739E-001	3.57960E+000	9	...........
	39	0.533333	6.59281E-001	1.00383E-004	0.00000E+000	6.61809E-005	5.99601E-002	6.59527E-001	3.57960E+000	9	...........
	40	0.546667	6.69867E-001	1.00782E-004	0.00000E+000	6.75107E-005	5.99601E-002	6.70127E-001	3.57960E+000	9	...........
	41	0.56	6.80240E-001	1.00518E-004	0.00000E+000	6.83762E-005	5.99601E-002	6.80499E-001	3.57960E+000	9	...........
	42	0.573333	6.90388E-001	1.01122E-004	0.00000E+000	6.98134E-005	5.99601E-002	6.90659E-001	3.57960E+000	9	...........
	43	0.586667	7.00325E-001	1.00206E-004	0.00000E+000	7.01769E-005	5.99601E-002	7.00626E-001	3.57960E+000	9	...........
	44	0.6	7.10074E-001	1.00122E-004	0.00000E+000	7.10939E-005	5.99601E-002	7.10361E-001	3.57960E+000	9	...........
	45	0.613333	7.19685E-001	1.00967E-004	0.00000E+000	7.26643E-005	5.99601E-002	7.19959E-001	3.57960E+000	9	...........
	46	0.626667	7.29031E-001	1.01102E-004	0.00000E+000	7.37067E-005	5.99601E-002	7.29326E-001	3.57960E+000	9	...........
	47	0.64	7.38205E-001	1.01362E-004	0.00000E+000	7.48257E-005	5.99601E-002	7.38510E-001	3.57960E+000	9	...........
	48	0.653333	7.47230E-001	1.00937E-004	0.00000E+000	7.54229E-005	5.99601E-002	7.47518E-001	3.57960E+000	9	...........
	49	0.666667	7.56066E-001	9.97749E-005	0.00000E+000	7.54364E-005	5.99601E-002	7.56317E-001	3.57960E+000	9	...........
	50	0.68	7.64722E-001	1.00143E-004	0.00000E+000	7.65813E-005	5.99601E-002	7.64984E-001	3.57960E+000	9	...........
	51	0.693333	7.73247E-001	1.00646E-004	0.00000E+000	7.78242E-005	5.99601E-002	7.73472E-001	3.57960E+000	9	...........
	52	0.706667	7.81535E-001	1.00429E-004	0.00000E+000	7.84889E-005	5.99601E-002	7.81804E-001	3.57960E+000	9	...........
	53	0.72	7.89696E-001	1.01398E-004	0.00000E+000	8.00737E-005	5.99601E-002	7.89952E-001	3.57960E+000	9	...........
	54	0.733333	7.97737E-001	1.01336E-004	0.00000E+000	8.08392E-005	5.99601E-002	7.97977E-001	3.57960E+000	9	...........
	55	0.746667	8.05592E-001	1.00973E-004	0.00000E+000	8.13431E-005	5.99601E-002	8.05856E-001	3.57960E+000	9	...........
	56	0.76	8.13283E-001	1.00477E-004	0.00000E+000	8.17164E-005	5.99601E-002	8.13560E-001	3.57960E+000	9	...........
	57	0.773333	8.20874E-001	1.00226E-004	0.00000E+000	8.22729E-005	5.99601E-002	8.21168E-001	3.57960E+000	9	...........
	58	0.786667	8.28288E-001	1.01135E-004	0.00000E+000	8.37685E-005	5.99601E-002	8.28595E-001	3.57960E+000	9	...........
	59	0.8	8.35544E-001	1.00438E-004	0.00000E+000	8.39200E-005	5.99601E-002	8.35907E-001	3.57960E+000	9	...........
	60	0.813333	8.42707E-001	1.00663E-004	0.00000E+000	8.48290E-005	5.99601E-002	8.43059E-001	3.57960E+000	9	...........
	61	0.826667	8.49745E-001	1.01024E-004	0.00000E+000	8.58448E-005	5.99601E-002	8.50101E-001	3.57960E+000	9	...........
	62	0.84	8.56643E-001	1.01470E-004	0.00000E+000	8.69236E-005	5.99601E-002	8.57013E-001	3.57960E+000	9	...........
	63	0.853333	8.63423E-001	1.00570E-004	0.00000E+000	8.68343E-005	5.99601E-002	8.63789E-001	3.57960E+000	9	...........
	64	0.866667	8.70086E-001	1.01422E-004	0.00000E+000	8.82459E-005	5.99601E-002	8.70447E-001	3.57960E+000	9	...........
	65	0.88	8.76622E-001	1.01067E-004	0.00000E+000	8.85974E-005	5.99601E-002	8.76981E-001	3.57960E+000	9	...........
	66	0.893333	8.83034E-001	1.00833E-004	0.00000E+000	8.90394E-005	5.99601E-002	8.83372E-001	3.57960E+000	9	...........
	67	0.906667	8.89334E-001	1.00652E-004	0.00000E+000	8.95134E-005	5.99601E-002	8.89683E-001	3.57960E+000	9	...........
	68	0.92	8.95517E-001	1.00824E-004	0.00000E+000	9.02897E-005	5.99601E-002	8.95855E-001	3.57960E+000	9	...........
	69	0.933333	9.01597E-001	1.00839E-004	0.00000E+000	9.09158E-005	5.99601E-002	9.01940E-001	3.57960E+000	9	...........
	70	0.946667	9.07539E-001	1.00411E-004	0.00000E+000	9.11274E-005	5.99601E-002	9.07903E-001	3.57960E+000	9	...........
	71	0.96	9.13406E-001	1.00971E-004	0.00000E+000	9.22275E-005	5.99601E-002	9.13773E-001	3.57960E+000	9	...........
	72	0.97333	9.19154E-001	1.01156E-004	0.00000E+000	9.29783E-005	5.99601E-002	9.19513E-001	3.57960E+000	9	...........
	73	0.98667	9.24817E-001	1.00734E-004	0.00000E+000	9.31609E-005	5.99601E-002	9.25154E-001	3.57960E+000	9	...........
	74	1	9.30338E-001	1.01384E-004	0.00000E+000	9.43209E-005	5.99601E-002	9.30643E-001	3.57960E+000	9	...........
	75	1.01333	9.35754E-001	1.00173E-004	0.00000E+000	9.37371E-005	5.99601E-002	9.36059E-001	3.57960E+000	9	...........
	76	1.02667	9.41059E-001	1.00612E-004	0.00000E+000	9.46814E-005	5.99601E-002	9.41351E-001	3.57960E+000	9	...........
	77	1.04	9.46295E-001	1.01276E-004	0.00000E+000	9.58372E-005	5.99601E-002	9.46590E-001	3.57960E+000	9	...........
	78	1.05333	9.51406E-001	1.00886E-004	0.00000E+000	9.59831E-005	5.99601E-002	9.51721E-001	3.57960E+000	9	...........
	79	1.06667	9.56394E-001	1.00525E-004	0.00000E+000	9.61415E-005	5.99601E-002	9.56704E-001	3.57960E+000	9	...........
	80	1.08	9.61320E-001	1.00532E-004	0.00000E+000	9.66438E-005	5.99601E-002	9.61614E-001	3.57960E+000	9	...........
	81	1.09333	9.66105E-001	1.00194E-004	0.00000E+000	9.67976E-005	5.99601E-002	9.66401E-001	3.57960E+000	9	...........
	82	1.10667	9.70813E-001	1.01592E-004	0.00000E+000	9.86267E-005	5.99601E-002	9.71135E-001	3.57960E+000	9	...........
	83	1.12	9.75478E-001	1.01140E-004	0.00000E+000	9.86596E-005	5.99601E-002	9.75785E-001	3.57960E+000	9	...........
	84	1.13333	9.79980E-001	1.00572E-004	0.00000E+000	9.85585E-005	5.99601E-002	9.80315E-001	3.57960E+000	9	...........
	85	1.14667	9.84404E-001	1.00742E-004	0.00000E+000	9.91706E-005	5.99601E-002	9.84752E-001	3.57960E+000	9	...........
	86	1.16	9.88728E-001	1.01215E-004	0.00000E+000	1.00074E-004	5.99601E-002	9.89092E-001	3.57960E+000	9	...........
	87	1.17333	9.92943E-001	1.00737E-004	0.00000E+000	1.00026E-004	5.99601E-002	9.93292E-001	3.57960E+000	9	...........
	88	1.18667	9.97096E-001	9.98270E-005	0.00000E+000	9.95371E-005	5.99601E-002	9.97482E-001	3.57960E+000	9	...........
	89	1.19167	9.99906E-001	1.00234E-004	0.00000E+000	1.00225E-004	5.99601E-002	1.00026E+000	3.57960E+000	9	...........
STARTTIMEOFFSET	QUANT	2143.91	Start Time Offset (s)
